Data from 17c-ppt-2-5a_Absorbance__89__00089.txt Node

Date: Mon Jan 15 09:21:47 CET 2024
User: Marek
Spectrometer: MAYP115816
Trigger mode: 0
Integration Time (sec): 2.000000E-1
Scans to average: 10
Electric dark correction enabled: true
Nonlinearity correction enabled: true
Boxcar width: 5
XAxis mode: Wavelengths
Number of Pixels in Spectrum: 2068
>>>>>Begin Spectral Data<<<<<
199	-2.072
199	-1.938
200	-1.792
200	-1.679
201	-1.604
201	-1.552
202	-1.478
202	-1.419
203	-1.367
203	-1.324
204	-1.294
204	-1.272
205	-1.25
205	-1.241
205	-1.239
206	-1.237
206	-1.235
207	-1.231
207	-1.227
208	-1.225
208	-1.219
209	-1.218
209	-1.215
210	-1.214
210	-1.212
211	-1.209
211	-1.206
212	-1.203
212	-1.203
213	-1.202
213	-1.201
213	-1.201
214	-1.199
214	-1.2
215	-1.199
215	-1.199
216	-1.198
216	-1.197
217	-1.197
217	-1.196
218	-1.195
218	-1.191
219	-1.19
219	-1.188
220	-1.183
220	-1.178
221	-1.174
221	-1.169
221	-1.164
222	-1.159
222	-1.154
223	-1.146
223	-1.142
224	-1.136
224	-1.128
225	-1.12
225	-1.109
226	-1.099
226	-1.088
227	-1.074
227	-1.057
228	-1.039
228	-1.019
229	-0.996
229	-0.968
229	-0.94
230	-0.909
230	-0.877
231	-0.84
231	-0.803
232	-0.763
232	-0.722
233	-0.679
233	-0.636
234	-0.593
234	-0.551
235	-0.509
235	-0.467
236	-0.427
236	-0.388
236	-0.351
237	-0.316
237	-0.284
238	-0.253
238	-0.225
239	-0.199
239	-0.174
240	-0.152
240	-0.132
241	-0.113
241	-0.096
242	-0.081
242	-0.066
243	-0.053
243	-0.041
243	-0.031
244	-0.021
244	-0.011
245	-0.003
245	0.004
246	0.011
246	0.017
247	0.023
247	0.029
248	0.034
248	0.038
249	0.042
249	0.046
250	0.05
250	0.053
250	0.057
251	0.06
251	0.063
252	0.065
252	0.068
253	0.07
253	0.072
254	0.074
254	0.076
255	0.077
255	0.079
256	0.08
256	0.081
257	0.083
257	0.084
258	0.085
258	0.086
258	0.087
259	0.087
259	0.088
260	0.089
260	0.089
261	0.09
261	0.09
262	0.09
262	0.09
263	0.09
263	0.091
264	0.091
264	0.091
265	0.091
265	0.091
265	0.091
266	0.091
266	0.091
267	0.091
267	0.091
268	0.091
268	0.09
269	0.09
269	0.089
270	0.089
270	0.089
271	0.088
271	0.088
272	0.088
272	0.087
272	0.087
273	0.087
273	0.087
274	0.086
274	0.086
275	0.085
275	0.085
276	0.084
276	0.084
277	0.083
277	0.083
278	0.082
278	0.081
278	0.081
279	0.081
279	0.08
280	0.08
280	0.08
281	0.08
281	0.08
282	0.08
282	0.08
283	0.08
283	0.08
284	0.08
284	0.08
285	0.079
285	0.079
285	0.079
286	0.079
286	0.079
287	0.079
287	0.078
288	0.078
288	0.078
289	0.078
289	0.078
290	0.078
290	0.077
291	0.077
291	0.077
292	0.077
292	0.077
292	0.076
293	0.076
293	0.076
294	0.076
294	0.076
295	0.076
295	0.076
296	0.076
296	0.076
297	0.076
297	0.076
298	0.075
298	0.075
298	0.075
299	0.075
299	0.075
300	0.074
300	0.074
301	0.074
301	0.074
302	0.074
302	0.074
303	0.073
303	0.073
304	0.073
304	0.073
305	0.073
305	0.073
305	0.072
306	0.072
306	0.072
307	0.072
307	0.071
308	0.071
308	0.071
309	0.071
309	0.07
310	0.07
310	0.07
311	0.069
311	0.069
311	0.069
312	0.068
312	0.068
313	0.068
313	0.067
314	0.067
314	0.067
315	0.066
315	0.066
316	0.066
316	0.066
317	0.065
317	0.065
318	0.064
318	0.064
318	0.064
319	0.063
319	0.063
320	0.063
320	0.062
321	0.062
321	0.061
322	0.061
322	0.06
323	0.06
323	0.06
324	0.059
324	0.059
324	0.058
325	0.058
325	0.058
326	0.057
326	0.057
327	0.057
327	0.056
328	0.056
328	0.056
329	0.055
329	0.055
330	0.055
330	0.054
330	0.054
331	0.053
331	0.053
332	0.053
332	0.052
333	0.052
333	0.052
334	0.051
334	0.051
335	0.05
335	0.05
336	0.049
336	0.049
336	0.049
337	0.048
337	0.048
338	0.047
338	0.047
339	0.047
339	0.047
340	0.046
340	0.046
341	0.046
341	0.045
342	0.045
342	0.044
342	0.044
343	0.044
343	0.043
344	0.043
344	0.042
345	0.042
345	0.042
346	0.041
346	0.041
347	0.041
347	0.04
348	0.04
348	0.04
348	0.039
349	0.039
349	0.038
350	0.038
350	0.037
351	0.037
351	0.036
352	0.036
352	0.035
353	0.035
353	0.034
354	0.033
354	0.033
354	0.032
355	0.032
355	0.031
356	0.031
356	0.031
357	0.031
357	0.03
358	0.031
358	0.031
359	0.031
359	0.032
360	0.032
360	0.032
360	0.033
361	0.033
361	0.033
362	0.033
362	0.033
363	0.033
363	0.033
364	0.033
364	0.032
365	0.032
365	0.032
366	0.032
366	0.031
366	0.031
367	0.031
367	0.031
368	0.031
368	0.03
369	0.03
369	0.03
370	0.029
370	0.029
371	0.029
371	0.029
372	0.029
372	0.029
372	0.028
373	0.028
373	0.028
374	0.029
374	0.029
375	0.029
375	0.029
376	0.029
376	0.029
377	0.029
377	0.029
378	0.03
378	0.03
378	0.03
379	0.03
379	0.03
380	0.03
380	0.03
381	0.03
381	0.03
382	0.03
382	0.03
383	0.029
383	0.029
383	0.029
384	0.029
384	0.029
385	0.028
385	0.028
386	0.028
386	0.029
387	0.029
387	0.029
388	0.029
388	0.028
389	0.028
389	0.028
389	0.029
390	0.029
390	0.029
391	0.03
391	0.03
392	0.03
392	0.03
393	0.03
393	0.03
394	0.03
394	0.03
394	0.03
395	0.03
395	0.029
396	0.029
396	0.029
397	0.029
397	0.029
398	0.03
398	0.03
399	0.03
399	0.03
400	0.03
400	0.03
400	0.03
401	0.029
401	0.028
402	0.028
402	0.027
403	0.027
403	0.027
404	0.027
404	0.027
405	0.027
405	0.027
405	0.027
406	0.027
406	0.027
407	0.027
407	0.027
408	0.027
408	0.027
409	0.026
409	0.026
410	0.026
410	0.026
411	0.026
411	0.026
411	0.026
412	0.026
412	0.025
413	0.025
413	0.025
414	0.025
414	0.025
415	0.025
415	0.025
416	0.024
416	0.024
416	0.024
417	0.024
417	0.023
418	0.023
418	0.023
419	0.024
419	0.024
420	0.024
420	0.025
421	0.025
421	0.026
421	0.026
422	0.026
422	0.026
423	0.026
423	0.026
424	0.026
424	0.026
425	0.025
425	0.025
426	0.024
426	0.024
427	0.024
427	0.024
427	0.024
428	0.024
428	0.025
429	0.025
429	0.026
430	0.026
430	0.026
431	0.026
431	0.026
432	0.026
432	0.026
432	0.025
433	0.024
433	0.023
434	0.023
434	0.022
435	0.022
435	0.022
436	0.022
436	0.022
437	0.022
437	0.022
437	0.022
438	0.022
438	0.022
439	0.022
439	0.022
440	0.022
440	0.022
441	0.022
441	0.022
442	0.022
442	0.023
442	0.023
443	0.023
443	0.024
444	0.024
444	0.024
445	0.024
445	0.024
446	0.024
446	0.024
447	0.024
447	0.024
447	0.023
448	0.023
448	0.023
449	0.023
449	0.023
450	0.022
450	0.022
451	0.022
451	0.021
452	0.021
452	0.021
452	0.02
453	0.02
453	0.019
454	0.019
454	0.019
455	0.018
455	0.018
456	0.018
456	0.018
457	0.018
457	0.018
458	0.018
458	0.018
458	0.018
459	0.018
459	0.019
460	0.018
460	0.018
461	0.017
461	0.017
462	0.016
462	0.016
463	0.016
463	0.017
463	0.017
464	0.017
464	0.017
465	0.017
465	0.017
466	0.017
466	0.017
467	0.016
467	0.016
467	0.015
468	0.014
468	0.013
469	0.011
469	0.01
470	0.009
470	0.009
471	0.009
471	0.009
472	0.009
472	0.009
472	0.009
473	0.01
473	0.01
474	0.011
474	0.011
475	0.012
475	0.012
476	0.012
476	0.012
477	0.012
477	0.011
477	0.011
478	0.011
478	0.011
479	0.011
479	0.011
480	0.011
480	0.012
481	0.012
481	0.012
482	0.013
482	0.013
482	0.014
483	0.015
483	0.017
484	0.019
484	0.02
485	0.021
485	0.022
486	0.022
486	0.023
487	0.023
487	0.023
487	0.023
488	0.023
488	0.022
489	0.02
489	0.019
490	0.017
490	0.017
491	0.016
491	0.016
492	0.016
492	0.016
492	0.016
493	0.016
493	0.016
494	0.017
494	0.018
495	0.019
495	0.02
496	0.02
496	0.021
496	0.021
497	0.021
497	0.022
498	0.021
498	0.021
499	0.021
499	0.02
500	0.02
500	0.02
501	0.02
501	0.021
501	0.021
502	0.022
502	0.023
503	0.023
503	0.024
504	0.024
504	0.024
505	0.024
505	0.024
506	0.023
506	0.023
506	0.023
507	0.022
507	0.022
508	0.022
508	0.022
509	0.022
509	0.021
510	0.021
510	0.021
511	0.021
511	0.021
511	0.021
512	0.02
512	0.019
513	0.018
513	0.017
514	0.016
514	0.015
515	0.015
515	0.014
515	0.014
516	0.012
516	0.011
517	0.011
517	0.011
518	0.011
518	0.011
519	0.011
519	0.01
520	0.009
520	0.008
520	0.007
521	0.006
521	0.005
522	0.003
522	0.001
523	-0.002
523	-0.004
524	-0.005
524	-0.006
524	-0.007
525	-0.008
525	-0.008
526	-0.007
526	-0.006
527	-0.004
527	-0.001
528	0.001
528	0.003
529	0.004
529	0.006
529	0.007
530	0.008
530	0.009
531	0.01
531	0.01
532	0.01
532	0.01
533	0.01
533	0.01
533	0.01
534	0.01
534	0.01
535	0.009
535	0.009
536	0.01
536	0.01
537	0.01
537	0.01
538	0.01
538	0.009
538	0.008
539	0.008
539	0.008
540	0.008
540	0.008
541	0.007
541	0.007
542	0.006
542	0.006
542	0.006
543	0.006
543	0.006
544	0.006
544	0.005
545	0.005
545	0.006
546	0.006
546	0.006
547	0.006
547	0.005
547	0.004
548	0.004
548	0.003
549	0.002
549	0.001
550	0.001
550	-0
551	-0.001
551	-0.002
551	-0.002
552	-0.002
552	-0.002
553	-0.002
553	-0.001
554	-0
554	0
555	0
555	-0
556	-0.001
556	-0.002
556	-0.003
557	-0.004
557	-0.005
558	-0.005
558	-0.006
559	-0.006
559	-0.006
560	-0.006
560	-0.005
560	-0.005
561	-0.004
561	-0.003
562	-0.002
562	-0.002
563	-0.002
563	-0.003
564	-0.003
564	-0.004
564	-0.005
565	-0.005
565	-0.005
566	-0.005
566	-0.005
567	-0.004
567	-0.003
568	-0.001
568	0.001
568	0.003
569	0.005
569	0.007
570	0.01
570	0.011
571	0.012
571	0.014
572	0.015
572	0.016
573	0.016
573	0.017
573	0.017
574	0.017
574	0.018
575	0.018
575	0.018
576	0.019
576	0.02
577	0.02
577	0.02
577	0.02
578	0.02
578	0.02
579	0.021
579	0.023
580	0.024
580	0.024
581	0.024
581	0.023
581	0.023
582	0.022
582	0.023
583	0.023
583	0.023
584	0.023
584	0.021
585	0.02
585	0.019
585	0.019
586	0.019
586	0.019
587	0.019
587	0.018
588	0.017
588	0.015
589	0.015
589	0.014
590	0.014
590	0.014
590	0.015
591	0.016
591	0.017
592	0.017
592	0.018
593	0.018
593	0.018
594	0.018
594	0.017
594	0.017
595	0.017
595	0.016
596	0.016
596	0.016
597	0.016
597	0.018
598	0.02
598	0.021
598	0.022
599	0.023
599	0.024
600	0.024
600	0.023
601	0.023
601	0.022
602	0.021
602	0.02
602	0.019
603	0.019
603	0.018
604	0.019
604	0.02
605	0.021
605	0.023
606	0.024
606	0.025
606	0.025
607	0.025
607	0.025
608	0.025
608	0.025
609	0.024
609	0.024
610	0.023
610	0.023
610	0.022
611	0.022
611	0.023
612	0.024
612	0.025
613	0.026
613	0.028
614	0.028
614	0.028
614	0.028
615	0.028
615	0.028
616	0.027
616	0.027
617	0.027
617	0.026
618	0.025
618	0.024
618	0.024
619	0.024
619	0.024
620	0.025
620	0.027
621	0.028
621	0.028
622	0.029
622	0.03
622	0.031
623	0.031
623	0.032
624	0.033
624	0.033
625	0.033
625	0.033
626	0.034
626	0.034
626	0.034
627	0.034
627	0.035
628	0.036
628	0.036
629	0.037
629	0.037
630	0.037
630	0.037
630	0.037
631	0.038
631	0.039
632	0.039
632	0.039
633	0.04
633	0.041
634	0.042
634	0.044
634	0.046
635	0.048
635	0.049
636	0.05
636	0.052
637	0.053
637	0.053
638	0.054
638	0.055
638	0.056
639	0.056
639	0.056
640	0.057
640	0.057
641	0.058
641	0.059
642	0.061
642	0.063
642	0.065
643	0.067
643	0.068
644	0.07
644	0.072
645	0.074
645	0.076
646	0.078
646	0.081
646	0.083
647	0.086
647	0.089
648	0.091
648	0.093
649	0.096
649	0.098
650	0.101
650	0.103
650	0.105
651	0.108
651	0.11
652	0.111
652	0.113
653	0.115
653	0.121
653	0.124
654	0.103
654	0.086
655	0.093
655	0.095
656	0.096
656	0.098
657	0.1
657	0.101
657	0.103
658	0.102
658	0.1
659	0.123
659	0.154
660	0.153
660	0.155
661	0.156
661	0.158
661	0.161
662	0.163
662	0.166
663	0.169
663	0.172
664	0.174
664	0.177
665	0.179
665	0.181
665	0.183
666	0.185
666	0.187
667	0.189
667	0.191
668	0.193
668	0.196
669	0.198
669	0.2
669	0.204
670	0.208
670	0.211
671	0.213
671	0.215
672	0.217
672	0.218
672	0.22
673	0.221
673	0.222
674	0.223
674	0.224
675	0.224
675	0.225
676	0.226
676	0.228
676	0.229
677	0.231
677	0.233
678	0.235
678	0.236
679	0.237
679	0.238
680	0.239
680	0.24
680	0.24
681	0.24
681	0.24
682	0.241
682	0.242
683	0.244
683	0.246
684	0.248
684	0.249
684	0.251
685	0.252
685	0.253
686	0.255
686	0.256
687	0.257
687	0.257
687	0.257
688	0.256
688	0.255
689	0.255
689	0.256
690	0.256
690	0.255
691	0.254
691	0.253
691	0.253
692	0.252
692	0.252
693	0.251
693	0.25
694	0.25
694	0.249
695	0.248
695	0.249
695	0.25
696	0.251
696	0.251
697	0.251
697	0.25
698	0.25
698	0.249
698	0.248
699	0.247
699	0.245
700	0.243
700	0.241
701	0.239
701	0.238
702	0.236
702	0.235
702	0.233
703	0.231
703	0.23
704	0.228
704	0.227
705	0.226
705	0.225
705	0.224
706	0.224
706	0.223
707	0.222
707	0.221
708	0.219
708	0.218
709	0.217
709	0.215
709	0.213
710	0.21
710	0.208
711	0.206
711	0.204
712	0.202
712	0.201
713	0.2
713	0.198
713	0.197
714	0.195
714	0.193
715	0.191
715	0.189
716	0.187
716	0.185
716	0.183
717	0.181
717	0.179
718	0.177
718	0.174
719	0.172
719	0.17
720	0.169
720	0.167
720	0.165
721	0.162
721	0.159
722	0.157
722	0.155
723	0.153
723	0.151
723	0.149
724	0.147
724	0.145
725	0.143
725	0.141
726	0.14
726	0.138
727	0.137
727	0.136
727	0.135
728	0.133
728	0.132
729	0.131
729	0.13
730	0.128
730	0.127
730	0.126
731	0.124
731	0.123
732	0.121
732	0.119
733	0.117
733	0.115
734	0.113
734	0.111
734	0.108
735	0.106
735	0.104
736	0.102
736	0.1
737	0.098
737	0.096
737	0.095
738	0.093
738	0.091
739	0.088
739	0.086
740	0.084
740	0.081
741	0.079
741	0.076
741	0.073
742	0.069
742	0.066
743	0.063
743	0.061
744	0.059
744	0.057
744	0.055
745	0.054
745	0.052
746	0.051
746	0.051
747	0.05
747	0.05
748	0.05
748	0.05
748	0.049
749	0.049
749	0.048
750	0.048
750	0.047
751	0.047
751	0.047
751	0.046
752	0.046
752	0.045
753	0.044
753	0.043
754	0.042
754	0.041
754	0.041
755	0.041
755	0.041
756	0.041
756	0.04
757	0.039
757	0.038
758	0.037
758	0.036
758	0.035
759	0.035
759	0.033
760	0.031
760	0.028
761	0.025
761	0.023
761	0.022
762	0.021
762	0.019
763	0.019
763	0.017
764	0.015
764	0.013
764	0.011
765	0.009
765	0.007
766	0.005
766	0.004
767	0.003
767	0.001
768	-0.002
768	-0.004
768	-0.005
769	-0.006
769	-0.006
770	-0.007
770	-0.008
771	-0.01
771	-0.013
771	-0.016
772	-0.018
772	-0.021
773	-0.024
773	-0.027
774	-0.031
774	-0.035
775	-0.039
775	-0.043
775	-0.048
776	-0.052
776	-0.057
777	-0.061
777	-0.066
778	-0.07
778	-0.075
778	-0.079
779	-0.083
779	-0.085
780	-0.087
780	-0.091
781	-0.094
781	-0.097
781	-0.1
782	-0.103
782	-0.107
783	-0.111
783	-0.113
784	-0.114
784	-0.117
784	-0.119
785	-0.121
785	-0.123
786	-0.123
786	-0.121
787	-0.116
787	-0.112
788	-0.111
788	-0.111
788	-0.112
789	-0.113
789	-0.113
790	-0.109
790	-0.107
791	-0.108
791	-0.109
791	-0.111
792	-0.106
792	-0.096
793	-0.091
793	-0.087
794	-0.086
794	-0.089
794	-0.093
795	-0.095
795	-0.095
796	-0.096
796	-0.098
797	-0.106
797	-0.116
797	-0.122
798	-0.127
798	-0.13
799	-0.131
799	-0.13
800	-0.13
800	-0.132
801	-0.136
801	-0.137
801	-0.137
802	-0.139
802	-0.141
803	-0.141
803	-0.142
804	-0.14
804	-0.135
804	-0.129
805	-0.125
805	-0.123
806	-0.12
806	-0.119
807	-0.118
807	-0.117
807	-0.117
808	-0.117
808	-0.118
809	-0.122
809	-0.128
810	-0.131
810	-0.134
810	-0.137
811	-0.139
811	-0.139
812	-0.135
812	-0.131
813	-0.13
813	-0.131
813	-0.131
814	-0.131
814	-0.131
815	-0.128
815	-0.126
816	-0.124
816	-0.124
817	-0.129
817	-0.132
817	-0.133
818	-0.133
818	-0.13
819	-0.125
819	-0.122
820	-0.124
820	-0.126
820	-0.126
821	-0.124
821	-0.12
822	-0.116
822	-0.111
823	-0.106
823	-0.103
823	-0.101
824	-0.096
824	-0.088
825	-0.079
825	-0.07
826	-0.061
826	-0.055
826	-0.049
827	-0.043
827	-0.037
828	-0.033
828	-0.029
829	-0.025
829	-0.023
829	-0.02
830	-0.019
830	-0.017
831	-0.015
831	-0.013
832	-0.011
832	-0.01
832	-0.009
833	-0.007
833	-0.006
834	-0.004
834	-0.003
835	-0.002
835	-0.001
835	-0.001
836	-0
836	0
837	0.001
837	0.001
838	0.001
838	0.002
839	0.002
839	0.003
839	0.003
840	0.004
840	0.004
841	0.005
841	0.006
842	0.007
842	0.008
842	0.009
843	0.011
843	0.012
844	0.013
844	0.014
845	0.016
845	0.017
845	0.018
846	0.019
846	0.02
847	0.022
847	0.023
848	0.024
848	0.024
848	0.025
849	0.025
849	0.025
850	0.025
850	0.025
851	0.025
851	0.025
851	0.024
852	0.023
852	0.023
853	0.022
853	0.022
854	0.022
854	0.022
854	0.022
855	0.022
855	0.022
856	0.022
856	0.023
857	0.023
857	0.023
857	0.024
858	0.024
858	0.025
859	0.026
859	0.027
860	0.028
860	0.028
860	0.029
861	0.03
861	0.031
862	0.032
862	0.032
863	0.033
863	0.034
863	0.034
864	0.034
864	0.035
865	0.035
865	0.035
866	0.035
866	0.036
866	0.036
867	0.036
867	0.036
868	0.037
868	0.037
869	0.037
869	0.037
869	0.036
870	0.036
870	0.036
871	0.036
871	0.036
872	0.035
872	0.035
872	0.035
873	0.034
873	0.034
874	0.033
874	0.033
875	0.032
875	0.032
875	0.031
876	0.03
876	0.03
877	0.029
877	0.028
878	0.028
878	0.028
878	0.028
879	0.028
879	0.028
880	0.028
880	0.029
881	0.029
881	0.031
881	0.032
882	0.033
882	0.035
883	0.036
883	0.037
884	0.038
884	0.039
884	0.04
885	0.04
885	0.041
886	0.041
886	0.041
887	0.041
887	0.041
887	0.04
888	0.04
888	0.04
889	0.04
889	0.04
890	0.041
890	0.041
890	0.04
891	0.04
891	0.041
892	0.041
892	0.041
893	0.04
893	0.04
893	0.039
894	0.039
894	0.038
895	0.037
895	0.037
895	0.036
896	0.036
896	0.035
897	0.035
897	0.035
898	0.035
898	0.035
898	0.036
899	0.036
899	0.036
900	0.037
900	0.037
901	0.038
901	0.039
901	0.039
902	0.04
902	0.04
903	0.041
903	0.041
904	0.041
904	0.042
904	0.042
905	0.042
905	0.042
906	0.042
906	0.042
907	0.043
907	0.043
907	0.043
908	0.043
908	0.044
909	0.044
909	0.044
910	0.044
910	0.045
910	0.045
911	0.045
911	0.046
912	0.046
912	0.046
913	0.046
913	0.046
913	0.046
914	0.046
914	0.046
915	0.045
915	0.045
916	0.044
916	0.044
916	0.043
917	0.043
917	0.043
918	0.043
918	0.043
918	0.043
919	0.043
919	0.043
920	0.044
920	0.044
921	0.044
921	0.044
921	0.044
922	0.043
922	0.043
923	0.043
923	0.043
924	0.042
924	0.042
924	0.042
925	0.041
925	0.041
926	0.041
926	0.041
927	0.041
927	0.041
927	0.042
928	0.042
928	0.042
929	0.042
929	0.042
930	0.042
930	0.042
930	0.042
931	0.042
931	0.042
932	0.042
932	0.042
933	0.042
933	0.043
933	0.043
934	0.043
934	0.043
935	0.044
935	0.045
935	0.045
936	0.046
936	0.047
937	0.048
937	0.049
938	0.049
938	0.05
938	0.051
939	0.052
939	0.053
940	0.054
940	0.055
941	0.056
941	0.057
941	0.058
942	0.059
942	0.06
943	0.06
943	0.06
944	0.06
944	0.06
944	0.06
945	0.06
945	0.06
946	0.059
946	0.058
946	0.058
947	0.057
947	0.056
948	0.055
948	0.054
949	0.053
949	0.052
949	0.052
950	0.051
950	0.05
951	0.05
951	0.05
952	0.05
952	0.05
952	0.051
953	0.051
953	0.052
954	0.052
954	0.053
955	0.053
955	0.054
955	0.054
956	0.054
956	0.054
957	0.054
957	0.054
957	0.053
958	0.053
958	0.052
959	0.052
959	0.051
960	0.051
960	0.05
960	0.05
961	0.05
961	0.049
962	0.049
962	0.049
963	0.049
963	0.05
963	0.05
964	0.051
964	0.051
965	0.052
965	0.052
966	0.053
966	0.053
966	0.054
967	0.054
967	0.055
968	0.055
968	0.055
968	0.055
969	0.055
969	0.055
970	0.055
970	0.055
971	0.055
971	0.055
971	0.055
972	0.055
972	0.055
973	0.055
973	0.055
974	0.055
974	0.055
974	0.054
975	0.054
975	0.053
976	0.052
976	0.051
976	0.05
977	0.049
977	0.048
978	0.047
978	0.046
979	0.045
979	0.045
979	0.044
980	0.044
980	0.045
981	0.045
981	0.045
982	0.046
982	0.047
982	0.048
983	0.048
983	0.049
984	0.05
984	0.051
984	0.051
985	0.052
985	0.053
986	0.053
986	0.053
987	0.053
987	0.053
987	0.054
988	0.053
988	0.053
989	0.053
989	0.053
990	0.052
990	0.052
990	0.052
991	0.051
991	0.051
992	0.05
992	0.05
992	0.049
993	0.049
993	0.048
994	0.047
994	0.046
995	0.045
995	0.045
995	0.044
996	0.044
996	0.044
997	0.044
997	0.044
997	0.044
998	0.045
998	0.045
999	0.046
999	0.047
1000	0.047
1000	0.047
1000	0.048
1001	0.048
1001	0.048
1002	0.048
1002	0.048
1003	0.048
1003	0.048
1003	0.048
1004	0.047
1004	0.048
1005	0.047
1005	0.047
1005	0.047
1006	0.048
1006	0.048
1007	0.048
1007	0.049
1008	0.049
1008	0.05
1008	0.051
1009	0.052
1009	0.052
1010	0.053
1010	0.054
1010	0.054
1011	0.055
1011	0.055
1012	0.055
1012	0.055
1013	0.055
1013	0.055
1013	0.055
1014	0.055
1014	0.055
1015	0.055
1015	0.054
1016	0.054
1016	0.054
1016	0.054
1017	0.054
1017	0.054
1018	0.054
1018	0.054
1018	0.054
1019	0.054
1019	0.054
1020	0.054
1020	0.054
1021	0.054
1021	0.054
1021	0.054
1022	0.054
1022	0.054
1023	0.054
1023	0.053
1023	0.052
1024	0.052
1024	0.052
1025	0.051
1025	0.051
1026	0.051
1026	0.05
1026	0.05
1027	0.05
1027	0.05
1028	0.051
1028	0.051
1028	0.051
1029	0.052
1029	0.052
1030	0.052
1030	0.053
1031	0.053
1031	0.054
1031	0.054
1032	0.055
1032	0.055
1033	0.056
1033	0.056
1033	0.056
1034	0.057
1034	0.057
1035	0.057
1035	0.058
1036	0.059
1036	0.059
1036	0.06
1037	0.061
1037	0.061
1038	0.062
1038	0.062
1039	0.063
1039	0.063
1039	0.063
1040	0.064
1040	0.063
1041	0.063
1041	0.063
1041	0.063
1042	0.063
1042	0.063
1043	0.062
1043	0.062
1044	0.062
1044	0.063
1044	0.063
1045	0.063
1045	0.064
1046	0.065
1046	0.066
1046	0.067
1047	0.068
1047	0.069
1048	0.07
1048	0.071
1049	0.071
1049	0.072
1049	0.073
1050	0.074
1050	0.075
1051	0.076
1051	0.076
1051	0.078
1052	0.079
1052	0.08
1053	0.082
1053	0.083
1053	0.085
1054	0.086
1054	0.088
1055	0.089
1055	0.09
1056	0.091
1056	0.092
1056	0.092
1057	0.093
1057	0.095
1058	0.096
1058	0.096
1058	0.097
1059	0.098
1059	0.099
1060	0.1
1060	0.101
1061	0.101
1061	0.102
1061	0.102
1062	0.102
1062	0.101
1063	0.102
1063	0.102
1063	0.102
1064	0.102
1064	0.103
1065	0.103
1065	0.104
1066	0.105
1066	0.105
1066	0.106
1067	0.107
1067	0.107
1068	0.108
1068	0.108
1068	0.109
1069	0.109
1069	0.11
1070	0.111
1070	0.112
1071	0.113
1071	0.114
1071	0.116
1072	0.118
1072	0.119
1073	0.121
1073	0.124
1073	0.125
1074	0.128
1074	0.129
1075	0.132
1075	0.133
1076	0.136
1076	0.138
1076	0.141
1077	0.144
1077	0.147
1078	0.15
1078	0.153
1078	0.156
1079	0.159
1079	0.162
1080	0.165
1080	0.168
1080	0.17
1081	0.173
1081	0.176
1082	0.179
1082	0.183
1083	0.186
1083	0.19
1083	0.195
1084	0.2
1084	0.206
1085	0.211
1085	0.217
1085	0.222
1086	0.228
1086	0.232
1087	0.238
1087	0.243
1088	0.249
1088	0.255
1088	0.261
1089	0.268
1089	0.276
1090	0.285
1090	0.295
1090	0.305
1091	0.317
1091	0.33
1092	0.343
1092	0.356
1092	0.371
1093	0.387
1093	0.403
1094	0.422
1094	0.443
1095	0.466
1095	0.493
1095	0.522
1096	0.556
1096	0.595
1097	0.642
1097	0.695
1097	0.76
1098	0.843
1098	0.942
1099	1.078
1099	1.295
1100	1.789
1100	-0
1100	-0
1101	-0
1101	-0
1102	-0
1102	-0
1102	-0
1103	-0
1103	-0
1104	-0
1104	-0
1104	-0
1105	-0
1105	-0
1106	-0
1106	-0
1107	-0
1107	-0
1107	-0
1108	-0
1108	-0
1109	-0
1109	-0
1109	-0
1110	-0
1110	-0
1111	-0
1111	-0
