Data from 17c-ppt-2-5a_Absorbance__119__00119.txt Node

Date: Mon Jan 15 09:22:47 CET 2024
User: Marek
Spectrometer: MAYP115816
Trigger mode: 0
Integration Time (sec): 2.000000E-1
Scans to average: 10
Electric dark correction enabled: true
Nonlinearity correction enabled: true
Boxcar width: 5
XAxis mode: Wavelengths
Number of Pixels in Spectrum: 2068
>>>>>Begin Spectral Data<<<<<
199	-2.086
199	-1.952
200	-1.807
200	-1.694
201	-1.619
201	-1.567
202	-1.494
202	-1.435
203	-1.382
203	-1.339
204	-1.309
204	-1.286
205	-1.265
205	-1.256
205	-1.252
206	-1.251
206	-1.248
207	-1.244
207	-1.24
208	-1.239
208	-1.233
209	-1.232
209	-1.229
210	-1.229
210	-1.227
211	-1.225
211	-1.223
212	-1.219
212	-1.218
213	-1.218
213	-1.216
213	-1.216
214	-1.214
214	-1.215
215	-1.214
215	-1.214
216	-1.213
216	-1.211
217	-1.211
217	-1.21
218	-1.209
218	-1.205
219	-1.203
219	-1.202
220	-1.197
220	-1.192
221	-1.188
221	-1.183
221	-1.177
222	-1.173
222	-1.168
223	-1.161
223	-1.157
224	-1.151
224	-1.143
225	-1.134
225	-1.123
226	-1.114
226	-1.103
227	-1.089
227	-1.072
228	-1.053
228	-1.033
229	-1.009
229	-0.981
229	-0.953
230	-0.923
230	-0.89
231	-0.853
231	-0.815
232	-0.776
232	-0.734
233	-0.692
233	-0.648
234	-0.605
234	-0.563
235	-0.52
235	-0.478
236	-0.438
236	-0.399
236	-0.362
237	-0.327
237	-0.294
238	-0.263
238	-0.234
239	-0.208
239	-0.183
240	-0.161
240	-0.14
241	-0.121
241	-0.104
242	-0.089
242	-0.074
243	-0.061
243	-0.049
243	-0.038
244	-0.028
244	-0.019
245	-0.01
245	-0.003
246	0.005
246	0.011
247	0.017
247	0.022
248	0.027
248	0.032
249	0.036
249	0.04
250	0.044
250	0.047
250	0.05
251	0.053
251	0.056
252	0.059
252	0.061
253	0.063
253	0.066
254	0.067
254	0.069
255	0.071
255	0.072
256	0.074
256	0.075
257	0.076
257	0.077
258	0.078
258	0.079
258	0.08
259	0.081
259	0.082
260	0.083
260	0.083
261	0.084
261	0.084
262	0.084
262	0.084
263	0.085
263	0.085
264	0.085
264	0.085
265	0.085
265	0.085
265	0.085
266	0.085
266	0.085
267	0.085
267	0.085
268	0.085
268	0.084
269	0.084
269	0.084
270	0.083
270	0.083
271	0.083
271	0.082
272	0.082
272	0.082
272	0.082
273	0.081
273	0.081
274	0.081
274	0.08
275	0.08
275	0.079
276	0.079
276	0.078
277	0.078
277	0.077
278	0.076
278	0.076
278	0.075
279	0.075
279	0.075
280	0.075
280	0.074
281	0.074
281	0.074
282	0.074
282	0.074
283	0.074
283	0.074
284	0.074
284	0.074
285	0.074
285	0.073
285	0.073
286	0.073
286	0.073
287	0.073
287	0.072
288	0.072
288	0.072
289	0.072
289	0.072
290	0.072
290	0.072
291	0.072
291	0.072
292	0.071
292	0.071
292	0.071
293	0.071
293	0.071
294	0.071
294	0.071
295	0.07
295	0.07
296	0.07
296	0.07
297	0.07
297	0.07
298	0.07
298	0.069
298	0.069
299	0.069
299	0.069
300	0.069
300	0.069
301	0.068
301	0.068
302	0.068
302	0.068
303	0.068
303	0.067
304	0.067
304	0.067
305	0.067
305	0.067
305	0.067
306	0.066
306	0.066
307	0.066
307	0.066
308	0.065
308	0.065
309	0.065
309	0.064
310	0.064
310	0.064
311	0.063
311	0.063
311	0.063
312	0.063
312	0.062
313	0.062
313	0.062
314	0.061
314	0.061
315	0.061
315	0.061
316	0.06
316	0.06
317	0.06
317	0.059
318	0.059
318	0.058
318	0.058
319	0.058
319	0.057
320	0.057
320	0.056
321	0.056
321	0.055
322	0.055
322	0.055
323	0.054
323	0.054
324	0.053
324	0.053
324	0.053
325	0.052
325	0.052
326	0.052
326	0.051
327	0.051
327	0.051
328	0.05
328	0.05
329	0.05
329	0.049
330	0.049
330	0.049
330	0.048
331	0.048
331	0.047
332	0.047
332	0.047
333	0.046
333	0.046
334	0.045
334	0.045
335	0.044
335	0.044
336	0.044
336	0.043
336	0.043
337	0.042
337	0.042
338	0.041
338	0.041
339	0.041
339	0.04
340	0.04
340	0.04
341	0.039
341	0.039
342	0.038
342	0.038
342	0.038
343	0.037
343	0.037
344	0.036
344	0.036
345	0.036
345	0.035
346	0.035
346	0.034
347	0.034
347	0.033
348	0.033
348	0.033
348	0.032
349	0.032
349	0.031
350	0.031
350	0.031
351	0.03
351	0.03
352	0.029
352	0.029
353	0.028
353	0.028
354	0.027
354	0.026
354	0.026
355	0.025
355	0.025
356	0.024
356	0.024
357	0.024
357	0.024
358	0.024
358	0.024
359	0.024
359	0.025
360	0.025
360	0.025
360	0.026
361	0.026
361	0.026
362	0.026
362	0.026
363	0.026
363	0.026
364	0.026
364	0.025
365	0.025
365	0.025
366	0.025
366	0.025
366	0.024
367	0.024
367	0.024
368	0.024
368	0.024
369	0.024
369	0.023
370	0.023
370	0.023
371	0.023
371	0.023
372	0.023
372	0.022
372	0.022
373	0.022
373	0.022
374	0.022
374	0.022
375	0.022
375	0.022
376	0.022
376	0.022
377	0.022
377	0.022
378	0.023
378	0.023
378	0.023
379	0.023
379	0.023
380	0.023
380	0.023
381	0.023
381	0.023
382	0.023
382	0.023
383	0.023
383	0.023
383	0.022
384	0.022
384	0.022
385	0.022
385	0.022
386	0.022
386	0.022
387	0.022
387	0.022
388	0.022
388	0.022
389	0.022
389	0.022
389	0.022
390	0.022
390	0.023
391	0.023
391	0.023
392	0.024
392	0.024
393	0.024
393	0.024
394	0.024
394	0.024
394	0.024
395	0.023
395	0.023
396	0.023
396	0.023
397	0.023
397	0.023
398	0.024
398	0.024
399	0.024
399	0.024
400	0.024
400	0.023
400	0.023
401	0.023
401	0.022
402	0.021
402	0.021
403	0.021
403	0.021
404	0.021
404	0.021
405	0.021
405	0.021
405	0.021
406	0.021
406	0.021
407	0.021
407	0.021
408	0.02
408	0.02
409	0.019
409	0.019
410	0.019
410	0.019
411	0.019
411	0.019
411	0.019
412	0.019
412	0.019
413	0.018
413	0.018
414	0.018
414	0.018
415	0.018
415	0.018
416	0.017
416	0.017
416	0.017
417	0.017
417	0.016
418	0.016
418	0.017
419	0.017
419	0.017
420	0.018
420	0.018
421	0.019
421	0.019
421	0.019
422	0.02
422	0.02
423	0.02
423	0.02
424	0.02
424	0.019
425	0.019
425	0.018
426	0.018
426	0.017
427	0.017
427	0.017
427	0.017
428	0.018
428	0.018
429	0.019
429	0.02
430	0.02
430	0.02
431	0.02
431	0.019
432	0.019
432	0.019
432	0.018
433	0.017
433	0.016
434	0.016
434	0.015
435	0.015
435	0.015
436	0.015
436	0.015
437	0.015
437	0.015
437	0.016
438	0.016
438	0.015
439	0.015
439	0.015
440	0.015
440	0.015
441	0.015
441	0.015
442	0.016
442	0.016
442	0.016
443	0.016
443	0.017
444	0.017
444	0.017
445	0.017
445	0.017
446	0.017
446	0.017
447	0.017
447	0.017
447	0.017
448	0.017
448	0.017
449	0.017
449	0.016
450	0.016
450	0.016
451	0.015
451	0.015
452	0.015
452	0.014
452	0.014
453	0.013
453	0.013
454	0.012
454	0.012
455	0.012
455	0.011
456	0.011
456	0.011
457	0.011
457	0.011
458	0.011
458	0.011
458	0.011
459	0.012
459	0.012
460	0.012
460	0.011
461	0.011
461	0.01
462	0.01
462	0.01
463	0.01
463	0.01
463	0.01
464	0.011
464	0.011
465	0.011
465	0.01
466	0.01
466	0.01
467	0.01
467	0.01
467	0.009
468	0.008
468	0.006
469	0.005
469	0.004
470	0.003
470	0.002
471	0.002
471	0.002
472	0.002
472	0.002
472	0.002
473	0.003
473	0.003
474	0.004
474	0.005
475	0.005
475	0.005
476	0.005
476	0.005
477	0.005
477	0.005
477	0.005
478	0.004
478	0.004
479	0.004
479	0.004
480	0.004
480	0.004
481	0.005
481	0.005
482	0.006
482	0.006
482	0.007
483	0.008
483	0.01
484	0.011
484	0.013
485	0.014
485	0.015
486	0.015
486	0.016
487	0.016
487	0.016
487	0.016
488	0.015
488	0.014
489	0.013
489	0.011
490	0.009
490	0.009
491	0.008
491	0.008
492	0.008
492	0.008
492	0.008
493	0.008
493	0.008
494	0.009
494	0.01
495	0.011
495	0.011
496	0.012
496	0.012
496	0.012
497	0.013
497	0.013
498	0.013
498	0.013
499	0.012
499	0.012
500	0.011
500	0.011
501	0.012
501	0.012
501	0.013
502	0.014
502	0.014
503	0.014
503	0.015
504	0.015
504	0.016
505	0.015
505	0.015
506	0.015
506	0.014
506	0.014
507	0.013
507	0.013
508	0.013
508	0.013
509	0.012
509	0.012
510	0.012
510	0.012
511	0.012
511	0.012
511	0.011
512	0.011
512	0.01
513	0.009
513	0.008
514	0.007
514	0.007
515	0.006
515	0.005
515	0.005
516	0.003
516	0.002
517	0.002
517	0.002
518	0.002
518	0.002
519	0.002
519	0.001
520	-0
520	-0.001
520	-0.003
521	-0.004
521	-0.006
522	-0.008
522	-0.01
523	-0.012
523	-0.014
524	-0.015
524	-0.016
524	-0.017
525	-0.017
525	-0.016
526	-0.015
526	-0.014
527	-0.012
527	-0.01
528	-0.008
528	-0.005
529	-0.004
529	-0.002
529	-0.002
530	-0.001
530	-0
531	0.001
531	0.001
532	0.001
532	0.001
533	0.001
533	0.001
533	0.001
534	0.001
534	0
535	0
535	0
536	0.001
536	0.001
537	0.001
537	0.001
538	0.001
538	0.001
538	0
539	-0
539	-0
540	-0
540	-0
541	-0.001
541	-0.002
542	-0.002
542	-0.003
542	-0.003
543	-0.003
543	-0.002
544	-0.003
544	-0.003
545	-0.003
545	-0.003
546	-0.002
546	-0.002
547	-0.002
547	-0.003
547	-0.004
548	-0.004
548	-0.005
549	-0.006
549	-0.007
550	-0.008
550	-0.008
551	-0.009
551	-0.01
551	-0.01
552	-0.01
552	-0.01
553	-0.01
553	-0.009
554	-0.008
554	-0.007
555	-0.007
555	-0.008
556	-0.009
556	-0.009
556	-0.01
557	-0.011
557	-0.012
558	-0.013
558	-0.013
559	-0.014
559	-0.013
560	-0.013
560	-0.012
560	-0.012
561	-0.011
561	-0.01
562	-0.009
562	-0.009
563	-0.009
563	-0.009
564	-0.01
564	-0.011
564	-0.011
565	-0.012
565	-0.012
566	-0.012
566	-0.011
567	-0.011
567	-0.009
568	-0.008
568	-0.005
568	-0.003
569	-0.001
569	0.002
570	0.004
570	0.005
571	0.007
571	0.008
572	0.009
572	0.01
573	0.011
573	0.012
573	0.012
574	0.012
574	0.012
575	0.012
575	0.013
576	0.014
576	0.015
577	0.015
577	0.015
577	0.015
578	0.015
578	0.015
579	0.016
579	0.018
580	0.019
580	0.019
581	0.019
581	0.018
581	0.018
582	0.017
582	0.018
583	0.018
583	0.019
584	0.018
584	0.016
585	0.015
585	0.014
585	0.014
586	0.014
586	0.014
587	0.014
587	0.013
588	0.012
588	0.01
589	0.01
589	0.009
590	0.009
590	0.009
590	0.01
591	0.011
591	0.012
592	0.012
592	0.013
593	0.013
593	0.013
594	0.013
594	0.012
594	0.012
595	0.012
595	0.011
596	0.011
596	0.01
597	0.012
597	0.013
598	0.015
598	0.017
598	0.018
599	0.019
599	0.019
600	0.019
600	0.019
601	0.018
601	0.017
602	0.017
602	0.016
602	0.015
603	0.014
603	0.014
604	0.014
604	0.015
605	0.017
605	0.018
606	0.019
606	0.02
606	0.02
607	0.02
607	0.02
608	0.02
608	0.019
609	0.019
609	0.018
610	0.018
610	0.017
610	0.017
611	0.017
611	0.018
612	0.018
612	0.02
613	0.021
613	0.022
614	0.023
614	0.023
614	0.023
615	0.023
615	0.022
616	0.022
616	0.021
617	0.021
617	0.02
618	0.019
618	0.019
618	0.018
619	0.018
619	0.019
620	0.02
620	0.021
621	0.022
621	0.023
622	0.024
622	0.025
622	0.025
623	0.025
623	0.026
624	0.027
624	0.027
625	0.027
625	0.027
626	0.028
626	0.028
626	0.028
627	0.028
627	0.029
628	0.029
628	0.03
629	0.03
629	0.031
630	0.031
630	0.031
630	0.031
631	0.031
631	0.032
632	0.032
632	0.032
633	0.033
633	0.034
634	0.035
634	0.037
634	0.039
635	0.04
635	0.042
636	0.043
636	0.044
637	0.045
637	0.045
638	0.046
638	0.047
638	0.048
639	0.048
639	0.048
640	0.049
640	0.049
641	0.05
641	0.051
642	0.053
642	0.055
642	0.057
643	0.058
643	0.06
644	0.061
644	0.063
645	0.065
645	0.067
646	0.069
646	0.071
646	0.074
647	0.076
647	0.079
648	0.081
648	0.083
649	0.086
649	0.088
650	0.09
650	0.092
650	0.095
651	0.097
651	0.099
652	0.101
652	0.102
653	0.105
653	0.11
653	0.114
654	0.095
654	0.08
655	0.086
655	0.088
656	0.089
656	0.091
657	0.093
657	0.094
657	0.095
658	0.095
658	0.093
659	0.114
659	0.141
660	0.14
660	0.142
661	0.143
661	0.145
661	0.147
662	0.15
662	0.153
663	0.155
663	0.158
664	0.161
664	0.163
665	0.165
665	0.167
665	0.169
666	0.171
666	0.173
667	0.175
667	0.177
668	0.179
668	0.181
669	0.183
669	0.186
669	0.189
670	0.192
670	0.195
671	0.198
671	0.199
672	0.201
672	0.202
672	0.204
673	0.205
673	0.206
674	0.207
674	0.207
675	0.208
675	0.208
676	0.21
676	0.211
676	0.213
677	0.214
677	0.216
678	0.217
678	0.219
679	0.22
679	0.22
680	0.221
680	0.222
680	0.222
681	0.222
681	0.222
682	0.223
682	0.224
683	0.225
683	0.227
684	0.229
684	0.231
684	0.232
685	0.234
685	0.235
686	0.237
686	0.238
687	0.239
687	0.239
687	0.239
688	0.238
688	0.237
689	0.237
689	0.238
690	0.237
690	0.237
691	0.236
691	0.235
691	0.235
692	0.234
692	0.233
693	0.232
693	0.232
694	0.231
694	0.23
695	0.23
695	0.231
695	0.232
696	0.233
696	0.233
697	0.233
697	0.232
698	0.232
698	0.231
698	0.23
699	0.229
699	0.228
700	0.226
700	0.224
701	0.222
701	0.221
702	0.219
702	0.218
702	0.216
703	0.214
703	0.213
704	0.211
704	0.21
705	0.209
705	0.208
705	0.207
706	0.207
706	0.206
707	0.205
707	0.204
708	0.202
708	0.201
709	0.2
709	0.198
709	0.196
710	0.194
710	0.191
711	0.189
711	0.188
712	0.186
712	0.185
713	0.184
713	0.183
713	0.181
714	0.18
714	0.178
715	0.176
715	0.174
716	0.172
716	0.17
716	0.168
717	0.166
717	0.164
718	0.162
718	0.159
719	0.157
719	0.156
720	0.154
720	0.153
720	0.151
721	0.148
721	0.146
722	0.144
722	0.141
723	0.139
723	0.138
723	0.136
724	0.134
724	0.132
725	0.13
725	0.129
726	0.128
726	0.126
727	0.125
727	0.124
727	0.123
728	0.121
728	0.12
729	0.12
729	0.119
730	0.118
730	0.116
730	0.115
731	0.113
731	0.112
732	0.11
732	0.109
733	0.107
733	0.105
734	0.103
734	0.1
734	0.098
735	0.096
735	0.094
736	0.092
736	0.09
737	0.088
737	0.086
737	0.085
738	0.083
738	0.081
739	0.078
739	0.076
740	0.074
740	0.072
741	0.069
741	0.067
741	0.063
742	0.06
742	0.057
743	0.054
743	0.052
744	0.05
744	0.048
744	0.046
745	0.044
745	0.043
746	0.042
746	0.042
747	0.042
747	0.041
748	0.041
748	0.041
748	0.041
749	0.041
749	0.04
750	0.04
750	0.04
751	0.039
751	0.039
751	0.039
752	0.038
752	0.037
753	0.037
753	0.036
754	0.035
754	0.035
754	0.034
755	0.034
755	0.035
756	0.035
756	0.034
757	0.032
757	0.032
758	0.031
758	0.03
758	0.029
759	0.028
759	0.027
760	0.025
760	0.022
761	0.02
761	0.018
761	0.017
762	0.015
762	0.014
763	0.014
763	0.012
764	0.01
764	0.007
764	0.005
765	0.003
765	0.001
766	-0.001
766	-0.002
767	-0.003
767	-0.005
768	-0.008
768	-0.01
768	-0.012
769	-0.013
769	-0.013
770	-0.014
770	-0.015
771	-0.017
771	-0.019
771	-0.022
772	-0.025
772	-0.028
773	-0.031
773	-0.034
774	-0.037
774	-0.041
775	-0.045
775	-0.049
775	-0.053
776	-0.058
776	-0.062
777	-0.067
777	-0.071
778	-0.075
778	-0.08
778	-0.085
779	-0.089
779	-0.089
780	-0.092
780	-0.095
781	-0.098
781	-0.1
781	-0.102
782	-0.105
782	-0.108
783	-0.111
783	-0.113
784	-0.114
784	-0.117
784	-0.119
785	-0.121
785	-0.122
786	-0.123
786	-0.12
787	-0.116
787	-0.112
788	-0.111
788	-0.111
788	-0.112
789	-0.113
789	-0.112
790	-0.109
790	-0.107
791	-0.107
791	-0.109
791	-0.111
792	-0.106
792	-0.096
793	-0.091
793	-0.087
794	-0.086
794	-0.088
794	-0.092
795	-0.095
795	-0.095
796	-0.095
796	-0.098
797	-0.106
797	-0.116
797	-0.122
798	-0.127
798	-0.13
799	-0.13
799	-0.13
800	-0.13
800	-0.132
801	-0.135
801	-0.137
801	-0.137
802	-0.139
802	-0.14
803	-0.141
803	-0.141
804	-0.14
804	-0.135
804	-0.129
805	-0.125
805	-0.122
806	-0.12
806	-0.119
807	-0.117
807	-0.117
807	-0.117
808	-0.117
808	-0.118
809	-0.122
809	-0.128
810	-0.131
810	-0.134
810	-0.137
811	-0.139
811	-0.139
812	-0.135
812	-0.131
813	-0.13
813	-0.13
813	-0.131
814	-0.131
814	-0.13
815	-0.128
815	-0.125
816	-0.123
816	-0.124
817	-0.129
817	-0.132
817	-0.133
818	-0.132
818	-0.129
819	-0.125
819	-0.122
820	-0.123
820	-0.126
820	-0.126
821	-0.125
821	-0.122
822	-0.119
822	-0.115
823	-0.11
823	-0.108
823	-0.107
824	-0.103
824	-0.095
825	-0.086
825	-0.077
826	-0.068
826	-0.061
826	-0.055
827	-0.049
827	-0.043
828	-0.038
828	-0.034
829	-0.03
829	-0.027
829	-0.024
830	-0.022
830	-0.02
831	-0.018
831	-0.016
832	-0.014
832	-0.012
832	-0.011
833	-0.009
833	-0.008
834	-0.006
834	-0.005
835	-0.004
835	-0.003
835	-0.003
836	-0.002
836	-0.002
837	-0.002
837	-0.001
838	-0.001
838	-0.001
839	-0
839	0
839	0.001
840	0.001
840	0.002
841	0.003
841	0.004
842	0.005
842	0.006
842	0.007
843	0.008
843	0.009
844	0.01
844	0.012
845	0.013
845	0.014
845	0.016
846	0.017
846	0.018
847	0.019
847	0.02
848	0.021
848	0.022
848	0.023
849	0.023
849	0.023
850	0.023
850	0.023
851	0.023
851	0.023
851	0.022
852	0.022
852	0.022
853	0.021
853	0.02
854	0.02
854	0.02
854	0.02
855	0.021
855	0.021
856	0.021
856	0.021
857	0.021
857	0.022
857	0.022
858	0.023
858	0.024
859	0.024
859	0.025
860	0.026
860	0.027
860	0.028
861	0.029
861	0.03
862	0.031
862	0.032
863	0.032
863	0.033
863	0.033
864	0.033
864	0.033
865	0.033
865	0.033
866	0.033
866	0.033
866	0.034
867	0.034
867	0.034
868	0.034
868	0.035
869	0.035
869	0.036
869	0.036
870	0.036
870	0.036
871	0.035
871	0.035
872	0.035
872	0.034
872	0.034
873	0.033
873	0.032
874	0.032
874	0.031
875	0.03
875	0.03
875	0.029
876	0.028
876	0.028
877	0.027
877	0.026
878	0.026
878	0.026
878	0.026
879	0.026
879	0.026
880	0.026
880	0.027
881	0.028
881	0.029
881	0.03
882	0.032
882	0.033
883	0.035
883	0.036
884	0.037
884	0.038
884	0.039
885	0.04
885	0.04
886	0.041
886	0.041
887	0.041
887	0.04
887	0.04
888	0.04
888	0.04
889	0.04
889	0.041
890	0.041
890	0.041
890	0.041
891	0.041
891	0.041
892	0.041
892	0.041
893	0.04
893	0.04
893	0.039
894	0.038
894	0.038
895	0.037
895	0.037
895	0.036
896	0.036
896	0.035
897	0.035
897	0.035
898	0.035
898	0.035
898	0.036
899	0.036
899	0.036
900	0.037
900	0.037
901	0.038
901	0.038
901	0.039
902	0.039
902	0.039
903	0.04
903	0.04
904	0.04
904	0.04
904	0.041
905	0.041
905	0.041
906	0.041
906	0.042
907	0.042
907	0.042
907	0.042
908	0.043
908	0.043
909	0.043
909	0.044
910	0.044
910	0.044
910	0.045
911	0.045
911	0.045
912	0.046
912	0.046
913	0.045
913	0.045
913	0.045
914	0.045
914	0.045
915	0.044
915	0.044
916	0.043
916	0.043
916	0.043
917	0.042
917	0.042
918	0.042
918	0.042
918	0.042
919	0.043
919	0.043
920	0.044
920	0.044
921	0.044
921	0.044
921	0.044
922	0.044
922	0.043
923	0.043
923	0.043
924	0.042
924	0.042
924	0.042
925	0.041
925	0.041
926	0.041
926	0.041
927	0.041
927	0.041
927	0.041
928	0.041
928	0.041
929	0.041
929	0.041
930	0.041
930	0.041
930	0.041
931	0.041
931	0.041
932	0.041
932	0.042
933	0.042
933	0.043
933	0.043
934	0.043
934	0.044
935	0.044
935	0.045
935	0.046
936	0.046
936	0.047
937	0.048
937	0.049
938	0.049
938	0.05
938	0.051
939	0.052
939	0.053
940	0.054
940	0.055
941	0.056
941	0.057
941	0.058
942	0.059
942	0.06
943	0.06
943	0.061
944	0.061
944	0.061
944	0.06
945	0.06
945	0.06
946	0.06
946	0.059
946	0.058
947	0.057
947	0.056
948	0.056
948	0.055
949	0.054
949	0.053
949	0.053
950	0.052
950	0.051
951	0.051
951	0.051
952	0.051
952	0.052
952	0.052
953	0.052
953	0.053
954	0.054
954	0.054
955	0.055
955	0.055
955	0.056
956	0.056
956	0.056
957	0.056
957	0.055
957	0.055
958	0.054
958	0.054
959	0.053
959	0.053
960	0.052
960	0.051
960	0.051
961	0.05
961	0.05
962	0.049
962	0.049
963	0.049
963	0.05
963	0.05
964	0.051
964	0.051
965	0.052
965	0.052
966	0.053
966	0.054
966	0.055
967	0.056
967	0.056
968	0.056
968	0.057
968	0.057
969	0.057
969	0.057
970	0.057
970	0.057
971	0.057
971	0.057
971	0.057
972	0.057
972	0.057
973	0.057
973	0.057
974	0.057
974	0.057
974	0.056
975	0.055
975	0.054
976	0.053
976	0.052
976	0.051
977	0.049
977	0.048
978	0.047
978	0.046
979	0.045
979	0.044
979	0.044
980	0.044
980	0.044
981	0.044
981	0.045
982	0.045
982	0.046
982	0.046
983	0.047
983	0.048
984	0.049
984	0.05
984	0.05
985	0.051
985	0.051
986	0.052
986	0.052
987	0.052
987	0.052
987	0.052
988	0.052
988	0.052
989	0.052
989	0.052
990	0.051
990	0.051
990	0.05
991	0.05
991	0.05
992	0.049
992	0.049
992	0.048
993	0.047
993	0.047
994	0.046
994	0.045
995	0.045
995	0.044
995	0.044
996	0.044
996	0.043
997	0.043
997	0.043
997	0.044
998	0.044
998	0.045
999	0.046
999	0.046
1000	0.047
1000	0.047
1000	0.047
1001	0.048
1001	0.048
1002	0.048
1002	0.048
1003	0.048
1003	0.048
1003	0.048
1004	0.048
1004	0.048
1005	0.048
1005	0.048
1005	0.049
1006	0.049
1006	0.049
1007	0.05
1007	0.05
1008	0.051
1008	0.051
1008	0.052
1009	0.053
1009	0.053
1010	0.054
1010	0.054
1010	0.055
1011	0.056
1011	0.056
1012	0.056
1012	0.056
1013	0.056
1013	0.056
1013	0.056
1014	0.056
1014	0.055
1015	0.055
1015	0.055
1016	0.054
1016	0.054
1016	0.054
1017	0.053
1017	0.053
1018	0.053
1018	0.053
1018	0.053
1019	0.053
1019	0.053
1020	0.053
1020	0.053
1021	0.054
1021	0.054
1021	0.054
1022	0.054
1022	0.054
1023	0.054
1023	0.053
1023	0.053
1024	0.053
1024	0.052
1025	0.052
1025	0.052
1026	0.051
1026	0.051
1026	0.051
1027	0.051
1027	0.051
1028	0.051
1028	0.051
1028	0.051
1029	0.052
1029	0.052
1030	0.052
1030	0.052
1031	0.053
1031	0.053
1031	0.054
1032	0.054
1032	0.055
1033	0.055
1033	0.055
1033	0.055
1034	0.056
1034	0.056
1035	0.056
1035	0.057
1036	0.057
1036	0.057
1036	0.058
1037	0.059
1037	0.059
1038	0.06
1038	0.06
1039	0.061
1039	0.062
1039	0.062
1040	0.062
1040	0.063
1041	0.062
1041	0.062
1041	0.062
1042	0.062
1042	0.062
1043	0.062
1043	0.061
1044	0.062
1044	0.062
1044	0.062
1045	0.063
1045	0.063
1046	0.064
1046	0.066
1046	0.067
1047	0.068
1047	0.069
1048	0.07
1048	0.071
1049	0.072
1049	0.073
1049	0.073
1050	0.074
1050	0.075
1051	0.076
1051	0.077
1051	0.079
1052	0.08
1052	0.081
1053	0.083
1053	0.084
1053	0.086
1054	0.087
1054	0.089
1055	0.09
1055	0.091
1056	0.092
1056	0.092
1056	0.093
1057	0.094
1057	0.094
1058	0.096
1058	0.096
1058	0.097
1059	0.098
1059	0.099
1060	0.1
1060	0.101
1061	0.102
1061	0.102
1061	0.102
1062	0.103
1062	0.103
1063	0.103
1063	0.104
1063	0.104
1064	0.104
1064	0.105
1065	0.105
1065	0.106
1066	0.107
1066	0.108
1066	0.108
1067	0.108
1067	0.109
1068	0.109
1068	0.11
1068	0.11
1069	0.11
1069	0.111
1070	0.112
1070	0.113
1071	0.114
1071	0.115
1071	0.116
1072	0.118
1072	0.12
1073	0.122
1073	0.124
1073	0.126
1074	0.128
1074	0.13
1075	0.132
1075	0.134
1076	0.137
1076	0.14
1076	0.143
1077	0.146
1077	0.149
1078	0.152
1078	0.156
1078	0.159
1079	0.163
1079	0.166
1080	0.17
1080	0.173
1080	0.176
1081	0.179
1081	0.182
1082	0.185
1082	0.189
1083	0.192
1083	0.197
1083	0.202
1084	0.207
1084	0.211
1085	0.217
1085	0.222
1085	0.228
1086	0.233
1086	0.238
1087	0.243
1087	0.249
1088	0.255
1088	0.26
1088	0.268
1089	0.275
1089	0.283
1090	0.292
1090	0.302
1090	0.313
1091	0.325
1091	0.338
1092	0.351
1092	0.366
1092	0.382
1093	0.397
1093	0.415
1094	0.435
1094	0.456
1095	0.48
1095	0.507
1095	0.54
1096	0.577
1096	0.62
1097	0.669
1097	0.726
1097	0.8
1098	0.892
1098	1.01
1099	1.188
1099	1.498
1100	-0
1100	-0
1100	-0
1101	-0
1101	-0
1102	-0
1102	-0
1102	-0
1103	-0
1103	-0
1104	-0
1104	-0
1104	-0
1105	-0
1105	-0
1106	-0
1106	-0
1107	-0
1107	-0
1107	-0
1108	-0
1108	-0
1109	-0
1109	-0
1109	-0
1110	-0
1110	-0
1111	-0
1111	-0
