Data from 17c-ppt-2-5a_Absorbance__34__00034.txt Node

Date: Mon Jan 15 09:19:57 CET 2024
User: Marek
Spectrometer: MAYP115816
Trigger mode: 0
Integration Time (sec): 2.000000E-1
Scans to average: 10
Electric dark correction enabled: true
Nonlinearity correction enabled: true
Boxcar width: 5
XAxis mode: Wavelengths
Number of Pixels in Spectrum: 2068
>>>>>Begin Spectral Data<<<<<
199	-2.306
199	-2.171
200	-2.024
200	-1.911
201	-1.835
201	-1.783
202	-1.708
202	-1.649
203	-1.595
203	-1.551
204	-1.521
204	-1.497
205	-1.476
205	-1.467
205	-1.463
206	-1.462
206	-1.459
207	-1.455
207	-1.452
208	-1.45
208	-1.444
209	-1.442
209	-1.44
210	-1.439
210	-1.437
211	-1.435
211	-1.432
212	-1.429
212	-1.429
213	-1.428
213	-1.427
213	-1.426
214	-1.425
214	-1.426
215	-1.425
215	-1.425
216	-1.424
216	-1.422
217	-1.422
217	-1.421
218	-1.42
218	-1.416
219	-1.415
219	-1.413
220	-1.407
220	-1.402
221	-1.398
221	-1.393
221	-1.388
222	-1.383
222	-1.377
223	-1.37
223	-1.366
224	-1.359
224	-1.352
225	-1.344
225	-1.332
226	-1.323
226	-1.312
227	-1.297
227	-1.28
228	-1.261
228	-1.24
229	-1.216
229	-1.188
229	-1.159
230	-1.128
230	-1.094
231	-1.055
231	-1.017
232	-0.976
232	-0.933
233	-0.888
233	-0.843
234	-0.797
234	-0.752
235	-0.706
235	-0.661
236	-0.617
236	-0.574
236	-0.533
237	-0.493
237	-0.456
238	-0.421
238	-0.388
239	-0.357
239	-0.328
240	-0.301
240	-0.276
241	-0.254
241	-0.232
242	-0.213
242	-0.195
243	-0.179
243	-0.163
243	-0.149
244	-0.136
244	-0.125
245	-0.114
245	-0.104
246	-0.095
246	-0.086
247	-0.079
247	-0.072
248	-0.065
248	-0.059
249	-0.054
249	-0.049
250	-0.044
250	-0.039
250	-0.035
251	-0.031
251	-0.027
252	-0.023
252	-0.02
253	-0.017
253	-0.014
254	-0.012
254	-0.009
255	-0.007
255	-0.005
256	-0.003
256	-0.001
257	0.001
257	0.002
258	0.004
258	0.005
258	0.006
259	0.007
259	0.008
260	0.009
260	0.01
261	0.011
261	0.012
262	0.012
262	0.013
263	0.013
263	0.014
264	0.014
264	0.015
265	0.015
265	0.015
265	0.016
266	0.016
266	0.016
267	0.017
267	0.017
268	0.017
268	0.017
269	0.017
269	0.017
270	0.017
270	0.017
271	0.017
271	0.017
272	0.018
272	0.018
272	0.018
273	0.018
273	0.018
274	0.018
274	0.018
275	0.018
275	0.018
276	0.018
276	0.017
277	0.017
277	0.017
278	0.017
278	0.016
278	0.016
279	0.016
279	0.016
280	0.017
280	0.017
281	0.018
281	0.018
282	0.019
282	0.019
283	0.02
283	0.021
284	0.021
284	0.022
285	0.022
285	0.022
285	0.022
286	0.022
286	0.022
287	0.023
287	0.023
288	0.023
288	0.023
289	0.024
289	0.024
290	0.024
290	0.024
291	0.024
291	0.025
292	0.025
292	0.025
292	0.025
293	0.025
293	0.025
294	0.026
294	0.026
295	0.026
295	0.026
296	0.026
296	0.026
297	0.026
297	0.027
298	0.027
298	0.027
298	0.027
299	0.027
299	0.027
300	0.027
300	0.027
301	0.027
301	0.027
302	0.027
302	0.027
303	0.027
303	0.027
304	0.027
304	0.027
305	0.027
305	0.027
305	0.027
306	0.026
306	0.026
307	0.026
307	0.026
308	0.026
308	0.026
309	0.026
309	0.025
310	0.025
310	0.025
311	0.025
311	0.024
311	0.024
312	0.024
312	0.024
313	0.023
313	0.023
314	0.023
314	0.023
315	0.022
315	0.022
316	0.022
316	0.022
317	0.022
317	0.021
318	0.021
318	0.02
318	0.02
319	0.02
319	0.02
320	0.019
320	0.019
321	0.018
321	0.018
322	0.017
322	0.017
323	0.017
323	0.016
324	0.016
324	0.015
324	0.015
325	0.015
325	0.014
326	0.014
326	0.014
327	0.014
327	0.013
328	0.013
328	0.013
329	0.012
329	0.012
330	0.012
330	0.011
330	0.011
331	0.011
331	0.01
332	0.01
332	0.01
333	0.009
333	0.009
334	0.008
334	0.008
335	0.008
335	0.007
336	0.007
336	0.006
336	0.006
337	0.005
337	0.005
338	0.005
338	0.004
339	0.004
339	0.004
340	0.003
340	0.003
341	0.002
341	0.002
342	0.001
342	0.001
342	0
343	0
343	-0
344	-0.001
344	-0.001
345	-0.002
345	-0.002
346	-0.002
346	-0.003
347	-0.003
347	-0.004
348	-0.004
348	-0.005
348	-0.005
349	-0.006
349	-0.007
350	-0.007
350	-0.008
351	-0.008
351	-0.009
352	-0.01
352	-0.01
353	-0.011
353	-0.012
354	-0.013
354	-0.014
354	-0.014
355	-0.015
355	-0.016
356	-0.017
356	-0.017
357	-0.017
357	-0.017
358	-0.017
358	-0.017
359	-0.016
359	-0.015
360	-0.015
360	-0.014
360	-0.014
361	-0.013
361	-0.013
362	-0.013
362	-0.013
363	-0.013
363	-0.013
364	-0.013
364	-0.014
365	-0.014
365	-0.014
366	-0.014
366	-0.014
366	-0.015
367	-0.015
367	-0.015
368	-0.015
368	-0.016
369	-0.016
369	-0.016
370	-0.017
370	-0.017
371	-0.017
371	-0.018
372	-0.018
372	-0.018
372	-0.018
373	-0.019
373	-0.018
374	-0.018
374	-0.018
375	-0.018
375	-0.018
376	-0.018
376	-0.018
377	-0.017
377	-0.017
378	-0.017
378	-0.016
378	-0.016
379	-0.016
379	-0.016
380	-0.016
380	-0.016
381	-0.016
381	-0.016
382	-0.016
382	-0.016
383	-0.016
383	-0.016
383	-0.017
384	-0.017
384	-0.017
385	-0.017
385	-0.017
386	-0.017
386	-0.017
387	-0.017
387	-0.017
388	-0.017
388	-0.017
389	-0.017
389	-0.017
389	-0.017
390	-0.017
390	-0.016
391	-0.016
391	-0.015
392	-0.015
392	-0.015
393	-0.014
393	-0.014
394	-0.014
394	-0.014
394	-0.015
395	-0.015
395	-0.015
396	-0.015
396	-0.015
397	-0.015
397	-0.014
398	-0.014
398	-0.014
399	-0.014
399	-0.014
400	-0.014
400	-0.014
400	-0.014
401	-0.015
401	-0.016
402	-0.017
402	-0.017
403	-0.017
403	-0.017
404	-0.017
404	-0.017
405	-0.017
405	-0.018
405	-0.018
406	-0.018
406	-0.018
407	-0.018
407	-0.018
408	-0.018
408	-0.019
409	-0.019
409	-0.02
410	-0.019
410	-0.02
411	-0.019
411	-0.019
411	-0.019
412	-0.02
412	-0.02
413	-0.02
413	-0.02
414	-0.021
414	-0.021
415	-0.021
415	-0.021
416	-0.021
416	-0.022
416	-0.022
417	-0.023
417	-0.023
418	-0.023
418	-0.023
419	-0.022
419	-0.021
420	-0.021
420	-0.02
421	-0.02
421	-0.019
421	-0.019
422	-0.018
422	-0.018
423	-0.018
423	-0.018
424	-0.018
424	-0.019
425	-0.02
425	-0.021
426	-0.021
426	-0.022
427	-0.022
427	-0.022
427	-0.021
428	-0.021
428	-0.02
429	-0.019
429	-0.018
430	-0.018
430	-0.018
431	-0.018
431	-0.018
432	-0.019
432	-0.019
432	-0.02
433	-0.021
433	-0.022
434	-0.023
434	-0.024
435	-0.024
435	-0.024
436	-0.024
436	-0.024
437	-0.024
437	-0.024
437	-0.024
438	-0.024
438	-0.024
439	-0.024
439	-0.024
440	-0.024
440	-0.025
441	-0.024
441	-0.024
442	-0.024
442	-0.024
442	-0.023
443	-0.023
443	-0.022
444	-0.022
444	-0.022
445	-0.022
445	-0.022
446	-0.022
446	-0.022
447	-0.022
447	-0.022
447	-0.023
448	-0.023
448	-0.023
449	-0.023
449	-0.023
450	-0.024
450	-0.024
451	-0.025
451	-0.026
452	-0.026
452	-0.027
452	-0.027
453	-0.028
453	-0.028
454	-0.029
454	-0.03
455	-0.03
455	-0.03
456	-0.03
456	-0.031
457	-0.031
457	-0.031
458	-0.031
458	-0.031
458	-0.031
459	-0.031
459	-0.03
460	-0.031
460	-0.031
461	-0.032
461	-0.033
462	-0.033
462	-0.034
463	-0.034
463	-0.034
463	-0.033
464	-0.033
464	-0.033
465	-0.034
465	-0.034
466	-0.034
466	-0.034
467	-0.035
467	-0.035
467	-0.036
468	-0.038
468	-0.04
469	-0.042
469	-0.044
470	-0.046
470	-0.046
471	-0.047
471	-0.047
472	-0.047
472	-0.048
472	-0.047
473	-0.047
473	-0.046
474	-0.045
474	-0.044
475	-0.043
475	-0.043
476	-0.043
476	-0.044
477	-0.044
477	-0.044
477	-0.045
478	-0.045
478	-0.046
479	-0.046
479	-0.046
480	-0.046
480	-0.045
481	-0.045
481	-0.044
482	-0.044
482	-0.043
482	-0.042
483	-0.041
483	-0.039
484	-0.036
484	-0.034
485	-0.032
485	-0.032
486	-0.031
486	-0.031
487	-0.031
487	-0.031
487	-0.032
488	-0.033
488	-0.035
489	-0.038
489	-0.041
490	-0.043
490	-0.045
491	-0.046
491	-0.047
492	-0.047
492	-0.047
492	-0.048
493	-0.048
493	-0.048
494	-0.047
494	-0.046
495	-0.045
495	-0.044
496	-0.044
496	-0.044
496	-0.044
497	-0.044
497	-0.044
498	-0.044
498	-0.045
499	-0.045
499	-0.047
500	-0.048
500	-0.048
501	-0.047
501	-0.046
501	-0.046
502	-0.046
502	-0.046
503	-0.045
503	-0.045
504	-0.045
504	-0.045
505	-0.045
505	-0.046
506	-0.047
506	-0.047
506	-0.048
507	-0.049
507	-0.05
508	-0.05
508	-0.051
509	-0.051
509	-0.052
510	-0.052
510	-0.053
511	-0.053
511	-0.054
511	-0.054
512	-0.055
512	-0.056
513	-0.057
513	-0.059
514	-0.061
514	-0.062
515	-0.062
515	-0.063
515	-0.064
516	-0.065
516	-0.067
517	-0.068
517	-0.068
518	-0.068
518	-0.068
519	-0.069
519	-0.069
520	-0.07
520	-0.071
520	-0.073
521	-0.074
521	-0.076
522	-0.078
522	-0.081
523	-0.083
523	-0.086
524	-0.088
524	-0.09
524	-0.091
525	-0.092
525	-0.092
526	-0.091
526	-0.09
527	-0.087
527	-0.084
528	-0.081
528	-0.078
529	-0.075
529	-0.072
529	-0.07
530	-0.068
530	-0.066
531	-0.064
531	-0.063
532	-0.062
532	-0.062
533	-0.061
533	-0.06
533	-0.06
534	-0.059
534	-0.059
535	-0.059
535	-0.059
536	-0.058
536	-0.057
537	-0.057
537	-0.056
538	-0.056
538	-0.056
538	-0.056
539	-0.056
539	-0.056
540	-0.055
540	-0.055
541	-0.056
541	-0.056
542	-0.057
542	-0.057
542	-0.057
543	-0.056
543	-0.056
544	-0.056
544	-0.056
545	-0.055
545	-0.055
546	-0.053
546	-0.052
547	-0.052
547	-0.052
547	-0.053
548	-0.054
548	-0.054
549	-0.054
549	-0.055
550	-0.055
550	-0.056
551	-0.056
551	-0.057
551	-0.057
552	-0.057
552	-0.057
553	-0.056
553	-0.055
554	-0.053
554	-0.052
555	-0.052
555	-0.053
556	-0.053
556	-0.054
556	-0.056
557	-0.057
557	-0.057
558	-0.058
558	-0.058
559	-0.058
559	-0.058
560	-0.057
560	-0.056
560	-0.055
561	-0.053
561	-0.052
562	-0.05
562	-0.049
563	-0.049
563	-0.049
564	-0.05
564	-0.051
564	-0.052
565	-0.052
565	-0.051
566	-0.051
566	-0.05
567	-0.049
567	-0.047
568	-0.044
568	-0.041
568	-0.037
569	-0.033
569	-0.029
570	-0.025
570	-0.022
571	-0.02
571	-0.018
572	-0.015
572	-0.014
573	-0.012
573	-0.01
573	-0.01
574	-0.009
574	-0.009
575	-0.009
575	-0.008
576	-0.006
576	-0.004
577	-0.003
577	-0.003
577	-0.003
578	-0.003
578	-0.003
579	-0.002
579	0.001
580	0.003
580	0.004
581	0.003
581	0.002
581	0.001
582	0.001
582	0.001
583	0.002
583	0.003
584	0.003
584	0
585	-0.002
585	-0.004
585	-0.004
586	-0.004
586	-0.003
587	-0.003
587	-0.004
588	-0.006
588	-0.009
589	-0.01
589	-0.011
590	-0.012
590	-0.012
590	-0.012
591	-0.011
591	-0.009
592	-0.008
592	-0.008
593	-0.008
593	-0.008
594	-0.007
594	-0.008
594	-0.008
595	-0.009
595	-0.009
596	-0.01
596	-0.011
597	-0.01
597	-0.008
598	-0.005
598	-0.003
598	-0.002
599	-0
599	0.001
600	0.001
600	0
601	-0.001
601	-0.001
602	-0.002
602	-0.004
602	-0.006
603	-0.007
603	-0.008
604	-0.007
604	-0.006
605	-0.005
605	-0.003
606	-0.001
606	-0
606	-0
607	-0.001
607	-0.001
608	-0.001
608	-0.002
609	-0.003
609	-0.004
610	-0.005
610	-0.006
610	-0.007
611	-0.007
611	-0.006
612	-0.005
612	-0.004
613	-0.003
613	-0.001
614	-0
614	0
614	-0
615	-0.001
615	-0.002
616	-0.002
616	-0.003
617	-0.004
617	-0.005
618	-0.007
618	-0.008
618	-0.01
619	-0.01
619	-0.01
620	-0.009
620	-0.008
621	-0.007
621	-0.007
622	-0.006
622	-0.005
622	-0.005
623	-0.005
623	-0.005
624	-0.004
624	-0.004
625	-0.005
625	-0.005
626	-0.005
626	-0.006
626	-0.006
627	-0.006
627	-0.006
628	-0.006
628	-0.005
629	-0.005
629	-0.005
630	-0.005
630	-0.006
630	-0.007
631	-0.006
631	-0.006
632	-0.006
632	-0.007
633	-0.007
633	-0.007
634	-0.006
634	-0.004
634	-0.002
635	-0.001
635	0
636	0.001
636	0.002
637	0.003
637	0.003
638	0.004
638	0.004
638	0.004
639	0.004
639	0.003
640	0.003
640	0.002
641	0.003
641	0.003
642	0.004
642	0.006
642	0.007
643	0.008
643	0.01
644	0.011
644	0.012
645	0.013
645	0.015
646	0.017
646	0.019
646	0.021
647	0.024
647	0.026
648	0.028
648	0.03
649	0.032
649	0.034
650	0.036
650	0.037
650	0.039
651	0.041
651	0.042
652	0.043
652	0.043
653	0.045
653	0.049
653	0.056
654	0.05
654	0.045
655	0.05
655	0.052
656	0.053
656	0.055
657	0.056
657	0.057
657	0.058
658	0.057
658	0.054
659	0.063
659	0.074
660	0.07
660	0.07
661	0.07
661	0.07
661	0.071
662	0.072
662	0.074
663	0.076
663	0.078
664	0.08
664	0.082
665	0.083
665	0.084
665	0.086
666	0.087
666	0.088
667	0.09
667	0.091
668	0.092
668	0.094
669	0.095
669	0.097
669	0.1
670	0.103
670	0.106
671	0.108
671	0.109
672	0.11
672	0.11
672	0.111
673	0.111
673	0.111
674	0.112
674	0.111
675	0.111
675	0.11
676	0.111
676	0.112
676	0.114
677	0.115
677	0.117
678	0.119
678	0.12
679	0.12
679	0.121
680	0.121
680	0.122
680	0.122
681	0.121
681	0.121
682	0.122
682	0.123
683	0.124
683	0.126
684	0.128
684	0.13
684	0.131
685	0.133
685	0.134
686	0.136
686	0.138
687	0.138
687	0.138
687	0.138
688	0.137
688	0.136
689	0.136
689	0.137
690	0.138
690	0.137
691	0.137
691	0.137
691	0.137
692	0.137
692	0.137
693	0.136
693	0.136
694	0.136
694	0.135
695	0.135
695	0.136
695	0.138
696	0.139
696	0.139
697	0.139
697	0.139
698	0.139
698	0.138
698	0.137
699	0.137
699	0.136
700	0.134
700	0.132
701	0.131
701	0.13
702	0.13
702	0.129
702	0.129
703	0.128
703	0.127
704	0.126
704	0.126
705	0.126
705	0.127
705	0.127
706	0.127
706	0.127
707	0.127
707	0.126
708	0.125
708	0.125
709	0.125
709	0.124
709	0.122
710	0.12
710	0.118
711	0.116
711	0.115
712	0.114
712	0.114
713	0.113
713	0.113
713	0.112
714	0.11
714	0.109
715	0.108
715	0.106
716	0.105
716	0.104
716	0.103
717	0.101
717	0.1
718	0.099
718	0.097
719	0.096
719	0.095
720	0.095
720	0.093
720	0.092
721	0.09
721	0.088
722	0.086
722	0.084
723	0.082
723	0.081
723	0.079
724	0.078
724	0.077
725	0.075
725	0.074
726	0.073
726	0.073
727	0.072
727	0.071
727	0.071
728	0.07
728	0.069
729	0.069
729	0.069
730	0.069
730	0.069
730	0.068
731	0.067
731	0.066
732	0.065
732	0.064
733	0.062
733	0.061
734	0.058
734	0.056
734	0.054
735	0.052
735	0.05
736	0.048
736	0.046
737	0.044
737	0.043
737	0.042
738	0.041
738	0.038
739	0.036
739	0.034
740	0.032
740	0.029
741	0.027
741	0.024
741	0.02
742	0.016
742	0.013
743	0.01
743	0.008
744	0.006
744	0.004
744	0.003
745	0.002
745	0.001
746	0
746	0.001
747	0.001
747	0.001
748	0.001
748	0.002
748	0.002
749	0.002
749	0.002
750	0.002
750	0.002
751	0.002
751	0.003
751	0.003
752	0.003
752	0.003
753	0.002
753	0.002
754	0.002
754	0.002
754	0.002
755	0.003
755	0.005
756	0.005
756	0.005
757	0.004
757	0.003
758	0.003
758	0.002
758	0.001
759	0.001
759	-0.001
760	-0.004
760	-0.008
761	-0.012
761	-0.014
761	-0.016
762	-0.017
762	-0.019
763	-0.019
763	-0.021
764	-0.023
764	-0.026
764	-0.029
765	-0.031
765	-0.033
766	-0.034
766	-0.035
767	-0.036
767	-0.038
768	-0.042
768	-0.044
768	-0.046
769	-0.047
769	-0.047
770	-0.047
770	-0.048
771	-0.05
771	-0.053
771	-0.057
772	-0.061
772	-0.064
773	-0.068
773	-0.072
774	-0.077
774	-0.082
775	-0.088
775	-0.093
775	-0.1
776	-0.107
776	-0.112
777	-0.116
777	-0.12
778	-0.123
778	-0.126
778	-0.129
779	-0.128
779	-0.123
780	-0.119
780	-0.117
781	-0.114
781	-0.111
781	-0.109
782	-0.108
782	-0.108
783	-0.108
783	-0.106
784	-0.107
784	-0.11
784	-0.112
785	-0.114
785	-0.116
786	-0.116
786	-0.114
787	-0.11
787	-0.106
788	-0.104
788	-0.105
788	-0.105
789	-0.107
789	-0.106
790	-0.102
790	-0.101
791	-0.101
791	-0.102
791	-0.104
792	-0.099
792	-0.089
793	-0.084
793	-0.081
794	-0.08
794	-0.082
794	-0.086
795	-0.088
795	-0.089
796	-0.089
796	-0.092
797	-0.1
797	-0.11
797	-0.116
798	-0.121
798	-0.123
799	-0.124
799	-0.124
800	-0.124
800	-0.126
801	-0.129
801	-0.13
801	-0.131
802	-0.132
802	-0.134
803	-0.135
803	-0.135
804	-0.134
804	-0.129
804	-0.122
805	-0.118
805	-0.116
806	-0.113
806	-0.112
807	-0.111
807	-0.11
807	-0.11
808	-0.11
808	-0.111
809	-0.116
809	-0.121
810	-0.125
810	-0.127
810	-0.13
811	-0.132
811	-0.132
812	-0.128
812	-0.124
813	-0.124
813	-0.124
813	-0.124
814	-0.125
814	-0.124
815	-0.121
815	-0.119
816	-0.117
816	-0.118
817	-0.122
817	-0.125
817	-0.126
818	-0.126
818	-0.123
819	-0.118
819	-0.116
820	-0.117
820	-0.119
820	-0.121
821	-0.121
821	-0.12
822	-0.12
822	-0.119
823	-0.119
823	-0.121
823	-0.124
824	-0.123
824	-0.12
825	-0.114
825	-0.107
826	-0.1
826	-0.094
826	-0.087
827	-0.08
827	-0.073
828	-0.066
828	-0.06
829	-0.055
829	-0.051
829	-0.047
830	-0.045
830	-0.042
831	-0.039
831	-0.036
832	-0.034
832	-0.031
832	-0.029
833	-0.027
833	-0.024
834	-0.022
834	-0.021
835	-0.019
835	-0.018
835	-0.017
836	-0.016
836	-0.015
837	-0.015
837	-0.015
838	-0.014
838	-0.013
839	-0.012
839	-0.011
839	-0.01
840	-0.009
840	-0.008
841	-0.006
841	-0.004
842	-0.002
842	-0
842	0.002
843	0.003
843	0.005
844	0.007
844	0.009
845	0.01
845	0.012
845	0.013
846	0.015
846	0.016
847	0.018
847	0.02
848	0.021
848	0.023
848	0.024
849	0.025
849	0.026
850	0.027
850	0.027
851	0.028
851	0.028
851	0.029
852	0.029
852	0.029
853	0.029
853	0.029
854	0.029
854	0.03
854	0.03
855	0.03
855	0.031
856	0.031
856	0.031
857	0.031
857	0.032
857	0.032
858	0.033
858	0.033
859	0.034
859	0.035
860	0.035
860	0.036
860	0.037
861	0.038
861	0.039
862	0.04
862	0.041
863	0.042
863	0.043
863	0.044
864	0.044
864	0.045
865	0.046
865	0.047
866	0.048
866	0.048
866	0.049
867	0.049
867	0.05
868	0.05
868	0.051
869	0.052
869	0.052
869	0.052
870	0.052
870	0.052
871	0.053
871	0.052
872	0.052
872	0.052
872	0.051
873	0.051
873	0.05
874	0.05
874	0.049
875	0.049
875	0.048
875	0.048
876	0.047
876	0.047
877	0.046
877	0.046
878	0.046
878	0.046
878	0.046
879	0.046
879	0.046
880	0.046
880	0.047
881	0.047
881	0.048
881	0.05
882	0.051
882	0.052
883	0.053
883	0.054
884	0.055
884	0.057
884	0.058
885	0.058
885	0.059
886	0.06
886	0.06
887	0.06
887	0.06
887	0.06
888	0.061
888	0.061
889	0.062
889	0.062
890	0.062
890	0.063
890	0.063
891	0.063
891	0.063
892	0.063
892	0.063
893	0.062
893	0.062
893	0.061
894	0.06
894	0.06
895	0.059
895	0.059
895	0.058
896	0.058
896	0.058
897	0.058
897	0.058
898	0.058
898	0.058
898	0.059
899	0.059
899	0.059
900	0.059
900	0.059
901	0.06
901	0.06
901	0.06
902	0.06
902	0.059
903	0.059
903	0.06
904	0.06
904	0.06
904	0.061
905	0.062
905	0.062
906	0.063
906	0.063
907	0.064
907	0.064
907	0.065
908	0.065
908	0.065
909	0.065
909	0.065
910	0.065
910	0.065
910	0.065
911	0.065
911	0.065
912	0.065
912	0.065
913	0.065
913	0.065
913	0.065
914	0.065
914	0.065
915	0.066
915	0.066
916	0.066
916	0.066
916	0.066
917	0.066
917	0.066
918	0.066
918	0.066
918	0.065
919	0.065
919	0.065
920	0.065
920	0.066
921	0.065
921	0.065
921	0.065
922	0.064
922	0.064
923	0.064
923	0.063
924	0.063
924	0.062
924	0.062
925	0.062
925	0.061
926	0.061
926	0.061
927	0.061
927	0.061
927	0.061
928	0.061
928	0.061
929	0.062
929	0.062
930	0.062
930	0.062
930	0.062
931	0.063
931	0.063
932	0.063
932	0.064
933	0.064
933	0.065
933	0.065
934	0.066
934	0.067
935	0.068
935	0.068
935	0.069
936	0.07
936	0.072
937	0.073
937	0.074
938	0.075
938	0.077
938	0.078
939	0.079
939	0.081
940	0.082
940	0.084
941	0.086
941	0.087
941	0.088
942	0.089
942	0.09
943	0.091
943	0.091
944	0.091
944	0.091
944	0.091
945	0.09
945	0.09
946	0.089
946	0.088
946	0.087
947	0.086
947	0.085
948	0.084
948	0.082
949	0.081
949	0.081
949	0.08
950	0.079
950	0.078
951	0.077
951	0.077
952	0.077
952	0.077
952	0.077
953	0.077
953	0.077
954	0.077
954	0.077
955	0.076
955	0.076
955	0.076
956	0.076
956	0.076
957	0.076
957	0.075
957	0.075
958	0.074
958	0.074
959	0.073
959	0.073
960	0.073
960	0.073
960	0.073
961	0.072
961	0.072
962	0.072
962	0.073
963	0.073
963	0.073
963	0.073
964	0.073
964	0.073
965	0.073
965	0.073
966	0.073
966	0.073
966	0.073
967	0.073
967	0.073
968	0.073
968	0.073
968	0.073
969	0.073
969	0.074
970	0.074
970	0.074
971	0.074
971	0.075
971	0.075
972	0.075
972	0.076
973	0.076
973	0.076
974	0.077
974	0.077
974	0.077
975	0.076
975	0.076
976	0.075
976	0.074
976	0.074
977	0.073
977	0.072
978	0.072
978	0.071
979	0.071
979	0.071
979	0.071
980	0.071
980	0.071
981	0.072
981	0.072
982	0.073
982	0.074
982	0.074
983	0.075
983	0.076
984	0.077
984	0.077
984	0.078
985	0.078
985	0.078
986	0.078
986	0.079
987	0.079
987	0.079
987	0.079
988	0.079
988	0.079
989	0.079
989	0.079
990	0.079
990	0.079
990	0.079
991	0.079
991	0.078
992	0.078
992	0.077
992	0.077
993	0.076
993	0.075
994	0.075
994	0.074
995	0.073
995	0.073
995	0.073
996	0.072
996	0.072
997	0.072
997	0.072
997	0.073
998	0.073
998	0.074
999	0.075
999	0.075
1000	0.075
1000	0.076
1000	0.076
1001	0.077
1001	0.077
1002	0.077
1002	0.077
1003	0.077
1003	0.077
1003	0.077
1004	0.077
1004	0.077
1005	0.077
1005	0.078
1005	0.078
1006	0.078
1006	0.079
1007	0.079
1007	0.08
1008	0.08
1008	0.081
1008	0.082
1009	0.083
1009	0.084
1010	0.085
1010	0.085
1010	0.086
1011	0.086
1011	0.087
1012	0.087
1012	0.087
1013	0.088
1013	0.088
1013	0.088
1014	0.088
1014	0.088
1015	0.088
1015	0.089
1016	0.089
1016	0.089
1016	0.089
1017	0.089
1017	0.089
1018	0.089
1018	0.089
1018	0.089
1019	0.089
1019	0.089
1020	0.09
1020	0.09
1021	0.09
1021	0.09
1021	0.09
1022	0.09
1022	0.09
1023	0.09
1023	0.09
1023	0.09
1024	0.09
1024	0.09
1025	0.09
1025	0.09
1026	0.09
1026	0.09
1026	0.09
1027	0.091
1027	0.091
1028	0.091
1028	0.092
1028	0.092
1029	0.093
1029	0.093
1030	0.093
1030	0.094
1031	0.094
1031	0.095
1031	0.095
1032	0.096
1032	0.096
1033	0.097
1033	0.098
1033	0.098
1034	0.099
1034	0.099
1035	0.1
1035	0.101
1036	0.102
1036	0.103
1036	0.104
1037	0.105
1037	0.106
1038	0.107
1038	0.108
1039	0.109
1039	0.109
1039	0.11
1040	0.11
1040	0.11
1041	0.111
1041	0.111
1041	0.11
1042	0.111
1042	0.111
1043	0.111
1043	0.112
1044	0.112
1044	0.113
1044	0.114
1045	0.115
1045	0.117
1046	0.118
1046	0.12
1046	0.122
1047	0.124
1047	0.125
1048	0.127
1048	0.128
1049	0.129
1049	0.13
1049	0.131
1050	0.133
1050	0.134
1051	0.136
1051	0.137
1051	0.139
1052	0.141
1052	0.143
1053	0.146
1053	0.149
1053	0.151
1054	0.153
1054	0.155
1055	0.157
1055	0.159
1056	0.16
1056	0.162
1056	0.163
1057	0.165
1057	0.167
1058	0.169
1058	0.171
1058	0.173
1059	0.175
1059	0.177
1060	0.179
1060	0.181
1061	0.183
1061	0.184
1061	0.185
1062	0.186
1062	0.187
1063	0.188
1063	0.189
1063	0.189
1064	0.191
1064	0.192
1065	0.194
1065	0.196
1066	0.199
1066	0.201
1066	0.203
1067	0.206
1067	0.209
1068	0.211
1068	0.214
1068	0.217
1069	0.219
1069	0.222
1070	0.225
1070	0.227
1071	0.231
1071	0.235
1071	0.239
1072	0.243
1072	0.248
1073	0.252
1073	0.257
1073	0.261
1074	0.265
1074	0.27
1075	0.275
1075	0.28
1076	0.286
1076	0.292
1076	0.298
1077	0.305
1077	0.312
1078	0.32
1078	0.328
1078	0.336
1079	0.344
1079	0.352
1080	0.36
1080	0.367
1080	0.374
1081	0.38
1081	0.388
1082	0.396
1082	0.405
1083	0.415
1083	0.425
1083	0.438
1084	0.45
1084	0.464
1085	0.48
1085	0.497
1085	0.515
1086	0.532
1086	0.55
1087	0.569
1087	0.59
1088	0.615
1088	0.64
1088	0.671
1089	0.706
1089	0.748
1090	0.799
1090	0.86
1090	0.937
1091	1.036
1091	1.171
1092	1.361
1092	1.746
1092	-0
1093	-0
1093	-0
1094	-0
1094	-0
1095	-0
1095	-0
1095	-0
1096	-0
1096	-0
1097	-0
1097	-0
1097	-0
1098	-0
1098	-0
1099	-0
1099	-0
1100	-0
1100	-0
1100	-0
1101	-0
1101	-0
1102	-0
1102	-0
1102	-0
1103	-0
1103	-0
1104	-0
1104	-0
1104	-0
1105	-0
1105	-0
1106	-0
1106	-0
1107	-0
1107	-0
1107	-0
1108	-0
1108	-0
1109	-0
1109	-0
1109	-0
1110	-0
1110	-0
1111	-0
1111	-0
