Data from 15c-2a_Absorbance__457__03166.txt Node

Date: Tue Jan 16 14:16:30 CET 2024
User: Marek
Spectrometer: MAYP115816
Trigger mode: 0
Integration Time (sec): 2.000000E-1
Scans to average: 10
Electric dark correction enabled: true
Nonlinearity correction enabled: true
Boxcar width: 5
XAxis mode: Wavelengths
Number of Pixels in Spectrum: 2068
>>>>>Begin Spectral Data<<<<<
199	-1.614
199	-1.435
200	-1.306
200	-1.192
201	-1.122
201	-1.074
202	-1.005
202	-0.951
203	-0.91
203	-0.869
204	-0.844
204	-0.82
205	-0.801
205	-0.79
205	-0.788
206	-0.784
206	-0.782
207	-0.779
207	-0.78
208	-0.776
208	-0.776
209	-0.771
209	-0.77
210	-0.77
210	-0.768
211	-0.767
211	-0.768
212	-0.767
212	-0.768
213	-0.765
213	-0.765
213	-0.766
214	-0.765
214	-0.764
215	-0.763
215	-0.764
216	-0.761
216	-0.761
217	-0.757
217	-0.755
218	-0.751
218	-0.747
219	-0.742
219	-0.741
220	-0.739
220	-0.738
221	-0.735
221	-0.734
221	-0.73
222	-0.726
222	-0.721
223	-0.717
223	-0.712
224	-0.708
224	-0.699
225	-0.69
225	-0.681
226	-0.673
226	-0.663
227	-0.65
227	-0.639
228	-0.624
228	-0.609
229	-0.589
229	-0.566
229	-0.542
230	-0.514
230	-0.484
231	-0.45
231	-0.412
232	-0.376
232	-0.335
233	-0.294
233	-0.25
234	-0.207
234	-0.164
235	-0.121
235	-0.08
236	-0.041
236	-0.001
236	0.036
237	0.073
237	0.106
238	0.138
238	0.167
239	0.195
239	0.219
240	0.243
240	0.264
241	0.283
241	0.3
242	0.316
242	0.33
243	0.343
243	0.355
243	0.366
244	0.376
244	0.385
245	0.392
245	0.4
246	0.408
246	0.414
247	0.42
247	0.426
248	0.431
248	0.437
249	0.441
249	0.445
250	0.449
250	0.453
250	0.457
251	0.46
251	0.463
252	0.466
252	0.469
253	0.471
253	0.473
254	0.475
254	0.478
255	0.479
255	0.481
256	0.482
256	0.484
257	0.485
257	0.486
258	0.487
258	0.487
258	0.488
259	0.488
259	0.488
260	0.489
260	0.489
261	0.489
261	0.489
262	0.488
262	0.488
263	0.487
263	0.487
264	0.486
264	0.486
265	0.485
265	0.483
265	0.482
266	0.481
266	0.48
267	0.479
267	0.477
268	0.476
268	0.474
269	0.472
269	0.47
270	0.468
270	0.467
271	0.464
271	0.462
272	0.461
272	0.458
272	0.457
273	0.454
273	0.452
274	0.451
274	0.448
275	0.447
275	0.445
276	0.443
276	0.44
277	0.438
277	0.435
278	0.433
278	0.43
278	0.428
279	0.425
279	0.422
280	0.419
280	0.417
281	0.414
281	0.412
282	0.41
282	0.407
283	0.405
283	0.403
284	0.401
284	0.4
285	0.398
285	0.396
285	0.394
286	0.392
286	0.39
287	0.388
287	0.387
288	0.385
288	0.383
289	0.381
289	0.379
290	0.378
290	0.376
291	0.374
291	0.373
292	0.371
292	0.37
292	0.368
293	0.367
293	0.365
294	0.364
294	0.363
295	0.362
295	0.361
296	0.359
296	0.358
297	0.357
297	0.356
298	0.355
298	0.354
298	0.353
299	0.352
299	0.351
300	0.35
300	0.349
301	0.348
301	0.347
302	0.346
302	0.346
303	0.345
303	0.344
304	0.343
304	0.342
305	0.341
305	0.34
305	0.339
306	0.338
306	0.337
307	0.337
307	0.336
308	0.335
308	0.334
309	0.333
309	0.332
310	0.331
310	0.33
311	0.33
311	0.329
311	0.328
312	0.327
312	0.326
313	0.325
313	0.325
314	0.324
314	0.323
315	0.322
315	0.321
316	0.32
316	0.319
317	0.319
317	0.318
318	0.317
318	0.316
318	0.316
319	0.315
319	0.314
320	0.313
320	0.312
321	0.311
321	0.31
322	0.309
322	0.309
323	0.308
323	0.307
324	0.306
324	0.305
324	0.304
325	0.303
325	0.303
326	0.302
326	0.301
327	0.3
327	0.3
328	0.299
328	0.298
329	0.297
329	0.296
330	0.296
330	0.295
330	0.294
331	0.294
331	0.293
332	0.292
332	0.291
333	0.29
333	0.29
334	0.289
334	0.288
335	0.288
335	0.287
336	0.286
336	0.285
336	0.284
337	0.284
337	0.283
338	0.283
338	0.282
339	0.281
339	0.281
340	0.28
340	0.28
341	0.279
341	0.278
342	0.278
342	0.278
342	0.277
343	0.276
343	0.276
344	0.276
344	0.275
345	0.275
345	0.274
346	0.274
346	0.274
347	0.273
347	0.273
348	0.272
348	0.272
348	0.271
349	0.271
349	0.27
350	0.27
350	0.27
351	0.269
351	0.269
352	0.268
352	0.268
353	0.267
353	0.267
354	0.266
354	0.266
354	0.265
355	0.264
355	0.263
356	0.263
356	0.262
357	0.261
357	0.261
358	0.261
358	0.261
359	0.261
359	0.261
360	0.261
360	0.262
360	0.262
361	0.262
361	0.262
362	0.263
362	0.263
363	0.263
363	0.263
364	0.263
364	0.262
365	0.262
365	0.262
366	0.261
366	0.261
366	0.261
367	0.261
367	0.26
368	0.26
368	0.26
369	0.26
369	0.26
370	0.259
370	0.259
371	0.259
371	0.259
372	0.258
372	0.258
372	0.258
373	0.258
373	0.257
374	0.257
374	0.257
375	0.257
375	0.256
376	0.256
376	0.256
377	0.256
377	0.256
378	0.256
378	0.256
378	0.256
379	0.256
379	0.256
380	0.256
380	0.256
381	0.256
381	0.256
382	0.255
382	0.255
383	0.255
383	0.254
383	0.254
384	0.254
384	0.253
385	0.253
385	0.253
386	0.253
386	0.253
387	0.253
387	0.253
388	0.252
388	0.252
389	0.252
389	0.252
389	0.252
390	0.251
390	0.251
391	0.251
391	0.251
392	0.251
392	0.251
393	0.251
393	0.251
394	0.251
394	0.251
394	0.25
395	0.25
395	0.25
396	0.25
396	0.25
397	0.25
397	0.25
398	0.25
398	0.25
399	0.249
399	0.249
400	0.249
400	0.249
400	0.248
401	0.248
401	0.247
402	0.247
402	0.246
403	0.246
403	0.246
404	0.246
404	0.245
405	0.245
405	0.245
405	0.245
406	0.245
406	0.245
407	0.245
407	0.245
408	0.245
408	0.245
409	0.245
409	0.244
410	0.244
410	0.244
411	0.244
411	0.244
411	0.244
412	0.243
412	0.243
413	0.243
413	0.242
414	0.242
414	0.242
415	0.242
415	0.241
416	0.241
416	0.241
416	0.24
417	0.24
417	0.24
418	0.24
418	0.24
419	0.24
419	0.24
420	0.241
420	0.241
421	0.241
421	0.241
421	0.241
422	0.242
422	0.242
423	0.242
423	0.241
424	0.241
424	0.24
425	0.24
425	0.239
426	0.239
426	0.239
427	0.239
427	0.239
427	0.239
428	0.239
428	0.24
429	0.24
429	0.241
430	0.241
430	0.24
431	0.24
431	0.24
432	0.24
432	0.24
432	0.239
433	0.239
433	0.238
434	0.238
434	0.237
435	0.237
435	0.237
436	0.237
436	0.237
437	0.237
437	0.237
437	0.237
438	0.237
438	0.237
439	0.237
439	0.237
440	0.236
440	0.237
441	0.237
441	0.237
442	0.237
442	0.237
442	0.238
443	0.238
443	0.239
444	0.239
444	0.24
445	0.24
445	0.24
446	0.241
446	0.241
447	0.241
447	0.241
447	0.241
448	0.24
448	0.24
449	0.24
449	0.24
450	0.239
450	0.239
451	0.239
451	0.239
452	0.239
452	0.239
452	0.239
453	0.239
453	0.238
454	0.238
454	0.238
455	0.238
455	0.238
456	0.238
456	0.238
457	0.238
457	0.238
458	0.238
458	0.238
458	0.239
459	0.239
459	0.239
460	0.239
460	0.239
461	0.239
461	0.239
462	0.239
462	0.24
463	0.24
463	0.241
463	0.241
464	0.241
464	0.242
465	0.242
465	0.242
466	0.242
466	0.243
467	0.243
467	0.243
467	0.242
468	0.242
468	0.241
469	0.241
469	0.241
470	0.241
470	0.241
471	0.241
471	0.241
472	0.242
472	0.242
472	0.243
473	0.244
473	0.244
474	0.245
474	0.246
475	0.247
475	0.247
476	0.248
476	0.249
477	0.249
477	0.25
477	0.251
478	0.252
478	0.253
479	0.254
479	0.254
480	0.255
480	0.256
481	0.257
481	0.258
482	0.259
482	0.26
482	0.261
483	0.262
483	0.264
484	0.266
484	0.267
485	0.269
485	0.27
486	0.271
486	0.273
487	0.274
487	0.275
487	0.276
488	0.276
488	0.276
489	0.277
489	0.278
490	0.279
490	0.28
491	0.281
491	0.282
492	0.283
492	0.284
492	0.286
493	0.287
493	0.289
494	0.291
494	0.294
495	0.295
495	0.297
496	0.299
496	0.3
496	0.302
497	0.304
497	0.305
498	0.307
498	0.308
499	0.309
499	0.31
500	0.312
500	0.314
501	0.316
501	0.317
501	0.319
502	0.321
502	0.322
503	0.324
503	0.326
504	0.328
504	0.329
505	0.331
505	0.332
506	0.334
506	0.336
506	0.337
507	0.339
507	0.34
508	0.342
508	0.344
509	0.345
509	0.347
510	0.349
510	0.35
511	0.351
511	0.352
511	0.353
512	0.355
512	0.356
513	0.356
513	0.357
514	0.358
514	0.358
515	0.359
515	0.359
515	0.359
516	0.36
516	0.361
517	0.362
517	0.362
518	0.363
518	0.363
519	0.363
519	0.362
520	0.362
520	0.362
520	0.361
521	0.36
521	0.359
522	0.358
522	0.357
523	0.357
523	0.358
524	0.358
524	0.359
524	0.36
525	0.361
525	0.362
526	0.363
526	0.363
527	0.364
527	0.365
528	0.365
528	0.366
529	0.366
529	0.366
529	0.365
530	0.365
530	0.364
531	0.364
531	0.363
532	0.362
532	0.361
533	0.361
533	0.36
533	0.359
534	0.358
534	0.356
535	0.355
535	0.354
536	0.353
536	0.351
537	0.35
537	0.348
538	0.346
538	0.344
538	0.342
539	0.34
539	0.339
540	0.337
540	0.335
541	0.333
541	0.33
542	0.328
542	0.326
542	0.324
543	0.322
543	0.319
544	0.317
544	0.315
545	0.312
545	0.311
546	0.309
546	0.306
547	0.304
547	0.301
547	0.298
548	0.296
548	0.293
549	0.291
549	0.288
550	0.286
550	0.283
551	0.28
551	0.278
551	0.275
552	0.273
552	0.271
553	0.269
553	0.267
554	0.265
554	0.262
555	0.259
555	0.257
556	0.254
556	0.251
556	0.248
557	0.245
557	0.243
558	0.24
558	0.238
559	0.235
559	0.233
560	0.232
560	0.23
560	0.229
561	0.228
561	0.227
562	0.225
562	0.223
563	0.22
563	0.218
564	0.215
564	0.213
564	0.21
565	0.208
565	0.205
566	0.203
566	0.201
567	0.2
567	0.199
568	0.198
568	0.197
568	0.196
569	0.196
569	0.195
570	0.194
570	0.192
571	0.192
571	0.191
572	0.189
572	0.188
573	0.186
573	0.185
573	0.182
574	0.181
574	0.18
575	0.179
575	0.179
576	0.178
576	0.176
577	0.173
577	0.172
577	0.171
578	0.17
578	0.17
579	0.171
579	0.171
580	0.169
580	0.166
581	0.164
581	0.162
581	0.162
582	0.162
582	0.162
583	0.162
583	0.16
584	0.157
584	0.153
585	0.153
585	0.153
585	0.153
586	0.153
586	0.152
587	0.15
587	0.148
588	0.147
588	0.146
589	0.145
589	0.145
590	0.145
590	0.144
590	0.145
591	0.145
591	0.144
592	0.143
592	0.141
593	0.14
593	0.14
594	0.138
594	0.137
594	0.136
595	0.136
595	0.134
596	0.133
596	0.135
597	0.137
597	0.137
598	0.138
598	0.139
598	0.139
599	0.14
599	0.139
600	0.138
600	0.137
601	0.137
601	0.136
602	0.134
602	0.133
602	0.132
603	0.132
603	0.132
604	0.132
604	0.132
605	0.133
605	0.134
606	0.134
606	0.133
606	0.132
607	0.132
607	0.132
608	0.132
608	0.13
609	0.13
609	0.13
610	0.129
610	0.128
610	0.128
611	0.129
611	0.13
612	0.131
612	0.132
613	0.133
613	0.135
614	0.134
614	0.134
614	0.134
615	0.134
615	0.134
616	0.134
616	0.134
617	0.134
617	0.133
618	0.133
618	0.133
618	0.133
619	0.134
619	0.136
620	0.138
620	0.139
621	0.139
621	0.14
622	0.141
622	0.142
622	0.142
623	0.142
623	0.144
624	0.145
624	0.145
625	0.145
625	0.146
626	0.146
626	0.147
626	0.148
627	0.148
627	0.149
628	0.149
628	0.149
629	0.15
629	0.15
630	0.15
630	0.15
630	0.151
631	0.152
631	0.153
632	0.153
632	0.154
633	0.155
633	0.157
634	0.159
634	0.161
634	0.162
635	0.164
635	0.165
636	0.166
636	0.167
637	0.169
637	0.17
638	0.172
638	0.174
638	0.176
639	0.177
639	0.179
640	0.182
640	0.184
641	0.187
641	0.189
642	0.192
642	0.194
642	0.197
643	0.198
643	0.2
644	0.202
644	0.204
645	0.206
645	0.208
646	0.211
646	0.214
646	0.217
647	0.22
647	0.222
648	0.225
648	0.228
649	0.231
649	0.234
650	0.237
650	0.24
650	0.243
651	0.245
651	0.248
652	0.251
652	0.254
653	0.258
653	0.267
653	0.269
654	0.213
654	0.172
655	0.176
655	0.179
656	0.18
656	0.182
657	0.184
657	0.186
657	0.186
658	0.183
658	0.178
659	0.226
659	0.293
660	0.301
660	0.303
661	0.305
661	0.309
661	0.312
662	0.316
662	0.32
663	0.324
663	0.327
664	0.331
664	0.334
665	0.337
665	0.34
665	0.344
666	0.347
666	0.35
667	0.353
667	0.357
668	0.36
668	0.363
669	0.367
669	0.37
669	0.374
670	0.378
670	0.382
671	0.384
671	0.387
672	0.389
672	0.391
672	0.393
673	0.395
673	0.397
674	0.399
674	0.401
675	0.402
675	0.404
676	0.406
676	0.409
676	0.41
677	0.412
677	0.415
678	0.416
678	0.417
679	0.419
679	0.42
680	0.422
680	0.424
680	0.424
681	0.425
681	0.427
682	0.428
682	0.429
683	0.431
683	0.433
684	0.434
684	0.434
684	0.434
685	0.435
685	0.436
686	0.437
686	0.437
687	0.437
687	0.437
687	0.437
688	0.436
688	0.436
689	0.436
689	0.436
690	0.435
690	0.434
691	0.433
691	0.433
691	0.432
692	0.431
692	0.43
693	0.43
693	0.43
694	0.429
694	0.427
695	0.428
695	0.429
695	0.428
696	0.427
696	0.425
697	0.424
697	0.423
698	0.421
698	0.419
698	0.416
699	0.414
699	0.411
700	0.407
700	0.405
701	0.403
701	0.401
702	0.399
702	0.396
702	0.394
703	0.392
703	0.39
704	0.388
704	0.386
705	0.384
705	0.381
705	0.378
706	0.376
706	0.373
707	0.37
707	0.368
708	0.365
708	0.363
709	0.361
709	0.358
709	0.355
710	0.352
710	0.35
711	0.348
711	0.346
712	0.344
712	0.342
713	0.34
713	0.337
713	0.334
714	0.331
714	0.329
715	0.326
715	0.323
716	0.32
716	0.317
716	0.314
717	0.311
717	0.309
718	0.306
718	0.303
719	0.301
719	0.299
720	0.297
720	0.295
720	0.292
721	0.289
721	0.286
722	0.284
722	0.281
723	0.278
723	0.276
723	0.273
724	0.27
724	0.266
725	0.263
725	0.26
726	0.258
726	0.255
727	0.252
727	0.25
727	0.248
728	0.246
728	0.244
729	0.243
729	0.241
730	0.24
730	0.238
730	0.236
731	0.235
731	0.234
732	0.233
732	0.231
733	0.229
733	0.228
734	0.226
734	0.224
734	0.223
735	0.222
735	0.22
736	0.218
736	0.217
737	0.215
737	0.214
737	0.211
738	0.208
738	0.205
739	0.203
739	0.2
740	0.198
740	0.197
741	0.195
741	0.193
741	0.19
742	0.188
742	0.186
743	0.185
743	0.183
744	0.182
744	0.181
744	0.179
745	0.177
745	0.174
746	0.173
746	0.171
747	0.169
747	0.167
748	0.166
748	0.164
748	0.161
749	0.159
749	0.158
750	0.156
750	0.154
751	0.152
751	0.151
751	0.149
752	0.147
752	0.145
753	0.144
753	0.143
754	0.141
754	0.14
754	0.139
755	0.138
755	0.137
756	0.135
756	0.133
757	0.131
757	0.13
758	0.129
758	0.127
758	0.126
759	0.124
759	0.121
760	0.119
760	0.117
761	0.116
761	0.115
761	0.114
762	0.112
762	0.112
763	0.11
763	0.108
764	0.106
764	0.104
764	0.103
765	0.101
765	0.099
766	0.098
766	0.098
767	0.096
767	0.094
768	0.092
768	0.091
768	0.09
769	0.089
769	0.088
770	0.086
770	0.085
771	0.083
771	0.08
771	0.078
772	0.076
772	0.074
773	0.072
773	0.07
774	0.068
774	0.066
775	0.064
775	0.062
775	0.06
776	0.057
776	0.055
777	0.052
777	0.049
778	0.046
778	0.043
778	0.04
779	0.037
779	0.035
780	0.031
780	0.028
781	0.024
781	0.02
781	0.016
782	0.01
782	0.005
783	-0.001
783	-0.007
784	-0.014
784	-0.021
784	-0.028
785	-0.035
785	-0.043
786	-0.05
786	-0.054
787	-0.055
787	-0.058
788	-0.062
788	-0.067
788	-0.071
789	-0.075
789	-0.077
790	-0.077
790	-0.078
791	-0.079
791	-0.081
791	-0.083
792	-0.077
792	-0.068
793	-0.062
793	-0.059
794	-0.057
794	-0.059
794	-0.062
795	-0.064
795	-0.064
796	-0.064
796	-0.066
797	-0.074
797	-0.083
797	-0.089
798	-0.094
798	-0.097
799	-0.098
799	-0.098
800	-0.098
800	-0.1
801	-0.103
801	-0.104
801	-0.105
802	-0.107
802	-0.108
803	-0.109
803	-0.11
804	-0.109
804	-0.104
804	-0.098
805	-0.094
805	-0.092
806	-0.09
806	-0.089
807	-0.088
807	-0.087
807	-0.087
808	-0.086
808	-0.086
809	-0.09
809	-0.095
810	-0.098
810	-0.1
810	-0.103
811	-0.105
811	-0.106
812	-0.102
812	-0.099
813	-0.099
813	-0.1
813	-0.101
814	-0.102
814	-0.101
815	-0.099
815	-0.096
816	-0.094
816	-0.094
817	-0.096
817	-0.095
817	-0.09
818	-0.084
818	-0.076
819	-0.067
819	-0.059
820	-0.053
820	-0.046
820	-0.038
821	-0.029
821	-0.021
822	-0.014
822	-0.008
823	-0.003
823	0.001
823	0.004
824	0.008
824	0.012
825	0.017
825	0.021
826	0.024
826	0.027
826	0.03
827	0.032
827	0.035
828	0.037
828	0.039
829	0.041
829	0.043
829	0.045
830	0.046
830	0.049
831	0.051
831	0.053
832	0.055
832	0.057
832	0.058
833	0.059
833	0.06
834	0.06
834	0.061
835	0.061
835	0.061
835	0.061
836	0.061
836	0.061
837	0.061
837	0.062
838	0.062
838	0.063
839	0.063
839	0.063
839	0.063
840	0.064
840	0.064
841	0.064
841	0.065
842	0.065
842	0.065
842	0.065
843	0.065
843	0.065
844	0.065
844	0.065
845	0.064
845	0.064
845	0.064
846	0.064
846	0.063
847	0.064
847	0.064
848	0.064
848	0.064
848	0.065
849	0.065
849	0.065
850	0.065
850	0.065
851	0.065
851	0.065
851	0.065
852	0.065
852	0.065
853	0.065
853	0.065
854	0.065
854	0.066
854	0.066
855	0.066
855	0.067
856	0.067
856	0.067
857	0.067
857	0.067
857	0.067
858	0.067
858	0.066
859	0.066
859	0.066
860	0.066
860	0.065
860	0.065
861	0.065
861	0.065
862	0.064
862	0.063
863	0.063
863	0.062
863	0.062
864	0.061
864	0.061
865	0.061
865	0.061
866	0.06
866	0.061
866	0.061
867	0.062
867	0.063
868	0.064
868	0.064
869	0.065
869	0.065
869	0.064
870	0.064
870	0.063
871	0.063
871	0.062
872	0.06
872	0.059
872	0.058
873	0.057
873	0.056
874	0.055
874	0.055
875	0.055
875	0.055
875	0.055
876	0.055
876	0.056
877	0.056
877	0.056
878	0.056
878	0.055
878	0.055
879	0.055
879	0.054
880	0.054
880	0.053
881	0.053
881	0.053
881	0.053
882	0.054
882	0.054
883	0.054
883	0.055
884	0.056
884	0.056
884	0.057
885	0.057
885	0.057
886	0.058
886	0.058
887	0.058
887	0.058
887	0.058
888	0.057
888	0.057
889	0.057
889	0.057
890	0.058
890	0.058
890	0.058
891	0.058
891	0.059
892	0.059
892	0.059
893	0.06
893	0.06
893	0.061
894	0.061
894	0.061
895	0.061
895	0.061
895	0.061
896	0.061
896	0.061
897	0.062
897	0.062
898	0.062
898	0.063
898	0.063
899	0.063
899	0.064
900	0.064
900	0.064
901	0.064
901	0.064
901	0.064
902	0.064
902	0.064
903	0.063
903	0.062
904	0.062
904	0.061
904	0.06
905	0.06
905	0.059
906	0.058
906	0.057
907	0.057
907	0.056
907	0.056
908	0.056
908	0.056
909	0.056
909	0.057
910	0.057
910	0.058
910	0.059
911	0.059
911	0.06
912	0.061
912	0.062
913	0.062
913	0.063
913	0.063
914	0.064
914	0.064
915	0.063
915	0.063
916	0.063
916	0.062
916	0.062
917	0.061
917	0.06
918	0.059
918	0.059
918	0.058
919	0.057
919	0.057
920	0.056
920	0.056
921	0.056
921	0.055
921	0.055
922	0.055
922	0.055
923	0.055
923	0.054
924	0.054
924	0.054
924	0.054
925	0.053
925	0.053
926	0.052
926	0.052
927	0.051
927	0.051
927	0.05
928	0.05
928	0.05
929	0.05
929	0.051
930	0.051
930	0.052
930	0.053
931	0.054
931	0.056
932	0.057
932	0.058
933	0.059
933	0.06
933	0.061
934	0.061
934	0.061
935	0.061
935	0.06
935	0.06
936	0.06
936	0.06
937	0.06
937	0.06
938	0.06
938	0.06
938	0.06
939	0.06
939	0.06
940	0.06
940	0.06
941	0.06
941	0.06
941	0.06
942	0.06
942	0.059
943	0.059
943	0.058
944	0.057
944	0.057
944	0.057
945	0.057
945	0.056
946	0.056
946	0.056
946	0.055
947	0.055
947	0.054
948	0.054
948	0.053
949	0.053
949	0.052
949	0.052
950	0.052
950	0.052
951	0.051
951	0.051
952	0.051
952	0.05
952	0.05
953	0.05
953	0.05
954	0.049
954	0.048
955	0.048
955	0.047
955	0.047
956	0.048
956	0.048
957	0.048
957	0.048
957	0.048
958	0.048
958	0.048
959	0.048
959	0.048
960	0.047
960	0.047
960	0.046
961	0.045
961	0.045
962	0.044
962	0.044
963	0.044
963	0.044
963	0.044
964	0.044
964	0.044
965	0.045
965	0.046
966	0.047
966	0.048
966	0.049
967	0.049
967	0.05
968	0.05
968	0.05
968	0.05
969	0.05
969	0.049
970	0.049
970	0.048
971	0.048
971	0.047
971	0.047
972	0.046
972	0.046
973	0.046
973	0.046
974	0.047
974	0.047
974	0.047
975	0.048
975	0.049
976	0.049
976	0.05
976	0.05
977	0.051
977	0.051
978	0.051
978	0.051
979	0.051
979	0.052
979	0.052
980	0.051
980	0.051
981	0.051
981	0.052
982	0.052
982	0.053
982	0.053
983	0.053
983	0.054
984	0.054
984	0.054
984	0.054
985	0.053
985	0.053
986	0.051
986	0.05
987	0.049
987	0.047
987	0.046
988	0.045
988	0.044
989	0.043
989	0.043
990	0.042
990	0.042
990	0.042
991	0.043
991	0.043
992	0.044
992	0.044
992	0.044
993	0.044
993	0.044
994	0.044
994	0.044
995	0.044
995	0.044
995	0.043
996	0.043
996	0.043
997	0.042
997	0.043
997	0.043
998	0.043
998	0.044
999	0.045
999	0.046
1000	0.047
1000	0.048
1000	0.049
1001	0.05
1001	0.051
1002	0.051
1002	0.052
1003	0.052
1003	0.052
1003	0.053
1004	0.052
1004	0.052
1005	0.051
1005	0.051
1005	0.05
1006	0.05
1006	0.049
1007	0.049
1007	0.048
1008	0.048
1008	0.048
1008	0.048
1009	0.048
1009	0.048
1010	0.048
1010	0.048
1010	0.048
1011	0.048
1011	0.048
1012	0.048
1012	0.049
1013	0.049
1013	0.048
1013	0.048
1014	0.047
1014	0.047
1015	0.046
1015	0.045
1016	0.044
1016	0.043
1016	0.042
1017	0.04
1017	0.039
1018	0.038
1018	0.038
1018	0.037
1019	0.037
1019	0.036
1020	0.036
1020	0.035
1021	0.035
1021	0.035
1021	0.035
1022	0.035
1022	0.035
1023	0.034
1023	0.034
1023	0.034
1024	0.033
1024	0.032
1025	0.031
1025	0.03
1026	0.03
1026	0.029
1026	0.028
1027	0.027
1027	0.027
1028	0.026
1028	0.026
1028	0.026
1029	0.026
1029	0.027
1030	0.027
1030	0.027
1031	0.027
1031	0.028
1031	0.028
1032	0.029
1032	0.03
1033	0.03
1033	0.03
1033	0.031
1034	0.03
1034	0.03
1035	0.03
1035	0.029
1036	0.029
1036	0.028
1036	0.028
1037	0.028
1037	0.028
1038	0.028
1038	0.028
1039	0.028
1039	0.029
1039	0.03
1040	0.03
1040	0.031
1041	0.031
1041	0.03
1041	0.03
1042	0.029
1042	0.029
1043	0.028
1043	0.027
1044	0.027
1044	0.026
1044	0.025
1045	0.025
1045	0.024
1046	0.023
1046	0.023
1046	0.023
1047	0.023
1047	0.023
1048	0.023
1048	0.023
1049	0.022
1049	0.022
1049	0.021
1050	0.02
1050	0.019
1051	0.019
1051	0.018
1051	0.018
1052	0.017
1052	0.017
1053	0.016
1053	0.016
1053	0.015
1054	0.015
1054	0.015
1055	0.016
1055	0.016
1056	0.015
1056	0.015
1056	0.014
1057	0.014
1057	0.014
1058	0.014
1058	0.013
1058	0.013
1059	0.014
1059	0.013
1060	0.013
1060	0.013
1061	0.013
1061	0.013
1061	0.013
1062	0.013
1062	0.013
1063	0.013
1063	0.013
1063	0.013
1064	0.013
1064	0.014
1065	0.014
1065	0.014
1066	0.015
1066	0.015
1066	0.016
1067	0.016
1067	0.017
1068	0.017
1068	0.018
1068	0.018
1069	0.018
1069	0.018
1070	0.018
1070	0.018
1071	0.018
1071	0.019
1071	0.018
1072	0.018
1072	0.018
1073	0.018
1073	0.018
1073	0.018
1074	0.017
1074	0.017
1075	0.016
1075	0.015
1076	0.014
1076	0.014
1076	0.013
1077	0.012
1077	0.011
1078	0.011
1078	0.011
1078	0.011
1079	0.011
1079	0.012
1080	0.012
1080	0.013
1080	0.013
1081	0.014
1081	0.014
1082	0.014
1082	0.014
1083	0.014
1083	0.014
1083	0.014
1084	0.014
1084	0.014
1085	0.014
1085	0.015
1085	0.015
1086	0.016
1086	0.016
1087	0.016
1087	0.017
1088	0.016
1088	0.017
1088	0.017
1089	0.017
1089	0.018
1090	0.018
1090	0.018
1090	0.019
1091	0.02
1091	0.021
1092	0.023
1092	0.024
1092	0.025
1093	0.025
1093	0.027
1094	0.029
1094	0.029
1095	0.03
1095	0.031
1095	0.033
1096	0.033
1096	0.034
1097	0.036
1097	0.037
1097	0.039
1098	0.04
1098	0.041
1099	0.043
1099	0.045
1100	0.047
1100	0.049
1100	0.052
1101	0.054
1101	0.057
1102	0.061
1102	0.064
1102	0.07
1103	0.075
1103	0.079
1104	0.086
1104	0.092
1104	0.1
1105	0.108
1105	0.115
1106	0.121
1106	0.131
1107	0.139
1107	0.152
1107	0.168
1108	0.224
1108	0.301
1109	0.422
1109	0.647
1109	0.891
1110	-0
1110	-0
1111	-0
1111	-0
