Data from 15c-2a_Absorbance__146__02855.txt Node

Date: Tue Jan 16 14:06:08 CET 2024
User: Marek
Spectrometer: MAYP115816
Trigger mode: 0
Integration Time (sec): 2.000000E-1
Scans to average: 10
Electric dark correction enabled: true
Nonlinearity correction enabled: true
Boxcar width: 5
XAxis mode: Wavelengths
Number of Pixels in Spectrum: 2068
>>>>>Begin Spectral Data<<<<<
199	-1.634
199	-1.456
200	-1.327
200	-1.212
201	-1.142
201	-1.094
202	-1.025
202	-0.971
203	-0.929
203	-0.887
204	-0.863
204	-0.839
205	-0.82
205	-0.808
205	-0.807
206	-0.803
206	-0.8
207	-0.798
207	-0.797
208	-0.794
208	-0.794
209	-0.789
209	-0.788
210	-0.788
210	-0.786
211	-0.785
211	-0.785
212	-0.785
212	-0.785
213	-0.782
213	-0.782
213	-0.783
214	-0.782
214	-0.78
215	-0.779
215	-0.779
216	-0.776
216	-0.776
217	-0.773
217	-0.771
218	-0.768
218	-0.764
219	-0.759
219	-0.758
220	-0.757
220	-0.757
221	-0.753
221	-0.752
221	-0.748
222	-0.744
222	-0.739
223	-0.734
223	-0.73
224	-0.725
224	-0.716
225	-0.708
225	-0.698
226	-0.691
226	-0.681
227	-0.667
227	-0.656
228	-0.64
228	-0.625
229	-0.605
229	-0.582
229	-0.559
230	-0.531
230	-0.5
231	-0.466
231	-0.428
232	-0.392
232	-0.351
233	-0.309
233	-0.265
234	-0.223
234	-0.179
235	-0.136
235	-0.094
236	-0.053
236	-0.014
236	0.023
237	0.059
237	0.093
238	0.124
238	0.154
239	0.182
239	0.207
240	0.23
240	0.251
241	0.27
241	0.288
242	0.304
242	0.319
243	0.332
243	0.344
243	0.355
244	0.365
244	0.374
245	0.382
245	0.39
246	0.397
246	0.404
247	0.41
247	0.416
248	0.421
248	0.426
249	0.431
249	0.435
250	0.439
250	0.443
250	0.447
251	0.45
251	0.453
252	0.457
252	0.459
253	0.462
253	0.464
254	0.466
254	0.468
255	0.47
255	0.471
256	0.473
256	0.474
257	0.475
257	0.477
258	0.477
258	0.478
258	0.478
259	0.479
259	0.479
260	0.479
260	0.48
261	0.479
261	0.479
262	0.479
262	0.478
263	0.478
263	0.477
264	0.477
264	0.476
265	0.476
265	0.475
265	0.473
266	0.472
266	0.471
267	0.47
267	0.468
268	0.467
268	0.465
269	0.463
269	0.461
270	0.459
270	0.458
271	0.456
271	0.454
272	0.452
272	0.45
272	0.448
273	0.446
273	0.444
274	0.442
274	0.44
275	0.438
275	0.437
276	0.434
276	0.432
277	0.43
277	0.427
278	0.425
278	0.423
278	0.42
279	0.417
279	0.414
280	0.411
280	0.408
281	0.406
281	0.403
282	0.401
282	0.399
283	0.398
283	0.395
284	0.393
284	0.392
285	0.39
285	0.388
285	0.386
286	0.384
286	0.383
287	0.381
287	0.379
288	0.377
288	0.375
289	0.374
289	0.372
290	0.37
290	0.369
291	0.367
291	0.366
292	0.365
292	0.363
292	0.361
293	0.36
293	0.359
294	0.357
294	0.356
295	0.355
295	0.354
296	0.352
296	0.351
297	0.35
297	0.349
298	0.348
298	0.347
298	0.346
299	0.345
299	0.344
300	0.344
300	0.343
301	0.342
301	0.341
302	0.34
302	0.339
303	0.338
303	0.338
304	0.337
304	0.336
305	0.335
305	0.334
305	0.333
306	0.332
306	0.331
307	0.331
307	0.33
308	0.329
308	0.328
309	0.327
309	0.326
310	0.325
310	0.324
311	0.323
311	0.323
311	0.322
312	0.321
312	0.32
313	0.319
313	0.318
314	0.317
314	0.317
315	0.316
315	0.315
316	0.314
316	0.313
317	0.313
317	0.312
318	0.311
318	0.31
318	0.31
319	0.309
319	0.308
320	0.307
320	0.306
321	0.305
321	0.304
322	0.304
322	0.303
323	0.302
323	0.301
324	0.3
324	0.299
324	0.299
325	0.298
325	0.297
326	0.296
326	0.296
327	0.295
327	0.294
328	0.294
328	0.293
329	0.292
329	0.291
330	0.29
330	0.29
330	0.289
331	0.288
331	0.287
332	0.287
332	0.286
333	0.285
333	0.285
334	0.284
334	0.283
335	0.283
335	0.282
336	0.281
336	0.28
336	0.279
337	0.279
337	0.278
338	0.277
338	0.276
339	0.276
339	0.275
340	0.275
340	0.274
341	0.274
341	0.273
342	0.273
342	0.272
342	0.272
343	0.271
343	0.271
344	0.27
344	0.27
345	0.27
345	0.269
346	0.268
346	0.268
347	0.267
347	0.267
348	0.267
348	0.266
348	0.266
349	0.265
349	0.265
350	0.265
350	0.264
351	0.264
351	0.263
352	0.263
352	0.262
353	0.262
353	0.261
354	0.261
354	0.26
354	0.26
355	0.259
355	0.258
356	0.257
356	0.257
357	0.256
357	0.256
358	0.255
358	0.255
359	0.255
359	0.255
360	0.255
360	0.256
360	0.256
361	0.256
361	0.256
362	0.257
362	0.257
363	0.257
363	0.257
364	0.257
364	0.256
365	0.256
365	0.256
366	0.256
366	0.256
366	0.255
367	0.255
367	0.255
368	0.255
368	0.254
369	0.254
369	0.254
370	0.254
370	0.254
371	0.254
371	0.253
372	0.253
372	0.253
372	0.253
373	0.252
373	0.252
374	0.252
374	0.252
375	0.251
375	0.251
376	0.251
376	0.251
377	0.251
377	0.251
378	0.251
378	0.251
378	0.251
379	0.251
379	0.251
380	0.251
380	0.251
381	0.251
381	0.25
382	0.25
382	0.25
383	0.249
383	0.249
383	0.249
384	0.248
384	0.248
385	0.247
385	0.247
386	0.247
386	0.247
387	0.247
387	0.247
388	0.247
388	0.246
389	0.246
389	0.246
389	0.246
390	0.246
390	0.246
391	0.246
391	0.246
392	0.246
392	0.246
393	0.246
393	0.246
394	0.246
394	0.245
394	0.245
395	0.245
395	0.245
396	0.245
396	0.245
397	0.245
397	0.245
398	0.244
398	0.244
399	0.244
399	0.244
400	0.244
400	0.243
400	0.243
401	0.242
401	0.242
402	0.241
402	0.241
403	0.241
403	0.241
404	0.241
404	0.24
405	0.24
405	0.24
405	0.24
406	0.24
406	0.24
407	0.24
407	0.24
408	0.24
408	0.239
409	0.239
409	0.239
410	0.239
410	0.239
411	0.239
411	0.239
411	0.238
412	0.238
412	0.238
413	0.237
413	0.237
414	0.237
414	0.237
415	0.236
415	0.236
416	0.236
416	0.235
416	0.235
417	0.235
417	0.235
418	0.235
418	0.235
419	0.236
419	0.236
420	0.236
420	0.237
421	0.237
421	0.237
421	0.237
422	0.237
422	0.237
423	0.237
423	0.237
424	0.236
424	0.236
425	0.235
425	0.235
426	0.234
426	0.234
427	0.234
427	0.234
427	0.235
428	0.235
428	0.235
429	0.235
429	0.236
430	0.236
430	0.236
431	0.235
431	0.235
432	0.235
432	0.235
432	0.234
433	0.233
433	0.233
434	0.233
434	0.233
435	0.233
435	0.233
436	0.233
436	0.233
437	0.233
437	0.232
437	0.232
438	0.232
438	0.232
439	0.232
439	0.232
440	0.232
440	0.232
441	0.232
441	0.232
442	0.232
442	0.233
442	0.233
443	0.234
443	0.234
444	0.234
444	0.235
445	0.235
445	0.236
446	0.236
446	0.236
447	0.236
447	0.236
447	0.235
448	0.235
448	0.235
449	0.235
449	0.235
450	0.235
450	0.235
451	0.234
451	0.234
452	0.234
452	0.234
452	0.234
453	0.234
453	0.234
454	0.233
454	0.233
455	0.233
455	0.233
456	0.233
456	0.233
457	0.233
457	0.233
458	0.233
458	0.233
458	0.234
459	0.234
459	0.234
460	0.234
460	0.234
461	0.234
461	0.234
462	0.234
462	0.235
463	0.235
463	0.236
463	0.236
464	0.237
464	0.237
465	0.237
465	0.237
466	0.237
466	0.238
467	0.238
467	0.238
467	0.237
468	0.237
468	0.236
469	0.236
469	0.236
470	0.236
470	0.236
471	0.236
471	0.236
472	0.237
472	0.237
472	0.238
473	0.239
473	0.24
474	0.24
474	0.241
475	0.242
475	0.243
476	0.243
476	0.244
477	0.245
477	0.245
477	0.246
478	0.246
478	0.247
479	0.248
479	0.249
480	0.249
480	0.25
481	0.251
481	0.252
482	0.252
482	0.253
482	0.254
483	0.256
483	0.258
484	0.26
484	0.261
485	0.263
485	0.264
486	0.265
486	0.266
487	0.268
487	0.269
487	0.27
488	0.27
488	0.271
489	0.271
489	0.272
490	0.273
490	0.273
491	0.274
491	0.276
492	0.277
492	0.277
492	0.279
493	0.28
493	0.282
494	0.284
494	0.287
495	0.288
495	0.29
496	0.291
496	0.293
496	0.295
497	0.296
497	0.298
498	0.299
498	0.3
499	0.301
499	0.302
500	0.304
500	0.306
501	0.308
501	0.31
501	0.312
502	0.314
502	0.316
503	0.318
503	0.319
504	0.321
504	0.322
505	0.324
505	0.325
506	0.327
506	0.328
506	0.33
507	0.331
507	0.333
508	0.334
508	0.336
509	0.338
509	0.339
510	0.341
510	0.342
511	0.343
511	0.345
511	0.345
512	0.346
512	0.347
513	0.348
513	0.349
514	0.35
514	0.351
515	0.351
515	0.351
515	0.351
516	0.352
516	0.352
517	0.353
517	0.354
518	0.354
518	0.354
519	0.354
519	0.354
520	0.354
520	0.353
520	0.353
521	0.352
521	0.351
522	0.35
522	0.349
523	0.348
523	0.348
524	0.348
524	0.348
524	0.348
525	0.349
525	0.35
526	0.351
526	0.352
527	0.353
527	0.355
528	0.355
528	0.356
529	0.356
529	0.356
529	0.355
530	0.355
530	0.355
531	0.354
531	0.354
532	0.353
532	0.352
533	0.352
533	0.351
533	0.35
534	0.349
534	0.348
535	0.346
535	0.345
536	0.344
536	0.342
537	0.341
537	0.339
538	0.337
538	0.335
538	0.333
539	0.332
539	0.33
540	0.329
540	0.327
541	0.324
541	0.323
542	0.32
542	0.318
542	0.316
543	0.314
543	0.312
544	0.31
544	0.307
545	0.305
545	0.304
546	0.302
546	0.299
547	0.297
547	0.294
547	0.291
548	0.289
548	0.286
549	0.283
549	0.281
550	0.279
550	0.276
551	0.273
551	0.27
551	0.268
552	0.266
552	0.264
553	0.262
553	0.261
554	0.259
554	0.256
555	0.253
555	0.251
556	0.248
556	0.245
556	0.242
557	0.24
557	0.237
558	0.235
558	0.232
559	0.23
559	0.229
560	0.227
560	0.225
560	0.224
561	0.224
561	0.223
562	0.221
562	0.219
563	0.216
563	0.214
564	0.211
564	0.208
564	0.206
565	0.204
565	0.201
566	0.199
566	0.197
567	0.195
567	0.195
568	0.194
568	0.193
568	0.192
569	0.192
569	0.191
570	0.19
570	0.188
571	0.188
571	0.187
572	0.185
572	0.184
573	0.182
573	0.181
573	0.179
574	0.177
574	0.176
575	0.175
575	0.175
576	0.175
576	0.172
577	0.17
577	0.169
577	0.168
578	0.168
578	0.168
579	0.168
579	0.169
580	0.167
580	0.164
581	0.161
581	0.16
581	0.159
582	0.159
582	0.159
583	0.159
583	0.157
584	0.154
584	0.151
585	0.151
585	0.151
585	0.151
586	0.15
586	0.15
587	0.148
587	0.146
588	0.145
588	0.144
589	0.143
589	0.143
590	0.143
590	0.142
590	0.143
591	0.143
591	0.142
592	0.141
592	0.139
593	0.138
593	0.138
594	0.136
594	0.135
594	0.134
595	0.134
595	0.132
596	0.131
596	0.132
597	0.135
597	0.135
598	0.136
598	0.137
598	0.137
599	0.137
599	0.137
600	0.136
600	0.135
601	0.135
601	0.134
602	0.132
602	0.131
602	0.13
603	0.13
603	0.13
604	0.131
604	0.131
605	0.132
605	0.133
606	0.132
606	0.131
606	0.131
607	0.131
607	0.131
608	0.13
608	0.129
609	0.128
609	0.128
610	0.127
610	0.126
610	0.126
611	0.127
611	0.128
612	0.129
612	0.131
613	0.132
613	0.133
614	0.133
614	0.133
614	0.133
615	0.133
615	0.133
616	0.133
616	0.133
617	0.132
617	0.132
618	0.131
618	0.131
618	0.132
619	0.132
619	0.134
620	0.136
620	0.137
621	0.137
621	0.138
622	0.139
622	0.14
622	0.14
623	0.14
623	0.142
624	0.143
624	0.143
625	0.143
625	0.144
626	0.144
626	0.145
626	0.146
627	0.147
627	0.147
628	0.148
628	0.148
629	0.148
629	0.148
630	0.148
630	0.148
630	0.15
631	0.15
631	0.151
632	0.151
632	0.152
633	0.154
633	0.155
634	0.157
634	0.159
634	0.161
635	0.162
635	0.163
636	0.164
636	0.166
637	0.167
637	0.168
638	0.17
638	0.172
638	0.174
639	0.175
639	0.177
640	0.18
640	0.182
641	0.185
641	0.187
642	0.19
642	0.193
642	0.194
643	0.196
643	0.198
644	0.2
644	0.202
645	0.204
645	0.206
646	0.208
646	0.211
646	0.214
647	0.217
647	0.22
648	0.222
648	0.225
649	0.228
649	0.231
650	0.234
650	0.237
650	0.24
651	0.242
651	0.245
652	0.248
652	0.251
653	0.255
653	0.264
653	0.266
654	0.211
654	0.171
655	0.175
655	0.177
656	0.179
656	0.18
657	0.182
657	0.184
657	0.185
658	0.181
658	0.176
659	0.223
659	0.29
660	0.297
660	0.299
661	0.302
661	0.305
661	0.308
662	0.312
662	0.316
663	0.32
663	0.324
664	0.327
664	0.33
665	0.333
665	0.337
665	0.34
666	0.343
666	0.346
667	0.349
667	0.352
668	0.355
668	0.359
669	0.362
669	0.366
669	0.37
670	0.374
670	0.377
671	0.38
671	0.382
672	0.384
672	0.386
672	0.388
673	0.39
673	0.392
674	0.394
674	0.395
675	0.396
675	0.398
676	0.401
676	0.403
676	0.405
677	0.407
677	0.409
678	0.411
678	0.412
679	0.414
679	0.415
680	0.417
680	0.418
680	0.419
681	0.42
681	0.422
682	0.423
682	0.424
683	0.426
683	0.427
684	0.429
684	0.429
684	0.429
685	0.43
685	0.43
686	0.431
686	0.431
687	0.431
687	0.431
687	0.431
688	0.43
688	0.43
689	0.43
689	0.43
690	0.429
690	0.428
691	0.428
691	0.427
691	0.426
692	0.425
692	0.425
693	0.424
693	0.424
694	0.423
694	0.422
695	0.422
695	0.423
695	0.422
696	0.421
696	0.42
697	0.419
697	0.418
698	0.416
698	0.414
698	0.412
699	0.41
699	0.406
700	0.403
700	0.401
701	0.399
701	0.397
702	0.394
702	0.392
702	0.389
703	0.387
703	0.385
704	0.383
704	0.381
705	0.379
705	0.376
705	0.373
706	0.371
706	0.369
707	0.366
707	0.363
708	0.361
708	0.359
709	0.357
709	0.355
709	0.351
710	0.349
710	0.347
711	0.345
711	0.342
712	0.34
712	0.338
713	0.336
713	0.333
713	0.33
714	0.327
714	0.324
715	0.322
715	0.319
716	0.316
716	0.313
716	0.31
717	0.307
717	0.305
718	0.302
718	0.299
719	0.298
719	0.296
720	0.294
720	0.292
720	0.289
721	0.286
721	0.283
722	0.281
722	0.278
723	0.275
723	0.273
723	0.27
724	0.266
724	0.263
725	0.26
725	0.257
726	0.254
726	0.252
727	0.249
727	0.246
727	0.244
728	0.242
728	0.24
729	0.239
729	0.238
730	0.236
730	0.234
730	0.233
731	0.232
731	0.231
732	0.23
732	0.229
733	0.227
733	0.225
734	0.224
734	0.222
734	0.221
735	0.22
735	0.218
736	0.216
736	0.214
737	0.212
737	0.211
737	0.208
738	0.205
738	0.202
739	0.2
739	0.197
740	0.195
740	0.194
741	0.192
741	0.19
741	0.187
742	0.184
742	0.182
743	0.181
743	0.18
744	0.179
744	0.177
744	0.176
745	0.174
745	0.172
746	0.17
746	0.168
747	0.167
747	0.165
748	0.163
748	0.161
748	0.159
749	0.157
749	0.155
750	0.153
750	0.151
751	0.15
751	0.148
751	0.147
752	0.145
752	0.143
753	0.142
753	0.141
754	0.14
754	0.138
754	0.138
755	0.136
755	0.135
756	0.133
756	0.131
757	0.129
757	0.128
758	0.127
758	0.125
758	0.124
759	0.123
759	0.12
760	0.117
760	0.115
761	0.114
761	0.113
761	0.112
762	0.11
762	0.109
763	0.108
763	0.105
764	0.103
764	0.102
764	0.1
765	0.099
765	0.098
766	0.097
766	0.096
767	0.095
767	0.093
768	0.09
768	0.089
768	0.088
769	0.087
769	0.086
770	0.084
770	0.083
771	0.08
771	0.078
771	0.075
772	0.073
772	0.072
773	0.07
773	0.068
774	0.065
774	0.063
775	0.061
775	0.059
775	0.056
776	0.054
776	0.051
777	0.048
777	0.045
778	0.042
778	0.038
778	0.036
779	0.033
779	0.03
780	0.027
780	0.023
781	0.019
781	0.014
781	0.009
782	0.003
782	-0.003
783	-0.009
783	-0.015
784	-0.022
784	-0.03
784	-0.037
785	-0.045
785	-0.052
786	-0.059
786	-0.062
787	-0.062
787	-0.064
788	-0.068
788	-0.072
788	-0.075
789	-0.079
789	-0.079
790	-0.078
790	-0.078
791	-0.079
791	-0.08
791	-0.083
792	-0.077
792	-0.068
793	-0.062
793	-0.059
794	-0.057
794	-0.059
794	-0.062
795	-0.064
795	-0.064
796	-0.064
796	-0.066
797	-0.074
797	-0.083
797	-0.089
798	-0.094
798	-0.097
799	-0.098
799	-0.097
800	-0.097
800	-0.1
801	-0.103
801	-0.104
801	-0.105
802	-0.107
802	-0.108
803	-0.109
803	-0.11
804	-0.109
804	-0.104
804	-0.098
805	-0.094
805	-0.092
806	-0.09
806	-0.089
807	-0.088
807	-0.087
807	-0.086
808	-0.086
808	-0.086
809	-0.09
809	-0.095
810	-0.098
810	-0.1
810	-0.103
811	-0.105
811	-0.105
812	-0.102
812	-0.099
813	-0.099
813	-0.1
813	-0.101
814	-0.101
814	-0.101
815	-0.099
815	-0.096
816	-0.094
816	-0.093
817	-0.094
817	-0.093
817	-0.088
818	-0.082
818	-0.073
819	-0.064
819	-0.056
820	-0.05
820	-0.042
820	-0.034
821	-0.026
821	-0.018
822	-0.012
822	-0.006
823	-0.001
823	0.002
823	0.006
824	0.01
824	0.014
825	0.018
825	0.022
826	0.025
826	0.028
826	0.03
827	0.033
827	0.035
828	0.037
828	0.039
829	0.041
829	0.043
829	0.045
830	0.046
830	0.048
831	0.051
831	0.053
832	0.055
832	0.057
832	0.058
833	0.059
833	0.06
834	0.061
834	0.062
835	0.062
835	0.062
835	0.062
836	0.062
836	0.063
837	0.063
837	0.063
838	0.064
838	0.064
839	0.064
839	0.064
839	0.064
840	0.064
840	0.065
841	0.065
841	0.065
842	0.066
842	0.066
842	0.066
843	0.066
843	0.066
844	0.065
844	0.065
845	0.065
845	0.064
845	0.064
846	0.064
846	0.064
847	0.064
847	0.064
848	0.064
848	0.064
848	0.065
849	0.065
849	0.065
850	0.065
850	0.065
851	0.065
851	0.065
851	0.065
852	0.064
852	0.065
853	0.064
853	0.065
854	0.065
854	0.065
854	0.066
855	0.066
855	0.067
856	0.067
856	0.067
857	0.067
857	0.067
857	0.067
858	0.067
858	0.067
859	0.066
859	0.066
860	0.066
860	0.066
860	0.065
861	0.065
861	0.065
862	0.064
862	0.064
863	0.063
863	0.063
863	0.062
864	0.062
864	0.061
865	0.061
865	0.061
866	0.061
866	0.061
866	0.062
867	0.063
867	0.063
868	0.064
868	0.065
869	0.065
869	0.066
869	0.065
870	0.065
870	0.064
871	0.063
871	0.062
872	0.061
872	0.06
872	0.059
873	0.058
873	0.057
874	0.056
874	0.056
875	0.056
875	0.056
875	0.057
876	0.057
876	0.057
877	0.057
877	0.057
878	0.057
878	0.056
878	0.056
879	0.055
879	0.055
880	0.054
880	0.054
881	0.054
881	0.054
881	0.054
882	0.054
882	0.054
883	0.055
883	0.056
884	0.056
884	0.057
884	0.057
885	0.057
885	0.057
886	0.058
886	0.058
887	0.058
887	0.058
887	0.058
888	0.057
888	0.057
889	0.058
889	0.058
890	0.059
890	0.059
890	0.059
891	0.059
891	0.06
892	0.06
892	0.06
893	0.061
893	0.061
893	0.062
894	0.062
894	0.062
895	0.062
895	0.062
895	0.062
896	0.062
896	0.062
897	0.062
897	0.063
898	0.063
898	0.063
898	0.063
899	0.064
899	0.064
900	0.064
900	0.064
901	0.064
901	0.064
901	0.064
902	0.064
902	0.064
903	0.063
903	0.063
904	0.062
904	0.061
904	0.06
905	0.06
905	0.059
906	0.058
906	0.058
907	0.057
907	0.056
907	0.056
908	0.056
908	0.056
909	0.057
909	0.057
910	0.058
910	0.059
910	0.059
911	0.06
911	0.061
912	0.062
912	0.062
913	0.063
913	0.063
913	0.064
914	0.064
914	0.064
915	0.064
915	0.064
916	0.063
916	0.063
916	0.062
917	0.061
917	0.061
918	0.06
918	0.059
918	0.059
919	0.058
919	0.057
920	0.057
920	0.057
921	0.057
921	0.056
921	0.056
922	0.056
922	0.056
923	0.055
923	0.055
924	0.055
924	0.055
924	0.054
925	0.053
925	0.053
926	0.052
926	0.051
927	0.051
927	0.05
927	0.05
928	0.05
928	0.049
929	0.05
929	0.05
930	0.051
930	0.052
930	0.053
931	0.054
931	0.056
932	0.057
932	0.058
933	0.059
933	0.06
933	0.061
934	0.061
934	0.062
935	0.061
935	0.061
935	0.061
936	0.061
936	0.061
937	0.06
937	0.06
938	0.06
938	0.06
938	0.06
939	0.06
939	0.061
940	0.061
940	0.06
941	0.06
941	0.06
941	0.06
942	0.059
942	0.059
943	0.058
943	0.057
944	0.057
944	0.056
944	0.056
945	0.056
945	0.056
946	0.056
946	0.056
946	0.055
947	0.055
947	0.055
948	0.054
948	0.054
949	0.053
949	0.053
949	0.053
950	0.052
950	0.052
951	0.052
951	0.051
952	0.051
952	0.051
952	0.051
953	0.051
953	0.051
954	0.05
954	0.05
955	0.049
955	0.049
955	0.049
956	0.05
956	0.05
957	0.05
957	0.05
957	0.05
958	0.05
958	0.05
959	0.049
959	0.049
960	0.049
960	0.048
960	0.047
961	0.046
961	0.046
962	0.045
962	0.045
963	0.044
963	0.044
963	0.044
964	0.044
964	0.045
965	0.046
965	0.047
966	0.047
966	0.048
966	0.049
967	0.05
967	0.05
968	0.05
968	0.05
968	0.051
969	0.05
969	0.05
970	0.05
970	0.049
971	0.048
971	0.048
971	0.047
972	0.047
972	0.047
973	0.047
973	0.047
974	0.047
974	0.048
974	0.048
975	0.048
975	0.049
976	0.05
976	0.051
976	0.051
977	0.051
977	0.052
978	0.052
978	0.052
979	0.052
979	0.053
979	0.053
980	0.052
980	0.052
981	0.052
981	0.052
982	0.053
982	0.053
982	0.053
983	0.054
983	0.054
984	0.054
984	0.054
984	0.054
985	0.053
985	0.052
986	0.051
986	0.05
987	0.049
987	0.047
987	0.046
988	0.045
988	0.044
989	0.044
989	0.043
990	0.043
990	0.042
990	0.043
991	0.043
991	0.044
992	0.044
992	0.045
992	0.045
993	0.045
993	0.045
994	0.045
994	0.045
995	0.045
995	0.044
995	0.044
996	0.044
996	0.043
997	0.043
997	0.043
997	0.044
998	0.044
998	0.045
999	0.046
999	0.047
1000	0.048
1000	0.049
1000	0.05
1001	0.051
1001	0.052
1002	0.053
1002	0.053
1003	0.053
1003	0.053
1003	0.053
1004	0.053
1004	0.053
1005	0.052
1005	0.052
1005	0.051
1006	0.051
1006	0.05
1007	0.05
1007	0.049
1008	0.049
1008	0.049
1008	0.049
1009	0.049
1009	0.049
1010	0.049
1010	0.049
1010	0.049
1011	0.049
1011	0.049
1012	0.049
1012	0.049
1013	0.049
1013	0.048
1013	0.048
1014	0.047
1014	0.047
1015	0.046
1015	0.045
1016	0.044
1016	0.044
1016	0.043
1017	0.041
1017	0.04
1018	0.04
1018	0.039
1018	0.038
1019	0.038
1019	0.037
1020	0.036
1020	0.036
1021	0.036
1021	0.035
1021	0.035
1022	0.035
1022	0.035
1023	0.035
1023	0.035
1023	0.034
1024	0.034
1024	0.033
1025	0.032
1025	0.031
1026	0.031
1026	0.03
1026	0.029
1027	0.028
1027	0.028
1028	0.027
1028	0.027
1028	0.027
1029	0.027
1029	0.027
1030	0.027
1030	0.027
1031	0.028
1031	0.028
1031	0.028
1032	0.029
1032	0.03
1033	0.03
1033	0.031
1033	0.031
1034	0.031
1034	0.031
1035	0.031
1035	0.03
1036	0.03
1036	0.03
1036	0.03
1037	0.029
1037	0.029
1038	0.029
1038	0.029
1039	0.03
1039	0.03
1039	0.031
1040	0.031
1040	0.032
1041	0.032
1041	0.032
1041	0.031
1042	0.03
1042	0.03
1043	0.03
1043	0.029
1044	0.028
1044	0.027
1044	0.026
1045	0.026
1045	0.025
1046	0.025
1046	0.024
1046	0.025
1047	0.025
1047	0.025
1048	0.025
1048	0.025
1049	0.024
1049	0.023
1049	0.022
1050	0.022
1050	0.021
1051	0.02
1051	0.019
1051	0.019
1052	0.018
1052	0.018
1053	0.017
1053	0.017
1053	0.017
1054	0.016
1054	0.017
1055	0.017
1055	0.017
1056	0.017
1056	0.017
1056	0.016
1057	0.015
1057	0.015
1058	0.015
1058	0.015
1058	0.015
1059	0.015
1059	0.015
1060	0.015
1060	0.015
1061	0.014
1061	0.015
1061	0.015
1062	0.015
1062	0.015
1063	0.014
1063	0.014
1063	0.014
1064	0.014
1064	0.014
1065	0.014
1065	0.015
1066	0.015
1066	0.015
1066	0.016
1067	0.017
1067	0.017
1068	0.018
1068	0.018
1068	0.019
1069	0.019
1069	0.019
1070	0.019
1070	0.019
1071	0.02
1071	0.02
1071	0.019
1072	0.02
1072	0.02
1073	0.02
1073	0.02
1073	0.019
1074	0.019
1074	0.019
1075	0.018
1075	0.017
1076	0.016
1076	0.015
1076	0.014
1077	0.013
1077	0.013
1078	0.012
1078	0.013
1078	0.013
1079	0.013
1079	0.014
1080	0.014
1080	0.015
1080	0.015
1081	0.016
1081	0.016
1082	0.016
1082	0.016
1083	0.016
1083	0.016
1083	0.016
1084	0.017
1084	0.017
1085	0.017
1085	0.018
1085	0.019
1086	0.02
1086	0.019
1087	0.02
1087	0.02
1088	0.02
1088	0.021
1088	0.021
1089	0.021
1089	0.022
1090	0.022
1090	0.023
1090	0.023
1091	0.024
1091	0.026
1092	0.027
1092	0.029
1092	0.03
1093	0.03
1093	0.033
1094	0.034
1094	0.035
1095	0.035
1095	0.037
1095	0.038
1096	0.04
1096	0.04
1097	0.042
1097	0.044
1097	0.046
1098	0.046
1098	0.048
1099	0.05
1099	0.053
1100	0.055
1100	0.058
1100	0.061
1101	0.064
1101	0.066
1102	0.071
1102	0.075
1102	0.081
1103	0.086
1103	0.09
1104	0.096
1104	0.103
1104	0.112
1105	0.12
1105	0.128
1106	0.136
1106	0.146
1107	0.155
1107	0.169
1107	0.187
1108	0.248
1108	0.336
1109	0.472
1109	0.761
1109	1.136
1110	-0
1110	-0
1111	-0
1111	-0
