Data from 15c-2a_Absorbance__894__03603.txt Node

Date: Tue Jan 16 14:31:04 CET 2024
User: Marek
Spectrometer: MAYP115816
Trigger mode: 0
Integration Time (sec): 2.000000E-1
Scans to average: 10
Electric dark correction enabled: true
Nonlinearity correction enabled: true
Boxcar width: 5
XAxis mode: Wavelengths
Number of Pixels in Spectrum: 2068
>>>>>Begin Spectral Data<<<<<
199	-1.054
199	-0.907
200	-0.799
200	-0.701
201	-0.643
201	-0.604
202	-0.555
202	-0.522
203	-0.498
203	-0.473
204	-0.453
204	-0.434
205	-0.418
205	-0.409
205	-0.41
206	-0.408
206	-0.41
207	-0.407
207	-0.409
208	-0.406
208	-0.408
209	-0.404
209	-0.407
210	-0.407
210	-0.405
211	-0.404
211	-0.406
212	-0.407
212	-0.408
213	-0.406
213	-0.407
213	-0.408
214	-0.407
214	-0.406
215	-0.406
215	-0.409
216	-0.407
216	-0.409
217	-0.404
217	-0.404
218	-0.401
218	-0.398
219	-0.392
219	-0.393
220	-0.391
220	-0.392
221	-0.389
221	-0.39
221	-0.385
222	-0.381
222	-0.377
223	-0.373
223	-0.37
224	-0.367
224	-0.358
225	-0.349
225	-0.341
226	-0.335
226	-0.325
227	-0.312
227	-0.305
228	-0.29
228	-0.278
229	-0.259
229	-0.236
229	-0.214
230	-0.189
230	-0.159
231	-0.128
231	-0.094
232	-0.064
232	-0.028
233	0.008
233	0.046
234	0.081
234	0.115
235	0.147
235	0.177
236	0.206
236	0.235
236	0.262
237	0.287
237	0.309
238	0.33
238	0.347
239	0.365
239	0.38
240	0.394
240	0.406
241	0.417
241	0.427
242	0.435
242	0.443
243	0.451
243	0.457
243	0.463
244	0.468
244	0.473
245	0.476
245	0.48
246	0.485
246	0.488
247	0.491
247	0.494
248	0.498
248	0.501
249	0.503
249	0.506
250	0.508
250	0.511
250	0.513
251	0.514
251	0.516
252	0.518
252	0.519
253	0.521
253	0.522
254	0.523
254	0.524
255	0.525
255	0.526
256	0.527
256	0.528
257	0.528
257	0.529
258	0.529
258	0.529
258	0.529
259	0.529
259	0.529
260	0.529
260	0.528
261	0.528
261	0.528
262	0.527
262	0.526
263	0.525
263	0.524
264	0.523
264	0.522
265	0.521
265	0.52
265	0.518
266	0.517
266	0.515
267	0.513
267	0.511
268	0.509
268	0.507
269	0.505
269	0.503
270	0.5
270	0.498
271	0.495
271	0.493
272	0.491
272	0.488
272	0.486
273	0.483
273	0.481
274	0.479
274	0.476
275	0.474
275	0.471
276	0.469
276	0.466
277	0.463
277	0.461
278	0.458
278	0.455
278	0.452
279	0.448
279	0.445
280	0.442
280	0.439
281	0.436
281	0.433
282	0.43
282	0.427
283	0.425
283	0.422
284	0.42
284	0.417
285	0.416
285	0.413
285	0.411
286	0.409
286	0.406
287	0.404
287	0.402
288	0.4
288	0.398
289	0.396
289	0.393
290	0.391
290	0.389
291	0.388
291	0.386
292	0.384
292	0.383
292	0.381
293	0.379
293	0.378
294	0.376
294	0.375
295	0.373
295	0.372
296	0.37
296	0.369
297	0.368
297	0.367
298	0.366
298	0.364
298	0.363
299	0.362
299	0.361
300	0.36
300	0.359
301	0.358
301	0.357
302	0.356
302	0.355
303	0.355
303	0.353
304	0.352
304	0.352
305	0.351
305	0.35
305	0.349
306	0.348
306	0.347
307	0.346
307	0.345
308	0.344
308	0.343
309	0.342
309	0.341
310	0.34
310	0.34
311	0.339
311	0.338
311	0.337
312	0.336
312	0.335
313	0.335
313	0.334
314	0.333
314	0.332
315	0.331
315	0.331
316	0.33
316	0.329
317	0.328
317	0.327
318	0.326
318	0.325
318	0.325
319	0.324
319	0.323
320	0.322
320	0.321
321	0.32
321	0.32
322	0.319
322	0.318
323	0.317
323	0.316
324	0.316
324	0.315
324	0.314
325	0.313
325	0.312
326	0.312
326	0.311
327	0.31
327	0.309
328	0.309
328	0.308
329	0.307
329	0.306
330	0.306
330	0.305
330	0.304
331	0.304
331	0.303
332	0.302
332	0.301
333	0.3
333	0.3
334	0.299
334	0.298
335	0.298
335	0.297
336	0.296
336	0.296
336	0.295
337	0.294
337	0.294
338	0.293
338	0.292
339	0.292
339	0.291
340	0.291
340	0.29
341	0.29
341	0.289
342	0.289
342	0.289
342	0.288
343	0.288
343	0.287
344	0.287
344	0.286
345	0.286
345	0.286
346	0.285
346	0.285
347	0.284
347	0.284
348	0.283
348	0.283
348	0.283
349	0.282
349	0.282
350	0.282
350	0.282
351	0.281
351	0.281
352	0.281
352	0.281
353	0.28
353	0.28
354	0.279
354	0.279
354	0.279
355	0.278
355	0.278
356	0.277
356	0.277
357	0.276
357	0.275
358	0.275
358	0.275
359	0.275
359	0.275
360	0.275
360	0.275
360	0.275
361	0.276
361	0.276
362	0.276
362	0.276
363	0.276
363	0.276
364	0.276
364	0.276
365	0.275
365	0.275
366	0.275
366	0.275
366	0.274
367	0.274
367	0.274
368	0.274
368	0.274
369	0.274
369	0.274
370	0.273
370	0.273
371	0.273
371	0.273
372	0.273
372	0.272
372	0.272
373	0.272
373	0.272
374	0.271
374	0.271
375	0.271
375	0.27
376	0.27
376	0.27
377	0.27
377	0.27
378	0.27
378	0.27
378	0.27
379	0.269
379	0.269
380	0.27
380	0.269
381	0.269
381	0.268
382	0.268
382	0.268
383	0.268
383	0.267
383	0.267
384	0.267
384	0.267
385	0.266
385	0.267
386	0.266
386	0.266
387	0.266
387	0.266
388	0.266
388	0.266
389	0.265
389	0.265
389	0.265
390	0.265
390	0.264
391	0.264
391	0.264
392	0.264
392	0.264
393	0.263
393	0.263
394	0.263
394	0.263
394	0.263
395	0.263
395	0.263
396	0.263
396	0.263
397	0.262
397	0.262
398	0.262
398	0.262
399	0.262
399	0.262
400	0.261
400	0.261
400	0.261
401	0.26
401	0.26
402	0.26
402	0.259
403	0.259
403	0.259
404	0.259
404	0.259
405	0.259
405	0.259
405	0.259
406	0.259
406	0.259
407	0.259
407	0.258
408	0.258
408	0.258
409	0.258
409	0.258
410	0.258
410	0.258
411	0.258
411	0.258
411	0.257
412	0.257
412	0.257
413	0.257
413	0.257
414	0.256
414	0.256
415	0.256
415	0.255
416	0.255
416	0.255
416	0.255
417	0.254
417	0.254
418	0.255
418	0.255
419	0.255
419	0.255
420	0.255
420	0.256
421	0.256
421	0.256
421	0.256
422	0.256
422	0.256
423	0.256
423	0.256
424	0.255
424	0.254
425	0.254
425	0.254
426	0.254
426	0.254
427	0.254
427	0.254
427	0.254
428	0.254
428	0.254
429	0.254
429	0.254
430	0.254
430	0.254
431	0.254
431	0.254
432	0.254
432	0.254
432	0.253
433	0.253
433	0.252
434	0.252
434	0.253
435	0.252
435	0.252
436	0.252
436	0.252
437	0.252
437	0.252
437	0.252
438	0.252
438	0.252
439	0.252
439	0.252
440	0.252
440	0.252
441	0.252
441	0.252
442	0.253
442	0.253
442	0.253
443	0.254
443	0.254
444	0.254
444	0.255
445	0.255
445	0.255
446	0.255
446	0.255
447	0.255
447	0.255
447	0.255
448	0.255
448	0.255
449	0.255
449	0.255
450	0.255
450	0.255
451	0.255
451	0.255
452	0.255
452	0.255
452	0.255
453	0.255
453	0.254
454	0.254
454	0.254
455	0.254
455	0.254
456	0.255
456	0.255
457	0.255
457	0.254
458	0.255
458	0.255
458	0.255
459	0.256
459	0.256
460	0.256
460	0.256
461	0.256
461	0.257
462	0.257
462	0.258
463	0.258
463	0.259
463	0.26
464	0.26
464	0.26
465	0.26
465	0.261
466	0.261
466	0.261
467	0.262
467	0.262
467	0.262
468	0.261
468	0.261
469	0.261
469	0.262
470	0.262
470	0.263
471	0.263
471	0.263
472	0.263
472	0.264
472	0.265
473	0.265
473	0.266
474	0.266
474	0.267
475	0.268
475	0.269
476	0.269
476	0.27
477	0.271
477	0.272
477	0.273
478	0.274
478	0.275
479	0.275
479	0.276
480	0.277
480	0.278
481	0.279
481	0.279
482	0.28
482	0.281
482	0.282
483	0.284
483	0.285
484	0.287
484	0.287
485	0.289
485	0.29
486	0.291
486	0.292
487	0.294
487	0.295
487	0.296
488	0.297
488	0.298
489	0.299
489	0.301
490	0.303
490	0.304
491	0.306
491	0.307
492	0.309
492	0.31
492	0.312
493	0.313
493	0.315
494	0.317
494	0.319
495	0.321
495	0.323
496	0.325
496	0.327
496	0.329
497	0.33
497	0.332
498	0.333
498	0.335
499	0.337
499	0.338
500	0.34
500	0.343
501	0.345
501	0.346
501	0.348
502	0.35
502	0.352
503	0.354
503	0.356
504	0.358
504	0.36
505	0.362
505	0.364
506	0.366
506	0.368
506	0.37
507	0.372
507	0.374
508	0.376
508	0.378
509	0.38
509	0.382
510	0.384
510	0.386
511	0.387
511	0.389
511	0.391
512	0.392
512	0.394
513	0.395
513	0.396
514	0.398
514	0.399
515	0.4
515	0.401
515	0.402
516	0.403
516	0.404
517	0.405
517	0.405
518	0.406
518	0.406
519	0.407
519	0.407
520	0.407
520	0.408
520	0.408
521	0.408
521	0.408
522	0.408
522	0.408
523	0.408
523	0.409
524	0.409
524	0.409
524	0.409
525	0.409
525	0.41
526	0.41
526	0.41
527	0.41
527	0.409
528	0.408
528	0.408
529	0.407
529	0.406
529	0.406
530	0.405
530	0.404
531	0.403
531	0.402
532	0.401
532	0.4
533	0.399
533	0.397
533	0.396
534	0.394
534	0.392
535	0.391
535	0.39
536	0.388
536	0.386
537	0.384
537	0.382
538	0.38
538	0.378
538	0.376
539	0.375
539	0.373
540	0.37
540	0.368
541	0.366
541	0.364
542	0.361
542	0.359
542	0.356
543	0.354
543	0.351
544	0.349
544	0.346
545	0.344
545	0.342
546	0.339
546	0.336
547	0.333
547	0.33
547	0.327
548	0.324
548	0.321
549	0.319
549	0.316
550	0.313
550	0.311
551	0.307
551	0.305
551	0.302
552	0.3
552	0.297
553	0.295
553	0.293
554	0.29
554	0.287
555	0.284
555	0.281
556	0.278
556	0.276
556	0.273
557	0.27
557	0.268
558	0.265
558	0.262
559	0.26
559	0.258
560	0.255
560	0.253
560	0.251
561	0.25
561	0.248
562	0.245
562	0.243
563	0.24
563	0.237
564	0.235
564	0.232
564	0.23
565	0.228
565	0.225
566	0.223
566	0.22
567	0.219
567	0.217
568	0.216
568	0.214
568	0.212
569	0.211
569	0.209
570	0.207
570	0.204
571	0.203
571	0.202
572	0.199
572	0.198
573	0.195
573	0.193
573	0.191
574	0.189
574	0.188
575	0.187
575	0.187
576	0.186
576	0.183
577	0.18
577	0.179
577	0.178
578	0.177
578	0.177
579	0.177
579	0.177
580	0.175
580	0.172
581	0.169
581	0.168
581	0.168
582	0.168
582	0.168
583	0.168
583	0.166
584	0.162
584	0.159
585	0.159
585	0.16
585	0.159
586	0.159
586	0.158
587	0.156
587	0.155
588	0.153
588	0.153
589	0.153
589	0.153
590	0.153
590	0.152
590	0.153
591	0.153
591	0.152
592	0.15
592	0.149
593	0.148
593	0.147
594	0.146
594	0.145
594	0.144
595	0.143
595	0.142
596	0.141
596	0.143
597	0.145
597	0.146
598	0.146
598	0.146
598	0.147
599	0.146
599	0.146
600	0.145
600	0.144
601	0.144
601	0.143
602	0.141
602	0.14
602	0.139
603	0.139
603	0.14
604	0.14
604	0.141
605	0.141
605	0.142
606	0.141
606	0.14
606	0.139
607	0.139
607	0.139
608	0.138
608	0.137
609	0.137
609	0.136
610	0.136
610	0.135
610	0.136
611	0.137
611	0.138
612	0.139
612	0.14
613	0.141
613	0.142
614	0.142
614	0.142
614	0.142
615	0.142
615	0.142
616	0.142
616	0.142
617	0.142
617	0.141
618	0.141
618	0.142
618	0.143
619	0.144
619	0.146
620	0.148
620	0.149
621	0.15
621	0.151
622	0.151
622	0.152
622	0.152
623	0.152
623	0.154
624	0.155
624	0.155
625	0.155
625	0.156
626	0.157
626	0.157
626	0.159
627	0.16
627	0.16
628	0.161
628	0.161
629	0.162
629	0.162
630	0.162
630	0.163
630	0.164
631	0.165
631	0.166
632	0.167
632	0.168
633	0.169
633	0.171
634	0.172
634	0.174
634	0.176
635	0.178
635	0.179
636	0.18
636	0.182
637	0.183
637	0.185
638	0.187
638	0.189
638	0.192
639	0.193
639	0.196
640	0.198
640	0.201
641	0.204
641	0.207
642	0.209
642	0.212
642	0.214
643	0.216
643	0.218
644	0.22
644	0.221
645	0.223
645	0.226
646	0.228
646	0.231
646	0.234
647	0.237
647	0.239
648	0.241
648	0.244
649	0.247
649	0.25
650	0.253
650	0.256
650	0.258
651	0.261
651	0.264
652	0.267
652	0.27
653	0.274
653	0.283
653	0.284
654	0.223
654	0.179
655	0.183
655	0.185
656	0.187
656	0.189
657	0.19
657	0.192
657	0.193
658	0.19
658	0.185
659	0.236
659	0.309
660	0.318
660	0.321
661	0.324
661	0.328
661	0.332
662	0.336
662	0.34
663	0.344
663	0.348
664	0.351
664	0.355
665	0.358
665	0.362
665	0.365
666	0.369
666	0.372
667	0.375
667	0.378
668	0.382
668	0.385
669	0.389
669	0.393
669	0.397
670	0.4
670	0.403
671	0.405
671	0.408
672	0.41
672	0.412
672	0.413
673	0.416
673	0.418
674	0.42
674	0.422
675	0.424
675	0.427
676	0.43
676	0.432
676	0.434
677	0.437
677	0.439
678	0.44
678	0.441
679	0.443
679	0.444
680	0.445
680	0.446
680	0.447
681	0.448
681	0.45
682	0.451
682	0.452
683	0.454
683	0.456
684	0.457
684	0.456
684	0.457
685	0.457
685	0.458
686	0.458
686	0.458
687	0.458
687	0.458
687	0.458
688	0.458
688	0.457
689	0.458
689	0.457
690	0.456
690	0.455
691	0.454
691	0.453
691	0.452
692	0.45
692	0.45
693	0.449
693	0.449
694	0.447
694	0.446
695	0.447
695	0.447
695	0.446
696	0.444
696	0.443
697	0.441
697	0.44
698	0.438
698	0.436
698	0.434
699	0.431
699	0.428
700	0.425
700	0.423
701	0.421
701	0.418
702	0.416
702	0.414
702	0.411
703	0.409
703	0.407
704	0.404
704	0.402
705	0.4
705	0.397
705	0.394
706	0.391
706	0.388
707	0.385
707	0.382
708	0.38
708	0.377
709	0.375
709	0.372
709	0.369
710	0.367
710	0.365
711	0.363
711	0.36
712	0.358
712	0.356
713	0.353
713	0.351
713	0.348
714	0.344
714	0.342
715	0.339
715	0.335
716	0.332
716	0.329
716	0.326
717	0.323
717	0.32
718	0.317
718	0.315
719	0.313
719	0.311
720	0.308
720	0.306
720	0.303
721	0.3
721	0.298
722	0.295
722	0.292
723	0.29
723	0.287
723	0.284
724	0.281
724	0.278
725	0.274
725	0.272
726	0.269
726	0.266
727	0.263
727	0.261
727	0.259
728	0.256
728	0.254
729	0.253
729	0.251
730	0.249
730	0.247
730	0.246
731	0.244
731	0.243
732	0.242
732	0.24
733	0.238
733	0.237
734	0.235
734	0.233
734	0.232
735	0.231
735	0.228
736	0.226
736	0.225
737	0.223
737	0.222
737	0.219
738	0.216
738	0.214
739	0.212
739	0.21
740	0.208
740	0.207
741	0.206
741	0.205
741	0.203
742	0.201
742	0.2
743	0.2
743	0.199
744	0.198
744	0.197
744	0.195
745	0.193
745	0.19
746	0.188
746	0.186
747	0.184
747	0.182
748	0.18
748	0.177
748	0.174
749	0.172
749	0.17
750	0.167
750	0.165
751	0.163
751	0.162
751	0.16
752	0.158
752	0.156
753	0.155
753	0.154
754	0.153
754	0.151
754	0.15
755	0.149
755	0.147
756	0.145
756	0.142
757	0.141
757	0.14
758	0.139
758	0.137
758	0.136
759	0.134
759	0.132
760	0.13
760	0.128
761	0.127
761	0.127
761	0.126
762	0.124
762	0.124
763	0.122
763	0.12
764	0.118
764	0.117
764	0.116
765	0.114
765	0.113
766	0.112
766	0.111
767	0.11
767	0.107
768	0.105
768	0.104
768	0.103
769	0.102
769	0.101
770	0.099
770	0.098
771	0.095
771	0.093
771	0.091
772	0.09
772	0.089
773	0.087
773	0.085
774	0.083
774	0.081
775	0.08
775	0.078
775	0.076
776	0.074
776	0.072
777	0.07
777	0.068
778	0.065
778	0.063
778	0.061
779	0.059
779	0.057
780	0.055
780	0.052
781	0.05
781	0.047
781	0.045
782	0.042
782	0.039
783	0.036
783	0.033
784	0.028
784	0.024
784	0.02
785	0.016
785	0.011
786	0.007
786	0.003
787	-0
787	-0.004
788	-0.009
788	-0.013
788	-0.018
789	-0.024
789	-0.029
790	-0.034
790	-0.04
791	-0.047
791	-0.053
791	-0.058
792	-0.057
792	-0.053
793	-0.052
793	-0.053
794	-0.055
794	-0.059
794	-0.063
795	-0.066
795	-0.066
796	-0.066
796	-0.068
797	-0.076
797	-0.085
797	-0.092
798	-0.097
798	-0.099
799	-0.1
799	-0.1
800	-0.1
800	-0.102
801	-0.105
801	-0.106
801	-0.107
802	-0.109
802	-0.11
803	-0.111
803	-0.112
804	-0.111
804	-0.106
804	-0.1
805	-0.096
805	-0.094
806	-0.092
806	-0.091
807	-0.09
807	-0.089
807	-0.089
808	-0.088
808	-0.089
809	-0.093
809	-0.098
810	-0.1
810	-0.102
810	-0.105
811	-0.108
811	-0.108
812	-0.104
812	-0.101
813	-0.1
813	-0.098
813	-0.095
814	-0.091
814	-0.085
815	-0.077
815	-0.069
816	-0.06
816	-0.052
817	-0.047
817	-0.039
817	-0.029
818	-0.02
818	-0.011
819	-0.003
819	0.002
820	0.007
820	0.012
820	0.016
821	0.02
821	0.024
822	0.027
822	0.03
823	0.032
823	0.034
823	0.036
824	0.038
824	0.04
825	0.042
825	0.044
826	0.045
826	0.046
826	0.047
827	0.049
827	0.05
828	0.05
828	0.051
829	0.053
829	0.054
829	0.055
830	0.056
830	0.058
831	0.06
831	0.062
832	0.063
832	0.064
832	0.065
833	0.065
833	0.066
834	0.066
834	0.066
835	0.066
835	0.066
835	0.065
836	0.066
836	0.066
837	0.066
837	0.066
838	0.067
838	0.067
839	0.068
839	0.068
839	0.068
840	0.068
840	0.068
841	0.068
841	0.068
842	0.068
842	0.068
842	0.067
843	0.067
843	0.066
844	0.066
844	0.065
845	0.065
845	0.065
845	0.064
846	0.064
846	0.064
847	0.064
847	0.064
848	0.064
848	0.064
848	0.064
849	0.064
849	0.064
850	0.063
850	0.063
851	0.063
851	0.062
851	0.062
852	0.062
852	0.062
853	0.062
853	0.062
854	0.063
854	0.064
854	0.064
855	0.065
855	0.065
856	0.065
856	0.065
857	0.065
857	0.065
857	0.065
858	0.065
858	0.064
859	0.064
859	0.063
860	0.062
860	0.062
860	0.061
861	0.06
861	0.059
862	0.058
862	0.057
863	0.056
863	0.055
863	0.055
864	0.055
864	0.054
865	0.054
865	0.055
866	0.054
866	0.055
866	0.055
867	0.056
867	0.057
868	0.058
868	0.058
869	0.059
869	0.059
869	0.059
870	0.059
870	0.058
871	0.058
871	0.057
872	0.056
872	0.055
872	0.054
873	0.053
873	0.052
874	0.051
874	0.051
875	0.051
875	0.051
875	0.051
876	0.051
876	0.051
877	0.05
877	0.05
878	0.05
878	0.049
878	0.049
879	0.048
879	0.048
880	0.047
880	0.047
881	0.047
881	0.047
881	0.047
882	0.048
882	0.048
883	0.049
883	0.049
884	0.05
884	0.051
884	0.051
885	0.051
885	0.052
886	0.052
886	0.052
887	0.052
887	0.052
887	0.052
888	0.051
888	0.051
889	0.051
889	0.051
890	0.052
890	0.052
890	0.052
891	0.052
891	0.053
892	0.053
892	0.053
893	0.054
893	0.054
893	0.054
894	0.055
894	0.055
895	0.055
895	0.054
895	0.054
896	0.054
896	0.055
897	0.055
897	0.055
898	0.056
898	0.056
898	0.056
899	0.056
899	0.056
900	0.056
900	0.056
901	0.056
901	0.057
901	0.057
902	0.057
902	0.057
903	0.056
903	0.056
904	0.056
904	0.055
904	0.055
905	0.054
905	0.053
906	0.052
906	0.051
907	0.05
907	0.05
907	0.049
908	0.049
908	0.049
909	0.049
909	0.049
910	0.049
910	0.049
910	0.05
911	0.05
911	0.051
912	0.052
912	0.052
913	0.053
913	0.054
913	0.054
914	0.054
914	0.054
915	0.054
915	0.054
916	0.054
916	0.053
916	0.052
917	0.052
917	0.051
918	0.051
918	0.05
918	0.049
919	0.049
919	0.048
920	0.048
920	0.048
921	0.048
921	0.047
921	0.047
922	0.047
922	0.047
923	0.046
923	0.046
924	0.046
924	0.046
924	0.045
925	0.045
925	0.044
926	0.044
926	0.043
927	0.042
927	0.042
927	0.041
928	0.041
928	0.041
929	0.041
929	0.042
930	0.043
930	0.044
930	0.045
931	0.046
931	0.048
932	0.049
932	0.05
933	0.052
933	0.053
933	0.053
934	0.054
934	0.054
935	0.053
935	0.053
935	0.053
936	0.052
936	0.052
937	0.051
937	0.051
938	0.051
938	0.05
938	0.05
939	0.05
939	0.05
940	0.05
940	0.05
941	0.051
941	0.05
941	0.05
942	0.05
942	0.05
943	0.049
943	0.049
944	0.048
944	0.048
944	0.048
945	0.048
945	0.047
946	0.047
946	0.046
946	0.046
947	0.045
947	0.045
948	0.045
948	0.044
949	0.044
949	0.044
949	0.044
950	0.044
950	0.043
951	0.044
951	0.043
952	0.043
952	0.043
952	0.042
953	0.042
953	0.042
954	0.041
954	0.04
955	0.039
955	0.039
955	0.038
956	0.038
956	0.038
957	0.038
957	0.038
957	0.038
958	0.038
958	0.038
959	0.038
959	0.038
960	0.037
960	0.037
960	0.036
961	0.036
961	0.035
962	0.035
962	0.035
963	0.035
963	0.035
963	0.035
964	0.035
964	0.036
965	0.037
965	0.038
966	0.039
966	0.04
966	0.042
967	0.042
967	0.043
968	0.043
968	0.043
968	0.044
969	0.043
969	0.043
970	0.043
970	0.043
971	0.042
971	0.041
971	0.041
972	0.041
972	0.041
973	0.041
973	0.041
974	0.042
974	0.042
974	0.043
975	0.043
975	0.044
976	0.045
976	0.046
976	0.046
977	0.046
977	0.047
978	0.047
978	0.047
979	0.047
979	0.047
979	0.047
980	0.047
980	0.046
981	0.046
981	0.046
982	0.047
982	0.048
982	0.048
983	0.049
983	0.049
984	0.049
984	0.049
984	0.049
985	0.049
985	0.048
986	0.048
986	0.046
987	0.045
987	0.044
987	0.042
988	0.041
988	0.039
989	0.038
989	0.037
990	0.036
990	0.035
990	0.035
991	0.035
991	0.035
992	0.036
992	0.036
992	0.036
993	0.036
993	0.036
994	0.036
994	0.036
995	0.036
995	0.036
995	0.036
996	0.036
996	0.035
997	0.035
997	0.035
997	0.035
998	0.036
998	0.036
999	0.037
999	0.038
1000	0.039
1000	0.04
1000	0.04
1001	0.041
1001	0.042
1002	0.043
1002	0.043
1003	0.043
1003	0.044
1003	0.044
1004	0.043
1004	0.043
1005	0.042
1005	0.042
1005	0.041
1006	0.04
1006	0.04
1007	0.039
1007	0.039
1008	0.038
1008	0.037
1008	0.037
1009	0.037
1009	0.037
1010	0.036
1010	0.036
1010	0.036
1011	0.036
1011	0.036
1012	0.037
1012	0.037
1013	0.037
1013	0.037
1013	0.037
1014	0.037
1014	0.036
1015	0.036
1015	0.036
1016	0.035
1016	0.034
1016	0.033
1017	0.031
1017	0.03
1018	0.029
1018	0.029
1018	0.028
1019	0.028
1019	0.027
1020	0.027
1020	0.026
1021	0.026
1021	0.026
1021	0.026
1022	0.026
1022	0.026
1023	0.026
1023	0.026
1023	0.025
1024	0.024
1024	0.024
1025	0.023
1025	0.022
1026	0.021
1026	0.021
1026	0.02
1027	0.019
1027	0.018
1028	0.017
1028	0.017
1028	0.017
1029	0.016
1029	0.016
1030	0.016
1030	0.016
1031	0.016
1031	0.017
1031	0.017
1032	0.017
1032	0.018
1033	0.018
1033	0.018
1033	0.019
1034	0.019
1034	0.018
1035	0.018
1035	0.018
1036	0.017
1036	0.017
1036	0.017
1037	0.017
1037	0.017
1038	0.017
1038	0.017
1039	0.018
1039	0.018
1039	0.018
1040	0.019
1040	0.019
1041	0.019
1041	0.018
1041	0.018
1042	0.017
1042	0.016
1043	0.015
1043	0.014
1044	0.013
1044	0.012
1044	0.012
1045	0.011
1045	0.01
1046	0.009
1046	0.009
1046	0.009
1047	0.009
1047	0.009
1048	0.009
1048	0.009
1049	0.008
1049	0.008
1049	0.007
1050	0.006
1050	0.005
1051	0.004
1051	0.003
1051	0.003
1052	0.002
1052	0.001
1053	0
1053	0
1053	-0
1054	-0
1054	-0
1055	-0
1055	-0
1056	-0.001
1056	-0.001
1056	-0.002
1057	-0.003
1057	-0.003
1058	-0.004
1058	-0.004
1058	-0.004
1059	-0.005
1059	-0.005
1060	-0.006
1060	-0.006
1061	-0.006
1061	-0.006
1061	-0.006
1062	-0.007
1062	-0.007
1063	-0.007
1063	-0.008
1063	-0.008
1064	-0.008
1064	-0.008
1065	-0.007
1065	-0.008
1066	-0.007
1066	-0.007
1066	-0.007
1067	-0.006
1067	-0.006
1068	-0.005
1068	-0.005
1068	-0.005
1069	-0.005
1069	-0.005
1070	-0.006
1070	-0.006
1071	-0.006
1071	-0.006
1071	-0.007
1072	-0.007
1072	-0.007
1073	-0.007
1073	-0.007
1073	-0.008
1074	-0.008
1074	-0.009
1075	-0.011
1075	-0.012
1076	-0.013
1076	-0.014
1076	-0.015
1077	-0.017
1077	-0.018
1078	-0.019
1078	-0.02
1078	-0.02
1079	-0.02
1079	-0.02
1080	-0.02
1080	-0.02
1080	-0.021
1081	-0.02
1081	-0.02
1082	-0.02
1082	-0.021
1083	-0.022
1083	-0.022
1083	-0.023
1084	-0.023
1084	-0.023
1085	-0.024
1085	-0.024
1085	-0.024
1086	-0.024
1086	-0.025
1087	-0.025
1087	-0.025
1088	-0.026
1088	-0.026
1088	-0.026
1089	-0.028
1089	-0.028
1090	-0.029
1090	-0.03
1090	-0.03
1091	-0.031
1091	-0.032
1092	-0.032
1092	-0.032
1092	-0.032
1093	-0.033
1093	-0.033
1094	-0.033
1094	-0.035
1095	-0.036
1095	-0.038
1095	-0.038
1096	-0.039
1096	-0.04
1097	-0.041
1097	-0.042
1097	-0.043
1098	-0.045
1098	-0.046
1099	-0.047
1099	-0.048
1100	-0.049
1100	-0.05
1100	-0.051
1101	-0.053
1101	-0.055
1102	-0.056
1102	-0.058
1102	-0.058
1103	-0.058
1103	-0.059
1104	-0.06
1104	-0.062
1104	-0.062
1105	-0.061
1105	-0.062
1106	-0.064
1106	-0.064
1107	-0.068
1107	-0.069
1107	-0.071
1108	-0.065
1108	-0.058
1109	-0.05
1109	-0.043
1109	-0.04
1110	-0.029
1110	-0.015
1111	0.011
1111	0.094
