Data from 15c-2a_Absorbance__742__03451.txt Node

Date: Tue Jan 16 14:26:00 CET 2024
User: Marek
Spectrometer: MAYP115816
Trigger mode: 0
Integration Time (sec): 2.000000E-1
Scans to average: 10
Electric dark correction enabled: true
Nonlinearity correction enabled: true
Boxcar width: 5
XAxis mode: Wavelengths
Number of Pixels in Spectrum: 2068
>>>>>Begin Spectral Data<<<<<
199	-1.577
199	-1.399
200	-1.271
200	-1.157
201	-1.088
201	-1.039
202	-0.971
202	-0.918
203	-0.878
203	-0.838
204	-0.813
204	-0.79
205	-0.772
205	-0.761
205	-0.76
206	-0.756
206	-0.754
207	-0.752
207	-0.752
208	-0.748
208	-0.748
209	-0.743
209	-0.742
210	-0.741
210	-0.74
211	-0.738
211	-0.738
212	-0.739
212	-0.738
213	-0.737
213	-0.738
213	-0.739
214	-0.737
214	-0.737
215	-0.736
215	-0.736
216	-0.734
216	-0.734
217	-0.73
217	-0.728
218	-0.725
218	-0.721
219	-0.716
219	-0.716
220	-0.714
220	-0.714
221	-0.71
221	-0.709
221	-0.704
222	-0.7
222	-0.695
223	-0.69
223	-0.686
224	-0.682
224	-0.673
225	-0.663
225	-0.655
226	-0.647
226	-0.637
227	-0.624
227	-0.613
228	-0.598
228	-0.584
229	-0.563
229	-0.54
229	-0.516
230	-0.488
230	-0.457
231	-0.424
231	-0.386
232	-0.35
232	-0.31
233	-0.268
233	-0.224
234	-0.182
234	-0.139
235	-0.097
235	-0.057
236	-0.017
236	0.021
236	0.059
237	0.094
237	0.127
238	0.156
238	0.185
239	0.212
239	0.235
240	0.258
240	0.278
241	0.296
241	0.313
242	0.327
242	0.341
243	0.354
243	0.365
243	0.375
244	0.385
244	0.393
245	0.401
245	0.408
246	0.415
246	0.422
247	0.427
247	0.433
248	0.438
248	0.443
249	0.447
249	0.451
250	0.455
250	0.459
250	0.462
251	0.465
251	0.468
252	0.471
252	0.474
253	0.476
253	0.478
254	0.48
254	0.482
255	0.483
255	0.485
256	0.486
256	0.487
257	0.488
257	0.489
258	0.489
258	0.49
258	0.491
259	0.491
259	0.491
260	0.491
260	0.491
261	0.491
261	0.491
262	0.491
262	0.491
263	0.49
263	0.49
264	0.489
264	0.488
265	0.487
265	0.486
265	0.485
266	0.484
266	0.483
267	0.481
267	0.48
268	0.478
268	0.476
269	0.474
269	0.473
270	0.471
270	0.469
271	0.466
271	0.464
272	0.463
272	0.461
272	0.459
273	0.457
273	0.454
274	0.452
274	0.45
275	0.448
275	0.446
276	0.444
276	0.442
277	0.439
277	0.436
278	0.434
278	0.431
278	0.429
279	0.426
279	0.423
280	0.42
280	0.417
281	0.415
281	0.412
282	0.41
282	0.408
283	0.405
283	0.403
284	0.401
284	0.4
285	0.398
285	0.396
285	0.394
286	0.392
286	0.39
287	0.388
287	0.386
288	0.384
288	0.383
289	0.381
289	0.379
290	0.377
290	0.376
291	0.374
291	0.373
292	0.371
292	0.37
292	0.368
293	0.367
293	0.365
294	0.364
294	0.363
295	0.362
295	0.361
296	0.359
296	0.358
297	0.357
297	0.356
298	0.355
298	0.354
298	0.353
299	0.352
299	0.351
300	0.35
300	0.349
301	0.348
301	0.347
302	0.346
302	0.345
303	0.344
303	0.344
304	0.343
304	0.342
305	0.341
305	0.34
305	0.339
306	0.339
306	0.338
307	0.337
307	0.336
308	0.335
308	0.334
309	0.333
309	0.332
310	0.331
310	0.33
311	0.33
311	0.329
311	0.328
312	0.327
312	0.326
313	0.326
313	0.325
314	0.324
314	0.323
315	0.322
315	0.321
316	0.32
316	0.32
317	0.319
317	0.318
318	0.317
318	0.316
318	0.316
319	0.315
319	0.314
320	0.313
320	0.312
321	0.311
321	0.31
322	0.309
322	0.309
323	0.308
323	0.307
324	0.306
324	0.305
324	0.304
325	0.303
325	0.303
326	0.302
326	0.301
327	0.3
327	0.3
328	0.299
328	0.298
329	0.297
329	0.297
330	0.296
330	0.296
330	0.295
331	0.294
331	0.293
332	0.292
332	0.292
333	0.291
333	0.29
334	0.29
334	0.289
335	0.288
335	0.287
336	0.286
336	0.285
336	0.285
337	0.284
337	0.283
338	0.283
338	0.282
339	0.281
339	0.281
340	0.28
340	0.28
341	0.28
341	0.279
342	0.279
342	0.278
342	0.278
343	0.277
343	0.277
344	0.277
344	0.276
345	0.276
345	0.275
346	0.275
346	0.274
347	0.274
347	0.273
348	0.273
348	0.273
348	0.272
349	0.271
349	0.271
350	0.271
350	0.27
351	0.27
351	0.269
352	0.269
352	0.268
353	0.268
353	0.268
354	0.267
354	0.266
354	0.266
355	0.265
355	0.264
356	0.264
356	0.263
357	0.262
357	0.262
358	0.262
358	0.262
359	0.262
359	0.262
360	0.262
360	0.263
360	0.263
361	0.263
361	0.263
362	0.264
362	0.264
363	0.264
363	0.264
364	0.263
364	0.263
365	0.263
365	0.263
366	0.262
366	0.262
366	0.262
367	0.262
367	0.261
368	0.261
368	0.261
369	0.26
369	0.26
370	0.26
370	0.26
371	0.26
371	0.259
372	0.259
372	0.259
372	0.259
373	0.258
373	0.258
374	0.258
374	0.258
375	0.257
375	0.257
376	0.257
376	0.257
377	0.257
377	0.257
378	0.256
378	0.256
378	0.256
379	0.257
379	0.257
380	0.257
380	0.256
381	0.256
381	0.256
382	0.255
382	0.255
383	0.255
383	0.255
383	0.254
384	0.254
384	0.253
385	0.253
385	0.253
386	0.253
386	0.253
387	0.253
387	0.253
388	0.252
388	0.252
389	0.252
389	0.252
389	0.252
390	0.251
390	0.251
391	0.251
391	0.251
392	0.251
392	0.251
393	0.251
393	0.251
394	0.251
394	0.251
394	0.251
395	0.251
395	0.251
396	0.251
396	0.251
397	0.251
397	0.251
398	0.25
398	0.25
399	0.25
399	0.25
400	0.249
400	0.249
400	0.249
401	0.248
401	0.248
402	0.247
402	0.247
403	0.247
403	0.246
404	0.246
404	0.246
405	0.246
405	0.246
405	0.246
406	0.246
406	0.246
407	0.246
407	0.246
408	0.245
408	0.245
409	0.245
409	0.245
410	0.245
410	0.245
411	0.245
411	0.245
411	0.244
412	0.244
412	0.244
413	0.243
413	0.243
414	0.243
414	0.243
415	0.242
415	0.242
416	0.241
416	0.241
416	0.241
417	0.241
417	0.24
418	0.241
418	0.241
419	0.241
419	0.242
420	0.242
420	0.242
421	0.242
421	0.242
421	0.243
422	0.243
422	0.243
423	0.243
423	0.242
424	0.242
424	0.241
425	0.241
425	0.24
426	0.24
426	0.24
427	0.24
427	0.24
427	0.24
428	0.241
428	0.241
429	0.241
429	0.241
430	0.241
430	0.241
431	0.241
431	0.241
432	0.241
432	0.241
432	0.24
433	0.239
433	0.239
434	0.239
434	0.239
435	0.239
435	0.239
436	0.238
436	0.238
437	0.238
437	0.238
437	0.238
438	0.238
438	0.238
439	0.238
439	0.238
440	0.238
440	0.238
441	0.238
441	0.238
442	0.239
442	0.239
442	0.24
443	0.24
443	0.24
444	0.241
444	0.241
445	0.241
445	0.242
446	0.242
446	0.242
447	0.242
447	0.241
447	0.241
448	0.241
448	0.241
449	0.241
449	0.24
450	0.24
450	0.24
451	0.24
451	0.24
452	0.24
452	0.24
452	0.24
453	0.24
453	0.239
454	0.239
454	0.239
455	0.239
455	0.239
456	0.239
456	0.239
457	0.239
457	0.238
458	0.239
458	0.239
458	0.239
459	0.24
459	0.24
460	0.24
460	0.24
461	0.24
461	0.24
462	0.24
462	0.241
463	0.241
463	0.242
463	0.243
464	0.243
464	0.243
465	0.243
465	0.243
466	0.244
466	0.244
467	0.244
467	0.244
467	0.244
468	0.243
468	0.243
469	0.243
469	0.243
470	0.243
470	0.243
471	0.244
471	0.244
472	0.244
472	0.244
472	0.245
473	0.246
473	0.246
474	0.247
474	0.247
475	0.248
475	0.249
476	0.25
476	0.251
477	0.251
477	0.252
477	0.253
478	0.253
478	0.254
479	0.255
479	0.256
480	0.257
480	0.258
481	0.258
481	0.259
482	0.26
482	0.261
482	0.262
483	0.264
483	0.266
484	0.268
484	0.269
485	0.27
485	0.271
486	0.273
486	0.274
487	0.275
487	0.276
487	0.277
488	0.278
488	0.278
489	0.279
489	0.28
490	0.281
490	0.282
491	0.283
491	0.284
492	0.285
492	0.286
492	0.288
493	0.289
493	0.291
494	0.293
494	0.295
495	0.297
495	0.299
496	0.3
496	0.302
496	0.304
497	0.305
497	0.307
498	0.308
498	0.309
499	0.31
499	0.312
500	0.313
500	0.315
501	0.317
501	0.319
501	0.32
502	0.323
502	0.324
503	0.327
503	0.328
504	0.33
504	0.331
505	0.333
505	0.335
506	0.337
506	0.338
506	0.34
507	0.341
507	0.343
508	0.344
508	0.346
509	0.348
509	0.35
510	0.351
510	0.352
511	0.353
511	0.355
511	0.356
512	0.357
512	0.359
513	0.36
513	0.36
514	0.361
514	0.362
515	0.363
515	0.363
515	0.364
516	0.364
516	0.365
517	0.366
517	0.367
518	0.367
518	0.367
519	0.367
519	0.366
520	0.366
520	0.365
520	0.365
521	0.364
521	0.363
522	0.362
522	0.362
523	0.362
523	0.362
524	0.363
524	0.364
524	0.365
525	0.366
525	0.367
526	0.368
526	0.368
527	0.369
527	0.369
528	0.369
528	0.369
529	0.369
529	0.368
529	0.368
530	0.368
530	0.367
531	0.366
531	0.366
532	0.365
532	0.364
533	0.363
533	0.362
533	0.361
534	0.36
534	0.359
535	0.357
535	0.356
536	0.355
536	0.353
537	0.351
537	0.35
538	0.348
538	0.346
538	0.344
539	0.343
539	0.341
540	0.339
540	0.337
541	0.335
541	0.333
542	0.331
542	0.328
542	0.326
543	0.324
543	0.322
544	0.319
544	0.317
545	0.315
545	0.313
546	0.311
546	0.309
547	0.306
547	0.303
547	0.3
548	0.298
548	0.295
549	0.292
549	0.29
550	0.287
550	0.284
551	0.281
551	0.279
551	0.276
552	0.274
552	0.273
553	0.27
553	0.269
554	0.267
554	0.264
555	0.261
555	0.259
556	0.256
556	0.253
556	0.25
557	0.247
557	0.245
558	0.242
558	0.24
559	0.237
559	0.236
560	0.234
560	0.232
560	0.23
561	0.229
561	0.228
562	0.226
562	0.224
563	0.221
563	0.219
564	0.216
564	0.214
564	0.211
565	0.209
565	0.207
566	0.205
566	0.203
567	0.201
567	0.2
568	0.2
568	0.198
568	0.198
569	0.197
569	0.196
570	0.195
570	0.192
571	0.192
571	0.191
572	0.189
572	0.188
573	0.186
573	0.184
573	0.182
574	0.181
574	0.179
575	0.179
575	0.179
576	0.178
576	0.176
577	0.173
577	0.172
577	0.171
578	0.171
578	0.171
579	0.171
579	0.172
580	0.169
580	0.167
581	0.164
581	0.163
581	0.162
582	0.162
582	0.162
583	0.162
583	0.16
584	0.157
584	0.154
585	0.153
585	0.153
585	0.153
586	0.153
586	0.152
587	0.151
587	0.149
588	0.147
588	0.146
589	0.146
589	0.146
590	0.146
590	0.145
590	0.146
591	0.146
591	0.144
592	0.143
592	0.141
593	0.141
593	0.14
594	0.138
594	0.137
594	0.137
595	0.136
595	0.135
596	0.134
596	0.135
597	0.138
597	0.138
598	0.139
598	0.139
598	0.14
599	0.14
599	0.139
600	0.139
600	0.138
601	0.138
601	0.136
602	0.135
602	0.134
602	0.133
603	0.133
603	0.133
604	0.133
604	0.134
605	0.134
605	0.135
606	0.135
606	0.134
606	0.133
607	0.133
607	0.133
608	0.132
608	0.131
609	0.13
609	0.13
610	0.129
610	0.128
610	0.129
611	0.129
611	0.13
612	0.131
612	0.133
613	0.134
613	0.135
614	0.135
614	0.134
614	0.135
615	0.135
615	0.135
616	0.134
616	0.134
617	0.134
617	0.133
618	0.133
618	0.133
618	0.133
619	0.134
619	0.136
620	0.138
620	0.139
621	0.139
621	0.141
622	0.141
622	0.142
622	0.142
623	0.143
623	0.144
624	0.145
624	0.145
625	0.146
625	0.147
626	0.147
626	0.148
626	0.149
627	0.149
627	0.15
628	0.15
628	0.151
629	0.151
629	0.151
630	0.151
630	0.152
630	0.153
631	0.153
631	0.154
632	0.155
632	0.156
633	0.157
633	0.159
634	0.161
634	0.163
634	0.164
635	0.166
635	0.167
636	0.168
636	0.17
637	0.171
637	0.172
638	0.174
638	0.176
638	0.178
639	0.18
639	0.182
640	0.184
640	0.186
641	0.189
641	0.191
642	0.194
642	0.196
642	0.198
643	0.2
643	0.201
644	0.203
644	0.205
645	0.207
645	0.21
646	0.212
646	0.215
646	0.218
647	0.221
647	0.224
648	0.226
648	0.229
649	0.232
649	0.235
650	0.238
650	0.241
650	0.244
651	0.247
651	0.249
652	0.252
652	0.255
653	0.259
653	0.268
653	0.27
654	0.214
654	0.173
655	0.177
655	0.179
656	0.181
656	0.183
657	0.185
657	0.186
657	0.187
658	0.184
658	0.178
659	0.227
659	0.295
660	0.302
660	0.304
661	0.307
661	0.31
661	0.313
662	0.318
662	0.321
663	0.325
663	0.329
664	0.332
664	0.335
665	0.339
665	0.342
665	0.345
666	0.349
666	0.352
667	0.355
667	0.358
668	0.361
668	0.365
669	0.368
669	0.372
669	0.376
670	0.38
670	0.383
671	0.386
671	0.388
672	0.39
672	0.392
672	0.394
673	0.396
673	0.399
674	0.4
674	0.402
675	0.403
675	0.405
676	0.408
676	0.41
676	0.412
677	0.414
677	0.416
678	0.418
678	0.419
679	0.42
679	0.422
680	0.424
680	0.425
680	0.426
681	0.427
681	0.429
682	0.43
682	0.431
683	0.433
683	0.435
684	0.436
684	0.436
684	0.437
685	0.437
685	0.438
686	0.439
686	0.439
687	0.439
687	0.439
687	0.439
688	0.438
688	0.437
689	0.437
689	0.437
690	0.436
690	0.435
691	0.434
691	0.434
691	0.433
692	0.432
692	0.431
693	0.431
693	0.431
694	0.429
694	0.428
695	0.429
695	0.43
695	0.429
696	0.428
696	0.426
697	0.426
697	0.424
698	0.422
698	0.42
698	0.418
699	0.416
699	0.413
700	0.409
700	0.407
701	0.405
701	0.403
702	0.401
702	0.398
702	0.396
703	0.394
703	0.392
704	0.389
704	0.387
705	0.385
705	0.382
705	0.38
706	0.377
706	0.374
707	0.371
707	0.368
708	0.366
708	0.364
709	0.362
709	0.359
709	0.356
710	0.353
710	0.351
711	0.35
711	0.347
712	0.346
712	0.344
713	0.341
713	0.339
713	0.336
714	0.333
714	0.33
715	0.327
715	0.324
716	0.321
716	0.318
716	0.315
717	0.312
717	0.309
718	0.306
718	0.304
719	0.302
719	0.3
720	0.297
720	0.295
720	0.293
721	0.29
721	0.287
722	0.284
722	0.281
723	0.279
723	0.276
723	0.273
724	0.27
724	0.267
725	0.263
725	0.261
726	0.258
726	0.256
727	0.253
727	0.251
727	0.249
728	0.246
728	0.245
729	0.243
729	0.242
730	0.24
730	0.238
730	0.237
731	0.236
731	0.234
732	0.233
732	0.232
733	0.23
733	0.228
734	0.227
734	0.225
734	0.223
735	0.222
735	0.22
736	0.218
736	0.216
737	0.215
737	0.213
737	0.211
738	0.208
738	0.205
739	0.203
739	0.201
740	0.199
740	0.197
741	0.196
741	0.194
741	0.192
742	0.189
742	0.188
743	0.187
743	0.185
744	0.184
744	0.183
744	0.181
745	0.179
745	0.177
746	0.175
746	0.173
747	0.171
747	0.169
748	0.167
748	0.165
748	0.163
749	0.16
749	0.158
750	0.156
750	0.154
751	0.153
751	0.151
751	0.15
752	0.148
752	0.146
753	0.144
753	0.143
754	0.142
754	0.14
754	0.14
755	0.139
755	0.138
756	0.136
756	0.133
757	0.132
757	0.132
758	0.13
758	0.129
758	0.128
759	0.126
759	0.123
760	0.121
760	0.119
761	0.117
761	0.117
761	0.115
762	0.114
762	0.113
763	0.111
763	0.109
764	0.107
764	0.105
764	0.103
765	0.102
765	0.1
766	0.099
766	0.099
767	0.097
767	0.095
768	0.093
768	0.092
768	0.091
769	0.09
769	0.089
770	0.088
770	0.086
771	0.084
771	0.082
771	0.08
772	0.078
772	0.076
773	0.074
773	0.072
774	0.07
774	0.068
775	0.066
775	0.064
775	0.062
776	0.059
776	0.057
777	0.054
777	0.051
778	0.048
778	0.045
778	0.042
779	0.04
779	0.038
780	0.034
780	0.031
781	0.028
781	0.024
781	0.02
782	0.016
782	0.01
783	0.005
783	-0.001
784	-0.007
784	-0.015
784	-0.021
785	-0.028
785	-0.036
786	-0.042
786	-0.048
787	-0.05
787	-0.053
788	-0.058
788	-0.064
788	-0.068
789	-0.073
789	-0.075
790	-0.076
790	-0.077
791	-0.079
791	-0.081
791	-0.083
792	-0.078
792	-0.068
793	-0.063
793	-0.059
794	-0.057
794	-0.059
794	-0.063
795	-0.064
795	-0.064
796	-0.064
796	-0.067
797	-0.075
797	-0.084
797	-0.09
798	-0.095
798	-0.098
799	-0.098
799	-0.098
800	-0.098
800	-0.1
801	-0.103
801	-0.105
801	-0.105
802	-0.107
802	-0.109
803	-0.109
803	-0.11
804	-0.109
804	-0.104
804	-0.098
805	-0.094
805	-0.093
806	-0.091
806	-0.089
807	-0.088
807	-0.087
807	-0.087
808	-0.086
808	-0.087
809	-0.091
809	-0.096
810	-0.099
810	-0.101
810	-0.103
811	-0.106
811	-0.106
812	-0.102
812	-0.099
813	-0.099
813	-0.1
813	-0.101
814	-0.102
814	-0.102
815	-0.099
815	-0.097
816	-0.095
816	-0.094
817	-0.095
817	-0.094
817	-0.089
818	-0.083
818	-0.074
819	-0.065
819	-0.057
820	-0.051
820	-0.044
820	-0.036
821	-0.027
821	-0.02
822	-0.013
822	-0.007
823	-0.002
823	0.002
823	0.005
824	0.009
824	0.013
825	0.018
825	0.022
826	0.025
826	0.028
826	0.031
827	0.033
827	0.036
828	0.038
828	0.04
829	0.042
829	0.044
829	0.046
830	0.047
830	0.05
831	0.053
831	0.054
832	0.056
832	0.057
832	0.059
833	0.06
833	0.06
834	0.061
834	0.061
835	0.062
835	0.061
835	0.061
836	0.061
836	0.062
837	0.062
837	0.062
838	0.063
838	0.063
839	0.063
839	0.063
839	0.063
840	0.064
840	0.064
841	0.064
841	0.064
842	0.065
842	0.064
842	0.064
843	0.064
843	0.064
844	0.064
844	0.064
845	0.064
845	0.064
845	0.064
846	0.063
846	0.063
847	0.063
847	0.063
848	0.063
848	0.064
848	0.064
849	0.064
849	0.064
850	0.064
850	0.064
851	0.064
851	0.064
851	0.064
852	0.064
852	0.064
853	0.064
853	0.064
854	0.065
854	0.066
854	0.066
855	0.067
855	0.067
856	0.067
856	0.068
857	0.068
857	0.068
857	0.068
858	0.067
858	0.067
859	0.066
859	0.066
860	0.065
860	0.065
860	0.064
861	0.064
861	0.063
862	0.062
862	0.062
863	0.061
863	0.06
863	0.06
864	0.059
864	0.059
865	0.059
865	0.059
866	0.058
866	0.058
866	0.059
867	0.06
867	0.06
868	0.061
868	0.062
869	0.062
869	0.063
869	0.062
870	0.062
870	0.062
871	0.061
871	0.06
872	0.059
872	0.058
872	0.057
873	0.056
873	0.055
874	0.054
874	0.053
875	0.053
875	0.053
875	0.054
876	0.054
876	0.054
877	0.054
877	0.054
878	0.054
878	0.054
878	0.053
879	0.053
879	0.053
880	0.052
880	0.052
881	0.052
881	0.052
881	0.052
882	0.052
882	0.053
883	0.053
883	0.054
884	0.055
884	0.055
884	0.055
885	0.055
885	0.056
886	0.056
886	0.056
887	0.056
887	0.056
887	0.056
888	0.055
888	0.055
889	0.055
889	0.056
890	0.056
890	0.056
890	0.056
891	0.057
891	0.057
892	0.057
892	0.058
893	0.058
893	0.059
893	0.059
894	0.06
894	0.06
895	0.06
895	0.061
895	0.061
896	0.061
896	0.061
897	0.062
897	0.062
898	0.062
898	0.063
898	0.063
899	0.063
899	0.063
900	0.063
900	0.063
901	0.063
901	0.063
901	0.063
902	0.063
902	0.063
903	0.063
903	0.062
904	0.062
904	0.061
904	0.06
905	0.059
905	0.058
906	0.057
906	0.056
907	0.055
907	0.054
907	0.054
908	0.054
908	0.054
909	0.054
909	0.055
910	0.055
910	0.056
910	0.057
911	0.057
911	0.058
912	0.059
912	0.06
913	0.06
913	0.061
913	0.061
914	0.062
914	0.062
915	0.061
915	0.061
916	0.061
916	0.06
916	0.06
917	0.059
917	0.058
918	0.058
918	0.057
918	0.056
919	0.055
919	0.055
920	0.054
920	0.054
921	0.054
921	0.053
921	0.053
922	0.053
922	0.052
923	0.052
923	0.052
924	0.051
924	0.051
924	0.051
925	0.05
925	0.05
926	0.05
926	0.049
927	0.048
927	0.048
927	0.048
928	0.047
928	0.047
929	0.048
929	0.048
930	0.049
930	0.05
930	0.051
931	0.052
931	0.054
932	0.055
932	0.056
933	0.057
933	0.058
933	0.059
934	0.059
934	0.059
935	0.059
935	0.059
935	0.059
936	0.058
936	0.058
937	0.058
937	0.058
938	0.058
938	0.057
938	0.057
939	0.057
939	0.058
940	0.058
940	0.058
941	0.058
941	0.058
941	0.058
942	0.058
942	0.057
943	0.057
943	0.056
944	0.056
944	0.055
944	0.055
945	0.055
945	0.055
946	0.055
946	0.054
946	0.054
947	0.053
947	0.053
948	0.053
948	0.052
949	0.052
949	0.051
949	0.051
950	0.051
950	0.051
951	0.05
951	0.05
952	0.049
952	0.049
952	0.049
953	0.048
953	0.048
954	0.047
954	0.046
955	0.046
955	0.045
955	0.045
956	0.045
956	0.045
957	0.045
957	0.045
957	0.045
958	0.045
958	0.046
959	0.046
959	0.046
960	0.045
960	0.045
960	0.044
961	0.044
961	0.044
962	0.043
962	0.043
963	0.043
963	0.043
963	0.043
964	0.043
964	0.044
965	0.044
965	0.045
966	0.046
966	0.047
966	0.048
967	0.049
967	0.049
968	0.049
968	0.049
968	0.049
969	0.049
969	0.049
970	0.049
970	0.048
971	0.048
971	0.047
971	0.047
972	0.046
972	0.046
973	0.047
973	0.047
974	0.047
974	0.047
974	0.048
975	0.048
975	0.049
976	0.05
976	0.05
976	0.051
977	0.051
977	0.051
978	0.051
978	0.052
979	0.052
979	0.052
979	0.052
980	0.051
980	0.051
981	0.051
981	0.052
982	0.052
982	0.053
982	0.053
983	0.054
983	0.054
984	0.055
984	0.055
984	0.055
985	0.055
985	0.054
986	0.053
986	0.052
987	0.05
987	0.049
987	0.048
988	0.046
988	0.045
989	0.044
989	0.043
990	0.043
990	0.042
990	0.042
991	0.042
991	0.043
992	0.043
992	0.043
992	0.043
993	0.043
993	0.043
994	0.043
994	0.043
995	0.043
995	0.043
995	0.043
996	0.043
996	0.042
997	0.042
997	0.042
997	0.042
998	0.043
998	0.044
999	0.044
999	0.045
1000	0.046
1000	0.047
1000	0.048
1001	0.049
1001	0.05
1002	0.051
1002	0.051
1003	0.052
1003	0.052
1003	0.052
1004	0.052
1004	0.051
1005	0.051
1005	0.05
1005	0.049
1006	0.049
1006	0.048
1007	0.048
1007	0.047
1008	0.047
1008	0.046
1008	0.046
1009	0.046
1009	0.046
1010	0.046
1010	0.046
1010	0.046
1011	0.046
1011	0.047
1012	0.047
1012	0.047
1013	0.047
1013	0.047
1013	0.047
1014	0.046
1014	0.046
1015	0.045
1015	0.044
1016	0.043
1016	0.042
1016	0.041
1017	0.039
1017	0.038
1018	0.037
1018	0.037
1018	0.036
1019	0.036
1019	0.035
1020	0.035
1020	0.035
1021	0.034
1021	0.034
1021	0.034
1022	0.035
1022	0.034
1023	0.034
1023	0.034
1023	0.033
1024	0.033
1024	0.032
1025	0.031
1025	0.03
1026	0.029
1026	0.029
1026	0.028
1027	0.027
1027	0.027
1028	0.026
1028	0.026
1028	0.026
1029	0.026
1029	0.026
1030	0.026
1030	0.026
1031	0.027
1031	0.027
1031	0.027
1032	0.028
1032	0.028
1033	0.029
1033	0.029
1033	0.029
1034	0.029
1034	0.028
1035	0.028
1035	0.027
1036	0.027
1036	0.027
1036	0.026
1037	0.026
1037	0.026
1038	0.026
1038	0.026
1039	0.027
1039	0.028
1039	0.029
1040	0.029
1040	0.03
1041	0.03
1041	0.029
1041	0.029
1042	0.028
1042	0.028
1043	0.027
1043	0.026
1044	0.026
1044	0.025
1044	0.024
1045	0.024
1045	0.023
1046	0.022
1046	0.022
1046	0.022
1047	0.022
1047	0.022
1048	0.022
1048	0.022
1049	0.022
1049	0.021
1049	0.02
1050	0.019
1050	0.019
1051	0.018
1051	0.017
1051	0.017
1052	0.016
1052	0.016
1053	0.015
1053	0.015
1053	0.014
1054	0.014
1054	0.014
1055	0.014
1055	0.014
1056	0.013
1056	0.013
1056	0.012
1057	0.012
1057	0.011
1058	0.011
1058	0.011
1058	0.011
1059	0.011
1059	0.011
1060	0.01
1060	0.01
1061	0.01
1061	0.01
1061	0.011
1062	0.01
1062	0.01
1063	0.01
1063	0.01
1063	0.009
1064	0.01
1064	0.01
1065	0.01
1065	0.011
1066	0.011
1066	0.011
1066	0.012
1067	0.012
1067	0.013
1068	0.014
1068	0.014
1068	0.014
1069	0.014
1069	0.014
1070	0.014
1070	0.014
1071	0.014
1071	0.014
1071	0.014
1072	0.013
1072	0.014
1073	0.013
1073	0.013
1073	0.012
1074	0.012
1074	0.012
1075	0.011
1075	0.01
1076	0.008
1076	0.008
1076	0.007
1077	0.006
1077	0.005
1078	0.005
1078	0.005
1078	0.006
1079	0.006
1079	0.006
1080	0.007
1080	0.008
1080	0.008
1081	0.008
1081	0.009
1082	0.009
1082	0.009
1083	0.009
1083	0.008
1083	0.009
1084	0.009
1084	0.009
1085	0.009
1085	0.01
1085	0.01
1086	0.01
1086	0.01
1087	0.011
1087	0.011
1088	0.011
1088	0.011
1088	0.011
1089	0.011
1089	0.011
1090	0.011
1090	0.011
1090	0.011
1091	0.012
1091	0.013
1092	0.014
1092	0.015
1092	0.015
1093	0.016
1093	0.018
1094	0.019
1094	0.019
1095	0.019
1095	0.02
1095	0.022
1096	0.022
1096	0.023
1097	0.024
1097	0.025
1097	0.026
1098	0.027
1098	0.028
1099	0.029
1099	0.031
1100	0.033
1100	0.035
1100	0.036
1101	0.038
1101	0.04
1102	0.043
1102	0.046
1102	0.05
1103	0.053
1103	0.057
1104	0.061
1104	0.066
1104	0.072
1105	0.079
1105	0.084
1106	0.089
1106	0.097
1107	0.102
1107	0.113
1107	0.126
1108	0.171
1108	0.23
1109	0.318
1109	0.463
1109	0.592
1110	0.912
1110	-0
1111	-0
1111	-0
