Data from 15c-2a_Absorbance__215__02924.txt Node

Date: Tue Jan 16 14:08:26 CET 2024
User: Marek
Spectrometer: MAYP115816
Trigger mode: 0
Integration Time (sec): 2.000000E-1
Scans to average: 10
Electric dark correction enabled: true
Nonlinearity correction enabled: true
Boxcar width: 5
XAxis mode: Wavelengths
Number of Pixels in Spectrum: 2068
>>>>>Begin Spectral Data<<<<<
199	-1.63
199	-1.451
200	-1.322
200	-1.207
201	-1.137
201	-1.089
202	-1.02
202	-0.966
203	-0.925
203	-0.883
204	-0.859
204	-0.835
205	-0.816
205	-0.805
205	-0.803
206	-0.799
206	-0.797
207	-0.795
207	-0.794
208	-0.791
208	-0.79
209	-0.786
209	-0.786
210	-0.785
210	-0.783
211	-0.783
211	-0.783
212	-0.782
212	-0.781
213	-0.78
213	-0.779
213	-0.78
214	-0.778
214	-0.776
215	-0.775
215	-0.775
216	-0.772
216	-0.772
217	-0.768
217	-0.767
218	-0.763
218	-0.759
219	-0.754
219	-0.754
220	-0.752
220	-0.753
221	-0.749
221	-0.748
221	-0.744
222	-0.739
222	-0.734
223	-0.729
223	-0.725
224	-0.721
224	-0.712
225	-0.704
225	-0.694
226	-0.687
226	-0.677
227	-0.664
227	-0.653
228	-0.637
228	-0.622
229	-0.602
229	-0.579
229	-0.555
230	-0.527
230	-0.497
231	-0.462
231	-0.424
232	-0.387
232	-0.347
233	-0.305
233	-0.261
234	-0.218
234	-0.175
235	-0.132
235	-0.091
236	-0.05
236	-0.01
236	0.028
237	0.063
237	0.097
238	0.128
238	0.158
239	0.186
239	0.211
240	0.234
240	0.255
241	0.274
241	0.292
242	0.307
242	0.322
243	0.335
243	0.347
243	0.358
244	0.368
244	0.377
245	0.385
245	0.393
246	0.4
246	0.407
247	0.412
247	0.418
248	0.424
248	0.428
249	0.433
249	0.437
250	0.441
250	0.445
250	0.449
251	0.452
251	0.455
252	0.458
252	0.461
253	0.463
253	0.465
254	0.467
254	0.47
255	0.471
255	0.473
256	0.475
256	0.476
257	0.477
257	0.478
258	0.479
258	0.479
258	0.48
259	0.481
259	0.481
260	0.481
260	0.481
261	0.481
261	0.481
262	0.481
262	0.48
263	0.48
263	0.48
264	0.479
264	0.478
265	0.478
265	0.476
265	0.476
266	0.474
266	0.473
267	0.472
267	0.471
268	0.469
268	0.467
269	0.466
269	0.464
270	0.462
270	0.46
271	0.458
271	0.456
272	0.454
272	0.452
272	0.45
273	0.448
273	0.446
274	0.444
274	0.442
275	0.44
275	0.438
276	0.436
276	0.433
277	0.431
277	0.429
278	0.426
278	0.424
278	0.422
279	0.418
279	0.415
280	0.413
280	0.41
281	0.408
281	0.405
282	0.403
282	0.401
283	0.399
283	0.397
284	0.395
284	0.393
285	0.392
285	0.39
285	0.388
286	0.386
286	0.384
287	0.382
287	0.381
288	0.379
288	0.377
289	0.376
289	0.374
290	0.372
290	0.371
291	0.369
291	0.368
292	0.366
292	0.365
292	0.363
293	0.362
293	0.36
294	0.359
294	0.358
295	0.356
295	0.355
296	0.354
296	0.353
297	0.352
297	0.351
298	0.35
298	0.349
298	0.348
299	0.347
299	0.346
300	0.345
300	0.344
301	0.343
301	0.342
302	0.341
302	0.341
303	0.34
303	0.339
304	0.338
304	0.337
305	0.336
305	0.336
305	0.335
306	0.334
306	0.333
307	0.332
307	0.331
308	0.33
308	0.329
309	0.328
309	0.327
310	0.327
310	0.326
311	0.325
311	0.324
311	0.324
312	0.323
312	0.322
313	0.321
313	0.32
314	0.319
314	0.318
315	0.318
315	0.317
316	0.316
316	0.315
317	0.314
317	0.313
318	0.312
318	0.312
318	0.311
319	0.31
319	0.309
320	0.308
320	0.307
321	0.306
321	0.306
322	0.305
322	0.304
323	0.303
323	0.302
324	0.301
324	0.3
324	0.3
325	0.299
325	0.298
326	0.297
326	0.297
327	0.296
327	0.295
328	0.295
328	0.294
329	0.293
329	0.292
330	0.292
330	0.291
330	0.29
331	0.29
331	0.289
332	0.288
332	0.287
333	0.286
333	0.286
334	0.285
334	0.285
335	0.284
335	0.283
336	0.283
336	0.282
336	0.281
337	0.28
337	0.28
338	0.279
338	0.278
339	0.278
339	0.277
340	0.276
340	0.276
341	0.275
341	0.275
342	0.274
342	0.273
342	0.273
343	0.272
343	0.272
344	0.272
344	0.271
345	0.271
345	0.27
346	0.27
346	0.269
347	0.269
347	0.268
348	0.268
348	0.268
348	0.267
349	0.267
349	0.266
350	0.266
350	0.266
351	0.265
351	0.265
352	0.264
352	0.264
353	0.263
353	0.263
354	0.262
354	0.261
354	0.261
355	0.26
355	0.259
356	0.259
356	0.258
357	0.257
357	0.257
358	0.256
358	0.256
359	0.256
359	0.257
360	0.257
360	0.257
360	0.257
361	0.258
361	0.258
362	0.259
362	0.259
363	0.259
363	0.259
364	0.259
364	0.258
365	0.258
365	0.258
366	0.257
366	0.257
366	0.257
367	0.257
367	0.256
368	0.256
368	0.256
369	0.255
369	0.255
370	0.255
370	0.255
371	0.255
371	0.254
372	0.254
372	0.254
372	0.254
373	0.253
373	0.253
374	0.253
374	0.253
375	0.253
375	0.252
376	0.252
376	0.252
377	0.252
377	0.252
378	0.252
378	0.252
378	0.252
379	0.252
379	0.252
380	0.252
380	0.252
381	0.252
381	0.251
382	0.251
382	0.251
383	0.251
383	0.25
383	0.25
384	0.249
384	0.249
385	0.249
385	0.249
386	0.249
386	0.249
387	0.249
387	0.248
388	0.248
388	0.248
389	0.248
389	0.248
389	0.248
390	0.247
390	0.247
391	0.247
391	0.247
392	0.247
392	0.247
393	0.247
393	0.247
394	0.247
394	0.247
394	0.246
395	0.246
395	0.246
396	0.246
396	0.246
397	0.246
397	0.246
398	0.245
398	0.245
399	0.245
399	0.245
400	0.245
400	0.245
400	0.244
401	0.244
401	0.243
402	0.243
402	0.242
403	0.242
403	0.242
404	0.242
404	0.241
405	0.241
405	0.241
405	0.241
406	0.241
406	0.241
407	0.241
407	0.241
408	0.24
408	0.24
409	0.24
409	0.24
410	0.24
410	0.24
411	0.24
411	0.24
411	0.239
412	0.239
412	0.239
413	0.239
413	0.238
414	0.238
414	0.238
415	0.238
415	0.237
416	0.237
416	0.237
416	0.236
417	0.236
417	0.236
418	0.236
418	0.236
419	0.237
419	0.237
420	0.237
420	0.238
421	0.238
421	0.238
421	0.238
422	0.238
422	0.238
423	0.238
423	0.238
424	0.237
424	0.236
425	0.236
425	0.236
426	0.235
426	0.235
427	0.235
427	0.235
427	0.235
428	0.236
428	0.236
429	0.237
429	0.237
430	0.237
430	0.237
431	0.237
431	0.236
432	0.236
432	0.236
432	0.235
433	0.234
433	0.234
434	0.234
434	0.234
435	0.234
435	0.233
436	0.233
436	0.234
437	0.234
437	0.233
437	0.233
438	0.233
438	0.233
439	0.233
439	0.233
440	0.233
440	0.233
441	0.233
441	0.233
442	0.233
442	0.234
442	0.234
443	0.235
443	0.235
444	0.236
444	0.236
445	0.236
445	0.236
446	0.236
446	0.236
447	0.236
447	0.236
447	0.236
448	0.236
448	0.236
449	0.236
449	0.235
450	0.235
450	0.235
451	0.235
451	0.235
452	0.235
452	0.235
452	0.235
453	0.235
453	0.235
454	0.234
454	0.234
455	0.234
455	0.234
456	0.234
456	0.234
457	0.234
457	0.234
458	0.234
458	0.234
458	0.234
459	0.234
459	0.235
460	0.234
460	0.234
461	0.234
461	0.234
462	0.235
462	0.235
463	0.236
463	0.236
463	0.237
464	0.237
464	0.238
465	0.238
465	0.238
466	0.238
466	0.238
467	0.239
467	0.239
467	0.238
468	0.238
468	0.237
469	0.237
469	0.237
470	0.237
470	0.237
471	0.237
471	0.237
472	0.237
472	0.238
472	0.238
473	0.239
473	0.24
474	0.241
474	0.241
475	0.242
475	0.243
476	0.244
476	0.245
477	0.245
477	0.246
477	0.247
478	0.248
478	0.248
479	0.249
479	0.25
480	0.251
480	0.251
481	0.252
481	0.253
482	0.254
482	0.255
482	0.256
483	0.257
483	0.26
484	0.262
484	0.263
485	0.264
485	0.266
486	0.267
486	0.268
487	0.269
487	0.27
487	0.271
488	0.272
488	0.272
489	0.273
489	0.274
490	0.275
490	0.275
491	0.276
491	0.277
492	0.279
492	0.279
492	0.281
493	0.282
493	0.283
494	0.286
494	0.288
495	0.29
495	0.291
496	0.293
496	0.295
496	0.296
497	0.298
497	0.299
498	0.301
498	0.302
499	0.303
499	0.304
500	0.306
500	0.308
501	0.31
501	0.311
501	0.313
502	0.315
502	0.317
503	0.319
503	0.32
504	0.322
504	0.323
505	0.325
505	0.326
506	0.327
506	0.329
506	0.331
507	0.332
507	0.334
508	0.335
508	0.337
509	0.339
509	0.34
510	0.342
510	0.343
511	0.344
511	0.345
511	0.346
512	0.347
512	0.348
513	0.349
513	0.35
514	0.35
514	0.351
515	0.352
515	0.352
515	0.352
516	0.353
516	0.354
517	0.354
517	0.355
518	0.355
518	0.355
519	0.355
519	0.355
520	0.355
520	0.355
520	0.354
521	0.353
521	0.352
522	0.351
522	0.35
523	0.35
523	0.35
524	0.35
524	0.35
524	0.351
525	0.352
525	0.353
526	0.354
526	0.355
527	0.356
527	0.357
528	0.357
528	0.358
529	0.358
529	0.358
529	0.357
530	0.357
530	0.357
531	0.356
531	0.355
532	0.354
532	0.353
533	0.353
533	0.352
533	0.351
534	0.35
534	0.348
535	0.347
535	0.346
536	0.345
536	0.343
537	0.341
537	0.34
538	0.338
538	0.336
538	0.334
539	0.333
539	0.332
540	0.33
540	0.328
541	0.326
541	0.324
542	0.321
542	0.319
542	0.317
543	0.315
543	0.313
544	0.311
544	0.309
545	0.306
545	0.305
546	0.303
546	0.3
547	0.298
547	0.295
547	0.292
548	0.29
548	0.287
549	0.285
549	0.282
550	0.28
550	0.278
551	0.275
551	0.272
551	0.27
552	0.268
552	0.266
553	0.264
553	0.262
554	0.26
554	0.257
555	0.255
555	0.252
556	0.249
556	0.246
556	0.244
557	0.241
557	0.239
558	0.236
558	0.233
559	0.231
559	0.229
560	0.228
560	0.226
560	0.225
561	0.224
561	0.223
562	0.222
562	0.219
563	0.217
563	0.214
564	0.212
564	0.209
564	0.206
565	0.204
565	0.202
566	0.199
566	0.198
567	0.196
567	0.195
568	0.195
568	0.194
568	0.193
569	0.193
569	0.193
570	0.191
570	0.189
571	0.189
571	0.188
572	0.186
572	0.185
573	0.183
573	0.182
573	0.18
574	0.178
574	0.177
575	0.176
575	0.176
576	0.176
576	0.173
577	0.171
577	0.17
577	0.169
578	0.168
578	0.168
579	0.169
579	0.169
580	0.167
580	0.164
581	0.161
581	0.16
581	0.16
582	0.16
582	0.159
583	0.159
583	0.158
584	0.155
584	0.151
585	0.151
585	0.151
585	0.151
586	0.151
586	0.15
587	0.149
587	0.147
588	0.145
588	0.144
589	0.144
589	0.144
590	0.143
590	0.143
590	0.144
591	0.144
591	0.142
592	0.141
592	0.14
593	0.139
593	0.138
594	0.137
594	0.136
594	0.135
595	0.134
595	0.133
596	0.132
596	0.133
597	0.135
597	0.136
598	0.136
598	0.137
598	0.138
599	0.138
599	0.137
600	0.136
600	0.136
601	0.135
601	0.134
602	0.132
602	0.132
602	0.13
603	0.13
603	0.131
604	0.131
604	0.131
605	0.132
605	0.133
606	0.132
606	0.132
606	0.131
607	0.131
607	0.131
608	0.131
608	0.129
609	0.129
609	0.129
610	0.128
610	0.127
610	0.127
611	0.128
611	0.129
612	0.13
612	0.131
613	0.132
613	0.134
614	0.134
614	0.133
614	0.134
615	0.133
615	0.133
616	0.133
616	0.133
617	0.133
617	0.132
618	0.131
618	0.132
618	0.132
619	0.133
619	0.134
620	0.136
620	0.137
621	0.138
621	0.139
622	0.139
622	0.14
622	0.14
623	0.141
623	0.142
624	0.143
624	0.143
625	0.143
625	0.144
626	0.145
626	0.145
626	0.146
627	0.147
627	0.147
628	0.148
628	0.148
629	0.148
629	0.148
630	0.148
630	0.148
630	0.149
631	0.15
631	0.151
632	0.151
632	0.152
633	0.153
633	0.155
634	0.156
634	0.158
634	0.16
635	0.162
635	0.163
636	0.164
636	0.166
637	0.167
637	0.169
638	0.171
638	0.172
638	0.174
639	0.176
639	0.178
640	0.18
640	0.183
641	0.185
641	0.187
642	0.19
642	0.192
642	0.195
643	0.196
643	0.198
644	0.2
644	0.202
645	0.204
645	0.206
646	0.209
646	0.212
646	0.215
647	0.218
647	0.221
648	0.223
648	0.226
649	0.229
649	0.232
650	0.235
650	0.238
650	0.241
651	0.243
651	0.246
652	0.249
652	0.252
653	0.255
653	0.264
653	0.267
654	0.212
654	0.171
655	0.175
655	0.177
656	0.179
656	0.181
657	0.182
657	0.184
657	0.185
658	0.182
658	0.176
659	0.224
659	0.29
660	0.297
660	0.3
661	0.302
661	0.305
661	0.309
662	0.312
662	0.316
663	0.32
663	0.324
664	0.327
664	0.33
665	0.333
665	0.336
665	0.34
666	0.343
666	0.346
667	0.349
667	0.352
668	0.356
668	0.359
669	0.362
669	0.366
669	0.371
670	0.374
670	0.378
671	0.381
671	0.383
672	0.385
672	0.387
672	0.389
673	0.391
673	0.393
674	0.394
674	0.396
675	0.397
675	0.399
676	0.401
676	0.404
676	0.405
677	0.408
677	0.41
678	0.412
678	0.413
679	0.414
679	0.416
680	0.418
680	0.419
680	0.42
681	0.421
681	0.422
682	0.423
682	0.424
683	0.426
683	0.427
684	0.429
684	0.429
684	0.429
685	0.43
685	0.431
686	0.432
686	0.432
687	0.432
687	0.432
687	0.432
688	0.432
688	0.431
689	0.431
689	0.431
690	0.43
690	0.429
691	0.428
691	0.428
691	0.427
692	0.426
692	0.425
693	0.425
693	0.425
694	0.424
694	0.423
695	0.424
695	0.425
695	0.424
696	0.423
696	0.421
697	0.421
697	0.419
698	0.417
698	0.415
698	0.413
699	0.411
699	0.408
700	0.404
700	0.402
701	0.4
701	0.398
702	0.395
702	0.393
702	0.39
703	0.388
703	0.385
704	0.383
704	0.381
705	0.379
705	0.377
705	0.374
706	0.371
706	0.369
707	0.367
707	0.364
708	0.362
708	0.36
709	0.358
709	0.355
709	0.352
710	0.349
710	0.347
711	0.345
711	0.343
712	0.341
712	0.339
713	0.336
713	0.334
713	0.331
714	0.328
714	0.325
715	0.323
715	0.32
716	0.317
716	0.314
716	0.311
717	0.308
717	0.306
718	0.303
718	0.301
719	0.299
719	0.297
720	0.295
720	0.293
720	0.29
721	0.287
721	0.284
722	0.282
722	0.279
723	0.276
723	0.274
723	0.271
724	0.268
724	0.264
725	0.261
725	0.258
726	0.256
726	0.253
727	0.25
727	0.248
727	0.246
728	0.243
728	0.241
729	0.24
729	0.239
730	0.237
730	0.235
730	0.234
731	0.233
731	0.231
732	0.23
732	0.229
733	0.227
733	0.226
734	0.224
734	0.223
734	0.221
735	0.221
735	0.218
736	0.217
736	0.215
737	0.213
737	0.212
737	0.209
738	0.206
738	0.203
739	0.201
739	0.198
740	0.196
740	0.194
741	0.193
741	0.19
741	0.188
742	0.185
742	0.183
743	0.182
743	0.18
744	0.179
744	0.178
744	0.176
745	0.174
745	0.172
746	0.17
746	0.168
747	0.167
747	0.165
748	0.164
748	0.162
748	0.16
749	0.157
749	0.156
750	0.154
750	0.152
751	0.151
751	0.149
751	0.148
752	0.146
752	0.144
753	0.143
753	0.142
754	0.141
754	0.139
754	0.138
755	0.137
755	0.136
756	0.134
756	0.132
757	0.13
757	0.129
758	0.128
758	0.126
758	0.125
759	0.123
759	0.12
760	0.118
760	0.115
761	0.114
761	0.114
761	0.112
762	0.111
762	0.11
763	0.109
763	0.106
764	0.104
764	0.102
764	0.101
765	0.1
765	0.098
766	0.097
766	0.097
767	0.096
767	0.093
768	0.091
768	0.09
768	0.089
769	0.088
769	0.087
770	0.085
770	0.083
771	0.081
771	0.079
771	0.076
772	0.075
772	0.073
773	0.071
773	0.069
774	0.066
774	0.064
775	0.062
775	0.06
775	0.058
776	0.055
776	0.053
777	0.05
777	0.047
778	0.044
778	0.04
778	0.037
779	0.035
779	0.032
780	0.028
780	0.024
781	0.021
781	0.016
781	0.011
782	0.005
782	-0.001
783	-0.007
783	-0.013
784	-0.02
784	-0.028
784	-0.035
785	-0.043
785	-0.05
786	-0.057
786	-0.06
787	-0.061
787	-0.063
788	-0.067
788	-0.071
788	-0.075
789	-0.078
789	-0.079
790	-0.078
790	-0.078
791	-0.079
791	-0.08
791	-0.083
792	-0.077
792	-0.068
793	-0.062
793	-0.059
794	-0.057
794	-0.059
794	-0.062
795	-0.064
795	-0.064
796	-0.064
796	-0.066
797	-0.074
797	-0.083
797	-0.089
798	-0.094
798	-0.097
799	-0.098
799	-0.097
800	-0.098
800	-0.1
801	-0.103
801	-0.104
801	-0.105
802	-0.107
802	-0.108
803	-0.109
803	-0.11
804	-0.109
804	-0.104
804	-0.098
805	-0.094
805	-0.092
806	-0.09
806	-0.089
807	-0.088
807	-0.087
807	-0.086
808	-0.086
808	-0.086
809	-0.09
809	-0.095
810	-0.098
810	-0.1
810	-0.103
811	-0.105
811	-0.105
812	-0.102
812	-0.099
813	-0.099
813	-0.1
813	-0.101
814	-0.101
814	-0.101
815	-0.099
815	-0.096
816	-0.094
816	-0.094
817	-0.095
817	-0.094
817	-0.09
818	-0.083
818	-0.075
819	-0.066
819	-0.058
820	-0.052
820	-0.045
820	-0.037
821	-0.028
821	-0.02
822	-0.014
822	-0.008
823	-0.003
823	0.001
823	0.005
824	0.009
824	0.013
825	0.017
825	0.022
826	0.025
826	0.027
826	0.03
827	0.033
827	0.035
828	0.037
828	0.039
829	0.041
829	0.043
829	0.045
830	0.046
830	0.048
831	0.051
831	0.053
832	0.055
832	0.056
832	0.058
833	0.059
833	0.06
834	0.06
834	0.061
835	0.061
835	0.061
835	0.061
836	0.061
836	0.062
837	0.062
837	0.062
838	0.063
838	0.063
839	0.063
839	0.064
839	0.064
840	0.064
840	0.064
841	0.065
841	0.065
842	0.066
842	0.066
842	0.066
843	0.066
843	0.066
844	0.065
844	0.065
845	0.065
845	0.065
845	0.064
846	0.064
846	0.064
847	0.064
847	0.064
848	0.064
848	0.064
848	0.065
849	0.065
849	0.065
850	0.065
850	0.065
851	0.065
851	0.065
851	0.065
852	0.064
852	0.065
853	0.065
853	0.065
854	0.065
854	0.066
854	0.066
855	0.066
855	0.067
856	0.067
856	0.067
857	0.067
857	0.067
857	0.067
858	0.067
858	0.067
859	0.067
859	0.066
860	0.066
860	0.066
860	0.066
861	0.066
861	0.065
862	0.064
862	0.064
863	0.063
863	0.063
863	0.063
864	0.062
864	0.062
865	0.062
865	0.062
866	0.062
866	0.062
866	0.063
867	0.064
867	0.064
868	0.065
868	0.066
869	0.066
869	0.066
869	0.066
870	0.065
870	0.064
871	0.063
871	0.062
872	0.061
872	0.06
872	0.059
873	0.058
873	0.057
874	0.057
874	0.056
875	0.057
875	0.057
875	0.057
876	0.057
876	0.057
877	0.057
877	0.057
878	0.057
878	0.056
878	0.056
879	0.056
879	0.055
880	0.055
880	0.054
881	0.054
881	0.054
881	0.054
882	0.054
882	0.055
883	0.055
883	0.056
884	0.057
884	0.057
884	0.058
885	0.058
885	0.058
886	0.059
886	0.059
887	0.059
887	0.059
887	0.058
888	0.058
888	0.058
889	0.058
889	0.058
890	0.059
890	0.059
890	0.059
891	0.059
891	0.06
892	0.06
892	0.06
893	0.061
893	0.061
893	0.062
894	0.062
894	0.062
895	0.062
895	0.062
895	0.062
896	0.062
896	0.062
897	0.063
897	0.063
898	0.063
898	0.063
898	0.063
899	0.064
899	0.064
900	0.064
900	0.065
901	0.065
901	0.064
901	0.064
902	0.064
902	0.064
903	0.064
903	0.063
904	0.062
904	0.061
904	0.061
905	0.06
905	0.059
906	0.058
906	0.058
907	0.057
907	0.056
907	0.056
908	0.057
908	0.057
909	0.057
909	0.058
910	0.058
910	0.059
910	0.06
911	0.061
911	0.061
912	0.062
912	0.063
913	0.064
913	0.064
913	0.065
914	0.065
914	0.065
915	0.065
915	0.065
916	0.064
916	0.063
916	0.063
917	0.062
917	0.061
918	0.061
918	0.06
918	0.059
919	0.058
919	0.058
920	0.058
920	0.058
921	0.057
921	0.057
921	0.057
922	0.057
922	0.056
923	0.056
923	0.056
924	0.056
924	0.055
924	0.055
925	0.055
925	0.054
926	0.054
926	0.053
927	0.052
927	0.052
927	0.051
928	0.051
928	0.051
929	0.051
929	0.052
930	0.052
930	0.053
930	0.054
931	0.055
931	0.057
932	0.058
932	0.059
933	0.06
933	0.061
933	0.062
934	0.062
934	0.062
935	0.062
935	0.062
935	0.061
936	0.061
936	0.061
937	0.061
937	0.061
938	0.061
938	0.061
938	0.061
939	0.061
939	0.062
940	0.062
940	0.061
941	0.061
941	0.061
941	0.061
942	0.06
942	0.06
943	0.059
943	0.058
944	0.057
944	0.057
944	0.057
945	0.057
945	0.057
946	0.057
946	0.056
946	0.056
947	0.055
947	0.055
948	0.054
948	0.054
949	0.053
949	0.053
949	0.053
950	0.052
950	0.052
951	0.052
951	0.052
952	0.051
952	0.051
952	0.051
953	0.051
953	0.051
954	0.05
954	0.05
955	0.049
955	0.049
955	0.049
956	0.049
956	0.049
957	0.05
957	0.05
957	0.05
958	0.05
958	0.05
959	0.05
959	0.049
960	0.049
960	0.048
960	0.048
961	0.047
961	0.046
962	0.045
962	0.045
963	0.045
963	0.045
963	0.045
964	0.045
964	0.045
965	0.046
965	0.047
966	0.048
966	0.049
966	0.05
967	0.05
967	0.05
968	0.051
968	0.051
968	0.051
969	0.05
969	0.05
970	0.05
970	0.049
971	0.048
971	0.048
971	0.047
972	0.047
972	0.047
973	0.047
973	0.047
974	0.047
974	0.047
974	0.047
975	0.048
975	0.049
976	0.049
976	0.05
976	0.051
977	0.051
977	0.051
978	0.051
978	0.052
979	0.052
979	0.052
979	0.052
980	0.052
980	0.052
981	0.052
981	0.052
982	0.052
982	0.053
982	0.053
983	0.053
983	0.053
984	0.053
984	0.053
984	0.053
985	0.053
985	0.052
986	0.051
986	0.049
987	0.048
987	0.047
987	0.046
988	0.045
988	0.044
989	0.043
989	0.042
990	0.042
990	0.042
990	0.042
991	0.043
991	0.043
992	0.044
992	0.044
992	0.044
993	0.045
993	0.045
994	0.045
994	0.044
995	0.044
995	0.044
995	0.044
996	0.044
996	0.043
997	0.043
997	0.044
997	0.044
998	0.044
998	0.045
999	0.046
999	0.047
1000	0.048
1000	0.049
1000	0.05
1001	0.051
1001	0.052
1002	0.052
1002	0.053
1003	0.053
1003	0.053
1003	0.053
1004	0.053
1004	0.053
1005	0.052
1005	0.052
1005	0.051
1006	0.05
1006	0.05
1007	0.049
1007	0.049
1008	0.049
1008	0.049
1008	0.049
1009	0.048
1009	0.049
1010	0.048
1010	0.049
1010	0.049
1011	0.049
1011	0.049
1012	0.049
1012	0.049
1013	0.049
1013	0.049
1013	0.049
1014	0.048
1014	0.047
1015	0.047
1015	0.046
1016	0.045
1016	0.044
1016	0.043
1017	0.042
1017	0.04
1018	0.039
1018	0.039
1018	0.038
1019	0.037
1019	0.036
1020	0.036
1020	0.035
1021	0.035
1021	0.035
1021	0.035
1022	0.035
1022	0.035
1023	0.034
1023	0.034
1023	0.033
1024	0.033
1024	0.032
1025	0.031
1025	0.031
1026	0.03
1026	0.029
1026	0.028
1027	0.028
1027	0.027
1028	0.027
1028	0.027
1028	0.026
1029	0.026
1029	0.027
1030	0.027
1030	0.027
1031	0.027
1031	0.028
1031	0.028
1032	0.029
1032	0.03
1033	0.03
1033	0.031
1033	0.031
1034	0.031
1034	0.031
1035	0.031
1035	0.03
1036	0.029
1036	0.029
1036	0.029
1037	0.029
1037	0.029
1038	0.029
1038	0.029
1039	0.029
1039	0.03
1039	0.031
1040	0.031
1040	0.032
1041	0.032
1041	0.031
1041	0.031
1042	0.031
1042	0.03
1043	0.03
1043	0.029
1044	0.028
1044	0.027
1044	0.027
1045	0.026
1045	0.025
1046	0.025
1046	0.024
1046	0.025
1047	0.024
1047	0.025
1048	0.025
1048	0.025
1049	0.024
1049	0.023
1049	0.023
1050	0.022
1050	0.021
1051	0.021
1051	0.02
1051	0.02
1052	0.019
1052	0.018
1053	0.018
1053	0.017
1053	0.017
1054	0.017
1054	0.017
1055	0.018
1055	0.017
1056	0.017
1056	0.017
1056	0.016
1057	0.016
1057	0.016
1058	0.015
1058	0.015
1058	0.015
1059	0.015
1059	0.014
1060	0.014
1060	0.014
1061	0.014
1061	0.015
1061	0.015
1062	0.015
1062	0.014
1063	0.015
1063	0.014
1063	0.014
1064	0.015
1064	0.015
1065	0.016
1065	0.016
1066	0.016
1066	0.016
1066	0.017
1067	0.018
1067	0.018
1068	0.019
1068	0.019
1068	0.019
1069	0.02
1069	0.019
1070	0.019
1070	0.019
1071	0.02
1071	0.02
1071	0.019
1072	0.019
1072	0.019
1073	0.019
1073	0.019
1073	0.019
1074	0.019
1074	0.019
1075	0.017
1075	0.017
1076	0.016
1076	0.015
1076	0.014
1077	0.014
1077	0.013
1078	0.013
1078	0.013
1078	0.013
1079	0.013
1079	0.014
1080	0.015
1080	0.015
1080	0.015
1081	0.016
1081	0.016
1082	0.016
1082	0.016
1083	0.016
1083	0.016
1083	0.016
1084	0.016
1084	0.016
1085	0.016
1085	0.017
1085	0.018
1086	0.019
1086	0.019
1087	0.02
1087	0.02
1088	0.02
1088	0.021
1088	0.022
1089	0.021
1089	0.022
1090	0.022
1090	0.023
1090	0.023
1091	0.024
1091	0.024
1092	0.025
1092	0.027
1092	0.028
1093	0.029
1093	0.031
1094	0.032
1094	0.033
1095	0.033
1095	0.034
1095	0.037
1096	0.038
1096	0.039
1097	0.042
1097	0.043
1097	0.045
1098	0.045
1098	0.047
1099	0.049
1099	0.052
1100	0.055
1100	0.057
1100	0.06
1101	0.063
1101	0.065
1102	0.068
1102	0.073
1102	0.079
1103	0.084
1103	0.089
1104	0.094
1104	0.101
1104	0.109
1105	0.118
1105	0.125
1106	0.133
1106	0.144
1107	0.152
1107	0.166
1107	0.184
1108	0.243
1108	0.329
1109	0.465
1109	0.733
1109	1.076
1110	-0
1110	-0
1111	-0
1111	-0
