Data from 15c-2a_Absorbance__583__03292.txt Node

Date: Tue Jan 16 14:20:42 CET 2024
User: Marek
Spectrometer: MAYP115816
Trigger mode: 0
Integration Time (sec): 2.000000E-1
Scans to average: 10
Electric dark correction enabled: true
Nonlinearity correction enabled: true
Boxcar width: 5
XAxis mode: Wavelengths
Number of Pixels in Spectrum: 2068
>>>>>Begin Spectral Data<<<<<
199	-1.612
199	-1.433
200	-1.305
200	-1.191
201	-1.121
201	-1.073
202	-1.004
202	-0.951
203	-0.91
203	-0.869
204	-0.844
204	-0.819
205	-0.8
205	-0.789
205	-0.787
206	-0.783
206	-0.781
207	-0.778
207	-0.778
208	-0.774
208	-0.774
209	-0.769
209	-0.769
210	-0.769
210	-0.766
211	-0.766
211	-0.765
212	-0.765
212	-0.765
213	-0.764
213	-0.764
213	-0.765
214	-0.763
214	-0.762
215	-0.761
215	-0.762
216	-0.759
216	-0.759
217	-0.756
217	-0.754
218	-0.75
218	-0.746
219	-0.742
219	-0.741
220	-0.74
220	-0.739
221	-0.735
221	-0.733
221	-0.728
222	-0.724
222	-0.72
223	-0.715
223	-0.71
224	-0.705
224	-0.697
225	-0.688
225	-0.679
226	-0.67
226	-0.661
227	-0.648
227	-0.637
228	-0.621
228	-0.606
229	-0.585
229	-0.563
229	-0.538
230	-0.51
230	-0.48
231	-0.446
231	-0.41
232	-0.374
232	-0.333
233	-0.29
233	-0.247
234	-0.205
234	-0.161
235	-0.119
235	-0.078
236	-0.037
236	0.002
236	0.041
237	0.077
237	0.11
238	0.141
238	0.17
239	0.198
239	0.223
240	0.245
240	0.266
241	0.285
241	0.302
242	0.317
242	0.331
243	0.345
243	0.357
243	0.367
244	0.377
244	0.386
245	0.394
245	0.401
246	0.408
246	0.414
247	0.42
247	0.426
248	0.432
248	0.437
249	0.442
249	0.446
250	0.45
250	0.453
250	0.457
251	0.46
251	0.463
252	0.466
252	0.469
253	0.471
253	0.472
254	0.474
254	0.477
255	0.478
255	0.48
256	0.482
256	0.483
257	0.484
257	0.485
258	0.486
258	0.487
258	0.487
259	0.488
259	0.488
260	0.488
260	0.488
261	0.488
261	0.488
262	0.488
262	0.487
263	0.487
263	0.486
264	0.486
264	0.485
265	0.485
265	0.483
265	0.482
266	0.481
266	0.48
267	0.478
267	0.477
268	0.475
268	0.474
269	0.472
269	0.47
270	0.468
270	0.466
271	0.464
271	0.462
272	0.46
272	0.458
272	0.456
273	0.454
273	0.452
274	0.45
274	0.448
275	0.445
275	0.443
276	0.441
276	0.439
277	0.436
277	0.434
278	0.431
278	0.429
278	0.426
279	0.423
279	0.42
280	0.418
280	0.415
281	0.413
281	0.411
282	0.409
282	0.406
283	0.404
283	0.402
284	0.4
284	0.399
285	0.397
285	0.395
285	0.393
286	0.391
286	0.389
287	0.387
287	0.386
288	0.384
288	0.382
289	0.381
289	0.379
290	0.377
290	0.375
291	0.374
291	0.372
292	0.371
292	0.369
292	0.367
293	0.366
293	0.365
294	0.363
294	0.362
295	0.361
295	0.36
296	0.358
296	0.357
297	0.356
297	0.355
298	0.354
298	0.353
298	0.352
299	0.351
299	0.35
300	0.349
300	0.348
301	0.348
301	0.347
302	0.346
302	0.345
303	0.344
303	0.343
304	0.342
304	0.341
305	0.341
305	0.34
305	0.339
306	0.338
306	0.337
307	0.336
307	0.335
308	0.334
308	0.333
309	0.332
309	0.331
310	0.33
310	0.33
311	0.329
311	0.328
311	0.327
312	0.326
312	0.326
313	0.325
313	0.324
314	0.323
314	0.322
315	0.321
315	0.321
316	0.32
316	0.319
317	0.318
317	0.317
318	0.316
318	0.316
318	0.315
319	0.314
319	0.313
320	0.312
320	0.311
321	0.31
321	0.309
322	0.308
322	0.308
323	0.307
323	0.306
324	0.305
324	0.304
324	0.303
325	0.303
325	0.302
326	0.301
326	0.301
327	0.3
327	0.299
328	0.298
328	0.297
329	0.296
329	0.296
330	0.295
330	0.294
330	0.294
331	0.293
331	0.292
332	0.291
332	0.291
333	0.29
333	0.289
334	0.289
334	0.288
335	0.287
335	0.286
336	0.286
336	0.285
336	0.284
337	0.284
337	0.283
338	0.282
338	0.281
339	0.281
339	0.28
340	0.28
340	0.279
341	0.279
341	0.278
342	0.278
342	0.277
342	0.277
343	0.276
343	0.276
344	0.275
344	0.275
345	0.275
345	0.274
346	0.273
346	0.273
347	0.272
347	0.272
348	0.272
348	0.272
348	0.271
349	0.271
349	0.27
350	0.27
350	0.269
351	0.269
351	0.269
352	0.268
352	0.268
353	0.267
353	0.267
354	0.266
354	0.265
354	0.265
355	0.264
355	0.263
356	0.263
356	0.262
357	0.262
357	0.261
358	0.261
358	0.261
359	0.261
359	0.261
360	0.261
360	0.261
360	0.262
361	0.262
361	0.262
362	0.262
362	0.263
363	0.263
363	0.263
364	0.262
364	0.262
365	0.262
365	0.261
366	0.261
366	0.261
366	0.261
367	0.261
367	0.26
368	0.26
368	0.26
369	0.259
369	0.259
370	0.259
370	0.259
371	0.258
371	0.258
372	0.258
372	0.257
372	0.257
373	0.257
373	0.257
374	0.257
374	0.257
375	0.256
375	0.256
376	0.256
376	0.256
377	0.255
377	0.255
378	0.255
378	0.255
378	0.255
379	0.256
379	0.255
380	0.255
380	0.255
381	0.255
381	0.255
382	0.255
382	0.254
383	0.254
383	0.254
383	0.253
384	0.253
384	0.253
385	0.252
385	0.253
386	0.252
386	0.252
387	0.252
387	0.252
388	0.252
388	0.251
389	0.251
389	0.251
389	0.251
390	0.251
390	0.25
391	0.25
391	0.25
392	0.25
392	0.25
393	0.25
393	0.25
394	0.25
394	0.25
394	0.249
395	0.249
395	0.249
396	0.249
396	0.249
397	0.249
397	0.249
398	0.249
398	0.249
399	0.248
399	0.248
400	0.248
400	0.248
400	0.247
401	0.247
401	0.246
402	0.246
402	0.246
403	0.245
403	0.245
404	0.245
404	0.245
405	0.245
405	0.245
405	0.245
406	0.244
406	0.244
407	0.244
407	0.244
408	0.244
408	0.244
409	0.243
409	0.243
410	0.243
410	0.243
411	0.244
411	0.243
411	0.243
412	0.242
412	0.242
413	0.242
413	0.242
414	0.241
414	0.241
415	0.241
415	0.24
416	0.24
416	0.24
416	0.24
417	0.239
417	0.239
418	0.239
418	0.24
419	0.24
419	0.24
420	0.24
420	0.241
421	0.241
421	0.241
421	0.241
422	0.241
422	0.242
423	0.242
423	0.241
424	0.241
424	0.24
425	0.24
425	0.239
426	0.239
426	0.238
427	0.238
427	0.238
427	0.239
428	0.239
428	0.239
429	0.24
429	0.24
430	0.24
430	0.24
431	0.24
431	0.24
432	0.24
432	0.239
432	0.239
433	0.238
433	0.238
434	0.237
434	0.237
435	0.237
435	0.237
436	0.237
436	0.237
437	0.237
437	0.237
437	0.237
438	0.237
438	0.237
439	0.237
439	0.237
440	0.236
440	0.237
441	0.237
441	0.237
442	0.237
442	0.237
442	0.238
443	0.238
443	0.239
444	0.239
444	0.239
445	0.24
445	0.24
446	0.24
446	0.24
447	0.24
447	0.24
447	0.24
448	0.24
448	0.24
449	0.239
449	0.239
450	0.239
450	0.239
451	0.239
451	0.239
452	0.239
452	0.239
452	0.239
453	0.239
453	0.238
454	0.238
454	0.238
455	0.237
455	0.237
456	0.237
456	0.237
457	0.237
457	0.237
458	0.237
458	0.237
458	0.238
459	0.238
459	0.239
460	0.238
460	0.238
461	0.238
461	0.239
462	0.239
462	0.239
463	0.24
463	0.24
463	0.241
464	0.241
464	0.241
465	0.241
465	0.242
466	0.242
466	0.242
467	0.243
467	0.242
467	0.242
468	0.242
468	0.241
469	0.241
469	0.242
470	0.242
470	0.242
471	0.242
471	0.242
472	0.242
472	0.243
472	0.243
473	0.244
473	0.245
474	0.245
474	0.246
475	0.247
475	0.248
476	0.248
476	0.249
477	0.25
477	0.251
477	0.251
478	0.252
478	0.253
479	0.253
479	0.254
480	0.255
480	0.256
481	0.257
481	0.257
482	0.258
482	0.259
482	0.26
483	0.262
483	0.264
484	0.266
484	0.267
485	0.269
485	0.27
486	0.271
486	0.272
487	0.273
487	0.275
487	0.275
488	0.276
488	0.276
489	0.277
489	0.278
490	0.279
490	0.279
491	0.28
491	0.282
492	0.283
492	0.284
492	0.285
493	0.287
493	0.288
494	0.291
494	0.293
495	0.295
495	0.296
496	0.298
496	0.299
496	0.301
497	0.303
497	0.304
498	0.305
498	0.307
499	0.308
499	0.309
500	0.311
500	0.313
501	0.315
501	0.316
501	0.318
502	0.32
502	0.322
503	0.324
503	0.326
504	0.328
504	0.329
505	0.331
505	0.333
506	0.334
506	0.336
506	0.338
507	0.339
507	0.341
508	0.342
508	0.344
509	0.345
509	0.347
510	0.348
510	0.349
511	0.35
511	0.352
511	0.353
512	0.354
512	0.355
513	0.356
513	0.357
514	0.358
514	0.359
515	0.359
515	0.36
515	0.36
516	0.36
516	0.361
517	0.362
517	0.362
518	0.362
518	0.362
519	0.362
519	0.362
520	0.361
520	0.361
520	0.361
521	0.36
521	0.359
522	0.358
522	0.357
523	0.357
523	0.357
524	0.358
524	0.358
524	0.359
525	0.36
525	0.361
526	0.362
526	0.363
527	0.364
527	0.365
528	0.365
528	0.365
529	0.365
529	0.365
529	0.364
530	0.364
530	0.363
531	0.363
531	0.362
532	0.361
532	0.36
533	0.359
533	0.359
533	0.358
534	0.356
534	0.355
535	0.353
535	0.352
536	0.351
536	0.35
537	0.348
537	0.347
538	0.345
538	0.343
538	0.341
539	0.339
539	0.338
540	0.336
540	0.334
541	0.332
541	0.33
542	0.327
542	0.325
542	0.323
543	0.321
543	0.319
544	0.317
544	0.314
545	0.312
545	0.311
546	0.309
546	0.306
547	0.304
547	0.301
547	0.298
548	0.295
548	0.293
549	0.29
549	0.287
550	0.285
550	0.282
551	0.279
551	0.276
551	0.274
552	0.272
552	0.27
553	0.268
553	0.266
554	0.264
554	0.262
555	0.259
555	0.256
556	0.254
556	0.251
556	0.248
557	0.245
557	0.243
558	0.24
558	0.238
559	0.235
559	0.233
560	0.231
560	0.23
560	0.228
561	0.227
561	0.226
562	0.224
562	0.222
563	0.22
563	0.218
564	0.215
564	0.212
564	0.21
565	0.208
565	0.206
566	0.203
566	0.201
567	0.2
567	0.199
568	0.198
568	0.197
568	0.196
569	0.196
569	0.195
570	0.193
570	0.192
571	0.191
571	0.19
572	0.188
572	0.187
573	0.185
573	0.183
573	0.181
574	0.18
574	0.179
575	0.178
575	0.178
576	0.177
576	0.175
577	0.173
577	0.171
577	0.17
578	0.17
578	0.17
579	0.17
579	0.171
580	0.169
580	0.166
581	0.163
581	0.162
581	0.162
582	0.162
582	0.162
583	0.162
583	0.16
584	0.157
584	0.154
585	0.153
585	0.153
585	0.153
586	0.153
586	0.152
587	0.151
587	0.149
588	0.147
588	0.146
589	0.146
589	0.145
590	0.145
590	0.144
590	0.145
591	0.145
591	0.144
592	0.142
592	0.141
593	0.14
593	0.139
594	0.138
594	0.136
594	0.136
595	0.135
595	0.134
596	0.133
596	0.134
597	0.137
597	0.137
598	0.138
598	0.139
598	0.139
599	0.14
599	0.139
600	0.139
600	0.138
601	0.137
601	0.136
602	0.134
602	0.134
602	0.132
603	0.132
603	0.133
604	0.133
604	0.133
605	0.134
605	0.135
606	0.134
606	0.133
606	0.133
607	0.133
607	0.132
608	0.132
608	0.13
609	0.13
609	0.13
610	0.128
610	0.127
610	0.128
611	0.129
611	0.13
612	0.131
612	0.132
613	0.133
613	0.134
614	0.134
614	0.134
614	0.134
615	0.134
615	0.134
616	0.134
616	0.133
617	0.133
617	0.132
618	0.132
618	0.132
618	0.133
619	0.134
619	0.135
620	0.137
620	0.138
621	0.139
621	0.14
622	0.14
622	0.141
622	0.141
623	0.142
623	0.143
624	0.144
624	0.144
625	0.144
625	0.145
626	0.146
626	0.146
626	0.147
627	0.148
627	0.148
628	0.149
628	0.149
629	0.15
629	0.15
630	0.15
630	0.15
630	0.151
631	0.152
631	0.153
632	0.154
632	0.155
633	0.156
633	0.157
634	0.159
634	0.161
634	0.163
635	0.164
635	0.165
636	0.167
636	0.168
637	0.169
637	0.171
638	0.173
638	0.175
638	0.177
639	0.178
639	0.18
640	0.183
640	0.185
641	0.188
641	0.19
642	0.192
642	0.195
642	0.197
643	0.198
643	0.2
644	0.202
644	0.204
645	0.206
645	0.208
646	0.21
646	0.213
646	0.216
647	0.22
647	0.222
648	0.225
648	0.228
649	0.231
649	0.234
650	0.237
650	0.24
650	0.243
651	0.245
651	0.248
652	0.251
652	0.254
653	0.258
653	0.267
653	0.269
654	0.213
654	0.172
655	0.176
655	0.178
656	0.18
656	0.182
657	0.184
657	0.185
657	0.186
658	0.183
658	0.178
659	0.226
659	0.293
660	0.3
660	0.303
661	0.305
661	0.308
661	0.312
662	0.315
662	0.319
663	0.323
663	0.326
664	0.329
664	0.333
665	0.336
665	0.339
665	0.343
666	0.346
666	0.349
667	0.352
667	0.356
668	0.359
668	0.363
669	0.366
669	0.37
669	0.375
670	0.378
670	0.382
671	0.384
671	0.387
672	0.389
672	0.391
672	0.392
673	0.394
673	0.396
674	0.398
674	0.399
675	0.401
675	0.403
676	0.406
676	0.408
676	0.41
677	0.412
677	0.414
678	0.416
678	0.417
679	0.419
679	0.42
680	0.422
680	0.424
680	0.424
681	0.425
681	0.427
682	0.428
682	0.43
683	0.431
683	0.433
684	0.434
684	0.435
684	0.435
685	0.435
685	0.436
686	0.437
686	0.437
687	0.437
687	0.437
687	0.437
688	0.436
688	0.436
689	0.436
689	0.436
690	0.435
690	0.434
691	0.433
691	0.432
691	0.431
692	0.43
692	0.429
693	0.429
693	0.428
694	0.427
694	0.426
695	0.427
695	0.427
695	0.427
696	0.425
696	0.425
697	0.424
697	0.422
698	0.421
698	0.418
698	0.416
699	0.414
699	0.411
700	0.407
700	0.405
701	0.403
701	0.401
702	0.399
702	0.396
702	0.394
703	0.392
703	0.39
704	0.388
704	0.386
705	0.384
705	0.381
705	0.378
706	0.376
706	0.373
707	0.37
707	0.367
708	0.365
708	0.363
709	0.361
709	0.358
709	0.355
710	0.353
710	0.351
711	0.349
711	0.347
712	0.345
712	0.343
713	0.341
713	0.338
713	0.335
714	0.332
714	0.329
715	0.326
715	0.323
716	0.32
716	0.317
716	0.313
717	0.31
717	0.308
718	0.305
718	0.302
719	0.3
719	0.298
720	0.296
720	0.294
720	0.291
721	0.288
721	0.286
722	0.283
722	0.28
723	0.277
723	0.275
723	0.272
724	0.268
724	0.265
725	0.262
725	0.259
726	0.256
726	0.254
727	0.251
727	0.249
727	0.247
728	0.245
728	0.243
729	0.242
729	0.241
730	0.239
730	0.237
730	0.236
731	0.234
731	0.233
732	0.232
732	0.23
733	0.229
733	0.227
734	0.225
734	0.223
734	0.222
735	0.221
735	0.219
736	0.217
736	0.215
737	0.214
737	0.212
737	0.21
738	0.207
738	0.204
739	0.202
739	0.2
740	0.198
740	0.197
741	0.196
741	0.194
741	0.191
742	0.189
742	0.187
743	0.186
743	0.185
744	0.183
744	0.182
744	0.18
745	0.178
745	0.176
746	0.173
746	0.172
747	0.17
747	0.168
748	0.166
748	0.164
748	0.162
749	0.159
749	0.158
750	0.156
750	0.154
751	0.152
751	0.151
751	0.149
752	0.147
752	0.145
753	0.144
753	0.143
754	0.142
754	0.14
754	0.14
755	0.138
755	0.137
756	0.135
756	0.133
757	0.132
757	0.131
758	0.13
758	0.128
758	0.127
759	0.125
759	0.122
760	0.12
760	0.117
761	0.116
761	0.116
761	0.114
762	0.112
762	0.112
763	0.11
763	0.108
764	0.106
764	0.104
764	0.102
765	0.101
765	0.099
766	0.098
766	0.097
767	0.096
767	0.094
768	0.091
768	0.09
768	0.089
769	0.088
769	0.088
770	0.086
770	0.085
771	0.082
771	0.08
771	0.078
772	0.076
772	0.074
773	0.072
773	0.07
774	0.068
774	0.065
775	0.063
775	0.061
775	0.059
776	0.056
776	0.054
777	0.051
777	0.048
778	0.045
778	0.042
778	0.039
779	0.036
779	0.034
780	0.03
780	0.027
781	0.024
781	0.02
781	0.015
782	0.01
782	0.005
783	-0.001
783	-0.007
784	-0.014
784	-0.021
784	-0.028
785	-0.035
785	-0.043
786	-0.049
786	-0.054
787	-0.055
787	-0.058
788	-0.062
788	-0.067
788	-0.071
789	-0.076
789	-0.077
790	-0.077
790	-0.078
791	-0.079
791	-0.081
791	-0.083
792	-0.077
792	-0.068
793	-0.062
793	-0.059
794	-0.057
794	-0.059
794	-0.062
795	-0.064
795	-0.064
796	-0.064
796	-0.066
797	-0.074
797	-0.083
797	-0.089
798	-0.094
798	-0.097
799	-0.098
799	-0.098
800	-0.098
800	-0.1
801	-0.103
801	-0.104
801	-0.105
802	-0.107
802	-0.108
803	-0.109
803	-0.11
804	-0.109
804	-0.104
804	-0.098
805	-0.094
805	-0.092
806	-0.09
806	-0.089
807	-0.088
807	-0.087
807	-0.087
808	-0.086
808	-0.086
809	-0.091
809	-0.095
810	-0.098
810	-0.1
810	-0.103
811	-0.106
811	-0.106
812	-0.102
812	-0.099
813	-0.099
813	-0.1
813	-0.101
814	-0.102
814	-0.101
815	-0.099
815	-0.096
816	-0.094
816	-0.094
817	-0.095
817	-0.094
817	-0.09
818	-0.083
818	-0.075
819	-0.066
819	-0.058
820	-0.052
820	-0.045
820	-0.037
821	-0.028
821	-0.021
822	-0.014
822	-0.008
823	-0.003
823	0.001
823	0.004
824	0.008
824	0.013
825	0.017
825	0.021
826	0.025
826	0.027
826	0.03
827	0.033
827	0.035
828	0.037
828	0.039
829	0.041
829	0.043
829	0.045
830	0.047
830	0.049
831	0.052
831	0.054
832	0.055
832	0.057
832	0.058
833	0.059
833	0.06
834	0.061
834	0.061
835	0.061
835	0.061
835	0.061
836	0.061
836	0.062
837	0.062
837	0.062
838	0.063
838	0.063
839	0.063
839	0.063
839	0.063
840	0.063
840	0.064
841	0.064
841	0.064
842	0.064
842	0.065
842	0.065
843	0.064
843	0.064
844	0.064
844	0.064
845	0.064
845	0.064
845	0.064
846	0.064
846	0.064
847	0.064
847	0.064
848	0.064
848	0.064
848	0.065
849	0.065
849	0.065
850	0.065
850	0.064
851	0.065
851	0.065
851	0.064
852	0.064
852	0.065
853	0.065
853	0.065
854	0.065
854	0.066
854	0.067
855	0.067
855	0.068
856	0.068
856	0.068
857	0.068
857	0.068
857	0.068
858	0.068
858	0.067
859	0.067
859	0.066
860	0.066
860	0.065
860	0.065
861	0.064
861	0.064
862	0.063
862	0.062
863	0.061
863	0.061
863	0.06
864	0.06
864	0.059
865	0.059
865	0.059
866	0.059
866	0.059
866	0.06
867	0.06
867	0.061
868	0.062
868	0.063
869	0.063
869	0.063
869	0.063
870	0.063
870	0.062
871	0.062
871	0.061
872	0.06
872	0.059
872	0.058
873	0.057
873	0.056
874	0.055
874	0.054
875	0.054
875	0.054
875	0.054
876	0.054
876	0.055
877	0.055
877	0.055
878	0.054
878	0.054
878	0.054
879	0.054
879	0.053
880	0.053
880	0.052
881	0.052
881	0.052
881	0.052
882	0.052
882	0.053
883	0.053
883	0.054
884	0.054
884	0.055
884	0.055
885	0.055
885	0.056
886	0.056
886	0.056
887	0.056
887	0.056
887	0.056
888	0.055
888	0.055
889	0.055
889	0.056
890	0.056
890	0.057
890	0.057
891	0.057
891	0.057
892	0.058
892	0.058
893	0.059
893	0.059
893	0.06
894	0.06
894	0.061
895	0.061
895	0.061
895	0.061
896	0.061
896	0.062
897	0.062
897	0.063
898	0.063
898	0.063
898	0.063
899	0.064
899	0.064
900	0.064
900	0.064
901	0.064
901	0.064
901	0.064
902	0.064
902	0.063
903	0.063
903	0.062
904	0.062
904	0.061
904	0.06
905	0.059
905	0.059
906	0.058
906	0.057
907	0.056
907	0.055
907	0.055
908	0.055
908	0.055
909	0.055
909	0.056
910	0.056
910	0.057
910	0.057
911	0.058
911	0.059
912	0.06
912	0.061
913	0.061
913	0.062
913	0.062
914	0.063
914	0.063
915	0.063
915	0.062
916	0.062
916	0.061
916	0.061
917	0.06
917	0.059
918	0.058
918	0.058
918	0.057
919	0.056
919	0.055
920	0.055
920	0.055
921	0.054
921	0.054
921	0.053
922	0.053
922	0.053
923	0.053
923	0.052
924	0.052
924	0.052
924	0.052
925	0.051
925	0.051
926	0.051
926	0.05
927	0.05
927	0.049
927	0.049
928	0.048
928	0.048
929	0.049
929	0.049
930	0.05
930	0.051
930	0.052
931	0.053
931	0.055
932	0.056
932	0.057
933	0.058
933	0.059
933	0.06
934	0.06
934	0.06
935	0.059
935	0.059
935	0.059
936	0.059
936	0.059
937	0.059
937	0.059
938	0.059
938	0.059
938	0.059
939	0.059
939	0.06
940	0.06
940	0.06
941	0.06
941	0.06
941	0.06
942	0.06
942	0.06
943	0.059
943	0.058
944	0.058
944	0.058
944	0.057
945	0.057
945	0.057
946	0.057
946	0.056
946	0.056
947	0.055
947	0.055
948	0.054
948	0.054
949	0.053
949	0.053
949	0.052
950	0.052
950	0.052
951	0.051
951	0.051
952	0.05
952	0.05
952	0.05
953	0.049
953	0.049
954	0.048
954	0.047
955	0.047
955	0.046
955	0.046
956	0.047
956	0.047
957	0.047
957	0.047
957	0.047
958	0.047
958	0.047
959	0.047
959	0.047
960	0.047
960	0.046
960	0.045
961	0.045
961	0.044
962	0.043
962	0.043
963	0.043
963	0.043
963	0.043
964	0.044
964	0.044
965	0.045
965	0.046
966	0.047
966	0.048
966	0.049
967	0.05
967	0.051
968	0.051
968	0.051
968	0.051
969	0.05
969	0.05
970	0.049
970	0.049
971	0.048
971	0.048
971	0.047
972	0.047
972	0.047
973	0.047
973	0.047
974	0.048
974	0.048
974	0.048
975	0.049
975	0.05
976	0.05
976	0.051
976	0.052
977	0.052
977	0.052
978	0.052
978	0.052
979	0.052
979	0.052
979	0.052
980	0.052
980	0.052
981	0.052
981	0.052
982	0.053
982	0.053
982	0.054
983	0.054
983	0.055
984	0.055
984	0.055
984	0.055
985	0.055
985	0.054
986	0.053
986	0.052
987	0.05
987	0.049
987	0.048
988	0.046
988	0.045
989	0.044
989	0.044
990	0.043
990	0.043
990	0.043
991	0.043
991	0.044
992	0.044
992	0.044
992	0.044
993	0.045
993	0.045
994	0.044
994	0.044
995	0.044
995	0.044
995	0.044
996	0.043
996	0.043
997	0.043
997	0.043
997	0.043
998	0.044
998	0.045
999	0.046
999	0.046
1000	0.047
1000	0.048
1000	0.049
1001	0.05
1001	0.051
1002	0.052
1002	0.052
1003	0.052
1003	0.053
1003	0.053
1004	0.053
1004	0.052
1005	0.052
1005	0.051
1005	0.05
1006	0.05
1006	0.049
1007	0.049
1007	0.049
1008	0.048
1008	0.048
1008	0.047
1009	0.047
1009	0.048
1010	0.047
1010	0.048
1010	0.048
1011	0.048
1011	0.048
1012	0.048
1012	0.048
1013	0.048
1013	0.048
1013	0.048
1014	0.047
1014	0.047
1015	0.046
1015	0.045
1016	0.044
1016	0.043
1016	0.041
1017	0.04
1017	0.039
1018	0.038
1018	0.038
1018	0.037
1019	0.036
1019	0.036
1020	0.036
1020	0.035
1021	0.035
1021	0.035
1021	0.035
1022	0.035
1022	0.035
1023	0.035
1023	0.035
1023	0.034
1024	0.034
1024	0.033
1025	0.032
1025	0.031
1026	0.031
1026	0.03
1026	0.029
1027	0.028
1027	0.028
1028	0.027
1028	0.027
1028	0.027
1029	0.027
1029	0.027
1030	0.027
1030	0.027
1031	0.028
1031	0.028
1031	0.029
1032	0.029
1032	0.03
1033	0.03
1033	0.03
1033	0.031
1034	0.03
1034	0.03
1035	0.03
1035	0.029
1036	0.029
1036	0.028
1036	0.028
1037	0.028
1037	0.028
1038	0.028
1038	0.028
1039	0.029
1039	0.029
1039	0.03
1040	0.03
1040	0.031
1041	0.031
1041	0.031
1041	0.03
1042	0.03
1042	0.029
1043	0.028
1043	0.028
1044	0.027
1044	0.026
1044	0.026
1045	0.025
1045	0.024
1046	0.024
1046	0.024
1046	0.024
1047	0.024
1047	0.024
1048	0.024
1048	0.024
1049	0.023
1049	0.023
1049	0.022
1050	0.021
1050	0.02
1051	0.02
1051	0.019
1051	0.019
1052	0.018
1052	0.018
1053	0.017
1053	0.016
1053	0.016
1054	0.016
1054	0.016
1055	0.016
1055	0.016
1056	0.016
1056	0.015
1056	0.015
1057	0.014
1057	0.014
1058	0.014
1058	0.013
1058	0.013
1059	0.013
1059	0.012
1060	0.012
1060	0.012
1061	0.012
1061	0.012
1061	0.012
1062	0.012
1062	0.012
1063	0.012
1063	0.012
1063	0.011
1064	0.012
1064	0.012
1065	0.013
1065	0.013
1066	0.013
1066	0.013
1066	0.014
1067	0.015
1067	0.015
1068	0.016
1068	0.016
1068	0.017
1069	0.017
1069	0.017
1070	0.017
1070	0.017
1071	0.017
1071	0.018
1071	0.017
1072	0.017
1072	0.017
1073	0.017
1073	0.017
1073	0.016
1074	0.016
1074	0.015
1075	0.014
1075	0.013
1076	0.012
1076	0.012
1076	0.011
1077	0.01
1077	0.01
1078	0.009
1078	0.01
1078	0.01
1079	0.01
1079	0.011
1080	0.011
1080	0.012
1080	0.012
1081	0.012
1081	0.013
1082	0.013
1082	0.013
1083	0.013
1083	0.012
1083	0.013
1084	0.013
1084	0.014
1085	0.014
1085	0.015
1085	0.015
1086	0.015
1086	0.015
1087	0.016
1087	0.017
1088	0.017
1088	0.017
1088	0.018
1089	0.017
1089	0.018
1090	0.018
1090	0.019
1090	0.02
1091	0.02
1091	0.021
1092	0.022
1092	0.024
1092	0.024
1093	0.025
1093	0.027
1094	0.028
1094	0.028
1095	0.028
1095	0.029
1095	0.031
1096	0.032
1096	0.033
1097	0.035
1097	0.036
1097	0.038
1098	0.038
1098	0.039
1099	0.042
1099	0.043
1100	0.046
1100	0.049
1100	0.05
1101	0.053
1101	0.055
1102	0.059
1102	0.062
1102	0.067
1103	0.072
1103	0.077
1104	0.083
1104	0.087
1104	0.094
1105	0.102
1105	0.108
1106	0.114
1106	0.123
1107	0.131
1107	0.146
1107	0.162
1108	0.215
1108	0.291
1109	0.408
1109	0.625
1109	0.856
1110	-0
1110	-0
1111	-0
1111	-0
