Data from 15c-2a_Absorbance__59__02768.txt Node

Date: Tue Jan 16 14:03:14 CET 2024
User: Marek
Spectrometer: MAYP115816
Trigger mode: 0
Integration Time (sec): 2.000000E-1
Scans to average: 10
Electric dark correction enabled: true
Nonlinearity correction enabled: true
Boxcar width: 5
XAxis mode: Wavelengths
Number of Pixels in Spectrum: 2068
>>>>>Begin Spectral Data<<<<<
199	-1.675
199	-1.494
200	-1.365
200	-1.25
201	-1.18
201	-1.131
202	-1.061
202	-1.005
203	-0.963
203	-0.92
204	-0.896
204	-0.872
205	-0.853
205	-0.842
205	-0.84
206	-0.836
206	-0.833
207	-0.831
207	-0.831
208	-0.827
208	-0.827
209	-0.822
209	-0.822
210	-0.821
210	-0.819
211	-0.818
211	-0.817
212	-0.817
212	-0.816
213	-0.815
213	-0.814
213	-0.816
214	-0.814
214	-0.813
215	-0.812
215	-0.813
216	-0.81
216	-0.81
217	-0.807
217	-0.805
218	-0.802
218	-0.797
219	-0.792
219	-0.791
220	-0.79
220	-0.788
221	-0.784
221	-0.783
221	-0.779
222	-0.774
222	-0.769
223	-0.764
223	-0.76
224	-0.755
224	-0.747
225	-0.738
225	-0.729
226	-0.721
226	-0.711
227	-0.698
227	-0.687
228	-0.672
228	-0.657
229	-0.637
229	-0.613
229	-0.588
230	-0.56
230	-0.529
231	-0.495
231	-0.458
232	-0.421
232	-0.38
233	-0.338
233	-0.294
234	-0.251
234	-0.207
235	-0.164
235	-0.122
236	-0.081
236	-0.04
236	-0.002
237	0.035
237	0.07
238	0.102
238	0.132
239	0.16
239	0.186
240	0.21
240	0.231
241	0.251
241	0.269
242	0.285
242	0.301
243	0.314
243	0.327
243	0.338
244	0.349
244	0.359
245	0.367
245	0.375
246	0.383
246	0.39
247	0.396
247	0.402
248	0.408
248	0.413
249	0.418
249	0.422
250	0.426
250	0.429
250	0.433
251	0.436
251	0.44
252	0.443
252	0.446
253	0.448
253	0.45
254	0.453
254	0.455
255	0.456
255	0.459
256	0.46
256	0.462
257	0.463
257	0.464
258	0.464
258	0.466
258	0.466
259	0.467
259	0.467
260	0.468
260	0.468
261	0.467
261	0.467
262	0.467
262	0.467
263	0.467
263	0.466
264	0.466
264	0.465
265	0.464
265	0.463
265	0.462
266	0.462
266	0.46
267	0.459
267	0.458
268	0.456
268	0.454
269	0.453
269	0.451
270	0.45
270	0.448
271	0.446
271	0.444
272	0.442
272	0.44
272	0.439
273	0.437
273	0.435
274	0.433
274	0.431
275	0.429
275	0.427
276	0.425
276	0.423
277	0.42
277	0.418
278	0.415
278	0.413
278	0.411
279	0.408
279	0.405
280	0.403
280	0.4
281	0.398
281	0.396
282	0.394
282	0.392
283	0.39
283	0.388
284	0.386
284	0.384
285	0.383
285	0.381
285	0.379
286	0.377
286	0.375
287	0.374
287	0.372
288	0.37
288	0.369
289	0.367
289	0.365
290	0.364
290	0.362
291	0.361
291	0.359
292	0.358
292	0.356
292	0.355
293	0.354
293	0.352
294	0.351
294	0.35
295	0.349
295	0.348
296	0.347
296	0.345
297	0.345
297	0.344
298	0.343
298	0.342
298	0.341
299	0.34
299	0.339
300	0.338
300	0.338
301	0.337
301	0.336
302	0.335
302	0.334
303	0.334
303	0.333
304	0.332
304	0.331
305	0.33
305	0.329
305	0.328
306	0.327
306	0.327
307	0.326
307	0.325
308	0.324
308	0.323
309	0.322
309	0.321
310	0.321
310	0.32
311	0.319
311	0.318
311	0.318
312	0.317
312	0.316
313	0.315
313	0.314
314	0.313
314	0.313
315	0.312
315	0.311
316	0.31
316	0.309
317	0.309
317	0.308
318	0.307
318	0.306
318	0.305
319	0.304
319	0.303
320	0.303
320	0.301
321	0.301
321	0.3
322	0.299
322	0.298
323	0.297
323	0.296
324	0.296
324	0.295
324	0.294
325	0.293
325	0.293
326	0.292
326	0.291
327	0.291
327	0.29
328	0.289
328	0.288
329	0.288
329	0.287
330	0.286
330	0.286
330	0.285
331	0.284
331	0.283
332	0.282
332	0.281
333	0.281
333	0.28
334	0.28
334	0.279
335	0.278
335	0.277
336	0.277
336	0.276
336	0.275
337	0.275
337	0.274
338	0.273
338	0.273
339	0.272
339	0.272
340	0.271
340	0.27
341	0.27
341	0.269
342	0.269
342	0.268
342	0.268
343	0.267
343	0.267
344	0.266
344	0.266
345	0.265
345	0.265
346	0.264
346	0.264
347	0.264
347	0.263
348	0.263
348	0.263
348	0.262
349	0.262
349	0.261
350	0.261
350	0.26
351	0.26
351	0.259
352	0.259
352	0.258
353	0.258
353	0.257
354	0.257
354	0.256
354	0.255
355	0.254
355	0.253
356	0.253
356	0.252
357	0.251
357	0.251
358	0.25
358	0.25
359	0.251
359	0.251
360	0.251
360	0.252
360	0.252
361	0.252
361	0.253
362	0.253
362	0.253
363	0.254
363	0.253
364	0.253
364	0.253
365	0.253
365	0.252
366	0.252
366	0.252
366	0.252
367	0.252
367	0.251
368	0.251
368	0.251
369	0.25
369	0.25
370	0.25
370	0.249
371	0.249
371	0.249
372	0.249
372	0.248
372	0.248
373	0.248
373	0.248
374	0.247
374	0.247
375	0.247
375	0.247
376	0.247
376	0.247
377	0.247
377	0.247
378	0.247
378	0.246
378	0.246
379	0.247
379	0.246
380	0.246
380	0.246
381	0.246
381	0.246
382	0.245
382	0.245
383	0.245
383	0.245
383	0.244
384	0.244
384	0.244
385	0.243
385	0.244
386	0.243
386	0.243
387	0.243
387	0.243
388	0.243
388	0.242
389	0.242
389	0.242
389	0.242
390	0.242
390	0.242
391	0.242
391	0.242
392	0.242
392	0.242
393	0.242
393	0.242
394	0.242
394	0.242
394	0.241
395	0.241
395	0.241
396	0.241
396	0.241
397	0.241
397	0.24
398	0.24
398	0.24
399	0.24
399	0.24
400	0.24
400	0.239
400	0.239
401	0.239
401	0.238
402	0.237
402	0.237
403	0.237
403	0.237
404	0.237
404	0.236
405	0.236
405	0.236
405	0.236
406	0.236
406	0.236
407	0.236
407	0.236
408	0.235
408	0.235
409	0.235
409	0.235
410	0.235
410	0.235
411	0.235
411	0.235
411	0.235
412	0.234
412	0.234
413	0.234
413	0.234
414	0.233
414	0.233
415	0.233
415	0.232
416	0.232
416	0.232
416	0.232
417	0.231
417	0.231
418	0.231
418	0.232
419	0.232
419	0.232
420	0.232
420	0.233
421	0.233
421	0.233
421	0.233
422	0.233
422	0.233
423	0.233
423	0.233
424	0.232
424	0.232
425	0.231
425	0.231
426	0.231
426	0.23
427	0.23
427	0.23
427	0.231
428	0.231
428	0.231
429	0.232
429	0.232
430	0.232
430	0.231
431	0.232
431	0.231
432	0.231
432	0.231
432	0.23
433	0.229
433	0.229
434	0.228
434	0.229
435	0.229
435	0.229
436	0.228
436	0.229
437	0.228
437	0.228
437	0.228
438	0.228
438	0.228
439	0.228
439	0.228
440	0.228
440	0.228
441	0.228
441	0.228
442	0.228
442	0.229
442	0.229
443	0.23
443	0.23
444	0.23
444	0.231
445	0.231
445	0.231
446	0.232
446	0.232
447	0.231
447	0.231
447	0.231
448	0.231
448	0.231
449	0.231
449	0.231
450	0.231
450	0.231
451	0.23
451	0.231
452	0.23
452	0.231
452	0.23
453	0.23
453	0.23
454	0.229
454	0.229
455	0.229
455	0.229
456	0.229
456	0.228
457	0.228
457	0.228
458	0.228
458	0.229
458	0.229
459	0.23
459	0.23
460	0.23
460	0.23
461	0.23
461	0.23
462	0.23
462	0.23
463	0.231
463	0.231
463	0.232
464	0.232
464	0.232
465	0.232
465	0.232
466	0.233
466	0.233
467	0.233
467	0.233
467	0.233
468	0.232
468	0.231
469	0.231
469	0.231
470	0.231
470	0.231
471	0.231
471	0.231
472	0.231
472	0.232
472	0.232
473	0.233
473	0.234
474	0.234
474	0.235
475	0.236
475	0.237
476	0.237
476	0.238
477	0.239
477	0.24
477	0.24
478	0.241
478	0.242
479	0.242
479	0.243
480	0.244
480	0.245
481	0.245
481	0.246
482	0.247
482	0.248
482	0.249
483	0.251
483	0.253
484	0.255
484	0.256
485	0.258
485	0.259
486	0.26
486	0.261
487	0.263
487	0.264
487	0.265
488	0.265
488	0.265
489	0.265
489	0.266
490	0.267
490	0.267
491	0.268
491	0.269
492	0.27
492	0.271
492	0.272
493	0.274
493	0.275
494	0.278
494	0.28
495	0.282
495	0.283
496	0.285
496	0.287
496	0.288
497	0.29
497	0.291
498	0.292
498	0.294
499	0.295
499	0.296
500	0.297
500	0.299
501	0.301
501	0.303
501	0.305
502	0.307
502	0.308
503	0.31
503	0.312
504	0.313
504	0.315
505	0.316
505	0.318
506	0.319
506	0.321
506	0.322
507	0.324
507	0.325
508	0.327
508	0.328
509	0.33
509	0.331
510	0.333
510	0.334
511	0.335
511	0.337
511	0.337
512	0.339
512	0.34
513	0.34
513	0.341
514	0.341
514	0.342
515	0.343
515	0.343
515	0.343
516	0.343
516	0.343
517	0.344
517	0.345
518	0.345
518	0.345
519	0.345
519	0.345
520	0.344
520	0.344
520	0.344
521	0.343
521	0.342
522	0.341
522	0.34
523	0.339
523	0.338
524	0.338
524	0.337
524	0.338
525	0.338
525	0.339
526	0.341
526	0.342
527	0.343
527	0.345
528	0.345
528	0.346
529	0.347
529	0.347
529	0.347
530	0.347
530	0.347
531	0.347
531	0.346
532	0.346
532	0.345
533	0.344
533	0.343
533	0.342
534	0.341
534	0.34
535	0.339
535	0.338
536	0.337
536	0.335
537	0.334
537	0.333
538	0.332
538	0.33
538	0.328
539	0.327
539	0.325
540	0.324
540	0.321
541	0.319
541	0.317
542	0.315
542	0.313
542	0.311
543	0.309
543	0.307
544	0.305
544	0.302
545	0.3
545	0.299
546	0.297
546	0.295
547	0.292
547	0.29
547	0.287
548	0.285
548	0.282
549	0.28
549	0.278
550	0.275
550	0.273
551	0.27
551	0.267
551	0.265
552	0.263
552	0.261
553	0.259
553	0.258
554	0.256
554	0.254
555	0.251
555	0.249
556	0.246
556	0.243
556	0.24
557	0.238
557	0.236
558	0.233
558	0.231
559	0.229
559	0.227
560	0.225
560	0.224
560	0.223
561	0.222
561	0.221
562	0.22
562	0.217
563	0.215
563	0.213
564	0.21
564	0.207
564	0.205
565	0.203
565	0.201
566	0.198
566	0.197
567	0.196
567	0.195
568	0.194
568	0.194
568	0.193
569	0.193
569	0.192
570	0.191
570	0.189
571	0.189
571	0.188
572	0.186
572	0.185
573	0.184
573	0.182
573	0.18
574	0.179
574	0.178
575	0.177
575	0.177
576	0.176
576	0.174
577	0.172
577	0.171
577	0.17
578	0.169
578	0.169
579	0.17
579	0.17
580	0.169
580	0.166
581	0.163
581	0.162
581	0.161
582	0.161
582	0.161
583	0.161
583	0.16
584	0.156
584	0.153
585	0.152
585	0.152
585	0.152
586	0.152
586	0.152
587	0.15
587	0.148
588	0.147
588	0.145
589	0.145
589	0.145
590	0.144
590	0.144
590	0.144
591	0.144
591	0.143
592	0.142
592	0.14
593	0.139
593	0.139
594	0.137
594	0.136
594	0.135
595	0.134
595	0.133
596	0.132
596	0.133
597	0.136
597	0.137
598	0.137
598	0.138
598	0.139
599	0.139
599	0.139
600	0.138
600	0.138
601	0.137
601	0.136
602	0.134
602	0.133
602	0.132
603	0.132
603	0.133
604	0.133
604	0.133
605	0.134
605	0.135
606	0.134
606	0.133
606	0.133
607	0.132
607	0.132
608	0.132
608	0.13
609	0.13
609	0.13
610	0.129
610	0.127
610	0.128
611	0.129
611	0.13
612	0.131
612	0.132
613	0.134
613	0.135
614	0.134
614	0.134
614	0.134
615	0.134
615	0.134
616	0.134
616	0.133
617	0.133
617	0.132
618	0.132
618	0.132
618	0.132
619	0.133
619	0.135
620	0.136
620	0.137
621	0.138
621	0.139
622	0.14
622	0.14
622	0.141
623	0.141
623	0.143
624	0.144
624	0.144
625	0.144
625	0.145
626	0.146
626	0.146
626	0.147
627	0.148
627	0.149
628	0.149
628	0.149
629	0.15
629	0.15
630	0.15
630	0.15
630	0.151
631	0.152
631	0.153
632	0.153
632	0.154
633	0.156
633	0.157
634	0.159
634	0.161
634	0.163
635	0.164
635	0.165
636	0.166
636	0.168
637	0.169
637	0.17
638	0.172
638	0.174
638	0.176
639	0.177
639	0.179
640	0.182
640	0.184
641	0.187
641	0.189
642	0.192
642	0.194
642	0.196
643	0.198
643	0.199
644	0.201
644	0.203
645	0.205
645	0.207
646	0.21
646	0.213
646	0.216
647	0.219
647	0.222
648	0.224
648	0.227
649	0.23
649	0.233
650	0.236
650	0.239
650	0.242
651	0.244
651	0.247
652	0.249
652	0.252
653	0.256
653	0.265
653	0.267
654	0.212
654	0.171
655	0.175
655	0.177
656	0.179
656	0.181
657	0.183
657	0.184
657	0.185
658	0.182
658	0.176
659	0.223
659	0.289
660	0.296
660	0.298
661	0.3
661	0.303
661	0.306
662	0.31
662	0.313
663	0.317
663	0.32
664	0.323
664	0.326
665	0.329
665	0.332
665	0.335
666	0.338
666	0.341
667	0.344
667	0.347
668	0.35
668	0.353
669	0.356
669	0.36
669	0.364
670	0.368
670	0.371
671	0.373
671	0.375
672	0.377
672	0.379
672	0.38
673	0.382
673	0.384
674	0.385
674	0.386
675	0.387
675	0.389
676	0.391
676	0.393
676	0.394
677	0.396
677	0.398
678	0.4
678	0.401
679	0.402
679	0.404
680	0.405
680	0.407
680	0.407
681	0.408
681	0.409
682	0.41
682	0.411
683	0.413
683	0.414
684	0.416
684	0.415
684	0.416
685	0.416
685	0.417
686	0.417
686	0.417
687	0.417
687	0.417
687	0.416
688	0.415
688	0.415
689	0.415
689	0.415
690	0.414
690	0.413
691	0.412
691	0.412
691	0.411
692	0.41
692	0.409
693	0.409
693	0.408
694	0.407
694	0.406
695	0.407
695	0.407
695	0.406
696	0.405
696	0.404
697	0.403
697	0.402
698	0.4
698	0.398
698	0.396
699	0.394
699	0.391
700	0.387
700	0.385
701	0.383
701	0.381
702	0.379
702	0.376
702	0.374
703	0.372
703	0.37
704	0.368
704	0.366
705	0.364
705	0.362
705	0.359
706	0.357
706	0.355
707	0.352
707	0.35
708	0.347
708	0.345
709	0.344
709	0.341
709	0.338
710	0.335
710	0.334
711	0.332
711	0.33
712	0.328
712	0.326
713	0.323
713	0.321
713	0.317
714	0.315
714	0.312
715	0.309
715	0.306
716	0.303
716	0.3
716	0.297
717	0.295
717	0.292
718	0.29
718	0.288
719	0.286
719	0.284
720	0.282
720	0.28
720	0.277
721	0.275
721	0.272
722	0.27
722	0.267
723	0.264
723	0.262
723	0.258
724	0.255
724	0.252
725	0.249
725	0.246
726	0.244
726	0.241
727	0.239
727	0.237
727	0.235
728	0.233
728	0.231
729	0.23
729	0.229
730	0.227
730	0.226
730	0.225
731	0.223
731	0.222
732	0.221
732	0.22
733	0.218
733	0.217
734	0.216
734	0.214
734	0.213
735	0.212
735	0.21
736	0.208
736	0.207
737	0.205
737	0.204
737	0.202
738	0.199
738	0.196
739	0.194
739	0.192
740	0.19
740	0.188
741	0.187
741	0.185
741	0.182
742	0.179
742	0.177
743	0.176
743	0.175
744	0.174
744	0.172
744	0.171
745	0.169
745	0.167
746	0.165
746	0.163
747	0.162
747	0.16
748	0.159
748	0.157
748	0.154
749	0.152
749	0.151
750	0.149
750	0.147
751	0.145
751	0.144
751	0.143
752	0.141
752	0.139
753	0.137
753	0.136
754	0.135
754	0.134
754	0.133
755	0.132
755	0.131
756	0.129
756	0.127
757	0.125
757	0.125
758	0.123
758	0.122
758	0.121
759	0.119
759	0.116
760	0.114
760	0.111
761	0.11
761	0.109
761	0.108
762	0.106
762	0.106
763	0.104
763	0.102
764	0.099
764	0.098
764	0.096
765	0.095
765	0.093
766	0.092
766	0.091
767	0.09
767	0.088
768	0.085
768	0.084
768	0.083
769	0.082
769	0.081
770	0.079
770	0.078
771	0.075
771	0.072
771	0.07
772	0.068
772	0.066
773	0.064
773	0.061
774	0.059
774	0.056
775	0.054
775	0.052
775	0.049
776	0.046
776	0.043
777	0.04
777	0.037
778	0.034
778	0.03
778	0.027
779	0.024
779	0.022
780	0.018
780	0.014
781	0.01
781	0.004
781	-0.001
782	-0.007
782	-0.013
783	-0.019
783	-0.026
784	-0.034
784	-0.042
784	-0.05
785	-0.057
785	-0.065
786	-0.07
786	-0.072
787	-0.072
787	-0.072
788	-0.075
788	-0.078
788	-0.08
789	-0.082
789	-0.082
790	-0.079
790	-0.078
791	-0.078
791	-0.08
791	-0.082
792	-0.077
792	-0.068
793	-0.062
793	-0.058
794	-0.057
794	-0.058
794	-0.062
795	-0.064
795	-0.064
796	-0.064
796	-0.066
797	-0.074
797	-0.083
797	-0.089
798	-0.094
798	-0.097
799	-0.097
799	-0.097
800	-0.097
800	-0.099
801	-0.103
801	-0.104
801	-0.105
802	-0.106
802	-0.108
803	-0.109
803	-0.109
804	-0.108
804	-0.104
804	-0.097
805	-0.094
805	-0.092
806	-0.09
806	-0.089
807	-0.087
807	-0.087
807	-0.086
808	-0.085
808	-0.086
809	-0.09
809	-0.095
810	-0.098
810	-0.1
810	-0.103
811	-0.105
811	-0.105
812	-0.101
812	-0.098
813	-0.098
813	-0.099
813	-0.1
814	-0.101
814	-0.101
815	-0.099
815	-0.096
816	-0.094
816	-0.094
817	-0.096
817	-0.096
817	-0.092
818	-0.086
818	-0.078
819	-0.069
819	-0.062
820	-0.056
820	-0.05
820	-0.042
821	-0.034
821	-0.026
822	-0.019
822	-0.013
823	-0.008
823	-0.004
823	-0
824	0.004
824	0.009
825	0.013
825	0.017
826	0.021
826	0.024
826	0.027
827	0.029
827	0.032
828	0.034
828	0.036
829	0.039
829	0.041
829	0.042
830	0.044
830	0.046
831	0.049
831	0.051
832	0.053
832	0.054
832	0.056
833	0.057
833	0.058
834	0.059
834	0.06
835	0.06
835	0.061
835	0.061
836	0.061
836	0.061
837	0.062
837	0.062
838	0.063
838	0.063
839	0.063
839	0.063
839	0.063
840	0.063
840	0.064
841	0.064
841	0.064
842	0.065
842	0.065
842	0.065
843	0.065
843	0.064
844	0.064
844	0.064
845	0.064
845	0.064
845	0.064
846	0.064
846	0.063
847	0.064
847	0.064
848	0.064
848	0.064
848	0.065
849	0.065
849	0.065
850	0.065
850	0.065
851	0.065
851	0.065
851	0.065
852	0.065
852	0.065
853	0.065
853	0.065
854	0.065
854	0.066
854	0.067
855	0.067
855	0.067
856	0.068
856	0.068
857	0.068
857	0.068
857	0.068
858	0.068
858	0.068
859	0.067
859	0.067
860	0.066
860	0.066
860	0.065
861	0.065
861	0.065
862	0.063
862	0.063
863	0.062
863	0.062
863	0.061
864	0.061
864	0.06
865	0.06
865	0.06
866	0.06
866	0.06
866	0.061
867	0.062
867	0.063
868	0.064
868	0.065
869	0.065
869	0.065
869	0.065
870	0.064
870	0.064
871	0.063
871	0.062
872	0.061
872	0.06
872	0.059
873	0.058
873	0.057
874	0.057
874	0.057
875	0.057
875	0.057
875	0.057
876	0.057
876	0.057
877	0.057
877	0.057
878	0.057
878	0.057
878	0.056
879	0.056
879	0.055
880	0.055
880	0.054
881	0.054
881	0.054
881	0.054
882	0.054
882	0.054
883	0.055
883	0.055
884	0.056
884	0.056
884	0.057
885	0.057
885	0.057
886	0.057
886	0.057
887	0.057
887	0.057
887	0.057
888	0.057
888	0.057
889	0.057
889	0.057
890	0.058
890	0.058
890	0.058
891	0.059
891	0.059
892	0.059
892	0.06
893	0.06
893	0.06
893	0.061
894	0.061
894	0.061
895	0.061
895	0.062
895	0.062
896	0.062
896	0.062
897	0.062
897	0.063
898	0.063
898	0.063
898	0.063
899	0.063
899	0.064
900	0.064
900	0.064
901	0.064
901	0.064
901	0.064
902	0.064
902	0.064
903	0.064
903	0.063
904	0.062
904	0.061
904	0.061
905	0.06
905	0.06
906	0.059
906	0.058
907	0.057
907	0.056
907	0.056
908	0.056
908	0.056
909	0.057
909	0.057
910	0.058
910	0.058
910	0.059
911	0.06
911	0.061
912	0.061
912	0.062
913	0.063
913	0.063
913	0.064
914	0.064
914	0.064
915	0.064
915	0.064
916	0.063
916	0.062
916	0.062
917	0.061
917	0.06
918	0.059
918	0.059
918	0.058
919	0.057
919	0.057
920	0.057
920	0.057
921	0.056
921	0.056
921	0.056
922	0.055
922	0.055
923	0.055
923	0.055
924	0.054
924	0.054
924	0.054
925	0.053
925	0.053
926	0.052
926	0.052
927	0.051
927	0.05
927	0.05
928	0.05
928	0.05
929	0.05
929	0.05
930	0.051
930	0.052
930	0.054
931	0.055
931	0.056
932	0.057
932	0.058
933	0.06
933	0.061
933	0.061
934	0.062
934	0.062
935	0.061
935	0.061
935	0.061
936	0.06
936	0.061
937	0.06
937	0.06
938	0.06
938	0.06
938	0.06
939	0.06
939	0.061
940	0.061
940	0.061
941	0.061
941	0.061
941	0.061
942	0.06
942	0.06
943	0.059
943	0.059
944	0.058
944	0.058
944	0.058
945	0.058
945	0.058
946	0.058
946	0.057
946	0.056
947	0.056
947	0.056
948	0.055
948	0.055
949	0.054
949	0.053
949	0.053
950	0.052
950	0.052
951	0.052
951	0.051
952	0.051
952	0.051
952	0.051
953	0.051
953	0.05
954	0.05
954	0.05
955	0.05
955	0.049
955	0.049
956	0.05
956	0.05
957	0.05
957	0.05
957	0.049
958	0.049
958	0.049
959	0.049
959	0.049
960	0.049
960	0.048
960	0.047
961	0.046
961	0.046
962	0.045
962	0.045
963	0.044
963	0.044
963	0.044
964	0.044
964	0.045
965	0.046
965	0.047
966	0.048
966	0.049
966	0.05
967	0.05
967	0.051
968	0.051
968	0.051
968	0.051
969	0.05
969	0.05
970	0.049
970	0.049
971	0.048
971	0.047
971	0.047
972	0.047
972	0.047
973	0.047
973	0.047
974	0.047
974	0.048
974	0.048
975	0.049
975	0.049
976	0.05
976	0.051
976	0.051
977	0.052
977	0.052
978	0.052
978	0.052
979	0.053
979	0.053
979	0.053
980	0.052
980	0.052
981	0.052
981	0.052
982	0.053
982	0.053
982	0.054
983	0.054
983	0.054
984	0.054
984	0.054
984	0.054
985	0.054
985	0.053
986	0.052
986	0.051
987	0.05
987	0.049
987	0.047
988	0.046
988	0.045
989	0.045
989	0.044
990	0.044
990	0.043
990	0.044
991	0.044
991	0.045
992	0.045
992	0.045
992	0.046
993	0.046
993	0.046
994	0.046
994	0.045
995	0.045
995	0.045
995	0.045
996	0.045
996	0.044
997	0.044
997	0.044
997	0.044
998	0.045
998	0.046
999	0.047
999	0.048
1000	0.049
1000	0.05
1000	0.051
1001	0.052
1001	0.053
1002	0.054
1002	0.054
1003	0.055
1003	0.055
1003	0.055
1004	0.055
1004	0.054
1005	0.054
1005	0.053
1005	0.053
1006	0.052
1006	0.052
1007	0.051
1007	0.05
1008	0.05
1008	0.05
1008	0.05
1009	0.05
1009	0.05
1010	0.05
1010	0.05
1010	0.05
1011	0.05
1011	0.05
1012	0.05
1012	0.05
1013	0.05
1013	0.05
1013	0.049
1014	0.049
1014	0.048
1015	0.047
1015	0.046
1016	0.045
1016	0.045
1016	0.043
1017	0.042
1017	0.041
1018	0.04
1018	0.04
1018	0.039
1019	0.039
1019	0.038
1020	0.037
1020	0.037
1021	0.037
1021	0.037
1021	0.037
1022	0.037
1022	0.037
1023	0.036
1023	0.036
1023	0.036
1024	0.035
1024	0.035
1025	0.034
1025	0.033
1026	0.032
1026	0.032
1026	0.031
1027	0.03
1027	0.03
1028	0.029
1028	0.029
1028	0.028
1029	0.028
1029	0.028
1030	0.028
1030	0.029
1031	0.029
1031	0.03
1031	0.03
1032	0.03
1032	0.031
1033	0.032
1033	0.032
1033	0.033
1034	0.032
1034	0.032
1035	0.032
1035	0.032
1036	0.031
1036	0.031
1036	0.031
1037	0.031
1037	0.031
1038	0.031
1038	0.031
1039	0.032
1039	0.033
1039	0.033
1040	0.034
1040	0.034
1041	0.034
1041	0.034
1041	0.033
1042	0.032
1042	0.032
1043	0.032
1043	0.031
1044	0.03
1044	0.029
1044	0.029
1045	0.028
1045	0.027
1046	0.027
1046	0.026
1046	0.027
1047	0.026
1047	0.027
1048	0.026
1048	0.026
1049	0.025
1049	0.025
1049	0.024
1050	0.023
1050	0.022
1051	0.022
1051	0.021
1051	0.021
1052	0.02
1052	0.019
1053	0.019
1053	0.018
1053	0.018
1054	0.018
1054	0.018
1055	0.019
1055	0.019
1056	0.019
1056	0.018
1056	0.017
1057	0.017
1057	0.017
1058	0.017
1058	0.016
1058	0.016
1059	0.017
1059	0.016
1060	0.016
1060	0.016
1061	0.016
1061	0.016
1061	0.017
1062	0.016
1062	0.016
1063	0.016
1063	0.016
1063	0.015
1064	0.016
1064	0.016
1065	0.017
1065	0.017
1066	0.017
1066	0.018
1066	0.018
1067	0.019
1067	0.02
1068	0.02
1068	0.021
1068	0.021
1069	0.021
1069	0.021
1070	0.021
1070	0.022
1071	0.022
1071	0.022
1071	0.022
1072	0.022
1072	0.022
1073	0.023
1073	0.023
1073	0.022
1074	0.022
1074	0.023
1075	0.021
1075	0.021
1076	0.02
1076	0.019
1076	0.018
1077	0.017
1077	0.017
1078	0.016
1078	0.017
1078	0.017
1079	0.017
1079	0.018
1080	0.019
1080	0.02
1080	0.02
1081	0.02
1081	0.021
1082	0.021
1082	0.021
1083	0.021
1083	0.021
1083	0.021
1084	0.021
1084	0.022
1085	0.022
1085	0.023
1085	0.023
1086	0.024
1086	0.024
1087	0.025
1087	0.026
1088	0.027
1088	0.027
1088	0.028
1089	0.028
1089	0.029
1090	0.029
1090	0.03
1090	0.031
1091	0.031
1091	0.033
1092	0.034
1092	0.036
1092	0.037
1093	0.037
1093	0.04
1094	0.041
1094	0.041
1095	0.042
1095	0.043
1095	0.046
1096	0.046
1096	0.048
1097	0.05
1097	0.052
1097	0.055
1098	0.056
1098	0.058
1099	0.061
1099	0.065
1100	0.067
1100	0.071
1100	0.074
1101	0.077
1101	0.081
1102	0.085
1102	0.09
1102	0.097
1103	0.103
1103	0.11
1104	0.117
1104	0.125
1104	0.136
1105	0.146
1105	0.155
1106	0.165
1106	0.179
1107	0.19
1107	0.208
1107	0.231
1108	0.308
1108	0.421
1109	0.621
1109	1.229
1109	-0
1110	-0
1110	-0
1111	-0
1111	-0
