Data from 15c-2a_Absorbance__133__02842.txt Node

Date: Tue Jan 16 14:05:42 CET 2024
User: Marek
Spectrometer: MAYP115816
Trigger mode: 0
Integration Time (sec): 2.000000E-1
Scans to average: 10
Electric dark correction enabled: true
Nonlinearity correction enabled: true
Boxcar width: 5
XAxis mode: Wavelengths
Number of Pixels in Spectrum: 2068
>>>>>Begin Spectral Data<<<<<
199	-1.657
199	-1.477
200	-1.348
200	-1.233
201	-1.164
201	-1.115
202	-1.045
202	-0.991
203	-0.948
203	-0.907
204	-0.882
204	-0.858
205	-0.839
205	-0.828
205	-0.826
206	-0.822
206	-0.819
207	-0.817
207	-0.816
208	-0.813
208	-0.812
209	-0.808
209	-0.806
210	-0.806
210	-0.804
211	-0.803
211	-0.803
212	-0.803
212	-0.802
213	-0.801
213	-0.8
213	-0.801
214	-0.8
214	-0.799
215	-0.798
215	-0.799
216	-0.795
216	-0.796
217	-0.792
217	-0.791
218	-0.787
218	-0.783
219	-0.778
219	-0.777
220	-0.776
220	-0.775
221	-0.771
221	-0.771
221	-0.766
222	-0.761
222	-0.756
223	-0.751
223	-0.747
224	-0.742
224	-0.734
225	-0.724
225	-0.715
226	-0.707
226	-0.698
227	-0.684
227	-0.673
228	-0.657
228	-0.642
229	-0.622
229	-0.598
229	-0.573
230	-0.546
230	-0.515
231	-0.48
231	-0.443
232	-0.407
232	-0.366
233	-0.324
233	-0.28
234	-0.237
234	-0.193
235	-0.151
235	-0.109
236	-0.068
236	-0.028
236	0.01
237	0.047
237	0.082
238	0.114
238	0.144
239	0.172
239	0.198
240	0.222
240	0.244
241	0.263
241	0.281
242	0.297
242	0.313
243	0.326
243	0.339
243	0.349
244	0.36
244	0.369
245	0.377
245	0.385
246	0.393
246	0.399
247	0.405
247	0.411
248	0.416
248	0.421
249	0.426
249	0.431
250	0.435
250	0.439
250	0.443
251	0.446
251	0.449
252	0.452
252	0.455
253	0.458
253	0.46
254	0.462
254	0.465
255	0.466
255	0.468
256	0.47
256	0.471
257	0.472
257	0.473
258	0.474
258	0.475
258	0.476
259	0.476
259	0.476
260	0.476
260	0.476
261	0.476
261	0.476
262	0.476
262	0.475
263	0.475
263	0.475
264	0.474
264	0.474
265	0.473
265	0.472
265	0.471
266	0.47
266	0.468
267	0.467
267	0.465
268	0.464
268	0.462
269	0.461
269	0.459
270	0.457
270	0.455
271	0.453
271	0.451
272	0.449
272	0.447
272	0.445
273	0.443
273	0.441
274	0.44
274	0.438
275	0.436
275	0.434
276	0.432
276	0.43
277	0.427
277	0.425
278	0.422
278	0.42
278	0.417
279	0.414
279	0.411
280	0.409
280	0.406
281	0.404
281	0.402
282	0.399
282	0.397
283	0.395
283	0.393
284	0.391
284	0.39
285	0.388
285	0.386
285	0.385
286	0.383
286	0.381
287	0.379
287	0.378
288	0.376
288	0.374
289	0.373
289	0.371
290	0.369
290	0.367
291	0.366
291	0.364
292	0.363
292	0.361
292	0.36
293	0.359
293	0.357
294	0.356
294	0.355
295	0.353
295	0.352
296	0.351
296	0.35
297	0.349
297	0.348
298	0.347
298	0.346
298	0.345
299	0.344
299	0.343
300	0.342
300	0.341
301	0.341
301	0.34
302	0.339
302	0.338
303	0.337
303	0.337
304	0.336
304	0.335
305	0.334
305	0.333
305	0.332
306	0.331
306	0.33
307	0.33
307	0.329
308	0.328
308	0.327
309	0.326
309	0.325
310	0.324
310	0.323
311	0.322
311	0.321
311	0.321
312	0.32
312	0.319
313	0.318
313	0.317
314	0.317
314	0.316
315	0.315
315	0.314
316	0.313
316	0.312
317	0.312
317	0.311
318	0.31
318	0.309
318	0.308
319	0.307
319	0.307
320	0.306
320	0.305
321	0.304
321	0.303
322	0.302
322	0.302
323	0.301
323	0.3
324	0.299
324	0.298
324	0.297
325	0.297
325	0.296
326	0.295
326	0.295
327	0.294
327	0.293
328	0.292
328	0.291
329	0.291
329	0.29
330	0.289
330	0.289
330	0.288
331	0.287
331	0.286
332	0.285
332	0.284
333	0.284
333	0.283
334	0.282
334	0.282
335	0.281
335	0.28
336	0.28
336	0.279
336	0.278
337	0.278
337	0.277
338	0.276
338	0.275
339	0.275
339	0.274
340	0.273
340	0.273
341	0.272
341	0.272
342	0.272
342	0.271
342	0.271
343	0.27
343	0.269
344	0.269
344	0.269
345	0.268
345	0.268
346	0.267
346	0.267
347	0.266
347	0.266
348	0.266
348	0.265
348	0.265
349	0.264
349	0.264
350	0.263
350	0.263
351	0.262
351	0.262
352	0.261
352	0.261
353	0.26
353	0.26
354	0.259
354	0.258
354	0.258
355	0.257
355	0.257
356	0.256
356	0.255
357	0.254
357	0.254
358	0.254
358	0.254
359	0.254
359	0.254
360	0.254
360	0.255
360	0.255
361	0.255
361	0.255
362	0.256
362	0.256
363	0.256
363	0.256
364	0.256
364	0.255
365	0.255
365	0.255
366	0.255
366	0.254
366	0.254
367	0.254
367	0.253
368	0.253
368	0.253
369	0.252
369	0.252
370	0.252
370	0.252
371	0.252
371	0.251
372	0.251
372	0.251
372	0.251
373	0.25
373	0.25
374	0.25
374	0.25
375	0.249
375	0.249
376	0.249
376	0.249
377	0.249
377	0.249
378	0.249
378	0.249
378	0.249
379	0.249
379	0.249
380	0.249
380	0.249
381	0.249
381	0.248
382	0.248
382	0.248
383	0.248
383	0.247
383	0.247
384	0.247
384	0.246
385	0.246
385	0.246
386	0.246
386	0.246
387	0.246
387	0.246
388	0.245
388	0.245
389	0.245
389	0.245
389	0.245
390	0.244
390	0.244
391	0.244
391	0.244
392	0.244
392	0.244
393	0.244
393	0.244
394	0.244
394	0.244
394	0.243
395	0.243
395	0.243
396	0.243
396	0.243
397	0.243
397	0.243
398	0.242
398	0.242
399	0.242
399	0.242
400	0.242
400	0.241
400	0.241
401	0.241
401	0.24
402	0.24
402	0.239
403	0.239
403	0.239
404	0.239
404	0.239
405	0.238
405	0.238
405	0.238
406	0.238
406	0.238
407	0.238
407	0.238
408	0.238
408	0.237
409	0.237
409	0.237
410	0.237
410	0.237
411	0.237
411	0.237
411	0.237
412	0.236
412	0.236
413	0.236
413	0.236
414	0.235
414	0.235
415	0.235
415	0.234
416	0.234
416	0.233
416	0.233
417	0.233
417	0.233
418	0.233
418	0.233
419	0.234
419	0.234
420	0.234
420	0.234
421	0.235
421	0.235
421	0.235
422	0.235
422	0.235
423	0.235
423	0.235
424	0.234
424	0.234
425	0.233
425	0.233
426	0.232
426	0.232
427	0.232
427	0.232
427	0.232
428	0.232
428	0.233
429	0.233
429	0.234
430	0.234
430	0.234
431	0.234
431	0.233
432	0.233
432	0.233
432	0.232
433	0.232
433	0.231
434	0.231
434	0.231
435	0.231
435	0.231
436	0.231
436	0.231
437	0.231
437	0.231
437	0.231
438	0.231
438	0.23
439	0.23
439	0.23
440	0.229
440	0.229
441	0.23
441	0.23
442	0.23
442	0.23
442	0.231
443	0.231
443	0.232
444	0.232
444	0.233
445	0.233
445	0.234
446	0.234
446	0.234
447	0.234
447	0.234
447	0.233
448	0.233
448	0.233
449	0.233
449	0.233
450	0.233
450	0.233
451	0.232
451	0.232
452	0.232
452	0.232
452	0.232
453	0.232
453	0.231
454	0.231
454	0.231
455	0.231
455	0.231
456	0.231
456	0.231
457	0.231
457	0.231
458	0.231
458	0.231
458	0.232
459	0.232
459	0.232
460	0.232
460	0.232
461	0.232
461	0.232
462	0.232
462	0.232
463	0.233
463	0.233
463	0.234
464	0.234
464	0.234
465	0.235
465	0.235
466	0.235
466	0.235
467	0.235
467	0.235
467	0.235
468	0.234
468	0.233
469	0.233
469	0.233
470	0.233
470	0.233
471	0.234
471	0.234
472	0.234
472	0.234
472	0.235
473	0.236
473	0.237
474	0.237
474	0.238
475	0.239
475	0.24
476	0.24
476	0.241
477	0.242
477	0.243
477	0.243
478	0.244
478	0.245
479	0.245
479	0.246
480	0.247
480	0.248
481	0.248
481	0.249
482	0.25
482	0.251
482	0.252
483	0.254
483	0.256
484	0.258
484	0.259
485	0.26
485	0.262
486	0.263
486	0.264
487	0.266
487	0.267
487	0.267
488	0.268
488	0.268
489	0.269
489	0.27
490	0.27
490	0.271
491	0.272
491	0.273
492	0.274
492	0.275
492	0.276
493	0.278
493	0.28
494	0.282
494	0.284
495	0.286
495	0.287
496	0.289
496	0.291
496	0.292
497	0.294
497	0.295
498	0.297
498	0.298
499	0.299
499	0.3
500	0.301
500	0.303
501	0.305
501	0.307
501	0.308
502	0.31
502	0.312
503	0.314
503	0.316
504	0.317
504	0.319
505	0.32
505	0.322
506	0.323
506	0.325
506	0.326
507	0.328
507	0.329
508	0.331
508	0.332
509	0.334
509	0.336
510	0.337
510	0.338
511	0.339
511	0.341
511	0.341
512	0.342
512	0.343
513	0.344
513	0.345
514	0.346
514	0.346
515	0.347
515	0.347
515	0.347
516	0.347
516	0.347
517	0.348
517	0.349
518	0.349
518	0.349
519	0.35
519	0.349
520	0.349
520	0.349
520	0.349
521	0.348
521	0.347
522	0.346
522	0.344
523	0.344
523	0.343
524	0.343
524	0.343
524	0.343
525	0.344
525	0.345
526	0.347
526	0.348
527	0.349
527	0.35
528	0.351
528	0.351
529	0.352
529	0.352
529	0.351
530	0.351
530	0.351
531	0.35
531	0.35
532	0.349
532	0.348
533	0.347
533	0.347
533	0.346
534	0.345
534	0.344
535	0.342
535	0.341
536	0.34
536	0.338
537	0.337
537	0.336
538	0.334
538	0.332
538	0.33
539	0.328
539	0.327
540	0.325
540	0.323
541	0.321
541	0.319
542	0.317
542	0.314
542	0.312
543	0.31
543	0.308
544	0.306
544	0.304
545	0.302
545	0.3
546	0.298
546	0.296
547	0.294
547	0.291
547	0.288
548	0.286
548	0.283
549	0.28
549	0.278
550	0.276
550	0.273
551	0.27
551	0.268
551	0.266
552	0.264
552	0.262
553	0.26
553	0.258
554	0.257
554	0.254
555	0.251
555	0.249
556	0.246
556	0.243
556	0.24
557	0.237
557	0.235
558	0.232
558	0.23
559	0.227
559	0.226
560	0.224
560	0.223
560	0.222
561	0.221
561	0.22
562	0.218
562	0.216
563	0.214
563	0.211
564	0.209
564	0.206
564	0.203
565	0.201
565	0.199
566	0.197
566	0.195
567	0.194
567	0.193
568	0.192
568	0.191
568	0.191
569	0.191
569	0.19
570	0.189
570	0.187
571	0.186
571	0.186
572	0.184
572	0.183
573	0.181
573	0.179
573	0.177
574	0.176
574	0.175
575	0.174
575	0.174
576	0.174
576	0.171
577	0.169
577	0.168
577	0.167
578	0.167
578	0.167
579	0.167
579	0.168
580	0.166
580	0.163
581	0.16
581	0.159
581	0.158
582	0.158
582	0.158
583	0.158
583	0.156
584	0.153
584	0.15
585	0.149
585	0.149
585	0.149
586	0.149
586	0.149
587	0.147
587	0.145
588	0.143
588	0.142
589	0.142
589	0.142
590	0.141
590	0.141
590	0.142
591	0.142
591	0.141
592	0.139
592	0.138
593	0.137
593	0.136
594	0.135
594	0.134
594	0.133
595	0.132
595	0.131
596	0.13
596	0.131
597	0.134
597	0.134
598	0.135
598	0.136
598	0.136
599	0.137
599	0.136
600	0.136
600	0.135
601	0.134
601	0.133
602	0.131
602	0.131
602	0.129
603	0.129
603	0.13
604	0.13
604	0.13
605	0.131
605	0.132
606	0.132
606	0.131
606	0.13
607	0.13
607	0.13
608	0.129
608	0.128
609	0.128
609	0.128
610	0.126
610	0.125
610	0.126
611	0.127
611	0.127
612	0.128
612	0.13
613	0.131
613	0.132
614	0.132
614	0.131
614	0.132
615	0.132
615	0.131
616	0.131
616	0.131
617	0.131
617	0.13
618	0.13
618	0.13
618	0.13
619	0.131
619	0.133
620	0.135
620	0.136
621	0.136
621	0.137
622	0.138
622	0.139
622	0.139
623	0.139
623	0.141
624	0.142
624	0.142
625	0.142
625	0.143
626	0.143
626	0.144
626	0.145
627	0.145
627	0.146
628	0.146
628	0.147
629	0.147
629	0.147
630	0.147
630	0.147
630	0.148
631	0.149
631	0.15
632	0.15
632	0.151
633	0.153
633	0.154
634	0.155
634	0.158
634	0.159
635	0.161
635	0.162
636	0.163
636	0.165
637	0.166
637	0.167
638	0.169
638	0.171
638	0.172
639	0.174
639	0.176
640	0.178
640	0.181
641	0.183
641	0.186
642	0.188
642	0.191
642	0.193
643	0.195
643	0.196
644	0.199
644	0.2
645	0.203
645	0.205
646	0.207
646	0.21
646	0.213
647	0.216
647	0.219
648	0.221
648	0.224
649	0.227
649	0.23
650	0.233
650	0.236
650	0.238
651	0.241
651	0.243
652	0.246
652	0.249
653	0.253
653	0.262
653	0.265
654	0.21
654	0.17
655	0.174
655	0.176
656	0.178
656	0.18
657	0.182
657	0.183
657	0.184
658	0.181
658	0.175
659	0.222
659	0.288
660	0.295
660	0.297
661	0.3
661	0.303
661	0.306
662	0.31
662	0.314
663	0.318
663	0.321
664	0.324
664	0.327
665	0.33
665	0.334
665	0.337
666	0.34
666	0.343
667	0.346
667	0.35
668	0.353
668	0.356
669	0.36
669	0.363
669	0.368
670	0.371
670	0.375
671	0.377
671	0.38
672	0.382
672	0.384
672	0.385
673	0.387
673	0.389
674	0.391
674	0.393
675	0.394
675	0.396
676	0.398
676	0.401
676	0.402
677	0.405
677	0.407
678	0.409
678	0.41
679	0.411
679	0.413
680	0.415
680	0.416
680	0.417
681	0.417
681	0.419
682	0.42
682	0.421
683	0.423
683	0.425
684	0.426
684	0.426
684	0.426
685	0.427
685	0.428
686	0.429
686	0.429
687	0.429
687	0.429
687	0.429
688	0.428
688	0.428
689	0.428
689	0.428
690	0.427
690	0.426
691	0.426
691	0.425
691	0.424
692	0.423
692	0.422
693	0.422
693	0.422
694	0.421
694	0.42
695	0.42
695	0.421
695	0.42
696	0.419
696	0.418
697	0.417
697	0.416
698	0.414
698	0.412
698	0.41
699	0.408
699	0.405
700	0.401
700	0.399
701	0.397
701	0.394
702	0.392
702	0.39
702	0.387
703	0.385
703	0.383
704	0.38
704	0.379
705	0.377
705	0.374
705	0.371
706	0.369
706	0.367
707	0.364
707	0.362
708	0.359
708	0.357
709	0.355
709	0.353
709	0.35
710	0.347
710	0.345
711	0.343
711	0.341
712	0.339
712	0.337
713	0.334
713	0.332
713	0.329
714	0.326
714	0.323
715	0.32
715	0.317
716	0.314
716	0.311
716	0.308
717	0.306
717	0.303
718	0.3
718	0.298
719	0.296
719	0.295
720	0.293
720	0.29
720	0.287
721	0.285
721	0.282
722	0.279
722	0.276
723	0.273
723	0.271
723	0.268
724	0.264
724	0.261
725	0.258
725	0.255
726	0.252
726	0.25
727	0.247
727	0.245
727	0.243
728	0.241
728	0.239
729	0.238
729	0.237
730	0.235
730	0.233
730	0.232
731	0.231
731	0.23
732	0.229
732	0.227
733	0.225
733	0.224
734	0.222
734	0.22
734	0.219
735	0.218
735	0.216
736	0.214
736	0.212
737	0.211
737	0.209
737	0.207
738	0.204
738	0.201
739	0.198
739	0.196
740	0.194
740	0.192
741	0.191
741	0.188
741	0.186
742	0.183
742	0.181
743	0.18
743	0.178
744	0.177
744	0.176
744	0.174
745	0.172
745	0.17
746	0.169
746	0.167
747	0.165
747	0.164
748	0.162
748	0.16
748	0.158
749	0.156
749	0.154
750	0.152
750	0.15
751	0.149
751	0.147
751	0.146
752	0.144
752	0.142
753	0.141
753	0.14
754	0.139
754	0.137
754	0.137
755	0.135
755	0.134
756	0.132
756	0.13
757	0.128
757	0.127
758	0.126
758	0.124
758	0.123
759	0.121
759	0.119
760	0.116
760	0.114
761	0.112
761	0.112
761	0.111
762	0.109
762	0.108
763	0.107
763	0.104
764	0.102
764	0.1
764	0.099
765	0.097
765	0.096
766	0.095
766	0.094
767	0.093
767	0.091
768	0.089
768	0.087
768	0.086
769	0.085
769	0.084
770	0.083
770	0.081
771	0.079
771	0.076
771	0.074
772	0.072
772	0.07
773	0.068
773	0.066
774	0.063
774	0.061
775	0.059
775	0.057
775	0.054
776	0.052
776	0.049
777	0.046
777	0.043
778	0.04
778	0.036
778	0.033
779	0.031
779	0.028
780	0.025
780	0.021
781	0.017
781	0.012
781	0.006
782	0.001
782	-0.006
783	-0.012
783	-0.018
784	-0.025
784	-0.034
784	-0.041
785	-0.049
785	-0.057
786	-0.063
786	-0.065
787	-0.066
787	-0.067
788	-0.07
788	-0.074
788	-0.077
789	-0.08
789	-0.08
790	-0.079
790	-0.078
791	-0.079
791	-0.08
791	-0.082
792	-0.077
792	-0.068
793	-0.062
793	-0.058
794	-0.057
794	-0.059
794	-0.062
795	-0.064
795	-0.064
796	-0.064
796	-0.066
797	-0.074
797	-0.083
797	-0.089
798	-0.094
798	-0.097
799	-0.097
799	-0.097
800	-0.097
800	-0.099
801	-0.103
801	-0.104
801	-0.105
802	-0.107
802	-0.108
803	-0.109
803	-0.109
804	-0.109
804	-0.104
804	-0.098
805	-0.094
805	-0.092
806	-0.09
806	-0.089
807	-0.088
807	-0.087
807	-0.086
808	-0.086
808	-0.086
809	-0.09
809	-0.095
810	-0.098
810	-0.1
810	-0.103
811	-0.105
811	-0.105
812	-0.101
812	-0.098
813	-0.099
813	-0.099
813	-0.1
814	-0.101
814	-0.101
815	-0.099
815	-0.096
816	-0.094
816	-0.093
817	-0.095
817	-0.094
817	-0.089
818	-0.083
818	-0.074
819	-0.066
819	-0.058
820	-0.052
820	-0.045
820	-0.037
821	-0.028
821	-0.021
822	-0.014
822	-0.008
823	-0.003
823	0
823	0.004
824	0.008
824	0.012
825	0.017
825	0.021
826	0.024
826	0.027
826	0.029
827	0.032
827	0.034
828	0.036
828	0.038
829	0.04
829	0.042
829	0.044
830	0.046
830	0.048
831	0.051
831	0.053
832	0.054
832	0.056
832	0.057
833	0.058
833	0.059
834	0.06
834	0.061
835	0.061
835	0.061
835	0.061
836	0.062
836	0.062
837	0.062
837	0.063
838	0.063
838	0.064
839	0.064
839	0.064
839	0.064
840	0.064
840	0.064
841	0.065
841	0.065
842	0.065
842	0.065
842	0.065
843	0.065
843	0.065
844	0.065
844	0.065
845	0.064
845	0.064
845	0.064
846	0.064
846	0.063
847	0.064
847	0.064
848	0.064
848	0.064
848	0.065
849	0.065
849	0.065
850	0.065
850	0.065
851	0.065
851	0.065
851	0.065
852	0.065
852	0.065
853	0.065
853	0.065
854	0.065
854	0.066
854	0.066
855	0.066
855	0.067
856	0.067
856	0.067
857	0.067
857	0.067
857	0.067
858	0.067
858	0.067
859	0.066
859	0.066
860	0.066
860	0.066
860	0.065
861	0.065
861	0.065
862	0.064
862	0.064
863	0.063
863	0.063
863	0.062
864	0.062
864	0.062
865	0.062
865	0.062
866	0.061
866	0.061
866	0.062
867	0.063
867	0.064
868	0.064
868	0.065
869	0.066
869	0.066
869	0.065
870	0.064
870	0.064
871	0.063
871	0.062
872	0.061
872	0.06
872	0.059
873	0.058
873	0.057
874	0.056
874	0.056
875	0.056
875	0.057
875	0.057
876	0.057
876	0.057
877	0.057
877	0.057
878	0.057
878	0.057
878	0.056
879	0.056
879	0.055
880	0.055
880	0.054
881	0.054
881	0.054
881	0.054
882	0.054
882	0.055
883	0.055
883	0.056
884	0.057
884	0.057
884	0.057
885	0.057
885	0.058
886	0.058
886	0.058
887	0.058
887	0.058
887	0.058
888	0.058
888	0.058
889	0.058
889	0.059
890	0.059
890	0.059
890	0.059
891	0.06
891	0.06
892	0.06
892	0.061
893	0.061
893	0.061
893	0.062
894	0.062
894	0.062
895	0.062
895	0.062
895	0.062
896	0.062
896	0.062
897	0.062
897	0.063
898	0.063
898	0.063
898	0.063
899	0.064
899	0.064
900	0.064
900	0.064
901	0.064
901	0.064
901	0.064
902	0.064
902	0.064
903	0.063
903	0.063
904	0.062
904	0.061
904	0.061
905	0.06
905	0.059
906	0.059
906	0.058
907	0.057
907	0.057
907	0.057
908	0.057
908	0.057
909	0.057
909	0.058
910	0.058
910	0.059
910	0.06
911	0.06
911	0.061
912	0.062
912	0.063
913	0.063
913	0.064
913	0.064
914	0.064
914	0.064
915	0.064
915	0.064
916	0.064
916	0.063
916	0.062
917	0.062
917	0.061
918	0.06
918	0.059
918	0.058
919	0.058
919	0.057
920	0.057
920	0.057
921	0.057
921	0.056
921	0.056
922	0.056
922	0.056
923	0.055
923	0.055
924	0.055
924	0.055
924	0.054
925	0.054
925	0.053
926	0.052
926	0.052
927	0.051
927	0.05
927	0.05
928	0.05
928	0.05
929	0.05
929	0.051
930	0.051
930	0.052
930	0.054
931	0.055
931	0.056
932	0.057
932	0.058
933	0.06
933	0.061
933	0.061
934	0.062
934	0.062
935	0.062
935	0.061
935	0.061
936	0.061
936	0.061
937	0.061
937	0.061
938	0.061
938	0.061
938	0.061
939	0.061
939	0.061
940	0.061
940	0.061
941	0.061
941	0.061
941	0.061
942	0.06
942	0.06
943	0.059
943	0.058
944	0.058
944	0.057
944	0.057
945	0.057
945	0.057
946	0.057
946	0.056
946	0.056
947	0.056
947	0.055
948	0.055
948	0.055
949	0.054
949	0.054
949	0.054
950	0.053
950	0.053
951	0.053
951	0.052
952	0.052
952	0.052
952	0.052
953	0.052
953	0.052
954	0.051
954	0.051
955	0.05
955	0.05
955	0.05
956	0.05
956	0.05
957	0.05
957	0.05
957	0.05
958	0.05
958	0.05
959	0.05
959	0.05
960	0.049
960	0.048
960	0.048
961	0.047
961	0.046
962	0.045
962	0.045
963	0.045
963	0.045
963	0.045
964	0.045
964	0.045
965	0.046
965	0.047
966	0.048
966	0.049
966	0.05
967	0.051
967	0.051
968	0.051
968	0.051
968	0.051
969	0.051
969	0.051
970	0.05
970	0.049
971	0.049
971	0.048
971	0.048
972	0.048
972	0.048
973	0.048
973	0.048
974	0.048
974	0.048
974	0.049
975	0.049
975	0.05
976	0.051
976	0.051
976	0.052
977	0.052
977	0.053
978	0.053
978	0.053
979	0.053
979	0.054
979	0.054
980	0.054
980	0.053
981	0.053
981	0.053
982	0.054
982	0.054
982	0.054
983	0.055
983	0.055
984	0.055
984	0.055
984	0.055
985	0.054
985	0.053
986	0.052
986	0.051
987	0.049
987	0.048
987	0.047
988	0.046
988	0.045
989	0.045
989	0.044
990	0.044
990	0.044
990	0.044
991	0.044
991	0.045
992	0.045
992	0.046
992	0.046
993	0.046
993	0.046
994	0.046
994	0.045
995	0.045
995	0.045
995	0.045
996	0.045
996	0.044
997	0.044
997	0.044
997	0.045
998	0.045
998	0.046
999	0.047
999	0.048
1000	0.048
1000	0.049
1000	0.05
1001	0.051
1001	0.052
1002	0.053
1002	0.054
1003	0.054
1003	0.054
1003	0.054
1004	0.054
1004	0.054
1005	0.053
1005	0.053
1005	0.052
1006	0.052
1006	0.051
1007	0.051
1007	0.05
1008	0.05
1008	0.05
1008	0.049
1009	0.049
1009	0.049
1010	0.049
1010	0.049
1010	0.049
1011	0.049
1011	0.049
1012	0.049
1012	0.049
1013	0.05
1013	0.049
1013	0.049
1014	0.048
1014	0.047
1015	0.047
1015	0.046
1016	0.045
1016	0.044
1016	0.043
1017	0.042
1017	0.041
1018	0.04
1018	0.039
1018	0.039
1019	0.038
1019	0.037
1020	0.037
1020	0.036
1021	0.036
1021	0.036
1021	0.036
1022	0.036
1022	0.036
1023	0.036
1023	0.035
1023	0.035
1024	0.034
1024	0.034
1025	0.033
1025	0.032
1026	0.032
1026	0.031
1026	0.03
1027	0.029
1027	0.029
1028	0.028
1028	0.028
1028	0.028
1029	0.028
1029	0.028
1030	0.029
1030	0.029
1031	0.029
1031	0.03
1031	0.03
1032	0.031
1032	0.032
1033	0.032
1033	0.033
1033	0.033
1034	0.033
1034	0.032
1035	0.032
1035	0.032
1036	0.031
1036	0.031
1036	0.031
1037	0.031
1037	0.03
1038	0.03
1038	0.03
1039	0.031
1039	0.031
1039	0.032
1040	0.032
1040	0.033
1041	0.033
1041	0.033
1041	0.032
1042	0.032
1042	0.031
1043	0.031
1043	0.03
1044	0.03
1044	0.029
1044	0.028
1045	0.027
1045	0.027
1046	0.026
1046	0.026
1046	0.026
1047	0.026
1047	0.026
1048	0.026
1048	0.026
1049	0.025
1049	0.024
1049	0.023
1050	0.022
1050	0.021
1051	0.021
1051	0.02
1051	0.02
1052	0.019
1052	0.019
1053	0.018
1053	0.018
1053	0.018
1054	0.018
1054	0.018
1055	0.019
1055	0.018
1056	0.018
1056	0.018
1056	0.017
1057	0.017
1057	0.017
1058	0.017
1058	0.016
1058	0.016
1059	0.017
1059	0.016
1060	0.016
1060	0.016
1061	0.016
1061	0.016
1061	0.016
1062	0.016
1062	0.015
1063	0.015
1063	0.015
1063	0.015
1064	0.016
1064	0.016
1065	0.016
1065	0.017
1066	0.017
1066	0.017
1066	0.018
1067	0.018
1067	0.019
1068	0.019
1068	0.02
1068	0.02
1069	0.02
1069	0.02
1070	0.02
1070	0.02
1071	0.021
1071	0.021
1071	0.021
1072	0.021
1072	0.021
1073	0.021
1073	0.022
1073	0.021
1074	0.022
1074	0.021
1075	0.02
1075	0.02
1076	0.019
1076	0.018
1076	0.018
1077	0.017
1077	0.016
1078	0.016
1078	0.016
1078	0.017
1079	0.017
1079	0.018
1080	0.018
1080	0.019
1080	0.019
1081	0.019
1081	0.019
1082	0.02
1082	0.02
1083	0.02
1083	0.02
1083	0.02
1084	0.02
1084	0.021
1085	0.021
1085	0.022
1085	0.023
1086	0.023
1086	0.023
1087	0.024
1087	0.024
1088	0.024
1088	0.025
1088	0.026
1089	0.026
1089	0.026
1090	0.027
1090	0.027
1090	0.028
1091	0.029
1091	0.03
1092	0.031
1092	0.034
1092	0.035
1093	0.035
1093	0.038
1094	0.039
1094	0.039
1095	0.04
1095	0.042
1095	0.044
1096	0.045
1096	0.046
1097	0.049
1097	0.05
1097	0.052
1098	0.053
1098	0.055
1099	0.058
1099	0.061
1100	0.063
1100	0.066
1100	0.068
1101	0.072
1101	0.074
1102	0.079
1102	0.084
1102	0.091
1103	0.097
1103	0.103
1104	0.111
1104	0.118
1104	0.127
1105	0.137
1105	0.146
1106	0.156
1106	0.168
1107	0.177
1107	0.195
1107	0.215
1108	0.286
1108	0.387
1109	0.563
1109	1.006
1109	-0
1110	-0
1110	-0
1111	-0
1111	-0
