Data from 15c-2a_Absorbance__625__03334.txt Node

Date: Tue Jan 16 14:22:06 CET 2024
User: Marek
Spectrometer: MAYP115816
Trigger mode: 0
Integration Time (sec): 2.000000E-1
Scans to average: 10
Electric dark correction enabled: true
Nonlinearity correction enabled: true
Boxcar width: 5
XAxis mode: Wavelengths
Number of Pixels in Spectrum: 2068
>>>>>Begin Spectral Data<<<<<
199	-1.6
199	-1.422
200	-1.295
200	-1.181
201	-1.111
201	-1.063
202	-0.994
202	-0.941
203	-0.9
203	-0.859
204	-0.835
204	-0.811
205	-0.793
205	-0.781
205	-0.779
206	-0.775
206	-0.773
207	-0.771
207	-0.771
208	-0.768
208	-0.768
209	-0.763
209	-0.763
210	-0.762
210	-0.76
211	-0.759
211	-0.759
212	-0.76
212	-0.759
213	-0.758
213	-0.757
213	-0.758
214	-0.756
214	-0.754
215	-0.753
215	-0.754
216	-0.751
216	-0.751
217	-0.748
217	-0.746
218	-0.742
218	-0.739
219	-0.734
219	-0.734
220	-0.732
220	-0.731
221	-0.728
221	-0.727
221	-0.723
222	-0.718
222	-0.713
223	-0.708
223	-0.704
224	-0.698
224	-0.689
225	-0.681
225	-0.672
226	-0.664
226	-0.654
227	-0.641
227	-0.63
228	-0.614
228	-0.6
229	-0.579
229	-0.556
229	-0.532
230	-0.505
230	-0.474
231	-0.441
231	-0.403
232	-0.367
232	-0.326
233	-0.284
233	-0.241
234	-0.199
234	-0.156
235	-0.113
235	-0.072
236	-0.032
236	0.008
236	0.045
237	0.081
237	0.114
238	0.145
238	0.174
239	0.202
239	0.226
240	0.249
240	0.27
241	0.288
241	0.305
242	0.32
242	0.335
243	0.348
243	0.359
243	0.37
244	0.379
244	0.388
245	0.396
245	0.403
246	0.41
246	0.416
247	0.422
247	0.428
248	0.433
248	0.438
249	0.443
249	0.447
250	0.451
250	0.455
250	0.459
251	0.462
251	0.465
252	0.468
252	0.471
253	0.473
253	0.475
254	0.477
254	0.479
255	0.48
255	0.482
256	0.484
256	0.484
257	0.485
257	0.486
258	0.487
258	0.488
258	0.488
259	0.488
259	0.488
260	0.489
260	0.489
261	0.488
261	0.489
262	0.489
262	0.488
263	0.488
263	0.487
264	0.487
264	0.486
265	0.485
265	0.484
265	0.483
266	0.482
266	0.481
267	0.479
267	0.478
268	0.476
268	0.474
269	0.473
269	0.471
270	0.469
270	0.467
271	0.465
271	0.463
272	0.461
272	0.459
272	0.457
273	0.455
273	0.452
274	0.45
274	0.449
275	0.446
275	0.444
276	0.442
276	0.44
277	0.438
277	0.435
278	0.432
278	0.43
278	0.428
279	0.424
279	0.421
280	0.419
280	0.416
281	0.413
281	0.411
282	0.409
282	0.406
283	0.405
283	0.402
284	0.401
284	0.399
285	0.397
285	0.395
285	0.393
286	0.392
286	0.39
287	0.388
287	0.386
288	0.384
288	0.382
289	0.38
289	0.379
290	0.377
290	0.376
291	0.374
291	0.373
292	0.371
292	0.369
292	0.368
293	0.366
293	0.365
294	0.364
294	0.362
295	0.361
295	0.36
296	0.358
296	0.357
297	0.356
297	0.355
298	0.354
298	0.353
298	0.352
299	0.351
299	0.35
300	0.349
300	0.348
301	0.347
301	0.347
302	0.345
302	0.345
303	0.344
303	0.343
304	0.342
304	0.341
305	0.34
305	0.34
305	0.339
306	0.338
306	0.337
307	0.336
307	0.335
308	0.334
308	0.333
309	0.332
309	0.332
310	0.331
310	0.33
311	0.329
311	0.328
311	0.327
312	0.327
312	0.326
313	0.325
313	0.324
314	0.323
314	0.322
315	0.322
315	0.321
316	0.32
316	0.319
317	0.318
317	0.317
318	0.317
318	0.316
318	0.315
319	0.314
319	0.313
320	0.312
320	0.311
321	0.31
321	0.309
322	0.308
322	0.308
323	0.307
323	0.306
324	0.305
324	0.304
324	0.304
325	0.303
325	0.302
326	0.301
326	0.301
327	0.3
327	0.299
328	0.298
328	0.298
329	0.297
329	0.296
330	0.295
330	0.295
330	0.294
331	0.293
331	0.292
332	0.291
332	0.291
333	0.29
333	0.289
334	0.289
334	0.288
335	0.287
335	0.286
336	0.286
336	0.285
336	0.284
337	0.284
337	0.283
338	0.283
338	0.282
339	0.281
339	0.281
340	0.28
340	0.279
341	0.279
341	0.278
342	0.278
342	0.278
342	0.277
343	0.276
343	0.276
344	0.275
344	0.275
345	0.274
345	0.274
346	0.273
346	0.273
347	0.273
347	0.272
348	0.272
348	0.271
348	0.271
349	0.271
349	0.27
350	0.27
350	0.269
351	0.269
351	0.269
352	0.268
352	0.268
353	0.267
353	0.267
354	0.266
354	0.265
354	0.265
355	0.264
355	0.263
356	0.263
356	0.262
357	0.261
357	0.261
358	0.26
358	0.26
359	0.261
359	0.261
360	0.261
360	0.261
360	0.262
361	0.262
361	0.262
362	0.263
362	0.263
363	0.263
363	0.263
364	0.262
364	0.262
365	0.262
365	0.262
366	0.262
366	0.261
366	0.261
367	0.261
367	0.261
368	0.26
368	0.26
369	0.26
369	0.26
370	0.259
370	0.259
371	0.259
371	0.259
372	0.258
372	0.258
372	0.258
373	0.257
373	0.257
374	0.257
374	0.257
375	0.256
375	0.256
376	0.256
376	0.256
377	0.256
377	0.256
378	0.256
378	0.256
378	0.256
379	0.256
379	0.256
380	0.256
380	0.256
381	0.256
381	0.255
382	0.255
382	0.255
383	0.254
383	0.254
383	0.254
384	0.253
384	0.253
385	0.253
385	0.253
386	0.252
386	0.252
387	0.252
387	0.252
388	0.252
388	0.252
389	0.251
389	0.251
389	0.251
390	0.251
390	0.251
391	0.251
391	0.251
392	0.251
392	0.251
393	0.251
393	0.251
394	0.251
394	0.251
394	0.251
395	0.25
395	0.25
396	0.25
396	0.25
397	0.25
397	0.25
398	0.25
398	0.249
399	0.249
399	0.249
400	0.249
400	0.248
400	0.248
401	0.247
401	0.247
402	0.246
402	0.246
403	0.245
403	0.245
404	0.245
404	0.245
405	0.245
405	0.245
405	0.244
406	0.245
406	0.245
407	0.245
407	0.245
408	0.244
408	0.244
409	0.244
409	0.244
410	0.244
410	0.244
411	0.244
411	0.244
411	0.243
412	0.243
412	0.243
413	0.243
413	0.242
414	0.242
414	0.242
415	0.241
415	0.241
416	0.241
416	0.24
416	0.24
417	0.24
417	0.24
418	0.24
418	0.24
419	0.24
419	0.24
420	0.241
420	0.241
421	0.241
421	0.241
421	0.241
422	0.242
422	0.242
423	0.241
423	0.241
424	0.241
424	0.24
425	0.24
425	0.24
426	0.239
426	0.239
427	0.239
427	0.239
427	0.239
428	0.24
428	0.24
429	0.24
429	0.24
430	0.24
430	0.241
431	0.241
431	0.24
432	0.24
432	0.24
432	0.239
433	0.239
433	0.238
434	0.238
434	0.238
435	0.238
435	0.238
436	0.238
436	0.238
437	0.238
437	0.238
437	0.238
438	0.238
438	0.237
439	0.237
439	0.237
440	0.237
440	0.237
441	0.237
441	0.237
442	0.237
442	0.238
442	0.238
443	0.239
443	0.239
444	0.239
444	0.24
445	0.24
445	0.24
446	0.24
446	0.24
447	0.24
447	0.24
447	0.24
448	0.24
448	0.24
449	0.24
449	0.239
450	0.239
450	0.239
451	0.239
451	0.239
452	0.239
452	0.239
452	0.239
453	0.239
453	0.238
454	0.238
454	0.238
455	0.238
455	0.238
456	0.238
456	0.238
457	0.238
457	0.238
458	0.238
458	0.238
458	0.239
459	0.239
459	0.239
460	0.239
460	0.239
461	0.239
461	0.239
462	0.239
462	0.24
463	0.24
463	0.241
463	0.241
464	0.242
464	0.242
465	0.242
465	0.242
466	0.242
466	0.243
467	0.243
467	0.243
467	0.243
468	0.242
468	0.242
469	0.241
469	0.242
470	0.242
470	0.242
471	0.242
471	0.242
472	0.243
472	0.243
472	0.243
473	0.245
473	0.245
474	0.246
474	0.247
475	0.248
475	0.248
476	0.249
476	0.25
477	0.25
477	0.251
477	0.252
478	0.252
478	0.253
479	0.254
479	0.255
480	0.256
480	0.256
481	0.257
481	0.258
482	0.259
482	0.26
482	0.261
483	0.263
483	0.265
484	0.267
484	0.268
485	0.269
485	0.271
486	0.272
486	0.273
487	0.274
487	0.275
487	0.276
488	0.277
488	0.277
489	0.278
489	0.279
490	0.28
490	0.28
491	0.281
491	0.283
492	0.284
492	0.285
492	0.286
493	0.288
493	0.289
494	0.292
494	0.294
495	0.296
495	0.297
496	0.299
496	0.3
496	0.302
497	0.303
497	0.305
498	0.306
498	0.308
499	0.309
499	0.31
500	0.311
500	0.313
501	0.316
501	0.317
501	0.319
502	0.321
502	0.323
503	0.325
503	0.327
504	0.328
504	0.33
505	0.331
505	0.333
506	0.334
506	0.336
506	0.338
507	0.339
507	0.341
508	0.342
508	0.344
509	0.346
509	0.347
510	0.349
510	0.35
511	0.351
511	0.353
511	0.353
512	0.355
512	0.356
513	0.357
513	0.357
514	0.358
514	0.359
515	0.359
515	0.36
515	0.36
516	0.361
516	0.362
517	0.363
517	0.364
518	0.364
518	0.364
519	0.364
519	0.364
520	0.363
520	0.363
520	0.362
521	0.361
521	0.361
522	0.36
522	0.359
523	0.359
523	0.36
524	0.36
524	0.361
524	0.362
525	0.363
525	0.363
526	0.364
526	0.365
527	0.365
527	0.366
528	0.366
528	0.366
529	0.366
529	0.366
529	0.366
530	0.365
530	0.365
531	0.364
531	0.363
532	0.362
532	0.361
533	0.361
533	0.36
533	0.359
534	0.357
534	0.356
535	0.355
535	0.353
536	0.352
536	0.351
537	0.35
537	0.348
538	0.346
538	0.345
538	0.343
539	0.341
539	0.339
540	0.338
540	0.336
541	0.333
541	0.331
542	0.329
542	0.326
542	0.324
543	0.322
543	0.32
544	0.317
544	0.315
545	0.313
545	0.311
546	0.309
546	0.306
547	0.304
547	0.301
547	0.298
548	0.296
548	0.293
549	0.291
549	0.288
550	0.286
550	0.283
551	0.28
551	0.277
551	0.275
552	0.273
552	0.271
553	0.269
553	0.267
554	0.265
554	0.262
555	0.26
555	0.257
556	0.254
556	0.251
556	0.248
557	0.246
557	0.243
558	0.241
558	0.238
559	0.236
559	0.234
560	0.232
560	0.23
560	0.229
561	0.228
561	0.226
562	0.225
562	0.223
563	0.22
563	0.218
564	0.215
564	0.213
564	0.21
565	0.208
565	0.206
566	0.204
566	0.202
567	0.2
567	0.199
568	0.199
568	0.197
568	0.197
569	0.196
569	0.195
570	0.194
570	0.192
571	0.191
571	0.19
572	0.188
572	0.187
573	0.185
573	0.183
573	0.182
574	0.18
574	0.179
575	0.178
575	0.178
576	0.177
576	0.175
577	0.173
577	0.171
577	0.171
578	0.17
578	0.17
579	0.17
579	0.171
580	0.169
580	0.166
581	0.163
581	0.162
581	0.162
582	0.162
582	0.161
583	0.161
583	0.16
584	0.157
584	0.153
585	0.153
585	0.153
585	0.153
586	0.152
586	0.152
587	0.15
587	0.148
588	0.147
588	0.146
589	0.145
589	0.145
590	0.145
590	0.144
590	0.145
591	0.145
591	0.144
592	0.143
592	0.141
593	0.14
593	0.14
594	0.138
594	0.137
594	0.136
595	0.135
595	0.134
596	0.133
596	0.135
597	0.137
597	0.138
598	0.138
598	0.139
598	0.14
599	0.14
599	0.139
600	0.138
600	0.138
601	0.137
601	0.136
602	0.134
602	0.134
602	0.132
603	0.132
603	0.133
604	0.133
604	0.133
605	0.134
605	0.135
606	0.135
606	0.134
606	0.133
607	0.133
607	0.133
608	0.132
608	0.131
609	0.13
609	0.13
610	0.129
610	0.128
610	0.128
611	0.129
611	0.13
612	0.131
612	0.132
613	0.134
613	0.135
614	0.134
614	0.134
614	0.134
615	0.134
615	0.134
616	0.134
616	0.133
617	0.133
617	0.133
618	0.132
618	0.132
618	0.133
619	0.134
619	0.135
620	0.137
620	0.138
621	0.139
621	0.14
622	0.141
622	0.141
622	0.142
623	0.142
623	0.144
624	0.145
624	0.145
625	0.145
625	0.146
626	0.146
626	0.147
626	0.148
627	0.148
627	0.149
628	0.149
628	0.15
629	0.15
629	0.15
630	0.15
630	0.151
630	0.152
631	0.153
631	0.154
632	0.154
632	0.155
633	0.157
633	0.158
634	0.16
634	0.162
634	0.164
635	0.165
635	0.166
636	0.168
636	0.169
637	0.17
637	0.172
638	0.174
638	0.176
638	0.177
639	0.179
639	0.181
640	0.183
640	0.186
641	0.188
641	0.191
642	0.193
642	0.195
642	0.197
643	0.199
643	0.201
644	0.203
644	0.204
645	0.206
645	0.209
646	0.211
646	0.214
646	0.217
647	0.22
647	0.223
648	0.226
648	0.228
649	0.232
649	0.235
650	0.238
650	0.241
650	0.243
651	0.246
651	0.249
652	0.251
652	0.255
653	0.259
653	0.267
653	0.269
654	0.213
654	0.172
655	0.176
655	0.179
656	0.181
656	0.182
657	0.184
657	0.186
657	0.187
658	0.183
658	0.178
659	0.226
659	0.294
660	0.301
660	0.303
661	0.305
661	0.308
661	0.312
662	0.316
662	0.319
663	0.323
663	0.327
664	0.33
664	0.333
665	0.336
665	0.34
665	0.343
666	0.347
666	0.35
667	0.353
667	0.356
668	0.36
668	0.363
669	0.367
669	0.371
669	0.375
670	0.379
670	0.382
671	0.385
671	0.387
672	0.39
672	0.392
672	0.393
673	0.395
673	0.397
674	0.399
674	0.4
675	0.402
675	0.404
676	0.407
676	0.409
676	0.41
677	0.413
677	0.415
678	0.416
678	0.418
679	0.419
679	0.421
680	0.423
680	0.424
680	0.425
681	0.426
681	0.428
682	0.429
682	0.43
683	0.432
683	0.434
684	0.435
684	0.435
684	0.435
685	0.436
685	0.437
686	0.437
686	0.437
687	0.437
687	0.437
687	0.437
688	0.436
688	0.436
689	0.436
689	0.436
690	0.435
690	0.434
691	0.434
691	0.433
691	0.432
692	0.431
692	0.43
693	0.43
693	0.43
694	0.428
694	0.427
695	0.428
695	0.428
695	0.427
696	0.426
696	0.425
697	0.424
697	0.423
698	0.421
698	0.419
698	0.416
699	0.414
699	0.411
700	0.408
700	0.406
701	0.404
701	0.402
702	0.4
702	0.397
702	0.395
703	0.393
703	0.391
704	0.389
704	0.387
705	0.385
705	0.382
705	0.378
706	0.376
706	0.373
707	0.37
707	0.368
708	0.365
708	0.363
709	0.361
709	0.359
709	0.356
710	0.353
710	0.351
711	0.349
711	0.347
712	0.345
712	0.343
713	0.341
713	0.338
713	0.335
714	0.332
714	0.329
715	0.326
715	0.323
716	0.32
716	0.317
716	0.313
717	0.311
717	0.308
718	0.305
718	0.302
719	0.301
719	0.299
720	0.296
720	0.294
720	0.292
721	0.289
721	0.286
722	0.284
722	0.281
723	0.278
723	0.275
723	0.272
724	0.269
724	0.266
725	0.262
725	0.26
726	0.257
726	0.254
727	0.252
727	0.25
727	0.248
728	0.245
728	0.244
729	0.243
729	0.241
730	0.239
730	0.237
730	0.236
731	0.235
731	0.233
732	0.232
732	0.231
733	0.229
733	0.227
734	0.225
734	0.223
734	0.222
735	0.221
735	0.219
736	0.217
736	0.215
737	0.214
737	0.212
737	0.21
738	0.207
738	0.204
739	0.202
739	0.2
740	0.198
740	0.197
741	0.195
741	0.194
741	0.191
742	0.189
742	0.187
743	0.186
743	0.185
744	0.184
744	0.182
744	0.18
745	0.178
745	0.176
746	0.174
746	0.172
747	0.17
747	0.168
748	0.166
748	0.164
748	0.162
749	0.159
749	0.158
750	0.156
750	0.154
751	0.152
751	0.15
751	0.149
752	0.147
752	0.145
753	0.144
753	0.142
754	0.141
754	0.14
754	0.139
755	0.138
755	0.137
756	0.135
756	0.133
757	0.132
757	0.131
758	0.13
758	0.128
758	0.127
759	0.125
759	0.122
760	0.12
760	0.118
761	0.117
761	0.116
761	0.115
762	0.113
762	0.112
763	0.111
763	0.108
764	0.106
764	0.104
764	0.103
765	0.101
765	0.099
766	0.098
766	0.097
767	0.096
767	0.094
768	0.092
768	0.09
768	0.09
769	0.089
769	0.088
770	0.086
770	0.085
771	0.083
771	0.08
771	0.078
772	0.076
772	0.075
773	0.073
773	0.071
774	0.068
774	0.066
775	0.064
775	0.062
775	0.06
776	0.057
776	0.055
777	0.052
777	0.049
778	0.046
778	0.043
778	0.04
779	0.038
779	0.035
780	0.032
780	0.029
781	0.026
781	0.022
781	0.018
782	0.013
782	0.007
783	0.002
783	-0.004
784	-0.011
784	-0.018
784	-0.025
785	-0.032
785	-0.039
786	-0.046
786	-0.051
787	-0.053
787	-0.056
788	-0.061
788	-0.066
788	-0.07
789	-0.074
789	-0.076
790	-0.076
790	-0.077
791	-0.079
791	-0.081
791	-0.083
792	-0.078
792	-0.068
793	-0.063
793	-0.059
794	-0.057
794	-0.059
794	-0.062
795	-0.064
795	-0.064
796	-0.064
796	-0.066
797	-0.074
797	-0.083
797	-0.09
798	-0.095
798	-0.097
799	-0.098
799	-0.098
800	-0.098
800	-0.1
801	-0.103
801	-0.104
801	-0.105
802	-0.107
802	-0.108
803	-0.109
803	-0.11
804	-0.109
804	-0.104
804	-0.098
805	-0.094
805	-0.092
806	-0.09
806	-0.089
807	-0.088
807	-0.087
807	-0.087
808	-0.086
808	-0.087
809	-0.091
809	-0.096
810	-0.098
810	-0.1
810	-0.103
811	-0.106
811	-0.106
812	-0.102
812	-0.099
813	-0.099
813	-0.1
813	-0.101
814	-0.102
814	-0.101
815	-0.099
815	-0.096
816	-0.095
816	-0.094
817	-0.096
817	-0.095
817	-0.091
818	-0.084
818	-0.076
819	-0.067
819	-0.06
820	-0.053
820	-0.046
820	-0.039
821	-0.03
821	-0.022
822	-0.015
822	-0.009
823	-0.004
823	-0
823	0.004
824	0.008
824	0.012
825	0.016
825	0.021
826	0.024
826	0.027
826	0.03
827	0.032
827	0.035
828	0.037
828	0.039
829	0.041
829	0.043
829	0.045
830	0.047
830	0.049
831	0.052
831	0.054
832	0.055
832	0.057
832	0.058
833	0.059
833	0.06
834	0.061
834	0.061
835	0.061
835	0.061
835	0.061
836	0.061
836	0.061
837	0.062
837	0.062
838	0.063
838	0.063
839	0.063
839	0.063
839	0.063
840	0.063
840	0.064
841	0.064
841	0.064
842	0.064
842	0.064
842	0.064
843	0.064
843	0.064
844	0.064
844	0.064
845	0.064
845	0.064
845	0.064
846	0.064
846	0.063
847	0.063
847	0.064
848	0.064
848	0.064
848	0.064
849	0.064
849	0.064
850	0.064
850	0.064
851	0.064
851	0.064
851	0.064
852	0.064
852	0.064
853	0.064
853	0.065
854	0.065
854	0.066
854	0.067
855	0.067
855	0.068
856	0.068
856	0.068
857	0.068
857	0.068
857	0.068
858	0.068
858	0.067
859	0.066
859	0.066
860	0.066
860	0.065
860	0.064
861	0.064
861	0.064
862	0.062
862	0.062
863	0.061
863	0.061
863	0.06
864	0.06
864	0.059
865	0.059
865	0.059
866	0.059
866	0.059
866	0.059
867	0.06
867	0.061
868	0.062
868	0.062
869	0.063
869	0.063
869	0.063
870	0.062
870	0.062
871	0.061
871	0.061
872	0.06
872	0.059
872	0.057
873	0.056
873	0.055
874	0.054
874	0.054
875	0.054
875	0.054
875	0.054
876	0.054
876	0.054
877	0.054
877	0.054
878	0.054
878	0.054
878	0.054
879	0.053
879	0.053
880	0.052
880	0.052
881	0.052
881	0.052
881	0.052
882	0.052
882	0.053
883	0.053
883	0.054
884	0.054
884	0.055
884	0.055
885	0.055
885	0.056
886	0.056
886	0.056
887	0.056
887	0.056
887	0.056
888	0.055
888	0.055
889	0.055
889	0.056
890	0.056
890	0.056
890	0.057
891	0.057
891	0.057
892	0.058
892	0.058
893	0.059
893	0.059
893	0.06
894	0.06
894	0.061
895	0.061
895	0.061
895	0.061
896	0.061
896	0.062
897	0.062
897	0.063
898	0.063
898	0.063
898	0.063
899	0.063
899	0.064
900	0.064
900	0.064
901	0.064
901	0.064
901	0.064
902	0.064
902	0.063
903	0.063
903	0.062
904	0.062
904	0.061
904	0.06
905	0.059
905	0.058
906	0.058
906	0.057
907	0.056
907	0.055
907	0.055
908	0.054
908	0.055
909	0.055
909	0.055
910	0.056
910	0.056
910	0.057
911	0.058
911	0.059
912	0.06
912	0.06
913	0.061
913	0.062
913	0.062
914	0.062
914	0.062
915	0.062
915	0.062
916	0.061
916	0.061
916	0.06
917	0.059
917	0.059
918	0.058
918	0.057
918	0.056
919	0.056
919	0.055
920	0.055
920	0.054
921	0.054
921	0.054
921	0.053
922	0.053
922	0.053
923	0.052
923	0.052
924	0.052
924	0.052
924	0.052
925	0.051
925	0.051
926	0.051
926	0.05
927	0.049
927	0.049
927	0.048
928	0.048
928	0.048
929	0.049
929	0.049
930	0.05
930	0.051
930	0.052
931	0.053
931	0.054
932	0.055
932	0.057
933	0.058
933	0.059
933	0.059
934	0.059
934	0.059
935	0.059
935	0.059
935	0.059
936	0.058
936	0.058
937	0.058
937	0.058
938	0.058
938	0.058
938	0.058
939	0.058
939	0.059
940	0.059
940	0.059
941	0.059
941	0.059
941	0.059
942	0.059
942	0.059
943	0.058
943	0.058
944	0.057
944	0.057
944	0.057
945	0.056
945	0.056
946	0.056
946	0.055
946	0.055
947	0.054
947	0.054
948	0.054
948	0.053
949	0.052
949	0.052
949	0.052
950	0.051
950	0.051
951	0.051
951	0.05
952	0.05
952	0.049
952	0.049
953	0.048
953	0.048
954	0.047
954	0.046
955	0.046
955	0.046
955	0.046
956	0.046
956	0.046
957	0.046
957	0.046
957	0.046
958	0.046
958	0.046
959	0.046
959	0.046
960	0.046
960	0.046
960	0.045
961	0.044
961	0.044
962	0.043
962	0.043
963	0.043
963	0.043
963	0.043
964	0.043
964	0.044
965	0.045
965	0.046
966	0.047
966	0.048
966	0.049
967	0.05
967	0.05
968	0.051
968	0.051
968	0.051
969	0.05
969	0.05
970	0.049
970	0.049
971	0.048
971	0.048
971	0.047
972	0.047
972	0.047
973	0.047
973	0.047
974	0.048
974	0.048
974	0.048
975	0.049
975	0.05
976	0.051
976	0.051
976	0.052
977	0.052
977	0.052
978	0.052
978	0.052
979	0.052
979	0.052
979	0.052
980	0.052
980	0.052
981	0.052
981	0.052
982	0.053
982	0.053
982	0.054
983	0.055
983	0.055
984	0.055
984	0.055
984	0.055
985	0.055
985	0.054
986	0.053
986	0.052
987	0.051
987	0.049
987	0.048
988	0.047
988	0.046
989	0.045
989	0.044
990	0.043
990	0.043
990	0.043
991	0.043
991	0.043
992	0.044
992	0.044
992	0.044
993	0.044
993	0.044
994	0.044
994	0.044
995	0.044
995	0.044
995	0.043
996	0.043
996	0.043
997	0.043
997	0.043
997	0.043
998	0.044
998	0.044
999	0.045
999	0.046
1000	0.047
1000	0.048
1000	0.049
1001	0.05
1001	0.051
1002	0.051
1002	0.052
1003	0.052
1003	0.053
1003	0.053
1004	0.053
1004	0.052
1005	0.052
1005	0.051
1005	0.05
1006	0.049
1006	0.049
1007	0.048
1007	0.048
1008	0.047
1008	0.047
1008	0.047
1009	0.047
1009	0.047
1010	0.047
1010	0.047
1010	0.047
1011	0.047
1011	0.047
1012	0.048
1012	0.048
1013	0.048
1013	0.047
1013	0.047
1014	0.046
1014	0.046
1015	0.045
1015	0.044
1016	0.043
1016	0.042
1016	0.041
1017	0.04
1017	0.038
1018	0.038
1018	0.037
1018	0.037
1019	0.036
1019	0.036
1020	0.035
1020	0.035
1021	0.035
1021	0.035
1021	0.035
1022	0.035
1022	0.035
1023	0.035
1023	0.034
1023	0.034
1024	0.033
1024	0.033
1025	0.032
1025	0.031
1026	0.03
1026	0.029
1026	0.029
1027	0.028
1027	0.027
1028	0.027
1028	0.027
1028	0.027
1029	0.027
1029	0.027
1030	0.027
1030	0.027
1031	0.028
1031	0.028
1031	0.028
1032	0.029
1032	0.029
1033	0.03
1033	0.03
1033	0.03
1034	0.03
1034	0.029
1035	0.029
1035	0.028
1036	0.028
1036	0.028
1036	0.028
1037	0.028
1037	0.027
1038	0.027
1038	0.028
1039	0.028
1039	0.029
1039	0.029
1040	0.03
1040	0.03
1041	0.03
1041	0.03
1041	0.03
1042	0.029
1042	0.028
1043	0.028
1043	0.027
1044	0.027
1044	0.026
1044	0.025
1045	0.025
1045	0.024
1046	0.023
1046	0.023
1046	0.023
1047	0.023
1047	0.023
1048	0.023
1048	0.023
1049	0.023
1049	0.022
1049	0.021
1050	0.021
1050	0.02
1051	0.019
1051	0.019
1051	0.018
1052	0.018
1052	0.017
1053	0.016
1053	0.016
1053	0.016
1054	0.015
1054	0.015
1055	0.016
1055	0.016
1056	0.015
1056	0.015
1056	0.014
1057	0.013
1057	0.013
1058	0.013
1058	0.013
1058	0.013
1059	0.013
1059	0.012
1060	0.012
1060	0.012
1061	0.012
1061	0.012
1061	0.012
1062	0.012
1062	0.012
1063	0.012
1063	0.011
1063	0.011
1064	0.012
1064	0.012
1065	0.012
1065	0.012
1066	0.012
1066	0.012
1066	0.013
1067	0.013
1067	0.014
1068	0.014
1068	0.015
1068	0.015
1069	0.015
1069	0.015
1070	0.015
1070	0.015
1071	0.016
1071	0.016
1071	0.015
1072	0.015
1072	0.015
1073	0.015
1073	0.016
1073	0.015
1074	0.015
1074	0.015
1075	0.013
1075	0.013
1076	0.011
1076	0.011
1076	0.01
1077	0.009
1077	0.008
1078	0.008
1078	0.008
1078	0.008
1079	0.009
1079	0.009
1080	0.01
1080	0.011
1080	0.011
1081	0.011
1081	0.012
1082	0.012
1082	0.012
1083	0.011
1083	0.011
1083	0.011
1084	0.011
1084	0.012
1085	0.011
1085	0.012
1085	0.013
1086	0.013
1086	0.013
1087	0.014
1087	0.014
1088	0.014
1088	0.015
1088	0.015
1089	0.015
1089	0.016
1090	0.016
1090	0.016
1090	0.016
1091	0.017
1091	0.018
1092	0.019
1092	0.021
1092	0.021
1093	0.022
1093	0.024
1094	0.025
1094	0.025
1095	0.025
1095	0.026
1095	0.028
1096	0.029
1096	0.03
1097	0.031
1097	0.032
1097	0.033
1098	0.033
1098	0.035
1099	0.037
1099	0.039
1100	0.041
1100	0.043
1100	0.045
1101	0.047
1101	0.049
1102	0.052
1102	0.057
1102	0.062
1103	0.066
1103	0.071
1104	0.077
1104	0.082
1104	0.089
1105	0.097
1105	0.105
1106	0.111
1106	0.12
1107	0.125
1107	0.138
1107	0.154
1108	0.205
1108	0.277
1109	0.387
1109	0.584
1109	0.785
1110	1.583
1110	-0
1111	-0
1111	-0
