Data from 15c-2a_Absorbance__9__02718.txt Node

Date: Tue Jan 16 14:01:34 CET 2024
User: Marek
Spectrometer: MAYP115816
Trigger mode: 0
Integration Time (sec): 2.000000E-1
Scans to average: 10
Electric dark correction enabled: true
Nonlinearity correction enabled: true
Boxcar width: 5
XAxis mode: Wavelengths
Number of Pixels in Spectrum: 2068
>>>>>Begin Spectral Data<<<<<
199	-2.161
199	-1.973
200	-1.837
200	-1.718
201	-1.644
201	-1.592
202	-1.516
202	-1.454
203	-1.405
203	-1.356
204	-1.329
204	-1.304
205	-1.284
205	-1.273
205	-1.269
206	-1.264
206	-1.261
207	-1.258
207	-1.258
208	-1.254
208	-1.253
209	-1.249
209	-1.247
210	-1.246
210	-1.243
211	-1.242
211	-1.241
212	-1.24
212	-1.24
213	-1.237
213	-1.236
213	-1.236
214	-1.234
214	-1.233
215	-1.232
215	-1.232
216	-1.228
216	-1.228
217	-1.225
217	-1.222
218	-1.219
218	-1.215
219	-1.211
219	-1.21
220	-1.208
220	-1.206
221	-1.202
221	-1.2
221	-1.195
222	-1.191
222	-1.186
223	-1.181
223	-1.176
224	-1.17
224	-1.162
225	-1.153
225	-1.143
226	-1.135
226	-1.125
227	-1.112
227	-1.099
228	-1.083
228	-1.067
229	-1.046
229	-1.022
229	-0.997
230	-0.968
230	-0.936
231	-0.901
231	-0.863
232	-0.824
232	-0.781
233	-0.736
233	-0.69
234	-0.643
234	-0.596
235	-0.548
235	-0.501
236	-0.455
236	-0.41
236	-0.365
237	-0.323
237	-0.282
238	-0.244
238	-0.208
239	-0.172
239	-0.14
240	-0.11
240	-0.082
241	-0.056
241	-0.033
242	-0.011
242	0.01
243	0.029
243	0.046
243	0.062
244	0.077
244	0.09
245	0.102
245	0.114
246	0.125
246	0.135
247	0.144
247	0.153
248	0.161
248	0.168
249	0.175
249	0.181
250	0.187
250	0.193
250	0.198
251	0.203
251	0.207
252	0.212
252	0.216
253	0.22
253	0.223
254	0.227
254	0.23
255	0.233
255	0.235
256	0.238
256	0.24
257	0.243
257	0.245
258	0.246
258	0.248
258	0.249
259	0.251
259	0.252
260	0.253
260	0.254
261	0.254
261	0.255
262	0.256
262	0.256
263	0.256
263	0.257
264	0.257
264	0.257
265	0.258
265	0.257
265	0.257
266	0.257
266	0.257
267	0.257
267	0.257
268	0.256
268	0.255
269	0.255
269	0.254
270	0.253
270	0.253
271	0.252
271	0.251
272	0.25
272	0.25
272	0.249
273	0.248
273	0.247
274	0.247
274	0.246
275	0.246
275	0.245
276	0.244
276	0.243
277	0.242
277	0.24
278	0.239
278	0.238
278	0.237
279	0.235
279	0.234
280	0.233
280	0.232
281	0.231
281	0.231
282	0.23
282	0.23
283	0.229
283	0.229
284	0.229
284	0.229
285	0.228
285	0.228
285	0.227
286	0.227
286	0.226
287	0.225
287	0.225
288	0.224
288	0.224
289	0.224
289	0.223
290	0.223
290	0.222
291	0.221
291	0.221
292	0.221
292	0.221
292	0.22
293	0.22
293	0.22
294	0.219
294	0.219
295	0.219
295	0.219
296	0.218
296	0.218
297	0.218
297	0.218
298	0.217
298	0.217
298	0.217
299	0.217
299	0.217
300	0.216
300	0.216
301	0.216
301	0.216
302	0.216
302	0.216
303	0.216
303	0.215
304	0.215
304	0.215
305	0.215
305	0.214
305	0.214
306	0.214
306	0.213
307	0.213
307	0.213
308	0.212
308	0.212
309	0.212
309	0.211
310	0.211
310	0.21
311	0.21
311	0.21
311	0.209
312	0.209
312	0.209
313	0.208
313	0.207
314	0.207
314	0.207
315	0.206
315	0.206
316	0.205
316	0.205
317	0.204
317	0.204
318	0.203
318	0.203
318	0.203
319	0.202
319	0.202
320	0.201
320	0.201
321	0.2
321	0.2
322	0.199
322	0.198
323	0.198
323	0.197
324	0.197
324	0.196
324	0.196
325	0.195
325	0.195
326	0.194
326	0.194
327	0.193
327	0.193
328	0.192
328	0.192
329	0.191
329	0.191
330	0.19
330	0.19
330	0.189
331	0.189
331	0.188
332	0.187
332	0.187
333	0.186
333	0.186
334	0.185
334	0.185
335	0.184
335	0.183
336	0.183
336	0.182
336	0.182
337	0.181
337	0.181
338	0.18
338	0.179
339	0.179
339	0.179
340	0.178
340	0.178
341	0.177
341	0.177
342	0.176
342	0.176
342	0.175
343	0.175
343	0.174
344	0.174
344	0.173
345	0.173
345	0.172
346	0.172
346	0.171
347	0.171
347	0.17
348	0.17
348	0.169
348	0.168
349	0.168
349	0.167
350	0.166
350	0.166
351	0.165
351	0.165
352	0.164
352	0.163
353	0.162
353	0.161
354	0.16
354	0.159
354	0.158
355	0.156
355	0.155
356	0.155
356	0.154
357	0.153
357	0.153
358	0.153
358	0.153
359	0.153
359	0.154
360	0.155
360	0.156
360	0.157
361	0.157
361	0.158
362	0.158
362	0.159
363	0.159
363	0.159
364	0.158
364	0.158
365	0.158
365	0.157
366	0.157
366	0.157
366	0.156
367	0.156
367	0.156
368	0.156
368	0.156
369	0.155
369	0.155
370	0.155
370	0.155
371	0.154
371	0.154
372	0.153
372	0.153
372	0.153
373	0.153
373	0.153
374	0.153
374	0.153
375	0.153
375	0.153
376	0.153
376	0.153
377	0.153
377	0.154
378	0.154
378	0.154
378	0.155
379	0.155
379	0.155
380	0.156
380	0.155
381	0.155
381	0.155
382	0.155
382	0.155
383	0.154
383	0.154
383	0.154
384	0.153
384	0.153
385	0.153
385	0.153
386	0.153
386	0.154
387	0.154
387	0.154
388	0.153
388	0.153
389	0.153
389	0.153
389	0.153
390	0.154
390	0.154
391	0.154
391	0.155
392	0.155
392	0.155
393	0.155
393	0.155
394	0.156
394	0.156
394	0.155
395	0.155
395	0.155
396	0.155
396	0.155
397	0.156
397	0.156
398	0.156
398	0.156
399	0.156
399	0.156
400	0.156
400	0.156
400	0.156
401	0.155
401	0.154
402	0.153
402	0.152
403	0.152
403	0.152
404	0.152
404	0.152
405	0.151
405	0.151
405	0.151
406	0.151
406	0.151
407	0.151
407	0.151
408	0.151
408	0.15
409	0.15
409	0.15
410	0.15
410	0.15
411	0.15
411	0.15
411	0.149
412	0.149
412	0.149
413	0.149
413	0.149
414	0.148
414	0.148
415	0.148
415	0.147
416	0.147
416	0.146
416	0.146
417	0.146
417	0.146
418	0.146
418	0.146
419	0.147
419	0.148
420	0.148
420	0.149
421	0.15
421	0.15
421	0.151
422	0.151
422	0.151
423	0.151
423	0.151
424	0.15
424	0.15
425	0.149
425	0.148
426	0.147
426	0.147
427	0.147
427	0.147
427	0.147
428	0.148
428	0.149
429	0.149
429	0.15
430	0.15
430	0.15
431	0.15
431	0.149
432	0.149
432	0.148
432	0.147
433	0.146
433	0.145
434	0.144
434	0.144
435	0.144
435	0.144
436	0.144
436	0.144
437	0.144
437	0.144
437	0.144
438	0.144
438	0.144
439	0.144
439	0.143
440	0.143
440	0.143
441	0.143
441	0.143
442	0.144
442	0.144
442	0.145
443	0.145
443	0.146
444	0.146
444	0.147
445	0.147
445	0.148
446	0.148
446	0.148
447	0.147
447	0.147
447	0.147
448	0.147
448	0.146
449	0.146
449	0.145
450	0.145
450	0.145
451	0.144
451	0.144
452	0.143
452	0.143
452	0.142
453	0.141
453	0.141
454	0.14
454	0.139
455	0.138
455	0.138
456	0.137
456	0.137
457	0.137
457	0.136
458	0.136
458	0.136
458	0.137
459	0.137
459	0.137
460	0.137
460	0.136
461	0.136
461	0.135
462	0.135
462	0.135
463	0.135
463	0.136
463	0.136
464	0.136
464	0.136
465	0.136
465	0.136
466	0.136
466	0.136
467	0.136
467	0.136
467	0.134
468	0.133
468	0.131
469	0.129
469	0.127
470	0.127
470	0.126
471	0.126
471	0.125
472	0.125
472	0.125
472	0.125
473	0.126
473	0.127
474	0.128
474	0.129
475	0.129
475	0.13
476	0.13
476	0.13
477	0.13
477	0.131
477	0.131
478	0.131
478	0.131
479	0.131
479	0.131
480	0.132
480	0.132
481	0.132
481	0.132
482	0.133
482	0.133
482	0.134
483	0.136
483	0.138
484	0.141
484	0.142
485	0.144
485	0.145
486	0.146
486	0.146
487	0.147
487	0.147
487	0.147
488	0.146
488	0.144
489	0.142
489	0.14
490	0.139
490	0.138
491	0.137
491	0.137
492	0.137
492	0.136
492	0.136
493	0.137
493	0.137
494	0.139
494	0.14
495	0.141
495	0.142
496	0.143
496	0.143
496	0.143
497	0.144
497	0.144
498	0.144
498	0.144
499	0.143
499	0.143
500	0.143
500	0.144
501	0.145
501	0.146
501	0.147
502	0.148
502	0.148
503	0.149
503	0.15
504	0.15
504	0.15
505	0.151
505	0.15
506	0.15
506	0.15
506	0.151
507	0.151
507	0.151
508	0.151
508	0.151
509	0.151
509	0.152
510	0.152
510	0.152
511	0.152
511	0.152
511	0.152
512	0.151
512	0.151
513	0.151
513	0.15
514	0.15
514	0.149
515	0.149
515	0.147
515	0.146
516	0.145
516	0.144
517	0.145
517	0.145
518	0.145
518	0.145
519	0.145
519	0.143
520	0.142
520	0.141
520	0.14
521	0.138
521	0.136
522	0.133
522	0.13
523	0.127
523	0.126
524	0.125
524	0.126
524	0.126
525	0.128
525	0.13
526	0.133
526	0.136
527	0.14
527	0.143
528	0.146
528	0.149
529	0.151
529	0.153
529	0.155
530	0.156
530	0.157
531	0.158
531	0.159
532	0.16
532	0.16
533	0.162
533	0.163
533	0.163
534	0.164
534	0.164
535	0.164
535	0.165
536	0.165
536	0.166
537	0.166
537	0.167
538	0.167
538	0.167
538	0.167
539	0.167
539	0.167
540	0.168
540	0.168
541	0.167
541	0.167
542	0.166
542	0.166
542	0.166
543	0.166
543	0.167
544	0.166
544	0.166
545	0.167
545	0.168
546	0.169
546	0.17
547	0.17
547	0.169
547	0.168
548	0.168
548	0.167
549	0.166
549	0.166
550	0.166
550	0.165
551	0.164
551	0.164
551	0.164
552	0.164
552	0.165
553	0.166
553	0.167
554	0.169
554	0.169
555	0.168
555	0.167
556	0.166
556	0.165
556	0.163
557	0.162
557	0.161
558	0.161
558	0.16
559	0.161
559	0.162
560	0.163
560	0.164
560	0.166
561	0.168
561	0.17
562	0.171
562	0.172
563	0.172
563	0.171
564	0.17
564	0.168
564	0.167
565	0.166
565	0.166
566	0.166
566	0.166
567	0.168
567	0.17
568	0.173
568	0.176
568	0.18
569	0.184
569	0.188
570	0.191
570	0.193
571	0.195
571	0.197
572	0.199
572	0.2
573	0.202
573	0.203
573	0.203
574	0.203
574	0.203
575	0.204
575	0.206
576	0.208
576	0.209
577	0.209
577	0.208
577	0.208
578	0.208
578	0.209
579	0.212
579	0.215
580	0.216
580	0.215
581	0.213
581	0.211
581	0.21
582	0.211
582	0.211
583	0.213
583	0.213
584	0.21
584	0.207
585	0.205
585	0.204
585	0.205
586	0.205
586	0.206
587	0.205
587	0.203
588	0.201
588	0.199
589	0.197
589	0.196
590	0.195
590	0.194
590	0.195
591	0.196
591	0.196
592	0.196
592	0.195
593	0.195
593	0.195
594	0.194
594	0.193
594	0.192
595	0.192
595	0.19
596	0.189
596	0.189
597	0.192
597	0.194
598	0.196
598	0.198
598	0.199
599	0.2
599	0.2
600	0.2
600	0.199
601	0.198
601	0.197
602	0.194
602	0.193
602	0.19
603	0.189
603	0.189
604	0.189
604	0.19
605	0.191
605	0.193
606	0.193
606	0.193
606	0.192
607	0.191
607	0.191
608	0.19
608	0.188
609	0.186
609	0.185
610	0.183
610	0.18
610	0.179
611	0.179
611	0.179
612	0.18
612	0.181
613	0.182
613	0.184
614	0.184
614	0.183
614	0.183
615	0.182
615	0.181
616	0.18
616	0.179
617	0.178
617	0.176
618	0.173
618	0.172
618	0.17
619	0.169
619	0.169
620	0.171
620	0.171
621	0.172
621	0.172
622	0.172
622	0.173
622	0.173
623	0.172
623	0.173
624	0.174
624	0.174
625	0.173
625	0.173
626	0.172
626	0.171
626	0.171
627	0.17
627	0.17
628	0.169
628	0.168
629	0.168
629	0.167
630	0.166
630	0.164
630	0.163
631	0.163
631	0.163
632	0.162
632	0.161
633	0.161
633	0.161
634	0.161
634	0.163
634	0.164
635	0.166
635	0.166
636	0.167
636	0.168
637	0.168
637	0.169
638	0.17
638	0.17
638	0.171
639	0.171
639	0.171
640	0.172
640	0.173
641	0.174
641	0.175
642	0.177
642	0.178
642	0.179
643	0.18
643	0.181
644	0.182
644	0.183
645	0.184
645	0.185
646	0.187
646	0.189
646	0.192
647	0.194
647	0.197
648	0.199
648	0.201
649	0.203
649	0.206
650	0.208
650	0.211
650	0.213
651	0.214
651	0.215
652	0.217
652	0.218
653	0.22
653	0.229
653	0.236
654	0.191
654	0.157
655	0.162
655	0.164
656	0.165
656	0.166
657	0.167
657	0.168
657	0.168
658	0.164
658	0.155
659	0.192
659	0.242
660	0.243
660	0.243
661	0.244
661	0.245
661	0.247
662	0.249
662	0.252
663	0.255
663	0.257
664	0.26
664	0.262
665	0.264
665	0.266
665	0.268
666	0.271
666	0.272
667	0.274
667	0.276
668	0.278
668	0.28
669	0.283
669	0.285
669	0.289
670	0.293
670	0.296
671	0.298
671	0.3
672	0.301
672	0.302
672	0.303
673	0.304
673	0.304
674	0.305
674	0.305
675	0.305
675	0.305
676	0.307
676	0.309
676	0.31
677	0.312
677	0.314
678	0.316
678	0.318
679	0.319
679	0.32
680	0.322
680	0.323
680	0.324
681	0.324
681	0.325
682	0.326
682	0.327
683	0.329
683	0.331
684	0.333
684	0.334
684	0.335
685	0.336
685	0.337
686	0.339
686	0.34
687	0.34
687	0.34
687	0.34
688	0.339
688	0.338
689	0.339
689	0.34
690	0.34
690	0.34
691	0.34
691	0.34
691	0.341
692	0.341
692	0.341
693	0.341
693	0.342
694	0.342
694	0.341
695	0.342
695	0.344
695	0.345
696	0.345
696	0.345
697	0.345
697	0.345
698	0.344
698	0.343
698	0.341
699	0.341
699	0.338
700	0.336
700	0.334
701	0.333
701	0.332
702	0.331
702	0.33
702	0.329
703	0.328
703	0.327
704	0.326
704	0.326
705	0.326
705	0.326
705	0.325
706	0.324
706	0.324
707	0.323
707	0.321
708	0.32
708	0.319
709	0.318
709	0.317
709	0.314
710	0.312
710	0.31
711	0.309
711	0.308
712	0.307
712	0.306
713	0.305
713	0.304
713	0.303
714	0.301
714	0.299
715	0.297
715	0.295
716	0.293
716	0.291
716	0.289
717	0.288
717	0.286
718	0.285
718	0.283
719	0.282
719	0.282
720	0.281
720	0.28
720	0.278
721	0.276
721	0.274
722	0.272
722	0.27
723	0.268
723	0.266
723	0.264
724	0.262
724	0.26
725	0.257
725	0.255
726	0.254
726	0.253
727	0.251
727	0.25
727	0.249
728	0.248
728	0.247
729	0.248
729	0.248
730	0.247
730	0.246
730	0.245
731	0.245
731	0.245
732	0.244
732	0.244
733	0.242
733	0.241
734	0.24
734	0.238
734	0.237
735	0.236
735	0.235
736	0.233
736	0.231
737	0.23
737	0.229
737	0.228
738	0.225
738	0.222
739	0.22
739	0.218
740	0.215
740	0.214
741	0.212
741	0.21
741	0.207
742	0.202
742	0.199
743	0.196
743	0.194
744	0.192
744	0.191
744	0.188
745	0.186
745	0.184
746	0.182
746	0.181
747	0.18
747	0.18
748	0.179
748	0.179
748	0.178
749	0.177
749	0.176
750	0.175
750	0.174
751	0.174
751	0.174
751	0.174
752	0.173
752	0.171
753	0.17
753	0.169
754	0.168
754	0.167
754	0.167
755	0.167
755	0.167
756	0.166
756	0.164
757	0.162
757	0.162
758	0.161
758	0.159
758	0.158
759	0.156
759	0.153
760	0.149
760	0.146
761	0.142
761	0.14
761	0.138
762	0.136
762	0.134
763	0.133
763	0.13
764	0.126
764	0.123
764	0.12
765	0.117
765	0.114
766	0.112
766	0.111
767	0.11
767	0.106
768	0.102
768	0.098
768	0.096
769	0.094
769	0.093
770	0.091
770	0.088
771	0.084
771	0.08
771	0.075
772	0.071
772	0.067
773	0.063
773	0.058
774	0.052
774	0.046
775	0.041
775	0.036
775	0.029
776	0.023
776	0.016
777	0.009
777	0.002
778	-0.005
778	-0.013
778	-0.021
779	-0.027
779	-0.031
780	-0.037
780	-0.043
781	-0.048
781	-0.053
781	-0.057
782	-0.061
782	-0.066
783	-0.069
783	-0.071
784	-0.074
784	-0.076
784	-0.078
785	-0.08
785	-0.082
786	-0.082
786	-0.08
787	-0.076
787	-0.073
788	-0.072
788	-0.072
788	-0.073
789	-0.075
789	-0.075
790	-0.072
790	-0.071
791	-0.071
791	-0.073
791	-0.075
792	-0.07
792	-0.061
793	-0.055
793	-0.051
794	-0.05
794	-0.051
794	-0.055
795	-0.057
795	-0.056
796	-0.056
796	-0.059
797	-0.067
797	-0.076
797	-0.082
798	-0.087
798	-0.09
799	-0.09
799	-0.09
800	-0.09
800	-0.092
801	-0.095
801	-0.097
801	-0.097
802	-0.099
802	-0.101
803	-0.102
803	-0.102
804	-0.101
804	-0.096
804	-0.09
805	-0.087
805	-0.085
806	-0.083
806	-0.081
807	-0.08
807	-0.079
807	-0.079
808	-0.078
808	-0.079
809	-0.083
809	-0.088
810	-0.091
810	-0.093
810	-0.096
811	-0.098
811	-0.098
812	-0.094
812	-0.091
813	-0.091
813	-0.092
813	-0.093
814	-0.094
814	-0.094
815	-0.091
815	-0.089
816	-0.087
816	-0.087
817	-0.092
817	-0.095
817	-0.096
818	-0.095
818	-0.092
819	-0.087
819	-0.084
820	-0.085
820	-0.087
820	-0.088
821	-0.086
821	-0.083
822	-0.078
822	-0.073
823	-0.067
823	-0.063
823	-0.059
824	-0.053
824	-0.044
825	-0.032
825	-0.019
826	-0.008
826	0.001
826	0.01
827	0.018
827	0.026
828	0.033
828	0.039
829	0.044
829	0.05
829	0.054
830	0.058
830	0.062
831	0.067
831	0.071
832	0.075
832	0.079
832	0.082
833	0.085
833	0.087
834	0.09
834	0.092
835	0.094
835	0.095
835	0.096
836	0.097
836	0.098
837	0.099
837	0.1
838	0.101
838	0.102
839	0.102
839	0.103
839	0.104
840	0.105
840	0.105
841	0.106
841	0.107
842	0.109
842	0.11
842	0.111
843	0.112
843	0.112
844	0.113
844	0.114
845	0.115
845	0.116
845	0.117
846	0.118
846	0.119
847	0.12
847	0.121
848	0.123
848	0.124
848	0.125
849	0.126
849	0.127
850	0.128
850	0.128
851	0.128
851	0.129
851	0.129
852	0.129
852	0.13
853	0.131
853	0.131
854	0.132
854	0.132
854	0.133
855	0.134
855	0.134
856	0.135
856	0.135
857	0.135
857	0.135
857	0.136
858	0.136
858	0.136
859	0.135
859	0.135
860	0.135
860	0.135
860	0.135
861	0.135
861	0.135
862	0.134
862	0.134
863	0.133
863	0.133
863	0.133
864	0.132
864	0.132
865	0.133
865	0.133
866	0.133
866	0.134
866	0.135
867	0.135
867	0.136
868	0.137
868	0.138
869	0.139
869	0.139
869	0.138
870	0.137
870	0.137
871	0.136
871	0.135
872	0.134
872	0.133
872	0.132
873	0.131
873	0.13
874	0.13
874	0.13
875	0.13
875	0.131
875	0.131
876	0.132
876	0.132
877	0.133
877	0.133
878	0.132
878	0.132
878	0.132
879	0.131
879	0.13
880	0.13
880	0.129
881	0.128
881	0.128
881	0.128
882	0.127
882	0.127
883	0.128
883	0.128
884	0.128
884	0.129
884	0.129
885	0.129
885	0.129
886	0.13
886	0.13
887	0.13
887	0.13
887	0.13
888	0.13
888	0.13
889	0.13
889	0.131
890	0.131
890	0.131
890	0.132
891	0.132
891	0.132
892	0.132
892	0.132
893	0.133
893	0.133
893	0.133
894	0.134
894	0.133
895	0.134
895	0.134
895	0.134
896	0.134
896	0.134
897	0.135
897	0.135
898	0.135
898	0.136
898	0.136
899	0.136
899	0.137
900	0.137
900	0.137
901	0.137
901	0.136
901	0.136
902	0.136
902	0.136
903	0.135
903	0.134
904	0.133
904	0.132
904	0.131
905	0.131
905	0.13
906	0.129
906	0.128
907	0.128
907	0.127
907	0.127
908	0.127
908	0.127
909	0.128
909	0.128
910	0.129
910	0.129
910	0.13
911	0.131
911	0.132
912	0.133
912	0.133
913	0.134
913	0.134
913	0.135
914	0.135
914	0.135
915	0.134
915	0.134
916	0.133
916	0.132
916	0.132
917	0.131
917	0.13
918	0.13
918	0.129
918	0.128
919	0.128
919	0.127
920	0.127
920	0.127
921	0.127
921	0.127
921	0.126
922	0.126
922	0.126
923	0.125
923	0.125
924	0.125
924	0.124
924	0.124
925	0.123
925	0.122
926	0.121
926	0.12
927	0.12
927	0.119
927	0.118
928	0.118
928	0.118
929	0.117
929	0.118
930	0.119
930	0.12
930	0.121
931	0.122
931	0.124
932	0.125
932	0.126
933	0.128
933	0.129
933	0.13
934	0.131
934	0.131
935	0.131
935	0.131
935	0.131
936	0.131
936	0.131
937	0.131
937	0.132
938	0.132
938	0.132
938	0.133
939	0.133
939	0.134
940	0.134
940	0.135
941	0.135
941	0.135
941	0.135
942	0.135
942	0.134
943	0.134
943	0.133
944	0.133
944	0.132
944	0.132
945	0.132
945	0.132
946	0.132
946	0.131
946	0.131
947	0.13
947	0.129
948	0.128
948	0.128
949	0.126
949	0.125
949	0.125
950	0.124
950	0.123
951	0.122
951	0.121
952	0.121
952	0.12
952	0.12
953	0.12
953	0.119
954	0.119
954	0.118
955	0.118
955	0.117
955	0.117
956	0.117
956	0.117
957	0.117
957	0.116
957	0.116
958	0.116
958	0.116
959	0.115
959	0.115
960	0.114
960	0.113
960	0.112
961	0.112
961	0.111
962	0.11
962	0.11
963	0.109
963	0.109
963	0.109
964	0.109
964	0.109
965	0.11
965	0.111
966	0.112
966	0.113
966	0.114
967	0.114
967	0.114
968	0.114
968	0.114
968	0.114
969	0.113
969	0.113
970	0.112
970	0.112
971	0.111
971	0.111
971	0.11
972	0.11
972	0.11
973	0.11
973	0.11
974	0.111
974	0.111
974	0.112
975	0.112
975	0.113
976	0.113
976	0.114
976	0.115
977	0.115
977	0.115
978	0.116
978	0.116
979	0.116
979	0.116
979	0.116
980	0.116
980	0.115
981	0.115
981	0.115
982	0.115
982	0.116
982	0.116
983	0.116
983	0.116
984	0.116
984	0.116
984	0.116
985	0.116
985	0.116
986	0.115
986	0.114
987	0.113
987	0.112
987	0.111
988	0.11
988	0.109
989	0.109
989	0.108
990	0.108
990	0.107
990	0.108
991	0.108
991	0.108
992	0.109
992	0.109
992	0.109
993	0.109
993	0.109
994	0.108
994	0.108
995	0.108
995	0.107
995	0.107
996	0.107
996	0.106
997	0.106
997	0.107
997	0.107
998	0.108
998	0.108
999	0.109
999	0.11
1000	0.112
1000	0.113
1000	0.114
1001	0.115
1001	0.116
1002	0.117
1002	0.118
1003	0.118
1003	0.119
1003	0.119
1004	0.119
1004	0.118
1005	0.118
1005	0.117
1005	0.117
1006	0.116
1006	0.115
1007	0.115
1007	0.115
1008	0.114
1008	0.114
1008	0.114
1009	0.113
1009	0.113
1010	0.114
1010	0.114
1010	0.113
1011	0.113
1011	0.113
1012	0.114
1012	0.114
1013	0.114
1013	0.113
1013	0.113
1014	0.112
1014	0.112
1015	0.111
1015	0.111
1016	0.11
1016	0.109
1016	0.108
1017	0.107
1017	0.107
1018	0.106
1018	0.106
1018	0.105
1019	0.105
1019	0.104
1020	0.103
1020	0.103
1021	0.102
1021	0.102
1021	0.102
1022	0.102
1022	0.102
1023	0.102
1023	0.101
1023	0.101
1024	0.101
1024	0.1
1025	0.1
1025	0.099
1026	0.098
1026	0.098
1026	0.097
1027	0.097
1027	0.096
1028	0.096
1028	0.096
1028	0.096
1029	0.096
1029	0.096
1030	0.096
1030	0.097
1031	0.097
1031	0.098
1031	0.099
1032	0.099
1032	0.1
1033	0.101
1033	0.102
1033	0.102
1034	0.102
1034	0.102
1035	0.103
1035	0.102
1036	0.102
1036	0.102
1036	0.103
1037	0.103
1037	0.103
1038	0.104
1038	0.104
1039	0.105
1039	0.106
1039	0.107
1040	0.107
1040	0.108
1041	0.108
1041	0.108
1041	0.107
1042	0.107
1042	0.107
1043	0.106
1043	0.106
1044	0.105
1044	0.105
1044	0.105
1045	0.104
1045	0.104
1046	0.104
1046	0.104
1046	0.105
1047	0.105
1047	0.106
1048	0.106
1048	0.106
1049	0.106
1049	0.105
1049	0.105
1050	0.104
1050	0.104
1051	0.104
1051	0.104
1051	0.104
1052	0.104
1052	0.104
1053	0.105
1053	0.105
1053	0.106
1054	0.107
1054	0.107
1055	0.109
1055	0.109
1056	0.109
1056	0.109
1056	0.109
1057	0.109
1057	0.11
1058	0.11
1058	0.111
1058	0.112
1059	0.113
1059	0.113
1060	0.114
1060	0.115
1061	0.116
1061	0.117
1061	0.118
1062	0.118
1062	0.119
1063	0.119
1063	0.119
1063	0.12
1064	0.121
1064	0.122
1065	0.123
1065	0.125
1066	0.126
1066	0.127
1066	0.129
1067	0.131
1067	0.133
1068	0.134
1068	0.136
1068	0.137
1069	0.138
1069	0.139
1070	0.14
1070	0.141
1071	0.143
1071	0.145
1071	0.146
1072	0.147
1072	0.149
1073	0.151
1073	0.154
1073	0.154
1074	0.156
1074	0.158
1075	0.158
1075	0.159
1076	0.159
1076	0.16
1076	0.16
1077	0.161
1077	0.162
1078	0.163
1078	0.166
1078	0.168
1079	0.171
1079	0.174
1080	0.176
1080	0.179
1080	0.18
1081	0.184
1081	0.186
1082	0.189
1082	0.191
1083	0.194
1083	0.196
1083	0.2
1084	0.203
1084	0.207
1085	0.211
1085	0.216
1085	0.22
1086	0.225
1086	0.228
1087	0.233
1087	0.237
1088	0.241
1088	0.247
1088	0.253
1089	0.258
1089	0.265
1090	0.272
1090	0.28
1090	0.287
1091	0.297
1091	0.309
1092	0.321
1092	0.335
1092	0.347
1093	0.359
1093	0.375
1094	0.39
1094	0.407
1095	0.425
1095	0.447
1095	0.473
1096	0.498
1096	0.524
1097	0.559
1097	0.592
1097	0.638
1098	0.686
1098	0.746
1099	0.82
1099	0.913
1100	1.044
1100	1.231
1100	1.597
1101	-0
1101	-0
1102	-0
1102	-0
1102	-0
1103	-0
1103	-0
1104	-0
1104	-0
1104	-0
1105	-0
1105	-0
1106	-0
1106	-0
1107	-0
1107	-0
1107	-0
1108	-0
1108	-0
1109	-0
1109	-0
1109	-0
1110	-0
1110	-0
1111	-0
1111	-0
