Data from 15c-2a_Absorbance__92__02801.txt Node

Date: Tue Jan 16 14:04:20 CET 2024
User: Marek
Spectrometer: MAYP115816
Trigger mode: 0
Integration Time (sec): 2.000000E-1
Scans to average: 10
Electric dark correction enabled: true
Nonlinearity correction enabled: true
Boxcar width: 5
XAxis mode: Wavelengths
Number of Pixels in Spectrum: 2068
>>>>>Begin Spectral Data<<<<<
199	-1.636
199	-1.457
200	-1.329
200	-1.214
201	-1.144
201	-1.095
202	-1.026
202	-0.972
203	-0.93
203	-0.888
204	-0.863
204	-0.84
205	-0.821
205	-0.809
205	-0.808
206	-0.803
206	-0.801
207	-0.799
207	-0.799
208	-0.796
208	-0.795
209	-0.791
209	-0.79
210	-0.79
210	-0.788
211	-0.787
211	-0.787
212	-0.787
212	-0.787
213	-0.785
213	-0.784
213	-0.785
214	-0.784
214	-0.783
215	-0.781
215	-0.782
216	-0.78
216	-0.78
217	-0.776
217	-0.774
218	-0.77
218	-0.766
219	-0.762
219	-0.761
220	-0.759
220	-0.759
221	-0.755
221	-0.754
221	-0.749
222	-0.745
222	-0.74
223	-0.736
223	-0.731
224	-0.727
224	-0.718
225	-0.709
225	-0.699
226	-0.691
226	-0.682
227	-0.669
227	-0.657
228	-0.642
228	-0.627
229	-0.607
229	-0.584
229	-0.56
230	-0.533
230	-0.502
231	-0.468
231	-0.431
232	-0.394
232	-0.354
233	-0.312
233	-0.267
234	-0.225
234	-0.181
235	-0.138
235	-0.096
236	-0.056
236	-0.016
236	0.022
237	0.058
237	0.092
238	0.124
238	0.153
239	0.182
239	0.207
240	0.23
240	0.251
241	0.27
241	0.287
242	0.303
242	0.318
243	0.331
243	0.343
243	0.354
244	0.364
244	0.373
245	0.381
245	0.389
246	0.397
246	0.404
247	0.41
247	0.416
248	0.421
248	0.426
249	0.431
249	0.435
250	0.439
250	0.443
250	0.447
251	0.45
251	0.453
252	0.456
252	0.458
253	0.461
253	0.463
254	0.465
254	0.467
255	0.469
255	0.471
256	0.472
256	0.473
257	0.475
257	0.476
258	0.476
258	0.477
258	0.478
259	0.478
259	0.478
260	0.479
260	0.479
261	0.478
261	0.479
262	0.478
262	0.477
263	0.477
263	0.476
264	0.476
264	0.475
265	0.475
265	0.473
265	0.472
266	0.472
266	0.47
267	0.469
267	0.468
268	0.466
268	0.464
269	0.463
269	0.461
270	0.459
270	0.457
271	0.455
271	0.453
272	0.452
272	0.45
272	0.448
273	0.445
273	0.444
274	0.442
274	0.44
275	0.438
275	0.436
276	0.433
276	0.431
277	0.429
277	0.426
278	0.424
278	0.422
278	0.419
279	0.416
279	0.413
280	0.41
280	0.408
281	0.405
281	0.403
282	0.401
282	0.399
283	0.397
283	0.395
284	0.393
284	0.391
285	0.39
285	0.388
285	0.386
286	0.384
286	0.382
287	0.38
287	0.378
288	0.376
288	0.375
289	0.373
289	0.371
290	0.37
290	0.368
291	0.367
291	0.365
292	0.364
292	0.363
292	0.361
293	0.36
293	0.358
294	0.357
294	0.356
295	0.354
295	0.353
296	0.352
296	0.351
297	0.35
297	0.349
298	0.348
298	0.347
298	0.346
299	0.345
299	0.344
300	0.343
300	0.342
301	0.341
301	0.341
302	0.34
302	0.339
303	0.338
303	0.337
304	0.337
304	0.336
305	0.335
305	0.334
305	0.333
306	0.332
306	0.332
307	0.331
307	0.33
308	0.329
308	0.328
309	0.327
309	0.326
310	0.325
310	0.324
311	0.323
311	0.323
311	0.322
312	0.321
312	0.32
313	0.319
313	0.318
314	0.318
314	0.317
315	0.316
315	0.315
316	0.315
316	0.314
317	0.313
317	0.312
318	0.311
318	0.31
318	0.31
319	0.309
319	0.308
320	0.307
320	0.306
321	0.305
321	0.304
322	0.303
322	0.303
323	0.302
323	0.301
324	0.3
324	0.299
324	0.299
325	0.298
325	0.297
326	0.297
326	0.296
327	0.295
327	0.294
328	0.293
328	0.293
329	0.292
329	0.291
330	0.29
330	0.289
330	0.289
331	0.288
331	0.287
332	0.286
332	0.285
333	0.285
333	0.284
334	0.283
334	0.283
335	0.282
335	0.281
336	0.28
336	0.28
336	0.279
337	0.278
337	0.278
338	0.277
338	0.276
339	0.276
339	0.275
340	0.275
340	0.274
341	0.274
341	0.273
342	0.273
342	0.272
342	0.272
343	0.271
343	0.271
344	0.27
344	0.27
345	0.269
345	0.269
346	0.268
346	0.268
347	0.267
347	0.267
348	0.267
348	0.266
348	0.266
349	0.265
349	0.265
350	0.265
350	0.264
351	0.264
351	0.263
352	0.263
352	0.262
353	0.262
353	0.261
354	0.261
354	0.26
354	0.259
355	0.258
355	0.258
356	0.257
356	0.257
357	0.256
357	0.255
358	0.255
358	0.255
359	0.255
359	0.255
360	0.255
360	0.256
360	0.256
361	0.256
361	0.257
362	0.257
362	0.257
363	0.257
363	0.257
364	0.257
364	0.257
365	0.257
365	0.256
366	0.256
366	0.256
366	0.255
367	0.255
367	0.255
368	0.255
368	0.255
369	0.254
369	0.254
370	0.254
370	0.254
371	0.253
371	0.253
372	0.253
372	0.253
372	0.252
373	0.252
373	0.252
374	0.251
374	0.251
375	0.251
375	0.25
376	0.25
376	0.25
377	0.25
377	0.25
378	0.251
378	0.251
378	0.251
379	0.251
379	0.251
380	0.251
380	0.251
381	0.251
381	0.25
382	0.25
382	0.25
383	0.249
383	0.249
383	0.248
384	0.248
384	0.248
385	0.247
385	0.247
386	0.247
386	0.247
387	0.247
387	0.246
388	0.246
388	0.246
389	0.246
389	0.246
389	0.246
390	0.246
390	0.245
391	0.246
391	0.246
392	0.246
392	0.246
393	0.246
393	0.246
394	0.246
394	0.246
394	0.245
395	0.245
395	0.245
396	0.245
396	0.245
397	0.244
397	0.244
398	0.244
398	0.244
399	0.244
399	0.244
400	0.243
400	0.243
400	0.243
401	0.242
401	0.242
402	0.241
402	0.241
403	0.24
403	0.24
404	0.24
404	0.24
405	0.24
405	0.239
405	0.239
406	0.239
406	0.239
407	0.239
407	0.239
408	0.239
408	0.239
409	0.238
409	0.238
410	0.238
410	0.238
411	0.238
411	0.238
411	0.238
412	0.238
412	0.237
413	0.237
413	0.237
414	0.237
414	0.236
415	0.236
415	0.236
416	0.235
416	0.235
416	0.235
417	0.235
417	0.235
418	0.235
418	0.235
419	0.235
419	0.236
420	0.236
420	0.236
421	0.236
421	0.236
421	0.237
422	0.237
422	0.237
423	0.237
423	0.236
424	0.236
424	0.235
425	0.235
425	0.234
426	0.234
426	0.234
427	0.234
427	0.234
427	0.234
428	0.234
428	0.234
429	0.235
429	0.235
430	0.235
430	0.235
431	0.235
431	0.235
432	0.235
432	0.234
432	0.234
433	0.233
433	0.233
434	0.233
434	0.232
435	0.232
435	0.232
436	0.232
436	0.232
437	0.232
437	0.232
437	0.232
438	0.232
438	0.232
439	0.232
439	0.232
440	0.231
440	0.232
441	0.232
441	0.232
442	0.232
442	0.232
442	0.233
443	0.233
443	0.233
444	0.234
444	0.234
445	0.235
445	0.235
446	0.235
446	0.235
447	0.235
447	0.235
447	0.235
448	0.235
448	0.235
449	0.235
449	0.234
450	0.234
450	0.234
451	0.234
451	0.234
452	0.234
452	0.234
452	0.234
453	0.234
453	0.233
454	0.233
454	0.233
455	0.233
455	0.233
456	0.233
456	0.232
457	0.232
457	0.232
458	0.232
458	0.232
458	0.233
459	0.233
459	0.233
460	0.233
460	0.233
461	0.233
461	0.233
462	0.233
462	0.234
463	0.234
463	0.235
463	0.236
464	0.236
464	0.236
465	0.236
465	0.237
466	0.237
466	0.237
467	0.237
467	0.237
467	0.237
468	0.236
468	0.235
469	0.235
469	0.235
470	0.236
470	0.236
471	0.236
471	0.236
472	0.236
472	0.237
472	0.237
473	0.238
473	0.239
474	0.239
474	0.24
475	0.241
475	0.242
476	0.243
476	0.243
477	0.244
477	0.245
477	0.245
478	0.246
478	0.247
479	0.248
479	0.248
480	0.249
480	0.249
481	0.25
481	0.251
482	0.252
482	0.253
482	0.254
483	0.256
483	0.258
484	0.26
484	0.261
485	0.262
485	0.264
486	0.265
486	0.266
487	0.267
487	0.269
487	0.27
488	0.27
488	0.27
489	0.271
489	0.272
490	0.273
490	0.273
491	0.274
491	0.276
492	0.277
492	0.278
492	0.279
493	0.28
493	0.282
494	0.284
494	0.287
495	0.288
495	0.29
496	0.292
496	0.293
496	0.295
497	0.297
497	0.298
498	0.299
498	0.301
499	0.302
499	0.303
500	0.304
500	0.306
501	0.308
501	0.31
501	0.311
502	0.313
502	0.315
503	0.317
503	0.319
504	0.32
504	0.322
505	0.323
505	0.325
506	0.326
506	0.328
506	0.33
507	0.331
507	0.333
508	0.334
508	0.335
509	0.337
509	0.338
510	0.34
510	0.341
511	0.342
511	0.344
511	0.344
512	0.346
512	0.347
513	0.348
513	0.348
514	0.349
514	0.35
515	0.351
515	0.351
515	0.351
516	0.351
516	0.352
517	0.353
517	0.354
518	0.354
518	0.354
519	0.354
519	0.354
520	0.354
520	0.353
520	0.353
521	0.352
521	0.351
522	0.35
522	0.349
523	0.348
523	0.348
524	0.348
524	0.348
524	0.349
525	0.35
525	0.351
526	0.352
526	0.353
527	0.354
527	0.355
528	0.356
528	0.356
529	0.356
529	0.356
529	0.356
530	0.355
530	0.355
531	0.355
531	0.354
532	0.353
532	0.352
533	0.352
533	0.351
533	0.35
534	0.349
534	0.348
535	0.346
535	0.345
536	0.344
536	0.343
537	0.341
537	0.34
538	0.338
538	0.336
538	0.334
539	0.332
539	0.331
540	0.329
540	0.327
541	0.325
541	0.323
542	0.321
542	0.319
542	0.316
543	0.314
543	0.313
544	0.31
544	0.308
545	0.306
545	0.304
546	0.302
546	0.3
547	0.297
547	0.294
547	0.291
548	0.289
548	0.286
549	0.283
549	0.281
550	0.278
550	0.276
551	0.273
551	0.271
551	0.268
552	0.266
552	0.264
553	0.262
553	0.261
554	0.259
554	0.256
555	0.254
555	0.251
556	0.248
556	0.245
556	0.242
557	0.239
557	0.237
558	0.235
558	0.232
559	0.23
559	0.228
560	0.227
560	0.225
560	0.224
561	0.223
561	0.222
562	0.221
562	0.219
563	0.216
563	0.214
564	0.211
564	0.208
564	0.206
565	0.204
565	0.201
566	0.199
566	0.197
567	0.196
567	0.195
568	0.194
568	0.193
568	0.193
569	0.192
569	0.192
570	0.19
570	0.188
571	0.188
571	0.187
572	0.185
572	0.184
573	0.183
573	0.181
573	0.179
574	0.177
574	0.176
575	0.175
575	0.176
576	0.175
576	0.173
577	0.17
577	0.169
577	0.168
578	0.168
578	0.168
579	0.168
579	0.169
580	0.167
580	0.164
581	0.161
581	0.16
581	0.16
582	0.159
582	0.159
583	0.159
583	0.157
584	0.154
584	0.151
585	0.15
585	0.15
585	0.15
586	0.15
586	0.15
587	0.148
587	0.146
588	0.145
588	0.144
589	0.143
589	0.143
590	0.143
590	0.142
590	0.143
591	0.143
591	0.142
592	0.14
592	0.139
593	0.138
593	0.137
594	0.136
594	0.134
594	0.134
595	0.133
595	0.132
596	0.131
596	0.132
597	0.135
597	0.135
598	0.136
598	0.137
598	0.137
599	0.138
599	0.137
600	0.136
600	0.136
601	0.135
601	0.134
602	0.132
602	0.132
602	0.131
603	0.13
603	0.131
604	0.131
604	0.132
605	0.132
605	0.133
606	0.133
606	0.132
606	0.131
607	0.131
607	0.131
608	0.131
608	0.129
609	0.129
609	0.129
610	0.128
610	0.127
610	0.127
611	0.128
611	0.129
612	0.13
612	0.131
613	0.132
613	0.133
614	0.133
614	0.133
614	0.133
615	0.133
615	0.133
616	0.133
616	0.132
617	0.132
617	0.131
618	0.131
618	0.131
618	0.132
619	0.132
619	0.134
620	0.136
620	0.137
621	0.137
621	0.138
622	0.139
622	0.14
622	0.14
623	0.141
623	0.142
624	0.143
624	0.143
625	0.144
625	0.145
626	0.145
626	0.146
626	0.147
627	0.148
627	0.148
628	0.148
628	0.149
629	0.149
629	0.149
630	0.149
630	0.149
630	0.15
631	0.151
631	0.152
632	0.152
632	0.153
633	0.155
633	0.156
634	0.158
634	0.16
634	0.162
635	0.163
635	0.164
636	0.166
636	0.167
637	0.168
637	0.17
638	0.172
638	0.173
638	0.175
639	0.176
639	0.178
640	0.181
640	0.183
641	0.186
641	0.188
642	0.191
642	0.193
642	0.195
643	0.197
643	0.199
644	0.201
644	0.203
645	0.205
645	0.207
646	0.21
646	0.213
646	0.215
647	0.218
647	0.221
648	0.224
648	0.226
649	0.229
649	0.232
650	0.235
650	0.238
650	0.241
651	0.243
651	0.246
652	0.249
652	0.252
653	0.256
653	0.264
653	0.267
654	0.212
654	0.171
655	0.175
655	0.177
656	0.179
656	0.181
657	0.183
657	0.184
657	0.185
658	0.182
658	0.177
659	0.224
659	0.291
660	0.298
660	0.3
661	0.303
661	0.306
661	0.309
662	0.313
662	0.317
663	0.32
663	0.324
664	0.327
664	0.33
665	0.333
665	0.337
665	0.34
666	0.343
666	0.346
667	0.349
667	0.352
668	0.355
668	0.358
669	0.362
669	0.365
669	0.37
670	0.373
670	0.377
671	0.379
671	0.381
672	0.383
672	0.385
672	0.387
673	0.389
673	0.391
674	0.393
674	0.394
675	0.395
675	0.397
676	0.399
676	0.401
676	0.403
677	0.405
677	0.407
678	0.409
678	0.41
679	0.412
679	0.413
680	0.415
680	0.416
680	0.417
681	0.418
681	0.42
682	0.421
682	0.422
683	0.424
683	0.425
684	0.426
684	0.426
684	0.426
685	0.427
685	0.428
686	0.428
686	0.428
687	0.428
687	0.428
687	0.428
688	0.427
688	0.427
689	0.427
689	0.427
690	0.427
690	0.426
691	0.425
691	0.424
691	0.424
692	0.423
692	0.422
693	0.421
693	0.421
694	0.42
694	0.419
695	0.419
695	0.42
695	0.419
696	0.418
696	0.417
697	0.416
697	0.415
698	0.413
698	0.411
698	0.409
699	0.406
699	0.403
700	0.4
700	0.398
701	0.396
701	0.394
702	0.391
702	0.389
702	0.386
703	0.384
703	0.382
704	0.38
704	0.378
705	0.376
705	0.373
705	0.37
706	0.368
706	0.366
707	0.363
707	0.36
708	0.358
708	0.356
709	0.354
709	0.351
709	0.348
710	0.346
710	0.344
711	0.342
711	0.34
712	0.338
712	0.336
713	0.333
713	0.33
713	0.327
714	0.324
714	0.322
715	0.319
715	0.316
716	0.313
716	0.31
716	0.307
717	0.304
717	0.301
718	0.299
718	0.296
719	0.295
719	0.293
720	0.291
720	0.289
720	0.286
721	0.283
721	0.28
722	0.278
722	0.275
723	0.272
723	0.269
723	0.266
724	0.263
724	0.26
725	0.256
725	0.254
726	0.251
726	0.249
727	0.246
727	0.244
727	0.242
728	0.24
728	0.238
729	0.237
729	0.236
730	0.234
730	0.232
730	0.231
731	0.23
731	0.229
732	0.228
732	0.226
733	0.224
733	0.223
734	0.221
734	0.22
734	0.219
735	0.218
735	0.215
736	0.214
736	0.212
737	0.21
737	0.209
737	0.207
738	0.204
738	0.2
739	0.198
739	0.196
740	0.194
740	0.192
741	0.191
741	0.188
741	0.186
742	0.183
742	0.181
743	0.18
743	0.179
744	0.177
744	0.176
744	0.174
745	0.172
745	0.17
746	0.168
746	0.167
747	0.165
747	0.164
748	0.162
748	0.16
748	0.158
749	0.156
749	0.154
750	0.152
750	0.15
751	0.148
751	0.147
751	0.146
752	0.144
752	0.142
753	0.14
753	0.139
754	0.138
754	0.137
754	0.136
755	0.135
755	0.134
756	0.132
756	0.129
757	0.128
757	0.127
758	0.126
758	0.124
758	0.123
759	0.121
759	0.118
760	0.116
760	0.114
761	0.113
761	0.112
761	0.111
762	0.109
762	0.108
763	0.107
763	0.105
764	0.102
764	0.101
764	0.099
765	0.098
765	0.096
766	0.095
766	0.095
767	0.094
767	0.091
768	0.089
768	0.088
768	0.087
769	0.086
769	0.085
770	0.083
770	0.081
771	0.079
771	0.076
771	0.074
772	0.072
772	0.07
773	0.068
773	0.066
774	0.063
774	0.061
775	0.059
775	0.056
775	0.054
776	0.051
776	0.049
777	0.046
777	0.043
778	0.04
778	0.037
778	0.034
779	0.031
779	0.029
780	0.025
780	0.021
781	0.018
781	0.013
781	0.008
782	0.002
782	-0.004
783	-0.01
783	-0.016
784	-0.023
784	-0.031
784	-0.039
785	-0.046
785	-0.054
786	-0.06
786	-0.063
787	-0.064
787	-0.065
788	-0.069
788	-0.073
788	-0.076
789	-0.079
789	-0.08
790	-0.079
790	-0.078
791	-0.079
791	-0.08
791	-0.082
792	-0.077
792	-0.068
793	-0.062
793	-0.059
794	-0.057
794	-0.059
794	-0.062
795	-0.064
795	-0.064
796	-0.064
796	-0.066
797	-0.074
797	-0.083
797	-0.089
798	-0.094
798	-0.097
799	-0.098
799	-0.097
800	-0.097
800	-0.1
801	-0.103
801	-0.104
801	-0.105
802	-0.107
802	-0.108
803	-0.109
803	-0.11
804	-0.109
804	-0.104
804	-0.098
805	-0.094
805	-0.092
806	-0.09
806	-0.089
807	-0.088
807	-0.087
807	-0.086
808	-0.086
808	-0.086
809	-0.09
809	-0.095
810	-0.098
810	-0.1
810	-0.103
811	-0.105
811	-0.105
812	-0.101
812	-0.099
813	-0.099
813	-0.1
813	-0.101
814	-0.101
814	-0.101
815	-0.099
815	-0.096
816	-0.094
816	-0.094
817	-0.095
817	-0.094
817	-0.089
818	-0.083
818	-0.074
819	-0.065
819	-0.058
820	-0.051
820	-0.044
820	-0.036
821	-0.028
821	-0.02
822	-0.013
822	-0.008
823	-0.003
823	0.001
823	0.004
824	0.009
824	0.013
825	0.017
825	0.021
826	0.024
826	0.027
826	0.029
827	0.032
827	0.034
828	0.036
828	0.038
829	0.04
829	0.042
829	0.044
830	0.045
830	0.048
831	0.05
831	0.053
832	0.054
832	0.056
832	0.057
833	0.059
833	0.06
834	0.061
834	0.061
835	0.062
835	0.062
835	0.062
836	0.062
836	0.062
837	0.063
837	0.063
838	0.064
838	0.064
839	0.064
839	0.064
839	0.064
840	0.065
840	0.065
841	0.065
841	0.065
842	0.066
842	0.066
842	0.066
843	0.066
843	0.065
844	0.065
844	0.065
845	0.065
845	0.064
845	0.064
846	0.064
846	0.064
847	0.064
847	0.064
848	0.064
848	0.064
848	0.065
849	0.065
849	0.065
850	0.065
850	0.065
851	0.065
851	0.065
851	0.064
852	0.064
852	0.064
853	0.064
853	0.064
854	0.065
854	0.065
854	0.066
855	0.066
855	0.067
856	0.067
856	0.067
857	0.067
857	0.067
857	0.067
858	0.067
858	0.067
859	0.067
859	0.066
860	0.066
860	0.066
860	0.065
861	0.065
861	0.065
862	0.064
862	0.063
863	0.063
863	0.062
863	0.062
864	0.061
864	0.061
865	0.061
865	0.061
866	0.061
866	0.061
866	0.062
867	0.062
867	0.063
868	0.064
868	0.064
869	0.065
869	0.065
869	0.064
870	0.064
870	0.063
871	0.063
871	0.062
872	0.061
872	0.06
872	0.059
873	0.058
873	0.057
874	0.056
874	0.056
875	0.056
875	0.056
875	0.057
876	0.057
876	0.057
877	0.057
877	0.057
878	0.057
878	0.056
878	0.056
879	0.055
879	0.055
880	0.054
880	0.054
881	0.053
881	0.053
881	0.054
882	0.054
882	0.054
883	0.055
883	0.055
884	0.056
884	0.056
884	0.056
885	0.057
885	0.057
886	0.057
886	0.058
887	0.058
887	0.058
887	0.058
888	0.057
888	0.057
889	0.057
889	0.058
890	0.058
890	0.059
890	0.059
891	0.059
891	0.059
892	0.06
892	0.06
893	0.06
893	0.061
893	0.061
894	0.061
894	0.061
895	0.061
895	0.061
895	0.061
896	0.061
896	0.061
897	0.062
897	0.062
898	0.062
898	0.063
898	0.063
899	0.063
899	0.063
900	0.063
900	0.064
901	0.063
901	0.063
901	0.063
902	0.063
902	0.063
903	0.063
903	0.062
904	0.061
904	0.061
904	0.06
905	0.059
905	0.059
906	0.058
906	0.057
907	0.056
907	0.056
907	0.056
908	0.056
908	0.056
909	0.056
909	0.057
910	0.057
910	0.058
910	0.058
911	0.059
911	0.06
912	0.061
912	0.062
913	0.062
913	0.063
913	0.063
914	0.063
914	0.063
915	0.063
915	0.063
916	0.063
916	0.062
916	0.061
917	0.061
917	0.06
918	0.059
918	0.059
918	0.058
919	0.057
919	0.057
920	0.056
920	0.056
921	0.056
921	0.056
921	0.056
922	0.055
922	0.055
923	0.055
923	0.054
924	0.054
924	0.054
924	0.053
925	0.053
925	0.052
926	0.051
926	0.051
927	0.05
927	0.049
927	0.049
928	0.049
928	0.049
929	0.049
929	0.05
930	0.051
930	0.052
930	0.053
931	0.054
931	0.056
932	0.057
932	0.058
933	0.059
933	0.06
933	0.061
934	0.061
934	0.061
935	0.061
935	0.061
935	0.061
936	0.06
936	0.06
937	0.06
937	0.06
938	0.06
938	0.06
938	0.06
939	0.06
939	0.061
940	0.061
940	0.061
941	0.061
941	0.06
941	0.06
942	0.06
942	0.059
943	0.059
943	0.058
944	0.057
944	0.057
944	0.057
945	0.057
945	0.057
946	0.057
946	0.056
946	0.056
947	0.055
947	0.055
948	0.054
948	0.054
949	0.053
949	0.053
949	0.053
950	0.052
950	0.052
951	0.052
951	0.051
952	0.051
952	0.051
952	0.051
953	0.051
953	0.051
954	0.05
954	0.05
955	0.049
955	0.049
955	0.049
956	0.05
956	0.05
957	0.05
957	0.049
957	0.049
958	0.049
958	0.049
959	0.049
959	0.049
960	0.049
960	0.048
960	0.047
961	0.047
961	0.046
962	0.045
962	0.044
963	0.044
963	0.044
963	0.044
964	0.044
964	0.044
965	0.045
965	0.046
966	0.047
966	0.048
966	0.049
967	0.05
967	0.05
968	0.05
968	0.05
968	0.05
969	0.05
969	0.05
970	0.049
970	0.048
971	0.048
971	0.047
971	0.047
972	0.047
972	0.047
973	0.046
973	0.047
974	0.047
974	0.047
974	0.047
975	0.048
975	0.049
976	0.05
976	0.05
976	0.051
977	0.051
977	0.052
978	0.052
978	0.052
979	0.052
979	0.052
979	0.052
980	0.052
980	0.052
981	0.052
981	0.052
982	0.053
982	0.053
982	0.053
983	0.054
983	0.054
984	0.054
984	0.054
984	0.054
985	0.054
985	0.053
986	0.052
986	0.05
987	0.049
987	0.048
987	0.047
988	0.046
988	0.045
989	0.044
989	0.043
990	0.043
990	0.043
990	0.043
991	0.044
991	0.044
992	0.045
992	0.045
992	0.045
993	0.045
993	0.046
994	0.045
994	0.045
995	0.045
995	0.045
995	0.045
996	0.044
996	0.044
997	0.044
997	0.044
997	0.044
998	0.045
998	0.046
999	0.046
999	0.047
1000	0.048
1000	0.049
1000	0.051
1001	0.052
1001	0.053
1002	0.053
1002	0.054
1003	0.054
1003	0.054
1003	0.054
1004	0.054
1004	0.054
1005	0.053
1005	0.053
1005	0.052
1006	0.051
1006	0.051
1007	0.05
1007	0.05
1008	0.05
1008	0.049
1008	0.049
1009	0.049
1009	0.049
1010	0.049
1010	0.049
1010	0.049
1011	0.049
1011	0.049
1012	0.049
1012	0.049
1013	0.049
1013	0.049
1013	0.048
1014	0.048
1014	0.047
1015	0.046
1015	0.045
1016	0.045
1016	0.043
1016	0.042
1017	0.041
1017	0.04
1018	0.039
1018	0.038
1018	0.038
1019	0.037
1019	0.037
1020	0.036
1020	0.036
1021	0.036
1021	0.035
1021	0.035
1022	0.035
1022	0.035
1023	0.035
1023	0.035
1023	0.034
1024	0.034
1024	0.033
1025	0.032
1025	0.032
1026	0.031
1026	0.03
1026	0.029
1027	0.029
1027	0.028
1028	0.028
1028	0.028
1028	0.027
1029	0.027
1029	0.028
1030	0.028
1030	0.028
1031	0.028
1031	0.029
1031	0.029
1032	0.03
1032	0.03
1033	0.031
1033	0.031
1033	0.032
1034	0.031
1034	0.031
1035	0.031
1035	0.03
1036	0.03
1036	0.03
1036	0.03
1037	0.03
1037	0.03
1038	0.03
1038	0.03
1039	0.031
1039	0.031
1039	0.032
1040	0.032
1040	0.033
1041	0.033
1041	0.032
1041	0.032
1042	0.031
1042	0.031
1043	0.03
1043	0.029
1044	0.029
1044	0.028
1044	0.027
1045	0.027
1045	0.026
1046	0.025
1046	0.025
1046	0.025
1047	0.025
1047	0.025
1048	0.025
1048	0.025
1049	0.024
1049	0.023
1049	0.022
1050	0.022
1050	0.021
1051	0.02
1051	0.019
1051	0.019
1052	0.018
1052	0.018
1053	0.017
1053	0.017
1053	0.017
1054	0.016
1054	0.016
1055	0.017
1055	0.017
1056	0.016
1056	0.016
1056	0.015
1057	0.015
1057	0.015
1058	0.015
1058	0.014
1058	0.014
1059	0.015
1059	0.014
1060	0.014
1060	0.014
1061	0.014
1061	0.014
1061	0.014
1062	0.014
1062	0.014
1063	0.014
1063	0.014
1063	0.013
1064	0.014
1064	0.014
1065	0.015
1065	0.015
1066	0.015
1066	0.015
1066	0.016
1067	0.017
1067	0.018
1068	0.018
1068	0.019
1068	0.019
1069	0.019
1069	0.019
1070	0.019
1070	0.019
1071	0.02
1071	0.02
1071	0.019
1072	0.019
1072	0.02
1073	0.02
1073	0.02
1073	0.02
1074	0.02
1074	0.02
1075	0.019
1075	0.018
1076	0.017
1076	0.016
1076	0.015
1077	0.015
1077	0.014
1078	0.014
1078	0.014
1078	0.014
1079	0.014
1079	0.015
1080	0.015
1080	0.016
1080	0.016
1081	0.017
1081	0.017
1082	0.017
1082	0.017
1083	0.017
1083	0.017
1083	0.017
1084	0.017
1084	0.018
1085	0.018
1085	0.018
1085	0.019
1086	0.02
1086	0.019
1087	0.02
1087	0.021
1088	0.021
1088	0.022
1088	0.022
1089	0.022
1089	0.023
1090	0.023
1090	0.023
1090	0.024
1091	0.024
1091	0.026
1092	0.026
1092	0.028
1092	0.029
1093	0.029
1093	0.032
1094	0.033
1094	0.034
1095	0.035
1095	0.036
1095	0.038
1096	0.04
1096	0.041
1097	0.043
1097	0.044
1097	0.047
1098	0.047
1098	0.049
1099	0.051
1099	0.054
1100	0.057
1100	0.06
1100	0.062
1101	0.064
1101	0.067
1102	0.071
1102	0.076
1102	0.082
1103	0.087
1103	0.093
1104	0.1
1104	0.108
1104	0.116
1105	0.125
1105	0.134
1106	0.141
1106	0.153
1107	0.161
1107	0.176
1107	0.196
1108	0.258
1108	0.348
1109	0.489
1109	0.8
1109	1.261
1110	-0
1110	-0
1111	-0
1111	-0
