Data from 15c-2a_Absorbance__40__02749.txt Node

Date: Tue Jan 16 14:02:36 CET 2024
User: Marek
Spectrometer: MAYP115816
Trigger mode: 0
Integration Time (sec): 2.000000E-1
Scans to average: 10
Electric dark correction enabled: true
Nonlinearity correction enabled: true
Boxcar width: 5
XAxis mode: Wavelengths
Number of Pixels in Spectrum: 2068
>>>>>Begin Spectral Data<<<<<
199	-1.856
199	-1.672
200	-1.54
200	-1.422
201	-1.35
201	-1.3
202	-1.227
202	-1.169
203	-1.124
203	-1.078
204	-1.052
204	-1.028
205	-1.009
205	-0.998
205	-0.995
206	-0.991
206	-0.988
207	-0.986
207	-0.986
208	-0.982
208	-0.981
209	-0.976
209	-0.975
210	-0.974
210	-0.972
211	-0.97
211	-0.97
212	-0.97
212	-0.969
213	-0.966
213	-0.966
213	-0.967
214	-0.965
214	-0.964
215	-0.963
215	-0.963
216	-0.96
216	-0.959
217	-0.956
217	-0.954
218	-0.95
218	-0.946
219	-0.941
219	-0.94
220	-0.939
220	-0.937
221	-0.933
221	-0.932
221	-0.927
222	-0.923
222	-0.918
223	-0.913
223	-0.909
224	-0.904
224	-0.895
225	-0.886
225	-0.876
226	-0.868
226	-0.858
227	-0.844
227	-0.832
228	-0.817
228	-0.802
229	-0.781
229	-0.758
229	-0.733
230	-0.705
230	-0.674
231	-0.639
231	-0.602
232	-0.564
232	-0.522
233	-0.478
233	-0.434
234	-0.389
234	-0.343
235	-0.297
235	-0.253
236	-0.21
236	-0.167
236	-0.126
237	-0.086
237	-0.049
238	-0.014
238	0.019
239	0.05
239	0.079
240	0.105
240	0.129
241	0.152
241	0.172
242	0.19
242	0.208
243	0.223
243	0.238
243	0.251
244	0.263
244	0.274
245	0.284
245	0.293
246	0.302
246	0.31
247	0.317
247	0.324
248	0.331
248	0.337
249	0.343
249	0.349
250	0.353
250	0.358
250	0.363
251	0.367
251	0.37
252	0.374
252	0.378
253	0.381
253	0.383
254	0.386
254	0.388
255	0.39
255	0.393
256	0.394
256	0.396
257	0.398
257	0.399
258	0.4
258	0.401
258	0.402
259	0.403
259	0.403
260	0.404
260	0.404
261	0.404
261	0.405
262	0.405
262	0.404
263	0.405
263	0.405
264	0.404
264	0.404
265	0.404
265	0.403
265	0.402
266	0.402
266	0.401
267	0.4
267	0.399
268	0.398
268	0.396
269	0.395
269	0.393
270	0.392
270	0.391
271	0.389
271	0.387
272	0.386
272	0.385
272	0.383
273	0.382
273	0.38
274	0.379
274	0.377
275	0.376
275	0.374
276	0.373
276	0.371
277	0.369
277	0.367
278	0.365
278	0.363
278	0.361
279	0.358
279	0.356
280	0.354
280	0.352
281	0.35
281	0.349
282	0.347
282	0.346
283	0.344
283	0.343
284	0.342
284	0.341
285	0.34
285	0.338
285	0.337
286	0.336
286	0.334
287	0.333
287	0.332
288	0.33
288	0.329
289	0.328
289	0.326
290	0.325
290	0.324
291	0.323
291	0.322
292	0.321
292	0.319
292	0.318
293	0.317
293	0.316
294	0.315
294	0.314
295	0.313
295	0.312
296	0.311
296	0.311
297	0.31
297	0.309
298	0.309
298	0.308
298	0.307
299	0.307
299	0.306
300	0.305
300	0.305
301	0.304
301	0.303
302	0.303
302	0.302
303	0.302
303	0.301
304	0.3
304	0.3
305	0.299
305	0.298
305	0.298
306	0.297
306	0.296
307	0.296
307	0.295
308	0.294
308	0.293
309	0.293
309	0.292
310	0.291
310	0.291
311	0.29
311	0.289
311	0.289
312	0.288
312	0.287
313	0.287
313	0.286
314	0.285
314	0.285
315	0.284
315	0.283
316	0.282
316	0.282
317	0.281
317	0.28
318	0.28
318	0.279
318	0.278
319	0.277
319	0.277
320	0.276
320	0.275
321	0.274
321	0.274
322	0.273
322	0.272
323	0.271
323	0.271
324	0.27
324	0.269
324	0.269
325	0.268
325	0.267
326	0.266
326	0.266
327	0.265
327	0.264
328	0.264
328	0.263
329	0.262
329	0.262
330	0.261
330	0.261
330	0.26
331	0.259
331	0.258
332	0.258
332	0.257
333	0.256
333	0.256
334	0.255
334	0.254
335	0.254
335	0.253
336	0.252
336	0.251
336	0.251
337	0.25
337	0.25
338	0.249
338	0.248
339	0.248
339	0.247
340	0.247
340	0.246
341	0.246
341	0.245
342	0.245
342	0.244
342	0.244
343	0.243
343	0.243
344	0.242
344	0.242
345	0.241
345	0.241
346	0.24
346	0.24
347	0.239
347	0.239
348	0.238
348	0.238
348	0.237
349	0.237
349	0.237
350	0.236
350	0.236
351	0.235
351	0.234
352	0.234
352	0.233
353	0.233
353	0.232
354	0.231
354	0.23
354	0.229
355	0.228
355	0.228
356	0.227
356	0.227
357	0.226
357	0.226
358	0.225
358	0.226
359	0.226
359	0.226
360	0.227
360	0.227
360	0.228
361	0.228
361	0.228
362	0.229
362	0.229
363	0.229
363	0.229
364	0.228
364	0.228
365	0.228
365	0.227
366	0.227
366	0.227
366	0.227
367	0.227
367	0.226
368	0.226
368	0.226
369	0.226
369	0.225
370	0.225
370	0.225
371	0.224
371	0.224
372	0.224
372	0.223
372	0.223
373	0.223
373	0.223
374	0.223
374	0.222
375	0.222
375	0.222
376	0.222
376	0.222
377	0.222
377	0.223
378	0.223
378	0.223
378	0.223
379	0.223
379	0.223
380	0.223
380	0.223
381	0.223
381	0.222
382	0.222
382	0.222
383	0.222
383	0.221
383	0.221
384	0.221
384	0.22
385	0.22
385	0.221
386	0.221
386	0.22
387	0.22
387	0.22
388	0.22
388	0.22
389	0.22
389	0.22
389	0.219
390	0.219
390	0.219
391	0.219
391	0.22
392	0.22
392	0.22
393	0.22
393	0.22
394	0.22
394	0.22
394	0.22
395	0.219
395	0.219
396	0.219
396	0.219
397	0.219
397	0.219
398	0.219
398	0.219
399	0.218
399	0.218
400	0.218
400	0.218
400	0.217
401	0.217
401	0.216
402	0.215
402	0.215
403	0.215
403	0.214
404	0.214
404	0.214
405	0.214
405	0.214
405	0.214
406	0.214
406	0.214
407	0.214
407	0.214
408	0.214
408	0.213
409	0.213
409	0.213
410	0.213
410	0.213
411	0.213
411	0.213
411	0.213
412	0.212
412	0.212
413	0.212
413	0.211
414	0.211
414	0.211
415	0.21
415	0.21
416	0.209
416	0.209
416	0.209
417	0.209
417	0.208
418	0.209
418	0.209
419	0.209
419	0.21
420	0.21
420	0.211
421	0.211
421	0.211
421	0.211
422	0.212
422	0.212
423	0.212
423	0.212
424	0.211
424	0.21
425	0.21
425	0.209
426	0.209
426	0.209
427	0.208
427	0.209
427	0.209
428	0.209
428	0.21
429	0.21
429	0.211
430	0.211
430	0.211
431	0.211
431	0.21
432	0.21
432	0.21
432	0.209
433	0.208
433	0.207
434	0.207
434	0.207
435	0.206
435	0.206
436	0.206
436	0.206
437	0.206
437	0.206
437	0.206
438	0.206
438	0.206
439	0.206
439	0.205
440	0.205
440	0.205
441	0.205
441	0.206
442	0.206
442	0.206
442	0.207
443	0.207
443	0.208
444	0.208
444	0.209
445	0.209
445	0.209
446	0.209
446	0.209
447	0.209
447	0.209
447	0.209
448	0.209
448	0.208
449	0.208
449	0.208
450	0.208
450	0.208
451	0.207
451	0.207
452	0.207
452	0.207
452	0.206
453	0.206
453	0.206
454	0.205
454	0.205
455	0.205
455	0.204
456	0.204
456	0.204
457	0.204
457	0.204
458	0.204
458	0.204
458	0.205
459	0.205
459	0.205
460	0.205
460	0.205
461	0.204
461	0.204
462	0.204
462	0.205
463	0.205
463	0.205
463	0.206
464	0.206
464	0.206
465	0.206
465	0.207
466	0.207
466	0.207
467	0.207
467	0.207
467	0.206
468	0.205
468	0.204
469	0.203
469	0.202
470	0.202
470	0.202
471	0.202
471	0.202
472	0.202
472	0.203
472	0.203
473	0.204
473	0.205
474	0.205
474	0.206
475	0.207
475	0.208
476	0.208
476	0.209
477	0.209
477	0.21
477	0.21
478	0.211
478	0.211
479	0.212
479	0.212
480	0.213
480	0.214
481	0.214
481	0.215
482	0.216
482	0.217
482	0.218
483	0.22
483	0.222
484	0.224
484	0.225
485	0.227
485	0.228
486	0.229
486	0.231
487	0.231
487	0.232
487	0.233
488	0.233
488	0.232
489	0.232
489	0.232
490	0.232
490	0.232
491	0.233
491	0.233
492	0.234
492	0.235
492	0.236
493	0.237
493	0.238
494	0.24
494	0.242
495	0.244
495	0.245
496	0.246
496	0.248
496	0.249
497	0.25
497	0.251
498	0.252
498	0.253
499	0.253
499	0.254
500	0.255
500	0.257
501	0.258
501	0.26
501	0.261
502	0.263
502	0.264
503	0.266
503	0.267
504	0.268
504	0.269
505	0.27
505	0.271
506	0.272
506	0.274
506	0.275
507	0.276
507	0.277
508	0.278
508	0.279
509	0.28
509	0.281
510	0.282
510	0.283
511	0.284
511	0.285
511	0.285
512	0.286
512	0.286
513	0.287
513	0.287
514	0.287
514	0.288
515	0.288
515	0.288
515	0.287
516	0.287
516	0.288
517	0.289
517	0.289
518	0.289
518	0.29
519	0.29
519	0.289
520	0.288
520	0.288
520	0.287
521	0.286
521	0.284
522	0.282
522	0.28
523	0.279
523	0.278
524	0.278
524	0.278
524	0.279
525	0.28
525	0.281
526	0.283
526	0.286
527	0.288
527	0.29
528	0.292
528	0.294
529	0.295
529	0.296
529	0.296
530	0.297
530	0.297
531	0.297
531	0.297
532	0.297
532	0.296
533	0.296
533	0.296
533	0.296
534	0.296
534	0.295
535	0.294
535	0.294
536	0.293
536	0.293
537	0.292
537	0.291
538	0.29
538	0.289
538	0.288
539	0.286
539	0.286
540	0.285
540	0.283
541	0.282
541	0.28
542	0.279
542	0.277
542	0.276
543	0.274
543	0.273
544	0.272
544	0.27
545	0.269
545	0.268
546	0.268
546	0.267
547	0.265
547	0.263
547	0.261
548	0.259
548	0.257
549	0.255
549	0.254
550	0.252
550	0.25
551	0.248
551	0.246
551	0.244
552	0.243
552	0.242
553	0.241
553	0.24
554	0.24
554	0.238
555	0.236
555	0.234
556	0.232
556	0.229
556	0.227
557	0.225
557	0.223
558	0.222
558	0.22
559	0.218
559	0.217
560	0.217
560	0.216
560	0.216
561	0.216
561	0.215
562	0.215
562	0.213
563	0.211
563	0.21
564	0.208
564	0.205
564	0.203
565	0.201
565	0.2
566	0.198
566	0.196
567	0.196
567	0.196
568	0.196
568	0.196
568	0.197
569	0.198
569	0.198
570	0.198
570	0.197
571	0.198
571	0.198
572	0.197
572	0.197
573	0.196
573	0.195
573	0.193
574	0.192
574	0.192
575	0.191
575	0.192
576	0.192
576	0.19
577	0.189
577	0.187
577	0.187
578	0.186
578	0.186
579	0.187
579	0.188
580	0.187
580	0.185
581	0.182
581	0.181
581	0.18
582	0.18
582	0.18
583	0.18
583	0.179
584	0.176
584	0.173
585	0.171
585	0.171
585	0.171
586	0.171
586	0.171
587	0.169
587	0.167
588	0.165
588	0.164
589	0.163
589	0.163
590	0.162
590	0.161
590	0.162
591	0.162
591	0.161
592	0.16
592	0.159
593	0.158
593	0.157
594	0.156
594	0.155
594	0.154
595	0.153
595	0.151
596	0.15
596	0.151
597	0.153
597	0.155
598	0.155
598	0.156
598	0.157
599	0.158
599	0.157
600	0.156
600	0.155
601	0.155
601	0.154
602	0.151
602	0.15
602	0.149
603	0.148
603	0.149
604	0.149
604	0.149
605	0.15
605	0.151
606	0.151
606	0.15
606	0.149
607	0.149
607	0.149
608	0.148
608	0.146
609	0.145
609	0.145
610	0.143
610	0.142
610	0.142
611	0.142
611	0.143
612	0.144
612	0.145
613	0.146
613	0.147
614	0.147
614	0.147
614	0.147
615	0.146
615	0.146
616	0.146
616	0.145
617	0.145
617	0.143
618	0.142
618	0.142
618	0.142
619	0.143
619	0.143
620	0.145
620	0.146
621	0.147
621	0.147
622	0.148
622	0.148
622	0.149
623	0.149
623	0.15
624	0.151
624	0.151
625	0.151
625	0.152
626	0.152
626	0.152
626	0.153
627	0.153
627	0.153
628	0.153
628	0.153
629	0.153
629	0.153
630	0.152
630	0.152
630	0.153
631	0.153
631	0.154
632	0.154
632	0.155
633	0.155
633	0.157
634	0.158
634	0.16
634	0.162
635	0.163
635	0.164
636	0.165
636	0.166
637	0.167
637	0.168
638	0.17
638	0.172
638	0.173
639	0.174
639	0.176
640	0.178
640	0.179
641	0.181
641	0.184
642	0.186
642	0.188
642	0.19
643	0.191
643	0.193
644	0.194
644	0.196
645	0.197
645	0.199
646	0.202
646	0.205
646	0.208
647	0.21
647	0.213
648	0.216
648	0.218
649	0.221
649	0.224
650	0.227
650	0.23
650	0.232
651	0.234
651	0.236
652	0.238
652	0.241
653	0.244
653	0.253
653	0.256
654	0.205
654	0.166
655	0.171
655	0.173
656	0.174
656	0.176
657	0.177
657	0.179
657	0.179
658	0.175
658	0.169
659	0.213
659	0.274
660	0.279
660	0.28
661	0.282
661	0.285
661	0.288
662	0.291
662	0.294
663	0.297
663	0.3
664	0.303
664	0.306
665	0.308
665	0.311
665	0.314
666	0.317
666	0.319
667	0.322
667	0.324
668	0.327
668	0.33
669	0.333
669	0.336
669	0.34
670	0.344
670	0.347
671	0.349
671	0.351
672	0.352
672	0.354
672	0.355
673	0.356
673	0.357
674	0.359
674	0.359
675	0.36
675	0.361
676	0.363
676	0.365
676	0.367
677	0.368
677	0.37
678	0.372
678	0.373
679	0.375
679	0.376
680	0.377
680	0.378
680	0.379
681	0.379
681	0.38
682	0.381
682	0.382
683	0.384
683	0.385
684	0.387
684	0.387
684	0.387
685	0.388
685	0.389
686	0.39
686	0.39
687	0.39
687	0.39
687	0.389
688	0.389
688	0.388
689	0.388
689	0.388
690	0.388
690	0.387
691	0.387
691	0.386
691	0.386
692	0.385
692	0.384
693	0.384
693	0.384
694	0.383
694	0.382
695	0.383
695	0.384
695	0.384
696	0.383
696	0.382
697	0.381
697	0.38
698	0.379
698	0.377
698	0.375
699	0.373
699	0.37
700	0.367
700	0.365
701	0.364
701	0.362
702	0.36
702	0.358
702	0.356
703	0.355
703	0.353
704	0.351
704	0.35
705	0.349
705	0.347
705	0.345
706	0.343
706	0.342
707	0.339
707	0.337
708	0.335
708	0.334
709	0.332
709	0.33
709	0.327
710	0.324
710	0.322
711	0.321
711	0.319
712	0.317
712	0.316
713	0.314
713	0.311
713	0.309
714	0.306
714	0.303
715	0.301
715	0.298
716	0.296
716	0.294
716	0.291
717	0.289
717	0.287
718	0.284
718	0.282
719	0.281
719	0.28
720	0.278
720	0.276
720	0.274
721	0.271
721	0.269
722	0.266
722	0.264
723	0.261
723	0.259
723	0.256
724	0.254
724	0.251
725	0.248
725	0.245
726	0.243
726	0.241
727	0.239
727	0.237
727	0.235
728	0.234
728	0.232
729	0.232
729	0.231
730	0.23
730	0.228
730	0.227
731	0.226
731	0.226
732	0.225
732	0.224
733	0.222
733	0.221
734	0.219
734	0.217
734	0.216
735	0.216
735	0.214
736	0.212
736	0.21
737	0.209
737	0.208
737	0.206
738	0.203
738	0.201
739	0.198
739	0.196
740	0.194
740	0.193
741	0.191
741	0.189
741	0.186
742	0.183
742	0.181
743	0.179
743	0.178
744	0.177
744	0.175
744	0.173
745	0.171
745	0.169
746	0.168
746	0.166
747	0.165
747	0.164
748	0.162
748	0.161
748	0.159
749	0.157
749	0.155
750	0.154
750	0.152
751	0.151
751	0.15
751	0.149
752	0.147
752	0.145
753	0.144
753	0.143
754	0.142
754	0.14
754	0.14
755	0.139
755	0.138
756	0.137
756	0.134
757	0.132
757	0.132
758	0.13
758	0.129
758	0.127
759	0.126
759	0.123
760	0.12
760	0.118
761	0.116
761	0.115
761	0.113
762	0.112
762	0.11
763	0.109
763	0.106
764	0.104
764	0.101
764	0.1
765	0.098
765	0.096
766	0.094
766	0.094
767	0.092
767	0.089
768	0.086
768	0.084
768	0.083
769	0.082
769	0.08
770	0.079
770	0.076
771	0.074
771	0.07
771	0.067
772	0.064
772	0.062
773	0.059
773	0.056
774	0.053
774	0.049
775	0.046
775	0.043
775	0.039
776	0.035
776	0.031
777	0.027
777	0.023
778	0.018
778	0.013
778	0.009
779	0.005
779	0.002
780	-0.003
780	-0.009
781	-0.015
781	-0.021
781	-0.029
782	-0.037
782	-0.045
783	-0.053
783	-0.059
784	-0.065
784	-0.071
784	-0.076
785	-0.081
785	-0.086
786	-0.088
786	-0.086
787	-0.082
787	-0.078
788	-0.077
788	-0.078
788	-0.079
789	-0.081
789	-0.08
790	-0.077
790	-0.076
791	-0.077
791	-0.078
791	-0.08
792	-0.075
792	-0.066
793	-0.06
793	-0.056
794	-0.055
794	-0.057
794	-0.06
795	-0.062
795	-0.062
796	-0.062
796	-0.064
797	-0.072
797	-0.081
797	-0.087
798	-0.092
798	-0.095
799	-0.096
799	-0.095
800	-0.095
800	-0.098
801	-0.101
801	-0.102
801	-0.103
802	-0.105
802	-0.106
803	-0.107
803	-0.108
804	-0.107
804	-0.102
804	-0.096
805	-0.092
805	-0.09
806	-0.088
806	-0.087
807	-0.086
807	-0.085
807	-0.084
808	-0.084
808	-0.084
809	-0.088
809	-0.093
810	-0.096
810	-0.098
810	-0.101
811	-0.103
811	-0.103
812	-0.099
812	-0.097
813	-0.097
813	-0.098
813	-0.099
814	-0.099
814	-0.099
815	-0.097
815	-0.094
816	-0.092
816	-0.093
817	-0.097
817	-0.1
817	-0.101
818	-0.099
818	-0.095
819	-0.09
819	-0.087
820	-0.084
820	-0.081
820	-0.077
821	-0.07
821	-0.062
822	-0.054
822	-0.045
823	-0.037
823	-0.031
823	-0.025
824	-0.018
824	-0.011
825	-0.004
825	0.003
826	0.009
826	0.013
826	0.018
827	0.022
827	0.026
828	0.029
828	0.032
829	0.036
829	0.039
829	0.041
830	0.043
830	0.046
831	0.049
831	0.052
832	0.054
832	0.057
832	0.058
833	0.06
833	0.062
834	0.063
834	0.064
835	0.065
835	0.065
835	0.065
836	0.066
836	0.066
837	0.067
837	0.068
838	0.068
838	0.069
839	0.069
839	0.07
839	0.07
840	0.07
840	0.07
841	0.071
841	0.071
842	0.072
842	0.073
842	0.073
843	0.073
843	0.073
844	0.073
844	0.073
845	0.073
845	0.073
845	0.073
846	0.073
846	0.073
847	0.074
847	0.074
848	0.075
848	0.075
848	0.076
849	0.076
849	0.077
850	0.077
850	0.077
851	0.077
851	0.077
851	0.077
852	0.077
852	0.077
853	0.077
853	0.078
854	0.078
854	0.079
854	0.08
855	0.08
855	0.081
856	0.081
856	0.081
857	0.082
857	0.081
857	0.081
858	0.081
858	0.081
859	0.08
859	0.08
860	0.079
860	0.079
860	0.079
861	0.078
861	0.078
862	0.077
862	0.076
863	0.076
863	0.075
863	0.075
864	0.074
864	0.074
865	0.074
865	0.074
866	0.074
866	0.075
866	0.076
867	0.077
867	0.077
868	0.078
868	0.079
869	0.08
869	0.08
869	0.08
870	0.079
870	0.078
871	0.078
871	0.077
872	0.076
872	0.074
872	0.073
873	0.072
873	0.071
874	0.071
874	0.071
875	0.071
875	0.071
875	0.071
876	0.072
876	0.072
877	0.072
877	0.072
878	0.072
878	0.071
878	0.071
879	0.07
879	0.07
880	0.069
880	0.069
881	0.068
881	0.068
881	0.068
882	0.068
882	0.069
883	0.069
883	0.07
884	0.07
884	0.071
884	0.071
885	0.071
885	0.071
886	0.071
886	0.072
887	0.072
887	0.072
887	0.071
888	0.071
888	0.071
889	0.071
889	0.072
890	0.072
890	0.073
890	0.073
891	0.073
891	0.073
892	0.074
892	0.074
893	0.074
893	0.075
893	0.075
894	0.076
894	0.076
895	0.076
895	0.076
895	0.076
896	0.076
896	0.076
897	0.077
897	0.077
898	0.077
898	0.077
898	0.077
899	0.078
899	0.078
900	0.078
900	0.079
901	0.079
901	0.078
901	0.078
902	0.079
902	0.078
903	0.078
903	0.077
904	0.077
904	0.076
904	0.075
905	0.074
905	0.073
906	0.073
906	0.072
907	0.071
907	0.07
907	0.07
908	0.07
908	0.07
909	0.07
909	0.071
910	0.072
910	0.072
910	0.073
911	0.074
911	0.075
912	0.076
912	0.077
913	0.077
913	0.078
913	0.078
914	0.079
914	0.079
915	0.078
915	0.078
916	0.077
916	0.077
916	0.076
917	0.075
917	0.074
918	0.073
918	0.073
918	0.072
919	0.071
919	0.071
920	0.07
920	0.07
921	0.07
921	0.07
921	0.07
922	0.07
922	0.069
923	0.069
923	0.069
924	0.069
924	0.068
924	0.068
925	0.067
925	0.067
926	0.066
926	0.065
927	0.065
927	0.064
927	0.063
928	0.063
928	0.063
929	0.063
929	0.064
930	0.065
930	0.066
930	0.067
931	0.068
931	0.07
932	0.071
932	0.072
933	0.074
933	0.075
933	0.075
934	0.076
934	0.076
935	0.076
935	0.076
935	0.076
936	0.075
936	0.075
937	0.075
937	0.075
938	0.075
938	0.075
938	0.075
939	0.076
939	0.076
940	0.076
940	0.076
941	0.076
941	0.076
941	0.076
942	0.076
942	0.075
943	0.075
943	0.074
944	0.074
944	0.073
944	0.073
945	0.073
945	0.073
946	0.073
946	0.072
946	0.071
947	0.071
947	0.07
948	0.07
948	0.069
949	0.068
949	0.068
949	0.067
950	0.066
950	0.066
951	0.065
951	0.065
952	0.065
952	0.064
952	0.064
953	0.064
953	0.064
954	0.063
954	0.063
955	0.063
955	0.063
955	0.063
956	0.063
956	0.063
957	0.063
957	0.063
957	0.063
958	0.063
958	0.063
959	0.063
959	0.062
960	0.062
960	0.061
960	0.06
961	0.059
961	0.059
962	0.058
962	0.057
963	0.057
963	0.057
963	0.057
964	0.057
964	0.057
965	0.058
965	0.059
966	0.06
966	0.061
966	0.062
967	0.062
967	0.063
968	0.063
968	0.063
968	0.063
969	0.063
969	0.062
970	0.062
970	0.061
971	0.06
971	0.06
971	0.06
972	0.059
972	0.059
973	0.06
973	0.06
974	0.06
974	0.06
974	0.06
975	0.061
975	0.062
976	0.063
976	0.063
976	0.064
977	0.064
977	0.064
978	0.065
978	0.065
979	0.065
979	0.065
979	0.065
980	0.065
980	0.065
981	0.065
981	0.065
982	0.065
982	0.066
982	0.066
983	0.067
983	0.067
984	0.067
984	0.067
984	0.067
985	0.067
985	0.066
986	0.065
986	0.064
987	0.063
987	0.062
987	0.061
988	0.06
988	0.059
989	0.058
989	0.057
990	0.057
990	0.057
990	0.057
991	0.057
991	0.058
992	0.058
992	0.058
992	0.058
993	0.058
993	0.058
994	0.058
994	0.058
995	0.058
995	0.058
995	0.057
996	0.057
996	0.057
997	0.057
997	0.057
997	0.057
998	0.058
998	0.059
999	0.06
999	0.061
1000	0.062
1000	0.063
1000	0.064
1001	0.065
1001	0.066
1002	0.067
1002	0.067
1003	0.067
1003	0.068
1003	0.068
1004	0.068
1004	0.067
1005	0.067
1005	0.066
1005	0.066
1006	0.065
1006	0.065
1007	0.064
1007	0.064
1008	0.063
1008	0.063
1008	0.063
1009	0.063
1009	0.063
1010	0.063
1010	0.063
1010	0.063
1011	0.063
1011	0.063
1012	0.063
1012	0.063
1013	0.063
1013	0.063
1013	0.062
1014	0.062
1014	0.061
1015	0.06
1015	0.06
1016	0.059
1016	0.058
1016	0.057
1017	0.056
1017	0.055
1018	0.054
1018	0.053
1018	0.053
1019	0.052
1019	0.052
1020	0.052
1020	0.051
1021	0.051
1021	0.051
1021	0.051
1022	0.051
1022	0.051
1023	0.05
1023	0.05
1023	0.05
1024	0.049
1024	0.048
1025	0.048
1025	0.047
1026	0.046
1026	0.045
1026	0.045
1027	0.044
1027	0.044
1028	0.043
1028	0.043
1028	0.042
1029	0.042
1029	0.043
1030	0.043
1030	0.043
1031	0.044
1031	0.044
1031	0.045
1032	0.045
1032	0.046
1033	0.047
1033	0.047
1033	0.048
1034	0.048
1034	0.047
1035	0.047
1035	0.047
1036	0.047
1036	0.047
1036	0.047
1037	0.046
1037	0.046
1038	0.047
1038	0.047
1039	0.047
1039	0.048
1039	0.049
1040	0.049
1040	0.05
1041	0.05
1041	0.049
1041	0.049
1042	0.048
1042	0.048
1043	0.048
1043	0.047
1044	0.046
1044	0.045
1044	0.045
1045	0.044
1045	0.044
1046	0.043
1046	0.043
1046	0.043
1047	0.043
1047	0.043
1048	0.043
1048	0.043
1049	0.042
1049	0.041
1049	0.041
1050	0.04
1050	0.039
1051	0.039
1051	0.038
1051	0.038
1052	0.038
1052	0.037
1053	0.037
1053	0.036
1053	0.037
1054	0.037
1054	0.037
1055	0.037
1055	0.037
1056	0.037
1056	0.037
1056	0.036
1057	0.036
1057	0.036
1058	0.036
1058	0.036
1058	0.037
1059	0.037
1059	0.037
1060	0.037
1060	0.037
1061	0.037
1061	0.038
1061	0.038
1062	0.038
1062	0.038
1063	0.038
1063	0.038
1063	0.038
1064	0.039
1064	0.04
1065	0.04
1065	0.041
1066	0.041
1066	0.042
1066	0.043
1067	0.044
1067	0.045
1068	0.046
1068	0.046
1068	0.047
1069	0.047
1069	0.047
1070	0.048
1070	0.048
1071	0.049
1071	0.049
1071	0.049
1072	0.049
1072	0.05
1073	0.051
1073	0.051
1073	0.051
1074	0.052
1074	0.052
1075	0.051
1075	0.051
1076	0.05
1076	0.05
1076	0.049
1077	0.049
1077	0.049
1078	0.048
1078	0.049
1078	0.05
1079	0.05
1079	0.052
1080	0.053
1080	0.054
1080	0.054
1081	0.055
1081	0.056
1082	0.056
1082	0.056
1083	0.057
1083	0.057
1083	0.058
1084	0.059
1084	0.06
1085	0.061
1085	0.062
1085	0.063
1086	0.065
1086	0.066
1087	0.068
1087	0.069
1088	0.07
1088	0.071
1088	0.072
1089	0.073
1089	0.075
1090	0.076
1090	0.078
1090	0.08
1091	0.082
1091	0.084
1092	0.087
1092	0.091
1092	0.094
1093	0.097
1093	0.1
1094	0.104
1094	0.106
1095	0.11
1095	0.114
1095	0.118
1096	0.122
1096	0.127
1097	0.132
1097	0.136
1097	0.142
1098	0.147
1098	0.153
1099	0.161
1099	0.168
1100	0.175
1100	0.184
1100	0.193
1101	0.202
1101	0.212
1102	0.226
1102	0.24
1102	0.258
1103	0.275
1103	0.293
1104	0.314
1104	0.338
1104	0.366
1105	0.395
1105	0.429
1106	0.461
1106	0.507
1107	0.556
1107	0.638
1107	0.756
1108	1.578
1108	-0
1109	-0
1109	-0
1109	-0
1110	-0
1110	-0
1111	-0
1111	-0
