Data from 15c-2a_Absorbance__1__02710.txt Node

Date: Tue Jan 16 14:01:18 CET 2024
User: Marek
Spectrometer: MAYP115816
Trigger mode: 0
Integration Time (sec): 2.000000E-1
Scans to average: 10
Electric dark correction enabled: true
Nonlinearity correction enabled: true
Boxcar width: 5
XAxis mode: Wavelengths
Number of Pixels in Spectrum: 2068
>>>>>Begin Spectral Data<<<<<
199	-2.178
199	-1.99
200	-1.855
200	-1.735
201	-1.661
201	-1.609
202	-1.533
202	-1.471
203	-1.422
203	-1.373
204	-1.347
204	-1.321
205	-1.301
205	-1.29
205	-1.287
206	-1.282
206	-1.278
207	-1.275
207	-1.275
208	-1.271
208	-1.27
209	-1.265
209	-1.263
210	-1.262
210	-1.259
211	-1.258
211	-1.257
212	-1.256
212	-1.256
213	-1.254
213	-1.253
213	-1.254
214	-1.251
214	-1.25
215	-1.249
215	-1.25
216	-1.246
216	-1.245
217	-1.242
217	-1.24
218	-1.236
218	-1.232
219	-1.227
219	-1.226
220	-1.224
220	-1.222
221	-1.218
221	-1.217
221	-1.212
222	-1.207
222	-1.202
223	-1.198
223	-1.193
224	-1.188
224	-1.179
225	-1.17
225	-1.16
226	-1.152
226	-1.142
227	-1.128
227	-1.116
228	-1.1
228	-1.084
229	-1.063
229	-1.04
229	-1.015
230	-0.986
230	-0.954
231	-0.919
231	-0.881
232	-0.842
232	-0.799
233	-0.754
233	-0.708
234	-0.661
234	-0.614
235	-0.566
235	-0.52
236	-0.473
236	-0.428
236	-0.384
237	-0.341
237	-0.301
238	-0.263
238	-0.226
239	-0.191
239	-0.159
240	-0.129
240	-0.102
241	-0.076
241	-0.052
242	-0.03
242	-0.01
243	0.009
243	0.026
243	0.042
244	0.057
244	0.07
245	0.082
245	0.094
246	0.105
246	0.115
247	0.123
247	0.132
248	0.14
248	0.147
249	0.154
249	0.16
250	0.166
250	0.172
250	0.177
251	0.182
251	0.186
252	0.191
252	0.195
253	0.198
253	0.202
254	0.205
254	0.208
255	0.211
255	0.214
256	0.216
256	0.218
257	0.221
257	0.222
258	0.224
258	0.226
258	0.227
259	0.228
259	0.229
260	0.23
260	0.231
261	0.232
261	0.233
262	0.233
262	0.234
263	0.234
263	0.235
264	0.235
264	0.236
265	0.236
265	0.236
265	0.236
266	0.236
266	0.236
267	0.236
267	0.236
268	0.235
268	0.235
269	0.234
269	0.234
270	0.233
270	0.233
271	0.232
271	0.231
272	0.231
272	0.23
272	0.229
273	0.229
273	0.228
274	0.228
274	0.227
275	0.226
275	0.226
276	0.225
276	0.224
277	0.223
277	0.222
278	0.22
278	0.219
278	0.218
279	0.216
279	0.215
280	0.214
280	0.214
281	0.213
281	0.212
282	0.212
282	0.212
283	0.211
283	0.211
284	0.211
284	0.211
285	0.211
285	0.21
285	0.21
286	0.209
286	0.209
287	0.208
287	0.208
288	0.207
288	0.207
289	0.207
289	0.206
290	0.206
290	0.205
291	0.205
291	0.205
292	0.204
292	0.204
292	0.204
293	0.203
293	0.203
294	0.203
294	0.203
295	0.203
295	0.202
296	0.202
296	0.202
297	0.202
297	0.202
298	0.202
298	0.201
298	0.201
299	0.201
299	0.201
300	0.201
300	0.201
301	0.201
301	0.201
302	0.201
302	0.201
303	0.201
303	0.201
304	0.201
304	0.2
305	0.2
305	0.2
305	0.2
306	0.199
306	0.199
307	0.199
307	0.198
308	0.198
308	0.198
309	0.197
309	0.197
310	0.197
310	0.196
311	0.196
311	0.196
311	0.196
312	0.195
312	0.195
313	0.195
313	0.194
314	0.194
314	0.193
315	0.193
315	0.193
316	0.192
316	0.192
317	0.191
317	0.191
318	0.191
318	0.19
318	0.19
319	0.189
319	0.189
320	0.188
320	0.188
321	0.187
321	0.187
322	0.186
322	0.186
323	0.185
323	0.185
324	0.184
324	0.184
324	0.183
325	0.183
325	0.183
326	0.182
326	0.182
327	0.181
327	0.181
328	0.18
328	0.18
329	0.179
329	0.179
330	0.178
330	0.178
330	0.177
331	0.177
331	0.176
332	0.176
332	0.175
333	0.175
333	0.174
334	0.174
334	0.173
335	0.173
335	0.172
336	0.172
336	0.171
336	0.17
337	0.17
337	0.169
338	0.169
338	0.168
339	0.168
339	0.167
340	0.167
340	0.166
341	0.166
341	0.165
342	0.165
342	0.164
342	0.164
343	0.163
343	0.163
344	0.162
344	0.162
345	0.161
345	0.161
346	0.161
346	0.16
347	0.16
347	0.159
348	0.159
348	0.158
348	0.158
349	0.157
349	0.157
350	0.156
350	0.155
351	0.154
351	0.154
352	0.153
352	0.152
353	0.151
353	0.15
354	0.149
354	0.148
354	0.147
355	0.146
355	0.145
356	0.144
356	0.144
357	0.143
357	0.142
358	0.142
358	0.142
359	0.143
359	0.144
360	0.144
360	0.145
360	0.146
361	0.147
361	0.147
362	0.148
362	0.148
363	0.149
363	0.149
364	0.148
364	0.148
365	0.148
365	0.148
366	0.147
366	0.147
366	0.147
367	0.147
367	0.146
368	0.146
368	0.146
369	0.146
369	0.145
370	0.145
370	0.145
371	0.144
371	0.144
372	0.144
372	0.143
372	0.143
373	0.143
373	0.143
374	0.143
374	0.143
375	0.143
375	0.143
376	0.143
376	0.144
377	0.144
377	0.144
378	0.145
378	0.145
378	0.145
379	0.146
379	0.146
380	0.146
380	0.146
381	0.146
381	0.146
382	0.146
382	0.145
383	0.145
383	0.145
383	0.145
384	0.144
384	0.144
385	0.144
385	0.144
386	0.144
386	0.144
387	0.144
387	0.144
388	0.144
388	0.144
389	0.144
389	0.144
389	0.144
390	0.144
390	0.144
391	0.145
391	0.145
392	0.145
392	0.145
393	0.145
393	0.146
394	0.146
394	0.146
394	0.146
395	0.146
395	0.146
396	0.146
396	0.146
397	0.147
397	0.147
398	0.147
398	0.147
399	0.147
399	0.147
400	0.147
400	0.146
400	0.146
401	0.145
401	0.145
402	0.144
402	0.143
403	0.143
403	0.143
404	0.143
404	0.143
405	0.142
405	0.142
405	0.142
406	0.142
406	0.142
407	0.142
407	0.142
408	0.142
408	0.141
409	0.141
409	0.141
410	0.141
410	0.141
411	0.141
411	0.141
411	0.141
412	0.14
412	0.14
413	0.14
413	0.14
414	0.139
414	0.139
415	0.139
415	0.139
416	0.138
416	0.138
416	0.138
417	0.137
417	0.137
418	0.137
418	0.137
419	0.138
419	0.139
420	0.14
420	0.141
421	0.141
421	0.142
421	0.142
422	0.142
422	0.142
423	0.143
423	0.142
424	0.142
424	0.141
425	0.14
425	0.139
426	0.138
426	0.138
427	0.137
427	0.138
427	0.138
428	0.139
428	0.14
429	0.141
429	0.141
430	0.141
430	0.141
431	0.141
431	0.141
432	0.14
432	0.139
432	0.138
433	0.137
433	0.136
434	0.135
434	0.135
435	0.135
435	0.135
436	0.135
436	0.135
437	0.135
437	0.135
437	0.135
438	0.135
438	0.135
439	0.134
439	0.134
440	0.133
440	0.133
441	0.133
441	0.134
442	0.134
442	0.135
442	0.135
443	0.136
443	0.137
444	0.137
444	0.138
445	0.138
445	0.138
446	0.138
446	0.138
447	0.138
447	0.138
447	0.138
448	0.137
448	0.137
449	0.136
449	0.136
450	0.135
450	0.135
451	0.135
451	0.134
452	0.133
452	0.133
452	0.132
453	0.132
453	0.131
454	0.13
454	0.13
455	0.129
455	0.129
456	0.128
456	0.128
457	0.128
457	0.127
458	0.127
458	0.127
458	0.127
459	0.128
459	0.128
460	0.127
460	0.126
461	0.126
461	0.125
462	0.125
462	0.125
463	0.125
463	0.126
463	0.126
464	0.126
464	0.126
465	0.126
465	0.126
466	0.126
466	0.126
467	0.125
467	0.125
467	0.123
468	0.122
468	0.12
469	0.118
469	0.116
470	0.116
470	0.115
471	0.114
471	0.114
472	0.113
472	0.113
472	0.114
473	0.114
473	0.115
474	0.116
474	0.117
475	0.117
475	0.118
476	0.118
476	0.118
477	0.118
477	0.118
477	0.118
478	0.118
478	0.118
479	0.118
479	0.118
480	0.118
480	0.119
481	0.12
481	0.12
482	0.12
482	0.121
482	0.122
483	0.123
483	0.125
484	0.128
484	0.13
485	0.131
485	0.133
486	0.133
486	0.134
487	0.134
487	0.134
487	0.134
488	0.133
488	0.131
489	0.129
489	0.127
490	0.126
490	0.124
491	0.123
491	0.123
492	0.123
492	0.123
492	0.123
493	0.123
493	0.124
494	0.125
494	0.126
495	0.128
495	0.128
496	0.129
496	0.129
496	0.13
497	0.13
497	0.13
498	0.13
498	0.13
499	0.129
499	0.128
500	0.128
500	0.129
501	0.13
501	0.131
501	0.131
502	0.132
502	0.133
503	0.134
503	0.134
504	0.135
504	0.135
505	0.135
505	0.135
506	0.135
506	0.135
506	0.135
507	0.134
507	0.134
508	0.134
508	0.134
509	0.134
509	0.134
510	0.134
510	0.134
511	0.134
511	0.134
511	0.134
512	0.133
512	0.133
513	0.132
513	0.132
514	0.131
514	0.131
515	0.13
515	0.129
515	0.128
516	0.126
516	0.126
517	0.126
517	0.126
518	0.126
518	0.126
519	0.126
519	0.125
520	0.124
520	0.123
520	0.121
521	0.119
521	0.117
522	0.115
522	0.112
523	0.11
523	0.108
524	0.107
524	0.107
524	0.108
525	0.11
525	0.112
526	0.114
526	0.117
527	0.121
527	0.125
528	0.128
528	0.13
529	0.133
529	0.135
529	0.136
530	0.137
530	0.139
531	0.14
531	0.141
532	0.142
532	0.142
533	0.144
533	0.145
533	0.146
534	0.146
534	0.146
535	0.146
535	0.147
536	0.148
536	0.148
537	0.149
537	0.15
538	0.15
538	0.15
538	0.15
539	0.15
539	0.151
540	0.152
540	0.152
541	0.152
541	0.152
542	0.151
542	0.151
542	0.151
543	0.152
543	0.153
544	0.153
544	0.153
545	0.153
545	0.154
546	0.155
546	0.157
547	0.157
547	0.156
547	0.156
548	0.155
548	0.154
549	0.154
549	0.154
550	0.154
550	0.153
551	0.153
551	0.153
551	0.153
552	0.153
552	0.154
553	0.155
553	0.157
554	0.158
554	0.159
555	0.159
555	0.158
556	0.156
556	0.155
556	0.154
557	0.153
557	0.153
558	0.152
558	0.152
559	0.152
559	0.153
560	0.155
560	0.156
560	0.158
561	0.16
561	0.162
562	0.164
562	0.164
563	0.164
563	0.164
564	0.163
564	0.162
564	0.161
565	0.16
565	0.16
566	0.16
566	0.161
567	0.162
567	0.165
568	0.168
568	0.172
568	0.175
569	0.179
569	0.184
570	0.187
570	0.189
571	0.191
571	0.194
572	0.196
572	0.197
573	0.199
573	0.2
573	0.2
574	0.2
574	0.201
575	0.202
575	0.204
576	0.207
576	0.208
577	0.208
577	0.207
577	0.208
578	0.208
578	0.209
579	0.211
579	0.214
580	0.215
580	0.215
581	0.212
581	0.211
581	0.21
582	0.211
582	0.211
583	0.213
583	0.213
584	0.211
584	0.208
585	0.206
585	0.205
585	0.206
586	0.207
586	0.207
587	0.207
587	0.205
588	0.202
588	0.2
589	0.198
589	0.197
590	0.197
590	0.196
590	0.196
591	0.198
591	0.198
592	0.198
592	0.198
593	0.197
593	0.197
594	0.197
594	0.196
594	0.195
595	0.195
595	0.194
596	0.192
596	0.192
597	0.195
597	0.197
598	0.199
598	0.201
598	0.203
599	0.204
599	0.204
600	0.204
600	0.203
601	0.202
601	0.201
602	0.198
602	0.197
602	0.194
603	0.193
603	0.193
604	0.193
604	0.193
605	0.194
605	0.196
606	0.197
606	0.197
606	0.196
607	0.195
607	0.195
608	0.194
608	0.192
609	0.19
609	0.189
610	0.187
610	0.184
610	0.183
611	0.182
611	0.183
612	0.183
612	0.185
613	0.186
613	0.188
614	0.188
614	0.187
614	0.187
615	0.186
615	0.185
616	0.184
616	0.183
617	0.182
617	0.18
618	0.177
618	0.176
618	0.174
619	0.174
619	0.173
620	0.175
620	0.176
621	0.176
621	0.176
622	0.176
622	0.177
622	0.177
623	0.176
623	0.177
624	0.178
624	0.177
625	0.177
625	0.176
626	0.175
626	0.175
626	0.174
627	0.174
627	0.173
628	0.172
628	0.171
629	0.17
629	0.169
630	0.168
630	0.166
630	0.165
631	0.165
631	0.164
632	0.163
632	0.162
633	0.162
633	0.162
634	0.163
634	0.164
634	0.166
635	0.167
635	0.167
636	0.168
636	0.169
637	0.169
637	0.17
638	0.171
638	0.171
638	0.172
639	0.172
639	0.172
640	0.172
640	0.173
641	0.174
641	0.176
642	0.177
642	0.178
642	0.179
643	0.18
643	0.181
644	0.182
644	0.183
645	0.183
645	0.184
646	0.186
646	0.188
646	0.191
647	0.194
647	0.196
648	0.198
648	0.201
649	0.203
649	0.205
650	0.208
650	0.21
650	0.212
651	0.213
651	0.214
652	0.216
652	0.217
653	0.219
653	0.227
653	0.234
654	0.19
654	0.156
655	0.161
655	0.163
656	0.164
656	0.165
657	0.166
657	0.167
657	0.167
658	0.162
658	0.153
659	0.189
659	0.239
660	0.239
660	0.239
661	0.24
661	0.241
661	0.242
662	0.245
662	0.247
663	0.25
663	0.253
664	0.255
664	0.257
665	0.259
665	0.261
665	0.263
666	0.266
666	0.267
667	0.269
667	0.271
668	0.273
668	0.275
669	0.277
669	0.28
669	0.284
670	0.288
670	0.291
671	0.293
671	0.294
672	0.295
672	0.296
672	0.297
673	0.297
673	0.298
674	0.298
674	0.298
675	0.298
675	0.298
676	0.3
676	0.302
676	0.303
677	0.305
677	0.307
678	0.31
678	0.311
679	0.312
679	0.314
680	0.315
680	0.317
680	0.317
681	0.317
681	0.318
682	0.319
682	0.32
683	0.322
683	0.324
684	0.327
684	0.328
684	0.328
685	0.33
685	0.331
686	0.333
686	0.334
687	0.334
687	0.334
687	0.334
688	0.333
688	0.333
689	0.333
689	0.334
690	0.335
690	0.335
691	0.334
691	0.335
691	0.335
692	0.335
692	0.335
693	0.336
693	0.337
694	0.337
694	0.336
695	0.337
695	0.339
695	0.34
696	0.341
696	0.341
697	0.341
697	0.341
698	0.34
698	0.339
698	0.337
699	0.337
699	0.334
700	0.332
700	0.33
701	0.33
701	0.329
702	0.328
702	0.327
702	0.326
703	0.325
703	0.324
704	0.323
704	0.323
705	0.323
705	0.323
705	0.322
706	0.322
706	0.321
707	0.32
707	0.318
708	0.317
708	0.316
709	0.316
709	0.314
709	0.312
710	0.309
710	0.308
711	0.307
711	0.306
712	0.305
712	0.304
713	0.304
713	0.303
713	0.301
714	0.299
714	0.298
715	0.296
715	0.294
716	0.292
716	0.29
716	0.289
717	0.287
717	0.286
718	0.284
718	0.283
719	0.282
719	0.282
720	0.281
720	0.28
720	0.279
721	0.277
721	0.275
722	0.273
722	0.271
723	0.269
723	0.267
723	0.266
724	0.263
724	0.261
725	0.259
725	0.257
726	0.255
726	0.254
727	0.252
727	0.251
727	0.251
728	0.249
728	0.249
729	0.249
729	0.25
730	0.249
730	0.248
730	0.248
731	0.248
731	0.247
732	0.248
732	0.247
733	0.246
733	0.244
734	0.243
734	0.241
734	0.24
735	0.24
735	0.238
736	0.236
736	0.235
737	0.233
737	0.232
737	0.231
738	0.229
738	0.226
739	0.223
739	0.221
740	0.219
740	0.217
741	0.216
741	0.214
741	0.21
742	0.205
742	0.202
743	0.199
743	0.197
744	0.195
744	0.194
744	0.192
745	0.189
745	0.187
746	0.185
746	0.184
747	0.184
747	0.184
748	0.183
748	0.183
748	0.182
749	0.181
749	0.18
750	0.18
750	0.179
751	0.179
751	0.178
751	0.178
752	0.177
752	0.176
753	0.174
753	0.174
754	0.173
754	0.172
754	0.172
755	0.172
755	0.173
756	0.172
756	0.17
757	0.168
757	0.168
758	0.167
758	0.165
758	0.163
759	0.162
759	0.159
760	0.155
760	0.151
761	0.147
761	0.145
761	0.143
762	0.141
762	0.139
763	0.138
763	0.135
764	0.132
764	0.128
764	0.125
765	0.122
765	0.12
766	0.118
766	0.116
767	0.115
767	0.111
768	0.106
768	0.102
768	0.1
769	0.098
769	0.097
770	0.095
770	0.092
771	0.088
771	0.083
771	0.079
772	0.074
772	0.07
773	0.066
773	0.061
774	0.055
774	0.048
775	0.043
775	0.037
775	0.031
776	0.024
776	0.017
777	0.01
777	0.003
778	-0.005
778	-0.013
778	-0.021
779	-0.027
779	-0.031
780	-0.037
780	-0.044
781	-0.049
781	-0.054
781	-0.058
782	-0.062
782	-0.066
783	-0.069
783	-0.071
784	-0.073
784	-0.076
784	-0.078
785	-0.08
785	-0.082
786	-0.082
786	-0.08
787	-0.076
787	-0.072
788	-0.071
788	-0.072
788	-0.073
789	-0.075
789	-0.075
790	-0.072
790	-0.07
791	-0.071
791	-0.073
791	-0.075
792	-0.069
792	-0.06
793	-0.054
793	-0.051
794	-0.049
794	-0.051
794	-0.054
795	-0.056
795	-0.056
796	-0.056
796	-0.058
797	-0.066
797	-0.075
797	-0.081
798	-0.086
798	-0.089
799	-0.09
799	-0.09
800	-0.09
800	-0.092
801	-0.095
801	-0.096
801	-0.097
802	-0.099
802	-0.1
803	-0.101
803	-0.102
804	-0.101
804	-0.096
804	-0.09
805	-0.086
805	-0.084
806	-0.082
806	-0.081
807	-0.08
807	-0.079
807	-0.079
808	-0.078
808	-0.078
809	-0.083
809	-0.087
810	-0.09
810	-0.092
810	-0.095
811	-0.097
811	-0.098
812	-0.094
812	-0.091
813	-0.091
813	-0.092
813	-0.093
814	-0.094
814	-0.093
815	-0.091
815	-0.088
816	-0.086
816	-0.087
817	-0.091
817	-0.095
817	-0.095
818	-0.095
818	-0.091
819	-0.086
819	-0.084
820	-0.085
820	-0.087
820	-0.088
821	-0.086
821	-0.082
822	-0.078
822	-0.072
823	-0.066
823	-0.062
823	-0.058
824	-0.052
824	-0.042
825	-0.03
825	-0.017
826	-0.005
826	0.004
826	0.013
827	0.022
827	0.03
828	0.037
828	0.043
829	0.049
829	0.055
829	0.059
830	0.063
830	0.067
831	0.073
831	0.078
832	0.081
832	0.085
832	0.088
833	0.091
833	0.094
834	0.097
834	0.099
835	0.101
835	0.102
835	0.103
836	0.104
836	0.105
837	0.106
837	0.107
838	0.108
838	0.109
839	0.11
839	0.11
839	0.111
840	0.112
840	0.113
841	0.114
841	0.115
842	0.116
842	0.117
842	0.118
843	0.12
843	0.12
844	0.121
844	0.122
845	0.123
845	0.124
845	0.125
846	0.126
846	0.127
847	0.129
847	0.13
848	0.132
848	0.133
848	0.134
849	0.135
849	0.136
850	0.137
850	0.137
851	0.138
851	0.139
851	0.139
852	0.139
852	0.14
853	0.14
853	0.141
854	0.141
854	0.142
854	0.143
855	0.143
855	0.143
856	0.144
856	0.144
857	0.145
857	0.145
857	0.145
858	0.145
858	0.145
859	0.145
859	0.145
860	0.145
860	0.145
860	0.144
861	0.144
861	0.144
862	0.144
862	0.143
863	0.143
863	0.143
863	0.143
864	0.143
864	0.143
865	0.143
865	0.143
866	0.144
866	0.144
866	0.145
867	0.145
867	0.146
868	0.147
868	0.148
869	0.148
869	0.148
869	0.148
870	0.147
870	0.146
871	0.146
871	0.145
872	0.144
872	0.142
872	0.141
873	0.141
873	0.14
874	0.14
874	0.14
875	0.14
875	0.141
875	0.141
876	0.142
876	0.143
877	0.143
877	0.143
878	0.143
878	0.142
878	0.142
879	0.141
879	0.141
880	0.14
880	0.139
881	0.138
881	0.138
881	0.138
882	0.138
882	0.138
883	0.138
883	0.138
884	0.138
884	0.139
884	0.139
885	0.139
885	0.139
886	0.139
886	0.14
887	0.14
887	0.14
887	0.14
888	0.14
888	0.139
889	0.14
889	0.14
890	0.141
890	0.141
890	0.141
891	0.141
891	0.141
892	0.141
892	0.142
893	0.142
893	0.142
893	0.143
894	0.143
894	0.143
895	0.143
895	0.143
895	0.143
896	0.144
896	0.144
897	0.145
897	0.145
898	0.146
898	0.146
898	0.146
899	0.146
899	0.147
900	0.147
900	0.147
901	0.146
901	0.146
901	0.146
902	0.145
902	0.145
903	0.144
903	0.143
904	0.142
904	0.141
904	0.14
905	0.14
905	0.139
906	0.138
906	0.138
907	0.137
907	0.136
907	0.136
908	0.136
908	0.137
909	0.137
909	0.137
910	0.138
910	0.139
910	0.139
911	0.14
911	0.141
912	0.142
912	0.143
913	0.143
913	0.144
913	0.144
914	0.144
914	0.144
915	0.144
915	0.143
916	0.143
916	0.142
916	0.141
917	0.14
917	0.14
918	0.139
918	0.138
918	0.138
919	0.137
919	0.137
920	0.137
920	0.137
921	0.137
921	0.136
921	0.136
922	0.136
922	0.136
923	0.135
923	0.135
924	0.135
924	0.134
924	0.133
925	0.132
925	0.132
926	0.131
926	0.13
927	0.129
927	0.128
927	0.128
928	0.127
928	0.127
929	0.127
929	0.127
930	0.128
930	0.129
930	0.13
931	0.131
931	0.133
932	0.134
932	0.135
933	0.137
933	0.138
933	0.139
934	0.139
934	0.14
935	0.14
935	0.14
935	0.14
936	0.14
936	0.14
937	0.14
937	0.14
938	0.141
938	0.141
938	0.142
939	0.142
939	0.143
940	0.143
940	0.143
941	0.143
941	0.143
941	0.143
942	0.143
942	0.143
943	0.142
943	0.142
944	0.141
944	0.141
944	0.141
945	0.141
945	0.141
946	0.141
946	0.14
946	0.14
947	0.139
947	0.138
948	0.137
948	0.136
949	0.135
949	0.134
949	0.133
950	0.132
950	0.131
951	0.13
951	0.129
952	0.129
952	0.129
952	0.129
953	0.128
953	0.128
954	0.128
954	0.127
955	0.127
955	0.127
955	0.126
956	0.126
956	0.126
957	0.125
957	0.125
957	0.124
958	0.124
958	0.124
959	0.123
959	0.123
960	0.122
960	0.121
960	0.12
961	0.119
961	0.119
962	0.118
962	0.117
963	0.117
963	0.117
963	0.117
964	0.117
964	0.117
965	0.118
965	0.118
966	0.119
966	0.12
966	0.121
967	0.122
967	0.122
968	0.122
968	0.122
968	0.122
969	0.121
969	0.121
970	0.12
970	0.12
971	0.119
971	0.118
971	0.118
972	0.118
972	0.118
973	0.118
973	0.118
974	0.119
974	0.119
974	0.12
975	0.12
975	0.121
976	0.122
976	0.122
976	0.123
977	0.123
977	0.123
978	0.123
978	0.123
979	0.123
979	0.124
979	0.123
980	0.123
980	0.123
981	0.123
981	0.123
982	0.123
982	0.123
982	0.124
983	0.124
983	0.124
984	0.124
984	0.124
984	0.124
985	0.124
985	0.123
986	0.122
986	0.121
987	0.12
987	0.119
987	0.118
988	0.117
988	0.116
989	0.116
989	0.115
990	0.115
990	0.115
990	0.115
991	0.115
991	0.116
992	0.116
992	0.116
992	0.117
993	0.117
993	0.116
994	0.116
994	0.116
995	0.115
995	0.115
995	0.115
996	0.114
996	0.114
997	0.114
997	0.114
997	0.114
998	0.115
998	0.116
999	0.117
999	0.118
1000	0.119
1000	0.12
1000	0.121
1001	0.123
1001	0.124
1002	0.124
1002	0.125
1003	0.125
1003	0.126
1003	0.125
1004	0.125
1004	0.125
1005	0.125
1005	0.124
1005	0.123
1006	0.123
1006	0.122
1007	0.122
1007	0.122
1008	0.121
1008	0.121
1008	0.121
1009	0.121
1009	0.121
1010	0.121
1010	0.121
1010	0.121
1011	0.121
1011	0.121
1012	0.121
1012	0.121
1013	0.121
1013	0.121
1013	0.121
1014	0.12
1014	0.119
1015	0.119
1015	0.118
1016	0.117
1016	0.116
1016	0.116
1017	0.115
1017	0.114
1018	0.113
1018	0.113
1018	0.112
1019	0.112
1019	0.111
1020	0.111
1020	0.11
1021	0.11
1021	0.11
1021	0.11
1022	0.109
1022	0.109
1023	0.109
1023	0.109
1023	0.108
1024	0.108
1024	0.107
1025	0.106
1025	0.106
1026	0.105
1026	0.105
1026	0.104
1027	0.104
1027	0.103
1028	0.103
1028	0.103
1028	0.103
1029	0.103
1029	0.103
1030	0.104
1030	0.104
1031	0.105
1031	0.106
1031	0.106
1032	0.107
1032	0.108
1033	0.109
1033	0.109
1033	0.11
1034	0.11
1034	0.11
1035	0.11
1035	0.11
1036	0.11
1036	0.11
1036	0.11
1037	0.111
1037	0.111
1038	0.111
1038	0.112
1039	0.113
1039	0.114
1039	0.115
1040	0.115
1040	0.116
1041	0.116
1041	0.116
1041	0.116
1042	0.115
1042	0.115
1043	0.115
1043	0.114
1044	0.114
1044	0.113
1044	0.113
1045	0.113
1045	0.113
1046	0.113
1046	0.113
1046	0.114
1047	0.114
1047	0.114
1048	0.115
1048	0.115
1049	0.114
1049	0.114
1049	0.113
1050	0.113
1050	0.113
1051	0.112
1051	0.112
1051	0.112
1052	0.113
1052	0.113
1053	0.113
1053	0.114
1053	0.115
1054	0.115
1054	0.116
1055	0.117
1055	0.118
1056	0.118
1056	0.118
1056	0.118
1057	0.119
1057	0.119
1058	0.12
1058	0.12
1058	0.121
1059	0.122
1059	0.123
1060	0.123
1060	0.125
1061	0.126
1061	0.127
1061	0.128
1062	0.129
1062	0.129
1063	0.129
1063	0.13
1063	0.13
1064	0.131
1064	0.133
1065	0.134
1065	0.135
1066	0.136
1066	0.138
1066	0.14
1067	0.142
1067	0.144
1068	0.145
1068	0.147
1068	0.148
1069	0.15
1069	0.151
1070	0.152
1070	0.153
1071	0.155
1071	0.157
1071	0.158
1072	0.16
1072	0.162
1073	0.164
1073	0.167
1073	0.168
1074	0.17
1074	0.172
1075	0.172
1075	0.173
1076	0.173
1076	0.175
1076	0.175
1077	0.176
1077	0.178
1078	0.178
1078	0.181
1078	0.184
1079	0.186
1079	0.189
1080	0.192
1080	0.195
1080	0.196
1081	0.199
1081	0.202
1082	0.204
1082	0.207
1083	0.21
1083	0.212
1083	0.216
1084	0.22
1084	0.224
1085	0.228
1085	0.233
1085	0.238
1086	0.244
1086	0.247
1087	0.253
1087	0.258
1088	0.263
1088	0.268
1088	0.274
1089	0.28
1089	0.288
1090	0.297
1090	0.306
1090	0.315
1091	0.326
1091	0.339
1092	0.352
1092	0.367
1092	0.381
1093	0.396
1093	0.414
1094	0.43
1094	0.449
1095	0.469
1095	0.492
1095	0.521
1096	0.55
1096	0.583
1097	0.627
1097	0.672
1097	0.727
1098	0.788
1098	0.868
1099	0.969
1099	1.117
1100	1.368
1100	2.009
1100	-0
1101	-0
1101	-0
1102	-0
1102	-0
1102	-0
1103	-0
1103	-0
1104	-0
1104	-0
1104	-0
1105	-0
1105	-0
1106	-0
1106	-0
1107	-0
1107	-0
1107	-0
1108	-0
1108	-0
1109	-0
1109	-0
1109	-0
1110	-0
1110	-0
1111	-0
1111	-0
