Data from 15c-2a_Absorbance__21__02730.txt Node

Date: Tue Jan 16 14:01:58 CET 2024
User: Marek
Spectrometer: MAYP115816
Trigger mode: 0
Integration Time (sec): 2.000000E-1
Scans to average: 10
Electric dark correction enabled: true
Nonlinearity correction enabled: true
Boxcar width: 5
XAxis mode: Wavelengths
Number of Pixels in Spectrum: 2068
>>>>>Begin Spectral Data<<<<<
199	-2.012
199	-1.826
200	-1.692
200	-1.573
201	-1.5
201	-1.449
202	-1.374
202	-1.314
203	-1.267
203	-1.219
204	-1.193
204	-1.168
205	-1.148
205	-1.137
205	-1.134
206	-1.128
206	-1.125
207	-1.122
207	-1.122
208	-1.118
208	-1.118
209	-1.113
209	-1.111
210	-1.11
210	-1.108
211	-1.107
211	-1.107
212	-1.107
212	-1.106
213	-1.104
213	-1.103
213	-1.103
214	-1.102
214	-1.1
215	-1.099
215	-1.099
216	-1.096
216	-1.095
217	-1.092
217	-1.09
218	-1.086
218	-1.082
219	-1.077
219	-1.076
220	-1.075
220	-1.074
221	-1.07
221	-1.069
221	-1.064
222	-1.06
222	-1.055
223	-1.05
223	-1.045
224	-1.039
224	-1.03
225	-1.021
225	-1.012
226	-1.003
226	-0.993
227	-0.98
227	-0.968
228	-0.952
228	-0.936
229	-0.915
229	-0.892
229	-0.867
230	-0.838
230	-0.807
231	-0.772
231	-0.733
232	-0.695
232	-0.653
233	-0.608
233	-0.562
234	-0.516
234	-0.47
235	-0.423
235	-0.377
236	-0.331
236	-0.287
236	-0.243
237	-0.202
237	-0.162
238	-0.125
238	-0.09
239	-0.056
239	-0.025
240	0.003
240	0.03
241	0.054
241	0.077
242	0.097
242	0.117
243	0.134
243	0.151
243	0.165
244	0.179
244	0.191
245	0.202
245	0.213
246	0.223
246	0.232
247	0.24
247	0.248
248	0.256
248	0.263
249	0.269
249	0.275
250	0.28
250	0.286
250	0.291
251	0.295
251	0.299
252	0.304
252	0.308
253	0.311
253	0.314
254	0.317
254	0.32
255	0.323
255	0.325
256	0.328
256	0.33
257	0.332
257	0.333
258	0.334
258	0.336
258	0.337
259	0.338
259	0.339
260	0.34
260	0.341
261	0.341
261	0.341
262	0.342
262	0.342
263	0.342
263	0.342
264	0.342
264	0.342
265	0.342
265	0.342
265	0.341
266	0.341
266	0.341
267	0.34
267	0.339
268	0.338
268	0.338
269	0.337
269	0.336
270	0.335
270	0.334
271	0.332
271	0.331
272	0.33
272	0.329
272	0.328
273	0.327
273	0.326
274	0.325
274	0.324
275	0.323
275	0.322
276	0.321
276	0.319
277	0.318
277	0.316
278	0.314
278	0.312
278	0.311
279	0.309
279	0.307
280	0.305
280	0.304
281	0.303
281	0.301
282	0.3
282	0.299
283	0.298
283	0.297
284	0.297
284	0.296
285	0.295
285	0.294
285	0.293
286	0.292
286	0.291
287	0.29
287	0.289
288	0.289
288	0.288
289	0.287
289	0.286
290	0.285
290	0.284
291	0.284
291	0.283
292	0.282
292	0.281
292	0.28
293	0.28
293	0.279
294	0.278
294	0.278
295	0.277
295	0.277
296	0.276
296	0.275
297	0.275
297	0.274
298	0.274
298	0.273
298	0.273
299	0.272
299	0.272
300	0.271
300	0.271
301	0.27
301	0.27
302	0.27
302	0.269
303	0.269
303	0.268
304	0.268
304	0.267
305	0.267
305	0.267
305	0.266
306	0.266
306	0.265
307	0.265
307	0.264
308	0.263
308	0.263
309	0.262
309	0.262
310	0.261
310	0.261
311	0.26
311	0.26
311	0.259
312	0.258
312	0.258
313	0.257
313	0.257
314	0.256
314	0.255
315	0.255
315	0.254
316	0.253
316	0.253
317	0.252
317	0.252
318	0.251
318	0.251
318	0.25
319	0.249
319	0.249
320	0.248
320	0.247
321	0.247
321	0.246
322	0.245
322	0.245
323	0.244
323	0.244
324	0.243
324	0.242
324	0.241
325	0.241
325	0.241
326	0.24
326	0.239
327	0.239
327	0.238
328	0.237
328	0.237
329	0.236
329	0.235
330	0.235
330	0.234
330	0.234
331	0.233
331	0.232
332	0.232
332	0.231
333	0.23
333	0.229
334	0.229
334	0.228
335	0.228
335	0.227
336	0.226
336	0.225
336	0.225
337	0.224
337	0.224
338	0.223
338	0.223
339	0.222
339	0.222
340	0.221
340	0.221
341	0.22
341	0.22
342	0.219
342	0.219
342	0.218
343	0.218
343	0.217
344	0.216
344	0.216
345	0.215
345	0.215
346	0.214
346	0.214
347	0.213
347	0.213
348	0.212
348	0.212
348	0.211
349	0.211
349	0.21
350	0.21
350	0.209
351	0.209
351	0.208
352	0.207
352	0.207
353	0.206
353	0.205
354	0.204
354	0.203
354	0.202
355	0.201
355	0.2
356	0.2
356	0.199
357	0.198
357	0.198
358	0.197
358	0.198
359	0.198
359	0.199
360	0.199
360	0.2
360	0.2
361	0.201
361	0.201
362	0.202
362	0.202
363	0.202
363	0.202
364	0.202
364	0.201
365	0.201
365	0.201
366	0.201
366	0.2
366	0.2
367	0.2
367	0.2
368	0.199
368	0.199
369	0.199
369	0.199
370	0.198
370	0.198
371	0.198
371	0.197
372	0.197
372	0.197
372	0.197
373	0.197
373	0.196
374	0.196
374	0.196
375	0.196
375	0.196
376	0.196
376	0.196
377	0.196
377	0.196
378	0.197
378	0.197
378	0.197
379	0.197
379	0.197
380	0.197
380	0.197
381	0.197
381	0.197
382	0.197
382	0.196
383	0.196
383	0.196
383	0.195
384	0.195
384	0.195
385	0.195
385	0.195
386	0.195
386	0.195
387	0.195
387	0.195
388	0.194
388	0.194
389	0.194
389	0.194
389	0.194
390	0.194
390	0.194
391	0.194
391	0.195
392	0.195
392	0.195
393	0.195
393	0.195
394	0.195
394	0.195
394	0.195
395	0.195
395	0.195
396	0.194
396	0.195
397	0.195
397	0.195
398	0.195
398	0.195
399	0.194
399	0.194
400	0.194
400	0.194
400	0.193
401	0.193
401	0.192
402	0.191
402	0.191
403	0.191
403	0.19
404	0.19
404	0.19
405	0.19
405	0.19
405	0.19
406	0.19
406	0.19
407	0.189
407	0.189
408	0.189
408	0.189
409	0.188
409	0.188
410	0.188
410	0.188
411	0.189
411	0.188
411	0.188
412	0.188
412	0.187
413	0.187
413	0.187
414	0.187
414	0.186
415	0.186
415	0.186
416	0.185
416	0.185
416	0.185
417	0.185
417	0.184
418	0.184
418	0.185
419	0.185
419	0.186
420	0.186
420	0.187
421	0.188
421	0.188
421	0.188
422	0.188
422	0.188
423	0.189
423	0.188
424	0.188
424	0.187
425	0.186
425	0.185
426	0.185
426	0.184
427	0.184
427	0.184
427	0.185
428	0.185
428	0.186
429	0.187
429	0.187
430	0.187
430	0.187
431	0.187
431	0.186
432	0.186
432	0.186
432	0.185
433	0.184
433	0.183
434	0.182
434	0.182
435	0.182
435	0.182
436	0.182
436	0.182
437	0.182
437	0.182
437	0.182
438	0.182
438	0.182
439	0.182
439	0.181
440	0.181
440	0.181
441	0.181
441	0.181
442	0.182
442	0.182
442	0.183
443	0.183
443	0.184
444	0.184
444	0.185
445	0.185
445	0.185
446	0.185
446	0.185
447	0.185
447	0.185
447	0.185
448	0.185
448	0.184
449	0.184
449	0.184
450	0.183
450	0.183
451	0.183
451	0.182
452	0.182
452	0.182
452	0.181
453	0.181
453	0.18
454	0.179
454	0.179
455	0.178
455	0.178
456	0.178
456	0.178
457	0.178
457	0.177
458	0.177
458	0.177
458	0.178
459	0.178
459	0.178
460	0.178
460	0.177
461	0.177
461	0.177
462	0.176
462	0.176
463	0.177
463	0.177
463	0.178
464	0.178
464	0.178
465	0.178
465	0.178
466	0.178
466	0.178
467	0.178
467	0.178
467	0.176
468	0.175
468	0.174
469	0.172
469	0.171
470	0.171
470	0.17
471	0.17
471	0.17
472	0.17
472	0.17
472	0.171
473	0.172
473	0.172
474	0.173
474	0.174
475	0.175
475	0.175
476	0.176
476	0.176
477	0.177
477	0.177
477	0.177
478	0.178
478	0.178
479	0.179
479	0.179
480	0.18
480	0.18
481	0.181
481	0.181
482	0.182
482	0.183
482	0.184
483	0.186
483	0.188
484	0.19
484	0.192
485	0.193
485	0.195
486	0.195
486	0.196
487	0.197
487	0.197
487	0.198
488	0.197
488	0.196
489	0.195
489	0.194
490	0.193
490	0.193
491	0.193
491	0.193
492	0.194
492	0.194
492	0.195
493	0.195
493	0.196
494	0.198
494	0.2
495	0.202
495	0.203
496	0.203
496	0.204
496	0.205
497	0.206
497	0.207
498	0.207
498	0.208
499	0.208
499	0.208
500	0.208
500	0.21
501	0.211
501	0.212
501	0.213
502	0.215
502	0.216
503	0.217
503	0.218
504	0.219
504	0.22
505	0.22
505	0.221
506	0.221
506	0.222
506	0.223
507	0.223
507	0.224
508	0.224
508	0.225
509	0.226
509	0.226
510	0.227
510	0.228
511	0.228
511	0.229
511	0.229
512	0.229
512	0.229
513	0.229
513	0.229
514	0.229
514	0.229
515	0.229
515	0.229
515	0.228
516	0.227
516	0.227
517	0.228
517	0.228
518	0.229
518	0.229
519	0.229
519	0.228
520	0.227
520	0.226
520	0.225
521	0.224
521	0.222
522	0.22
522	0.218
523	0.216
523	0.215
524	0.215
524	0.215
524	0.216
525	0.217
525	0.219
526	0.221
526	0.224
527	0.227
527	0.229
528	0.232
528	0.234
529	0.235
529	0.237
529	0.238
530	0.239
530	0.24
531	0.24
531	0.241
532	0.241
532	0.241
533	0.242
533	0.242
533	0.242
534	0.242
534	0.242
535	0.241
535	0.242
536	0.242
536	0.242
537	0.242
537	0.242
538	0.241
538	0.24
538	0.24
539	0.239
539	0.239
540	0.239
540	0.238
541	0.237
541	0.236
542	0.235
542	0.234
542	0.233
543	0.233
543	0.232
544	0.231
544	0.231
545	0.23
545	0.23
546	0.23
546	0.23
547	0.229
547	0.228
547	0.226
548	0.225
548	0.224
549	0.222
549	0.221
550	0.22
550	0.218
551	0.217
551	0.216
551	0.215
552	0.214
552	0.214
553	0.214
553	0.214
554	0.214
554	0.213
555	0.212
555	0.211
556	0.209
556	0.207
556	0.205
557	0.203
557	0.202
558	0.201
558	0.199
559	0.199
559	0.199
560	0.199
560	0.199
560	0.2
561	0.2
561	0.201
562	0.202
562	0.201
563	0.2
563	0.199
564	0.197
564	0.195
564	0.193
565	0.192
565	0.191
566	0.19
566	0.189
567	0.189
567	0.191
568	0.192
568	0.194
568	0.195
569	0.198
569	0.2
570	0.201
570	0.201
571	0.203
571	0.204
572	0.204
572	0.204
573	0.204
573	0.204
573	0.203
574	0.203
574	0.202
575	0.202
575	0.204
576	0.205
576	0.204
577	0.203
577	0.202
577	0.202
578	0.201
578	0.202
579	0.203
579	0.205
580	0.205
580	0.203
581	0.2
581	0.199
581	0.198
582	0.198
582	0.198
583	0.199
583	0.198
584	0.195
584	0.192
585	0.19
585	0.19
585	0.19
586	0.19
586	0.19
587	0.189
587	0.187
588	0.185
588	0.183
589	0.182
589	0.181
590	0.18
590	0.179
590	0.18
591	0.181
591	0.18
592	0.179
592	0.178
593	0.177
593	0.177
594	0.176
594	0.175
594	0.174
595	0.173
595	0.171
596	0.17
596	0.17
597	0.173
597	0.174
598	0.175
598	0.177
598	0.178
599	0.178
599	0.178
600	0.177
600	0.176
601	0.176
601	0.174
602	0.172
602	0.171
602	0.169
603	0.168
603	0.168
604	0.168
604	0.168
605	0.169
605	0.171
606	0.171
606	0.17
606	0.169
607	0.168
607	0.168
608	0.167
608	0.165
609	0.164
609	0.163
610	0.161
610	0.159
610	0.159
611	0.159
611	0.159
612	0.16
612	0.162
613	0.163
613	0.164
614	0.164
614	0.163
614	0.163
615	0.163
615	0.162
616	0.161
616	0.16
617	0.159
617	0.158
618	0.156
618	0.155
618	0.155
619	0.154
619	0.155
620	0.157
620	0.157
621	0.158
621	0.158
622	0.159
622	0.159
622	0.159
623	0.159
623	0.16
624	0.161
624	0.161
625	0.16
625	0.161
626	0.16
626	0.16
626	0.16
627	0.16
627	0.16
628	0.16
628	0.16
629	0.159
629	0.159
630	0.158
630	0.157
630	0.157
631	0.157
631	0.157
632	0.157
632	0.157
633	0.158
633	0.158
634	0.159
634	0.161
634	0.163
635	0.164
635	0.165
636	0.166
636	0.167
637	0.168
637	0.168
638	0.17
638	0.171
638	0.172
639	0.173
639	0.173
640	0.175
640	0.176
641	0.178
641	0.18
642	0.182
642	0.184
642	0.185
643	0.186
643	0.187
644	0.189
644	0.19
645	0.192
645	0.193
646	0.195
646	0.198
646	0.201
647	0.204
647	0.206
648	0.208
648	0.211
649	0.214
649	0.216
650	0.219
650	0.221
650	0.223
651	0.225
651	0.227
652	0.229
652	0.231
653	0.234
653	0.243
653	0.248
654	0.199
654	0.162
655	0.167
655	0.169
656	0.17
656	0.171
657	0.173
657	0.174
657	0.174
658	0.17
658	0.163
659	0.204
659	0.26
660	0.263
660	0.264
661	0.265
661	0.267
661	0.27
662	0.273
662	0.276
663	0.279
663	0.282
664	0.285
664	0.287
665	0.289
665	0.292
665	0.294
666	0.297
666	0.299
667	0.301
667	0.304
668	0.306
668	0.308
669	0.311
669	0.314
669	0.318
670	0.322
670	0.325
671	0.327
671	0.329
672	0.33
672	0.331
672	0.332
673	0.333
673	0.335
674	0.336
674	0.336
675	0.336
675	0.337
676	0.339
676	0.341
676	0.342
677	0.344
677	0.346
678	0.348
678	0.349
679	0.351
679	0.352
680	0.354
680	0.355
680	0.355
681	0.356
681	0.357
682	0.357
682	0.358
683	0.36
683	0.362
684	0.364
684	0.364
684	0.365
685	0.365
685	0.366
686	0.367
686	0.368
687	0.368
687	0.368
687	0.368
688	0.367
688	0.366
689	0.367
689	0.368
690	0.367
690	0.367
691	0.367
691	0.367
691	0.367
692	0.366
692	0.366
693	0.366
693	0.366
694	0.366
694	0.364
695	0.365
695	0.367
695	0.367
696	0.367
696	0.366
697	0.366
697	0.365
698	0.364
698	0.362
698	0.361
699	0.36
699	0.357
700	0.354
700	0.352
701	0.351
701	0.35
702	0.348
702	0.347
702	0.345
703	0.344
703	0.342
704	0.341
704	0.34
705	0.339
705	0.338
705	0.337
706	0.335
706	0.334
707	0.332
707	0.33
708	0.329
708	0.328
709	0.326
709	0.324
709	0.322
710	0.319
710	0.317
711	0.316
711	0.314
712	0.313
712	0.312
713	0.31
713	0.308
713	0.306
714	0.304
714	0.302
715	0.3
715	0.297
716	0.295
716	0.293
716	0.291
717	0.289
717	0.287
718	0.285
718	0.283
719	0.282
719	0.281
720	0.28
720	0.278
720	0.276
721	0.273
721	0.271
722	0.269
722	0.266
723	0.264
723	0.263
723	0.26
724	0.258
724	0.255
725	0.252
725	0.25
726	0.248
726	0.246
727	0.244
727	0.243
727	0.242
728	0.24
728	0.239
729	0.239
729	0.238
730	0.237
730	0.236
730	0.235
731	0.234
731	0.234
732	0.233
732	0.232
733	0.231
733	0.23
734	0.228
734	0.226
734	0.225
735	0.225
735	0.223
736	0.221
736	0.22
737	0.218
737	0.217
737	0.215
738	0.213
738	0.21
739	0.208
739	0.205
740	0.203
740	0.202
741	0.2
741	0.198
741	0.195
742	0.191
742	0.188
743	0.186
743	0.185
744	0.183
744	0.182
744	0.18
745	0.178
745	0.176
746	0.174
746	0.172
747	0.171
747	0.17
748	0.169
748	0.168
748	0.167
749	0.165
749	0.164
750	0.163
750	0.161
751	0.16
751	0.159
751	0.159
752	0.157
752	0.156
753	0.154
753	0.153
754	0.152
754	0.151
754	0.151
755	0.15
755	0.15
756	0.149
756	0.146
757	0.144
757	0.144
758	0.142
758	0.141
758	0.139
759	0.138
759	0.135
760	0.132
760	0.129
761	0.126
761	0.125
761	0.123
762	0.121
762	0.119
763	0.118
763	0.115
764	0.112
764	0.11
764	0.107
765	0.105
765	0.102
766	0.101
766	0.1
767	0.098
767	0.095
768	0.091
768	0.089
768	0.087
769	0.085
769	0.084
770	0.082
770	0.08
771	0.076
771	0.073
771	0.069
772	0.065
772	0.062
773	0.059
773	0.055
774	0.051
774	0.046
775	0.042
775	0.038
775	0.033
776	0.028
776	0.023
777	0.018
777	0.012
778	0.007
778	0
778	-0.006
779	-0.01
779	-0.015
780	-0.021
780	-0.028
781	-0.035
781	-0.042
781	-0.047
782	-0.053
782	-0.06
783	-0.065
783	-0.069
784	-0.074
784	-0.078
784	-0.08
785	-0.083
785	-0.085
786	-0.086
786	-0.084
787	-0.079
787	-0.076
788	-0.075
788	-0.075
788	-0.077
789	-0.078
789	-0.078
790	-0.075
790	-0.074
791	-0.074
791	-0.076
791	-0.078
792	-0.073
792	-0.064
793	-0.058
793	-0.054
794	-0.053
794	-0.054
794	-0.058
795	-0.06
795	-0.06
796	-0.06
796	-0.062
797	-0.07
797	-0.079
797	-0.085
798	-0.09
798	-0.093
799	-0.093
799	-0.093
800	-0.093
800	-0.095
801	-0.099
801	-0.1
801	-0.101
802	-0.102
802	-0.104
803	-0.105
803	-0.105
804	-0.104
804	-0.1
804	-0.093
805	-0.09
805	-0.088
806	-0.086
806	-0.085
807	-0.083
807	-0.083
807	-0.082
808	-0.081
808	-0.082
809	-0.086
809	-0.091
810	-0.094
810	-0.096
810	-0.099
811	-0.101
811	-0.101
812	-0.097
812	-0.094
813	-0.094
813	-0.095
813	-0.096
814	-0.097
814	-0.097
815	-0.095
815	-0.092
816	-0.09
816	-0.091
817	-0.095
817	-0.098
817	-0.099
818	-0.098
818	-0.095
819	-0.09
819	-0.087
820	-0.088
820	-0.087
820	-0.085
821	-0.081
821	-0.075
822	-0.069
822	-0.062
823	-0.054
823	-0.049
823	-0.044
824	-0.037
824	-0.028
825	-0.018
825	-0.009
826	-0.001
826	0.006
826	0.012
827	0.018
827	0.024
828	0.029
828	0.033
829	0.037
829	0.041
829	0.044
830	0.047
830	0.05
831	0.055
831	0.058
832	0.061
832	0.064
832	0.066
833	0.068
833	0.07
834	0.072
834	0.073
835	0.074
835	0.075
835	0.075
836	0.076
836	0.077
837	0.078
837	0.079
838	0.079
838	0.08
839	0.08
839	0.081
839	0.081
840	0.082
840	0.082
841	0.083
841	0.084
842	0.085
842	0.086
842	0.086
843	0.087
843	0.087
844	0.087
844	0.087
845	0.088
845	0.088
845	0.088
846	0.089
846	0.089
847	0.09
847	0.091
848	0.091
848	0.092
848	0.093
849	0.094
849	0.094
850	0.095
850	0.095
851	0.096
851	0.096
851	0.096
852	0.096
852	0.096
853	0.097
853	0.097
854	0.098
854	0.098
854	0.099
855	0.099
855	0.1
856	0.1
856	0.1
857	0.101
857	0.101
857	0.101
858	0.101
858	0.101
859	0.1
859	0.1
860	0.1
860	0.099
860	0.099
861	0.099
861	0.098
862	0.098
862	0.097
863	0.097
863	0.096
863	0.096
864	0.095
864	0.095
865	0.095
865	0.095
866	0.095
866	0.096
866	0.097
867	0.098
867	0.099
868	0.099
868	0.1
869	0.101
869	0.101
869	0.101
870	0.1
870	0.1
871	0.099
871	0.098
872	0.097
872	0.095
872	0.094
873	0.093
873	0.092
874	0.092
874	0.092
875	0.092
875	0.092
875	0.092
876	0.093
876	0.093
877	0.093
877	0.093
878	0.093
878	0.093
878	0.093
879	0.092
879	0.091
880	0.091
880	0.09
881	0.09
881	0.09
881	0.089
882	0.089
882	0.09
883	0.09
883	0.09
884	0.091
884	0.091
884	0.091
885	0.092
885	0.092
886	0.092
886	0.093
887	0.093
887	0.093
887	0.093
888	0.092
888	0.092
889	0.092
889	0.093
890	0.094
890	0.094
890	0.094
891	0.094
891	0.095
892	0.095
892	0.096
893	0.096
893	0.096
893	0.097
894	0.097
894	0.097
895	0.097
895	0.097
895	0.097
896	0.097
896	0.097
897	0.098
897	0.098
898	0.098
898	0.098
898	0.098
899	0.099
899	0.099
900	0.099
900	0.099
901	0.099
901	0.099
901	0.099
902	0.099
902	0.099
903	0.098
903	0.098
904	0.097
904	0.096
904	0.095
905	0.094
905	0.094
906	0.093
906	0.092
907	0.091
907	0.091
907	0.091
908	0.091
908	0.091
909	0.091
909	0.092
910	0.092
910	0.093
910	0.094
911	0.094
911	0.095
912	0.096
912	0.097
913	0.098
913	0.098
913	0.099
914	0.099
914	0.099
915	0.098
915	0.098
916	0.098
916	0.097
916	0.096
917	0.095
917	0.094
918	0.094
918	0.093
918	0.092
919	0.091
919	0.091
920	0.091
920	0.091
921	0.091
921	0.09
921	0.09
922	0.09
922	0.09
923	0.089
923	0.089
924	0.089
924	0.089
924	0.088
925	0.087
925	0.087
926	0.086
926	0.086
927	0.085
927	0.084
927	0.084
928	0.083
928	0.083
929	0.083
929	0.084
930	0.085
930	0.086
930	0.087
931	0.088
931	0.09
932	0.091
932	0.092
933	0.093
933	0.094
933	0.095
934	0.095
934	0.096
935	0.096
935	0.095
935	0.095
936	0.095
936	0.095
937	0.096
937	0.096
938	0.096
938	0.096
938	0.096
939	0.097
939	0.097
940	0.098
940	0.098
941	0.098
941	0.098
941	0.098
942	0.097
942	0.097
943	0.096
943	0.095
944	0.095
944	0.095
944	0.094
945	0.094
945	0.094
946	0.094
946	0.093
946	0.092
947	0.092
947	0.091
948	0.09
948	0.089
949	0.088
949	0.088
949	0.087
950	0.087
950	0.086
951	0.086
951	0.085
952	0.085
952	0.084
952	0.084
953	0.084
953	0.084
954	0.083
954	0.083
955	0.082
955	0.082
955	0.082
956	0.082
956	0.082
957	0.082
957	0.082
957	0.082
958	0.082
958	0.082
959	0.082
959	0.081
960	0.081
960	0.08
960	0.079
961	0.078
961	0.077
962	0.077
962	0.076
963	0.076
963	0.075
963	0.075
964	0.075
964	0.076
965	0.076
965	0.077
966	0.078
966	0.079
966	0.08
967	0.08
967	0.08
968	0.08
968	0.08
968	0.08
969	0.08
969	0.08
970	0.079
970	0.079
971	0.078
971	0.077
971	0.077
972	0.077
972	0.077
973	0.077
973	0.077
974	0.077
974	0.078
974	0.078
975	0.079
975	0.08
976	0.08
976	0.081
976	0.081
977	0.082
977	0.082
978	0.082
978	0.083
979	0.083
979	0.083
979	0.083
980	0.083
980	0.083
981	0.083
981	0.083
982	0.083
982	0.084
982	0.084
983	0.085
983	0.085
984	0.085
984	0.085
984	0.085
985	0.084
985	0.084
986	0.083
986	0.082
987	0.08
987	0.079
987	0.078
988	0.077
988	0.077
989	0.076
989	0.075
990	0.075
990	0.075
990	0.075
991	0.075
991	0.076
992	0.076
992	0.076
992	0.076
993	0.077
993	0.076
994	0.076
994	0.076
995	0.076
995	0.076
995	0.075
996	0.075
996	0.075
997	0.075
997	0.075
997	0.075
998	0.076
998	0.077
999	0.078
999	0.079
1000	0.08
1000	0.081
1000	0.082
1001	0.083
1001	0.084
1002	0.085
1002	0.086
1003	0.086
1003	0.086
1003	0.086
1004	0.086
1004	0.086
1005	0.085
1005	0.085
1005	0.084
1006	0.083
1006	0.083
1007	0.082
1007	0.082
1008	0.082
1008	0.082
1008	0.082
1009	0.082
1009	0.082
1010	0.082
1010	0.082
1010	0.082
1011	0.082
1011	0.082
1012	0.082
1012	0.082
1013	0.082
1013	0.082
1013	0.081
1014	0.081
1014	0.08
1015	0.079
1015	0.078
1016	0.077
1016	0.077
1016	0.076
1017	0.074
1017	0.073
1018	0.073
1018	0.072
1018	0.072
1019	0.071
1019	0.071
1020	0.071
1020	0.07
1021	0.07
1021	0.07
1021	0.07
1022	0.07
1022	0.069
1023	0.069
1023	0.069
1023	0.069
1024	0.068
1024	0.067
1025	0.067
1025	0.066
1026	0.066
1026	0.065
1026	0.064
1027	0.063
1027	0.063
1028	0.063
1028	0.062
1028	0.062
1029	0.062
1029	0.062
1030	0.062
1030	0.063
1031	0.063
1031	0.064
1031	0.064
1032	0.065
1032	0.066
1033	0.067
1033	0.067
1033	0.067
1034	0.068
1034	0.067
1035	0.067
1035	0.067
1036	0.067
1036	0.067
1036	0.067
1037	0.067
1037	0.067
1038	0.068
1038	0.068
1039	0.069
1039	0.07
1039	0.07
1040	0.071
1040	0.071
1041	0.071
1041	0.071
1041	0.071
1042	0.07
1042	0.07
1043	0.069
1043	0.069
1044	0.068
1044	0.068
1044	0.067
1045	0.067
1045	0.066
1046	0.066
1046	0.066
1046	0.066
1047	0.067
1047	0.067
1048	0.067
1048	0.066
1049	0.066
1049	0.065
1049	0.065
1050	0.064
1050	0.063
1051	0.062
1051	0.062
1051	0.062
1052	0.061
1052	0.061
1053	0.061
1053	0.061
1053	0.061
1054	0.062
1054	0.062
1055	0.063
1055	0.063
1056	0.063
1056	0.063
1056	0.063
1057	0.063
1057	0.063
1058	0.064
1058	0.064
1058	0.064
1059	0.065
1059	0.065
1060	0.066
1060	0.067
1061	0.067
1061	0.068
1061	0.068
1062	0.069
1062	0.069
1063	0.069
1063	0.069
1063	0.069
1064	0.07
1064	0.071
1065	0.072
1065	0.072
1066	0.073
1066	0.074
1066	0.076
1067	0.077
1067	0.078
1068	0.079
1068	0.08
1068	0.08
1069	0.081
1069	0.081
1070	0.082
1070	0.083
1071	0.084
1071	0.085
1071	0.085
1072	0.086
1072	0.087
1073	0.089
1073	0.09
1073	0.09
1074	0.091
1074	0.092
1075	0.091
1075	0.091
1076	0.091
1076	0.091
1076	0.091
1077	0.091
1077	0.092
1078	0.092
1078	0.093
1078	0.095
1079	0.095
1079	0.098
1080	0.098
1080	0.1
1080	0.101
1081	0.102
1081	0.104
1082	0.105
1082	0.106
1083	0.107
1083	0.108
1083	0.11
1084	0.111
1084	0.114
1085	0.115
1085	0.117
1085	0.12
1086	0.122
1086	0.123
1087	0.126
1087	0.129
1088	0.131
1088	0.134
1088	0.137
1089	0.139
1089	0.143
1090	0.146
1090	0.15
1090	0.155
1091	0.159
1091	0.165
1092	0.17
1092	0.177
1092	0.182
1093	0.187
1093	0.195
1094	0.202
1094	0.208
1095	0.215
1095	0.223
1095	0.233
1096	0.242
1096	0.251
1097	0.264
1097	0.274
1097	0.288
1098	0.3
1098	0.314
1099	0.33
1099	0.348
1100	0.369
1100	0.39
1100	0.413
1101	0.44
1101	0.469
1102	0.508
1102	0.551
1102	0.607
1103	0.674
1103	0.755
1104	0.866
1104	1.011
1104	1.27
1105	2.072
1105	-0
1106	-0
1106	-0
1107	-0
1107	-0
1107	-0
1108	-0
1108	-0
1109	-0
1109	-0
1109	-0
1110	-0
1110	-0
1111	-0
1111	-0
