Data from 15c-2a_Absorbance__84__02793.txt Node

Date: Tue Jan 16 14:04:04 CET 2024
User: Marek
Spectrometer: MAYP115816
Trigger mode: 0
Integration Time (sec): 2.000000E-1
Scans to average: 10
Electric dark correction enabled: true
Nonlinearity correction enabled: true
Boxcar width: 5
XAxis mode: Wavelengths
Number of Pixels in Spectrum: 2068
>>>>>Begin Spectral Data<<<<<
199	-1.653
199	-1.474
200	-1.344
200	-1.229
201	-1.159
201	-1.11
202	-1.041
202	-0.986
203	-0.944
203	-0.903
204	-0.878
204	-0.853
205	-0.834
205	-0.824
205	-0.822
206	-0.818
206	-0.816
207	-0.813
207	-0.813
208	-0.809
208	-0.809
209	-0.805
209	-0.804
210	-0.805
210	-0.802
211	-0.801
211	-0.801
212	-0.801
212	-0.801
213	-0.799
213	-0.799
213	-0.8
214	-0.798
214	-0.797
215	-0.796
215	-0.796
216	-0.793
216	-0.793
217	-0.789
217	-0.787
218	-0.783
218	-0.78
219	-0.774
219	-0.773
220	-0.772
220	-0.771
221	-0.768
221	-0.767
221	-0.762
222	-0.757
222	-0.752
223	-0.747
223	-0.742
224	-0.739
224	-0.73
225	-0.72
225	-0.711
226	-0.704
226	-0.694
227	-0.681
227	-0.671
228	-0.655
228	-0.64
229	-0.62
229	-0.596
229	-0.572
230	-0.545
230	-0.514
231	-0.48
231	-0.441
232	-0.404
232	-0.364
233	-0.322
233	-0.278
234	-0.235
234	-0.191
235	-0.148
235	-0.106
236	-0.065
236	-0.025
236	0.013
237	0.049
237	0.083
238	0.115
238	0.144
239	0.173
239	0.198
240	0.222
240	0.243
241	0.263
241	0.28
242	0.297
242	0.312
243	0.326
243	0.338
243	0.349
244	0.359
244	0.369
245	0.377
245	0.386
246	0.393
246	0.4
247	0.405
247	0.411
248	0.417
248	0.422
249	0.427
249	0.431
250	0.435
250	0.439
250	0.443
251	0.446
251	0.449
252	0.453
252	0.456
253	0.458
253	0.46
254	0.462
254	0.465
255	0.466
255	0.468
256	0.47
256	0.471
257	0.472
257	0.473
258	0.474
258	0.474
258	0.475
259	0.476
259	0.475
260	0.476
260	0.476
261	0.475
261	0.476
262	0.475
262	0.475
263	0.475
263	0.474
264	0.474
264	0.473
265	0.472
265	0.471
265	0.47
266	0.469
266	0.468
267	0.467
267	0.465
268	0.464
268	0.462
269	0.46
269	0.459
270	0.457
270	0.455
271	0.453
271	0.451
272	0.449
272	0.447
272	0.445
273	0.443
273	0.441
274	0.439
274	0.437
275	0.435
275	0.433
276	0.431
276	0.429
277	0.426
277	0.424
278	0.422
278	0.419
278	0.417
279	0.414
279	0.411
280	0.409
280	0.406
281	0.404
281	0.402
282	0.399
282	0.397
283	0.395
283	0.393
284	0.392
284	0.39
285	0.389
285	0.387
285	0.385
286	0.383
286	0.381
287	0.379
287	0.377
288	0.376
288	0.374
289	0.372
289	0.37
290	0.369
290	0.367
291	0.366
291	0.364
292	0.363
292	0.362
292	0.36
293	0.359
293	0.357
294	0.356
294	0.355
295	0.354
295	0.352
296	0.351
296	0.35
297	0.349
297	0.348
298	0.347
298	0.345
298	0.345
299	0.344
299	0.343
300	0.342
300	0.341
301	0.34
301	0.34
302	0.339
302	0.338
303	0.337
303	0.336
304	0.336
304	0.335
305	0.334
305	0.333
305	0.332
306	0.331
306	0.33
307	0.329
307	0.328
308	0.327
308	0.327
309	0.326
309	0.325
310	0.324
310	0.323
311	0.322
311	0.321
311	0.321
312	0.32
312	0.319
313	0.318
313	0.318
314	0.317
314	0.316
315	0.315
315	0.314
316	0.313
316	0.312
317	0.312
317	0.311
318	0.31
318	0.309
318	0.308
319	0.308
319	0.307
320	0.306
320	0.305
321	0.304
321	0.303
322	0.302
322	0.302
323	0.301
323	0.3
324	0.299
324	0.298
324	0.297
325	0.297
325	0.296
326	0.295
326	0.295
327	0.294
327	0.293
328	0.292
328	0.292
329	0.291
329	0.29
330	0.289
330	0.289
330	0.288
331	0.287
331	0.286
332	0.285
332	0.284
333	0.284
333	0.283
334	0.282
334	0.282
335	0.281
335	0.28
336	0.28
336	0.279
336	0.278
337	0.278
337	0.277
338	0.276
338	0.276
339	0.275
339	0.275
340	0.274
340	0.273
341	0.273
341	0.272
342	0.272
342	0.271
342	0.271
343	0.27
343	0.27
344	0.269
344	0.269
345	0.268
345	0.268
346	0.267
346	0.267
347	0.266
347	0.266
348	0.266
348	0.266
348	0.265
349	0.265
349	0.264
350	0.264
350	0.263
351	0.263
351	0.262
352	0.262
352	0.261
353	0.261
353	0.26
354	0.26
354	0.259
354	0.259
355	0.258
355	0.257
356	0.257
356	0.256
357	0.255
357	0.255
358	0.254
358	0.254
359	0.254
359	0.254
360	0.255
360	0.255
360	0.255
361	0.255
361	0.256
362	0.256
362	0.256
363	0.256
363	0.256
364	0.256
364	0.256
365	0.255
365	0.255
366	0.255
366	0.254
366	0.254
367	0.254
367	0.254
368	0.253
368	0.253
369	0.253
369	0.253
370	0.253
370	0.253
371	0.252
371	0.252
372	0.252
372	0.251
372	0.251
373	0.251
373	0.251
374	0.25
374	0.25
375	0.25
375	0.249
376	0.249
376	0.249
377	0.249
377	0.249
378	0.249
378	0.249
378	0.25
379	0.25
379	0.25
380	0.25
380	0.249
381	0.249
381	0.249
382	0.249
382	0.248
383	0.248
383	0.248
383	0.247
384	0.247
384	0.247
385	0.247
385	0.247
386	0.247
386	0.246
387	0.246
387	0.246
388	0.246
388	0.246
389	0.245
389	0.245
389	0.245
390	0.245
390	0.245
391	0.245
391	0.245
392	0.245
392	0.245
393	0.245
393	0.245
394	0.245
394	0.245
394	0.244
395	0.244
395	0.244
396	0.244
396	0.244
397	0.243
397	0.243
398	0.243
398	0.243
399	0.243
399	0.243
400	0.242
400	0.242
400	0.242
401	0.241
401	0.241
402	0.24
402	0.24
403	0.24
403	0.24
404	0.239
404	0.239
405	0.239
405	0.239
405	0.239
406	0.239
406	0.239
407	0.239
407	0.239
408	0.238
408	0.238
409	0.238
409	0.238
410	0.238
410	0.238
411	0.238
411	0.238
411	0.237
412	0.237
412	0.237
413	0.236
413	0.236
414	0.236
414	0.235
415	0.235
415	0.235
416	0.234
416	0.234
416	0.234
417	0.234
417	0.233
418	0.233
418	0.234
419	0.234
419	0.234
420	0.235
420	0.235
421	0.235
421	0.235
421	0.235
422	0.235
422	0.236
423	0.236
423	0.235
424	0.235
424	0.234
425	0.234
425	0.233
426	0.233
426	0.233
427	0.233
427	0.233
427	0.233
428	0.233
428	0.234
429	0.234
429	0.234
430	0.234
430	0.234
431	0.234
431	0.234
432	0.234
432	0.233
432	0.233
433	0.232
433	0.232
434	0.232
434	0.232
435	0.231
435	0.231
436	0.231
436	0.231
437	0.231
437	0.231
437	0.231
438	0.231
438	0.231
439	0.231
439	0.231
440	0.231
440	0.231
441	0.231
441	0.231
442	0.231
442	0.231
442	0.232
443	0.232
443	0.233
444	0.233
444	0.233
445	0.234
445	0.234
446	0.234
446	0.234
447	0.234
447	0.234
447	0.234
448	0.234
448	0.233
449	0.233
449	0.233
450	0.233
450	0.233
451	0.233
451	0.233
452	0.233
452	0.233
452	0.232
453	0.232
453	0.232
454	0.231
454	0.231
455	0.231
455	0.231
456	0.232
456	0.231
457	0.231
457	0.231
458	0.231
458	0.231
458	0.232
459	0.232
459	0.233
460	0.232
460	0.232
461	0.232
461	0.232
462	0.232
462	0.233
463	0.233
463	0.234
463	0.234
464	0.234
464	0.235
465	0.235
465	0.235
466	0.235
466	0.236
467	0.236
467	0.236
467	0.235
468	0.235
468	0.234
469	0.234
469	0.234
470	0.234
470	0.234
471	0.234
471	0.234
472	0.234
472	0.234
472	0.235
473	0.236
473	0.237
474	0.238
474	0.238
475	0.239
475	0.24
476	0.241
476	0.242
477	0.242
477	0.243
477	0.244
478	0.244
478	0.245
479	0.246
479	0.246
480	0.247
480	0.248
481	0.249
481	0.249
482	0.25
482	0.251
482	0.253
483	0.254
483	0.256
484	0.258
484	0.259
485	0.261
485	0.262
486	0.263
486	0.265
487	0.266
487	0.267
487	0.268
488	0.269
488	0.269
489	0.269
489	0.27
490	0.271
490	0.271
491	0.272
491	0.273
492	0.275
492	0.275
492	0.277
493	0.278
493	0.28
494	0.282
494	0.284
495	0.286
495	0.288
496	0.29
496	0.291
496	0.293
497	0.294
497	0.296
498	0.297
498	0.298
499	0.299
499	0.3
500	0.302
500	0.304
501	0.306
501	0.307
501	0.309
502	0.311
502	0.313
503	0.315
503	0.317
504	0.318
504	0.32
505	0.321
505	0.323
506	0.324
506	0.326
506	0.328
507	0.329
507	0.33
508	0.332
508	0.333
509	0.335
509	0.336
510	0.338
510	0.339
511	0.34
511	0.341
511	0.342
512	0.344
512	0.344
513	0.345
513	0.346
514	0.347
514	0.347
515	0.348
515	0.348
515	0.348
516	0.348
516	0.349
517	0.349
517	0.35
518	0.35
518	0.35
519	0.35
519	0.35
520	0.35
520	0.35
520	0.349
521	0.348
521	0.347
522	0.346
522	0.345
523	0.344
523	0.344
524	0.344
524	0.344
524	0.344
525	0.345
525	0.346
526	0.347
526	0.348
527	0.349
527	0.351
528	0.352
528	0.352
529	0.352
529	0.352
529	0.352
530	0.351
530	0.351
531	0.35
531	0.35
532	0.349
532	0.348
533	0.348
533	0.347
533	0.346
534	0.345
534	0.344
535	0.343
535	0.342
536	0.341
536	0.339
537	0.338
537	0.336
538	0.335
538	0.333
538	0.331
539	0.329
539	0.328
540	0.326
540	0.324
541	0.321
541	0.319
542	0.317
542	0.315
542	0.313
543	0.311
543	0.308
544	0.306
544	0.304
545	0.302
545	0.3
546	0.298
546	0.296
547	0.294
547	0.29
547	0.288
548	0.285
548	0.283
549	0.281
549	0.278
550	0.276
550	0.273
551	0.27
551	0.268
551	0.266
552	0.264
552	0.262
553	0.26
553	0.258
554	0.256
554	0.254
555	0.251
555	0.248
556	0.245
556	0.242
556	0.239
557	0.237
557	0.234
558	0.232
558	0.23
559	0.227
559	0.226
560	0.224
560	0.223
560	0.221
561	0.221
561	0.22
562	0.218
562	0.216
563	0.213
563	0.211
564	0.208
564	0.206
564	0.203
565	0.201
565	0.199
566	0.196
566	0.195
567	0.193
567	0.193
568	0.192
568	0.191
568	0.191
569	0.191
569	0.19
570	0.189
570	0.187
571	0.186
571	0.186
572	0.184
572	0.183
573	0.181
573	0.18
573	0.178
574	0.176
574	0.175
575	0.174
575	0.175
576	0.174
576	0.172
577	0.169
577	0.168
577	0.168
578	0.167
578	0.167
579	0.167
579	0.168
580	0.166
580	0.163
581	0.16
581	0.159
581	0.159
582	0.159
582	0.158
583	0.158
583	0.157
584	0.154
584	0.15
585	0.15
585	0.15
585	0.15
586	0.15
586	0.149
587	0.148
587	0.146
588	0.144
588	0.143
589	0.143
589	0.143
590	0.142
590	0.141
590	0.142
591	0.142
591	0.141
592	0.14
592	0.138
593	0.137
593	0.136
594	0.135
594	0.134
594	0.133
595	0.132
595	0.131
596	0.13
596	0.131
597	0.134
597	0.135
598	0.135
598	0.136
598	0.137
599	0.137
599	0.136
600	0.136
600	0.135
601	0.134
601	0.133
602	0.131
602	0.131
602	0.13
603	0.13
603	0.13
604	0.13
604	0.131
605	0.132
605	0.133
606	0.132
606	0.131
606	0.131
607	0.131
607	0.13
608	0.13
608	0.128
609	0.128
609	0.128
610	0.127
610	0.125
610	0.126
611	0.127
611	0.128
612	0.129
612	0.13
613	0.131
613	0.132
614	0.132
614	0.132
614	0.132
615	0.132
615	0.132
616	0.132
616	0.132
617	0.131
617	0.131
618	0.13
618	0.13
618	0.131
619	0.132
619	0.133
620	0.135
620	0.136
621	0.137
621	0.138
622	0.138
622	0.139
622	0.139
623	0.14
623	0.141
624	0.142
624	0.143
625	0.143
625	0.144
626	0.144
626	0.145
626	0.146
627	0.147
627	0.147
628	0.147
628	0.148
629	0.148
629	0.148
630	0.148
630	0.148
630	0.15
631	0.15
631	0.151
632	0.152
632	0.153
633	0.154
633	0.155
634	0.157
634	0.159
634	0.161
635	0.162
635	0.163
636	0.165
636	0.166
637	0.167
637	0.169
638	0.17
638	0.172
638	0.174
639	0.176
639	0.178
640	0.18
640	0.183
641	0.185
641	0.187
642	0.19
642	0.192
642	0.194
643	0.196
643	0.198
644	0.2
644	0.202
645	0.204
645	0.206
646	0.208
646	0.211
646	0.214
647	0.217
647	0.22
648	0.223
648	0.225
649	0.229
649	0.232
650	0.235
650	0.237
650	0.24
651	0.243
651	0.245
652	0.248
652	0.251
653	0.255
653	0.264
653	0.266
654	0.212
654	0.171
655	0.175
655	0.177
656	0.179
656	0.181
657	0.182
657	0.184
657	0.185
658	0.182
658	0.176
659	0.223
659	0.289
660	0.296
660	0.299
661	0.301
661	0.304
661	0.308
662	0.311
662	0.315
663	0.319
663	0.322
664	0.326
664	0.329
665	0.332
665	0.335
665	0.338
666	0.341
666	0.344
667	0.347
667	0.35
668	0.353
668	0.356
669	0.36
669	0.363
669	0.368
670	0.371
670	0.375
671	0.377
671	0.38
672	0.382
672	0.383
672	0.385
673	0.387
673	0.389
674	0.391
674	0.392
675	0.393
675	0.395
676	0.397
676	0.399
676	0.401
677	0.403
677	0.405
678	0.407
678	0.408
679	0.41
679	0.411
680	0.413
680	0.414
680	0.415
681	0.416
681	0.417
682	0.418
682	0.419
683	0.421
683	0.423
684	0.424
684	0.424
684	0.424
685	0.425
685	0.425
686	0.426
686	0.426
687	0.426
687	0.426
687	0.426
688	0.425
688	0.424
689	0.424
689	0.424
690	0.424
690	0.423
691	0.422
691	0.422
691	0.421
692	0.42
692	0.419
693	0.419
693	0.419
694	0.417
694	0.416
695	0.417
695	0.417
695	0.416
696	0.415
696	0.414
697	0.413
697	0.412
698	0.41
698	0.408
698	0.406
699	0.404
699	0.401
700	0.397
700	0.395
701	0.393
701	0.391
702	0.388
702	0.386
702	0.383
703	0.381
703	0.379
704	0.377
704	0.375
705	0.373
705	0.37
705	0.368
706	0.365
706	0.363
707	0.36
707	0.358
708	0.355
708	0.353
709	0.351
709	0.349
709	0.346
710	0.343
710	0.341
711	0.339
711	0.337
712	0.335
712	0.333
713	0.331
713	0.328
713	0.325
714	0.322
714	0.319
715	0.316
715	0.313
716	0.31
716	0.307
716	0.304
717	0.302
717	0.299
718	0.297
718	0.294
719	0.293
719	0.291
720	0.289
720	0.287
720	0.284
721	0.281
721	0.279
722	0.276
722	0.273
723	0.27
723	0.268
723	0.265
724	0.261
724	0.258
725	0.255
725	0.252
726	0.249
726	0.247
727	0.244
727	0.242
727	0.24
728	0.238
728	0.236
729	0.235
729	0.234
730	0.232
730	0.23
730	0.229
731	0.228
731	0.227
732	0.226
732	0.224
733	0.223
733	0.221
734	0.22
734	0.218
734	0.217
735	0.216
735	0.214
736	0.212
736	0.21
737	0.209
737	0.207
737	0.205
738	0.202
738	0.199
739	0.197
739	0.195
740	0.192
740	0.191
741	0.189
741	0.187
741	0.184
742	0.181
742	0.179
743	0.178
743	0.177
744	0.176
744	0.174
744	0.173
745	0.171
745	0.169
746	0.167
746	0.166
747	0.164
747	0.162
748	0.161
748	0.159
748	0.156
749	0.154
749	0.152
750	0.15
750	0.149
751	0.147
751	0.146
751	0.144
752	0.143
752	0.141
753	0.139
753	0.138
754	0.137
754	0.136
754	0.135
755	0.134
755	0.133
756	0.131
756	0.128
757	0.127
757	0.126
758	0.124
758	0.123
758	0.122
759	0.12
759	0.117
760	0.115
760	0.113
761	0.112
761	0.111
761	0.109
762	0.108
762	0.107
763	0.106
763	0.103
764	0.101
764	0.099
764	0.098
765	0.096
765	0.095
766	0.094
766	0.093
767	0.092
767	0.09
768	0.088
768	0.086
768	0.085
769	0.084
769	0.083
770	0.081
770	0.08
771	0.077
771	0.075
771	0.072
772	0.07
772	0.068
773	0.066
773	0.064
774	0.062
774	0.059
775	0.057
775	0.055
775	0.053
776	0.05
776	0.047
777	0.045
777	0.042
778	0.038
778	0.035
778	0.032
779	0.029
779	0.027
780	0.023
780	0.019
781	0.015
781	0.01
781	0.005
782	-0.001
782	-0.007
783	-0.013
783	-0.019
784	-0.027
784	-0.035
784	-0.043
785	-0.05
785	-0.058
786	-0.064
786	-0.067
787	-0.067
787	-0.068
788	-0.071
788	-0.075
788	-0.078
789	-0.08
789	-0.081
790	-0.079
790	-0.078
791	-0.079
791	-0.08
791	-0.082
792	-0.077
792	-0.068
793	-0.062
793	-0.058
794	-0.057
794	-0.059
794	-0.062
795	-0.064
795	-0.064
796	-0.064
796	-0.066
797	-0.074
797	-0.083
797	-0.089
798	-0.094
798	-0.097
799	-0.098
799	-0.097
800	-0.097
800	-0.099
801	-0.103
801	-0.104
801	-0.105
802	-0.107
802	-0.108
803	-0.109
803	-0.109
804	-0.109
804	-0.104
804	-0.098
805	-0.094
805	-0.092
806	-0.09
806	-0.089
807	-0.088
807	-0.087
807	-0.086
808	-0.086
808	-0.086
809	-0.09
809	-0.095
810	-0.098
810	-0.1
810	-0.103
811	-0.105
811	-0.105
812	-0.101
812	-0.098
813	-0.099
813	-0.099
813	-0.1
814	-0.101
814	-0.101
815	-0.099
815	-0.096
816	-0.094
816	-0.094
817	-0.095
817	-0.094
817	-0.09
818	-0.083
818	-0.075
819	-0.066
819	-0.058
820	-0.052
820	-0.045
820	-0.037
821	-0.029
821	-0.021
822	-0.015
822	-0.009
823	-0.004
823	-0
823	0.003
824	0.007
824	0.012
825	0.016
825	0.02
826	0.024
826	0.026
826	0.029
827	0.031
827	0.034
828	0.036
828	0.038
829	0.04
829	0.042
829	0.043
830	0.045
830	0.047
831	0.05
831	0.052
832	0.054
832	0.055
832	0.057
833	0.058
833	0.059
834	0.06
834	0.061
835	0.061
835	0.061
835	0.061
836	0.062
836	0.062
837	0.062
837	0.063
838	0.063
838	0.064
839	0.064
839	0.064
839	0.064
840	0.064
840	0.064
841	0.065
841	0.065
842	0.065
842	0.065
842	0.065
843	0.065
843	0.065
844	0.065
844	0.065
845	0.064
845	0.064
845	0.064
846	0.064
846	0.063
847	0.063
847	0.064
848	0.064
848	0.064
848	0.064
849	0.065
849	0.065
850	0.065
850	0.064
851	0.064
851	0.064
851	0.064
852	0.064
852	0.064
853	0.064
853	0.064
854	0.065
854	0.065
854	0.066
855	0.066
855	0.067
856	0.067
856	0.067
857	0.067
857	0.067
857	0.067
858	0.067
858	0.067
859	0.066
859	0.066
860	0.066
860	0.065
860	0.065
861	0.065
861	0.064
862	0.064
862	0.063
863	0.062
863	0.062
863	0.061
864	0.061
864	0.061
865	0.061
865	0.061
866	0.061
866	0.061
866	0.061
867	0.062
867	0.063
868	0.064
868	0.064
869	0.065
869	0.065
869	0.064
870	0.064
870	0.063
871	0.063
871	0.062
872	0.061
872	0.06
872	0.059
873	0.058
873	0.057
874	0.057
874	0.056
875	0.056
875	0.057
875	0.057
876	0.057
876	0.057
877	0.057
877	0.057
878	0.056
878	0.056
878	0.056
879	0.055
879	0.054
880	0.054
880	0.054
881	0.053
881	0.053
881	0.053
882	0.054
882	0.054
883	0.054
883	0.055
884	0.056
884	0.056
884	0.056
885	0.057
885	0.057
886	0.057
886	0.057
887	0.057
887	0.058
887	0.057
888	0.057
888	0.057
889	0.057
889	0.058
890	0.058
890	0.058
890	0.059
891	0.059
891	0.059
892	0.059
892	0.06
893	0.06
893	0.06
893	0.061
894	0.061
894	0.061
895	0.061
895	0.061
895	0.061
896	0.061
896	0.062
897	0.062
897	0.062
898	0.062
898	0.063
898	0.063
899	0.063
899	0.063
900	0.063
900	0.064
901	0.063
901	0.063
901	0.063
902	0.063
902	0.063
903	0.063
903	0.062
904	0.062
904	0.061
904	0.06
905	0.059
905	0.059
906	0.058
906	0.057
907	0.056
907	0.056
907	0.056
908	0.056
908	0.056
909	0.056
909	0.057
910	0.057
910	0.058
910	0.059
911	0.059
911	0.06
912	0.061
912	0.062
913	0.062
913	0.063
913	0.063
914	0.064
914	0.064
915	0.063
915	0.063
916	0.063
916	0.062
916	0.062
917	0.061
917	0.06
918	0.059
918	0.059
918	0.058
919	0.057
919	0.057
920	0.056
920	0.056
921	0.056
921	0.056
921	0.055
922	0.055
922	0.055
923	0.055
923	0.054
924	0.054
924	0.054
924	0.053
925	0.053
925	0.052
926	0.052
926	0.051
927	0.051
927	0.05
927	0.049
928	0.049
928	0.049
929	0.05
929	0.05
930	0.051
930	0.052
930	0.053
931	0.054
931	0.056
932	0.057
932	0.058
933	0.059
933	0.06
933	0.061
934	0.061
934	0.061
935	0.061
935	0.061
935	0.06
936	0.06
936	0.06
937	0.06
937	0.06
938	0.06
938	0.06
938	0.06
939	0.06
939	0.061
940	0.061
940	0.061
941	0.061
941	0.06
941	0.06
942	0.06
942	0.059
943	0.059
943	0.058
944	0.058
944	0.057
944	0.057
945	0.057
945	0.057
946	0.057
946	0.056
946	0.056
947	0.055
947	0.055
948	0.054
948	0.054
949	0.053
949	0.053
949	0.053
950	0.052
950	0.052
951	0.052
951	0.051
952	0.051
952	0.051
952	0.051
953	0.051
953	0.051
954	0.05
954	0.05
955	0.049
955	0.049
955	0.049
956	0.05
956	0.05
957	0.05
957	0.05
957	0.05
958	0.05
958	0.05
959	0.05
959	0.049
960	0.049
960	0.048
960	0.047
961	0.046
961	0.046
962	0.045
962	0.045
963	0.045
963	0.044
963	0.044
964	0.044
964	0.045
965	0.046
965	0.047
966	0.048
966	0.049
966	0.05
967	0.05
967	0.05
968	0.05
968	0.05
968	0.05
969	0.05
969	0.05
970	0.049
970	0.049
971	0.048
971	0.047
971	0.047
972	0.047
972	0.047
973	0.047
973	0.047
974	0.047
974	0.048
974	0.048
975	0.049
975	0.049
976	0.05
976	0.051
976	0.051
977	0.051
977	0.052
978	0.052
978	0.052
979	0.052
979	0.052
979	0.052
980	0.052
980	0.052
981	0.052
981	0.052
982	0.053
982	0.053
982	0.054
983	0.054
983	0.054
984	0.054
984	0.054
984	0.054
985	0.054
985	0.053
986	0.052
986	0.05
987	0.049
987	0.048
987	0.047
988	0.046
988	0.045
989	0.044
989	0.043
990	0.043
990	0.043
990	0.043
991	0.044
991	0.044
992	0.045
992	0.045
992	0.045
993	0.045
993	0.046
994	0.045
994	0.045
995	0.045
995	0.045
995	0.045
996	0.044
996	0.044
997	0.044
997	0.044
997	0.044
998	0.045
998	0.045
999	0.046
999	0.047
1000	0.048
1000	0.049
1000	0.05
1001	0.051
1001	0.052
1002	0.053
1002	0.054
1003	0.054
1003	0.054
1003	0.054
1004	0.055
1004	0.054
1005	0.054
1005	0.053
1005	0.053
1006	0.052
1006	0.051
1007	0.051
1007	0.051
1008	0.05
1008	0.05
1008	0.05
1009	0.05
1009	0.05
1010	0.05
1010	0.05
1010	0.05
1011	0.05
1011	0.05
1012	0.05
1012	0.05
1013	0.049
1013	0.049
1013	0.048
1014	0.048
1014	0.047
1015	0.046
1015	0.045
1016	0.044
1016	0.043
1016	0.042
1017	0.041
1017	0.04
1018	0.04
1018	0.039
1018	0.038
1019	0.038
1019	0.037
1020	0.037
1020	0.036
1021	0.036
1021	0.036
1021	0.036
1022	0.036
1022	0.036
1023	0.036
1023	0.035
1023	0.035
1024	0.034
1024	0.034
1025	0.033
1025	0.032
1026	0.032
1026	0.031
1026	0.03
1027	0.029
1027	0.029
1028	0.028
1028	0.028
1028	0.028
1029	0.028
1029	0.028
1030	0.028
1030	0.028
1031	0.028
1031	0.029
1031	0.029
1032	0.03
1032	0.031
1033	0.031
1033	0.031
1033	0.032
1034	0.031
1034	0.031
1035	0.031
1035	0.03
1036	0.03
1036	0.03
1036	0.03
1037	0.03
1037	0.03
1038	0.03
1038	0.03
1039	0.031
1039	0.031
1039	0.032
1040	0.033
1040	0.033
1041	0.033
1041	0.033
1041	0.032
1042	0.032
1042	0.031
1043	0.031
1043	0.03
1044	0.029
1044	0.028
1044	0.028
1045	0.027
1045	0.026
1046	0.026
1046	0.025
1046	0.025
1047	0.025
1047	0.025
1048	0.025
1048	0.025
1049	0.024
1049	0.023
1049	0.023
1050	0.022
1050	0.021
1051	0.02
1051	0.02
1051	0.019
1052	0.019
1052	0.018
1053	0.017
1053	0.017
1053	0.017
1054	0.017
1054	0.017
1055	0.018
1055	0.018
1056	0.017
1056	0.017
1056	0.016
1057	0.015
1057	0.015
1058	0.015
1058	0.015
1058	0.015
1059	0.015
1059	0.014
1060	0.014
1060	0.014
1061	0.014
1061	0.014
1061	0.014
1062	0.014
1062	0.014
1063	0.014
1063	0.014
1063	0.014
1064	0.014
1064	0.014
1065	0.015
1065	0.015
1066	0.015
1066	0.016
1066	0.016
1067	0.017
1067	0.018
1068	0.018
1068	0.019
1068	0.019
1069	0.019
1069	0.02
1070	0.02
1070	0.02
1071	0.02
1071	0.02
1071	0.02
1072	0.02
1072	0.02
1073	0.02
1073	0.02
1073	0.02
1074	0.02
1074	0.02
1075	0.019
1075	0.018
1076	0.017
1076	0.017
1076	0.016
1077	0.015
1077	0.015
1078	0.015
1078	0.015
1078	0.015
1079	0.015
1079	0.016
1080	0.017
1080	0.017
1080	0.018
1081	0.018
1081	0.019
1082	0.019
1082	0.019
1083	0.019
1083	0.019
1083	0.019
1084	0.019
1084	0.019
1085	0.019
1085	0.02
1085	0.021
1086	0.021
1086	0.022
1087	0.022
1087	0.022
1088	0.023
1088	0.023
1088	0.024
1089	0.024
1089	0.024
1090	0.025
1090	0.025
1090	0.025
1091	0.026
1091	0.027
1092	0.029
1092	0.031
1092	0.032
1093	0.032
1093	0.035
1094	0.036
1094	0.037
1095	0.038
1095	0.039
1095	0.041
1096	0.043
1096	0.043
1097	0.046
1097	0.047
1097	0.05
1098	0.05
1098	0.052
1099	0.054
1099	0.056
1100	0.059
1100	0.062
1100	0.064
1101	0.068
1101	0.07
1102	0.075
1102	0.08
1102	0.087
1103	0.092
1103	0.098
1104	0.105
1104	0.113
1104	0.123
1105	0.132
1105	0.14
1106	0.149
1106	0.159
1107	0.168
1107	0.184
1107	0.204
1108	0.271
1108	0.368
1109	0.526
1109	0.898
1109	1.768
1110	-0
1110	-0
1111	-0
1111	-0
