Data from 15c-2a_Absorbance__432__03141.txt Node

Date: Tue Jan 16 14:15:40 CET 2024
User: Marek
Spectrometer: MAYP115816
Trigger mode: 0
Integration Time (sec): 2.000000E-1
Scans to average: 10
Electric dark correction enabled: true
Nonlinearity correction enabled: true
Boxcar width: 5
XAxis mode: Wavelengths
Number of Pixels in Spectrum: 2068
>>>>>Begin Spectral Data<<<<<
199	-1.623
199	-1.444
200	-1.315
200	-1.2
201	-1.13
201	-1.082
202	-1.012
202	-0.958
203	-0.917
203	-0.876
204	-0.85
204	-0.826
205	-0.807
205	-0.796
205	-0.794
206	-0.79
206	-0.788
207	-0.786
207	-0.786
208	-0.783
208	-0.782
209	-0.778
209	-0.777
210	-0.777
210	-0.774
211	-0.773
211	-0.773
212	-0.773
212	-0.773
213	-0.771
213	-0.77
213	-0.771
214	-0.769
214	-0.768
215	-0.767
215	-0.769
216	-0.765
216	-0.765
217	-0.761
217	-0.759
218	-0.756
218	-0.752
219	-0.748
219	-0.748
220	-0.746
220	-0.745
221	-0.742
221	-0.741
221	-0.737
222	-0.733
222	-0.728
223	-0.723
223	-0.719
224	-0.715
224	-0.706
225	-0.697
225	-0.687
226	-0.68
226	-0.67
227	-0.656
227	-0.645
228	-0.63
228	-0.615
229	-0.595
229	-0.571
229	-0.546
230	-0.519
230	-0.488
231	-0.453
231	-0.416
232	-0.38
232	-0.339
233	-0.297
233	-0.252
234	-0.21
234	-0.166
235	-0.124
235	-0.082
236	-0.042
236	-0.003
236	0.035
237	0.071
237	0.105
238	0.136
238	0.165
239	0.193
239	0.217
240	0.241
240	0.262
241	0.281
241	0.299
242	0.314
242	0.329
243	0.342
243	0.354
243	0.365
244	0.375
244	0.384
245	0.392
245	0.4
246	0.407
246	0.414
247	0.419
247	0.425
248	0.431
248	0.436
249	0.44
249	0.444
250	0.448
250	0.452
250	0.456
251	0.459
251	0.462
252	0.465
252	0.468
253	0.47
253	0.472
254	0.474
254	0.477
255	0.478
255	0.48
256	0.482
256	0.483
257	0.484
257	0.485
258	0.486
258	0.486
258	0.487
259	0.488
259	0.488
260	0.488
260	0.488
261	0.488
261	0.488
262	0.488
262	0.487
263	0.487
263	0.486
264	0.486
264	0.485
265	0.484
265	0.483
265	0.482
266	0.481
266	0.48
267	0.478
267	0.477
268	0.476
268	0.474
269	0.472
269	0.47
270	0.468
270	0.466
271	0.464
271	0.462
272	0.46
272	0.458
272	0.456
273	0.454
273	0.452
274	0.45
274	0.448
275	0.446
275	0.444
276	0.442
276	0.439
277	0.437
277	0.434
278	0.432
278	0.429
278	0.427
279	0.423
279	0.42
280	0.418
280	0.415
281	0.413
281	0.41
282	0.408
282	0.406
283	0.404
283	0.402
284	0.4
284	0.399
285	0.397
285	0.395
285	0.393
286	0.391
286	0.39
287	0.388
287	0.386
288	0.384
288	0.383
289	0.381
289	0.379
290	0.377
290	0.376
291	0.374
291	0.373
292	0.371
292	0.369
292	0.368
293	0.366
293	0.365
294	0.364
294	0.362
295	0.361
295	0.36
296	0.359
296	0.357
297	0.356
297	0.355
298	0.354
298	0.353
298	0.352
299	0.352
299	0.351
300	0.35
300	0.349
301	0.348
301	0.347
302	0.346
302	0.345
303	0.345
303	0.344
304	0.343
304	0.342
305	0.341
305	0.34
305	0.339
306	0.338
306	0.338
307	0.337
307	0.336
308	0.335
308	0.334
309	0.333
309	0.332
310	0.331
310	0.331
311	0.33
311	0.329
311	0.328
312	0.327
312	0.327
313	0.326
313	0.325
314	0.324
314	0.323
315	0.322
315	0.321
316	0.321
316	0.32
317	0.319
317	0.318
318	0.317
318	0.316
318	0.315
319	0.315
319	0.314
320	0.313
320	0.312
321	0.311
321	0.31
322	0.309
322	0.309
323	0.308
323	0.307
324	0.306
324	0.305
324	0.304
325	0.304
325	0.303
326	0.302
326	0.302
327	0.301
327	0.3
328	0.299
328	0.298
329	0.297
329	0.297
330	0.296
330	0.295
330	0.294
331	0.294
331	0.293
332	0.292
332	0.291
333	0.291
333	0.29
334	0.289
334	0.288
335	0.288
335	0.287
336	0.286
336	0.286
336	0.285
337	0.284
337	0.283
338	0.283
338	0.282
339	0.281
339	0.281
340	0.28
340	0.28
341	0.279
341	0.279
342	0.278
342	0.278
342	0.277
343	0.277
343	0.276
344	0.276
344	0.275
345	0.275
345	0.274
346	0.274
346	0.274
347	0.273
347	0.273
348	0.272
348	0.272
348	0.272
349	0.271
349	0.271
350	0.27
350	0.27
351	0.269
351	0.269
352	0.268
352	0.268
353	0.267
353	0.267
354	0.266
354	0.266
354	0.265
355	0.264
355	0.264
356	0.263
356	0.262
357	0.261
357	0.261
358	0.261
358	0.261
359	0.261
359	0.261
360	0.261
360	0.261
360	0.262
361	0.262
361	0.262
362	0.263
362	0.262
363	0.263
363	0.263
364	0.262
364	0.262
365	0.262
365	0.261
366	0.261
366	0.261
366	0.261
367	0.261
367	0.261
368	0.26
368	0.26
369	0.26
369	0.259
370	0.259
370	0.259
371	0.259
371	0.258
372	0.258
372	0.258
372	0.258
373	0.258
373	0.257
374	0.257
374	0.257
375	0.257
375	0.256
376	0.256
376	0.256
377	0.256
377	0.256
378	0.256
378	0.256
378	0.256
379	0.256
379	0.256
380	0.256
380	0.256
381	0.256
381	0.255
382	0.255
382	0.255
383	0.254
383	0.254
383	0.254
384	0.253
384	0.253
385	0.253
385	0.253
386	0.253
386	0.252
387	0.252
387	0.252
388	0.252
388	0.252
389	0.252
389	0.251
389	0.251
390	0.251
390	0.251
391	0.251
391	0.251
392	0.251
392	0.251
393	0.251
393	0.251
394	0.251
394	0.251
394	0.25
395	0.25
395	0.25
396	0.25
396	0.25
397	0.25
397	0.25
398	0.249
398	0.249
399	0.249
399	0.249
400	0.249
400	0.248
400	0.248
401	0.248
401	0.247
402	0.247
402	0.246
403	0.246
403	0.246
404	0.246
404	0.246
405	0.245
405	0.245
405	0.245
406	0.245
406	0.245
407	0.245
407	0.245
408	0.244
408	0.244
409	0.244
409	0.244
410	0.244
410	0.244
411	0.244
411	0.243
411	0.243
412	0.243
412	0.242
413	0.242
413	0.242
414	0.242
414	0.241
415	0.241
415	0.241
416	0.241
416	0.24
416	0.24
417	0.24
417	0.24
418	0.24
418	0.24
419	0.241
419	0.241
420	0.241
420	0.242
421	0.242
421	0.242
421	0.242
422	0.242
422	0.242
423	0.242
423	0.242
424	0.241
424	0.24
425	0.24
425	0.239
426	0.239
426	0.239
427	0.239
427	0.239
427	0.239
428	0.24
428	0.24
429	0.241
429	0.241
430	0.241
430	0.241
431	0.241
431	0.24
432	0.24
432	0.24
432	0.239
433	0.238
433	0.238
434	0.237
434	0.237
435	0.237
435	0.237
436	0.237
436	0.238
437	0.237
437	0.238
437	0.238
438	0.237
438	0.237
439	0.237
439	0.237
440	0.237
440	0.237
441	0.237
441	0.237
442	0.238
442	0.238
442	0.238
443	0.239
443	0.239
444	0.239
444	0.24
445	0.24
445	0.24
446	0.24
446	0.24
447	0.24
447	0.24
447	0.24
448	0.24
448	0.24
449	0.24
449	0.24
450	0.24
450	0.24
451	0.24
451	0.24
452	0.24
452	0.239
452	0.239
453	0.239
453	0.239
454	0.238
454	0.238
455	0.238
455	0.238
456	0.238
456	0.238
457	0.238
457	0.238
458	0.238
458	0.238
458	0.239
459	0.239
459	0.239
460	0.239
460	0.239
461	0.239
461	0.239
462	0.239
462	0.24
463	0.24
463	0.241
463	0.242
464	0.242
464	0.242
465	0.242
465	0.243
466	0.243
466	0.243
467	0.243
467	0.243
467	0.243
468	0.242
468	0.242
469	0.241
469	0.241
470	0.242
470	0.242
471	0.242
471	0.242
472	0.242
472	0.243
472	0.243
473	0.244
473	0.245
474	0.246
474	0.246
475	0.247
475	0.248
476	0.248
476	0.249
477	0.25
477	0.251
477	0.251
478	0.252
478	0.253
479	0.253
479	0.254
480	0.255
480	0.256
481	0.257
481	0.257
482	0.258
482	0.259
482	0.26
483	0.262
483	0.264
484	0.266
484	0.267
485	0.268
485	0.27
486	0.271
486	0.272
487	0.273
487	0.275
487	0.276
488	0.276
488	0.276
489	0.277
489	0.278
490	0.279
490	0.28
491	0.281
491	0.282
492	0.284
492	0.284
492	0.286
493	0.287
493	0.289
494	0.291
494	0.294
495	0.295
495	0.297
496	0.299
496	0.3
496	0.302
497	0.303
497	0.305
498	0.306
498	0.307
499	0.309
499	0.31
500	0.311
500	0.314
501	0.316
501	0.317
501	0.319
502	0.321
502	0.323
503	0.325
503	0.327
504	0.328
504	0.33
505	0.331
505	0.333
506	0.334
506	0.336
506	0.338
507	0.339
507	0.341
508	0.342
508	0.343
509	0.345
509	0.346
510	0.348
510	0.349
511	0.35
511	0.352
511	0.353
512	0.354
512	0.355
513	0.357
513	0.357
514	0.358
514	0.359
515	0.359
515	0.359
515	0.359
516	0.36
516	0.36
517	0.361
517	0.362
518	0.362
518	0.362
519	0.362
519	0.362
520	0.362
520	0.361
520	0.361
521	0.36
521	0.359
522	0.357
522	0.356
523	0.356
523	0.356
524	0.356
524	0.357
524	0.358
525	0.359
525	0.36
526	0.361
526	0.362
527	0.364
527	0.364
528	0.365
528	0.365
529	0.365
529	0.365
529	0.364
530	0.364
530	0.364
531	0.363
531	0.363
532	0.361
532	0.361
533	0.36
533	0.359
533	0.358
534	0.357
534	0.355
535	0.354
535	0.353
536	0.351
536	0.35
537	0.349
537	0.347
538	0.345
538	0.344
538	0.342
539	0.34
539	0.339
540	0.337
540	0.335
541	0.333
541	0.331
542	0.329
542	0.326
542	0.324
543	0.321
543	0.319
544	0.317
544	0.314
545	0.312
545	0.31
546	0.308
546	0.306
547	0.303
547	0.3
547	0.297
548	0.295
548	0.292
549	0.29
549	0.287
550	0.285
550	0.282
551	0.279
551	0.277
551	0.274
552	0.272
552	0.27
553	0.269
553	0.267
554	0.265
554	0.262
555	0.259
555	0.256
556	0.253
556	0.25
556	0.248
557	0.245
557	0.243
558	0.24
558	0.237
559	0.235
559	0.233
560	0.232
560	0.23
560	0.229
561	0.228
561	0.227
562	0.225
562	0.223
563	0.22
563	0.218
564	0.216
564	0.213
564	0.21
565	0.208
565	0.206
566	0.203
566	0.201
567	0.2
567	0.199
568	0.198
568	0.197
568	0.197
569	0.196
569	0.196
570	0.194
570	0.192
571	0.192
571	0.191
572	0.189
572	0.188
573	0.186
573	0.184
573	0.182
574	0.181
574	0.18
575	0.179
575	0.179
576	0.178
576	0.176
577	0.173
577	0.172
577	0.171
578	0.171
578	0.171
579	0.171
579	0.172
580	0.17
580	0.167
581	0.164
581	0.163
581	0.162
582	0.162
582	0.162
583	0.162
583	0.16
584	0.157
584	0.153
585	0.153
585	0.153
585	0.153
586	0.153
586	0.152
587	0.15
587	0.149
588	0.147
588	0.146
589	0.146
589	0.145
590	0.145
590	0.144
590	0.145
591	0.145
591	0.144
592	0.143
592	0.141
593	0.14
593	0.14
594	0.138
594	0.137
594	0.136
595	0.136
595	0.134
596	0.133
596	0.135
597	0.137
597	0.137
598	0.138
598	0.139
598	0.139
599	0.139
599	0.139
600	0.138
600	0.137
601	0.137
601	0.136
602	0.134
602	0.133
602	0.132
603	0.132
603	0.132
604	0.132
604	0.133
605	0.134
605	0.135
606	0.134
606	0.133
606	0.133
607	0.133
607	0.133
608	0.132
608	0.131
609	0.13
609	0.13
610	0.129
610	0.128
610	0.128
611	0.129
611	0.13
612	0.131
612	0.133
613	0.134
613	0.135
614	0.135
614	0.134
614	0.135
615	0.135
615	0.135
616	0.135
616	0.134
617	0.134
617	0.133
618	0.133
618	0.133
618	0.133
619	0.134
619	0.135
620	0.137
620	0.138
621	0.139
621	0.14
622	0.141
622	0.141
622	0.142
623	0.142
623	0.144
624	0.145
624	0.145
625	0.145
625	0.146
626	0.146
626	0.147
626	0.148
627	0.148
627	0.149
628	0.149
628	0.15
629	0.15
629	0.15
630	0.15
630	0.15
630	0.151
631	0.152
631	0.153
632	0.153
632	0.154
633	0.155
633	0.157
634	0.158
634	0.161
634	0.162
635	0.164
635	0.165
636	0.166
636	0.168
637	0.169
637	0.171
638	0.172
638	0.174
638	0.176
639	0.177
639	0.179
640	0.182
640	0.184
641	0.187
641	0.189
642	0.192
642	0.194
642	0.196
643	0.198
643	0.2
644	0.202
644	0.204
645	0.206
645	0.208
646	0.211
646	0.214
646	0.217
647	0.22
647	0.222
648	0.225
648	0.227
649	0.231
649	0.234
650	0.237
650	0.24
650	0.243
651	0.245
651	0.248
652	0.251
652	0.254
653	0.258
653	0.267
653	0.27
654	0.214
654	0.173
655	0.177
655	0.179
656	0.181
656	0.182
657	0.184
657	0.186
657	0.187
658	0.183
658	0.178
659	0.226
659	0.293
660	0.3
660	0.303
661	0.305
661	0.308
661	0.312
662	0.316
662	0.32
663	0.324
663	0.327
664	0.331
664	0.334
665	0.337
665	0.341
665	0.344
666	0.347
666	0.35
667	0.353
667	0.357
668	0.36
668	0.363
669	0.366
669	0.37
669	0.374
670	0.378
670	0.382
671	0.384
671	0.387
672	0.389
672	0.391
672	0.393
673	0.395
673	0.397
674	0.399
674	0.4
675	0.402
675	0.403
676	0.406
676	0.408
676	0.41
677	0.412
677	0.415
678	0.416
678	0.418
679	0.419
679	0.421
680	0.422
680	0.424
680	0.424
681	0.425
681	0.427
682	0.428
682	0.429
683	0.431
683	0.432
684	0.434
684	0.434
684	0.434
685	0.435
685	0.436
686	0.436
686	0.437
687	0.436
687	0.436
687	0.436
688	0.436
688	0.435
689	0.435
689	0.435
690	0.435
690	0.434
691	0.433
691	0.432
691	0.432
692	0.431
692	0.43
693	0.43
693	0.429
694	0.428
694	0.427
695	0.428
695	0.429
695	0.428
696	0.427
696	0.426
697	0.425
697	0.423
698	0.421
698	0.419
698	0.417
699	0.415
699	0.411
700	0.408
700	0.406
701	0.404
701	0.401
702	0.399
702	0.397
702	0.394
703	0.392
703	0.39
704	0.387
704	0.386
705	0.383
705	0.381
705	0.378
706	0.376
706	0.374
707	0.371
707	0.368
708	0.366
708	0.364
709	0.362
709	0.359
709	0.356
710	0.354
710	0.352
711	0.35
711	0.347
712	0.345
712	0.343
713	0.341
713	0.338
713	0.335
714	0.332
714	0.329
715	0.326
715	0.323
716	0.32
716	0.317
716	0.314
717	0.311
717	0.309
718	0.306
718	0.303
719	0.302
719	0.3
720	0.298
720	0.295
720	0.293
721	0.29
721	0.287
722	0.284
722	0.281
723	0.279
723	0.276
723	0.273
724	0.27
724	0.267
725	0.263
725	0.261
726	0.258
726	0.255
727	0.252
727	0.25
727	0.248
728	0.246
728	0.244
729	0.243
729	0.241
730	0.239
730	0.238
730	0.236
731	0.235
731	0.234
732	0.233
732	0.231
733	0.229
733	0.228
734	0.226
734	0.225
734	0.223
735	0.222
735	0.22
736	0.218
736	0.217
737	0.215
737	0.214
737	0.211
738	0.208
738	0.205
739	0.203
739	0.2
740	0.198
740	0.196
741	0.195
741	0.192
741	0.19
742	0.187
742	0.185
743	0.184
743	0.183
744	0.181
744	0.18
744	0.178
745	0.176
745	0.174
746	0.173
746	0.171
747	0.169
747	0.167
748	0.166
748	0.164
748	0.161
749	0.159
749	0.158
750	0.156
750	0.154
751	0.152
751	0.151
751	0.149
752	0.147
752	0.145
753	0.144
753	0.143
754	0.142
754	0.14
754	0.14
755	0.138
755	0.137
756	0.135
756	0.133
757	0.131
757	0.13
758	0.129
758	0.127
758	0.126
759	0.124
759	0.122
760	0.119
760	0.117
761	0.116
761	0.115
761	0.114
762	0.112
762	0.112
763	0.11
763	0.108
764	0.106
764	0.104
764	0.103
765	0.101
765	0.1
766	0.098
766	0.098
767	0.097
767	0.094
768	0.092
768	0.091
768	0.09
769	0.089
769	0.088
770	0.086
770	0.084
771	0.082
771	0.08
771	0.077
772	0.075
772	0.074
773	0.072
773	0.07
774	0.068
774	0.066
775	0.064
775	0.062
775	0.059
776	0.057
776	0.054
777	0.052
777	0.049
778	0.046
778	0.042
778	0.04
779	0.037
779	0.035
780	0.031
780	0.027
781	0.024
781	0.02
781	0.015
782	0.009
782	0.004
783	-0.002
783	-0.008
784	-0.015
784	-0.023
784	-0.03
785	-0.037
785	-0.045
786	-0.052
786	-0.056
787	-0.057
787	-0.059
788	-0.064
788	-0.068
788	-0.072
789	-0.076
789	-0.078
790	-0.077
790	-0.078
791	-0.079
791	-0.081
791	-0.083
792	-0.077
792	-0.068
793	-0.062
793	-0.059
794	-0.057
794	-0.059
794	-0.062
795	-0.064
795	-0.064
796	-0.064
796	-0.066
797	-0.074
797	-0.083
797	-0.089
798	-0.094
798	-0.097
799	-0.098
799	-0.098
800	-0.098
800	-0.1
801	-0.103
801	-0.104
801	-0.105
802	-0.107
802	-0.108
803	-0.109
803	-0.11
804	-0.109
804	-0.104
804	-0.098
805	-0.094
805	-0.092
806	-0.09
806	-0.089
807	-0.088
807	-0.087
807	-0.087
808	-0.086
808	-0.086
809	-0.09
809	-0.095
810	-0.098
810	-0.1
810	-0.103
811	-0.105
811	-0.106
812	-0.102
812	-0.099
813	-0.099
813	-0.1
813	-0.101
814	-0.101
814	-0.101
815	-0.099
815	-0.096
816	-0.094
816	-0.094
817	-0.095
817	-0.094
817	-0.09
818	-0.083
818	-0.074
819	-0.066
819	-0.058
820	-0.051
820	-0.044
820	-0.036
821	-0.027
821	-0.019
822	-0.013
822	-0.007
823	-0.002
823	0.002
823	0.006
824	0.01
824	0.014
825	0.018
825	0.022
826	0.025
826	0.028
826	0.03
827	0.033
827	0.035
828	0.037
828	0.039
829	0.041
829	0.043
829	0.045
830	0.047
830	0.049
831	0.052
831	0.054
832	0.055
832	0.057
832	0.058
833	0.06
833	0.06
834	0.061
834	0.062
835	0.062
835	0.062
835	0.062
836	0.062
836	0.062
837	0.062
837	0.063
838	0.063
838	0.063
839	0.064
839	0.064
839	0.064
840	0.064
840	0.065
841	0.065
841	0.065
842	0.066
842	0.066
842	0.066
843	0.066
843	0.066
844	0.066
844	0.066
845	0.065
845	0.065
845	0.065
846	0.064
846	0.064
847	0.064
847	0.064
848	0.064
848	0.065
848	0.065
849	0.065
849	0.065
850	0.065
850	0.065
851	0.065
851	0.065
851	0.065
852	0.065
852	0.065
853	0.065
853	0.065
854	0.065
854	0.065
854	0.066
855	0.066
855	0.067
856	0.067
856	0.067
857	0.067
857	0.067
857	0.067
858	0.067
858	0.066
859	0.066
859	0.066
860	0.066
860	0.065
860	0.065
861	0.065
861	0.064
862	0.064
862	0.063
863	0.063
863	0.062
863	0.062
864	0.061
864	0.061
865	0.061
865	0.061
866	0.061
866	0.061
866	0.062
867	0.062
867	0.063
868	0.064
868	0.065
869	0.065
869	0.065
869	0.065
870	0.064
870	0.063
871	0.063
871	0.062
872	0.061
872	0.059
872	0.058
873	0.057
873	0.056
874	0.056
874	0.055
875	0.056
875	0.056
875	0.056
876	0.056
876	0.057
877	0.057
877	0.057
878	0.057
878	0.056
878	0.056
879	0.056
879	0.055
880	0.055
880	0.054
881	0.054
881	0.054
881	0.054
882	0.055
882	0.055
883	0.056
883	0.056
884	0.057
884	0.058
884	0.058
885	0.058
885	0.058
886	0.059
886	0.059
887	0.059
887	0.059
887	0.059
888	0.058
888	0.058
889	0.058
889	0.058
890	0.059
890	0.059
890	0.059
891	0.059
891	0.059
892	0.059
892	0.06
893	0.06
893	0.06
893	0.061
894	0.061
894	0.061
895	0.061
895	0.061
895	0.061
896	0.061
896	0.062
897	0.062
897	0.062
898	0.063
898	0.063
898	0.063
899	0.063
899	0.064
900	0.064
900	0.064
901	0.064
901	0.064
901	0.064
902	0.064
902	0.064
903	0.063
903	0.063
904	0.062
904	0.061
904	0.06
905	0.06
905	0.059
906	0.058
906	0.058
907	0.057
907	0.056
907	0.056
908	0.056
908	0.056
909	0.057
909	0.057
910	0.058
910	0.059
910	0.059
911	0.06
911	0.061
912	0.061
912	0.062
913	0.063
913	0.063
913	0.064
914	0.064
914	0.064
915	0.064
915	0.064
916	0.063
916	0.063
916	0.062
917	0.061
917	0.06
918	0.06
918	0.059
918	0.058
919	0.058
919	0.057
920	0.057
920	0.057
921	0.057
921	0.057
921	0.056
922	0.056
922	0.056
923	0.056
923	0.056
924	0.055
924	0.055
924	0.055
925	0.054
925	0.054
926	0.053
926	0.053
927	0.052
927	0.051
927	0.051
928	0.051
928	0.051
929	0.051
929	0.051
930	0.052
930	0.053
930	0.054
931	0.055
931	0.056
932	0.058
932	0.059
933	0.06
933	0.061
933	0.061
934	0.062
934	0.062
935	0.061
935	0.061
935	0.061
936	0.06
936	0.06
937	0.06
937	0.06
938	0.06
938	0.06
938	0.06
939	0.06
939	0.06
940	0.06
940	0.06
941	0.06
941	0.06
941	0.059
942	0.059
942	0.058
943	0.058
943	0.057
944	0.057
944	0.056
944	0.056
945	0.056
945	0.056
946	0.056
946	0.055
946	0.055
947	0.055
947	0.054
948	0.054
948	0.053
949	0.053
949	0.053
949	0.052
950	0.052
950	0.052
951	0.052
951	0.051
952	0.051
952	0.051
952	0.051
953	0.051
953	0.05
954	0.05
954	0.049
955	0.049
955	0.048
955	0.048
956	0.049
956	0.049
957	0.049
957	0.049
957	0.049
958	0.049
958	0.049
959	0.049
959	0.049
960	0.048
960	0.048
960	0.047
961	0.046
961	0.045
962	0.045
962	0.044
963	0.044
963	0.044
963	0.044
964	0.044
964	0.044
965	0.045
965	0.046
966	0.047
966	0.048
966	0.049
967	0.049
967	0.049
968	0.05
968	0.05
968	0.05
969	0.049
969	0.049
970	0.049
970	0.048
971	0.048
971	0.047
971	0.047
972	0.046
972	0.047
973	0.047
973	0.046
974	0.047
974	0.047
974	0.047
975	0.048
975	0.049
976	0.05
976	0.05
976	0.051
977	0.051
977	0.051
978	0.052
978	0.052
979	0.052
979	0.052
979	0.052
980	0.052
980	0.052
981	0.052
981	0.052
982	0.053
982	0.053
982	0.054
983	0.054
983	0.054
984	0.054
984	0.054
984	0.054
985	0.054
985	0.053
986	0.052
986	0.051
987	0.049
987	0.048
987	0.047
988	0.046
988	0.045
989	0.044
989	0.044
990	0.043
990	0.043
990	0.044
991	0.044
991	0.045
992	0.045
992	0.046
992	0.046
993	0.046
993	0.046
994	0.046
994	0.046
995	0.045
995	0.045
995	0.045
996	0.045
996	0.044
997	0.044
997	0.044
997	0.044
998	0.045
998	0.045
999	0.046
999	0.047
1000	0.048
1000	0.049
1000	0.05
1001	0.051
1001	0.052
1002	0.052
1002	0.053
1003	0.053
1003	0.053
1003	0.053
1004	0.053
1004	0.052
1005	0.052
1005	0.051
1005	0.051
1006	0.05
1006	0.049
1007	0.049
1007	0.049
1008	0.048
1008	0.048
1008	0.048
1009	0.048
1009	0.048
1010	0.048
1010	0.048
1010	0.048
1011	0.048
1011	0.048
1012	0.048
1012	0.048
1013	0.048
1013	0.048
1013	0.048
1014	0.047
1014	0.046
1015	0.046
1015	0.045
1016	0.044
1016	0.043
1016	0.042
1017	0.041
1017	0.04
1018	0.039
1018	0.038
1018	0.038
1019	0.037
1019	0.037
1020	0.036
1020	0.036
1021	0.036
1021	0.035
1021	0.035
1022	0.035
1022	0.035
1023	0.035
1023	0.035
1023	0.034
1024	0.033
1024	0.033
1025	0.032
1025	0.031
1026	0.03
1026	0.03
1026	0.029
1027	0.028
1027	0.027
1028	0.027
1028	0.027
1028	0.027
1029	0.027
1029	0.027
1030	0.027
1030	0.028
1031	0.028
1031	0.029
1031	0.029
1032	0.03
1032	0.031
1033	0.031
1033	0.032
1033	0.032
1034	0.032
1034	0.031
1035	0.031
1035	0.031
1036	0.03
1036	0.03
1036	0.03
1037	0.029
1037	0.029
1038	0.029
1038	0.029
1039	0.029
1039	0.03
1039	0.03
1040	0.031
1040	0.031
1041	0.031
1041	0.031
1041	0.031
1042	0.03
1042	0.029
1043	0.029
1043	0.028
1044	0.027
1044	0.027
1044	0.026
1045	0.025
1045	0.025
1046	0.024
1046	0.024
1046	0.024
1047	0.024
1047	0.024
1048	0.024
1048	0.024
1049	0.024
1049	0.023
1049	0.022
1050	0.021
1050	0.02
1051	0.02
1051	0.019
1051	0.019
1052	0.019
1052	0.018
1053	0.017
1053	0.017
1053	0.017
1054	0.017
1054	0.017
1055	0.017
1055	0.017
1056	0.017
1056	0.017
1056	0.016
1057	0.015
1057	0.015
1058	0.015
1058	0.015
1058	0.015
1059	0.015
1059	0.015
1060	0.015
1060	0.014
1061	0.015
1061	0.015
1061	0.015
1062	0.015
1062	0.015
1063	0.015
1063	0.015
1063	0.014
1064	0.015
1064	0.015
1065	0.015
1065	0.015
1066	0.016
1066	0.016
1066	0.017
1067	0.017
1067	0.018
1068	0.018
1068	0.019
1068	0.019
1069	0.019
1069	0.019
1070	0.019
1070	0.019
1071	0.019
1071	0.02
1071	0.019
1072	0.019
1072	0.02
1073	0.02
1073	0.02
1073	0.019
1074	0.019
1074	0.019
1075	0.017
1075	0.017
1076	0.015
1076	0.015
1076	0.014
1077	0.012
1077	0.012
1078	0.011
1078	0.012
1078	0.012
1079	0.012
1079	0.013
1080	0.013
1080	0.014
1080	0.014
1081	0.015
1081	0.015
1082	0.015
1082	0.015
1083	0.015
1083	0.015
1083	0.015
1084	0.015
1084	0.015
1085	0.015
1085	0.016
1085	0.016
1086	0.016
1086	0.016
1087	0.017
1087	0.017
1088	0.018
1088	0.018
1088	0.018
1089	0.019
1089	0.019
1090	0.019
1090	0.02
1090	0.021
1091	0.021
1091	0.022
1092	0.023
1092	0.025
1092	0.026
1093	0.027
1093	0.029
1094	0.03
1094	0.03
1095	0.032
1095	0.033
1095	0.035
1096	0.036
1096	0.037
1097	0.04
1097	0.041
1097	0.042
1098	0.043
1098	0.045
1099	0.047
1099	0.049
1100	0.052
1100	0.053
1100	0.056
1101	0.059
1101	0.061
1102	0.065
1102	0.068
1102	0.074
1103	0.079
1103	0.085
1104	0.091
1104	0.096
1104	0.105
1105	0.112
1105	0.119
1106	0.125
1106	0.136
1107	0.143
1107	0.157
1107	0.174
1108	0.231
1108	0.31
1109	0.435
1109	0.675
1109	0.963
1110	-0
1110	-0
1111	-0
1111	-0
