Data from 2024-02-020100ns-20nr-25nacl-100h2o-7bp2-hysteresis-40to10-1cpm-1-5a-808_Absorbance__113__00358.txt Node

Date: Fri Feb 02 14:12:34 CET 2024
User: Marek
Spectrometer: MAYP115816
Trigger mode: 0
Integration Time (sec): 1.900000E-1
Scans to average: 10
Electric dark correction enabled: true
Nonlinearity correction enabled: true
Boxcar width: 5
XAxis mode: Wavelengths
Number of Pixels in Spectrum: 2068
>>>>>Begin Spectral Data<<<<<
199	-0.457
199	-0.425
200	-0.369
200	-0.317
201	-0.281
201	-0.257
202	-0.237
202	-0.232
203	-0.226
203	-0.222
204	-0.209
204	-0.192
205	-0.18
205	-0.172
205	-0.172
206	-0.173
206	-0.178
207	-0.175
207	-0.175
208	-0.175
208	-0.176
209	-0.174
209	-0.18
210	-0.181
210	-0.182
211	-0.186
211	-0.187
212	-0.189
212	-0.191
213	-0.193
213	-0.194
213	-0.198
214	-0.197
214	-0.196
215	-0.193
215	-0.199
216	-0.198
216	-0.198
217	-0.195
217	-0.199
218	-0.197
218	-0.194
219	-0.186
219	-0.185
220	-0.182
220	-0.186
221	-0.18
221	-0.178
221	-0.176
222	-0.172
222	-0.167
223	-0.163
223	-0.162
224	-0.164
224	-0.161
225	-0.156
225	-0.15
226	-0.145
226	-0.135
227	-0.125
227	-0.12
228	-0.108
228	-0.096
229	-0.08
229	-0.058
229	-0.037
230	-0.015
230	0.011
231	0.036
231	0.065
232	0.091
232	0.121
233	0.151
233	0.182
234	0.209
234	0.237
235	0.263
235	0.287
236	0.31
236	0.331
236	0.351
237	0.369
237	0.386
238	0.401
238	0.414
239	0.427
239	0.438
240	0.448
240	0.455
241	0.462
241	0.469
242	0.475
242	0.481
243	0.486
243	0.491
243	0.495
244	0.499
244	0.503
245	0.505
245	0.509
246	0.511
246	0.514
247	0.516
247	0.518
248	0.521
248	0.523
249	0.525
249	0.526
250	0.528
250	0.53
250	0.532
251	0.534
251	0.535
252	0.537
252	0.539
253	0.54
253	0.541
254	0.543
254	0.544
255	0.545
255	0.546
256	0.547
256	0.548
257	0.549
257	0.55
258	0.55
258	0.55
258	0.55
259	0.55
259	0.55
260	0.55
260	0.549
261	0.549
261	0.548
262	0.548
262	0.547
263	0.546
263	0.545
264	0.545
264	0.543
265	0.542
265	0.541
265	0.539
266	0.538
266	0.536
267	0.535
267	0.533
268	0.531
268	0.529
269	0.527
269	0.525
270	0.523
270	0.52
271	0.517
271	0.515
272	0.512
272	0.51
272	0.508
273	0.505
273	0.503
274	0.5
274	0.498
275	0.495
275	0.492
276	0.49
276	0.487
277	0.484
277	0.481
278	0.478
278	0.475
278	0.472
279	0.468
279	0.465
280	0.461
280	0.458
281	0.455
281	0.452
282	0.449
282	0.446
283	0.443
283	0.441
284	0.438
284	0.435
285	0.433
285	0.43
285	0.428
286	0.425
286	0.423
287	0.42
287	0.418
288	0.416
288	0.413
289	0.411
289	0.408
290	0.406
290	0.404
291	0.402
291	0.4
292	0.398
292	0.396
292	0.393
293	0.392
293	0.39
294	0.388
294	0.387
295	0.385
295	0.383
296	0.382
296	0.38
297	0.379
297	0.377
298	0.376
298	0.374
298	0.373
299	0.372
299	0.37
300	0.369
300	0.368
301	0.366
301	0.365
302	0.364
302	0.362
303	0.361
303	0.36
304	0.359
304	0.358
305	0.356
305	0.356
305	0.354
306	0.353
306	0.352
307	0.351
307	0.35
308	0.349
308	0.348
309	0.347
309	0.346
310	0.344
310	0.344
311	0.343
311	0.341
311	0.341
312	0.34
312	0.338
313	0.338
313	0.336
314	0.335
314	0.334
315	0.333
315	0.332
316	0.331
316	0.33
317	0.329
317	0.328
318	0.327
318	0.326
318	0.325
319	0.324
319	0.323
320	0.321
320	0.32
321	0.319
321	0.318
322	0.317
322	0.316
323	0.315
323	0.314
324	0.313
324	0.312
324	0.311
325	0.31
325	0.31
326	0.309
326	0.308
327	0.307
327	0.306
328	0.306
328	0.305
329	0.304
329	0.303
330	0.302
330	0.302
330	0.301
331	0.3
331	0.299
332	0.298
332	0.297
333	0.297
333	0.296
334	0.295
334	0.294
335	0.293
335	0.292
336	0.291
336	0.29
336	0.29
337	0.289
337	0.288
338	0.287
338	0.287
339	0.286
339	0.286
340	0.285
340	0.284
341	0.284
341	0.283
342	0.283
342	0.282
342	0.282
343	0.281
343	0.281
344	0.28
344	0.28
345	0.279
345	0.279
346	0.278
346	0.277
347	0.277
347	0.277
348	0.276
348	0.276
348	0.276
349	0.276
349	0.275
350	0.275
350	0.274
351	0.274
351	0.274
352	0.273
352	0.273
353	0.273
353	0.272
354	0.272
354	0.271
354	0.271
355	0.271
355	0.27
356	0.27
356	0.27
357	0.269
357	0.268
358	0.268
358	0.268
359	0.267
359	0.267
360	0.267
360	0.266
360	0.266
361	0.266
361	0.266
362	0.266
362	0.266
363	0.266
363	0.266
364	0.265
364	0.265
365	0.265
365	0.265
366	0.264
366	0.264
366	0.264
367	0.264
367	0.264
368	0.263
368	0.263
369	0.262
369	0.262
370	0.262
370	0.261
371	0.261
371	0.261
372	0.261
372	0.26
372	0.26
373	0.26
373	0.26
374	0.26
374	0.259
375	0.259
375	0.259
376	0.258
376	0.258
377	0.258
377	0.257
378	0.257
378	0.257
378	0.257
379	0.256
379	0.256
380	0.256
380	0.255
381	0.255
381	0.255
382	0.255
382	0.254
383	0.254
383	0.253
383	0.253
384	0.253
384	0.252
385	0.252
385	0.252
386	0.252
386	0.251
387	0.251
387	0.25
388	0.25
388	0.25
389	0.249
389	0.249
389	0.249
390	0.249
390	0.249
391	0.249
391	0.248
392	0.248
392	0.248
393	0.248
393	0.247
394	0.247
394	0.247
394	0.246
395	0.246
395	0.245
396	0.245
396	0.244
397	0.244
397	0.244
398	0.244
398	0.244
399	0.243
399	0.243
400	0.243
400	0.242
400	0.242
401	0.242
401	0.241
402	0.241
402	0.241
403	0.24
403	0.24
404	0.24
404	0.24
405	0.239
405	0.239
405	0.239
406	0.238
406	0.238
407	0.238
407	0.237
408	0.237
408	0.237
409	0.236
409	0.236
410	0.236
410	0.236
411	0.236
411	0.236
411	0.235
412	0.235
412	0.235
413	0.235
413	0.235
414	0.234
414	0.234
415	0.234
415	0.233
416	0.233
416	0.232
416	0.232
417	0.232
417	0.232
418	0.232
418	0.231
419	0.231
419	0.231
420	0.231
420	0.231
421	0.231
421	0.231
421	0.231
422	0.231
422	0.231
423	0.231
423	0.231
424	0.23
424	0.23
425	0.23
425	0.23
426	0.229
426	0.229
427	0.229
427	0.229
427	0.229
428	0.229
428	0.228
429	0.228
429	0.228
430	0.228
430	0.227
431	0.227
431	0.227
432	0.226
432	0.226
432	0.226
433	0.226
433	0.225
434	0.225
434	0.225
435	0.225
435	0.225
436	0.225
436	0.225
437	0.225
437	0.225
437	0.225
438	0.225
438	0.225
439	0.224
439	0.224
440	0.224
440	0.224
441	0.223
441	0.223
442	0.223
442	0.223
442	0.223
443	0.223
443	0.222
444	0.222
444	0.222
445	0.222
445	0.222
446	0.223
446	0.222
447	0.222
447	0.222
447	0.222
448	0.222
448	0.222
449	0.222
449	0.222
450	0.222
450	0.222
451	0.222
451	0.222
452	0.222
452	0.222
452	0.223
453	0.223
453	0.223
454	0.223
454	0.223
455	0.223
455	0.224
456	0.224
456	0.224
457	0.224
457	0.224
458	0.223
458	0.223
458	0.223
459	0.224
459	0.223
460	0.223
460	0.223
461	0.223
461	0.224
462	0.224
462	0.224
463	0.224
463	0.225
463	0.225
464	0.225
464	0.225
465	0.226
465	0.226
466	0.226
466	0.226
467	0.227
467	0.227
467	0.227
468	0.228
468	0.228
469	0.228
469	0.229
470	0.229
470	0.23
471	0.23
471	0.23
472	0.231
472	0.231
472	0.232
473	0.232
473	0.233
474	0.233
474	0.234
475	0.235
475	0.235
476	0.236
476	0.236
477	0.237
477	0.237
477	0.238
478	0.239
478	0.239
479	0.24
479	0.241
480	0.241
480	0.242
481	0.243
481	0.244
482	0.245
482	0.246
482	0.247
483	0.249
483	0.25
484	0.251
484	0.251
485	0.252
485	0.254
486	0.254
486	0.256
487	0.257
487	0.258
487	0.259
488	0.26
488	0.261
489	0.263
489	0.265
490	0.266
490	0.268
491	0.27
491	0.271
492	0.273
492	0.274
492	0.276
493	0.278
493	0.28
494	0.282
494	0.285
495	0.286
495	0.288
496	0.29
496	0.292
496	0.294
497	0.296
497	0.297
498	0.299
498	0.3
499	0.302
499	0.304
500	0.306
500	0.309
501	0.311
501	0.312
501	0.315
502	0.317
502	0.319
503	0.322
503	0.324
504	0.326
504	0.328
505	0.331
505	0.333
506	0.336
506	0.338
506	0.34
507	0.342
507	0.344
508	0.346
508	0.348
509	0.35
509	0.352
510	0.354
510	0.356
511	0.357
511	0.359
511	0.361
512	0.362
512	0.364
513	0.365
513	0.367
514	0.368
514	0.37
515	0.371
515	0.372
515	0.373
516	0.374
516	0.375
517	0.377
517	0.377
518	0.378
518	0.379
519	0.38
519	0.38
520	0.381
520	0.381
520	0.382
521	0.382
521	0.382
522	0.382
522	0.382
523	0.382
523	0.382
524	0.382
524	0.382
524	0.382
525	0.381
525	0.381
526	0.38
526	0.38
527	0.379
527	0.378
528	0.378
528	0.377
529	0.376
529	0.375
529	0.374
530	0.373
530	0.371
531	0.37
531	0.369
532	0.367
532	0.366
533	0.365
533	0.363
533	0.362
534	0.36
534	0.359
535	0.357
535	0.356
536	0.354
536	0.352
537	0.349
537	0.347
538	0.345
538	0.342
538	0.34
539	0.337
539	0.335
540	0.332
540	0.33
541	0.327
541	0.324
542	0.321
542	0.319
542	0.316
543	0.313
543	0.31
544	0.308
544	0.305
545	0.303
545	0.3
546	0.297
546	0.294
547	0.291
547	0.288
547	0.285
548	0.283
548	0.28
549	0.277
549	0.274
550	0.271
550	0.268
551	0.265
551	0.261
551	0.259
552	0.256
552	0.254
553	0.251
553	0.248
554	0.245
554	0.242
555	0.239
555	0.236
556	0.233
556	0.229
556	0.226
557	0.223
557	0.221
558	0.218
558	0.215
559	0.212
559	0.209
560	0.207
560	0.204
560	0.202
561	0.2
561	0.198
562	0.195
562	0.192
563	0.189
563	0.186
564	0.183
564	0.18
564	0.177
565	0.175
565	0.172
566	0.169
566	0.166
567	0.163
567	0.161
568	0.159
568	0.157
568	0.155
569	0.153
569	0.151
570	0.149
570	0.147
571	0.145
571	0.144
572	0.142
572	0.14
573	0.138
573	0.136
573	0.134
574	0.133
574	0.132
575	0.13
575	0.13
576	0.128
576	0.125
577	0.123
577	0.122
577	0.121
578	0.12
578	0.119
579	0.119
579	0.118
580	0.115
580	0.112
581	0.11
581	0.109
581	0.108
582	0.108
582	0.107
583	0.106
583	0.104
584	0.101
584	0.098
585	0.098
585	0.098
585	0.097
586	0.096
586	0.095
587	0.094
587	0.092
588	0.091
588	0.09
589	0.089
589	0.089
590	0.089
590	0.088
590	0.089
591	0.089
591	0.088
592	0.087
592	0.086
593	0.085
593	0.085
594	0.084
594	0.083
594	0.082
595	0.082
595	0.081
596	0.08
596	0.081
597	0.082
597	0.082
598	0.082
598	0.082
598	0.082
599	0.081
599	0.08
600	0.079
600	0.078
601	0.078
601	0.077
602	0.075
602	0.075
602	0.075
603	0.075
603	0.076
604	0.076
604	0.077
605	0.078
605	0.079
606	0.079
606	0.078
606	0.078
607	0.077
607	0.077
608	0.076
608	0.074
609	0.074
609	0.073
610	0.072
610	0.071
610	0.072
611	0.073
611	0.074
612	0.075
612	0.077
613	0.078
613	0.079
614	0.079
614	0.079
614	0.079
615	0.079
615	0.079
616	0.078
616	0.078
617	0.078
617	0.077
618	0.077
618	0.077
618	0.078
619	0.079
619	0.081
620	0.082
620	0.083
621	0.083
621	0.084
622	0.084
622	0.085
622	0.085
623	0.085
623	0.086
624	0.086
624	0.086
625	0.086
625	0.087
626	0.087
626	0.088
626	0.089
627	0.09
627	0.091
628	0.093
628	0.093
629	0.094
629	0.095
630	0.096
630	0.097
630	0.098
631	0.099
631	0.1
632	0.101
632	0.102
633	0.104
633	0.105
634	0.107
634	0.109
634	0.111
635	0.113
635	0.115
636	0.117
636	0.119
637	0.12
637	0.122
638	0.124
638	0.125
638	0.127
639	0.128
639	0.13
640	0.132
640	0.133
641	0.135
641	0.137
642	0.14
642	0.142
642	0.145
643	0.148
643	0.15
644	0.153
644	0.156
645	0.159
645	0.163
646	0.166
646	0.169
646	0.172
647	0.176
647	0.178
648	0.18
648	0.182
649	0.185
649	0.187
650	0.19
650	0.192
650	0.194
651	0.197
651	0.2
652	0.203
652	0.206
653	0.21
653	0.218
653	0.219
654	0.171
654	0.136
655	0.14
655	0.142
656	0.144
656	0.146
657	0.148
657	0.15
657	0.151
658	0.149
658	0.144
659	0.188
659	0.252
660	0.259
660	0.262
661	0.265
661	0.269
661	0.272
662	0.276
662	0.28
663	0.284
663	0.287
664	0.29
664	0.294
665	0.297
665	0.3
665	0.304
666	0.307
666	0.31
667	0.313
667	0.317
668	0.32
668	0.323
669	0.326
669	0.33
669	0.334
670	0.338
670	0.34
671	0.343
671	0.345
672	0.347
672	0.35
672	0.352
673	0.355
673	0.358
674	0.361
674	0.363
675	0.365
675	0.368
676	0.372
676	0.374
676	0.376
677	0.379
677	0.381
678	0.382
678	0.383
679	0.384
679	0.385
680	0.386
680	0.386
680	0.387
681	0.388
681	0.389
682	0.39
682	0.392
683	0.394
683	0.396
684	0.398
684	0.399
684	0.4
685	0.401
685	0.402
686	0.403
686	0.403
687	0.403
687	0.403
687	0.402
688	0.401
688	0.4
689	0.4
689	0.399
690	0.398
690	0.397
691	0.396
691	0.395
691	0.393
692	0.392
692	0.39
693	0.389
693	0.387
694	0.384
694	0.382
695	0.381
695	0.38
695	0.378
696	0.376
696	0.374
697	0.372
697	0.37
698	0.368
698	0.366
698	0.364
699	0.362
699	0.36
700	0.356
700	0.354
701	0.352
701	0.349
702	0.346
702	0.344
702	0.341
703	0.339
703	0.336
704	0.334
704	0.332
705	0.33
705	0.328
705	0.326
706	0.324
706	0.323
707	0.32
707	0.318
708	0.315
708	0.313
709	0.31
709	0.307
709	0.303
710	0.3
710	0.297
711	0.294
711	0.291
712	0.288
712	0.285
713	0.282
713	0.279
713	0.275
714	0.272
714	0.269
715	0.266
715	0.263
716	0.259
716	0.256
716	0.252
717	0.249
717	0.246
718	0.243
718	0.239
719	0.236
719	0.233
720	0.23
720	0.227
720	0.223
721	0.22
721	0.217
722	0.215
722	0.212
723	0.21
723	0.209
723	0.207
724	0.205
724	0.203
725	0.201
725	0.199
726	0.198
726	0.196
727	0.194
727	0.192
727	0.19
728	0.187
728	0.185
729	0.184
729	0.182
730	0.179
730	0.177
730	0.174
731	0.172
731	0.17
732	0.167
732	0.165
733	0.162
733	0.16
734	0.157
734	0.154
734	0.152
735	0.15
735	0.148
736	0.146
736	0.144
737	0.143
737	0.142
737	0.14
738	0.138
738	0.136
739	0.134
739	0.133
740	0.131
740	0.13
741	0.129
741	0.126
741	0.124
742	0.121
742	0.119
743	0.118
743	0.116
744	0.114
744	0.113
744	0.111
745	0.109
745	0.107
746	0.106
746	0.104
747	0.103
747	0.101
748	0.1
748	0.098
748	0.096
749	0.094
749	0.093
750	0.091
750	0.089
751	0.088
751	0.086
751	0.085
752	0.084
752	0.082
753	0.08
753	0.079
754	0.078
754	0.077
754	0.076
755	0.075
755	0.075
756	0.073
756	0.071
757	0.069
757	0.068
758	0.067
758	0.066
758	0.065
759	0.063
759	0.061
760	0.06
760	0.058
761	0.057
761	0.057
761	0.056
762	0.055
762	0.054
763	0.054
763	0.052
764	0.051
764	0.049
764	0.048
765	0.047
765	0.046
766	0.045
766	0.045
767	0.044
767	0.042
768	0.039
768	0.038
768	0.037
769	0.036
769	0.035
770	0.033
770	0.031
771	0.029
771	0.026
771	0.024
772	0.022
772	0.021
773	0.02
773	0.018
774	0.016
774	0.014
775	0.013
775	0.011
775	0.01
776	0.008
776	0.007
777	0.005
777	0.003
778	0.001
778	-0
778	-0.002
779	-0.002
779	-0.003
780	-0.004
780	-0.006
781	-0.007
781	-0.008
781	-0.01
782	-0.011
782	-0.012
783	-0.013
783	-0.014
784	-0.016
784	-0.017
784	-0.018
785	-0.02
785	-0.022
786	-0.023
786	-0.024
787	-0.025
787	-0.026
788	-0.029
788	-0.032
788	-0.035
789	-0.038
789	-0.041
790	-0.043
790	-0.046
791	-0.05
791	-0.054
791	-0.058
792	-0.059
792	-0.058
793	-0.061
793	-0.064
794	-0.067
794	-0.072
794	-0.078
795	-0.083
795	-0.088
796	-0.094
796	-0.101
797	-0.11
797	-0.122
797	-0.13
798	-0.138
798	-0.144
799	-0.15
799	-0.155
800	-0.159
800	-0.163
801	-0.168
801	-0.17
801	-0.171
802	-0.173
802	-0.174
803	-0.174
803	-0.174
804	-0.173
804	-0.167
804	-0.16
805	-0.156
805	-0.153
806	-0.151
806	-0.149
807	-0.148
807	-0.147
807	-0.145
808	-0.142
808	-0.14
809	-0.141
809	-0.142
810	-0.141
810	-0.137
810	-0.133
811	-0.128
811	-0.12
812	-0.112
812	-0.104
813	-0.098
813	-0.091
813	-0.086
814	-0.08
814	-0.074
815	-0.068
815	-0.063
816	-0.058
816	-0.055
817	-0.052
817	-0.049
817	-0.045
818	-0.042
818	-0.038
819	-0.035
819	-0.033
820	-0.031
820	-0.029
820	-0.027
821	-0.025
821	-0.023
822	-0.021
822	-0.02
823	-0.018
823	-0.018
823	-0.018
824	-0.017
824	-0.016
825	-0.015
825	-0.014
826	-0.014
826	-0.014
826	-0.014
827	-0.014
827	-0.014
828	-0.015
828	-0.015
829	-0.015
829	-0.015
829	-0.015
830	-0.016
830	-0.016
831	-0.015
831	-0.015
832	-0.015
832	-0.015
832	-0.014
833	-0.014
833	-0.013
834	-0.012
834	-0.012
835	-0.011
835	-0.01
835	-0.01
836	-0.01
836	-0.009
837	-0.008
837	-0.008
838	-0.008
838	-0.007
839	-0.007
839	-0.008
839	-0.009
840	-0.01
840	-0.01
841	-0.011
841	-0.012
842	-0.012
842	-0.013
842	-0.014
843	-0.014
843	-0.015
844	-0.015
844	-0.014
845	-0.014
845	-0.014
845	-0.014
846	-0.013
846	-0.013
847	-0.013
847	-0.013
848	-0.012
848	-0.012
848	-0.012
849	-0.012
849	-0.012
850	-0.011
850	-0.012
851	-0.011
851	-0.011
851	-0.011
852	-0.012
852	-0.012
853	-0.013
853	-0.013
854	-0.013
854	-0.013
854	-0.014
855	-0.014
855	-0.014
856	-0.015
856	-0.016
857	-0.016
857	-0.017
857	-0.018
858	-0.018
858	-0.019
859	-0.02
859	-0.02
860	-0.021
860	-0.021
860	-0.021
861	-0.022
861	-0.022
862	-0.022
862	-0.023
863	-0.023
863	-0.022
863	-0.022
864	-0.021
864	-0.021
865	-0.02
865	-0.019
866	-0.018
866	-0.017
866	-0.015
867	-0.015
867	-0.014
868	-0.014
868	-0.014
869	-0.015
869	-0.015
869	-0.016
870	-0.017
870	-0.018
871	-0.019
871	-0.019
872	-0.02
872	-0.021
872	-0.022
873	-0.022
873	-0.023
874	-0.024
874	-0.024
875	-0.025
875	-0.026
875	-0.027
876	-0.027
876	-0.028
877	-0.029
877	-0.029
878	-0.03
878	-0.03
878	-0.03
879	-0.03
879	-0.031
880	-0.031
880	-0.031
881	-0.031
881	-0.031
881	-0.03
882	-0.03
882	-0.029
883	-0.029
883	-0.029
884	-0.028
884	-0.028
884	-0.028
885	-0.027
885	-0.027
886	-0.027
886	-0.026
887	-0.026
887	-0.026
887	-0.025
888	-0.025
888	-0.024
889	-0.024
889	-0.023
890	-0.022
890	-0.021
890	-0.02
891	-0.02
891	-0.019
892	-0.018
892	-0.017
893	-0.017
893	-0.016
893	-0.015
894	-0.014
894	-0.014
895	-0.014
895	-0.013
895	-0.013
896	-0.014
896	-0.014
897	-0.014
897	-0.014
898	-0.015
898	-0.015
898	-0.016
899	-0.017
899	-0.017
900	-0.018
900	-0.019
901	-0.019
901	-0.02
901	-0.021
902	-0.021
902	-0.022
903	-0.022
903	-0.023
904	-0.024
904	-0.024
904	-0.025
905	-0.025
905	-0.025
906	-0.025
906	-0.025
907	-0.025
907	-0.024
907	-0.024
908	-0.024
908	-0.023
909	-0.022
909	-0.021
910	-0.021
910	-0.02
910	-0.019
911	-0.019
911	-0.018
912	-0.018
912	-0.017
913	-0.016
913	-0.015
913	-0.014
914	-0.014
914	-0.013
915	-0.012
915	-0.012
916	-0.012
916	-0.012
916	-0.012
917	-0.012
917	-0.013
918	-0.013
918	-0.014
918	-0.014
919	-0.014
919	-0.014
920	-0.014
920	-0.014
921	-0.014
921	-0.015
921	-0.015
922	-0.016
922	-0.016
923	-0.017
923	-0.018
924	-0.018
924	-0.019
924	-0.02
925	-0.02
925	-0.021
926	-0.021
926	-0.021
927	-0.021
927	-0.021
927	-0.021
928	-0.021
928	-0.021
929	-0.021
929	-0.022
930	-0.022
930	-0.022
930	-0.022
931	-0.022
931	-0.022
932	-0.021
932	-0.021
933	-0.021
933	-0.02
933	-0.02
934	-0.02
934	-0.02
935	-0.02
935	-0.021
935	-0.021
936	-0.021
936	-0.022
937	-0.022
937	-0.023
938	-0.023
938	-0.024
938	-0.024
939	-0.025
939	-0.025
940	-0.026
940	-0.026
941	-0.026
941	-0.025
941	-0.025
942	-0.025
942	-0.026
943	-0.026
943	-0.026
944	-0.025
944	-0.025
944	-0.025
945	-0.025
945	-0.025
946	-0.025
946	-0.025
946	-0.025
947	-0.024
947	-0.024
948	-0.024
948	-0.023
949	-0.023
949	-0.023
949	-0.023
950	-0.022
950	-0.022
951	-0.021
951	-0.021
952	-0.021
952	-0.021
952	-0.021
953	-0.021
953	-0.02
954	-0.02
954	-0.02
955	-0.02
955	-0.02
955	-0.019
956	-0.019
956	-0.018
957	-0.018
957	-0.018
957	-0.018
958	-0.018
958	-0.018
959	-0.018
959	-0.018
960	-0.019
960	-0.02
960	-0.02
961	-0.021
961	-0.022
962	-0.022
962	-0.022
963	-0.022
963	-0.022
963	-0.022
964	-0.022
964	-0.022
965	-0.022
965	-0.022
966	-0.023
966	-0.023
966	-0.023
967	-0.024
967	-0.025
968	-0.026
968	-0.027
968	-0.028
969	-0.028
969	-0.029
970	-0.029
970	-0.03
971	-0.03
971	-0.03
971	-0.03
972	-0.029
972	-0.028
973	-0.028
973	-0.027
974	-0.026
974	-0.026
974	-0.025
975	-0.024
975	-0.023
976	-0.022
976	-0.022
976	-0.021
977	-0.021
977	-0.021
978	-0.021
978	-0.021
979	-0.021
979	-0.021
979	-0.021
980	-0.021
980	-0.021
981	-0.021
981	-0.02
982	-0.02
982	-0.019
982	-0.019
983	-0.018
983	-0.017
984	-0.017
984	-0.016
984	-0.016
985	-0.017
985	-0.017
986	-0.018
986	-0.018
987	-0.019
987	-0.02
987	-0.021
988	-0.021
988	-0.022
989	-0.023
989	-0.024
990	-0.024
990	-0.025
990	-0.025
991	-0.025
991	-0.025
992	-0.026
992	-0.026
992	-0.027
993	-0.028
993	-0.028
994	-0.029
994	-0.03
995	-0.03
995	-0.031
995	-0.031
996	-0.032
996	-0.032
997	-0.033
997	-0.033
997	-0.032
998	-0.032
998	-0.032
999	-0.031
999	-0.03
1000	-0.03
1000	-0.029
1000	-0.029
1001	-0.028
1001	-0.028
1002	-0.027
1002	-0.027
1003	-0.027
1003	-0.027
1003	-0.027
1004	-0.027
1004	-0.027
1005	-0.028
1005	-0.028
1005	-0.028
1006	-0.028
1006	-0.028
1007	-0.028
1007	-0.028
1008	-0.027
1008	-0.027
1008	-0.026
1009	-0.026
1009	-0.025
1010	-0.025
1010	-0.024
1010	-0.024
1011	-0.024
1011	-0.024
1012	-0.024
1012	-0.024
1013	-0.024
1013	-0.025
1013	-0.026
1014	-0.026
1014	-0.027
1015	-0.028
1015	-0.028
1016	-0.029
1016	-0.03
1016	-0.03
1017	-0.031
1017	-0.031
1018	-0.031
1018	-0.031
1018	-0.031
1019	-0.031
1019	-0.032
1020	-0.032
1020	-0.033
1021	-0.033
1021	-0.033
1021	-0.034
1022	-0.034
1022	-0.034
1023	-0.034
1023	-0.035
1023	-0.035
1024	-0.035
1024	-0.035
1025	-0.036
1025	-0.036
1026	-0.036
1026	-0.036
1026	-0.036
1027	-0.036
1027	-0.036
1028	-0.036
1028	-0.036
1028	-0.035
1029	-0.035
1029	-0.035
1030	-0.035
1030	-0.034
1031	-0.034
1031	-0.033
1031	-0.033
1032	-0.032
1032	-0.032
1033	-0.032
1033	-0.032
1033	-0.032
1034	-0.032
1034	-0.032
1035	-0.032
1035	-0.032
1036	-0.033
1036	-0.033
1036	-0.034
1037	-0.034
1037	-0.034
1038	-0.034
1038	-0.034
1039	-0.034
1039	-0.034
1039	-0.034
1040	-0.033
1040	-0.033
1041	-0.034
1041	-0.034
1041	-0.034
1042	-0.035
1042	-0.036
1043	-0.036
1043	-0.037
1044	-0.037
1044	-0.038
1044	-0.038
1045	-0.039
1045	-0.039
1046	-0.039
1046	-0.039
1046	-0.039
1047	-0.038
1047	-0.038
1048	-0.038
1048	-0.038
1049	-0.038
1049	-0.038
1049	-0.038
1050	-0.038
1050	-0.038
1051	-0.038
1051	-0.039
1051	-0.039
1052	-0.04
1052	-0.04
1053	-0.041
1053	-0.041
1053	-0.042
1054	-0.043
1054	-0.043
1055	-0.043
1055	-0.044
1056	-0.044
1056	-0.045
1056	-0.046
1057	-0.047
1057	-0.047
1058	-0.048
1058	-0.049
1058	-0.049
1059	-0.05
1059	-0.051
1060	-0.051
1060	-0.052
1061	-0.052
1061	-0.051
1061	-0.051
1062	-0.052
1062	-0.052
1063	-0.052
1063	-0.053
1063	-0.053
1064	-0.054
1064	-0.054
1065	-0.054
1065	-0.054
1066	-0.054
1066	-0.054
1066	-0.054
1067	-0.053
1067	-0.053
1068	-0.052
1068	-0.052
1068	-0.051
1069	-0.05
1069	-0.05
1070	-0.05
1070	-0.049
1071	-0.049
1071	-0.049
1071	-0.049
1072	-0.049
1072	-0.049
1073	-0.048
1073	-0.048
1073	-0.049
1074	-0.049
1074	-0.049
1075	-0.049
1075	-0.05
1076	-0.05
1076	-0.051
1076	-0.052
1077	-0.052
1077	-0.052
1078	-0.053
1078	-0.053
1078	-0.053
1079	-0.053
1079	-0.053
1080	-0.053
1080	-0.052
1080	-0.052
1081	-0.052
1081	-0.052
1082	-0.052
1082	-0.052
1083	-0.053
1083	-0.054
1083	-0.055
1084	-0.055
1084	-0.056
1085	-0.057
1085	-0.057
1085	-0.058
1086	-0.058
1086	-0.059
1087	-0.06
1087	-0.06
1088	-0.061
1088	-0.061
1088	-0.062
1089	-0.063
1089	-0.064
1090	-0.065
1090	-0.065
1090	-0.066
1091	-0.067
1091	-0.067
1092	-0.068
1092	-0.067
1092	-0.068
1093	-0.068
1093	-0.069
1094	-0.069
1094	-0.07
1095	-0.071
1095	-0.071
1095	-0.07
1096	-0.071
1096	-0.072
1097	-0.072
1097	-0.073
1097	-0.074
1098	-0.074
1098	-0.075
1099	-0.076
1099	-0.077
1100	-0.078
1100	-0.08
1100	-0.081
1101	-0.083
1101	-0.084
1102	-0.085
1102	-0.087
1102	-0.088
1103	-0.089
1103	-0.089
1104	-0.09
1104	-0.092
1104	-0.092
1105	-0.093
1105	-0.094
1106	-0.097
1106	-0.098
1107	-0.1
1107	-0.101
1107	-0.104
1108	-0.104
1108	-0.106
1109	-0.107
1109	-0.11
1109	-0.112
1110	-0.112
1110	-0.112
1111	-0.115
1111	-0.116
