Data from 2024-02-020100ns-20nr-25nacl-100h2o-7bp2-hysteresis-40to10-1cpm-1-5a-808_Absorbance__77__00322.txt Node

Date: Fri Feb 02 13:54:35 CET 2024
User: Marek
Spectrometer: MAYP115816
Trigger mode: 0
Integration Time (sec): 1.900000E-1
Scans to average: 10
Electric dark correction enabled: true
Nonlinearity correction enabled: true
Boxcar width: 5
XAxis mode: Wavelengths
Number of Pixels in Spectrum: 2068
>>>>>Begin Spectral Data<<<<<
199	-0.447
199	-0.418
200	-0.364
200	-0.311
201	-0.276
201	-0.253
202	-0.235
202	-0.228
203	-0.221
203	-0.216
204	-0.204
204	-0.189
205	-0.178
205	-0.172
205	-0.173
206	-0.175
206	-0.179
207	-0.176
207	-0.177
208	-0.177
208	-0.18
209	-0.178
209	-0.184
210	-0.183
210	-0.184
211	-0.186
211	-0.187
212	-0.19
212	-0.191
213	-0.194
213	-0.192
213	-0.194
214	-0.191
214	-0.189
215	-0.188
215	-0.194
216	-0.195
216	-0.198
217	-0.196
217	-0.2
218	-0.199
218	-0.2
219	-0.195
219	-0.197
220	-0.196
220	-0.201
221	-0.196
221	-0.195
221	-0.19
222	-0.187
222	-0.182
223	-0.179
223	-0.179
224	-0.182
224	-0.179
225	-0.174
225	-0.168
226	-0.164
226	-0.153
227	-0.148
227	-0.142
228	-0.132
228	-0.122
229	-0.108
229	-0.089
229	-0.071
230	-0.053
230	-0.032
231	-0.012
231	0.01
232	0.03
232	0.051
233	0.073
233	0.095
234	0.113
234	0.133
235	0.151
235	0.165
236	0.18
236	0.194
236	0.206
237	0.217
237	0.228
238	0.237
238	0.245
239	0.253
239	0.257
240	0.263
240	0.267
241	0.272
241	0.275
242	0.279
242	0.282
243	0.285
243	0.288
243	0.29
244	0.293
244	0.295
245	0.297
245	0.298
246	0.301
246	0.303
247	0.304
247	0.306
248	0.308
248	0.309
249	0.311
249	0.312
250	0.314
250	0.316
250	0.318
251	0.319
251	0.32
252	0.322
252	0.323
253	0.325
253	0.326
254	0.327
254	0.328
255	0.329
255	0.33
256	0.332
256	0.332
257	0.333
257	0.334
258	0.335
258	0.335
258	0.336
259	0.336
259	0.337
260	0.337
260	0.337
261	0.337
261	0.337
262	0.337
262	0.337
263	0.337
263	0.336
264	0.336
264	0.335
265	0.334
265	0.333
265	0.333
266	0.332
266	0.331
267	0.331
267	0.33
268	0.328
268	0.327
269	0.326
269	0.325
270	0.324
270	0.323
271	0.321
271	0.32
272	0.318
272	0.316
272	0.315
273	0.313
273	0.312
274	0.31
274	0.309
275	0.307
275	0.305
276	0.304
276	0.302
277	0.301
277	0.299
278	0.297
278	0.296
278	0.294
279	0.292
279	0.29
280	0.288
280	0.286
281	0.284
281	0.282
282	0.281
282	0.279
283	0.278
283	0.276
284	0.275
284	0.273
285	0.272
285	0.27
285	0.269
286	0.267
286	0.266
287	0.265
287	0.263
288	0.262
288	0.26
289	0.259
289	0.258
290	0.257
290	0.255
291	0.254
291	0.253
292	0.252
292	0.251
292	0.25
293	0.249
293	0.248
294	0.248
294	0.247
295	0.247
295	0.246
296	0.245
296	0.245
297	0.244
297	0.244
298	0.243
298	0.242
298	0.242
299	0.241
299	0.241
300	0.241
300	0.24
301	0.24
301	0.239
302	0.239
302	0.238
303	0.238
303	0.238
304	0.237
304	0.237
305	0.237
305	0.236
305	0.236
306	0.235
306	0.235
307	0.235
307	0.235
308	0.234
308	0.234
309	0.234
309	0.233
310	0.233
310	0.232
311	0.232
311	0.232
311	0.231
312	0.231
312	0.231
313	0.23
313	0.23
314	0.229
314	0.229
315	0.229
315	0.228
316	0.228
316	0.227
317	0.227
317	0.226
318	0.226
318	0.225
318	0.225
319	0.225
319	0.224
320	0.224
320	0.224
321	0.223
321	0.223
322	0.222
322	0.222
323	0.221
323	0.221
324	0.22
324	0.22
324	0.22
325	0.219
325	0.219
326	0.218
326	0.218
327	0.217
327	0.217
328	0.217
328	0.216
329	0.216
329	0.215
330	0.215
330	0.215
330	0.214
331	0.214
331	0.213
332	0.213
332	0.212
333	0.212
333	0.212
334	0.211
334	0.211
335	0.21
335	0.21
336	0.209
336	0.209
336	0.208
337	0.208
337	0.207
338	0.207
338	0.206
339	0.206
339	0.205
340	0.205
340	0.205
341	0.204
341	0.204
342	0.204
342	0.203
342	0.203
343	0.203
343	0.202
344	0.202
344	0.202
345	0.202
345	0.201
346	0.201
346	0.201
347	0.201
347	0.2
348	0.2
348	0.2
348	0.2
349	0.199
349	0.199
350	0.199
350	0.199
351	0.198
351	0.198
352	0.198
352	0.198
353	0.197
353	0.197
354	0.197
354	0.197
354	0.196
355	0.196
355	0.196
356	0.196
356	0.195
357	0.195
357	0.195
358	0.195
358	0.194
359	0.194
359	0.194
360	0.194
360	0.194
360	0.194
361	0.194
361	0.194
362	0.194
362	0.194
363	0.194
363	0.194
364	0.194
364	0.194
365	0.194
365	0.193
366	0.193
366	0.193
366	0.193
367	0.193
367	0.193
368	0.193
368	0.193
369	0.193
369	0.193
370	0.193
370	0.193
371	0.193
371	0.193
372	0.193
372	0.192
372	0.192
373	0.192
373	0.192
374	0.192
374	0.192
375	0.192
375	0.191
376	0.191
376	0.191
377	0.191
377	0.191
378	0.191
378	0.192
378	0.192
379	0.192
379	0.192
380	0.192
380	0.192
381	0.192
381	0.192
382	0.192
382	0.192
383	0.192
383	0.191
383	0.191
384	0.191
384	0.191
385	0.19
385	0.19
386	0.19
386	0.19
387	0.19
387	0.19
388	0.189
388	0.189
389	0.189
389	0.189
389	0.189
390	0.189
390	0.189
391	0.189
391	0.189
392	0.189
392	0.189
393	0.189
393	0.189
394	0.189
394	0.189
394	0.189
395	0.189
395	0.188
396	0.188
396	0.188
397	0.188
397	0.188
398	0.188
398	0.187
399	0.187
399	0.187
400	0.187
400	0.187
400	0.186
401	0.186
401	0.186
402	0.186
402	0.186
403	0.186
403	0.186
404	0.186
404	0.186
405	0.186
405	0.186
405	0.186
406	0.186
406	0.186
407	0.185
407	0.185
408	0.185
408	0.184
409	0.184
409	0.184
410	0.184
410	0.184
411	0.183
411	0.183
411	0.183
412	0.183
412	0.183
413	0.183
413	0.183
414	0.182
414	0.182
415	0.182
415	0.182
416	0.182
416	0.182
416	0.182
417	0.182
417	0.182
418	0.182
418	0.182
419	0.182
419	0.182
420	0.182
420	0.182
421	0.182
421	0.182
421	0.181
422	0.181
422	0.181
423	0.181
423	0.181
424	0.18
424	0.18
425	0.18
425	0.18
426	0.18
426	0.18
427	0.18
427	0.179
427	0.179
428	0.179
428	0.179
429	0.179
429	0.179
430	0.179
430	0.178
431	0.178
431	0.178
432	0.178
432	0.177
432	0.177
433	0.177
433	0.177
434	0.176
434	0.177
435	0.177
435	0.177
436	0.177
436	0.177
437	0.177
437	0.176
437	0.176
438	0.176
438	0.176
439	0.175
439	0.175
440	0.174
440	0.174
441	0.174
441	0.173
442	0.173
442	0.173
442	0.173
443	0.173
443	0.173
444	0.173
444	0.172
445	0.172
445	0.173
446	0.173
446	0.172
447	0.172
447	0.172
447	0.172
448	0.172
448	0.172
449	0.172
449	0.172
450	0.172
450	0.171
451	0.171
451	0.171
452	0.171
452	0.171
452	0.171
453	0.171
453	0.171
454	0.171
454	0.171
455	0.171
455	0.171
456	0.171
456	0.171
457	0.17
457	0.17
458	0.17
458	0.169
458	0.169
459	0.169
459	0.169
460	0.169
460	0.169
461	0.168
461	0.168
462	0.168
462	0.168
463	0.169
463	0.169
463	0.169
464	0.169
464	0.169
465	0.169
465	0.168
466	0.168
466	0.168
467	0.168
467	0.168
467	0.168
468	0.168
468	0.167
469	0.167
469	0.167
470	0.168
470	0.168
471	0.168
471	0.167
472	0.167
472	0.168
472	0.167
473	0.167
473	0.168
474	0.168
474	0.168
475	0.168
475	0.168
476	0.168
476	0.168
477	0.168
477	0.168
477	0.168
478	0.168
478	0.168
479	0.168
479	0.168
480	0.168
480	0.168
481	0.168
481	0.168
482	0.169
482	0.169
482	0.17
483	0.17
483	0.171
484	0.171
484	0.171
485	0.171
485	0.171
486	0.171
486	0.172
487	0.172
487	0.172
487	0.173
488	0.173
488	0.173
489	0.173
489	0.175
490	0.175
490	0.175
491	0.176
491	0.176
492	0.177
492	0.177
492	0.178
493	0.178
493	0.18
494	0.181
494	0.182
495	0.183
495	0.183
496	0.185
496	0.186
496	0.186
497	0.187
497	0.188
498	0.188
498	0.188
499	0.189
499	0.189
500	0.19
500	0.191
501	0.192
501	0.192
501	0.193
502	0.194
502	0.195
503	0.196
503	0.197
504	0.198
504	0.199
505	0.2
505	0.201
506	0.202
506	0.203
506	0.204
507	0.205
507	0.206
508	0.206
508	0.207
509	0.208
509	0.209
510	0.21
510	0.211
511	0.212
511	0.213
511	0.214
512	0.215
512	0.216
513	0.216
513	0.217
514	0.218
514	0.219
515	0.22
515	0.22
515	0.22
516	0.221
516	0.222
517	0.223
517	0.224
518	0.224
518	0.225
519	0.226
519	0.226
520	0.226
520	0.227
520	0.228
521	0.228
521	0.228
522	0.228
522	0.229
523	0.23
523	0.23
524	0.231
524	0.231
524	0.232
525	0.233
525	0.233
526	0.234
526	0.234
527	0.235
527	0.235
528	0.235
528	0.236
529	0.236
529	0.237
529	0.237
530	0.237
530	0.237
531	0.237
531	0.238
532	0.238
532	0.239
533	0.239
533	0.24
533	0.241
534	0.241
534	0.242
535	0.243
535	0.244
536	0.244
536	0.245
537	0.245
537	0.246
538	0.246
538	0.246
538	0.246
539	0.247
539	0.247
540	0.247
540	0.247
541	0.247
541	0.248
542	0.248
542	0.248
542	0.249
543	0.249
543	0.249
544	0.25
544	0.25
545	0.251
545	0.252
546	0.252
546	0.252
547	0.252
547	0.252
547	0.252
548	0.253
548	0.253
549	0.254
549	0.254
550	0.254
550	0.254
551	0.255
551	0.255
551	0.256
552	0.257
552	0.258
553	0.258
553	0.259
554	0.259
554	0.259
555	0.258
555	0.258
556	0.258
556	0.258
556	0.257
557	0.258
557	0.258
558	0.258
558	0.258
559	0.259
559	0.259
560	0.259
560	0.26
560	0.26
561	0.261
561	0.261
562	0.261
562	0.261
563	0.26
563	0.26
564	0.26
564	0.259
564	0.259
565	0.259
565	0.258
566	0.258
566	0.257
567	0.257
567	0.257
568	0.257
568	0.257
568	0.257
569	0.257
569	0.257
570	0.257
570	0.256
571	0.257
571	0.256
572	0.256
572	0.256
573	0.256
573	0.255
573	0.255
574	0.255
574	0.255
575	0.255
575	0.256
576	0.256
576	0.255
577	0.254
577	0.254
577	0.254
578	0.254
578	0.255
579	0.255
579	0.255
580	0.254
580	0.252
581	0.251
581	0.25
581	0.25
582	0.25
582	0.25
583	0.25
583	0.248
584	0.246
584	0.244
585	0.244
585	0.244
585	0.244
586	0.244
586	0.244
587	0.242
587	0.241
588	0.24
588	0.24
589	0.239
589	0.239
590	0.238
590	0.238
590	0.239
591	0.238
591	0.237
592	0.236
592	0.235
593	0.235
593	0.234
594	0.233
594	0.232
594	0.231
595	0.23
595	0.229
596	0.229
596	0.23
597	0.23
597	0.23
598	0.229
598	0.229
598	0.229
599	0.228
599	0.227
600	0.226
600	0.225
601	0.224
601	0.222
602	0.22
602	0.219
602	0.218
603	0.218
603	0.218
604	0.217
604	0.217
605	0.217
605	0.218
606	0.217
606	0.215
606	0.215
607	0.214
607	0.213
608	0.211
608	0.209
609	0.208
609	0.207
610	0.206
610	0.204
610	0.204
611	0.204
611	0.204
612	0.204
612	0.204
613	0.205
613	0.205
614	0.204
614	0.202
614	0.201
615	0.2
615	0.199
616	0.198
616	0.197
617	0.196
617	0.195
618	0.193
618	0.193
618	0.192
619	0.192
619	0.193
620	0.193
620	0.193
621	0.192
621	0.192
622	0.191
622	0.19
622	0.189
623	0.187
623	0.187
624	0.186
624	0.185
625	0.184
625	0.184
626	0.183
626	0.183
626	0.183
627	0.183
627	0.183
628	0.183
628	0.182
629	0.182
629	0.182
630	0.18
630	0.18
630	0.18
631	0.179
631	0.179
632	0.178
632	0.178
633	0.177
633	0.177
634	0.178
634	0.178
634	0.179
635	0.179
635	0.18
636	0.18
636	0.18
637	0.18
637	0.18
638	0.181
638	0.181
638	0.181
639	0.181
639	0.181
640	0.181
640	0.181
641	0.182
641	0.182
642	0.183
642	0.183
642	0.184
643	0.185
643	0.186
644	0.187
644	0.188
645	0.19
645	0.191
646	0.192
646	0.194
646	0.195
647	0.196
647	0.197
648	0.198
648	0.198
649	0.199
649	0.2
650	0.201
650	0.202
650	0.202
651	0.203
651	0.204
652	0.205
652	0.206
653	0.208
653	0.215
653	0.212
654	0.165
654	0.131
655	0.133
655	0.135
656	0.136
656	0.136
657	0.138
657	0.138
657	0.139
658	0.136
658	0.131
659	0.169
659	0.224
660	0.23
660	0.232
661	0.233
661	0.235
661	0.237
662	0.239
662	0.241
663	0.243
663	0.245
664	0.246
664	0.248
665	0.249
665	0.251
665	0.253
666	0.254
666	0.255
667	0.257
667	0.258
668	0.26
668	0.262
669	0.264
669	0.266
669	0.269
670	0.271
670	0.272
671	0.273
671	0.274
672	0.276
672	0.277
672	0.279
673	0.281
673	0.283
674	0.284
674	0.285
675	0.287
675	0.288
676	0.291
676	0.293
676	0.294
677	0.296
677	0.297
678	0.297
678	0.298
679	0.298
679	0.299
680	0.3
680	0.301
680	0.301
681	0.302
681	0.304
682	0.305
682	0.306
683	0.308
683	0.311
684	0.312
684	0.313
684	0.315
685	0.316
685	0.317
686	0.318
686	0.318
687	0.319
687	0.319
687	0.32
688	0.319
688	0.319
689	0.32
689	0.321
690	0.32
690	0.32
691	0.321
691	0.321
691	0.321
692	0.32
692	0.32
693	0.32
693	0.32
694	0.319
694	0.318
695	0.319
695	0.319
695	0.319
696	0.317
696	0.317
697	0.316
697	0.316
698	0.315
698	0.315
698	0.315
699	0.315
699	0.314
700	0.313
700	0.312
701	0.313
701	0.312
702	0.311
702	0.311
702	0.31
703	0.31
703	0.309
704	0.309
704	0.309
705	0.309
705	0.31
705	0.31
706	0.31
706	0.31
707	0.31
707	0.309
708	0.309
708	0.308
709	0.308
709	0.306
709	0.305
710	0.304
710	0.304
711	0.303
711	0.303
712	0.302
712	0.302
713	0.301
713	0.3
713	0.299
714	0.298
714	0.296
715	0.295
715	0.293
716	0.291
716	0.29
716	0.289
717	0.288
717	0.287
718	0.285
718	0.284
719	0.284
719	0.283
720	0.282
720	0.281
720	0.28
721	0.278
721	0.278
722	0.277
722	0.277
723	0.277
723	0.277
723	0.277
724	0.276
724	0.277
725	0.277
725	0.277
726	0.277
726	0.277
727	0.276
727	0.276
727	0.275
728	0.275
728	0.274
729	0.275
729	0.274
730	0.273
730	0.272
730	0.271
731	0.271
731	0.27
732	0.269
732	0.268
733	0.267
733	0.265
734	0.264
734	0.262
734	0.26
735	0.26
735	0.258
736	0.257
736	0.257
737	0.256
737	0.256
737	0.256
738	0.254
738	0.253
739	0.253
739	0.253
740	0.252
740	0.252
741	0.251
741	0.25
741	0.248
742	0.246
742	0.246
743	0.245
743	0.245
744	0.244
744	0.244
744	0.243
745	0.242
745	0.242
746	0.241
746	0.241
747	0.24
747	0.239
748	0.239
748	0.238
748	0.237
749	0.235
749	0.235
750	0.233
750	0.232
751	0.231
751	0.23
751	0.229
752	0.228
752	0.226
753	0.225
753	0.224
754	0.223
754	0.222
754	0.222
755	0.221
755	0.221
756	0.22
756	0.218
757	0.217
757	0.216
758	0.215
758	0.213
758	0.212
759	0.211
759	0.209
760	0.207
760	0.205
761	0.203
761	0.202
761	0.201
762	0.199
762	0.199
763	0.198
763	0.196
764	0.193
764	0.191
764	0.189
765	0.188
765	0.185
766	0.184
766	0.183
767	0.181
767	0.178
768	0.175
768	0.172
768	0.17
769	0.168
769	0.166
770	0.163
770	0.16
771	0.157
771	0.153
771	0.149
772	0.146
772	0.144
773	0.141
773	0.138
774	0.134
774	0.131
775	0.128
775	0.125
775	0.121
776	0.117
776	0.113
777	0.109
777	0.105
778	0.101
778	0.096
778	0.092
779	0.089
779	0.086
780	0.082
780	0.078
781	0.075
781	0.07
781	0.066
782	0.061
782	0.057
783	0.052
783	0.048
784	0.043
784	0.037
784	0.031
785	0.025
785	0.018
786	0.013
786	0.008
787	0.004
787	-0.001
788	-0.007
788	-0.015
788	-0.022
789	-0.031
789	-0.038
790	-0.045
790	-0.053
791	-0.063
791	-0.073
791	-0.084
792	-0.086
792	-0.084
793	-0.087
793	-0.09
794	-0.096
794	-0.103
794	-0.111
795	-0.117
795	-0.12
796	-0.122
796	-0.125
797	-0.135
797	-0.146
797	-0.154
798	-0.159
798	-0.163
799	-0.163
799	-0.163
800	-0.163
800	-0.166
801	-0.169
801	-0.171
801	-0.171
802	-0.173
802	-0.174
803	-0.174
803	-0.174
804	-0.173
804	-0.167
804	-0.16
805	-0.156
805	-0.153
806	-0.151
806	-0.149
807	-0.148
807	-0.148
807	-0.148
808	-0.148
808	-0.149
809	-0.154
809	-0.161
810	-0.164
810	-0.167
810	-0.17
811	-0.172
811	-0.171
812	-0.165
812	-0.158
813	-0.152
813	-0.145
813	-0.137
814	-0.128
814	-0.117
815	-0.103
815	-0.088
816	-0.074
816	-0.062
817	-0.052
817	-0.042
817	-0.032
818	-0.021
818	-0.01
819	0
819	0.009
820	0.015
820	0.022
820	0.028
821	0.035
821	0.041
822	0.046
822	0.051
823	0.056
823	0.059
823	0.062
824	0.066
824	0.07
825	0.074
825	0.078
826	0.082
826	0.084
826	0.086
827	0.088
827	0.09
828	0.092
828	0.093
829	0.094
829	0.095
829	0.095
830	0.095
830	0.096
831	0.098
831	0.099
832	0.1
832	0.101
832	0.101
833	0.102
833	0.103
834	0.104
834	0.105
835	0.105
835	0.105
835	0.105
836	0.106
836	0.106
837	0.107
837	0.108
838	0.108
838	0.109
839	0.109
839	0.109
839	0.108
840	0.108
840	0.107
841	0.107
841	0.106
842	0.105
842	0.105
842	0.104
843	0.103
843	0.103
844	0.103
844	0.103
845	0.103
845	0.103
845	0.103
846	0.103
846	0.103
847	0.103
847	0.104
848	0.105
848	0.105
848	0.105
849	0.105
849	0.106
850	0.106
850	0.105
851	0.105
851	0.105
851	0.105
852	0.104
852	0.104
853	0.104
853	0.103
854	0.103
854	0.103
854	0.103
855	0.103
855	0.103
856	0.103
856	0.102
857	0.102
857	0.102
857	0.101
858	0.101
858	0.1
859	0.099
859	0.099
860	0.099
860	0.098
860	0.098
861	0.098
861	0.097
862	0.096
862	0.096
863	0.095
863	0.095
863	0.095
864	0.095
864	0.095
865	0.096
865	0.096
866	0.097
866	0.097
866	0.098
867	0.099
867	0.099
868	0.099
868	0.099
869	0.099
869	0.098
869	0.097
870	0.096
870	0.096
871	0.095
871	0.094
872	0.093
872	0.092
872	0.091
873	0.091
873	0.089
874	0.088
874	0.087
875	0.086
875	0.085
875	0.084
876	0.083
876	0.082
877	0.081
877	0.081
878	0.08
878	0.08
878	0.08
879	0.079
879	0.079
880	0.079
880	0.078
881	0.078
881	0.078
881	0.078
882	0.079
882	0.079
883	0.079
883	0.08
884	0.081
884	0.082
884	0.082
885	0.083
885	0.083
886	0.084
886	0.084
887	0.084
887	0.084
887	0.084
888	0.084
888	0.084
889	0.084
889	0.084
890	0.085
890	0.085
890	0.085
891	0.086
891	0.086
892	0.086
892	0.087
893	0.087
893	0.088
893	0.088
894	0.088
894	0.088
895	0.088
895	0.087
895	0.087
896	0.086
896	0.086
897	0.085
897	0.085
898	0.084
898	0.083
898	0.082
899	0.081
899	0.08
900	0.078
900	0.077
901	0.076
901	0.075
901	0.074
902	0.073
902	0.072
903	0.072
903	0.071
904	0.071
904	0.07
904	0.07
905	0.071
905	0.071
906	0.071
906	0.072
907	0.072
907	0.073
907	0.073
908	0.074
908	0.074
909	0.075
909	0.075
910	0.076
910	0.076
910	0.076
911	0.076
911	0.076
912	0.077
912	0.077
913	0.077
913	0.077
913	0.077
914	0.078
914	0.078
915	0.078
915	0.079
916	0.079
916	0.079
916	0.079
917	0.079
917	0.078
918	0.078
918	0.077
918	0.077
919	0.076
919	0.076
920	0.076
920	0.076
921	0.075
921	0.074
921	0.073
922	0.072
922	0.072
923	0.071
923	0.069
924	0.068
924	0.067
924	0.066
925	0.065
925	0.063
926	0.062
926	0.062
927	0.061
927	0.06
927	0.059
928	0.059
928	0.058
929	0.057
929	0.057
930	0.056
930	0.056
930	0.056
931	0.056
931	0.056
932	0.056
932	0.057
933	0.057
933	0.057
933	0.058
934	0.058
934	0.058
935	0.058
935	0.058
935	0.058
936	0.057
936	0.057
937	0.056
937	0.056
938	0.055
938	0.055
938	0.054
939	0.054
939	0.054
940	0.054
940	0.054
941	0.054
941	0.055
941	0.055
942	0.055
942	0.054
943	0.054
943	0.054
944	0.054
944	0.054
944	0.053
945	0.053
945	0.054
946	0.054
946	0.054
946	0.054
947	0.055
947	0.055
948	0.056
948	0.056
949	0.056
949	0.057
949	0.057
950	0.057
950	0.057
951	0.057
951	0.056
952	0.056
952	0.056
952	0.056
953	0.056
953	0.056
954	0.056
954	0.056
955	0.056
955	0.056
955	0.056
956	0.056
956	0.056
957	0.056
957	0.055
957	0.055
958	0.054
958	0.054
959	0.053
959	0.053
960	0.052
960	0.051
960	0.051
961	0.05
961	0.049
962	0.049
962	0.048
963	0.048
963	0.048
963	0.048
964	0.048
964	0.048
965	0.048
965	0.048
966	0.048
966	0.047
966	0.047
967	0.046
967	0.045
968	0.045
968	0.044
968	0.043
969	0.042
969	0.042
970	0.041
970	0.041
971	0.041
971	0.04
971	0.04
972	0.041
972	0.041
973	0.042
973	0.042
974	0.042
974	0.042
974	0.043
975	0.043
975	0.044
976	0.044
976	0.044
976	0.044
977	0.044
977	0.043
978	0.043
978	0.042
979	0.042
979	0.042
979	0.041
980	0.041
980	0.041
981	0.04
981	0.041
982	0.041
982	0.042
982	0.042
983	0.043
983	0.044
984	0.044
984	0.045
984	0.046
985	0.046
985	0.046
986	0.046
986	0.045
987	0.045
987	0.044
987	0.044
988	0.043
988	0.042
989	0.041
989	0.04
990	0.039
990	0.039
990	0.038
991	0.038
991	0.038
992	0.037
992	0.037
992	0.036
993	0.036
993	0.036
994	0.035
994	0.035
995	0.035
995	0.034
995	0.033
996	0.033
996	0.032
997	0.032
997	0.032
997	0.032
998	0.032
998	0.032
999	0.032
999	0.033
1000	0.033
1000	0.033
1000	0.034
1001	0.034
1001	0.035
1002	0.035
1002	0.036
1003	0.036
1003	0.037
1003	0.037
1004	0.037
1004	0.037
1005	0.038
1005	0.038
1005	0.037
1006	0.037
1006	0.037
1007	0.037
1007	0.037
1008	0.037
1008	0.037
1008	0.038
1009	0.038
1009	0.039
1010	0.039
1010	0.04
1010	0.04
1011	0.041
1011	0.041
1012	0.041
1012	0.041
1013	0.041
1013	0.041
1013	0.04
1014	0.039
1014	0.039
1015	0.038
1015	0.037
1016	0.036
1016	0.036
1016	0.035
1017	0.034
1017	0.034
1018	0.034
1018	0.033
1018	0.033
1019	0.033
1019	0.033
1020	0.033
1020	0.032
1021	0.032
1021	0.031
1021	0.031
1022	0.03
1022	0.03
1023	0.029
1023	0.029
1023	0.028
1024	0.028
1024	0.027
1025	0.027
1025	0.026
1026	0.026
1026	0.026
1026	0.026
1027	0.026
1027	0.025
1028	0.026
1028	0.026
1028	0.026
1029	0.026
1029	0.026
1030	0.026
1030	0.026
1031	0.026
1031	0.026
1031	0.027
1032	0.027
1032	0.027
1033	0.027
1033	0.027
1033	0.027
1034	0.027
1034	0.027
1035	0.026
1035	0.026
1036	0.025
1036	0.025
1036	0.024
1037	0.024
1037	0.023
1038	0.023
1038	0.022
1039	0.022
1039	0.022
1039	0.022
1040	0.022
1040	0.022
1041	0.021
1041	0.021
1041	0.021
1042	0.02
1042	0.02
1043	0.019
1043	0.019
1044	0.018
1044	0.018
1044	0.017
1045	0.017
1045	0.017
1046	0.017
1046	0.017
1046	0.017
1047	0.018
1047	0.018
1048	0.018
1048	0.019
1049	0.019
1049	0.019
1049	0.019
1050	0.019
1050	0.018
1051	0.018
1051	0.018
1051	0.017
1052	0.017
1052	0.016
1053	0.016
1053	0.015
1053	0.014
1054	0.013
1054	0.013
1055	0.012
1055	0.012
1056	0.011
1056	0.01
1056	0.01
1057	0.008
1057	0.008
1058	0.007
1058	0.007
1058	0.006
1059	0.006
1059	0.005
1060	0.004
1060	0.004
1061	0.004
1061	0.004
1061	0.004
1062	0.003
1062	0.003
1063	0.002
1063	0.001
1063	0.001
1064	0
1064	-0
1065	-0.001
1065	-0.001
1066	-0.001
1066	-0.001
1066	-0.001
1067	-0.001
1067	-0
1068	0
1068	0
1068	0.001
1069	0.002
1069	0.002
1070	0.002
1070	0.002
1071	0.002
1071	0.002
1071	0.002
1072	0.003
1072	0.003
1073	0.004
1073	0.004
1073	0.003
1074	0.004
1074	0.004
1075	0.003
1075	0.003
1076	0.002
1076	0.002
1076	0.001
1077	0
1077	-0
1078	-0.001
1078	-0.001
1078	-0.002
1079	-0.002
1079	-0.002
1080	-0.002
1080	-0.002
1080	-0.003
1081	-0.003
1081	-0.003
1082	-0.004
1082	-0.005
1083	-0.005
1083	-0.006
1083	-0.008
1084	-0.008
1084	-0.009
1085	-0.009
1085	-0.01
1085	-0.01
1086	-0.011
1086	-0.012
1087	-0.012
1087	-0.013
1088	-0.014
1088	-0.014
1088	-0.015
1089	-0.016
1089	-0.017
1090	-0.018
1090	-0.02
1090	-0.021
1091	-0.022
1091	-0.022
1092	-0.023
1092	-0.023
1092	-0.023
1093	-0.024
1093	-0.025
1094	-0.025
1094	-0.026
1095	-0.026
1095	-0.027
1095	-0.027
1096	-0.028
1096	-0.028
1097	-0.029
1097	-0.03
1097	-0.03
1098	-0.032
1098	-0.033
1099	-0.034
1099	-0.035
1100	-0.036
1100	-0.038
1100	-0.04
1101	-0.042
1101	-0.043
1102	-0.044
1102	-0.046
1102	-0.047
1103	-0.048
1103	-0.049
1104	-0.05
1104	-0.051
1104	-0.051
1105	-0.052
1105	-0.054
1106	-0.056
1106	-0.058
1107	-0.06
1107	-0.061
1107	-0.064
1108	-0.065
1108	-0.067
1109	-0.068
1109	-0.072
1109	-0.074
1110	-0.074
1110	-0.074
1111	-0.075
1111	-0.074
