Data from 2024-02-020100ns-20nr-25nacl-100h2o-7bp2-hysteresis-40to10-1cpm-1-5a-808_Absorbance__108__00353.txt Node

Date: Fri Feb 02 14:10:06 CET 2024
User: Marek
Spectrometer: MAYP115816
Trigger mode: 0
Integration Time (sec): 1.900000E-1
Scans to average: 10
Electric dark correction enabled: true
Nonlinearity correction enabled: true
Boxcar width: 5
XAxis mode: Wavelengths
Number of Pixels in Spectrum: 2068
>>>>>Begin Spectral Data<<<<<
199	-0.454
199	-0.433
200	-0.375
200	-0.32
201	-0.284
201	-0.26
202	-0.239
202	-0.232
203	-0.225
203	-0.221
204	-0.209
204	-0.193
205	-0.179
205	-0.173
205	-0.174
206	-0.176
206	-0.18
207	-0.177
207	-0.178
208	-0.179
208	-0.18
209	-0.178
209	-0.185
210	-0.186
210	-0.186
211	-0.187
211	-0.189
212	-0.191
212	-0.193
213	-0.196
213	-0.194
213	-0.197
214	-0.194
214	-0.192
215	-0.19
215	-0.196
216	-0.197
216	-0.197
217	-0.193
217	-0.196
218	-0.194
218	-0.194
219	-0.187
219	-0.189
220	-0.186
220	-0.189
221	-0.183
221	-0.181
221	-0.179
222	-0.177
222	-0.171
223	-0.167
223	-0.166
224	-0.168
224	-0.163
225	-0.159
225	-0.155
226	-0.15
226	-0.139
227	-0.128
227	-0.119
228	-0.107
228	-0.094
229	-0.077
229	-0.055
229	-0.032
230	-0.01
230	0.017
231	0.043
231	0.07
232	0.095
232	0.124
233	0.153
233	0.183
234	0.21
234	0.238
235	0.262
235	0.285
236	0.307
236	0.329
236	0.349
237	0.368
237	0.384
238	0.399
238	0.413
239	0.427
239	0.437
240	0.447
240	0.455
241	0.463
241	0.47
242	0.476
242	0.482
243	0.488
243	0.492
243	0.496
244	0.5
244	0.503
245	0.505
245	0.508
246	0.512
246	0.514
247	0.516
247	0.519
248	0.521
248	0.523
249	0.525
249	0.526
250	0.528
250	0.53
250	0.533
251	0.534
251	0.535
252	0.537
252	0.538
253	0.54
253	0.54
254	0.542
254	0.543
255	0.544
255	0.545
256	0.546
256	0.546
257	0.547
257	0.548
258	0.548
258	0.548
258	0.549
259	0.549
259	0.549
260	0.549
260	0.548
261	0.548
261	0.548
262	0.547
262	0.547
263	0.546
263	0.545
264	0.544
264	0.543
265	0.542
265	0.54
265	0.539
266	0.537
266	0.536
267	0.534
267	0.532
268	0.53
268	0.528
269	0.526
269	0.524
270	0.521
270	0.519
271	0.516
271	0.514
272	0.511
272	0.509
272	0.507
273	0.504
273	0.502
274	0.499
274	0.497
275	0.494
275	0.491
276	0.489
276	0.486
277	0.483
277	0.48
278	0.477
278	0.474
278	0.47
279	0.467
279	0.463
280	0.46
280	0.457
281	0.454
281	0.452
282	0.448
282	0.446
283	0.443
283	0.441
284	0.438
284	0.435
285	0.433
285	0.43
285	0.427
286	0.425
286	0.422
287	0.42
287	0.417
288	0.415
288	0.413
289	0.41
289	0.408
290	0.405
290	0.403
291	0.401
291	0.399
292	0.397
292	0.395
292	0.393
293	0.391
293	0.389
294	0.388
294	0.386
295	0.385
295	0.383
296	0.382
296	0.38
297	0.378
297	0.377
298	0.376
298	0.374
298	0.373
299	0.371
299	0.37
300	0.369
300	0.368
301	0.366
301	0.365
302	0.364
302	0.363
303	0.361
303	0.36
304	0.359
304	0.358
305	0.357
305	0.356
305	0.354
306	0.353
306	0.352
307	0.351
307	0.35
308	0.349
308	0.348
309	0.347
309	0.346
310	0.345
310	0.344
311	0.343
311	0.341
311	0.341
312	0.34
312	0.339
313	0.338
313	0.337
314	0.335
314	0.334
315	0.333
315	0.332
316	0.331
316	0.33
317	0.329
317	0.328
318	0.326
318	0.325
318	0.324
319	0.323
319	0.322
320	0.322
320	0.321
321	0.32
321	0.319
322	0.318
322	0.317
323	0.316
323	0.315
324	0.314
324	0.313
324	0.312
325	0.311
325	0.31
326	0.309
326	0.308
327	0.307
327	0.307
328	0.306
328	0.305
329	0.304
329	0.303
330	0.302
330	0.302
330	0.301
331	0.3
331	0.299
332	0.298
332	0.297
333	0.296
333	0.295
334	0.294
334	0.293
335	0.292
335	0.292
336	0.291
336	0.29
336	0.289
337	0.289
337	0.288
338	0.287
338	0.287
339	0.286
339	0.286
340	0.285
340	0.284
341	0.284
341	0.283
342	0.283
342	0.282
342	0.281
343	0.281
343	0.28
344	0.28
344	0.279
345	0.279
345	0.278
346	0.278
346	0.277
347	0.277
347	0.276
348	0.276
348	0.276
348	0.276
349	0.275
349	0.275
350	0.274
350	0.274
351	0.274
351	0.273
352	0.273
352	0.272
353	0.272
353	0.272
354	0.271
354	0.271
354	0.271
355	0.27
355	0.27
356	0.27
356	0.269
357	0.269
357	0.268
358	0.268
358	0.267
359	0.267
359	0.267
360	0.266
360	0.266
360	0.267
361	0.266
361	0.266
362	0.266
362	0.266
363	0.266
363	0.266
364	0.266
364	0.265
365	0.265
365	0.265
366	0.264
366	0.264
366	0.263
367	0.263
367	0.263
368	0.263
368	0.262
369	0.262
369	0.262
370	0.261
370	0.261
371	0.261
371	0.261
372	0.26
372	0.26
372	0.26
373	0.26
373	0.26
374	0.259
374	0.259
375	0.259
375	0.259
376	0.258
376	0.258
377	0.258
377	0.257
378	0.257
378	0.257
378	0.257
379	0.257
379	0.256
380	0.256
380	0.256
381	0.256
381	0.255
382	0.255
382	0.255
383	0.254
383	0.254
383	0.253
384	0.253
384	0.253
385	0.253
385	0.252
386	0.252
386	0.252
387	0.252
387	0.251
388	0.251
388	0.25
389	0.25
389	0.25
389	0.249
390	0.249
390	0.249
391	0.249
391	0.248
392	0.248
392	0.248
393	0.248
393	0.248
394	0.247
394	0.247
394	0.247
395	0.246
395	0.246
396	0.245
396	0.245
397	0.245
397	0.245
398	0.244
398	0.244
399	0.244
399	0.243
400	0.243
400	0.242
400	0.242
401	0.242
401	0.241
402	0.241
402	0.24
403	0.24
403	0.24
404	0.24
404	0.239
405	0.239
405	0.239
405	0.239
406	0.239
406	0.238
407	0.238
407	0.238
408	0.237
408	0.237
409	0.237
409	0.237
410	0.236
410	0.236
411	0.236
411	0.236
411	0.235
412	0.235
412	0.235
413	0.235
413	0.235
414	0.234
414	0.234
415	0.234
415	0.233
416	0.233
416	0.233
416	0.232
417	0.232
417	0.232
418	0.232
418	0.232
419	0.232
419	0.232
420	0.231
420	0.231
421	0.231
421	0.231
421	0.231
422	0.231
422	0.231
423	0.231
423	0.23
424	0.23
424	0.229
425	0.229
425	0.229
426	0.229
426	0.229
427	0.229
427	0.228
427	0.228
428	0.228
428	0.228
429	0.228
429	0.228
430	0.228
430	0.228
431	0.227
431	0.227
432	0.227
432	0.227
432	0.226
433	0.226
433	0.226
434	0.226
434	0.226
435	0.226
435	0.226
436	0.225
436	0.225
437	0.225
437	0.225
437	0.225
438	0.225
438	0.225
439	0.224
439	0.224
440	0.224
440	0.224
441	0.223
441	0.223
442	0.223
442	0.223
442	0.223
443	0.223
443	0.223
444	0.223
444	0.223
445	0.223
445	0.223
446	0.223
446	0.223
447	0.222
447	0.222
447	0.222
448	0.222
448	0.222
449	0.222
449	0.223
450	0.223
450	0.222
451	0.222
451	0.223
452	0.223
452	0.223
452	0.223
453	0.223
453	0.223
454	0.223
454	0.223
455	0.223
455	0.224
456	0.224
456	0.224
457	0.224
457	0.224
458	0.224
458	0.224
458	0.224
459	0.224
459	0.224
460	0.223
460	0.223
461	0.224
461	0.224
462	0.224
462	0.224
463	0.225
463	0.225
463	0.226
464	0.226
464	0.226
465	0.226
465	0.226
466	0.226
466	0.227
467	0.227
467	0.227
467	0.227
468	0.227
468	0.227
469	0.228
469	0.229
470	0.229
470	0.23
471	0.23
471	0.23
472	0.231
472	0.231
472	0.232
473	0.232
473	0.233
474	0.234
474	0.234
475	0.235
475	0.236
476	0.236
476	0.237
477	0.237
477	0.238
477	0.238
478	0.239
478	0.239
479	0.24
479	0.24
480	0.241
480	0.242
481	0.243
481	0.244
482	0.245
482	0.246
482	0.247
483	0.249
483	0.25
484	0.251
484	0.252
485	0.253
485	0.254
486	0.255
486	0.256
487	0.257
487	0.258
487	0.259
488	0.26
488	0.261
489	0.263
489	0.265
490	0.267
490	0.268
491	0.27
491	0.272
492	0.274
492	0.275
492	0.276
493	0.278
493	0.28
494	0.283
494	0.285
495	0.287
495	0.289
496	0.291
496	0.292
496	0.294
497	0.296
497	0.298
498	0.299
498	0.301
499	0.303
499	0.305
500	0.307
500	0.309
501	0.311
501	0.313
501	0.316
502	0.318
502	0.32
503	0.322
503	0.325
504	0.327
504	0.329
505	0.331
505	0.334
506	0.336
506	0.338
506	0.34
507	0.343
507	0.345
508	0.347
508	0.349
509	0.351
509	0.353
510	0.355
510	0.356
511	0.358
511	0.36
511	0.361
512	0.363
512	0.364
513	0.366
513	0.367
514	0.368
514	0.37
515	0.371
515	0.372
515	0.373
516	0.374
516	0.376
517	0.377
517	0.378
518	0.379
518	0.38
519	0.381
519	0.381
520	0.382
520	0.382
520	0.383
521	0.383
521	0.383
522	0.383
522	0.383
523	0.383
523	0.384
524	0.383
524	0.383
524	0.383
525	0.383
525	0.382
526	0.382
526	0.381
527	0.38
527	0.379
528	0.379
528	0.378
529	0.377
529	0.376
529	0.375
530	0.374
530	0.373
531	0.371
531	0.37
532	0.369
532	0.367
533	0.366
533	0.365
533	0.363
534	0.361
534	0.36
535	0.358
535	0.356
536	0.355
536	0.352
537	0.35
537	0.348
538	0.346
538	0.343
538	0.341
539	0.339
539	0.336
540	0.333
540	0.331
541	0.328
541	0.326
542	0.323
542	0.32
542	0.317
543	0.314
543	0.311
544	0.309
544	0.306
545	0.304
545	0.301
546	0.298
546	0.295
547	0.292
547	0.289
547	0.286
548	0.283
548	0.28
549	0.278
549	0.275
550	0.272
550	0.268
551	0.265
551	0.262
551	0.26
552	0.257
552	0.254
553	0.252
553	0.249
554	0.246
554	0.243
555	0.239
555	0.236
556	0.233
556	0.23
556	0.227
557	0.224
557	0.221
558	0.218
558	0.215
559	0.212
559	0.21
560	0.207
560	0.205
560	0.202
561	0.2
561	0.198
562	0.195
562	0.192
563	0.189
563	0.186
564	0.183
564	0.18
564	0.177
565	0.175
565	0.172
566	0.169
566	0.166
567	0.163
567	0.161
568	0.159
568	0.157
568	0.155
569	0.154
569	0.152
570	0.149
570	0.147
571	0.146
571	0.144
572	0.142
572	0.14
573	0.138
573	0.137
573	0.135
574	0.133
574	0.132
575	0.131
575	0.13
576	0.128
576	0.126
577	0.123
577	0.122
577	0.121
578	0.12
578	0.119
579	0.119
579	0.118
580	0.116
580	0.113
581	0.11
581	0.109
581	0.109
582	0.108
582	0.107
583	0.106
583	0.104
584	0.101
584	0.098
585	0.098
585	0.098
585	0.097
586	0.097
586	0.096
587	0.094
587	0.093
588	0.091
588	0.09
589	0.09
589	0.089
590	0.089
590	0.088
590	0.089
591	0.089
591	0.088
592	0.086
592	0.085
593	0.085
593	0.085
594	0.084
594	0.083
594	0.083
595	0.082
595	0.081
596	0.08
596	0.081
597	0.083
597	0.082
598	0.082
598	0.082
598	0.082
599	0.081
599	0.08
600	0.079
600	0.078
601	0.078
601	0.077
602	0.075
602	0.075
602	0.075
603	0.075
603	0.076
604	0.077
604	0.077
605	0.079
605	0.08
606	0.079
606	0.079
606	0.078
607	0.078
607	0.077
608	0.076
608	0.075
609	0.074
609	0.074
610	0.073
610	0.072
610	0.072
611	0.073
611	0.074
612	0.075
612	0.077
613	0.078
613	0.08
614	0.08
614	0.079
614	0.079
615	0.079
615	0.079
616	0.079
616	0.078
617	0.078
617	0.077
618	0.077
618	0.077
618	0.078
619	0.079
619	0.081
620	0.083
620	0.083
621	0.084
621	0.084
622	0.084
622	0.085
622	0.085
623	0.085
623	0.086
624	0.086
624	0.086
625	0.086
625	0.087
626	0.088
626	0.089
626	0.09
627	0.091
627	0.092
628	0.093
628	0.094
629	0.095
629	0.096
630	0.096
630	0.097
630	0.098
631	0.1
631	0.1
632	0.101
632	0.102
633	0.104
633	0.105
634	0.107
634	0.109
634	0.111
635	0.113
635	0.115
636	0.117
636	0.119
637	0.12
637	0.122
638	0.124
638	0.126
638	0.128
639	0.129
639	0.13
640	0.132
640	0.134
641	0.136
641	0.138
642	0.14
642	0.143
642	0.145
643	0.148
643	0.15
644	0.154
644	0.156
645	0.159
645	0.163
646	0.166
646	0.169
646	0.172
647	0.175
647	0.178
648	0.18
648	0.183
649	0.185
649	0.188
650	0.19
650	0.193
650	0.195
651	0.197
651	0.2
652	0.203
652	0.206
653	0.21
653	0.218
653	0.219
654	0.171
654	0.136
655	0.14
655	0.142
656	0.144
656	0.146
657	0.148
657	0.15
657	0.151
658	0.149
658	0.144
659	0.188
659	0.252
660	0.259
660	0.262
661	0.265
661	0.269
661	0.272
662	0.276
662	0.28
663	0.284
663	0.287
664	0.29
664	0.294
665	0.297
665	0.301
665	0.305
666	0.308
666	0.311
667	0.314
667	0.318
668	0.321
668	0.324
669	0.327
669	0.331
669	0.335
670	0.338
670	0.341
671	0.343
671	0.346
672	0.348
672	0.351
672	0.353
673	0.356
673	0.359
674	0.362
674	0.364
675	0.366
675	0.369
676	0.373
676	0.375
676	0.377
677	0.38
677	0.382
678	0.383
678	0.384
679	0.385
679	0.386
680	0.387
680	0.388
680	0.388
681	0.389
681	0.39
682	0.391
682	0.393
683	0.395
683	0.397
684	0.399
684	0.4
684	0.401
685	0.403
685	0.404
686	0.405
686	0.405
687	0.405
687	0.405
687	0.404
688	0.403
688	0.402
689	0.402
689	0.402
690	0.4
690	0.399
691	0.398
691	0.397
691	0.395
692	0.394
692	0.392
693	0.391
693	0.389
694	0.387
694	0.384
695	0.383
695	0.382
695	0.38
696	0.378
696	0.376
697	0.374
697	0.372
698	0.37
698	0.368
698	0.366
699	0.365
699	0.362
700	0.359
700	0.356
701	0.354
701	0.352
702	0.349
702	0.346
702	0.344
703	0.341
703	0.339
704	0.336
704	0.335
705	0.333
705	0.331
705	0.329
706	0.327
706	0.325
707	0.323
707	0.32
708	0.318
708	0.316
709	0.313
709	0.31
709	0.306
710	0.302
710	0.3
711	0.297
711	0.294
712	0.291
712	0.288
713	0.284
713	0.281
713	0.278
714	0.275
714	0.271
715	0.269
715	0.265
716	0.262
716	0.259
716	0.255
717	0.252
717	0.249
718	0.246
718	0.242
719	0.239
719	0.236
720	0.233
720	0.23
720	0.226
721	0.223
721	0.22
722	0.217
722	0.214
723	0.212
723	0.211
723	0.209
724	0.207
724	0.205
725	0.203
725	0.202
726	0.2
726	0.198
727	0.196
727	0.194
727	0.192
728	0.19
728	0.188
729	0.186
729	0.184
730	0.182
730	0.179
730	0.177
731	0.174
731	0.172
732	0.17
732	0.167
733	0.165
733	0.162
734	0.16
734	0.157
734	0.154
735	0.153
735	0.15
736	0.148
736	0.146
737	0.145
737	0.144
737	0.142
738	0.14
738	0.138
739	0.136
739	0.135
740	0.133
740	0.132
741	0.131
741	0.128
741	0.125
742	0.122
742	0.121
743	0.119
743	0.117
744	0.116
744	0.114
744	0.112
745	0.11
745	0.108
746	0.107
746	0.105
747	0.104
747	0.103
748	0.101
748	0.099
748	0.097
749	0.095
749	0.094
750	0.092
750	0.09
751	0.089
751	0.088
751	0.087
752	0.085
752	0.083
753	0.082
753	0.081
754	0.08
754	0.079
754	0.078
755	0.077
755	0.076
756	0.074
756	0.072
757	0.07
757	0.07
758	0.068
758	0.067
758	0.066
759	0.065
759	0.063
760	0.061
760	0.059
761	0.058
761	0.058
761	0.057
762	0.056
762	0.056
763	0.055
763	0.054
764	0.052
764	0.05
764	0.049
765	0.048
765	0.047
766	0.046
766	0.046
767	0.045
767	0.043
768	0.04
768	0.039
768	0.038
769	0.037
769	0.036
770	0.034
770	0.032
771	0.03
771	0.027
771	0.025
772	0.024
772	0.023
773	0.022
773	0.02
774	0.018
774	0.016
775	0.015
775	0.013
775	0.011
776	0.01
776	0.008
777	0.007
777	0.005
778	0.003
778	0.001
778	-0
779	-0.001
779	-0.002
780	-0.003
780	-0.005
781	-0.006
781	-0.007
781	-0.009
782	-0.01
782	-0.011
783	-0.012
783	-0.013
784	-0.015
784	-0.016
784	-0.017
785	-0.019
785	-0.021
786	-0.022
786	-0.023
787	-0.024
787	-0.025
788	-0.028
788	-0.031
788	-0.034
789	-0.037
789	-0.04
790	-0.042
790	-0.046
791	-0.049
791	-0.053
791	-0.057
792	-0.059
792	-0.057
793	-0.06
793	-0.063
794	-0.067
794	-0.072
794	-0.078
795	-0.083
795	-0.088
796	-0.094
796	-0.101
797	-0.11
797	-0.122
797	-0.13
798	-0.138
798	-0.144
799	-0.15
799	-0.154
800	-0.159
800	-0.163
801	-0.168
801	-0.17
801	-0.171
802	-0.173
802	-0.174
803	-0.174
803	-0.174
804	-0.173
804	-0.167
804	-0.16
805	-0.156
805	-0.153
806	-0.151
806	-0.149
807	-0.148
807	-0.147
807	-0.145
808	-0.142
808	-0.14
809	-0.14
809	-0.142
810	-0.14
810	-0.136
810	-0.132
811	-0.127
811	-0.12
812	-0.111
812	-0.103
813	-0.097
813	-0.091
813	-0.085
814	-0.079
814	-0.073
815	-0.067
815	-0.062
816	-0.057
816	-0.054
817	-0.051
817	-0.048
817	-0.044
818	-0.041
818	-0.037
819	-0.034
819	-0.032
820	-0.03
820	-0.028
820	-0.026
821	-0.023
821	-0.022
822	-0.02
822	-0.018
823	-0.017
823	-0.017
823	-0.017
824	-0.016
824	-0.015
825	-0.014
825	-0.013
826	-0.013
826	-0.013
826	-0.013
827	-0.013
827	-0.013
828	-0.014
828	-0.014
829	-0.014
829	-0.014
829	-0.014
830	-0.015
830	-0.015
831	-0.014
831	-0.014
832	-0.014
832	-0.014
832	-0.013
833	-0.013
833	-0.012
834	-0.011
834	-0.011
835	-0.01
835	-0.01
835	-0.009
836	-0.009
836	-0.008
837	-0.008
837	-0.007
838	-0.007
838	-0.007
839	-0.007
839	-0.007
839	-0.008
840	-0.009
840	-0.009
841	-0.01
841	-0.011
842	-0.011
842	-0.012
842	-0.013
843	-0.013
843	-0.014
844	-0.014
844	-0.013
845	-0.013
845	-0.013
845	-0.013
846	-0.012
846	-0.012
847	-0.012
847	-0.011
848	-0.011
848	-0.011
848	-0.011
849	-0.011
849	-0.011
850	-0.011
850	-0.011
851	-0.011
851	-0.011
851	-0.011
852	-0.012
852	-0.012
853	-0.012
853	-0.013
854	-0.013
854	-0.013
854	-0.013
855	-0.013
855	-0.014
856	-0.014
856	-0.015
857	-0.015
857	-0.016
857	-0.017
858	-0.017
858	-0.018
859	-0.019
859	-0.019
860	-0.02
860	-0.02
860	-0.02
861	-0.02
861	-0.02
862	-0.021
862	-0.021
863	-0.021
863	-0.021
863	-0.02
864	-0.02
864	-0.02
865	-0.019
865	-0.018
866	-0.017
866	-0.016
866	-0.014
867	-0.013
867	-0.013
868	-0.013
868	-0.013
869	-0.014
869	-0.014
869	-0.015
870	-0.016
870	-0.017
871	-0.017
871	-0.018
872	-0.019
872	-0.02
872	-0.021
873	-0.021
873	-0.022
874	-0.023
874	-0.024
875	-0.025
875	-0.026
875	-0.026
876	-0.027
876	-0.028
877	-0.028
877	-0.029
878	-0.029
878	-0.03
878	-0.03
879	-0.03
879	-0.03
880	-0.03
880	-0.03
881	-0.03
881	-0.03
881	-0.029
882	-0.029
882	-0.029
883	-0.028
883	-0.028
884	-0.028
884	-0.028
884	-0.027
885	-0.027
885	-0.026
886	-0.026
886	-0.026
887	-0.025
887	-0.025
887	-0.025
888	-0.024
888	-0.024
889	-0.023
889	-0.022
890	-0.021
890	-0.021
890	-0.02
891	-0.019
891	-0.019
892	-0.018
892	-0.017
893	-0.016
893	-0.015
893	-0.014
894	-0.014
894	-0.013
895	-0.013
895	-0.012
895	-0.013
896	-0.013
896	-0.013
897	-0.013
897	-0.013
898	-0.014
898	-0.014
898	-0.015
899	-0.016
899	-0.017
900	-0.017
900	-0.018
901	-0.019
901	-0.019
901	-0.02
902	-0.021
902	-0.021
903	-0.022
903	-0.022
904	-0.023
904	-0.023
904	-0.023
905	-0.024
905	-0.024
906	-0.024
906	-0.024
907	-0.023
907	-0.023
907	-0.023
908	-0.022
908	-0.021
909	-0.021
909	-0.02
910	-0.019
910	-0.019
910	-0.018
911	-0.018
911	-0.017
912	-0.017
912	-0.016
913	-0.015
913	-0.014
913	-0.014
914	-0.013
914	-0.012
915	-0.012
915	-0.011
916	-0.011
916	-0.011
916	-0.011
917	-0.011
917	-0.012
918	-0.012
918	-0.012
918	-0.013
919	-0.013
919	-0.013
920	-0.013
920	-0.013
921	-0.013
921	-0.014
921	-0.014
922	-0.015
922	-0.015
923	-0.016
923	-0.017
924	-0.018
924	-0.018
924	-0.019
925	-0.019
925	-0.02
926	-0.02
926	-0.02
927	-0.02
927	-0.021
927	-0.02
928	-0.02
928	-0.02
929	-0.02
929	-0.021
930	-0.021
930	-0.021
930	-0.021
931	-0.021
931	-0.021
932	-0.02
932	-0.02
933	-0.02
933	-0.019
933	-0.019
934	-0.019
934	-0.019
935	-0.019
935	-0.019
935	-0.02
936	-0.02
936	-0.02
937	-0.021
937	-0.021
938	-0.022
938	-0.022
938	-0.023
939	-0.023
939	-0.023
940	-0.024
940	-0.024
941	-0.024
941	-0.024
941	-0.024
942	-0.024
942	-0.024
943	-0.024
943	-0.025
944	-0.025
944	-0.024
944	-0.024
945	-0.024
945	-0.024
946	-0.024
946	-0.024
946	-0.024
947	-0.023
947	-0.023
948	-0.023
948	-0.023
949	-0.023
949	-0.022
949	-0.022
950	-0.022
950	-0.021
951	-0.021
951	-0.02
952	-0.02
952	-0.02
952	-0.02
953	-0.019
953	-0.019
954	-0.019
954	-0.018
955	-0.018
955	-0.018
955	-0.018
956	-0.017
956	-0.017
957	-0.017
957	-0.017
957	-0.017
958	-0.017
958	-0.017
959	-0.017
959	-0.018
960	-0.018
960	-0.019
960	-0.019
961	-0.02
961	-0.021
962	-0.021
962	-0.022
963	-0.022
963	-0.022
963	-0.022
964	-0.022
964	-0.022
965	-0.022
965	-0.022
966	-0.022
966	-0.023
966	-0.023
967	-0.024
967	-0.025
968	-0.026
968	-0.027
968	-0.028
969	-0.028
969	-0.029
970	-0.029
970	-0.03
971	-0.03
971	-0.03
971	-0.029
972	-0.029
972	-0.028
973	-0.027
973	-0.026
974	-0.026
974	-0.025
974	-0.024
975	-0.023
975	-0.022
976	-0.022
976	-0.021
976	-0.021
977	-0.021
977	-0.021
978	-0.021
978	-0.021
979	-0.021
979	-0.021
979	-0.021
980	-0.021
980	-0.021
981	-0.021
981	-0.02
982	-0.02
982	-0.019
982	-0.019
983	-0.018
983	-0.017
984	-0.016
984	-0.016
984	-0.016
985	-0.016
985	-0.016
986	-0.017
986	-0.018
987	-0.018
987	-0.019
987	-0.02
988	-0.02
988	-0.021
989	-0.022
989	-0.023
990	-0.023
990	-0.024
990	-0.024
991	-0.024
991	-0.024
992	-0.025
992	-0.025
992	-0.026
993	-0.027
993	-0.027
994	-0.028
994	-0.028
995	-0.029
995	-0.029
995	-0.03
996	-0.03
996	-0.031
997	-0.031
997	-0.031
997	-0.031
998	-0.031
998	-0.03
999	-0.03
999	-0.03
1000	-0.029
1000	-0.028
1000	-0.028
1001	-0.027
1001	-0.027
1002	-0.026
1002	-0.026
1003	-0.026
1003	-0.026
1003	-0.026
1004	-0.027
1004	-0.027
1005	-0.027
1005	-0.027
1005	-0.027
1006	-0.027
1006	-0.027
1007	-0.027
1007	-0.027
1008	-0.027
1008	-0.026
1008	-0.026
1009	-0.025
1009	-0.025
1010	-0.024
1010	-0.024
1010	-0.023
1011	-0.023
1011	-0.023
1012	-0.023
1012	-0.023
1013	-0.024
1013	-0.024
1013	-0.025
1014	-0.025
1014	-0.026
1015	-0.026
1015	-0.027
1016	-0.028
1016	-0.028
1016	-0.029
1017	-0.029
1017	-0.03
1018	-0.03
1018	-0.031
1018	-0.031
1019	-0.031
1019	-0.031
1020	-0.032
1020	-0.032
1021	-0.033
1021	-0.033
1021	-0.033
1022	-0.034
1022	-0.034
1023	-0.034
1023	-0.035
1023	-0.035
1024	-0.035
1024	-0.036
1025	-0.036
1025	-0.036
1026	-0.036
1026	-0.036
1026	-0.036
1027	-0.036
1027	-0.036
1028	-0.036
1028	-0.035
1028	-0.035
1029	-0.035
1029	-0.034
1030	-0.034
1030	-0.034
1031	-0.033
1031	-0.033
1031	-0.032
1032	-0.032
1032	-0.031
1033	-0.031
1033	-0.031
1033	-0.031
1034	-0.031
1034	-0.031
1035	-0.031
1035	-0.032
1036	-0.032
1036	-0.033
1036	-0.033
1037	-0.033
1037	-0.033
1038	-0.033
1038	-0.033
1039	-0.033
1039	-0.032
1039	-0.032
1040	-0.032
1040	-0.032
1041	-0.032
1041	-0.033
1041	-0.033
1042	-0.033
1042	-0.034
1043	-0.034
1043	-0.035
1044	-0.036
1044	-0.036
1044	-0.037
1045	-0.037
1045	-0.037
1046	-0.038
1046	-0.038
1046	-0.038
1047	-0.038
1047	-0.037
1048	-0.037
1048	-0.037
1049	-0.037
1049	-0.037
1049	-0.037
1050	-0.037
1050	-0.037
1051	-0.038
1051	-0.038
1051	-0.039
1052	-0.039
1052	-0.039
1053	-0.04
1053	-0.04
1053	-0.041
1054	-0.042
1054	-0.042
1055	-0.043
1055	-0.043
1056	-0.043
1056	-0.044
1056	-0.045
1057	-0.046
1057	-0.047
1058	-0.048
1058	-0.049
1058	-0.049
1059	-0.05
1059	-0.05
1060	-0.051
1060	-0.051
1061	-0.051
1061	-0.051
1061	-0.052
1062	-0.052
1062	-0.052
1063	-0.052
1063	-0.053
1063	-0.054
1064	-0.054
1064	-0.054
1065	-0.055
1065	-0.055
1066	-0.055
1066	-0.055
1066	-0.054
1067	-0.054
1067	-0.053
1068	-0.053
1068	-0.052
1068	-0.052
1069	-0.051
1069	-0.05
1070	-0.05
1070	-0.05
1071	-0.049
1071	-0.049
1071	-0.049
1072	-0.049
1072	-0.049
1073	-0.048
1073	-0.048
1073	-0.048
1074	-0.048
1074	-0.048
1075	-0.049
1075	-0.049
1076	-0.05
1076	-0.05
1076	-0.051
1077	-0.051
1077	-0.052
1078	-0.052
1078	-0.053
1078	-0.053
1079	-0.053
1079	-0.052
1080	-0.052
1080	-0.052
1080	-0.052
1081	-0.052
1081	-0.052
1082	-0.052
1082	-0.053
1083	-0.054
1083	-0.054
1083	-0.056
1084	-0.056
1084	-0.057
1085	-0.058
1085	-0.058
1085	-0.059
1086	-0.06
1086	-0.061
1087	-0.061
1087	-0.061
1088	-0.062
1088	-0.062
1088	-0.063
1089	-0.063
1089	-0.065
1090	-0.066
1090	-0.067
1090	-0.067
1091	-0.068
1091	-0.068
1092	-0.068
1092	-0.068
1092	-0.068
1093	-0.069
1093	-0.069
1094	-0.069
1094	-0.07
1095	-0.07
1095	-0.07
1095	-0.071
1096	-0.072
1096	-0.072
1097	-0.073
1097	-0.075
1097	-0.075
1098	-0.076
1098	-0.078
1099	-0.078
1099	-0.079
1100	-0.081
1100	-0.082
1100	-0.083
1101	-0.084
1101	-0.085
1102	-0.085
1102	-0.087
1102	-0.088
1103	-0.089
1103	-0.089
1104	-0.09
1104	-0.091
1104	-0.091
1105	-0.093
1105	-0.094
1106	-0.096
1106	-0.098
1107	-0.1
1107	-0.101
1107	-0.104
1108	-0.105
1108	-0.108
1109	-0.109
1109	-0.113
1109	-0.114
1110	-0.115
1110	-0.117
1111	-0.12
1111	-0.117
