Data from 2024-02-020100ns-20nr-25nacl-100h2o-7bp2-hysteresis-40to10-1cpm-1-5a-808_Absorbance__115__00360.txt Node

Date: Fri Feb 02 14:13:35 CET 2024
User: Marek
Spectrometer: MAYP115816
Trigger mode: 0
Integration Time (sec): 1.900000E-1
Scans to average: 10
Electric dark correction enabled: true
Nonlinearity correction enabled: true
Boxcar width: 5
XAxis mode: Wavelengths
Number of Pixels in Spectrum: 2068
>>>>>Begin Spectral Data<<<<<
199	-0.468
199	-0.443
200	-0.382
200	-0.326
201	-0.295
201	-0.274
202	-0.252
202	-0.244
203	-0.236
203	-0.231
204	-0.218
204	-0.202
205	-0.188
205	-0.182
205	-0.183
206	-0.182
206	-0.185
207	-0.182
207	-0.182
208	-0.183
208	-0.185
209	-0.184
209	-0.19
210	-0.192
210	-0.193
211	-0.194
211	-0.195
212	-0.196
212	-0.197
213	-0.199
213	-0.198
213	-0.2
214	-0.198
214	-0.196
215	-0.194
215	-0.2
216	-0.201
216	-0.203
217	-0.201
217	-0.203
218	-0.202
218	-0.199
219	-0.192
219	-0.193
220	-0.191
220	-0.192
221	-0.187
221	-0.184
221	-0.181
222	-0.177
222	-0.171
223	-0.166
223	-0.166
224	-0.166
224	-0.161
225	-0.155
225	-0.15
226	-0.143
226	-0.132
227	-0.123
227	-0.117
228	-0.106
228	-0.095
229	-0.08
229	-0.059
229	-0.038
230	-0.016
230	0.01
231	0.036
231	0.065
232	0.092
232	0.122
233	0.15
233	0.181
234	0.209
234	0.238
235	0.264
235	0.286
236	0.308
236	0.329
236	0.349
237	0.368
237	0.385
238	0.401
238	0.413
239	0.427
239	0.436
240	0.446
240	0.455
241	0.462
241	0.468
242	0.474
242	0.479
243	0.485
243	0.489
243	0.493
244	0.497
244	0.5
245	0.503
245	0.506
246	0.509
246	0.512
247	0.514
247	0.516
248	0.518
248	0.52
249	0.523
249	0.524
250	0.526
250	0.529
250	0.531
251	0.532
251	0.534
252	0.536
252	0.537
253	0.539
253	0.541
254	0.541
254	0.543
255	0.544
255	0.545
256	0.546
256	0.547
257	0.547
257	0.548
258	0.548
258	0.548
258	0.548
259	0.548
259	0.548
260	0.548
260	0.547
261	0.547
261	0.547
262	0.546
262	0.546
263	0.545
263	0.544
264	0.543
264	0.541
265	0.54
265	0.539
265	0.538
266	0.536
266	0.535
267	0.533
267	0.531
268	0.529
268	0.527
269	0.526
269	0.523
270	0.521
270	0.518
271	0.516
271	0.513
272	0.511
272	0.508
272	0.506
273	0.503
273	0.5
274	0.498
274	0.495
275	0.493
275	0.49
276	0.488
276	0.485
277	0.482
277	0.479
278	0.475
278	0.472
278	0.469
279	0.466
279	0.462
280	0.459
280	0.456
281	0.453
281	0.45
282	0.447
282	0.444
283	0.442
283	0.439
284	0.437
284	0.434
285	0.432
285	0.429
285	0.426
286	0.423
286	0.421
287	0.418
287	0.416
288	0.413
288	0.411
289	0.409
289	0.406
290	0.404
290	0.402
291	0.4
291	0.398
292	0.396
292	0.394
292	0.392
293	0.39
293	0.388
294	0.387
294	0.385
295	0.383
295	0.382
296	0.38
296	0.379
297	0.377
297	0.376
298	0.374
298	0.372
298	0.371
299	0.37
299	0.369
300	0.367
300	0.366
301	0.365
301	0.363
302	0.362
302	0.361
303	0.36
303	0.359
304	0.357
304	0.356
305	0.355
305	0.354
305	0.353
306	0.352
306	0.351
307	0.35
307	0.348
308	0.348
308	0.346
309	0.345
309	0.344
310	0.343
310	0.342
311	0.341
311	0.34
311	0.339
312	0.338
312	0.337
313	0.336
313	0.335
314	0.333
314	0.332
315	0.331
315	0.33
316	0.329
316	0.328
317	0.327
317	0.326
318	0.325
318	0.324
318	0.323
319	0.322
319	0.321
320	0.32
320	0.319
321	0.318
321	0.317
322	0.316
322	0.315
323	0.314
323	0.313
324	0.312
324	0.311
324	0.31
325	0.309
325	0.308
326	0.307
326	0.306
327	0.305
327	0.305
328	0.304
328	0.303
329	0.302
329	0.302
330	0.301
330	0.3
330	0.299
331	0.298
331	0.297
332	0.296
332	0.296
333	0.295
333	0.294
334	0.293
334	0.292
335	0.291
335	0.29
336	0.29
336	0.289
336	0.288
337	0.287
337	0.287
338	0.286
338	0.285
339	0.285
339	0.284
340	0.283
340	0.283
341	0.282
341	0.281
342	0.281
342	0.28
342	0.279
343	0.279
343	0.278
344	0.278
344	0.277
345	0.277
345	0.276
346	0.276
346	0.275
347	0.275
347	0.275
348	0.275
348	0.274
348	0.274
349	0.273
349	0.273
350	0.273
350	0.272
351	0.272
351	0.272
352	0.271
352	0.271
353	0.271
353	0.27
354	0.27
354	0.27
354	0.27
355	0.269
355	0.268
356	0.268
356	0.268
357	0.267
357	0.267
358	0.266
358	0.266
359	0.266
359	0.266
360	0.265
360	0.265
360	0.265
361	0.265
361	0.265
362	0.264
362	0.264
363	0.264
363	0.264
364	0.263
364	0.263
365	0.263
365	0.262
366	0.262
366	0.261
366	0.261
367	0.261
367	0.261
368	0.261
368	0.26
369	0.26
369	0.26
370	0.26
370	0.259
371	0.259
371	0.259
372	0.259
372	0.259
372	0.259
373	0.258
373	0.258
374	0.258
374	0.258
375	0.257
375	0.257
376	0.257
376	0.257
377	0.256
377	0.256
378	0.256
378	0.256
378	0.256
379	0.255
379	0.255
380	0.255
380	0.254
381	0.254
381	0.254
382	0.254
382	0.253
383	0.253
383	0.252
383	0.252
384	0.251
384	0.251
385	0.251
385	0.251
386	0.25
386	0.25
387	0.249
387	0.249
388	0.248
388	0.248
389	0.248
389	0.247
389	0.247
390	0.247
390	0.247
391	0.247
391	0.247
392	0.246
392	0.246
393	0.246
393	0.246
394	0.245
394	0.245
394	0.245
395	0.244
395	0.244
396	0.243
396	0.243
397	0.243
397	0.243
398	0.243
398	0.242
399	0.242
399	0.241
400	0.241
400	0.241
400	0.24
401	0.24
401	0.24
402	0.239
402	0.239
403	0.239
403	0.238
404	0.238
404	0.238
405	0.238
405	0.237
405	0.237
406	0.237
406	0.237
407	0.236
407	0.236
408	0.235
408	0.235
409	0.235
409	0.234
410	0.234
410	0.234
411	0.234
411	0.233
411	0.233
412	0.233
412	0.233
413	0.233
413	0.233
414	0.232
414	0.232
415	0.232
415	0.231
416	0.231
416	0.231
416	0.23
417	0.23
417	0.23
418	0.23
418	0.23
419	0.23
419	0.23
420	0.23
420	0.23
421	0.23
421	0.229
421	0.229
422	0.229
422	0.229
423	0.229
423	0.228
424	0.228
424	0.227
425	0.227
425	0.227
426	0.227
426	0.227
427	0.227
427	0.227
427	0.227
428	0.227
428	0.226
429	0.226
429	0.226
430	0.226
430	0.226
431	0.225
431	0.225
432	0.225
432	0.224
432	0.224
433	0.224
433	0.224
434	0.224
434	0.224
435	0.224
435	0.223
436	0.223
436	0.223
437	0.223
437	0.223
437	0.223
438	0.223
438	0.222
439	0.222
439	0.222
440	0.222
440	0.222
441	0.222
441	0.221
442	0.221
442	0.221
442	0.221
443	0.221
443	0.221
444	0.221
444	0.221
445	0.221
445	0.221
446	0.221
446	0.221
447	0.221
447	0.22
447	0.22
448	0.22
448	0.22
449	0.221
449	0.22
450	0.221
450	0.22
451	0.221
451	0.221
452	0.221
452	0.221
452	0.221
453	0.221
453	0.221
454	0.221
454	0.221
455	0.222
455	0.222
456	0.222
456	0.222
457	0.222
457	0.222
458	0.222
458	0.222
458	0.222
459	0.222
459	0.222
460	0.221
460	0.221
461	0.222
461	0.222
462	0.222
462	0.223
463	0.223
463	0.223
463	0.224
464	0.224
464	0.224
465	0.224
465	0.224
466	0.224
466	0.225
467	0.225
467	0.225
467	0.226
468	0.226
468	0.226
469	0.226
469	0.227
470	0.228
470	0.228
471	0.228
471	0.229
472	0.229
472	0.229
472	0.23
473	0.23
473	0.231
474	0.232
474	0.232
475	0.233
475	0.233
476	0.234
476	0.234
477	0.235
477	0.236
477	0.236
478	0.237
478	0.237
479	0.238
479	0.238
480	0.239
480	0.24
481	0.241
481	0.241
482	0.242
482	0.244
482	0.245
483	0.246
483	0.248
484	0.249
484	0.249
485	0.251
485	0.252
486	0.253
486	0.254
487	0.255
487	0.256
487	0.257
488	0.258
488	0.259
489	0.261
489	0.263
490	0.264
490	0.266
491	0.267
491	0.269
492	0.27
492	0.272
492	0.273
493	0.275
493	0.277
494	0.279
494	0.281
495	0.283
495	0.285
496	0.287
496	0.289
496	0.291
497	0.293
497	0.295
498	0.296
498	0.298
499	0.3
499	0.302
500	0.304
500	0.306
501	0.308
501	0.31
501	0.312
502	0.315
502	0.317
503	0.319
503	0.321
504	0.324
504	0.326
505	0.328
505	0.33
506	0.333
506	0.335
506	0.337
507	0.339
507	0.341
508	0.343
508	0.345
509	0.347
509	0.349
510	0.351
510	0.353
511	0.354
511	0.356
511	0.357
512	0.359
512	0.36
513	0.362
513	0.363
514	0.364
514	0.365
515	0.366
515	0.367
515	0.369
516	0.37
516	0.371
517	0.372
517	0.373
518	0.374
518	0.375
519	0.376
519	0.377
520	0.377
520	0.378
520	0.379
521	0.379
521	0.379
522	0.379
522	0.379
523	0.379
523	0.38
524	0.379
524	0.379
524	0.379
525	0.378
525	0.378
526	0.377
526	0.377
527	0.376
527	0.375
528	0.374
528	0.373
529	0.372
529	0.372
529	0.37
530	0.369
530	0.368
531	0.367
531	0.366
532	0.364
532	0.363
533	0.361
533	0.36
533	0.358
534	0.356
534	0.355
535	0.353
535	0.352
536	0.35
536	0.348
537	0.346
537	0.343
538	0.341
538	0.339
538	0.336
539	0.334
539	0.332
540	0.329
540	0.327
541	0.324
541	0.321
542	0.318
542	0.315
542	0.313
543	0.31
543	0.307
544	0.304
544	0.302
545	0.3
545	0.297
546	0.294
546	0.291
547	0.288
547	0.285
547	0.283
548	0.28
548	0.277
549	0.274
549	0.271
550	0.268
550	0.264
551	0.261
551	0.258
551	0.255
552	0.253
552	0.25
553	0.248
553	0.245
554	0.242
554	0.239
555	0.236
555	0.233
556	0.23
556	0.227
556	0.224
557	0.221
557	0.218
558	0.216
558	0.213
559	0.21
559	0.207
560	0.205
560	0.202
560	0.2
561	0.198
561	0.196
562	0.193
562	0.19
563	0.187
563	0.184
564	0.181
564	0.178
564	0.175
565	0.173
565	0.17
566	0.167
566	0.164
567	0.161
567	0.159
568	0.157
568	0.155
568	0.153
569	0.151
569	0.149
570	0.147
570	0.145
571	0.144
571	0.142
572	0.14
572	0.138
573	0.137
573	0.135
573	0.133
574	0.132
574	0.13
575	0.129
575	0.128
576	0.127
576	0.124
577	0.122
577	0.121
577	0.12
578	0.118
578	0.118
579	0.117
579	0.116
580	0.114
580	0.111
581	0.109
581	0.108
581	0.107
582	0.107
582	0.106
583	0.105
583	0.103
584	0.1
584	0.097
585	0.097
585	0.097
585	0.096
586	0.095
586	0.095
587	0.093
587	0.091
588	0.09
588	0.089
589	0.088
589	0.088
590	0.087
590	0.087
590	0.088
591	0.087
591	0.086
592	0.085
592	0.084
593	0.084
593	0.083
594	0.083
594	0.082
594	0.081
595	0.081
595	0.079
596	0.079
596	0.08
597	0.081
597	0.081
598	0.081
598	0.081
598	0.081
599	0.081
599	0.079
600	0.078
600	0.077
601	0.077
601	0.075
602	0.074
602	0.074
602	0.073
603	0.074
603	0.074
604	0.075
604	0.076
605	0.077
605	0.078
606	0.078
606	0.077
606	0.077
607	0.076
607	0.076
608	0.075
608	0.074
609	0.073
609	0.073
610	0.072
610	0.071
610	0.071
611	0.072
611	0.073
612	0.074
612	0.076
613	0.077
613	0.078
614	0.078
614	0.078
614	0.078
615	0.078
615	0.078
616	0.077
616	0.077
617	0.077
617	0.076
618	0.076
618	0.076
618	0.077
619	0.078
619	0.08
620	0.082
620	0.082
621	0.083
621	0.083
622	0.084
622	0.084
622	0.084
623	0.084
623	0.085
624	0.085
624	0.085
625	0.085
625	0.086
626	0.086
626	0.087
626	0.088
627	0.089
627	0.091
628	0.092
628	0.093
629	0.093
629	0.094
630	0.095
630	0.096
630	0.097
631	0.098
631	0.099
632	0.1
632	0.101
633	0.102
633	0.104
634	0.106
634	0.108
634	0.11
635	0.112
635	0.114
636	0.116
636	0.118
637	0.119
637	0.121
638	0.123
638	0.124
638	0.126
639	0.127
639	0.129
640	0.131
640	0.132
641	0.134
641	0.136
642	0.138
642	0.141
642	0.143
643	0.146
643	0.149
644	0.152
644	0.155
645	0.158
645	0.161
646	0.164
646	0.167
646	0.171
647	0.174
647	0.177
648	0.179
648	0.181
649	0.183
649	0.186
650	0.189
650	0.191
650	0.193
651	0.196
651	0.199
652	0.202
652	0.205
653	0.209
653	0.217
653	0.218
654	0.17
654	0.135
655	0.139
655	0.141
656	0.143
656	0.145
657	0.147
657	0.149
657	0.15
658	0.148
658	0.143
659	0.187
659	0.25
660	0.258
660	0.261
661	0.264
661	0.267
661	0.271
662	0.275
662	0.279
663	0.282
663	0.285
664	0.289
664	0.292
665	0.295
665	0.299
665	0.302
666	0.305
666	0.308
667	0.311
667	0.314
668	0.317
668	0.321
669	0.324
669	0.328
669	0.332
670	0.335
670	0.338
671	0.34
671	0.342
672	0.345
672	0.347
672	0.349
673	0.352
673	0.355
674	0.357
674	0.36
675	0.362
675	0.365
676	0.368
676	0.371
676	0.373
677	0.376
677	0.378
678	0.379
678	0.38
679	0.38
679	0.381
680	0.383
680	0.383
680	0.384
681	0.385
681	0.386
682	0.387
682	0.388
683	0.39
683	0.393
684	0.394
684	0.395
684	0.396
685	0.397
685	0.398
686	0.399
686	0.399
687	0.399
687	0.398
687	0.398
688	0.397
688	0.396
689	0.396
689	0.395
690	0.394
690	0.393
691	0.392
691	0.391
691	0.389
692	0.388
692	0.386
693	0.385
693	0.383
694	0.381
694	0.378
695	0.377
695	0.377
695	0.374
696	0.372
696	0.37
697	0.368
697	0.366
698	0.364
698	0.362
698	0.36
699	0.359
699	0.356
700	0.353
700	0.35
701	0.348
701	0.345
702	0.343
702	0.34
702	0.338
703	0.335
703	0.333
704	0.331
704	0.329
705	0.327
705	0.325
705	0.323
706	0.321
706	0.319
707	0.317
707	0.314
708	0.312
708	0.309
709	0.307
709	0.303
709	0.3
710	0.296
710	0.293
711	0.291
711	0.288
712	0.285
712	0.282
713	0.279
713	0.276
713	0.272
714	0.269
714	0.266
715	0.263
715	0.26
716	0.256
716	0.253
716	0.249
717	0.246
717	0.243
718	0.239
718	0.236
719	0.233
719	0.23
720	0.227
720	0.224
720	0.22
721	0.217
721	0.215
722	0.212
722	0.21
723	0.208
723	0.206
723	0.205
724	0.203
724	0.201
725	0.199
725	0.198
726	0.196
726	0.194
727	0.192
727	0.19
727	0.188
728	0.185
728	0.183
729	0.182
729	0.179
730	0.177
730	0.174
730	0.172
731	0.169
731	0.167
732	0.165
732	0.162
733	0.16
733	0.158
734	0.155
734	0.152
734	0.15
735	0.148
735	0.146
736	0.143
736	0.142
737	0.141
737	0.14
737	0.138
738	0.136
738	0.133
739	0.132
739	0.131
740	0.129
740	0.128
741	0.126
741	0.124
741	0.121
742	0.119
742	0.117
743	0.116
743	0.114
744	0.113
744	0.111
744	0.109
745	0.108
745	0.106
746	0.104
746	0.103
747	0.102
747	0.1
748	0.099
748	0.097
748	0.095
749	0.093
749	0.091
750	0.09
750	0.088
751	0.086
751	0.085
751	0.084
752	0.082
752	0.08
753	0.079
753	0.078
754	0.077
754	0.075
754	0.075
755	0.074
755	0.073
756	0.071
756	0.069
757	0.068
757	0.067
758	0.066
758	0.064
758	0.063
759	0.062
759	0.06
760	0.058
760	0.057
761	0.056
761	0.055
761	0.054
762	0.053
762	0.053
763	0.052
763	0.051
764	0.049
764	0.048
764	0.046
765	0.045
765	0.044
766	0.044
766	0.043
767	0.042
767	0.04
768	0.037
768	0.036
768	0.035
769	0.034
769	0.033
770	0.031
770	0.029
771	0.027
771	0.025
771	0.023
772	0.021
772	0.02
773	0.019
773	0.017
774	0.015
774	0.014
775	0.012
775	0.011
775	0.009
776	0.007
776	0.006
777	0.004
777	0.002
778	0.001
778	-0.001
778	-0.003
779	-0.003
779	-0.004
780	-0.006
780	-0.007
781	-0.008
781	-0.009
781	-0.011
782	-0.012
782	-0.013
783	-0.014
783	-0.014
784	-0.016
784	-0.017
784	-0.019
785	-0.02
785	-0.022
786	-0.023
786	-0.024
787	-0.025
787	-0.027
788	-0.029
788	-0.032
788	-0.035
789	-0.038
789	-0.041
790	-0.043
790	-0.046
791	-0.05
791	-0.054
791	-0.058
792	-0.059
792	-0.058
793	-0.061
793	-0.064
794	-0.067
794	-0.072
794	-0.078
795	-0.083
795	-0.087
796	-0.093
796	-0.1
797	-0.11
797	-0.122
797	-0.129
798	-0.137
798	-0.144
799	-0.15
799	-0.154
800	-0.159
800	-0.163
801	-0.168
801	-0.17
801	-0.171
802	-0.173
802	-0.174
803	-0.174
803	-0.174
804	-0.173
804	-0.167
804	-0.16
805	-0.156
805	-0.153
806	-0.151
806	-0.149
807	-0.148
807	-0.147
807	-0.145
808	-0.142
808	-0.14
809	-0.14
809	-0.142
810	-0.14
810	-0.136
810	-0.132
811	-0.127
811	-0.119
812	-0.111
812	-0.103
813	-0.097
813	-0.091
813	-0.085
814	-0.08
814	-0.074
815	-0.068
815	-0.062
816	-0.058
816	-0.055
817	-0.052
817	-0.049
817	-0.046
818	-0.043
818	-0.039
819	-0.036
819	-0.034
820	-0.032
820	-0.031
820	-0.028
821	-0.026
821	-0.024
822	-0.022
822	-0.021
823	-0.019
823	-0.019
823	-0.019
824	-0.018
824	-0.017
825	-0.016
825	-0.015
826	-0.014
826	-0.015
826	-0.015
827	-0.015
827	-0.015
828	-0.015
828	-0.015
829	-0.015
829	-0.015
829	-0.015
830	-0.016
830	-0.016
831	-0.015
831	-0.015
832	-0.015
832	-0.015
832	-0.014
833	-0.014
833	-0.013
834	-0.013
834	-0.012
835	-0.011
835	-0.011
835	-0.011
836	-0.01
836	-0.009
837	-0.009
837	-0.008
838	-0.008
838	-0.008
839	-0.008
839	-0.009
839	-0.009
840	-0.01
840	-0.011
841	-0.012
841	-0.013
842	-0.013
842	-0.014
842	-0.015
843	-0.015
843	-0.016
844	-0.015
844	-0.015
845	-0.015
845	-0.015
845	-0.015
846	-0.014
846	-0.014
847	-0.014
847	-0.014
848	-0.013
848	-0.013
848	-0.013
849	-0.013
849	-0.013
850	-0.013
850	-0.013
851	-0.013
851	-0.012
851	-0.013
852	-0.013
852	-0.014
853	-0.014
853	-0.014
854	-0.015
854	-0.015
854	-0.015
855	-0.015
855	-0.015
856	-0.016
856	-0.017
857	-0.017
857	-0.018
857	-0.018
858	-0.019
858	-0.02
859	-0.021
859	-0.021
860	-0.022
860	-0.022
860	-0.022
861	-0.022
861	-0.023
862	-0.023
862	-0.024
863	-0.024
863	-0.023
863	-0.023
864	-0.022
864	-0.022
865	-0.021
865	-0.02
866	-0.019
866	-0.018
866	-0.016
867	-0.015
867	-0.015
868	-0.014
868	-0.015
869	-0.015
869	-0.016
869	-0.017
870	-0.017
870	-0.018
871	-0.019
871	-0.02
872	-0.021
872	-0.022
872	-0.022
873	-0.023
873	-0.023
874	-0.024
874	-0.025
875	-0.025
875	-0.026
875	-0.027
876	-0.027
876	-0.028
877	-0.028
877	-0.029
878	-0.03
878	-0.03
878	-0.03
879	-0.03
879	-0.03
880	-0.031
880	-0.031
881	-0.031
881	-0.031
881	-0.03
882	-0.03
882	-0.029
883	-0.029
883	-0.029
884	-0.028
884	-0.028
884	-0.028
885	-0.027
885	-0.027
886	-0.027
886	-0.026
887	-0.026
887	-0.026
887	-0.026
888	-0.025
888	-0.025
889	-0.024
889	-0.023
890	-0.022
890	-0.021
890	-0.02
891	-0.02
891	-0.019
892	-0.018
892	-0.017
893	-0.016
893	-0.015
893	-0.015
894	-0.014
894	-0.014
895	-0.013
895	-0.013
895	-0.013
896	-0.014
896	-0.014
897	-0.014
897	-0.014
898	-0.015
898	-0.015
898	-0.016
899	-0.017
899	-0.018
900	-0.019
900	-0.02
901	-0.02
901	-0.021
901	-0.021
902	-0.022
902	-0.023
903	-0.023
903	-0.024
904	-0.024
904	-0.025
904	-0.026
905	-0.026
905	-0.026
906	-0.026
906	-0.026
907	-0.025
907	-0.025
907	-0.024
908	-0.024
908	-0.023
909	-0.022
909	-0.021
910	-0.021
910	-0.02
910	-0.019
911	-0.019
911	-0.018
912	-0.017
912	-0.016
913	-0.016
913	-0.015
913	-0.014
914	-0.014
914	-0.013
915	-0.012
915	-0.012
916	-0.012
916	-0.012
916	-0.012
917	-0.013
917	-0.013
918	-0.014
918	-0.014
918	-0.014
919	-0.015
919	-0.015
920	-0.014
920	-0.014
921	-0.014
921	-0.015
921	-0.015
922	-0.016
922	-0.016
923	-0.017
923	-0.018
924	-0.018
924	-0.019
924	-0.02
925	-0.02
925	-0.021
926	-0.021
926	-0.022
927	-0.022
927	-0.022
927	-0.022
928	-0.023
928	-0.023
929	-0.023
929	-0.023
930	-0.024
930	-0.024
930	-0.024
931	-0.024
931	-0.023
932	-0.023
932	-0.023
933	-0.022
933	-0.022
933	-0.022
934	-0.021
934	-0.021
935	-0.021
935	-0.022
935	-0.022
936	-0.022
936	-0.022
937	-0.023
937	-0.023
938	-0.023
938	-0.024
938	-0.024
939	-0.025
939	-0.025
940	-0.025
940	-0.025
941	-0.025
941	-0.025
941	-0.025
942	-0.025
942	-0.025
943	-0.025
943	-0.026
944	-0.026
944	-0.025
944	-0.025
945	-0.025
945	-0.025
946	-0.025
946	-0.025
946	-0.025
947	-0.025
947	-0.024
948	-0.024
948	-0.024
949	-0.024
949	-0.023
949	-0.023
950	-0.022
950	-0.022
951	-0.022
951	-0.022
952	-0.022
952	-0.022
952	-0.022
953	-0.021
953	-0.021
954	-0.021
954	-0.021
955	-0.021
955	-0.02
955	-0.02
956	-0.019
956	-0.019
957	-0.019
957	-0.018
957	-0.018
958	-0.018
958	-0.018
959	-0.018
959	-0.019
960	-0.019
960	-0.02
960	-0.02
961	-0.021
961	-0.022
962	-0.022
962	-0.022
963	-0.022
963	-0.022
963	-0.022
964	-0.022
964	-0.022
965	-0.022
965	-0.022
966	-0.022
966	-0.022
966	-0.023
967	-0.024
967	-0.025
968	-0.026
968	-0.027
968	-0.028
969	-0.029
969	-0.029
970	-0.03
970	-0.03
971	-0.03
971	-0.03
971	-0.03
972	-0.029
972	-0.029
973	-0.028
973	-0.027
974	-0.027
974	-0.026
974	-0.025
975	-0.024
975	-0.023
976	-0.023
976	-0.022
976	-0.022
977	-0.022
977	-0.022
978	-0.022
978	-0.022
979	-0.022
979	-0.022
979	-0.022
980	-0.022
980	-0.022
981	-0.022
981	-0.021
982	-0.021
982	-0.02
982	-0.019
983	-0.019
983	-0.018
984	-0.017
984	-0.017
984	-0.017
985	-0.017
985	-0.017
986	-0.018
986	-0.019
987	-0.02
987	-0.02
987	-0.021
988	-0.022
988	-0.023
989	-0.024
989	-0.024
990	-0.025
990	-0.026
990	-0.026
991	-0.026
991	-0.027
992	-0.027
992	-0.028
992	-0.028
993	-0.029
993	-0.03
994	-0.03
994	-0.031
995	-0.031
995	-0.032
995	-0.032
996	-0.033
996	-0.033
997	-0.033
997	-0.033
997	-0.033
998	-0.033
998	-0.032
999	-0.032
999	-0.031
1000	-0.031
1000	-0.03
1000	-0.03
1001	-0.029
1001	-0.029
1002	-0.028
1002	-0.028
1003	-0.028
1003	-0.028
1003	-0.028
1004	-0.028
1004	-0.028
1005	-0.028
1005	-0.028
1005	-0.029
1006	-0.029
1006	-0.029
1007	-0.028
1007	-0.028
1008	-0.028
1008	-0.027
1008	-0.027
1009	-0.026
1009	-0.025
1010	-0.025
1010	-0.024
1010	-0.024
1011	-0.024
1011	-0.024
1012	-0.024
1012	-0.024
1013	-0.025
1013	-0.025
1013	-0.026
1014	-0.027
1014	-0.027
1015	-0.028
1015	-0.029
1016	-0.03
1016	-0.03
1016	-0.031
1017	-0.031
1017	-0.031
1018	-0.032
1018	-0.032
1018	-0.032
1019	-0.032
1019	-0.032
1020	-0.032
1020	-0.032
1021	-0.033
1021	-0.033
1021	-0.034
1022	-0.034
1022	-0.034
1023	-0.035
1023	-0.035
1023	-0.036
1024	-0.036
1024	-0.036
1025	-0.036
1025	-0.036
1026	-0.036
1026	-0.036
1026	-0.036
1027	-0.037
1027	-0.037
1028	-0.036
1028	-0.036
1028	-0.036
1029	-0.036
1029	-0.036
1030	-0.036
1030	-0.035
1031	-0.035
1031	-0.035
1031	-0.034
1032	-0.034
1032	-0.034
1033	-0.033
1033	-0.033
1033	-0.033
1034	-0.033
1034	-0.033
1035	-0.033
1035	-0.034
1036	-0.034
1036	-0.035
1036	-0.035
1037	-0.035
1037	-0.035
1038	-0.036
1038	-0.035
1039	-0.035
1039	-0.035
1039	-0.035
1040	-0.035
1040	-0.035
1041	-0.035
1041	-0.036
1041	-0.036
1042	-0.036
1042	-0.037
1043	-0.037
1043	-0.038
1044	-0.038
1044	-0.039
1044	-0.039
1045	-0.04
1045	-0.04
1046	-0.04
1046	-0.04
1046	-0.04
1047	-0.04
1047	-0.04
1048	-0.04
1048	-0.039
1049	-0.039
1049	-0.039
1049	-0.039
1050	-0.039
1050	-0.039
1051	-0.04
1051	-0.04
1051	-0.04
1052	-0.041
1052	-0.041
1053	-0.042
1053	-0.042
1053	-0.043
1054	-0.044
1054	-0.044
1055	-0.044
1055	-0.045
1056	-0.045
1056	-0.045
1056	-0.046
1057	-0.047
1057	-0.047
1058	-0.048
1058	-0.049
1058	-0.049
1059	-0.049
1059	-0.05
1060	-0.05
1060	-0.051
1061	-0.051
1061	-0.051
1061	-0.05
1062	-0.051
1062	-0.051
1063	-0.052
1063	-0.053
1063	-0.053
1064	-0.054
1064	-0.054
1065	-0.055
1065	-0.055
1066	-0.055
1066	-0.055
1066	-0.055
1067	-0.054
1067	-0.054
1068	-0.053
1068	-0.053
1068	-0.052
1069	-0.051
1069	-0.05
1070	-0.05
1070	-0.05
1071	-0.049
1071	-0.049
1071	-0.049
1072	-0.049
1072	-0.049
1073	-0.049
1073	-0.049
1073	-0.049
1074	-0.049
1074	-0.049
1075	-0.049
1075	-0.05
1076	-0.05
1076	-0.051
1076	-0.051
1077	-0.052
1077	-0.052
1078	-0.052
1078	-0.053
1078	-0.053
1079	-0.053
1079	-0.052
1080	-0.052
1080	-0.052
1080	-0.051
1081	-0.051
1081	-0.051
1082	-0.051
1082	-0.053
1083	-0.053
1083	-0.054
1083	-0.055
1084	-0.055
1084	-0.056
1085	-0.057
1085	-0.057
1085	-0.058
1086	-0.059
1086	-0.059
1087	-0.059
1087	-0.059
1088	-0.06
1088	-0.06
1088	-0.061
1089	-0.062
1089	-0.063
1090	-0.064
1090	-0.065
1090	-0.066
1091	-0.067
1091	-0.067
1092	-0.068
1092	-0.068
1092	-0.068
1093	-0.069
1093	-0.069
1094	-0.07
1094	-0.07
1095	-0.071
1095	-0.072
1095	-0.071
1096	-0.072
1096	-0.073
1097	-0.074
1097	-0.075
1097	-0.075
1098	-0.076
1098	-0.077
1099	-0.077
1099	-0.078
1100	-0.079
1100	-0.081
1100	-0.082
1101	-0.084
1101	-0.085
1102	-0.086
1102	-0.088
1102	-0.089
1103	-0.09
1103	-0.091
1104	-0.091
1104	-0.093
1104	-0.092
1105	-0.094
1105	-0.095
1106	-0.097
1106	-0.098
1107	-0.101
1107	-0.102
1107	-0.104
1108	-0.105
1108	-0.107
1109	-0.107
1109	-0.111
1109	-0.114
1110	-0.115
1110	-0.115
1111	-0.119
1111	-0.115
