Data from 15c-stair-power-variation_Absorbance__248__03858.txt Node

Date: Tue Jan 16 15:50:17 CET 2024
User: Marek
Spectrometer: MAYP115816
Trigger mode: 0
Integration Time (sec): 2.000000E-1
Scans to average: 10
Electric dark correction enabled: true
Nonlinearity correction enabled: true
Boxcar width: 5
XAxis mode: Wavelengths
Number of Pixels in Spectrum: 2068
>>>>>Begin Spectral Data<<<<<
199	-0.605
199	-0.533
200	-0.462
200	-0.392
201	-0.354
201	-0.33
202	-0.305
202	-0.298
203	-0.294
203	-0.286
204	-0.27
204	-0.251
205	-0.238
205	-0.231
205	-0.233
206	-0.231
206	-0.233
207	-0.232
207	-0.235
208	-0.233
208	-0.236
209	-0.231
209	-0.238
210	-0.24
210	-0.24
211	-0.241
211	-0.244
212	-0.247
212	-0.248
213	-0.247
213	-0.249
213	-0.252
214	-0.252
214	-0.249
215	-0.248
215	-0.252
216	-0.251
216	-0.254
217	-0.25
217	-0.249
218	-0.248
218	-0.244
219	-0.238
219	-0.24
220	-0.241
220	-0.244
221	-0.242
221	-0.243
221	-0.238
222	-0.234
222	-0.231
223	-0.225
223	-0.223
224	-0.223
224	-0.213
225	-0.203
225	-0.196
226	-0.19
226	-0.18
227	-0.169
227	-0.163
228	-0.15
228	-0.14
229	-0.122
229	-0.099
229	-0.079
230	-0.056
230	-0.027
231	0.002
231	0.034
232	0.06
232	0.092
233	0.124
233	0.158
234	0.186
234	0.216
235	0.242
235	0.266
236	0.289
236	0.311
236	0.332
237	0.351
237	0.367
238	0.382
238	0.396
239	0.409
239	0.42
240	0.429
240	0.438
241	0.445
241	0.451
242	0.456
242	0.462
243	0.466
243	0.47
243	0.473
244	0.477
244	0.48
245	0.482
245	0.484
246	0.487
246	0.49
247	0.491
247	0.494
248	0.496
248	0.499
249	0.5
249	0.501
250	0.503
250	0.505
250	0.506
251	0.507
251	0.509
252	0.51
252	0.511
253	0.512
253	0.513
254	0.514
254	0.515
255	0.515
255	0.516
256	0.517
256	0.517
257	0.518
257	0.518
258	0.518
258	0.518
258	0.518
259	0.518
259	0.518
260	0.518
260	0.517
261	0.516
261	0.516
262	0.515
262	0.514
263	0.513
263	0.512
264	0.511
264	0.51
265	0.509
265	0.507
265	0.506
266	0.504
266	0.502
267	0.5
267	0.498
268	0.496
268	0.494
269	0.491
269	0.489
270	0.487
270	0.484
271	0.482
271	0.479
272	0.477
272	0.474
272	0.472
273	0.469
273	0.466
274	0.464
274	0.461
275	0.458
275	0.456
276	0.453
276	0.45
277	0.448
277	0.445
278	0.442
278	0.439
278	0.436
279	0.432
279	0.428
280	0.425
280	0.422
281	0.419
281	0.416
282	0.413
282	0.41
283	0.407
283	0.404
284	0.402
284	0.4
285	0.398
285	0.395
285	0.393
286	0.391
286	0.388
287	0.386
287	0.384
288	0.382
288	0.379
289	0.377
289	0.375
290	0.373
290	0.371
291	0.369
291	0.367
292	0.365
292	0.363
292	0.361
293	0.359
293	0.358
294	0.356
294	0.354
295	0.353
295	0.351
296	0.35
296	0.348
297	0.347
297	0.346
298	0.345
298	0.344
298	0.342
299	0.341
299	0.34
300	0.339
300	0.338
301	0.337
301	0.336
302	0.335
302	0.334
303	0.333
303	0.332
304	0.331
304	0.33
305	0.329
305	0.328
305	0.327
306	0.326
306	0.325
307	0.324
307	0.323
308	0.322
308	0.322
309	0.321
309	0.32
310	0.319
310	0.318
311	0.317
311	0.316
311	0.315
312	0.314
312	0.314
313	0.313
313	0.312
314	0.311
314	0.31
315	0.309
315	0.308
316	0.308
316	0.307
317	0.306
317	0.305
318	0.304
318	0.303
318	0.303
319	0.302
319	0.301
320	0.3
320	0.299
321	0.298
321	0.297
322	0.297
322	0.296
323	0.295
323	0.295
324	0.294
324	0.293
324	0.292
325	0.291
325	0.291
326	0.29
326	0.289
327	0.288
327	0.287
328	0.287
328	0.286
329	0.285
329	0.284
330	0.284
330	0.283
330	0.282
331	0.282
331	0.281
332	0.28
332	0.28
333	0.279
333	0.278
334	0.278
334	0.277
335	0.276
335	0.275
336	0.275
336	0.274
336	0.273
337	0.273
337	0.272
338	0.272
338	0.271
339	0.27
339	0.27
340	0.269
340	0.269
341	0.268
341	0.268
342	0.268
342	0.267
342	0.267
343	0.266
343	0.266
344	0.265
344	0.265
345	0.265
345	0.264
346	0.264
346	0.264
347	0.263
347	0.263
348	0.262
348	0.262
348	0.262
349	0.262
349	0.261
350	0.261
350	0.261
351	0.26
351	0.26
352	0.26
352	0.26
353	0.259
353	0.259
354	0.258
354	0.258
354	0.258
355	0.257
355	0.257
356	0.257
356	0.256
357	0.256
357	0.256
358	0.256
358	0.255
359	0.255
359	0.255
360	0.255
360	0.255
360	0.254
361	0.254
361	0.254
362	0.255
362	0.254
363	0.254
363	0.254
364	0.254
364	0.254
365	0.254
365	0.254
366	0.254
366	0.253
366	0.253
367	0.253
367	0.253
368	0.253
368	0.253
369	0.253
369	0.253
370	0.252
370	0.252
371	0.252
371	0.252
372	0.252
372	0.251
372	0.251
373	0.251
373	0.251
374	0.25
374	0.25
375	0.25
375	0.25
376	0.249
376	0.249
377	0.249
377	0.249
378	0.249
378	0.249
378	0.249
379	0.248
379	0.248
380	0.248
380	0.248
381	0.248
381	0.248
382	0.247
382	0.247
383	0.247
383	0.246
383	0.246
384	0.246
384	0.246
385	0.245
385	0.245
386	0.245
386	0.245
387	0.245
387	0.244
388	0.244
388	0.244
389	0.243
389	0.243
389	0.243
390	0.243
390	0.242
391	0.242
391	0.242
392	0.242
392	0.242
393	0.242
393	0.242
394	0.241
394	0.241
394	0.241
395	0.241
395	0.241
396	0.241
396	0.24
397	0.24
397	0.24
398	0.24
398	0.24
399	0.24
399	0.239
400	0.239
400	0.239
400	0.238
401	0.238
401	0.237
402	0.237
402	0.237
403	0.236
403	0.236
404	0.236
404	0.235
405	0.235
405	0.235
405	0.235
406	0.235
406	0.235
407	0.235
407	0.235
408	0.235
408	0.234
409	0.234
409	0.234
410	0.234
410	0.234
411	0.234
411	0.234
411	0.234
412	0.233
412	0.233
413	0.233
413	0.233
414	0.233
414	0.232
415	0.232
415	0.232
416	0.232
416	0.231
416	0.231
417	0.231
417	0.231
418	0.231
418	0.231
419	0.232
419	0.232
420	0.232
420	0.232
421	0.231
421	0.231
421	0.231
422	0.231
422	0.231
423	0.231
423	0.23
424	0.23
424	0.229
425	0.229
425	0.229
426	0.229
426	0.229
427	0.229
427	0.229
427	0.229
428	0.229
428	0.229
429	0.229
429	0.228
430	0.228
430	0.228
431	0.228
431	0.228
432	0.228
432	0.227
432	0.227
433	0.227
433	0.227
434	0.227
434	0.227
435	0.227
435	0.227
436	0.227
436	0.227
437	0.226
437	0.226
437	0.226
438	0.226
438	0.226
439	0.226
439	0.226
440	0.226
440	0.227
441	0.227
441	0.227
442	0.227
442	0.227
442	0.228
443	0.228
443	0.228
444	0.228
444	0.228
445	0.228
445	0.228
446	0.228
446	0.228
447	0.228
447	0.228
447	0.228
448	0.227
448	0.227
449	0.227
449	0.227
450	0.227
450	0.227
451	0.227
451	0.227
452	0.227
452	0.227
452	0.227
453	0.227
453	0.227
454	0.227
454	0.227
455	0.227
455	0.227
456	0.227
456	0.228
457	0.227
457	0.228
458	0.228
458	0.228
458	0.229
459	0.229
459	0.229
460	0.229
460	0.229
461	0.229
461	0.23
462	0.231
462	0.231
463	0.232
463	0.232
463	0.232
464	0.232
464	0.233
465	0.233
465	0.233
466	0.234
466	0.234
467	0.234
467	0.234
467	0.234
468	0.234
468	0.234
469	0.234
469	0.235
470	0.236
470	0.236
471	0.237
471	0.237
472	0.237
472	0.238
472	0.238
473	0.239
473	0.24
474	0.24
474	0.24
475	0.241
475	0.241
476	0.242
476	0.243
477	0.244
477	0.244
477	0.245
478	0.246
478	0.247
479	0.248
479	0.249
480	0.249
480	0.25
481	0.251
481	0.252
482	0.253
482	0.254
482	0.255
483	0.256
483	0.258
484	0.259
484	0.259
485	0.26
485	0.262
486	0.262
486	0.263
487	0.265
487	0.266
487	0.267
488	0.268
488	0.269
489	0.27
489	0.273
490	0.274
490	0.276
491	0.278
491	0.28
492	0.281
492	0.282
492	0.284
493	0.285
493	0.287
494	0.289
494	0.291
495	0.293
495	0.294
496	0.296
496	0.298
496	0.3
497	0.302
497	0.304
498	0.305
498	0.306
499	0.308
499	0.31
500	0.312
500	0.314
501	0.316
501	0.318
501	0.319
502	0.321
502	0.323
503	0.326
503	0.328
504	0.33
504	0.332
505	0.334
505	0.336
506	0.338
506	0.34
506	0.342
507	0.344
507	0.346
508	0.348
508	0.35
509	0.352
509	0.354
510	0.356
510	0.357
511	0.359
511	0.361
511	0.363
512	0.364
512	0.366
513	0.367
513	0.368
514	0.369
514	0.371
515	0.372
515	0.373
515	0.374
516	0.375
516	0.376
517	0.377
517	0.378
518	0.378
518	0.379
519	0.38
519	0.38
520	0.381
520	0.382
520	0.382
521	0.382
521	0.383
522	0.383
522	0.383
523	0.384
523	0.384
524	0.384
524	0.384
524	0.384
525	0.384
525	0.384
526	0.384
526	0.383
527	0.383
527	0.382
528	0.381
528	0.381
529	0.38
529	0.379
529	0.377
530	0.377
530	0.376
531	0.374
531	0.374
532	0.372
532	0.371
533	0.37
533	0.368
533	0.367
534	0.365
534	0.363
535	0.361
535	0.36
536	0.358
536	0.356
537	0.354
537	0.352
538	0.35
538	0.348
538	0.346
539	0.344
539	0.342
540	0.34
540	0.338
541	0.335
541	0.333
542	0.331
542	0.328
542	0.326
543	0.323
543	0.321
544	0.318
544	0.316
545	0.314
545	0.311
546	0.309
546	0.305
547	0.302
547	0.299
547	0.296
548	0.293
548	0.291
549	0.288
549	0.285
550	0.282
550	0.279
551	0.276
551	0.274
551	0.271
552	0.269
552	0.267
553	0.264
553	0.262
554	0.259
554	0.256
555	0.253
555	0.25
556	0.248
556	0.244
556	0.241
557	0.239
557	0.237
558	0.234
558	0.231
559	0.229
559	0.227
560	0.224
560	0.222
560	0.22
561	0.219
561	0.217
562	0.215
562	0.212
563	0.209
563	0.206
564	0.204
564	0.201
564	0.199
565	0.197
565	0.195
566	0.192
566	0.19
567	0.188
567	0.186
568	0.185
568	0.182
568	0.181
569	0.179
569	0.177
570	0.174
570	0.171
571	0.17
571	0.169
572	0.166
572	0.165
573	0.162
573	0.16
573	0.157
574	0.156
574	0.155
575	0.153
575	0.153
576	0.152
576	0.148
577	0.145
577	0.144
577	0.143
578	0.143
578	0.143
579	0.143
579	0.143
580	0.14
580	0.137
581	0.134
581	0.134
581	0.134
582	0.134
582	0.134
583	0.134
583	0.132
584	0.128
584	0.124
585	0.124
585	0.125
585	0.125
586	0.124
586	0.123
587	0.121
587	0.119
588	0.118
588	0.117
589	0.118
589	0.118
590	0.118
590	0.118
590	0.119
591	0.12
591	0.119
592	0.117
592	0.116
593	0.115
593	0.115
594	0.113
594	0.112
594	0.111
595	0.111
595	0.109
596	0.108
596	0.11
597	0.112
597	0.113
598	0.112
598	0.112
598	0.112
599	0.112
599	0.111
600	0.11
600	0.109
601	0.109
601	0.108
602	0.106
602	0.106
602	0.105
603	0.105
603	0.106
604	0.106
604	0.107
605	0.107
605	0.108
606	0.107
606	0.105
606	0.105
607	0.105
607	0.105
608	0.104
608	0.102
609	0.102
609	0.102
610	0.101
610	0.1
610	0.101
611	0.102
611	0.103
612	0.104
612	0.105
613	0.106
613	0.107
614	0.107
614	0.106
614	0.106
615	0.106
615	0.106
616	0.106
616	0.106
617	0.106
617	0.106
618	0.106
618	0.107
618	0.108
619	0.11
619	0.112
620	0.114
620	0.115
621	0.116
621	0.117
622	0.117
622	0.118
622	0.118
623	0.118
623	0.12
624	0.121
624	0.12
625	0.121
625	0.122
626	0.122
626	0.123
626	0.124
627	0.125
627	0.126
628	0.127
628	0.128
629	0.129
629	0.129
630	0.129
630	0.13
630	0.132
631	0.133
631	0.133
632	0.134
632	0.135
633	0.136
633	0.138
634	0.14
634	0.142
634	0.143
635	0.144
635	0.145
636	0.147
636	0.148
637	0.15
637	0.151
638	0.153
638	0.155
638	0.156
639	0.158
639	0.159
640	0.162
640	0.164
641	0.166
641	0.169
642	0.171
642	0.174
642	0.176
643	0.178
643	0.18
644	0.183
644	0.185
645	0.187
645	0.19
646	0.193
646	0.196
646	0.199
647	0.202
647	0.204
648	0.207
648	0.21
649	0.213
649	0.216
650	0.219
650	0.221
650	0.224
651	0.226
651	0.229
652	0.232
652	0.235
653	0.239
653	0.248
653	0.25
654	0.198
654	0.16
655	0.162
655	0.164
656	0.166
656	0.168
657	0.17
657	0.171
657	0.172
658	0.169
658	0.165
659	0.21
659	0.272
660	0.284
660	0.287
661	0.289
661	0.293
661	0.297
662	0.302
662	0.305
663	0.309
663	0.313
664	0.316
664	0.319
665	0.322
665	0.326
665	0.329
666	0.332
666	0.335
667	0.337
667	0.341
668	0.344
668	0.347
669	0.351
669	0.354
669	0.358
670	0.362
670	0.365
671	0.367
671	0.369
672	0.372
672	0.374
672	0.377
673	0.379
673	0.381
674	0.383
674	0.385
675	0.387
675	0.39
676	0.393
676	0.395
676	0.397
677	0.399
677	0.401
678	0.402
678	0.402
679	0.403
679	0.405
680	0.407
680	0.407
680	0.408
681	0.409
681	0.411
682	0.412
682	0.414
683	0.416
683	0.417
684	0.418
684	0.418
684	0.417
685	0.418
685	0.418
686	0.418
686	0.418
687	0.417
687	0.417
687	0.416
688	0.416
688	0.415
689	0.415
689	0.415
690	0.414
690	0.413
691	0.412
691	0.411
691	0.41
692	0.409
692	0.408
693	0.408
693	0.408
694	0.406
694	0.405
695	0.406
695	0.406
695	0.404
696	0.402
696	0.4
697	0.399
697	0.397
698	0.395
698	0.392
698	0.39
699	0.388
699	0.384
700	0.381
700	0.38
701	0.378
701	0.375
702	0.373
702	0.37
702	0.368
703	0.365
703	0.363
704	0.36
704	0.358
705	0.355
705	0.352
705	0.348
706	0.345
706	0.343
707	0.34
707	0.337
708	0.334
708	0.332
709	0.331
709	0.328
709	0.325
710	0.323
710	0.321
711	0.319
711	0.317
712	0.315
712	0.313
713	0.31
713	0.307
713	0.304
714	0.301
714	0.299
715	0.296
715	0.293
716	0.289
716	0.286
716	0.283
717	0.279
717	0.276
718	0.273
718	0.27
719	0.268
719	0.266
720	0.264
720	0.262
720	0.259
721	0.257
721	0.255
722	0.253
722	0.25
723	0.248
723	0.246
723	0.243
724	0.239
724	0.236
725	0.233
725	0.23
726	0.228
726	0.225
727	0.222
727	0.219
727	0.217
728	0.214
728	0.213
729	0.212
729	0.21
730	0.208
730	0.207
730	0.206
731	0.205
731	0.204
732	0.203
732	0.201
733	0.199
733	0.198
734	0.196
734	0.194
734	0.193
735	0.191
735	0.189
736	0.187
736	0.185
737	0.183
737	0.182
737	0.18
738	0.177
738	0.174
739	0.172
739	0.17
740	0.169
740	0.168
741	0.167
741	0.165
741	0.164
742	0.161
742	0.161
743	0.16
743	0.159
744	0.158
744	0.157
744	0.155
745	0.153
745	0.151
746	0.15
746	0.148
747	0.147
747	0.145
748	0.143
748	0.141
748	0.138
749	0.136
749	0.134
750	0.132
750	0.13
751	0.128
751	0.127
751	0.125
752	0.123
752	0.122
753	0.121
753	0.12
754	0.119
754	0.118
754	0.118
755	0.117
755	0.116
756	0.114
756	0.111
757	0.11
757	0.109
758	0.108
758	0.106
758	0.105
759	0.103
759	0.1
760	0.098
760	0.097
761	0.096
761	0.097
761	0.096
762	0.095
762	0.095
763	0.094
763	0.092
764	0.091
764	0.09
764	0.089
765	0.089
765	0.088
766	0.088
766	0.087
767	0.086
767	0.085
768	0.084
768	0.084
768	0.084
769	0.084
769	0.083
770	0.082
770	0.081
771	0.079
771	0.078
771	0.078
772	0.077
772	0.077
773	0.077
773	0.076
774	0.075
774	0.075
775	0.075
775	0.074
775	0.073
776	0.073
776	0.072
777	0.071
777	0.07
778	0.069
778	0.068
778	0.068
779	0.069
779	0.068
780	0.067
780	0.067
781	0.067
781	0.066
781	0.066
782	0.066
782	0.066
783	0.066
783	0.065
784	0.063
784	0.062
784	0.062
785	0.061
785	0.061
786	0.06
786	0.06
787	0.06
787	0.059
788	0.058
788	0.058
788	0.058
789	0.058
789	0.059
790	0.058
790	0.058
791	0.058
791	0.057
791	0.057
792	0.059
792	0.057
793	0.056
793	0.055
794	0.055
794	0.054
794	0.054
795	0.054
795	0.054
796	0.054
796	0.053
797	0.052
797	0.054
797	0.054
798	0.053
798	0.053
799	0.053
799	0.052
800	0.051
800	0.05
801	0.05
801	0.05
801	0.048
802	0.047
802	0.047
803	0.046
803	0.046
804	0.046
804	0.046
804	0.045
805	0.045
805	0.044
806	0.044
806	0.044
807	0.044
807	0.044
807	0.044
808	0.044
808	0.044
809	0.043
809	0.043
810	0.043
810	0.043
810	0.043
811	0.042
811	0.043
812	0.043
812	0.042
813	0.042
813	0.042
813	0.042
814	0.042
814	0.043
815	0.043
815	0.043
816	0.043
816	0.043
817	0.043
817	0.043
817	0.044
818	0.044
818	0.044
819	0.043
819	0.042
820	0.041
820	0.041
820	0.04
821	0.04
821	0.039
822	0.039
822	0.038
823	0.037
823	0.036
823	0.036
824	0.036
824	0.036
825	0.035
825	0.035
826	0.034
826	0.033
826	0.032
827	0.032
827	0.032
828	0.031
828	0.031
829	0.031
829	0.031
829	0.031
830	0.032
830	0.033
831	0.035
831	0.036
832	0.036
832	0.036
832	0.037
833	0.037
833	0.036
834	0.036
834	0.035
835	0.035
835	0.034
835	0.033
836	0.033
836	0.033
837	0.033
837	0.033
838	0.034
838	0.034
839	0.035
839	0.035
839	0.035
840	0.035
840	0.035
841	0.035
841	0.035
842	0.035
842	0.035
842	0.034
843	0.033
843	0.032
844	0.032
844	0.031
845	0.031
845	0.03
845	0.03
846	0.03
846	0.03
847	0.03
847	0.03
848	0.03
848	0.03
848	0.03
849	0.03
849	0.03
850	0.03
850	0.029
851	0.029
851	0.029
851	0.028
852	0.027
852	0.027
853	0.027
853	0.027
854	0.027
854	0.027
854	0.026
855	0.026
855	0.025
856	0.025
856	0.025
857	0.025
857	0.024
857	0.024
858	0.024
858	0.023
859	0.023
859	0.023
860	0.023
860	0.022
860	0.022
861	0.022
861	0.021
862	0.02
862	0.019
863	0.018
863	0.017
863	0.017
864	0.016
864	0.015
865	0.015
865	0.015
866	0.014
866	0.015
866	0.015
867	0.016
867	0.017
868	0.018
868	0.019
869	0.02
869	0.02
869	0.02
870	0.019
870	0.019
871	0.019
871	0.018
872	0.017
872	0.016
872	0.015
873	0.015
873	0.014
874	0.013
874	0.014
875	0.014
875	0.014
875	0.014
876	0.014
876	0.014
877	0.014
877	0.014
878	0.013
878	0.013
878	0.012
879	0.012
879	0.011
880	0.011
880	0.01
881	0.01
881	0.01
881	0.011
882	0.011
882	0.011
883	0.011
883	0.012
884	0.013
884	0.014
884	0.014
885	0.014
885	0.015
886	0.015
886	0.015
887	0.015
887	0.015
887	0.015
888	0.014
888	0.014
889	0.014
889	0.014
890	0.014
890	0.015
890	0.015
891	0.015
891	0.016
892	0.016
892	0.017
893	0.017
893	0.018
893	0.019
894	0.019
894	0.019
895	0.02
895	0.02
895	0.02
896	0.021
896	0.021
897	0.022
897	0.023
898	0.023
898	0.024
898	0.024
899	0.024
899	0.024
900	0.024
900	0.024
901	0.023
901	0.023
901	0.023
902	0.022
902	0.022
903	0.021
903	0.021
904	0.02
904	0.019
904	0.019
905	0.018
905	0.017
906	0.017
906	0.016
907	0.015
907	0.014
907	0.014
908	0.013
908	0.012
909	0.012
909	0.012
910	0.012
910	0.013
910	0.013
911	0.014
911	0.014
912	0.015
912	0.016
913	0.017
913	0.018
913	0.018
914	0.018
914	0.018
915	0.018
915	0.018
916	0.017
916	0.016
916	0.015
917	0.014
917	0.013
918	0.013
918	0.013
918	0.012
919	0.012
919	0.012
920	0.012
920	0.012
921	0.012
921	0.011
921	0.011
922	0.01
922	0.009
923	0.008
923	0.008
924	0.007
924	0.006
924	0.005
925	0.004
925	0.003
926	0.002
926	0.002
927	0.001
927	0.001
927	0.001
928	0.002
928	0.003
929	0.004
929	0.005
930	0.007
930	0.009
930	0.011
931	0.013
931	0.016
932	0.018
932	0.02
933	0.021
933	0.023
933	0.024
934	0.024
934	0.024
935	0.024
935	0.023
935	0.023
936	0.022
936	0.022
937	0.021
937	0.02
938	0.02
938	0.019
938	0.019
939	0.019
939	0.019
940	0.019
940	0.019
941	0.019
941	0.019
941	0.019
942	0.018
942	0.018
943	0.017
943	0.016
944	0.016
944	0.015
944	0.015
945	0.015
945	0.014
946	0.014
946	0.013
946	0.012
947	0.012
947	0.011
948	0.01
948	0.009
949	0.009
949	0.009
949	0.008
950	0.008
950	0.008
951	0.008
951	0.007
952	0.007
952	0.007
952	0.007
953	0.006
953	0.006
954	0.006
954	0.005
955	0.004
955	0.004
955	0.004
956	0.004
956	0.004
957	0.004
957	0.004
957	0.004
958	0.004
958	0.004
959	0.004
959	0.004
960	0.004
960	0.003
960	0.003
961	0.002
961	0.002
962	0.002
962	0.001
963	0.001
963	0.001
963	0.001
964	0.001
964	0.002
965	0.003
965	0.004
966	0.005
966	0.006
966	0.007
967	0.008
967	0.008
968	0.009
968	0.009
968	0.01
969	0.009
969	0.009
970	0.009
970	0.009
971	0.008
971	0.008
971	0.008
972	0.008
972	0.008
973	0.008
973	0.009
974	0.009
974	0.01
974	0.01
975	0.011
975	0.012
976	0.012
976	0.013
976	0.014
977	0.014
977	0.014
978	0.014
978	0.014
979	0.015
979	0.015
979	0.015
980	0.015
980	0.015
981	0.015
981	0.015
982	0.016
982	0.016
982	0.017
983	0.018
983	0.018
984	0.019
984	0.019
984	0.02
985	0.02
985	0.02
986	0.019
986	0.019
987	0.018
987	0.017
987	0.016
988	0.015
988	0.015
989	0.014
989	0.013
990	0.012
990	0.012
990	0.012
991	0.012
991	0.012
992	0.012
992	0.012
992	0.012
993	0.011
993	0.011
994	0.011
994	0.01
995	0.01
995	0.009
995	0.009
996	0.008
996	0.008
997	0.007
997	0.007
997	0.007
998	0.007
998	0.007
999	0.008
999	0.008
1000	0.009
1000	0.009
1000	0.01
1001	0.01
1001	0.011
1002	0.011
1002	0.012
1003	0.012
1003	0.011
1003	0.011
1004	0.011
1004	0.01
1005	0.009
1005	0.008
1005	0.007
1006	0.006
1006	0.006
1007	0.005
1007	0.004
1008	0.004
1008	0.004
1008	0.004
1009	0.004
1009	0.005
1010	0.005
1010	0.006
1010	0.006
1011	0.006
1011	0.007
1012	0.007
1012	0.007
1013	0.007
1013	0.007
1013	0.007
1014	0.006
1014	0.005
1015	0.004
1015	0.003
1016	0.002
1016	0.001
1016	0
1017	-0.001
1017	-0.003
1018	-0.004
1018	-0.004
1018	-0.005
1019	-0.005
1019	-0.006
1020	-0.006
1020	-0.007
1021	-0.007
1021	-0.007
1021	-0.007
1022	-0.007
1022	-0.008
1023	-0.008
1023	-0.008
1023	-0.008
1024	-0.009
1024	-0.01
1025	-0.011
1025	-0.011
1026	-0.012
1026	-0.012
1026	-0.013
1027	-0.013
1027	-0.014
1028	-0.014
1028	-0.014
1028	-0.014
1029	-0.014
1029	-0.015
1030	-0.015
1030	-0.015
1031	-0.015
1031	-0.015
1031	-0.015
1032	-0.015
1032	-0.014
1033	-0.014
1033	-0.014
1033	-0.014
1034	-0.015
1034	-0.015
1035	-0.015
1035	-0.016
1036	-0.016
1036	-0.016
1036	-0.016
1037	-0.016
1037	-0.016
1038	-0.016
1038	-0.016
1039	-0.015
1039	-0.015
1039	-0.014
1040	-0.014
1040	-0.013
1041	-0.014
1041	-0.014
1041	-0.015
1042	-0.015
1042	-0.016
1043	-0.017
1043	-0.018
1044	-0.019
1044	-0.02
1044	-0.021
1045	-0.022
1045	-0.023
1046	-0.024
1046	-0.025
1046	-0.025
1047	-0.025
1047	-0.025
1048	-0.025
1048	-0.025
1049	-0.026
1049	-0.026
1049	-0.027
1050	-0.028
1050	-0.029
1051	-0.029
1051	-0.03
1051	-0.03
1052	-0.031
1052	-0.032
1053	-0.033
1053	-0.033
1053	-0.033
1054	-0.033
1054	-0.033
1055	-0.033
1055	-0.033
1056	-0.033
1056	-0.034
1056	-0.034
1057	-0.035
1057	-0.035
1058	-0.035
1058	-0.036
1058	-0.036
1059	-0.035
1059	-0.036
1060	-0.037
1060	-0.037
1061	-0.037
1061	-0.037
1061	-0.037
1062	-0.038
1062	-0.038
1063	-0.038
1063	-0.039
1063	-0.04
1064	-0.039
1064	-0.039
1065	-0.039
1065	-0.039
1066	-0.039
1066	-0.039
1066	-0.039
1067	-0.039
1067	-0.038
1068	-0.038
1068	-0.038
1068	-0.038
1069	-0.038
1069	-0.038
1070	-0.039
1070	-0.039
1071	-0.039
1071	-0.039
1071	-0.04
1072	-0.041
1072	-0.041
1073	-0.041
1073	-0.041
1073	-0.042
1074	-0.043
1074	-0.043
1075	-0.045
1075	-0.046
1076	-0.047
1076	-0.048
1076	-0.049
1077	-0.05
1077	-0.05
1078	-0.052
1078	-0.052
1078	-0.052
1079	-0.052
1079	-0.052
1080	-0.052
1080	-0.052
1080	-0.052
1081	-0.052
1081	-0.052
1082	-0.053
1082	-0.053
1083	-0.054
1083	-0.054
1083	-0.055
1084	-0.055
1084	-0.055
1085	-0.056
1085	-0.056
1085	-0.056
1086	-0.056
1086	-0.057
1087	-0.057
1087	-0.057
1088	-0.057
1088	-0.058
1088	-0.059
1089	-0.06
1089	-0.061
1090	-0.062
1090	-0.063
1090	-0.064
1091	-0.065
1091	-0.065
1092	-0.066
1092	-0.066
1092	-0.067
1093	-0.068
1093	-0.068
1094	-0.069
1094	-0.07
1095	-0.072
1095	-0.073
1095	-0.073
1096	-0.075
1096	-0.077
1097	-0.077
1097	-0.079
1097	-0.08
1098	-0.082
1098	-0.084
1099	-0.085
1099	-0.087
1100	-0.088
1100	-0.09
1100	-0.092
1101	-0.094
1101	-0.098
1102	-0.1
1102	-0.102
1102	-0.102
1103	-0.104
1103	-0.106
1104	-0.108
1104	-0.11
1104	-0.112
1105	-0.112
1105	-0.114
1106	-0.117
1106	-0.119
1107	-0.124
1107	-0.127
1107	-0.129
1108	-0.128
1108	-0.13
1109	-0.131
1109	-0.134
1109	-0.139
1110	-0.14
1110	-0.141
1111	-0.147
1111	-0.137
