Data from 15c-stair-power-variation_Absorbance__74__03684.txt Node

Date: Tue Jan 16 15:44:29 CET 2024
User: Marek
Spectrometer: MAYP115816
Trigger mode: 0
Integration Time (sec): 2.000000E-1
Scans to average: 10
Electric dark correction enabled: true
Nonlinearity correction enabled: true
Boxcar width: 5
XAxis mode: Wavelengths
Number of Pixels in Spectrum: 2068
>>>>>Begin Spectral Data<<<<<
199	-1.714
199	-1.534
200	-1.405
200	-1.289
201	-1.218
201	-1.17
202	-1.099
202	-1.044
203	-1.001
203	-0.959
204	-0.934
204	-0.91
205	-0.89
205	-0.879
205	-0.876
206	-0.872
206	-0.87
207	-0.868
207	-0.868
208	-0.864
208	-0.863
209	-0.859
209	-0.858
210	-0.857
210	-0.855
211	-0.854
211	-0.854
212	-0.853
212	-0.853
213	-0.851
213	-0.85
213	-0.852
214	-0.85
214	-0.849
215	-0.848
215	-0.848
216	-0.845
216	-0.845
217	-0.842
217	-0.84
218	-0.836
218	-0.832
219	-0.827
219	-0.827
220	-0.825
220	-0.824
221	-0.82
221	-0.819
221	-0.815
222	-0.81
222	-0.805
223	-0.801
223	-0.796
224	-0.792
224	-0.783
225	-0.774
225	-0.764
226	-0.757
226	-0.747
227	-0.734
227	-0.722
228	-0.707
228	-0.691
229	-0.671
229	-0.648
229	-0.624
230	-0.596
230	-0.566
231	-0.531
231	-0.493
232	-0.456
232	-0.415
233	-0.371
233	-0.327
234	-0.284
234	-0.239
235	-0.195
235	-0.152
236	-0.111
236	-0.07
236	-0.031
237	0.006
237	0.04
238	0.073
238	0.104
239	0.133
239	0.159
240	0.183
240	0.205
241	0.225
241	0.243
242	0.259
242	0.274
243	0.288
243	0.301
243	0.312
244	0.322
244	0.332
245	0.34
245	0.348
246	0.356
246	0.363
247	0.369
247	0.375
248	0.381
248	0.386
249	0.39
249	0.395
250	0.399
250	0.403
250	0.406
251	0.409
251	0.412
252	0.415
252	0.418
253	0.421
253	0.422
254	0.425
254	0.427
255	0.429
255	0.431
256	0.432
256	0.434
257	0.435
257	0.436
258	0.437
258	0.438
258	0.438
259	0.439
259	0.439
260	0.439
260	0.439
261	0.439
261	0.439
262	0.439
262	0.438
263	0.438
263	0.438
264	0.437
264	0.437
265	0.436
265	0.435
265	0.434
266	0.433
266	0.432
267	0.431
267	0.429
268	0.428
268	0.426
269	0.425
269	0.423
270	0.421
270	0.419
271	0.417
271	0.416
272	0.414
272	0.412
272	0.41
273	0.408
273	0.406
274	0.404
274	0.402
275	0.4
275	0.398
276	0.396
276	0.394
277	0.392
277	0.39
278	0.387
278	0.385
278	0.382
279	0.379
279	0.376
280	0.374
280	0.372
281	0.369
281	0.367
282	0.365
282	0.363
283	0.361
283	0.359
284	0.357
284	0.355
285	0.354
285	0.352
285	0.35
286	0.348
286	0.347
287	0.345
287	0.343
288	0.342
288	0.34
289	0.339
289	0.337
290	0.335
290	0.334
291	0.332
291	0.331
292	0.329
292	0.328
292	0.326
293	0.325
293	0.324
294	0.322
294	0.321
295	0.32
295	0.319
296	0.318
296	0.316
297	0.315
297	0.314
298	0.313
298	0.312
298	0.311
299	0.311
299	0.31
300	0.309
300	0.308
301	0.307
301	0.306
302	0.305
302	0.304
303	0.304
303	0.303
304	0.302
304	0.301
305	0.3
305	0.299
305	0.298
306	0.298
306	0.297
307	0.296
307	0.295
308	0.294
308	0.293
309	0.292
309	0.291
310	0.291
310	0.29
311	0.289
311	0.288
311	0.287
312	0.287
312	0.286
313	0.285
313	0.284
314	0.283
314	0.282
315	0.282
315	0.281
316	0.28
316	0.279
317	0.278
317	0.277
318	0.277
318	0.276
318	0.275
319	0.274
319	0.274
320	0.273
320	0.271
321	0.271
321	0.27
322	0.269
322	0.268
323	0.267
323	0.267
324	0.266
324	0.265
324	0.264
325	0.264
325	0.263
326	0.262
326	0.262
327	0.261
327	0.26
328	0.259
328	0.258
329	0.258
329	0.257
330	0.256
330	0.255
330	0.255
331	0.254
331	0.253
332	0.252
332	0.252
333	0.251
333	0.25
334	0.25
334	0.249
335	0.249
335	0.248
336	0.247
336	0.246
336	0.246
337	0.245
337	0.244
338	0.244
338	0.243
339	0.242
339	0.242
340	0.241
340	0.241
341	0.24
341	0.24
342	0.239
342	0.239
342	0.238
343	0.238
343	0.237
344	0.237
344	0.236
345	0.236
345	0.235
346	0.235
346	0.234
347	0.234
347	0.233
348	0.233
348	0.233
348	0.232
349	0.232
349	0.231
350	0.231
350	0.23
351	0.23
351	0.23
352	0.229
352	0.228
353	0.228
353	0.227
354	0.226
354	0.226
354	0.225
355	0.225
355	0.224
356	0.224
356	0.223
357	0.223
357	0.223
358	0.222
358	0.222
359	0.222
359	0.222
360	0.223
360	0.223
360	0.223
361	0.223
361	0.223
362	0.223
362	0.223
363	0.223
363	0.223
364	0.223
364	0.222
365	0.222
365	0.222
366	0.222
366	0.221
366	0.221
367	0.221
367	0.221
368	0.221
368	0.22
369	0.22
369	0.22
370	0.22
370	0.22
371	0.219
371	0.219
372	0.219
372	0.218
372	0.218
373	0.218
373	0.218
374	0.217
374	0.217
375	0.217
375	0.217
376	0.217
376	0.217
377	0.217
377	0.217
378	0.217
378	0.216
378	0.217
379	0.217
379	0.217
380	0.217
380	0.216
381	0.216
381	0.216
382	0.216
382	0.216
383	0.215
383	0.215
383	0.214
384	0.214
384	0.214
385	0.213
385	0.213
386	0.213
386	0.213
387	0.213
387	0.212
388	0.212
388	0.212
389	0.212
389	0.211
389	0.211
390	0.211
390	0.211
391	0.211
391	0.211
392	0.211
392	0.211
393	0.211
393	0.211
394	0.211
394	0.211
394	0.21
395	0.21
395	0.21
396	0.21
396	0.209
397	0.21
397	0.21
398	0.21
398	0.209
399	0.209
399	0.209
400	0.209
400	0.208
400	0.208
401	0.207
401	0.206
402	0.206
402	0.205
403	0.205
403	0.205
404	0.204
404	0.204
405	0.204
405	0.204
405	0.204
406	0.204
406	0.204
407	0.203
407	0.203
408	0.203
408	0.202
409	0.202
409	0.202
410	0.202
410	0.202
411	0.202
411	0.202
411	0.202
412	0.202
412	0.201
413	0.201
413	0.201
414	0.2
414	0.2
415	0.2
415	0.199
416	0.199
416	0.198
416	0.198
417	0.198
417	0.198
418	0.198
418	0.198
419	0.199
419	0.199
420	0.199
420	0.2
421	0.2
421	0.2
421	0.2
422	0.2
422	0.2
423	0.2
423	0.199
424	0.199
424	0.198
425	0.198
425	0.197
426	0.197
426	0.197
427	0.197
427	0.197
427	0.197
428	0.197
428	0.197
429	0.198
429	0.198
430	0.198
430	0.197
431	0.197
431	0.197
432	0.197
432	0.197
432	0.196
433	0.195
433	0.195
434	0.194
434	0.195
435	0.194
435	0.194
436	0.194
436	0.194
437	0.194
437	0.194
437	0.194
438	0.193
438	0.193
439	0.193
439	0.193
440	0.193
440	0.193
441	0.193
441	0.193
442	0.193
442	0.194
442	0.194
443	0.195
443	0.195
444	0.195
444	0.196
445	0.196
445	0.196
446	0.196
446	0.196
447	0.196
447	0.195
447	0.195
448	0.195
448	0.195
449	0.195
449	0.194
450	0.194
450	0.194
451	0.194
451	0.194
452	0.194
452	0.194
452	0.194
453	0.194
453	0.193
454	0.193
454	0.192
455	0.193
455	0.193
456	0.192
456	0.192
457	0.192
457	0.192
458	0.192
458	0.192
458	0.193
459	0.193
459	0.193
460	0.193
460	0.192
461	0.193
461	0.193
462	0.193
462	0.193
463	0.194
463	0.194
463	0.195
464	0.195
464	0.195
465	0.195
465	0.196
466	0.196
466	0.196
467	0.196
467	0.196
467	0.195
468	0.195
468	0.194
469	0.194
469	0.194
470	0.194
470	0.194
471	0.194
471	0.194
472	0.194
472	0.195
472	0.195
473	0.196
473	0.197
474	0.197
474	0.198
475	0.199
475	0.199
476	0.2
476	0.2
477	0.201
477	0.201
477	0.202
478	0.203
478	0.203
479	0.204
479	0.205
480	0.206
480	0.206
481	0.207
481	0.208
482	0.209
482	0.21
482	0.211
483	0.213
483	0.215
484	0.217
484	0.218
485	0.219
485	0.221
486	0.222
486	0.222
487	0.224
487	0.225
487	0.225
488	0.226
488	0.225
489	0.225
489	0.226
490	0.227
490	0.228
491	0.229
491	0.23
492	0.231
492	0.231
492	0.232
493	0.234
493	0.235
494	0.237
494	0.24
495	0.241
495	0.242
496	0.244
496	0.245
496	0.247
497	0.249
497	0.25
498	0.251
498	0.252
499	0.253
499	0.254
500	0.256
500	0.258
501	0.26
501	0.261
501	0.263
502	0.264
502	0.266
503	0.268
503	0.269
504	0.271
504	0.272
505	0.274
505	0.275
506	0.276
506	0.278
506	0.279
507	0.28
507	0.282
508	0.283
508	0.284
509	0.286
509	0.287
510	0.288
510	0.29
511	0.291
511	0.292
511	0.292
512	0.293
512	0.294
513	0.295
513	0.296
514	0.296
514	0.297
515	0.297
515	0.297
515	0.297
516	0.297
516	0.298
517	0.299
517	0.299
518	0.3
518	0.3
519	0.3
519	0.3
520	0.299
520	0.3
520	0.299
521	0.298
521	0.297
522	0.296
522	0.295
523	0.293
523	0.293
524	0.292
524	0.292
524	0.293
525	0.293
525	0.294
526	0.295
526	0.296
527	0.298
527	0.299
528	0.3
528	0.301
529	0.302
529	0.302
529	0.301
530	0.302
530	0.301
531	0.301
531	0.301
532	0.3
532	0.299
533	0.298
533	0.297
533	0.297
534	0.295
534	0.294
535	0.293
535	0.291
536	0.29
536	0.289
537	0.287
537	0.286
538	0.284
538	0.283
538	0.281
539	0.279
539	0.278
540	0.277
540	0.275
541	0.273
541	0.271
542	0.269
542	0.267
542	0.264
543	0.262
543	0.261
544	0.258
544	0.256
545	0.254
545	0.253
546	0.251
546	0.249
547	0.246
547	0.243
547	0.241
548	0.238
548	0.236
549	0.233
549	0.231
550	0.229
550	0.226
551	0.224
551	0.221
551	0.219
552	0.217
552	0.216
553	0.214
553	0.213
554	0.211
554	0.209
555	0.206
555	0.203
556	0.2
556	0.197
556	0.194
557	0.192
557	0.189
558	0.187
558	0.184
559	0.182
559	0.181
560	0.18
560	0.178
560	0.177
561	0.177
561	0.175
562	0.174
562	0.172
563	0.169
563	0.167
564	0.164
564	0.162
564	0.159
565	0.157
565	0.155
566	0.153
566	0.151
567	0.15
567	0.15
568	0.149
568	0.148
568	0.148
569	0.148
569	0.148
570	0.146
570	0.145
571	0.144
571	0.144
572	0.143
572	0.141
573	0.14
573	0.139
573	0.137
574	0.135
574	0.134
575	0.133
575	0.134
576	0.133
576	0.13
577	0.127
577	0.126
577	0.125
578	0.124
578	0.124
579	0.125
579	0.126
580	0.124
580	0.12
581	0.118
581	0.117
581	0.117
582	0.117
582	0.117
583	0.117
583	0.115
584	0.112
584	0.108
585	0.107
585	0.108
585	0.108
586	0.107
586	0.107
587	0.105
587	0.103
588	0.101
588	0.1
589	0.099
589	0.1
590	0.099
590	0.099
590	0.1
591	0.101
591	0.1
592	0.099
592	0.098
593	0.097
593	0.097
594	0.096
594	0.095
594	0.094
595	0.094
595	0.092
596	0.091
596	0.092
597	0.095
597	0.095
598	0.095
598	0.096
598	0.096
599	0.096
599	0.095
600	0.094
600	0.093
601	0.093
601	0.092
602	0.09
602	0.089
602	0.088
603	0.088
603	0.089
604	0.089
604	0.089
605	0.09
605	0.091
606	0.091
606	0.09
606	0.089
607	0.089
607	0.089
608	0.088
608	0.086
609	0.085
609	0.085
610	0.084
610	0.083
610	0.083
611	0.084
611	0.085
612	0.086
612	0.088
613	0.089
613	0.09
614	0.09
614	0.089
614	0.09
615	0.089
615	0.089
616	0.089
616	0.089
617	0.089
617	0.088
618	0.087
618	0.088
618	0.088
619	0.089
619	0.091
620	0.093
620	0.094
621	0.095
621	0.096
622	0.097
622	0.097
622	0.097
623	0.098
623	0.099
624	0.1
624	0.099
625	0.099
625	0.1
626	0.101
626	0.101
626	0.102
627	0.103
627	0.104
628	0.104
628	0.105
629	0.105
629	0.106
630	0.105
630	0.105
630	0.106
631	0.107
631	0.107
632	0.107
632	0.108
633	0.109
633	0.11
634	0.111
634	0.113
634	0.115
635	0.116
635	0.117
636	0.118
636	0.12
637	0.122
637	0.123
638	0.125
638	0.127
638	0.128
639	0.129
639	0.131
640	0.133
640	0.135
641	0.137
641	0.14
642	0.142
642	0.144
642	0.146
643	0.148
643	0.15
644	0.152
644	0.154
645	0.156
645	0.158
646	0.161
646	0.164
646	0.167
647	0.17
647	0.173
648	0.176
648	0.178
649	0.181
649	0.184
650	0.187
650	0.19
650	0.193
651	0.195
651	0.198
652	0.2
652	0.203
653	0.207
653	0.216
653	0.22
654	0.178
654	0.145
655	0.147
655	0.149
656	0.151
656	0.152
657	0.154
657	0.156
657	0.157
658	0.153
658	0.147
659	0.186
659	0.237
660	0.246
660	0.249
661	0.251
661	0.255
661	0.258
662	0.263
662	0.267
663	0.271
663	0.274
664	0.278
664	0.281
665	0.284
665	0.287
665	0.29
666	0.293
666	0.295
667	0.298
667	0.3
668	0.303
668	0.306
669	0.309
669	0.312
669	0.316
670	0.32
670	0.323
671	0.325
671	0.327
672	0.33
672	0.332
672	0.334
673	0.336
673	0.338
674	0.34
674	0.341
675	0.343
675	0.345
676	0.348
676	0.35
676	0.352
677	0.354
677	0.356
678	0.357
678	0.358
679	0.359
679	0.361
680	0.362
680	0.363
680	0.364
681	0.364
681	0.366
682	0.367
682	0.368
683	0.37
683	0.372
684	0.373
684	0.374
684	0.374
685	0.374
685	0.375
686	0.375
686	0.375
687	0.375
687	0.375
687	0.374
688	0.373
688	0.372
689	0.373
689	0.373
690	0.372
690	0.372
691	0.371
691	0.371
691	0.37
692	0.37
692	0.369
693	0.369
693	0.369
694	0.368
694	0.367
695	0.368
695	0.369
695	0.368
696	0.366
696	0.365
697	0.364
697	0.363
698	0.361
698	0.358
698	0.356
699	0.354
699	0.351
700	0.347
700	0.345
701	0.344
701	0.341
702	0.339
702	0.337
702	0.334
703	0.332
703	0.329
704	0.327
704	0.325
705	0.323
705	0.32
705	0.318
706	0.315
706	0.313
707	0.311
707	0.308
708	0.306
708	0.304
709	0.303
709	0.3
709	0.297
710	0.295
710	0.293
711	0.291
711	0.289
712	0.287
712	0.285
713	0.283
713	0.281
713	0.279
714	0.276
714	0.273
715	0.271
715	0.268
716	0.265
716	0.262
716	0.258
717	0.255
717	0.252
718	0.249
718	0.247
719	0.245
719	0.243
720	0.241
720	0.239
720	0.236
721	0.233
721	0.231
722	0.229
722	0.227
723	0.224
723	0.222
723	0.219
724	0.216
724	0.213
725	0.21
725	0.208
726	0.205
726	0.203
727	0.2
727	0.197
727	0.195
728	0.193
728	0.191
729	0.19
729	0.189
730	0.187
730	0.185
730	0.184
731	0.183
731	0.182
732	0.181
732	0.179
733	0.177
733	0.176
734	0.174
734	0.172
734	0.17
735	0.169
735	0.167
736	0.165
736	0.163
737	0.161
737	0.16
737	0.158
738	0.155
738	0.151
739	0.149
739	0.147
740	0.145
740	0.144
741	0.142
741	0.14
741	0.138
742	0.135
742	0.133
743	0.131
743	0.13
744	0.128
744	0.127
744	0.125
745	0.123
745	0.12
746	0.119
746	0.117
747	0.116
747	0.115
748	0.113
748	0.112
748	0.11
749	0.108
749	0.106
750	0.104
750	0.102
751	0.101
751	0.099
751	0.098
752	0.096
752	0.094
753	0.093
753	0.092
754	0.092
754	0.091
754	0.09
755	0.09
755	0.089
756	0.087
756	0.085
757	0.083
757	0.083
758	0.081
758	0.079
758	0.078
759	0.076
759	0.073
760	0.07
760	0.068
761	0.066
761	0.066
761	0.064
762	0.063
762	0.062
763	0.061
763	0.059
764	0.057
764	0.055
764	0.054
765	0.052
765	0.051
766	0.05
766	0.049
767	0.048
767	0.045
768	0.042
768	0.041
768	0.04
769	0.039
769	0.038
770	0.037
770	0.035
771	0.033
771	0.031
771	0.029
772	0.027
772	0.026
773	0.024
773	0.022
774	0.02
774	0.017
775	0.015
775	0.013
775	0.01
776	0.007
776	0.004
777	0.001
777	-0.002
778	-0.005
778	-0.009
778	-0.011
779	-0.013
779	-0.016
780	-0.019
780	-0.023
781	-0.027
781	-0.032
781	-0.036
782	-0.042
782	-0.048
783	-0.054
783	-0.059
784	-0.064
784	-0.069
784	-0.073
785	-0.078
785	-0.083
786	-0.085
786	-0.084
787	-0.081
787	-0.078
788	-0.078
788	-0.079
788	-0.08
789	-0.082
789	-0.082
790	-0.079
790	-0.078
791	-0.078
791	-0.08
791	-0.082
792	-0.077
792	-0.067
793	-0.062
793	-0.058
794	-0.056
794	-0.058
794	-0.062
795	-0.063
795	-0.063
796	-0.063
796	-0.066
797	-0.074
797	-0.083
797	-0.089
798	-0.094
798	-0.097
799	-0.097
799	-0.097
800	-0.097
800	-0.099
801	-0.102
801	-0.104
801	-0.104
802	-0.106
802	-0.108
803	-0.108
803	-0.109
804	-0.108
804	-0.103
804	-0.097
805	-0.093
805	-0.092
806	-0.09
806	-0.088
807	-0.087
807	-0.086
807	-0.086
808	-0.085
808	-0.086
809	-0.09
809	-0.095
810	-0.097
810	-0.1
810	-0.102
811	-0.105
811	-0.105
812	-0.101
812	-0.098
813	-0.098
813	-0.099
813	-0.1
814	-0.101
814	-0.101
815	-0.098
815	-0.096
816	-0.094
816	-0.094
817	-0.099
817	-0.101
817	-0.1
818	-0.097
818	-0.093
819	-0.088
819	-0.084
820	-0.082
820	-0.079
820	-0.075
821	-0.069
821	-0.062
822	-0.056
822	-0.05
823	-0.045
823	-0.041
823	-0.037
824	-0.032
824	-0.028
825	-0.023
825	-0.019
826	-0.015
826	-0.013
826	-0.01
827	-0.008
827	-0.006
828	-0.004
828	-0.002
829	-0
829	0.001
829	0.003
830	0.004
830	0.006
831	0.009
831	0.011
832	0.012
832	0.014
832	0.015
833	0.016
833	0.017
834	0.017
834	0.017
835	0.017
835	0.017
835	0.017
836	0.017
836	0.017
837	0.018
837	0.019
838	0.019
838	0.02
839	0.02
839	0.021
839	0.021
840	0.021
840	0.022
841	0.022
841	0.022
842	0.022
842	0.023
842	0.022
843	0.022
843	0.022
844	0.022
844	0.022
845	0.022
845	0.022
845	0.022
846	0.022
846	0.022
847	0.022
847	0.023
848	0.023
848	0.023
848	0.024
849	0.024
849	0.025
850	0.025
850	0.024
851	0.025
851	0.025
851	0.025
852	0.024
852	0.024
853	0.024
853	0.024
854	0.024
854	0.024
854	0.024
855	0.024
855	0.023
856	0.023
856	0.023
857	0.023
857	0.022
857	0.022
858	0.022
858	0.022
859	0.022
859	0.022
860	0.022
860	0.022
860	0.022
861	0.021
861	0.021
862	0.02
862	0.019
863	0.018
863	0.018
863	0.017
864	0.016
864	0.016
865	0.016
865	0.016
866	0.016
866	0.016
866	0.017
867	0.018
867	0.019
868	0.02
868	0.021
869	0.022
869	0.022
869	0.022
870	0.022
870	0.022
871	0.021
871	0.021
872	0.02
872	0.019
872	0.018
873	0.017
873	0.017
874	0.017
874	0.017
875	0.018
875	0.018
875	0.018
876	0.019
876	0.019
877	0.019
877	0.019
878	0.018
878	0.018
878	0.017
879	0.017
879	0.016
880	0.015
880	0.015
881	0.014
881	0.014
881	0.015
882	0.015
882	0.015
883	0.015
883	0.016
884	0.017
884	0.018
884	0.018
885	0.018
885	0.019
886	0.019
886	0.019
887	0.019
887	0.019
887	0.019
888	0.018
888	0.018
889	0.018
889	0.018
890	0.019
890	0.019
890	0.02
891	0.02
891	0.021
892	0.021
892	0.022
893	0.022
893	0.023
893	0.024
894	0.024
894	0.024
895	0.024
895	0.024
895	0.024
896	0.024
896	0.024
897	0.025
897	0.025
898	0.026
898	0.026
898	0.026
899	0.027
899	0.027
900	0.027
900	0.027
901	0.027
901	0.027
901	0.027
902	0.027
902	0.027
903	0.026
903	0.026
904	0.026
904	0.025
904	0.024
905	0.024
905	0.024
906	0.023
906	0.022
907	0.021
907	0.021
907	0.02
908	0.02
908	0.02
909	0.02
909	0.019
910	0.019
910	0.019
910	0.02
911	0.02
911	0.021
912	0.021
912	0.022
913	0.022
913	0.023
913	0.023
914	0.024
914	0.024
915	0.024
915	0.023
916	0.023
916	0.022
916	0.021
917	0.021
917	0.02
918	0.019
918	0.019
918	0.018
919	0.018
919	0.018
920	0.018
920	0.018
921	0.018
921	0.018
921	0.017
922	0.017
922	0.017
923	0.016
923	0.015
924	0.015
924	0.014
924	0.014
925	0.013
925	0.012
926	0.011
926	0.011
927	0.01
927	0.01
927	0.01
928	0.011
928	0.012
929	0.013
929	0.014
930	0.016
930	0.018
930	0.02
931	0.021
931	0.023
932	0.025
932	0.027
933	0.029
933	0.03
933	0.031
934	0.031
934	0.032
935	0.031
935	0.031
935	0.031
936	0.031
936	0.031
937	0.031
937	0.03
938	0.03
938	0.03
938	0.03
939	0.03
939	0.03
940	0.03
940	0.03
941	0.03
941	0.03
941	0.029
942	0.029
942	0.028
943	0.027
943	0.026
944	0.025
944	0.025
944	0.024
945	0.024
945	0.024
946	0.023
946	0.022
946	0.022
947	0.021
947	0.021
948	0.02
948	0.019
949	0.018
949	0.018
949	0.018
950	0.017
950	0.017
951	0.017
951	0.016
952	0.016
952	0.016
952	0.016
953	0.015
953	0.015
954	0.014
954	0.013
955	0.013
955	0.012
955	0.012
956	0.012
956	0.012
957	0.012
957	0.012
957	0.012
958	0.012
958	0.012
959	0.012
959	0.012
960	0.012
960	0.012
960	0.011
961	0.011
961	0.01
962	0.01
962	0.009
963	0.009
963	0.009
963	0.008
964	0.008
964	0.009
965	0.009
965	0.01
966	0.01
966	0.011
966	0.012
967	0.013
967	0.014
968	0.014
968	0.014
968	0.015
969	0.015
969	0.015
970	0.015
970	0.014
971	0.014
971	0.014
971	0.014
972	0.014
972	0.014
973	0.015
973	0.015
974	0.015
974	0.016
974	0.016
975	0.017
975	0.018
976	0.018
976	0.019
976	0.02
977	0.02
977	0.02
978	0.02
978	0.02
979	0.021
979	0.021
979	0.022
980	0.022
980	0.022
981	0.022
981	0.023
982	0.023
982	0.024
982	0.025
983	0.026
983	0.026
984	0.027
984	0.027
984	0.027
985	0.027
985	0.027
986	0.026
986	0.025
987	0.025
987	0.024
987	0.023
988	0.022
988	0.021
989	0.021
989	0.02
990	0.02
990	0.019
990	0.019
991	0.02
991	0.02
992	0.02
992	0.02
992	0.02
993	0.02
993	0.02
994	0.019
994	0.019
995	0.018
995	0.018
995	0.017
996	0.016
996	0.016
997	0.015
997	0.015
997	0.015
998	0.015
998	0.015
999	0.016
999	0.017
1000	0.017
1000	0.018
1000	0.019
1001	0.019
1001	0.02
1002	0.02
1002	0.021
1003	0.021
1003	0.021
1003	0.02
1004	0.02
1004	0.019
1005	0.018
1005	0.017
1005	0.017
1006	0.016
1006	0.015
1007	0.014
1007	0.014
1008	0.014
1008	0.014
1008	0.014
1009	0.014
1009	0.015
1010	0.015
1010	0.016
1010	0.016
1011	0.017
1011	0.017
1012	0.017
1012	0.018
1013	0.018
1013	0.018
1013	0.018
1014	0.017
1014	0.017
1015	0.016
1015	0.015
1016	0.014
1016	0.014
1016	0.012
1017	0.011
1017	0.01
1018	0.009
1018	0.008
1018	0.008
1019	0.007
1019	0.007
1020	0.007
1020	0.006
1021	0.006
1021	0.005
1021	0.006
1022	0.006
1022	0.005
1023	0.005
1023	0.005
1023	0.004
1024	0.004
1024	0.003
1025	0.002
1025	0.002
1026	0.001
1026	0
1026	-0
1027	-0
1027	-0.001
1028	-0.001
1028	-0.001
1028	-0.001
1029	-0.001
1029	-0.001
1030	-0.001
1030	-0.001
1031	-0.001
1031	-0
1031	-0.001
1032	-0
1032	-0
1033	-0
1033	0
1033	0
1034	0
1034	-0
1035	-0
1035	-0.001
1036	-0.001
1036	-0.001
1036	-0
1037	-0
1037	0
1038	0
1038	0
1039	0.001
1039	0.001
1039	0.002
1040	0.002
1040	0.002
1041	0.002
1041	0.002
1041	0.001
1042	0
1042	-0
1043	-0.001
1043	-0.002
1044	-0.003
1044	-0.004
1044	-0.005
1045	-0.007
1045	-0.007
1046	-0.008
1046	-0.009
1046	-0.009
1047	-0.009
1047	-0.009
1048	-0.009
1048	-0.009
1049	-0.009
1049	-0.01
1049	-0.01
1050	-0.011
1050	-0.011
1051	-0.012
1051	-0.012
1051	-0.012
1052	-0.013
1052	-0.013
1053	-0.013
1053	-0.013
1053	-0.013
1054	-0.013
1054	-0.013
1055	-0.012
1055	-0.011
1056	-0.012
1056	-0.012
1056	-0.012
1057	-0.012
1057	-0.012
1058	-0.012
1058	-0.012
1058	-0.011
1059	-0.011
1059	-0.011
1060	-0.011
1060	-0.011
1061	-0.011
1061	-0.01
1061	-0.01
1062	-0.01
1062	-0.011
1063	-0.011
1063	-0.011
1063	-0.011
1064	-0.011
1064	-0.01
1065	-0.01
1065	-0.01
1066	-0.009
1066	-0.009
1066	-0.008
1067	-0.007
1067	-0.007
1068	-0.006
1068	-0.006
1068	-0.006
1069	-0.006
1069	-0.006
1070	-0.006
1070	-0.006
1071	-0.006
1071	-0.006
1071	-0.006
1072	-0.006
1072	-0.005
1073	-0.005
1073	-0.005
1073	-0.005
1074	-0.004
1074	-0.004
1075	-0.005
1075	-0.006
1076	-0.007
1076	-0.007
1076	-0.008
1077	-0.009
1077	-0.009
1078	-0.009
1078	-0.009
1078	-0.009
1079	-0.008
1079	-0.008
1080	-0.007
1080	-0.006
1080	-0.006
1081	-0.005
1081	-0.005
1082	-0.004
1082	-0.004
1083	-0.004
1083	-0.005
1083	-0.004
1084	-0.004
1084	-0.004
1085	-0.003
1085	-0.002
1085	-0.002
1086	-0.001
1086	-0
1087	0.001
1087	0.002
1088	0.002
1088	0.003
1088	0.004
1089	0.004
1089	0.005
1090	0.006
1090	0.007
1090	0.007
1091	0.008
1091	0.009
1092	0.011
1092	0.013
1092	0.015
1093	0.016
1093	0.018
1094	0.019
1094	0.019
1095	0.02
1095	0.022
1095	0.024
1096	0.026
1096	0.027
1097	0.03
1097	0.031
1097	0.035
1098	0.037
1098	0.04
1099	0.044
1099	0.048
1100	0.051
1100	0.056
1100	0.059
1101	0.065
1101	0.068
1102	0.075
1102	0.081
1102	0.089
1103	0.096
1103	0.104
1104	0.113
1104	0.122
1104	0.133
1105	0.145
1105	0.156
1106	0.168
1106	0.182
1107	0.193
1107	0.214
1107	0.24
1108	0.326
1108	0.458
1109	0.711
1109	-0
1109	-0
1110	-0
1110	-0
1111	-0
1111	-0
