Data from 15c-stair-power-variation_Absorbance__484__04094.txt Node

Date: Tue Jan 16 15:58:09 CET 2024
User: Marek
Spectrometer: MAYP115816
Trigger mode: 0
Integration Time (sec): 2.000000E-1
Scans to average: 10
Electric dark correction enabled: true
Nonlinearity correction enabled: true
Boxcar width: 5
XAxis mode: Wavelengths
Number of Pixels in Spectrum: 2068
>>>>>Begin Spectral Data<<<<<
199	-2.293
199	-2.104
200	-1.969
200	-1.848
201	-1.774
201	-1.722
202	-1.645
202	-1.583
203	-1.534
203	-1.484
204	-1.457
204	-1.431
205	-1.412
205	-1.399
205	-1.396
206	-1.391
206	-1.388
207	-1.385
207	-1.384
208	-1.38
208	-1.379
209	-1.374
209	-1.372
210	-1.371
210	-1.368
211	-1.367
211	-1.366
212	-1.366
212	-1.365
213	-1.363
213	-1.362
213	-1.362
214	-1.36
214	-1.359
215	-1.358
215	-1.358
216	-1.355
216	-1.354
217	-1.35
217	-1.348
218	-1.344
218	-1.34
219	-1.335
219	-1.335
220	-1.332
220	-1.331
221	-1.327
221	-1.325
221	-1.32
222	-1.316
222	-1.31
223	-1.306
223	-1.3
224	-1.295
224	-1.286
225	-1.277
225	-1.267
226	-1.259
226	-1.25
227	-1.236
227	-1.222
228	-1.206
228	-1.19
229	-1.169
229	-1.145
229	-1.119
230	-1.09
230	-1.057
231	-1.022
231	-0.982
232	-0.942
232	-0.898
233	-0.851
233	-0.803
234	-0.754
234	-0.705
235	-0.654
235	-0.604
236	-0.554
236	-0.505
236	-0.456
237	-0.409
237	-0.364
238	-0.321
238	-0.279
239	-0.238
239	-0.2
240	-0.165
240	-0.131
241	-0.1
241	-0.071
242	-0.043
242	-0.018
243	0.006
243	0.028
243	0.048
244	0.067
244	0.085
245	0.101
245	0.117
246	0.131
246	0.144
247	0.156
247	0.168
248	0.179
248	0.189
249	0.198
249	0.206
250	0.214
250	0.222
250	0.229
251	0.236
251	0.242
252	0.249
252	0.254
253	0.259
253	0.264
254	0.268
254	0.273
255	0.277
255	0.281
256	0.284
256	0.287
257	0.29
257	0.293
258	0.296
258	0.298
258	0.3
259	0.302
259	0.303
260	0.305
260	0.306
261	0.307
261	0.308
262	0.309
262	0.31
263	0.311
263	0.311
264	0.312
264	0.313
265	0.313
265	0.314
265	0.314
266	0.314
266	0.315
267	0.315
267	0.315
268	0.314
268	0.314
269	0.313
269	0.312
270	0.312
270	0.311
271	0.31
271	0.31
272	0.309
272	0.309
272	0.308
273	0.307
273	0.307
274	0.306
274	0.305
275	0.305
275	0.304
276	0.303
276	0.302
277	0.3
277	0.299
278	0.297
278	0.296
278	0.294
279	0.293
279	0.291
280	0.291
280	0.29
281	0.289
281	0.289
282	0.289
282	0.288
283	0.288
283	0.288
284	0.288
284	0.288
285	0.288
285	0.287
285	0.287
286	0.286
286	0.286
287	0.285
287	0.284
288	0.283
288	0.283
289	0.282
289	0.281
290	0.281
290	0.28
291	0.279
291	0.279
292	0.278
292	0.277
292	0.277
293	0.276
293	0.275
294	0.275
294	0.274
295	0.274
295	0.273
296	0.273
296	0.272
297	0.272
297	0.271
298	0.27
298	0.27
298	0.269
299	0.269
299	0.268
300	0.267
300	0.267
301	0.266
301	0.266
302	0.265
302	0.264
303	0.264
303	0.263
304	0.263
304	0.262
305	0.261
305	0.261
305	0.26
306	0.259
306	0.259
307	0.258
307	0.257
308	0.256
308	0.255
309	0.254
309	0.254
310	0.253
310	0.252
311	0.251
311	0.251
311	0.25
312	0.249
312	0.248
313	0.247
313	0.246
314	0.246
314	0.245
315	0.244
315	0.243
316	0.242
316	0.241
317	0.24
317	0.239
318	0.239
318	0.238
318	0.237
319	0.236
319	0.235
320	0.234
320	0.233
321	0.232
321	0.231
322	0.23
322	0.229
323	0.228
323	0.227
324	0.226
324	0.226
324	0.225
325	0.224
325	0.223
326	0.223
326	0.222
327	0.221
327	0.22
328	0.219
328	0.218
329	0.218
329	0.217
330	0.216
330	0.215
330	0.214
331	0.213
331	0.212
332	0.211
332	0.21
333	0.21
333	0.209
334	0.208
334	0.207
335	0.207
335	0.206
336	0.205
336	0.204
336	0.203
337	0.203
337	0.202
338	0.201
338	0.2
339	0.199
339	0.198
340	0.198
340	0.197
341	0.196
341	0.196
342	0.195
342	0.194
342	0.193
343	0.193
343	0.192
344	0.191
344	0.191
345	0.19
345	0.189
346	0.188
346	0.187
347	0.187
347	0.186
348	0.185
348	0.185
348	0.184
349	0.183
349	0.182
350	0.181
350	0.18
351	0.179
351	0.178
352	0.177
352	0.176
353	0.175
353	0.174
354	0.172
354	0.171
354	0.169
355	0.168
355	0.167
356	0.166
356	0.165
357	0.164
357	0.163
358	0.163
358	0.164
359	0.165
359	0.165
360	0.166
360	0.167
360	0.168
361	0.169
361	0.169
362	0.17
362	0.17
363	0.171
363	0.17
364	0.17
364	0.169
365	0.169
365	0.168
366	0.168
366	0.167
366	0.167
367	0.167
367	0.166
368	0.166
368	0.165
369	0.164
369	0.164
370	0.163
370	0.163
371	0.162
371	0.162
372	0.161
372	0.161
372	0.16
373	0.16
373	0.16
374	0.16
374	0.16
375	0.16
375	0.159
376	0.159
376	0.16
377	0.16
377	0.16
378	0.161
378	0.161
378	0.162
379	0.162
379	0.162
380	0.162
380	0.162
381	0.162
381	0.162
382	0.161
382	0.161
383	0.16
383	0.16
383	0.159
384	0.158
384	0.158
385	0.158
385	0.158
386	0.158
386	0.157
387	0.158
387	0.157
388	0.157
388	0.157
389	0.157
389	0.157
389	0.157
390	0.157
390	0.157
391	0.157
391	0.158
392	0.158
392	0.158
393	0.158
393	0.158
394	0.158
394	0.158
394	0.157
395	0.157
395	0.157
396	0.156
396	0.156
397	0.157
397	0.157
398	0.157
398	0.157
399	0.157
399	0.157
400	0.157
400	0.156
400	0.155
401	0.155
401	0.153
402	0.152
402	0.151
403	0.151
403	0.15
404	0.15
404	0.15
405	0.149
405	0.149
405	0.149
406	0.149
406	0.148
407	0.148
407	0.148
408	0.147
408	0.147
409	0.146
409	0.146
410	0.145
410	0.145
411	0.145
411	0.145
411	0.145
412	0.145
412	0.144
413	0.144
413	0.144
414	0.143
414	0.143
415	0.143
415	0.142
416	0.142
416	0.141
416	0.14
417	0.14
417	0.14
418	0.14
418	0.14
419	0.141
419	0.142
420	0.143
420	0.144
421	0.144
421	0.145
421	0.145
422	0.145
422	0.146
423	0.146
423	0.145
424	0.144
424	0.143
425	0.142
425	0.14
426	0.14
426	0.139
427	0.139
427	0.139
427	0.139
428	0.14
428	0.141
429	0.142
429	0.143
430	0.143
430	0.143
431	0.143
431	0.142
432	0.142
432	0.141
432	0.14
433	0.138
433	0.137
434	0.135
434	0.135
435	0.135
435	0.135
436	0.135
436	0.135
437	0.135
437	0.135
437	0.135
438	0.135
438	0.134
439	0.134
439	0.134
440	0.133
440	0.133
441	0.134
441	0.134
442	0.135
442	0.135
442	0.136
443	0.137
443	0.137
444	0.138
444	0.138
445	0.139
445	0.139
446	0.139
446	0.138
447	0.138
447	0.138
447	0.137
448	0.137
448	0.136
449	0.136
449	0.136
450	0.135
450	0.135
451	0.134
451	0.133
452	0.133
452	0.132
452	0.131
453	0.131
453	0.13
454	0.129
454	0.128
455	0.127
455	0.127
456	0.126
456	0.126
457	0.126
457	0.125
458	0.125
458	0.126
458	0.126
459	0.126
459	0.127
460	0.126
460	0.125
461	0.125
461	0.124
462	0.124
462	0.124
463	0.125
463	0.125
463	0.126
464	0.126
464	0.126
465	0.126
465	0.127
466	0.127
466	0.127
467	0.127
467	0.126
467	0.125
468	0.123
468	0.12
469	0.118
469	0.117
470	0.116
470	0.115
471	0.114
471	0.114
472	0.113
472	0.113
472	0.114
473	0.115
473	0.116
474	0.117
474	0.119
475	0.119
475	0.12
476	0.121
476	0.121
477	0.121
477	0.121
477	0.122
478	0.122
478	0.122
479	0.123
479	0.123
480	0.124
480	0.125
481	0.126
481	0.127
482	0.127
482	0.129
482	0.13
483	0.132
483	0.136
484	0.14
484	0.143
485	0.145
485	0.146
486	0.148
486	0.148
487	0.149
487	0.149
487	0.149
488	0.148
488	0.146
489	0.143
489	0.141
490	0.139
490	0.138
491	0.137
491	0.137
492	0.138
492	0.138
492	0.138
493	0.139
493	0.14
494	0.142
494	0.144
495	0.146
495	0.148
496	0.148
496	0.149
496	0.15
497	0.151
497	0.152
498	0.152
498	0.152
499	0.152
499	0.151
500	0.151
500	0.152
501	0.154
501	0.156
501	0.157
502	0.159
502	0.16
503	0.162
503	0.163
504	0.164
504	0.165
505	0.165
505	0.165
506	0.165
506	0.166
506	0.166
507	0.166
507	0.166
508	0.165
508	0.166
509	0.166
509	0.167
510	0.167
510	0.167
511	0.167
511	0.166
511	0.165
512	0.166
512	0.166
513	0.166
513	0.164
514	0.162
514	0.161
515	0.16
515	0.158
515	0.157
516	0.157
516	0.157
517	0.157
517	0.158
518	0.157
518	0.157
519	0.155
519	0.153
520	0.15
520	0.147
520	0.144
521	0.14
521	0.136
522	0.132
522	0.129
523	0.127
523	0.127
524	0.128
524	0.131
524	0.134
525	0.138
525	0.142
526	0.146
526	0.15
527	0.155
527	0.158
528	0.161
528	0.164
529	0.165
529	0.166
529	0.166
530	0.167
530	0.167
531	0.168
531	0.168
532	0.168
532	0.168
533	0.168
533	0.168
533	0.169
534	0.168
534	0.168
535	0.167
535	0.167
536	0.167
536	0.166
537	0.166
537	0.166
538	0.165
538	0.164
538	0.162
539	0.162
539	0.161
540	0.161
540	0.16
541	0.159
541	0.157
542	0.155
542	0.154
542	0.152
543	0.151
543	0.15
544	0.149
544	0.147
545	0.146
545	0.146
546	0.146
546	0.146
547	0.145
547	0.142
547	0.14
548	0.137
548	0.135
549	0.133
549	0.131
550	0.129
550	0.127
551	0.125
551	0.122
551	0.12
552	0.12
552	0.119
553	0.119
553	0.119
554	0.119
554	0.118
555	0.116
555	0.113
556	0.11
556	0.107
556	0.104
557	0.101
557	0.099
558	0.097
558	0.095
559	0.093
559	0.093
560	0.092
560	0.092
560	0.092
561	0.093
561	0.094
562	0.094
562	0.093
563	0.091
563	0.089
564	0.087
564	0.084
564	0.082
565	0.08
565	0.078
566	0.077
566	0.076
567	0.077
567	0.078
568	0.08
568	0.082
568	0.084
569	0.088
569	0.091
570	0.093
570	0.094
571	0.095
571	0.097
572	0.097
572	0.098
573	0.098
573	0.098
573	0.097
574	0.096
574	0.096
575	0.095
575	0.097
576	0.098
576	0.097
577	0.096
577	0.094
577	0.094
578	0.093
578	0.093
579	0.095
579	0.097
580	0.097
580	0.095
581	0.092
581	0.09
581	0.089
582	0.089
582	0.089
583	0.09
583	0.089
584	0.086
584	0.081
585	0.078
585	0.078
585	0.077
586	0.077
586	0.077
587	0.076
587	0.073
588	0.07
588	0.068
589	0.066
589	0.065
590	0.064
590	0.063
590	0.064
591	0.066
591	0.066
592	0.066
592	0.065
593	0.065
593	0.064
594	0.064
594	0.063
594	0.062
595	0.061
595	0.059
596	0.057
596	0.057
597	0.06
597	0.062
598	0.063
598	0.065
598	0.066
599	0.067
599	0.066
600	0.066
600	0.065
601	0.064
601	0.062
602	0.06
602	0.059
602	0.057
603	0.056
603	0.056
604	0.057
604	0.058
605	0.059
605	0.061
606	0.062
606	0.061
606	0.06
607	0.059
607	0.059
608	0.058
608	0.056
609	0.054
609	0.053
610	0.051
610	0.049
610	0.048
611	0.048
611	0.049
612	0.05
612	0.051
613	0.053
613	0.055
614	0.055
614	0.055
614	0.055
615	0.054
615	0.054
616	0.053
616	0.053
617	0.052
617	0.05
618	0.048
618	0.047
618	0.046
619	0.046
619	0.047
620	0.049
620	0.05
621	0.051
621	0.052
622	0.053
622	0.054
622	0.054
623	0.054
623	0.056
624	0.057
624	0.057
625	0.056
625	0.057
626	0.056
626	0.056
626	0.056
627	0.056
627	0.057
628	0.057
628	0.057
629	0.057
629	0.056
630	0.056
630	0.055
630	0.055
631	0.055
631	0.055
632	0.054
632	0.054
633	0.054
633	0.055
634	0.056
634	0.058
634	0.06
635	0.062
635	0.063
636	0.065
636	0.066
637	0.067
637	0.068
638	0.07
638	0.071
638	0.072
639	0.073
639	0.073
640	0.074
640	0.075
641	0.077
641	0.079
642	0.081
642	0.083
642	0.085
643	0.086
643	0.088
644	0.09
644	0.092
645	0.094
645	0.096
646	0.098
646	0.102
646	0.106
647	0.11
647	0.113
648	0.116
648	0.12
649	0.123
649	0.126
650	0.129
650	0.132
650	0.135
651	0.137
651	0.139
652	0.14
652	0.142
653	0.146
653	0.155
653	0.167
654	0.14
654	0.118
655	0.122
655	0.124
656	0.126
656	0.128
657	0.13
657	0.132
657	0.132
658	0.128
658	0.119
659	0.145
659	0.179
660	0.181
660	0.182
661	0.184
661	0.185
661	0.188
662	0.191
662	0.194
663	0.198
663	0.202
664	0.205
664	0.208
665	0.211
665	0.214
665	0.216
666	0.219
666	0.221
667	0.224
667	0.226
668	0.229
668	0.231
669	0.234
669	0.238
669	0.242
670	0.247
670	0.251
671	0.254
671	0.256
672	0.257
672	0.259
672	0.26
673	0.261
673	0.262
674	0.263
674	0.263
675	0.263
675	0.263
676	0.265
676	0.267
676	0.269
677	0.271
677	0.274
678	0.276
678	0.278
679	0.279
679	0.28
680	0.283
680	0.284
680	0.285
681	0.285
681	0.286
682	0.287
682	0.289
683	0.291
683	0.294
684	0.297
684	0.298
684	0.299
685	0.3
685	0.301
686	0.303
686	0.303
687	0.303
687	0.303
687	0.302
688	0.3
688	0.299
689	0.299
689	0.3
690	0.3
690	0.3
691	0.3
691	0.3
691	0.301
692	0.3
692	0.3
693	0.3
693	0.301
694	0.301
694	0.299
695	0.3
695	0.302
695	0.302
696	0.302
696	0.301
697	0.301
697	0.3
698	0.299
698	0.296
698	0.294
699	0.293
699	0.29
700	0.286
700	0.284
701	0.282
701	0.281
702	0.279
702	0.277
702	0.276
703	0.274
703	0.272
704	0.27
704	0.269
705	0.268
705	0.267
705	0.265
706	0.264
706	0.262
707	0.261
707	0.258
708	0.256
708	0.255
709	0.254
709	0.252
709	0.249
710	0.245
710	0.243
711	0.241
711	0.239
712	0.237
712	0.236
713	0.234
713	0.233
713	0.23
714	0.227
714	0.225
715	0.222
715	0.219
716	0.216
716	0.213
716	0.21
717	0.207
717	0.205
718	0.202
718	0.199
719	0.198
719	0.196
720	0.195
720	0.193
720	0.191
721	0.188
721	0.185
722	0.183
722	0.18
723	0.177
723	0.175
723	0.172
724	0.169
724	0.166
725	0.163
725	0.16
726	0.157
726	0.155
727	0.153
727	0.15
727	0.149
728	0.147
728	0.145
729	0.145
729	0.144
730	0.144
730	0.142
730	0.142
731	0.141
731	0.14
732	0.139
732	0.138
733	0.137
733	0.135
734	0.132
734	0.13
734	0.128
735	0.126
735	0.123
736	0.12
736	0.118
737	0.116
737	0.114
737	0.112
738	0.109
738	0.106
739	0.103
739	0.1
740	0.098
740	0.096
741	0.095
741	0.093
741	0.09
742	0.085
742	0.081
743	0.078
743	0.075
744	0.073
744	0.071
744	0.068
745	0.065
745	0.062
746	0.06
746	0.058
747	0.057
747	0.056
748	0.056
748	0.055
748	0.055
749	0.053
749	0.053
750	0.052
750	0.051
751	0.05
751	0.05
751	0.05
752	0.049
752	0.047
753	0.046
753	0.045
754	0.045
754	0.044
754	0.045
755	0.045
755	0.046
756	0.045
756	0.043
757	0.041
757	0.041
758	0.04
758	0.039
758	0.037
759	0.036
759	0.032
760	0.029
760	0.025
761	0.022
761	0.021
761	0.019
762	0.016
762	0.015
763	0.013
763	0.011
764	0.007
764	0.005
764	0.002
765	0
765	-0.002
766	-0.003
766	-0.004
767	-0.004
767	-0.007
768	-0.01
768	-0.012
768	-0.013
769	-0.014
769	-0.014
770	-0.015
770	-0.016
771	-0.018
771	-0.021
771	-0.024
772	-0.026
772	-0.028
773	-0.03
773	-0.033
774	-0.037
774	-0.041
775	-0.044
775	-0.048
775	-0.052
776	-0.056
776	-0.06
777	-0.065
777	-0.068
778	-0.072
778	-0.077
778	-0.08
779	-0.08
779	-0.077
780	-0.076
780	-0.076
781	-0.075
781	-0.074
781	-0.072
782	-0.071
782	-0.071
783	-0.071
783	-0.069
784	-0.07
784	-0.073
784	-0.075
785	-0.076
785	-0.078
786	-0.079
786	-0.077
787	-0.073
787	-0.069
788	-0.068
788	-0.069
788	-0.07
789	-0.072
789	-0.071
790	-0.068
790	-0.067
791	-0.067
791	-0.069
791	-0.071
792	-0.066
792	-0.057
793	-0.051
793	-0.047
794	-0.046
794	-0.047
794	-0.051
795	-0.053
795	-0.053
796	-0.053
796	-0.055
797	-0.063
797	-0.072
797	-0.078
798	-0.083
798	-0.086
799	-0.086
799	-0.086
800	-0.086
800	-0.088
801	-0.092
801	-0.093
801	-0.094
802	-0.096
802	-0.097
803	-0.098
803	-0.098
804	-0.098
804	-0.093
804	-0.086
805	-0.083
805	-0.081
806	-0.079
806	-0.078
807	-0.076
807	-0.076
807	-0.075
808	-0.075
808	-0.075
809	-0.079
809	-0.084
810	-0.087
810	-0.089
810	-0.092
811	-0.094
811	-0.094
812	-0.09
812	-0.087
813	-0.088
813	-0.088
813	-0.089
814	-0.09
814	-0.09
815	-0.088
815	-0.085
816	-0.083
816	-0.084
817	-0.088
817	-0.091
817	-0.092
818	-0.091
818	-0.088
819	-0.083
819	-0.08
820	-0.082
820	-0.084
820	-0.085
821	-0.085
821	-0.083
822	-0.082
822	-0.082
823	-0.081
823	-0.083
823	-0.086
824	-0.087
824	-0.086
825	-0.082
825	-0.077
826	-0.072
826	-0.07
826	-0.066
827	-0.062
827	-0.058
828	-0.054
828	-0.051
829	-0.047
829	-0.043
829	-0.04
830	-0.038
830	-0.036
831	-0.031
831	-0.027
832	-0.024
832	-0.021
832	-0.018
833	-0.016
833	-0.014
834	-0.012
834	-0.01
835	-0.009
835	-0.008
835	-0.007
836	-0.007
836	-0.006
837	-0.005
837	-0.004
838	-0.003
838	-0.002
839	-0.002
839	-0.001
839	-0.001
840	-0
840	0
841	0.001
841	0.002
842	0.002
842	0.003
842	0.003
843	0.004
843	0.004
844	0.005
844	0.006
845	0.007
845	0.008
845	0.009
846	0.01
846	0.012
847	0.013
847	0.015
848	0.016
848	0.018
848	0.019
849	0.02
849	0.022
850	0.023
850	0.023
851	0.024
851	0.025
851	0.025
852	0.025
852	0.026
853	0.026
853	0.027
854	0.027
854	0.028
854	0.029
855	0.029
855	0.03
856	0.03
856	0.031
857	0.031
857	0.032
857	0.032
858	0.032
858	0.032
859	0.031
859	0.031
860	0.032
860	0.032
860	0.032
861	0.031
861	0.031
862	0.03
862	0.03
863	0.029
863	0.029
863	0.029
864	0.028
864	0.028
865	0.028
865	0.028
866	0.028
866	0.028
866	0.029
867	0.03
867	0.031
868	0.032
868	0.033
869	0.034
869	0.034
869	0.034
870	0.034
870	0.035
871	0.035
871	0.035
872	0.034
872	0.033
872	0.033
873	0.032
873	0.032
874	0.032
874	0.032
875	0.032
875	0.032
875	0.033
876	0.033
876	0.033
877	0.034
877	0.034
878	0.033
878	0.033
878	0.033
879	0.032
879	0.031
880	0.031
880	0.03
881	0.03
881	0.03
881	0.03
882	0.03
882	0.03
883	0.031
883	0.031
884	0.032
884	0.033
884	0.034
885	0.034
885	0.035
886	0.036
886	0.037
887	0.037
887	0.038
887	0.038
888	0.038
888	0.038
889	0.038
889	0.039
890	0.04
890	0.04
890	0.04
891	0.041
891	0.041
892	0.041
892	0.042
893	0.043
893	0.043
893	0.044
894	0.045
894	0.045
895	0.045
895	0.046
895	0.046
896	0.047
896	0.047
897	0.048
897	0.049
898	0.05
898	0.05
898	0.051
899	0.051
899	0.052
900	0.053
900	0.053
901	0.053
901	0.053
901	0.053
902	0.053
902	0.052
903	0.052
903	0.051
904	0.05
904	0.049
904	0.048
905	0.048
905	0.047
906	0.047
906	0.046
907	0.046
907	0.045
907	0.045
908	0.045
908	0.045
909	0.045
909	0.045
910	0.046
910	0.046
910	0.046
911	0.047
911	0.048
912	0.048
912	0.049
913	0.05
913	0.05
913	0.051
914	0.051
914	0.051
915	0.051
915	0.05
916	0.049
916	0.048
916	0.047
917	0.047
917	0.046
918	0.045
918	0.045
918	0.045
919	0.044
919	0.044
920	0.044
920	0.045
921	0.045
921	0.044
921	0.044
922	0.043
922	0.042
923	0.041
923	0.04
924	0.039
924	0.038
924	0.037
925	0.036
925	0.035
926	0.034
926	0.033
927	0.033
927	0.033
927	0.033
928	0.033
928	0.034
929	0.035
929	0.036
930	0.038
930	0.04
930	0.043
931	0.045
931	0.047
932	0.05
932	0.052
933	0.054
933	0.056
933	0.058
934	0.059
934	0.06
935	0.06
935	0.06
935	0.061
936	0.061
936	0.061
937	0.062
937	0.062
938	0.062
938	0.062
938	0.063
939	0.063
939	0.064
940	0.065
940	0.065
941	0.065
941	0.065
941	0.065
942	0.065
942	0.064
943	0.063
943	0.062
944	0.061
944	0.061
944	0.06
945	0.06
945	0.059
946	0.059
946	0.058
946	0.058
947	0.057
947	0.056
948	0.055
948	0.055
949	0.054
949	0.053
949	0.053
950	0.052
950	0.052
951	0.052
951	0.051
952	0.051
952	0.051
952	0.051
953	0.051
953	0.05
954	0.05
954	0.05
955	0.049
955	0.049
955	0.049
956	0.049
956	0.049
957	0.049
957	0.048
957	0.048
958	0.048
958	0.047
959	0.047
959	0.046
960	0.045
960	0.044
960	0.044
961	0.043
961	0.042
962	0.041
962	0.041
963	0.041
963	0.04
963	0.041
964	0.041
964	0.041
965	0.042
965	0.043
966	0.044
966	0.045
966	0.046
967	0.047
967	0.048
968	0.049
968	0.049
968	0.05
969	0.05
969	0.05
970	0.05
970	0.05
971	0.05
971	0.05
971	0.05
972	0.05
972	0.05
973	0.051
973	0.051
974	0.052
974	0.053
974	0.054
975	0.054
975	0.055
976	0.056
976	0.057
976	0.058
977	0.058
977	0.058
978	0.058
978	0.058
979	0.059
979	0.059
979	0.059
980	0.059
980	0.06
981	0.06
981	0.061
982	0.062
982	0.063
982	0.064
983	0.065
983	0.065
984	0.066
984	0.066
984	0.067
985	0.067
985	0.067
986	0.066
986	0.066
987	0.065
987	0.064
987	0.064
988	0.063
988	0.062
989	0.061
989	0.061
990	0.06
990	0.059
990	0.059
991	0.059
991	0.059
992	0.06
992	0.06
992	0.059
993	0.059
993	0.059
994	0.058
994	0.057
995	0.057
995	0.056
995	0.056
996	0.055
996	0.054
997	0.054
997	0.054
997	0.054
998	0.054
998	0.055
999	0.056
999	0.056
1000	0.057
1000	0.058
1000	0.059
1001	0.06
1001	0.061
1002	0.061
1002	0.062
1003	0.062
1003	0.062
1003	0.062
1004	0.061
1004	0.061
1005	0.06
1005	0.059
1005	0.058
1006	0.057
1006	0.057
1007	0.056
1007	0.056
1008	0.056
1008	0.056
1008	0.056
1009	0.057
1009	0.057
1010	0.057
1010	0.058
1010	0.058
1011	0.059
1011	0.059
1012	0.059
1012	0.059
1013	0.059
1013	0.059
1013	0.058
1014	0.057
1014	0.057
1015	0.056
1015	0.055
1016	0.054
1016	0.053
1016	0.051
1017	0.05
1017	0.049
1018	0.048
1018	0.048
1018	0.047
1019	0.047
1019	0.047
1020	0.047
1020	0.047
1021	0.047
1021	0.047
1021	0.047
1022	0.048
1022	0.048
1023	0.048
1023	0.047
1023	0.047
1024	0.047
1024	0.046
1025	0.046
1025	0.046
1026	0.045
1026	0.045
1026	0.044
1027	0.044
1027	0.044
1028	0.044
1028	0.044
1028	0.044
1029	0.044
1029	0.044
1030	0.045
1030	0.045
1031	0.046
1031	0.046
1031	0.046
1032	0.047
1032	0.048
1033	0.048
1033	0.049
1033	0.049
1034	0.05
1034	0.05
1035	0.05
1035	0.05
1036	0.05
1036	0.051
1036	0.051
1037	0.052
1037	0.053
1038	0.053
1038	0.054
1039	0.055
1039	0.057
1039	0.058
1040	0.059
1040	0.059
1041	0.059
1041	0.059
1041	0.06
1042	0.059
1042	0.059
1043	0.059
1043	0.058
1044	0.058
1044	0.058
1044	0.058
1045	0.058
1045	0.058
1046	0.058
1046	0.058
1046	0.059
1047	0.06
1047	0.061
1048	0.062
1048	0.062
1049	0.062
1049	0.061
1049	0.061
1050	0.061
1050	0.06
1051	0.061
1051	0.061
1051	0.061
1052	0.061
1052	0.061
1053	0.062
1053	0.063
1053	0.063
1054	0.064
1054	0.065
1055	0.067
1055	0.067
1056	0.067
1056	0.068
1056	0.068
1057	0.069
1057	0.07
1058	0.072
1058	0.073
1058	0.075
1059	0.077
1059	0.078
1060	0.079
1060	0.081
1061	0.083
1061	0.085
1061	0.086
1062	0.087
1062	0.087
1063	0.088
1063	0.089
1063	0.09
1064	0.091
1064	0.093
1065	0.095
1065	0.096
1066	0.097
1066	0.099
1066	0.102
1067	0.104
1067	0.106
1068	0.108
1068	0.11
1068	0.111
1069	0.113
1069	0.114
1070	0.116
1070	0.117
1071	0.119
1071	0.122
1071	0.123
1072	0.126
1072	0.128
1073	0.131
1073	0.133
1073	0.135
1074	0.138
1074	0.14
1075	0.142
1075	0.143
1076	0.144
1076	0.147
1076	0.149
1077	0.151
1077	0.154
1078	0.157
1078	0.161
1078	0.165
1079	0.169
1079	0.174
1080	0.178
1080	0.182
1080	0.186
1081	0.19
1081	0.194
1082	0.198
1082	0.201
1083	0.205
1083	0.209
1083	0.214
1084	0.219
1084	0.224
1085	0.23
1085	0.237
1085	0.243
1086	0.25
1086	0.255
1087	0.262
1087	0.27
1088	0.276
1088	0.284
1088	0.293
1089	0.302
1089	0.313
1090	0.325
1090	0.339
1090	0.353
1091	0.37
1091	0.39
1092	0.41
1092	0.435
1092	0.458
1093	0.481
1093	0.512
1094	0.543
1094	0.578
1095	0.616
1095	0.665
1095	0.727
1096	0.796
1096	0.884
1097	1.006
1097	1.167
1097	1.493
1098	-0
1098	-0
1099	-0
1099	-0
1100	-0
1100	-0
1100	-0
1101	-0
1101	-0
1102	-0
1102	-0
1102	-0
1103	-0
1103	-0
1104	-0
1104	-0
1104	-0
1105	-0
1105	-0
1106	-0
1106	-0
1107	-0
1107	-0
1107	-0
1108	-0
1108	-0
1109	-0
1109	-0
1109	-0
1110	-0
1110	-0
1111	-0
1111	-0
