Data from 15c-stair-power-variation_Absorbance__461__04071.txt Node

Date: Tue Jan 16 15:57:23 CET 2024
User: Marek
Spectrometer: MAYP115816
Trigger mode: 0
Integration Time (sec): 2.000000E-1
Scans to average: 10
Electric dark correction enabled: true
Nonlinearity correction enabled: true
Boxcar width: 5
XAxis mode: Wavelengths
Number of Pixels in Spectrum: 2068
>>>>>Begin Spectral Data<<<<<
199	-2.296
199	-2.108
200	-1.972
200	-1.851
201	-1.777
201	-1.725
202	-1.648
202	-1.586
203	-1.537
203	-1.487
204	-1.461
204	-1.435
205	-1.415
205	-1.403
205	-1.4
206	-1.396
206	-1.392
207	-1.389
207	-1.389
208	-1.385
208	-1.384
209	-1.379
209	-1.377
210	-1.375
210	-1.373
211	-1.371
211	-1.37
212	-1.369
212	-1.368
213	-1.366
213	-1.365
213	-1.365
214	-1.363
214	-1.361
215	-1.361
215	-1.361
216	-1.357
216	-1.356
217	-1.353
217	-1.35
218	-1.346
218	-1.343
219	-1.338
219	-1.337
220	-1.335
220	-1.333
221	-1.329
221	-1.328
221	-1.323
222	-1.318
222	-1.313
223	-1.308
223	-1.303
224	-1.298
224	-1.289
225	-1.28
225	-1.27
226	-1.261
226	-1.252
227	-1.238
227	-1.226
228	-1.209
228	-1.192
229	-1.171
229	-1.148
229	-1.122
230	-1.092
230	-1.06
231	-1.025
231	-0.985
232	-0.944
232	-0.901
233	-0.854
233	-0.806
234	-0.757
234	-0.707
235	-0.656
235	-0.607
236	-0.556
236	-0.507
236	-0.458
237	-0.411
237	-0.366
238	-0.323
238	-0.281
239	-0.241
239	-0.203
240	-0.168
240	-0.134
241	-0.103
241	-0.073
242	-0.046
242	-0.02
243	0.004
243	0.026
243	0.046
244	0.065
244	0.083
245	0.099
245	0.115
246	0.129
246	0.142
247	0.154
247	0.166
248	0.176
248	0.186
249	0.196
249	0.204
250	0.212
250	0.22
250	0.227
251	0.233
251	0.24
252	0.246
252	0.251
253	0.257
253	0.261
254	0.266
254	0.27
255	0.274
255	0.278
256	0.282
256	0.285
257	0.288
257	0.29
258	0.293
258	0.295
258	0.297
259	0.299
259	0.301
260	0.302
260	0.304
261	0.304
261	0.305
262	0.306
262	0.307
263	0.308
263	0.309
264	0.309
264	0.31
265	0.31
265	0.31
265	0.311
266	0.311
266	0.312
267	0.312
267	0.312
268	0.311
268	0.311
269	0.311
269	0.31
270	0.31
270	0.309
271	0.308
271	0.308
272	0.307
272	0.306
272	0.306
273	0.305
273	0.304
274	0.304
274	0.303
275	0.302
275	0.301
276	0.3
276	0.299
277	0.298
277	0.296
278	0.295
278	0.293
278	0.292
279	0.29
279	0.289
280	0.288
280	0.287
281	0.287
281	0.286
282	0.286
282	0.286
283	0.286
283	0.286
284	0.286
284	0.286
285	0.285
285	0.285
285	0.284
286	0.284
286	0.283
287	0.282
287	0.282
288	0.281
288	0.28
289	0.28
289	0.279
290	0.279
290	0.278
291	0.277
291	0.277
292	0.276
292	0.276
292	0.275
293	0.274
293	0.274
294	0.273
294	0.273
295	0.272
295	0.272
296	0.271
296	0.27
297	0.27
297	0.269
298	0.269
298	0.268
298	0.267
299	0.267
299	0.266
300	0.266
300	0.265
301	0.265
301	0.264
302	0.264
302	0.263
303	0.263
303	0.262
304	0.262
304	0.261
305	0.26
305	0.26
305	0.259
306	0.258
306	0.257
307	0.256
307	0.255
308	0.255
308	0.254
309	0.253
309	0.252
310	0.251
310	0.25
311	0.25
311	0.249
311	0.248
312	0.247
312	0.247
313	0.246
313	0.245
314	0.245
314	0.244
315	0.243
315	0.242
316	0.241
316	0.24
317	0.239
317	0.238
318	0.237
318	0.236
318	0.235
319	0.234
319	0.233
320	0.232
320	0.231
321	0.23
321	0.229
322	0.228
322	0.227
323	0.226
323	0.226
324	0.225
324	0.224
324	0.223
325	0.223
325	0.222
326	0.221
326	0.22
327	0.219
327	0.219
328	0.218
328	0.217
329	0.216
329	0.215
330	0.214
330	0.214
330	0.213
331	0.212
331	0.211
332	0.21
332	0.209
333	0.208
333	0.208
334	0.207
334	0.206
335	0.205
335	0.204
336	0.203
336	0.202
336	0.202
337	0.201
337	0.2
338	0.199
338	0.198
339	0.198
339	0.197
340	0.196
340	0.195
341	0.195
341	0.194
342	0.193
342	0.193
342	0.192
343	0.191
343	0.191
344	0.19
344	0.189
345	0.189
345	0.188
346	0.187
346	0.186
347	0.185
347	0.185
348	0.184
348	0.183
348	0.182
349	0.181
349	0.18
350	0.179
350	0.178
351	0.178
351	0.176
352	0.175
352	0.174
353	0.173
353	0.172
354	0.171
354	0.169
354	0.168
355	0.166
355	0.165
356	0.164
356	0.163
357	0.162
357	0.162
358	0.162
358	0.162
359	0.163
359	0.163
360	0.164
360	0.165
360	0.166
361	0.167
361	0.168
362	0.169
362	0.169
363	0.169
363	0.169
364	0.168
364	0.167
365	0.167
365	0.166
366	0.166
366	0.165
366	0.165
367	0.165
367	0.164
368	0.164
368	0.163
369	0.163
369	0.162
370	0.162
370	0.161
371	0.161
371	0.16
372	0.16
372	0.159
372	0.159
373	0.159
373	0.158
374	0.158
374	0.158
375	0.158
375	0.158
376	0.158
376	0.158
377	0.158
377	0.159
378	0.159
378	0.159
378	0.16
379	0.16
379	0.16
380	0.16
380	0.16
381	0.16
381	0.16
382	0.159
382	0.159
383	0.159
383	0.158
383	0.157
384	0.157
384	0.156
385	0.156
385	0.156
386	0.156
386	0.156
387	0.156
387	0.156
388	0.155
388	0.155
389	0.155
389	0.155
389	0.155
390	0.155
390	0.155
391	0.155
391	0.156
392	0.156
392	0.156
393	0.156
393	0.157
394	0.156
394	0.156
394	0.156
395	0.156
395	0.155
396	0.155
396	0.155
397	0.155
397	0.156
398	0.156
398	0.156
399	0.155
399	0.155
400	0.155
400	0.155
400	0.154
401	0.153
401	0.152
402	0.15
402	0.149
403	0.149
403	0.149
404	0.148
404	0.148
405	0.148
405	0.148
405	0.147
406	0.147
406	0.147
407	0.147
407	0.147
408	0.146
408	0.145
409	0.144
409	0.144
410	0.144
410	0.144
411	0.144
411	0.144
411	0.143
412	0.143
412	0.143
413	0.142
413	0.142
414	0.141
414	0.141
415	0.141
415	0.14
416	0.14
416	0.139
416	0.138
417	0.138
417	0.138
418	0.138
418	0.138
419	0.139
419	0.14
420	0.141
420	0.142
421	0.142
421	0.143
421	0.143
422	0.144
422	0.144
423	0.144
423	0.143
424	0.142
424	0.141
425	0.14
425	0.139
426	0.138
426	0.137
427	0.137
427	0.137
427	0.138
428	0.138
428	0.139
429	0.14
429	0.141
430	0.141
430	0.141
431	0.141
431	0.141
432	0.14
432	0.139
432	0.138
433	0.136
433	0.135
434	0.133
434	0.133
435	0.133
435	0.133
436	0.133
436	0.133
437	0.133
437	0.133
437	0.133
438	0.133
438	0.133
439	0.132
439	0.132
440	0.132
440	0.132
441	0.132
441	0.132
442	0.133
442	0.133
442	0.134
443	0.135
443	0.136
444	0.136
444	0.137
445	0.137
445	0.137
446	0.137
446	0.137
447	0.136
447	0.136
447	0.136
448	0.135
448	0.135
449	0.134
449	0.134
450	0.133
450	0.133
451	0.132
451	0.132
452	0.131
452	0.13
452	0.129
453	0.129
453	0.128
454	0.127
454	0.126
455	0.125
455	0.125
456	0.124
456	0.124
457	0.124
457	0.124
458	0.124
458	0.124
458	0.124
459	0.125
459	0.125
460	0.124
460	0.123
461	0.123
461	0.122
462	0.122
462	0.122
463	0.122
463	0.123
463	0.123
464	0.124
464	0.124
465	0.124
465	0.124
466	0.124
466	0.124
467	0.124
467	0.124
467	0.122
468	0.12
468	0.118
469	0.116
469	0.114
470	0.113
470	0.112
471	0.112
471	0.111
472	0.111
472	0.111
472	0.112
473	0.113
473	0.114
474	0.115
474	0.116
475	0.117
475	0.118
476	0.118
476	0.119
477	0.119
477	0.119
477	0.12
478	0.12
478	0.12
479	0.12
479	0.121
480	0.122
480	0.123
481	0.124
481	0.125
482	0.126
482	0.127
482	0.128
483	0.131
483	0.134
484	0.138
484	0.141
485	0.143
485	0.145
486	0.146
486	0.147
487	0.147
487	0.148
487	0.148
488	0.147
488	0.145
489	0.142
489	0.139
490	0.138
490	0.136
491	0.135
491	0.136
492	0.136
492	0.136
492	0.136
493	0.137
493	0.138
494	0.14
494	0.142
495	0.145
495	0.146
496	0.147
496	0.147
496	0.148
497	0.149
497	0.149
498	0.15
498	0.15
499	0.149
499	0.149
500	0.149
500	0.15
501	0.152
501	0.153
501	0.155
502	0.157
502	0.158
503	0.16
503	0.161
504	0.162
504	0.162
505	0.162
505	0.162
506	0.163
506	0.163
506	0.163
507	0.163
507	0.162
508	0.162
508	0.162
509	0.163
509	0.163
510	0.164
510	0.164
511	0.164
511	0.163
511	0.163
512	0.163
512	0.163
513	0.163
513	0.161
514	0.16
514	0.158
515	0.157
515	0.156
515	0.155
516	0.154
516	0.154
517	0.154
517	0.155
518	0.155
518	0.154
519	0.153
519	0.151
520	0.148
520	0.145
520	0.142
521	0.139
521	0.135
522	0.132
522	0.128
523	0.126
523	0.126
524	0.127
524	0.129
524	0.132
525	0.136
525	0.14
526	0.144
526	0.148
527	0.152
527	0.156
528	0.159
528	0.161
529	0.163
529	0.163
529	0.164
530	0.164
530	0.165
531	0.165
531	0.166
532	0.165
532	0.165
533	0.166
533	0.166
533	0.166
534	0.166
534	0.166
535	0.165
535	0.164
536	0.165
536	0.164
537	0.164
537	0.164
538	0.163
538	0.162
538	0.161
539	0.16
539	0.159
540	0.159
540	0.158
541	0.156
541	0.154
542	0.152
542	0.151
542	0.149
543	0.148
543	0.147
544	0.146
544	0.145
545	0.144
545	0.143
546	0.143
546	0.143
547	0.142
547	0.14
547	0.138
548	0.135
548	0.133
549	0.131
549	0.129
550	0.127
550	0.125
551	0.123
551	0.12
551	0.118
552	0.117
552	0.117
553	0.116
553	0.116
554	0.117
554	0.115
555	0.113
555	0.111
556	0.108
556	0.105
556	0.102
557	0.099
557	0.097
558	0.095
558	0.093
559	0.091
559	0.091
560	0.091
560	0.091
560	0.091
561	0.091
561	0.092
562	0.092
562	0.091
563	0.09
563	0.088
564	0.085
564	0.082
564	0.08
565	0.078
565	0.077
566	0.076
566	0.075
567	0.075
567	0.076
568	0.078
568	0.08
568	0.083
569	0.086
569	0.089
570	0.091
570	0.092
571	0.093
571	0.095
572	0.096
572	0.096
573	0.097
573	0.097
573	0.096
574	0.095
574	0.094
575	0.094
575	0.095
576	0.097
576	0.096
577	0.094
577	0.093
577	0.092
578	0.091
578	0.091
579	0.093
579	0.096
580	0.096
580	0.094
581	0.091
581	0.089
581	0.088
582	0.088
582	0.088
583	0.089
583	0.088
584	0.085
584	0.08
585	0.077
585	0.076
585	0.076
586	0.076
586	0.076
587	0.075
587	0.072
588	0.069
588	0.066
589	0.065
589	0.064
590	0.063
590	0.062
590	0.063
591	0.064
591	0.064
592	0.064
592	0.063
593	0.063
593	0.063
594	0.062
594	0.061
594	0.06
595	0.06
595	0.058
596	0.056
596	0.056
597	0.058
597	0.06
598	0.062
598	0.063
598	0.065
599	0.065
599	0.065
600	0.065
600	0.063
601	0.063
601	0.061
602	0.059
602	0.058
602	0.056
603	0.054
603	0.055
604	0.055
604	0.056
605	0.058
605	0.059
606	0.06
606	0.059
606	0.058
607	0.057
607	0.057
608	0.056
608	0.054
609	0.053
609	0.051
610	0.049
610	0.047
610	0.046
611	0.046
611	0.047
612	0.048
612	0.05
613	0.052
613	0.053
614	0.054
614	0.053
614	0.053
615	0.053
615	0.052
616	0.051
616	0.051
617	0.05
617	0.048
618	0.046
618	0.045
618	0.044
619	0.044
619	0.045
620	0.047
620	0.049
621	0.05
621	0.051
622	0.051
622	0.052
622	0.053
623	0.053
623	0.054
624	0.055
624	0.055
625	0.054
625	0.055
626	0.054
626	0.054
626	0.054
627	0.054
627	0.054
628	0.054
628	0.054
629	0.054
629	0.054
630	0.054
630	0.053
630	0.053
631	0.053
631	0.053
632	0.052
632	0.052
633	0.053
633	0.053
634	0.054
634	0.056
634	0.058
635	0.06
635	0.061
636	0.062
636	0.064
637	0.065
637	0.066
638	0.068
638	0.069
638	0.07
639	0.071
639	0.071
640	0.072
640	0.073
641	0.075
641	0.077
642	0.079
642	0.081
642	0.083
643	0.084
643	0.085
644	0.087
644	0.089
645	0.091
645	0.093
646	0.095
646	0.099
646	0.103
647	0.107
647	0.11
648	0.113
648	0.116
649	0.12
649	0.123
650	0.126
650	0.129
650	0.132
651	0.134
651	0.136
652	0.138
652	0.14
653	0.143
653	0.153
653	0.165
654	0.138
654	0.117
655	0.121
655	0.123
656	0.125
656	0.127
657	0.128
657	0.13
657	0.131
658	0.127
658	0.118
659	0.143
659	0.176
660	0.179
660	0.18
661	0.181
661	0.183
661	0.185
662	0.188
662	0.192
663	0.196
663	0.199
664	0.202
664	0.205
665	0.208
665	0.211
665	0.213
666	0.216
666	0.218
667	0.221
667	0.223
668	0.226
668	0.229
669	0.231
669	0.235
669	0.24
670	0.245
670	0.249
671	0.251
671	0.253
672	0.255
672	0.256
672	0.258
673	0.259
673	0.26
674	0.261
674	0.261
675	0.261
675	0.261
676	0.262
676	0.265
676	0.266
677	0.269
677	0.271
678	0.274
678	0.276
679	0.277
679	0.279
680	0.281
680	0.282
680	0.283
681	0.283
681	0.285
682	0.286
682	0.287
683	0.289
683	0.292
684	0.295
684	0.297
684	0.297
685	0.298
685	0.299
686	0.301
686	0.301
687	0.301
687	0.301
687	0.3
688	0.298
688	0.297
689	0.297
689	0.298
690	0.298
690	0.298
691	0.298
691	0.298
691	0.299
692	0.299
692	0.298
693	0.298
693	0.299
694	0.299
694	0.297
695	0.298
695	0.3
695	0.301
696	0.301
696	0.3
697	0.299
697	0.298
698	0.297
698	0.295
698	0.292
699	0.291
699	0.288
700	0.284
700	0.282
701	0.281
701	0.279
702	0.277
702	0.276
702	0.274
703	0.272
703	0.271
704	0.269
704	0.268
705	0.267
705	0.265
705	0.264
706	0.262
706	0.261
707	0.259
707	0.257
708	0.255
708	0.254
709	0.253
709	0.251
709	0.248
710	0.244
710	0.242
711	0.24
711	0.238
712	0.237
712	0.235
713	0.234
713	0.232
713	0.23
714	0.227
714	0.224
715	0.222
715	0.219
716	0.216
716	0.213
716	0.21
717	0.206
717	0.204
718	0.201
718	0.198
719	0.197
719	0.195
720	0.194
720	0.192
720	0.189
721	0.186
721	0.184
722	0.181
722	0.178
723	0.176
723	0.174
723	0.171
724	0.168
724	0.165
725	0.162
725	0.159
726	0.157
726	0.155
727	0.152
727	0.15
727	0.148
728	0.146
728	0.145
729	0.144
729	0.144
730	0.143
730	0.142
730	0.141
731	0.14
731	0.139
732	0.139
732	0.138
733	0.136
733	0.134
734	0.132
734	0.129
734	0.127
735	0.125
735	0.123
736	0.12
736	0.117
737	0.115
737	0.113
737	0.111
738	0.109
738	0.105
739	0.102
739	0.1
740	0.097
740	0.095
741	0.094
741	0.092
741	0.089
742	0.084
742	0.08
743	0.077
743	0.074
744	0.072
744	0.07
744	0.067
745	0.065
745	0.061
746	0.059
746	0.057
747	0.056
747	0.055
748	0.055
748	0.055
748	0.054
749	0.052
749	0.052
750	0.051
750	0.05
751	0.049
751	0.049
751	0.049
752	0.048
752	0.047
753	0.045
753	0.045
754	0.044
754	0.044
754	0.044
755	0.045
755	0.045
756	0.045
756	0.042
757	0.041
757	0.04
758	0.039
758	0.038
758	0.037
759	0.035
759	0.031
760	0.028
760	0.024
761	0.021
761	0.02
761	0.018
762	0.015
762	0.014
763	0.013
763	0.01
764	0.007
764	0.004
764	0.002
765	-0.001
765	-0.003
766	-0.004
766	-0.004
767	-0.005
767	-0.008
768	-0.011
768	-0.013
768	-0.014
769	-0.015
769	-0.015
770	-0.016
770	-0.017
771	-0.019
771	-0.022
771	-0.025
772	-0.028
772	-0.029
773	-0.032
773	-0.035
774	-0.039
774	-0.042
775	-0.046
775	-0.049
775	-0.053
776	-0.058
776	-0.062
777	-0.067
777	-0.07
778	-0.074
778	-0.078
778	-0.082
779	-0.081
779	-0.078
780	-0.076
780	-0.076
781	-0.075
781	-0.074
781	-0.072
782	-0.071
782	-0.071
783	-0.071
783	-0.069
784	-0.07
784	-0.073
784	-0.075
785	-0.076
785	-0.078
786	-0.079
786	-0.077
787	-0.072
787	-0.069
788	-0.068
788	-0.069
788	-0.07
789	-0.072
789	-0.071
790	-0.068
790	-0.067
791	-0.067
791	-0.069
791	-0.071
792	-0.066
792	-0.057
793	-0.051
793	-0.047
794	-0.046
794	-0.047
794	-0.051
795	-0.053
795	-0.053
796	-0.053
796	-0.055
797	-0.063
797	-0.072
797	-0.078
798	-0.083
798	-0.086
799	-0.086
799	-0.086
800	-0.086
800	-0.088
801	-0.092
801	-0.093
801	-0.094
802	-0.095
802	-0.097
803	-0.098
803	-0.098
804	-0.097
804	-0.093
804	-0.086
805	-0.083
805	-0.081
806	-0.079
806	-0.078
807	-0.076
807	-0.076
807	-0.075
808	-0.075
808	-0.075
809	-0.079
809	-0.084
810	-0.087
810	-0.089
810	-0.092
811	-0.094
811	-0.094
812	-0.09
812	-0.087
813	-0.087
813	-0.088
813	-0.089
814	-0.09
814	-0.09
815	-0.088
815	-0.085
816	-0.083
816	-0.084
817	-0.088
817	-0.091
817	-0.092
818	-0.091
818	-0.088
819	-0.083
819	-0.08
820	-0.082
820	-0.084
820	-0.085
821	-0.085
821	-0.083
822	-0.082
822	-0.082
823	-0.081
823	-0.083
823	-0.086
824	-0.087
824	-0.086
825	-0.082
825	-0.077
826	-0.072
826	-0.07
826	-0.066
827	-0.062
827	-0.058
828	-0.054
828	-0.051
829	-0.047
829	-0.043
829	-0.04
830	-0.039
830	-0.037
831	-0.032
831	-0.028
832	-0.025
832	-0.021
832	-0.019
833	-0.016
833	-0.014
834	-0.012
834	-0.011
835	-0.01
835	-0.009
835	-0.008
836	-0.007
836	-0.006
837	-0.005
837	-0.004
838	-0.004
838	-0.003
839	-0.002
839	-0.002
839	-0.001
840	-0.001
840	0
841	0.001
841	0.001
842	0.002
842	0.002
842	0.003
843	0.003
843	0.004
844	0.005
844	0.005
845	0.006
845	0.007
845	0.009
846	0.01
846	0.011
847	0.012
847	0.014
848	0.015
848	0.017
848	0.018
849	0.02
849	0.021
850	0.022
850	0.022
851	0.023
851	0.024
851	0.024
852	0.024
852	0.025
853	0.026
853	0.026
854	0.027
854	0.027
854	0.028
855	0.028
855	0.029
856	0.029
856	0.03
857	0.03
857	0.03
857	0.031
858	0.031
858	0.03
859	0.03
859	0.03
860	0.03
860	0.03
860	0.03
861	0.03
861	0.029
862	0.028
862	0.028
863	0.028
863	0.027
863	0.027
864	0.027
864	0.026
865	0.027
865	0.027
866	0.026
866	0.027
866	0.028
867	0.029
867	0.03
868	0.031
868	0.032
869	0.033
869	0.034
869	0.034
870	0.034
870	0.034
871	0.034
871	0.034
872	0.034
872	0.033
872	0.032
873	0.032
873	0.031
874	0.031
874	0.031
875	0.031
875	0.031
875	0.032
876	0.032
876	0.032
877	0.033
877	0.033
878	0.032
878	0.032
878	0.032
879	0.032
879	0.031
880	0.031
880	0.03
881	0.029
881	0.029
881	0.029
882	0.029
882	0.03
883	0.03
883	0.031
884	0.032
884	0.032
884	0.033
885	0.034
885	0.034
886	0.035
886	0.036
887	0.037
887	0.037
887	0.038
888	0.038
888	0.038
889	0.038
889	0.039
890	0.039
890	0.04
890	0.04
891	0.04
891	0.041
892	0.041
892	0.042
893	0.042
893	0.043
893	0.044
894	0.045
894	0.045
895	0.045
895	0.046
895	0.046
896	0.046
896	0.047
897	0.048
897	0.049
898	0.049
898	0.05
898	0.05
899	0.051
899	0.052
900	0.052
900	0.052
901	0.052
901	0.052
901	0.052
902	0.052
902	0.052
903	0.051
903	0.05
904	0.049
904	0.048
904	0.048
905	0.047
905	0.046
906	0.046
906	0.045
907	0.044
907	0.044
907	0.044
908	0.044
908	0.044
909	0.044
909	0.044
910	0.045
910	0.045
910	0.045
911	0.046
911	0.047
912	0.048
912	0.048
913	0.049
913	0.05
913	0.05
914	0.05
914	0.05
915	0.05
915	0.049
916	0.048
916	0.047
916	0.047
917	0.046
917	0.045
918	0.044
918	0.044
918	0.044
919	0.043
919	0.043
920	0.043
920	0.044
921	0.044
921	0.043
921	0.043
922	0.042
922	0.041
923	0.04
923	0.039
924	0.038
924	0.037
924	0.036
925	0.035
925	0.034
926	0.033
926	0.033
927	0.032
927	0.032
927	0.032
928	0.032
928	0.033
929	0.034
929	0.036
930	0.037
930	0.039
930	0.042
931	0.044
931	0.046
932	0.049
932	0.051
933	0.054
933	0.056
933	0.057
934	0.058
934	0.059
935	0.06
935	0.06
935	0.06
936	0.06
936	0.061
937	0.061
937	0.061
938	0.061
938	0.062
938	0.062
939	0.063
939	0.064
940	0.064
940	0.064
941	0.064
941	0.064
941	0.064
942	0.064
942	0.063
943	0.062
943	0.061
944	0.061
944	0.06
944	0.06
945	0.06
945	0.06
946	0.059
946	0.058
946	0.057
947	0.057
947	0.056
948	0.055
948	0.054
949	0.053
949	0.052
949	0.052
950	0.051
950	0.051
951	0.05
951	0.05
952	0.05
952	0.05
952	0.05
953	0.05
953	0.05
954	0.049
954	0.048
955	0.048
955	0.048
955	0.048
956	0.048
956	0.048
957	0.048
957	0.047
957	0.047
958	0.046
958	0.046
959	0.045
959	0.045
960	0.044
960	0.043
960	0.042
961	0.041
961	0.041
962	0.04
962	0.039
963	0.039
963	0.039
963	0.039
964	0.039
964	0.04
965	0.041
965	0.042
966	0.043
966	0.044
966	0.045
967	0.046
967	0.047
968	0.048
968	0.048
968	0.049
969	0.049
969	0.049
970	0.049
970	0.049
971	0.049
971	0.049
971	0.049
972	0.049
972	0.05
973	0.05
973	0.05
974	0.051
974	0.052
974	0.053
975	0.054
975	0.055
976	0.055
976	0.056
976	0.057
977	0.057
977	0.057
978	0.057
978	0.057
979	0.058
979	0.058
979	0.058
980	0.058
980	0.058
981	0.059
981	0.06
982	0.06
982	0.061
982	0.062
983	0.063
983	0.064
984	0.064
984	0.065
984	0.065
985	0.066
985	0.066
986	0.065
986	0.065
987	0.064
987	0.063
987	0.063
988	0.062
988	0.061
989	0.061
989	0.06
990	0.059
990	0.059
990	0.059
991	0.059
991	0.059
992	0.059
992	0.059
992	0.059
993	0.059
993	0.058
994	0.058
994	0.057
995	0.057
995	0.056
995	0.055
996	0.055
996	0.054
997	0.054
997	0.054
997	0.054
998	0.054
998	0.055
999	0.056
999	0.056
1000	0.057
1000	0.058
1000	0.059
1001	0.06
1001	0.06
1002	0.061
1002	0.061
1003	0.061
1003	0.061
1003	0.061
1004	0.06
1004	0.06
1005	0.059
1005	0.058
1005	0.057
1006	0.056
1006	0.056
1007	0.055
1007	0.055
1008	0.055
1008	0.055
1008	0.055
1009	0.056
1009	0.056
1010	0.056
1010	0.057
1010	0.057
1011	0.058
1011	0.058
1012	0.058
1012	0.058
1013	0.058
1013	0.058
1013	0.058
1014	0.057
1014	0.056
1015	0.055
1015	0.055
1016	0.054
1016	0.052
1016	0.051
1017	0.05
1017	0.049
1018	0.048
1018	0.048
1018	0.048
1019	0.047
1019	0.047
1020	0.047
1020	0.047
1021	0.047
1021	0.047
1021	0.047
1022	0.048
1022	0.048
1023	0.048
1023	0.047
1023	0.047
1024	0.047
1024	0.046
1025	0.046
1025	0.046
1026	0.046
1026	0.045
1026	0.044
1027	0.044
1027	0.044
1028	0.044
1028	0.044
1028	0.044
1029	0.045
1029	0.045
1030	0.045
1030	0.045
1031	0.046
1031	0.047
1031	0.047
1032	0.048
1032	0.048
1033	0.049
1033	0.049
1033	0.049
1034	0.049
1034	0.05
1035	0.05
1035	0.05
1036	0.05
1036	0.05
1036	0.051
1037	0.052
1037	0.053
1038	0.053
1038	0.054
1039	0.055
1039	0.056
1039	0.057
1040	0.058
1040	0.059
1041	0.059
1041	0.059
1041	0.059
1042	0.059
1042	0.059
1043	0.059
1043	0.058
1044	0.058
1044	0.058
1044	0.058
1045	0.057
1045	0.057
1046	0.057
1046	0.058
1046	0.059
1047	0.059
1047	0.06
1048	0.061
1048	0.061
1049	0.061
1049	0.061
1049	0.061
1050	0.061
1050	0.06
1051	0.06
1051	0.06
1051	0.06
1052	0.061
1052	0.061
1053	0.061
1053	0.062
1053	0.063
1054	0.064
1054	0.065
1055	0.067
1055	0.067
1056	0.068
1056	0.069
1056	0.069
1057	0.069
1057	0.071
1058	0.072
1058	0.073
1058	0.075
1059	0.076
1059	0.077
1060	0.079
1060	0.08
1061	0.082
1061	0.084
1061	0.086
1062	0.086
1062	0.087
1063	0.088
1063	0.088
1063	0.089
1064	0.09
1064	0.092
1065	0.094
1065	0.095
1066	0.097
1066	0.098
1066	0.1
1067	0.102
1067	0.104
1068	0.106
1068	0.108
1068	0.11
1069	0.111
1069	0.112
1070	0.114
1070	0.115
1071	0.118
1071	0.12
1071	0.122
1072	0.125
1072	0.128
1073	0.13
1073	0.133
1073	0.135
1074	0.137
1074	0.14
1075	0.141
1075	0.142
1076	0.144
1076	0.147
1076	0.148
1077	0.151
1077	0.154
1078	0.156
1078	0.161
1078	0.165
1079	0.168
1079	0.174
1080	0.178
1080	0.182
1080	0.185
1081	0.19
1081	0.193
1082	0.197
1082	0.201
1083	0.204
1083	0.208
1083	0.214
1084	0.218
1084	0.224
1085	0.229
1085	0.236
1085	0.242
1086	0.249
1086	0.254
1087	0.261
1087	0.268
1088	0.274
1088	0.281
1088	0.291
1089	0.301
1089	0.313
1090	0.325
1090	0.339
1090	0.354
1091	0.372
1091	0.393
1092	0.413
1092	0.439
1092	0.463
1093	0.487
1093	0.518
1094	0.547
1094	0.582
1095	0.62
1095	0.668
1095	0.729
1096	0.798
1096	0.882
1097	1.003
1097	1.168
1097	1.494
1098	-0
1098	-0
1099	-0
1099	-0
1100	-0
1100	-0
1100	-0
1101	-0
1101	-0
1102	-0
1102	-0
1102	-0
1103	-0
1103	-0
1104	-0
1104	-0
1104	-0
1105	-0
1105	-0
1106	-0
1106	-0
1107	-0
1107	-0
1107	-0
1108	-0
1108	-0
1109	-0
1109	-0
1109	-0
1110	-0
1110	-0
1111	-0
1111	-0
