Data from 15c-stair-power-variation_Absorbance__213__03823.txt Node

Date: Tue Jan 16 15:49:07 CET 2024
User: Marek
Spectrometer: MAYP115816
Trigger mode: 0
Integration Time (sec): 2.000000E-1
Scans to average: 10
Electric dark correction enabled: true
Nonlinearity correction enabled: true
Boxcar width: 5
XAxis mode: Wavelengths
Number of Pixels in Spectrum: 2068
>>>>>Begin Spectral Data<<<<<
199	-2.242
199	-2.053
200	-1.918
200	-1.798
201	-1.724
201	-1.672
202	-1.595
202	-1.533
203	-1.484
203	-1.435
204	-1.409
204	-1.383
205	-1.363
205	-1.351
205	-1.349
206	-1.344
206	-1.34
207	-1.338
207	-1.337
208	-1.333
208	-1.332
209	-1.327
209	-1.325
210	-1.324
210	-1.321
211	-1.32
211	-1.319
212	-1.318
212	-1.317
213	-1.315
213	-1.314
213	-1.314
214	-1.312
214	-1.311
215	-1.311
215	-1.311
216	-1.307
216	-1.306
217	-1.303
217	-1.301
218	-1.297
218	-1.293
219	-1.289
219	-1.288
220	-1.286
220	-1.284
221	-1.28
221	-1.279
221	-1.274
222	-1.27
222	-1.264
223	-1.259
223	-1.254
224	-1.248
224	-1.24
225	-1.231
225	-1.221
226	-1.212
226	-1.202
227	-1.188
227	-1.175
228	-1.159
228	-1.143
229	-1.122
229	-1.098
229	-1.073
230	-1.044
230	-1.011
231	-0.976
231	-0.936
232	-0.896
232	-0.853
233	-0.806
233	-0.758
234	-0.709
234	-0.66
235	-0.609
235	-0.559
236	-0.51
236	-0.461
236	-0.413
237	-0.367
237	-0.322
238	-0.279
238	-0.238
239	-0.199
239	-0.162
240	-0.127
240	-0.095
241	-0.065
241	-0.036
242	-0.01
242	0.015
243	0.038
243	0.059
243	0.078
244	0.096
244	0.113
245	0.128
245	0.143
246	0.157
246	0.169
247	0.18
247	0.191
248	0.202
248	0.211
249	0.22
249	0.228
250	0.236
250	0.243
250	0.25
251	0.257
251	0.263
252	0.269
252	0.274
253	0.279
253	0.283
254	0.287
254	0.291
255	0.295
255	0.298
256	0.302
256	0.304
257	0.307
257	0.31
258	0.312
258	0.314
258	0.316
259	0.318
259	0.319
260	0.321
260	0.322
261	0.323
261	0.324
262	0.324
262	0.325
263	0.326
263	0.326
264	0.327
264	0.327
265	0.327
265	0.328
265	0.328
266	0.328
266	0.328
267	0.328
267	0.327
268	0.327
268	0.326
269	0.326
269	0.325
270	0.325
270	0.324
271	0.323
271	0.322
272	0.321
272	0.32
272	0.32
273	0.319
273	0.318
274	0.317
274	0.316
275	0.316
275	0.315
276	0.314
276	0.312
277	0.311
277	0.31
278	0.308
278	0.306
278	0.305
279	0.303
279	0.301
280	0.3
280	0.299
281	0.299
281	0.298
282	0.297
282	0.297
283	0.296
283	0.296
284	0.296
284	0.296
285	0.295
285	0.294
285	0.294
286	0.293
286	0.292
287	0.291
287	0.291
288	0.29
288	0.289
289	0.288
289	0.288
290	0.287
290	0.286
291	0.286
291	0.285
292	0.284
292	0.283
292	0.282
293	0.282
293	0.281
294	0.28
294	0.28
295	0.279
295	0.279
296	0.278
296	0.277
297	0.276
297	0.276
298	0.275
298	0.275
298	0.274
299	0.274
299	0.273
300	0.272
300	0.271
301	0.271
301	0.27
302	0.269
302	0.269
303	0.268
303	0.268
304	0.267
304	0.266
305	0.266
305	0.265
305	0.264
306	0.263
306	0.262
307	0.262
307	0.261
308	0.26
308	0.259
309	0.259
309	0.258
310	0.257
310	0.256
311	0.256
311	0.255
311	0.254
312	0.253
312	0.252
313	0.252
313	0.251
314	0.25
314	0.249
315	0.248
315	0.247
316	0.246
316	0.245
317	0.245
317	0.244
318	0.243
318	0.242
318	0.241
319	0.24
319	0.239
320	0.238
320	0.237
321	0.237
321	0.236
322	0.235
322	0.234
323	0.233
323	0.232
324	0.231
324	0.231
324	0.23
325	0.229
325	0.228
326	0.227
326	0.227
327	0.226
327	0.225
328	0.224
328	0.223
329	0.222
329	0.222
330	0.221
330	0.22
330	0.219
331	0.218
331	0.217
332	0.216
332	0.215
333	0.215
333	0.214
334	0.213
334	0.212
335	0.211
335	0.211
336	0.21
336	0.209
336	0.208
337	0.208
337	0.207
338	0.206
338	0.205
339	0.205
339	0.204
340	0.203
340	0.202
341	0.202
341	0.201
342	0.201
342	0.2
342	0.199
343	0.198
343	0.198
344	0.197
344	0.196
345	0.196
345	0.195
346	0.194
346	0.194
347	0.193
347	0.192
348	0.191
348	0.191
348	0.19
349	0.189
349	0.189
350	0.188
350	0.187
351	0.186
351	0.185
352	0.184
352	0.183
353	0.182
353	0.181
354	0.18
354	0.178
354	0.177
355	0.176
355	0.175
356	0.174
356	0.173
357	0.172
357	0.172
358	0.172
358	0.172
359	0.173
359	0.174
360	0.174
360	0.175
360	0.176
361	0.176
361	0.177
362	0.177
362	0.177
363	0.178
363	0.177
364	0.177
364	0.176
365	0.176
365	0.175
366	0.175
366	0.174
366	0.174
367	0.174
367	0.173
368	0.173
368	0.172
369	0.172
369	0.172
370	0.171
370	0.171
371	0.17
371	0.17
372	0.169
372	0.169
372	0.168
373	0.168
373	0.168
374	0.168
374	0.167
375	0.167
375	0.167
376	0.167
376	0.167
377	0.167
377	0.168
378	0.168
378	0.168
378	0.169
379	0.169
379	0.169
380	0.169
380	0.169
381	0.169
381	0.168
382	0.168
382	0.168
383	0.167
383	0.167
383	0.166
384	0.166
384	0.165
385	0.165
385	0.165
386	0.165
386	0.165
387	0.165
387	0.165
388	0.164
388	0.164
389	0.164
389	0.164
389	0.164
390	0.164
390	0.164
391	0.164
391	0.165
392	0.165
392	0.165
393	0.165
393	0.165
394	0.165
394	0.165
394	0.164
395	0.164
395	0.164
396	0.163
396	0.163
397	0.163
397	0.164
398	0.164
398	0.164
399	0.164
399	0.164
400	0.163
400	0.163
400	0.162
401	0.161
401	0.16
402	0.159
402	0.158
403	0.158
403	0.157
404	0.157
404	0.157
405	0.157
405	0.156
405	0.156
406	0.156
406	0.156
407	0.156
407	0.156
408	0.155
408	0.154
409	0.154
409	0.154
410	0.153
410	0.153
411	0.153
411	0.153
411	0.153
412	0.152
412	0.152
413	0.152
413	0.151
414	0.151
414	0.15
415	0.15
415	0.15
416	0.149
416	0.148
416	0.148
417	0.148
417	0.147
418	0.147
418	0.148
419	0.148
419	0.149
420	0.15
420	0.151
421	0.151
421	0.152
421	0.152
422	0.152
422	0.152
423	0.152
423	0.152
424	0.151
424	0.15
425	0.149
425	0.148
426	0.147
426	0.146
427	0.146
427	0.146
427	0.147
428	0.148
428	0.148
429	0.149
429	0.15
430	0.15
430	0.15
431	0.15
431	0.149
432	0.149
432	0.148
432	0.147
433	0.145
433	0.144
434	0.143
434	0.142
435	0.142
435	0.142
436	0.142
436	0.142
437	0.142
437	0.142
437	0.142
438	0.142
438	0.142
439	0.141
439	0.141
440	0.141
440	0.141
441	0.141
441	0.141
442	0.142
442	0.142
442	0.143
443	0.144
443	0.144
444	0.145
444	0.145
445	0.145
445	0.146
446	0.146
446	0.146
447	0.145
447	0.145
447	0.144
448	0.144
448	0.144
449	0.143
449	0.143
450	0.142
450	0.142
451	0.142
451	0.141
452	0.141
452	0.14
452	0.139
453	0.138
453	0.138
454	0.137
454	0.136
455	0.135
455	0.135
456	0.134
456	0.134
457	0.134
457	0.134
458	0.134
458	0.134
458	0.134
459	0.135
459	0.135
460	0.134
460	0.133
461	0.133
461	0.133
462	0.132
462	0.133
463	0.133
463	0.133
463	0.134
464	0.134
464	0.135
465	0.135
465	0.135
466	0.135
466	0.135
467	0.135
467	0.134
467	0.133
468	0.131
468	0.129
469	0.127
469	0.126
470	0.125
470	0.124
471	0.124
471	0.124
472	0.123
472	0.124
472	0.124
473	0.126
473	0.127
474	0.128
474	0.129
475	0.13
475	0.131
476	0.131
476	0.131
477	0.131
477	0.132
477	0.132
478	0.132
478	0.132
479	0.133
479	0.134
480	0.134
480	0.135
481	0.136
481	0.137
482	0.138
482	0.139
482	0.141
483	0.143
483	0.146
484	0.15
484	0.152
485	0.154
485	0.156
486	0.157
486	0.158
487	0.159
487	0.159
487	0.159
488	0.159
488	0.157
489	0.154
489	0.152
490	0.151
490	0.15
491	0.149
491	0.149
492	0.15
492	0.15
492	0.15
493	0.151
493	0.152
494	0.154
494	0.156
495	0.159
495	0.16
496	0.16
496	0.161
496	0.162
497	0.163
497	0.164
498	0.164
498	0.164
499	0.164
499	0.164
500	0.164
500	0.165
501	0.167
501	0.169
501	0.17
502	0.172
502	0.173
503	0.175
503	0.176
504	0.177
504	0.178
505	0.178
505	0.178
506	0.179
506	0.179
506	0.179
507	0.179
507	0.179
508	0.18
508	0.18
509	0.18
509	0.181
510	0.181
510	0.182
511	0.182
511	0.182
511	0.181
512	0.181
512	0.181
513	0.181
513	0.18
514	0.179
514	0.178
515	0.177
515	0.176
515	0.175
516	0.174
516	0.173
517	0.173
517	0.174
518	0.174
518	0.174
519	0.173
519	0.171
520	0.169
520	0.167
520	0.164
521	0.161
521	0.158
522	0.154
522	0.151
523	0.148
523	0.147
524	0.147
524	0.148
524	0.15
525	0.153
525	0.157
526	0.16
526	0.164
527	0.168
527	0.172
528	0.175
528	0.178
529	0.18
529	0.181
529	0.181
530	0.182
530	0.182
531	0.183
531	0.183
532	0.183
532	0.183
533	0.183
533	0.184
533	0.184
534	0.184
534	0.183
535	0.182
535	0.182
536	0.182
536	0.181
537	0.181
537	0.18
538	0.179
538	0.178
538	0.176
539	0.175
539	0.175
540	0.174
540	0.173
541	0.172
541	0.17
542	0.168
542	0.167
542	0.165
543	0.164
543	0.163
544	0.162
544	0.16
545	0.159
545	0.159
546	0.158
546	0.158
547	0.157
547	0.154
547	0.152
548	0.149
548	0.147
549	0.145
549	0.143
550	0.141
550	0.139
551	0.137
551	0.134
551	0.132
552	0.131
552	0.131
553	0.13
553	0.13
554	0.13
554	0.129
555	0.127
555	0.124
556	0.121
556	0.118
556	0.115
557	0.112
557	0.11
558	0.108
558	0.106
559	0.104
559	0.104
560	0.103
560	0.103
560	0.103
561	0.103
561	0.104
562	0.104
562	0.103
563	0.101
563	0.099
564	0.097
564	0.094
564	0.091
565	0.09
565	0.088
566	0.087
566	0.086
567	0.086
567	0.087
568	0.089
568	0.09
568	0.092
569	0.095
569	0.098
570	0.1
570	0.1
571	0.101
571	0.103
572	0.103
572	0.104
573	0.104
573	0.103
573	0.102
574	0.101
574	0.101
575	0.1
575	0.101
576	0.102
576	0.101
577	0.1
577	0.098
577	0.097
578	0.097
578	0.097
579	0.099
579	0.101
580	0.1
580	0.098
581	0.095
581	0.093
581	0.092
582	0.092
582	0.093
583	0.093
583	0.092
584	0.089
584	0.084
585	0.082
585	0.081
585	0.081
586	0.081
586	0.081
587	0.079
587	0.077
588	0.074
588	0.072
589	0.071
589	0.07
590	0.069
590	0.068
590	0.069
591	0.07
591	0.07
592	0.07
592	0.069
593	0.069
593	0.068
594	0.068
594	0.067
594	0.066
595	0.065
595	0.063
596	0.062
596	0.062
597	0.064
597	0.066
598	0.068
598	0.069
598	0.07
599	0.071
599	0.071
600	0.07
600	0.069
601	0.068
601	0.067
602	0.064
602	0.063
602	0.061
603	0.06
603	0.06
604	0.061
604	0.062
605	0.063
605	0.065
606	0.065
606	0.064
606	0.063
607	0.063
607	0.062
608	0.061
608	0.059
609	0.058
609	0.057
610	0.055
610	0.053
610	0.052
611	0.053
611	0.053
612	0.054
612	0.056
613	0.058
613	0.059
614	0.06
614	0.059
614	0.059
615	0.059
615	0.058
616	0.058
616	0.057
617	0.056
617	0.055
618	0.053
618	0.052
618	0.052
619	0.052
619	0.053
620	0.055
620	0.056
621	0.057
621	0.058
622	0.058
622	0.059
622	0.059
623	0.06
623	0.061
624	0.062
624	0.062
625	0.061
625	0.062
626	0.062
626	0.062
626	0.062
627	0.062
627	0.062
628	0.063
628	0.063
629	0.063
629	0.062
630	0.062
630	0.061
630	0.061
631	0.061
631	0.061
632	0.06
632	0.06
633	0.061
633	0.061
634	0.062
634	0.064
634	0.067
635	0.068
635	0.069
636	0.071
636	0.072
637	0.073
637	0.074
638	0.076
638	0.077
638	0.079
639	0.079
639	0.08
640	0.081
640	0.082
641	0.084
641	0.086
642	0.088
642	0.09
642	0.092
643	0.094
643	0.095
644	0.097
644	0.099
645	0.101
645	0.103
646	0.106
646	0.109
646	0.113
647	0.116
647	0.12
648	0.123
648	0.126
649	0.129
649	0.132
650	0.135
650	0.139
650	0.141
651	0.143
651	0.145
652	0.147
652	0.149
653	0.152
653	0.162
653	0.173
654	0.144
654	0.121
655	0.125
655	0.127
656	0.129
656	0.13
657	0.132
657	0.134
657	0.135
658	0.131
658	0.122
659	0.149
659	0.185
660	0.188
660	0.189
661	0.191
661	0.193
661	0.195
662	0.198
662	0.202
663	0.206
663	0.209
664	0.212
664	0.215
665	0.218
665	0.221
665	0.223
666	0.226
666	0.228
667	0.231
667	0.233
668	0.236
668	0.238
669	0.241
669	0.244
669	0.249
670	0.253
670	0.257
671	0.26
671	0.262
672	0.264
672	0.266
672	0.267
673	0.268
673	0.27
674	0.271
674	0.271
675	0.271
675	0.272
676	0.273
676	0.276
676	0.277
677	0.28
677	0.282
678	0.284
678	0.286
679	0.287
679	0.289
680	0.291
680	0.293
680	0.293
681	0.294
681	0.295
682	0.296
682	0.297
683	0.299
683	0.302
684	0.305
684	0.306
684	0.307
685	0.307
685	0.309
686	0.31
686	0.311
687	0.31
687	0.31
687	0.309
688	0.308
688	0.306
689	0.306
689	0.307
690	0.307
690	0.307
691	0.307
691	0.307
691	0.307
692	0.307
692	0.307
693	0.307
693	0.308
694	0.307
694	0.306
695	0.306
695	0.308
695	0.308
696	0.308
696	0.307
697	0.307
697	0.306
698	0.304
698	0.302
698	0.3
699	0.298
699	0.295
700	0.291
700	0.289
701	0.287
701	0.286
702	0.284
702	0.282
702	0.281
703	0.279
703	0.277
704	0.275
704	0.274
705	0.273
705	0.271
705	0.27
706	0.268
706	0.267
707	0.265
707	0.262
708	0.261
708	0.259
709	0.258
709	0.256
709	0.253
710	0.25
710	0.247
711	0.245
711	0.243
712	0.242
712	0.241
713	0.239
713	0.237
713	0.235
714	0.232
714	0.229
715	0.227
715	0.224
716	0.221
716	0.218
716	0.215
717	0.212
717	0.209
718	0.206
718	0.203
719	0.202
719	0.2
720	0.199
720	0.197
720	0.194
721	0.192
721	0.189
722	0.187
722	0.184
723	0.182
723	0.18
723	0.177
724	0.174
724	0.171
725	0.168
725	0.165
726	0.163
726	0.16
727	0.158
727	0.156
727	0.154
728	0.152
728	0.15
729	0.15
729	0.149
730	0.148
730	0.147
730	0.146
731	0.145
731	0.144
732	0.144
732	0.143
733	0.141
733	0.139
734	0.137
734	0.134
734	0.132
735	0.13
735	0.128
736	0.125
736	0.122
737	0.12
737	0.119
737	0.117
738	0.114
738	0.111
739	0.108
739	0.106
740	0.103
740	0.102
741	0.101
741	0.098
741	0.095
742	0.09
742	0.087
743	0.084
743	0.081
744	0.079
744	0.077
744	0.075
745	0.072
745	0.069
746	0.067
746	0.065
747	0.064
747	0.064
748	0.063
748	0.062
748	0.061
749	0.06
749	0.059
750	0.058
750	0.057
751	0.057
751	0.056
751	0.056
752	0.055
752	0.054
753	0.053
753	0.052
754	0.051
754	0.051
754	0.051
755	0.051
755	0.051
756	0.051
756	0.048
757	0.047
757	0.046
758	0.045
758	0.043
758	0.042
759	0.04
759	0.037
760	0.033
760	0.03
761	0.027
761	0.026
761	0.024
762	0.022
762	0.02
763	0.019
763	0.017
764	0.014
764	0.011
764	0.009
765	0.007
765	0.005
766	0.003
766	0.003
767	0.002
767	-0
768	-0.004
768	-0.006
768	-0.007
769	-0.007
769	-0.008
770	-0.009
770	-0.01
771	-0.012
771	-0.015
771	-0.018
772	-0.021
772	-0.022
773	-0.025
773	-0.028
774	-0.031
774	-0.035
775	-0.038
775	-0.042
775	-0.046
776	-0.05
776	-0.054
777	-0.059
777	-0.063
778	-0.068
778	-0.073
778	-0.077
779	-0.078
779	-0.075
780	-0.075
780	-0.076
781	-0.075
781	-0.075
781	-0.074
782	-0.073
782	-0.073
783	-0.072
783	-0.071
784	-0.071
784	-0.074
784	-0.076
785	-0.078
785	-0.08
786	-0.08
786	-0.078
787	-0.074
787	-0.07
788	-0.069
788	-0.07
788	-0.071
789	-0.073
789	-0.073
790	-0.07
790	-0.069
791	-0.069
791	-0.071
791	-0.073
792	-0.068
792	-0.058
793	-0.053
793	-0.049
794	-0.047
794	-0.049
794	-0.053
795	-0.055
795	-0.054
796	-0.054
796	-0.057
797	-0.065
797	-0.074
797	-0.08
798	-0.085
798	-0.088
799	-0.088
799	-0.088
800	-0.088
800	-0.09
801	-0.093
801	-0.095
801	-0.095
802	-0.097
802	-0.099
803	-0.1
803	-0.1
804	-0.099
804	-0.094
804	-0.088
805	-0.085
805	-0.083
806	-0.081
806	-0.079
807	-0.078
807	-0.077
807	-0.077
808	-0.076
808	-0.077
809	-0.081
809	-0.086
810	-0.089
810	-0.091
810	-0.093
811	-0.096
811	-0.096
812	-0.092
812	-0.089
813	-0.089
813	-0.09
813	-0.091
814	-0.092
814	-0.092
815	-0.089
815	-0.087
816	-0.085
816	-0.085
817	-0.09
817	-0.093
817	-0.094
818	-0.093
818	-0.09
819	-0.085
819	-0.082
820	-0.083
820	-0.085
820	-0.087
821	-0.086
821	-0.085
822	-0.084
822	-0.084
823	-0.083
823	-0.085
823	-0.088
824	-0.089
824	-0.087
825	-0.083
825	-0.078
826	-0.073
826	-0.07
826	-0.065
827	-0.06
827	-0.056
828	-0.051
828	-0.047
829	-0.042
829	-0.038
829	-0.035
830	-0.032
830	-0.03
831	-0.025
831	-0.022
832	-0.019
832	-0.016
832	-0.014
833	-0.012
833	-0.01
834	-0.008
834	-0.007
835	-0.006
835	-0.006
835	-0.006
836	-0.005
836	-0.004
837	-0.003
837	-0.002
838	-0.001
838	-0.001
839	0
839	0.001
839	0.002
840	0.002
840	0.003
841	0.004
841	0.004
842	0.005
842	0.005
842	0.006
843	0.006
843	0.006
844	0.007
844	0.007
845	0.008
845	0.009
845	0.01
846	0.011
846	0.012
847	0.013
847	0.015
848	0.016
848	0.017
848	0.019
849	0.02
849	0.021
850	0.022
850	0.022
851	0.022
851	0.023
851	0.023
852	0.023
852	0.024
853	0.024
853	0.024
854	0.025
854	0.025
854	0.026
855	0.026
855	0.026
856	0.026
856	0.026
857	0.027
857	0.027
857	0.027
858	0.027
858	0.027
859	0.026
859	0.027
860	0.027
860	0.027
860	0.027
861	0.028
861	0.027
862	0.027
862	0.026
863	0.026
863	0.026
863	0.025
864	0.025
864	0.024
865	0.025
865	0.024
866	0.024
866	0.024
866	0.025
867	0.026
867	0.027
868	0.028
868	0.029
869	0.03
869	0.03
869	0.03
870	0.031
870	0.031
871	0.031
871	0.03
872	0.03
872	0.029
872	0.029
873	0.028
873	0.027
874	0.027
874	0.028
875	0.028
875	0.028
875	0.029
876	0.029
876	0.029
877	0.03
877	0.03
878	0.029
878	0.029
878	0.029
879	0.028
879	0.028
880	0.028
880	0.027
881	0.027
881	0.027
881	0.027
882	0.027
882	0.027
883	0.028
883	0.028
884	0.029
884	0.03
884	0.03
885	0.031
885	0.032
886	0.033
886	0.033
887	0.034
887	0.034
887	0.034
888	0.034
888	0.033
889	0.034
889	0.034
890	0.034
890	0.035
890	0.035
891	0.035
891	0.035
892	0.036
892	0.037
893	0.037
893	0.038
893	0.039
894	0.039
894	0.04
895	0.04
895	0.041
895	0.041
896	0.042
896	0.043
897	0.043
897	0.044
898	0.045
898	0.045
898	0.046
899	0.046
899	0.047
900	0.047
900	0.047
901	0.047
901	0.047
901	0.046
902	0.046
902	0.046
903	0.045
903	0.044
904	0.044
904	0.043
904	0.042
905	0.041
905	0.041
906	0.04
906	0.04
907	0.039
907	0.038
907	0.038
908	0.038
908	0.037
909	0.038
909	0.038
910	0.038
910	0.038
910	0.039
911	0.039
911	0.04
912	0.041
912	0.042
913	0.043
913	0.043
913	0.044
914	0.044
914	0.044
915	0.044
915	0.043
916	0.042
916	0.042
916	0.041
917	0.04
917	0.039
918	0.039
918	0.038
918	0.038
919	0.038
919	0.038
920	0.038
920	0.039
921	0.039
921	0.038
921	0.038
922	0.037
922	0.037
923	0.036
923	0.035
924	0.034
924	0.033
924	0.032
925	0.031
925	0.03
926	0.029
926	0.028
927	0.028
927	0.028
927	0.028
928	0.028
928	0.029
929	0.03
929	0.031
930	0.033
930	0.035
930	0.038
931	0.04
931	0.042
932	0.045
932	0.047
933	0.049
933	0.051
933	0.052
934	0.053
934	0.054
935	0.054
935	0.054
935	0.054
936	0.053
936	0.053
937	0.053
937	0.053
938	0.054
938	0.054
938	0.055
939	0.055
939	0.056
940	0.056
940	0.057
941	0.058
941	0.058
941	0.058
942	0.058
942	0.057
943	0.057
943	0.056
944	0.056
944	0.055
944	0.055
945	0.055
945	0.055
946	0.055
946	0.054
946	0.054
947	0.053
947	0.052
948	0.051
948	0.05
949	0.049
949	0.049
949	0.048
950	0.047
950	0.047
951	0.046
951	0.045
952	0.045
952	0.045
952	0.044
953	0.044
953	0.044
954	0.043
954	0.042
955	0.042
955	0.041
955	0.041
956	0.041
956	0.041
957	0.041
957	0.04
957	0.04
958	0.039
958	0.039
959	0.039
959	0.038
960	0.038
960	0.037
960	0.036
961	0.035
961	0.035
962	0.034
962	0.034
963	0.034
963	0.034
963	0.034
964	0.034
964	0.035
965	0.036
965	0.037
966	0.038
966	0.039
966	0.04
967	0.041
967	0.041
968	0.042
968	0.042
968	0.042
969	0.043
969	0.042
970	0.042
970	0.042
971	0.042
971	0.042
971	0.042
972	0.042
972	0.042
973	0.043
973	0.043
974	0.044
974	0.044
974	0.045
975	0.046
975	0.046
976	0.047
976	0.048
976	0.049
977	0.049
977	0.049
978	0.05
978	0.05
979	0.05
979	0.051
979	0.051
980	0.052
980	0.052
981	0.052
981	0.053
982	0.054
982	0.055
982	0.055
983	0.056
983	0.057
984	0.057
984	0.057
984	0.058
985	0.058
985	0.058
986	0.057
986	0.057
987	0.056
987	0.056
987	0.055
988	0.054
988	0.053
989	0.053
989	0.052
990	0.051
990	0.051
990	0.051
991	0.05
991	0.051
992	0.051
992	0.051
992	0.05
993	0.05
993	0.05
994	0.049
994	0.049
995	0.049
995	0.048
995	0.048
996	0.047
996	0.046
997	0.046
997	0.046
997	0.046
998	0.046
998	0.047
999	0.048
999	0.048
1000	0.049
1000	0.05
1000	0.051
1001	0.052
1001	0.053
1002	0.053
1002	0.053
1003	0.053
1003	0.053
1003	0.053
1004	0.052
1004	0.052
1005	0.051
1005	0.05
1005	0.049
1006	0.048
1006	0.047
1007	0.047
1007	0.047
1008	0.047
1008	0.047
1008	0.047
1009	0.047
1009	0.048
1010	0.048
1010	0.049
1010	0.049
1011	0.05
1011	0.05
1012	0.051
1012	0.051
1013	0.052
1013	0.052
1013	0.051
1014	0.051
1014	0.05
1015	0.049
1015	0.049
1016	0.048
1016	0.047
1016	0.046
1017	0.045
1017	0.043
1018	0.043
1018	0.042
1018	0.042
1019	0.042
1019	0.042
1020	0.042
1020	0.041
1021	0.041
1021	0.041
1021	0.041
1022	0.041
1022	0.041
1023	0.041
1023	0.04
1023	0.04
1024	0.04
1024	0.039
1025	0.038
1025	0.038
1026	0.038
1026	0.037
1026	0.037
1027	0.036
1027	0.036
1028	0.036
1028	0.036
1028	0.036
1029	0.037
1029	0.037
1030	0.037
1030	0.038
1031	0.038
1031	0.039
1031	0.039
1032	0.04
1032	0.04
1033	0.041
1033	0.041
1033	0.042
1034	0.041
1034	0.041
1035	0.041
1035	0.041
1036	0.041
1036	0.041
1036	0.042
1037	0.042
1037	0.043
1038	0.043
1038	0.044
1039	0.045
1039	0.046
1039	0.047
1040	0.047
1040	0.048
1041	0.048
1041	0.048
1041	0.048
1042	0.048
1042	0.048
1043	0.047
1043	0.047
1044	0.047
1044	0.046
1044	0.046
1045	0.046
1045	0.046
1046	0.046
1046	0.046
1046	0.047
1047	0.048
1047	0.048
1048	0.049
1048	0.049
1049	0.049
1049	0.049
1049	0.048
1050	0.048
1050	0.048
1051	0.048
1051	0.048
1051	0.048
1052	0.048
1052	0.048
1053	0.049
1053	0.049
1053	0.05
1054	0.051
1054	0.052
1055	0.053
1055	0.054
1056	0.054
1056	0.055
1056	0.055
1057	0.055
1057	0.056
1058	0.058
1058	0.058
1058	0.06
1059	0.061
1059	0.062
1060	0.063
1060	0.064
1061	0.065
1061	0.067
1061	0.068
1062	0.068
1062	0.068
1063	0.069
1063	0.07
1063	0.07
1064	0.071
1064	0.073
1065	0.074
1065	0.075
1066	0.077
1066	0.079
1066	0.081
1067	0.083
1067	0.085
1068	0.086
1068	0.088
1068	0.089
1069	0.091
1069	0.091
1070	0.093
1070	0.094
1071	0.096
1071	0.097
1071	0.098
1072	0.1
1072	0.102
1073	0.104
1073	0.106
1073	0.108
1074	0.11
1074	0.112
1075	0.112
1075	0.114
1076	0.115
1076	0.117
1076	0.118
1077	0.12
1077	0.122
1078	0.124
1078	0.127
1078	0.13
1079	0.133
1079	0.137
1080	0.14
1080	0.143
1080	0.145
1081	0.149
1081	0.152
1082	0.155
1082	0.158
1083	0.161
1083	0.164
1083	0.168
1084	0.171
1084	0.176
1085	0.18
1085	0.186
1085	0.191
1086	0.196
1086	0.2
1087	0.206
1087	0.212
1088	0.217
1088	0.223
1088	0.23
1089	0.237
1089	0.245
1090	0.254
1090	0.265
1090	0.275
1091	0.287
1091	0.301
1092	0.316
1092	0.332
1092	0.348
1093	0.364
1093	0.384
1094	0.403
1094	0.424
1095	0.448
1095	0.474
1095	0.507
1096	0.542
1096	0.581
1097	0.631
1097	0.685
1097	0.755
1098	0.836
1098	0.95
1099	1.109
1099	1.364
1100	2.371
1100	-0
1100	-0
1101	-0
1101	-0
1102	-0
1102	-0
1102	-0
1103	-0
1103	-0
1104	-0
1104	-0
1104	-0
1105	-0
1105	-0
1106	-0
1106	-0
1107	-0
1107	-0
1107	-0
1108	-0
1108	-0
1109	-0
1109	-0
1109	-0
1110	-0
1110	-0
1111	-0
1111	-0
