Data from 15c-stair-power-variation_Absorbance__567__04177.txt Node

Date: Tue Jan 16 16:00:55 CET 2024
User: Marek
Spectrometer: MAYP115816
Trigger mode: 0
Integration Time (sec): 2.000000E-1
Scans to average: 10
Electric dark correction enabled: true
Nonlinearity correction enabled: true
Boxcar width: 5
XAxis mode: Wavelengths
Number of Pixels in Spectrum: 2068
>>>>>Begin Spectral Data<<<<<
199	-0.607
199	-0.538
200	-0.466
200	-0.395
201	-0.359
201	-0.335
202	-0.311
202	-0.301
203	-0.295
203	-0.286
204	-0.271
204	-0.254
205	-0.238
205	-0.232
205	-0.235
206	-0.233
206	-0.236
207	-0.234
207	-0.238
208	-0.239
208	-0.241
209	-0.238
209	-0.242
210	-0.245
210	-0.245
211	-0.246
211	-0.248
212	-0.251
212	-0.251
213	-0.251
213	-0.251
213	-0.255
214	-0.255
214	-0.254
215	-0.252
215	-0.257
216	-0.255
216	-0.257
217	-0.252
217	-0.252
218	-0.249
218	-0.246
219	-0.239
219	-0.241
220	-0.24
220	-0.244
221	-0.242
221	-0.243
221	-0.239
222	-0.236
222	-0.232
223	-0.227
223	-0.224
224	-0.223
224	-0.213
225	-0.204
225	-0.196
226	-0.19
226	-0.181
227	-0.168
227	-0.163
228	-0.15
228	-0.141
229	-0.124
229	-0.102
229	-0.081
230	-0.058
230	-0.029
231	0.001
231	0.033
232	0.06
232	0.093
233	0.125
233	0.159
234	0.189
234	0.219
235	0.246
235	0.27
236	0.292
236	0.314
236	0.336
237	0.355
237	0.372
238	0.388
238	0.401
239	0.415
239	0.426
240	0.435
240	0.443
241	0.451
241	0.457
242	0.463
242	0.468
243	0.473
243	0.476
243	0.48
244	0.483
244	0.485
245	0.488
245	0.49
246	0.493
246	0.495
247	0.497
247	0.499
248	0.501
248	0.504
249	0.506
249	0.507
250	0.509
250	0.511
250	0.513
251	0.514
251	0.515
252	0.517
252	0.518
253	0.519
253	0.52
254	0.521
254	0.522
255	0.522
255	0.523
256	0.524
256	0.524
257	0.525
257	0.525
258	0.525
258	0.525
258	0.525
259	0.525
259	0.524
260	0.524
260	0.524
261	0.523
261	0.523
262	0.522
262	0.521
263	0.52
263	0.519
264	0.518
264	0.516
265	0.515
265	0.513
265	0.512
266	0.51
266	0.508
267	0.507
267	0.505
268	0.503
268	0.501
269	0.498
269	0.496
270	0.494
270	0.491
271	0.489
271	0.486
272	0.483
272	0.481
272	0.478
273	0.475
273	0.473
274	0.47
274	0.467
275	0.464
275	0.462
276	0.459
276	0.456
277	0.454
277	0.451
278	0.448
278	0.445
278	0.442
279	0.438
279	0.434
280	0.431
280	0.428
281	0.425
281	0.421
282	0.418
282	0.415
283	0.412
283	0.409
284	0.407
284	0.404
285	0.402
285	0.4
285	0.397
286	0.395
286	0.393
287	0.39
287	0.388
288	0.386
288	0.384
289	0.382
289	0.379
290	0.377
290	0.375
291	0.373
291	0.371
292	0.369
292	0.367
292	0.365
293	0.364
293	0.362
294	0.36
294	0.359
295	0.357
295	0.356
296	0.354
296	0.352
297	0.351
297	0.35
298	0.349
298	0.347
298	0.346
299	0.345
299	0.344
300	0.343
300	0.342
301	0.341
301	0.34
302	0.339
302	0.338
303	0.337
303	0.336
304	0.335
304	0.334
305	0.333
305	0.332
305	0.331
306	0.33
306	0.329
307	0.328
307	0.327
308	0.326
308	0.325
309	0.324
309	0.323
310	0.322
310	0.321
311	0.32
311	0.32
311	0.319
312	0.318
312	0.317
313	0.316
313	0.315
314	0.314
314	0.313
315	0.312
315	0.312
316	0.31
316	0.309
317	0.309
317	0.308
318	0.307
318	0.306
318	0.306
319	0.305
319	0.304
320	0.303
320	0.302
321	0.301
321	0.301
322	0.3
322	0.299
323	0.298
323	0.297
324	0.296
324	0.296
324	0.295
325	0.294
325	0.294
326	0.293
326	0.292
327	0.291
327	0.29
328	0.29
328	0.289
329	0.288
329	0.288
330	0.287
330	0.286
330	0.285
331	0.285
331	0.284
332	0.283
332	0.282
333	0.282
333	0.281
334	0.28
334	0.28
335	0.279
335	0.278
336	0.277
336	0.277
336	0.276
337	0.275
337	0.275
338	0.274
338	0.273
339	0.273
339	0.272
340	0.272
340	0.271
341	0.271
341	0.27
342	0.27
342	0.269
342	0.269
343	0.268
343	0.268
344	0.268
344	0.267
345	0.267
345	0.267
346	0.266
346	0.266
347	0.265
347	0.265
348	0.265
348	0.265
348	0.264
349	0.264
349	0.264
350	0.264
350	0.263
351	0.263
351	0.263
352	0.263
352	0.262
353	0.262
353	0.262
354	0.261
354	0.261
354	0.261
355	0.26
355	0.26
356	0.259
356	0.259
357	0.258
357	0.258
358	0.257
358	0.257
359	0.257
359	0.256
360	0.256
360	0.256
360	0.256
361	0.256
361	0.256
362	0.256
362	0.256
363	0.257
363	0.256
364	0.256
364	0.256
365	0.256
365	0.256
366	0.256
366	0.256
366	0.256
367	0.256
367	0.256
368	0.255
368	0.255
369	0.255
369	0.255
370	0.255
370	0.254
371	0.254
371	0.254
372	0.254
372	0.254
372	0.254
373	0.253
373	0.253
374	0.253
374	0.252
375	0.252
375	0.252
376	0.252
376	0.251
377	0.251
377	0.251
378	0.251
378	0.251
378	0.251
379	0.251
379	0.251
380	0.251
380	0.25
381	0.25
381	0.25
382	0.249
382	0.249
383	0.249
383	0.249
383	0.248
384	0.248
384	0.248
385	0.247
385	0.247
386	0.247
386	0.247
387	0.247
387	0.246
388	0.246
388	0.246
389	0.246
389	0.245
389	0.245
390	0.245
390	0.245
391	0.244
391	0.244
392	0.244
392	0.244
393	0.244
393	0.244
394	0.243
394	0.243
394	0.243
395	0.243
395	0.243
396	0.242
396	0.242
397	0.242
397	0.242
398	0.242
398	0.241
399	0.241
399	0.241
400	0.241
400	0.24
400	0.24
401	0.239
401	0.239
402	0.239
402	0.238
403	0.238
403	0.238
404	0.238
404	0.237
405	0.237
405	0.237
405	0.237
406	0.237
406	0.237
407	0.237
407	0.237
408	0.237
408	0.236
409	0.236
409	0.236
410	0.236
410	0.236
411	0.236
411	0.236
411	0.236
412	0.236
412	0.235
413	0.235
413	0.235
414	0.235
414	0.234
415	0.234
415	0.234
416	0.233
416	0.233
416	0.233
417	0.233
417	0.233
418	0.233
418	0.233
419	0.233
419	0.233
420	0.233
420	0.233
421	0.233
421	0.233
421	0.233
422	0.233
422	0.233
423	0.233
423	0.232
424	0.232
424	0.231
425	0.231
425	0.23
426	0.23
426	0.23
427	0.231
427	0.231
427	0.231
428	0.231
428	0.231
429	0.231
429	0.231
430	0.231
430	0.23
431	0.23
431	0.23
432	0.23
432	0.23
432	0.229
433	0.229
433	0.229
434	0.229
434	0.229
435	0.229
435	0.229
436	0.228
436	0.228
437	0.228
437	0.228
437	0.228
438	0.228
438	0.228
439	0.228
439	0.228
440	0.228
440	0.228
441	0.228
441	0.228
442	0.229
442	0.229
442	0.229
443	0.23
443	0.23
444	0.23
444	0.23
445	0.23
445	0.23
446	0.23
446	0.23
447	0.23
447	0.23
447	0.23
448	0.23
448	0.23
449	0.23
449	0.229
450	0.229
450	0.23
451	0.229
451	0.229
452	0.23
452	0.23
452	0.23
453	0.23
453	0.229
454	0.229
454	0.229
455	0.23
455	0.23
456	0.23
456	0.23
457	0.23
457	0.23
458	0.23
458	0.23
458	0.231
459	0.231
459	0.231
460	0.231
460	0.231
461	0.232
461	0.232
462	0.233
462	0.233
463	0.234
463	0.234
463	0.235
464	0.235
464	0.235
465	0.235
465	0.235
466	0.235
466	0.236
467	0.236
467	0.236
467	0.236
468	0.236
468	0.236
469	0.236
469	0.237
470	0.238
470	0.238
471	0.239
471	0.239
472	0.239
472	0.24
472	0.24
473	0.241
473	0.242
474	0.242
474	0.243
475	0.243
475	0.244
476	0.245
476	0.245
477	0.246
477	0.247
477	0.248
478	0.249
478	0.25
479	0.251
479	0.252
480	0.252
480	0.253
481	0.254
481	0.255
482	0.256
482	0.257
482	0.258
483	0.259
483	0.261
484	0.262
484	0.262
485	0.263
485	0.264
486	0.265
486	0.266
487	0.267
487	0.268
487	0.269
488	0.271
488	0.271
489	0.273
489	0.275
490	0.277
490	0.279
491	0.281
491	0.283
492	0.284
492	0.285
492	0.287
493	0.289
493	0.29
494	0.293
494	0.295
495	0.297
495	0.298
496	0.3
496	0.302
496	0.304
497	0.306
497	0.307
498	0.309
498	0.31
499	0.312
499	0.313
500	0.316
500	0.318
501	0.32
501	0.322
501	0.323
502	0.326
502	0.328
503	0.33
503	0.332
504	0.334
504	0.336
505	0.338
505	0.34
506	0.342
506	0.344
506	0.346
507	0.348
507	0.35
508	0.352
508	0.354
509	0.356
509	0.358
510	0.36
510	0.361
511	0.363
511	0.365
511	0.366
512	0.368
512	0.37
513	0.371
513	0.372
514	0.374
514	0.376
515	0.377
515	0.378
515	0.379
516	0.38
516	0.381
517	0.382
517	0.383
518	0.383
518	0.384
519	0.384
519	0.384
520	0.385
520	0.386
520	0.387
521	0.387
521	0.387
522	0.388
522	0.388
523	0.389
523	0.389
524	0.389
524	0.389
524	0.389
525	0.389
525	0.389
526	0.388
526	0.388
527	0.387
527	0.387
528	0.386
528	0.385
529	0.384
529	0.383
529	0.382
530	0.381
530	0.38
531	0.379
531	0.378
532	0.377
532	0.376
533	0.375
533	0.373
533	0.372
534	0.37
534	0.368
535	0.366
535	0.365
536	0.363
536	0.361
537	0.359
537	0.357
538	0.355
538	0.352
538	0.351
539	0.349
539	0.347
540	0.345
540	0.342
541	0.34
541	0.338
542	0.335
542	0.333
542	0.33
543	0.328
543	0.325
544	0.322
544	0.32
545	0.317
545	0.315
546	0.312
546	0.309
547	0.306
547	0.302
547	0.3
548	0.297
548	0.294
549	0.292
549	0.289
550	0.286
550	0.283
551	0.28
551	0.277
551	0.275
552	0.272
552	0.27
553	0.268
553	0.265
554	0.262
554	0.259
555	0.256
555	0.253
556	0.251
556	0.247
556	0.245
557	0.242
557	0.24
558	0.237
558	0.234
559	0.232
559	0.229
560	0.227
560	0.224
560	0.223
561	0.222
561	0.219
562	0.217
562	0.214
563	0.211
563	0.208
564	0.206
564	0.203
564	0.201
565	0.199
565	0.197
566	0.194
566	0.192
567	0.19
567	0.188
568	0.186
568	0.184
568	0.182
569	0.181
569	0.179
570	0.176
570	0.173
571	0.172
571	0.17
572	0.168
572	0.166
573	0.164
573	0.161
573	0.159
574	0.157
574	0.156
575	0.154
575	0.155
576	0.153
576	0.149
577	0.146
577	0.145
577	0.144
578	0.143
578	0.143
579	0.144
579	0.144
580	0.141
580	0.138
581	0.135
581	0.134
581	0.135
582	0.135
582	0.135
583	0.135
583	0.132
584	0.128
584	0.125
585	0.125
585	0.125
585	0.125
586	0.125
586	0.124
587	0.121
587	0.12
588	0.118
588	0.118
589	0.118
589	0.119
590	0.119
590	0.118
590	0.12
591	0.121
591	0.119
592	0.118
592	0.116
593	0.116
593	0.115
594	0.114
594	0.113
594	0.112
595	0.112
595	0.11
596	0.109
596	0.111
597	0.113
597	0.113
598	0.113
598	0.113
598	0.113
599	0.113
599	0.111
600	0.11
600	0.109
601	0.109
601	0.108
602	0.106
602	0.106
602	0.105
603	0.106
603	0.107
604	0.107
604	0.107
605	0.108
605	0.108
606	0.107
606	0.106
606	0.105
607	0.105
607	0.105
608	0.104
608	0.103
609	0.102
609	0.102
610	0.101
610	0.1
610	0.101
611	0.103
611	0.104
612	0.105
612	0.106
613	0.107
613	0.108
614	0.107
614	0.107
614	0.107
615	0.107
615	0.107
616	0.108
616	0.107
617	0.107
617	0.107
618	0.107
618	0.108
618	0.109
619	0.111
619	0.113
620	0.115
620	0.116
621	0.117
621	0.118
622	0.119
622	0.119
622	0.119
623	0.12
623	0.121
624	0.122
624	0.122
625	0.122
625	0.123
626	0.123
626	0.124
626	0.125
627	0.127
627	0.127
628	0.128
628	0.129
629	0.13
629	0.131
630	0.131
630	0.132
630	0.133
631	0.134
631	0.135
632	0.136
632	0.137
633	0.139
633	0.14
634	0.142
634	0.144
634	0.146
635	0.147
635	0.148
636	0.149
636	0.151
637	0.152
637	0.154
638	0.155
638	0.157
638	0.159
639	0.16
639	0.161
640	0.164
640	0.166
641	0.169
641	0.171
642	0.174
642	0.176
642	0.178
643	0.18
643	0.182
644	0.185
644	0.187
645	0.19
645	0.192
646	0.195
646	0.198
646	0.201
647	0.204
647	0.206
648	0.209
648	0.212
649	0.215
649	0.218
650	0.221
650	0.224
650	0.226
651	0.229
651	0.232
652	0.234
652	0.238
653	0.242
653	0.251
653	0.253
654	0.201
654	0.162
655	0.164
655	0.166
656	0.168
656	0.17
657	0.172
657	0.173
657	0.174
658	0.171
658	0.167
659	0.213
659	0.276
660	0.288
660	0.291
661	0.294
661	0.298
661	0.302
662	0.307
662	0.311
663	0.315
663	0.319
664	0.322
664	0.325
665	0.329
665	0.332
665	0.335
666	0.338
666	0.341
667	0.344
667	0.347
668	0.35
668	0.353
669	0.356
669	0.36
669	0.364
670	0.367
670	0.37
671	0.373
671	0.375
672	0.377
672	0.379
672	0.382
673	0.384
673	0.387
674	0.389
674	0.391
675	0.393
675	0.396
676	0.399
676	0.401
676	0.402
677	0.405
677	0.406
678	0.407
678	0.408
679	0.409
679	0.41
680	0.411
680	0.412
680	0.413
681	0.414
681	0.416
682	0.417
682	0.419
683	0.42
683	0.422
684	0.423
684	0.423
684	0.423
685	0.423
685	0.424
686	0.423
686	0.423
687	0.422
687	0.422
687	0.421
688	0.42
688	0.419
689	0.42
689	0.42
690	0.418
690	0.417
691	0.417
691	0.416
691	0.415
692	0.414
692	0.413
693	0.413
693	0.413
694	0.411
694	0.41
695	0.411
695	0.411
695	0.409
696	0.407
696	0.405
697	0.404
697	0.401
698	0.399
698	0.396
698	0.394
699	0.392
699	0.388
700	0.385
700	0.384
701	0.382
701	0.379
702	0.377
702	0.374
702	0.372
703	0.369
703	0.367
704	0.364
704	0.362
705	0.359
705	0.356
705	0.352
706	0.349
706	0.346
707	0.343
707	0.341
708	0.338
708	0.336
709	0.334
709	0.331
709	0.328
710	0.326
710	0.324
711	0.323
711	0.321
712	0.318
712	0.316
713	0.313
713	0.311
713	0.308
714	0.305
714	0.302
715	0.299
715	0.296
716	0.293
716	0.29
716	0.286
717	0.283
717	0.28
718	0.277
718	0.274
719	0.273
719	0.271
720	0.268
720	0.266
720	0.263
721	0.261
721	0.259
722	0.257
722	0.254
723	0.252
723	0.249
723	0.246
724	0.243
724	0.239
725	0.236
725	0.233
726	0.23
726	0.227
727	0.224
727	0.221
727	0.219
728	0.216
728	0.214
729	0.213
729	0.211
730	0.21
730	0.208
730	0.207
731	0.206
731	0.205
732	0.205
732	0.203
733	0.201
733	0.2
734	0.198
734	0.196
734	0.195
735	0.194
735	0.191
736	0.189
736	0.187
737	0.185
737	0.184
737	0.182
738	0.179
738	0.176
739	0.174
739	0.172
740	0.17
740	0.17
741	0.169
741	0.167
741	0.165
742	0.163
742	0.162
743	0.162
743	0.161
744	0.16
744	0.159
744	0.157
745	0.155
745	0.153
746	0.151
746	0.15
747	0.148
747	0.146
748	0.144
748	0.142
748	0.139
749	0.137
749	0.135
750	0.133
750	0.131
751	0.13
751	0.128
751	0.127
752	0.125
752	0.123
753	0.122
753	0.122
754	0.121
754	0.12
754	0.12
755	0.119
755	0.118
756	0.115
756	0.113
757	0.112
757	0.111
758	0.109
758	0.107
758	0.106
759	0.104
759	0.101
760	0.099
760	0.098
761	0.097
761	0.097
761	0.097
762	0.095
762	0.095
763	0.094
763	0.092
764	0.091
764	0.09
764	0.09
765	0.089
765	0.089
766	0.089
766	0.088
767	0.088
767	0.086
768	0.085
768	0.085
768	0.085
769	0.085
769	0.084
770	0.083
770	0.082
771	0.081
771	0.08
771	0.079
772	0.079
772	0.079
773	0.079
773	0.078
774	0.077
774	0.077
775	0.077
775	0.076
775	0.075
776	0.074
776	0.074
777	0.073
777	0.072
778	0.071
778	0.07
778	0.07
779	0.071
779	0.07
780	0.069
780	0.069
781	0.068
781	0.068
781	0.068
782	0.068
782	0.067
783	0.067
783	0.067
784	0.065
784	0.064
784	0.063
785	0.063
785	0.062
786	0.062
786	0.061
787	0.061
787	0.06
788	0.059
788	0.059
788	0.059
789	0.059
789	0.06
790	0.06
790	0.059
791	0.059
791	0.059
791	0.059
792	0.06
792	0.059
793	0.058
793	0.057
794	0.056
794	0.056
794	0.056
795	0.056
795	0.056
796	0.056
796	0.055
797	0.053
797	0.055
797	0.055
798	0.054
798	0.054
799	0.054
799	0.053
800	0.052
800	0.051
801	0.05
801	0.05
801	0.049
802	0.048
802	0.047
803	0.047
803	0.046
804	0.046
804	0.046
804	0.046
805	0.045
805	0.045
806	0.045
806	0.045
807	0.045
807	0.045
807	0.045
808	0.045
808	0.044
809	0.044
809	0.044
810	0.044
810	0.043
810	0.043
811	0.043
811	0.043
812	0.043
812	0.043
813	0.042
813	0.042
813	0.042
814	0.042
814	0.043
815	0.043
815	0.044
816	0.044
816	0.043
817	0.043
817	0.044
817	0.044
818	0.044
818	0.044
819	0.044
819	0.042
820	0.041
820	0.041
820	0.041
821	0.04
821	0.04
822	0.039
822	0.039
823	0.038
823	0.037
823	0.037
824	0.038
824	0.038
825	0.037
825	0.037
826	0.036
826	0.035
826	0.034
827	0.034
827	0.033
828	0.033
828	0.032
829	0.032
829	0.032
829	0.033
830	0.033
830	0.034
831	0.036
831	0.037
832	0.037
832	0.038
832	0.038
833	0.038
833	0.038
834	0.038
834	0.038
835	0.037
835	0.036
835	0.035
836	0.035
836	0.035
837	0.035
837	0.036
838	0.036
838	0.036
839	0.037
839	0.037
839	0.037
840	0.037
840	0.037
841	0.037
841	0.037
842	0.036
842	0.036
842	0.035
843	0.034
843	0.033
844	0.033
844	0.032
845	0.032
845	0.031
845	0.031
846	0.031
846	0.031
847	0.031
847	0.032
848	0.032
848	0.032
848	0.032
849	0.032
849	0.032
850	0.031
850	0.031
851	0.031
851	0.031
851	0.03
852	0.03
852	0.029
853	0.029
853	0.029
854	0.029
854	0.029
854	0.029
855	0.029
855	0.028
856	0.028
856	0.028
857	0.028
857	0.027
857	0.027
858	0.027
858	0.026
859	0.026
859	0.025
860	0.025
860	0.024
860	0.024
861	0.023
861	0.022
862	0.021
862	0.02
863	0.019
863	0.018
863	0.018
864	0.017
864	0.017
865	0.017
865	0.016
866	0.016
866	0.016
866	0.017
867	0.018
867	0.019
868	0.02
868	0.021
869	0.022
869	0.022
869	0.022
870	0.022
870	0.021
871	0.021
871	0.02
872	0.019
872	0.018
872	0.017
873	0.017
873	0.016
874	0.015
874	0.015
875	0.016
875	0.016
875	0.016
876	0.016
876	0.016
877	0.015
877	0.015
878	0.015
878	0.014
878	0.014
879	0.013
879	0.012
880	0.011
880	0.011
881	0.01
881	0.01
881	0.011
882	0.011
882	0.011
883	0.012
883	0.012
884	0.013
884	0.014
884	0.014
885	0.015
885	0.015
886	0.016
886	0.016
887	0.017
887	0.017
887	0.016
888	0.016
888	0.016
889	0.016
889	0.017
890	0.017
890	0.018
890	0.018
891	0.018
891	0.019
892	0.019
892	0.02
893	0.021
893	0.021
893	0.022
894	0.022
894	0.022
895	0.023
895	0.023
895	0.023
896	0.023
896	0.024
897	0.024
897	0.025
898	0.025
898	0.026
898	0.026
899	0.026
899	0.026
900	0.026
900	0.026
901	0.026
901	0.026
901	0.025
902	0.025
902	0.025
903	0.024
903	0.023
904	0.023
904	0.022
904	0.021
905	0.02
905	0.019
906	0.019
906	0.018
907	0.017
907	0.016
907	0.016
908	0.015
908	0.015
909	0.015
909	0.015
910	0.015
910	0.016
910	0.016
911	0.016
911	0.017
912	0.018
912	0.018
913	0.019
913	0.019
913	0.02
914	0.02
914	0.02
915	0.02
915	0.02
916	0.019
916	0.018
916	0.017
917	0.016
917	0.015
918	0.015
918	0.014
918	0.014
919	0.014
919	0.014
920	0.014
920	0.014
921	0.014
921	0.013
921	0.013
922	0.012
922	0.011
923	0.01
923	0.009
924	0.008
924	0.007
924	0.006
925	0.005
925	0.004
926	0.003
926	0.003
927	0.002
927	0.002
927	0.002
928	0.003
928	0.003
929	0.004
929	0.006
930	0.008
930	0.01
930	0.012
931	0.014
931	0.016
932	0.018
932	0.02
933	0.022
933	0.024
933	0.025
934	0.025
934	0.026
935	0.025
935	0.025
935	0.025
936	0.024
936	0.024
937	0.024
937	0.023
938	0.023
938	0.022
938	0.022
939	0.022
939	0.023
940	0.022
940	0.022
941	0.022
941	0.021
941	0.02
942	0.02
942	0.019
943	0.018
943	0.017
944	0.016
944	0.015
944	0.015
945	0.014
945	0.014
946	0.013
946	0.012
946	0.011
947	0.011
947	0.01
948	0.009
948	0.008
949	0.008
949	0.008
949	0.008
950	0.008
950	0.008
951	0.008
951	0.008
952	0.008
952	0.009
952	0.009
953	0.009
953	0.009
954	0.008
954	0.007
955	0.007
955	0.007
955	0.007
956	0.007
956	0.007
957	0.007
957	0.007
957	0.007
958	0.007
958	0.007
959	0.007
959	0.007
960	0.006
960	0.006
960	0.005
961	0.005
961	0.004
962	0.003
962	0.003
963	0.003
963	0.003
963	0.003
964	0.003
964	0.003
965	0.004
965	0.005
966	0.006
966	0.007
966	0.008
967	0.009
967	0.01
968	0.011
968	0.011
968	0.011
969	0.011
969	0.011
970	0.011
970	0.011
971	0.01
971	0.01
971	0.01
972	0.01
972	0.01
973	0.01
973	0.011
974	0.011
974	0.012
974	0.013
975	0.013
975	0.014
976	0.015
976	0.016
976	0.017
977	0.017
977	0.017
978	0.017
978	0.017
979	0.017
979	0.017
979	0.018
980	0.017
980	0.017
981	0.017
981	0.018
982	0.018
982	0.019
982	0.02
983	0.02
983	0.021
984	0.021
984	0.022
984	0.022
985	0.022
985	0.022
986	0.022
986	0.022
987	0.021
987	0.02
987	0.02
988	0.019
988	0.018
989	0.018
989	0.017
990	0.017
990	0.016
990	0.016
991	0.016
991	0.017
992	0.017
992	0.017
992	0.016
993	0.016
993	0.016
994	0.015
994	0.014
995	0.014
995	0.013
995	0.012
996	0.011
996	0.011
997	0.01
997	0.01
997	0.01
998	0.01
998	0.01
999	0.011
999	0.011
1000	0.011
1000	0.012
1000	0.012
1001	0.013
1001	0.013
1002	0.014
1002	0.014
1003	0.014
1003	0.014
1003	0.013
1004	0.013
1004	0.012
1005	0.011
1005	0.011
1005	0.01
1006	0.009
1006	0.008
1007	0.008
1007	0.007
1008	0.007
1008	0.007
1008	0.007
1009	0.007
1009	0.007
1010	0.007
1010	0.007
1010	0.007
1011	0.008
1011	0.008
1012	0.008
1012	0.008
1013	0.008
1013	0.008
1013	0.008
1014	0.007
1014	0.006
1015	0.005
1015	0.004
1016	0.003
1016	0.002
1016	0
1017	-0.001
1017	-0.003
1018	-0.004
1018	-0.005
1018	-0.005
1019	-0.006
1019	-0.006
1020	-0.007
1020	-0.007
1021	-0.007
1021	-0.008
1021	-0.008
1022	-0.008
1022	-0.008
1023	-0.008
1023	-0.008
1023	-0.009
1024	-0.01
1024	-0.01
1025	-0.011
1025	-0.012
1026	-0.012
1026	-0.013
1026	-0.014
1027	-0.014
1027	-0.014
1028	-0.015
1028	-0.015
1028	-0.015
1029	-0.015
1029	-0.015
1030	-0.015
1030	-0.015
1031	-0.015
1031	-0.014
1031	-0.015
1032	-0.014
1032	-0.014
1033	-0.014
1033	-0.014
1033	-0.013
1034	-0.014
1034	-0.014
1035	-0.015
1035	-0.015
1036	-0.015
1036	-0.015
1036	-0.015
1037	-0.015
1037	-0.015
1038	-0.015
1038	-0.015
1039	-0.015
1039	-0.014
1039	-0.014
1040	-0.013
1040	-0.013
1041	-0.013
1041	-0.014
1041	-0.014
1042	-0.015
1042	-0.016
1043	-0.017
1043	-0.018
1044	-0.019
1044	-0.02
1044	-0.021
1045	-0.022
1045	-0.023
1046	-0.024
1046	-0.024
1046	-0.024
1047	-0.025
1047	-0.025
1048	-0.025
1048	-0.025
1049	-0.025
1049	-0.026
1049	-0.027
1050	-0.027
1050	-0.028
1051	-0.029
1051	-0.03
1051	-0.031
1052	-0.031
1052	-0.032
1053	-0.033
1053	-0.033
1053	-0.034
1054	-0.034
1054	-0.034
1055	-0.033
1055	-0.033
1056	-0.033
1056	-0.033
1056	-0.034
1057	-0.034
1057	-0.034
1058	-0.034
1058	-0.035
1058	-0.035
1059	-0.034
1059	-0.035
1060	-0.035
1060	-0.035
1061	-0.035
1061	-0.035
1061	-0.035
1062	-0.035
1062	-0.036
1063	-0.036
1063	-0.036
1063	-0.037
1064	-0.037
1064	-0.037
1065	-0.037
1065	-0.038
1066	-0.038
1066	-0.038
1066	-0.037
1067	-0.037
1067	-0.037
1068	-0.037
1068	-0.036
1068	-0.037
1069	-0.037
1069	-0.037
1070	-0.037
1070	-0.037
1071	-0.038
1071	-0.038
1071	-0.039
1072	-0.039
1072	-0.039
1073	-0.039
1073	-0.04
1073	-0.04
1074	-0.041
1074	-0.041
1075	-0.043
1075	-0.044
1076	-0.045
1076	-0.046
1076	-0.047
1077	-0.048
1077	-0.049
1078	-0.05
1078	-0.05
1078	-0.05
1079	-0.05
1079	-0.05
1080	-0.05
1080	-0.05
1080	-0.05
1081	-0.05
1081	-0.05
1082	-0.05
1082	-0.05
1083	-0.051
1083	-0.052
1083	-0.052
1084	-0.053
1084	-0.053
1085	-0.054
1085	-0.054
1085	-0.054
1086	-0.054
1086	-0.055
1087	-0.055
1087	-0.055
1088	-0.056
1088	-0.057
1088	-0.057
1089	-0.058
1089	-0.059
1090	-0.06
1090	-0.061
1090	-0.062
1091	-0.063
1091	-0.064
1092	-0.064
1092	-0.064
1092	-0.065
1093	-0.066
1093	-0.066
1094	-0.067
1094	-0.068
1095	-0.07
1095	-0.071
1095	-0.071
1096	-0.073
1096	-0.074
1097	-0.075
1097	-0.077
1097	-0.078
1098	-0.08
1098	-0.083
1099	-0.084
1099	-0.086
1100	-0.087
1100	-0.089
1100	-0.091
1101	-0.094
1101	-0.096
1102	-0.098
1102	-0.099
1102	-0.1
1103	-0.102
1103	-0.104
1104	-0.106
1104	-0.108
1104	-0.11
1105	-0.111
1105	-0.113
1106	-0.116
1106	-0.118
1107	-0.122
1107	-0.125
1107	-0.128
1108	-0.127
1108	-0.129
1109	-0.131
1109	-0.134
1109	-0.138
1110	-0.138
1110	-0.14
1111	-0.145
1111	-0.136
