Data from 15c-stair-power-variation_Absorbance__438__04048.txt Node

Date: Tue Jan 16 15:56:37 CET 2024
User: Marek
Spectrometer: MAYP115816
Trigger mode: 0
Integration Time (sec): 2.000000E-1
Scans to average: 10
Electric dark correction enabled: true
Nonlinearity correction enabled: true
Boxcar width: 5
XAxis mode: Wavelengths
Number of Pixels in Spectrum: 2068
>>>>>Begin Spectral Data<<<<<
199	-2.022
199	-1.836
200	-1.702
200	-1.584
201	-1.511
201	-1.46
202	-1.385
202	-1.325
203	-1.278
203	-1.231
204	-1.205
204	-1.18
205	-1.16
205	-1.148
205	-1.145
206	-1.141
206	-1.138
207	-1.136
207	-1.135
208	-1.131
208	-1.13
209	-1.126
209	-1.124
210	-1.123
210	-1.12
211	-1.119
211	-1.118
212	-1.118
212	-1.117
213	-1.115
213	-1.114
213	-1.115
214	-1.113
214	-1.112
215	-1.111
215	-1.112
216	-1.108
216	-1.108
217	-1.105
217	-1.102
218	-1.098
218	-1.094
219	-1.089
219	-1.088
220	-1.086
220	-1.085
221	-1.081
221	-1.08
221	-1.075
222	-1.07
222	-1.065
223	-1.06
223	-1.055
224	-1.05
224	-1.042
225	-1.033
225	-1.023
226	-1.014
226	-1.004
227	-0.991
227	-0.979
228	-0.963
228	-0.947
229	-0.926
229	-0.903
229	-0.877
230	-0.848
230	-0.817
231	-0.781
231	-0.742
232	-0.703
232	-0.66
233	-0.615
233	-0.568
234	-0.521
234	-0.472
235	-0.424
235	-0.376
236	-0.329
236	-0.283
236	-0.238
237	-0.195
237	-0.153
238	-0.113
238	-0.076
239	-0.04
239	-0.007
240	0.024
240	0.053
241	0.079
241	0.104
242	0.127
242	0.148
243	0.168
243	0.186
243	0.202
244	0.217
244	0.231
245	0.243
245	0.255
246	0.266
246	0.277
247	0.285
247	0.294
248	0.303
248	0.31
249	0.317
249	0.323
250	0.329
250	0.335
250	0.341
251	0.346
251	0.351
252	0.355
252	0.36
253	0.364
253	0.367
254	0.37
254	0.374
255	0.377
255	0.38
256	0.382
256	0.384
257	0.386
257	0.388
258	0.389
258	0.391
258	0.392
259	0.393
259	0.394
260	0.394
260	0.395
261	0.395
261	0.396
262	0.396
262	0.396
263	0.397
263	0.397
264	0.397
264	0.397
265	0.397
265	0.397
265	0.397
266	0.396
266	0.396
267	0.395
267	0.394
268	0.393
268	0.392
269	0.391
269	0.39
270	0.389
270	0.387
271	0.386
271	0.385
272	0.383
272	0.382
272	0.38
273	0.379
273	0.377
274	0.376
274	0.374
275	0.373
275	0.371
276	0.369
276	0.368
277	0.366
277	0.364
278	0.362
278	0.36
278	0.358
279	0.355
279	0.353
280	0.351
280	0.35
281	0.348
281	0.347
282	0.345
282	0.344
283	0.343
283	0.342
284	0.341
284	0.34
285	0.339
285	0.338
285	0.336
286	0.335
286	0.334
287	0.332
287	0.331
288	0.33
288	0.329
289	0.327
289	0.326
290	0.325
290	0.324
291	0.323
291	0.322
292	0.32
292	0.319
292	0.318
293	0.317
293	0.316
294	0.315
294	0.314
295	0.313
295	0.312
296	0.311
296	0.31
297	0.309
297	0.308
298	0.307
298	0.306
298	0.306
299	0.305
299	0.304
300	0.303
300	0.302
301	0.302
301	0.301
302	0.3
302	0.299
303	0.299
303	0.298
304	0.298
304	0.297
305	0.296
305	0.295
305	0.294
306	0.294
306	0.293
307	0.292
307	0.291
308	0.29
308	0.289
309	0.288
309	0.287
310	0.286
310	0.285
311	0.285
311	0.284
311	0.283
312	0.282
312	0.281
313	0.281
313	0.28
314	0.279
314	0.278
315	0.277
315	0.276
316	0.275
316	0.274
317	0.274
317	0.273
318	0.272
318	0.271
318	0.27
319	0.269
319	0.268
320	0.267
320	0.266
321	0.265
321	0.264
322	0.263
322	0.263
323	0.262
323	0.261
324	0.26
324	0.26
324	0.259
325	0.258
325	0.257
326	0.256
326	0.256
327	0.255
327	0.254
328	0.253
328	0.252
329	0.251
329	0.25
330	0.249
330	0.249
330	0.248
331	0.247
331	0.246
332	0.245
332	0.245
333	0.244
333	0.243
334	0.243
334	0.242
335	0.241
335	0.24
336	0.24
336	0.239
336	0.238
337	0.238
337	0.237
338	0.236
338	0.235
339	0.235
339	0.234
340	0.233
340	0.233
341	0.232
341	0.232
342	0.231
342	0.23
342	0.23
343	0.229
343	0.229
344	0.228
344	0.227
345	0.227
345	0.226
346	0.225
346	0.225
347	0.224
347	0.224
348	0.223
348	0.223
348	0.222
349	0.222
349	0.221
350	0.22
350	0.219
351	0.219
351	0.218
352	0.217
352	0.216
353	0.216
353	0.215
354	0.214
354	0.213
354	0.212
355	0.211
355	0.21
356	0.21
356	0.209
357	0.208
357	0.207
358	0.207
358	0.208
359	0.208
359	0.208
360	0.209
360	0.209
360	0.21
361	0.21
361	0.21
362	0.211
362	0.211
363	0.211
363	0.211
364	0.211
364	0.21
365	0.21
365	0.21
366	0.21
366	0.209
366	0.209
367	0.209
367	0.208
368	0.208
368	0.208
369	0.207
369	0.207
370	0.206
370	0.206
371	0.205
371	0.205
372	0.205
372	0.204
372	0.204
373	0.204
373	0.203
374	0.203
374	0.203
375	0.203
375	0.202
376	0.202
376	0.202
377	0.202
377	0.203
378	0.203
378	0.203
378	0.203
379	0.203
379	0.203
380	0.203
380	0.203
381	0.203
381	0.203
382	0.202
382	0.202
383	0.202
383	0.201
383	0.201
384	0.201
384	0.2
385	0.2
385	0.2
386	0.2
386	0.2
387	0.2
387	0.199
388	0.199
388	0.199
389	0.199
389	0.198
389	0.198
390	0.198
390	0.198
391	0.199
391	0.199
392	0.199
392	0.199
393	0.199
393	0.199
394	0.199
394	0.198
394	0.198
395	0.198
395	0.197
396	0.197
396	0.197
397	0.197
397	0.198
398	0.197
398	0.197
399	0.197
399	0.197
400	0.197
400	0.196
400	0.196
401	0.195
401	0.194
402	0.193
402	0.192
403	0.192
403	0.192
404	0.192
404	0.191
405	0.191
405	0.191
405	0.19
406	0.19
406	0.19
407	0.19
407	0.19
408	0.19
408	0.189
409	0.189
409	0.188
410	0.188
410	0.188
411	0.188
411	0.188
411	0.188
412	0.187
412	0.187
413	0.187
413	0.187
414	0.186
414	0.186
415	0.186
415	0.185
416	0.185
416	0.184
416	0.184
417	0.184
417	0.183
418	0.183
418	0.184
419	0.184
419	0.184
420	0.185
420	0.186
421	0.186
421	0.186
421	0.186
422	0.187
422	0.187
423	0.187
423	0.186
424	0.186
424	0.185
425	0.184
425	0.183
426	0.182
426	0.182
427	0.182
427	0.182
427	0.183
428	0.183
428	0.184
429	0.184
429	0.185
430	0.185
430	0.185
431	0.184
431	0.184
432	0.184
432	0.183
432	0.182
433	0.181
433	0.18
434	0.179
434	0.179
435	0.179
435	0.179
436	0.179
436	0.179
437	0.178
437	0.179
437	0.179
438	0.178
438	0.178
439	0.178
439	0.178
440	0.178
440	0.178
441	0.178
441	0.178
442	0.179
442	0.179
442	0.18
443	0.18
443	0.181
444	0.181
444	0.181
445	0.181
445	0.181
446	0.181
446	0.181
447	0.181
447	0.181
447	0.18
448	0.18
448	0.18
449	0.179
449	0.179
450	0.179
450	0.179
451	0.178
451	0.178
452	0.177
452	0.177
452	0.177
453	0.176
453	0.176
454	0.175
454	0.174
455	0.174
455	0.174
456	0.174
456	0.173
457	0.174
457	0.173
458	0.173
458	0.173
458	0.174
459	0.174
459	0.175
460	0.174
460	0.174
461	0.174
461	0.173
462	0.173
462	0.174
463	0.174
463	0.175
463	0.176
464	0.176
464	0.176
465	0.176
465	0.176
466	0.177
466	0.177
467	0.177
467	0.176
467	0.175
468	0.174
468	0.173
469	0.172
469	0.171
470	0.17
470	0.17
471	0.17
471	0.17
472	0.17
472	0.17
472	0.171
473	0.172
473	0.173
474	0.174
474	0.175
475	0.176
475	0.176
476	0.177
476	0.177
477	0.178
477	0.178
477	0.179
478	0.179
478	0.18
479	0.18
479	0.181
480	0.182
480	0.183
481	0.183
481	0.184
482	0.185
482	0.186
482	0.187
483	0.189
483	0.192
484	0.195
484	0.196
485	0.198
485	0.2
486	0.201
486	0.202
487	0.202
487	0.203
487	0.204
488	0.204
488	0.203
489	0.201
489	0.201
490	0.201
490	0.2
491	0.201
491	0.201
492	0.202
492	0.203
492	0.204
493	0.205
493	0.206
494	0.208
494	0.21
495	0.212
495	0.214
496	0.215
496	0.217
496	0.218
497	0.219
497	0.22
498	0.22
498	0.221
499	0.222
499	0.222
500	0.223
500	0.224
501	0.226
501	0.227
501	0.229
502	0.231
502	0.232
503	0.235
503	0.236
504	0.237
504	0.238
505	0.239
505	0.24
506	0.241
506	0.242
506	0.243
507	0.243
507	0.244
508	0.245
508	0.246
509	0.247
509	0.248
510	0.249
510	0.249
511	0.249
511	0.25
511	0.25
512	0.251
512	0.252
513	0.252
513	0.251
514	0.251
514	0.251
515	0.25
515	0.25
515	0.249
516	0.249
516	0.249
517	0.25
517	0.25
518	0.251
518	0.25
519	0.249
519	0.248
520	0.247
520	0.245
520	0.243
521	0.241
521	0.239
522	0.237
522	0.235
523	0.234
523	0.234
524	0.235
524	0.236
524	0.238
525	0.241
525	0.243
526	0.246
526	0.248
527	0.251
527	0.253
528	0.255
528	0.256
529	0.256
529	0.257
529	0.257
530	0.257
530	0.256
531	0.256
531	0.256
532	0.256
532	0.255
533	0.255
533	0.255
533	0.254
534	0.254
534	0.253
535	0.252
535	0.251
536	0.251
536	0.25
537	0.249
537	0.248
538	0.247
538	0.245
538	0.244
539	0.242
539	0.242
540	0.24
540	0.239
541	0.237
541	0.235
542	0.233
542	0.231
542	0.229
543	0.228
543	0.226
544	0.224
544	0.222
545	0.221
545	0.22
546	0.219
546	0.217
547	0.215
547	0.213
547	0.21
548	0.208
548	0.205
549	0.203
549	0.2
550	0.198
550	0.196
551	0.193
551	0.191
551	0.189
552	0.187
552	0.186
553	0.184
553	0.184
554	0.183
554	0.181
555	0.178
555	0.176
556	0.173
556	0.17
556	0.167
557	0.164
557	0.162
558	0.16
558	0.157
559	0.155
559	0.154
560	0.153
560	0.152
560	0.151
561	0.151
561	0.151
562	0.15
562	0.148
563	0.146
563	0.144
564	0.141
564	0.139
564	0.136
565	0.134
565	0.133
566	0.131
566	0.13
567	0.129
567	0.129
568	0.129
568	0.13
568	0.13
569	0.132
569	0.132
570	0.133
570	0.132
571	0.132
571	0.132
572	0.132
572	0.131
573	0.131
573	0.13
573	0.128
574	0.127
574	0.126
575	0.125
575	0.126
576	0.126
576	0.124
577	0.122
577	0.12
577	0.119
578	0.118
578	0.119
579	0.12
579	0.121
580	0.12
580	0.117
581	0.114
581	0.113
581	0.113
582	0.113
582	0.113
583	0.113
583	0.112
584	0.108
584	0.104
585	0.103
585	0.102
585	0.102
586	0.102
586	0.102
587	0.1
587	0.097
588	0.095
588	0.093
589	0.092
589	0.092
590	0.091
590	0.091
590	0.092
591	0.093
591	0.092
592	0.092
592	0.09
593	0.09
593	0.09
594	0.089
594	0.088
594	0.087
595	0.086
595	0.085
596	0.083
596	0.084
597	0.087
597	0.088
598	0.088
598	0.089
598	0.09
599	0.09
599	0.09
600	0.089
600	0.088
601	0.087
601	0.086
602	0.084
602	0.083
602	0.082
603	0.081
603	0.082
604	0.082
604	0.083
605	0.084
605	0.085
606	0.085
606	0.084
606	0.083
607	0.083
607	0.082
608	0.082
608	0.08
609	0.079
609	0.078
610	0.077
610	0.075
610	0.075
611	0.075
611	0.076
612	0.077
612	0.079
613	0.08
613	0.081
614	0.081
614	0.081
614	0.081
615	0.081
615	0.08
616	0.08
616	0.08
617	0.079
617	0.078
618	0.077
618	0.077
618	0.077
619	0.078
619	0.079
620	0.081
620	0.083
621	0.083
621	0.085
622	0.085
622	0.086
622	0.086
623	0.087
623	0.088
624	0.089
624	0.089
625	0.088
625	0.089
626	0.089
626	0.089
626	0.09
627	0.09
627	0.091
628	0.091
628	0.091
629	0.092
629	0.092
630	0.091
630	0.091
630	0.092
631	0.092
631	0.093
632	0.093
632	0.093
633	0.094
633	0.095
634	0.097
634	0.099
634	0.101
635	0.102
635	0.103
636	0.105
636	0.106
637	0.107
637	0.108
638	0.11
638	0.111
638	0.113
639	0.113
639	0.114
640	0.116
640	0.118
641	0.12
641	0.122
642	0.124
642	0.126
642	0.128
643	0.13
643	0.131
644	0.134
644	0.136
645	0.138
645	0.14
646	0.142
646	0.145
646	0.149
647	0.152
647	0.155
648	0.158
648	0.161
649	0.164
649	0.168
650	0.171
650	0.174
650	0.177
651	0.179
651	0.181
652	0.184
652	0.186
653	0.19
653	0.199
653	0.207
654	0.169
654	0.139
655	0.142
655	0.144
656	0.146
656	0.148
657	0.15
657	0.152
657	0.152
658	0.149
658	0.142
659	0.176
659	0.223
660	0.229
660	0.231
661	0.233
661	0.236
661	0.239
662	0.242
662	0.246
663	0.25
663	0.254
664	0.257
664	0.26
665	0.263
665	0.266
665	0.269
666	0.272
666	0.274
667	0.277
667	0.28
668	0.283
668	0.285
669	0.289
669	0.292
669	0.297
670	0.301
670	0.304
671	0.307
671	0.309
672	0.311
672	0.313
672	0.314
673	0.316
673	0.318
674	0.319
674	0.32
675	0.32
675	0.322
676	0.324
676	0.326
676	0.328
677	0.33
677	0.332
678	0.334
678	0.336
679	0.337
679	0.339
680	0.341
680	0.342
680	0.343
681	0.343
681	0.345
682	0.346
682	0.347
683	0.349
683	0.352
684	0.354
684	0.354
684	0.355
685	0.356
685	0.357
686	0.357
686	0.357
687	0.357
687	0.357
687	0.356
688	0.355
688	0.354
689	0.354
689	0.354
690	0.354
690	0.354
691	0.353
691	0.354
691	0.353
692	0.353
692	0.352
693	0.353
693	0.353
694	0.352
694	0.351
695	0.351
695	0.353
695	0.353
696	0.351
696	0.35
697	0.349
697	0.348
698	0.346
698	0.343
698	0.341
699	0.339
699	0.336
700	0.333
700	0.33
701	0.329
701	0.327
702	0.325
702	0.323
702	0.321
703	0.32
703	0.318
704	0.315
704	0.314
705	0.312
705	0.31
705	0.308
706	0.305
706	0.304
707	0.301
707	0.299
708	0.297
708	0.295
709	0.293
709	0.291
709	0.288
710	0.285
710	0.283
711	0.281
711	0.279
712	0.278
712	0.276
713	0.274
713	0.272
713	0.269
714	0.266
714	0.263
715	0.261
715	0.258
716	0.254
716	0.251
716	0.248
717	0.245
717	0.242
718	0.239
718	0.236
719	0.234
719	0.233
720	0.23
720	0.228
720	0.226
721	0.223
721	0.221
722	0.218
722	0.216
723	0.213
723	0.211
723	0.208
724	0.205
724	0.202
725	0.199
725	0.196
726	0.193
726	0.191
727	0.188
727	0.186
727	0.184
728	0.181
728	0.18
729	0.179
729	0.178
730	0.177
730	0.176
730	0.175
731	0.174
731	0.173
732	0.172
732	0.171
733	0.169
733	0.168
734	0.166
734	0.163
734	0.161
735	0.16
735	0.157
736	0.155
736	0.152
737	0.15
737	0.149
737	0.147
738	0.144
738	0.14
739	0.138
739	0.136
740	0.133
740	0.132
741	0.131
741	0.129
741	0.126
742	0.123
742	0.12
743	0.118
743	0.116
744	0.114
744	0.112
744	0.11
745	0.108
745	0.105
746	0.103
746	0.101
747	0.099
747	0.098
748	0.097
748	0.096
748	0.095
749	0.093
749	0.092
750	0.09
750	0.088
751	0.087
751	0.086
751	0.086
752	0.084
752	0.083
753	0.082
753	0.081
754	0.08
754	0.08
754	0.08
755	0.079
755	0.079
756	0.078
756	0.075
757	0.073
757	0.073
758	0.071
758	0.069
758	0.068
759	0.066
759	0.062
760	0.059
760	0.056
761	0.054
761	0.053
761	0.051
762	0.049
762	0.048
763	0.047
763	0.045
764	0.042
764	0.04
764	0.038
765	0.036
765	0.035
766	0.033
766	0.033
767	0.032
767	0.029
768	0.027
768	0.025
768	0.024
769	0.023
769	0.023
770	0.021
770	0.02
771	0.018
771	0.015
771	0.012
772	0.01
772	0.009
773	0.007
773	0.004
774	0.001
774	-0.002
775	-0.004
775	-0.007
775	-0.01
776	-0.014
776	-0.017
777	-0.021
777	-0.025
778	-0.029
778	-0.033
778	-0.037
779	-0.04
779	-0.042
780	-0.045
780	-0.05
781	-0.053
781	-0.057
781	-0.06
782	-0.063
782	-0.068
783	-0.071
783	-0.074
784	-0.076
784	-0.079
784	-0.081
785	-0.083
785	-0.085
786	-0.085
786	-0.083
787	-0.079
787	-0.075
788	-0.075
788	-0.075
788	-0.076
789	-0.078
789	-0.078
790	-0.075
790	-0.074
791	-0.074
791	-0.076
791	-0.078
792	-0.073
792	-0.063
793	-0.058
793	-0.054
794	-0.052
794	-0.054
794	-0.058
795	-0.06
795	-0.059
796	-0.059
796	-0.062
797	-0.07
797	-0.079
797	-0.085
798	-0.09
798	-0.093
799	-0.093
799	-0.093
800	-0.093
800	-0.095
801	-0.098
801	-0.1
801	-0.1
802	-0.102
802	-0.104
803	-0.105
803	-0.105
804	-0.104
804	-0.099
804	-0.093
805	-0.09
805	-0.088
806	-0.086
806	-0.084
807	-0.083
807	-0.082
807	-0.082
808	-0.081
808	-0.082
809	-0.086
809	-0.091
810	-0.094
810	-0.096
810	-0.098
811	-0.101
811	-0.101
812	-0.097
812	-0.094
813	-0.094
813	-0.095
813	-0.096
814	-0.097
814	-0.097
815	-0.094
815	-0.092
816	-0.09
816	-0.09
817	-0.095
817	-0.098
817	-0.099
818	-0.098
818	-0.095
819	-0.09
819	-0.087
820	-0.088
820	-0.09
820	-0.092
821	-0.091
821	-0.089
822	-0.086
822	-0.083
823	-0.079
823	-0.078
823	-0.077
824	-0.075
824	-0.069
825	-0.062
825	-0.054
826	-0.048
826	-0.042
826	-0.037
827	-0.032
827	-0.028
828	-0.024
828	-0.021
829	-0.017
829	-0.014
829	-0.012
830	-0.009
830	-0.006
831	-0.003
831	0
832	0.002
832	0.005
832	0.007
833	0.008
833	0.009
834	0.01
834	0.011
835	0.012
835	0.012
835	0.012
836	0.012
836	0.013
837	0.013
837	0.014
838	0.015
838	0.015
839	0.016
839	0.016
839	0.017
840	0.017
840	0.018
841	0.019
841	0.019
842	0.019
842	0.019
842	0.019
843	0.019
843	0.019
844	0.019
844	0.019
845	0.019
845	0.02
845	0.02
846	0.021
846	0.022
847	0.022
847	0.024
848	0.024
848	0.025
848	0.026
849	0.027
849	0.027
850	0.028
850	0.028
851	0.028
851	0.029
851	0.029
852	0.028
852	0.029
853	0.029
853	0.029
854	0.03
854	0.03
854	0.03
855	0.031
855	0.031
856	0.031
856	0.031
857	0.031
857	0.031
857	0.031
858	0.031
858	0.031
859	0.03
859	0.03
860	0.03
860	0.029
860	0.029
861	0.028
861	0.028
862	0.027
862	0.026
863	0.026
863	0.025
863	0.025
864	0.024
864	0.024
865	0.024
865	0.024
866	0.024
866	0.024
866	0.026
867	0.026
867	0.028
868	0.029
868	0.03
869	0.031
869	0.031
869	0.031
870	0.031
870	0.031
871	0.03
871	0.03
872	0.029
872	0.028
872	0.027
873	0.027
873	0.026
874	0.026
874	0.026
875	0.026
875	0.026
875	0.026
876	0.027
876	0.027
877	0.027
877	0.027
878	0.027
878	0.026
878	0.026
879	0.025
879	0.025
880	0.024
880	0.024
881	0.023
881	0.023
881	0.023
882	0.023
882	0.023
883	0.024
883	0.024
884	0.025
884	0.026
884	0.026
885	0.027
885	0.028
886	0.029
886	0.03
887	0.03
887	0.03
887	0.03
888	0.03
888	0.03
889	0.03
889	0.031
890	0.032
890	0.032
890	0.032
891	0.032
891	0.033
892	0.033
892	0.034
893	0.035
893	0.035
893	0.036
894	0.036
894	0.037
895	0.037
895	0.037
895	0.038
896	0.038
896	0.039
897	0.04
897	0.04
898	0.041
898	0.041
898	0.042
899	0.042
899	0.043
900	0.043
900	0.043
901	0.043
901	0.042
901	0.042
902	0.042
902	0.042
903	0.041
903	0.04
904	0.04
904	0.038
904	0.038
905	0.037
905	0.036
906	0.036
906	0.035
907	0.034
907	0.033
907	0.033
908	0.032
908	0.032
909	0.032
909	0.032
910	0.033
910	0.033
910	0.033
911	0.034
911	0.034
912	0.035
912	0.036
913	0.037
913	0.037
913	0.038
914	0.038
914	0.038
915	0.038
915	0.037
916	0.036
916	0.035
916	0.035
917	0.034
917	0.033
918	0.032
918	0.032
918	0.031
919	0.031
919	0.031
920	0.031
920	0.031
921	0.031
921	0.03
921	0.03
922	0.029
922	0.028
923	0.027
923	0.026
924	0.026
924	0.025
924	0.024
925	0.023
925	0.022
926	0.021
926	0.021
927	0.02
927	0.02
927	0.02
928	0.02
928	0.021
929	0.022
929	0.024
930	0.026
930	0.028
930	0.03
931	0.032
931	0.034
932	0.037
932	0.039
933	0.041
933	0.043
933	0.044
934	0.045
934	0.045
935	0.045
935	0.045
935	0.045
936	0.045
936	0.045
937	0.045
937	0.044
938	0.044
938	0.044
938	0.044
939	0.045
939	0.045
940	0.045
940	0.045
941	0.045
941	0.045
941	0.045
942	0.044
942	0.044
943	0.043
943	0.042
944	0.041
944	0.041
944	0.04
945	0.04
945	0.04
946	0.039
946	0.038
946	0.037
947	0.037
947	0.036
948	0.035
948	0.034
949	0.034
949	0.033
949	0.033
950	0.032
950	0.032
951	0.032
951	0.032
952	0.031
952	0.031
952	0.031
953	0.031
953	0.031
954	0.031
954	0.03
955	0.03
955	0.029
955	0.029
956	0.029
956	0.029
957	0.029
957	0.029
957	0.028
958	0.028
958	0.028
959	0.028
959	0.028
960	0.027
960	0.027
960	0.026
961	0.026
961	0.025
962	0.025
962	0.025
963	0.024
963	0.025
963	0.024
964	0.025
964	0.025
965	0.026
965	0.027
966	0.028
966	0.029
966	0.03
967	0.031
967	0.032
968	0.033
968	0.033
968	0.034
969	0.034
969	0.034
970	0.034
970	0.033
971	0.033
971	0.032
971	0.032
972	0.032
972	0.033
973	0.033
973	0.033
974	0.034
974	0.034
974	0.035
975	0.036
975	0.037
976	0.038
976	0.039
976	0.04
977	0.04
977	0.04
978	0.04
978	0.04
979	0.041
979	0.041
979	0.041
980	0.041
980	0.041
981	0.041
981	0.041
982	0.042
982	0.043
982	0.044
983	0.044
983	0.045
984	0.045
984	0.046
984	0.046
985	0.047
985	0.047
986	0.046
986	0.046
987	0.045
987	0.044
987	0.044
988	0.043
988	0.042
989	0.042
989	0.041
990	0.041
990	0.04
990	0.04
991	0.04
991	0.041
992	0.041
992	0.041
992	0.041
993	0.04
993	0.04
994	0.04
994	0.039
995	0.039
995	0.038
995	0.037
996	0.037
996	0.036
997	0.036
997	0.036
997	0.036
998	0.036
998	0.036
999	0.037
999	0.037
1000	0.038
1000	0.038
1000	0.039
1001	0.04
1001	0.04
1002	0.04
1002	0.04
1003	0.04
1003	0.04
1003	0.039
1004	0.039
1004	0.038
1005	0.037
1005	0.037
1005	0.036
1006	0.035
1006	0.034
1007	0.034
1007	0.034
1008	0.034
1008	0.034
1008	0.034
1009	0.034
1009	0.034
1010	0.035
1010	0.035
1010	0.035
1011	0.036
1011	0.036
1012	0.037
1012	0.037
1013	0.037
1013	0.037
1013	0.037
1014	0.036
1014	0.035
1015	0.034
1015	0.034
1016	0.033
1016	0.031
1016	0.03
1017	0.029
1017	0.027
1018	0.026
1018	0.025
1018	0.025
1019	0.025
1019	0.024
1020	0.024
1020	0.024
1021	0.023
1021	0.023
1021	0.024
1022	0.024
1022	0.024
1023	0.024
1023	0.023
1023	0.023
1024	0.022
1024	0.022
1025	0.021
1025	0.021
1026	0.021
1026	0.02
1026	0.02
1027	0.02
1027	0.02
1028	0.019
1028	0.019
1028	0.02
1029	0.02
1029	0.02
1030	0.02
1030	0.021
1031	0.021
1031	0.021
1031	0.022
1032	0.022
1032	0.022
1033	0.023
1033	0.023
1033	0.023
1034	0.023
1034	0.022
1035	0.022
1035	0.022
1036	0.021
1036	0.022
1036	0.022
1037	0.022
1037	0.022
1038	0.023
1038	0.023
1039	0.024
1039	0.025
1039	0.026
1040	0.027
1040	0.027
1041	0.027
1041	0.027
1041	0.027
1042	0.026
1042	0.025
1043	0.025
1043	0.024
1044	0.023
1044	0.022
1044	0.021
1045	0.021
1045	0.02
1046	0.019
1046	0.019
1046	0.019
1047	0.02
1047	0.02
1048	0.021
1048	0.021
1049	0.02
1049	0.02
1049	0.019
1050	0.019
1050	0.018
1051	0.018
1051	0.018
1051	0.018
1052	0.017
1052	0.017
1053	0.017
1053	0.017
1053	0.017
1054	0.018
1054	0.018
1055	0.019
1055	0.019
1056	0.019
1056	0.02
1056	0.019
1057	0.02
1057	0.02
1058	0.021
1058	0.021
1058	0.022
1059	0.023
1059	0.023
1060	0.024
1060	0.025
1061	0.025
1061	0.026
1061	0.026
1062	0.026
1062	0.027
1063	0.027
1063	0.027
1063	0.026
1064	0.027
1064	0.028
1065	0.028
1065	0.029
1066	0.029
1066	0.03
1066	0.031
1067	0.032
1067	0.034
1068	0.035
1068	0.036
1068	0.036
1069	0.037
1069	0.037
1070	0.038
1070	0.039
1071	0.04
1071	0.041
1071	0.041
1072	0.042
1072	0.043
1073	0.044
1073	0.045
1073	0.046
1074	0.047
1074	0.047
1075	0.047
1075	0.048
1076	0.047
1076	0.048
1076	0.048
1077	0.049
1077	0.05
1078	0.051
1078	0.052
1078	0.054
1079	0.055
1079	0.058
1080	0.059
1080	0.061
1080	0.062
1081	0.063
1081	0.065
1082	0.066
1082	0.067
1083	0.068
1083	0.069
1083	0.07
1084	0.071
1084	0.073
1085	0.075
1085	0.077
1085	0.08
1086	0.081
1086	0.083
1087	0.085
1087	0.088
1088	0.09
1088	0.092
1088	0.095
1089	0.097
1089	0.1
1090	0.104
1090	0.107
1090	0.111
1091	0.115
1091	0.121
1092	0.126
1092	0.132
1092	0.138
1093	0.143
1093	0.151
1094	0.157
1094	0.162
1095	0.169
1095	0.177
1095	0.186
1096	0.195
1096	0.203
1097	0.214
1097	0.225
1097	0.237
1098	0.248
1098	0.261
1099	0.278
1099	0.295
1100	0.313
1100	0.333
1100	0.353
1101	0.378
1101	0.405
1102	0.44
1102	0.478
1102	0.526
1103	0.577
1103	0.639
1104	0.725
1104	0.832
1104	0.999
1105	1.268
1105	2.178
1106	-0
1106	-0
1107	-0
1107	-0
1107	-0
1108	-0
1108	-0
1109	-0
1109	-0
1109	-0
1110	-0
1110	-0
1111	-0
1111	-0
