Data from 15c-stair-power-variation_Absorbance__252__03862.txt Node

Date: Tue Jan 16 15:50:25 CET 2024
User: Marek
Spectrometer: MAYP115816
Trigger mode: 0
Integration Time (sec): 2.000000E-1
Scans to average: 10
Electric dark correction enabled: true
Nonlinearity correction enabled: true
Boxcar width: 5
XAxis mode: Wavelengths
Number of Pixels in Spectrum: 2068
>>>>>Begin Spectral Data<<<<<
199	-0.604
199	-0.533
200	-0.463
200	-0.393
201	-0.356
201	-0.332
202	-0.306
202	-0.299
203	-0.294
203	-0.285
204	-0.268
204	-0.251
205	-0.237
205	-0.229
205	-0.232
206	-0.23
206	-0.235
207	-0.234
207	-0.235
208	-0.235
208	-0.238
209	-0.236
209	-0.241
210	-0.243
210	-0.243
211	-0.243
211	-0.246
212	-0.248
212	-0.249
213	-0.249
213	-0.248
213	-0.253
214	-0.252
214	-0.248
215	-0.247
215	-0.251
216	-0.251
216	-0.253
217	-0.247
217	-0.247
218	-0.246
218	-0.243
219	-0.235
219	-0.237
220	-0.239
220	-0.242
221	-0.24
221	-0.241
221	-0.236
222	-0.233
222	-0.23
223	-0.224
223	-0.223
224	-0.222
224	-0.213
225	-0.204
225	-0.197
226	-0.191
226	-0.181
227	-0.169
227	-0.164
228	-0.15
228	-0.14
229	-0.122
229	-0.1
229	-0.078
230	-0.056
230	-0.028
231	0.001
231	0.033
232	0.059
232	0.094
233	0.126
233	0.158
234	0.187
234	0.216
235	0.243
235	0.267
236	0.29
236	0.313
236	0.334
237	0.352
237	0.368
238	0.383
238	0.396
239	0.41
239	0.419
240	0.429
240	0.437
241	0.444
241	0.45
242	0.455
242	0.461
243	0.466
243	0.469
243	0.473
244	0.476
244	0.479
245	0.481
245	0.484
246	0.487
246	0.489
247	0.491
247	0.494
248	0.496
248	0.498
249	0.499
249	0.501
250	0.503
250	0.504
250	0.506
251	0.507
251	0.508
252	0.51
252	0.511
253	0.512
253	0.513
254	0.514
254	0.515
255	0.516
255	0.517
256	0.518
256	0.518
257	0.518
257	0.518
258	0.518
258	0.518
258	0.518
259	0.518
259	0.517
260	0.517
260	0.516
261	0.516
261	0.515
262	0.515
262	0.513
263	0.512
263	0.512
264	0.51
264	0.509
265	0.508
265	0.506
265	0.505
266	0.503
266	0.501
267	0.499
267	0.497
268	0.495
268	0.493
269	0.491
269	0.489
270	0.486
270	0.484
271	0.481
271	0.479
272	0.476
272	0.474
272	0.471
273	0.469
273	0.466
274	0.463
274	0.46
275	0.458
275	0.455
276	0.453
276	0.45
277	0.447
277	0.444
278	0.441
278	0.438
278	0.436
279	0.432
279	0.428
280	0.425
280	0.422
281	0.419
281	0.415
282	0.412
282	0.409
283	0.407
283	0.404
284	0.401
284	0.399
285	0.397
285	0.394
285	0.392
286	0.389
286	0.387
287	0.385
287	0.383
288	0.38
288	0.378
289	0.376
289	0.374
290	0.372
290	0.37
291	0.368
291	0.366
292	0.364
292	0.363
292	0.361
293	0.359
293	0.357
294	0.355
294	0.354
295	0.352
295	0.351
296	0.35
296	0.348
297	0.347
297	0.346
298	0.344
298	0.343
298	0.342
299	0.341
299	0.34
300	0.339
300	0.338
301	0.336
301	0.335
302	0.334
302	0.333
303	0.333
303	0.332
304	0.331
304	0.33
305	0.329
305	0.328
305	0.327
306	0.326
306	0.325
307	0.324
307	0.323
308	0.322
308	0.321
309	0.32
309	0.319
310	0.318
310	0.317
311	0.316
311	0.315
311	0.314
312	0.314
312	0.313
313	0.312
313	0.311
314	0.31
314	0.309
315	0.309
315	0.308
316	0.307
316	0.306
317	0.305
317	0.304
318	0.303
318	0.303
318	0.302
319	0.301
319	0.3
320	0.299
320	0.298
321	0.298
321	0.297
322	0.296
322	0.295
323	0.294
323	0.294
324	0.293
324	0.292
324	0.291
325	0.29
325	0.29
326	0.289
326	0.288
327	0.287
327	0.287
328	0.286
328	0.285
329	0.285
329	0.284
330	0.283
330	0.283
330	0.282
331	0.281
331	0.28
332	0.28
332	0.279
333	0.278
333	0.278
334	0.277
334	0.276
335	0.276
335	0.275
336	0.274
336	0.273
336	0.273
337	0.272
337	0.271
338	0.271
338	0.27
339	0.27
339	0.269
340	0.269
340	0.268
341	0.268
341	0.267
342	0.267
342	0.267
342	0.266
343	0.266
343	0.265
344	0.265
344	0.265
345	0.264
345	0.264
346	0.263
346	0.263
347	0.262
347	0.262
348	0.262
348	0.262
348	0.261
349	0.261
349	0.261
350	0.26
350	0.26
351	0.26
351	0.259
352	0.259
352	0.259
353	0.259
353	0.258
354	0.258
354	0.257
354	0.257
355	0.257
355	0.256
356	0.256
356	0.256
357	0.256
357	0.255
358	0.255
358	0.255
359	0.255
359	0.254
360	0.254
360	0.254
360	0.254
361	0.254
361	0.254
362	0.254
362	0.254
363	0.254
363	0.254
364	0.254
364	0.254
365	0.253
365	0.253
366	0.253
366	0.253
366	0.253
367	0.253
367	0.252
368	0.252
368	0.252
369	0.252
369	0.252
370	0.252
370	0.252
371	0.251
371	0.251
372	0.251
372	0.251
372	0.251
373	0.251
373	0.25
374	0.25
374	0.25
375	0.25
375	0.25
376	0.249
376	0.249
377	0.249
377	0.249
378	0.248
378	0.248
378	0.248
379	0.248
379	0.247
380	0.247
380	0.247
381	0.247
381	0.247
382	0.246
382	0.246
383	0.246
383	0.246
383	0.246
384	0.245
384	0.245
385	0.245
385	0.245
386	0.245
386	0.244
387	0.244
387	0.244
388	0.243
388	0.243
389	0.243
389	0.242
389	0.242
390	0.242
390	0.242
391	0.241
391	0.241
392	0.241
392	0.241
393	0.241
393	0.241
394	0.24
394	0.24
394	0.24
395	0.24
395	0.24
396	0.24
396	0.24
397	0.239
397	0.239
398	0.239
398	0.239
399	0.239
399	0.238
400	0.238
400	0.238
400	0.237
401	0.237
401	0.237
402	0.236
402	0.236
403	0.236
403	0.235
404	0.235
404	0.235
405	0.235
405	0.235
405	0.235
406	0.235
406	0.235
407	0.235
407	0.235
408	0.234
408	0.234
409	0.234
409	0.234
410	0.234
410	0.234
411	0.234
411	0.233
411	0.233
412	0.233
412	0.233
413	0.233
413	0.232
414	0.232
414	0.232
415	0.231
415	0.231
416	0.231
416	0.23
416	0.23
417	0.23
417	0.23
418	0.23
418	0.231
419	0.231
419	0.231
420	0.231
420	0.231
421	0.231
421	0.231
421	0.23
422	0.23
422	0.23
423	0.23
423	0.229
424	0.229
424	0.229
425	0.228
425	0.228
426	0.228
426	0.228
427	0.228
427	0.228
427	0.228
428	0.228
428	0.229
429	0.229
429	0.228
430	0.228
430	0.228
431	0.228
431	0.228
432	0.228
432	0.227
432	0.227
433	0.226
433	0.226
434	0.226
434	0.226
435	0.226
435	0.226
436	0.226
436	0.226
437	0.226
437	0.225
437	0.225
438	0.225
438	0.225
439	0.225
439	0.225
440	0.225
440	0.225
441	0.225
441	0.225
442	0.226
442	0.226
442	0.227
443	0.227
443	0.227
444	0.227
444	0.227
445	0.228
445	0.228
446	0.228
446	0.228
447	0.227
447	0.227
447	0.227
448	0.227
448	0.227
449	0.227
449	0.227
450	0.227
450	0.227
451	0.227
451	0.227
452	0.227
452	0.227
452	0.227
453	0.227
453	0.227
454	0.227
454	0.227
455	0.227
455	0.227
456	0.227
456	0.227
457	0.227
457	0.227
458	0.227
458	0.227
458	0.228
459	0.228
459	0.228
460	0.228
460	0.228
461	0.229
461	0.229
462	0.23
462	0.23
463	0.231
463	0.231
463	0.232
464	0.232
464	0.232
465	0.232
465	0.233
466	0.233
466	0.233
467	0.233
467	0.234
467	0.233
468	0.233
468	0.233
469	0.234
469	0.234
470	0.235
470	0.235
471	0.236
471	0.236
472	0.236
472	0.237
472	0.238
473	0.238
473	0.239
474	0.239
474	0.24
475	0.24
475	0.241
476	0.242
476	0.242
477	0.243
477	0.244
477	0.245
478	0.245
478	0.247
479	0.248
479	0.249
480	0.25
480	0.25
481	0.251
481	0.252
482	0.252
482	0.254
482	0.255
483	0.256
483	0.258
484	0.259
484	0.259
485	0.26
485	0.261
486	0.262
486	0.263
487	0.264
487	0.265
487	0.266
488	0.267
488	0.268
489	0.269
489	0.272
490	0.273
490	0.275
491	0.277
491	0.279
492	0.281
492	0.282
492	0.283
493	0.285
493	0.287
494	0.289
494	0.292
495	0.293
495	0.295
496	0.296
496	0.298
496	0.3
497	0.302
497	0.303
498	0.305
498	0.306
499	0.308
499	0.31
500	0.312
500	0.314
501	0.316
501	0.318
501	0.319
502	0.321
502	0.323
503	0.326
503	0.328
504	0.329
504	0.331
505	0.334
505	0.336
506	0.338
506	0.34
506	0.342
507	0.344
507	0.346
508	0.348
508	0.35
509	0.352
509	0.354
510	0.356
510	0.357
511	0.359
511	0.361
511	0.362
512	0.364
512	0.366
513	0.367
513	0.369
514	0.37
514	0.372
515	0.373
515	0.374
515	0.374
516	0.375
516	0.377
517	0.378
517	0.378
518	0.379
518	0.379
519	0.379
519	0.38
520	0.381
520	0.382
520	0.383
521	0.383
521	0.383
522	0.383
522	0.384
523	0.384
523	0.385
524	0.385
524	0.385
524	0.385
525	0.384
525	0.384
526	0.384
526	0.384
527	0.383
527	0.382
528	0.381
528	0.38
529	0.379
529	0.378
529	0.377
530	0.376
530	0.376
531	0.375
531	0.374
532	0.372
532	0.371
533	0.37
533	0.368
533	0.367
534	0.365
534	0.363
535	0.362
535	0.36
536	0.358
536	0.356
537	0.354
537	0.352
538	0.35
538	0.348
538	0.346
539	0.344
539	0.342
540	0.34
540	0.338
541	0.335
541	0.333
542	0.331
542	0.328
542	0.326
543	0.323
543	0.321
544	0.318
544	0.316
545	0.313
545	0.311
546	0.308
546	0.304
547	0.301
547	0.298
547	0.295
548	0.293
548	0.29
549	0.287
549	0.285
550	0.282
550	0.279
551	0.276
551	0.273
551	0.271
552	0.268
552	0.266
553	0.264
553	0.261
554	0.259
554	0.255
555	0.252
555	0.249
556	0.247
556	0.244
556	0.241
557	0.239
557	0.236
558	0.233
558	0.231
559	0.228
559	0.226
560	0.224
560	0.221
560	0.22
561	0.218
561	0.216
562	0.214
562	0.211
563	0.208
563	0.206
564	0.203
564	0.2
564	0.198
565	0.196
565	0.194
566	0.191
566	0.189
567	0.187
567	0.185
568	0.183
568	0.181
568	0.179
569	0.178
569	0.176
570	0.173
570	0.17
571	0.169
571	0.168
572	0.166
572	0.164
573	0.161
573	0.159
573	0.157
574	0.155
574	0.154
575	0.152
575	0.153
576	0.151
576	0.148
577	0.145
577	0.143
577	0.142
578	0.142
578	0.142
579	0.142
579	0.142
580	0.139
580	0.136
581	0.133
581	0.133
581	0.133
582	0.133
582	0.133
583	0.133
583	0.131
584	0.127
584	0.123
585	0.124
585	0.124
585	0.124
586	0.123
586	0.122
587	0.12
587	0.118
588	0.116
588	0.116
589	0.116
589	0.117
590	0.116
590	0.116
590	0.118
591	0.119
591	0.117
592	0.116
592	0.114
593	0.114
593	0.113
594	0.112
594	0.111
594	0.11
595	0.11
595	0.108
596	0.107
596	0.109
597	0.111
597	0.112
598	0.111
598	0.111
598	0.111
599	0.111
599	0.11
600	0.109
600	0.108
601	0.108
601	0.107
602	0.105
602	0.104
602	0.104
603	0.104
603	0.105
604	0.105
604	0.106
605	0.106
605	0.107
606	0.106
606	0.104
606	0.104
607	0.104
607	0.104
608	0.103
608	0.101
609	0.101
609	0.101
610	0.1
610	0.099
610	0.099
611	0.1
611	0.101
612	0.103
612	0.104
613	0.105
613	0.106
614	0.105
614	0.105
614	0.105
615	0.105
615	0.105
616	0.106
616	0.105
617	0.105
617	0.105
618	0.105
618	0.106
618	0.107
619	0.109
619	0.111
620	0.113
620	0.114
621	0.115
621	0.116
622	0.117
622	0.117
622	0.117
623	0.118
623	0.119
624	0.12
624	0.12
625	0.12
625	0.121
626	0.121
626	0.122
626	0.123
627	0.124
627	0.125
628	0.126
628	0.127
629	0.128
629	0.128
630	0.128
630	0.129
630	0.13
631	0.132
631	0.132
632	0.133
632	0.134
633	0.136
633	0.137
634	0.139
634	0.14
634	0.142
635	0.143
635	0.144
636	0.146
636	0.147
637	0.149
637	0.15
638	0.152
638	0.154
638	0.155
639	0.157
639	0.158
640	0.161
640	0.163
641	0.165
641	0.168
642	0.17
642	0.172
642	0.174
643	0.176
643	0.179
644	0.181
644	0.183
645	0.186
645	0.188
646	0.191
646	0.194
646	0.197
647	0.2
647	0.203
648	0.205
648	0.208
649	0.211
649	0.214
650	0.217
650	0.22
650	0.223
651	0.225
651	0.228
652	0.231
652	0.234
653	0.238
653	0.247
653	0.248
654	0.197
654	0.159
655	0.161
655	0.163
656	0.165
656	0.167
657	0.169
657	0.17
657	0.172
658	0.168
658	0.164
659	0.209
659	0.271
660	0.282
660	0.285
661	0.288
661	0.292
661	0.296
662	0.3
662	0.304
663	0.308
663	0.312
664	0.315
664	0.318
665	0.322
665	0.325
665	0.328
666	0.331
666	0.334
667	0.337
667	0.34
668	0.344
668	0.347
669	0.35
669	0.353
669	0.357
670	0.361
670	0.363
671	0.366
671	0.369
672	0.371
672	0.373
672	0.375
673	0.378
673	0.38
674	0.382
674	0.384
675	0.386
675	0.389
676	0.392
676	0.394
676	0.396
677	0.398
677	0.4
678	0.401
678	0.402
679	0.403
679	0.404
680	0.406
680	0.406
680	0.407
681	0.409
681	0.41
682	0.411
682	0.413
683	0.414
683	0.416
684	0.417
684	0.417
684	0.417
685	0.417
685	0.417
686	0.417
686	0.417
687	0.417
687	0.416
687	0.415
688	0.414
688	0.414
689	0.414
689	0.414
690	0.413
690	0.412
691	0.411
691	0.41
691	0.409
692	0.408
692	0.407
693	0.407
693	0.407
694	0.406
694	0.405
695	0.405
695	0.406
695	0.403
696	0.402
696	0.4
697	0.399
697	0.397
698	0.394
698	0.392
698	0.39
699	0.387
699	0.384
700	0.38
700	0.379
701	0.377
701	0.374
702	0.372
702	0.369
702	0.367
703	0.364
703	0.362
704	0.359
704	0.357
705	0.354
705	0.351
705	0.347
706	0.345
706	0.342
707	0.339
707	0.336
708	0.334
708	0.332
709	0.33
709	0.327
709	0.324
710	0.322
710	0.321
711	0.319
711	0.317
712	0.315
712	0.312
713	0.31
713	0.307
713	0.304
714	0.301
714	0.298
715	0.295
715	0.292
716	0.289
716	0.285
716	0.281
717	0.278
717	0.275
718	0.272
718	0.269
719	0.267
719	0.265
720	0.263
720	0.261
720	0.258
721	0.256
721	0.254
722	0.252
722	0.249
723	0.248
723	0.245
723	0.242
724	0.239
724	0.235
725	0.232
725	0.229
726	0.226
726	0.224
727	0.22
727	0.218
727	0.215
728	0.213
728	0.211
729	0.21
729	0.209
730	0.207
730	0.205
730	0.204
731	0.203
731	0.202
732	0.201
732	0.2
733	0.198
733	0.197
734	0.195
734	0.193
734	0.191
735	0.19
735	0.187
736	0.185
736	0.183
737	0.182
737	0.18
737	0.178
738	0.175
738	0.172
739	0.171
739	0.169
740	0.167
740	0.167
741	0.166
741	0.164
741	0.162
742	0.16
742	0.16
743	0.159
743	0.158
744	0.157
744	0.156
744	0.154
745	0.152
745	0.15
746	0.149
746	0.147
747	0.146
747	0.144
748	0.142
748	0.14
748	0.137
749	0.135
749	0.133
750	0.131
750	0.129
751	0.127
751	0.125
751	0.124
752	0.122
752	0.12
753	0.119
753	0.118
754	0.118
754	0.117
754	0.116
755	0.115
755	0.114
756	0.112
756	0.109
757	0.108
757	0.108
758	0.106
758	0.104
758	0.103
759	0.101
759	0.098
760	0.096
760	0.095
761	0.095
761	0.095
761	0.094
762	0.093
762	0.093
763	0.092
763	0.09
764	0.089
764	0.088
764	0.088
765	0.087
765	0.087
766	0.086
766	0.086
767	0.085
767	0.083
768	0.082
768	0.082
768	0.082
769	0.082
769	0.082
770	0.08
770	0.079
771	0.078
771	0.077
771	0.076
772	0.076
772	0.076
773	0.075
773	0.075
774	0.074
774	0.073
775	0.073
775	0.073
775	0.072
776	0.071
776	0.07
777	0.07
777	0.069
778	0.067
778	0.067
778	0.067
779	0.067
779	0.067
780	0.066
780	0.065
781	0.065
781	0.065
781	0.065
782	0.064
782	0.064
783	0.064
783	0.063
784	0.062
784	0.061
784	0.061
785	0.06
785	0.06
786	0.059
786	0.059
787	0.058
787	0.058
788	0.057
788	0.056
788	0.056
789	0.056
789	0.057
790	0.057
790	0.057
791	0.057
791	0.056
791	0.056
792	0.057
792	0.056
793	0.055
793	0.054
794	0.053
794	0.053
794	0.052
795	0.053
795	0.053
796	0.053
796	0.052
797	0.051
797	0.052
797	0.052
798	0.052
798	0.052
799	0.052
799	0.051
800	0.05
800	0.049
801	0.048
801	0.048
801	0.047
802	0.046
802	0.046
803	0.045
803	0.044
804	0.044
804	0.044
804	0.044
805	0.043
805	0.043
806	0.043
806	0.042
807	0.043
807	0.043
807	0.043
808	0.043
808	0.042
809	0.042
809	0.042
810	0.042
810	0.042
810	0.041
811	0.041
811	0.042
812	0.042
812	0.041
813	0.041
813	0.041
813	0.041
814	0.041
814	0.042
815	0.042
815	0.042
816	0.042
816	0.042
817	0.041
817	0.042
817	0.042
818	0.042
818	0.043
819	0.042
819	0.041
820	0.039
820	0.039
820	0.039
821	0.038
821	0.038
822	0.037
822	0.036
823	0.036
823	0.034
823	0.034
824	0.034
824	0.034
825	0.033
825	0.033
826	0.032
826	0.031
826	0.031
827	0.031
827	0.03
828	0.03
828	0.029
829	0.029
829	0.03
829	0.03
830	0.031
830	0.032
831	0.033
831	0.034
832	0.034
832	0.035
832	0.035
833	0.035
833	0.035
834	0.035
834	0.034
835	0.033
835	0.032
835	0.032
836	0.032
836	0.032
837	0.032
837	0.032
838	0.033
838	0.033
839	0.033
839	0.034
839	0.034
840	0.034
840	0.034
841	0.034
841	0.034
842	0.034
842	0.033
842	0.032
843	0.032
843	0.031
844	0.03
844	0.03
845	0.03
845	0.029
845	0.029
846	0.029
846	0.029
847	0.029
847	0.029
848	0.029
848	0.029
848	0.029
849	0.029
849	0.029
850	0.028
850	0.027
851	0.027
851	0.027
851	0.027
852	0.026
852	0.026
853	0.026
853	0.025
854	0.025
854	0.025
854	0.025
855	0.024
855	0.024
856	0.023
856	0.023
857	0.023
857	0.023
857	0.022
858	0.022
858	0.022
859	0.021
859	0.021
860	0.021
860	0.021
860	0.02
861	0.02
861	0.019
862	0.018
862	0.017
863	0.016
863	0.016
863	0.015
864	0.014
864	0.014
865	0.014
865	0.013
866	0.013
866	0.013
866	0.014
867	0.015
867	0.016
868	0.017
868	0.018
869	0.019
869	0.019
869	0.019
870	0.018
870	0.018
871	0.018
871	0.017
872	0.016
872	0.015
872	0.014
873	0.013
873	0.013
874	0.012
874	0.012
875	0.012
875	0.012
875	0.013
876	0.013
876	0.013
877	0.012
877	0.012
878	0.012
878	0.012
878	0.011
879	0.011
879	0.01
880	0.01
880	0.009
881	0.009
881	0.009
881	0.009
882	0.01
882	0.01
883	0.01
883	0.011
884	0.012
884	0.013
884	0.013
885	0.013
885	0.014
886	0.014
886	0.014
887	0.014
887	0.014
887	0.013
888	0.013
888	0.012
889	0.012
889	0.013
890	0.013
890	0.013
890	0.013
891	0.014
891	0.014
892	0.015
892	0.015
893	0.016
893	0.016
893	0.017
894	0.017
894	0.018
895	0.018
895	0.018
895	0.018
896	0.019
896	0.02
897	0.02
897	0.021
898	0.021
898	0.022
898	0.022
899	0.022
899	0.023
900	0.022
900	0.022
901	0.022
901	0.022
901	0.021
902	0.021
902	0.021
903	0.02
903	0.02
904	0.019
904	0.018
904	0.018
905	0.017
905	0.016
906	0.016
906	0.015
907	0.014
907	0.013
907	0.012
908	0.012
908	0.011
909	0.011
909	0.011
910	0.011
910	0.012
910	0.012
911	0.013
911	0.013
912	0.014
912	0.015
913	0.016
913	0.016
913	0.017
914	0.017
914	0.017
915	0.017
915	0.016
916	0.016
916	0.015
916	0.014
917	0.013
917	0.012
918	0.012
918	0.011
918	0.011
919	0.01
919	0.01
920	0.01
920	0.01
921	0.01
921	0.009
921	0.009
922	0.008
922	0.008
923	0.007
923	0.006
924	0.005
924	0.005
924	0.003
925	0.002
925	0.002
926	0.001
926	0
927	-0
927	-0
927	0
928	0
928	0.001
929	0.002
929	0.004
930	0.006
930	0.008
930	0.01
931	0.012
931	0.014
932	0.017
932	0.018
933	0.02
933	0.022
933	0.022
934	0.023
934	0.023
935	0.023
935	0.022
935	0.022
936	0.021
936	0.02
937	0.02
937	0.019
938	0.019
938	0.018
938	0.018
939	0.018
939	0.018
940	0.018
940	0.018
941	0.018
941	0.018
941	0.018
942	0.017
942	0.017
943	0.016
943	0.015
944	0.015
944	0.014
944	0.014
945	0.014
945	0.014
946	0.013
946	0.012
946	0.011
947	0.01
947	0.01
948	0.009
948	0.008
949	0.008
949	0.007
949	0.007
950	0.007
950	0.007
951	0.007
951	0.006
952	0.006
952	0.006
952	0.006
953	0.005
953	0.005
954	0.004
954	0.003
955	0.003
955	0.002
955	0.002
956	0.002
956	0.002
957	0.002
957	0.002
957	0.002
958	0.002
958	0.003
959	0.003
959	0.003
960	0.002
960	0.002
960	0.002
961	0.001
961	0.001
962	-0
962	-0
963	-0
963	-0
963	-0
964	-0
964	0.001
965	0.001
965	0.002
966	0.003
966	0.005
966	0.006
967	0.007
967	0.007
968	0.008
968	0.008
968	0.008
969	0.008
969	0.008
970	0.008
970	0.007
971	0.007
971	0.007
971	0.007
972	0.007
972	0.007
973	0.007
973	0.008
974	0.008
974	0.009
974	0.009
975	0.01
975	0.01
976	0.011
976	0.012
976	0.013
977	0.013
977	0.013
978	0.013
978	0.013
979	0.013
979	0.014
979	0.014
980	0.014
980	0.014
981	0.014
981	0.014
982	0.015
982	0.015
982	0.016
983	0.017
983	0.017
984	0.017
984	0.018
984	0.018
985	0.018
985	0.018
986	0.018
986	0.017
987	0.016
987	0.015
987	0.015
988	0.014
988	0.013
989	0.012
989	0.011
990	0.011
990	0.01
990	0.01
991	0.01
991	0.011
992	0.011
992	0.011
992	0.01
993	0.01
993	0.01
994	0.01
994	0.009
995	0.009
995	0.008
995	0.008
996	0.007
996	0.006
997	0.006
997	0.006
997	0.005
998	0.006
998	0.006
999	0.006
999	0.007
1000	0.007
1000	0.008
1000	0.008
1001	0.009
1001	0.01
1002	0.01
1002	0.01
1003	0.01
1003	0.01
1003	0.009
1004	0.009
1004	0.008
1005	0.008
1005	0.007
1005	0.006
1006	0.005
1006	0.004
1007	0.004
1007	0.004
1008	0.003
1008	0.003
1008	0.003
1009	0.003
1009	0.004
1010	0.004
1010	0.004
1010	0.005
1011	0.005
1011	0.005
1012	0.005
1012	0.006
1013	0.006
1013	0.006
1013	0.005
1014	0.005
1014	0.004
1015	0.003
1015	0.002
1016	0.001
1016	0
1016	-0.001
1017	-0.002
1017	-0.004
1018	-0.005
1018	-0.005
1018	-0.006
1019	-0.006
1019	-0.007
1020	-0.007
1020	-0.008
1021	-0.008
1021	-0.008
1021	-0.008
1022	-0.008
1022	-0.009
1023	-0.009
1023	-0.009
1023	-0.01
1024	-0.011
1024	-0.011
1025	-0.012
1025	-0.012
1026	-0.013
1026	-0.014
1026	-0.014
1027	-0.015
1027	-0.015
1028	-0.015
1028	-0.015
1028	-0.015
1029	-0.016
1029	-0.016
1030	-0.016
1030	-0.016
1031	-0.016
1031	-0.016
1031	-0.016
1032	-0.016
1032	-0.016
1033	-0.016
1033	-0.016
1033	-0.015
1034	-0.016
1034	-0.016
1035	-0.016
1035	-0.017
1036	-0.017
1036	-0.017
1036	-0.017
1037	-0.017
1037	-0.017
1038	-0.017
1038	-0.017
1039	-0.016
1039	-0.016
1039	-0.015
1040	-0.015
1040	-0.015
1041	-0.015
1041	-0.015
1041	-0.016
1042	-0.017
1042	-0.017
1043	-0.018
1043	-0.019
1044	-0.02
1044	-0.021
1044	-0.022
1045	-0.023
1045	-0.024
1046	-0.025
1046	-0.026
1046	-0.026
1047	-0.026
1047	-0.026
1048	-0.026
1048	-0.026
1049	-0.027
1049	-0.028
1049	-0.028
1050	-0.029
1050	-0.03
1051	-0.031
1051	-0.032
1051	-0.032
1052	-0.033
1052	-0.033
1053	-0.034
1053	-0.035
1053	-0.035
1054	-0.035
1054	-0.035
1055	-0.034
1055	-0.034
1056	-0.034
1056	-0.035
1056	-0.036
1057	-0.036
1057	-0.036
1058	-0.036
1058	-0.037
1058	-0.037
1059	-0.037
1059	-0.037
1060	-0.038
1060	-0.038
1061	-0.038
1061	-0.038
1061	-0.038
1062	-0.039
1062	-0.039
1063	-0.039
1063	-0.04
1063	-0.04
1064	-0.04
1064	-0.04
1065	-0.04
1065	-0.041
1066	-0.041
1066	-0.041
1066	-0.04
1067	-0.04
1067	-0.04
1068	-0.039
1068	-0.039
1068	-0.04
1069	-0.04
1069	-0.04
1070	-0.041
1070	-0.041
1071	-0.041
1071	-0.041
1071	-0.042
1072	-0.042
1072	-0.042
1073	-0.042
1073	-0.042
1073	-0.043
1074	-0.043
1074	-0.044
1075	-0.045
1075	-0.046
1076	-0.048
1076	-0.048
1076	-0.05
1077	-0.051
1077	-0.052
1078	-0.053
1078	-0.053
1078	-0.053
1079	-0.054
1079	-0.053
1080	-0.053
1080	-0.053
1080	-0.054
1081	-0.054
1081	-0.054
1082	-0.054
1082	-0.055
1083	-0.055
1083	-0.056
1083	-0.056
1084	-0.057
1084	-0.057
1085	-0.057
1085	-0.057
1085	-0.057
1086	-0.057
1086	-0.058
1087	-0.058
1087	-0.058
1088	-0.059
1088	-0.059
1088	-0.06
1089	-0.061
1089	-0.062
1090	-0.062
1090	-0.063
1090	-0.064
1091	-0.065
1091	-0.066
1092	-0.067
1092	-0.067
1092	-0.068
1093	-0.068
1093	-0.068
1094	-0.069
1094	-0.071
1095	-0.073
1095	-0.074
1095	-0.075
1096	-0.076
1096	-0.077
1097	-0.078
1097	-0.08
1097	-0.081
1098	-0.084
1098	-0.086
1099	-0.087
1099	-0.088
1100	-0.09
1100	-0.092
1100	-0.093
1101	-0.096
1101	-0.098
1102	-0.1
1102	-0.102
1102	-0.103
1103	-0.105
1103	-0.107
1104	-0.108
1104	-0.111
1104	-0.112
1105	-0.113
1105	-0.115
1106	-0.118
1106	-0.12
1107	-0.124
1107	-0.127
1107	-0.13
1108	-0.129
1108	-0.13
1109	-0.132
1109	-0.136
1109	-0.139
1110	-0.139
1110	-0.141
1111	-0.145
1111	-0.136
