Data from 15c-stair-power-variation_Absorbance__492__04102.txt Node

Date: Tue Jan 16 15:58:25 CET 2024
User: Marek
Spectrometer: MAYP115816
Trigger mode: 0
Integration Time (sec): 2.000000E-1
Scans to average: 10
Electric dark correction enabled: true
Nonlinearity correction enabled: true
Boxcar width: 5
XAxis mode: Wavelengths
Number of Pixels in Spectrum: 2068
>>>>>Begin Spectral Data<<<<<
199	-2.294
199	-2.105
200	-1.969
200	-1.849
201	-1.774
201	-1.723
202	-1.646
202	-1.584
203	-1.534
203	-1.485
204	-1.458
204	-1.432
205	-1.413
205	-1.401
205	-1.398
206	-1.393
206	-1.39
207	-1.387
207	-1.386
208	-1.382
208	-1.38
209	-1.376
209	-1.374
210	-1.373
210	-1.37
211	-1.369
211	-1.368
212	-1.367
212	-1.367
213	-1.364
213	-1.363
213	-1.364
214	-1.362
214	-1.361
215	-1.36
215	-1.36
216	-1.356
216	-1.355
217	-1.352
217	-1.35
218	-1.346
218	-1.342
219	-1.337
219	-1.336
220	-1.334
220	-1.332
221	-1.328
221	-1.327
221	-1.322
222	-1.317
222	-1.312
223	-1.307
223	-1.301
224	-1.296
224	-1.287
225	-1.278
225	-1.268
226	-1.26
226	-1.25
227	-1.236
227	-1.223
228	-1.207
228	-1.19
229	-1.169
229	-1.146
229	-1.12
230	-1.091
230	-1.059
231	-1.022
231	-0.983
232	-0.943
232	-0.899
233	-0.852
233	-0.804
234	-0.755
234	-0.705
235	-0.655
235	-0.605
236	-0.555
236	-0.506
236	-0.457
237	-0.41
237	-0.365
238	-0.321
238	-0.279
239	-0.239
239	-0.202
240	-0.166
240	-0.132
241	-0.101
241	-0.072
242	-0.044
242	-0.019
243	0.005
243	0.028
243	0.048
244	0.067
244	0.085
245	0.101
245	0.116
246	0.131
246	0.144
247	0.156
247	0.167
248	0.178
248	0.188
249	0.197
249	0.205
250	0.213
250	0.221
250	0.229
251	0.235
251	0.242
252	0.248
252	0.254
253	0.259
253	0.264
254	0.269
254	0.273
255	0.277
255	0.281
256	0.284
256	0.287
257	0.29
257	0.293
258	0.295
258	0.297
258	0.3
259	0.301
259	0.303
260	0.304
260	0.306
261	0.307
261	0.308
262	0.309
262	0.31
263	0.311
263	0.312
264	0.312
264	0.313
265	0.314
265	0.314
265	0.314
266	0.315
266	0.315
267	0.315
267	0.315
268	0.314
268	0.314
269	0.313
269	0.312
270	0.312
270	0.311
271	0.311
271	0.31
272	0.309
272	0.309
272	0.308
273	0.308
273	0.307
274	0.306
274	0.306
275	0.305
275	0.304
276	0.303
276	0.302
277	0.301
277	0.299
278	0.298
278	0.296
278	0.295
279	0.293
279	0.292
280	0.291
280	0.29
281	0.29
281	0.289
282	0.289
282	0.289
283	0.288
283	0.288
284	0.288
284	0.288
285	0.288
285	0.287
285	0.286
286	0.286
286	0.285
287	0.285
287	0.284
288	0.284
288	0.283
289	0.282
289	0.282
290	0.281
290	0.281
291	0.28
291	0.279
292	0.279
292	0.278
292	0.277
293	0.277
293	0.276
294	0.275
294	0.275
295	0.274
295	0.274
296	0.273
296	0.272
297	0.272
297	0.271
298	0.271
298	0.27
298	0.269
299	0.269
299	0.268
300	0.267
300	0.267
301	0.266
301	0.266
302	0.265
302	0.265
303	0.264
303	0.264
304	0.263
304	0.262
305	0.262
305	0.261
305	0.26
306	0.26
306	0.259
307	0.258
307	0.257
308	0.257
308	0.256
309	0.255
309	0.254
310	0.253
310	0.253
311	0.252
311	0.251
311	0.25
312	0.249
312	0.249
313	0.248
313	0.247
314	0.246
314	0.245
315	0.245
315	0.244
316	0.243
316	0.242
317	0.241
317	0.24
318	0.239
318	0.238
318	0.237
319	0.236
319	0.235
320	0.234
320	0.233
321	0.232
321	0.231
322	0.23
322	0.229
323	0.228
323	0.227
324	0.227
324	0.226
324	0.225
325	0.224
325	0.224
326	0.223
326	0.222
327	0.221
327	0.22
328	0.219
328	0.219
329	0.218
329	0.217
330	0.216
330	0.215
330	0.214
331	0.213
331	0.212
332	0.211
332	0.21
333	0.209
333	0.209
334	0.208
334	0.207
335	0.206
335	0.205
336	0.205
336	0.204
336	0.203
337	0.202
337	0.202
338	0.201
338	0.2
339	0.199
339	0.199
340	0.198
340	0.197
341	0.196
341	0.195
342	0.195
342	0.194
342	0.193
343	0.193
343	0.192
344	0.191
344	0.19
345	0.19
345	0.189
346	0.188
346	0.188
347	0.187
347	0.186
348	0.185
348	0.185
348	0.184
349	0.183
349	0.182
350	0.181
350	0.18
351	0.179
351	0.178
352	0.177
352	0.176
353	0.175
353	0.173
354	0.172
354	0.17
354	0.169
355	0.168
355	0.167
356	0.166
356	0.165
357	0.164
357	0.164
358	0.164
358	0.164
359	0.165
359	0.166
360	0.167
360	0.167
360	0.168
361	0.169
361	0.17
362	0.17
362	0.17
363	0.17
363	0.17
364	0.169
364	0.169
365	0.168
365	0.168
366	0.167
366	0.167
366	0.166
367	0.166
367	0.166
368	0.165
368	0.165
369	0.164
369	0.164
370	0.163
370	0.163
371	0.162
371	0.162
372	0.161
372	0.161
372	0.16
373	0.16
373	0.16
374	0.16
374	0.16
375	0.159
375	0.159
376	0.159
376	0.159
377	0.16
377	0.16
378	0.16
378	0.161
378	0.161
379	0.161
379	0.161
380	0.161
380	0.161
381	0.161
381	0.161
382	0.161
382	0.16
383	0.16
383	0.159
383	0.159
384	0.158
384	0.158
385	0.158
385	0.158
386	0.158
386	0.158
387	0.158
387	0.157
388	0.157
388	0.157
389	0.156
389	0.156
389	0.156
390	0.156
390	0.157
391	0.157
391	0.157
392	0.157
392	0.157
393	0.157
393	0.158
394	0.158
394	0.157
394	0.157
395	0.157
395	0.157
396	0.157
396	0.157
397	0.157
397	0.157
398	0.157
398	0.157
399	0.157
399	0.157
400	0.157
400	0.156
400	0.156
401	0.154
401	0.153
402	0.152
402	0.151
403	0.15
403	0.15
404	0.15
404	0.15
405	0.149
405	0.149
405	0.149
406	0.149
406	0.149
407	0.149
407	0.148
408	0.148
408	0.147
409	0.146
409	0.146
410	0.146
410	0.145
411	0.146
411	0.145
411	0.145
412	0.144
412	0.144
413	0.144
413	0.144
414	0.143
414	0.143
415	0.142
415	0.142
416	0.141
416	0.141
416	0.14
417	0.14
417	0.139
418	0.139
418	0.14
419	0.141
419	0.142
420	0.142
420	0.143
421	0.144
421	0.145
421	0.145
422	0.145
422	0.145
423	0.146
423	0.145
424	0.144
424	0.143
425	0.142
425	0.141
426	0.14
426	0.139
427	0.139
427	0.139
427	0.14
428	0.141
428	0.141
429	0.142
429	0.143
430	0.143
430	0.143
431	0.143
431	0.143
432	0.142
432	0.141
432	0.14
433	0.138
433	0.137
434	0.136
434	0.135
435	0.135
435	0.135
436	0.135
436	0.135
437	0.135
437	0.135
437	0.135
438	0.135
438	0.134
439	0.134
439	0.134
440	0.134
440	0.134
441	0.134
441	0.134
442	0.135
442	0.136
442	0.136
443	0.137
443	0.138
444	0.138
444	0.138
445	0.139
445	0.139
446	0.139
446	0.139
447	0.138
447	0.138
447	0.137
448	0.137
448	0.137
449	0.136
449	0.136
450	0.135
450	0.135
451	0.134
451	0.134
452	0.133
452	0.132
452	0.132
453	0.131
453	0.13
454	0.129
454	0.128
455	0.127
455	0.127
456	0.126
456	0.126
457	0.126
457	0.126
458	0.125
458	0.126
458	0.126
459	0.126
459	0.127
460	0.126
460	0.125
461	0.125
461	0.124
462	0.124
462	0.124
463	0.124
463	0.125
463	0.126
464	0.126
464	0.126
465	0.126
465	0.126
466	0.126
466	0.126
467	0.126
467	0.126
467	0.124
468	0.122
468	0.12
469	0.117
469	0.116
470	0.114
470	0.114
471	0.113
471	0.113
472	0.112
472	0.112
472	0.113
473	0.114
473	0.116
474	0.117
474	0.118
475	0.119
475	0.119
476	0.12
476	0.12
477	0.121
477	0.121
477	0.122
478	0.122
478	0.122
479	0.122
479	0.123
480	0.124
480	0.125
481	0.126
481	0.127
482	0.128
482	0.129
482	0.13
483	0.132
483	0.136
484	0.139
484	0.142
485	0.144
485	0.146
486	0.147
486	0.148
487	0.149
487	0.149
487	0.149
488	0.148
488	0.146
489	0.143
489	0.141
490	0.139
490	0.138
491	0.137
491	0.137
492	0.138
492	0.138
492	0.138
493	0.139
493	0.14
494	0.142
494	0.145
495	0.147
495	0.148
496	0.149
496	0.15
496	0.15
497	0.151
497	0.152
498	0.152
498	0.152
499	0.152
499	0.151
500	0.151
500	0.153
501	0.154
501	0.156
501	0.157
502	0.159
502	0.16
503	0.162
503	0.164
504	0.165
504	0.165
505	0.165
505	0.165
506	0.165
506	0.165
506	0.166
507	0.165
507	0.165
508	0.165
508	0.165
509	0.166
509	0.166
510	0.167
510	0.166
511	0.166
511	0.166
511	0.166
512	0.166
512	0.166
513	0.165
513	0.164
514	0.162
514	0.161
515	0.16
515	0.159
515	0.158
516	0.157
516	0.157
517	0.157
517	0.157
518	0.157
518	0.156
519	0.155
519	0.152
520	0.149
520	0.146
520	0.143
521	0.14
521	0.136
522	0.133
522	0.131
523	0.129
523	0.129
524	0.131
524	0.134
524	0.137
525	0.141
525	0.145
526	0.149
526	0.152
527	0.156
527	0.16
528	0.162
528	0.164
529	0.166
529	0.166
529	0.166
530	0.167
530	0.167
531	0.167
531	0.168
532	0.168
532	0.167
533	0.168
533	0.168
533	0.168
534	0.168
534	0.168
535	0.167
535	0.167
536	0.167
536	0.166
537	0.166
537	0.165
538	0.165
538	0.164
538	0.162
539	0.162
539	0.161
540	0.161
540	0.159
541	0.158
541	0.156
542	0.154
542	0.153
542	0.151
543	0.15
543	0.149
544	0.148
544	0.147
545	0.146
545	0.145
546	0.145
546	0.145
547	0.144
547	0.142
547	0.139
548	0.137
548	0.135
549	0.133
549	0.131
550	0.129
550	0.127
551	0.124
551	0.122
551	0.12
552	0.119
552	0.119
553	0.118
553	0.118
554	0.118
554	0.117
555	0.115
555	0.113
556	0.11
556	0.107
556	0.104
557	0.101
557	0.099
558	0.097
558	0.094
559	0.093
559	0.092
560	0.092
560	0.092
560	0.092
561	0.093
561	0.093
562	0.094
562	0.093
563	0.091
563	0.089
564	0.087
564	0.084
564	0.081
565	0.079
565	0.078
566	0.077
566	0.076
567	0.076
567	0.078
568	0.08
568	0.082
568	0.084
569	0.088
569	0.091
570	0.093
570	0.094
571	0.095
571	0.097
572	0.098
572	0.098
573	0.099
573	0.098
573	0.097
574	0.096
574	0.096
575	0.096
575	0.097
576	0.098
576	0.097
577	0.096
577	0.094
577	0.093
578	0.093
578	0.093
579	0.095
579	0.097
580	0.097
580	0.095
581	0.092
581	0.09
581	0.089
582	0.089
582	0.089
583	0.09
583	0.089
584	0.086
584	0.081
585	0.079
585	0.078
585	0.077
586	0.078
586	0.077
587	0.076
587	0.073
588	0.07
588	0.068
589	0.066
589	0.065
590	0.064
590	0.063
590	0.064
591	0.066
591	0.066
592	0.066
592	0.065
593	0.065
593	0.064
594	0.064
594	0.063
594	0.062
595	0.061
595	0.059
596	0.057
596	0.058
597	0.06
597	0.062
598	0.063
598	0.065
598	0.066
599	0.067
599	0.067
600	0.066
600	0.065
601	0.064
601	0.063
602	0.06
602	0.059
602	0.057
603	0.056
603	0.056
604	0.057
604	0.058
605	0.059
605	0.061
606	0.062
606	0.061
606	0.06
607	0.059
607	0.059
608	0.058
608	0.056
609	0.054
609	0.053
610	0.051
610	0.049
610	0.048
611	0.048
611	0.048
612	0.049
612	0.051
613	0.053
613	0.055
614	0.055
614	0.054
614	0.055
615	0.054
615	0.054
616	0.053
616	0.052
617	0.052
617	0.05
618	0.048
618	0.047
618	0.046
619	0.046
619	0.047
620	0.049
620	0.051
621	0.051
621	0.052
622	0.053
622	0.054
622	0.054
623	0.054
623	0.056
624	0.057
624	0.057
625	0.056
625	0.056
626	0.056
626	0.056
626	0.056
627	0.056
627	0.056
628	0.057
628	0.057
629	0.057
629	0.057
630	0.056
630	0.055
630	0.055
631	0.055
631	0.055
632	0.055
632	0.055
633	0.055
633	0.056
634	0.057
634	0.059
634	0.061
635	0.063
635	0.064
636	0.065
636	0.066
637	0.068
637	0.069
638	0.07
638	0.071
638	0.073
639	0.073
639	0.073
640	0.074
640	0.076
641	0.078
641	0.079
642	0.081
642	0.083
642	0.085
643	0.087
643	0.088
644	0.09
644	0.092
645	0.094
645	0.096
646	0.099
646	0.102
646	0.106
647	0.11
647	0.113
648	0.116
648	0.119
649	0.123
649	0.126
650	0.129
650	0.132
650	0.135
651	0.137
651	0.139
652	0.141
652	0.143
653	0.146
653	0.156
653	0.168
654	0.14
654	0.119
655	0.123
655	0.125
656	0.127
656	0.128
657	0.13
657	0.132
657	0.133
658	0.128
658	0.119
659	0.145
659	0.179
660	0.181
660	0.182
661	0.184
661	0.185
661	0.188
662	0.191
662	0.194
663	0.198
663	0.202
664	0.205
664	0.208
665	0.211
665	0.214
665	0.216
666	0.219
666	0.221
667	0.224
667	0.226
668	0.229
668	0.231
669	0.234
669	0.237
669	0.242
670	0.247
670	0.251
671	0.254
671	0.256
672	0.258
672	0.259
672	0.26
673	0.261
673	0.262
674	0.263
674	0.263
675	0.263
675	0.263
676	0.265
676	0.267
676	0.269
677	0.271
677	0.274
678	0.277
678	0.278
679	0.279
679	0.281
680	0.283
680	0.285
680	0.285
681	0.285
681	0.287
682	0.288
682	0.289
683	0.292
683	0.294
684	0.297
684	0.299
684	0.299
685	0.3
685	0.301
686	0.303
686	0.303
687	0.303
687	0.302
687	0.301
688	0.3
688	0.298
689	0.298
689	0.299
690	0.3
690	0.299
691	0.299
691	0.3
691	0.3
692	0.3
692	0.299
693	0.3
693	0.3
694	0.3
694	0.298
695	0.299
695	0.301
695	0.302
696	0.301
696	0.3
697	0.3
697	0.299
698	0.298
698	0.296
698	0.293
699	0.292
699	0.289
700	0.286
700	0.283
701	0.282
701	0.28
702	0.278
702	0.277
702	0.275
703	0.274
703	0.272
704	0.27
704	0.269
705	0.268
705	0.266
705	0.264
706	0.263
706	0.262
707	0.26
707	0.258
708	0.256
708	0.255
709	0.254
709	0.252
709	0.249
710	0.245
710	0.243
711	0.241
711	0.239
712	0.238
712	0.236
713	0.235
713	0.233
713	0.231
714	0.228
714	0.225
715	0.222
715	0.22
716	0.216
716	0.214
716	0.21
717	0.207
717	0.205
718	0.202
718	0.199
719	0.198
719	0.196
720	0.195
720	0.193
720	0.19
721	0.187
721	0.185
722	0.182
722	0.179
723	0.177
723	0.174
723	0.172
724	0.169
724	0.165
725	0.162
725	0.16
726	0.157
726	0.155
727	0.152
727	0.15
727	0.149
728	0.146
728	0.145
729	0.145
729	0.145
730	0.144
730	0.143
730	0.142
731	0.141
731	0.14
732	0.14
732	0.138
733	0.137
733	0.135
734	0.132
734	0.13
734	0.128
735	0.126
735	0.123
736	0.12
736	0.118
737	0.115
737	0.114
737	0.112
738	0.109
738	0.106
739	0.103
739	0.1
740	0.098
740	0.096
741	0.095
741	0.093
741	0.09
742	0.085
742	0.081
743	0.078
743	0.076
744	0.073
744	0.071
744	0.068
745	0.065
745	0.062
746	0.06
746	0.058
747	0.057
747	0.056
748	0.056
748	0.055
748	0.055
749	0.053
749	0.053
750	0.052
750	0.051
751	0.05
751	0.05
751	0.05
752	0.049
752	0.048
753	0.047
753	0.046
754	0.045
754	0.045
754	0.045
755	0.046
755	0.046
756	0.046
756	0.043
757	0.042
757	0.041
758	0.04
758	0.039
758	0.038
759	0.036
759	0.033
760	0.029
760	0.025
761	0.023
761	0.021
761	0.019
762	0.016
762	0.015
763	0.014
763	0.011
764	0.008
764	0.005
764	0.003
765	0
765	-0.002
766	-0.003
766	-0.004
767	-0.004
767	-0.007
768	-0.01
768	-0.012
768	-0.013
769	-0.013
769	-0.014
770	-0.015
770	-0.016
771	-0.018
771	-0.021
771	-0.024
772	-0.026
772	-0.028
773	-0.03
773	-0.033
774	-0.037
774	-0.04
775	-0.044
775	-0.047
775	-0.051
776	-0.056
776	-0.06
777	-0.064
777	-0.068
778	-0.072
778	-0.076
778	-0.08
779	-0.08
779	-0.077
780	-0.075
780	-0.076
781	-0.075
781	-0.074
781	-0.072
782	-0.071
782	-0.071
783	-0.071
783	-0.069
784	-0.07
784	-0.073
784	-0.075
785	-0.076
785	-0.078
786	-0.079
786	-0.077
787	-0.073
787	-0.069
788	-0.068
788	-0.069
788	-0.07
789	-0.072
789	-0.071
790	-0.068
790	-0.067
791	-0.068
791	-0.069
791	-0.071
792	-0.066
792	-0.057
793	-0.051
793	-0.047
794	-0.046
794	-0.048
794	-0.051
795	-0.053
795	-0.053
796	-0.053
796	-0.055
797	-0.063
797	-0.072
797	-0.078
798	-0.083
798	-0.086
799	-0.087
799	-0.086
800	-0.086
800	-0.088
801	-0.092
801	-0.093
801	-0.094
802	-0.096
802	-0.097
803	-0.098
803	-0.098
804	-0.098
804	-0.093
804	-0.087
805	-0.083
805	-0.081
806	-0.079
806	-0.078
807	-0.077
807	-0.076
807	-0.075
808	-0.075
808	-0.075
809	-0.079
809	-0.084
810	-0.087
810	-0.089
810	-0.092
811	-0.094
811	-0.094
812	-0.09
812	-0.087
813	-0.088
813	-0.088
813	-0.089
814	-0.09
814	-0.09
815	-0.088
815	-0.085
816	-0.083
816	-0.084
817	-0.088
817	-0.091
817	-0.092
818	-0.091
818	-0.088
819	-0.083
819	-0.08
820	-0.082
820	-0.084
820	-0.085
821	-0.085
821	-0.083
822	-0.083
822	-0.082
823	-0.081
823	-0.083
823	-0.086
824	-0.087
824	-0.086
825	-0.082
825	-0.077
826	-0.072
826	-0.07
826	-0.067
827	-0.063
827	-0.059
828	-0.055
828	-0.051
829	-0.048
829	-0.044
829	-0.041
830	-0.039
830	-0.037
831	-0.032
831	-0.028
832	-0.025
832	-0.022
832	-0.019
833	-0.016
833	-0.014
834	-0.012
834	-0.01
835	-0.009
835	-0.008
835	-0.008
836	-0.007
836	-0.006
837	-0.005
837	-0.004
838	-0.003
838	-0.003
839	-0.002
839	-0.002
839	-0.001
840	-0
840	0
841	0.001
841	0.001
842	0.002
842	0.002
842	0.003
843	0.003
843	0.004
844	0.005
844	0.006
845	0.007
845	0.008
845	0.009
846	0.01
846	0.011
847	0.013
847	0.014
848	0.016
848	0.017
848	0.019
849	0.02
849	0.021
850	0.022
850	0.023
851	0.024
851	0.025
851	0.025
852	0.025
852	0.025
853	0.026
853	0.026
854	0.027
854	0.028
854	0.028
855	0.029
855	0.029
856	0.03
856	0.03
857	0.031
857	0.031
857	0.032
858	0.032
858	0.031
859	0.031
859	0.031
860	0.031
860	0.031
860	0.031
861	0.031
861	0.031
862	0.03
862	0.029
863	0.029
863	0.029
863	0.028
864	0.028
864	0.028
865	0.028
865	0.028
866	0.028
866	0.028
866	0.029
867	0.03
867	0.03
868	0.031
868	0.032
869	0.033
869	0.034
869	0.034
870	0.034
870	0.034
871	0.035
871	0.035
872	0.034
872	0.033
872	0.033
873	0.032
873	0.032
874	0.032
874	0.032
875	0.032
875	0.032
875	0.032
876	0.033
876	0.033
877	0.033
877	0.033
878	0.033
878	0.033
878	0.033
879	0.032
879	0.031
880	0.031
880	0.03
881	0.03
881	0.03
881	0.03
882	0.03
882	0.03
883	0.031
883	0.031
884	0.032
884	0.033
884	0.034
885	0.034
885	0.035
886	0.036
886	0.037
887	0.037
887	0.038
887	0.038
888	0.038
888	0.038
889	0.038
889	0.039
890	0.04
890	0.04
890	0.04
891	0.04
891	0.041
892	0.041
892	0.042
893	0.042
893	0.043
893	0.044
894	0.045
894	0.045
895	0.045
895	0.046
895	0.046
896	0.047
896	0.047
897	0.048
897	0.049
898	0.049
898	0.05
898	0.05
899	0.051
899	0.052
900	0.052
900	0.052
901	0.052
901	0.052
901	0.052
902	0.053
902	0.052
903	0.052
903	0.051
904	0.05
904	0.049
904	0.049
905	0.048
905	0.048
906	0.047
906	0.046
907	0.046
907	0.045
907	0.045
908	0.045
908	0.045
909	0.045
909	0.045
910	0.046
910	0.046
910	0.046
911	0.047
911	0.047
912	0.048
912	0.049
913	0.05
913	0.05
913	0.051
914	0.051
914	0.051
915	0.051
915	0.05
916	0.049
916	0.048
916	0.048
917	0.047
917	0.046
918	0.046
918	0.045
918	0.045
919	0.045
919	0.044
920	0.044
920	0.045
921	0.044
921	0.044
921	0.044
922	0.043
922	0.042
923	0.041
923	0.04
924	0.039
924	0.038
924	0.037
925	0.035
925	0.035
926	0.034
926	0.033
927	0.033
927	0.032
927	0.033
928	0.033
928	0.033
929	0.035
929	0.036
930	0.038
930	0.04
930	0.042
931	0.044
931	0.047
932	0.049
932	0.052
933	0.054
933	0.056
933	0.058
934	0.059
934	0.06
935	0.06
935	0.06
935	0.061
936	0.061
936	0.061
937	0.061
937	0.061
938	0.062
938	0.062
938	0.063
939	0.063
939	0.064
940	0.065
940	0.065
941	0.065
941	0.065
941	0.065
942	0.064
942	0.064
943	0.063
943	0.062
944	0.061
944	0.061
944	0.06
945	0.06
945	0.06
946	0.059
946	0.058
946	0.058
947	0.057
947	0.056
948	0.055
948	0.054
949	0.054
949	0.053
949	0.053
950	0.052
950	0.052
951	0.051
951	0.051
952	0.05
952	0.05
952	0.05
953	0.05
953	0.05
954	0.05
954	0.049
955	0.049
955	0.049
955	0.049
956	0.049
956	0.049
957	0.049
957	0.048
957	0.048
958	0.047
958	0.047
959	0.047
959	0.047
960	0.046
960	0.045
960	0.044
961	0.043
961	0.042
962	0.041
962	0.041
963	0.041
963	0.041
963	0.041
964	0.041
964	0.041
965	0.042
965	0.043
966	0.044
966	0.046
966	0.047
967	0.048
967	0.049
968	0.049
968	0.05
968	0.05
969	0.05
969	0.05
970	0.05
970	0.05
971	0.05
971	0.05
971	0.05
972	0.05
972	0.051
973	0.051
973	0.052
974	0.052
974	0.053
974	0.054
975	0.055
975	0.056
976	0.057
976	0.058
976	0.058
977	0.058
977	0.059
978	0.059
978	0.059
979	0.059
979	0.059
979	0.06
980	0.06
980	0.06
981	0.06
981	0.061
982	0.062
982	0.063
982	0.064
983	0.065
983	0.065
984	0.066
984	0.066
984	0.067
985	0.067
985	0.067
986	0.066
986	0.066
987	0.065
987	0.064
987	0.064
988	0.063
988	0.062
989	0.061
989	0.061
990	0.06
990	0.06
990	0.059
991	0.06
991	0.06
992	0.06
992	0.06
992	0.059
993	0.059
993	0.058
994	0.058
994	0.057
995	0.057
995	0.056
995	0.055
996	0.055
996	0.054
997	0.053
997	0.053
997	0.053
998	0.054
998	0.055
999	0.055
999	0.056
1000	0.057
1000	0.058
1000	0.059
1001	0.06
1001	0.061
1002	0.061
1002	0.061
1003	0.061
1003	0.061
1003	0.061
1004	0.061
1004	0.06
1005	0.059
1005	0.059
1005	0.058
1006	0.057
1006	0.056
1007	0.056
1007	0.056
1008	0.056
1008	0.056
1008	0.056
1009	0.056
1009	0.057
1010	0.057
1010	0.057
1010	0.058
1011	0.058
1011	0.059
1012	0.059
1012	0.059
1013	0.059
1013	0.058
1013	0.058
1014	0.057
1014	0.056
1015	0.055
1015	0.055
1016	0.053
1016	0.052
1016	0.051
1017	0.05
1017	0.049
1018	0.048
1018	0.048
1018	0.047
1019	0.047
1019	0.047
1020	0.047
1020	0.047
1021	0.047
1021	0.047
1021	0.047
1022	0.047
1022	0.047
1023	0.047
1023	0.047
1023	0.047
1024	0.047
1024	0.046
1025	0.046
1025	0.045
1026	0.045
1026	0.044
1026	0.044
1027	0.044
1027	0.043
1028	0.043
1028	0.043
1028	0.043
1029	0.043
1029	0.044
1030	0.044
1030	0.045
1031	0.045
1031	0.046
1031	0.046
1032	0.047
1032	0.047
1033	0.048
1033	0.048
1033	0.049
1034	0.049
1034	0.049
1035	0.049
1035	0.049
1036	0.05
1036	0.05
1036	0.051
1037	0.051
1037	0.052
1038	0.053
1038	0.053
1039	0.055
1039	0.056
1039	0.057
1040	0.058
1040	0.058
1041	0.059
1041	0.059
1041	0.059
1042	0.058
1042	0.058
1043	0.058
1043	0.058
1044	0.058
1044	0.058
1044	0.058
1045	0.058
1045	0.058
1046	0.058
1046	0.059
1046	0.06
1047	0.06
1047	0.061
1048	0.062
1048	0.062
1049	0.062
1049	0.061
1049	0.061
1050	0.061
1050	0.06
1051	0.06
1051	0.06
1051	0.061
1052	0.061
1052	0.061
1053	0.061
1053	0.062
1053	0.063
1054	0.064
1054	0.065
1055	0.067
1055	0.067
1056	0.068
1056	0.068
1056	0.068
1057	0.069
1057	0.07
1058	0.071
1058	0.072
1058	0.074
1059	0.076
1059	0.077
1060	0.079
1060	0.08
1061	0.082
1061	0.084
1061	0.085
1062	0.086
1062	0.087
1063	0.088
1063	0.088
1063	0.088
1064	0.09
1064	0.092
1065	0.093
1065	0.095
1066	0.097
1066	0.098
1066	0.101
1067	0.103
1067	0.105
1068	0.107
1068	0.109
1068	0.11
1069	0.112
1069	0.113
1070	0.114
1070	0.116
1071	0.118
1071	0.12
1071	0.122
1072	0.124
1072	0.128
1073	0.13
1073	0.133
1073	0.135
1074	0.137
1074	0.14
1075	0.141
1075	0.142
1076	0.143
1076	0.146
1076	0.147
1077	0.15
1077	0.152
1078	0.155
1078	0.159
1078	0.163
1079	0.166
1079	0.171
1080	0.175
1080	0.18
1080	0.183
1081	0.187
1081	0.19
1082	0.194
1082	0.197
1083	0.202
1083	0.206
1083	0.212
1084	0.217
1084	0.223
1085	0.228
1085	0.234
1085	0.241
1086	0.247
1086	0.252
1087	0.26
1087	0.267
1088	0.273
1088	0.28
1088	0.289
1089	0.298
1089	0.309
1090	0.321
1090	0.336
1090	0.35
1091	0.367
1091	0.386
1092	0.407
1092	0.431
1092	0.455
1093	0.48
1093	0.511
1094	0.542
1094	0.575
1095	0.612
1095	0.66
1095	0.719
1096	0.786
1096	0.869
1097	0.99
1097	1.144
1097	1.419
1098	2.339
1098	-0
1099	-0
1099	-0
1100	-0
1100	-0
1100	-0
1101	-0
1101	-0
1102	-0
1102	-0
1102	-0
1103	-0
1103	-0
1104	-0
1104	-0
1104	-0
1105	-0
1105	-0
1106	-0
1106	-0
1107	-0
1107	-0
1107	-0
1108	-0
1108	-0
1109	-0
1109	-0
1109	-0
1110	-0
1110	-0
1111	-0
1111	-0
