Data from 15c-stair-power-variation_Absorbance__309__03919.txt Node

Date: Tue Jan 16 15:52:19 CET 2024
User: Marek
Spectrometer: MAYP115816
Trigger mode: 0
Integration Time (sec): 2.000000E-1
Scans to average: 10
Electric dark correction enabled: true
Nonlinearity correction enabled: true
Boxcar width: 5
XAxis mode: Wavelengths
Number of Pixels in Spectrum: 2068
>>>>>Begin Spectral Data<<<<<
199	-2.24
199	-2.051
200	-1.917
200	-1.796
201	-1.722
201	-1.67
202	-1.594
202	-1.532
203	-1.483
203	-1.434
204	-1.407
204	-1.382
205	-1.362
205	-1.35
205	-1.347
206	-1.342
206	-1.338
207	-1.336
207	-1.335
208	-1.331
208	-1.33
209	-1.326
209	-1.324
210	-1.323
210	-1.32
211	-1.319
211	-1.319
212	-1.318
212	-1.317
213	-1.315
213	-1.314
213	-1.315
214	-1.312
214	-1.311
215	-1.31
215	-1.31
216	-1.306
216	-1.305
217	-1.302
217	-1.3
218	-1.296
218	-1.292
219	-1.288
219	-1.287
220	-1.285
220	-1.283
221	-1.279
221	-1.277
221	-1.273
222	-1.268
222	-1.263
223	-1.258
223	-1.253
224	-1.247
224	-1.238
225	-1.229
225	-1.22
226	-1.212
226	-1.202
227	-1.188
227	-1.176
228	-1.159
228	-1.143
229	-1.122
229	-1.099
229	-1.073
230	-1.044
230	-1.011
231	-0.976
231	-0.936
232	-0.895
232	-0.852
233	-0.805
233	-0.757
234	-0.708
234	-0.658
235	-0.608
235	-0.559
236	-0.509
236	-0.46
236	-0.412
237	-0.366
237	-0.321
238	-0.279
238	-0.238
239	-0.198
239	-0.161
240	-0.127
240	-0.094
241	-0.064
241	-0.035
242	-0.009
242	0.016
243	0.039
243	0.06
243	0.08
244	0.098
244	0.115
245	0.13
245	0.145
246	0.159
246	0.171
247	0.183
247	0.194
248	0.204
248	0.214
249	0.222
249	0.23
250	0.238
250	0.246
250	0.253
251	0.259
251	0.265
252	0.271
252	0.276
253	0.281
253	0.285
254	0.289
254	0.294
255	0.297
255	0.3
256	0.303
256	0.306
257	0.309
257	0.312
258	0.314
258	0.316
258	0.317
259	0.319
259	0.321
260	0.322
260	0.323
261	0.324
261	0.325
262	0.326
262	0.327
263	0.328
263	0.328
264	0.329
264	0.329
265	0.33
265	0.33
265	0.33
266	0.33
266	0.33
267	0.33
267	0.33
268	0.329
268	0.329
269	0.328
269	0.328
270	0.327
270	0.326
271	0.325
271	0.324
272	0.324
272	0.323
272	0.322
273	0.321
273	0.32
274	0.319
274	0.318
275	0.318
275	0.317
276	0.316
276	0.314
277	0.313
277	0.311
278	0.31
278	0.308
278	0.307
279	0.305
279	0.303
280	0.302
280	0.302
281	0.301
281	0.3
282	0.299
282	0.299
283	0.299
283	0.298
284	0.298
284	0.298
285	0.298
285	0.297
285	0.296
286	0.296
286	0.295
287	0.294
287	0.293
288	0.293
288	0.292
289	0.291
289	0.29
290	0.29
290	0.289
291	0.288
291	0.287
292	0.287
292	0.286
292	0.285
293	0.284
293	0.283
294	0.283
294	0.282
295	0.281
295	0.281
296	0.28
296	0.279
297	0.279
297	0.278
298	0.278
298	0.277
298	0.276
299	0.276
299	0.275
300	0.274
300	0.274
301	0.273
301	0.272
302	0.272
302	0.271
303	0.271
303	0.27
304	0.269
304	0.269
305	0.268
305	0.267
305	0.267
306	0.266
306	0.265
307	0.264
307	0.264
308	0.263
308	0.262
309	0.261
309	0.26
310	0.26
310	0.259
311	0.258
311	0.258
311	0.257
312	0.256
312	0.255
313	0.254
313	0.253
314	0.253
314	0.252
315	0.251
315	0.25
316	0.249
316	0.248
317	0.247
317	0.247
318	0.246
318	0.245
318	0.244
319	0.243
319	0.242
320	0.241
320	0.24
321	0.239
321	0.238
322	0.237
322	0.236
323	0.235
323	0.235
324	0.234
324	0.233
324	0.232
325	0.232
325	0.231
326	0.23
326	0.229
327	0.228
327	0.227
328	0.227
328	0.226
329	0.225
329	0.224
330	0.223
330	0.222
330	0.221
331	0.22
331	0.219
332	0.219
332	0.218
333	0.217
333	0.216
334	0.215
334	0.215
335	0.214
335	0.213
336	0.212
336	0.211
336	0.211
337	0.21
337	0.209
338	0.208
338	0.207
339	0.207
339	0.206
340	0.205
340	0.205
341	0.204
341	0.203
342	0.203
342	0.202
342	0.202
343	0.201
343	0.2
344	0.2
344	0.199
345	0.198
345	0.197
346	0.197
346	0.196
347	0.195
347	0.194
348	0.193
348	0.193
348	0.192
349	0.191
349	0.19
350	0.189
350	0.188
351	0.187
351	0.187
352	0.186
352	0.185
353	0.184
353	0.183
354	0.181
354	0.18
354	0.179
355	0.177
355	0.176
356	0.175
356	0.174
357	0.173
357	0.173
358	0.173
358	0.173
359	0.174
359	0.175
360	0.176
360	0.177
360	0.177
361	0.178
361	0.179
362	0.179
362	0.179
363	0.179
363	0.179
364	0.179
364	0.178
365	0.178
365	0.177
366	0.177
366	0.176
366	0.176
367	0.176
367	0.175
368	0.175
368	0.174
369	0.174
369	0.173
370	0.173
370	0.173
371	0.172
371	0.171
372	0.171
372	0.171
372	0.17
373	0.17
373	0.17
374	0.169
374	0.169
375	0.169
375	0.169
376	0.169
376	0.169
377	0.169
377	0.17
378	0.17
378	0.17
378	0.171
379	0.171
379	0.171
380	0.171
380	0.171
381	0.171
381	0.171
382	0.17
382	0.17
383	0.169
383	0.169
383	0.168
384	0.168
384	0.167
385	0.167
385	0.167
386	0.167
386	0.167
387	0.167
387	0.167
388	0.167
388	0.166
389	0.166
389	0.166
389	0.166
390	0.166
390	0.166
391	0.166
391	0.167
392	0.167
392	0.167
393	0.167
393	0.167
394	0.167
394	0.167
394	0.167
395	0.166
395	0.166
396	0.166
396	0.166
397	0.166
397	0.166
398	0.166
398	0.166
399	0.166
399	0.166
400	0.166
400	0.165
400	0.165
401	0.164
401	0.163
402	0.161
402	0.161
403	0.16
403	0.16
404	0.16
404	0.159
405	0.159
405	0.159
405	0.158
406	0.158
406	0.158
407	0.158
407	0.158
408	0.157
408	0.156
409	0.156
409	0.156
410	0.155
410	0.155
411	0.155
411	0.155
411	0.155
412	0.154
412	0.154
413	0.154
413	0.153
414	0.153
414	0.153
415	0.152
415	0.152
416	0.151
416	0.151
416	0.15
417	0.15
417	0.15
418	0.15
418	0.15
419	0.151
419	0.152
420	0.152
420	0.153
421	0.154
421	0.154
421	0.155
422	0.155
422	0.155
423	0.155
423	0.154
424	0.154
424	0.152
425	0.151
425	0.15
426	0.149
426	0.148
427	0.148
427	0.148
427	0.149
428	0.15
428	0.15
429	0.151
429	0.152
430	0.152
430	0.152
431	0.152
431	0.151
432	0.151
432	0.15
432	0.148
433	0.147
433	0.146
434	0.145
434	0.144
435	0.144
435	0.144
436	0.144
436	0.144
437	0.144
437	0.144
437	0.145
438	0.144
438	0.144
439	0.144
439	0.144
440	0.143
440	0.143
441	0.144
441	0.144
442	0.145
442	0.145
442	0.146
443	0.146
443	0.147
444	0.147
444	0.148
445	0.148
445	0.148
446	0.148
446	0.148
447	0.148
447	0.147
447	0.147
448	0.147
448	0.146
449	0.146
449	0.145
450	0.145
450	0.145
451	0.144
451	0.143
452	0.143
452	0.142
452	0.141
453	0.141
453	0.14
454	0.139
454	0.138
455	0.138
455	0.137
456	0.137
456	0.136
457	0.136
457	0.136
458	0.135
458	0.136
458	0.136
459	0.136
459	0.137
460	0.136
460	0.135
461	0.135
461	0.135
462	0.135
462	0.135
463	0.135
463	0.136
463	0.136
464	0.137
464	0.137
465	0.137
465	0.137
466	0.137
466	0.137
467	0.137
467	0.136
467	0.135
468	0.133
468	0.131
469	0.129
469	0.127
470	0.127
470	0.126
471	0.126
471	0.125
472	0.125
472	0.125
472	0.126
473	0.127
473	0.128
474	0.13
474	0.131
475	0.131
475	0.132
476	0.133
476	0.133
477	0.133
477	0.134
477	0.134
478	0.134
478	0.134
479	0.135
479	0.135
480	0.136
480	0.137
481	0.138
481	0.139
482	0.139
482	0.14
482	0.142
483	0.144
483	0.147
484	0.151
484	0.154
485	0.156
485	0.157
486	0.159
486	0.159
487	0.16
487	0.161
487	0.161
488	0.16
488	0.158
489	0.155
489	0.153
490	0.152
490	0.151
491	0.15
491	0.15
492	0.151
492	0.151
492	0.151
493	0.152
493	0.153
494	0.155
494	0.158
495	0.16
495	0.161
496	0.162
496	0.163
496	0.163
497	0.164
497	0.165
498	0.166
498	0.166
499	0.166
499	0.165
500	0.166
500	0.167
501	0.169
501	0.17
501	0.172
502	0.174
502	0.175
503	0.177
503	0.178
504	0.179
504	0.18
505	0.18
505	0.18
506	0.181
506	0.181
506	0.182
507	0.181
507	0.182
508	0.182
508	0.182
509	0.183
509	0.183
510	0.184
510	0.184
511	0.184
511	0.184
511	0.183
512	0.183
512	0.183
513	0.183
513	0.182
514	0.181
514	0.18
515	0.179
515	0.178
515	0.177
516	0.176
516	0.176
517	0.176
517	0.177
518	0.177
518	0.176
519	0.175
519	0.174
520	0.171
520	0.169
520	0.166
521	0.163
521	0.16
522	0.156
522	0.153
523	0.151
523	0.15
524	0.15
524	0.151
524	0.153
525	0.156
525	0.16
526	0.163
526	0.167
527	0.171
527	0.175
528	0.178
528	0.181
529	0.183
529	0.184
529	0.185
530	0.185
530	0.186
531	0.187
531	0.187
532	0.187
532	0.186
533	0.187
533	0.187
533	0.187
534	0.187
534	0.186
535	0.185
535	0.185
536	0.185
536	0.184
537	0.184
537	0.183
538	0.183
538	0.181
538	0.18
539	0.179
539	0.179
540	0.178
540	0.177
541	0.175
541	0.173
542	0.171
542	0.17
542	0.168
543	0.167
543	0.166
544	0.165
544	0.163
545	0.162
545	0.162
546	0.161
546	0.161
547	0.16
547	0.158
547	0.155
548	0.152
548	0.15
549	0.148
549	0.146
550	0.144
550	0.142
551	0.14
551	0.137
551	0.135
552	0.134
552	0.133
553	0.133
553	0.133
554	0.132
554	0.131
555	0.129
555	0.126
556	0.123
556	0.12
556	0.117
557	0.114
557	0.112
558	0.11
558	0.108
559	0.106
559	0.105
560	0.105
560	0.105
560	0.105
561	0.105
561	0.106
562	0.106
562	0.105
563	0.103
563	0.101
564	0.098
564	0.095
564	0.093
565	0.091
565	0.09
566	0.089
566	0.088
567	0.088
567	0.089
568	0.091
568	0.092
568	0.094
569	0.097
569	0.1
570	0.101
570	0.102
571	0.103
571	0.104
572	0.105
572	0.105
573	0.105
573	0.105
573	0.104
574	0.103
574	0.102
575	0.102
575	0.103
576	0.104
576	0.103
577	0.101
577	0.1
577	0.099
578	0.098
578	0.098
579	0.1
579	0.102
580	0.102
580	0.099
581	0.096
581	0.094
581	0.094
582	0.093
582	0.094
583	0.095
583	0.094
584	0.09
584	0.086
585	0.084
585	0.083
585	0.083
586	0.082
586	0.082
587	0.08
587	0.078
588	0.075
588	0.073
589	0.071
589	0.071
590	0.07
590	0.069
590	0.07
591	0.071
591	0.071
592	0.071
592	0.07
593	0.07
593	0.07
594	0.069
594	0.068
594	0.067
595	0.066
595	0.064
596	0.062
596	0.063
597	0.065
597	0.067
598	0.068
598	0.07
598	0.071
599	0.071
599	0.071
600	0.07
600	0.069
601	0.068
601	0.067
602	0.065
602	0.063
602	0.062
603	0.06
603	0.061
604	0.061
604	0.062
605	0.063
605	0.065
606	0.066
606	0.065
606	0.064
607	0.063
607	0.063
608	0.062
608	0.06
609	0.059
609	0.058
610	0.056
610	0.054
610	0.053
611	0.053
611	0.054
612	0.055
612	0.057
613	0.058
613	0.06
614	0.06
614	0.06
614	0.06
615	0.059
615	0.059
616	0.058
616	0.057
617	0.057
617	0.055
618	0.053
618	0.053
618	0.052
619	0.052
619	0.053
620	0.055
620	0.057
621	0.057
621	0.058
622	0.059
622	0.06
622	0.06
623	0.06
623	0.061
624	0.062
624	0.062
625	0.062
625	0.062
626	0.062
626	0.062
626	0.062
627	0.062
627	0.063
628	0.063
628	0.063
629	0.063
629	0.063
630	0.062
630	0.061
630	0.061
631	0.061
631	0.061
632	0.061
632	0.061
633	0.061
633	0.062
634	0.063
634	0.064
634	0.067
635	0.068
635	0.07
636	0.071
636	0.073
637	0.074
637	0.075
638	0.077
638	0.078
638	0.08
639	0.08
639	0.081
640	0.082
640	0.084
641	0.085
641	0.087
642	0.089
642	0.091
642	0.093
643	0.095
643	0.096
644	0.098
644	0.1
645	0.102
645	0.104
646	0.106
646	0.109
646	0.113
647	0.117
647	0.12
648	0.123
648	0.126
649	0.129
649	0.132
650	0.135
650	0.139
650	0.141
651	0.144
651	0.146
652	0.147
652	0.149
653	0.153
653	0.162
653	0.174
654	0.144
654	0.121
655	0.125
655	0.127
656	0.129
656	0.131
657	0.133
657	0.134
657	0.135
658	0.131
658	0.123
659	0.15
659	0.186
660	0.189
660	0.19
661	0.192
661	0.194
661	0.196
662	0.199
662	0.203
663	0.207
663	0.21
664	0.214
664	0.216
665	0.219
665	0.222
665	0.225
666	0.228
666	0.23
667	0.232
667	0.235
668	0.237
668	0.24
669	0.243
669	0.246
669	0.251
670	0.256
670	0.259
671	0.262
671	0.264
672	0.266
672	0.268
672	0.269
673	0.27
673	0.271
674	0.272
674	0.273
675	0.273
675	0.273
676	0.275
676	0.277
676	0.279
677	0.282
677	0.284
678	0.287
678	0.288
679	0.29
679	0.291
680	0.294
680	0.295
680	0.296
681	0.296
681	0.298
682	0.299
682	0.3
683	0.302
683	0.305
684	0.308
684	0.309
684	0.31
685	0.31
685	0.312
686	0.313
686	0.314
687	0.314
687	0.313
687	0.313
688	0.311
688	0.31
689	0.31
689	0.311
690	0.311
690	0.311
691	0.311
691	0.311
691	0.311
692	0.311
692	0.31
693	0.311
693	0.311
694	0.311
694	0.309
695	0.31
695	0.312
695	0.312
696	0.312
696	0.311
697	0.31
697	0.309
698	0.308
698	0.305
698	0.303
699	0.302
699	0.299
700	0.295
700	0.292
701	0.291
701	0.289
702	0.287
702	0.286
702	0.284
703	0.283
703	0.281
704	0.279
704	0.278
705	0.277
705	0.275
705	0.273
706	0.272
706	0.271
707	0.269
707	0.266
708	0.264
708	0.263
709	0.261
709	0.26
709	0.256
710	0.253
710	0.25
711	0.249
711	0.247
712	0.245
712	0.244
713	0.242
713	0.24
713	0.238
714	0.235
714	0.232
715	0.23
715	0.227
716	0.224
716	0.221
716	0.218
717	0.215
717	0.212
718	0.209
718	0.206
719	0.204
719	0.203
720	0.201
720	0.199
720	0.197
721	0.194
721	0.192
722	0.189
722	0.186
723	0.184
723	0.182
723	0.179
724	0.176
724	0.173
725	0.17
725	0.167
726	0.164
726	0.162
727	0.16
727	0.158
727	0.156
728	0.154
728	0.152
729	0.152
729	0.151
730	0.15
730	0.149
730	0.148
731	0.147
731	0.146
732	0.146
732	0.145
733	0.143
733	0.141
734	0.139
734	0.136
734	0.134
735	0.133
735	0.13
736	0.127
736	0.125
737	0.123
737	0.121
737	0.119
738	0.116
738	0.113
739	0.11
739	0.108
740	0.105
740	0.104
741	0.102
741	0.1
741	0.097
742	0.092
742	0.088
743	0.086
743	0.083
744	0.081
744	0.079
744	0.077
745	0.074
745	0.071
746	0.069
746	0.067
747	0.066
747	0.065
748	0.065
748	0.064
748	0.063
749	0.062
749	0.061
750	0.06
750	0.059
751	0.058
751	0.058
751	0.058
752	0.057
752	0.055
753	0.054
753	0.053
754	0.053
754	0.052
754	0.052
755	0.052
755	0.052
756	0.052
756	0.049
757	0.048
757	0.047
758	0.046
758	0.044
758	0.043
759	0.041
759	0.038
760	0.034
760	0.031
761	0.028
761	0.026
761	0.024
762	0.022
762	0.021
763	0.02
763	0.017
764	0.014
764	0.012
764	0.009
765	0.007
765	0.005
766	0.004
766	0.004
767	0.003
767	0
768	-0.003
768	-0.005
768	-0.006
769	-0.007
769	-0.007
770	-0.008
770	-0.01
771	-0.012
771	-0.015
771	-0.018
772	-0.02
772	-0.022
773	-0.025
773	-0.028
774	-0.031
774	-0.035
775	-0.038
775	-0.042
775	-0.046
776	-0.05
776	-0.054
777	-0.059
777	-0.063
778	-0.068
778	-0.073
778	-0.077
779	-0.078
779	-0.075
780	-0.075
780	-0.076
781	-0.075
781	-0.075
781	-0.074
782	-0.073
782	-0.073
783	-0.073
783	-0.071
784	-0.071
784	-0.074
784	-0.076
785	-0.078
785	-0.08
786	-0.08
786	-0.078
787	-0.074
787	-0.07
788	-0.07
788	-0.07
788	-0.071
789	-0.073
789	-0.073
790	-0.07
790	-0.069
791	-0.069
791	-0.071
791	-0.073
792	-0.068
792	-0.058
793	-0.053
793	-0.049
794	-0.047
794	-0.049
794	-0.053
795	-0.055
795	-0.054
796	-0.054
796	-0.057
797	-0.065
797	-0.074
797	-0.08
798	-0.085
798	-0.088
799	-0.088
799	-0.088
800	-0.088
800	-0.09
801	-0.093
801	-0.095
801	-0.095
802	-0.097
802	-0.099
803	-0.1
803	-0.1
804	-0.099
804	-0.094
804	-0.088
805	-0.085
805	-0.083
806	-0.081
806	-0.079
807	-0.078
807	-0.077
807	-0.077
808	-0.076
808	-0.077
809	-0.081
809	-0.086
810	-0.089
810	-0.091
810	-0.093
811	-0.096
811	-0.096
812	-0.092
812	-0.089
813	-0.089
813	-0.09
813	-0.091
814	-0.092
814	-0.092
815	-0.089
815	-0.087
816	-0.085
816	-0.085
817	-0.09
817	-0.093
817	-0.094
818	-0.093
818	-0.09
819	-0.085
819	-0.082
820	-0.083
820	-0.085
820	-0.087
821	-0.086
821	-0.085
822	-0.084
822	-0.084
823	-0.083
823	-0.085
823	-0.088
824	-0.089
824	-0.087
825	-0.083
825	-0.078
826	-0.073
826	-0.07
826	-0.066
827	-0.061
827	-0.056
828	-0.051
828	-0.047
829	-0.042
829	-0.038
829	-0.035
830	-0.032
830	-0.029
831	-0.025
831	-0.021
832	-0.019
832	-0.016
832	-0.013
833	-0.012
833	-0.01
834	-0.008
834	-0.007
835	-0.006
835	-0.006
835	-0.005
836	-0.005
836	-0.004
837	-0.003
837	-0.002
838	-0.001
838	-0.001
839	0
839	0.001
839	0.002
840	0.002
840	0.003
841	0.004
841	0.004
842	0.005
842	0.005
842	0.006
843	0.006
843	0.006
844	0.007
844	0.007
845	0.008
845	0.009
845	0.01
846	0.011
846	0.012
847	0.013
847	0.015
848	0.016
848	0.017
848	0.018
849	0.02
849	0.021
850	0.021
850	0.021
851	0.022
851	0.023
851	0.023
852	0.023
852	0.023
853	0.024
853	0.024
854	0.025
854	0.025
854	0.026
855	0.026
855	0.026
856	0.026
856	0.027
857	0.027
857	0.027
857	0.027
858	0.027
858	0.027
859	0.027
859	0.027
860	0.027
860	0.028
860	0.028
861	0.028
861	0.027
862	0.027
862	0.026
863	0.026
863	0.026
863	0.026
864	0.025
864	0.025
865	0.025
865	0.025
866	0.025
866	0.025
866	0.026
867	0.026
867	0.027
868	0.028
868	0.029
869	0.03
869	0.031
869	0.031
870	0.031
870	0.031
871	0.031
871	0.031
872	0.03
872	0.029
872	0.029
873	0.028
873	0.028
874	0.027
874	0.028
875	0.028
875	0.029
875	0.029
876	0.029
876	0.029
877	0.029
877	0.03
878	0.029
878	0.029
878	0.029
879	0.029
879	0.028
880	0.027
880	0.027
881	0.027
881	0.026
881	0.027
882	0.027
882	0.027
883	0.027
883	0.028
884	0.029
884	0.03
884	0.03
885	0.031
885	0.032
886	0.033
886	0.033
887	0.034
887	0.034
887	0.034
888	0.034
888	0.034
889	0.034
889	0.034
890	0.035
890	0.035
890	0.035
891	0.036
891	0.036
892	0.037
892	0.037
893	0.038
893	0.039
893	0.04
894	0.04
894	0.041
895	0.041
895	0.042
895	0.042
896	0.043
896	0.043
897	0.044
897	0.045
898	0.046
898	0.046
898	0.047
899	0.047
899	0.047
900	0.047
900	0.047
901	0.047
901	0.047
901	0.046
902	0.046
902	0.046
903	0.045
903	0.044
904	0.044
904	0.043
904	0.042
905	0.041
905	0.041
906	0.04
906	0.04
907	0.039
907	0.038
907	0.038
908	0.037
908	0.037
909	0.037
909	0.037
910	0.037
910	0.038
910	0.038
911	0.039
911	0.04
912	0.041
912	0.042
913	0.042
913	0.043
913	0.044
914	0.044
914	0.044
915	0.043
915	0.043
916	0.042
916	0.041
916	0.04
917	0.04
917	0.039
918	0.038
918	0.038
918	0.038
919	0.038
919	0.038
920	0.038
920	0.038
921	0.038
921	0.037
921	0.037
922	0.036
922	0.036
923	0.035
923	0.034
924	0.033
924	0.032
924	0.031
925	0.03
925	0.029
926	0.029
926	0.028
927	0.028
927	0.028
927	0.028
928	0.028
928	0.029
929	0.03
929	0.031
930	0.033
930	0.035
930	0.037
931	0.04
931	0.042
932	0.044
932	0.046
933	0.048
933	0.05
933	0.051
934	0.052
934	0.053
935	0.053
935	0.053
935	0.053
936	0.053
936	0.053
937	0.053
937	0.053
938	0.053
938	0.054
938	0.054
939	0.055
939	0.056
940	0.057
940	0.057
941	0.058
941	0.058
941	0.058
942	0.057
942	0.057
943	0.056
943	0.056
944	0.055
944	0.055
944	0.054
945	0.054
945	0.054
946	0.054
946	0.053
946	0.052
947	0.051
947	0.051
948	0.05
948	0.049
949	0.048
949	0.047
949	0.046
950	0.046
950	0.045
951	0.045
951	0.044
952	0.043
952	0.043
952	0.043
953	0.043
953	0.042
954	0.042
954	0.041
955	0.04
955	0.04
955	0.039
956	0.039
956	0.039
957	0.039
957	0.039
957	0.038
958	0.038
958	0.038
959	0.038
959	0.037
960	0.037
960	0.036
960	0.036
961	0.035
961	0.035
962	0.034
962	0.034
963	0.034
963	0.034
963	0.034
964	0.034
964	0.035
965	0.035
965	0.036
966	0.037
966	0.039
966	0.04
967	0.041
967	0.041
968	0.042
968	0.042
968	0.042
969	0.042
969	0.042
970	0.042
970	0.042
971	0.042
971	0.041
971	0.041
972	0.041
972	0.042
973	0.042
973	0.042
974	0.043
974	0.043
974	0.044
975	0.045
975	0.046
976	0.047
976	0.047
976	0.048
977	0.048
977	0.049
978	0.049
978	0.049
979	0.05
979	0.05
979	0.05
980	0.051
980	0.051
981	0.051
981	0.052
982	0.052
982	0.053
982	0.054
983	0.055
983	0.056
984	0.056
984	0.056
984	0.057
985	0.057
985	0.057
986	0.057
986	0.056
987	0.055
987	0.055
987	0.054
988	0.053
988	0.053
989	0.052
989	0.051
990	0.05
990	0.05
990	0.05
991	0.05
991	0.05
992	0.05
992	0.05
992	0.05
993	0.05
993	0.05
994	0.049
994	0.049
995	0.049
995	0.048
995	0.048
996	0.047
996	0.046
997	0.046
997	0.046
997	0.046
998	0.047
998	0.047
999	0.048
999	0.049
1000	0.049
1000	0.05
1000	0.051
1001	0.052
1001	0.052
1002	0.053
1002	0.053
1003	0.053
1003	0.053
1003	0.053
1004	0.052
1004	0.051
1005	0.051
1005	0.05
1005	0.049
1006	0.048
1006	0.048
1007	0.047
1007	0.047
1008	0.047
1008	0.047
1008	0.047
1009	0.048
1009	0.048
1010	0.049
1010	0.05
1010	0.05
1011	0.051
1011	0.051
1012	0.051
1012	0.052
1013	0.052
1013	0.052
1013	0.052
1014	0.051
1014	0.05
1015	0.05
1015	0.049
1016	0.048
1016	0.048
1016	0.047
1017	0.045
1017	0.044
1018	0.043
1018	0.043
1018	0.043
1019	0.043
1019	0.042
1020	0.042
1020	0.042
1021	0.041
1021	0.041
1021	0.041
1022	0.042
1022	0.042
1023	0.042
1023	0.041
1023	0.041
1024	0.041
1024	0.04
1025	0.039
1025	0.039
1026	0.039
1026	0.038
1026	0.038
1027	0.037
1027	0.037
1028	0.037
1028	0.037
1028	0.037
1029	0.037
1029	0.038
1030	0.038
1030	0.038
1031	0.038
1031	0.039
1031	0.039
1032	0.04
1032	0.04
1033	0.041
1033	0.041
1033	0.041
1034	0.041
1034	0.041
1035	0.041
1035	0.041
1036	0.041
1036	0.042
1036	0.042
1037	0.043
1037	0.044
1038	0.044
1038	0.045
1039	0.046
1039	0.047
1039	0.048
1040	0.048
1040	0.049
1041	0.049
1041	0.049
1041	0.049
1042	0.048
1042	0.048
1043	0.048
1043	0.047
1044	0.047
1044	0.046
1044	0.046
1045	0.046
1045	0.046
1046	0.046
1046	0.046
1046	0.047
1047	0.047
1047	0.048
1048	0.048
1048	0.048
1049	0.048
1049	0.048
1049	0.048
1050	0.047
1050	0.047
1051	0.047
1051	0.047
1051	0.047
1052	0.048
1052	0.048
1053	0.048
1053	0.049
1053	0.049
1054	0.05
1054	0.052
1055	0.053
1055	0.053
1056	0.054
1056	0.054
1056	0.054
1057	0.055
1057	0.056
1058	0.057
1058	0.058
1058	0.059
1059	0.061
1059	0.061
1060	0.062
1060	0.063
1061	0.064
1061	0.065
1061	0.067
1062	0.067
1062	0.067
1063	0.068
1063	0.068
1063	0.068
1064	0.07
1064	0.072
1065	0.073
1065	0.074
1066	0.076
1066	0.078
1066	0.08
1067	0.082
1067	0.084
1068	0.086
1068	0.087
1068	0.088
1069	0.089
1069	0.09
1070	0.092
1070	0.093
1071	0.095
1071	0.097
1071	0.098
1072	0.1
1072	0.102
1073	0.104
1073	0.106
1073	0.108
1074	0.111
1074	0.112
1075	0.113
1075	0.114
1076	0.115
1076	0.118
1076	0.119
1077	0.12
1077	0.123
1078	0.125
1078	0.128
1078	0.131
1079	0.134
1079	0.138
1080	0.141
1080	0.144
1080	0.147
1081	0.149
1081	0.153
1082	0.155
1082	0.158
1083	0.161
1083	0.164
1083	0.168
1084	0.171
1084	0.176
1085	0.18
1085	0.185
1085	0.19
1086	0.195
1086	0.199
1087	0.205
1087	0.211
1088	0.216
1088	0.221
1088	0.229
1089	0.236
1089	0.244
1090	0.252
1090	0.263
1090	0.274
1091	0.286
1091	0.3
1092	0.314
1092	0.33
1092	0.346
1093	0.361
1093	0.381
1094	0.401
1094	0.422
1095	0.444
1095	0.47
1095	0.503
1096	0.536
1096	0.575
1097	0.626
1097	0.677
1097	0.745
1098	0.824
1098	0.927
1099	1.077
1099	1.321
1100	2.086
1100	-0
1100	-0
1101	-0
1101	-0
1102	-0
1102	-0
1102	-0
1103	-0
1103	-0
1104	-0
1104	-0
1104	-0
1105	-0
1105	-0
1106	-0
1106	-0
1107	-0
1107	-0
1107	-0
1108	-0
1108	-0
1109	-0
1109	-0
1109	-0
1110	-0
1110	-0
1111	-0
1111	-0
