Data from 15c-stair-power-variation_Absorbance__555__04165.txt Node

Date: Tue Jan 16 16:00:31 CET 2024
User: Marek
Spectrometer: MAYP115816
Trigger mode: 0
Integration Time (sec): 2.000000E-1
Scans to average: 10
Electric dark correction enabled: true
Nonlinearity correction enabled: true
Boxcar width: 5
XAxis mode: Wavelengths
Number of Pixels in Spectrum: 2068
>>>>>Begin Spectral Data<<<<<
199	-2.287
199	-2.098
200	-1.963
200	-1.842
201	-1.768
201	-1.716
202	-1.639
202	-1.577
203	-1.527
203	-1.478
204	-1.451
204	-1.425
205	-1.406
205	-1.394
205	-1.391
206	-1.386
206	-1.383
207	-1.38
207	-1.379
208	-1.375
208	-1.374
209	-1.37
209	-1.367
210	-1.366
210	-1.364
211	-1.362
211	-1.361
212	-1.36
212	-1.36
213	-1.358
213	-1.357
213	-1.357
214	-1.355
214	-1.354
215	-1.353
215	-1.352
216	-1.349
216	-1.348
217	-1.345
217	-1.343
218	-1.339
218	-1.335
219	-1.33
219	-1.329
220	-1.327
220	-1.325
221	-1.321
221	-1.32
221	-1.315
222	-1.31
222	-1.305
223	-1.3
223	-1.295
224	-1.289
224	-1.281
225	-1.272
225	-1.262
226	-1.253
226	-1.244
227	-1.23
227	-1.217
228	-1.201
228	-1.184
229	-1.163
229	-1.139
229	-1.114
230	-1.084
230	-1.052
231	-1.016
231	-0.976
232	-0.936
232	-0.893
233	-0.846
233	-0.798
234	-0.749
234	-0.699
235	-0.649
235	-0.599
236	-0.549
236	-0.499
236	-0.451
237	-0.404
237	-0.358
238	-0.315
238	-0.273
239	-0.233
239	-0.196
240	-0.16
240	-0.127
241	-0.095
241	-0.066
242	-0.039
242	-0.013
243	0.011
243	0.033
243	0.053
244	0.072
244	0.09
245	0.106
245	0.121
246	0.135
246	0.149
247	0.161
247	0.172
248	0.183
248	0.193
249	0.202
249	0.211
250	0.219
250	0.227
250	0.234
251	0.241
251	0.247
252	0.253
252	0.259
253	0.264
253	0.268
254	0.273
254	0.278
255	0.281
255	0.285
256	0.289
256	0.292
257	0.295
257	0.297
258	0.3
258	0.302
258	0.304
259	0.306
259	0.307
260	0.309
260	0.31
261	0.311
261	0.312
262	0.313
262	0.314
263	0.315
263	0.316
264	0.316
264	0.317
265	0.318
265	0.318
265	0.318
266	0.318
266	0.319
267	0.319
267	0.319
268	0.318
268	0.318
269	0.317
269	0.317
270	0.316
270	0.316
271	0.315
271	0.314
272	0.314
272	0.313
272	0.313
273	0.312
273	0.311
274	0.31
274	0.309
275	0.309
275	0.308
276	0.307
276	0.306
277	0.304
277	0.303
278	0.301
278	0.3
278	0.298
279	0.297
279	0.295
280	0.295
280	0.294
281	0.293
281	0.292
282	0.292
282	0.292
283	0.292
283	0.292
284	0.291
284	0.292
285	0.291
285	0.291
285	0.29
286	0.29
286	0.289
287	0.288
287	0.287
288	0.287
288	0.286
289	0.285
289	0.285
290	0.284
290	0.283
291	0.283
291	0.282
292	0.281
292	0.28
292	0.28
293	0.279
293	0.278
294	0.278
294	0.277
295	0.277
295	0.276
296	0.275
296	0.275
297	0.274
297	0.274
298	0.273
298	0.273
298	0.272
299	0.272
299	0.271
300	0.27
300	0.27
301	0.269
301	0.269
302	0.268
302	0.267
303	0.267
303	0.266
304	0.266
304	0.265
305	0.264
305	0.263
305	0.263
306	0.262
306	0.261
307	0.26
307	0.26
308	0.259
308	0.258
309	0.257
309	0.256
310	0.256
310	0.255
311	0.254
311	0.253
311	0.253
312	0.252
312	0.251
313	0.25
313	0.249
314	0.248
314	0.247
315	0.246
315	0.245
316	0.244
316	0.243
317	0.242
317	0.241
318	0.241
318	0.24
318	0.239
319	0.238
319	0.237
320	0.236
320	0.235
321	0.234
321	0.233
322	0.232
322	0.232
323	0.231
323	0.23
324	0.229
324	0.228
324	0.227
325	0.226
325	0.226
326	0.225
326	0.224
327	0.223
327	0.222
328	0.221
328	0.221
329	0.22
329	0.219
330	0.218
330	0.217
330	0.216
331	0.215
331	0.214
332	0.213
332	0.212
333	0.212
333	0.211
334	0.21
334	0.209
335	0.209
335	0.208
336	0.207
336	0.206
336	0.205
337	0.205
337	0.204
338	0.203
338	0.202
339	0.202
339	0.201
340	0.2
340	0.199
341	0.199
341	0.198
342	0.197
342	0.197
342	0.196
343	0.195
343	0.195
344	0.194
344	0.193
345	0.192
345	0.191
346	0.191
346	0.19
347	0.189
347	0.188
348	0.187
348	0.187
348	0.186
349	0.185
349	0.184
350	0.183
350	0.182
351	0.181
351	0.18
352	0.179
352	0.178
353	0.177
353	0.175
354	0.174
354	0.173
354	0.172
355	0.17
355	0.169
356	0.168
356	0.167
357	0.166
357	0.166
358	0.165
358	0.166
359	0.167
359	0.168
360	0.169
360	0.17
360	0.17
361	0.171
361	0.172
362	0.172
362	0.173
363	0.173
363	0.172
364	0.172
364	0.171
365	0.171
365	0.17
366	0.17
366	0.169
366	0.169
367	0.169
367	0.168
368	0.168
368	0.167
369	0.167
369	0.166
370	0.166
370	0.165
371	0.165
371	0.164
372	0.164
372	0.163
372	0.163
373	0.163
373	0.162
374	0.162
374	0.162
375	0.162
375	0.162
376	0.162
376	0.162
377	0.162
377	0.163
378	0.163
378	0.163
378	0.164
379	0.164
379	0.164
380	0.164
380	0.164
381	0.164
381	0.164
382	0.163
382	0.163
383	0.162
383	0.162
383	0.161
384	0.161
384	0.16
385	0.16
385	0.16
386	0.16
386	0.16
387	0.16
387	0.16
388	0.159
388	0.159
389	0.159
389	0.159
389	0.159
390	0.159
390	0.159
391	0.159
391	0.16
392	0.16
392	0.16
393	0.16
393	0.16
394	0.16
394	0.16
394	0.16
395	0.16
395	0.159
396	0.159
396	0.159
397	0.159
397	0.16
398	0.16
398	0.16
399	0.16
399	0.159
400	0.159
400	0.159
400	0.158
401	0.157
401	0.156
402	0.154
402	0.153
403	0.153
403	0.152
404	0.152
404	0.152
405	0.152
405	0.151
405	0.151
406	0.151
406	0.151
407	0.151
407	0.151
408	0.15
408	0.149
409	0.149
409	0.148
410	0.148
410	0.148
411	0.148
411	0.148
411	0.147
412	0.147
412	0.146
413	0.146
413	0.146
414	0.146
414	0.145
415	0.145
415	0.144
416	0.144
416	0.143
416	0.143
417	0.143
417	0.142
418	0.142
418	0.143
419	0.143
419	0.144
420	0.145
420	0.146
421	0.146
421	0.147
421	0.147
422	0.147
422	0.147
423	0.147
423	0.147
424	0.146
424	0.145
425	0.144
425	0.143
426	0.142
426	0.141
427	0.141
427	0.141
427	0.142
428	0.143
428	0.144
429	0.145
429	0.145
430	0.146
430	0.145
431	0.145
431	0.145
432	0.144
432	0.143
432	0.142
433	0.14
433	0.139
434	0.138
434	0.138
435	0.138
435	0.138
436	0.138
436	0.138
437	0.138
437	0.138
437	0.138
438	0.138
438	0.137
439	0.137
439	0.137
440	0.136
440	0.136
441	0.136
441	0.137
442	0.137
442	0.138
442	0.138
443	0.139
443	0.14
444	0.14
444	0.14
445	0.141
445	0.141
446	0.141
446	0.141
447	0.14
447	0.14
447	0.14
448	0.139
448	0.139
449	0.138
449	0.138
450	0.137
450	0.137
451	0.136
451	0.136
452	0.135
452	0.134
452	0.133
453	0.133
453	0.132
454	0.131
454	0.13
455	0.129
455	0.129
456	0.129
456	0.128
457	0.128
457	0.128
458	0.127
458	0.128
458	0.128
459	0.128
459	0.129
460	0.128
460	0.127
461	0.127
461	0.126
462	0.126
462	0.126
463	0.127
463	0.127
463	0.128
464	0.129
464	0.129
465	0.129
465	0.129
466	0.129
466	0.129
467	0.129
467	0.129
467	0.127
468	0.125
468	0.123
469	0.121
469	0.119
470	0.118
470	0.117
471	0.117
471	0.116
472	0.116
472	0.116
472	0.117
473	0.118
473	0.119
474	0.12
474	0.121
475	0.122
475	0.123
476	0.123
476	0.124
477	0.124
477	0.124
477	0.124
478	0.124
478	0.125
479	0.125
479	0.126
480	0.127
480	0.128
481	0.129
481	0.129
482	0.13
482	0.132
482	0.133
483	0.135
483	0.139
484	0.143
484	0.145
485	0.147
485	0.149
486	0.15
486	0.151
487	0.152
487	0.152
487	0.152
488	0.151
488	0.149
489	0.146
489	0.144
490	0.142
490	0.141
491	0.14
491	0.14
492	0.14
492	0.14
492	0.141
493	0.142
493	0.143
494	0.145
494	0.147
495	0.149
495	0.15
496	0.151
496	0.152
496	0.153
497	0.154
497	0.154
498	0.154
498	0.155
499	0.154
499	0.154
500	0.154
500	0.155
501	0.157
501	0.158
501	0.16
502	0.162
502	0.163
503	0.165
503	0.166
504	0.167
504	0.167
505	0.168
505	0.168
506	0.168
506	0.168
506	0.169
507	0.168
507	0.168
508	0.168
508	0.168
509	0.169
509	0.17
510	0.17
510	0.17
511	0.169
511	0.169
511	0.169
512	0.169
512	0.17
513	0.169
513	0.167
514	0.165
514	0.164
515	0.163
515	0.162
515	0.161
516	0.161
516	0.161
517	0.161
517	0.161
518	0.16
518	0.159
519	0.157
519	0.155
520	0.152
520	0.148
520	0.145
521	0.141
521	0.138
522	0.135
522	0.132
523	0.132
523	0.132
524	0.135
524	0.138
524	0.141
525	0.145
525	0.15
526	0.153
526	0.157
527	0.161
527	0.164
528	0.166
528	0.168
529	0.169
529	0.17
529	0.17
530	0.17
530	0.17
531	0.171
531	0.172
532	0.171
532	0.171
533	0.171
533	0.172
533	0.172
534	0.172
534	0.171
535	0.17
535	0.17
536	0.17
536	0.169
537	0.169
537	0.169
538	0.168
538	0.167
538	0.166
539	0.165
539	0.164
540	0.164
540	0.162
541	0.161
541	0.159
542	0.157
542	0.156
542	0.154
543	0.153
543	0.152
544	0.151
544	0.15
545	0.149
545	0.148
546	0.148
546	0.148
547	0.147
547	0.145
547	0.142
548	0.14
548	0.137
549	0.135
549	0.133
550	0.132
550	0.13
551	0.127
551	0.125
551	0.123
552	0.122
552	0.121
553	0.121
553	0.121
554	0.121
554	0.12
555	0.118
555	0.115
556	0.112
556	0.109
556	0.106
557	0.103
557	0.101
558	0.099
558	0.097
559	0.095
559	0.095
560	0.095
560	0.094
560	0.095
561	0.095
561	0.096
562	0.096
562	0.095
563	0.094
563	0.092
564	0.089
564	0.086
564	0.084
565	0.082
565	0.081
566	0.079
566	0.079
567	0.079
567	0.08
568	0.082
568	0.084
568	0.086
569	0.09
569	0.093
570	0.094
570	0.095
571	0.097
571	0.098
572	0.099
572	0.1
573	0.1
573	0.1
573	0.099
574	0.098
574	0.098
575	0.097
575	0.099
576	0.1
576	0.099
577	0.098
577	0.096
577	0.095
578	0.095
578	0.095
579	0.096
579	0.099
580	0.099
580	0.096
581	0.093
581	0.091
581	0.09
582	0.09
582	0.09
583	0.091
583	0.09
584	0.087
584	0.082
585	0.08
585	0.079
585	0.079
586	0.079
586	0.079
587	0.077
587	0.075
588	0.072
588	0.069
589	0.068
589	0.067
590	0.066
590	0.065
590	0.066
591	0.068
591	0.068
592	0.068
592	0.067
593	0.066
593	0.066
594	0.066
594	0.065
594	0.064
595	0.063
595	0.061
596	0.059
596	0.059
597	0.062
597	0.064
598	0.065
598	0.066
598	0.068
599	0.068
599	0.068
600	0.067
600	0.066
601	0.065
601	0.064
602	0.062
602	0.06
602	0.058
603	0.057
603	0.058
604	0.058
604	0.059
605	0.061
605	0.063
606	0.063
606	0.062
606	0.062
607	0.061
607	0.06
608	0.059
608	0.057
609	0.055
609	0.054
610	0.052
610	0.05
610	0.049
611	0.049
611	0.05
612	0.051
612	0.053
613	0.055
613	0.056
614	0.057
614	0.056
614	0.056
615	0.056
615	0.055
616	0.055
616	0.054
617	0.053
617	0.052
618	0.05
618	0.049
618	0.048
619	0.048
619	0.049
620	0.051
620	0.053
621	0.053
621	0.054
622	0.055
622	0.056
622	0.056
623	0.056
623	0.058
624	0.059
624	0.059
625	0.058
625	0.058
626	0.058
626	0.058
626	0.058
627	0.058
627	0.059
628	0.059
628	0.059
629	0.059
629	0.059
630	0.058
630	0.058
630	0.057
631	0.058
631	0.058
632	0.057
632	0.057
633	0.057
633	0.058
634	0.059
634	0.061
634	0.063
635	0.065
635	0.066
636	0.068
636	0.069
637	0.07
637	0.072
638	0.073
638	0.074
638	0.076
639	0.076
639	0.076
640	0.077
640	0.079
641	0.081
641	0.083
642	0.085
642	0.087
642	0.088
643	0.09
643	0.091
644	0.093
644	0.095
645	0.097
645	0.099
646	0.102
646	0.105
646	0.109
647	0.113
647	0.116
648	0.119
648	0.122
649	0.126
649	0.129
650	0.132
650	0.135
650	0.138
651	0.14
651	0.142
652	0.144
652	0.146
653	0.149
653	0.159
653	0.171
654	0.143
654	0.121
655	0.125
655	0.127
656	0.129
656	0.131
657	0.132
657	0.134
657	0.135
658	0.131
658	0.121
659	0.148
659	0.183
660	0.185
660	0.186
661	0.188
661	0.19
661	0.192
662	0.195
662	0.199
663	0.203
663	0.206
664	0.21
664	0.212
665	0.215
665	0.218
665	0.221
666	0.224
666	0.226
667	0.228
667	0.23
668	0.233
668	0.235
669	0.238
669	0.241
669	0.246
670	0.251
670	0.255
671	0.257
671	0.26
672	0.261
672	0.263
672	0.264
673	0.265
673	0.266
674	0.267
674	0.268
675	0.267
675	0.268
676	0.269
676	0.272
676	0.274
677	0.276
677	0.278
678	0.281
678	0.282
679	0.283
679	0.285
680	0.287
680	0.288
680	0.289
681	0.289
681	0.29
682	0.291
682	0.292
683	0.294
683	0.297
684	0.3
684	0.302
684	0.302
685	0.303
685	0.304
686	0.306
686	0.306
687	0.306
687	0.306
687	0.305
688	0.304
688	0.302
689	0.302
689	0.303
690	0.303
690	0.303
691	0.302
691	0.303
691	0.303
692	0.303
692	0.302
693	0.302
693	0.303
694	0.303
694	0.301
695	0.302
695	0.304
695	0.305
696	0.304
696	0.303
697	0.303
697	0.302
698	0.3
698	0.298
698	0.296
699	0.294
699	0.292
700	0.288
700	0.285
701	0.284
701	0.282
702	0.28
702	0.278
702	0.277
703	0.275
703	0.274
704	0.272
704	0.27
705	0.269
705	0.268
705	0.266
706	0.265
706	0.264
707	0.262
707	0.26
708	0.258
708	0.256
709	0.255
709	0.253
709	0.25
710	0.247
710	0.244
711	0.242
711	0.24
712	0.239
712	0.237
713	0.236
713	0.234
713	0.232
714	0.229
714	0.226
715	0.223
715	0.22
716	0.217
716	0.215
716	0.212
717	0.209
717	0.206
718	0.203
718	0.201
719	0.199
719	0.198
720	0.196
720	0.195
720	0.192
721	0.189
721	0.187
722	0.184
722	0.181
723	0.179
723	0.177
723	0.174
724	0.171
724	0.168
725	0.164
725	0.161
726	0.159
726	0.157
727	0.154
727	0.152
727	0.15
728	0.148
728	0.146
729	0.146
729	0.146
730	0.145
730	0.144
730	0.143
731	0.142
731	0.141
732	0.141
732	0.14
733	0.138
733	0.136
734	0.134
734	0.132
734	0.129
735	0.128
735	0.125
736	0.122
736	0.12
737	0.117
737	0.116
737	0.114
738	0.111
738	0.107
739	0.104
739	0.101
740	0.099
740	0.097
741	0.096
741	0.094
741	0.091
742	0.086
742	0.082
743	0.08
743	0.077
744	0.075
744	0.073
744	0.07
745	0.067
745	0.064
746	0.061
746	0.06
747	0.058
747	0.058
748	0.057
748	0.057
748	0.056
749	0.055
749	0.054
750	0.053
750	0.052
751	0.051
751	0.051
751	0.051
752	0.05
752	0.049
753	0.048
753	0.047
754	0.047
754	0.047
754	0.047
755	0.047
755	0.048
756	0.047
756	0.045
757	0.044
757	0.043
758	0.042
758	0.04
758	0.039
759	0.038
759	0.034
760	0.031
760	0.027
761	0.025
761	0.023
761	0.021
762	0.019
762	0.017
763	0.016
763	0.013
764	0.01
764	0.007
764	0.005
765	0.003
765	0
766	-0.001
766	-0.001
767	-0.002
767	-0.004
768	-0.008
768	-0.01
768	-0.011
769	-0.011
769	-0.011
770	-0.013
770	-0.014
771	-0.016
771	-0.019
771	-0.022
772	-0.024
772	-0.025
773	-0.027
773	-0.03
774	-0.034
774	-0.037
775	-0.04
775	-0.044
775	-0.048
776	-0.052
776	-0.056
777	-0.06
777	-0.064
778	-0.069
778	-0.074
778	-0.078
779	-0.078
779	-0.075
780	-0.074
780	-0.075
781	-0.074
781	-0.073
781	-0.072
782	-0.071
782	-0.072
783	-0.071
783	-0.069
784	-0.07
784	-0.073
784	-0.075
785	-0.076
785	-0.078
786	-0.079
786	-0.077
787	-0.073
787	-0.069
788	-0.068
788	-0.069
788	-0.07
789	-0.072
789	-0.071
790	-0.068
790	-0.067
791	-0.068
791	-0.069
791	-0.072
792	-0.066
792	-0.057
793	-0.051
793	-0.048
794	-0.046
794	-0.048
794	-0.051
795	-0.053
795	-0.053
796	-0.053
796	-0.055
797	-0.063
797	-0.072
797	-0.078
798	-0.083
798	-0.086
799	-0.087
799	-0.086
800	-0.087
800	-0.089
801	-0.092
801	-0.093
801	-0.094
802	-0.096
802	-0.097
803	-0.098
803	-0.099
804	-0.098
804	-0.093
804	-0.087
805	-0.083
805	-0.081
806	-0.079
806	-0.078
807	-0.077
807	-0.076
807	-0.075
808	-0.075
808	-0.075
809	-0.079
809	-0.084
810	-0.087
810	-0.089
810	-0.092
811	-0.094
811	-0.094
812	-0.091
812	-0.088
813	-0.088
813	-0.089
813	-0.09
814	-0.09
814	-0.09
815	-0.088
815	-0.085
816	-0.083
816	-0.084
817	-0.088
817	-0.092
817	-0.092
818	-0.092
818	-0.088
819	-0.083
819	-0.081
820	-0.082
820	-0.084
820	-0.085
821	-0.085
821	-0.084
822	-0.083
822	-0.082
823	-0.081
823	-0.083
823	-0.087
824	-0.087
824	-0.086
825	-0.082
825	-0.077
826	-0.072
826	-0.07
826	-0.067
827	-0.063
827	-0.059
828	-0.055
828	-0.051
829	-0.048
829	-0.043
829	-0.041
830	-0.039
830	-0.037
831	-0.031
831	-0.027
832	-0.024
832	-0.02
832	-0.017
833	-0.015
833	-0.012
834	-0.01
834	-0.009
835	-0.007
835	-0.007
835	-0.006
836	-0.005
836	-0.004
837	-0.003
837	-0.002
838	-0.001
838	-0
839	0
839	0.001
839	0.001
840	0.002
840	0.002
841	0.003
841	0.003
842	0.004
842	0.004
842	0.005
843	0.005
843	0.006
844	0.007
844	0.008
845	0.009
845	0.01
845	0.011
846	0.012
846	0.013
847	0.015
847	0.016
848	0.018
848	0.019
848	0.02
849	0.022
849	0.023
850	0.024
850	0.024
851	0.025
851	0.026
851	0.026
852	0.026
852	0.027
853	0.027
853	0.027
854	0.028
854	0.029
854	0.03
855	0.03
855	0.031
856	0.031
856	0.032
857	0.032
857	0.033
857	0.033
858	0.033
858	0.033
859	0.033
859	0.033
860	0.033
860	0.033
860	0.033
861	0.033
861	0.033
862	0.032
862	0.031
863	0.031
863	0.031
863	0.03
864	0.03
864	0.03
865	0.03
865	0.029
866	0.029
866	0.029
866	0.03
867	0.031
867	0.032
868	0.032
868	0.033
869	0.034
869	0.035
869	0.035
870	0.035
870	0.035
871	0.036
871	0.035
872	0.035
872	0.034
872	0.034
873	0.033
873	0.033
874	0.033
874	0.033
875	0.033
875	0.034
875	0.034
876	0.034
876	0.034
877	0.035
877	0.035
878	0.035
878	0.034
878	0.034
879	0.033
879	0.032
880	0.032
880	0.031
881	0.031
881	0.031
881	0.031
882	0.031
882	0.031
883	0.031
883	0.032
884	0.033
884	0.034
884	0.034
885	0.035
885	0.036
886	0.037
886	0.037
887	0.038
887	0.039
887	0.039
888	0.039
888	0.039
889	0.04
889	0.04
890	0.04
890	0.041
890	0.041
891	0.041
891	0.042
892	0.042
892	0.043
893	0.043
893	0.044
893	0.045
894	0.045
894	0.045
895	0.046
895	0.046
895	0.047
896	0.047
896	0.048
897	0.049
897	0.049
898	0.05
898	0.05
898	0.051
899	0.051
899	0.052
900	0.052
900	0.053
901	0.053
901	0.053
901	0.053
902	0.053
902	0.053
903	0.052
903	0.052
904	0.051
904	0.05
904	0.05
905	0.049
905	0.049
906	0.048
906	0.048
907	0.047
907	0.047
907	0.046
908	0.046
908	0.046
909	0.047
909	0.047
910	0.047
910	0.047
910	0.048
911	0.048
911	0.049
912	0.05
912	0.05
913	0.051
913	0.051
913	0.052
914	0.052
914	0.052
915	0.052
915	0.051
916	0.05
916	0.049
916	0.048
917	0.048
917	0.047
918	0.046
918	0.046
918	0.046
919	0.046
919	0.046
920	0.046
920	0.046
921	0.046
921	0.046
921	0.045
922	0.045
922	0.044
923	0.043
923	0.042
924	0.041
924	0.04
924	0.038
925	0.037
925	0.036
926	0.035
926	0.035
927	0.034
927	0.034
927	0.034
928	0.034
928	0.035
929	0.036
929	0.037
930	0.039
930	0.041
930	0.043
931	0.046
931	0.048
932	0.05
932	0.052
933	0.055
933	0.057
933	0.058
934	0.059
934	0.06
935	0.061
935	0.061
935	0.061
936	0.061
936	0.062
937	0.062
937	0.062
938	0.063
938	0.063
938	0.064
939	0.065
939	0.066
940	0.066
940	0.066
941	0.067
941	0.067
941	0.066
942	0.066
942	0.065
943	0.064
943	0.063
944	0.062
944	0.062
944	0.061
945	0.061
945	0.061
946	0.06
946	0.059
946	0.059
947	0.058
947	0.057
948	0.056
948	0.056
949	0.055
949	0.054
949	0.054
950	0.054
950	0.053
951	0.053
951	0.053
952	0.052
952	0.052
952	0.052
953	0.052
953	0.052
954	0.052
954	0.052
955	0.051
955	0.051
955	0.051
956	0.051
956	0.051
957	0.051
957	0.051
957	0.05
958	0.05
958	0.05
959	0.049
959	0.048
960	0.048
960	0.047
960	0.046
961	0.045
961	0.044
962	0.043
962	0.043
963	0.042
963	0.042
963	0.042
964	0.043
964	0.043
965	0.044
965	0.045
966	0.046
966	0.047
966	0.049
967	0.049
967	0.05
968	0.05
968	0.051
968	0.051
969	0.051
969	0.051
970	0.051
970	0.051
971	0.051
971	0.051
971	0.051
972	0.051
972	0.052
973	0.052
973	0.052
974	0.053
974	0.054
974	0.055
975	0.056
975	0.057
976	0.058
976	0.058
976	0.059
977	0.059
977	0.059
978	0.059
978	0.059
979	0.06
979	0.06
979	0.06
980	0.061
980	0.061
981	0.061
981	0.062
982	0.063
982	0.064
982	0.065
983	0.066
983	0.067
984	0.067
984	0.068
984	0.068
985	0.068
985	0.068
986	0.068
986	0.067
987	0.067
987	0.066
987	0.065
988	0.064
988	0.064
989	0.063
989	0.062
990	0.061
990	0.061
990	0.061
991	0.061
991	0.061
992	0.061
992	0.061
992	0.06
993	0.06
993	0.06
994	0.059
994	0.058
995	0.058
995	0.057
995	0.056
996	0.055
996	0.054
997	0.054
997	0.054
997	0.054
998	0.054
998	0.055
999	0.056
999	0.057
1000	0.058
1000	0.058
1000	0.059
1001	0.06
1001	0.061
1002	0.062
1002	0.062
1003	0.062
1003	0.062
1003	0.062
1004	0.062
1004	0.061
1005	0.061
1005	0.06
1005	0.06
1006	0.059
1006	0.058
1007	0.058
1007	0.058
1008	0.058
1008	0.058
1008	0.058
1009	0.058
1009	0.058
1010	0.058
1010	0.059
1010	0.059
1011	0.059
1011	0.059
1012	0.06
1012	0.06
1013	0.06
1013	0.059
1013	0.059
1014	0.058
1014	0.057
1015	0.056
1015	0.055
1016	0.054
1016	0.053
1016	0.052
1017	0.051
1017	0.05
1018	0.049
1018	0.049
1018	0.048
1019	0.048
1019	0.047
1020	0.047
1020	0.047
1021	0.046
1021	0.046
1021	0.046
1022	0.046
1022	0.046
1023	0.046
1023	0.046
1023	0.046
1024	0.045
1024	0.045
1025	0.044
1025	0.044
1026	0.043
1026	0.043
1026	0.042
1027	0.042
1027	0.042
1028	0.042
1028	0.042
1028	0.042
1029	0.042
1029	0.043
1030	0.043
1030	0.043
1031	0.044
1031	0.045
1031	0.045
1032	0.046
1032	0.046
1033	0.047
1033	0.047
1033	0.048
1034	0.048
1034	0.048
1035	0.048
1035	0.048
1036	0.048
1036	0.049
1036	0.049
1037	0.05
1037	0.051
1038	0.052
1038	0.053
1039	0.054
1039	0.055
1039	0.056
1040	0.057
1040	0.058
1041	0.058
1041	0.058
1041	0.058
1042	0.058
1042	0.057
1043	0.057
1043	0.057
1044	0.057
1044	0.056
1044	0.057
1045	0.057
1045	0.057
1046	0.057
1046	0.058
1046	0.059
1047	0.06
1047	0.061
1048	0.062
1048	0.062
1049	0.062
1049	0.062
1049	0.062
1050	0.061
1050	0.061
1051	0.061
1051	0.061
1051	0.061
1052	0.061
1052	0.062
1053	0.062
1053	0.063
1053	0.064
1054	0.065
1054	0.066
1055	0.067
1055	0.068
1056	0.068
1056	0.068
1056	0.068
1057	0.069
1057	0.07
1058	0.072
1058	0.073
1058	0.074
1059	0.076
1059	0.077
1060	0.079
1060	0.08
1061	0.082
1061	0.085
1061	0.086
1062	0.087
1062	0.087
1063	0.088
1063	0.089
1063	0.089
1064	0.091
1064	0.092
1065	0.094
1065	0.095
1066	0.097
1066	0.099
1066	0.101
1067	0.103
1067	0.106
1068	0.108
1068	0.11
1068	0.111
1069	0.113
1069	0.114
1070	0.116
1070	0.117
1071	0.119
1071	0.121
1071	0.123
1072	0.125
1072	0.128
1073	0.13
1073	0.133
1073	0.135
1074	0.137
1074	0.139
1075	0.14
1075	0.141
1076	0.142
1076	0.145
1076	0.147
1077	0.149
1077	0.151
1078	0.154
1078	0.158
1078	0.161
1079	0.165
1079	0.17
1080	0.174
1080	0.178
1080	0.181
1081	0.185
1081	0.189
1082	0.193
1082	0.196
1083	0.2
1083	0.204
1083	0.209
1084	0.214
1084	0.22
1085	0.226
1085	0.232
1085	0.239
1086	0.245
1086	0.25
1087	0.257
1087	0.265
1088	0.271
1088	0.277
1088	0.287
1089	0.295
1089	0.305
1090	0.318
1090	0.331
1090	0.344
1091	0.36
1091	0.378
1092	0.397
1092	0.419
1092	0.442
1093	0.464
1093	0.493
1094	0.523
1094	0.553
1095	0.59
1095	0.634
1095	0.689
1096	0.752
1096	0.829
1097	0.937
1097	1.07
1097	1.291
1098	1.764
1098	-0
1099	-0
1099	-0
1100	-0
1100	-0
1100	-0
1101	-0
1101	-0
1102	-0
1102	-0
1102	-0
1103	-0
1103	-0
1104	-0
1104	-0
1104	-0
1105	-0
1105	-0
1106	-0
1106	-0
1107	-0
1107	-0
1107	-0
1108	-0
1108	-0
1109	-0
1109	-0
1109	-0
1110	-0
1110	-0
1111	-0
1111	-0
