Data from 15c-stair-power-variation_Absorbance__174__03784.txt Node

Date: Tue Jan 16 15:47:49 CET 2024
User: Marek
Spectrometer: MAYP115816
Trigger mode: 0
Integration Time (sec): 2.000000E-1
Scans to average: 10
Electric dark correction enabled: true
Nonlinearity correction enabled: true
Boxcar width: 5
XAxis mode: Wavelengths
Number of Pixels in Spectrum: 2068
>>>>>Begin Spectral Data<<<<<
199	-2.244
199	-2.056
200	-1.92
200	-1.8
201	-1.726
201	-1.674
202	-1.597
202	-1.535
203	-1.486
203	-1.437
204	-1.41
204	-1.384
205	-1.365
205	-1.353
205	-1.35
206	-1.345
206	-1.342
207	-1.339
207	-1.338
208	-1.334
208	-1.333
209	-1.329
209	-1.327
210	-1.326
210	-1.323
211	-1.322
211	-1.321
212	-1.32
212	-1.319
213	-1.317
213	-1.316
213	-1.316
214	-1.314
214	-1.313
215	-1.312
215	-1.312
216	-1.309
216	-1.308
217	-1.305
217	-1.303
218	-1.298
218	-1.294
219	-1.29
219	-1.289
220	-1.287
220	-1.285
221	-1.281
221	-1.279
221	-1.275
222	-1.27
222	-1.265
223	-1.26
223	-1.255
224	-1.249
224	-1.24
225	-1.231
225	-1.222
226	-1.213
226	-1.204
227	-1.19
227	-1.177
228	-1.161
228	-1.144
229	-1.123
229	-1.099
229	-1.074
230	-1.044
230	-1.012
231	-0.976
231	-0.937
232	-0.897
232	-0.853
233	-0.806
233	-0.758
234	-0.709
234	-0.659
235	-0.609
235	-0.56
236	-0.51
236	-0.462
236	-0.413
237	-0.367
237	-0.322
238	-0.279
238	-0.238
239	-0.199
239	-0.162
240	-0.127
240	-0.095
241	-0.064
241	-0.035
242	-0.009
242	0.016
243	0.039
243	0.06
243	0.08
244	0.098
244	0.115
245	0.13
245	0.145
246	0.159
246	0.171
247	0.183
247	0.194
248	0.204
248	0.214
249	0.222
249	0.231
250	0.238
250	0.245
250	0.252
251	0.259
251	0.264
252	0.27
252	0.276
253	0.281
253	0.285
254	0.289
254	0.293
255	0.297
255	0.301
256	0.304
256	0.307
257	0.31
257	0.312
258	0.314
258	0.316
258	0.318
259	0.32
259	0.321
260	0.322
260	0.324
261	0.324
261	0.325
262	0.326
262	0.327
263	0.328
263	0.328
264	0.329
264	0.329
265	0.33
265	0.33
265	0.33
266	0.33
266	0.33
267	0.33
267	0.33
268	0.329
268	0.329
269	0.328
269	0.327
270	0.327
270	0.326
271	0.325
271	0.324
272	0.324
272	0.323
272	0.322
273	0.321
273	0.321
274	0.32
274	0.319
275	0.318
275	0.317
276	0.316
276	0.315
277	0.314
277	0.312
278	0.31
278	0.309
278	0.307
279	0.306
279	0.304
280	0.303
280	0.302
281	0.302
281	0.301
282	0.3
282	0.3
283	0.299
283	0.299
284	0.299
284	0.298
285	0.298
285	0.297
285	0.296
286	0.296
286	0.295
287	0.294
287	0.294
288	0.293
288	0.293
289	0.292
289	0.291
290	0.29
290	0.29
291	0.289
291	0.288
292	0.287
292	0.287
292	0.286
293	0.285
293	0.284
294	0.284
294	0.283
295	0.283
295	0.282
296	0.281
296	0.28
297	0.28
297	0.28
298	0.279
298	0.278
298	0.278
299	0.277
299	0.276
300	0.276
300	0.275
301	0.274
301	0.274
302	0.273
302	0.273
303	0.272
303	0.271
304	0.271
304	0.27
305	0.269
305	0.269
305	0.268
306	0.267
306	0.266
307	0.266
307	0.265
308	0.264
308	0.263
309	0.262
309	0.262
310	0.261
310	0.26
311	0.26
311	0.259
311	0.258
312	0.257
312	0.256
313	0.255
313	0.254
314	0.254
314	0.253
315	0.252
315	0.251
316	0.25
316	0.249
317	0.248
317	0.247
318	0.246
318	0.246
318	0.245
319	0.244
319	0.243
320	0.242
320	0.241
321	0.24
321	0.239
322	0.238
322	0.237
323	0.236
323	0.235
324	0.234
324	0.233
324	0.233
325	0.232
325	0.231
326	0.23
326	0.23
327	0.229
327	0.228
328	0.227
328	0.226
329	0.225
329	0.225
330	0.224
330	0.223
330	0.222
331	0.221
331	0.22
332	0.219
332	0.218
333	0.218
333	0.217
334	0.216
334	0.215
335	0.215
335	0.214
336	0.213
336	0.212
336	0.211
337	0.211
337	0.21
338	0.209
338	0.208
339	0.208
339	0.207
340	0.206
340	0.205
341	0.205
341	0.204
342	0.203
342	0.203
342	0.202
343	0.201
343	0.201
344	0.2
344	0.2
345	0.199
345	0.198
346	0.197
346	0.197
347	0.196
347	0.195
348	0.194
348	0.194
348	0.193
349	0.192
349	0.191
350	0.19
350	0.189
351	0.188
351	0.188
352	0.187
352	0.186
353	0.184
353	0.183
354	0.182
354	0.181
354	0.179
355	0.178
355	0.177
356	0.176
356	0.175
357	0.174
357	0.174
358	0.174
358	0.174
359	0.175
359	0.176
360	0.177
360	0.177
360	0.178
361	0.179
361	0.179
362	0.18
362	0.18
363	0.18
363	0.18
364	0.179
364	0.178
365	0.178
365	0.177
366	0.177
366	0.177
366	0.176
367	0.176
367	0.176
368	0.176
368	0.175
369	0.175
369	0.174
370	0.174
370	0.173
371	0.173
371	0.172
372	0.172
372	0.171
372	0.171
373	0.171
373	0.17
374	0.17
374	0.17
375	0.17
375	0.169
376	0.169
376	0.17
377	0.17
377	0.17
378	0.17
378	0.171
378	0.171
379	0.171
379	0.171
380	0.171
380	0.171
381	0.171
381	0.171
382	0.17
382	0.17
383	0.17
383	0.169
383	0.169
384	0.168
384	0.168
385	0.167
385	0.168
386	0.167
386	0.167
387	0.167
387	0.167
388	0.167
388	0.166
389	0.166
389	0.166
389	0.166
390	0.166
390	0.166
391	0.167
391	0.167
392	0.167
392	0.167
393	0.167
393	0.167
394	0.167
394	0.167
394	0.167
395	0.167
395	0.166
396	0.166
396	0.166
397	0.166
397	0.167
398	0.167
398	0.167
399	0.167
399	0.166
400	0.166
400	0.166
400	0.165
401	0.164
401	0.163
402	0.162
402	0.161
403	0.16
403	0.16
404	0.16
404	0.159
405	0.159
405	0.159
405	0.159
406	0.159
406	0.158
407	0.158
407	0.158
408	0.157
408	0.157
409	0.156
409	0.156
410	0.155
410	0.155
411	0.155
411	0.155
411	0.155
412	0.155
412	0.154
413	0.154
413	0.154
414	0.153
414	0.153
415	0.153
415	0.152
416	0.151
416	0.151
416	0.15
417	0.15
417	0.15
418	0.15
418	0.15
419	0.151
419	0.152
420	0.152
420	0.153
421	0.154
421	0.154
421	0.155
422	0.155
422	0.155
423	0.155
423	0.155
424	0.154
424	0.153
425	0.152
425	0.15
426	0.15
426	0.149
427	0.149
427	0.149
427	0.149
428	0.15
428	0.151
429	0.152
429	0.152
430	0.153
430	0.152
431	0.152
431	0.152
432	0.151
432	0.151
432	0.149
433	0.148
433	0.146
434	0.145
434	0.145
435	0.145
435	0.145
436	0.145
436	0.145
437	0.145
437	0.145
437	0.145
438	0.145
438	0.145
439	0.144
439	0.144
440	0.144
440	0.144
441	0.144
441	0.144
442	0.145
442	0.145
442	0.146
443	0.147
443	0.147
444	0.148
444	0.148
445	0.148
445	0.149
446	0.149
446	0.148
447	0.148
447	0.148
447	0.147
448	0.147
448	0.147
449	0.146
449	0.146
450	0.145
450	0.145
451	0.145
451	0.144
452	0.143
452	0.143
452	0.142
453	0.141
453	0.141
454	0.14
454	0.139
455	0.138
455	0.138
456	0.137
456	0.137
457	0.137
457	0.137
458	0.137
458	0.137
458	0.137
459	0.137
459	0.138
460	0.137
460	0.136
461	0.136
461	0.135
462	0.135
462	0.135
463	0.135
463	0.136
463	0.137
464	0.137
464	0.137
465	0.137
465	0.137
466	0.137
466	0.137
467	0.137
467	0.136
467	0.135
468	0.133
468	0.131
469	0.129
469	0.128
470	0.127
470	0.127
471	0.126
471	0.126
472	0.125
472	0.126
472	0.126
473	0.127
473	0.129
474	0.129
474	0.13
475	0.131
475	0.132
476	0.132
476	0.133
477	0.133
477	0.134
477	0.134
478	0.134
478	0.135
479	0.135
479	0.136
480	0.137
480	0.138
481	0.138
481	0.139
482	0.14
482	0.141
482	0.143
483	0.145
483	0.148
484	0.152
484	0.154
485	0.156
485	0.158
486	0.159
486	0.16
487	0.161
487	0.161
487	0.161
488	0.161
488	0.159
489	0.156
489	0.154
490	0.153
490	0.152
491	0.151
491	0.152
492	0.152
492	0.152
492	0.153
493	0.153
493	0.154
494	0.156
494	0.159
495	0.161
495	0.162
496	0.163
496	0.164
496	0.165
497	0.166
497	0.166
498	0.167
498	0.167
499	0.167
499	0.166
500	0.167
500	0.168
501	0.17
501	0.171
501	0.173
502	0.174
502	0.176
503	0.177
503	0.179
504	0.18
504	0.181
505	0.181
505	0.181
506	0.181
506	0.182
506	0.182
507	0.182
507	0.182
508	0.182
508	0.182
509	0.183
509	0.183
510	0.184
510	0.184
511	0.184
511	0.184
511	0.184
512	0.184
512	0.184
513	0.184
513	0.183
514	0.182
514	0.182
515	0.18
515	0.179
515	0.178
516	0.177
516	0.176
517	0.177
517	0.177
518	0.178
518	0.177
519	0.176
519	0.174
520	0.172
520	0.17
520	0.167
521	0.164
521	0.161
522	0.157
522	0.154
523	0.151
523	0.15
524	0.15
524	0.151
524	0.153
525	0.156
525	0.16
526	0.163
526	0.167
527	0.172
527	0.176
528	0.179
528	0.181
529	0.183
529	0.185
529	0.185
530	0.186
530	0.187
531	0.187
531	0.188
532	0.187
532	0.187
533	0.187
533	0.188
533	0.187
534	0.187
534	0.187
535	0.186
535	0.185
536	0.185
536	0.185
537	0.184
537	0.184
538	0.183
538	0.182
538	0.18
539	0.179
539	0.179
540	0.178
540	0.177
541	0.176
541	0.174
542	0.172
542	0.17
542	0.169
543	0.168
543	0.167
544	0.165
544	0.164
545	0.162
545	0.162
546	0.162
546	0.161
547	0.16
547	0.158
547	0.155
548	0.153
548	0.151
549	0.149
549	0.146
550	0.145
550	0.143
551	0.14
551	0.138
551	0.136
552	0.135
552	0.134
553	0.133
553	0.133
554	0.133
554	0.132
555	0.13
555	0.127
556	0.124
556	0.121
556	0.118
557	0.115
557	0.113
558	0.111
558	0.108
559	0.107
559	0.106
560	0.106
560	0.105
560	0.105
561	0.106
561	0.107
562	0.107
562	0.106
563	0.104
563	0.102
564	0.099
564	0.096
564	0.094
565	0.092
565	0.091
566	0.089
566	0.088
567	0.088
567	0.089
568	0.091
568	0.093
568	0.095
569	0.098
569	0.1
570	0.102
570	0.102
571	0.104
571	0.105
572	0.106
572	0.106
573	0.106
573	0.106
573	0.105
574	0.104
574	0.103
575	0.103
575	0.104
576	0.105
576	0.104
577	0.102
577	0.1
577	0.1
578	0.099
578	0.099
579	0.1
579	0.103
580	0.102
580	0.1
581	0.097
581	0.095
581	0.094
582	0.094
582	0.094
583	0.095
583	0.094
584	0.091
584	0.086
585	0.084
585	0.083
585	0.083
586	0.083
586	0.083
587	0.081
587	0.079
588	0.076
588	0.073
589	0.072
589	0.071
590	0.07
590	0.069
590	0.07
591	0.071
591	0.071
592	0.071
592	0.07
593	0.07
593	0.07
594	0.069
594	0.068
594	0.067
595	0.067
595	0.065
596	0.063
596	0.063
597	0.066
597	0.067
598	0.069
598	0.07
598	0.071
599	0.072
599	0.072
600	0.071
600	0.07
601	0.069
601	0.068
602	0.065
602	0.064
602	0.062
603	0.061
603	0.061
604	0.062
604	0.062
605	0.064
605	0.066
606	0.066
606	0.065
606	0.065
607	0.064
607	0.063
608	0.063
608	0.061
609	0.059
609	0.058
610	0.056
610	0.054
610	0.053
611	0.054
611	0.054
612	0.055
612	0.057
613	0.059
613	0.061
614	0.061
614	0.06
614	0.061
615	0.06
615	0.06
616	0.059
616	0.058
617	0.058
617	0.056
618	0.054
618	0.053
618	0.053
619	0.053
619	0.053
620	0.056
620	0.057
621	0.058
621	0.059
622	0.06
622	0.06
622	0.061
623	0.061
623	0.062
624	0.063
624	0.063
625	0.062
625	0.063
626	0.063
626	0.062
626	0.063
627	0.063
627	0.063
628	0.063
628	0.063
629	0.063
629	0.063
630	0.063
630	0.062
630	0.062
631	0.062
631	0.062
632	0.062
632	0.061
633	0.062
633	0.062
634	0.063
634	0.065
634	0.067
635	0.069
635	0.07
636	0.071
636	0.073
637	0.074
637	0.076
638	0.077
638	0.079
638	0.08
639	0.08
639	0.081
640	0.082
640	0.084
641	0.086
641	0.087
642	0.09
642	0.092
642	0.094
643	0.095
643	0.097
644	0.099
644	0.101
645	0.102
645	0.104
646	0.107
646	0.11
646	0.113
647	0.117
647	0.12
648	0.123
648	0.126
649	0.13
649	0.133
650	0.136
650	0.139
650	0.142
651	0.144
651	0.147
652	0.148
652	0.15
653	0.154
653	0.163
653	0.174
654	0.145
654	0.122
655	0.126
655	0.128
656	0.13
656	0.131
657	0.133
657	0.135
657	0.136
658	0.132
658	0.123
659	0.15
659	0.186
660	0.189
660	0.191
661	0.192
661	0.194
661	0.197
662	0.2
662	0.204
663	0.208
663	0.211
664	0.215
664	0.217
665	0.22
665	0.223
665	0.226
666	0.228
666	0.231
667	0.233
667	0.235
668	0.238
668	0.24
669	0.243
669	0.246
669	0.251
670	0.255
670	0.259
671	0.262
671	0.265
672	0.266
672	0.268
672	0.269
673	0.271
673	0.272
674	0.273
674	0.274
675	0.274
675	0.274
676	0.276
676	0.278
676	0.28
677	0.282
677	0.284
678	0.287
678	0.288
679	0.29
679	0.291
680	0.293
680	0.295
680	0.296
681	0.296
681	0.297
682	0.299
682	0.3
683	0.302
683	0.305
684	0.308
684	0.309
684	0.309
685	0.31
685	0.311
686	0.313
686	0.313
687	0.313
687	0.313
687	0.312
688	0.311
688	0.309
689	0.309
689	0.31
690	0.311
690	0.311
691	0.311
691	0.311
691	0.311
692	0.311
692	0.311
693	0.311
693	0.312
694	0.312
694	0.31
695	0.31
695	0.312
695	0.313
696	0.312
696	0.311
697	0.311
697	0.31
698	0.308
698	0.306
698	0.303
699	0.302
699	0.299
700	0.295
700	0.293
701	0.291
701	0.289
702	0.287
702	0.286
702	0.284
703	0.283
703	0.281
704	0.279
704	0.278
705	0.277
705	0.275
705	0.274
706	0.272
706	0.271
707	0.269
707	0.267
708	0.265
708	0.263
709	0.262
709	0.26
709	0.257
710	0.253
710	0.251
711	0.249
711	0.247
712	0.246
712	0.244
713	0.243
713	0.241
713	0.239
714	0.236
714	0.233
715	0.231
715	0.228
716	0.225
716	0.222
716	0.219
717	0.216
717	0.213
718	0.21
718	0.207
719	0.206
719	0.204
720	0.202
720	0.2
720	0.198
721	0.195
721	0.193
722	0.19
722	0.188
723	0.185
723	0.183
723	0.18
724	0.177
724	0.174
725	0.171
725	0.168
726	0.166
726	0.164
727	0.161
727	0.159
727	0.157
728	0.155
728	0.153
729	0.153
729	0.152
730	0.151
730	0.15
730	0.149
731	0.148
731	0.147
732	0.146
732	0.145
733	0.143
733	0.142
734	0.14
734	0.137
734	0.135
735	0.134
735	0.131
736	0.128
736	0.126
737	0.124
737	0.122
737	0.12
738	0.117
738	0.114
739	0.111
739	0.108
740	0.106
740	0.104
741	0.102
741	0.1
741	0.097
742	0.092
742	0.088
743	0.085
743	0.083
744	0.081
744	0.079
744	0.076
745	0.073
745	0.071
746	0.068
746	0.067
747	0.066
747	0.065
748	0.065
748	0.064
748	0.063
749	0.061
749	0.061
750	0.06
750	0.058
751	0.058
751	0.057
751	0.057
752	0.056
752	0.055
753	0.054
753	0.053
754	0.053
754	0.053
754	0.053
755	0.053
755	0.053
756	0.052
756	0.05
757	0.049
757	0.048
758	0.046
758	0.044
758	0.043
759	0.041
759	0.038
760	0.034
760	0.03
761	0.027
761	0.026
761	0.024
762	0.022
762	0.021
763	0.02
763	0.017
764	0.014
764	0.011
764	0.009
765	0.007
765	0.005
766	0.004
766	0.003
767	0.003
767	-0
768	-0.004
768	-0.006
768	-0.007
769	-0.007
769	-0.008
770	-0.009
770	-0.011
771	-0.013
771	-0.016
771	-0.019
772	-0.021
772	-0.023
773	-0.025
773	-0.028
774	-0.031
774	-0.035
775	-0.038
775	-0.042
775	-0.046
776	-0.05
776	-0.054
777	-0.059
777	-0.063
778	-0.068
778	-0.073
778	-0.077
779	-0.078
779	-0.075
780	-0.075
780	-0.076
781	-0.075
781	-0.075
781	-0.074
782	-0.073
782	-0.073
783	-0.072
783	-0.071
784	-0.071
784	-0.074
784	-0.076
785	-0.078
785	-0.08
786	-0.08
786	-0.078
787	-0.074
787	-0.07
788	-0.069
788	-0.07
788	-0.071
789	-0.073
789	-0.073
790	-0.07
790	-0.069
791	-0.069
791	-0.071
791	-0.073
792	-0.068
792	-0.058
793	-0.053
793	-0.049
794	-0.047
794	-0.049
794	-0.053
795	-0.055
795	-0.054
796	-0.054
796	-0.057
797	-0.065
797	-0.074
797	-0.08
798	-0.085
798	-0.088
799	-0.088
799	-0.088
800	-0.088
800	-0.09
801	-0.093
801	-0.095
801	-0.095
802	-0.097
802	-0.099
803	-0.099
803	-0.1
804	-0.099
804	-0.094
804	-0.088
805	-0.084
805	-0.083
806	-0.081
806	-0.079
807	-0.078
807	-0.077
807	-0.077
808	-0.076
808	-0.077
809	-0.081
809	-0.086
810	-0.089
810	-0.091
810	-0.093
811	-0.096
811	-0.096
812	-0.092
812	-0.089
813	-0.089
813	-0.09
813	-0.091
814	-0.092
814	-0.092
815	-0.089
815	-0.087
816	-0.085
816	-0.085
817	-0.09
817	-0.093
817	-0.093
818	-0.093
818	-0.09
819	-0.085
819	-0.082
820	-0.083
820	-0.085
820	-0.086
821	-0.086
821	-0.085
822	-0.084
822	-0.083
823	-0.083
823	-0.085
823	-0.088
824	-0.089
824	-0.087
825	-0.083
825	-0.078
826	-0.073
826	-0.07
826	-0.066
827	-0.061
827	-0.056
828	-0.051
828	-0.047
829	-0.043
829	-0.038
829	-0.035
830	-0.032
830	-0.03
831	-0.025
831	-0.022
832	-0.019
832	-0.016
832	-0.014
833	-0.012
833	-0.01
834	-0.008
834	-0.007
835	-0.006
835	-0.006
835	-0.005
836	-0.004
836	-0.004
837	-0.003
837	-0.002
838	-0.001
838	-0
839	0
839	0.001
839	0.002
840	0.002
840	0.003
841	0.004
841	0.005
842	0.005
842	0.006
842	0.006
843	0.006
843	0.007
844	0.007
844	0.008
845	0.009
845	0.009
845	0.01
846	0.011
846	0.012
847	0.014
847	0.015
848	0.017
848	0.018
848	0.019
849	0.02
849	0.021
850	0.022
850	0.022
851	0.023
851	0.024
851	0.024
852	0.024
852	0.024
853	0.025
853	0.025
854	0.025
854	0.026
854	0.026
855	0.026
855	0.026
856	0.026
856	0.027
857	0.027
857	0.027
857	0.027
858	0.027
858	0.027
859	0.027
859	0.027
860	0.028
860	0.028
860	0.028
861	0.028
861	0.028
862	0.027
862	0.027
863	0.027
863	0.027
863	0.027
864	0.026
864	0.026
865	0.026
865	0.025
866	0.025
866	0.026
866	0.027
867	0.027
867	0.029
868	0.03
868	0.031
869	0.032
869	0.032
869	0.032
870	0.032
870	0.032
871	0.032
871	0.032
872	0.031
872	0.03
872	0.03
873	0.029
873	0.029
874	0.029
874	0.029
875	0.03
875	0.03
875	0.03
876	0.031
876	0.031
877	0.031
877	0.031
878	0.031
878	0.031
878	0.031
879	0.03
879	0.03
880	0.029
880	0.029
881	0.028
881	0.028
881	0.028
882	0.028
882	0.028
883	0.028
883	0.029
884	0.03
884	0.031
884	0.031
885	0.032
885	0.033
886	0.034
886	0.034
887	0.035
887	0.035
887	0.035
888	0.035
888	0.035
889	0.035
889	0.035
890	0.036
890	0.036
890	0.036
891	0.037
891	0.037
892	0.038
892	0.039
893	0.039
893	0.04
893	0.041
894	0.041
894	0.041
895	0.042
895	0.042
895	0.042
896	0.043
896	0.044
897	0.044
897	0.045
898	0.046
898	0.046
898	0.047
899	0.047
899	0.047
900	0.047
900	0.048
901	0.047
901	0.047
901	0.047
902	0.047
902	0.046
903	0.046
903	0.045
904	0.045
904	0.044
904	0.043
905	0.042
905	0.042
906	0.042
906	0.041
907	0.04
907	0.039
907	0.039
908	0.038
908	0.038
909	0.038
909	0.038
910	0.038
910	0.039
910	0.039
911	0.04
911	0.041
912	0.042
912	0.042
913	0.043
913	0.043
913	0.044
914	0.044
914	0.044
915	0.043
915	0.043
916	0.042
916	0.041
916	0.04
917	0.04
917	0.039
918	0.039
918	0.038
918	0.038
919	0.038
919	0.038
920	0.038
920	0.039
921	0.039
921	0.039
921	0.038
922	0.038
922	0.037
923	0.036
923	0.036
924	0.035
924	0.034
924	0.033
925	0.032
925	0.031
926	0.03
926	0.03
927	0.029
927	0.029
927	0.029
928	0.03
928	0.03
929	0.032
929	0.033
930	0.035
930	0.037
930	0.039
931	0.041
931	0.044
932	0.046
932	0.048
933	0.05
933	0.052
933	0.053
934	0.054
934	0.054
935	0.054
935	0.054
935	0.054
936	0.054
936	0.054
937	0.054
937	0.054
938	0.054
938	0.055
938	0.055
939	0.056
939	0.057
940	0.057
940	0.058
941	0.058
941	0.058
941	0.058
942	0.058
942	0.058
943	0.057
943	0.056
944	0.056
944	0.055
944	0.055
945	0.055
945	0.055
946	0.055
946	0.054
946	0.053
947	0.052
947	0.052
948	0.051
948	0.049
949	0.049
949	0.048
949	0.048
950	0.047
950	0.047
951	0.046
951	0.045
952	0.045
952	0.045
952	0.045
953	0.045
953	0.044
954	0.043
954	0.042
955	0.042
955	0.041
955	0.041
956	0.041
956	0.04
957	0.04
957	0.039
957	0.039
958	0.039
958	0.039
959	0.039
959	0.038
960	0.038
960	0.038
960	0.037
961	0.037
961	0.036
962	0.035
962	0.035
963	0.035
963	0.035
963	0.035
964	0.035
964	0.035
965	0.036
965	0.037
966	0.037
966	0.038
966	0.039
967	0.04
967	0.041
968	0.041
968	0.041
968	0.042
969	0.042
969	0.041
970	0.041
970	0.041
971	0.041
971	0.041
971	0.041
972	0.041
972	0.041
973	0.042
973	0.042
974	0.043
974	0.043
974	0.044
975	0.045
975	0.045
976	0.046
976	0.047
976	0.048
977	0.048
977	0.048
978	0.049
978	0.049
979	0.049
979	0.05
979	0.051
980	0.051
980	0.051
981	0.052
981	0.052
982	0.053
982	0.054
982	0.055
983	0.055
983	0.056
984	0.056
984	0.057
984	0.057
985	0.058
985	0.057
986	0.057
986	0.056
987	0.056
987	0.055
987	0.054
988	0.054
988	0.053
989	0.052
989	0.052
990	0.051
990	0.051
990	0.051
991	0.051
991	0.051
992	0.051
992	0.051
992	0.051
993	0.051
993	0.051
994	0.05
994	0.05
995	0.05
995	0.049
995	0.049
996	0.048
996	0.047
997	0.047
997	0.047
997	0.047
998	0.047
998	0.048
999	0.049
999	0.049
1000	0.05
1000	0.051
1000	0.052
1001	0.052
1001	0.053
1002	0.053
1002	0.054
1003	0.054
1003	0.053
1003	0.053
1004	0.053
1004	0.052
1005	0.051
1005	0.05
1005	0.049
1006	0.049
1006	0.048
1007	0.048
1007	0.047
1008	0.047
1008	0.047
1008	0.047
1009	0.048
1009	0.048
1010	0.049
1010	0.05
1010	0.05
1011	0.051
1011	0.051
1012	0.052
1012	0.052
1013	0.053
1013	0.053
1013	0.053
1014	0.052
1014	0.051
1015	0.051
1015	0.05
1016	0.049
1016	0.048
1016	0.047
1017	0.046
1017	0.045
1018	0.044
1018	0.044
1018	0.043
1019	0.043
1019	0.043
1020	0.042
1020	0.042
1021	0.042
1021	0.042
1021	0.041
1022	0.041
1022	0.041
1023	0.041
1023	0.041
1023	0.04
1024	0.04
1024	0.039
1025	0.039
1025	0.038
1026	0.038
1026	0.038
1026	0.037
1027	0.037
1027	0.037
1028	0.037
1028	0.038
1028	0.038
1029	0.038
1029	0.039
1030	0.039
1030	0.039
1031	0.04
1031	0.04
1031	0.041
1032	0.041
1032	0.042
1033	0.042
1033	0.042
1033	0.043
1034	0.042
1034	0.042
1035	0.042
1035	0.042
1036	0.042
1036	0.043
1036	0.043
1037	0.044
1037	0.044
1038	0.045
1038	0.045
1039	0.046
1039	0.047
1039	0.048
1040	0.049
1040	0.05
1041	0.05
1041	0.05
1041	0.05
1042	0.049
1042	0.049
1043	0.048
1043	0.048
1044	0.048
1044	0.047
1044	0.047
1045	0.046
1045	0.046
1046	0.046
1046	0.046
1046	0.047
1047	0.047
1047	0.048
1048	0.048
1048	0.049
1049	0.049
1049	0.048
1049	0.048
1050	0.048
1050	0.047
1051	0.047
1051	0.047
1051	0.048
1052	0.048
1052	0.049
1053	0.049
1053	0.05
1053	0.051
1054	0.052
1054	0.053
1055	0.054
1055	0.055
1056	0.056
1056	0.056
1056	0.056
1057	0.056
1057	0.057
1058	0.059
1058	0.059
1058	0.06
1059	0.062
1059	0.062
1060	0.063
1060	0.065
1061	0.066
1061	0.067
1061	0.068
1062	0.069
1062	0.069
1063	0.07
1063	0.07
1063	0.07
1064	0.072
1064	0.074
1065	0.075
1065	0.076
1066	0.077
1066	0.079
1066	0.081
1067	0.083
1067	0.085
1068	0.087
1068	0.088
1068	0.09
1069	0.091
1069	0.092
1070	0.093
1070	0.095
1071	0.097
1071	0.099
1071	0.1
1072	0.102
1072	0.104
1073	0.106
1073	0.109
1073	0.111
1074	0.113
1074	0.115
1075	0.115
1075	0.117
1076	0.117
1076	0.12
1076	0.121
1077	0.123
1077	0.125
1078	0.127
1078	0.13
1078	0.133
1079	0.136
1079	0.14
1080	0.143
1080	0.147
1080	0.149
1081	0.152
1081	0.155
1082	0.158
1082	0.16
1083	0.163
1083	0.166
1083	0.17
1084	0.174
1084	0.179
1085	0.183
1085	0.188
1085	0.193
1086	0.197
1086	0.201
1087	0.207
1087	0.213
1088	0.218
1088	0.224
1088	0.231
1089	0.238
1089	0.247
1090	0.256
1090	0.266
1090	0.278
1091	0.29
1091	0.305
1092	0.32
1092	0.337
1092	0.354
1093	0.369
1093	0.39
1094	0.409
1094	0.43
1095	0.453
1095	0.481
1095	0.514
1096	0.549
1096	0.588
1097	0.64
1097	0.693
1097	0.764
1098	0.847
1098	0.963
1099	1.124
1099	1.414
1100	-0
1100	-0
1100	-0
1101	-0
1101	-0
1102	-0
1102	-0
1102	-0
1103	-0
1103	-0
1104	-0
1104	-0
1104	-0
1105	-0
1105	-0
1106	-0
1106	-0
1107	-0
1107	-0
1107	-0
1108	-0
1108	-0
1109	-0
1109	-0
1109	-0
1110	-0
1110	-0
1111	-0
1111	-0
