Data from 15c-stair-power-variation_Absorbance__260__03870.txt Node

Date: Tue Jan 16 15:50:41 CET 2024
User: Marek
Spectrometer: MAYP115816
Trigger mode: 0
Integration Time (sec): 2.000000E-1
Scans to average: 10
Electric dark correction enabled: true
Nonlinearity correction enabled: true
Boxcar width: 5
XAxis mode: Wavelengths
Number of Pixels in Spectrum: 2068
>>>>>Begin Spectral Data<<<<<
199	-0.599
199	-0.526
200	-0.457
200	-0.387
201	-0.349
201	-0.325
202	-0.302
202	-0.296
203	-0.291
203	-0.282
204	-0.268
204	-0.251
205	-0.237
205	-0.229
205	-0.233
206	-0.231
206	-0.234
207	-0.233
207	-0.235
208	-0.234
208	-0.236
209	-0.232
209	-0.238
210	-0.24
210	-0.24
211	-0.24
211	-0.243
212	-0.247
212	-0.248
213	-0.247
213	-0.248
213	-0.253
214	-0.253
214	-0.25
215	-0.25
215	-0.254
216	-0.254
216	-0.256
217	-0.252
217	-0.251
218	-0.25
218	-0.245
219	-0.238
219	-0.239
220	-0.24
220	-0.242
221	-0.24
221	-0.24
221	-0.235
222	-0.231
222	-0.227
223	-0.223
223	-0.222
224	-0.222
224	-0.213
225	-0.204
225	-0.197
226	-0.192
226	-0.183
227	-0.171
227	-0.166
228	-0.152
228	-0.141
229	-0.124
229	-0.101
229	-0.079
230	-0.055
230	-0.028
231	0.001
231	0.034
232	0.06
232	0.093
233	0.123
233	0.158
234	0.187
234	0.215
235	0.241
235	0.264
236	0.288
236	0.31
236	0.33
237	0.349
237	0.366
238	0.381
238	0.394
239	0.407
239	0.417
240	0.427
240	0.435
241	0.442
241	0.448
242	0.454
242	0.459
243	0.464
243	0.468
243	0.471
244	0.475
244	0.478
245	0.48
245	0.483
246	0.486
246	0.488
247	0.49
247	0.492
248	0.495
248	0.497
249	0.499
249	0.5
250	0.502
250	0.504
250	0.505
251	0.507
251	0.508
252	0.51
252	0.511
253	0.512
253	0.512
254	0.513
254	0.514
255	0.515
255	0.516
256	0.516
256	0.517
257	0.517
257	0.518
258	0.517
258	0.517
258	0.517
259	0.517
259	0.517
260	0.516
260	0.516
261	0.515
261	0.515
262	0.514
262	0.512
263	0.512
263	0.511
264	0.509
264	0.508
265	0.507
265	0.505
265	0.503
266	0.502
266	0.5
267	0.498
267	0.496
268	0.494
268	0.492
269	0.49
269	0.488
270	0.485
270	0.483
271	0.48
271	0.478
272	0.475
272	0.473
272	0.47
273	0.467
273	0.465
274	0.462
274	0.46
275	0.457
275	0.454
276	0.452
276	0.449
277	0.446
277	0.443
278	0.441
278	0.438
278	0.435
279	0.431
279	0.427
280	0.424
280	0.421
281	0.418
281	0.415
282	0.411
282	0.408
283	0.405
283	0.403
284	0.4
284	0.398
285	0.396
285	0.393
285	0.391
286	0.388
286	0.386
287	0.384
287	0.382
288	0.38
288	0.377
289	0.375
289	0.373
290	0.371
290	0.369
291	0.367
291	0.366
292	0.364
292	0.362
292	0.36
293	0.358
293	0.357
294	0.355
294	0.354
295	0.352
295	0.351
296	0.349
296	0.347
297	0.346
297	0.345
298	0.344
298	0.342
298	0.341
299	0.34
299	0.339
300	0.338
300	0.337
301	0.336
301	0.335
302	0.334
302	0.333
303	0.332
303	0.331
304	0.33
304	0.329
305	0.328
305	0.327
305	0.326
306	0.325
306	0.324
307	0.323
307	0.322
308	0.321
308	0.32
309	0.319
309	0.318
310	0.317
310	0.316
311	0.316
311	0.315
311	0.314
312	0.313
312	0.312
313	0.311
313	0.311
314	0.31
314	0.309
315	0.308
315	0.307
316	0.306
316	0.305
317	0.305
317	0.304
318	0.303
318	0.302
318	0.301
319	0.3
319	0.3
320	0.299
320	0.298
321	0.297
321	0.297
322	0.296
322	0.295
323	0.294
323	0.293
324	0.293
324	0.292
324	0.291
325	0.29
325	0.29
326	0.289
326	0.288
327	0.287
327	0.287
328	0.286
328	0.285
329	0.284
329	0.283
330	0.283
330	0.282
330	0.281
331	0.281
331	0.28
332	0.279
332	0.278
333	0.278
333	0.277
334	0.276
334	0.276
335	0.275
335	0.274
336	0.274
336	0.273
336	0.272
337	0.272
337	0.271
338	0.27
338	0.27
339	0.269
339	0.269
340	0.268
340	0.268
341	0.268
341	0.267
342	0.266
342	0.266
342	0.266
343	0.265
343	0.265
344	0.264
344	0.264
345	0.264
345	0.263
346	0.263
346	0.262
347	0.262
347	0.261
348	0.261
348	0.261
348	0.261
349	0.26
349	0.26
350	0.26
350	0.259
351	0.259
351	0.259
352	0.259
352	0.259
353	0.258
353	0.258
354	0.257
354	0.257
354	0.257
355	0.256
355	0.256
356	0.256
356	0.255
357	0.255
357	0.255
358	0.255
358	0.254
359	0.254
359	0.254
360	0.254
360	0.254
360	0.254
361	0.254
361	0.254
362	0.254
362	0.253
363	0.254
363	0.254
364	0.253
364	0.253
365	0.253
365	0.253
366	0.253
366	0.252
366	0.252
367	0.252
367	0.252
368	0.252
368	0.252
369	0.252
369	0.252
370	0.251
370	0.251
371	0.251
371	0.251
372	0.251
372	0.25
372	0.25
373	0.25
373	0.249
374	0.249
374	0.249
375	0.249
375	0.248
376	0.248
376	0.248
377	0.248
377	0.248
378	0.247
378	0.247
378	0.247
379	0.247
379	0.247
380	0.247
380	0.247
381	0.247
381	0.246
382	0.246
382	0.246
383	0.246
383	0.246
383	0.245
384	0.245
384	0.245
385	0.245
385	0.245
386	0.244
386	0.244
387	0.244
387	0.243
388	0.243
388	0.243
389	0.242
389	0.242
389	0.242
390	0.242
390	0.241
391	0.241
391	0.241
392	0.24
392	0.24
393	0.24
393	0.24
394	0.24
394	0.24
394	0.24
395	0.24
395	0.24
396	0.239
396	0.239
397	0.239
397	0.239
398	0.239
398	0.238
399	0.238
399	0.238
400	0.238
400	0.237
400	0.237
401	0.237
401	0.236
402	0.236
402	0.235
403	0.235
403	0.235
404	0.235
404	0.234
405	0.234
405	0.234
405	0.234
406	0.234
406	0.234
407	0.234
407	0.234
408	0.234
408	0.233
409	0.233
409	0.233
410	0.233
410	0.233
411	0.233
411	0.233
411	0.233
412	0.233
412	0.233
413	0.232
413	0.232
414	0.232
414	0.232
415	0.231
415	0.231
416	0.23
416	0.23
416	0.23
417	0.23
417	0.23
418	0.23
418	0.23
419	0.23
419	0.23
420	0.23
420	0.23
421	0.23
421	0.23
421	0.23
422	0.23
422	0.23
423	0.23
423	0.229
424	0.229
424	0.228
425	0.228
425	0.228
426	0.228
426	0.228
427	0.228
427	0.228
427	0.228
428	0.228
428	0.228
429	0.228
429	0.228
430	0.228
430	0.228
431	0.228
431	0.228
432	0.227
432	0.227
432	0.226
433	0.226
433	0.226
434	0.226
434	0.226
435	0.226
435	0.226
436	0.226
436	0.226
437	0.225
437	0.225
437	0.225
438	0.225
438	0.225
439	0.225
439	0.225
440	0.225
440	0.225
441	0.225
441	0.225
442	0.225
442	0.226
442	0.226
443	0.226
443	0.227
444	0.227
444	0.227
445	0.227
445	0.227
446	0.227
446	0.227
447	0.227
447	0.227
447	0.227
448	0.227
448	0.226
449	0.226
449	0.226
450	0.226
450	0.226
451	0.226
451	0.227
452	0.227
452	0.227
452	0.227
453	0.227
453	0.227
454	0.227
454	0.227
455	0.227
455	0.227
456	0.227
456	0.227
457	0.227
457	0.227
458	0.227
458	0.227
458	0.228
459	0.228
459	0.228
460	0.228
460	0.228
461	0.229
461	0.229
462	0.23
462	0.23
463	0.231
463	0.231
463	0.232
464	0.232
464	0.231
465	0.232
465	0.232
466	0.232
466	0.233
467	0.233
467	0.233
467	0.233
468	0.232
468	0.232
469	0.233
469	0.234
470	0.235
470	0.235
471	0.236
471	0.236
472	0.236
472	0.237
472	0.237
473	0.238
473	0.239
474	0.239
474	0.24
475	0.24
475	0.241
476	0.241
476	0.242
477	0.243
477	0.244
477	0.244
478	0.245
478	0.246
479	0.247
479	0.248
480	0.249
480	0.25
481	0.25
481	0.251
482	0.252
482	0.253
482	0.254
483	0.256
483	0.257
484	0.258
484	0.259
485	0.259
485	0.261
486	0.261
486	0.262
487	0.263
487	0.265
487	0.266
488	0.267
488	0.267
489	0.269
489	0.271
490	0.273
490	0.275
491	0.277
491	0.279
492	0.28
492	0.281
492	0.283
493	0.284
493	0.286
494	0.288
494	0.291
495	0.292
495	0.294
496	0.295
496	0.297
496	0.299
497	0.301
497	0.303
498	0.304
498	0.306
499	0.307
499	0.309
500	0.311
500	0.314
501	0.316
501	0.317
501	0.319
502	0.321
502	0.323
503	0.325
503	0.327
504	0.329
504	0.331
505	0.333
505	0.335
506	0.337
506	0.339
506	0.341
507	0.343
507	0.345
508	0.347
508	0.349
509	0.352
509	0.353
510	0.355
510	0.357
511	0.359
511	0.361
511	0.362
512	0.364
512	0.365
513	0.366
513	0.367
514	0.369
514	0.371
515	0.372
515	0.373
515	0.374
516	0.375
516	0.376
517	0.377
517	0.378
518	0.379
518	0.379
519	0.38
519	0.38
520	0.381
520	0.382
520	0.382
521	0.383
521	0.383
522	0.383
522	0.383
523	0.383
523	0.384
524	0.384
524	0.384
524	0.384
525	0.384
525	0.384
526	0.384
526	0.383
527	0.383
527	0.382
528	0.381
528	0.38
529	0.379
529	0.378
529	0.377
530	0.376
530	0.375
531	0.374
531	0.373
532	0.372
532	0.371
533	0.37
533	0.368
533	0.367
534	0.365
534	0.363
535	0.361
535	0.36
536	0.358
536	0.356
537	0.354
537	0.352
538	0.35
538	0.348
538	0.345
539	0.344
539	0.342
540	0.34
540	0.337
541	0.335
541	0.333
542	0.331
542	0.328
542	0.325
543	0.323
543	0.321
544	0.318
544	0.315
545	0.313
545	0.311
546	0.308
546	0.305
547	0.301
547	0.298
547	0.295
548	0.292
548	0.29
549	0.287
549	0.284
550	0.282
550	0.279
551	0.275
551	0.273
551	0.27
552	0.268
552	0.266
553	0.263
553	0.261
554	0.258
554	0.255
555	0.252
555	0.249
556	0.247
556	0.244
556	0.241
557	0.238
557	0.236
558	0.233
558	0.23
559	0.228
559	0.225
560	0.223
560	0.221
560	0.219
561	0.218
561	0.216
562	0.214
562	0.211
563	0.208
563	0.205
564	0.203
564	0.2
564	0.198
565	0.196
565	0.193
566	0.19
566	0.188
567	0.186
567	0.185
568	0.183
568	0.181
568	0.179
569	0.178
569	0.176
570	0.173
570	0.17
571	0.169
571	0.168
572	0.166
572	0.164
573	0.161
573	0.159
573	0.156
574	0.155
574	0.153
575	0.152
575	0.152
576	0.151
576	0.147
577	0.144
577	0.143
577	0.142
578	0.141
578	0.141
579	0.142
579	0.142
580	0.139
580	0.135
581	0.132
581	0.132
581	0.132
582	0.132
582	0.132
583	0.132
583	0.13
584	0.126
584	0.123
585	0.123
585	0.123
585	0.123
586	0.122
586	0.122
587	0.119
587	0.118
588	0.116
588	0.115
589	0.116
589	0.116
590	0.116
590	0.116
590	0.118
591	0.118
591	0.116
592	0.115
592	0.114
593	0.113
593	0.113
594	0.111
594	0.11
594	0.109
595	0.109
595	0.107
596	0.107
596	0.109
597	0.111
597	0.111
598	0.111
598	0.111
598	0.111
599	0.11
599	0.109
600	0.108
600	0.107
601	0.107
601	0.106
602	0.104
602	0.104
602	0.103
603	0.103
603	0.105
604	0.105
604	0.105
605	0.105
605	0.106
606	0.105
606	0.103
606	0.103
607	0.103
607	0.103
608	0.102
608	0.1
609	0.1
609	0.1
610	0.099
610	0.098
610	0.098
611	0.1
611	0.101
612	0.102
612	0.103
613	0.104
613	0.105
614	0.104
614	0.104
614	0.104
615	0.104
615	0.104
616	0.105
616	0.104
617	0.104
617	0.104
618	0.104
618	0.105
618	0.106
619	0.108
619	0.11
620	0.112
620	0.113
621	0.114
621	0.115
622	0.116
622	0.116
622	0.116
623	0.117
623	0.118
624	0.119
624	0.118
625	0.119
625	0.12
626	0.12
626	0.121
626	0.122
627	0.123
627	0.124
628	0.125
628	0.126
629	0.126
629	0.127
630	0.127
630	0.128
630	0.129
631	0.13
631	0.131
632	0.132
632	0.133
633	0.134
633	0.136
634	0.138
634	0.139
634	0.141
635	0.142
635	0.143
636	0.145
636	0.146
637	0.148
637	0.149
638	0.151
638	0.153
638	0.154
639	0.156
639	0.157
640	0.16
640	0.162
641	0.164
641	0.167
642	0.169
642	0.172
642	0.174
643	0.176
643	0.178
644	0.18
644	0.183
645	0.185
645	0.187
646	0.19
646	0.193
646	0.196
647	0.199
647	0.202
648	0.204
648	0.207
649	0.21
649	0.213
650	0.216
650	0.219
650	0.221
651	0.224
651	0.227
652	0.229
652	0.233
653	0.237
653	0.246
653	0.248
654	0.197
654	0.159
655	0.161
655	0.163
656	0.165
656	0.167
657	0.168
657	0.17
657	0.171
658	0.168
658	0.163
659	0.208
659	0.27
660	0.281
660	0.284
661	0.287
661	0.291
661	0.295
662	0.299
662	0.303
663	0.307
663	0.31
664	0.314
664	0.317
665	0.32
665	0.324
665	0.327
666	0.33
666	0.333
667	0.336
667	0.339
668	0.343
668	0.346
669	0.349
669	0.353
669	0.357
670	0.36
670	0.363
671	0.366
671	0.368
672	0.371
672	0.373
672	0.375
673	0.377
673	0.38
674	0.382
674	0.384
675	0.386
675	0.389
676	0.392
676	0.394
676	0.395
677	0.398
677	0.399
678	0.401
678	0.401
679	0.403
679	0.404
680	0.406
680	0.407
680	0.407
681	0.409
681	0.41
682	0.411
682	0.413
683	0.415
683	0.416
684	0.417
684	0.417
684	0.417
685	0.417
685	0.418
686	0.418
686	0.417
687	0.417
687	0.416
687	0.416
688	0.415
688	0.414
689	0.415
689	0.414
690	0.413
690	0.412
691	0.411
691	0.411
691	0.41
692	0.409
692	0.408
693	0.408
693	0.408
694	0.406
694	0.405
695	0.406
695	0.406
695	0.404
696	0.402
696	0.4
697	0.399
697	0.397
698	0.395
698	0.392
698	0.389
699	0.387
699	0.384
700	0.38
700	0.379
701	0.377
701	0.374
702	0.372
702	0.37
702	0.367
703	0.365
703	0.362
704	0.36
704	0.357
705	0.355
705	0.351
705	0.348
706	0.345
706	0.342
707	0.339
707	0.336
708	0.334
708	0.332
709	0.33
709	0.328
709	0.325
710	0.323
710	0.321
711	0.319
711	0.317
712	0.315
712	0.313
713	0.31
713	0.307
713	0.304
714	0.301
714	0.298
715	0.295
715	0.292
716	0.289
716	0.286
716	0.282
717	0.278
717	0.275
718	0.272
718	0.269
719	0.267
719	0.265
720	0.263
720	0.261
720	0.258
721	0.256
721	0.254
722	0.251
722	0.249
723	0.247
723	0.245
723	0.242
724	0.238
724	0.235
725	0.232
725	0.229
726	0.227
726	0.224
727	0.221
727	0.218
727	0.215
728	0.213
728	0.211
729	0.21
729	0.209
730	0.207
730	0.205
730	0.204
731	0.203
731	0.202
732	0.201
732	0.2
733	0.198
733	0.197
734	0.195
734	0.193
734	0.192
735	0.19
735	0.188
736	0.185
736	0.184
737	0.182
737	0.181
737	0.178
738	0.175
738	0.172
739	0.171
739	0.169
740	0.167
740	0.166
741	0.165
741	0.164
741	0.162
742	0.16
742	0.159
743	0.159
743	0.158
744	0.157
744	0.156
744	0.154
745	0.152
745	0.15
746	0.149
746	0.147
747	0.145
747	0.143
748	0.141
748	0.139
748	0.137
749	0.134
749	0.133
750	0.13
750	0.128
751	0.126
751	0.125
751	0.123
752	0.121
752	0.12
753	0.119
753	0.118
754	0.117
754	0.116
754	0.116
755	0.115
755	0.114
756	0.112
756	0.109
757	0.108
757	0.107
758	0.106
758	0.104
758	0.103
759	0.101
759	0.098
760	0.096
760	0.094
761	0.094
761	0.094
761	0.094
762	0.093
762	0.093
763	0.092
763	0.09
764	0.088
764	0.088
764	0.087
765	0.087
765	0.086
766	0.085
766	0.085
767	0.084
767	0.082
768	0.081
768	0.081
768	0.082
769	0.081
769	0.081
770	0.079
770	0.079
771	0.077
771	0.076
771	0.075
772	0.075
772	0.075
773	0.075
773	0.074
774	0.073
774	0.073
775	0.073
775	0.072
775	0.071
776	0.07
776	0.07
777	0.069
777	0.068
778	0.067
778	0.066
778	0.066
779	0.067
779	0.066
780	0.065
780	0.065
781	0.065
781	0.064
781	0.064
782	0.064
782	0.064
783	0.064
783	0.063
784	0.061
784	0.061
784	0.06
785	0.06
785	0.059
786	0.059
786	0.058
787	0.058
787	0.057
788	0.056
788	0.056
788	0.056
789	0.056
789	0.056
790	0.056
790	0.056
791	0.056
791	0.055
791	0.055
792	0.057
792	0.055
793	0.054
793	0.053
794	0.052
794	0.052
794	0.052
795	0.052
795	0.052
796	0.051
796	0.051
797	0.05
797	0.051
797	0.051
798	0.051
798	0.051
799	0.051
799	0.05
800	0.049
800	0.048
801	0.048
801	0.048
801	0.047
802	0.046
802	0.045
803	0.045
803	0.044
804	0.044
804	0.044
804	0.043
805	0.042
805	0.042
806	0.042
806	0.042
807	0.042
807	0.042
807	0.042
808	0.042
808	0.042
809	0.041
809	0.041
810	0.042
810	0.041
810	0.041
811	0.041
811	0.041
812	0.041
812	0.04
813	0.04
813	0.04
813	0.04
814	0.04
814	0.041
815	0.041
815	0.041
816	0.041
816	0.041
817	0.041
817	0.041
817	0.041
818	0.041
818	0.042
819	0.041
819	0.04
820	0.039
820	0.038
820	0.038
821	0.038
821	0.037
822	0.036
822	0.036
823	0.035
823	0.034
823	0.033
824	0.033
824	0.033
825	0.033
825	0.032
826	0.032
826	0.031
826	0.03
827	0.03
827	0.029
828	0.029
828	0.029
829	0.029
829	0.029
829	0.029
830	0.03
830	0.031
831	0.033
831	0.033
832	0.034
832	0.034
832	0.035
833	0.035
833	0.034
834	0.034
834	0.033
835	0.033
835	0.032
835	0.031
836	0.031
836	0.031
837	0.031
837	0.031
838	0.032
838	0.032
839	0.032
839	0.033
839	0.033
840	0.033
840	0.033
841	0.033
841	0.033
842	0.033
842	0.032
842	0.031
843	0.031
843	0.03
844	0.029
844	0.029
845	0.029
845	0.028
845	0.028
846	0.028
846	0.028
847	0.028
847	0.028
848	0.028
848	0.028
848	0.028
849	0.028
849	0.028
850	0.027
850	0.026
851	0.026
851	0.026
851	0.025
852	0.025
852	0.025
853	0.024
853	0.024
854	0.024
854	0.024
854	0.024
855	0.023
855	0.023
856	0.022
856	0.022
857	0.022
857	0.022
857	0.021
858	0.021
858	0.021
859	0.021
859	0.02
860	0.02
860	0.02
860	0.02
861	0.019
861	0.019
862	0.017
862	0.016
863	0.015
863	0.015
863	0.014
864	0.013
864	0.013
865	0.013
865	0.012
866	0.012
866	0.013
866	0.013
867	0.014
867	0.015
868	0.016
868	0.017
869	0.018
869	0.018
869	0.018
870	0.017
870	0.017
871	0.017
871	0.016
872	0.015
872	0.014
872	0.013
873	0.012
873	0.012
874	0.011
874	0.011
875	0.012
875	0.012
875	0.012
876	0.012
876	0.012
877	0.012
877	0.012
878	0.011
878	0.011
878	0.01
879	0.01
879	0.009
880	0.009
880	0.009
881	0.008
881	0.009
881	0.009
882	0.009
882	0.009
883	0.01
883	0.01
884	0.011
884	0.012
884	0.012
885	0.013
885	0.013
886	0.013
886	0.013
887	0.013
887	0.013
887	0.013
888	0.012
888	0.012
889	0.012
889	0.012
890	0.012
890	0.013
890	0.013
891	0.013
891	0.014
892	0.014
892	0.015
893	0.015
893	0.016
893	0.016
894	0.017
894	0.017
895	0.017
895	0.017
895	0.018
896	0.018
896	0.019
897	0.019
897	0.02
898	0.02
898	0.021
898	0.021
899	0.021
899	0.022
900	0.022
900	0.022
901	0.021
901	0.021
901	0.021
902	0.021
902	0.02
903	0.02
903	0.019
904	0.018
904	0.018
904	0.017
905	0.016
905	0.016
906	0.015
906	0.014
907	0.013
907	0.012
907	0.011
908	0.011
908	0.011
909	0.01
909	0.01
910	0.01
910	0.011
910	0.011
911	0.011
911	0.012
912	0.013
912	0.014
913	0.015
913	0.016
913	0.016
914	0.017
914	0.017
915	0.016
915	0.016
916	0.015
916	0.014
916	0.013
917	0.012
917	0.011
918	0.011
918	0.01
918	0.01
919	0.009
919	0.009
920	0.009
920	0.009
921	0.009
921	0.008
921	0.008
922	0.007
922	0.007
923	0.006
923	0.005
924	0.004
924	0.003
924	0.002
925	0.002
925	0.001
926	0
926	-0
927	-0.001
927	-0.001
927	-0.001
928	-0
928	0.001
929	0.002
929	0.003
930	0.005
930	0.007
930	0.01
931	0.012
931	0.014
932	0.016
932	0.018
933	0.02
933	0.021
933	0.022
934	0.022
934	0.022
935	0.022
935	0.021
935	0.021
936	0.02
936	0.02
937	0.019
937	0.019
938	0.018
938	0.018
938	0.017
939	0.017
939	0.018
940	0.017
940	0.017
941	0.017
941	0.017
941	0.017
942	0.016
942	0.016
943	0.015
943	0.014
944	0.014
944	0.013
944	0.013
945	0.013
945	0.012
946	0.012
946	0.011
946	0.01
947	0.01
947	0.009
948	0.008
948	0.007
949	0.007
949	0.006
949	0.006
950	0.006
950	0.006
951	0.006
951	0.005
952	0.005
952	0.004
952	0.004
953	0.004
953	0.004
954	0.003
954	0.002
955	0.001
955	0.001
955	0.001
956	0.001
956	0.001
957	0.001
957	0.001
957	0.001
958	0.001
958	0.001
959	0.002
959	0.002
960	0.001
960	0.001
960	0.001
961	-0
961	-0
962	-0.001
962	-0.001
963	-0.001
963	-0.002
963	-0.002
964	-0.001
964	-0.001
965	0
965	0.001
966	0.002
966	0.003
966	0.005
967	0.005
967	0.006
968	0.007
968	0.007
968	0.007
969	0.007
969	0.007
970	0.007
970	0.006
971	0.006
971	0.006
971	0.006
972	0.006
972	0.006
973	0.006
973	0.006
974	0.007
974	0.007
974	0.008
975	0.009
975	0.009
976	0.01
976	0.011
976	0.012
977	0.012
977	0.012
978	0.012
978	0.012
979	0.012
979	0.013
979	0.013
980	0.013
980	0.013
981	0.013
981	0.013
982	0.014
982	0.014
982	0.015
983	0.016
983	0.016
984	0.017
984	0.017
984	0.017
985	0.017
985	0.017
986	0.017
986	0.016
987	0.015
987	0.014
987	0.014
988	0.013
988	0.012
989	0.011
989	0.01
990	0.01
990	0.009
990	0.009
991	0.009
991	0.01
992	0.01
992	0.01
992	0.009
993	0.009
993	0.009
994	0.009
994	0.008
995	0.008
995	0.007
995	0.006
996	0.006
996	0.005
997	0.004
997	0.004
997	0.004
998	0.004
998	0.005
999	0.005
999	0.006
1000	0.006
1000	0.007
1000	0.007
1001	0.008
1001	0.009
1002	0.009
1002	0.009
1003	0.009
1003	0.009
1003	0.009
1004	0.008
1004	0.008
1005	0.007
1005	0.006
1005	0.005
1006	0.004
1006	0.004
1007	0.003
1007	0.002
1008	0.002
1008	0.002
1008	0.002
1009	0.002
1009	0.003
1010	0.003
1010	0.003
1010	0.004
1011	0.004
1011	0.004
1012	0.004
1012	0.005
1013	0.005
1013	0.005
1013	0.004
1014	0.004
1014	0.003
1015	0.002
1015	0.001
1016	0
1016	-0.001
1016	-0.002
1017	-0.003
1017	-0.004
1018	-0.005
1018	-0.006
1018	-0.007
1019	-0.007
1019	-0.007
1020	-0.008
1020	-0.008
1021	-0.009
1021	-0.009
1021	-0.009
1022	-0.009
1022	-0.009
1023	-0.009
1023	-0.01
1023	-0.01
1024	-0.011
1024	-0.012
1025	-0.012
1025	-0.013
1026	-0.013
1026	-0.014
1026	-0.015
1027	-0.015
1027	-0.015
1028	-0.016
1028	-0.016
1028	-0.016
1029	-0.016
1029	-0.016
1030	-0.016
1030	-0.016
1031	-0.016
1031	-0.016
1031	-0.016
1032	-0.017
1032	-0.016
1033	-0.016
1033	-0.016
1033	-0.016
1034	-0.016
1034	-0.016
1035	-0.017
1035	-0.017
1036	-0.017
1036	-0.017
1036	-0.017
1037	-0.017
1037	-0.017
1038	-0.017
1038	-0.017
1039	-0.017
1039	-0.016
1039	-0.016
1040	-0.015
1040	-0.015
1041	-0.015
1041	-0.016
1041	-0.016
1042	-0.017
1042	-0.018
1043	-0.018
1043	-0.02
1044	-0.021
1044	-0.022
1044	-0.023
1045	-0.024
1045	-0.025
1046	-0.026
1046	-0.027
1046	-0.027
1047	-0.027
1047	-0.028
1048	-0.027
1048	-0.028
1049	-0.028
1049	-0.029
1049	-0.029
1050	-0.03
1050	-0.031
1051	-0.031
1051	-0.032
1051	-0.033
1052	-0.033
1052	-0.034
1053	-0.035
1053	-0.035
1053	-0.036
1054	-0.036
1054	-0.036
1055	-0.035
1055	-0.035
1056	-0.035
1056	-0.036
1056	-0.036
1057	-0.037
1057	-0.037
1058	-0.037
1058	-0.037
1058	-0.037
1059	-0.037
1059	-0.038
1060	-0.038
1060	-0.038
1061	-0.038
1061	-0.039
1061	-0.038
1062	-0.039
1062	-0.04
1063	-0.04
1063	-0.04
1063	-0.041
1064	-0.041
1064	-0.041
1065	-0.041
1065	-0.041
1066	-0.041
1066	-0.041
1066	-0.04
1067	-0.04
1067	-0.04
1068	-0.039
1068	-0.039
1068	-0.039
1069	-0.039
1069	-0.04
1070	-0.04
1070	-0.041
1071	-0.041
1071	-0.041
1071	-0.042
1072	-0.042
1072	-0.043
1073	-0.043
1073	-0.043
1073	-0.044
1074	-0.044
1074	-0.044
1075	-0.046
1075	-0.047
1076	-0.048
1076	-0.049
1076	-0.05
1077	-0.052
1077	-0.052
1078	-0.053
1078	-0.054
1078	-0.054
1079	-0.054
1079	-0.054
1080	-0.054
1080	-0.054
1080	-0.055
1081	-0.055
1081	-0.055
1082	-0.055
1082	-0.056
1083	-0.056
1083	-0.057
1083	-0.057
1084	-0.058
1084	-0.058
1085	-0.058
1085	-0.058
1085	-0.058
1086	-0.059
1086	-0.06
1087	-0.06
1087	-0.06
1088	-0.06
1088	-0.061
1088	-0.061
1089	-0.062
1089	-0.063
1090	-0.064
1090	-0.065
1090	-0.066
1091	-0.067
1091	-0.067
1092	-0.068
1092	-0.068
1092	-0.069
1093	-0.069
1093	-0.07
1094	-0.071
1094	-0.072
1095	-0.073
1095	-0.074
1095	-0.075
1096	-0.077
1096	-0.078
1097	-0.079
1097	-0.081
1097	-0.082
1098	-0.084
1098	-0.086
1099	-0.087
1099	-0.088
1100	-0.09
1100	-0.092
1100	-0.094
1101	-0.096
1101	-0.098
1102	-0.1
1102	-0.102
1102	-0.103
1103	-0.105
1103	-0.107
1104	-0.109
1104	-0.111
1104	-0.112
1105	-0.113
1105	-0.116
1106	-0.119
1106	-0.121
1107	-0.125
1107	-0.128
1107	-0.131
1108	-0.132
1108	-0.132
1109	-0.135
1109	-0.139
1109	-0.143
1110	-0.144
1110	-0.147
1111	-0.151
1111	-0.145
