Data from 15c-stair-power-variation_Absorbance__3__03613.txt Node

Date: Tue Jan 16 15:42:07 CET 2024
User: Marek
Spectrometer: MAYP115816
Trigger mode: 0
Integration Time (sec): 2.000000E-1
Scans to average: 10
Electric dark correction enabled: true
Nonlinearity correction enabled: true
Boxcar width: 5
XAxis mode: Wavelengths
Number of Pixels in Spectrum: 2068
>>>>>Begin Spectral Data<<<<<
199	-2.162
199	-1.976
200	-1.844
200	-1.727
201	-1.656
201	-1.606
202	-1.532
202	-1.473
203	-1.427
203	-1.381
204	-1.357
204	-1.332
205	-1.314
205	-1.302
205	-1.3
206	-1.295
206	-1.291
207	-1.289
207	-1.289
208	-1.285
208	-1.283
209	-1.279
209	-1.277
210	-1.276
210	-1.273
211	-1.272
211	-1.271
212	-1.27
212	-1.27
213	-1.268
213	-1.267
213	-1.268
214	-1.266
214	-1.265
215	-1.265
215	-1.265
216	-1.262
216	-1.261
217	-1.258
217	-1.256
218	-1.252
218	-1.249
219	-1.244
219	-1.243
220	-1.241
220	-1.24
221	-1.236
221	-1.235
221	-1.23
222	-1.226
222	-1.221
223	-1.216
223	-1.21
224	-1.205
224	-1.197
225	-1.188
225	-1.179
226	-1.17
226	-1.16
227	-1.147
227	-1.134
228	-1.119
228	-1.102
229	-1.081
229	-1.057
229	-1.032
230	-1.003
230	-0.971
231	-0.936
231	-0.897
232	-0.858
232	-0.816
233	-0.771
233	-0.724
234	-0.678
234	-0.63
235	-0.583
235	-0.537
236	-0.49
236	-0.445
236	-0.401
237	-0.359
237	-0.318
238	-0.28
238	-0.244
239	-0.21
239	-0.179
240	-0.15
240	-0.122
241	-0.097
241	-0.074
242	-0.053
242	-0.034
243	-0.015
243	0.001
243	0.016
244	0.03
244	0.043
245	0.055
245	0.066
246	0.076
246	0.085
247	0.094
247	0.102
248	0.109
248	0.116
249	0.123
249	0.129
250	0.134
250	0.14
250	0.145
251	0.149
251	0.154
252	0.158
252	0.162
253	0.166
253	0.169
254	0.172
254	0.175
255	0.178
255	0.181
256	0.183
256	0.185
257	0.188
257	0.189
258	0.191
258	0.193
258	0.194
259	0.196
259	0.196
260	0.198
260	0.199
261	0.199
261	0.2
262	0.201
262	0.201
263	0.202
263	0.202
264	0.203
264	0.203
265	0.203
265	0.203
265	0.203
266	0.203
266	0.203
267	0.203
267	0.203
268	0.203
268	0.202
269	0.202
269	0.201
270	0.2
270	0.2
271	0.199
271	0.198
272	0.197
272	0.197
272	0.196
273	0.195
273	0.195
274	0.194
274	0.194
275	0.193
275	0.192
276	0.192
276	0.191
277	0.19
277	0.189
278	0.188
278	0.187
278	0.186
279	0.184
279	0.183
280	0.182
280	0.182
281	0.181
281	0.18
282	0.18
282	0.18
283	0.179
283	0.179
284	0.179
284	0.179
285	0.179
285	0.179
285	0.178
286	0.178
286	0.177
287	0.177
287	0.177
288	0.176
288	0.176
289	0.176
289	0.175
290	0.175
290	0.175
291	0.174
291	0.174
292	0.174
292	0.173
292	0.173
293	0.173
293	0.173
294	0.172
294	0.172
295	0.172
295	0.172
296	0.172
296	0.171
297	0.171
297	0.171
298	0.171
298	0.171
298	0.171
299	0.171
299	0.17
300	0.17
300	0.17
301	0.17
301	0.17
302	0.17
302	0.17
303	0.17
303	0.17
304	0.17
304	0.17
305	0.17
305	0.17
305	0.169
306	0.169
306	0.169
307	0.169
307	0.168
308	0.168
308	0.167
309	0.167
309	0.167
310	0.167
310	0.167
311	0.166
311	0.166
311	0.166
312	0.166
312	0.166
313	0.165
313	0.165
314	0.165
314	0.164
315	0.164
315	0.163
316	0.163
316	0.162
317	0.162
317	0.162
318	0.161
318	0.161
318	0.161
319	0.16
319	0.16
320	0.159
320	0.159
321	0.158
321	0.158
322	0.157
322	0.157
323	0.156
323	0.156
324	0.156
324	0.155
324	0.155
325	0.155
325	0.154
326	0.154
326	0.154
327	0.153
327	0.153
328	0.152
328	0.152
329	0.151
329	0.151
330	0.15
330	0.15
330	0.149
331	0.149
331	0.148
332	0.148
332	0.147
333	0.147
333	0.147
334	0.146
334	0.146
335	0.145
335	0.145
336	0.144
336	0.144
336	0.143
337	0.143
337	0.142
338	0.141
338	0.141
339	0.14
339	0.14
340	0.139
340	0.139
341	0.139
341	0.138
342	0.138
342	0.138
342	0.137
343	0.137
343	0.136
344	0.136
344	0.135
345	0.135
345	0.135
346	0.134
346	0.133
347	0.133
347	0.132
348	0.132
348	0.132
348	0.131
349	0.13
349	0.13
350	0.129
350	0.128
351	0.128
351	0.127
352	0.126
352	0.125
353	0.125
353	0.124
354	0.123
354	0.122
354	0.121
355	0.12
355	0.119
356	0.119
356	0.118
357	0.117
357	0.117
358	0.117
358	0.118
359	0.118
359	0.119
360	0.119
360	0.12
360	0.121
361	0.121
361	0.122
362	0.122
362	0.122
363	0.122
363	0.122
364	0.122
364	0.122
365	0.121
365	0.121
366	0.121
366	0.121
366	0.121
367	0.121
367	0.121
368	0.12
368	0.12
369	0.12
369	0.119
370	0.119
370	0.119
371	0.118
371	0.118
372	0.118
372	0.117
372	0.117
373	0.117
373	0.117
374	0.117
374	0.117
375	0.117
375	0.117
376	0.117
376	0.117
377	0.118
377	0.118
378	0.118
378	0.119
378	0.119
379	0.12
379	0.12
380	0.12
380	0.12
381	0.12
381	0.12
382	0.12
382	0.12
383	0.119
383	0.119
383	0.118
384	0.118
384	0.118
385	0.118
385	0.118
386	0.118
386	0.118
387	0.118
387	0.117
388	0.117
388	0.117
389	0.117
389	0.117
389	0.117
390	0.117
390	0.118
391	0.118
391	0.118
392	0.118
392	0.119
393	0.119
393	0.119
394	0.119
394	0.119
394	0.118
395	0.118
395	0.118
396	0.118
396	0.118
397	0.118
397	0.119
398	0.119
398	0.119
399	0.119
399	0.119
400	0.119
400	0.119
400	0.118
401	0.117
401	0.116
402	0.115
402	0.114
403	0.114
403	0.114
404	0.114
404	0.113
405	0.113
405	0.113
405	0.113
406	0.113
406	0.113
407	0.113
407	0.113
408	0.112
408	0.112
409	0.111
409	0.111
410	0.111
410	0.111
411	0.111
411	0.111
411	0.111
412	0.11
412	0.11
413	0.11
413	0.11
414	0.109
414	0.109
415	0.109
415	0.108
416	0.108
416	0.107
416	0.107
417	0.106
417	0.106
418	0.106
418	0.107
419	0.107
419	0.108
420	0.109
420	0.11
421	0.11
421	0.11
421	0.111
422	0.111
422	0.111
423	0.111
423	0.111
424	0.11
424	0.109
425	0.108
425	0.107
426	0.106
426	0.106
427	0.106
427	0.106
427	0.106
428	0.107
428	0.108
429	0.108
429	0.108
430	0.108
430	0.108
431	0.108
431	0.108
432	0.107
432	0.107
432	0.105
433	0.104
433	0.103
434	0.102
434	0.102
435	0.102
435	0.102
436	0.101
436	0.102
437	0.101
437	0.101
437	0.102
438	0.101
438	0.101
439	0.101
439	0.1
440	0.1
440	0.1
441	0.1
441	0.101
442	0.101
442	0.102
442	0.102
443	0.103
443	0.103
444	0.104
444	0.104
445	0.105
445	0.105
446	0.105
446	0.104
447	0.104
447	0.104
447	0.103
448	0.103
448	0.102
449	0.102
449	0.101
450	0.101
450	0.101
451	0.1
451	0.099
452	0.099
452	0.098
452	0.098
453	0.097
453	0.096
454	0.095
454	0.095
455	0.094
455	0.094
456	0.094
456	0.093
457	0.093
457	0.092
458	0.092
458	0.092
458	0.093
459	0.093
459	0.093
460	0.092
460	0.091
461	0.09
461	0.09
462	0.09
462	0.09
463	0.09
463	0.09
463	0.09
464	0.09
464	0.09
465	0.09
465	0.09
466	0.09
466	0.089
467	0.089
467	0.088
467	0.087
468	0.085
468	0.082
469	0.081
469	0.079
470	0.078
470	0.077
471	0.077
471	0.076
472	0.076
472	0.076
472	0.076
473	0.077
473	0.077
474	0.078
474	0.079
475	0.079
475	0.08
476	0.08
476	0.08
477	0.08
477	0.08
477	0.08
478	0.08
478	0.08
479	0.08
479	0.08
480	0.081
480	0.081
481	0.081
481	0.081
482	0.081
482	0.082
482	0.083
483	0.084
483	0.086
484	0.089
484	0.09
485	0.091
485	0.092
486	0.093
486	0.093
487	0.093
487	0.093
487	0.093
488	0.092
488	0.089
489	0.087
489	0.085
490	0.083
490	0.082
491	0.081
491	0.081
492	0.081
492	0.08
492	0.08
493	0.08
493	0.081
494	0.082
494	0.084
495	0.084
495	0.085
496	0.085
496	0.085
496	0.085
497	0.085
497	0.086
498	0.085
498	0.085
499	0.084
499	0.083
500	0.083
500	0.084
501	0.085
501	0.085
501	0.086
502	0.087
502	0.087
503	0.088
503	0.088
504	0.088
504	0.088
505	0.088
505	0.088
506	0.087
506	0.087
506	0.087
507	0.086
507	0.086
508	0.086
508	0.085
509	0.085
509	0.085
510	0.085
510	0.085
511	0.084
511	0.084
511	0.084
512	0.083
512	0.082
513	0.081
513	0.08
514	0.08
514	0.08
515	0.08
515	0.079
515	0.077
516	0.076
516	0.074
517	0.074
517	0.074
518	0.075
518	0.075
519	0.075
519	0.074
520	0.073
520	0.071
520	0.069
521	0.067
521	0.065
522	0.062
522	0.058
523	0.054
523	0.051
524	0.049
524	0.048
524	0.048
525	0.049
525	0.052
526	0.055
526	0.059
527	0.065
527	0.07
528	0.075
528	0.08
529	0.085
529	0.089
529	0.092
530	0.095
530	0.097
531	0.1
531	0.101
532	0.103
532	0.104
533	0.106
533	0.107
533	0.108
534	0.109
534	0.11
535	0.11
535	0.111
536	0.112
536	0.113
537	0.114
537	0.115
538	0.115
538	0.116
538	0.116
539	0.116
539	0.118
540	0.118
540	0.119
541	0.119
541	0.119
542	0.119
542	0.12
542	0.12
543	0.121
543	0.122
544	0.122
544	0.123
545	0.123
545	0.125
546	0.126
546	0.127
547	0.128
547	0.128
547	0.127
548	0.127
548	0.127
549	0.127
549	0.127
550	0.127
550	0.127
551	0.127
551	0.128
551	0.128
552	0.129
552	0.13
553	0.132
553	0.134
554	0.135
554	0.136
555	0.136
555	0.135
556	0.134
556	0.133
556	0.132
557	0.131
557	0.131
558	0.13
558	0.13
559	0.131
559	0.133
560	0.134
560	0.136
560	0.138
561	0.14
561	0.143
562	0.144
562	0.145
563	0.145
563	0.145
564	0.144
564	0.143
564	0.142
565	0.142
565	0.142
566	0.143
566	0.143
567	0.145
567	0.148
568	0.152
568	0.155
568	0.159
569	0.164
569	0.168
570	0.171
570	0.173
571	0.176
571	0.179
572	0.181
572	0.183
573	0.184
573	0.186
573	0.186
574	0.186
574	0.187
575	0.187
575	0.19
576	0.193
576	0.193
577	0.193
577	0.192
577	0.192
578	0.192
578	0.193
579	0.196
579	0.199
580	0.2
580	0.199
581	0.196
581	0.195
581	0.194
582	0.195
582	0.195
583	0.197
583	0.197
584	0.195
584	0.19
585	0.189
585	0.188
585	0.189
586	0.189
586	0.19
587	0.189
587	0.186
588	0.184
588	0.182
589	0.18
589	0.179
590	0.178
590	0.177
590	0.178
591	0.18
591	0.18
592	0.18
592	0.179
593	0.179
593	0.179
594	0.179
594	0.178
594	0.177
595	0.176
595	0.175
596	0.172
596	0.173
597	0.175
597	0.177
598	0.179
598	0.18
598	0.181
599	0.182
599	0.182
600	0.181
600	0.18
601	0.179
601	0.177
602	0.174
602	0.172
602	0.17
603	0.168
603	0.168
604	0.168
604	0.169
605	0.17
605	0.171
606	0.172
606	0.171
606	0.17
607	0.169
607	0.168
608	0.167
608	0.164
609	0.162
609	0.16
610	0.158
610	0.155
610	0.153
611	0.153
611	0.153
612	0.153
612	0.154
613	0.156
613	0.157
614	0.157
614	0.156
614	0.155
615	0.154
615	0.153
616	0.152
616	0.151
617	0.149
617	0.147
618	0.144
618	0.142
618	0.14
619	0.14
619	0.14
620	0.141
620	0.142
621	0.142
621	0.142
622	0.141
622	0.142
622	0.141
623	0.14
623	0.141
624	0.141
624	0.14
625	0.139
625	0.138
626	0.137
626	0.136
626	0.135
627	0.135
627	0.134
628	0.133
628	0.132
629	0.131
629	0.13
630	0.129
630	0.127
630	0.126
631	0.125
631	0.124
632	0.123
632	0.121
633	0.121
633	0.12
634	0.12
634	0.121
634	0.122
635	0.123
635	0.123
636	0.124
636	0.124
637	0.125
637	0.125
638	0.125
638	0.126
638	0.126
639	0.125
639	0.124
640	0.125
640	0.125
641	0.126
641	0.126
642	0.127
642	0.128
642	0.129
643	0.13
643	0.13
644	0.13
644	0.131
645	0.132
645	0.132
646	0.133
646	0.135
646	0.138
647	0.14
647	0.142
648	0.144
648	0.146
649	0.148
649	0.15
650	0.152
650	0.154
650	0.156
651	0.157
651	0.158
652	0.158
652	0.159
653	0.161
653	0.169
653	0.178
654	0.154
654	0.135
655	0.137
655	0.138
656	0.139
656	0.14
657	0.14
657	0.141
657	0.141
658	0.136
658	0.128
659	0.148
659	0.174
660	0.176
660	0.177
661	0.177
661	0.178
661	0.179
662	0.182
662	0.184
663	0.187
663	0.189
664	0.192
664	0.193
665	0.195
665	0.197
665	0.199
666	0.201
666	0.202
667	0.204
667	0.205
668	0.206
668	0.208
669	0.209
669	0.211
669	0.215
670	0.218
670	0.22
671	0.222
671	0.223
672	0.224
672	0.224
672	0.225
673	0.226
673	0.226
674	0.227
674	0.226
675	0.226
675	0.226
676	0.228
676	0.229
676	0.23
677	0.232
677	0.234
678	0.236
678	0.237
679	0.239
679	0.24
680	0.242
680	0.243
680	0.243
681	0.243
681	0.244
682	0.246
682	0.247
683	0.248
683	0.251
684	0.254
684	0.255
684	0.255
685	0.256
685	0.258
686	0.26
686	0.26
687	0.261
687	0.261
687	0.261
688	0.26
688	0.26
689	0.261
689	0.262
690	0.263
690	0.263
691	0.264
691	0.265
691	0.266
692	0.267
692	0.268
693	0.269
693	0.271
694	0.271
694	0.271
695	0.272
695	0.275
695	0.277
696	0.277
696	0.277
697	0.277
697	0.277
698	0.277
698	0.276
698	0.274
699	0.274
699	0.272
700	0.27
700	0.269
701	0.269
701	0.268
702	0.268
702	0.267
702	0.267
703	0.266
703	0.266
704	0.265
704	0.265
705	0.265
705	0.265
705	0.265
706	0.264
706	0.263
707	0.263
707	0.261
708	0.261
708	0.26
709	0.26
709	0.259
709	0.257
710	0.255
710	0.254
711	0.254
711	0.253
712	0.253
712	0.253
713	0.253
713	0.252
713	0.251
714	0.25
714	0.248
715	0.247
715	0.246
716	0.244
716	0.243
716	0.241
717	0.24
717	0.239
718	0.237
718	0.236
719	0.236
719	0.236
720	0.236
720	0.235
720	0.234
721	0.232
721	0.23
722	0.229
722	0.227
723	0.225
723	0.224
723	0.223
724	0.22
724	0.218
725	0.216
725	0.215
726	0.213
726	0.212
727	0.21
727	0.209
727	0.208
728	0.207
728	0.206
729	0.207
729	0.207
730	0.206
730	0.206
730	0.205
731	0.205
731	0.205
732	0.205
732	0.204
733	0.203
733	0.202
734	0.2
734	0.199
734	0.198
735	0.197
735	0.195
736	0.193
736	0.191
737	0.189
737	0.189
737	0.188
738	0.185
738	0.182
739	0.18
739	0.177
740	0.174
740	0.172
741	0.171
741	0.168
741	0.164
742	0.158
742	0.154
743	0.151
743	0.148
744	0.146
744	0.144
744	0.142
745	0.14
745	0.138
746	0.137
746	0.137
747	0.137
747	0.138
748	0.138
748	0.138
748	0.138
749	0.138
749	0.138
750	0.138
750	0.137
751	0.137
751	0.138
751	0.138
752	0.138
752	0.137
753	0.136
753	0.136
754	0.136
754	0.136
754	0.136
755	0.137
755	0.138
756	0.139
756	0.137
757	0.135
757	0.135
758	0.134
758	0.132
758	0.131
759	0.131
759	0.129
760	0.125
760	0.121
761	0.117
761	0.116
761	0.115
762	0.114
762	0.116
763	0.118
763	0.119
764	0.117
764	0.115
764	0.113
765	0.112
765	0.111
766	0.11
766	0.112
767	0.113
767	0.111
768	0.106
768	0.102
768	0.102
769	0.103
769	0.105
770	0.106
770	0.105
771	0.104
771	0.101
771	0.098
772	0.096
772	0.095
773	0.094
773	0.092
774	0.09
774	0.087
775	0.085
775	0.084
775	0.083
776	0.081
776	0.08
777	0.08
777	0.08
778	0.08
778	0.08
778	0.08
779	0.082
779	0.086
780	0.088
780	0.09
781	0.092
781	0.093
781	0.094
782	0.094
782	0.094
783	0.094
783	0.095
784	0.094
784	0.092
784	0.091
785	0.089
785	0.088
786	0.087
786	0.088
787	0.091
787	0.092
788	0.092
788	0.092
788	0.091
789	0.089
789	0.09
790	0.091
790	0.092
791	0.091
791	0.09
791	0.089
792	0.092
792	0.097
793	0.1
793	0.102
794	0.102
794	0.101
794	0.099
795	0.098
795	0.098
796	0.097
796	0.096
797	0.091
797	0.086
797	0.082
798	0.079
798	0.077
799	0.077
799	0.077
800	0.077
800	0.075
801	0.073
801	0.072
801	0.071
802	0.07
802	0.069
803	0.068
803	0.067
804	0.067
804	0.07
804	0.073
805	0.075
805	0.076
806	0.076
806	0.077
807	0.077
807	0.078
807	0.078
808	0.078
808	0.078
809	0.075
809	0.072
810	0.07
810	0.069
810	0.067
811	0.065
811	0.065
812	0.068
812	0.069
813	0.068
813	0.068
813	0.067
814	0.066
814	0.067
815	0.068
815	0.07
816	0.071
816	0.07
817	0.067
817	0.065
817	0.065
818	0.065
818	0.067
819	0.069
819	0.07
820	0.069
820	0.067
820	0.066
821	0.066
821	0.067
822	0.067
822	0.068
823	0.068
823	0.067
823	0.065
824	0.065
824	0.067
825	0.069
825	0.073
826	0.076
826	0.076
826	0.077
827	0.078
827	0.078
828	0.078
828	0.077
829	0.077
829	0.076
829	0.074
830	0.072
830	0.07
831	0.071
831	0.073
832	0.073
832	0.074
832	0.075
833	0.076
833	0.077
834	0.079
834	0.08
835	0.081
835	0.081
835	0.081
836	0.081
836	0.082
837	0.083
837	0.083
838	0.084
838	0.084
839	0.085
839	0.085
839	0.086
840	0.087
840	0.088
841	0.089
841	0.09
842	0.091
842	0.093
842	0.094
843	0.096
843	0.097
844	0.098
844	0.1
845	0.101
845	0.102
845	0.104
846	0.105
846	0.107
847	0.109
847	0.111
848	0.113
848	0.115
848	0.116
849	0.118
849	0.119
850	0.12
850	0.12
851	0.121
851	0.122
851	0.122
852	0.123
852	0.123
853	0.124
853	0.125
854	0.125
854	0.126
854	0.127
855	0.127
855	0.128
856	0.128
856	0.128
857	0.129
857	0.129
857	0.129
858	0.129
858	0.129
859	0.129
859	0.129
860	0.13
860	0.13
860	0.129
861	0.13
861	0.13
862	0.129
862	0.129
863	0.129
863	0.129
863	0.129
864	0.128
864	0.128
865	0.129
865	0.129
866	0.129
866	0.13
866	0.131
867	0.132
867	0.133
868	0.134
868	0.135
869	0.135
869	0.135
869	0.135
870	0.135
870	0.134
871	0.134
871	0.133
872	0.132
872	0.131
872	0.13
873	0.13
873	0.129
874	0.129
874	0.129
875	0.13
875	0.131
875	0.132
876	0.132
876	0.133
877	0.133
877	0.133
878	0.132
878	0.132
878	0.131
879	0.13
879	0.129
880	0.128
880	0.127
881	0.127
881	0.127
881	0.127
882	0.127
882	0.127
883	0.127
883	0.128
884	0.129
884	0.129
884	0.13
885	0.13
885	0.131
886	0.131
886	0.132
887	0.132
887	0.132
887	0.132
888	0.132
888	0.133
889	0.133
889	0.134
890	0.134
890	0.134
890	0.135
891	0.135
891	0.135
892	0.136
892	0.136
893	0.137
893	0.137
893	0.138
894	0.138
894	0.138
895	0.138
895	0.138
895	0.138
896	0.138
896	0.138
897	0.139
897	0.139
898	0.139
898	0.14
898	0.14
899	0.141
899	0.141
900	0.141
900	0.142
901	0.142
901	0.142
901	0.141
902	0.141
902	0.141
903	0.14
903	0.139
904	0.138
904	0.137
904	0.136
905	0.135
905	0.134
906	0.134
906	0.133
907	0.132
907	0.132
907	0.131
908	0.131
908	0.131
909	0.131
909	0.131
910	0.131
910	0.131
910	0.132
911	0.132
911	0.132
912	0.133
912	0.133
913	0.134
913	0.134
913	0.135
914	0.135
914	0.135
915	0.135
915	0.135
916	0.134
916	0.134
916	0.133
917	0.133
917	0.132
918	0.132
918	0.131
918	0.131
919	0.131
919	0.131
920	0.131
920	0.131
921	0.132
921	0.131
921	0.131
922	0.131
922	0.131
923	0.13
923	0.129
924	0.128
924	0.127
924	0.126
925	0.125
925	0.123
926	0.123
926	0.122
927	0.121
927	0.121
927	0.12
928	0.121
928	0.121
929	0.122
929	0.124
930	0.126
930	0.128
930	0.13
931	0.132
931	0.134
932	0.136
932	0.138
933	0.14
933	0.142
933	0.143
934	0.145
934	0.146
935	0.147
935	0.147
935	0.149
936	0.15
936	0.152
937	0.154
937	0.156
938	0.158
938	0.16
938	0.163
939	0.165
939	0.167
940	0.169
940	0.171
941	0.172
941	0.173
941	0.174
942	0.174
942	0.173
943	0.173
943	0.172
944	0.171
944	0.17
944	0.17
945	0.17
945	0.169
946	0.169
946	0.167
946	0.166
947	0.165
947	0.163
948	0.161
948	0.159
949	0.157
949	0.155
949	0.153
950	0.151
950	0.148
951	0.146
951	0.143
952	0.142
952	0.14
952	0.139
953	0.138
953	0.136
954	0.135
954	0.133
955	0.132
955	0.131
955	0.131
956	0.131
956	0.13
957	0.129
957	0.128
957	0.127
958	0.126
958	0.125
959	0.125
959	0.124
960	0.123
960	0.122
960	0.121
961	0.119
961	0.118
962	0.117
962	0.117
963	0.117
963	0.116
963	0.116
964	0.115
964	0.115
965	0.115
965	0.116
966	0.116
966	0.116
966	0.117
967	0.117
967	0.117
968	0.116
968	0.116
968	0.116
969	0.115
969	0.115
970	0.115
970	0.115
971	0.114
971	0.114
971	0.114
972	0.114
972	0.115
973	0.115
973	0.115
974	0.116
974	0.117
974	0.117
975	0.118
975	0.119
976	0.119
976	0.12
976	0.121
977	0.121
977	0.121
978	0.122
978	0.122
979	0.123
979	0.123
979	0.123
980	0.123
980	0.123
981	0.123
981	0.124
982	0.124
982	0.125
982	0.126
983	0.126
983	0.126
984	0.126
984	0.126
984	0.126
985	0.126
985	0.125
986	0.124
986	0.124
987	0.123
987	0.122
987	0.121
988	0.121
988	0.12
989	0.12
989	0.119
990	0.119
990	0.119
990	0.119
991	0.12
991	0.12
992	0.121
992	0.121
992	0.121
993	0.12
993	0.12
994	0.119
994	0.118
995	0.117
995	0.116
995	0.115
996	0.114
996	0.112
997	0.112
997	0.111
997	0.111
998	0.111
998	0.112
999	0.113
999	0.113
1000	0.114
1000	0.115
1000	0.116
1001	0.117
1001	0.118
1002	0.118
1002	0.119
1003	0.119
1003	0.12
1003	0.12
1004	0.12
1004	0.119
1005	0.118
1005	0.118
1005	0.117
1006	0.117
1006	0.116
1007	0.116
1007	0.116
1008	0.116
1008	0.116
1008	0.117
1009	0.117
1009	0.118
1010	0.119
1010	0.119
1010	0.119
1011	0.12
1011	0.12
1012	0.12
1012	0.121
1013	0.12
1013	0.12
1013	0.12
1014	0.119
1014	0.119
1015	0.118
1015	0.117
1016	0.117
1016	0.116
1016	0.115
1017	0.114
1017	0.113
1018	0.113
1018	0.112
1018	0.112
1019	0.112
1019	0.112
1020	0.111
1020	0.111
1021	0.11
1021	0.11
1021	0.11
1022	0.109
1022	0.109
1023	0.108
1023	0.107
1023	0.106
1024	0.105
1024	0.103
1025	0.102
1025	0.101
1026	0.099
1026	0.098
1026	0.097
1027	0.096
1027	0.096
1028	0.095
1028	0.095
1028	0.094
1029	0.094
1029	0.094
1030	0.094
1030	0.093
1031	0.093
1031	0.094
1031	0.093
1032	0.093
1032	0.094
1033	0.094
1033	0.095
1033	0.095
1034	0.095
1034	0.095
1035	0.095
1035	0.095
1036	0.096
1036	0.097
1036	0.097
1037	0.098
1037	0.099
1038	0.099
1038	0.1
1039	0.101
1039	0.102
1039	0.103
1040	0.104
1040	0.105
1041	0.104
1041	0.104
1041	0.104
1042	0.103
1042	0.103
1043	0.102
1043	0.102
1044	0.101
1044	0.101
1044	0.101
1045	0.101
1045	0.101
1046	0.1
1046	0.101
1046	0.102
1047	0.102
1047	0.103
1048	0.103
1048	0.104
1049	0.104
1049	0.103
1049	0.103
1050	0.103
1050	0.103
1051	0.103
1051	0.103
1051	0.104
1052	0.104
1052	0.104
1053	0.105
1053	0.105
1053	0.106
1054	0.107
1054	0.108
1055	0.109
1055	0.11
1056	0.11
1056	0.11
1056	0.11
1057	0.109
1057	0.11
1058	0.11
1058	0.11
1058	0.111
1059	0.111
1059	0.111
1060	0.112
1060	0.112
1061	0.113
1061	0.114
1061	0.114
1062	0.114
1062	0.114
1063	0.114
1063	0.114
1063	0.114
1064	0.115
1064	0.117
1065	0.117
1065	0.118
1066	0.119
1066	0.121
1066	0.122
1067	0.124
1067	0.125
1068	0.126
1068	0.127
1068	0.128
1069	0.128
1069	0.128
1070	0.129
1070	0.13
1071	0.131
1071	0.133
1071	0.134
1072	0.135
1072	0.138
1073	0.14
1073	0.142
1073	0.144
1074	0.145
1074	0.147
1075	0.148
1075	0.149
1076	0.149
1076	0.151
1076	0.152
1077	0.153
1077	0.154
1078	0.156
1078	0.158
1078	0.161
1079	0.163
1079	0.167
1080	0.169
1080	0.173
1080	0.174
1081	0.176
1081	0.178
1082	0.181
1082	0.183
1083	0.186
1083	0.188
1083	0.192
1084	0.195
1084	0.199
1085	0.203
1085	0.207
1085	0.212
1086	0.216
1086	0.22
1087	0.224
1087	0.228
1088	0.232
1088	0.237
1088	0.242
1089	0.248
1089	0.255
1090	0.263
1090	0.271
1090	0.28
1091	0.29
1091	0.302
1092	0.314
1092	0.328
1092	0.341
1093	0.354
1093	0.371
1094	0.387
1094	0.402
1095	0.416
1095	0.436
1095	0.458
1096	0.477
1096	0.498
1097	0.525
1097	0.551
1097	0.583
1098	0.61
1098	0.645
1099	0.692
1099	0.752
1100	0.824
1100	0.923
1100	1.055
1101	1.269
1101	1.74
1102	-0
1102	-0
1102	-0
1103	-0
1103	-0
1104	-0
1104	-0
1104	-0
1105	-0
1105	-0
1106	-0
1106	-0
1107	-0
1107	-0
1107	-0
1108	-0
1108	-0
1109	-0
1109	-0
1109	-0
1110	-0
1110	-0
1111	-0
1111	-0
