Data from 15c-stair-power-variation_Absorbance__426__04036.txt Node

Date: Tue Jan 16 15:56:13 CET 2024
User: Marek
Spectrometer: MAYP115816
Trigger mode: 0
Integration Time (sec): 2.000000E-1
Scans to average: 10
Electric dark correction enabled: true
Nonlinearity correction enabled: true
Boxcar width: 5
XAxis mode: Wavelengths
Number of Pixels in Spectrum: 2068
>>>>>Begin Spectral Data<<<<<
199	-2.018
199	-1.831
200	-1.698
200	-1.579
201	-1.506
201	-1.455
202	-1.38
202	-1.32
203	-1.273
203	-1.226
204	-1.199
204	-1.175
205	-1.155
205	-1.143
205	-1.141
206	-1.136
206	-1.133
207	-1.13
207	-1.13
208	-1.126
208	-1.126
209	-1.121
209	-1.119
210	-1.119
210	-1.116
211	-1.115
211	-1.115
212	-1.114
212	-1.113
213	-1.111
213	-1.11
213	-1.111
214	-1.109
214	-1.107
215	-1.106
215	-1.107
216	-1.103
216	-1.102
217	-1.1
217	-1.097
218	-1.094
218	-1.09
219	-1.086
219	-1.085
220	-1.082
220	-1.081
221	-1.077
221	-1.076
221	-1.071
222	-1.067
222	-1.061
223	-1.056
223	-1.051
224	-1.046
224	-1.037
225	-1.028
225	-1.018
226	-1.009
226	-1
227	-0.986
227	-0.974
228	-0.958
228	-0.942
229	-0.921
229	-0.898
229	-0.872
230	-0.844
230	-0.812
231	-0.777
231	-0.738
232	-0.699
232	-0.656
233	-0.61
233	-0.563
234	-0.516
234	-0.468
235	-0.42
235	-0.372
236	-0.325
236	-0.279
236	-0.234
237	-0.19
237	-0.148
238	-0.109
238	-0.072
239	-0.036
239	-0.003
240	0.028
240	0.056
241	0.083
241	0.107
242	0.129
242	0.15
243	0.17
243	0.187
243	0.204
244	0.219
244	0.233
245	0.245
245	0.257
246	0.268
246	0.279
247	0.288
247	0.297
248	0.305
248	0.313
249	0.32
249	0.326
250	0.332
250	0.338
250	0.343
251	0.348
251	0.353
252	0.358
252	0.362
253	0.365
253	0.369
254	0.372
254	0.375
255	0.378
255	0.381
256	0.383
256	0.386
257	0.388
257	0.39
258	0.391
258	0.392
258	0.394
259	0.395
259	0.395
260	0.396
260	0.397
261	0.398
261	0.398
262	0.398
262	0.398
263	0.398
263	0.398
264	0.398
264	0.398
265	0.398
265	0.398
265	0.398
266	0.397
266	0.397
267	0.396
267	0.395
268	0.395
268	0.393
269	0.392
269	0.391
270	0.39
270	0.388
271	0.387
271	0.385
272	0.384
272	0.383
272	0.381
273	0.379
273	0.378
274	0.377
274	0.375
275	0.374
275	0.372
276	0.37
276	0.369
277	0.367
277	0.365
278	0.363
278	0.361
278	0.359
279	0.357
279	0.355
280	0.353
280	0.351
281	0.35
281	0.348
282	0.347
282	0.345
283	0.344
283	0.343
284	0.342
284	0.341
285	0.34
285	0.339
285	0.337
286	0.336
286	0.335
287	0.333
287	0.332
288	0.331
288	0.329
289	0.328
289	0.327
290	0.326
290	0.324
291	0.323
291	0.322
292	0.321
292	0.32
292	0.318
293	0.317
293	0.316
294	0.315
294	0.314
295	0.313
295	0.312
296	0.311
296	0.31
297	0.309
297	0.309
298	0.308
298	0.307
298	0.306
299	0.306
299	0.305
300	0.304
300	0.303
301	0.303
301	0.302
302	0.301
302	0.301
303	0.3
303	0.299
304	0.298
304	0.297
305	0.297
305	0.296
305	0.295
306	0.294
306	0.293
307	0.292
307	0.291
308	0.29
308	0.289
309	0.288
309	0.288
310	0.287
310	0.286
311	0.285
311	0.284
311	0.283
312	0.283
312	0.282
313	0.281
313	0.28
314	0.279
314	0.278
315	0.277
315	0.276
316	0.276
316	0.275
317	0.274
317	0.273
318	0.272
318	0.271
318	0.271
319	0.27
319	0.269
320	0.268
320	0.267
321	0.266
321	0.265
322	0.264
322	0.263
323	0.262
323	0.261
324	0.261
324	0.26
324	0.259
325	0.258
325	0.258
326	0.257
326	0.256
327	0.255
327	0.254
328	0.254
328	0.253
329	0.252
329	0.251
330	0.25
330	0.25
330	0.249
331	0.248
331	0.247
332	0.246
332	0.245
333	0.245
333	0.244
334	0.243
334	0.242
335	0.242
335	0.241
336	0.24
336	0.239
336	0.238
337	0.238
337	0.237
338	0.236
338	0.236
339	0.235
339	0.235
340	0.234
340	0.233
341	0.233
341	0.232
342	0.231
342	0.231
342	0.23
343	0.229
343	0.229
344	0.228
344	0.228
345	0.227
345	0.226
346	0.226
346	0.225
347	0.224
347	0.224
348	0.223
348	0.223
348	0.222
349	0.221
349	0.221
350	0.22
350	0.22
351	0.219
351	0.218
352	0.218
352	0.217
353	0.216
353	0.215
354	0.215
354	0.214
354	0.213
355	0.212
355	0.211
356	0.21
356	0.21
357	0.209
357	0.208
358	0.208
358	0.208
359	0.209
359	0.209
360	0.209
360	0.21
360	0.21
361	0.211
361	0.211
362	0.212
362	0.212
363	0.212
363	0.211
364	0.211
364	0.211
365	0.21
365	0.21
366	0.21
366	0.209
366	0.209
367	0.209
367	0.208
368	0.208
368	0.208
369	0.207
369	0.207
370	0.207
370	0.206
371	0.206
371	0.205
372	0.205
372	0.205
372	0.204
373	0.204
373	0.204
374	0.203
374	0.203
375	0.203
375	0.203
376	0.203
376	0.203
377	0.203
377	0.203
378	0.203
378	0.203
378	0.204
379	0.204
379	0.204
380	0.204
380	0.204
381	0.204
381	0.203
382	0.203
382	0.203
383	0.202
383	0.202
383	0.202
384	0.201
384	0.201
385	0.2
385	0.201
386	0.2
386	0.2
387	0.2
387	0.2
388	0.199
388	0.199
389	0.199
389	0.199
389	0.199
390	0.199
390	0.198
391	0.199
391	0.199
392	0.199
392	0.199
393	0.199
393	0.199
394	0.199
394	0.199
394	0.198
395	0.198
395	0.198
396	0.198
396	0.198
397	0.198
397	0.198
398	0.198
398	0.198
399	0.198
399	0.197
400	0.197
400	0.197
400	0.196
401	0.196
401	0.195
402	0.194
402	0.193
403	0.192
403	0.192
404	0.192
404	0.192
405	0.191
405	0.191
405	0.191
406	0.191
406	0.191
407	0.191
407	0.191
408	0.19
408	0.19
409	0.189
409	0.189
410	0.189
410	0.189
411	0.189
411	0.189
411	0.189
412	0.188
412	0.188
413	0.188
413	0.187
414	0.187
414	0.186
415	0.186
415	0.185
416	0.185
416	0.185
416	0.184
417	0.184
417	0.184
418	0.184
418	0.184
419	0.185
419	0.185
420	0.186
420	0.186
421	0.187
421	0.187
421	0.187
422	0.187
422	0.187
423	0.187
423	0.187
424	0.186
424	0.185
425	0.184
425	0.183
426	0.183
426	0.182
427	0.182
427	0.182
427	0.183
428	0.183
428	0.184
429	0.184
429	0.184
430	0.185
430	0.184
431	0.184
431	0.184
432	0.184
432	0.183
432	0.182
433	0.181
433	0.18
434	0.179
434	0.179
435	0.179
435	0.179
436	0.179
436	0.179
437	0.179
437	0.179
437	0.179
438	0.179
438	0.179
439	0.178
439	0.178
440	0.178
440	0.178
441	0.178
441	0.178
442	0.179
442	0.179
442	0.18
443	0.18
443	0.181
444	0.181
444	0.181
445	0.182
445	0.182
446	0.182
446	0.182
447	0.181
447	0.181
447	0.181
448	0.18
448	0.18
449	0.18
449	0.179
450	0.179
450	0.179
451	0.179
451	0.178
452	0.178
452	0.178
452	0.177
453	0.177
453	0.176
454	0.175
454	0.175
455	0.174
455	0.174
456	0.174
456	0.174
457	0.174
457	0.174
458	0.174
458	0.174
458	0.175
459	0.175
459	0.175
460	0.175
460	0.175
461	0.174
461	0.174
462	0.174
462	0.175
463	0.175
463	0.176
463	0.176
464	0.176
464	0.176
465	0.177
465	0.177
466	0.177
466	0.177
467	0.177
467	0.176
467	0.176
468	0.174
468	0.173
469	0.172
469	0.171
470	0.171
470	0.17
471	0.17
471	0.17
472	0.17
472	0.17
472	0.17
473	0.172
473	0.173
474	0.174
474	0.175
475	0.175
475	0.176
476	0.177
476	0.177
477	0.178
477	0.178
477	0.179
478	0.179
478	0.18
479	0.18
479	0.181
480	0.182
480	0.183
481	0.184
481	0.184
482	0.185
482	0.186
482	0.188
483	0.19
483	0.192
484	0.195
484	0.197
485	0.198
485	0.2
486	0.201
486	0.202
487	0.203
487	0.204
487	0.204
488	0.204
488	0.203
489	0.202
489	0.201
490	0.201
490	0.201
491	0.201
491	0.202
492	0.203
492	0.203
492	0.204
493	0.205
493	0.206
494	0.209
494	0.211
495	0.213
495	0.214
496	0.215
496	0.216
496	0.218
497	0.219
497	0.22
498	0.22
498	0.221
499	0.222
499	0.222
500	0.223
500	0.224
501	0.226
501	0.228
501	0.229
502	0.231
502	0.233
503	0.235
503	0.237
504	0.238
504	0.239
505	0.24
505	0.24
506	0.241
506	0.242
506	0.243
507	0.244
507	0.244
508	0.245
508	0.245
509	0.247
509	0.248
510	0.249
510	0.249
511	0.249
511	0.25
511	0.25
512	0.251
512	0.252
513	0.252
513	0.252
514	0.251
514	0.251
515	0.251
515	0.25
515	0.25
516	0.25
516	0.25
517	0.251
517	0.251
518	0.251
518	0.251
519	0.25
519	0.249
520	0.248
520	0.246
520	0.244
521	0.242
521	0.239
522	0.237
522	0.235
523	0.233
523	0.233
524	0.234
524	0.235
524	0.237
525	0.239
525	0.242
526	0.244
526	0.247
527	0.25
527	0.252
528	0.254
528	0.255
529	0.256
529	0.257
529	0.257
530	0.257
530	0.257
531	0.257
531	0.257
532	0.256
532	0.255
533	0.255
533	0.255
533	0.254
534	0.254
534	0.253
535	0.252
535	0.251
536	0.25
536	0.249
537	0.248
537	0.247
538	0.246
538	0.245
538	0.243
539	0.242
539	0.241
540	0.24
540	0.238
541	0.236
541	0.234
542	0.233
542	0.231
542	0.229
543	0.227
543	0.225
544	0.224
544	0.222
545	0.22
545	0.22
546	0.219
546	0.217
547	0.215
547	0.213
547	0.21
548	0.208
548	0.205
549	0.203
549	0.201
550	0.198
550	0.196
551	0.193
551	0.191
551	0.189
552	0.187
552	0.186
553	0.185
553	0.184
554	0.183
554	0.181
555	0.179
555	0.176
556	0.173
556	0.17
556	0.167
557	0.164
557	0.162
558	0.159
558	0.157
559	0.155
559	0.154
560	0.153
560	0.151
560	0.151
561	0.151
561	0.15
562	0.149
562	0.148
563	0.146
563	0.143
564	0.141
564	0.138
564	0.136
565	0.134
565	0.133
566	0.131
566	0.13
567	0.129
567	0.129
568	0.13
568	0.13
568	0.13
569	0.132
569	0.133
570	0.133
570	0.132
571	0.132
571	0.133
572	0.132
572	0.132
573	0.131
573	0.13
573	0.128
574	0.127
574	0.126
575	0.125
575	0.126
576	0.126
576	0.124
577	0.122
577	0.12
577	0.119
578	0.118
578	0.119
579	0.12
579	0.121
580	0.12
580	0.117
581	0.114
581	0.113
581	0.112
582	0.113
582	0.113
583	0.113
583	0.112
584	0.108
584	0.104
585	0.102
585	0.102
585	0.102
586	0.102
586	0.101
587	0.099
587	0.097
588	0.095
588	0.093
589	0.092
589	0.092
590	0.091
590	0.091
590	0.092
591	0.093
591	0.092
592	0.092
592	0.091
593	0.09
593	0.09
594	0.089
594	0.088
594	0.087
595	0.087
595	0.085
596	0.083
596	0.084
597	0.087
597	0.088
598	0.088
598	0.089
598	0.09
599	0.09
599	0.09
600	0.089
600	0.088
601	0.087
601	0.086
602	0.084
602	0.083
602	0.082
603	0.081
603	0.082
604	0.082
604	0.083
605	0.084
605	0.085
606	0.085
606	0.084
606	0.083
607	0.083
607	0.082
608	0.081
608	0.08
609	0.078
609	0.078
610	0.076
610	0.075
610	0.074
611	0.075
611	0.076
612	0.077
612	0.078
613	0.08
613	0.081
614	0.081
614	0.081
614	0.081
615	0.081
615	0.08
616	0.08
616	0.079
617	0.079
617	0.078
618	0.077
618	0.077
618	0.077
619	0.078
619	0.079
620	0.081
620	0.082
621	0.083
621	0.084
622	0.085
622	0.086
622	0.086
623	0.087
623	0.088
624	0.089
624	0.088
625	0.088
625	0.089
626	0.089
626	0.089
626	0.09
627	0.09
627	0.091
628	0.091
628	0.092
629	0.092
629	0.092
630	0.092
630	0.091
630	0.092
631	0.093
631	0.093
632	0.093
632	0.093
633	0.094
633	0.095
634	0.096
634	0.098
634	0.1
635	0.102
635	0.103
636	0.104
636	0.106
637	0.107
637	0.108
638	0.11
638	0.111
638	0.113
639	0.113
639	0.114
640	0.116
640	0.118
641	0.12
641	0.122
642	0.124
642	0.126
642	0.128
643	0.13
643	0.131
644	0.133
644	0.136
645	0.138
645	0.14
646	0.142
646	0.145
646	0.149
647	0.152
647	0.155
648	0.158
648	0.161
649	0.164
649	0.167
650	0.17
650	0.173
650	0.176
651	0.178
651	0.181
652	0.183
652	0.185
653	0.189
653	0.199
653	0.206
654	0.168
654	0.139
655	0.142
655	0.144
656	0.146
656	0.148
657	0.15
657	0.151
657	0.152
658	0.148
658	0.141
659	0.176
659	0.223
660	0.229
660	0.231
661	0.233
661	0.236
661	0.239
662	0.242
662	0.246
663	0.25
663	0.253
664	0.256
664	0.259
665	0.262
665	0.265
665	0.268
666	0.271
666	0.274
667	0.276
667	0.279
668	0.282
668	0.285
669	0.288
669	0.291
669	0.296
670	0.3
670	0.304
671	0.307
671	0.309
672	0.311
672	0.312
672	0.314
673	0.315
673	0.317
674	0.319
674	0.319
675	0.32
675	0.321
676	0.323
676	0.326
676	0.328
677	0.33
677	0.332
678	0.334
678	0.335
679	0.337
679	0.338
680	0.34
680	0.342
680	0.342
681	0.343
681	0.344
682	0.346
682	0.347
683	0.349
683	0.351
684	0.353
684	0.354
684	0.354
685	0.355
685	0.356
686	0.357
686	0.357
687	0.357
687	0.356
687	0.356
688	0.355
688	0.353
689	0.354
689	0.354
690	0.354
690	0.353
691	0.353
691	0.353
691	0.353
692	0.352
692	0.352
693	0.352
693	0.352
694	0.352
694	0.35
695	0.351
695	0.352
695	0.352
696	0.351
696	0.349
697	0.349
697	0.347
698	0.345
698	0.343
698	0.341
699	0.339
699	0.336
700	0.332
700	0.33
701	0.328
701	0.326
702	0.324
702	0.322
702	0.32
703	0.319
703	0.317
704	0.315
704	0.313
705	0.311
705	0.309
705	0.307
706	0.305
706	0.303
707	0.301
707	0.298
708	0.296
708	0.294
709	0.293
709	0.291
709	0.288
710	0.285
710	0.282
711	0.281
711	0.279
712	0.277
712	0.275
713	0.273
713	0.271
713	0.269
714	0.266
714	0.263
715	0.26
715	0.257
716	0.254
716	0.251
716	0.247
717	0.244
717	0.241
718	0.238
718	0.235
719	0.234
719	0.232
720	0.23
720	0.228
720	0.225
721	0.223
721	0.22
722	0.218
722	0.215
723	0.213
723	0.21
723	0.208
724	0.205
724	0.201
725	0.198
725	0.195
726	0.193
726	0.19
727	0.188
727	0.185
727	0.183
728	0.181
728	0.179
729	0.178
729	0.177
730	0.176
730	0.175
730	0.174
731	0.173
731	0.172
732	0.172
732	0.17
733	0.169
733	0.167
734	0.165
734	0.163
734	0.161
735	0.159
735	0.157
736	0.154
736	0.152
737	0.15
737	0.148
737	0.146
738	0.143
738	0.14
739	0.137
739	0.135
740	0.133
740	0.131
741	0.13
741	0.128
741	0.126
742	0.122
742	0.119
743	0.118
743	0.116
744	0.114
744	0.112
744	0.11
745	0.107
745	0.104
746	0.102
746	0.1
747	0.099
747	0.098
748	0.097
748	0.096
748	0.094
749	0.092
749	0.091
750	0.09
750	0.088
751	0.087
751	0.086
751	0.086
752	0.084
752	0.082
753	0.081
753	0.081
754	0.08
754	0.079
754	0.079
755	0.079
755	0.079
756	0.077
756	0.075
757	0.073
757	0.072
758	0.071
758	0.069
758	0.067
759	0.065
759	0.062
760	0.059
760	0.055
761	0.053
761	0.052
761	0.05
762	0.048
762	0.047
763	0.046
763	0.044
764	0.041
764	0.039
764	0.038
765	0.036
765	0.034
766	0.033
766	0.033
767	0.032
767	0.029
768	0.026
768	0.025
768	0.024
769	0.023
769	0.022
770	0.021
770	0.019
771	0.017
771	0.014
771	0.012
772	0.01
772	0.008
773	0.006
773	0.004
774	0.001
774	-0.002
775	-0.005
775	-0.008
775	-0.011
776	-0.015
776	-0.018
777	-0.022
777	-0.026
778	-0.03
778	-0.034
778	-0.038
779	-0.041
779	-0.042
780	-0.046
780	-0.05
781	-0.054
781	-0.057
781	-0.061
782	-0.064
782	-0.068
783	-0.071
783	-0.074
784	-0.076
784	-0.079
784	-0.081
785	-0.083
785	-0.085
786	-0.085
786	-0.083
787	-0.079
787	-0.076
788	-0.075
788	-0.075
788	-0.076
789	-0.078
789	-0.078
790	-0.075
790	-0.074
791	-0.074
791	-0.076
791	-0.078
792	-0.073
792	-0.064
793	-0.058
793	-0.054
794	-0.053
794	-0.054
794	-0.058
795	-0.06
795	-0.059
796	-0.059
796	-0.062
797	-0.07
797	-0.079
797	-0.085
798	-0.09
798	-0.093
799	-0.093
799	-0.093
800	-0.093
800	-0.095
801	-0.098
801	-0.1
801	-0.1
802	-0.102
802	-0.104
803	-0.105
803	-0.105
804	-0.104
804	-0.099
804	-0.093
805	-0.09
805	-0.088
806	-0.086
806	-0.084
807	-0.083
807	-0.082
807	-0.082
808	-0.081
808	-0.082
809	-0.086
809	-0.091
810	-0.094
810	-0.096
810	-0.099
811	-0.101
811	-0.101
812	-0.097
812	-0.094
813	-0.094
813	-0.095
813	-0.096
814	-0.097
814	-0.097
815	-0.094
815	-0.092
816	-0.09
816	-0.09
817	-0.095
817	-0.098
817	-0.099
818	-0.098
818	-0.095
819	-0.09
819	-0.087
820	-0.088
820	-0.09
820	-0.092
821	-0.091
821	-0.089
822	-0.086
822	-0.082
823	-0.078
823	-0.077
823	-0.077
824	-0.074
824	-0.068
825	-0.061
825	-0.053
826	-0.047
826	-0.042
826	-0.037
827	-0.032
827	-0.028
828	-0.024
828	-0.021
829	-0.018
829	-0.014
829	-0.012
830	-0.01
830	-0.007
831	-0.003
831	0
832	0.002
832	0.005
832	0.006
833	0.008
833	0.009
834	0.01
834	0.011
835	0.012
835	0.011
835	0.011
836	0.012
836	0.012
837	0.013
837	0.014
838	0.014
838	0.015
839	0.015
839	0.016
839	0.016
840	0.017
840	0.018
841	0.018
841	0.018
842	0.019
842	0.019
842	0.019
843	0.019
843	0.019
844	0.019
844	0.019
845	0.019
845	0.019
845	0.02
846	0.02
846	0.021
847	0.022
847	0.023
848	0.024
848	0.025
848	0.026
849	0.026
849	0.027
850	0.027
850	0.027
851	0.028
851	0.028
851	0.028
852	0.028
852	0.028
853	0.028
853	0.029
854	0.029
854	0.03
854	0.03
855	0.03
855	0.03
856	0.03
856	0.03
857	0.031
857	0.031
857	0.031
858	0.031
858	0.03
859	0.03
859	0.029
860	0.029
860	0.029
860	0.028
861	0.028
861	0.028
862	0.026
862	0.026
863	0.025
863	0.025
863	0.024
864	0.024
864	0.024
865	0.024
865	0.024
866	0.024
866	0.024
866	0.025
867	0.026
867	0.027
868	0.028
868	0.029
869	0.03
869	0.031
869	0.031
870	0.031
870	0.03
871	0.03
871	0.03
872	0.029
872	0.028
872	0.027
873	0.026
873	0.025
874	0.025
874	0.025
875	0.025
875	0.026
875	0.026
876	0.026
876	0.026
877	0.026
877	0.026
878	0.026
878	0.026
878	0.026
879	0.025
879	0.024
880	0.024
880	0.023
881	0.023
881	0.023
881	0.023
882	0.023
882	0.023
883	0.023
883	0.024
884	0.025
884	0.025
884	0.026
885	0.027
885	0.028
886	0.028
886	0.029
887	0.03
887	0.03
887	0.03
888	0.03
888	0.03
889	0.03
889	0.03
890	0.031
890	0.031
890	0.032
891	0.032
891	0.032
892	0.033
892	0.034
893	0.034
893	0.035
893	0.035
894	0.036
894	0.036
895	0.036
895	0.037
895	0.037
896	0.038
896	0.038
897	0.039
897	0.039
898	0.04
898	0.041
898	0.041
899	0.041
899	0.042
900	0.042
900	0.042
901	0.042
901	0.041
901	0.041
902	0.041
902	0.041
903	0.04
903	0.039
904	0.039
904	0.038
904	0.037
905	0.036
905	0.036
906	0.035
906	0.034
907	0.033
907	0.033
907	0.032
908	0.032
908	0.032
909	0.032
909	0.032
910	0.032
910	0.032
910	0.032
911	0.033
911	0.034
912	0.034
912	0.035
913	0.036
913	0.037
913	0.037
914	0.037
914	0.037
915	0.037
915	0.036
916	0.036
916	0.035
916	0.034
917	0.033
917	0.032
918	0.032
918	0.031
918	0.031
919	0.031
919	0.03
920	0.03
920	0.03
921	0.03
921	0.03
921	0.029
922	0.029
922	0.028
923	0.027
923	0.026
924	0.025
924	0.024
924	0.023
925	0.022
925	0.022
926	0.021
926	0.02
927	0.02
927	0.02
927	0.02
928	0.02
928	0.021
929	0.022
929	0.023
930	0.025
930	0.027
930	0.029
931	0.031
931	0.034
932	0.036
932	0.038
933	0.04
933	0.042
933	0.043
934	0.044
934	0.044
935	0.044
935	0.044
935	0.044
936	0.044
936	0.044
937	0.044
937	0.044
938	0.044
938	0.044
938	0.044
939	0.044
939	0.045
940	0.045
940	0.045
941	0.045
941	0.045
941	0.045
942	0.044
942	0.044
943	0.043
943	0.042
944	0.041
944	0.041
944	0.04
945	0.04
945	0.039
946	0.039
946	0.038
946	0.037
947	0.036
947	0.035
948	0.035
948	0.034
949	0.033
949	0.032
949	0.032
950	0.032
950	0.032
951	0.032
951	0.031
952	0.031
952	0.031
952	0.031
953	0.031
953	0.031
954	0.03
954	0.029
955	0.029
955	0.029
955	0.028
956	0.029
956	0.029
957	0.028
957	0.028
957	0.028
958	0.027
958	0.027
959	0.027
959	0.027
960	0.027
960	0.026
960	0.026
961	0.025
961	0.025
962	0.024
962	0.024
963	0.024
963	0.024
963	0.024
964	0.024
964	0.025
965	0.025
965	0.026
966	0.027
966	0.028
966	0.03
967	0.03
967	0.031
968	0.032
968	0.032
968	0.032
969	0.032
969	0.032
970	0.032
970	0.032
971	0.031
971	0.031
971	0.031
972	0.031
972	0.031
973	0.032
973	0.032
974	0.033
974	0.033
974	0.034
975	0.035
975	0.036
976	0.037
976	0.038
976	0.038
977	0.039
977	0.039
978	0.039
978	0.039
979	0.039
979	0.04
979	0.04
980	0.04
980	0.04
981	0.04
981	0.04
982	0.041
982	0.042
982	0.043
983	0.044
983	0.044
984	0.045
984	0.045
984	0.046
985	0.046
985	0.046
986	0.046
986	0.045
987	0.044
987	0.044
987	0.043
988	0.042
988	0.042
989	0.041
989	0.04
990	0.04
990	0.039
990	0.039
991	0.039
991	0.04
992	0.04
992	0.04
992	0.04
993	0.039
993	0.039
994	0.039
994	0.038
995	0.038
995	0.037
995	0.037
996	0.036
996	0.035
997	0.035
997	0.035
997	0.035
998	0.035
998	0.035
999	0.036
999	0.036
1000	0.037
1000	0.038
1000	0.038
1001	0.039
1001	0.039
1002	0.039
1002	0.04
1003	0.039
1003	0.039
1003	0.039
1004	0.038
1004	0.038
1005	0.037
1005	0.036
1005	0.035
1006	0.034
1006	0.034
1007	0.033
1007	0.033
1008	0.033
1008	0.033
1008	0.033
1009	0.033
1009	0.033
1010	0.034
1010	0.034
1010	0.035
1011	0.035
1011	0.036
1012	0.036
1012	0.036
1013	0.037
1013	0.036
1013	0.036
1014	0.036
1014	0.035
1015	0.034
1015	0.033
1016	0.032
1016	0.031
1016	0.03
1017	0.028
1017	0.027
1018	0.026
1018	0.025
1018	0.025
1019	0.024
1019	0.024
1020	0.024
1020	0.023
1021	0.023
1021	0.023
1021	0.023
1022	0.023
1022	0.023
1023	0.023
1023	0.023
1023	0.023
1024	0.022
1024	0.022
1025	0.021
1025	0.021
1026	0.02
1026	0.02
1026	0.019
1027	0.019
1027	0.019
1028	0.019
1028	0.019
1028	0.019
1029	0.019
1029	0.019
1030	0.019
1030	0.02
1031	0.02
1031	0.02
1031	0.02
1032	0.021
1032	0.021
1033	0.022
1033	0.022
1033	0.022
1034	0.022
1034	0.021
1035	0.021
1035	0.021
1036	0.021
1036	0.021
1036	0.021
1037	0.022
1037	0.022
1038	0.022
1038	0.023
1039	0.024
1039	0.024
1039	0.025
1040	0.025
1040	0.026
1041	0.026
1041	0.026
1041	0.025
1042	0.025
1042	0.024
1043	0.024
1043	0.023
1044	0.022
1044	0.022
1044	0.021
1045	0.02
1045	0.02
1046	0.019
1046	0.019
1046	0.019
1047	0.019
1047	0.02
1048	0.02
1048	0.02
1049	0.02
1049	0.019
1049	0.019
1050	0.018
1050	0.017
1051	0.017
1051	0.017
1051	0.017
1052	0.016
1052	0.016
1053	0.016
1053	0.016
1053	0.016
1054	0.017
1054	0.017
1055	0.018
1055	0.019
1056	0.019
1056	0.019
1056	0.019
1057	0.019
1057	0.019
1058	0.02
1058	0.02
1058	0.021
1059	0.022
1059	0.022
1060	0.023
1060	0.023
1061	0.024
1061	0.024
1061	0.025
1062	0.025
1062	0.025
1063	0.025
1063	0.025
1063	0.025
1064	0.025
1064	0.026
1065	0.027
1065	0.027
1066	0.028
1066	0.029
1066	0.03
1067	0.032
1067	0.033
1068	0.033
1068	0.035
1068	0.035
1069	0.036
1069	0.036
1070	0.037
1070	0.037
1071	0.038
1071	0.039
1071	0.04
1072	0.041
1072	0.042
1073	0.043
1073	0.044
1073	0.045
1074	0.046
1074	0.046
1075	0.046
1075	0.046
1076	0.046
1076	0.047
1076	0.047
1077	0.047
1077	0.048
1078	0.049
1078	0.05
1078	0.052
1079	0.054
1079	0.056
1080	0.058
1080	0.06
1080	0.061
1081	0.063
1081	0.064
1082	0.065
1082	0.067
1083	0.068
1083	0.068
1083	0.07
1084	0.071
1084	0.073
1085	0.075
1085	0.077
1085	0.079
1086	0.081
1086	0.083
1087	0.085
1087	0.087
1088	0.089
1088	0.091
1088	0.094
1089	0.096
1089	0.099
1090	0.103
1090	0.106
1090	0.11
1091	0.115
1091	0.119
1092	0.125
1092	0.131
1092	0.136
1093	0.141
1093	0.148
1094	0.154
1094	0.159
1095	0.165
1095	0.173
1095	0.182
1096	0.19
1096	0.199
1097	0.21
1097	0.22
1097	0.232
1098	0.244
1098	0.257
1099	0.272
1099	0.288
1100	0.307
1100	0.326
1100	0.347
1101	0.371
1101	0.395
1102	0.429
1102	0.466
1102	0.511
1103	0.562
1103	0.625
1104	0.708
1104	0.805
1104	0.95
1105	1.177
1105	1.644
1106	-0
1106	-0
1107	-0
1107	-0
1107	-0
1108	-0
1108	-0
1109	-0
1109	-0
1109	-0
1110	-0
1110	-0
1111	-0
1111	-0
