Data from 15c-stair-power-variation_Absorbance__307__03917.txt Node

Date: Tue Jan 16 15:52:15 CET 2024
User: Marek
Spectrometer: MAYP115816
Trigger mode: 0
Integration Time (sec): 2.000000E-1
Scans to average: 10
Electric dark correction enabled: true
Nonlinearity correction enabled: true
Boxcar width: 5
XAxis mode: Wavelengths
Number of Pixels in Spectrum: 2068
>>>>>Begin Spectral Data<<<<<
199	-2.239
199	-2.05
200	-1.915
200	-1.795
201	-1.721
201	-1.669
202	-1.592
202	-1.53
203	-1.481
203	-1.432
204	-1.405
204	-1.38
205	-1.36
205	-1.348
205	-1.345
206	-1.34
206	-1.336
207	-1.334
207	-1.333
208	-1.329
208	-1.328
209	-1.323
209	-1.321
210	-1.32
210	-1.317
211	-1.316
211	-1.315
212	-1.314
212	-1.313
213	-1.311
213	-1.31
213	-1.31
214	-1.308
214	-1.307
215	-1.306
215	-1.306
216	-1.303
216	-1.301
217	-1.298
217	-1.296
218	-1.292
218	-1.288
219	-1.283
219	-1.282
220	-1.28
220	-1.279
221	-1.274
221	-1.273
221	-1.269
222	-1.264
222	-1.259
223	-1.254
223	-1.249
224	-1.243
224	-1.235
225	-1.226
225	-1.216
226	-1.208
226	-1.198
227	-1.185
227	-1.172
228	-1.156
228	-1.139
229	-1.118
229	-1.094
229	-1.069
230	-1.039
230	-1.007
231	-0.971
231	-0.931
232	-0.891
232	-0.848
233	-0.801
233	-0.753
234	-0.705
234	-0.655
235	-0.604
235	-0.555
236	-0.506
236	-0.457
236	-0.409
237	-0.363
237	-0.318
238	-0.275
238	-0.234
239	-0.195
239	-0.159
240	-0.124
240	-0.092
241	-0.061
241	-0.033
242	-0.006
242	0.018
243	0.041
243	0.063
243	0.082
244	0.1
244	0.117
245	0.132
245	0.147
246	0.161
246	0.174
247	0.185
247	0.196
248	0.206
248	0.216
249	0.224
249	0.233
250	0.24
250	0.248
250	0.254
251	0.261
251	0.267
252	0.273
252	0.278
253	0.283
253	0.287
254	0.291
254	0.295
255	0.299
255	0.303
256	0.306
256	0.309
257	0.311
257	0.314
258	0.316
258	0.318
258	0.32
259	0.322
259	0.323
260	0.324
260	0.325
261	0.326
261	0.327
262	0.328
262	0.329
263	0.329
263	0.33
264	0.33
264	0.331
265	0.331
265	0.331
265	0.331
266	0.331
266	0.331
267	0.331
267	0.331
268	0.331
268	0.33
269	0.329
269	0.329
270	0.328
270	0.327
271	0.326
271	0.326
272	0.325
272	0.324
272	0.324
273	0.323
273	0.322
274	0.321
274	0.321
275	0.32
275	0.319
276	0.318
276	0.317
277	0.315
277	0.313
278	0.312
278	0.31
278	0.308
279	0.306
279	0.305
280	0.304
280	0.303
281	0.302
281	0.301
282	0.301
282	0.3
283	0.3
283	0.299
284	0.299
284	0.299
285	0.298
285	0.298
285	0.297
286	0.296
286	0.295
287	0.294
287	0.294
288	0.293
288	0.292
289	0.292
289	0.291
290	0.29
290	0.289
291	0.288
291	0.288
292	0.287
292	0.286
292	0.285
293	0.285
293	0.284
294	0.283
294	0.283
295	0.282
295	0.282
296	0.281
296	0.28
297	0.279
297	0.279
298	0.278
298	0.277
298	0.277
299	0.276
299	0.276
300	0.275
300	0.274
301	0.274
301	0.273
302	0.273
302	0.272
303	0.271
303	0.271
304	0.27
304	0.269
305	0.269
305	0.268
305	0.268
306	0.267
306	0.266
307	0.265
307	0.265
308	0.264
308	0.263
309	0.262
309	0.261
310	0.26
310	0.259
311	0.259
311	0.258
311	0.257
312	0.256
312	0.255
313	0.255
313	0.254
314	0.253
314	0.252
315	0.251
315	0.25
316	0.249
316	0.249
317	0.248
317	0.247
318	0.246
318	0.245
318	0.244
319	0.243
319	0.242
320	0.242
320	0.24
321	0.24
321	0.239
322	0.238
322	0.237
323	0.236
323	0.235
324	0.234
324	0.234
324	0.233
325	0.232
325	0.231
326	0.23
326	0.23
327	0.229
327	0.228
328	0.227
328	0.226
329	0.225
329	0.224
330	0.224
330	0.223
330	0.222
331	0.221
331	0.22
332	0.219
332	0.218
333	0.217
333	0.217
334	0.216
334	0.215
335	0.214
335	0.213
336	0.213
336	0.212
336	0.211
337	0.21
337	0.21
338	0.209
338	0.208
339	0.207
339	0.207
340	0.206
340	0.205
341	0.205
341	0.204
342	0.203
342	0.203
342	0.202
343	0.201
343	0.2
344	0.2
344	0.199
345	0.198
345	0.198
346	0.197
346	0.196
347	0.195
347	0.195
348	0.194
348	0.193
348	0.193
349	0.192
349	0.191
350	0.19
350	0.189
351	0.188
351	0.187
352	0.186
352	0.185
353	0.184
353	0.183
354	0.182
354	0.181
354	0.18
355	0.178
355	0.177
356	0.176
356	0.175
357	0.174
357	0.174
358	0.174
358	0.174
359	0.175
359	0.176
360	0.176
360	0.177
360	0.178
361	0.178
361	0.179
362	0.18
362	0.18
363	0.18
363	0.179
364	0.179
364	0.178
365	0.178
365	0.177
366	0.177
366	0.177
366	0.176
367	0.176
367	0.176
368	0.175
368	0.175
369	0.174
369	0.174
370	0.174
370	0.173
371	0.173
371	0.172
372	0.172
372	0.171
372	0.171
373	0.171
373	0.17
374	0.17
374	0.17
375	0.17
375	0.17
376	0.17
376	0.17
377	0.17
377	0.171
378	0.171
378	0.171
378	0.171
379	0.172
379	0.172
380	0.172
380	0.172
381	0.172
381	0.172
382	0.171
382	0.171
383	0.17
383	0.17
383	0.169
384	0.169
384	0.168
385	0.168
385	0.168
386	0.168
386	0.168
387	0.168
387	0.168
388	0.167
388	0.167
389	0.167
389	0.167
389	0.167
390	0.167
390	0.167
391	0.167
391	0.168
392	0.168
392	0.168
393	0.168
393	0.168
394	0.168
394	0.168
394	0.167
395	0.167
395	0.167
396	0.166
396	0.166
397	0.167
397	0.167
398	0.167
398	0.167
399	0.167
399	0.167
400	0.167
400	0.166
400	0.165
401	0.164
401	0.163
402	0.162
402	0.161
403	0.161
403	0.16
404	0.16
404	0.16
405	0.159
405	0.159
405	0.159
406	0.159
406	0.159
407	0.159
407	0.158
408	0.158
408	0.157
409	0.157
409	0.156
410	0.156
410	0.156
411	0.156
411	0.156
411	0.155
412	0.155
412	0.155
413	0.154
413	0.154
414	0.154
414	0.153
415	0.153
415	0.153
416	0.152
416	0.152
416	0.151
417	0.151
417	0.15
418	0.15
418	0.151
419	0.151
419	0.152
420	0.153
420	0.154
421	0.154
421	0.155
421	0.155
422	0.155
422	0.156
423	0.156
423	0.155
424	0.154
424	0.153
425	0.152
425	0.151
426	0.15
426	0.15
427	0.149
427	0.149
427	0.15
428	0.15
428	0.151
429	0.152
429	0.153
430	0.153
430	0.153
431	0.153
431	0.152
432	0.152
432	0.151
432	0.15
433	0.148
433	0.147
434	0.146
434	0.146
435	0.146
435	0.146
436	0.145
436	0.146
437	0.145
437	0.146
437	0.146
438	0.145
438	0.145
439	0.145
439	0.145
440	0.144
440	0.144
441	0.145
441	0.145
442	0.145
442	0.146
442	0.146
443	0.147
443	0.148
444	0.148
444	0.149
445	0.149
445	0.149
446	0.149
446	0.149
447	0.149
447	0.148
447	0.148
448	0.147
448	0.147
449	0.147
449	0.146
450	0.146
450	0.145
451	0.145
451	0.144
452	0.144
452	0.143
452	0.142
453	0.142
453	0.141
454	0.14
454	0.139
455	0.138
455	0.138
456	0.138
456	0.138
457	0.137
457	0.137
458	0.137
458	0.137
458	0.138
459	0.138
459	0.138
460	0.138
460	0.137
461	0.136
461	0.136
462	0.136
462	0.136
463	0.136
463	0.137
463	0.137
464	0.138
464	0.138
465	0.138
465	0.138
466	0.138
466	0.138
467	0.138
467	0.138
467	0.137
468	0.135
468	0.132
469	0.13
469	0.129
470	0.128
470	0.127
471	0.127
471	0.127
472	0.126
472	0.126
472	0.127
473	0.128
473	0.13
474	0.131
474	0.132
475	0.133
475	0.133
476	0.134
476	0.134
477	0.135
477	0.135
477	0.135
478	0.135
478	0.136
479	0.136
479	0.137
480	0.138
480	0.139
481	0.14
481	0.14
482	0.141
482	0.142
482	0.144
483	0.146
483	0.149
484	0.153
484	0.155
485	0.157
485	0.159
486	0.16
486	0.161
487	0.162
487	0.162
487	0.162
488	0.162
488	0.16
489	0.157
489	0.155
490	0.154
490	0.153
491	0.152
491	0.152
492	0.153
492	0.153
492	0.154
493	0.154
493	0.155
494	0.157
494	0.159
495	0.162
495	0.163
496	0.164
496	0.164
496	0.165
497	0.166
497	0.167
498	0.167
498	0.168
499	0.168
499	0.167
500	0.168
500	0.169
501	0.171
501	0.172
501	0.174
502	0.176
502	0.177
503	0.179
503	0.18
504	0.181
504	0.182
505	0.182
505	0.183
506	0.183
506	0.184
506	0.184
507	0.184
507	0.184
508	0.184
508	0.184
509	0.185
509	0.186
510	0.186
510	0.186
511	0.186
511	0.186
511	0.186
512	0.186
512	0.186
513	0.186
513	0.184
514	0.183
514	0.182
515	0.181
515	0.181
515	0.18
516	0.179
516	0.179
517	0.179
517	0.179
518	0.179
518	0.178
519	0.177
519	0.175
520	0.173
520	0.17
520	0.167
521	0.164
521	0.16
522	0.157
522	0.154
523	0.152
523	0.152
524	0.152
524	0.154
524	0.157
525	0.16
525	0.164
526	0.167
526	0.171
527	0.175
527	0.178
528	0.181
528	0.184
529	0.185
529	0.186
529	0.187
530	0.187
530	0.187
531	0.188
531	0.189
532	0.188
532	0.188
533	0.189
533	0.189
533	0.189
534	0.188
534	0.188
535	0.187
535	0.187
536	0.186
536	0.186
537	0.185
537	0.185
538	0.184
538	0.183
538	0.181
539	0.18
539	0.18
540	0.179
540	0.178
541	0.177
541	0.175
542	0.173
542	0.171
542	0.17
543	0.169
543	0.167
544	0.166
544	0.164
545	0.163
545	0.163
546	0.163
546	0.162
547	0.161
547	0.159
547	0.156
548	0.154
548	0.151
549	0.149
549	0.147
550	0.146
550	0.144
551	0.141
551	0.139
551	0.137
552	0.136
552	0.135
553	0.134
553	0.134
554	0.134
554	0.133
555	0.131
555	0.128
556	0.125
556	0.121
556	0.118
557	0.115
557	0.113
558	0.111
558	0.109
559	0.107
559	0.106
560	0.106
560	0.106
560	0.106
561	0.107
561	0.107
562	0.107
562	0.106
563	0.104
563	0.102
564	0.1
564	0.097
564	0.094
565	0.093
565	0.091
566	0.09
566	0.089
567	0.089
567	0.09
568	0.092
568	0.093
568	0.095
569	0.098
569	0.1
570	0.102
570	0.102
571	0.103
571	0.105
572	0.105
572	0.105
573	0.106
573	0.105
573	0.104
574	0.103
574	0.103
575	0.102
575	0.103
576	0.104
576	0.103
577	0.102
577	0.1
577	0.099
578	0.098
578	0.098
579	0.1
579	0.102
580	0.102
580	0.1
581	0.097
581	0.095
581	0.094
582	0.094
582	0.094
583	0.095
583	0.094
584	0.091
584	0.086
585	0.084
585	0.083
585	0.083
586	0.083
586	0.083
587	0.081
587	0.079
588	0.076
588	0.074
589	0.072
589	0.071
590	0.071
590	0.07
590	0.071
591	0.072
591	0.072
592	0.072
592	0.071
593	0.07
593	0.07
594	0.069
594	0.068
594	0.067
595	0.067
595	0.065
596	0.063
596	0.063
597	0.066
597	0.068
598	0.069
598	0.07
598	0.071
599	0.072
599	0.071
600	0.071
600	0.07
601	0.069
601	0.067
602	0.065
602	0.064
602	0.062
603	0.061
603	0.061
604	0.062
604	0.063
605	0.064
605	0.066
606	0.066
606	0.065
606	0.065
607	0.064
607	0.064
608	0.063
608	0.061
609	0.059
609	0.058
610	0.057
610	0.054
610	0.054
611	0.054
611	0.055
612	0.056
612	0.057
613	0.059
613	0.061
614	0.061
614	0.06
614	0.06
615	0.06
615	0.059
616	0.059
616	0.058
617	0.057
617	0.056
618	0.054
618	0.053
618	0.053
619	0.053
619	0.054
620	0.056
620	0.057
621	0.058
621	0.059
622	0.06
622	0.061
622	0.061
623	0.061
623	0.062
624	0.063
624	0.063
625	0.063
625	0.063
626	0.063
626	0.063
626	0.063
627	0.063
627	0.063
628	0.064
628	0.064
629	0.064
629	0.064
630	0.063
630	0.062
630	0.062
631	0.063
631	0.063
632	0.062
632	0.062
633	0.063
633	0.063
634	0.064
634	0.066
634	0.068
635	0.07
635	0.071
636	0.072
636	0.074
637	0.075
637	0.076
638	0.078
638	0.08
638	0.081
639	0.081
639	0.082
640	0.083
640	0.085
641	0.087
641	0.088
642	0.09
642	0.092
642	0.094
643	0.096
643	0.097
644	0.099
644	0.101
645	0.103
645	0.105
646	0.107
646	0.111
646	0.114
647	0.118
647	0.121
648	0.124
648	0.127
649	0.13
649	0.133
650	0.137
650	0.14
650	0.142
651	0.144
651	0.147
652	0.148
652	0.15
653	0.154
653	0.163
653	0.174
654	0.145
654	0.122
655	0.126
655	0.128
656	0.13
656	0.132
657	0.133
657	0.135
657	0.136
658	0.132
658	0.123
659	0.151
659	0.187
660	0.19
660	0.192
661	0.193
661	0.195
661	0.198
662	0.201
662	0.205
663	0.208
663	0.212
664	0.215
664	0.218
665	0.221
665	0.224
665	0.227
666	0.229
666	0.232
667	0.234
667	0.236
668	0.239
668	0.242
669	0.245
669	0.248
669	0.252
670	0.257
670	0.261
671	0.264
671	0.266
672	0.268
672	0.269
672	0.27
673	0.271
673	0.273
674	0.274
674	0.274
675	0.274
675	0.274
676	0.276
676	0.278
676	0.28
677	0.283
677	0.285
678	0.288
678	0.289
679	0.291
679	0.293
680	0.295
680	0.297
680	0.297
681	0.298
681	0.299
682	0.3
682	0.301
683	0.303
683	0.306
684	0.309
684	0.31
684	0.311
685	0.311
685	0.313
686	0.314
686	0.315
687	0.315
687	0.314
687	0.314
688	0.312
688	0.311
689	0.311
689	0.312
690	0.312
690	0.312
691	0.312
691	0.312
691	0.312
692	0.312
692	0.312
693	0.312
693	0.313
694	0.312
694	0.311
695	0.311
695	0.313
695	0.314
696	0.313
696	0.312
697	0.312
697	0.311
698	0.309
698	0.307
698	0.305
699	0.303
699	0.3
700	0.296
700	0.294
701	0.292
701	0.291
702	0.289
702	0.287
702	0.285
703	0.284
703	0.282
704	0.28
704	0.279
705	0.278
705	0.276
705	0.275
706	0.273
706	0.272
707	0.27
707	0.267
708	0.266
708	0.264
709	0.263
709	0.261
709	0.258
710	0.254
710	0.252
711	0.25
711	0.248
712	0.246
712	0.245
713	0.243
713	0.241
713	0.239
714	0.236
714	0.234
715	0.231
715	0.228
716	0.225
716	0.222
716	0.219
717	0.215
717	0.213
718	0.21
718	0.207
719	0.205
719	0.204
720	0.202
720	0.2
720	0.197
721	0.195
721	0.192
722	0.19
722	0.187
723	0.185
723	0.182
723	0.18
724	0.177
724	0.174
725	0.17
725	0.168
726	0.166
726	0.163
727	0.161
727	0.159
727	0.157
728	0.155
728	0.153
729	0.153
729	0.152
730	0.151
730	0.15
730	0.149
731	0.148
731	0.147
732	0.147
732	0.146
733	0.144
733	0.142
734	0.14
734	0.137
734	0.135
735	0.134
735	0.131
736	0.128
736	0.126
737	0.124
737	0.122
737	0.12
738	0.117
738	0.114
739	0.111
739	0.109
740	0.106
740	0.104
741	0.103
741	0.101
741	0.098
742	0.093
742	0.09
743	0.087
743	0.084
744	0.082
744	0.08
744	0.078
745	0.075
745	0.072
746	0.069
746	0.068
747	0.066
747	0.066
748	0.065
748	0.065
748	0.064
749	0.062
749	0.061
750	0.061
750	0.059
751	0.059
751	0.058
751	0.058
752	0.057
752	0.056
753	0.054
753	0.054
754	0.053
754	0.053
754	0.053
755	0.053
755	0.053
756	0.052
756	0.05
757	0.048
757	0.048
758	0.047
758	0.045
758	0.044
759	0.042
759	0.038
760	0.035
760	0.031
761	0.029
761	0.027
761	0.025
762	0.023
762	0.022
763	0.021
763	0.018
764	0.015
764	0.013
764	0.01
765	0.008
765	0.006
766	0.005
766	0.004
767	0.003
767	0.001
768	-0.003
768	-0.005
768	-0.006
769	-0.006
769	-0.007
770	-0.008
770	-0.009
771	-0.012
771	-0.014
771	-0.017
772	-0.02
772	-0.022
773	-0.024
773	-0.027
774	-0.03
774	-0.034
775	-0.037
775	-0.04
775	-0.044
776	-0.049
776	-0.053
777	-0.057
777	-0.062
778	-0.066
778	-0.072
778	-0.076
779	-0.077
779	-0.075
780	-0.074
780	-0.075
781	-0.075
781	-0.074
781	-0.074
782	-0.073
782	-0.073
783	-0.073
783	-0.071
784	-0.072
784	-0.075
784	-0.076
785	-0.078
785	-0.08
786	-0.08
786	-0.078
787	-0.074
787	-0.071
788	-0.07
788	-0.07
788	-0.071
789	-0.073
789	-0.073
790	-0.07
790	-0.069
791	-0.069
791	-0.071
791	-0.073
792	-0.068
792	-0.059
793	-0.053
793	-0.049
794	-0.048
794	-0.049
794	-0.053
795	-0.055
795	-0.054
796	-0.054
796	-0.057
797	-0.065
797	-0.074
797	-0.08
798	-0.085
798	-0.088
799	-0.088
799	-0.088
800	-0.088
800	-0.09
801	-0.093
801	-0.095
801	-0.095
802	-0.097
802	-0.099
803	-0.1
803	-0.1
804	-0.099
804	-0.094
804	-0.088
805	-0.085
805	-0.083
806	-0.081
806	-0.079
807	-0.078
807	-0.077
807	-0.077
808	-0.076
808	-0.077
809	-0.081
809	-0.086
810	-0.089
810	-0.091
810	-0.094
811	-0.096
811	-0.096
812	-0.092
812	-0.089
813	-0.089
813	-0.09
813	-0.091
814	-0.092
814	-0.092
815	-0.089
815	-0.087
816	-0.085
816	-0.086
817	-0.09
817	-0.093
817	-0.094
818	-0.093
818	-0.09
819	-0.085
819	-0.082
820	-0.083
820	-0.085
820	-0.087
821	-0.086
821	-0.085
822	-0.084
822	-0.084
823	-0.083
823	-0.085
823	-0.088
824	-0.089
824	-0.087
825	-0.083
825	-0.078
826	-0.073
826	-0.07
826	-0.066
827	-0.061
827	-0.056
828	-0.051
828	-0.047
829	-0.043
829	-0.038
829	-0.035
830	-0.032
830	-0.03
831	-0.025
831	-0.021
832	-0.019
832	-0.016
832	-0.013
833	-0.011
833	-0.01
834	-0.008
834	-0.007
835	-0.006
835	-0.006
835	-0.005
836	-0.005
836	-0.004
837	-0.003
837	-0.002
838	-0.001
838	-0
839	0
839	0.001
839	0.002
840	0.003
840	0.003
841	0.004
841	0.005
842	0.005
842	0.006
842	0.006
843	0.006
843	0.006
844	0.007
844	0.007
845	0.008
845	0.009
845	0.01
846	0.011
846	0.012
847	0.013
847	0.014
848	0.016
848	0.017
848	0.018
849	0.02
849	0.021
850	0.021
850	0.021
851	0.022
851	0.023
851	0.023
852	0.023
852	0.023
853	0.024
853	0.024
854	0.024
854	0.025
854	0.025
855	0.026
855	0.026
856	0.026
856	0.026
857	0.027
857	0.027
857	0.027
858	0.027
858	0.027
859	0.027
859	0.027
860	0.027
860	0.027
860	0.027
861	0.028
861	0.027
862	0.027
862	0.026
863	0.026
863	0.026
863	0.025
864	0.025
864	0.025
865	0.025
865	0.025
866	0.024
866	0.025
866	0.026
867	0.026
867	0.027
868	0.028
868	0.029
869	0.03
869	0.031
869	0.031
870	0.031
870	0.031
871	0.031
871	0.03
872	0.03
872	0.029
872	0.028
873	0.028
873	0.027
874	0.027
874	0.027
875	0.028
875	0.028
875	0.029
876	0.029
876	0.029
877	0.029
877	0.029
878	0.029
878	0.029
878	0.029
879	0.029
879	0.028
880	0.028
880	0.027
881	0.027
881	0.027
881	0.027
882	0.027
882	0.027
883	0.027
883	0.028
884	0.029
884	0.03
884	0.03
885	0.031
885	0.032
886	0.033
886	0.033
887	0.034
887	0.034
887	0.034
888	0.034
888	0.034
889	0.034
889	0.034
890	0.035
890	0.035
890	0.035
891	0.036
891	0.036
892	0.036
892	0.037
893	0.038
893	0.038
893	0.039
894	0.04
894	0.04
895	0.041
895	0.041
895	0.042
896	0.042
896	0.043
897	0.044
897	0.045
898	0.045
898	0.046
898	0.046
899	0.047
899	0.047
900	0.047
900	0.047
901	0.047
901	0.046
901	0.046
902	0.046
902	0.045
903	0.045
903	0.044
904	0.043
904	0.042
904	0.042
905	0.041
905	0.041
906	0.04
906	0.039
907	0.038
907	0.038
907	0.037
908	0.037
908	0.037
909	0.037
909	0.037
910	0.037
910	0.038
910	0.038
911	0.039
911	0.039
912	0.04
912	0.041
913	0.042
913	0.043
913	0.043
914	0.043
914	0.043
915	0.043
915	0.043
916	0.042
916	0.041
916	0.04
917	0.039
917	0.039
918	0.038
918	0.038
918	0.038
919	0.038
919	0.038
920	0.038
920	0.038
921	0.038
921	0.037
921	0.037
922	0.036
922	0.036
923	0.035
923	0.034
924	0.033
924	0.032
924	0.031
925	0.03
925	0.029
926	0.029
926	0.028
927	0.028
927	0.027
927	0.028
928	0.028
928	0.029
929	0.03
929	0.031
930	0.033
930	0.035
930	0.037
931	0.039
931	0.042
932	0.044
932	0.046
933	0.048
933	0.05
933	0.051
934	0.052
934	0.052
935	0.052
935	0.052
935	0.052
936	0.052
936	0.052
937	0.052
937	0.052
938	0.053
938	0.053
938	0.054
939	0.054
939	0.055
940	0.056
940	0.057
941	0.057
941	0.057
941	0.057
942	0.057
942	0.057
943	0.056
943	0.055
944	0.055
944	0.055
944	0.054
945	0.054
945	0.054
946	0.053
946	0.052
946	0.052
947	0.051
947	0.05
948	0.049
948	0.048
949	0.047
949	0.047
949	0.046
950	0.045
950	0.045
951	0.044
951	0.043
952	0.043
952	0.042
952	0.042
953	0.042
953	0.041
954	0.041
954	0.04
955	0.039
955	0.039
955	0.039
956	0.039
956	0.039
957	0.038
957	0.038
957	0.038
958	0.038
958	0.037
959	0.037
959	0.037
960	0.037
960	0.036
960	0.036
961	0.035
961	0.034
962	0.034
962	0.034
963	0.034
963	0.033
963	0.033
964	0.034
964	0.034
965	0.035
965	0.036
966	0.037
966	0.038
966	0.039
967	0.04
967	0.041
968	0.042
968	0.042
968	0.042
969	0.042
969	0.042
970	0.042
970	0.042
971	0.041
971	0.041
971	0.041
972	0.041
972	0.041
973	0.042
973	0.042
974	0.042
974	0.043
974	0.043
975	0.044
975	0.045
976	0.046
976	0.047
976	0.047
977	0.048
977	0.048
978	0.048
978	0.049
979	0.049
979	0.05
979	0.05
980	0.05
980	0.05
981	0.051
981	0.051
982	0.052
982	0.053
982	0.054
983	0.055
983	0.055
984	0.056
984	0.056
984	0.057
985	0.057
985	0.057
986	0.056
986	0.056
987	0.055
987	0.054
987	0.054
988	0.053
988	0.052
989	0.051
989	0.05
990	0.05
990	0.049
990	0.049
991	0.049
991	0.049
992	0.05
992	0.05
992	0.05
993	0.05
993	0.049
994	0.049
994	0.049
995	0.048
995	0.048
995	0.048
996	0.047
996	0.046
997	0.046
997	0.046
997	0.046
998	0.046
998	0.047
999	0.047
999	0.048
1000	0.049
1000	0.05
1000	0.05
1001	0.051
1001	0.052
1002	0.052
1002	0.052
1003	0.052
1003	0.052
1003	0.052
1004	0.052
1004	0.051
1005	0.05
1005	0.05
1005	0.049
1006	0.048
1006	0.047
1007	0.047
1007	0.047
1008	0.046
1008	0.047
1008	0.047
1009	0.047
1009	0.048
1010	0.048
1010	0.049
1010	0.049
1011	0.05
1011	0.05
1012	0.051
1012	0.052
1013	0.052
1013	0.052
1013	0.052
1014	0.051
1014	0.05
1015	0.05
1015	0.049
1016	0.048
1016	0.047
1016	0.046
1017	0.045
1017	0.044
1018	0.043
1018	0.043
1018	0.042
1019	0.042
1019	0.042
1020	0.042
1020	0.042
1021	0.041
1021	0.041
1021	0.042
1022	0.042
1022	0.042
1023	0.041
1023	0.041
1023	0.041
1024	0.04
1024	0.04
1025	0.039
1025	0.039
1026	0.038
1026	0.038
1026	0.037
1027	0.037
1027	0.037
1028	0.037
1028	0.037
1028	0.037
1029	0.037
1029	0.038
1030	0.038
1030	0.038
1031	0.039
1031	0.039
1031	0.039
1032	0.04
1032	0.04
1033	0.041
1033	0.041
1033	0.042
1034	0.042
1034	0.041
1035	0.041
1035	0.041
1036	0.041
1036	0.041
1036	0.042
1037	0.042
1037	0.043
1038	0.043
1038	0.044
1039	0.045
1039	0.046
1039	0.047
1040	0.048
1040	0.048
1041	0.049
1041	0.048
1041	0.048
1042	0.047
1042	0.048
1043	0.047
1043	0.047
1044	0.046
1044	0.046
1044	0.046
1045	0.045
1045	0.045
1046	0.045
1046	0.045
1046	0.046
1047	0.046
1047	0.047
1048	0.048
1048	0.048
1049	0.048
1049	0.047
1049	0.047
1050	0.047
1050	0.047
1051	0.047
1051	0.047
1051	0.047
1052	0.047
1052	0.047
1053	0.047
1053	0.048
1053	0.049
1054	0.049
1054	0.05
1055	0.052
1055	0.052
1056	0.053
1056	0.053
1056	0.053
1057	0.054
1057	0.055
1058	0.056
1058	0.057
1058	0.058
1059	0.059
1059	0.06
1060	0.061
1060	0.062
1061	0.063
1061	0.065
1061	0.066
1062	0.066
1062	0.067
1063	0.067
1063	0.067
1063	0.068
1064	0.069
1064	0.071
1065	0.072
1065	0.073
1066	0.075
1066	0.076
1066	0.079
1067	0.081
1067	0.083
1068	0.084
1068	0.086
1068	0.087
1069	0.088
1069	0.089
1070	0.09
1070	0.092
1071	0.094
1071	0.096
1071	0.097
1072	0.099
1072	0.102
1073	0.104
1073	0.106
1073	0.108
1074	0.11
1074	0.112
1075	0.113
1075	0.114
1076	0.115
1076	0.117
1076	0.118
1077	0.119
1077	0.121
1078	0.123
1078	0.126
1078	0.129
1079	0.132
1079	0.136
1080	0.139
1080	0.142
1080	0.145
1081	0.147
1081	0.15
1082	0.153
1082	0.156
1083	0.159
1083	0.162
1083	0.167
1084	0.17
1084	0.174
1085	0.179
1085	0.183
1085	0.188
1086	0.193
1086	0.197
1087	0.202
1087	0.208
1088	0.213
1088	0.218
1088	0.225
1089	0.231
1089	0.24
1090	0.248
1090	0.258
1090	0.269
1091	0.281
1091	0.294
1092	0.309
1092	0.325
1092	0.341
1093	0.357
1093	0.377
1094	0.396
1094	0.418
1095	0.439
1095	0.464
1095	0.497
1096	0.531
1096	0.568
1097	0.617
1097	0.666
1097	0.731
1098	0.804
1098	0.899
1099	1.03
1099	1.231
1100	1.72
1100	-0
1100	-0
1101	-0
1101	-0
1102	-0
1102	-0
1102	-0
1103	-0
1103	-0
1104	-0
1104	-0
1104	-0
1105	-0
1105	-0
1106	-0
1106	-0
1107	-0
1107	-0
1107	-0
1108	-0
1108	-0
1109	-0
1109	-0
1109	-0
1110	-0
1110	-0
1111	-0
1111	-0
