Data from 15c-stair-power-variation_Absorbance__182__03792.txt Node

Date: Tue Jan 16 15:48:05 CET 2024
User: Marek
Spectrometer: MAYP115816
Trigger mode: 0
Integration Time (sec): 2.000000E-1
Scans to average: 10
Electric dark correction enabled: true
Nonlinearity correction enabled: true
Boxcar width: 5
XAxis mode: Wavelengths
Number of Pixels in Spectrum: 2068
>>>>>Begin Spectral Data<<<<<
199	-2.24
199	-2.051
200	-1.916
200	-1.796
201	-1.722
201	-1.67
202	-1.593
202	-1.531
203	-1.482
203	-1.434
204	-1.406
204	-1.381
205	-1.362
205	-1.35
205	-1.347
206	-1.342
206	-1.338
207	-1.336
207	-1.335
208	-1.331
208	-1.33
209	-1.325
209	-1.323
210	-1.322
210	-1.319
211	-1.318
211	-1.317
212	-1.316
212	-1.315
213	-1.313
213	-1.312
213	-1.313
214	-1.311
214	-1.31
215	-1.309
215	-1.309
216	-1.305
216	-1.304
217	-1.301
217	-1.299
218	-1.295
218	-1.291
219	-1.287
219	-1.285
220	-1.283
220	-1.282
221	-1.278
221	-1.276
221	-1.272
222	-1.267
222	-1.262
223	-1.257
223	-1.251
224	-1.246
224	-1.237
225	-1.228
225	-1.218
226	-1.21
226	-1.2
227	-1.186
227	-1.173
228	-1.157
228	-1.141
229	-1.12
229	-1.096
229	-1.071
230	-1.042
230	-1.01
231	-0.974
231	-0.935
232	-0.894
232	-0.851
233	-0.804
233	-0.756
234	-0.708
234	-0.658
235	-0.608
235	-0.558
236	-0.509
236	-0.46
236	-0.412
237	-0.366
237	-0.321
238	-0.278
238	-0.237
239	-0.198
239	-0.162
240	-0.127
240	-0.095
241	-0.064
241	-0.036
242	-0.01
242	0.015
243	0.038
243	0.059
243	0.078
244	0.097
244	0.114
245	0.129
245	0.144
246	0.157
246	0.17
247	0.181
247	0.192
248	0.202
248	0.211
249	0.22
249	0.228
250	0.236
250	0.243
250	0.249
251	0.256
251	0.262
252	0.268
252	0.273
253	0.278
253	0.282
254	0.286
254	0.29
255	0.294
255	0.298
256	0.301
256	0.303
257	0.306
257	0.308
258	0.311
258	0.313
258	0.315
259	0.316
259	0.318
260	0.319
260	0.32
261	0.321
261	0.322
262	0.323
262	0.324
263	0.324
263	0.325
264	0.325
264	0.326
265	0.326
265	0.326
265	0.326
266	0.326
266	0.326
267	0.326
267	0.326
268	0.326
268	0.325
269	0.324
269	0.324
270	0.323
270	0.322
271	0.321
271	0.321
272	0.32
272	0.319
272	0.318
273	0.317
273	0.317
274	0.316
274	0.315
275	0.314
275	0.313
276	0.312
276	0.311
277	0.31
277	0.308
278	0.306
278	0.305
278	0.303
279	0.301
279	0.3
280	0.299
280	0.298
281	0.297
281	0.296
282	0.296
282	0.295
283	0.295
283	0.295
284	0.294
284	0.294
285	0.294
285	0.293
285	0.292
286	0.291
286	0.291
287	0.29
287	0.289
288	0.289
288	0.288
289	0.287
289	0.286
290	0.285
290	0.285
291	0.284
291	0.283
292	0.283
292	0.282
292	0.281
293	0.28
293	0.279
294	0.278
294	0.278
295	0.277
295	0.277
296	0.276
296	0.275
297	0.274
297	0.274
298	0.273
298	0.273
298	0.272
299	0.272
299	0.271
300	0.27
300	0.27
301	0.269
301	0.269
302	0.268
302	0.268
303	0.267
303	0.267
304	0.266
304	0.265
305	0.264
305	0.264
305	0.263
306	0.262
306	0.261
307	0.261
307	0.26
308	0.259
308	0.258
309	0.257
309	0.256
310	0.256
310	0.255
311	0.254
311	0.253
311	0.253
312	0.252
312	0.251
313	0.25
313	0.249
314	0.249
314	0.248
315	0.247
315	0.246
316	0.245
316	0.244
317	0.243
317	0.243
318	0.242
318	0.241
318	0.24
319	0.239
319	0.238
320	0.237
320	0.236
321	0.235
321	0.234
322	0.233
322	0.233
323	0.232
323	0.231
324	0.23
324	0.229
324	0.228
325	0.227
325	0.227
326	0.226
326	0.225
327	0.224
327	0.223
328	0.223
328	0.222
329	0.221
329	0.22
330	0.219
330	0.219
330	0.218
331	0.217
331	0.216
332	0.215
332	0.214
333	0.213
333	0.212
334	0.211
334	0.21
335	0.21
335	0.209
336	0.208
336	0.207
336	0.207
337	0.206
337	0.205
338	0.204
338	0.204
339	0.203
339	0.202
340	0.201
340	0.201
341	0.2
341	0.199
342	0.199
342	0.198
342	0.198
343	0.197
343	0.196
344	0.196
344	0.195
345	0.194
345	0.193
346	0.193
346	0.192
347	0.191
347	0.19
348	0.19
348	0.189
348	0.188
349	0.187
349	0.187
350	0.186
350	0.185
351	0.184
351	0.183
352	0.182
352	0.181
353	0.18
353	0.179
354	0.178
354	0.176
354	0.175
355	0.174
355	0.173
356	0.172
356	0.171
357	0.17
357	0.17
358	0.17
358	0.17
359	0.171
359	0.172
360	0.173
360	0.173
360	0.174
361	0.174
361	0.175
362	0.176
362	0.176
363	0.176
363	0.175
364	0.175
364	0.174
365	0.174
365	0.173
366	0.173
366	0.173
366	0.172
367	0.172
367	0.172
368	0.171
368	0.171
369	0.17
369	0.17
370	0.169
370	0.169
371	0.169
371	0.168
372	0.168
372	0.167
372	0.167
373	0.166
373	0.166
374	0.166
374	0.166
375	0.165
375	0.165
376	0.165
376	0.165
377	0.166
377	0.166
378	0.166
378	0.166
378	0.167
379	0.167
379	0.167
380	0.167
380	0.167
381	0.167
381	0.167
382	0.166
382	0.166
383	0.165
383	0.165
383	0.164
384	0.164
384	0.164
385	0.163
385	0.163
386	0.163
386	0.163
387	0.163
387	0.163
388	0.163
388	0.162
389	0.162
389	0.162
389	0.162
390	0.162
390	0.162
391	0.163
391	0.163
392	0.163
392	0.163
393	0.163
393	0.163
394	0.163
394	0.163
394	0.163
395	0.162
395	0.162
396	0.162
396	0.162
397	0.162
397	0.162
398	0.162
398	0.162
399	0.162
399	0.162
400	0.162
400	0.161
400	0.161
401	0.16
401	0.158
402	0.157
402	0.156
403	0.156
403	0.155
404	0.155
404	0.155
405	0.155
405	0.154
405	0.154
406	0.154
406	0.154
407	0.154
407	0.154
408	0.153
408	0.152
409	0.152
409	0.152
410	0.151
410	0.151
411	0.151
411	0.151
411	0.151
412	0.15
412	0.15
413	0.15
413	0.149
414	0.149
414	0.149
415	0.148
415	0.148
416	0.147
416	0.147
416	0.146
417	0.146
417	0.146
418	0.146
418	0.146
419	0.147
419	0.147
420	0.148
420	0.149
421	0.15
421	0.15
421	0.151
422	0.151
422	0.151
423	0.151
423	0.15
424	0.15
424	0.148
425	0.147
425	0.146
426	0.145
426	0.145
427	0.145
427	0.145
427	0.145
428	0.146
428	0.147
429	0.147
429	0.148
430	0.148
430	0.148
431	0.148
431	0.148
432	0.147
432	0.146
432	0.145
433	0.143
433	0.142
434	0.141
434	0.141
435	0.141
435	0.141
436	0.141
436	0.141
437	0.141
437	0.141
437	0.141
438	0.141
438	0.14
439	0.14
439	0.14
440	0.14
440	0.14
441	0.14
441	0.14
442	0.141
442	0.141
442	0.142
443	0.142
443	0.143
444	0.143
444	0.144
445	0.144
445	0.144
446	0.144
446	0.144
447	0.144
447	0.144
447	0.143
448	0.143
448	0.143
449	0.142
449	0.142
450	0.141
450	0.141
451	0.14
451	0.14
452	0.139
452	0.138
452	0.138
453	0.137
453	0.136
454	0.135
454	0.134
455	0.134
455	0.133
456	0.133
456	0.133
457	0.132
457	0.132
458	0.132
458	0.132
458	0.133
459	0.133
459	0.134
460	0.133
460	0.132
461	0.132
461	0.131
462	0.131
462	0.131
463	0.132
463	0.132
463	0.133
464	0.133
464	0.133
465	0.133
465	0.133
466	0.133
466	0.134
467	0.133
467	0.133
467	0.132
468	0.13
468	0.127
469	0.126
469	0.124
470	0.123
470	0.123
471	0.122
471	0.122
472	0.122
472	0.122
472	0.122
473	0.123
473	0.125
474	0.126
474	0.127
475	0.128
475	0.128
476	0.129
476	0.129
477	0.129
477	0.13
477	0.13
478	0.131
478	0.131
479	0.131
479	0.132
480	0.133
480	0.134
481	0.135
481	0.136
482	0.136
482	0.138
482	0.139
483	0.141
483	0.144
484	0.148
484	0.151
485	0.153
485	0.154
486	0.155
486	0.156
487	0.157
487	0.157
487	0.158
488	0.157
488	0.155
489	0.153
489	0.151
490	0.149
490	0.148
491	0.148
491	0.148
492	0.148
492	0.148
492	0.149
493	0.15
493	0.151
494	0.153
494	0.155
495	0.157
495	0.159
496	0.16
496	0.16
496	0.161
497	0.162
497	0.163
498	0.163
498	0.164
499	0.163
499	0.163
500	0.163
500	0.164
501	0.166
501	0.168
501	0.169
502	0.171
502	0.172
503	0.174
503	0.175
504	0.176
504	0.177
505	0.177
505	0.177
506	0.178
506	0.178
506	0.178
507	0.178
507	0.178
508	0.178
508	0.178
509	0.178
509	0.179
510	0.18
510	0.18
511	0.18
511	0.18
511	0.179
512	0.179
512	0.18
513	0.179
513	0.179
514	0.177
514	0.176
515	0.175
515	0.174
515	0.173
516	0.171
516	0.171
517	0.172
517	0.172
518	0.172
518	0.172
519	0.171
519	0.169
520	0.167
520	0.165
520	0.162
521	0.159
521	0.156
522	0.152
522	0.149
523	0.146
523	0.145
524	0.145
524	0.146
524	0.148
525	0.152
525	0.155
526	0.159
526	0.163
527	0.167
527	0.171
528	0.174
528	0.177
529	0.179
529	0.18
529	0.181
530	0.182
530	0.182
531	0.183
531	0.183
532	0.183
532	0.183
533	0.183
533	0.183
533	0.183
534	0.183
534	0.182
535	0.182
535	0.181
536	0.181
536	0.18
537	0.179
537	0.179
538	0.178
538	0.177
538	0.176
539	0.175
539	0.174
540	0.174
540	0.173
541	0.171
541	0.169
542	0.168
542	0.166
542	0.165
543	0.164
543	0.162
544	0.161
544	0.16
545	0.159
545	0.158
546	0.158
546	0.157
547	0.156
547	0.154
547	0.151
548	0.149
548	0.147
549	0.145
549	0.143
550	0.141
550	0.139
551	0.136
551	0.134
551	0.132
552	0.131
552	0.13
553	0.13
553	0.13
554	0.129
554	0.128
555	0.126
555	0.123
556	0.12
556	0.117
556	0.114
557	0.111
557	0.109
558	0.107
558	0.105
559	0.103
559	0.102
560	0.102
560	0.102
560	0.102
561	0.103
561	0.103
562	0.103
562	0.102
563	0.1
563	0.098
564	0.096
564	0.093
564	0.091
565	0.089
565	0.088
566	0.086
566	0.086
567	0.086
567	0.087
568	0.088
568	0.09
568	0.092
569	0.095
569	0.097
570	0.099
570	0.099
571	0.101
571	0.102
572	0.102
572	0.103
573	0.103
573	0.103
573	0.102
574	0.101
574	0.1
575	0.1
575	0.101
576	0.102
576	0.101
577	0.099
577	0.098
577	0.097
578	0.096
578	0.096
579	0.098
579	0.1
580	0.099
580	0.097
581	0.094
581	0.092
581	0.091
582	0.091
582	0.092
583	0.092
583	0.092
584	0.088
584	0.084
585	0.081
585	0.081
585	0.081
586	0.081
586	0.08
587	0.079
587	0.076
588	0.073
588	0.071
589	0.07
589	0.069
590	0.068
590	0.067
590	0.068
591	0.069
591	0.07
592	0.069
592	0.068
593	0.068
593	0.068
594	0.067
594	0.066
594	0.065
595	0.065
595	0.063
596	0.061
596	0.061
597	0.064
597	0.065
598	0.067
598	0.068
598	0.069
599	0.07
599	0.07
600	0.069
600	0.068
601	0.067
601	0.066
602	0.063
602	0.062
602	0.06
603	0.059
603	0.06
604	0.06
604	0.061
605	0.062
605	0.064
606	0.064
606	0.064
606	0.063
607	0.062
607	0.062
608	0.061
608	0.059
609	0.057
609	0.056
610	0.055
610	0.052
610	0.052
611	0.052
611	0.052
612	0.054
612	0.055
613	0.057
613	0.059
614	0.059
614	0.058
614	0.059
615	0.058
615	0.058
616	0.057
616	0.057
617	0.056
617	0.054
618	0.053
618	0.052
618	0.051
619	0.051
619	0.052
620	0.054
620	0.056
621	0.056
621	0.057
622	0.058
622	0.059
622	0.059
623	0.059
623	0.06
624	0.061
624	0.061
625	0.061
625	0.061
626	0.061
626	0.061
626	0.061
627	0.062
627	0.062
628	0.062
628	0.062
629	0.062
629	0.062
630	0.061
630	0.06
630	0.06
631	0.06
631	0.061
632	0.06
632	0.06
633	0.06
633	0.061
634	0.062
634	0.064
634	0.066
635	0.068
635	0.069
636	0.07
636	0.072
637	0.073
637	0.074
638	0.076
638	0.077
638	0.079
639	0.079
639	0.08
640	0.081
640	0.083
641	0.084
641	0.086
642	0.088
642	0.09
642	0.092
643	0.093
643	0.095
644	0.096
644	0.098
645	0.1
645	0.102
646	0.105
646	0.108
646	0.111
647	0.115
647	0.118
648	0.121
648	0.124
649	0.127
649	0.131
650	0.134
650	0.137
650	0.14
651	0.142
651	0.144
652	0.146
652	0.148
653	0.151
653	0.161
653	0.171
654	0.143
654	0.12
655	0.124
655	0.126
656	0.128
656	0.129
657	0.131
657	0.133
657	0.133
658	0.129
658	0.121
659	0.148
659	0.183
660	0.187
660	0.188
661	0.189
661	0.191
661	0.194
662	0.197
662	0.201
663	0.204
663	0.208
664	0.211
664	0.214
665	0.217
665	0.22
665	0.222
666	0.225
666	0.228
667	0.23
667	0.232
668	0.235
668	0.237
669	0.24
669	0.243
669	0.248
670	0.252
670	0.256
671	0.259
671	0.261
672	0.263
672	0.264
672	0.266
673	0.267
673	0.268
674	0.269
674	0.27
675	0.27
675	0.27
676	0.272
676	0.274
676	0.276
677	0.278
677	0.281
678	0.283
678	0.285
679	0.286
679	0.288
680	0.29
680	0.291
680	0.292
681	0.292
681	0.293
682	0.294
682	0.296
683	0.298
683	0.301
684	0.303
684	0.305
684	0.305
685	0.306
685	0.307
686	0.308
686	0.309
687	0.309
687	0.308
687	0.308
688	0.306
688	0.305
689	0.305
689	0.306
690	0.306
690	0.306
691	0.306
691	0.306
691	0.306
692	0.306
692	0.306
693	0.306
693	0.307
694	0.307
694	0.305
695	0.306
695	0.308
695	0.308
696	0.308
696	0.307
697	0.306
697	0.305
698	0.304
698	0.301
698	0.299
699	0.298
699	0.295
700	0.291
700	0.288
701	0.287
701	0.285
702	0.283
702	0.281
702	0.28
703	0.278
703	0.277
704	0.275
704	0.273
705	0.272
705	0.271
705	0.269
706	0.268
706	0.266
707	0.265
707	0.262
708	0.26
708	0.259
709	0.258
709	0.256
709	0.253
710	0.249
710	0.247
711	0.245
711	0.243
712	0.242
712	0.24
713	0.239
713	0.237
713	0.235
714	0.232
714	0.229
715	0.227
715	0.224
716	0.221
716	0.218
716	0.215
717	0.212
717	0.209
718	0.206
718	0.203
719	0.202
719	0.2
720	0.199
720	0.197
720	0.194
721	0.192
721	0.189
722	0.187
722	0.184
723	0.182
723	0.18
723	0.177
724	0.174
724	0.171
725	0.168
725	0.165
726	0.163
726	0.16
727	0.158
727	0.156
727	0.154
728	0.152
728	0.15
729	0.15
729	0.149
730	0.148
730	0.147
730	0.146
731	0.145
731	0.144
732	0.143
732	0.142
733	0.14
733	0.139
734	0.136
734	0.134
734	0.132
735	0.131
735	0.128
736	0.125
736	0.123
737	0.12
737	0.119
737	0.117
738	0.114
738	0.111
739	0.108
739	0.106
740	0.103
740	0.101
741	0.1
741	0.098
741	0.094
742	0.09
742	0.086
743	0.083
743	0.081
744	0.078
744	0.076
744	0.074
745	0.071
745	0.068
746	0.066
746	0.065
747	0.064
747	0.063
748	0.062
748	0.062
748	0.061
749	0.059
749	0.059
750	0.058
750	0.057
751	0.056
751	0.056
751	0.056
752	0.055
752	0.053
753	0.052
753	0.052
754	0.051
754	0.051
754	0.051
755	0.051
755	0.051
756	0.051
756	0.048
757	0.047
757	0.046
758	0.045
758	0.043
758	0.041
759	0.04
759	0.036
760	0.033
760	0.029
761	0.026
761	0.025
761	0.023
762	0.021
762	0.019
763	0.019
763	0.016
764	0.013
764	0.011
764	0.008
765	0.006
765	0.004
766	0.003
766	0.003
767	0.002
767	-0.001
768	-0.004
768	-0.006
768	-0.007
769	-0.008
769	-0.008
770	-0.01
770	-0.011
771	-0.014
771	-0.017
771	-0.02
772	-0.022
772	-0.024
773	-0.026
773	-0.029
774	-0.032
774	-0.036
775	-0.039
775	-0.042
775	-0.046
776	-0.05
776	-0.055
777	-0.059
777	-0.064
778	-0.068
778	-0.073
778	-0.078
779	-0.078
779	-0.076
780	-0.075
780	-0.076
781	-0.075
781	-0.075
781	-0.074
782	-0.073
782	-0.073
783	-0.073
783	-0.071
784	-0.071
784	-0.074
784	-0.076
785	-0.078
785	-0.08
786	-0.08
786	-0.078
787	-0.074
787	-0.07
788	-0.07
788	-0.07
788	-0.071
789	-0.073
789	-0.073
790	-0.07
790	-0.069
791	-0.069
791	-0.071
791	-0.073
792	-0.068
792	-0.058
793	-0.053
793	-0.049
794	-0.047
794	-0.049
794	-0.053
795	-0.055
795	-0.054
796	-0.054
796	-0.057
797	-0.065
797	-0.074
797	-0.08
798	-0.085
798	-0.088
799	-0.088
799	-0.088
800	-0.088
800	-0.09
801	-0.093
801	-0.095
801	-0.095
802	-0.097
802	-0.099
803	-0.1
803	-0.1
804	-0.099
804	-0.094
804	-0.088
805	-0.085
805	-0.083
806	-0.081
806	-0.079
807	-0.078
807	-0.077
807	-0.077
808	-0.076
808	-0.077
809	-0.081
809	-0.086
810	-0.089
810	-0.091
810	-0.093
811	-0.096
811	-0.096
812	-0.092
812	-0.089
813	-0.089
813	-0.09
813	-0.091
814	-0.092
814	-0.092
815	-0.089
815	-0.087
816	-0.085
816	-0.085
817	-0.09
817	-0.093
817	-0.094
818	-0.093
818	-0.09
819	-0.085
819	-0.082
820	-0.083
820	-0.085
820	-0.087
821	-0.086
821	-0.085
822	-0.084
822	-0.084
823	-0.083
823	-0.085
823	-0.088
824	-0.089
824	-0.087
825	-0.083
825	-0.078
826	-0.073
826	-0.07
826	-0.066
827	-0.061
827	-0.056
828	-0.051
828	-0.047
829	-0.043
829	-0.039
829	-0.035
830	-0.033
830	-0.03
831	-0.026
831	-0.022
832	-0.019
832	-0.017
832	-0.014
833	-0.012
833	-0.01
834	-0.009
834	-0.008
835	-0.007
835	-0.006
835	-0.006
836	-0.005
836	-0.005
837	-0.004
837	-0.003
838	-0.002
838	-0.001
839	-0
839	0
839	0.001
840	0.002
840	0.002
841	0.003
841	0.004
842	0.004
842	0.005
842	0.005
843	0.006
843	0.006
844	0.006
844	0.007
845	0.007
845	0.008
845	0.009
846	0.01
846	0.011
847	0.013
847	0.014
848	0.016
848	0.017
848	0.018
849	0.02
849	0.021
850	0.021
850	0.022
851	0.022
851	0.023
851	0.023
852	0.023
852	0.023
853	0.023
853	0.024
854	0.024
854	0.025
854	0.025
855	0.025
855	0.025
856	0.025
856	0.025
857	0.026
857	0.026
857	0.026
858	0.026
858	0.026
859	0.026
859	0.026
860	0.026
860	0.027
860	0.027
861	0.027
861	0.027
862	0.026
862	0.026
863	0.026
863	0.025
863	0.025
864	0.025
864	0.024
865	0.024
865	0.024
866	0.024
866	0.024
866	0.025
867	0.026
867	0.027
868	0.028
868	0.029
869	0.03
869	0.031
869	0.031
870	0.031
870	0.031
871	0.03
871	0.03
872	0.03
872	0.029
872	0.028
873	0.028
873	0.027
874	0.027
874	0.027
875	0.028
875	0.028
875	0.029
876	0.029
876	0.029
877	0.03
877	0.03
878	0.03
878	0.03
878	0.029
879	0.029
879	0.028
880	0.028
880	0.027
881	0.027
881	0.027
881	0.027
882	0.027
882	0.027
883	0.027
883	0.028
884	0.029
884	0.03
884	0.03
885	0.031
885	0.032
886	0.032
886	0.033
887	0.033
887	0.034
887	0.034
888	0.033
888	0.033
889	0.033
889	0.034
890	0.034
890	0.034
890	0.035
891	0.035
891	0.036
892	0.036
892	0.037
893	0.038
893	0.038
893	0.039
894	0.04
894	0.04
895	0.04
895	0.041
895	0.041
896	0.042
896	0.042
897	0.043
897	0.044
898	0.044
898	0.045
898	0.045
899	0.046
899	0.046
900	0.046
900	0.046
901	0.046
901	0.046
901	0.046
902	0.046
902	0.045
903	0.045
903	0.044
904	0.043
904	0.043
904	0.042
905	0.041
905	0.041
906	0.04
906	0.04
907	0.039
907	0.038
907	0.038
908	0.037
908	0.037
909	0.037
909	0.037
910	0.037
910	0.038
910	0.038
911	0.039
911	0.039
912	0.04
912	0.041
913	0.042
913	0.042
913	0.042
914	0.043
914	0.043
915	0.042
915	0.042
916	0.041
916	0.04
916	0.039
917	0.039
917	0.038
918	0.037
918	0.037
918	0.037
919	0.037
919	0.037
920	0.037
920	0.038
921	0.038
921	0.037
921	0.037
922	0.037
922	0.036
923	0.035
923	0.034
924	0.033
924	0.033
924	0.032
925	0.03
925	0.03
926	0.029
926	0.028
927	0.028
927	0.028
927	0.028
928	0.028
928	0.029
929	0.03
929	0.031
930	0.033
930	0.035
930	0.038
931	0.04
931	0.042
932	0.044
932	0.046
933	0.048
933	0.05
933	0.052
934	0.053
934	0.053
935	0.053
935	0.053
935	0.053
936	0.053
936	0.053
937	0.053
937	0.053
938	0.053
938	0.053
938	0.054
939	0.054
939	0.055
940	0.056
940	0.056
941	0.057
941	0.057
941	0.057
942	0.057
942	0.056
943	0.056
943	0.055
944	0.054
944	0.054
944	0.054
945	0.054
945	0.053
946	0.053
946	0.052
946	0.052
947	0.051
947	0.05
948	0.049
948	0.048
949	0.047
949	0.047
949	0.046
950	0.046
950	0.045
951	0.045
951	0.044
952	0.044
952	0.044
952	0.043
953	0.043
953	0.043
954	0.042
954	0.041
955	0.04
955	0.04
955	0.04
956	0.039
956	0.039
957	0.039
957	0.038
957	0.038
958	0.038
958	0.037
959	0.037
959	0.037
960	0.037
960	0.036
960	0.036
961	0.035
961	0.035
962	0.034
962	0.034
963	0.034
963	0.034
963	0.034
964	0.034
964	0.034
965	0.035
965	0.036
966	0.037
966	0.038
966	0.039
967	0.039
967	0.04
968	0.04
968	0.04
968	0.041
969	0.041
969	0.041
970	0.04
970	0.04
971	0.04
971	0.04
971	0.04
972	0.04
972	0.041
973	0.041
973	0.041
974	0.042
974	0.042
974	0.043
975	0.044
975	0.045
976	0.046
976	0.046
976	0.047
977	0.047
977	0.048
978	0.048
978	0.048
979	0.049
979	0.049
979	0.05
980	0.05
980	0.05
981	0.051
981	0.051
982	0.052
982	0.053
982	0.054
983	0.055
983	0.055
984	0.056
984	0.056
984	0.056
985	0.056
985	0.056
986	0.056
986	0.055
987	0.055
987	0.054
987	0.053
988	0.053
988	0.052
989	0.051
989	0.051
990	0.05
990	0.05
990	0.05
991	0.05
991	0.05
992	0.05
992	0.05
992	0.05
993	0.05
993	0.049
994	0.049
994	0.049
995	0.048
995	0.048
995	0.047
996	0.047
996	0.046
997	0.046
997	0.046
997	0.045
998	0.046
998	0.046
999	0.047
999	0.048
1000	0.048
1000	0.049
1000	0.05
1001	0.051
1001	0.052
1002	0.052
1002	0.052
1003	0.052
1003	0.052
1003	0.051
1004	0.051
1004	0.05
1005	0.049
1005	0.049
1005	0.048
1006	0.047
1006	0.047
1007	0.046
1007	0.046
1008	0.046
1008	0.046
1008	0.046
1009	0.047
1009	0.047
1010	0.048
1010	0.048
1010	0.049
1011	0.049
1011	0.05
1012	0.05
1012	0.051
1013	0.051
1013	0.051
1013	0.051
1014	0.05
1014	0.05
1015	0.049
1015	0.048
1016	0.047
1016	0.047
1016	0.046
1017	0.044
1017	0.043
1018	0.043
1018	0.042
1018	0.042
1019	0.042
1019	0.041
1020	0.041
1020	0.041
1021	0.041
1021	0.04
1021	0.04
1022	0.04
1022	0.04
1023	0.04
1023	0.04
1023	0.039
1024	0.039
1024	0.038
1025	0.038
1025	0.038
1026	0.037
1026	0.037
1026	0.037
1027	0.036
1027	0.036
1028	0.036
1028	0.037
1028	0.037
1029	0.037
1029	0.038
1030	0.038
1030	0.038
1031	0.039
1031	0.039
1031	0.039
1032	0.04
1032	0.04
1033	0.041
1033	0.041
1033	0.041
1034	0.041
1034	0.041
1035	0.041
1035	0.041
1036	0.041
1036	0.042
1036	0.042
1037	0.042
1037	0.043
1038	0.043
1038	0.044
1039	0.045
1039	0.046
1039	0.047
1040	0.048
1040	0.048
1041	0.048
1041	0.048
1041	0.048
1042	0.048
1042	0.048
1043	0.047
1043	0.047
1044	0.046
1044	0.046
1044	0.045
1045	0.045
1045	0.045
1046	0.045
1046	0.045
1046	0.045
1047	0.046
1047	0.046
1048	0.047
1048	0.047
1049	0.047
1049	0.047
1049	0.047
1050	0.047
1050	0.046
1051	0.046
1051	0.046
1051	0.047
1052	0.047
1052	0.047
1053	0.048
1053	0.048
1053	0.049
1054	0.05
1054	0.051
1055	0.053
1055	0.054
1056	0.054
1056	0.054
1056	0.055
1057	0.055
1057	0.056
1058	0.057
1058	0.057
1058	0.059
1059	0.06
1059	0.061
1060	0.062
1060	0.063
1061	0.065
1061	0.066
1061	0.067
1062	0.067
1062	0.068
1063	0.068
1063	0.069
1063	0.069
1064	0.07
1064	0.072
1065	0.073
1065	0.074
1066	0.076
1066	0.077
1066	0.079
1067	0.081
1067	0.084
1068	0.085
1068	0.087
1068	0.089
1069	0.09
1069	0.091
1070	0.092
1070	0.094
1071	0.096
1071	0.097
1071	0.099
1072	0.101
1072	0.103
1073	0.105
1073	0.107
1073	0.109
1074	0.11
1074	0.113
1075	0.113
1075	0.114
1076	0.116
1076	0.118
1076	0.119
1077	0.12
1077	0.123
1078	0.125
1078	0.128
1078	0.131
1079	0.134
1079	0.138
1080	0.141
1080	0.144
1080	0.147
1081	0.15
1081	0.153
1082	0.155
1082	0.158
1083	0.16
1083	0.163
1083	0.168
1084	0.171
1084	0.176
1085	0.18
1085	0.185
1085	0.19
1086	0.195
1086	0.199
1087	0.205
1087	0.211
1088	0.216
1088	0.221
1088	0.228
1089	0.234
1089	0.243
1090	0.253
1090	0.263
1090	0.274
1091	0.286
1091	0.301
1092	0.316
1092	0.332
1092	0.348
1093	0.364
1093	0.385
1094	0.404
1094	0.425
1095	0.447
1095	0.472
1095	0.505
1096	0.538
1096	0.576
1097	0.627
1097	0.68
1097	0.745
1098	0.821
1098	0.926
1099	1.071
1099	1.311
1100	2.06
1100	-0
1100	-0
1101	-0
1101	-0
1102	-0
1102	-0
1102	-0
1103	-0
1103	-0
1104	-0
1104	-0
1104	-0
1105	-0
1105	-0
1106	-0
1106	-0
1107	-0
1107	-0
1107	-0
1108	-0
1108	-0
1109	-0
1109	-0
1109	-0
1110	-0
1110	-0
1111	-0
1111	-0
