Data from 15c-stair-power-variation_Absorbance__160__03770.txt Node

Date: Tue Jan 16 15:47:21 CET 2024
User: Marek
Spectrometer: MAYP115816
Trigger mode: 0
Integration Time (sec): 2.000000E-1
Scans to average: 10
Electric dark correction enabled: true
Nonlinearity correction enabled: true
Boxcar width: 5
XAxis mode: Wavelengths
Number of Pixels in Spectrum: 2068
>>>>>Begin Spectral Data<<<<<
199	-0.604
199	-0.528
200	-0.462
200	-0.392
201	-0.353
201	-0.331
202	-0.307
202	-0.299
203	-0.295
203	-0.286
204	-0.271
204	-0.253
205	-0.24
205	-0.231
205	-0.234
206	-0.233
206	-0.235
207	-0.234
207	-0.236
208	-0.234
208	-0.238
209	-0.234
209	-0.239
210	-0.24
210	-0.241
211	-0.24
211	-0.243
212	-0.246
212	-0.246
213	-0.246
213	-0.246
213	-0.25
214	-0.25
214	-0.248
215	-0.246
215	-0.251
216	-0.251
216	-0.253
217	-0.249
217	-0.249
218	-0.248
218	-0.243
219	-0.237
219	-0.238
220	-0.24
220	-0.244
221	-0.242
221	-0.242
221	-0.237
222	-0.234
222	-0.23
223	-0.225
223	-0.224
224	-0.223
224	-0.213
225	-0.203
225	-0.195
226	-0.189
226	-0.18
227	-0.167
227	-0.162
228	-0.149
228	-0.137
229	-0.12
229	-0.098
229	-0.079
230	-0.056
230	-0.028
231	0.001
231	0.032
232	0.059
232	0.093
233	0.124
233	0.157
234	0.186
234	0.214
235	0.241
235	0.264
236	0.288
236	0.309
236	0.33
237	0.349
237	0.365
238	0.38
238	0.393
239	0.407
239	0.417
240	0.427
240	0.435
241	0.442
241	0.448
242	0.453
242	0.459
243	0.463
243	0.467
243	0.47
244	0.473
244	0.476
245	0.478
245	0.481
246	0.484
246	0.486
247	0.488
247	0.49
248	0.492
248	0.495
249	0.496
249	0.498
250	0.499
250	0.501
250	0.503
251	0.504
251	0.505
252	0.507
252	0.508
253	0.509
253	0.509
254	0.511
254	0.512
255	0.512
255	0.513
256	0.513
256	0.514
257	0.514
257	0.514
258	0.514
258	0.514
258	0.514
259	0.514
259	0.513
260	0.513
260	0.513
261	0.512
261	0.511
262	0.511
262	0.509
263	0.509
263	0.507
264	0.506
264	0.505
265	0.504
265	0.503
265	0.501
266	0.5
266	0.498
267	0.496
267	0.494
268	0.492
268	0.489
269	0.487
269	0.485
270	0.482
270	0.48
271	0.477
271	0.475
272	0.472
272	0.47
272	0.467
273	0.465
273	0.462
274	0.46
274	0.457
275	0.455
275	0.452
276	0.449
276	0.447
277	0.444
277	0.441
278	0.438
278	0.436
278	0.433
279	0.429
279	0.425
280	0.422
280	0.419
281	0.416
281	0.412
282	0.409
282	0.406
283	0.404
283	0.401
284	0.398
284	0.396
285	0.394
285	0.392
285	0.389
286	0.387
286	0.385
287	0.382
287	0.38
288	0.378
288	0.376
289	0.374
289	0.372
290	0.37
290	0.368
291	0.366
291	0.364
292	0.362
292	0.36
292	0.358
293	0.357
293	0.355
294	0.353
294	0.352
295	0.35
295	0.349
296	0.347
296	0.346
297	0.344
297	0.343
298	0.342
298	0.341
298	0.34
299	0.339
299	0.338
300	0.337
300	0.336
301	0.335
301	0.334
302	0.333
302	0.332
303	0.331
303	0.33
304	0.329
304	0.328
305	0.327
305	0.326
305	0.325
306	0.324
306	0.323
307	0.322
307	0.321
308	0.32
308	0.319
309	0.318
309	0.317
310	0.316
310	0.316
311	0.315
311	0.314
311	0.313
312	0.312
312	0.312
313	0.311
313	0.31
314	0.309
314	0.308
315	0.307
315	0.306
316	0.305
316	0.304
317	0.303
317	0.302
318	0.302
318	0.301
318	0.3
319	0.299
319	0.298
320	0.297
320	0.296
321	0.296
321	0.295
322	0.294
322	0.294
323	0.293
323	0.292
324	0.291
324	0.291
324	0.29
325	0.289
325	0.288
326	0.288
326	0.287
327	0.286
327	0.285
328	0.284
328	0.284
329	0.283
329	0.282
330	0.282
330	0.281
330	0.28
331	0.279
331	0.279
332	0.278
332	0.277
333	0.277
333	0.276
334	0.275
334	0.275
335	0.274
335	0.273
336	0.273
336	0.272
336	0.271
337	0.271
337	0.27
338	0.27
338	0.269
339	0.269
339	0.268
340	0.267
340	0.267
341	0.266
341	0.266
342	0.265
342	0.265
342	0.265
343	0.264
343	0.264
344	0.263
344	0.263
345	0.263
345	0.262
346	0.262
346	0.261
347	0.261
347	0.261
348	0.261
348	0.261
348	0.26
349	0.26
349	0.26
350	0.259
350	0.259
351	0.259
351	0.258
352	0.258
352	0.258
353	0.257
353	0.257
354	0.256
354	0.256
354	0.256
355	0.255
355	0.255
356	0.255
356	0.255
357	0.254
357	0.254
358	0.254
358	0.254
359	0.253
359	0.253
360	0.253
360	0.253
360	0.253
361	0.253
361	0.253
362	0.253
362	0.253
363	0.253
363	0.252
364	0.252
364	0.252
365	0.252
365	0.252
366	0.252
366	0.252
366	0.252
367	0.252
367	0.251
368	0.251
368	0.251
369	0.251
369	0.251
370	0.251
370	0.25
371	0.25
371	0.25
372	0.25
372	0.249
372	0.249
373	0.249
373	0.249
374	0.248
374	0.248
375	0.248
375	0.248
376	0.247
376	0.247
377	0.247
377	0.247
378	0.247
378	0.247
378	0.247
379	0.247
379	0.247
380	0.247
380	0.246
381	0.246
381	0.246
382	0.245
382	0.245
383	0.245
383	0.244
383	0.244
384	0.244
384	0.243
385	0.243
385	0.243
386	0.243
386	0.243
387	0.242
387	0.242
388	0.242
388	0.242
389	0.241
389	0.241
389	0.241
390	0.24
390	0.24
391	0.24
391	0.24
392	0.24
392	0.24
393	0.24
393	0.239
394	0.239
394	0.239
394	0.239
395	0.239
395	0.239
396	0.238
396	0.238
397	0.238
397	0.238
398	0.238
398	0.238
399	0.237
399	0.237
400	0.237
400	0.236
400	0.236
401	0.236
401	0.235
402	0.235
402	0.235
403	0.234
403	0.234
404	0.234
404	0.234
405	0.234
405	0.234
405	0.234
406	0.234
406	0.233
407	0.233
407	0.233
408	0.233
408	0.233
409	0.232
409	0.232
410	0.232
410	0.232
411	0.232
411	0.232
411	0.232
412	0.232
412	0.231
413	0.231
413	0.231
414	0.231
414	0.23
415	0.23
415	0.23
416	0.229
416	0.229
416	0.229
417	0.229
417	0.229
418	0.229
418	0.229
419	0.229
419	0.229
420	0.23
420	0.23
421	0.23
421	0.229
421	0.229
422	0.229
422	0.229
423	0.229
423	0.229
424	0.228
424	0.228
425	0.227
425	0.227
426	0.227
426	0.227
427	0.227
427	0.227
427	0.227
428	0.227
428	0.227
429	0.227
429	0.227
430	0.226
430	0.226
431	0.226
431	0.226
432	0.226
432	0.226
432	0.225
433	0.225
433	0.225
434	0.225
434	0.225
435	0.225
435	0.225
436	0.225
436	0.225
437	0.224
437	0.224
437	0.225
438	0.224
438	0.225
439	0.225
439	0.225
440	0.225
440	0.225
441	0.225
441	0.225
442	0.225
442	0.226
442	0.226
443	0.226
443	0.226
444	0.227
444	0.227
445	0.227
445	0.227
446	0.227
446	0.226
447	0.226
447	0.226
447	0.226
448	0.226
448	0.226
449	0.225
449	0.225
450	0.225
450	0.225
451	0.225
451	0.225
452	0.225
452	0.225
452	0.225
453	0.225
453	0.225
454	0.225
454	0.225
455	0.225
455	0.226
456	0.226
456	0.226
457	0.226
457	0.226
458	0.226
458	0.226
458	0.227
459	0.227
459	0.227
460	0.227
460	0.227
461	0.227
461	0.228
462	0.228
462	0.229
463	0.229
463	0.23
463	0.231
464	0.231
464	0.231
465	0.231
465	0.231
466	0.232
466	0.232
467	0.232
467	0.232
467	0.232
468	0.231
468	0.232
469	0.232
469	0.233
470	0.234
470	0.234
471	0.234
471	0.234
472	0.235
472	0.235
472	0.236
473	0.237
473	0.237
474	0.238
474	0.238
475	0.239
475	0.239
476	0.24
476	0.241
477	0.241
477	0.242
477	0.243
478	0.243
478	0.244
479	0.245
479	0.247
480	0.247
480	0.248
481	0.249
481	0.25
482	0.251
482	0.252
482	0.253
483	0.254
483	0.256
484	0.257
484	0.257
485	0.258
485	0.259
486	0.26
486	0.261
487	0.262
487	0.263
487	0.264
488	0.265
488	0.265
489	0.267
489	0.27
490	0.271
490	0.273
491	0.275
491	0.277
492	0.278
492	0.279
492	0.281
493	0.282
493	0.284
494	0.287
494	0.289
495	0.29
495	0.292
496	0.294
496	0.295
496	0.297
497	0.299
497	0.301
498	0.302
498	0.304
499	0.305
499	0.307
500	0.309
500	0.311
501	0.313
501	0.315
501	0.317
502	0.319
502	0.321
503	0.324
503	0.325
504	0.327
504	0.329
505	0.33
505	0.333
506	0.335
506	0.337
506	0.339
507	0.34
507	0.342
508	0.345
508	0.347
509	0.349
509	0.351
510	0.353
510	0.355
511	0.357
511	0.358
511	0.36
512	0.362
512	0.363
513	0.364
513	0.366
514	0.367
514	0.369
515	0.37
515	0.37
515	0.371
516	0.372
516	0.374
517	0.375
517	0.375
518	0.376
518	0.376
519	0.376
519	0.377
520	0.378
520	0.379
520	0.38
521	0.38
521	0.38
522	0.38
522	0.38
523	0.381
523	0.382
524	0.382
524	0.382
524	0.382
525	0.381
525	0.381
526	0.381
526	0.38
527	0.38
527	0.379
528	0.378
528	0.377
529	0.376
529	0.376
529	0.375
530	0.374
530	0.373
531	0.372
531	0.371
532	0.37
532	0.369
533	0.368
533	0.366
533	0.365
534	0.363
534	0.361
535	0.359
535	0.358
536	0.356
536	0.353
537	0.351
537	0.349
538	0.347
538	0.345
538	0.343
539	0.341
539	0.339
540	0.337
540	0.335
541	0.332
541	0.331
542	0.328
542	0.326
542	0.324
543	0.321
543	0.318
544	0.316
544	0.313
545	0.311
545	0.309
546	0.306
546	0.302
547	0.299
547	0.296
547	0.293
548	0.291
548	0.288
549	0.286
549	0.283
550	0.281
550	0.278
551	0.274
551	0.272
551	0.269
552	0.267
552	0.265
553	0.262
553	0.26
554	0.257
554	0.254
555	0.251
555	0.248
556	0.245
556	0.242
556	0.239
557	0.237
557	0.235
558	0.232
558	0.229
559	0.227
559	0.225
560	0.223
560	0.22
560	0.219
561	0.218
561	0.216
562	0.213
562	0.21
563	0.207
563	0.205
564	0.202
564	0.2
564	0.198
565	0.195
565	0.193
566	0.19
566	0.188
567	0.186
567	0.185
568	0.183
568	0.181
568	0.179
569	0.178
569	0.176
570	0.173
570	0.17
571	0.169
571	0.168
572	0.165
572	0.164
573	0.161
573	0.159
573	0.157
574	0.155
574	0.154
575	0.153
575	0.153
576	0.151
576	0.148
577	0.145
577	0.143
577	0.143
578	0.142
578	0.142
579	0.142
579	0.142
580	0.139
580	0.136
581	0.133
581	0.132
581	0.132
582	0.133
582	0.133
583	0.133
583	0.13
584	0.126
584	0.123
585	0.123
585	0.124
585	0.124
586	0.123
586	0.122
587	0.12
587	0.118
588	0.117
588	0.116
589	0.117
589	0.117
590	0.117
590	0.117
590	0.118
591	0.119
591	0.117
592	0.116
592	0.114
593	0.113
593	0.113
594	0.112
594	0.11
594	0.11
595	0.109
595	0.108
596	0.107
596	0.109
597	0.112
597	0.112
598	0.111
598	0.111
598	0.111
599	0.111
599	0.11
600	0.109
600	0.108
601	0.108
601	0.107
602	0.105
602	0.105
602	0.104
603	0.104
603	0.105
604	0.105
604	0.106
605	0.106
605	0.107
606	0.106
606	0.104
606	0.104
607	0.103
607	0.103
608	0.103
608	0.101
609	0.101
609	0.101
610	0.1
610	0.099
610	0.1
611	0.101
611	0.102
612	0.103
612	0.104
613	0.105
613	0.106
614	0.105
614	0.105
614	0.105
615	0.105
615	0.105
616	0.105
616	0.105
617	0.105
617	0.105
618	0.105
618	0.106
618	0.107
619	0.109
619	0.111
620	0.113
620	0.114
621	0.115
621	0.116
622	0.116
622	0.117
622	0.117
623	0.117
623	0.119
624	0.119
624	0.119
625	0.119
625	0.12
626	0.121
626	0.121
626	0.123
627	0.124
627	0.125
628	0.126
628	0.126
629	0.127
629	0.128
630	0.128
630	0.128
630	0.13
631	0.131
631	0.131
632	0.132
632	0.133
633	0.134
633	0.135
634	0.137
634	0.139
634	0.14
635	0.141
635	0.142
636	0.144
636	0.146
637	0.147
637	0.149
638	0.151
638	0.152
638	0.154
639	0.155
639	0.157
640	0.16
640	0.162
641	0.165
641	0.167
642	0.17
642	0.172
642	0.174
643	0.176
643	0.178
644	0.181
644	0.183
645	0.185
645	0.187
646	0.19
646	0.193
646	0.196
647	0.199
647	0.201
648	0.204
648	0.206
649	0.21
649	0.213
650	0.216
650	0.218
650	0.221
651	0.223
651	0.226
652	0.229
652	0.232
653	0.237
653	0.245
653	0.247
654	0.196
654	0.158
655	0.16
655	0.162
656	0.164
656	0.166
657	0.167
657	0.169
657	0.17
658	0.167
658	0.163
659	0.207
659	0.268
660	0.28
660	0.283
661	0.286
661	0.289
661	0.293
662	0.298
662	0.302
663	0.305
663	0.309
664	0.313
664	0.316
665	0.319
665	0.323
665	0.326
666	0.329
666	0.332
667	0.335
667	0.338
668	0.341
668	0.344
669	0.347
669	0.35
669	0.354
670	0.358
670	0.36
671	0.363
671	0.365
672	0.368
672	0.37
672	0.373
673	0.375
673	0.378
674	0.38
674	0.382
675	0.384
675	0.386
676	0.389
676	0.391
676	0.393
677	0.395
677	0.397
678	0.398
678	0.399
679	0.4
679	0.401
680	0.403
680	0.404
680	0.404
681	0.406
681	0.407
682	0.409
682	0.41
683	0.412
683	0.413
684	0.414
684	0.414
684	0.414
685	0.414
685	0.415
686	0.415
686	0.414
687	0.414
687	0.414
687	0.413
688	0.412
688	0.412
689	0.412
689	0.412
690	0.41
690	0.409
691	0.409
691	0.408
691	0.407
692	0.406
692	0.406
693	0.406
693	0.405
694	0.404
694	0.403
695	0.404
695	0.404
695	0.403
696	0.401
696	0.399
697	0.398
697	0.396
698	0.394
698	0.391
698	0.389
699	0.387
699	0.383
700	0.38
700	0.378
701	0.377
701	0.374
702	0.371
702	0.369
702	0.366
703	0.364
703	0.361
704	0.359
704	0.357
705	0.354
705	0.35
705	0.347
706	0.344
706	0.341
707	0.338
707	0.335
708	0.333
708	0.331
709	0.329
709	0.327
709	0.324
710	0.322
710	0.32
711	0.318
711	0.316
712	0.314
712	0.312
713	0.309
713	0.307
713	0.304
714	0.301
714	0.298
715	0.296
715	0.292
716	0.289
716	0.286
716	0.282
717	0.279
717	0.276
718	0.273
718	0.27
719	0.268
719	0.266
720	0.264
720	0.261
720	0.259
721	0.256
721	0.254
722	0.252
722	0.25
723	0.248
723	0.245
723	0.242
724	0.239
724	0.236
725	0.232
725	0.23
726	0.227
726	0.224
727	0.221
727	0.218
727	0.216
728	0.213
728	0.212
729	0.211
729	0.209
730	0.207
730	0.206
730	0.205
731	0.204
731	0.203
732	0.202
732	0.2
733	0.199
733	0.197
734	0.196
734	0.194
734	0.193
735	0.191
735	0.189
736	0.187
736	0.185
737	0.183
737	0.182
737	0.179
738	0.176
738	0.174
739	0.172
739	0.17
740	0.168
740	0.168
741	0.167
741	0.165
741	0.163
742	0.161
742	0.16
743	0.16
743	0.159
744	0.158
744	0.156
744	0.155
745	0.153
745	0.151
746	0.149
746	0.148
747	0.146
747	0.145
748	0.143
748	0.141
748	0.138
749	0.136
749	0.134
750	0.132
750	0.13
751	0.128
751	0.126
751	0.125
752	0.123
752	0.121
753	0.12
753	0.12
754	0.119
754	0.118
754	0.118
755	0.117
755	0.115
756	0.113
756	0.11
757	0.109
757	0.108
758	0.107
758	0.105
758	0.104
759	0.102
759	0.099
760	0.097
760	0.095
761	0.095
761	0.096
761	0.095
762	0.094
762	0.094
763	0.093
763	0.092
764	0.09
764	0.089
764	0.089
765	0.088
765	0.088
766	0.087
766	0.087
767	0.086
767	0.084
768	0.083
768	0.083
768	0.083
769	0.083
769	0.082
770	0.081
770	0.08
771	0.079
771	0.078
771	0.077
772	0.077
772	0.077
773	0.077
773	0.076
774	0.075
774	0.075
775	0.075
775	0.074
775	0.073
776	0.072
776	0.072
777	0.071
777	0.07
778	0.069
778	0.069
778	0.069
779	0.069
779	0.069
780	0.067
780	0.067
781	0.067
781	0.066
781	0.066
782	0.065
782	0.065
783	0.065
783	0.065
784	0.063
784	0.062
784	0.062
785	0.062
785	0.061
786	0.061
786	0.06
787	0.06
787	0.059
788	0.058
788	0.058
788	0.058
789	0.058
789	0.058
790	0.058
790	0.057
791	0.057
791	0.057
791	0.057
792	0.058
792	0.057
793	0.055
793	0.055
794	0.054
794	0.053
794	0.053
795	0.053
795	0.053
796	0.052
796	0.052
797	0.051
797	0.052
797	0.052
798	0.052
798	0.052
799	0.052
799	0.052
800	0.051
800	0.05
801	0.05
801	0.05
801	0.049
802	0.048
802	0.048
803	0.047
803	0.047
804	0.046
804	0.046
804	0.046
805	0.045
805	0.045
806	0.045
806	0.045
807	0.045
807	0.045
807	0.045
808	0.045
808	0.045
809	0.044
809	0.044
810	0.045
810	0.044
810	0.044
811	0.044
811	0.044
812	0.044
812	0.043
813	0.042
813	0.042
813	0.042
814	0.043
814	0.043
815	0.043
815	0.043
816	0.043
816	0.042
817	0.042
817	0.043
817	0.043
818	0.043
818	0.043
819	0.043
819	0.041
820	0.04
820	0.04
820	0.04
821	0.039
821	0.039
822	0.038
822	0.038
823	0.037
823	0.036
823	0.036
824	0.036
824	0.036
825	0.035
825	0.035
826	0.034
826	0.033
826	0.032
827	0.032
827	0.031
828	0.031
828	0.03
829	0.031
829	0.031
829	0.031
830	0.032
830	0.033
831	0.035
831	0.035
832	0.036
832	0.036
832	0.037
833	0.037
833	0.037
834	0.036
834	0.036
835	0.035
835	0.034
835	0.033
836	0.033
836	0.033
837	0.033
837	0.033
838	0.034
838	0.034
839	0.034
839	0.035
839	0.035
840	0.035
840	0.035
841	0.035
841	0.035
842	0.035
842	0.034
842	0.034
843	0.033
843	0.032
844	0.032
844	0.031
845	0.03
845	0.03
845	0.03
846	0.03
846	0.029
847	0.029
847	0.03
848	0.03
848	0.03
848	0.03
849	0.03
849	0.029
850	0.029
850	0.028
851	0.028
851	0.028
851	0.028
852	0.027
852	0.027
853	0.027
853	0.027
854	0.027
854	0.027
854	0.026
855	0.026
855	0.025
856	0.025
856	0.025
857	0.025
857	0.024
857	0.024
858	0.024
858	0.023
859	0.023
859	0.023
860	0.023
860	0.022
860	0.022
861	0.022
861	0.021
862	0.02
862	0.019
863	0.018
863	0.017
863	0.017
864	0.016
864	0.016
865	0.016
865	0.015
866	0.015
866	0.015
866	0.016
867	0.017
867	0.018
868	0.019
868	0.02
869	0.021
869	0.021
869	0.021
870	0.02
870	0.02
871	0.02
871	0.019
872	0.018
872	0.017
872	0.016
873	0.015
873	0.015
874	0.014
874	0.014
875	0.015
875	0.015
875	0.015
876	0.015
876	0.015
877	0.015
877	0.015
878	0.014
878	0.014
878	0.014
879	0.013
879	0.012
880	0.012
880	0.011
881	0.011
881	0.011
881	0.011
882	0.012
882	0.012
883	0.013
883	0.013
884	0.014
884	0.015
884	0.015
885	0.016
885	0.016
886	0.016
886	0.016
887	0.016
887	0.016
887	0.016
888	0.015
888	0.014
889	0.014
889	0.015
890	0.015
890	0.015
890	0.015
891	0.016
891	0.016
892	0.016
892	0.017
893	0.017
893	0.018
893	0.018
894	0.019
894	0.019
895	0.019
895	0.019
895	0.019
896	0.019
896	0.02
897	0.021
897	0.021
898	0.022
898	0.022
898	0.022
899	0.023
899	0.023
900	0.023
900	0.023
901	0.023
901	0.023
901	0.023
902	0.023
902	0.023
903	0.022
903	0.022
904	0.021
904	0.02
904	0.02
905	0.019
905	0.018
906	0.017
906	0.017
907	0.016
907	0.015
907	0.014
908	0.014
908	0.013
909	0.013
909	0.013
910	0.013
910	0.013
910	0.013
911	0.014
911	0.015
912	0.015
912	0.016
913	0.017
913	0.018
913	0.018
914	0.019
914	0.019
915	0.018
915	0.018
916	0.017
916	0.016
916	0.015
917	0.014
917	0.013
918	0.012
918	0.012
918	0.011
919	0.011
919	0.011
920	0.011
920	0.011
921	0.011
921	0.011
921	0.01
922	0.01
922	0.01
923	0.009
923	0.008
924	0.007
924	0.006
924	0.006
925	0.004
925	0.004
926	0.003
926	0.002
927	0.002
927	0.001
927	0.002
928	0.002
928	0.003
929	0.004
929	0.006
930	0.008
930	0.01
930	0.012
931	0.014
931	0.016
932	0.018
932	0.02
933	0.022
933	0.023
933	0.024
934	0.025
934	0.025
935	0.025
935	0.024
935	0.024
936	0.023
936	0.023
937	0.022
937	0.022
938	0.021
938	0.02
938	0.02
939	0.02
939	0.02
940	0.02
940	0.02
941	0.02
941	0.019
941	0.019
942	0.019
942	0.018
943	0.017
943	0.016
944	0.016
944	0.015
944	0.015
945	0.015
945	0.014
946	0.014
946	0.013
946	0.012
947	0.012
947	0.011
948	0.01
948	0.01
949	0.009
949	0.008
949	0.008
950	0.008
950	0.008
951	0.008
951	0.007
952	0.007
952	0.006
952	0.006
953	0.006
953	0.006
954	0.005
954	0.004
955	0.004
955	0.003
955	0.003
956	0.003
956	0.003
957	0.003
957	0.003
957	0.003
958	0.003
958	0.003
959	0.003
959	0.003
960	0.003
960	0.003
960	0.003
961	0.002
961	0.002
962	0.001
962	0.001
963	0.001
963	0
963	0
964	0
964	0.001
965	0.001
965	0.002
966	0.003
966	0.004
966	0.005
967	0.006
967	0.007
968	0.007
968	0.007
968	0.007
969	0.007
969	0.007
970	0.007
970	0.007
971	0.007
971	0.007
971	0.007
972	0.007
972	0.007
973	0.007
973	0.008
974	0.008
974	0.008
974	0.009
975	0.009
975	0.01
976	0.011
976	0.012
976	0.012
977	0.012
977	0.012
978	0.012
978	0.013
979	0.013
979	0.013
979	0.014
980	0.014
980	0.014
981	0.014
981	0.014
982	0.015
982	0.016
982	0.017
983	0.017
983	0.018
984	0.018
984	0.019
984	0.019
985	0.019
985	0.019
986	0.018
986	0.018
987	0.017
987	0.016
987	0.015
988	0.014
988	0.014
989	0.013
989	0.012
990	0.011
990	0.011
990	0.011
991	0.011
991	0.011
992	0.012
992	0.012
992	0.011
993	0.011
993	0.011
994	0.011
994	0.01
995	0.01
995	0.009
995	0.008
996	0.008
996	0.007
997	0.006
997	0.006
997	0.006
998	0.006
998	0.006
999	0.007
999	0.007
1000	0.008
1000	0.008
1000	0.009
1001	0.01
1001	0.01
1002	0.011
1002	0.011
1003	0.011
1003	0.011
1003	0.011
1004	0.01
1004	0.01
1005	0.009
1005	0.008
1005	0.007
1006	0.006
1006	0.005
1007	0.005
1007	0.004
1008	0.004
1008	0.004
1008	0.004
1009	0.004
1009	0.004
1010	0.005
1010	0.005
1010	0.005
1011	0.006
1011	0.006
1012	0.006
1012	0.006
1013	0.007
1013	0.006
1013	0.006
1014	0.005
1014	0.005
1015	0.004
1015	0.003
1016	0.002
1016	0.001
1016	0
1017	-0.001
1017	-0.002
1018	-0.003
1018	-0.004
1018	-0.004
1019	-0.005
1019	-0.005
1020	-0.006
1020	-0.006
1021	-0.007
1021	-0.007
1021	-0.007
1022	-0.007
1022	-0.007
1023	-0.007
1023	-0.008
1023	-0.008
1024	-0.009
1024	-0.01
1025	-0.01
1025	-0.011
1026	-0.011
1026	-0.012
1026	-0.013
1027	-0.013
1027	-0.013
1028	-0.014
1028	-0.014
1028	-0.014
1029	-0.014
1029	-0.015
1030	-0.015
1030	-0.015
1031	-0.015
1031	-0.015
1031	-0.015
1032	-0.015
1032	-0.015
1033	-0.014
1033	-0.014
1033	-0.014
1034	-0.014
1034	-0.015
1035	-0.015
1035	-0.015
1036	-0.015
1036	-0.015
1036	-0.015
1037	-0.015
1037	-0.015
1038	-0.015
1038	-0.015
1039	-0.015
1039	-0.014
1039	-0.014
1040	-0.013
1040	-0.013
1041	-0.013
1041	-0.014
1041	-0.014
1042	-0.015
1042	-0.016
1043	-0.017
1043	-0.018
1044	-0.019
1044	-0.02
1044	-0.021
1045	-0.022
1045	-0.023
1046	-0.024
1046	-0.025
1046	-0.025
1047	-0.025
1047	-0.025
1048	-0.025
1048	-0.025
1049	-0.026
1049	-0.026
1049	-0.027
1050	-0.028
1050	-0.028
1051	-0.029
1051	-0.03
1051	-0.03
1052	-0.031
1052	-0.032
1053	-0.032
1053	-0.033
1053	-0.033
1054	-0.033
1054	-0.033
1055	-0.033
1055	-0.033
1056	-0.033
1056	-0.033
1056	-0.034
1057	-0.034
1057	-0.035
1058	-0.035
1058	-0.035
1058	-0.035
1059	-0.035
1059	-0.036
1060	-0.036
1060	-0.037
1061	-0.037
1061	-0.037
1061	-0.037
1062	-0.037
1062	-0.038
1063	-0.038
1063	-0.038
1063	-0.039
1064	-0.039
1064	-0.039
1065	-0.039
1065	-0.039
1066	-0.039
1066	-0.039
1066	-0.039
1067	-0.039
1067	-0.038
1068	-0.038
1068	-0.038
1068	-0.038
1069	-0.038
1069	-0.038
1070	-0.039
1070	-0.039
1071	-0.039
1071	-0.039
1071	-0.039
1072	-0.039
1072	-0.04
1073	-0.04
1073	-0.04
1073	-0.041
1074	-0.041
1074	-0.042
1075	-0.043
1075	-0.045
1076	-0.046
1076	-0.047
1076	-0.048
1077	-0.05
1077	-0.051
1078	-0.052
1078	-0.052
1078	-0.052
1079	-0.052
1079	-0.052
1080	-0.052
1080	-0.052
1080	-0.053
1081	-0.053
1081	-0.053
1082	-0.053
1082	-0.053
1083	-0.054
1083	-0.055
1083	-0.055
1084	-0.056
1084	-0.056
1085	-0.056
1085	-0.056
1085	-0.056
1086	-0.056
1086	-0.057
1087	-0.057
1087	-0.057
1088	-0.058
1088	-0.058
1088	-0.059
1089	-0.06
1089	-0.061
1090	-0.061
1090	-0.062
1090	-0.063
1091	-0.065
1091	-0.065
1092	-0.065
1092	-0.066
1092	-0.067
1093	-0.068
1093	-0.067
1094	-0.068
1094	-0.07
1095	-0.072
1095	-0.073
1095	-0.073
1096	-0.075
1096	-0.077
1097	-0.077
1097	-0.079
1097	-0.08
1098	-0.083
1098	-0.085
1099	-0.086
1099	-0.087
1100	-0.089
1100	-0.091
1100	-0.093
1101	-0.095
1101	-0.097
1102	-0.099
1102	-0.101
1102	-0.102
1103	-0.104
1103	-0.107
1104	-0.108
1104	-0.11
1104	-0.112
1105	-0.113
1105	-0.115
1106	-0.118
1106	-0.12
1107	-0.124
1107	-0.126
1107	-0.129
1108	-0.129
1108	-0.13
1109	-0.132
1109	-0.135
1109	-0.139
1110	-0.14
1110	-0.142
1111	-0.146
1111	-0.14
