Data from 15c-stair-power-variation_Absorbance__23__03633.txt Node

Date: Tue Jan 16 15:42:47 CET 2024
User: Marek
Spectrometer: MAYP115816
Trigger mode: 0
Integration Time (sec): 2.000000E-1
Scans to average: 10
Electric dark correction enabled: true
Nonlinearity correction enabled: true
Boxcar width: 5
XAxis mode: Wavelengths
Number of Pixels in Spectrum: 2068
>>>>>Begin Spectral Data<<<<<
199	-2.327
199	-2.137
200	-2.002
200	-1.881
201	-1.807
201	-1.755
202	-1.678
202	-1.615
203	-1.566
203	-1.516
204	-1.489
204	-1.464
205	-1.444
205	-1.432
205	-1.429
206	-1.424
206	-1.42
207	-1.417
207	-1.417
208	-1.412
208	-1.411
209	-1.407
209	-1.405
210	-1.404
210	-1.401
211	-1.4
211	-1.399
212	-1.398
212	-1.397
213	-1.395
213	-1.394
213	-1.394
214	-1.392
214	-1.391
215	-1.39
215	-1.39
216	-1.386
216	-1.385
217	-1.381
217	-1.379
218	-1.375
218	-1.371
219	-1.367
219	-1.366
220	-1.364
220	-1.362
221	-1.358
221	-1.356
221	-1.352
222	-1.348
222	-1.342
223	-1.337
223	-1.332
224	-1.326
224	-1.317
225	-1.308
225	-1.298
226	-1.29
226	-1.28
227	-1.266
227	-1.253
228	-1.237
228	-1.22
229	-1.2
229	-1.176
229	-1.15
230	-1.121
230	-1.088
231	-1.053
231	-1.013
232	-0.972
232	-0.928
233	-0.881
233	-0.833
234	-0.784
234	-0.734
235	-0.684
235	-0.634
236	-0.584
236	-0.534
236	-0.486
237	-0.439
237	-0.393
238	-0.35
238	-0.308
239	-0.268
239	-0.23
240	-0.195
240	-0.161
241	-0.13
241	-0.1
242	-0.073
242	-0.047
243	-0.023
243	-0.001
243	0.02
244	0.039
244	0.057
245	0.073
245	0.088
246	0.103
246	0.116
247	0.128
247	0.139
248	0.15
248	0.16
249	0.17
249	0.178
250	0.186
250	0.194
250	0.202
251	0.208
251	0.214
252	0.221
252	0.226
253	0.232
253	0.236
254	0.24
254	0.245
255	0.248
255	0.252
256	0.256
256	0.258
257	0.261
257	0.264
258	0.266
258	0.268
258	0.271
259	0.272
259	0.274
260	0.276
260	0.277
261	0.278
261	0.279
262	0.28
262	0.281
263	0.282
263	0.283
264	0.283
264	0.284
265	0.284
265	0.284
265	0.285
266	0.285
266	0.286
267	0.286
267	0.286
268	0.285
268	0.285
269	0.285
269	0.285
270	0.284
270	0.283
271	0.283
271	0.282
272	0.282
272	0.281
272	0.28
273	0.28
273	0.279
274	0.279
274	0.278
275	0.278
275	0.277
276	0.276
276	0.275
277	0.274
277	0.273
278	0.272
278	0.271
278	0.269
279	0.268
279	0.267
280	0.266
280	0.266
281	0.266
281	0.265
282	0.265
282	0.265
283	0.265
283	0.265
284	0.265
284	0.265
285	0.265
285	0.265
285	0.264
286	0.264
286	0.264
287	0.263
287	0.263
288	0.263
288	0.262
289	0.262
289	0.261
290	0.261
290	0.26
291	0.26
291	0.259
292	0.259
292	0.258
292	0.258
293	0.257
293	0.257
294	0.256
294	0.256
295	0.255
295	0.255
296	0.255
296	0.254
297	0.254
297	0.253
298	0.253
298	0.252
298	0.252
299	0.252
299	0.251
300	0.251
300	0.25
301	0.25
301	0.249
302	0.249
302	0.248
303	0.248
303	0.248
304	0.247
304	0.246
305	0.246
305	0.245
305	0.244
306	0.244
306	0.243
307	0.243
307	0.242
308	0.241
308	0.24
309	0.239
309	0.239
310	0.238
310	0.237
311	0.237
311	0.236
311	0.235
312	0.235
312	0.234
313	0.233
313	0.232
314	0.231
314	0.231
315	0.23
315	0.229
316	0.228
316	0.227
317	0.227
317	0.226
318	0.225
318	0.224
318	0.223
319	0.223
319	0.222
320	0.221
320	0.22
321	0.219
321	0.218
322	0.217
322	0.216
323	0.215
323	0.214
324	0.213
324	0.213
324	0.212
325	0.211
325	0.21
326	0.21
326	0.209
327	0.208
327	0.207
328	0.206
328	0.205
329	0.205
329	0.204
330	0.203
330	0.203
330	0.202
331	0.201
331	0.2
332	0.199
332	0.198
333	0.197
333	0.196
334	0.196
334	0.195
335	0.194
335	0.193
336	0.192
336	0.192
336	0.191
337	0.19
337	0.189
338	0.189
338	0.188
339	0.187
339	0.186
340	0.186
340	0.185
341	0.184
341	0.184
342	0.183
342	0.182
342	0.182
343	0.181
343	0.18
344	0.18
344	0.179
345	0.178
345	0.178
346	0.177
346	0.176
347	0.175
347	0.174
348	0.173
348	0.173
348	0.172
349	0.171
349	0.17
350	0.169
350	0.168
351	0.167
351	0.166
352	0.165
352	0.164
353	0.163
353	0.161
354	0.16
354	0.159
354	0.157
355	0.156
355	0.155
356	0.154
356	0.153
357	0.152
357	0.151
358	0.152
358	0.152
359	0.153
359	0.154
360	0.155
360	0.156
360	0.156
361	0.157
361	0.158
362	0.159
362	0.159
363	0.159
363	0.158
364	0.158
364	0.157
365	0.157
365	0.156
366	0.156
366	0.156
366	0.155
367	0.155
367	0.155
368	0.154
368	0.153
369	0.153
369	0.152
370	0.152
370	0.151
371	0.151
371	0.15
372	0.15
372	0.149
372	0.149
373	0.149
373	0.148
374	0.148
374	0.148
375	0.148
375	0.148
376	0.148
376	0.148
377	0.148
377	0.149
378	0.149
378	0.149
378	0.15
379	0.15
379	0.15
380	0.15
380	0.151
381	0.15
381	0.15
382	0.15
382	0.149
383	0.149
383	0.148
383	0.148
384	0.147
384	0.147
385	0.146
385	0.146
386	0.146
386	0.146
387	0.146
387	0.146
388	0.145
388	0.145
389	0.145
389	0.145
389	0.145
390	0.145
390	0.145
391	0.146
391	0.147
392	0.147
392	0.147
393	0.147
393	0.147
394	0.147
394	0.147
394	0.146
395	0.146
395	0.146
396	0.146
396	0.145
397	0.146
397	0.146
398	0.146
398	0.147
399	0.147
399	0.146
400	0.146
400	0.146
400	0.145
401	0.144
401	0.143
402	0.141
402	0.14
403	0.14
403	0.14
404	0.139
404	0.139
405	0.139
405	0.138
405	0.138
406	0.138
406	0.138
407	0.138
407	0.137
408	0.137
408	0.136
409	0.135
409	0.135
410	0.135
410	0.135
411	0.135
411	0.135
411	0.134
412	0.134
412	0.134
413	0.133
413	0.133
414	0.132
414	0.132
415	0.132
415	0.131
416	0.131
416	0.13
416	0.13
417	0.129
417	0.129
418	0.129
418	0.129
419	0.13
419	0.131
420	0.132
420	0.133
421	0.134
421	0.134
421	0.135
422	0.135
422	0.135
423	0.135
423	0.135
424	0.134
424	0.133
425	0.131
425	0.13
426	0.129
426	0.128
427	0.128
427	0.128
427	0.129
428	0.13
428	0.13
429	0.131
429	0.132
430	0.132
430	0.132
431	0.132
431	0.131
432	0.131
432	0.13
432	0.129
433	0.127
433	0.126
434	0.124
434	0.124
435	0.124
435	0.124
436	0.124
436	0.124
437	0.124
437	0.124
437	0.124
438	0.124
438	0.124
439	0.123
439	0.123
440	0.123
440	0.123
441	0.123
441	0.123
442	0.124
442	0.125
442	0.125
443	0.126
443	0.127
444	0.127
444	0.128
445	0.128
445	0.128
446	0.128
446	0.128
447	0.128
447	0.127
447	0.127
448	0.127
448	0.126
449	0.126
449	0.125
450	0.124
450	0.124
451	0.123
451	0.122
452	0.122
452	0.121
452	0.12
453	0.119
453	0.118
454	0.117
454	0.117
455	0.116
455	0.115
456	0.115
456	0.115
457	0.115
457	0.114
458	0.114
458	0.114
458	0.115
459	0.115
459	0.115
460	0.115
460	0.114
461	0.113
461	0.113
462	0.112
462	0.112
463	0.112
463	0.113
463	0.114
464	0.114
464	0.114
465	0.114
465	0.115
466	0.114
466	0.114
467	0.114
467	0.114
467	0.112
468	0.11
468	0.107
469	0.105
469	0.103
470	0.102
470	0.101
471	0.101
471	0.1
472	0.1
472	0.1
472	0.101
473	0.102
473	0.103
474	0.105
474	0.106
475	0.107
475	0.108
476	0.108
476	0.108
477	0.108
477	0.109
477	0.109
478	0.109
478	0.109
479	0.109
479	0.11
480	0.11
480	0.111
481	0.112
481	0.113
482	0.114
482	0.115
482	0.116
483	0.118
483	0.122
484	0.126
484	0.129
485	0.131
485	0.132
486	0.134
486	0.135
487	0.135
487	0.135
487	0.135
488	0.134
488	0.132
489	0.129
489	0.126
490	0.124
490	0.122
491	0.121
491	0.121
492	0.121
492	0.121
492	0.121
493	0.122
493	0.123
494	0.125
494	0.127
495	0.13
495	0.131
496	0.132
496	0.132
496	0.133
497	0.134
497	0.135
498	0.135
498	0.135
499	0.135
499	0.134
500	0.134
500	0.135
501	0.137
501	0.138
501	0.14
502	0.141
502	0.143
503	0.144
503	0.145
504	0.146
504	0.146
505	0.146
505	0.146
506	0.146
506	0.147
506	0.147
507	0.146
507	0.146
508	0.146
508	0.146
509	0.147
509	0.147
510	0.147
510	0.147
511	0.147
511	0.147
511	0.146
512	0.145
512	0.145
513	0.144
513	0.143
514	0.142
514	0.141
515	0.14
515	0.139
515	0.137
516	0.135
516	0.135
517	0.135
517	0.135
518	0.136
518	0.135
519	0.134
519	0.133
520	0.131
520	0.129
520	0.126
521	0.123
521	0.12
522	0.116
522	0.112
523	0.109
523	0.106
524	0.105
524	0.105
524	0.106
525	0.108
525	0.111
526	0.115
526	0.119
527	0.124
527	0.128
528	0.132
528	0.136
529	0.139
529	0.141
529	0.142
530	0.144
530	0.145
531	0.146
531	0.147
532	0.147
532	0.147
533	0.148
533	0.148
533	0.149
534	0.149
534	0.148
535	0.148
535	0.147
536	0.148
536	0.147
537	0.147
537	0.147
538	0.146
538	0.145
538	0.144
539	0.143
539	0.143
540	0.143
540	0.142
541	0.14
541	0.139
542	0.138
542	0.136
542	0.135
543	0.134
543	0.134
544	0.132
544	0.131
545	0.131
545	0.13
546	0.131
546	0.13
547	0.13
547	0.128
547	0.125
548	0.123
548	0.121
549	0.119
549	0.118
550	0.116
550	0.115
551	0.113
551	0.111
551	0.109
552	0.108
552	0.108
553	0.107
553	0.108
554	0.108
554	0.107
555	0.105
555	0.103
556	0.1
556	0.097
556	0.094
557	0.091
557	0.089
558	0.087
558	0.086
559	0.084
559	0.084
560	0.085
560	0.085
560	0.085
561	0.087
561	0.088
562	0.088
562	0.088
563	0.086
563	0.085
564	0.082
564	0.079
564	0.076
565	0.075
565	0.074
566	0.072
566	0.072
567	0.072
567	0.074
568	0.076
568	0.079
568	0.082
569	0.086
569	0.089
570	0.092
570	0.093
571	0.095
571	0.096
572	0.098
572	0.099
573	0.099
573	0.099
573	0.099
574	0.098
574	0.097
575	0.097
575	0.099
576	0.101
576	0.1
577	0.099
577	0.098
577	0.097
578	0.096
578	0.096
579	0.098
579	0.101
580	0.101
580	0.099
581	0.096
581	0.093
581	0.092
582	0.092
582	0.092
583	0.093
583	0.093
584	0.09
584	0.085
585	0.082
585	0.081
585	0.081
586	0.081
586	0.081
587	0.08
587	0.078
588	0.074
588	0.072
589	0.07
589	0.069
590	0.068
590	0.067
590	0.067
591	0.069
591	0.069
592	0.069
592	0.068
593	0.067
593	0.067
594	0.067
594	0.066
594	0.065
595	0.064
595	0.063
596	0.061
596	0.061
597	0.063
597	0.066
598	0.067
598	0.069
598	0.07
599	0.071
599	0.071
600	0.07
600	0.069
601	0.068
601	0.067
602	0.064
602	0.063
602	0.061
603	0.059
603	0.059
604	0.06
604	0.061
605	0.062
605	0.064
606	0.065
606	0.064
606	0.063
607	0.063
607	0.062
608	0.061
608	0.059
609	0.058
609	0.056
610	0.054
610	0.052
610	0.05
611	0.05
611	0.051
612	0.052
612	0.054
613	0.056
613	0.058
614	0.058
614	0.058
614	0.058
615	0.057
615	0.057
616	0.056
616	0.055
617	0.054
617	0.053
618	0.05
618	0.049
618	0.048
619	0.048
619	0.048
620	0.05
620	0.052
621	0.052
621	0.053
622	0.054
622	0.055
622	0.055
623	0.055
623	0.056
624	0.057
624	0.057
625	0.056
625	0.056
626	0.056
626	0.055
626	0.055
627	0.055
627	0.055
628	0.055
628	0.055
629	0.055
629	0.055
630	0.054
630	0.053
630	0.052
631	0.052
631	0.052
632	0.051
632	0.051
633	0.051
633	0.051
634	0.052
634	0.054
634	0.056
635	0.058
635	0.059
636	0.06
636	0.062
637	0.063
637	0.064
638	0.066
638	0.067
638	0.068
639	0.069
639	0.069
640	0.07
640	0.072
641	0.073
641	0.075
642	0.077
642	0.079
642	0.08
643	0.082
643	0.083
644	0.085
644	0.086
645	0.088
645	0.09
646	0.092
646	0.095
646	0.099
647	0.103
647	0.106
648	0.109
648	0.112
649	0.115
649	0.118
650	0.121
650	0.124
650	0.127
651	0.129
651	0.131
652	0.132
652	0.134
653	0.137
653	0.147
653	0.159
654	0.134
654	0.114
655	0.118
655	0.12
656	0.121
656	0.123
657	0.124
657	0.126
657	0.126
658	0.122
658	0.113
659	0.136
659	0.167
660	0.169
660	0.17
661	0.171
661	0.173
661	0.175
662	0.178
662	0.182
663	0.186
663	0.189
664	0.192
664	0.195
665	0.198
665	0.201
665	0.203
666	0.206
666	0.208
667	0.21
667	0.212
668	0.214
668	0.217
669	0.219
669	0.222
669	0.226
670	0.231
670	0.235
671	0.237
671	0.239
672	0.241
672	0.242
672	0.243
673	0.244
673	0.246
674	0.247
674	0.247
675	0.246
675	0.247
676	0.248
676	0.251
676	0.252
677	0.255
677	0.257
678	0.26
678	0.262
679	0.263
679	0.265
680	0.267
680	0.268
680	0.269
681	0.269
681	0.27
682	0.271
682	0.272
683	0.274
683	0.277
684	0.28
684	0.281
684	0.281
685	0.282
685	0.284
686	0.285
686	0.286
687	0.286
687	0.285
687	0.285
688	0.284
688	0.282
689	0.282
689	0.284
690	0.285
690	0.284
691	0.284
691	0.285
691	0.286
692	0.286
692	0.286
693	0.286
693	0.287
694	0.287
694	0.285
695	0.286
695	0.288
695	0.289
696	0.289
696	0.288
697	0.288
697	0.287
698	0.286
698	0.283
698	0.281
699	0.28
699	0.277
700	0.273
700	0.27
701	0.269
701	0.268
702	0.266
702	0.265
702	0.263
703	0.262
703	0.26
704	0.259
704	0.258
705	0.257
705	0.256
705	0.255
706	0.254
706	0.252
707	0.251
707	0.249
708	0.247
708	0.246
709	0.245
709	0.243
709	0.24
710	0.236
710	0.234
711	0.232
711	0.231
712	0.229
712	0.228
713	0.227
713	0.225
713	0.223
714	0.221
714	0.218
715	0.216
715	0.214
716	0.211
716	0.209
716	0.206
717	0.203
717	0.201
718	0.198
718	0.196
719	0.194
719	0.193
720	0.192
720	0.19
720	0.188
721	0.185
721	0.182
722	0.18
722	0.177
723	0.175
723	0.173
723	0.17
724	0.167
724	0.164
725	0.161
725	0.158
726	0.156
726	0.154
727	0.152
727	0.15
727	0.149
728	0.147
728	0.145
729	0.145
729	0.145
730	0.144
730	0.142
730	0.141
731	0.14
731	0.14
732	0.139
732	0.138
733	0.136
733	0.134
734	0.132
734	0.13
734	0.128
735	0.126
735	0.124
736	0.121
736	0.119
737	0.116
737	0.115
737	0.113
738	0.11
738	0.107
739	0.103
739	0.101
740	0.098
740	0.096
741	0.094
741	0.091
741	0.087
742	0.082
742	0.078
743	0.075
743	0.072
744	0.07
744	0.068
744	0.066
745	0.063
745	0.061
746	0.059
746	0.058
747	0.057
747	0.057
748	0.057
748	0.056
748	0.055
749	0.054
749	0.053
750	0.052
750	0.051
751	0.051
751	0.051
751	0.051
752	0.05
752	0.049
753	0.048
753	0.047
754	0.047
754	0.046
754	0.046
755	0.046
755	0.046
756	0.046
756	0.044
757	0.042
757	0.041
758	0.041
758	0.039
758	0.038
759	0.036
759	0.033
760	0.03
760	0.026
761	0.023
761	0.021
761	0.019
762	0.017
762	0.015
763	0.014
763	0.012
764	0.009
764	0.006
764	0.004
765	0.001
765	-0.001
766	-0.002
766	-0.002
767	-0.003
767	-0.006
768	-0.01
768	-0.012
768	-0.013
769	-0.014
769	-0.014
770	-0.016
770	-0.017
771	-0.02
771	-0.023
771	-0.026
772	-0.028
772	-0.03
773	-0.032
773	-0.036
774	-0.04
774	-0.044
775	-0.047
775	-0.051
775	-0.056
776	-0.061
776	-0.066
777	-0.07
777	-0.074
778	-0.077
778	-0.081
778	-0.084
779	-0.084
779	-0.08
780	-0.078
780	-0.077
781	-0.075
781	-0.073
781	-0.071
782	-0.07
782	-0.07
783	-0.07
783	-0.068
784	-0.069
784	-0.072
784	-0.073
785	-0.075
785	-0.077
786	-0.078
786	-0.076
787	-0.071
787	-0.068
788	-0.067
788	-0.067
788	-0.069
789	-0.07
789	-0.07
790	-0.067
790	-0.066
791	-0.066
791	-0.068
791	-0.07
792	-0.065
792	-0.056
793	-0.05
793	-0.046
794	-0.045
794	-0.046
794	-0.05
795	-0.052
795	-0.052
796	-0.052
796	-0.054
797	-0.062
797	-0.071
797	-0.077
798	-0.082
798	-0.085
799	-0.085
799	-0.085
800	-0.085
800	-0.087
801	-0.091
801	-0.092
801	-0.093
802	-0.094
802	-0.096
803	-0.097
803	-0.097
804	-0.096
804	-0.092
804	-0.085
805	-0.082
805	-0.08
806	-0.078
806	-0.077
807	-0.075
807	-0.075
807	-0.074
808	-0.073
808	-0.074
809	-0.078
809	-0.083
810	-0.086
810	-0.088
810	-0.091
811	-0.093
811	-0.093
812	-0.089
812	-0.086
813	-0.086
813	-0.087
813	-0.088
814	-0.089
814	-0.089
815	-0.087
815	-0.084
816	-0.082
816	-0.083
817	-0.087
817	-0.09
817	-0.091
818	-0.09
818	-0.087
819	-0.082
819	-0.079
820	-0.081
820	-0.082
820	-0.084
821	-0.083
821	-0.082
822	-0.081
822	-0.081
823	-0.08
823	-0.082
823	-0.085
824	-0.086
824	-0.085
825	-0.081
825	-0.076
826	-0.071
826	-0.068
826	-0.064
827	-0.06
827	-0.056
828	-0.051
828	-0.047
829	-0.044
829	-0.039
829	-0.036
830	-0.034
830	-0.031
831	-0.027
831	-0.023
832	-0.02
832	-0.017
832	-0.014
833	-0.012
833	-0.01
834	-0.008
834	-0.006
835	-0.005
835	-0.004
835	-0.003
836	-0.002
836	-0.001
837	-0
837	0.001
838	0.002
838	0.002
839	0.003
839	0.003
839	0.003
840	0.004
840	0.004
841	0.005
841	0.006
842	0.006
842	0.007
842	0.008
843	0.009
843	0.01
844	0.011
844	0.012
845	0.013
845	0.014
845	0.016
846	0.017
846	0.018
847	0.02
847	0.021
848	0.023
848	0.024
848	0.025
849	0.027
849	0.028
850	0.028
850	0.028
851	0.029
851	0.029
851	0.03
852	0.03
852	0.03
853	0.031
853	0.031
854	0.032
854	0.033
854	0.033
855	0.034
855	0.034
856	0.035
856	0.035
857	0.036
857	0.036
857	0.036
858	0.036
858	0.036
859	0.036
859	0.036
860	0.036
860	0.036
860	0.036
861	0.036
861	0.036
862	0.035
862	0.035
863	0.035
863	0.034
863	0.034
864	0.034
864	0.034
865	0.034
865	0.035
866	0.035
866	0.035
866	0.036
867	0.037
867	0.039
868	0.04
868	0.041
869	0.042
869	0.042
869	0.042
870	0.042
870	0.042
871	0.042
871	0.041
872	0.04
872	0.039
872	0.039
873	0.038
873	0.037
874	0.037
874	0.038
875	0.038
875	0.039
875	0.039
876	0.04
876	0.041
877	0.041
877	0.041
878	0.041
878	0.04
878	0.04
879	0.039
879	0.038
880	0.038
880	0.037
881	0.037
881	0.037
881	0.037
882	0.037
882	0.038
883	0.038
883	0.039
884	0.04
884	0.041
884	0.041
885	0.042
885	0.042
886	0.042
886	0.043
887	0.043
887	0.043
887	0.043
888	0.043
888	0.043
889	0.044
889	0.044
890	0.045
890	0.046
890	0.046
891	0.046
891	0.047
892	0.048
892	0.048
893	0.049
893	0.049
893	0.05
894	0.05
894	0.05
895	0.051
895	0.051
895	0.051
896	0.051
896	0.052
897	0.052
897	0.053
898	0.053
898	0.054
898	0.055
899	0.055
899	0.056
900	0.056
900	0.057
901	0.057
901	0.057
901	0.057
902	0.057
902	0.057
903	0.056
903	0.056
904	0.055
904	0.054
904	0.053
905	0.052
905	0.052
906	0.051
906	0.051
907	0.05
907	0.049
907	0.049
908	0.049
908	0.049
909	0.049
909	0.049
910	0.049
910	0.049
910	0.049
911	0.049
911	0.05
912	0.051
912	0.052
913	0.052
913	0.053
913	0.054
914	0.054
914	0.055
915	0.054
915	0.054
916	0.054
916	0.053
916	0.053
917	0.052
917	0.052
918	0.051
918	0.051
918	0.05
919	0.05
919	0.05
920	0.05
920	0.051
921	0.051
921	0.05
921	0.05
922	0.05
922	0.05
923	0.049
923	0.049
924	0.048
924	0.048
924	0.047
925	0.046
925	0.045
926	0.044
926	0.044
927	0.043
927	0.043
927	0.043
928	0.043
928	0.044
929	0.045
929	0.046
930	0.048
930	0.05
930	0.052
931	0.054
931	0.056
932	0.058
932	0.059
933	0.061
933	0.063
933	0.064
934	0.065
934	0.065
935	0.066
935	0.066
935	0.066
936	0.067
936	0.067
937	0.068
937	0.068
938	0.069
938	0.069
938	0.07
939	0.071
939	0.072
940	0.072
940	0.073
941	0.073
941	0.074
941	0.073
942	0.073
942	0.073
943	0.072
943	0.071
944	0.071
944	0.071
944	0.07
945	0.071
945	0.07
946	0.07
946	0.07
946	0.069
947	0.069
947	0.068
948	0.067
948	0.066
949	0.065
949	0.064
949	0.063
950	0.062
950	0.061
951	0.06
951	0.059
952	0.058
952	0.058
952	0.057
953	0.056
953	0.056
954	0.055
954	0.054
955	0.053
955	0.053
955	0.052
956	0.052
956	0.052
957	0.052
957	0.051
957	0.051
958	0.051
958	0.051
959	0.051
959	0.051
960	0.051
960	0.05
960	0.049
961	0.049
961	0.048
962	0.047
962	0.047
963	0.046
963	0.046
963	0.046
964	0.045
964	0.046
965	0.046
965	0.046
966	0.047
966	0.048
966	0.048
967	0.049
967	0.049
968	0.049
968	0.049
968	0.049
969	0.049
969	0.049
970	0.049
970	0.049
971	0.049
971	0.049
971	0.049
972	0.049
972	0.05
973	0.05
973	0.051
974	0.051
974	0.052
974	0.053
975	0.054
975	0.055
976	0.056
976	0.057
976	0.058
977	0.058
977	0.059
978	0.059
978	0.059
979	0.06
979	0.06
979	0.061
980	0.06
980	0.06
981	0.06
981	0.06
982	0.061
982	0.061
982	0.062
983	0.062
983	0.062
984	0.062
984	0.063
984	0.063
985	0.063
985	0.063
986	0.062
986	0.061
987	0.061
987	0.06
987	0.06
988	0.059
988	0.059
989	0.058
989	0.058
990	0.058
990	0.058
990	0.059
991	0.059
991	0.06
992	0.061
992	0.061
992	0.061
993	0.061
993	0.061
994	0.061
994	0.06
995	0.059
995	0.059
995	0.058
996	0.057
996	0.056
997	0.055
997	0.055
997	0.054
998	0.055
998	0.055
999	0.056
999	0.057
1000	0.058
1000	0.059
1000	0.06
1001	0.061
1001	0.062
1002	0.063
1002	0.063
1003	0.064
1003	0.064
1003	0.064
1004	0.064
1004	0.064
1005	0.064
1005	0.063
1005	0.063
1006	0.062
1006	0.062
1007	0.062
1007	0.062
1008	0.062
1008	0.062
1008	0.062
1009	0.063
1009	0.063
1010	0.064
1010	0.064
1010	0.065
1011	0.065
1011	0.066
1012	0.066
1012	0.067
1013	0.067
1013	0.067
1013	0.068
1014	0.067
1014	0.067
1015	0.066
1015	0.066
1016	0.066
1016	0.065
1016	0.064
1017	0.063
1017	0.063
1018	0.062
1018	0.062
1018	0.062
1019	0.062
1019	0.062
1020	0.062
1020	0.062
1021	0.061
1021	0.061
1021	0.061
1022	0.061
1022	0.06
1023	0.059
1023	0.058
1023	0.058
1024	0.057
1024	0.056
1025	0.055
1025	0.054
1026	0.053
1026	0.053
1026	0.052
1027	0.052
1027	0.052
1028	0.052
1028	0.052
1028	0.052
1029	0.052
1029	0.052
1030	0.053
1030	0.053
1031	0.053
1031	0.054
1031	0.054
1032	0.055
1032	0.056
1033	0.057
1033	0.058
1033	0.058
1034	0.059
1034	0.059
1035	0.06
1035	0.06
1036	0.06
1036	0.061
1036	0.062
1037	0.063
1037	0.064
1038	0.064
1038	0.065
1039	0.066
1039	0.068
1039	0.069
1040	0.069
1040	0.07
1041	0.07
1041	0.07
1041	0.07
1042	0.069
1042	0.069
1043	0.069
1043	0.069
1044	0.068
1044	0.068
1044	0.068
1045	0.068
1045	0.068
1046	0.068
1046	0.068
1046	0.07
1047	0.07
1047	0.071
1048	0.072
1048	0.072
1049	0.072
1049	0.072
1049	0.072
1050	0.072
1050	0.072
1051	0.073
1051	0.073
1051	0.074
1052	0.075
1052	0.076
1053	0.077
1053	0.078
1053	0.079
1054	0.08
1054	0.081
1055	0.083
1055	0.084
1056	0.084
1056	0.085
1056	0.085
1057	0.085
1057	0.086
1058	0.087
1058	0.089
1058	0.09
1059	0.092
1059	0.093
1060	0.094
1060	0.096
1061	0.098
1061	0.1
1061	0.102
1062	0.102
1062	0.103
1063	0.104
1063	0.105
1063	0.106
1064	0.108
1064	0.109
1065	0.111
1065	0.112
1066	0.114
1066	0.116
1066	0.119
1067	0.122
1067	0.124
1068	0.126
1068	0.128
1068	0.13
1069	0.131
1069	0.133
1070	0.135
1070	0.137
1071	0.139
1071	0.141
1071	0.143
1072	0.146
1072	0.149
1073	0.152
1073	0.156
1073	0.159
1074	0.162
1074	0.164
1075	0.165
1075	0.168
1076	0.17
1076	0.172
1076	0.174
1077	0.177
1077	0.18
1078	0.183
1078	0.186
1078	0.19
1079	0.195
1079	0.2
1080	0.204
1080	0.208
1080	0.211
1081	0.215
1081	0.219
1082	0.223
1082	0.227
1083	0.232
1083	0.237
1083	0.243
1084	0.25
1084	0.257
1085	0.264
1085	0.273
1085	0.281
1086	0.289
1086	0.295
1087	0.303
1087	0.312
1088	0.32
1088	0.33
1088	0.34
1089	0.351
1089	0.365
1090	0.379
1090	0.396
1090	0.414
1091	0.435
1091	0.461
1092	0.488
1092	0.518
1092	0.548
1093	0.581
1093	0.622
1094	0.666
1094	0.717
1095	0.775
1095	0.853
1095	0.96
1096	1.095
1096	1.309
1097	1.853
1097	-0
1097	-0
1098	-0
1098	-0
1099	-0
1099	-0
1100	-0
1100	-0
1100	-0
1101	-0
1101	-0
1102	-0
1102	-0
1102	-0
1103	-0
1103	-0
1104	-0
1104	-0
1104	-0
1105	-0
1105	-0
1106	-0
1106	-0
1107	-0
1107	-0
1107	-0
1108	-0
1108	-0
1109	-0
1109	-0
1109	-0
1110	-0
1110	-0
1111	-0
1111	-0
