Data from 15c-stair-power-variation_Absorbance__335__03945.txt Node

Date: Tue Jan 16 15:53:11 CET 2024
User: Marek
Spectrometer: MAYP115816
Trigger mode: 0
Integration Time (sec): 2.000000E-1
Scans to average: 10
Electric dark correction enabled: true
Nonlinearity correction enabled: true
Boxcar width: 5
XAxis mode: Wavelengths
Number of Pixels in Spectrum: 2068
>>>>>Begin Spectral Data<<<<<
199	-2.234
199	-2.046
200	-1.911
200	-1.791
201	-1.717
201	-1.665
202	-1.588
202	-1.526
203	-1.478
203	-1.429
204	-1.402
204	-1.377
205	-1.357
205	-1.345
205	-1.342
206	-1.338
206	-1.334
207	-1.331
207	-1.331
208	-1.326
208	-1.326
209	-1.321
209	-1.319
210	-1.318
210	-1.315
211	-1.314
211	-1.313
212	-1.312
212	-1.311
213	-1.309
213	-1.308
213	-1.308
214	-1.306
214	-1.305
215	-1.304
215	-1.304
216	-1.3
216	-1.299
217	-1.296
217	-1.294
218	-1.29
218	-1.286
219	-1.281
219	-1.28
220	-1.278
220	-1.277
221	-1.273
221	-1.271
221	-1.267
222	-1.262
222	-1.257
223	-1.252
223	-1.247
224	-1.242
224	-1.233
225	-1.223
225	-1.214
226	-1.205
226	-1.195
227	-1.182
227	-1.169
228	-1.153
228	-1.136
229	-1.116
229	-1.092
229	-1.066
230	-1.037
230	-1.005
231	-0.97
231	-0.93
232	-0.89
232	-0.846
233	-0.8
233	-0.752
234	-0.703
234	-0.653
235	-0.603
235	-0.554
236	-0.505
236	-0.456
236	-0.408
237	-0.361
237	-0.317
238	-0.274
238	-0.233
239	-0.194
239	-0.157
240	-0.122
240	-0.09
241	-0.059
241	-0.031
242	-0.005
242	0.02
243	0.043
243	0.064
243	0.084
244	0.102
244	0.119
245	0.134
245	0.149
246	0.162
246	0.175
247	0.186
247	0.197
248	0.207
248	0.217
249	0.225
249	0.233
250	0.241
250	0.248
250	0.255
251	0.262
251	0.268
252	0.274
252	0.279
253	0.284
253	0.288
254	0.293
254	0.297
255	0.301
255	0.304
256	0.307
256	0.31
257	0.313
257	0.315
258	0.318
258	0.319
258	0.321
259	0.323
259	0.324
260	0.326
260	0.327
261	0.328
261	0.329
262	0.329
262	0.33
263	0.331
263	0.332
264	0.332
264	0.332
265	0.333
265	0.333
265	0.333
266	0.333
266	0.333
267	0.333
267	0.333
268	0.333
268	0.332
269	0.331
269	0.331
270	0.33
270	0.329
271	0.328
271	0.327
272	0.327
272	0.326
272	0.325
273	0.324
273	0.323
274	0.322
274	0.322
275	0.321
275	0.32
276	0.319
276	0.317
277	0.316
277	0.314
278	0.313
278	0.311
278	0.31
279	0.308
279	0.306
280	0.305
280	0.304
281	0.304
281	0.303
282	0.302
282	0.302
283	0.302
283	0.301
284	0.301
284	0.301
285	0.301
285	0.3
285	0.299
286	0.298
286	0.298
287	0.297
287	0.296
288	0.295
288	0.295
289	0.294
289	0.293
290	0.292
290	0.291
291	0.291
291	0.29
292	0.289
292	0.288
292	0.287
293	0.287
293	0.286
294	0.285
294	0.284
295	0.284
295	0.283
296	0.283
296	0.282
297	0.281
297	0.281
298	0.28
298	0.279
298	0.279
299	0.278
299	0.278
300	0.277
300	0.276
301	0.275
301	0.275
302	0.274
302	0.274
303	0.273
303	0.273
304	0.272
304	0.271
305	0.27
305	0.27
305	0.269
306	0.268
306	0.267
307	0.267
307	0.266
308	0.265
308	0.264
309	0.263
309	0.263
310	0.262
310	0.261
311	0.26
311	0.26
311	0.259
312	0.258
312	0.257
313	0.256
313	0.255
314	0.254
314	0.254
315	0.253
315	0.252
316	0.251
316	0.25
317	0.249
317	0.248
318	0.247
318	0.246
318	0.246
319	0.245
319	0.244
320	0.243
320	0.242
321	0.241
321	0.24
322	0.239
322	0.238
323	0.237
323	0.236
324	0.236
324	0.235
324	0.234
325	0.233
325	0.233
326	0.232
326	0.231
327	0.23
327	0.229
328	0.228
328	0.227
329	0.227
329	0.226
330	0.225
330	0.224
330	0.223
331	0.222
331	0.221
332	0.221
332	0.22
333	0.219
333	0.218
334	0.217
334	0.217
335	0.216
335	0.215
336	0.214
336	0.213
336	0.213
337	0.212
337	0.211
338	0.21
338	0.209
339	0.209
339	0.208
340	0.207
340	0.207
341	0.206
341	0.205
342	0.204
342	0.204
342	0.203
343	0.202
343	0.202
344	0.201
344	0.201
345	0.2
345	0.199
346	0.199
346	0.198
347	0.197
347	0.196
348	0.195
348	0.195
348	0.194
349	0.193
349	0.192
350	0.192
350	0.191
351	0.19
351	0.189
352	0.188
352	0.187
353	0.186
353	0.185
354	0.184
354	0.182
354	0.181
355	0.18
355	0.179
356	0.178
356	0.177
357	0.176
357	0.176
358	0.176
358	0.176
359	0.177
359	0.178
360	0.178
360	0.179
360	0.18
361	0.181
361	0.181
362	0.182
362	0.182
363	0.182
363	0.182
364	0.181
364	0.18
365	0.18
365	0.179
366	0.179
366	0.179
366	0.178
367	0.178
367	0.178
368	0.177
368	0.177
369	0.176
369	0.176
370	0.176
370	0.175
371	0.175
371	0.174
372	0.174
372	0.173
372	0.173
373	0.172
373	0.172
374	0.172
374	0.172
375	0.171
375	0.171
376	0.171
376	0.172
377	0.172
377	0.172
378	0.172
378	0.173
378	0.173
379	0.173
379	0.173
380	0.173
380	0.173
381	0.173
381	0.173
382	0.172
382	0.172
383	0.172
383	0.171
383	0.171
384	0.17
384	0.17
385	0.17
385	0.169
386	0.169
386	0.169
387	0.169
387	0.169
388	0.169
388	0.169
389	0.168
389	0.168
389	0.168
390	0.168
390	0.168
391	0.168
391	0.169
392	0.169
392	0.169
393	0.169
393	0.169
394	0.169
394	0.169
394	0.168
395	0.168
395	0.168
396	0.168
396	0.168
397	0.168
397	0.168
398	0.168
398	0.168
399	0.168
399	0.168
400	0.168
400	0.167
400	0.167
401	0.166
401	0.165
402	0.163
402	0.162
403	0.162
403	0.162
404	0.162
404	0.161
405	0.161
405	0.161
405	0.16
406	0.16
406	0.16
407	0.16
407	0.16
408	0.159
408	0.159
409	0.158
409	0.158
410	0.157
410	0.157
411	0.157
411	0.157
411	0.157
412	0.157
412	0.156
413	0.156
413	0.156
414	0.155
414	0.155
415	0.155
415	0.154
416	0.153
416	0.153
416	0.153
417	0.152
417	0.152
418	0.152
418	0.152
419	0.153
419	0.154
420	0.155
420	0.156
421	0.156
421	0.156
421	0.157
422	0.157
422	0.157
423	0.157
423	0.156
424	0.156
424	0.154
425	0.153
425	0.152
426	0.151
426	0.151
427	0.15
427	0.151
427	0.151
428	0.152
428	0.152
429	0.153
429	0.154
430	0.154
430	0.154
431	0.154
431	0.153
432	0.153
432	0.152
432	0.151
433	0.149
433	0.148
434	0.147
434	0.147
435	0.147
435	0.147
436	0.146
436	0.146
437	0.146
437	0.146
437	0.146
438	0.146
438	0.146
439	0.146
439	0.146
440	0.145
440	0.145
441	0.145
441	0.146
442	0.146
442	0.147
442	0.147
443	0.148
443	0.149
444	0.149
444	0.149
445	0.15
445	0.15
446	0.15
446	0.15
447	0.149
447	0.149
447	0.149
448	0.148
448	0.148
449	0.148
449	0.147
450	0.147
450	0.147
451	0.146
451	0.146
452	0.145
452	0.144
452	0.144
453	0.143
453	0.142
454	0.141
454	0.14
455	0.14
455	0.139
456	0.139
456	0.139
457	0.139
457	0.138
458	0.138
458	0.138
458	0.139
459	0.139
459	0.14
460	0.139
460	0.138
461	0.138
461	0.137
462	0.137
462	0.137
463	0.138
463	0.138
463	0.139
464	0.139
464	0.139
465	0.139
465	0.139
466	0.139
466	0.139
467	0.139
467	0.139
467	0.138
468	0.136
468	0.134
469	0.132
469	0.13
470	0.129
470	0.129
471	0.128
471	0.128
472	0.128
472	0.128
472	0.128
473	0.13
473	0.131
474	0.132
474	0.133
475	0.134
475	0.134
476	0.135
476	0.135
477	0.135
477	0.136
477	0.136
478	0.136
478	0.137
479	0.137
479	0.138
480	0.139
480	0.14
481	0.141
481	0.141
482	0.142
482	0.144
482	0.145
483	0.147
483	0.15
484	0.154
484	0.157
485	0.159
485	0.161
486	0.162
486	0.163
487	0.164
487	0.164
487	0.164
488	0.163
488	0.161
489	0.159
489	0.157
490	0.156
490	0.155
491	0.154
491	0.154
492	0.155
492	0.155
492	0.156
493	0.156
493	0.158
494	0.159
494	0.162
495	0.164
495	0.165
496	0.166
496	0.167
496	0.168
497	0.169
497	0.169
498	0.17
498	0.17
499	0.17
499	0.17
500	0.17
500	0.171
501	0.173
501	0.175
501	0.176
502	0.178
502	0.179
503	0.181
503	0.182
504	0.183
504	0.184
505	0.184
505	0.184
506	0.184
506	0.185
506	0.185
507	0.185
507	0.185
508	0.185
508	0.186
509	0.186
509	0.187
510	0.187
510	0.188
511	0.188
511	0.188
511	0.187
512	0.187
512	0.187
513	0.187
513	0.186
514	0.185
514	0.184
515	0.183
515	0.182
515	0.18
516	0.179
516	0.179
517	0.18
517	0.18
518	0.18
518	0.18
519	0.179
519	0.177
520	0.175
520	0.172
520	0.169
521	0.167
521	0.163
522	0.16
522	0.157
523	0.155
523	0.154
524	0.154
524	0.156
524	0.158
525	0.161
525	0.165
526	0.169
526	0.172
527	0.176
527	0.18
528	0.182
528	0.185
529	0.187
529	0.188
529	0.188
530	0.189
530	0.189
531	0.189
531	0.19
532	0.19
532	0.189
533	0.19
533	0.19
533	0.19
534	0.189
534	0.188
535	0.188
535	0.187
536	0.187
536	0.186
537	0.186
537	0.185
538	0.185
538	0.183
538	0.182
539	0.181
539	0.181
540	0.18
540	0.179
541	0.177
541	0.175
542	0.174
542	0.172
542	0.17
543	0.17
543	0.168
544	0.167
544	0.166
545	0.165
545	0.164
546	0.164
546	0.163
547	0.162
547	0.16
547	0.157
548	0.155
548	0.152
549	0.15
549	0.148
550	0.146
550	0.144
551	0.142
551	0.139
551	0.137
552	0.136
552	0.136
553	0.135
553	0.135
554	0.135
554	0.133
555	0.132
555	0.129
556	0.126
556	0.123
556	0.12
557	0.117
557	0.114
558	0.112
558	0.11
559	0.108
559	0.107
560	0.107
560	0.107
560	0.107
561	0.107
561	0.108
562	0.108
562	0.107
563	0.105
563	0.103
564	0.101
564	0.098
564	0.096
565	0.094
565	0.093
566	0.091
566	0.09
567	0.09
567	0.091
568	0.093
568	0.094
568	0.096
569	0.099
569	0.101
570	0.103
570	0.103
571	0.105
571	0.106
572	0.106
572	0.107
573	0.107
573	0.107
573	0.106
574	0.105
574	0.104
575	0.103
575	0.105
576	0.106
576	0.105
577	0.103
577	0.101
577	0.1
578	0.1
578	0.1
579	0.101
579	0.104
580	0.103
580	0.101
581	0.098
581	0.096
581	0.095
582	0.095
582	0.095
583	0.096
583	0.095
584	0.092
584	0.087
585	0.085
585	0.084
585	0.084
586	0.084
586	0.084
587	0.082
587	0.08
588	0.077
588	0.075
589	0.073
589	0.073
590	0.072
590	0.071
590	0.072
591	0.073
591	0.073
592	0.073
592	0.072
593	0.072
593	0.071
594	0.071
594	0.07
594	0.069
595	0.068
595	0.066
596	0.064
596	0.064
597	0.067
597	0.069
598	0.07
598	0.071
598	0.072
599	0.073
599	0.073
600	0.072
600	0.071
601	0.07
601	0.069
602	0.067
602	0.065
602	0.063
603	0.062
603	0.063
604	0.063
604	0.064
605	0.065
605	0.067
606	0.068
606	0.067
606	0.066
607	0.065
607	0.065
608	0.064
608	0.062
609	0.06
609	0.059
610	0.057
610	0.055
610	0.055
611	0.055
611	0.056
612	0.057
612	0.058
613	0.06
613	0.062
614	0.062
614	0.061
614	0.061
615	0.061
615	0.06
616	0.06
616	0.059
617	0.058
617	0.057
618	0.055
618	0.054
618	0.054
619	0.054
619	0.055
620	0.057
620	0.059
621	0.059
621	0.06
622	0.061
622	0.062
622	0.062
623	0.062
623	0.064
624	0.065
624	0.064
625	0.064
625	0.064
626	0.064
626	0.064
626	0.064
627	0.065
627	0.065
628	0.065
628	0.065
629	0.065
629	0.065
630	0.064
630	0.064
630	0.064
631	0.064
631	0.064
632	0.063
632	0.063
633	0.063
633	0.064
634	0.065
634	0.067
634	0.069
635	0.071
635	0.072
636	0.073
636	0.075
637	0.076
637	0.078
638	0.079
638	0.081
638	0.082
639	0.083
639	0.083
640	0.085
640	0.086
641	0.088
641	0.09
642	0.092
642	0.094
642	0.096
643	0.098
643	0.099
644	0.101
644	0.103
645	0.105
645	0.107
646	0.109
646	0.112
646	0.116
647	0.12
647	0.123
648	0.126
648	0.129
649	0.132
649	0.135
650	0.139
650	0.142
650	0.144
651	0.147
651	0.149
652	0.15
652	0.152
653	0.156
653	0.165
653	0.176
654	0.146
654	0.123
655	0.127
655	0.129
656	0.131
656	0.133
657	0.134
657	0.136
657	0.137
658	0.133
658	0.125
659	0.152
659	0.189
660	0.192
660	0.194
661	0.195
661	0.197
661	0.2
662	0.203
662	0.207
663	0.21
663	0.214
664	0.217
664	0.22
665	0.223
665	0.226
665	0.228
666	0.231
666	0.234
667	0.236
667	0.238
668	0.241
668	0.244
669	0.247
669	0.25
669	0.255
670	0.259
670	0.263
671	0.266
671	0.268
672	0.27
672	0.271
672	0.272
673	0.274
673	0.275
674	0.276
674	0.276
675	0.276
675	0.277
676	0.279
676	0.281
676	0.282
677	0.285
677	0.287
678	0.29
678	0.291
679	0.293
679	0.294
680	0.296
680	0.298
680	0.299
681	0.299
681	0.3
682	0.301
682	0.303
683	0.305
683	0.308
684	0.311
684	0.312
684	0.312
685	0.313
685	0.314
686	0.315
686	0.316
687	0.316
687	0.315
687	0.314
688	0.313
688	0.311
689	0.311
689	0.312
690	0.313
690	0.312
691	0.312
691	0.312
691	0.313
692	0.313
692	0.312
693	0.313
693	0.313
694	0.313
694	0.311
695	0.312
695	0.314
695	0.314
696	0.314
696	0.313
697	0.312
697	0.312
698	0.31
698	0.308
698	0.306
699	0.304
699	0.302
700	0.298
700	0.295
701	0.294
701	0.292
702	0.29
702	0.288
702	0.287
703	0.285
703	0.283
704	0.281
704	0.28
705	0.279
705	0.277
705	0.275
706	0.274
706	0.272
707	0.27
707	0.268
708	0.266
708	0.265
709	0.264
709	0.262
709	0.258
710	0.255
710	0.253
711	0.251
711	0.249
712	0.247
712	0.245
713	0.244
713	0.242
713	0.239
714	0.236
714	0.234
715	0.231
715	0.228
716	0.225
716	0.222
716	0.219
717	0.216
717	0.213
718	0.21
718	0.208
719	0.206
719	0.205
720	0.203
720	0.201
720	0.199
721	0.196
721	0.194
722	0.191
722	0.188
723	0.186
723	0.184
723	0.181
724	0.178
724	0.175
725	0.171
725	0.168
726	0.166
726	0.164
727	0.161
727	0.159
727	0.157
728	0.155
728	0.153
729	0.153
729	0.153
730	0.152
730	0.15
730	0.15
731	0.149
731	0.148
732	0.148
732	0.146
733	0.144
733	0.143
734	0.14
734	0.138
734	0.136
735	0.134
735	0.132
736	0.129
736	0.126
737	0.124
737	0.122
737	0.12
738	0.117
738	0.114
739	0.111
739	0.109
740	0.106
740	0.105
741	0.104
741	0.102
741	0.098
742	0.094
742	0.09
743	0.088
743	0.085
744	0.083
744	0.081
744	0.078
745	0.076
745	0.073
746	0.07
746	0.069
747	0.068
747	0.067
748	0.067
748	0.066
748	0.065
749	0.063
749	0.063
750	0.062
750	0.061
751	0.06
751	0.06
751	0.059
752	0.058
752	0.057
753	0.056
753	0.055
754	0.054
754	0.054
754	0.054
755	0.054
755	0.054
756	0.053
756	0.051
757	0.049
757	0.049
758	0.048
758	0.046
758	0.045
759	0.043
759	0.04
760	0.036
760	0.033
761	0.03
761	0.028
761	0.026
762	0.024
762	0.023
763	0.022
763	0.019
764	0.016
764	0.014
764	0.011
765	0.009
765	0.007
766	0.006
766	0.005
767	0.005
767	0.002
768	-0.001
768	-0.003
768	-0.004
769	-0.005
769	-0.005
770	-0.006
770	-0.008
771	-0.01
771	-0.013
771	-0.016
772	-0.018
772	-0.02
773	-0.022
773	-0.025
774	-0.029
774	-0.033
775	-0.036
775	-0.039
775	-0.043
776	-0.047
776	-0.051
777	-0.056
777	-0.061
778	-0.066
778	-0.071
778	-0.076
779	-0.076
779	-0.074
780	-0.074
780	-0.075
781	-0.075
781	-0.075
781	-0.074
782	-0.073
782	-0.073
783	-0.073
783	-0.071
784	-0.072
784	-0.075
784	-0.077
785	-0.078
785	-0.08
786	-0.081
786	-0.079
787	-0.074
787	-0.071
788	-0.07
788	-0.071
788	-0.072
789	-0.074
789	-0.073
790	-0.07
790	-0.069
791	-0.069
791	-0.071
791	-0.073
792	-0.068
792	-0.059
793	-0.053
793	-0.049
794	-0.048
794	-0.049
794	-0.053
795	-0.055
795	-0.055
796	-0.055
796	-0.057
797	-0.065
797	-0.074
797	-0.08
798	-0.085
798	-0.088
799	-0.088
799	-0.088
800	-0.088
800	-0.09
801	-0.094
801	-0.095
801	-0.096
802	-0.097
802	-0.099
803	-0.1
803	-0.1
804	-0.099
804	-0.095
804	-0.088
805	-0.085
805	-0.083
806	-0.081
806	-0.08
807	-0.078
807	-0.078
807	-0.077
808	-0.076
808	-0.077
809	-0.081
809	-0.086
810	-0.089
810	-0.091
810	-0.094
811	-0.096
811	-0.096
812	-0.092
812	-0.089
813	-0.089
813	-0.09
813	-0.091
814	-0.092
814	-0.092
815	-0.09
815	-0.087
816	-0.085
816	-0.086
817	-0.09
817	-0.093
817	-0.094
818	-0.093
818	-0.09
819	-0.085
819	-0.082
820	-0.084
820	-0.085
820	-0.087
821	-0.087
821	-0.085
822	-0.084
822	-0.084
823	-0.083
823	-0.085
823	-0.088
824	-0.089
824	-0.087
825	-0.083
825	-0.078
826	-0.073
826	-0.07
826	-0.065
827	-0.06
827	-0.055
828	-0.05
828	-0.046
829	-0.042
829	-0.037
829	-0.034
830	-0.031
830	-0.028
831	-0.024
831	-0.02
832	-0.018
832	-0.015
832	-0.012
833	-0.01
833	-0.009
834	-0.007
834	-0.006
835	-0.005
835	-0.004
835	-0.004
836	-0.003
836	-0.002
837	-0.002
837	-0.001
838	0
838	0.001
839	0.002
839	0.002
839	0.003
840	0.004
840	0.004
841	0.005
841	0.005
842	0.006
842	0.006
842	0.007
843	0.007
843	0.007
844	0.008
844	0.008
845	0.009
845	0.01
845	0.011
846	0.012
846	0.013
847	0.014
847	0.015
848	0.017
848	0.018
848	0.02
849	0.021
849	0.022
850	0.023
850	0.023
851	0.023
851	0.024
851	0.024
852	0.024
852	0.024
853	0.025
853	0.025
854	0.026
854	0.026
854	0.026
855	0.027
855	0.027
856	0.027
856	0.027
857	0.028
857	0.028
857	0.028
858	0.028
858	0.028
859	0.028
859	0.028
860	0.029
860	0.029
860	0.029
861	0.029
861	0.029
862	0.028
862	0.027
863	0.027
863	0.027
863	0.027
864	0.026
864	0.026
865	0.026
865	0.026
866	0.025
866	0.026
866	0.026
867	0.027
867	0.028
868	0.029
868	0.03
869	0.031
869	0.031
869	0.031
870	0.031
870	0.032
871	0.032
871	0.031
872	0.031
872	0.03
872	0.029
873	0.029
873	0.028
874	0.028
874	0.028
875	0.029
875	0.029
875	0.029
876	0.03
876	0.03
877	0.03
877	0.03
878	0.03
878	0.029
878	0.029
879	0.029
879	0.028
880	0.028
880	0.028
881	0.027
881	0.027
881	0.027
882	0.027
882	0.028
883	0.028
883	0.029
884	0.03
884	0.031
884	0.031
885	0.032
885	0.033
886	0.034
886	0.034
887	0.035
887	0.035
887	0.035
888	0.035
888	0.035
889	0.035
889	0.035
890	0.036
890	0.036
890	0.036
891	0.037
891	0.037
892	0.038
892	0.038
893	0.039
893	0.04
893	0.04
894	0.041
894	0.041
895	0.041
895	0.042
895	0.042
896	0.043
896	0.044
897	0.044
897	0.045
898	0.045
898	0.046
898	0.046
899	0.047
899	0.048
900	0.048
900	0.048
901	0.047
901	0.047
901	0.047
902	0.047
902	0.046
903	0.045
903	0.045
904	0.044
904	0.043
904	0.042
905	0.042
905	0.041
906	0.041
906	0.04
907	0.039
907	0.039
907	0.038
908	0.038
908	0.038
909	0.038
909	0.038
910	0.038
910	0.038
910	0.039
911	0.039
911	0.04
912	0.041
912	0.042
913	0.043
913	0.044
913	0.044
914	0.044
914	0.044
915	0.044
915	0.044
916	0.043
916	0.042
916	0.041
917	0.04
917	0.039
918	0.039
918	0.039
918	0.039
919	0.038
919	0.038
920	0.039
920	0.039
921	0.039
921	0.039
921	0.038
922	0.038
922	0.037
923	0.036
923	0.035
924	0.034
924	0.033
924	0.032
925	0.031
925	0.03
926	0.029
926	0.029
927	0.028
927	0.028
927	0.028
928	0.029
928	0.029
929	0.03
929	0.032
930	0.034
930	0.036
930	0.038
931	0.04
931	0.042
932	0.045
932	0.047
933	0.049
933	0.051
933	0.052
934	0.053
934	0.053
935	0.054
935	0.054
935	0.054
936	0.054
936	0.054
937	0.054
937	0.054
938	0.054
938	0.054
938	0.055
939	0.055
939	0.056
940	0.057
940	0.057
941	0.057
941	0.057
941	0.057
942	0.057
942	0.056
943	0.056
943	0.055
944	0.054
944	0.054
944	0.054
945	0.054
945	0.054
946	0.054
946	0.053
946	0.052
947	0.052
947	0.051
948	0.05
948	0.049
949	0.048
949	0.048
949	0.047
950	0.047
950	0.046
951	0.046
951	0.045
952	0.044
952	0.044
952	0.044
953	0.044
953	0.043
954	0.043
954	0.042
955	0.041
955	0.041
955	0.04
956	0.04
956	0.04
957	0.04
957	0.039
957	0.039
958	0.038
958	0.038
959	0.038
959	0.038
960	0.037
960	0.037
960	0.036
961	0.035
961	0.035
962	0.034
962	0.034
963	0.034
963	0.034
963	0.034
964	0.034
964	0.035
965	0.036
965	0.036
966	0.037
966	0.039
966	0.04
967	0.041
967	0.041
968	0.042
968	0.042
968	0.042
969	0.042
969	0.042
970	0.042
970	0.042
971	0.042
971	0.042
971	0.042
972	0.042
972	0.042
973	0.043
973	0.043
974	0.044
974	0.045
974	0.045
975	0.046
975	0.047
976	0.048
976	0.048
976	0.049
977	0.049
977	0.049
978	0.049
978	0.05
979	0.05
979	0.05
979	0.051
980	0.051
980	0.051
981	0.052
981	0.052
982	0.053
982	0.054
982	0.055
983	0.056
983	0.057
984	0.057
984	0.058
984	0.058
985	0.058
985	0.058
986	0.058
986	0.057
987	0.057
987	0.056
987	0.055
988	0.055
988	0.054
989	0.053
989	0.052
990	0.052
990	0.051
990	0.051
991	0.051
991	0.051
992	0.052
992	0.052
992	0.051
993	0.051
993	0.051
994	0.05
994	0.05
995	0.05
995	0.049
995	0.048
996	0.048
996	0.047
997	0.046
997	0.046
997	0.047
998	0.047
998	0.047
999	0.048
999	0.049
1000	0.05
1000	0.05
1000	0.051
1001	0.052
1001	0.053
1002	0.054
1002	0.054
1003	0.054
1003	0.054
1003	0.054
1004	0.054
1004	0.053
1005	0.052
1005	0.051
1005	0.051
1006	0.05
1006	0.049
1007	0.049
1007	0.048
1008	0.048
1008	0.048
1008	0.048
1009	0.049
1009	0.049
1010	0.05
1010	0.05
1010	0.051
1011	0.051
1011	0.051
1012	0.052
1012	0.052
1013	0.053
1013	0.052
1013	0.052
1014	0.051
1014	0.051
1015	0.05
1015	0.049
1016	0.049
1016	0.048
1016	0.047
1017	0.046
1017	0.044
1018	0.044
1018	0.043
1018	0.043
1019	0.042
1019	0.042
1020	0.042
1020	0.042
1021	0.041
1021	0.041
1021	0.041
1022	0.041
1022	0.041
1023	0.041
1023	0.041
1023	0.04
1024	0.04
1024	0.039
1025	0.038
1025	0.038
1026	0.037
1026	0.037
1026	0.036
1027	0.036
1027	0.036
1028	0.036
1028	0.036
1028	0.036
1029	0.036
1029	0.036
1030	0.036
1030	0.037
1031	0.037
1031	0.038
1031	0.038
1032	0.039
1032	0.039
1033	0.04
1033	0.04
1033	0.041
1034	0.041
1034	0.041
1035	0.041
1035	0.04
1036	0.041
1036	0.041
1036	0.041
1037	0.042
1037	0.042
1038	0.043
1038	0.044
1039	0.045
1039	0.046
1039	0.047
1040	0.047
1040	0.048
1041	0.048
1041	0.048
1041	0.048
1042	0.047
1042	0.047
1043	0.047
1043	0.046
1044	0.046
1044	0.046
1044	0.046
1045	0.046
1045	0.046
1046	0.046
1046	0.046
1046	0.047
1047	0.047
1047	0.048
1048	0.049
1048	0.049
1049	0.049
1049	0.049
1049	0.049
1050	0.048
1050	0.048
1051	0.048
1051	0.048
1051	0.048
1052	0.048
1052	0.048
1053	0.048
1053	0.048
1053	0.049
1054	0.05
1054	0.051
1055	0.052
1055	0.053
1056	0.053
1056	0.054
1056	0.054
1057	0.054
1057	0.055
1058	0.056
1058	0.057
1058	0.058
1059	0.059
1059	0.06
1060	0.061
1060	0.062
1061	0.063
1061	0.065
1061	0.066
1062	0.066
1062	0.066
1063	0.067
1063	0.068
1063	0.068
1064	0.069
1064	0.071
1065	0.072
1065	0.073
1066	0.075
1066	0.077
1066	0.079
1067	0.081
1067	0.083
1068	0.085
1068	0.086
1068	0.088
1069	0.089
1069	0.09
1070	0.091
1070	0.093
1071	0.094
1071	0.096
1071	0.097
1072	0.099
1072	0.101
1073	0.103
1073	0.105
1073	0.106
1074	0.108
1074	0.11
1075	0.11
1075	0.112
1076	0.112
1076	0.114
1076	0.115
1077	0.116
1077	0.118
1078	0.12
1078	0.124
1078	0.127
1079	0.129
1079	0.133
1080	0.136
1080	0.14
1080	0.142
1081	0.145
1081	0.148
1082	0.151
1082	0.153
1083	0.156
1083	0.159
1083	0.163
1084	0.167
1084	0.172
1085	0.176
1085	0.181
1085	0.187
1086	0.191
1086	0.196
1087	0.202
1087	0.207
1088	0.212
1088	0.217
1088	0.224
1089	0.23
1089	0.238
1090	0.246
1090	0.256
1090	0.267
1091	0.277
1091	0.291
1092	0.305
1092	0.32
1092	0.334
1093	0.349
1093	0.368
1094	0.386
1094	0.406
1095	0.428
1095	0.453
1095	0.486
1096	0.518
1096	0.556
1097	0.604
1097	0.655
1097	0.719
1098	0.791
1098	0.891
1099	1.019
1099	1.223
1100	1.666
1100	-0
1100	-0
1101	-0
1101	-0
1102	-0
1102	-0
1102	-0
1103	-0
1103	-0
1104	-0
1104	-0
1104	-0
1105	-0
1105	-0
1106	-0
1106	-0
1107	-0
1107	-0
1107	-0
1108	-0
1108	-0
1109	-0
1109	-0
1109	-0
1110	-0
1110	-0
1111	-0
1111	-0
