Data from 15c-stair-power-variation_Absorbance__97__03707.txt Node

Date: Tue Jan 16 15:45:15 CET 2024
User: Marek
Spectrometer: MAYP115816
Trigger mode: 0
Integration Time (sec): 2.000000E-1
Scans to average: 10
Electric dark correction enabled: true
Nonlinearity correction enabled: true
Boxcar width: 5
XAxis mode: Wavelengths
Number of Pixels in Spectrum: 2068
>>>>>Begin Spectral Data<<<<<
199	-1.699
199	-1.518
200	-1.39
200	-1.274
201	-1.204
201	-1.155
202	-1.085
202	-1.031
203	-0.988
203	-0.945
204	-0.919
204	-0.895
205	-0.877
205	-0.865
205	-0.863
206	-0.859
206	-0.857
207	-0.854
207	-0.854
208	-0.851
208	-0.851
209	-0.848
209	-0.847
210	-0.847
210	-0.844
211	-0.843
211	-0.843
212	-0.842
212	-0.842
213	-0.84
213	-0.839
213	-0.84
214	-0.838
214	-0.836
215	-0.835
215	-0.835
216	-0.833
216	-0.832
217	-0.829
217	-0.827
218	-0.824
218	-0.82
219	-0.815
219	-0.814
220	-0.814
220	-0.814
221	-0.81
221	-0.809
221	-0.804
222	-0.8
222	-0.794
223	-0.79
223	-0.785
224	-0.781
224	-0.771
225	-0.762
225	-0.753
226	-0.745
226	-0.735
227	-0.721
227	-0.711
228	-0.695
228	-0.68
229	-0.66
229	-0.637
229	-0.612
230	-0.584
230	-0.553
231	-0.518
231	-0.481
232	-0.444
232	-0.403
233	-0.359
233	-0.315
234	-0.271
234	-0.226
235	-0.182
235	-0.14
236	-0.099
236	-0.059
236	-0.019
237	0.018
237	0.053
238	0.086
238	0.116
239	0.145
239	0.17
240	0.195
240	0.216
241	0.237
241	0.255
242	0.272
242	0.287
243	0.3
243	0.313
243	0.324
244	0.334
244	0.344
245	0.353
245	0.361
246	0.368
246	0.375
247	0.381
247	0.387
248	0.393
248	0.398
249	0.403
249	0.407
250	0.411
250	0.414
250	0.418
251	0.421
251	0.424
252	0.428
252	0.43
253	0.432
253	0.435
254	0.437
254	0.439
255	0.44
255	0.443
256	0.444
256	0.445
257	0.447
257	0.448
258	0.449
258	0.449
258	0.45
259	0.45
259	0.45
260	0.451
260	0.451
261	0.45
261	0.45
262	0.45
262	0.449
263	0.449
263	0.449
264	0.448
264	0.448
265	0.448
265	0.447
265	0.446
266	0.445
266	0.444
267	0.443
267	0.442
268	0.44
268	0.438
269	0.437
269	0.435
270	0.433
270	0.431
271	0.429
271	0.427
272	0.425
272	0.423
272	0.421
273	0.419
273	0.417
274	0.415
274	0.413
275	0.411
275	0.409
276	0.407
276	0.405
277	0.402
277	0.4
278	0.398
278	0.395
278	0.393
279	0.39
279	0.388
280	0.385
280	0.383
281	0.381
281	0.378
282	0.376
282	0.374
283	0.372
283	0.37
284	0.368
284	0.366
285	0.365
285	0.363
285	0.361
286	0.359
286	0.357
287	0.356
287	0.354
288	0.353
288	0.351
289	0.349
289	0.348
290	0.346
290	0.344
291	0.343
291	0.341
292	0.34
292	0.338
292	0.337
293	0.335
293	0.334
294	0.332
294	0.331
295	0.33
295	0.329
296	0.328
296	0.326
297	0.325
297	0.325
298	0.324
298	0.323
298	0.322
299	0.321
299	0.32
300	0.319
300	0.318
301	0.317
301	0.316
302	0.315
302	0.314
303	0.314
303	0.313
304	0.312
304	0.311
305	0.31
305	0.309
305	0.308
306	0.308
306	0.307
307	0.306
307	0.305
308	0.304
308	0.303
309	0.302
309	0.301
310	0.3
310	0.299
311	0.299
311	0.298
311	0.297
312	0.296
312	0.295
313	0.295
313	0.294
314	0.293
314	0.292
315	0.291
315	0.29
316	0.289
316	0.288
317	0.288
317	0.287
318	0.286
318	0.285
318	0.285
319	0.284
319	0.283
320	0.282
320	0.281
321	0.28
321	0.279
322	0.278
322	0.278
323	0.277
323	0.276
324	0.275
324	0.275
324	0.274
325	0.273
325	0.272
326	0.271
326	0.271
327	0.27
327	0.269
328	0.268
328	0.267
329	0.267
329	0.266
330	0.265
330	0.264
330	0.264
331	0.263
331	0.262
332	0.261
332	0.261
333	0.26
333	0.259
334	0.259
334	0.258
335	0.257
335	0.256
336	0.256
336	0.255
336	0.254
337	0.254
337	0.253
338	0.252
338	0.252
339	0.251
339	0.25
340	0.25
340	0.249
341	0.249
341	0.249
342	0.248
342	0.248
342	0.247
343	0.246
343	0.246
344	0.246
344	0.245
345	0.245
345	0.244
346	0.243
346	0.243
347	0.242
347	0.242
348	0.241
348	0.241
348	0.241
349	0.24
349	0.24
350	0.24
350	0.239
351	0.239
351	0.238
352	0.238
352	0.237
353	0.237
353	0.236
354	0.235
354	0.235
354	0.234
355	0.233
355	0.233
356	0.233
356	0.232
357	0.231
357	0.231
358	0.231
358	0.231
359	0.231
359	0.231
360	0.231
360	0.231
360	0.231
361	0.232
361	0.232
362	0.232
362	0.232
363	0.232
363	0.232
364	0.232
364	0.231
365	0.231
365	0.231
366	0.231
366	0.231
366	0.23
367	0.23
367	0.23
368	0.23
368	0.23
369	0.23
369	0.229
370	0.229
370	0.229
371	0.229
371	0.228
372	0.228
372	0.228
372	0.227
373	0.227
373	0.227
374	0.227
374	0.226
375	0.226
375	0.226
376	0.226
376	0.226
377	0.226
377	0.226
378	0.226
378	0.226
378	0.226
379	0.226
379	0.225
380	0.225
380	0.225
381	0.225
381	0.225
382	0.225
382	0.224
383	0.224
383	0.224
383	0.223
384	0.223
384	0.223
385	0.222
385	0.222
386	0.222
386	0.222
387	0.222
387	0.222
388	0.221
388	0.221
389	0.22
389	0.22
389	0.22
390	0.22
390	0.22
391	0.22
391	0.22
392	0.219
392	0.219
393	0.219
393	0.219
394	0.219
394	0.219
394	0.219
395	0.219
395	0.218
396	0.218
396	0.218
397	0.218
397	0.218
398	0.218
398	0.218
399	0.218
399	0.218
400	0.217
400	0.217
400	0.216
401	0.216
401	0.215
402	0.214
402	0.214
403	0.214
403	0.213
404	0.213
404	0.213
405	0.213
405	0.213
405	0.213
406	0.212
406	0.212
407	0.212
407	0.212
408	0.212
408	0.211
409	0.211
409	0.211
410	0.211
410	0.211
411	0.211
411	0.211
411	0.21
412	0.21
412	0.21
413	0.21
413	0.209
414	0.209
414	0.208
415	0.208
415	0.208
416	0.207
416	0.207
416	0.207
417	0.207
417	0.207
418	0.207
418	0.207
419	0.207
419	0.208
420	0.208
420	0.209
421	0.209
421	0.209
421	0.209
422	0.209
422	0.209
423	0.209
423	0.208
424	0.208
424	0.207
425	0.206
425	0.206
426	0.205
426	0.205
427	0.205
427	0.205
427	0.205
428	0.206
428	0.206
429	0.206
429	0.206
430	0.206
430	0.206
431	0.206
431	0.206
432	0.205
432	0.205
432	0.204
433	0.203
433	0.203
434	0.202
434	0.202
435	0.202
435	0.202
436	0.202
436	0.202
437	0.202
437	0.202
437	0.202
438	0.202
438	0.202
439	0.202
439	0.202
440	0.202
440	0.202
441	0.202
441	0.202
442	0.202
442	0.203
442	0.203
443	0.204
443	0.204
444	0.204
444	0.204
445	0.205
445	0.205
446	0.205
446	0.205
447	0.204
447	0.204
447	0.204
448	0.204
448	0.204
449	0.204
449	0.203
450	0.203
450	0.203
451	0.203
451	0.203
452	0.203
452	0.203
452	0.202
453	0.202
453	0.202
454	0.201
454	0.201
455	0.201
455	0.201
456	0.201
456	0.201
457	0.201
457	0.201
458	0.201
458	0.201
458	0.201
459	0.202
459	0.202
460	0.201
460	0.201
461	0.201
461	0.202
462	0.202
462	0.202
463	0.203
463	0.203
463	0.204
464	0.204
464	0.204
465	0.204
465	0.204
466	0.205
466	0.205
467	0.205
467	0.205
467	0.204
468	0.203
468	0.203
469	0.203
469	0.203
470	0.203
470	0.203
471	0.203
471	0.203
472	0.203
472	0.204
472	0.204
473	0.205
473	0.206
474	0.207
474	0.207
475	0.208
475	0.209
476	0.209
476	0.21
477	0.21
477	0.211
477	0.211
478	0.212
478	0.213
479	0.214
479	0.215
480	0.215
480	0.216
481	0.217
481	0.218
482	0.219
482	0.22
482	0.221
483	0.223
483	0.225
484	0.227
484	0.228
485	0.229
485	0.23
486	0.231
486	0.232
487	0.233
487	0.234
487	0.235
488	0.235
488	0.235
489	0.235
489	0.236
490	0.237
490	0.237
491	0.238
491	0.24
492	0.241
492	0.242
492	0.243
493	0.244
493	0.245
494	0.248
494	0.25
495	0.252
495	0.254
496	0.255
496	0.257
496	0.258
497	0.26
497	0.261
498	0.262
498	0.263
499	0.264
499	0.265
500	0.266
500	0.269
501	0.271
501	0.272
501	0.274
502	0.276
502	0.278
503	0.28
503	0.282
504	0.283
504	0.284
505	0.286
505	0.287
506	0.288
506	0.29
506	0.291
507	0.293
507	0.294
508	0.295
508	0.297
509	0.298
509	0.3
510	0.301
510	0.303
511	0.303
511	0.305
511	0.305
512	0.306
512	0.307
513	0.308
513	0.309
514	0.309
514	0.31
515	0.311
515	0.311
515	0.311
516	0.311
516	0.311
517	0.312
517	0.313
518	0.313
518	0.313
519	0.313
519	0.313
520	0.312
520	0.312
520	0.311
521	0.311
521	0.31
522	0.308
522	0.307
523	0.306
523	0.306
524	0.306
524	0.306
524	0.307
525	0.308
525	0.309
526	0.31
526	0.311
527	0.312
527	0.314
528	0.315
528	0.315
529	0.315
529	0.315
529	0.315
530	0.315
530	0.315
531	0.314
531	0.314
532	0.313
532	0.312
533	0.311
533	0.311
533	0.31
534	0.308
534	0.307
535	0.306
535	0.305
536	0.303
536	0.301
537	0.3
537	0.299
538	0.297
538	0.295
538	0.293
539	0.292
539	0.291
540	0.289
540	0.287
541	0.285
541	0.283
542	0.282
542	0.279
542	0.277
543	0.275
543	0.273
544	0.271
544	0.269
545	0.267
545	0.265
546	0.263
546	0.261
547	0.258
547	0.255
547	0.252
548	0.25
548	0.247
549	0.245
549	0.243
550	0.24
550	0.238
551	0.235
551	0.232
551	0.23
552	0.228
552	0.227
553	0.225
553	0.223
554	0.221
554	0.219
555	0.216
555	0.213
556	0.21
556	0.207
556	0.204
557	0.202
557	0.199
558	0.197
558	0.194
559	0.192
559	0.191
560	0.189
560	0.187
560	0.186
561	0.185
561	0.184
562	0.183
562	0.18
563	0.178
563	0.175
564	0.173
564	0.17
564	0.168
565	0.165
565	0.163
566	0.161
566	0.159
567	0.158
567	0.157
568	0.157
568	0.156
568	0.155
569	0.155
569	0.155
570	0.154
570	0.152
571	0.152
571	0.151
572	0.15
572	0.148
573	0.147
573	0.145
573	0.143
574	0.142
574	0.141
575	0.14
575	0.14
576	0.139
576	0.137
577	0.134
577	0.132
577	0.132
578	0.131
578	0.131
579	0.132
579	0.132
580	0.13
580	0.127
581	0.124
581	0.123
581	0.123
582	0.123
582	0.123
583	0.123
583	0.121
584	0.118
584	0.114
585	0.113
585	0.114
585	0.113
586	0.113
586	0.112
587	0.11
587	0.108
588	0.106
588	0.105
589	0.105
589	0.105
590	0.105
590	0.104
590	0.105
591	0.106
591	0.105
592	0.104
592	0.102
593	0.102
593	0.102
594	0.1
594	0.099
594	0.098
595	0.098
595	0.096
596	0.095
596	0.097
597	0.099
597	0.1
598	0.1
598	0.101
598	0.101
599	0.101
599	0.1
600	0.099
600	0.098
601	0.098
601	0.097
602	0.095
602	0.094
602	0.093
603	0.093
603	0.094
604	0.094
604	0.094
605	0.095
605	0.096
606	0.096
606	0.094
606	0.094
607	0.093
607	0.093
608	0.092
608	0.091
609	0.09
609	0.09
610	0.088
610	0.087
610	0.087
611	0.088
611	0.089
612	0.09
612	0.092
613	0.093
613	0.094
614	0.094
614	0.094
614	0.094
615	0.094
615	0.094
616	0.094
616	0.093
617	0.093
617	0.092
618	0.092
618	0.092
618	0.093
619	0.094
619	0.095
620	0.098
620	0.099
621	0.099
621	0.1
622	0.101
622	0.102
622	0.102
623	0.102
623	0.103
624	0.104
624	0.103
625	0.103
625	0.104
626	0.105
626	0.105
626	0.106
627	0.107
627	0.108
628	0.109
628	0.109
629	0.11
629	0.11
630	0.11
630	0.11
630	0.111
631	0.112
631	0.112
632	0.112
632	0.113
633	0.114
633	0.115
634	0.116
634	0.118
634	0.12
635	0.121
635	0.122
636	0.123
636	0.125
637	0.126
637	0.128
638	0.13
638	0.131
638	0.133
639	0.134
639	0.136
640	0.138
640	0.14
641	0.142
641	0.144
642	0.147
642	0.149
642	0.151
643	0.153
643	0.155
644	0.157
644	0.159
645	0.161
645	0.164
646	0.166
646	0.169
646	0.172
647	0.176
647	0.179
648	0.181
648	0.184
649	0.187
649	0.19
650	0.193
650	0.196
650	0.199
651	0.201
651	0.203
652	0.206
652	0.209
653	0.213
653	0.222
653	0.227
654	0.182
654	0.149
655	0.151
655	0.153
656	0.155
656	0.156
657	0.158
657	0.16
657	0.161
658	0.157
658	0.152
659	0.191
659	0.245
660	0.254
660	0.256
661	0.259
661	0.262
661	0.266
662	0.27
662	0.274
663	0.278
663	0.282
664	0.285
664	0.288
665	0.291
665	0.295
665	0.298
666	0.3
666	0.303
667	0.305
667	0.308
668	0.311
668	0.314
669	0.317
669	0.32
669	0.324
670	0.328
670	0.331
671	0.334
671	0.336
672	0.339
672	0.341
672	0.343
673	0.345
673	0.347
674	0.349
674	0.35
675	0.352
675	0.354
676	0.356
676	0.359
676	0.36
677	0.363
677	0.365
678	0.366
678	0.367
679	0.368
679	0.37
680	0.372
680	0.372
680	0.373
681	0.374
681	0.375
682	0.377
682	0.378
683	0.38
683	0.382
684	0.383
684	0.384
684	0.384
685	0.385
685	0.385
686	0.386
686	0.386
687	0.385
687	0.385
687	0.385
688	0.383
688	0.382
689	0.383
689	0.383
690	0.382
690	0.382
691	0.381
691	0.381
691	0.381
692	0.38
692	0.379
693	0.379
693	0.38
694	0.379
694	0.377
695	0.378
695	0.379
695	0.378
696	0.376
696	0.375
697	0.374
697	0.372
698	0.37
698	0.368
698	0.366
699	0.364
699	0.36
700	0.357
700	0.355
701	0.354
701	0.351
702	0.349
702	0.347
702	0.344
703	0.342
703	0.34
704	0.337
704	0.336
705	0.334
705	0.331
705	0.328
706	0.325
706	0.323
707	0.32
707	0.317
708	0.315
708	0.313
709	0.312
709	0.309
709	0.306
710	0.303
710	0.301
711	0.3
711	0.298
712	0.296
712	0.294
713	0.292
713	0.289
713	0.286
714	0.284
714	0.281
715	0.279
715	0.275
716	0.272
716	0.269
716	0.266
717	0.263
717	0.26
718	0.257
718	0.254
719	0.252
719	0.251
720	0.248
720	0.246
720	0.243
721	0.241
721	0.239
722	0.236
722	0.234
723	0.231
723	0.229
723	0.226
724	0.223
724	0.22
725	0.217
725	0.214
726	0.211
726	0.209
727	0.206
727	0.203
727	0.201
728	0.199
728	0.197
729	0.196
729	0.195
730	0.193
730	0.191
730	0.19
731	0.189
731	0.188
732	0.187
732	0.186
733	0.184
733	0.182
734	0.18
734	0.178
734	0.176
735	0.175
735	0.173
736	0.17
736	0.168
737	0.166
737	0.165
737	0.163
738	0.16
738	0.157
739	0.155
739	0.153
740	0.15
740	0.149
741	0.148
741	0.146
741	0.143
742	0.14
742	0.138
743	0.137
743	0.135
744	0.134
744	0.132
744	0.13
745	0.128
745	0.126
746	0.124
746	0.123
747	0.121
747	0.12
748	0.118
748	0.117
748	0.115
749	0.113
749	0.111
750	0.109
750	0.107
751	0.106
751	0.104
751	0.103
752	0.101
752	0.099
753	0.098
753	0.097
754	0.097
754	0.096
754	0.095
755	0.094
755	0.094
756	0.092
756	0.089
757	0.087
757	0.087
758	0.085
758	0.083
758	0.081
759	0.08
759	0.076
760	0.074
760	0.072
761	0.07
761	0.07
761	0.068
762	0.067
762	0.066
763	0.065
763	0.063
764	0.061
764	0.059
764	0.058
765	0.056
765	0.055
766	0.054
766	0.053
767	0.051
767	0.049
768	0.046
768	0.045
768	0.044
769	0.043
769	0.042
770	0.04
770	0.039
771	0.037
771	0.034
771	0.032
772	0.031
772	0.029
773	0.028
773	0.026
774	0.023
774	0.021
775	0.019
775	0.016
775	0.013
776	0.01
776	0.008
777	0.005
777	0.002
778	-0.001
778	-0.005
778	-0.007
779	-0.009
779	-0.012
780	-0.015
780	-0.019
781	-0.022
781	-0.026
781	-0.031
782	-0.037
782	-0.042
783	-0.048
783	-0.054
784	-0.06
784	-0.065
784	-0.07
785	-0.075
785	-0.08
786	-0.083
786	-0.083
787	-0.08
787	-0.078
788	-0.078
788	-0.079
788	-0.08
789	-0.082
789	-0.082
790	-0.079
790	-0.078
791	-0.078
791	-0.08
791	-0.082
792	-0.077
792	-0.067
793	-0.062
793	-0.058
794	-0.056
794	-0.058
794	-0.062
795	-0.064
795	-0.063
796	-0.063
796	-0.066
797	-0.074
797	-0.083
797	-0.089
798	-0.094
798	-0.097
799	-0.097
799	-0.097
800	-0.097
800	-0.099
801	-0.102
801	-0.104
801	-0.104
802	-0.106
802	-0.108
803	-0.109
803	-0.109
804	-0.108
804	-0.103
804	-0.097
805	-0.094
805	-0.092
806	-0.09
806	-0.088
807	-0.087
807	-0.086
807	-0.086
808	-0.085
808	-0.086
809	-0.09
809	-0.095
810	-0.098
810	-0.1
810	-0.102
811	-0.105
811	-0.105
812	-0.101
812	-0.098
813	-0.098
813	-0.099
813	-0.1
814	-0.101
814	-0.101
815	-0.098
815	-0.096
816	-0.094
816	-0.094
817	-0.099
817	-0.101
817	-0.1
818	-0.096
818	-0.092
819	-0.087
819	-0.083
820	-0.08
820	-0.077
820	-0.072
821	-0.066
821	-0.059
822	-0.053
822	-0.047
823	-0.042
823	-0.038
823	-0.034
824	-0.029
824	-0.025
825	-0.02
825	-0.016
826	-0.012
826	-0.01
826	-0.007
827	-0.005
827	-0.003
828	-0.001
828	0
829	0.002
829	0.004
829	0.006
830	0.007
830	0.009
831	0.012
831	0.014
832	0.015
832	0.017
832	0.018
833	0.019
833	0.02
834	0.02
834	0.02
835	0.02
835	0.02
835	0.02
836	0.02
836	0.02
837	0.021
837	0.022
838	0.022
838	0.023
839	0.023
839	0.023
839	0.024
840	0.024
840	0.024
841	0.025
841	0.025
842	0.025
842	0.025
842	0.025
843	0.024
843	0.024
844	0.024
844	0.024
845	0.024
845	0.024
845	0.024
846	0.024
846	0.024
847	0.024
847	0.025
848	0.026
848	0.026
848	0.026
849	0.027
849	0.027
850	0.027
850	0.026
851	0.027
851	0.027
851	0.026
852	0.026
852	0.026
853	0.026
853	0.026
854	0.026
854	0.026
854	0.026
855	0.026
855	0.026
856	0.025
856	0.025
857	0.025
857	0.024
857	0.024
858	0.024
858	0.024
859	0.024
859	0.024
860	0.024
860	0.024
860	0.024
861	0.023
861	0.023
862	0.022
862	0.021
863	0.02
863	0.02
863	0.019
864	0.019
864	0.018
865	0.018
865	0.018
866	0.018
866	0.018
866	0.019
867	0.02
867	0.021
868	0.022
868	0.023
869	0.024
869	0.025
869	0.024
870	0.024
870	0.024
871	0.023
871	0.023
872	0.022
872	0.021
872	0.02
873	0.02
873	0.019
874	0.019
874	0.019
875	0.02
875	0.02
875	0.02
876	0.02
876	0.02
877	0.02
877	0.02
878	0.02
878	0.019
878	0.019
879	0.018
879	0.017
880	0.017
880	0.016
881	0.016
881	0.016
881	0.017
882	0.017
882	0.017
883	0.018
883	0.018
884	0.019
884	0.02
884	0.02
885	0.021
885	0.021
886	0.021
886	0.021
887	0.021
887	0.021
887	0.021
888	0.02
888	0.02
889	0.02
889	0.02
890	0.021
890	0.021
890	0.021
891	0.022
891	0.022
892	0.023
892	0.023
893	0.024
893	0.024
893	0.025
894	0.025
894	0.025
895	0.025
895	0.025
895	0.025
896	0.026
896	0.026
897	0.027
897	0.027
898	0.028
898	0.028
898	0.029
899	0.029
899	0.03
900	0.03
900	0.03
901	0.03
901	0.03
901	0.029
902	0.029
902	0.029
903	0.029
903	0.028
904	0.028
904	0.027
904	0.026
905	0.026
905	0.025
906	0.024
906	0.023
907	0.023
907	0.022
907	0.021
908	0.021
908	0.021
909	0.02
909	0.02
910	0.02
910	0.02
910	0.021
911	0.021
911	0.022
912	0.023
912	0.023
913	0.024
913	0.025
913	0.025
914	0.026
914	0.026
915	0.025
915	0.025
916	0.024
916	0.024
916	0.023
917	0.022
917	0.021
918	0.02
918	0.02
918	0.019
919	0.019
919	0.019
920	0.019
920	0.019
921	0.019
921	0.019
921	0.019
922	0.019
922	0.018
923	0.018
923	0.017
924	0.016
924	0.015
924	0.015
925	0.014
925	0.013
926	0.012
926	0.011
927	0.011
927	0.011
927	0.011
928	0.011
928	0.012
929	0.013
929	0.015
930	0.017
930	0.019
930	0.021
931	0.023
931	0.025
932	0.027
932	0.028
933	0.03
933	0.031
933	0.032
934	0.033
934	0.033
935	0.033
935	0.033
935	0.033
936	0.032
936	0.032
937	0.032
937	0.031
938	0.031
938	0.031
938	0.031
939	0.031
939	0.031
940	0.031
940	0.031
941	0.031
941	0.031
941	0.03
942	0.03
942	0.029
943	0.028
943	0.027
944	0.027
944	0.026
944	0.026
945	0.026
945	0.025
946	0.025
946	0.024
946	0.024
947	0.023
947	0.022
948	0.021
948	0.021
949	0.02
949	0.02
949	0.019
950	0.019
950	0.019
951	0.018
951	0.018
952	0.017
952	0.017
952	0.017
953	0.016
953	0.016
954	0.015
954	0.015
955	0.014
955	0.013
955	0.013
956	0.013
956	0.013
957	0.013
957	0.013
957	0.013
958	0.013
958	0.013
959	0.013
959	0.013
960	0.013
960	0.012
960	0.012
961	0.011
961	0.011
962	0.01
962	0.01
963	0.01
963	0.009
963	0.009
964	0.009
964	0.01
965	0.01
965	0.011
966	0.012
966	0.013
966	0.014
967	0.014
967	0.015
968	0.015
968	0.016
968	0.016
969	0.016
969	0.016
970	0.016
970	0.016
971	0.016
971	0.016
971	0.015
972	0.016
972	0.016
973	0.016
973	0.016
974	0.017
974	0.017
974	0.018
975	0.018
975	0.019
976	0.02
976	0.02
976	0.021
977	0.021
977	0.022
978	0.022
978	0.022
979	0.022
979	0.023
979	0.023
980	0.023
980	0.023
981	0.024
981	0.024
982	0.025
982	0.026
982	0.026
983	0.027
983	0.028
984	0.028
984	0.029
984	0.029
985	0.029
985	0.029
986	0.028
986	0.027
987	0.026
987	0.026
987	0.025
988	0.024
988	0.024
989	0.023
989	0.022
990	0.022
990	0.021
990	0.021
991	0.022
991	0.022
992	0.022
992	0.022
992	0.022
993	0.022
993	0.021
994	0.021
994	0.02
995	0.02
995	0.019
995	0.018
996	0.018
996	0.017
997	0.016
997	0.016
997	0.016
998	0.016
998	0.017
999	0.017
999	0.018
1000	0.018
1000	0.019
1000	0.02
1001	0.021
1001	0.022
1002	0.022
1002	0.022
1003	0.022
1003	0.022
1003	0.022
1004	0.021
1004	0.021
1005	0.02
1005	0.019
1005	0.018
1006	0.017
1006	0.016
1007	0.016
1007	0.015
1008	0.015
1008	0.015
1008	0.015
1009	0.015
1009	0.016
1010	0.016
1010	0.016
1010	0.017
1011	0.017
1011	0.018
1012	0.018
1012	0.018
1013	0.019
1013	0.019
1013	0.019
1014	0.018
1014	0.018
1015	0.017
1015	0.016
1016	0.015
1016	0.014
1016	0.013
1017	0.012
1017	0.011
1018	0.01
1018	0.009
1018	0.009
1019	0.008
1019	0.008
1020	0.008
1020	0.007
1021	0.007
1021	0.007
1021	0.007
1022	0.007
1022	0.006
1023	0.006
1023	0.006
1023	0.005
1024	0.005
1024	0.004
1025	0.003
1025	0.002
1026	0.002
1026	0.001
1026	0.001
1027	0
1027	0
1028	0
1028	0
1028	0
1029	0
1029	0
1030	0
1030	0
1031	0
1031	0
1031	0
1032	0
1032	0.001
1033	0.001
1033	0.001
1033	0.001
1034	0.001
1034	0.001
1035	0.001
1035	0
1036	0
1036	0.001
1036	0.001
1037	0.001
1037	0.001
1038	0.001
1038	0.001
1039	0.002
1039	0.003
1039	0.003
1040	0.003
1040	0.004
1041	0.003
1041	0.003
1041	0.002
1042	0.001
1042	0.001
1043	0
1043	-0.001
1044	-0.002
1044	-0.003
1044	-0.004
1045	-0.005
1045	-0.006
1046	-0.007
1046	-0.007
1046	-0.007
1047	-0.007
1047	-0.007
1048	-0.007
1048	-0.007
1049	-0.008
1049	-0.008
1049	-0.009
1050	-0.01
1050	-0.01
1051	-0.01
1051	-0.011
1051	-0.011
1052	-0.011
1052	-0.012
1053	-0.012
1053	-0.012
1053	-0.012
1054	-0.011
1054	-0.011
1055	-0.01
1055	-0.01
1056	-0.01
1056	-0.01
1056	-0.01
1057	-0.01
1057	-0.01
1058	-0.01
1058	-0.01
1058	-0.01
1059	-0.01
1059	-0.01
1060	-0.01
1060	-0.01
1061	-0.01
1061	-0.01
1061	-0.009
1062	-0.01
1062	-0.01
1063	-0.01
1063	-0.01
1063	-0.011
1064	-0.01
1064	-0.01
1065	-0.01
1065	-0.01
1066	-0.009
1066	-0.009
1066	-0.008
1067	-0.007
1067	-0.007
1068	-0.006
1068	-0.006
1068	-0.005
1069	-0.005
1069	-0.005
1070	-0.005
1070	-0.005
1071	-0.005
1071	-0.005
1071	-0.005
1072	-0.005
1072	-0.005
1073	-0.005
1073	-0.004
1073	-0.005
1074	-0.004
1074	-0.004
1075	-0.005
1075	-0.006
1076	-0.007
1076	-0.007
1076	-0.008
1077	-0.008
1077	-0.009
1078	-0.009
1078	-0.009
1078	-0.008
1079	-0.008
1079	-0.007
1080	-0.006
1080	-0.006
1080	-0.006
1081	-0.006
1081	-0.005
1082	-0.005
1082	-0.005
1083	-0.005
1083	-0.005
1083	-0.005
1084	-0.005
1084	-0.004
1085	-0.004
1085	-0.002
1085	-0.002
1086	-0.001
1086	-0.001
1087	0
1087	0.002
1088	0.002
1088	0.003
1088	0.003
1089	0.004
1089	0.004
1090	0.004
1090	0.006
1090	0.006
1091	0.007
1091	0.008
1092	0.009
1092	0.012
1092	0.013
1093	0.014
1093	0.017
1094	0.018
1094	0.02
1095	0.02
1095	0.022
1095	0.025
1096	0.027
1096	0.028
1097	0.03
1097	0.032
1097	0.035
1098	0.036
1098	0.039
1099	0.042
1099	0.045
1100	0.049
1100	0.052
1100	0.056
1101	0.06
1101	0.064
1102	0.07
1102	0.075
1102	0.083
1103	0.09
1103	0.097
1104	0.106
1104	0.114
1104	0.125
1105	0.137
1105	0.148
1106	0.159
1106	0.173
1107	0.183
1107	0.203
1107	0.227
1108	0.307
1108	0.43
1109	0.655
1109	1.564
1109	-0
1110	-0
1110	-0
1111	-0
1111	-0
