Data from 15c-2a-fridge-noshake_Absorbance__116__06353.txt Node

Date: Wed Jan 17 18:41:14 CET 2024
User: Marek
Spectrometer: MAYP115816
Trigger mode: 0
Integration Time (sec): 2.000000E-1
Scans to average: 10
Electric dark correction enabled: true
Nonlinearity correction enabled: true
Boxcar width: 5
XAxis mode: Wavelengths
Number of Pixels in Spectrum: 2068
>>>>>Begin Spectral Data<<<<<
199	-1.676
199	-1.538
200	-1.38
200	-1.257
201	-1.181
201	-1.133
202	-1.063
202	-1.012
203	-0.967
203	-0.929
204	-0.905
204	-0.881
205	-0.858
205	-0.848
205	-0.847
206	-0.846
206	-0.843
207	-0.842
207	-0.837
208	-0.836
208	-0.835
209	-0.83
209	-0.829
210	-0.828
210	-0.83
211	-0.827
211	-0.827
212	-0.828
212	-0.827
213	-0.827
213	-0.826
213	-0.825
214	-0.824
214	-0.823
215	-0.821
215	-0.82
216	-0.82
216	-0.818
217	-0.813
217	-0.812
218	-0.811
218	-0.808
219	-0.805
219	-0.805
220	-0.802
220	-0.799
221	-0.795
221	-0.792
221	-0.787
222	-0.784
222	-0.779
223	-0.773
223	-0.771
224	-0.766
224	-0.758
225	-0.75
225	-0.743
226	-0.735
226	-0.723
227	-0.711
227	-0.698
228	-0.683
228	-0.667
229	-0.646
229	-0.623
229	-0.597
230	-0.57
230	-0.54
231	-0.508
231	-0.473
232	-0.439
232	-0.402
233	-0.363
233	-0.323
234	-0.284
234	-0.245
235	-0.209
235	-0.174
236	-0.14
236	-0.109
236	-0.08
237	-0.052
237	-0.028
238	-0.005
238	0.015
239	0.033
239	0.049
240	0.064
240	0.077
241	0.089
241	0.099
242	0.109
242	0.118
243	0.126
243	0.132
243	0.138
244	0.144
244	0.149
245	0.153
245	0.157
246	0.162
246	0.165
247	0.168
247	0.171
248	0.174
248	0.177
249	0.179
249	0.182
250	0.184
250	0.186
250	0.189
251	0.19
251	0.192
252	0.194
252	0.195
253	0.197
253	0.198
254	0.199
254	0.2
255	0.201
255	0.203
256	0.203
256	0.204
257	0.205
257	0.206
258	0.206
258	0.206
258	0.207
259	0.207
259	0.207
260	0.207
260	0.207
261	0.206
261	0.206
262	0.206
262	0.205
263	0.205
263	0.204
264	0.204
264	0.203
265	0.202
265	0.201
265	0.2
266	0.2
266	0.199
267	0.198
267	0.196
268	0.195
268	0.194
269	0.193
269	0.191
270	0.19
270	0.188
271	0.187
271	0.185
272	0.183
272	0.182
272	0.181
273	0.179
273	0.178
274	0.176
274	0.174
275	0.173
275	0.172
276	0.17
276	0.169
277	0.167
277	0.166
278	0.164
278	0.163
278	0.161
279	0.158
279	0.156
280	0.154
280	0.152
281	0.15
281	0.148
282	0.146
282	0.144
283	0.143
283	0.141
284	0.141
284	0.14
285	0.139
285	0.138
285	0.137
286	0.136
286	0.135
287	0.134
287	0.134
288	0.132
288	0.131
289	0.13
289	0.129
290	0.128
290	0.127
291	0.127
291	0.126
292	0.125
292	0.124
292	0.123
293	0.123
293	0.122
294	0.121
294	0.121
295	0.121
295	0.12
296	0.12
296	0.119
297	0.119
297	0.119
298	0.118
298	0.118
298	0.118
299	0.117
299	0.117
300	0.117
300	0.117
301	0.117
301	0.116
302	0.116
302	0.116
303	0.116
303	0.116
304	0.116
304	0.116
305	0.116
305	0.115
305	0.115
306	0.115
306	0.115
307	0.115
307	0.115
308	0.115
308	0.114
309	0.114
309	0.114
310	0.114
310	0.114
311	0.114
311	0.113
311	0.113
312	0.113
312	0.113
313	0.113
313	0.112
314	0.112
314	0.112
315	0.112
315	0.112
316	0.111
316	0.111
317	0.111
317	0.111
318	0.111
318	0.11
318	0.11
319	0.11
319	0.11
320	0.11
320	0.109
321	0.109
321	0.108
322	0.108
322	0.108
323	0.107
323	0.107
324	0.107
324	0.107
324	0.106
325	0.106
325	0.106
326	0.105
326	0.105
327	0.105
327	0.104
328	0.104
328	0.104
329	0.104
329	0.103
330	0.103
330	0.103
330	0.102
331	0.102
331	0.102
332	0.101
332	0.101
333	0.101
333	0.1
334	0.1
334	0.1
335	0.099
335	0.099
336	0.099
336	0.098
336	0.098
337	0.098
337	0.097
338	0.097
338	0.097
339	0.096
339	0.096
340	0.095
340	0.095
341	0.095
341	0.094
342	0.094
342	0.094
342	0.094
343	0.093
343	0.093
344	0.093
344	0.092
345	0.092
345	0.092
346	0.092
346	0.091
347	0.091
347	0.091
348	0.09
348	0.09
348	0.09
349	0.09
349	0.089
350	0.089
350	0.089
351	0.088
351	0.088
352	0.088
352	0.087
353	0.087
353	0.087
354	0.086
354	0.086
354	0.086
355	0.085
355	0.084
356	0.084
356	0.084
357	0.084
357	0.083
358	0.083
358	0.083
359	0.083
359	0.083
360	0.083
360	0.083
360	0.084
361	0.084
361	0.084
362	0.084
362	0.084
363	0.084
363	0.084
364	0.084
364	0.084
365	0.084
365	0.083
366	0.083
366	0.083
366	0.083
367	0.083
367	0.083
368	0.083
368	0.083
369	0.083
369	0.083
370	0.083
370	0.083
371	0.083
371	0.083
372	0.083
372	0.082
372	0.082
373	0.082
373	0.082
374	0.082
374	0.082
375	0.083
375	0.083
376	0.083
376	0.083
377	0.083
377	0.083
378	0.083
378	0.084
378	0.084
379	0.084
379	0.084
380	0.084
380	0.084
381	0.084
381	0.084
382	0.084
382	0.084
383	0.084
383	0.084
383	0.083
384	0.083
384	0.083
385	0.083
385	0.083
386	0.083
386	0.083
387	0.083
387	0.083
388	0.083
388	0.083
389	0.083
389	0.083
389	0.083
390	0.083
390	0.084
391	0.084
391	0.084
392	0.084
392	0.084
393	0.084
393	0.084
394	0.084
394	0.084
394	0.084
395	0.084
395	0.084
396	0.084
396	0.084
397	0.084
397	0.085
398	0.085
398	0.085
399	0.085
399	0.085
400	0.085
400	0.085
400	0.085
401	0.084
401	0.084
402	0.083
402	0.083
403	0.083
403	0.083
404	0.083
404	0.083
405	0.083
405	0.083
405	0.083
406	0.083
406	0.083
407	0.083
407	0.083
408	0.083
408	0.082
409	0.082
409	0.082
410	0.082
410	0.082
411	0.082
411	0.082
411	0.082
412	0.082
412	0.082
413	0.081
413	0.081
414	0.081
414	0.081
415	0.081
415	0.081
416	0.08
416	0.08
416	0.08
417	0.08
417	0.08
418	0.08
418	0.081
419	0.081
419	0.081
420	0.082
420	0.082
421	0.083
421	0.083
421	0.083
422	0.084
422	0.084
423	0.084
423	0.084
424	0.083
424	0.083
425	0.083
425	0.083
426	0.083
426	0.082
427	0.082
427	0.082
427	0.082
428	0.082
428	0.083
429	0.083
429	0.083
430	0.083
430	0.082
431	0.082
431	0.082
432	0.082
432	0.081
432	0.081
433	0.08
433	0.08
434	0.08
434	0.08
435	0.08
435	0.08
436	0.08
436	0.08
437	0.08
437	0.08
437	0.08
438	0.08
438	0.08
439	0.08
439	0.08
440	0.079
440	0.08
441	0.08
441	0.08
442	0.08
442	0.08
442	0.08
443	0.08
443	0.08
444	0.08
444	0.08
445	0.08
445	0.081
446	0.08
446	0.08
447	0.08
447	0.08
447	0.08
448	0.08
448	0.08
449	0.08
449	0.08
450	0.08
450	0.08
451	0.079
451	0.079
452	0.079
452	0.079
452	0.079
453	0.079
453	0.079
454	0.079
454	0.078
455	0.079
455	0.078
456	0.078
456	0.078
457	0.078
457	0.078
458	0.077
458	0.077
458	0.077
459	0.077
459	0.077
460	0.076
460	0.075
461	0.075
461	0.075
462	0.075
462	0.075
463	0.075
463	0.076
463	0.076
464	0.076
464	0.076
465	0.076
465	0.076
466	0.076
466	0.076
467	0.076
467	0.076
467	0.075
468	0.074
468	0.074
469	0.073
469	0.073
470	0.073
470	0.073
471	0.072
471	0.072
472	0.072
472	0.072
472	0.073
473	0.073
473	0.073
474	0.073
474	0.074
475	0.074
475	0.074
476	0.074
476	0.074
477	0.074
477	0.074
477	0.074
478	0.073
478	0.073
479	0.073
479	0.074
480	0.074
480	0.074
481	0.074
481	0.074
482	0.075
482	0.075
482	0.076
483	0.077
483	0.079
484	0.08
484	0.079
485	0.079
485	0.079
486	0.079
486	0.079
487	0.079
487	0.079
487	0.078
488	0.078
488	0.076
489	0.076
489	0.076
490	0.077
490	0.077
491	0.077
491	0.078
492	0.078
492	0.077
492	0.077
493	0.077
493	0.078
494	0.079
494	0.08
495	0.08
495	0.08
496	0.081
496	0.081
496	0.082
497	0.082
497	0.082
498	0.083
498	0.083
499	0.083
499	0.083
500	0.083
500	0.084
501	0.085
501	0.085
501	0.085
502	0.086
502	0.087
503	0.087
503	0.088
504	0.088
504	0.087
505	0.087
505	0.087
506	0.087
506	0.088
506	0.087
507	0.087
507	0.087
508	0.088
508	0.088
509	0.089
509	0.089
510	0.09
510	0.091
511	0.091
511	0.091
511	0.091
512	0.091
512	0.091
513	0.091
513	0.091
514	0.091
514	0.091
515	0.091
515	0.091
515	0.09
516	0.091
516	0.091
517	0.092
517	0.092
518	0.092
518	0.092
519	0.092
519	0.092
520	0.092
520	0.092
520	0.092
521	0.091
521	0.09
522	0.089
522	0.088
523	0.088
523	0.088
524	0.088
524	0.088
524	0.088
525	0.088
525	0.089
526	0.09
526	0.091
527	0.092
527	0.093
528	0.094
528	0.095
529	0.096
529	0.096
529	0.097
530	0.098
530	0.098
531	0.099
531	0.1
532	0.1
532	0.1
533	0.101
533	0.102
533	0.102
534	0.102
534	0.102
535	0.102
535	0.103
536	0.103
536	0.103
537	0.104
537	0.104
538	0.104
538	0.104
538	0.105
539	0.105
539	0.106
540	0.106
540	0.106
541	0.106
541	0.106
542	0.106
542	0.106
542	0.106
543	0.106
543	0.106
544	0.106
544	0.106
545	0.107
545	0.108
546	0.109
546	0.109
547	0.108
547	0.108
547	0.108
548	0.108
548	0.108
549	0.108
549	0.108
550	0.108
550	0.108
551	0.108
551	0.108
551	0.109
552	0.11
552	0.111
553	0.111
553	0.112
554	0.112
554	0.112
555	0.111
555	0.11
556	0.11
556	0.109
556	0.109
557	0.108
557	0.108
558	0.108
558	0.108
559	0.109
559	0.109
560	0.109
560	0.109
560	0.11
561	0.111
561	0.112
562	0.112
562	0.111
563	0.11
563	0.109
564	0.108
564	0.108
564	0.108
565	0.108
565	0.108
566	0.107
566	0.107
567	0.108
567	0.109
568	0.111
568	0.112
568	0.113
569	0.114
569	0.116
570	0.116
570	0.115
571	0.116
571	0.117
572	0.117
572	0.117
573	0.117
573	0.117
573	0.116
574	0.116
574	0.117
575	0.118
575	0.12
576	0.121
576	0.12
577	0.119
577	0.118
577	0.119
578	0.119
578	0.119
579	0.121
579	0.122
580	0.121
580	0.118
581	0.115
581	0.114
581	0.114
582	0.115
582	0.115
583	0.116
583	0.115
584	0.112
584	0.108
585	0.108
585	0.11
585	0.11
586	0.111
586	0.11
587	0.108
587	0.106
588	0.104
588	0.103
589	0.103
589	0.104
590	0.104
590	0.104
590	0.106
591	0.107
591	0.107
592	0.107
592	0.106
593	0.106
593	0.106
594	0.105
594	0.103
594	0.102
595	0.102
595	0.1
596	0.098
596	0.099
597	0.102
597	0.103
598	0.103
598	0.103
598	0.104
599	0.105
599	0.104
600	0.103
600	0.102
601	0.101
601	0.101
602	0.099
602	0.099
602	0.098
603	0.099
603	0.1
604	0.101
604	0.103
605	0.104
605	0.106
606	0.106
606	0.105
606	0.104
607	0.103
607	0.102
608	0.101
608	0.099
609	0.097
609	0.097
610	0.095
610	0.093
610	0.093
611	0.094
611	0.095
612	0.096
612	0.097
613	0.098
613	0.099
614	0.098
614	0.096
614	0.095
615	0.094
615	0.093
616	0.092
616	0.09
617	0.089
617	0.087
618	0.085
618	0.084
618	0.084
619	0.084
619	0.085
620	0.087
620	0.087
621	0.086
621	0.087
622	0.086
622	0.086
622	0.086
623	0.085
623	0.085
624	0.085
624	0.083
625	0.082
625	0.082
626	0.081
626	0.08
626	0.081
627	0.081
627	0.08
628	0.08
628	0.08
629	0.08
629	0.079
630	0.078
630	0.078
630	0.078
631	0.078
631	0.078
632	0.078
632	0.078
633	0.078
633	0.078
634	0.079
634	0.08
634	0.081
635	0.08
635	0.08
636	0.08
636	0.08
637	0.079
637	0.079
638	0.079
638	0.079
638	0.079
639	0.079
639	0.078
640	0.079
640	0.079
641	0.08
641	0.08
642	0.081
642	0.081
642	0.081
643	0.081
643	0.081
644	0.081
644	0.082
645	0.082
645	0.083
646	0.084
646	0.085
646	0.086
647	0.088
647	0.089
648	0.09
648	0.091
649	0.092
649	0.093
650	0.095
650	0.096
650	0.096
651	0.097
651	0.097
652	0.098
652	0.098
653	0.1
653	0.107
653	0.123
654	0.1
654	0.083
655	0.078
655	0.079
656	0.079
656	0.08
657	0.08
657	0.08
657	0.08
658	0.076
658	0.062
659	0.077
659	0.099
660	0.108
660	0.109
661	0.11
661	0.111
661	0.113
662	0.115
662	0.118
663	0.12
663	0.121
664	0.123
664	0.124
665	0.125
665	0.127
665	0.127
666	0.128
666	0.128
667	0.128
667	0.128
668	0.129
668	0.129
669	0.13
669	0.132
669	0.134
670	0.136
670	0.137
671	0.137
671	0.138
672	0.139
672	0.14
672	0.141
673	0.142
673	0.143
674	0.143
674	0.143
675	0.143
675	0.144
676	0.146
676	0.147
676	0.148
677	0.149
677	0.15
678	0.151
678	0.151
679	0.152
679	0.153
680	0.154
680	0.155
680	0.155
681	0.155
681	0.156
682	0.157
682	0.157
683	0.158
683	0.16
684	0.16
684	0.16
684	0.159
685	0.16
685	0.161
686	0.161
686	0.161
687	0.161
687	0.162
687	0.163
688	0.162
688	0.162
689	0.164
689	0.165
690	0.165
690	0.164
691	0.163
691	0.163
691	0.163
692	0.162
692	0.161
693	0.162
693	0.162
694	0.161
694	0.16
695	0.161
695	0.164
695	0.164
696	0.163
696	0.162
697	0.162
697	0.162
698	0.161
698	0.16
698	0.16
699	0.16
699	0.158
700	0.156
700	0.157
701	0.158
701	0.159
702	0.159
702	0.159
702	0.159
703	0.159
703	0.159
704	0.159
704	0.159
705	0.16
705	0.16
705	0.16
706	0.16
706	0.16
707	0.16
707	0.159
708	0.158
708	0.158
709	0.157
709	0.156
709	0.154
710	0.152
710	0.151
711	0.151
711	0.15
712	0.15
712	0.149
713	0.148
713	0.148
713	0.147
714	0.145
714	0.144
715	0.144
715	0.143
716	0.142
716	0.142
716	0.142
717	0.142
717	0.142
718	0.141
718	0.141
719	0.141
719	0.142
720	0.141
720	0.14
720	0.139
721	0.138
721	0.137
722	0.137
722	0.136
723	0.136
723	0.136
723	0.135
724	0.134
724	0.133
725	0.132
725	0.131
726	0.131
726	0.13
727	0.13
727	0.129
727	0.129
728	0.128
728	0.127
729	0.129
729	0.129
730	0.129
730	0.128
730	0.128
731	0.128
731	0.128
732	0.129
732	0.128
733	0.127
733	0.126
734	0.125
734	0.124
734	0.124
735	0.124
735	0.123
736	0.122
736	0.122
737	0.122
737	0.123
737	0.122
738	0.121
738	0.119
739	0.118
739	0.117
740	0.116
740	0.115
741	0.114
741	0.112
741	0.11
742	0.107
742	0.106
743	0.106
743	0.105
744	0.105
744	0.105
744	0.104
745	0.103
745	0.102
746	0.102
746	0.102
747	0.102
747	0.103
748	0.103
748	0.102
748	0.101
749	0.1
749	0.1
750	0.099
750	0.099
751	0.099
751	0.099
751	0.1
752	0.099
752	0.098
753	0.098
753	0.098
754	0.099
754	0.099
754	0.1
755	0.1
755	0.101
756	0.1
756	0.098
757	0.097
757	0.097
758	0.096
758	0.095
758	0.095
759	0.094
759	0.092
760	0.089
760	0.087
761	0.086
761	0.085
761	0.085
762	0.083
762	0.083
763	0.083
763	0.081
764	0.079
764	0.078
764	0.076
765	0.074
765	0.073
766	0.072
766	0.071
767	0.07
767	0.066
768	0.063
768	0.061
768	0.06
769	0.059
769	0.059
770	0.057
770	0.056
771	0.054
771	0.051
771	0.049
772	0.048
772	0.046
773	0.044
773	0.041
774	0.038
774	0.035
775	0.032
775	0.028
775	0.024
776	0.021
776	0.017
777	0.014
777	0.011
778	0.007
778	0.003
778	0
779	-0.002
779	-0.005
780	-0.009
780	-0.013
781	-0.017
781	-0.023
781	-0.029
782	-0.036
782	-0.044
783	-0.051
783	-0.058
784	-0.066
784	-0.075
784	-0.083
785	-0.092
785	-0.101
786	-0.109
786	-0.114
787	-0.116
787	-0.12
788	-0.126
788	-0.133
788	-0.139
789	-0.145
789	-0.147
790	-0.147
790	-0.148
791	-0.15
791	-0.152
791	-0.154
792	-0.149
792	-0.138
793	-0.132
793	-0.129
794	-0.127
794	-0.129
794	-0.133
795	-0.136
795	-0.136
796	-0.137
796	-0.14
797	-0.149
797	-0.16
797	-0.166
798	-0.171
798	-0.174
799	-0.174
799	-0.174
800	-0.173
800	-0.174
801	-0.177
801	-0.178
801	-0.178
802	-0.18
802	-0.181
803	-0.182
803	-0.182
804	-0.181
804	-0.176
804	-0.17
805	-0.166
805	-0.164
806	-0.162
806	-0.16
807	-0.159
807	-0.159
807	-0.159
808	-0.159
808	-0.16
809	-0.165
809	-0.171
810	-0.174
810	-0.177
810	-0.181
811	-0.184
811	-0.185
812	-0.181
812	-0.178
813	-0.178
813	-0.178
813	-0.179
814	-0.179
814	-0.178
815	-0.175
815	-0.172
816	-0.167
816	-0.163
817	-0.161
817	-0.157
817	-0.149
818	-0.139
818	-0.127
819	-0.114
819	-0.103
820	-0.093
820	-0.082
820	-0.071
821	-0.061
821	-0.052
822	-0.044
822	-0.036
823	-0.03
823	-0.026
823	-0.022
824	-0.018
824	-0.013
825	-0.008
825	-0.003
826	0
826	0.002
826	0.005
827	0.007
827	0.009
828	0.012
828	0.013
829	0.015
829	0.017
829	0.018
830	0.018
830	0.02
831	0.022
831	0.024
832	0.024
832	0.026
832	0.027
833	0.028
833	0.029
834	0.03
834	0.031
835	0.033
835	0.034
835	0.036
836	0.037
836	0.039
837	0.04
837	0.042
838	0.042
838	0.043
839	0.044
839	0.045
839	0.045
840	0.045
840	0.045
841	0.045
841	0.046
842	0.047
842	0.048
842	0.049
843	0.05
843	0.05
844	0.051
844	0.052
845	0.053
845	0.053
845	0.054
846	0.053
846	0.053
847	0.053
847	0.052
848	0.052
848	0.051
848	0.05
849	0.049
849	0.049
850	0.048
850	0.047
851	0.047
851	0.047
851	0.047
852	0.047
852	0.047
853	0.048
853	0.048
854	0.048
854	0.048
854	0.048
855	0.048
855	0.047
856	0.047
856	0.047
857	0.046
857	0.046
857	0.046
858	0.046
858	0.045
859	0.045
859	0.045
860	0.045
860	0.045
860	0.045
861	0.045
861	0.045
862	0.045
862	0.044
863	0.044
863	0.044
863	0.044
864	0.044
864	0.044
865	0.044
865	0.045
866	0.045
866	0.045
866	0.046
867	0.047
867	0.049
868	0.05
868	0.051
869	0.053
869	0.054
869	0.054
870	0.054
870	0.055
871	0.055
871	0.054
872	0.053
872	0.052
872	0.051
873	0.05
873	0.049
874	0.048
874	0.048
875	0.048
875	0.048
875	0.048
876	0.049
876	0.049
877	0.049
877	0.05
878	0.05
878	0.05
878	0.051
879	0.05
879	0.049
880	0.049
880	0.048
881	0.047
881	0.046
881	0.045
882	0.044
882	0.043
883	0.042
883	0.041
884	0.041
884	0.041
884	0.041
885	0.041
885	0.041
886	0.042
886	0.043
887	0.043
887	0.044
887	0.045
888	0.045
888	0.045
889	0.046
889	0.047
890	0.047
890	0.047
890	0.046
891	0.046
891	0.045
892	0.045
892	0.044
893	0.044
893	0.044
893	0.043
894	0.042
894	0.041
895	0.041
895	0.04
895	0.038
896	0.037
896	0.037
897	0.036
897	0.035
898	0.035
898	0.035
898	0.035
899	0.035
899	0.036
900	0.037
900	0.038
901	0.04
901	0.041
901	0.042
902	0.044
902	0.045
903	0.045
903	0.046
904	0.047
904	0.047
904	0.048
905	0.048
905	0.048
906	0.048
906	0.048
907	0.048
907	0.048
907	0.048
908	0.048
908	0.047
909	0.047
909	0.046
910	0.046
910	0.045
910	0.045
911	0.044
911	0.044
912	0.045
912	0.045
913	0.046
913	0.046
913	0.046
914	0.047
914	0.046
915	0.046
915	0.046
916	0.045
916	0.044
916	0.043
917	0.042
917	0.041
918	0.04
918	0.039
918	0.038
919	0.038
919	0.038
920	0.038
920	0.039
921	0.04
921	0.04
921	0.041
922	0.042
922	0.043
923	0.043
923	0.044
924	0.045
924	0.045
924	0.045
925	0.044
925	0.044
926	0.043
926	0.042
927	0.042
927	0.04
927	0.039
928	0.038
928	0.037
929	0.036
929	0.035
930	0.034
930	0.033
930	0.032
931	0.032
931	0.032
932	0.031
932	0.031
933	0.031
933	0.031
933	0.031
934	0.03
934	0.03
935	0.029
935	0.029
935	0.028
936	0.027
936	0.027
937	0.026
937	0.026
938	0.025
938	0.025
938	0.025
939	0.025
939	0.025
940	0.026
940	0.026
941	0.027
941	0.027
941	0.028
942	0.029
942	0.03
943	0.031
943	0.031
944	0.031
944	0.032
944	0.032
945	0.032
945	0.032
946	0.033
946	0.032
946	0.032
947	0.032
947	0.031
948	0.03
948	0.03
949	0.029
949	0.029
949	0.028
950	0.028
950	0.028
951	0.028
951	0.027
952	0.026
952	0.027
952	0.027
953	0.027
953	0.027
954	0.026
954	0.025
955	0.025
955	0.024
955	0.024
956	0.025
956	0.025
957	0.024
957	0.024
957	0.023
958	0.023
958	0.022
959	0.022
959	0.021
960	0.021
960	0.02
960	0.019
961	0.018
961	0.017
962	0.016
962	0.016
963	0.015
963	0.015
963	0.015
964	0.015
964	0.015
965	0.016
965	0.017
966	0.017
966	0.018
966	0.02
967	0.02
967	0.021
968	0.021
968	0.021
968	0.021
969	0.02
969	0.02
970	0.019
970	0.018
971	0.018
971	0.017
971	0.017
972	0.017
972	0.017
973	0.016
973	0.016
974	0.016
974	0.016
974	0.016
975	0.016
975	0.016
976	0.016
976	0.015
976	0.015
977	0.013
977	0.012
978	0.011
978	0.01
979	0.009
979	0.008
979	0.007
980	0.006
980	0.005
981	0.004
981	0.004
982	0.004
982	0.004
982	0.005
983	0.005
983	0.005
984	0.006
984	0.006
984	0.006
985	0.007
985	0.007
986	0.007
986	0.006
987	0.007
987	0.007
987	0.008
988	0.009
988	0.01
989	0.012
989	0.013
990	0.014
990	0.016
990	0.019
991	0.021
991	0.023
992	0.025
992	0.026
992	0.027
993	0.028
993	0.028
994	0.028
994	0.028
995	0.028
995	0.027
995	0.025
996	0.024
996	0.023
997	0.022
997	0.021
997	0.02
998	0.019
998	0.019
999	0.018
999	0.018
1000	0.018
1000	0.017
1000	0.017
1001	0.017
1001	0.017
1002	0.017
1002	0.017
1003	0.017
1003	0.017
1003	0.017
1004	0.016
1004	0.016
1005	0.015
1005	0.015
1005	0.014
1006	0.013
1006	0.012
1007	0.012
1007	0.011
1008	0.01
1008	0.009
1008	0.009
1009	0.009
1009	0.009
1010	0.009
1010	0.009
1010	0.009
1011	0.009
1011	0.009
1012	0.01
1012	0.009
1013	0.009
1013	0.009
1013	0.008
1014	0.007
1014	0.006
1015	0.005
1015	0.005
1016	0.004
1016	0.003
1016	0.003
1017	0.002
1017	0.002
1018	0.003
1018	0.003
1018	0.003
1019	0.004
1019	0.004
1020	0.005
1020	0.005
1021	0.005
1021	0.005
1021	0.006
1022	0.006
1022	0.006
1023	0.006
1023	0.005
1023	0.005
1024	0.003
1024	0.002
1025	0.001
1025	0
1026	-0.001
1026	-0.002
1026	-0.004
1027	-0.004
1027	-0.005
1028	-0.005
1028	-0.006
1028	-0.006
1029	-0.006
1029	-0.005
1030	-0.005
1030	-0.005
1031	-0.005
1031	-0.004
1031	-0.004
1032	-0.004
1032	-0.004
1033	-0.004
1033	-0.004
1033	-0.004
1034	-0.005
1034	-0.006
1035	-0.006
1035	-0.007
1036	-0.007
1036	-0.008
1036	-0.008
1037	-0.009
1037	-0.009
1038	-0.009
1038	-0.009
1039	-0.008
1039	-0.008
1039	-0.008
1040	-0.008
1040	-0.007
1041	-0.007
1041	-0.007
1041	-0.007
1042	-0.007
1042	-0.007
1043	-0.008
1043	-0.008
1044	-0.009
1044	-0.009
1044	-0.009
1045	-0.01
1045	-0.01
1046	-0.011
1046	-0.012
1046	-0.012
1047	-0.012
1047	-0.012
1048	-0.011
1048	-0.011
1049	-0.012
1049	-0.013
1049	-0.013
1050	-0.014
1050	-0.014
1051	-0.015
1051	-0.016
1051	-0.017
1052	-0.017
1052	-0.018
1053	-0.019
1053	-0.019
1053	-0.019
1054	-0.019
1054	-0.019
1055	-0.019
1055	-0.019
1056	-0.02
1056	-0.02
1056	-0.021
1057	-0.022
1057	-0.022
1058	-0.023
1058	-0.024
1058	-0.024
1059	-0.025
1059	-0.026
1060	-0.026
1060	-0.026
1061	-0.025
1061	-0.024
1061	-0.024
1062	-0.024
1062	-0.023
1063	-0.023
1063	-0.022
1063	-0.021
1064	-0.021
1064	-0.02
1065	-0.019
1065	-0.019
1066	-0.018
1066	-0.018
1066	-0.017
1067	-0.016
1067	-0.016
1068	-0.015
1068	-0.015
1068	-0.015
1069	-0.015
1069	-0.016
1070	-0.017
1070	-0.017
1071	-0.017
1071	-0.017
1071	-0.018
1072	-0.018
1072	-0.018
1073	-0.018
1073	-0.017
1073	-0.017
1074	-0.016
1074	-0.016
1075	-0.016
1075	-0.016
1076	-0.017
1076	-0.016
1076	-0.017
1077	-0.017
1077	-0.018
1078	-0.019
1078	-0.019
1078	-0.019
1079	-0.019
1079	-0.018
1080	-0.018
1080	-0.018
1080	-0.018
1081	-0.018
1081	-0.017
1082	-0.016
1082	-0.016
1083	-0.015
1083	-0.015
1083	-0.015
1084	-0.015
1084	-0.014
1085	-0.013
1085	-0.012
1085	-0.011
1086	-0.011
1086	-0.011
1087	-0.01
1087	-0.009
1088	-0.009
1088	-0.009
1088	-0.008
1089	-0.009
1089	-0.009
1090	-0.008
1090	-0.008
1090	-0.007
1091	-0.006
1091	-0.005
1092	-0.003
1092	-0.001
1092	0.001
1093	0.003
1093	0.007
1094	0.01
1094	0.011
1095	0.012
1095	0.014
1095	0.017
1096	0.019
1096	0.02
1097	0.022
1097	0.022
1097	0.023
1098	0.024
1098	0.025
1099	0.027
1099	0.03
1100	0.033
1100	0.035
1100	0.038
1101	0.042
1101	0.045
1102	0.051
1102	0.057
1102	0.063
1103	0.069
1103	0.077
1104	0.084
1104	0.093
1104	0.104
1105	0.114
1105	0.123
1106	0.13
1106	0.142
1107	0.15
1107	0.168
1107	0.187
1108	0.259
1108	0.364
1109	0.543
1109	1.037
1109	-0
1110	-0
1110	-0
1111	-0
1111	-0
