Data from 15c-2a-fridge-noshake_Absorbance__72__06309.txt Node

Date: Wed Jan 17 18:39:46 CET 2024
User: Marek
Spectrometer: MAYP115816
Trigger mode: 0
Integration Time (sec): 2.000000E-1
Scans to average: 10
Electric dark correction enabled: true
Nonlinearity correction enabled: true
Boxcar width: 5
XAxis mode: Wavelengths
Number of Pixels in Spectrum: 2068
>>>>>Begin Spectral Data<<<<<
199	-1.705
199	-1.565
200	-1.406
200	-1.282
201	-1.206
201	-1.158
202	-1.088
202	-1.036
203	-0.989
203	-0.95
204	-0.926
204	-0.902
205	-0.879
205	-0.869
205	-0.868
206	-0.867
206	-0.863
207	-0.861
207	-0.857
208	-0.856
208	-0.855
209	-0.85
209	-0.849
210	-0.848
210	-0.849
211	-0.847
211	-0.846
212	-0.848
212	-0.847
213	-0.846
213	-0.845
213	-0.844
214	-0.843
214	-0.842
215	-0.841
215	-0.84
216	-0.841
216	-0.838
217	-0.833
217	-0.831
218	-0.83
218	-0.826
219	-0.823
219	-0.823
220	-0.82
220	-0.818
221	-0.812
221	-0.809
221	-0.805
222	-0.802
222	-0.797
223	-0.792
223	-0.789
224	-0.784
224	-0.777
225	-0.768
225	-0.761
226	-0.752
226	-0.741
227	-0.728
227	-0.716
228	-0.701
228	-0.684
229	-0.664
229	-0.641
229	-0.615
230	-0.587
230	-0.558
231	-0.524
231	-0.49
232	-0.455
232	-0.417
233	-0.377
233	-0.337
234	-0.298
234	-0.259
235	-0.222
235	-0.187
236	-0.153
236	-0.122
236	-0.092
237	-0.064
237	-0.039
238	-0.016
238	0.005
239	0.024
239	0.041
240	0.057
240	0.07
241	0.082
241	0.093
242	0.103
242	0.112
243	0.12
243	0.127
243	0.133
244	0.139
244	0.144
245	0.148
245	0.153
246	0.157
246	0.161
247	0.164
247	0.167
248	0.17
248	0.173
249	0.176
249	0.178
250	0.18
250	0.182
250	0.184
251	0.186
251	0.188
252	0.19
252	0.191
253	0.193
253	0.195
254	0.196
254	0.197
255	0.198
255	0.199
256	0.2
256	0.201
257	0.201
257	0.202
258	0.202
258	0.202
258	0.203
259	0.203
259	0.203
260	0.203
260	0.203
261	0.203
261	0.203
262	0.203
262	0.202
263	0.202
263	0.201
264	0.201
264	0.2
265	0.199
265	0.199
265	0.198
266	0.197
266	0.196
267	0.194
267	0.193
268	0.192
268	0.191
269	0.189
269	0.188
270	0.187
270	0.185
271	0.184
271	0.182
272	0.18
272	0.179
272	0.178
273	0.176
273	0.175
274	0.173
274	0.172
275	0.17
275	0.169
276	0.168
276	0.166
277	0.165
277	0.164
278	0.162
278	0.161
278	0.159
279	0.156
279	0.154
280	0.152
280	0.15
281	0.148
281	0.146
282	0.144
282	0.142
283	0.141
283	0.14
284	0.139
284	0.138
285	0.138
285	0.136
285	0.135
286	0.134
286	0.134
287	0.133
287	0.132
288	0.131
288	0.13
289	0.129
289	0.128
290	0.127
290	0.126
291	0.125
291	0.124
292	0.124
292	0.123
292	0.122
293	0.121
293	0.121
294	0.12
294	0.12
295	0.119
295	0.119
296	0.118
296	0.118
297	0.118
297	0.118
298	0.117
298	0.117
298	0.117
299	0.117
299	0.116
300	0.116
300	0.116
301	0.116
301	0.116
302	0.115
302	0.115
303	0.115
303	0.115
304	0.115
304	0.115
305	0.115
305	0.114
305	0.114
306	0.114
306	0.114
307	0.114
307	0.114
308	0.113
308	0.113
309	0.113
309	0.113
310	0.113
310	0.113
311	0.113
311	0.113
311	0.112
312	0.112
312	0.112
313	0.112
313	0.112
314	0.111
314	0.111
315	0.111
315	0.111
316	0.11
316	0.11
317	0.11
317	0.11
318	0.109
318	0.109
318	0.109
319	0.109
319	0.108
320	0.108
320	0.108
321	0.108
321	0.107
322	0.107
322	0.107
323	0.106
323	0.106
324	0.106
324	0.106
324	0.105
325	0.105
325	0.105
326	0.104
326	0.104
327	0.104
327	0.104
328	0.103
328	0.103
329	0.103
329	0.102
330	0.102
330	0.101
330	0.101
331	0.101
331	0.1
332	0.1
332	0.1
333	0.099
333	0.099
334	0.099
334	0.099
335	0.098
335	0.098
336	0.098
336	0.097
336	0.097
337	0.096
337	0.096
338	0.096
338	0.096
339	0.095
339	0.095
340	0.095
340	0.094
341	0.094
341	0.094
342	0.093
342	0.093
342	0.093
343	0.092
343	0.092
344	0.092
344	0.091
345	0.091
345	0.091
346	0.091
346	0.09
347	0.09
347	0.09
348	0.089
348	0.089
348	0.089
349	0.089
349	0.088
350	0.088
350	0.088
351	0.088
351	0.087
352	0.087
352	0.086
353	0.086
353	0.086
354	0.085
354	0.085
354	0.084
355	0.084
355	0.083
356	0.083
356	0.083
357	0.083
357	0.082
358	0.082
358	0.082
359	0.082
359	0.082
360	0.082
360	0.082
360	0.083
361	0.083
361	0.083
362	0.083
362	0.083
363	0.083
363	0.083
364	0.083
364	0.082
365	0.082
365	0.082
366	0.082
366	0.082
366	0.082
367	0.082
367	0.082
368	0.082
368	0.082
369	0.082
369	0.082
370	0.082
370	0.082
371	0.082
371	0.082
372	0.081
372	0.081
372	0.081
373	0.081
373	0.081
374	0.081
374	0.081
375	0.082
375	0.082
376	0.082
376	0.082
377	0.082
377	0.082
378	0.082
378	0.083
378	0.083
379	0.083
379	0.083
380	0.083
380	0.083
381	0.083
381	0.083
382	0.083
382	0.083
383	0.083
383	0.083
383	0.082
384	0.082
384	0.082
385	0.082
385	0.082
386	0.082
386	0.082
387	0.082
387	0.082
388	0.082
388	0.082
389	0.082
389	0.082
389	0.082
390	0.083
390	0.083
391	0.083
391	0.083
392	0.083
392	0.083
393	0.083
393	0.083
394	0.083
394	0.083
394	0.084
395	0.083
395	0.083
396	0.083
396	0.084
397	0.084
397	0.084
398	0.084
398	0.084
399	0.084
399	0.084
400	0.084
400	0.084
400	0.084
401	0.083
401	0.083
402	0.083
402	0.082
403	0.082
403	0.082
404	0.083
404	0.082
405	0.083
405	0.082
405	0.082
406	0.082
406	0.082
407	0.082
407	0.082
408	0.082
408	0.082
409	0.081
409	0.081
410	0.081
410	0.081
411	0.082
411	0.081
411	0.081
412	0.081
412	0.081
413	0.081
413	0.081
414	0.081
414	0.081
415	0.08
415	0.08
416	0.08
416	0.079
416	0.079
417	0.079
417	0.079
418	0.079
418	0.08
419	0.08
419	0.081
420	0.081
420	0.082
421	0.082
421	0.082
421	0.083
422	0.083
422	0.083
423	0.083
423	0.083
424	0.083
424	0.082
425	0.082
425	0.082
426	0.082
426	0.081
427	0.081
427	0.081
427	0.081
428	0.082
428	0.082
429	0.082
429	0.082
430	0.082
430	0.082
431	0.082
431	0.081
432	0.081
432	0.081
432	0.081
433	0.08
433	0.08
434	0.08
434	0.08
435	0.08
435	0.08
436	0.08
436	0.08
437	0.08
437	0.08
437	0.08
438	0.08
438	0.08
439	0.08
439	0.079
440	0.079
440	0.079
441	0.08
441	0.08
442	0.08
442	0.08
442	0.08
443	0.08
443	0.08
444	0.08
444	0.08
445	0.08
445	0.08
446	0.08
446	0.08
447	0.08
447	0.08
447	0.079
448	0.079
448	0.079
449	0.079
449	0.079
450	0.079
450	0.079
451	0.079
451	0.079
452	0.079
452	0.079
452	0.079
453	0.079
453	0.078
454	0.078
454	0.078
455	0.078
455	0.078
456	0.078
456	0.077
457	0.077
457	0.077
458	0.076
458	0.076
458	0.076
459	0.076
459	0.076
460	0.075
460	0.074
461	0.074
461	0.074
462	0.074
462	0.074
463	0.074
463	0.075
463	0.075
464	0.075
464	0.075
465	0.075
465	0.075
466	0.075
466	0.076
467	0.076
467	0.075
467	0.075
468	0.074
468	0.073
469	0.073
469	0.073
470	0.072
470	0.072
471	0.072
471	0.071
472	0.071
472	0.071
472	0.071
473	0.072
473	0.072
474	0.072
474	0.073
475	0.073
475	0.073
476	0.073
476	0.073
477	0.073
477	0.073
477	0.073
478	0.072
478	0.072
479	0.072
479	0.072
480	0.072
480	0.072
481	0.072
481	0.073
482	0.073
482	0.074
482	0.074
483	0.076
483	0.077
484	0.078
484	0.077
485	0.077
485	0.078
486	0.078
486	0.078
487	0.078
487	0.078
487	0.078
488	0.077
488	0.076
489	0.075
489	0.076
490	0.076
490	0.076
491	0.076
491	0.077
492	0.077
492	0.077
492	0.077
493	0.077
493	0.077
494	0.078
494	0.079
495	0.079
495	0.08
496	0.08
496	0.08
496	0.081
497	0.081
497	0.082
498	0.082
498	0.082
499	0.082
499	0.082
500	0.082
500	0.083
501	0.083
501	0.084
501	0.084
502	0.084
502	0.085
503	0.086
503	0.086
504	0.086
504	0.086
505	0.086
505	0.085
506	0.086
506	0.086
506	0.086
507	0.086
507	0.086
508	0.087
508	0.087
509	0.088
509	0.089
510	0.089
510	0.09
511	0.09
511	0.09
511	0.09
512	0.09
512	0.09
513	0.09
513	0.089
514	0.089
514	0.089
515	0.09
515	0.089
515	0.089
516	0.089
516	0.09
517	0.09
517	0.09
518	0.09
518	0.09
519	0.09
519	0.09
520	0.09
520	0.09
520	0.09
521	0.089
521	0.088
522	0.087
522	0.086
523	0.086
523	0.086
524	0.086
524	0.086
524	0.086
525	0.087
525	0.087
526	0.088
526	0.09
527	0.091
527	0.092
528	0.093
528	0.094
529	0.095
529	0.096
529	0.097
530	0.097
530	0.098
531	0.099
531	0.099
532	0.1
532	0.1
533	0.101
533	0.102
533	0.102
534	0.102
534	0.102
535	0.103
535	0.103
536	0.104
536	0.104
537	0.104
537	0.105
538	0.105
538	0.105
538	0.105
539	0.106
539	0.106
540	0.107
540	0.106
541	0.106
541	0.106
542	0.106
542	0.106
542	0.106
543	0.107
543	0.107
544	0.107
544	0.107
545	0.108
545	0.109
546	0.11
546	0.11
547	0.11
547	0.109
547	0.109
548	0.11
548	0.11
549	0.11
549	0.109
550	0.109
550	0.109
551	0.109
551	0.11
551	0.11
552	0.111
552	0.112
553	0.113
553	0.114
554	0.114
554	0.114
555	0.113
555	0.113
556	0.112
556	0.112
556	0.111
557	0.111
557	0.111
558	0.11
558	0.11
559	0.11
559	0.111
560	0.111
560	0.111
560	0.112
561	0.113
561	0.114
562	0.113
562	0.113
563	0.112
563	0.111
564	0.111
564	0.11
564	0.11
565	0.11
565	0.11
566	0.109
566	0.109
567	0.11
567	0.112
568	0.113
568	0.114
568	0.115
569	0.117
569	0.118
570	0.119
570	0.118
571	0.119
571	0.12
572	0.12
572	0.121
573	0.121
573	0.121
573	0.12
574	0.12
574	0.121
575	0.121
575	0.123
576	0.124
576	0.123
577	0.122
577	0.121
577	0.122
578	0.122
578	0.122
579	0.124
579	0.125
580	0.124
580	0.121
581	0.118
581	0.117
581	0.117
582	0.117
582	0.118
583	0.119
583	0.118
584	0.115
584	0.111
585	0.111
585	0.112
585	0.113
586	0.113
586	0.113
587	0.111
587	0.109
588	0.107
588	0.106
589	0.105
589	0.106
590	0.106
590	0.106
590	0.108
591	0.109
591	0.109
592	0.108
592	0.107
593	0.107
593	0.107
594	0.106
594	0.105
594	0.104
595	0.103
595	0.101
596	0.1
596	0.101
597	0.104
597	0.104
598	0.104
598	0.105
598	0.106
599	0.106
599	0.106
600	0.105
600	0.103
601	0.103
601	0.102
602	0.1
602	0.1
602	0.099
603	0.099
603	0.101
604	0.102
604	0.103
605	0.105
605	0.107
606	0.107
606	0.105
606	0.105
607	0.104
607	0.103
608	0.102
608	0.1
609	0.098
609	0.097
610	0.096
610	0.093
610	0.093
611	0.094
611	0.095
612	0.096
612	0.097
613	0.098
613	0.098
614	0.097
614	0.095
614	0.095
615	0.094
615	0.092
616	0.091
616	0.09
617	0.088
617	0.086
618	0.084
618	0.083
618	0.082
619	0.082
619	0.083
620	0.085
620	0.085
621	0.085
621	0.085
622	0.085
622	0.085
622	0.084
623	0.083
623	0.084
624	0.083
624	0.082
625	0.08
625	0.08
626	0.079
626	0.078
626	0.078
627	0.078
627	0.078
628	0.078
628	0.077
629	0.077
629	0.077
630	0.076
630	0.075
630	0.075
631	0.076
631	0.076
632	0.075
632	0.075
633	0.075
633	0.075
634	0.076
634	0.077
634	0.077
635	0.077
635	0.076
636	0.076
636	0.076
637	0.075
637	0.075
638	0.075
638	0.075
638	0.075
639	0.075
639	0.074
640	0.075
640	0.075
641	0.075
641	0.076
642	0.076
642	0.077
642	0.077
643	0.077
643	0.077
644	0.077
644	0.077
645	0.078
645	0.078
646	0.079
646	0.08
646	0.081
647	0.083
647	0.084
648	0.085
648	0.085
649	0.086
649	0.088
650	0.089
650	0.09
650	0.09
651	0.091
651	0.091
652	0.092
652	0.092
653	0.094
653	0.101
653	0.116
654	0.095
654	0.079
655	0.074
655	0.075
656	0.075
656	0.076
657	0.076
657	0.076
657	0.076
658	0.072
658	0.058
659	0.072
659	0.092
660	0.101
660	0.102
661	0.102
661	0.104
661	0.105
662	0.108
662	0.11
663	0.112
663	0.113
664	0.115
664	0.115
665	0.117
665	0.118
665	0.119
666	0.119
666	0.119
667	0.119
667	0.119
668	0.12
668	0.12
669	0.121
669	0.123
669	0.125
670	0.127
670	0.127
671	0.128
671	0.128
672	0.13
672	0.131
672	0.131
673	0.132
673	0.133
674	0.133
674	0.133
675	0.133
675	0.133
676	0.135
676	0.136
676	0.137
677	0.138
677	0.139
678	0.14
678	0.14
679	0.141
679	0.142
680	0.143
680	0.144
680	0.144
681	0.144
681	0.145
682	0.145
682	0.146
683	0.147
683	0.149
684	0.15
684	0.149
684	0.149
685	0.149
685	0.15
686	0.15
686	0.151
687	0.151
687	0.151
687	0.152
688	0.152
688	0.152
689	0.153
689	0.154
690	0.154
690	0.153
691	0.153
691	0.153
691	0.152
692	0.152
692	0.151
693	0.151
693	0.152
694	0.151
694	0.15
695	0.151
695	0.154
695	0.154
696	0.153
696	0.153
697	0.153
697	0.152
698	0.152
698	0.15
698	0.15
699	0.151
699	0.149
700	0.148
700	0.148
701	0.15
701	0.15
702	0.15
702	0.15
702	0.151
703	0.151
703	0.151
704	0.151
704	0.152
705	0.153
705	0.153
705	0.154
706	0.154
706	0.154
707	0.154
707	0.153
708	0.153
708	0.152
709	0.152
709	0.151
709	0.149
710	0.147
710	0.146
711	0.146
711	0.145
712	0.144
712	0.143
713	0.143
713	0.142
713	0.141
714	0.14
714	0.139
715	0.138
715	0.137
716	0.137
716	0.137
716	0.137
717	0.137
717	0.137
718	0.137
718	0.136
719	0.137
719	0.137
720	0.137
720	0.136
720	0.136
721	0.135
721	0.134
722	0.134
722	0.133
723	0.133
723	0.133
723	0.132
724	0.132
724	0.131
725	0.13
725	0.13
726	0.129
726	0.129
727	0.128
727	0.128
727	0.127
728	0.126
728	0.126
729	0.127
729	0.127
730	0.127
730	0.127
730	0.127
731	0.127
731	0.127
732	0.127
732	0.126
733	0.125
733	0.125
734	0.124
734	0.123
734	0.123
735	0.123
735	0.122
736	0.122
736	0.121
737	0.121
737	0.122
737	0.122
738	0.121
738	0.119
739	0.118
739	0.117
740	0.116
740	0.115
741	0.115
741	0.113
741	0.11
742	0.108
742	0.107
743	0.106
743	0.106
744	0.106
744	0.105
744	0.105
745	0.104
745	0.103
746	0.103
746	0.103
747	0.103
747	0.104
748	0.104
748	0.103
748	0.102
749	0.101
749	0.101
750	0.1
750	0.1
751	0.1
751	0.1
751	0.101
752	0.101
752	0.1
753	0.1
753	0.101
754	0.101
754	0.101
754	0.102
755	0.103
755	0.104
756	0.103
756	0.101
757	0.1
757	0.1
758	0.099
758	0.098
758	0.098
759	0.097
759	0.094
760	0.092
760	0.09
761	0.089
761	0.088
761	0.088
762	0.086
762	0.086
763	0.086
763	0.084
764	0.082
764	0.081
764	0.079
765	0.077
765	0.076
766	0.074
766	0.074
767	0.072
767	0.069
768	0.065
768	0.063
768	0.062
769	0.061
769	0.061
770	0.059
770	0.058
771	0.056
771	0.054
771	0.052
772	0.05
772	0.048
773	0.046
773	0.043
774	0.04
774	0.037
775	0.034
775	0.03
775	0.027
776	0.023
776	0.019
777	0.015
777	0.012
778	0.008
778	0.004
778	0.001
779	-0.002
779	-0.004
780	-0.009
780	-0.013
781	-0.018
781	-0.024
781	-0.031
782	-0.038
782	-0.046
783	-0.053
783	-0.06
784	-0.069
784	-0.079
784	-0.087
785	-0.096
785	-0.106
786	-0.114
786	-0.119
787	-0.121
787	-0.124
788	-0.13
788	-0.136
788	-0.141
789	-0.147
789	-0.149
790	-0.148
790	-0.149
791	-0.15
791	-0.152
791	-0.154
792	-0.149
792	-0.138
793	-0.132
793	-0.128
794	-0.127
794	-0.129
794	-0.133
795	-0.135
795	-0.136
796	-0.136
796	-0.139
797	-0.148
797	-0.159
797	-0.166
798	-0.171
798	-0.174
799	-0.174
799	-0.173
800	-0.173
800	-0.174
801	-0.177
801	-0.178
801	-0.178
802	-0.179
802	-0.181
803	-0.182
803	-0.182
804	-0.181
804	-0.176
804	-0.169
805	-0.166
805	-0.164
806	-0.161
806	-0.16
807	-0.159
807	-0.159
807	-0.159
808	-0.159
808	-0.16
809	-0.165
809	-0.171
810	-0.174
810	-0.177
810	-0.181
811	-0.184
811	-0.184
812	-0.181
812	-0.177
813	-0.177
813	-0.178
813	-0.179
814	-0.179
814	-0.178
815	-0.175
815	-0.171
816	-0.167
816	-0.164
817	-0.162
817	-0.158
817	-0.15
818	-0.141
818	-0.129
819	-0.116
819	-0.104
820	-0.094
820	-0.083
820	-0.073
821	-0.062
821	-0.052
822	-0.044
822	-0.037
823	-0.03
823	-0.026
823	-0.022
824	-0.017
824	-0.012
825	-0.007
825	-0.002
826	0.002
826	0.004
826	0.006
827	0.009
827	0.012
828	0.014
828	0.016
829	0.018
829	0.019
829	0.02
830	0.021
830	0.022
831	0.024
831	0.026
832	0.026
832	0.027
832	0.028
833	0.029
833	0.031
834	0.032
834	0.033
835	0.035
835	0.036
835	0.038
836	0.04
836	0.041
837	0.043
837	0.044
838	0.045
838	0.046
839	0.047
839	0.047
839	0.047
840	0.047
840	0.048
841	0.048
841	0.049
842	0.05
842	0.051
842	0.052
843	0.053
843	0.053
844	0.054
844	0.055
845	0.056
845	0.056
845	0.057
846	0.056
846	0.056
847	0.055
847	0.055
848	0.054
848	0.053
848	0.052
849	0.052
849	0.051
850	0.05
850	0.049
851	0.049
851	0.049
851	0.049
852	0.049
852	0.05
853	0.05
853	0.05
854	0.051
854	0.051
854	0.051
855	0.051
855	0.05
856	0.049
856	0.049
857	0.049
857	0.049
857	0.048
858	0.048
858	0.048
859	0.047
859	0.047
860	0.047
860	0.047
860	0.047
861	0.047
861	0.047
862	0.047
862	0.047
863	0.047
863	0.047
863	0.047
864	0.047
864	0.047
865	0.048
865	0.048
866	0.048
866	0.049
866	0.05
867	0.051
867	0.052
868	0.054
868	0.055
869	0.057
869	0.057
869	0.057
870	0.058
870	0.058
871	0.058
871	0.057
872	0.056
872	0.055
872	0.054
873	0.053
873	0.052
874	0.051
874	0.051
875	0.05
875	0.05
875	0.051
876	0.051
876	0.051
877	0.052
877	0.052
878	0.052
878	0.052
878	0.052
879	0.052
879	0.051
880	0.051
880	0.05
881	0.049
881	0.048
881	0.048
882	0.047
882	0.046
883	0.045
883	0.044
884	0.044
884	0.044
884	0.044
885	0.044
885	0.044
886	0.045
886	0.046
887	0.046
887	0.047
887	0.048
888	0.048
888	0.048
889	0.049
889	0.049
890	0.049
890	0.049
890	0.048
891	0.048
891	0.047
892	0.047
892	0.046
893	0.046
893	0.045
893	0.045
894	0.045
894	0.044
895	0.043
895	0.042
895	0.041
896	0.04
896	0.04
897	0.039
897	0.038
898	0.038
898	0.038
898	0.038
899	0.039
899	0.039
900	0.04
900	0.041
901	0.043
901	0.044
901	0.045
902	0.047
902	0.048
903	0.049
903	0.049
904	0.05
904	0.05
904	0.051
905	0.051
905	0.051
906	0.052
906	0.052
907	0.052
907	0.052
907	0.052
908	0.051
908	0.051
909	0.051
909	0.05
910	0.049
910	0.049
910	0.048
911	0.048
911	0.048
912	0.048
912	0.048
913	0.048
913	0.048
913	0.049
914	0.049
914	0.049
915	0.049
915	0.048
916	0.047
916	0.047
916	0.045
917	0.044
917	0.043
918	0.042
918	0.041
918	0.041
919	0.04
919	0.04
920	0.041
920	0.041
921	0.042
921	0.042
921	0.042
922	0.043
922	0.044
923	0.045
923	0.045
924	0.046
924	0.046
924	0.045
925	0.045
925	0.044
926	0.044
926	0.043
927	0.042
927	0.041
927	0.04
928	0.039
928	0.037
929	0.036
929	0.035
930	0.034
930	0.033
930	0.033
931	0.032
931	0.032
932	0.031
932	0.031
933	0.031
933	0.031
933	0.031
934	0.031
934	0.03
935	0.03
935	0.03
935	0.029
936	0.029
936	0.028
937	0.028
937	0.028
938	0.027
938	0.027
938	0.027
939	0.027
939	0.027
940	0.028
940	0.028
941	0.029
941	0.03
941	0.03
942	0.031
942	0.032
943	0.033
943	0.033
944	0.033
944	0.034
944	0.034
945	0.034
945	0.035
946	0.035
946	0.034
946	0.034
947	0.033
947	0.032
948	0.032
948	0.031
949	0.03
949	0.03
949	0.029
950	0.029
950	0.029
951	0.028
951	0.028
952	0.027
952	0.028
952	0.028
953	0.028
953	0.028
954	0.027
954	0.027
955	0.027
955	0.026
955	0.026
956	0.026
956	0.026
957	0.026
957	0.025
957	0.024
958	0.024
958	0.024
959	0.024
959	0.023
960	0.023
960	0.022
960	0.021
961	0.02
961	0.019
962	0.018
962	0.017
963	0.017
963	0.016
963	0.016
964	0.016
964	0.016
965	0.017
965	0.018
966	0.018
966	0.019
966	0.02
967	0.021
967	0.021
968	0.021
968	0.021
968	0.021
969	0.021
969	0.021
970	0.02
970	0.019
971	0.019
971	0.018
971	0.018
972	0.018
972	0.018
973	0.018
973	0.017
974	0.017
974	0.017
974	0.017
975	0.017
975	0.018
976	0.017
976	0.017
976	0.016
977	0.015
977	0.014
978	0.012
978	0.011
979	0.01
979	0.009
979	0.009
980	0.008
980	0.007
981	0.006
981	0.006
982	0.006
982	0.007
982	0.007
983	0.007
983	0.008
984	0.008
984	0.008
984	0.008
985	0.008
985	0.008
986	0.008
986	0.008
987	0.008
987	0.009
987	0.01
988	0.011
988	0.012
989	0.014
989	0.015
990	0.017
990	0.019
990	0.021
991	0.023
991	0.025
992	0.027
992	0.028
992	0.029
993	0.03
993	0.031
994	0.031
994	0.03
995	0.03
995	0.029
995	0.028
996	0.027
996	0.026
997	0.024
997	0.024
997	0.023
998	0.022
998	0.021
999	0.02
999	0.02
1000	0.019
1000	0.019
1000	0.019
1001	0.019
1001	0.019
1002	0.019
1002	0.019
1003	0.019
1003	0.019
1003	0.018
1004	0.018
1004	0.018
1005	0.017
1005	0.017
1005	0.016
1006	0.015
1006	0.015
1007	0.014
1007	0.013
1008	0.012
1008	0.012
1008	0.011
1009	0.011
1009	0.011
1010	0.011
1010	0.012
1010	0.012
1011	0.012
1011	0.012
1012	0.012
1012	0.012
1013	0.012
1013	0.011
1013	0.01
1014	0.009
1014	0.008
1015	0.008
1015	0.007
1016	0.006
1016	0.006
1016	0.005
1017	0.005
1017	0.005
1018	0.005
1018	0.005
1018	0.006
1019	0.006
1019	0.007
1020	0.007
1020	0.007
1021	0.008
1021	0.008
1021	0.008
1022	0.008
1022	0.008
1023	0.008
1023	0.008
1023	0.007
1024	0.006
1024	0.005
1025	0.003
1025	0.002
1026	0.001
1026	-0
1026	-0.001
1027	-0.003
1027	-0.003
1028	-0.004
1028	-0.004
1028	-0.004
1029	-0.004
1029	-0.004
1030	-0.004
1030	-0.004
1031	-0.004
1031	-0.003
1031	-0.003
1032	-0.003
1032	-0.003
1033	-0.003
1033	-0.003
1033	-0.003
1034	-0.004
1034	-0.004
1035	-0.005
1035	-0.005
1036	-0.006
1036	-0.006
1036	-0.006
1037	-0.006
1037	-0.006
1038	-0.006
1038	-0.006
1039	-0.006
1039	-0.005
1039	-0.005
1040	-0.005
1040	-0.005
1041	-0.005
1041	-0.004
1041	-0.005
1042	-0.005
1042	-0.005
1043	-0.005
1043	-0.006
1044	-0.006
1044	-0.007
1044	-0.007
1045	-0.007
1045	-0.008
1046	-0.009
1046	-0.009
1046	-0.009
1047	-0.009
1047	-0.009
1048	-0.009
1048	-0.009
1049	-0.01
1049	-0.011
1049	-0.011
1050	-0.012
1050	-0.013
1051	-0.013
1051	-0.014
1051	-0.015
1052	-0.015
1052	-0.016
1053	-0.017
1053	-0.017
1053	-0.017
1054	-0.017
1054	-0.017
1055	-0.017
1055	-0.017
1056	-0.018
1056	-0.018
1056	-0.019
1057	-0.019
1057	-0.02
1058	-0.02
1058	-0.021
1058	-0.021
1059	-0.022
1059	-0.023
1060	-0.023
1060	-0.023
1061	-0.022
1061	-0.021
1061	-0.021
1062	-0.02
1062	-0.02
1063	-0.019
1063	-0.019
1063	-0.018
1064	-0.017
1064	-0.017
1065	-0.017
1065	-0.016
1066	-0.016
1066	-0.016
1066	-0.015
1067	-0.014
1067	-0.014
1068	-0.014
1068	-0.014
1068	-0.014
1069	-0.014
1069	-0.014
1070	-0.015
1070	-0.015
1071	-0.015
1071	-0.015
1071	-0.016
1072	-0.016
1072	-0.015
1073	-0.015
1073	-0.015
1073	-0.015
1074	-0.014
1074	-0.014
1075	-0.014
1075	-0.014
1076	-0.014
1076	-0.014
1076	-0.015
1077	-0.016
1077	-0.016
1078	-0.017
1078	-0.017
1078	-0.016
1079	-0.016
1079	-0.016
1080	-0.016
1080	-0.015
1080	-0.015
1081	-0.015
1081	-0.013
1082	-0.013
1082	-0.013
1083	-0.012
1083	-0.012
1083	-0.012
1084	-0.011
1084	-0.01
1085	-0.01
1085	-0.009
1085	-0.008
1086	-0.007
1086	-0.007
1087	-0.006
1087	-0.005
1088	-0.005
1088	-0.005
1088	-0.004
1089	-0.004
1089	-0.003
1090	-0.003
1090	-0.001
1090	-0.001
1091	0
1091	0.003
1092	0.004
1092	0.007
1092	0.008
1093	0.011
1093	0.014
1094	0.016
1094	0.018
1095	0.019
1095	0.02
1095	0.023
1096	0.024
1096	0.026
1097	0.028
1097	0.029
1097	0.031
1098	0.032
1098	0.034
1099	0.037
1099	0.041
1100	0.045
1100	0.048
1100	0.051
1101	0.055
1101	0.059
1102	0.067
1102	0.073
1102	0.08
1103	0.087
1103	0.096
1104	0.105
1104	0.114
1104	0.125
1105	0.137
1105	0.147
1106	0.156
1106	0.17
1107	0.182
1107	0.202
1107	0.224
1108	0.308
1108	0.438
1109	0.69
1109	-0
1109	-0
1110	-0
1110	-0
1111	-0
1111	-0
