Data from 15c-2a-fridge-noshake_Absorbance__286__06523.txt Node

Date: Wed Jan 17 18:46:54 CET 2024
User: Marek
Spectrometer: MAYP115816
Trigger mode: 0
Integration Time (sec): 2.000000E-1
Scans to average: 10
Electric dark correction enabled: true
Nonlinearity correction enabled: true
Boxcar width: 5
XAxis mode: Wavelengths
Number of Pixels in Spectrum: 2068
>>>>>Begin Spectral Data<<<<<
199	-1.631
199	-1.494
200	-1.337
200	-1.215
201	-1.14
201	-1.094
202	-1.025
202	-0.976
203	-0.931
203	-0.894
204	-0.87
204	-0.848
205	-0.825
205	-0.815
205	-0.814
206	-0.813
206	-0.809
207	-0.807
207	-0.802
208	-0.801
208	-0.801
209	-0.796
209	-0.795
210	-0.794
210	-0.796
211	-0.793
211	-0.793
212	-0.795
212	-0.794
213	-0.794
213	-0.794
213	-0.793
214	-0.793
214	-0.793
215	-0.791
215	-0.79
216	-0.791
216	-0.789
217	-0.783
217	-0.782
218	-0.781
218	-0.777
219	-0.773
219	-0.773
220	-0.77
220	-0.768
221	-0.763
221	-0.761
221	-0.756
222	-0.753
222	-0.749
223	-0.744
223	-0.742
224	-0.737
224	-0.73
225	-0.721
225	-0.714
226	-0.706
226	-0.694
227	-0.682
227	-0.67
228	-0.655
228	-0.637
229	-0.617
229	-0.594
229	-0.568
230	-0.541
230	-0.512
231	-0.479
231	-0.445
232	-0.412
232	-0.375
233	-0.337
233	-0.298
234	-0.261
234	-0.224
235	-0.189
235	-0.155
236	-0.123
236	-0.094
236	-0.065
237	-0.039
237	-0.016
238	0.004
238	0.023
239	0.041
239	0.056
240	0.071
240	0.083
241	0.093
241	0.103
242	0.112
242	0.119
243	0.127
243	0.133
243	0.139
244	0.144
244	0.149
245	0.152
245	0.156
246	0.16
246	0.163
247	0.166
247	0.169
248	0.172
248	0.174
249	0.177
249	0.179
250	0.181
250	0.183
250	0.185
251	0.187
251	0.188
252	0.19
252	0.192
253	0.193
253	0.194
254	0.195
254	0.196
255	0.198
255	0.199
256	0.199
256	0.2
257	0.201
257	0.201
258	0.201
258	0.202
258	0.202
259	0.202
259	0.202
260	0.202
260	0.202
261	0.202
261	0.201
262	0.201
262	0.2
263	0.2
263	0.199
264	0.199
264	0.198
265	0.197
265	0.196
265	0.195
266	0.194
266	0.193
267	0.192
267	0.191
268	0.189
268	0.188
269	0.187
269	0.185
270	0.184
270	0.182
271	0.181
271	0.179
272	0.177
272	0.176
272	0.174
273	0.172
273	0.171
274	0.169
274	0.167
275	0.166
275	0.164
276	0.163
276	0.162
277	0.16
277	0.159
278	0.157
278	0.156
278	0.154
279	0.151
279	0.149
280	0.147
280	0.144
281	0.142
281	0.14
282	0.138
282	0.136
283	0.135
283	0.133
284	0.132
284	0.131
285	0.131
285	0.129
285	0.128
286	0.127
286	0.126
287	0.125
287	0.124
288	0.123
288	0.122
289	0.121
289	0.12
290	0.119
290	0.118
291	0.118
291	0.117
292	0.116
292	0.115
292	0.114
293	0.114
293	0.113
294	0.112
294	0.112
295	0.111
295	0.111
296	0.11
296	0.109
297	0.109
297	0.109
298	0.109
298	0.108
298	0.108
299	0.108
299	0.108
300	0.107
300	0.107
301	0.107
301	0.107
302	0.107
302	0.106
303	0.106
303	0.106
304	0.106
304	0.106
305	0.106
305	0.105
305	0.105
306	0.105
306	0.105
307	0.105
307	0.105
308	0.104
308	0.104
309	0.104
309	0.104
310	0.104
310	0.104
311	0.104
311	0.103
311	0.103
312	0.103
312	0.103
313	0.103
313	0.102
314	0.102
314	0.102
315	0.102
315	0.101
316	0.101
316	0.101
317	0.101
317	0.1
318	0.1
318	0.1
318	0.1
319	0.099
319	0.099
320	0.099
320	0.098
321	0.098
321	0.098
322	0.097
322	0.097
323	0.097
323	0.096
324	0.096
324	0.096
324	0.096
325	0.095
325	0.095
326	0.095
326	0.095
327	0.094
327	0.094
328	0.094
328	0.094
329	0.093
329	0.093
330	0.092
330	0.092
330	0.092
331	0.091
331	0.091
332	0.091
332	0.09
333	0.09
333	0.089
334	0.089
334	0.089
335	0.089
335	0.088
336	0.088
336	0.087
336	0.087
337	0.087
337	0.087
338	0.086
338	0.086
339	0.085
339	0.085
340	0.085
340	0.084
341	0.084
341	0.084
342	0.084
342	0.083
342	0.083
343	0.083
343	0.083
344	0.082
344	0.082
345	0.082
345	0.081
346	0.081
346	0.081
347	0.08
347	0.08
348	0.08
348	0.08
348	0.079
349	0.079
349	0.079
350	0.078
350	0.078
351	0.078
351	0.078
352	0.077
352	0.077
353	0.077
353	0.076
354	0.076
354	0.076
354	0.075
355	0.075
355	0.075
356	0.074
356	0.074
357	0.074
357	0.073
358	0.073
358	0.073
359	0.073
359	0.073
360	0.073
360	0.073
360	0.074
361	0.074
361	0.074
362	0.074
362	0.074
363	0.074
363	0.074
364	0.074
364	0.074
365	0.074
365	0.073
366	0.073
366	0.073
366	0.073
367	0.073
367	0.073
368	0.073
368	0.073
369	0.073
369	0.073
370	0.073
370	0.073
371	0.073
371	0.073
372	0.073
372	0.073
372	0.073
373	0.073
373	0.073
374	0.073
374	0.073
375	0.073
375	0.073
376	0.073
376	0.073
377	0.073
377	0.074
378	0.074
378	0.074
378	0.074
379	0.074
379	0.074
380	0.074
380	0.074
381	0.074
381	0.074
382	0.074
382	0.074
383	0.074
383	0.074
383	0.074
384	0.074
384	0.074
385	0.074
385	0.074
386	0.074
386	0.074
387	0.074
387	0.073
388	0.073
388	0.073
389	0.074
389	0.074
389	0.074
390	0.074
390	0.074
391	0.074
391	0.074
392	0.074
392	0.074
393	0.074
393	0.075
394	0.074
394	0.074
394	0.075
395	0.074
395	0.074
396	0.074
396	0.074
397	0.074
397	0.075
398	0.075
398	0.074
399	0.074
399	0.075
400	0.075
400	0.074
400	0.074
401	0.074
401	0.073
402	0.073
402	0.073
403	0.073
403	0.073
404	0.073
404	0.073
405	0.073
405	0.073
405	0.073
406	0.073
406	0.073
407	0.073
407	0.073
408	0.073
408	0.072
409	0.072
409	0.072
410	0.072
410	0.072
411	0.072
411	0.072
411	0.072
412	0.072
412	0.072
413	0.072
413	0.072
414	0.072
414	0.072
415	0.072
415	0.071
416	0.071
416	0.071
416	0.071
417	0.071
417	0.071
418	0.071
418	0.071
419	0.072
419	0.072
420	0.073
420	0.073
421	0.073
421	0.074
421	0.074
422	0.074
422	0.074
423	0.074
423	0.074
424	0.074
424	0.073
425	0.073
425	0.073
426	0.073
426	0.072
427	0.072
427	0.073
427	0.073
428	0.073
428	0.073
429	0.073
429	0.073
430	0.073
430	0.073
431	0.073
431	0.072
432	0.072
432	0.072
432	0.071
433	0.071
433	0.071
434	0.071
434	0.071
435	0.071
435	0.071
436	0.071
436	0.071
437	0.071
437	0.071
437	0.071
438	0.071
438	0.071
439	0.071
439	0.07
440	0.07
440	0.07
441	0.07
441	0.071
442	0.07
442	0.07
442	0.07
443	0.07
443	0.07
444	0.071
444	0.071
445	0.071
445	0.071
446	0.071
446	0.071
447	0.07
447	0.07
447	0.07
448	0.07
448	0.07
449	0.07
449	0.07
450	0.07
450	0.07
451	0.07
451	0.07
452	0.07
452	0.07
452	0.07
453	0.07
453	0.07
454	0.07
454	0.07
455	0.07
455	0.07
456	0.07
456	0.069
457	0.069
457	0.069
458	0.069
458	0.069
458	0.069
459	0.069
459	0.068
460	0.067
460	0.067
461	0.066
461	0.066
462	0.066
462	0.066
463	0.067
463	0.067
463	0.067
464	0.067
464	0.067
465	0.067
465	0.067
466	0.067
466	0.067
467	0.067
467	0.067
467	0.066
468	0.065
468	0.065
469	0.064
469	0.064
470	0.064
470	0.064
471	0.064
471	0.063
472	0.063
472	0.063
472	0.063
473	0.064
473	0.064
474	0.064
474	0.065
475	0.065
475	0.065
476	0.065
476	0.065
477	0.065
477	0.065
477	0.065
478	0.065
478	0.065
479	0.064
479	0.064
480	0.065
480	0.065
481	0.065
481	0.065
482	0.066
482	0.066
482	0.067
483	0.068
483	0.069
484	0.07
484	0.07
485	0.069
485	0.07
486	0.07
486	0.07
487	0.07
487	0.07
487	0.069
488	0.069
488	0.068
489	0.067
489	0.068
490	0.069
490	0.069
491	0.069
491	0.07
492	0.07
492	0.069
492	0.069
493	0.069
493	0.07
494	0.07
494	0.071
495	0.071
495	0.071
496	0.072
496	0.072
496	0.073
497	0.074
497	0.074
498	0.075
498	0.075
499	0.075
499	0.075
500	0.076
500	0.076
501	0.077
501	0.077
501	0.077
502	0.078
502	0.078
503	0.079
503	0.079
504	0.079
504	0.079
505	0.079
505	0.078
506	0.079
506	0.079
506	0.078
507	0.078
507	0.079
508	0.079
508	0.08
509	0.08
509	0.081
510	0.081
510	0.082
511	0.082
511	0.082
511	0.083
512	0.083
512	0.083
513	0.082
513	0.082
514	0.082
514	0.082
515	0.082
515	0.082
515	0.082
516	0.082
516	0.082
517	0.083
517	0.083
518	0.083
518	0.082
519	0.082
519	0.082
520	0.082
520	0.082
520	0.082
521	0.081
521	0.08
522	0.079
522	0.079
523	0.078
523	0.079
524	0.079
524	0.079
524	0.079
525	0.08
525	0.08
526	0.081
526	0.082
527	0.083
527	0.084
528	0.084
528	0.085
529	0.085
529	0.086
529	0.086
530	0.087
530	0.087
531	0.088
531	0.088
532	0.089
532	0.089
533	0.09
533	0.09
533	0.09
534	0.09
534	0.09
535	0.09
535	0.09
536	0.09
536	0.09
537	0.091
537	0.091
538	0.091
538	0.091
538	0.091
539	0.091
539	0.092
540	0.092
540	0.092
541	0.091
541	0.092
542	0.091
542	0.092
542	0.092
543	0.092
543	0.092
544	0.092
544	0.092
545	0.092
545	0.093
546	0.094
546	0.094
547	0.094
547	0.093
547	0.093
548	0.093
548	0.093
549	0.093
549	0.093
550	0.093
550	0.093
551	0.092
551	0.093
551	0.093
552	0.094
552	0.095
553	0.095
553	0.096
554	0.096
554	0.096
555	0.095
555	0.095
556	0.094
556	0.094
556	0.093
557	0.093
557	0.093
558	0.093
558	0.092
559	0.093
559	0.093
560	0.093
560	0.093
560	0.093
561	0.094
561	0.095
562	0.095
562	0.094
563	0.093
563	0.093
564	0.092
564	0.092
564	0.091
565	0.092
565	0.092
566	0.091
566	0.091
567	0.092
567	0.094
568	0.095
568	0.095
568	0.097
569	0.098
569	0.099
570	0.099
570	0.099
571	0.099
571	0.1
572	0.1
572	0.1
573	0.1
573	0.1
573	0.098
574	0.098
574	0.099
575	0.099
575	0.101
576	0.103
576	0.101
577	0.1
577	0.1
577	0.1
578	0.101
578	0.101
579	0.103
579	0.105
580	0.103
580	0.1
581	0.097
581	0.096
581	0.097
582	0.097
582	0.097
583	0.098
583	0.098
584	0.094
584	0.09
585	0.09
585	0.092
585	0.093
586	0.093
586	0.093
587	0.091
587	0.089
588	0.087
588	0.086
589	0.086
589	0.087
590	0.088
590	0.088
590	0.09
591	0.092
591	0.091
592	0.091
592	0.09
593	0.09
593	0.09
594	0.089
594	0.088
594	0.086
595	0.086
595	0.084
596	0.083
596	0.084
597	0.087
597	0.088
598	0.088
598	0.089
598	0.09
599	0.091
599	0.09
600	0.089
600	0.089
601	0.088
601	0.087
602	0.085
602	0.085
602	0.085
603	0.085
603	0.087
604	0.088
604	0.089
605	0.091
605	0.092
606	0.092
606	0.091
606	0.091
607	0.09
607	0.09
608	0.089
608	0.087
609	0.085
609	0.085
610	0.083
610	0.081
610	0.082
611	0.083
611	0.084
612	0.085
612	0.086
613	0.087
613	0.088
614	0.087
614	0.086
614	0.085
615	0.084
615	0.083
616	0.082
616	0.081
617	0.079
617	0.078
618	0.076
618	0.075
618	0.075
619	0.075
619	0.076
620	0.079
620	0.079
621	0.079
621	0.079
622	0.079
622	0.079
622	0.078
623	0.077
623	0.078
624	0.078
624	0.077
625	0.075
625	0.075
626	0.074
626	0.074
626	0.074
627	0.074
627	0.074
628	0.074
628	0.074
629	0.074
629	0.073
630	0.072
630	0.072
630	0.072
631	0.073
631	0.073
632	0.073
632	0.073
633	0.073
633	0.074
634	0.075
634	0.076
634	0.076
635	0.076
635	0.076
636	0.076
636	0.076
637	0.076
637	0.076
638	0.076
638	0.076
638	0.077
639	0.076
639	0.076
640	0.077
640	0.078
641	0.078
641	0.079
642	0.079
642	0.08
642	0.08
643	0.08
643	0.08
644	0.081
644	0.081
645	0.082
645	0.082
646	0.083
646	0.084
646	0.086
647	0.087
647	0.089
648	0.089
648	0.09
649	0.092
649	0.093
650	0.094
650	0.095
650	0.096
651	0.097
651	0.097
652	0.098
652	0.099
653	0.101
653	0.108
653	0.124
654	0.101
654	0.083
655	0.079
655	0.08
656	0.081
656	0.081
657	0.081
657	0.082
657	0.082
658	0.078
658	0.064
659	0.081
659	0.103
660	0.113
660	0.114
661	0.114
661	0.116
661	0.118
662	0.12
662	0.122
663	0.124
663	0.125
664	0.127
664	0.128
665	0.129
665	0.13
665	0.131
666	0.131
666	0.132
667	0.132
667	0.132
668	0.133
668	0.134
669	0.136
669	0.138
669	0.141
670	0.143
670	0.144
671	0.145
671	0.146
672	0.148
672	0.149
672	0.149
673	0.15
673	0.151
674	0.152
674	0.152
675	0.152
675	0.152
676	0.154
676	0.156
676	0.156
677	0.158
677	0.159
678	0.16
678	0.16
679	0.16
679	0.161
680	0.163
680	0.163
680	0.163
681	0.164
681	0.165
682	0.165
682	0.166
683	0.167
683	0.168
684	0.169
684	0.168
684	0.167
685	0.168
685	0.169
686	0.169
686	0.17
687	0.17
687	0.17
687	0.171
688	0.17
688	0.17
689	0.172
689	0.173
690	0.172
690	0.171
691	0.171
691	0.17
691	0.17
692	0.169
692	0.168
693	0.168
693	0.168
694	0.167
694	0.166
695	0.167
695	0.169
695	0.169
696	0.168
696	0.167
697	0.167
697	0.167
698	0.166
698	0.165
698	0.164
699	0.165
699	0.163
700	0.161
700	0.162
701	0.163
701	0.163
702	0.162
702	0.162
702	0.161
703	0.161
703	0.16
704	0.16
704	0.16
705	0.16
705	0.16
705	0.159
706	0.159
706	0.159
707	0.158
707	0.157
708	0.156
708	0.155
709	0.155
709	0.154
709	0.152
710	0.15
710	0.149
711	0.149
711	0.149
712	0.148
712	0.148
713	0.147
713	0.146
713	0.145
714	0.143
714	0.142
715	0.142
715	0.141
716	0.14
716	0.14
716	0.139
717	0.138
717	0.138
718	0.137
718	0.137
719	0.137
719	0.137
720	0.136
720	0.135
720	0.134
721	0.133
721	0.132
722	0.131
722	0.13
723	0.13
723	0.13
723	0.129
724	0.128
724	0.127
725	0.126
725	0.125
726	0.124
726	0.124
727	0.123
727	0.122
727	0.121
728	0.12
728	0.12
729	0.121
729	0.121
730	0.121
730	0.12
730	0.12
731	0.12
731	0.12
732	0.12
732	0.119
733	0.118
733	0.117
734	0.116
734	0.115
734	0.114
735	0.114
735	0.112
736	0.111
736	0.111
737	0.11
737	0.111
737	0.11
738	0.108
738	0.106
739	0.105
739	0.104
740	0.102
740	0.101
741	0.101
741	0.099
741	0.096
742	0.093
742	0.093
743	0.093
743	0.092
744	0.092
744	0.092
744	0.091
745	0.091
745	0.09
746	0.089
746	0.089
747	0.089
747	0.089
748	0.089
748	0.088
748	0.087
749	0.086
749	0.086
750	0.085
750	0.085
751	0.085
751	0.084
751	0.085
752	0.084
752	0.083
753	0.083
753	0.083
754	0.083
754	0.083
754	0.084
755	0.084
755	0.085
756	0.084
756	0.082
757	0.082
757	0.082
758	0.081
758	0.08
758	0.08
759	0.079
759	0.076
760	0.073
760	0.071
761	0.07
761	0.069
761	0.068
762	0.066
762	0.066
763	0.066
763	0.064
764	0.062
764	0.061
764	0.059
765	0.058
765	0.056
766	0.056
766	0.056
767	0.055
767	0.052
768	0.049
768	0.048
768	0.047
769	0.047
769	0.046
770	0.045
770	0.043
771	0.041
771	0.039
771	0.036
772	0.035
772	0.033
773	0.031
773	0.028
774	0.025
774	0.022
775	0.019
775	0.016
775	0.013
776	0.01
776	0.007
777	0.004
777	0.001
778	-0.002
778	-0.006
778	-0.009
779	-0.01
779	-0.013
780	-0.016
780	-0.021
781	-0.024
781	-0.029
781	-0.035
782	-0.041
782	-0.048
783	-0.054
783	-0.06
784	-0.068
784	-0.076
784	-0.084
785	-0.091
785	-0.099
786	-0.106
786	-0.112
787	-0.114
787	-0.118
788	-0.124
788	-0.131
788	-0.137
789	-0.143
789	-0.146
790	-0.146
790	-0.148
791	-0.15
791	-0.152
791	-0.155
792	-0.149
792	-0.139
793	-0.133
793	-0.129
794	-0.127
794	-0.129
794	-0.134
795	-0.136
795	-0.136
796	-0.137
796	-0.14
797	-0.149
797	-0.16
797	-0.166
798	-0.172
798	-0.174
799	-0.175
799	-0.174
800	-0.173
800	-0.175
801	-0.177
801	-0.178
801	-0.179
802	-0.18
802	-0.181
803	-0.182
803	-0.182
804	-0.181
804	-0.176
804	-0.17
805	-0.166
805	-0.164
806	-0.162
806	-0.161
807	-0.16
807	-0.159
807	-0.159
808	-0.159
808	-0.16
809	-0.165
809	-0.171
810	-0.175
810	-0.178
810	-0.181
811	-0.185
811	-0.185
812	-0.181
812	-0.178
813	-0.178
813	-0.178
813	-0.179
814	-0.179
814	-0.179
815	-0.175
815	-0.172
816	-0.168
816	-0.165
817	-0.163
817	-0.16
817	-0.153
818	-0.144
818	-0.132
819	-0.12
819	-0.11
820	-0.101
820	-0.091
820	-0.081
821	-0.071
821	-0.062
822	-0.055
822	-0.048
823	-0.042
823	-0.038
823	-0.034
824	-0.03
824	-0.025
825	-0.021
825	-0.016
826	-0.013
826	-0.011
826	-0.009
827	-0.006
827	-0.004
828	-0.002
828	-0
829	0.002
829	0.003
829	0.004
830	0.005
830	0.007
831	0.009
831	0.011
832	0.012
832	0.014
832	0.015
833	0.016
833	0.018
834	0.019
834	0.02
835	0.022
835	0.023
835	0.024
836	0.025
836	0.027
837	0.028
837	0.028
838	0.029
838	0.029
839	0.03
839	0.03
839	0.03
840	0.03
840	0.03
841	0.031
841	0.031
842	0.032
842	0.033
842	0.034
843	0.034
843	0.035
844	0.036
844	0.036
845	0.037
845	0.037
845	0.038
846	0.038
846	0.037
847	0.037
847	0.037
848	0.036
848	0.036
848	0.035
849	0.035
849	0.034
850	0.034
850	0.032
851	0.032
851	0.032
851	0.032
852	0.032
852	0.032
853	0.032
853	0.033
854	0.033
854	0.033
854	0.033
855	0.033
855	0.033
856	0.032
856	0.032
857	0.032
857	0.032
857	0.031
858	0.031
858	0.031
859	0.03
859	0.03
860	0.03
860	0.03
860	0.029
861	0.029
861	0.029
862	0.028
862	0.027
863	0.026
863	0.026
863	0.026
864	0.026
864	0.026
865	0.026
865	0.027
866	0.027
866	0.028
866	0.029
867	0.03
867	0.031
868	0.033
868	0.034
869	0.035
869	0.036
869	0.036
870	0.037
870	0.037
871	0.037
871	0.037
872	0.036
872	0.035
872	0.034
873	0.034
873	0.033
874	0.032
874	0.032
875	0.032
875	0.032
875	0.032
876	0.033
876	0.033
877	0.033
877	0.034
878	0.034
878	0.034
878	0.034
879	0.034
879	0.033
880	0.032
880	0.031
881	0.03
881	0.029
881	0.028
882	0.027
882	0.026
883	0.025
883	0.024
884	0.024
884	0.023
884	0.023
885	0.023
885	0.024
886	0.024
886	0.025
887	0.025
887	0.026
887	0.027
888	0.028
888	0.028
889	0.029
889	0.03
890	0.031
890	0.031
890	0.031
891	0.031
891	0.03
892	0.03
892	0.03
893	0.029
893	0.029
893	0.028
894	0.028
894	0.027
895	0.026
895	0.025
895	0.024
896	0.023
896	0.022
897	0.021
897	0.02
898	0.02
898	0.02
898	0.02
899	0.021
899	0.021
900	0.022
900	0.023
901	0.025
901	0.026
901	0.027
902	0.029
902	0.029
903	0.03
903	0.031
904	0.031
904	0.031
904	0.032
905	0.032
905	0.032
906	0.033
906	0.033
907	0.032
907	0.032
907	0.032
908	0.032
908	0.031
909	0.031
909	0.03
910	0.03
910	0.029
910	0.029
911	0.029
911	0.029
912	0.029
912	0.029
913	0.03
913	0.03
913	0.031
914	0.031
914	0.031
915	0.03
915	0.03
916	0.029
916	0.029
916	0.028
917	0.027
917	0.026
918	0.025
918	0.024
918	0.024
919	0.023
919	0.023
920	0.024
920	0.025
921	0.025
921	0.025
921	0.026
922	0.027
922	0.028
923	0.029
923	0.029
924	0.03
924	0.03
924	0.029
925	0.029
925	0.028
926	0.028
926	0.027
927	0.026
927	0.025
927	0.024
928	0.023
928	0.022
929	0.022
929	0.021
930	0.021
930	0.02
930	0.02
931	0.02
931	0.02
932	0.02
932	0.02
933	0.02
933	0.02
933	0.019
934	0.019
934	0.018
935	0.018
935	0.017
935	0.016
936	0.015
936	0.013
937	0.013
937	0.012
938	0.011
938	0.01
938	0.01
939	0.01
939	0.01
940	0.011
940	0.011
941	0.012
941	0.013
941	0.013
942	0.014
942	0.015
943	0.015
943	0.015
944	0.016
944	0.016
944	0.016
945	0.016
945	0.016
946	0.016
946	0.016
946	0.015
947	0.015
947	0.015
948	0.014
948	0.014
949	0.014
949	0.014
949	0.014
950	0.014
950	0.014
951	0.014
951	0.014
952	0.013
952	0.013
952	0.013
953	0.013
953	0.013
954	0.012
954	0.012
955	0.011
955	0.01
955	0.01
956	0.01
956	0.01
957	0.01
957	0.009
957	0.009
958	0.008
958	0.008
959	0.008
959	0.008
960	0.007
960	0.007
960	0.006
961	0.005
961	0.005
962	0.004
962	0.004
963	0.003
963	0.003
963	0.003
964	0.003
964	0.004
965	0.005
965	0.006
966	0.007
966	0.007
966	0.008
967	0.009
967	0.009
968	0.009
968	0.009
968	0.009
969	0.009
969	0.008
970	0.007
970	0.005
971	0.004
971	0.003
971	0.002
972	0.002
972	0.001
973	0.001
973	0
974	-0
974	-0.001
974	-0.001
975	-0.001
975	-0
976	-0
976	-0
976	-0.001
977	-0.002
977	-0.003
978	-0.004
978	-0.005
979	-0.005
979	-0.006
979	-0.007
980	-0.008
980	-0.008
981	-0.009
981	-0.009
982	-0.009
982	-0.009
982	-0.009
983	-0.008
983	-0.008
984	-0.008
984	-0.008
984	-0.007
985	-0.007
985	-0.007
986	-0.007
986	-0.007
987	-0.006
987	-0.006
987	-0.005
988	-0.004
988	-0.003
989	-0.002
989	-0.001
990	0
990	0.002
990	0.004
991	0.006
991	0.007
992	0.009
992	0.01
992	0.011
993	0.012
993	0.012
994	0.012
994	0.013
995	0.012
995	0.012
995	0.011
996	0.01
996	0.009
997	0.008
997	0.007
997	0.006
998	0.006
998	0.005
999	0.005
999	0.005
1000	0.005
1000	0.005
1000	0.004
1001	0.004
1001	0.005
1002	0.005
1002	0.004
1003	0.004
1003	0.004
1003	0.004
1004	0.003
1004	0.003
1005	0.002
1005	0.001
1005	0.001
1006	-0
1006	-0.001
1007	-0.002
1007	-0.003
1008	-0.004
1008	-0.004
1008	-0.005
1009	-0.005
1009	-0.005
1010	-0.005
1010	-0.005
1010	-0.005
1011	-0.005
1011	-0.005
1012	-0.005
1012	-0.006
1013	-0.006
1013	-0.007
1013	-0.008
1014	-0.009
1014	-0.01
1015	-0.01
1015	-0.011
1016	-0.011
1016	-0.012
1016	-0.013
1017	-0.013
1017	-0.013
1018	-0.013
1018	-0.013
1018	-0.013
1019	-0.012
1019	-0.012
1020	-0.012
1020	-0.012
1021	-0.012
1021	-0.012
1021	-0.011
1022	-0.011
1022	-0.011
1023	-0.011
1023	-0.012
1023	-0.012
1024	-0.013
1024	-0.014
1025	-0.015
1025	-0.016
1026	-0.017
1026	-0.018
1026	-0.019
1027	-0.019
1027	-0.02
1028	-0.02
1028	-0.02
1028	-0.02
1029	-0.02
1029	-0.019
1030	-0.019
1030	-0.018
1031	-0.018
1031	-0.017
1031	-0.017
1032	-0.017
1032	-0.016
1033	-0.016
1033	-0.016
1033	-0.017
1034	-0.018
1034	-0.019
1035	-0.019
1035	-0.02
1036	-0.021
1036	-0.022
1036	-0.023
1037	-0.023
1037	-0.023
1038	-0.024
1038	-0.023
1039	-0.023
1039	-0.022
1039	-0.022
1040	-0.021
1040	-0.021
1041	-0.021
1041	-0.02
1041	-0.02
1042	-0.02
1042	-0.02
1043	-0.021
1043	-0.021
1044	-0.021
1044	-0.022
1044	-0.022
1045	-0.023
1045	-0.023
1046	-0.024
1046	-0.024
1046	-0.024
1047	-0.024
1047	-0.024
1048	-0.024
1048	-0.024
1049	-0.024
1049	-0.024
1049	-0.025
1050	-0.025
1050	-0.026
1051	-0.026
1051	-0.027
1051	-0.027
1052	-0.028
1052	-0.029
1053	-0.03
1053	-0.03
1053	-0.03
1054	-0.03
1054	-0.03
1055	-0.03
1055	-0.03
1056	-0.031
1056	-0.031
1056	-0.032
1057	-0.033
1057	-0.033
1058	-0.034
1058	-0.035
1058	-0.035
1059	-0.036
1059	-0.037
1060	-0.038
1060	-0.038
1061	-0.038
1061	-0.037
1061	-0.037
1062	-0.037
1062	-0.036
1063	-0.036
1063	-0.036
1063	-0.035
1064	-0.034
1064	-0.034
1065	-0.033
1065	-0.033
1066	-0.033
1066	-0.032
1066	-0.031
1067	-0.031
1067	-0.03
1068	-0.03
1068	-0.03
1068	-0.03
1069	-0.03
1069	-0.031
1070	-0.031
1070	-0.031
1071	-0.031
1071	-0.031
1071	-0.032
1072	-0.032
1072	-0.032
1073	-0.033
1073	-0.032
1073	-0.032
1074	-0.032
1074	-0.031
1075	-0.032
1075	-0.032
1076	-0.032
1076	-0.032
1076	-0.033
1077	-0.033
1077	-0.033
1078	-0.034
1078	-0.034
1078	-0.034
1079	-0.034
1079	-0.033
1080	-0.034
1080	-0.033
1080	-0.033
1081	-0.033
1081	-0.032
1082	-0.032
1082	-0.032
1083	-0.031
1083	-0.031
1083	-0.031
1084	-0.031
1084	-0.03
1085	-0.03
1085	-0.029
1085	-0.028
1086	-0.028
1086	-0.028
1087	-0.027
1087	-0.027
1088	-0.028
1088	-0.027
1088	-0.027
1089	-0.027
1089	-0.027
1090	-0.027
1090	-0.027
1090	-0.026
1091	-0.026
1091	-0.025
1092	-0.025
1092	-0.022
1092	-0.021
1093	-0.02
1093	-0.017
1094	-0.015
1094	-0.015
1095	-0.014
1095	-0.013
1095	-0.011
1096	-0.009
1096	-0.008
1097	-0.006
1097	-0.005
1097	-0.004
1098	-0.004
1098	-0.003
1099	-0
1099	0.002
1100	0.005
1100	0.007
1100	0.009
1101	0.012
1101	0.013
1102	0.018
1102	0.022
1102	0.027
1103	0.033
1103	0.037
1104	0.043
1104	0.049
1104	0.058
1105	0.065
1105	0.07
1106	0.076
1106	0.085
1107	0.091
1107	0.104
1107	0.117
1108	0.168
1108	0.242
1109	0.352
1109	0.554
1109	0.767
1110	2.08
1110	-0
1111	-0
1111	-0
