Data from 15c-2a-fridge-noshake_Absorbance__688__06925.txt Node

Date: Wed Jan 17 19:00:48 CET 2024
User: Marek
Spectrometer: MAYP115816
Trigger mode: 0
Integration Time (sec): 2.000000E-1
Scans to average: 10
Electric dark correction enabled: true
Nonlinearity correction enabled: true
Boxcar width: 5
XAxis mode: Wavelengths
Number of Pixels in Spectrum: 2068
>>>>>Begin Spectral Data<<<<<
199	-1.575
199	-1.44
200	-1.285
200	-1.165
201	-1.091
201	-1.046
202	-0.979
202	-0.931
203	-0.89
203	-0.853
204	-0.83
204	-0.807
205	-0.785
205	-0.774
205	-0.774
206	-0.773
206	-0.769
207	-0.767
207	-0.763
208	-0.761
208	-0.762
209	-0.757
209	-0.756
210	-0.756
210	-0.757
211	-0.755
211	-0.755
212	-0.757
212	-0.756
213	-0.757
213	-0.755
213	-0.755
214	-0.754
214	-0.753
215	-0.752
215	-0.751
216	-0.752
216	-0.75
217	-0.745
217	-0.743
218	-0.742
218	-0.739
219	-0.736
219	-0.736
220	-0.733
220	-0.731
221	-0.726
221	-0.722
221	-0.718
222	-0.715
222	-0.711
223	-0.706
223	-0.704
224	-0.7
224	-0.692
225	-0.685
225	-0.678
226	-0.67
226	-0.659
227	-0.646
227	-0.635
228	-0.62
228	-0.603
229	-0.583
229	-0.56
229	-0.534
230	-0.507
230	-0.478
231	-0.446
231	-0.413
232	-0.381
232	-0.344
233	-0.307
233	-0.269
234	-0.233
234	-0.198
235	-0.164
235	-0.133
236	-0.103
236	-0.075
236	-0.048
237	-0.024
237	-0.002
238	0.018
238	0.035
239	0.052
239	0.066
240	0.079
240	0.09
241	0.1
241	0.109
242	0.117
242	0.123
243	0.13
243	0.135
243	0.14
244	0.145
244	0.149
245	0.152
245	0.155
246	0.159
246	0.162
247	0.165
247	0.168
248	0.17
248	0.172
249	0.175
249	0.176
250	0.178
250	0.18
250	0.182
251	0.184
251	0.185
252	0.187
252	0.188
253	0.189
253	0.19
254	0.191
254	0.193
255	0.193
255	0.194
256	0.195
256	0.196
257	0.196
257	0.197
258	0.197
258	0.197
258	0.197
259	0.197
259	0.197
260	0.197
260	0.197
261	0.196
261	0.196
262	0.195
262	0.195
263	0.194
263	0.194
264	0.193
264	0.192
265	0.192
265	0.191
265	0.189
266	0.188
266	0.187
267	0.186
267	0.185
268	0.183
268	0.182
269	0.18
269	0.179
270	0.177
270	0.176
271	0.174
271	0.172
272	0.17
272	0.169
272	0.167
273	0.165
273	0.164
274	0.162
274	0.16
275	0.159
275	0.157
276	0.156
276	0.154
277	0.153
277	0.151
278	0.15
278	0.148
278	0.146
279	0.143
279	0.14
280	0.138
280	0.136
281	0.134
281	0.132
282	0.13
282	0.128
283	0.126
283	0.124
284	0.123
284	0.123
285	0.122
285	0.12
285	0.119
286	0.118
286	0.117
287	0.116
287	0.115
288	0.114
288	0.113
289	0.111
289	0.11
290	0.109
290	0.108
291	0.107
291	0.106
292	0.106
292	0.105
292	0.104
293	0.103
293	0.102
294	0.102
294	0.101
295	0.101
295	0.1
296	0.1
296	0.099
297	0.099
297	0.099
298	0.098
298	0.098
298	0.097
299	0.097
299	0.097
300	0.096
300	0.096
301	0.096
301	0.096
302	0.096
302	0.095
303	0.095
303	0.095
304	0.095
304	0.095
305	0.094
305	0.094
305	0.094
306	0.094
306	0.094
307	0.093
307	0.093
308	0.093
308	0.093
309	0.093
309	0.093
310	0.092
310	0.092
311	0.092
311	0.092
311	0.092
312	0.091
312	0.091
313	0.091
313	0.091
314	0.091
314	0.09
315	0.09
315	0.09
316	0.089
316	0.089
317	0.089
317	0.089
318	0.088
318	0.088
318	0.088
319	0.087
319	0.087
320	0.087
320	0.087
321	0.087
321	0.086
322	0.086
322	0.086
323	0.086
323	0.085
324	0.085
324	0.085
324	0.084
325	0.084
325	0.084
326	0.083
326	0.083
327	0.082
327	0.082
328	0.082
328	0.082
329	0.081
329	0.081
330	0.08
330	0.08
330	0.08
331	0.079
331	0.079
332	0.078
332	0.078
333	0.078
333	0.077
334	0.077
334	0.077
335	0.076
335	0.076
336	0.076
336	0.076
336	0.075
337	0.075
337	0.075
338	0.075
338	0.074
339	0.074
339	0.074
340	0.074
340	0.073
341	0.073
341	0.072
342	0.072
342	0.072
342	0.071
343	0.071
343	0.071
344	0.07
344	0.07
345	0.07
345	0.07
346	0.069
346	0.069
347	0.069
347	0.068
348	0.068
348	0.068
348	0.068
349	0.067
349	0.067
350	0.067
350	0.067
351	0.066
351	0.066
352	0.066
352	0.065
353	0.065
353	0.065
354	0.064
354	0.064
354	0.064
355	0.063
355	0.063
356	0.063
356	0.062
357	0.062
357	0.062
358	0.062
358	0.062
359	0.062
359	0.062
360	0.062
360	0.062
360	0.062
361	0.062
361	0.062
362	0.062
362	0.062
363	0.062
363	0.062
364	0.062
364	0.062
365	0.062
365	0.062
366	0.062
366	0.062
366	0.062
367	0.062
367	0.062
368	0.062
368	0.062
369	0.062
369	0.062
370	0.061
370	0.061
371	0.061
371	0.062
372	0.062
372	0.061
372	0.061
373	0.061
373	0.061
374	0.062
374	0.061
375	0.061
375	0.061
376	0.061
376	0.061
377	0.061
377	0.062
378	0.062
378	0.062
378	0.062
379	0.062
379	0.062
380	0.062
380	0.062
381	0.062
381	0.062
382	0.062
382	0.062
383	0.062
383	0.062
383	0.062
384	0.061
384	0.061
385	0.061
385	0.061
386	0.061
386	0.061
387	0.061
387	0.061
388	0.061
388	0.061
389	0.061
389	0.062
389	0.062
390	0.062
390	0.062
391	0.062
391	0.062
392	0.062
392	0.062
393	0.063
393	0.063
394	0.063
394	0.063
394	0.063
395	0.063
395	0.063
396	0.063
396	0.063
397	0.063
397	0.063
398	0.063
398	0.063
399	0.062
399	0.062
400	0.062
400	0.062
400	0.062
401	0.062
401	0.062
402	0.061
402	0.061
403	0.061
403	0.061
404	0.062
404	0.061
405	0.061
405	0.061
405	0.061
406	0.061
406	0.061
407	0.061
407	0.061
408	0.061
408	0.06
409	0.06
409	0.06
410	0.06
410	0.06
411	0.06
411	0.06
411	0.06
412	0.06
412	0.06
413	0.06
413	0.06
414	0.06
414	0.06
415	0.06
415	0.06
416	0.059
416	0.059
416	0.059
417	0.059
417	0.059
418	0.059
418	0.059
419	0.059
419	0.06
420	0.06
420	0.061
421	0.061
421	0.061
421	0.061
422	0.062
422	0.062
423	0.062
423	0.062
424	0.061
424	0.061
425	0.061
425	0.061
426	0.061
426	0.061
427	0.061
427	0.061
427	0.061
428	0.061
428	0.061
429	0.061
429	0.061
430	0.06
430	0.06
431	0.06
431	0.06
432	0.06
432	0.06
432	0.059
433	0.059
433	0.059
434	0.059
434	0.059
435	0.059
435	0.059
436	0.059
436	0.059
437	0.059
437	0.059
437	0.059
438	0.059
438	0.059
439	0.059
439	0.059
440	0.058
440	0.059
441	0.059
441	0.059
442	0.059
442	0.059
442	0.059
443	0.059
443	0.059
444	0.059
444	0.059
445	0.059
445	0.059
446	0.059
446	0.059
447	0.059
447	0.059
447	0.058
448	0.058
448	0.058
449	0.058
449	0.058
450	0.058
450	0.058
451	0.058
451	0.058
452	0.058
452	0.058
452	0.058
453	0.058
453	0.058
454	0.058
454	0.058
455	0.058
455	0.058
456	0.058
456	0.058
457	0.057
457	0.057
458	0.057
458	0.057
458	0.057
459	0.057
459	0.057
460	0.056
460	0.055
461	0.055
461	0.055
462	0.055
462	0.055
463	0.056
463	0.056
463	0.056
464	0.056
464	0.056
465	0.056
465	0.056
466	0.056
466	0.056
467	0.056
467	0.056
467	0.055
468	0.054
468	0.054
469	0.054
469	0.054
470	0.054
470	0.053
471	0.053
471	0.053
472	0.052
472	0.052
472	0.053
473	0.053
473	0.053
474	0.053
474	0.054
475	0.054
475	0.054
476	0.054
476	0.054
477	0.054
477	0.054
477	0.054
478	0.054
478	0.054
479	0.054
479	0.054
480	0.054
480	0.054
481	0.054
481	0.054
482	0.055
482	0.055
482	0.056
483	0.057
483	0.058
484	0.059
484	0.059
485	0.059
485	0.059
486	0.059
486	0.058
487	0.058
487	0.058
487	0.058
488	0.057
488	0.056
489	0.056
489	0.057
490	0.057
490	0.057
491	0.057
491	0.058
492	0.058
492	0.058
492	0.058
493	0.058
493	0.059
494	0.06
494	0.06
495	0.061
495	0.061
496	0.062
496	0.062
496	0.063
497	0.063
497	0.063
498	0.064
498	0.064
499	0.064
499	0.064
500	0.064
500	0.065
501	0.065
501	0.065
501	0.066
502	0.066
502	0.067
503	0.067
503	0.067
504	0.067
504	0.067
505	0.067
505	0.066
506	0.067
506	0.067
506	0.067
507	0.067
507	0.067
508	0.067
508	0.067
509	0.068
509	0.069
510	0.069
510	0.07
511	0.07
511	0.07
511	0.07
512	0.071
512	0.071
513	0.07
513	0.07
514	0.07
514	0.07
515	0.07
515	0.069
515	0.069
516	0.069
516	0.069
517	0.07
517	0.07
518	0.07
518	0.069
519	0.069
519	0.069
520	0.068
520	0.068
520	0.068
521	0.067
521	0.066
522	0.065
522	0.065
523	0.065
523	0.065
524	0.065
524	0.066
524	0.066
525	0.067
525	0.067
526	0.068
526	0.069
527	0.07
527	0.07
528	0.07
528	0.071
529	0.071
529	0.071
529	0.071
530	0.071
530	0.071
531	0.071
531	0.072
532	0.071
532	0.072
533	0.072
533	0.072
533	0.072
534	0.072
534	0.072
535	0.072
535	0.073
536	0.073
536	0.073
537	0.073
537	0.073
538	0.073
538	0.073
538	0.073
539	0.073
539	0.074
540	0.074
540	0.073
541	0.073
541	0.073
542	0.073
542	0.073
542	0.073
543	0.073
543	0.073
544	0.072
544	0.072
545	0.073
545	0.074
546	0.074
546	0.074
547	0.074
547	0.073
547	0.072
548	0.072
548	0.072
549	0.072
549	0.073
550	0.072
550	0.072
551	0.071
551	0.072
551	0.073
552	0.073
552	0.074
553	0.074
553	0.075
554	0.075
554	0.075
555	0.074
555	0.073
556	0.073
556	0.072
556	0.072
557	0.071
557	0.071
558	0.07
558	0.07
559	0.07
559	0.07
560	0.07
560	0.07
560	0.071
561	0.072
561	0.073
562	0.073
562	0.072
563	0.071
563	0.07
564	0.07
564	0.07
564	0.069
565	0.069
565	0.069
566	0.069
566	0.069
567	0.069
567	0.07
568	0.071
568	0.072
568	0.073
569	0.074
569	0.075
570	0.075
570	0.074
571	0.074
571	0.075
572	0.075
572	0.075
573	0.075
573	0.075
573	0.074
574	0.074
574	0.074
575	0.075
575	0.077
576	0.078
576	0.077
577	0.075
577	0.075
577	0.076
578	0.076
578	0.077
579	0.079
579	0.08
580	0.078
580	0.075
581	0.073
581	0.072
581	0.072
582	0.073
582	0.073
583	0.074
583	0.073
584	0.07
584	0.066
585	0.067
585	0.068
585	0.069
586	0.069
586	0.069
587	0.067
587	0.065
588	0.063
588	0.062
589	0.063
589	0.063
590	0.064
590	0.064
590	0.067
591	0.068
591	0.068
592	0.068
592	0.067
593	0.067
593	0.067
594	0.066
594	0.065
594	0.064
595	0.064
595	0.062
596	0.061
596	0.063
597	0.066
597	0.067
598	0.067
598	0.068
598	0.069
599	0.069
599	0.069
600	0.068
600	0.067
601	0.067
601	0.066
602	0.064
602	0.064
602	0.064
603	0.064
603	0.066
604	0.067
604	0.069
605	0.07
605	0.072
606	0.072
606	0.071
606	0.071
607	0.07
607	0.07
608	0.069
608	0.067
609	0.066
609	0.066
610	0.064
610	0.063
610	0.063
611	0.064
611	0.066
612	0.067
612	0.069
613	0.07
613	0.071
614	0.07
614	0.069
614	0.069
615	0.068
615	0.067
616	0.067
616	0.065
617	0.064
617	0.063
618	0.061
618	0.061
618	0.06
619	0.061
619	0.062
620	0.064
620	0.064
621	0.064
621	0.064
622	0.064
622	0.064
622	0.063
623	0.062
623	0.063
624	0.063
624	0.062
625	0.061
625	0.061
626	0.061
626	0.061
626	0.062
627	0.062
627	0.062
628	0.063
628	0.063
629	0.063
629	0.063
630	0.063
630	0.062
630	0.063
631	0.064
631	0.064
632	0.063
632	0.064
633	0.064
633	0.065
634	0.066
634	0.068
634	0.069
635	0.069
635	0.069
636	0.07
636	0.07
637	0.071
637	0.071
638	0.071
638	0.072
638	0.072
639	0.072
639	0.072
640	0.073
640	0.073
641	0.074
641	0.074
642	0.075
642	0.076
642	0.076
643	0.077
643	0.077
644	0.078
644	0.079
645	0.08
645	0.081
646	0.082
646	0.084
646	0.086
647	0.087
647	0.089
648	0.091
648	0.092
649	0.094
649	0.095
650	0.097
650	0.098
650	0.099
651	0.1
651	0.101
652	0.102
652	0.103
653	0.105
653	0.112
653	0.126
654	0.103
654	0.085
655	0.081
655	0.082
656	0.083
656	0.084
657	0.084
657	0.085
657	0.085
658	0.081
658	0.069
659	0.086
659	0.111
660	0.12
660	0.121
661	0.122
661	0.124
661	0.126
662	0.129
662	0.131
663	0.134
663	0.136
664	0.138
664	0.139
665	0.141
665	0.143
665	0.144
666	0.145
666	0.146
667	0.146
667	0.147
668	0.148
668	0.149
669	0.15
669	0.152
669	0.155
670	0.157
670	0.158
671	0.159
671	0.16
672	0.162
672	0.164
672	0.165
673	0.166
673	0.168
674	0.168
674	0.168
675	0.169
675	0.17
676	0.172
676	0.173
676	0.173
677	0.174
677	0.175
678	0.175
678	0.175
679	0.176
679	0.177
680	0.178
680	0.179
680	0.179
681	0.179
681	0.18
682	0.18
682	0.181
683	0.182
683	0.184
684	0.185
684	0.184
684	0.183
685	0.183
685	0.184
686	0.185
686	0.185
687	0.185
687	0.185
687	0.185
688	0.185
688	0.184
689	0.186
689	0.187
690	0.186
690	0.185
691	0.185
691	0.185
691	0.184
692	0.183
692	0.183
693	0.183
693	0.183
694	0.182
694	0.181
695	0.182
695	0.184
695	0.184
696	0.182
696	0.181
697	0.181
697	0.18
698	0.179
698	0.177
698	0.176
699	0.176
699	0.174
700	0.172
700	0.171
701	0.172
701	0.171
702	0.171
702	0.17
702	0.17
703	0.169
703	0.168
704	0.168
704	0.168
705	0.168
705	0.167
705	0.166
706	0.165
706	0.165
707	0.164
707	0.162
708	0.161
708	0.161
709	0.16
709	0.159
709	0.157
710	0.155
710	0.155
711	0.154
711	0.154
712	0.153
712	0.152
713	0.151
713	0.15
713	0.148
714	0.146
714	0.145
715	0.144
715	0.143
716	0.141
716	0.14
716	0.139
717	0.138
717	0.138
718	0.136
718	0.135
719	0.135
719	0.134
720	0.133
720	0.132
720	0.13
721	0.128
721	0.127
722	0.126
722	0.124
723	0.124
723	0.123
723	0.122
724	0.121
724	0.12
725	0.119
725	0.118
726	0.117
726	0.117
727	0.116
727	0.116
727	0.115
728	0.114
728	0.114
729	0.115
729	0.114
730	0.114
730	0.113
730	0.112
731	0.112
731	0.111
732	0.11
732	0.109
733	0.107
733	0.106
734	0.104
734	0.102
734	0.101
735	0.101
735	0.1
736	0.099
736	0.098
737	0.097
737	0.098
737	0.097
738	0.095
738	0.094
739	0.093
739	0.092
740	0.09
740	0.089
741	0.088
741	0.086
741	0.084
742	0.082
742	0.081
743	0.081
743	0.08
744	0.08
744	0.079
744	0.079
745	0.078
745	0.076
746	0.076
746	0.075
747	0.074
747	0.074
748	0.074
748	0.073
748	0.071
749	0.07
749	0.069
750	0.068
750	0.068
751	0.068
751	0.067
751	0.068
752	0.067
752	0.066
753	0.066
753	0.066
754	0.066
754	0.065
754	0.066
755	0.067
755	0.067
756	0.066
756	0.064
757	0.064
757	0.064
758	0.063
758	0.062
758	0.061
759	0.06
759	0.057
760	0.055
760	0.052
761	0.051
761	0.05
761	0.049
762	0.048
762	0.048
763	0.047
763	0.045
764	0.043
764	0.042
764	0.041
765	0.039
765	0.038
766	0.038
766	0.038
767	0.037
767	0.035
768	0.033
768	0.033
768	0.032
769	0.032
769	0.032
770	0.031
770	0.029
771	0.027
771	0.025
771	0.023
772	0.021
772	0.019
773	0.017
773	0.015
774	0.012
774	0.01
775	0.008
775	0.005
775	0.002
776	-0.001
776	-0.004
777	-0.007
777	-0.009
778	-0.012
778	-0.016
778	-0.018
779	-0.02
779	-0.022
780	-0.026
780	-0.029
781	-0.032
781	-0.036
781	-0.04
782	-0.045
782	-0.051
783	-0.056
783	-0.062
784	-0.069
784	-0.076
784	-0.082
785	-0.089
785	-0.096
786	-0.102
786	-0.107
787	-0.11
787	-0.114
788	-0.12
788	-0.127
788	-0.134
789	-0.14
789	-0.143
790	-0.144
790	-0.147
791	-0.15
791	-0.153
791	-0.155
792	-0.15
792	-0.139
793	-0.133
793	-0.129
794	-0.128
794	-0.13
794	-0.134
795	-0.136
795	-0.137
796	-0.137
796	-0.14
797	-0.149
797	-0.16
797	-0.167
798	-0.172
798	-0.175
799	-0.175
799	-0.174
800	-0.174
800	-0.175
801	-0.178
801	-0.179
801	-0.179
802	-0.18
802	-0.182
803	-0.182
803	-0.183
804	-0.182
804	-0.177
804	-0.17
805	-0.167
805	-0.164
806	-0.162
806	-0.161
807	-0.16
807	-0.159
807	-0.159
808	-0.159
808	-0.161
809	-0.166
809	-0.171
810	-0.175
810	-0.178
810	-0.182
811	-0.185
811	-0.185
812	-0.182
812	-0.178
813	-0.178
813	-0.179
813	-0.179
814	-0.18
814	-0.179
815	-0.176
815	-0.172
816	-0.168
816	-0.165
817	-0.164
817	-0.16
817	-0.153
818	-0.145
818	-0.134
819	-0.122
819	-0.112
820	-0.104
820	-0.095
820	-0.085
821	-0.076
821	-0.068
822	-0.061
822	-0.055
823	-0.049
823	-0.045
823	-0.042
824	-0.038
824	-0.034
825	-0.03
825	-0.026
826	-0.024
826	-0.023
826	-0.021
827	-0.019
827	-0.018
828	-0.016
828	-0.016
829	-0.014
829	-0.013
829	-0.012
830	-0.012
830	-0.011
831	-0.009
831	-0.007
832	-0.006
832	-0.005
832	-0.003
833	-0.002
833	-0.001
834	0.001
834	0.002
835	0.004
835	0.005
835	0.006
836	0.008
836	0.009
837	0.01
837	0.011
838	0.011
838	0.012
839	0.013
839	0.014
839	0.014
840	0.015
840	0.015
841	0.016
841	0.016
842	0.017
842	0.017
842	0.017
843	0.018
843	0.018
844	0.018
844	0.018
845	0.018
845	0.019
845	0.019
846	0.019
846	0.019
847	0.019
847	0.019
848	0.019
848	0.019
848	0.018
849	0.018
849	0.017
850	0.016
850	0.015
851	0.014
851	0.014
851	0.013
852	0.012
852	0.013
853	0.013
853	0.013
854	0.013
854	0.013
854	0.012
855	0.012
855	0.011
856	0.011
856	0.011
857	0.01
857	0.01
857	0.009
858	0.009
858	0.009
859	0.008
859	0.008
860	0.008
860	0.008
860	0.008
861	0.008
861	0.008
862	0.007
862	0.007
863	0.006
863	0.006
863	0.006
864	0.006
864	0.007
865	0.007
865	0.008
866	0.008
866	0.008
866	0.009
867	0.01
867	0.012
868	0.013
868	0.015
869	0.016
869	0.017
869	0.018
870	0.018
870	0.019
871	0.019
871	0.019
872	0.018
872	0.017
872	0.016
873	0.015
873	0.014
874	0.013
874	0.013
875	0.013
875	0.012
875	0.013
876	0.013
876	0.013
877	0.014
877	0.015
878	0.015
878	0.015
878	0.016
879	0.016
879	0.015
880	0.015
880	0.014
881	0.013
881	0.013
881	0.012
882	0.01
882	0.009
883	0.008
883	0.007
884	0.006
884	0.005
884	0.005
885	0.005
885	0.005
886	0.005
886	0.006
887	0.007
887	0.008
887	0.009
888	0.01
888	0.011
889	0.013
889	0.014
890	0.015
890	0.015
890	0.016
891	0.016
891	0.015
892	0.015
892	0.015
893	0.014
893	0.014
893	0.013
894	0.012
894	0.011
895	0.01
895	0.009
895	0.007
896	0.006
896	0.005
897	0.005
897	0.005
898	0.005
898	0.005
898	0.005
899	0.006
899	0.007
900	0.008
900	0.009
901	0.01
901	0.012
901	0.013
902	0.014
902	0.015
903	0.016
903	0.016
904	0.016
904	0.016
904	0.016
905	0.016
905	0.016
906	0.015
906	0.015
907	0.014
907	0.013
907	0.013
908	0.012
908	0.011
909	0.011
909	0.01
910	0.01
910	0.01
910	0.01
911	0.01
911	0.01
912	0.011
912	0.012
913	0.013
913	0.014
913	0.014
914	0.015
914	0.015
915	0.015
915	0.014
916	0.014
916	0.013
916	0.012
917	0.011
917	0.01
918	0.009
918	0.008
918	0.007
919	0.007
919	0.007
920	0.007
920	0.007
921	0.007
921	0.008
921	0.008
922	0.009
922	0.01
923	0.011
923	0.011
924	0.012
924	0.012
924	0.011
925	0.011
925	0.011
926	0.01
926	0.009
927	0.009
927	0.008
927	0.007
928	0.006
928	0.006
929	0.005
929	0.004
930	0.004
930	0.003
930	0.003
931	0.002
931	0.002
932	0.002
932	0.002
933	0.001
933	0.001
933	0.001
934	0.001
934	0
935	-0
935	-0.001
935	-0.001
936	-0.002
936	-0.002
937	-0.003
937	-0.003
938	-0.004
938	-0.004
938	-0.005
939	-0.005
939	-0.005
940	-0.005
940	-0.005
941	-0.004
941	-0.004
941	-0.003
942	-0.002
942	-0.001
943	-0.001
943	-0
944	0
944	0.001
944	0.001
945	0.002
945	0.002
946	0.003
946	0.002
946	0.002
947	0.002
947	0.001
948	0
948	-0
949	-0.001
949	-0.001
949	-0.002
950	-0.003
950	-0.003
951	-0.004
951	-0.005
952	-0.005
952	-0.006
952	-0.006
953	-0.006
953	-0.007
954	-0.008
954	-0.008
955	-0.008
955	-0.009
955	-0.009
956	-0.008
956	-0.008
957	-0.008
957	-0.008
957	-0.008
958	-0.008
958	-0.008
959	-0.008
959	-0.008
960	-0.008
960	-0.009
960	-0.01
961	-0.011
961	-0.011
962	-0.012
962	-0.012
963	-0.012
963	-0.012
963	-0.012
964	-0.012
964	-0.011
965	-0.011
965	-0.01
966	-0.009
966	-0.008
966	-0.007
967	-0.006
967	-0.006
968	-0.006
968	-0.006
968	-0.006
969	-0.006
969	-0.007
970	-0.007
970	-0.008
971	-0.009
971	-0.009
971	-0.01
972	-0.01
972	-0.01
973	-0.011
973	-0.011
974	-0.011
974	-0.011
974	-0.011
975	-0.011
975	-0.011
976	-0.011
976	-0.01
976	-0.011
977	-0.011
977	-0.012
978	-0.013
978	-0.013
979	-0.014
979	-0.014
979	-0.015
980	-0.016
980	-0.017
981	-0.018
981	-0.019
982	-0.019
982	-0.019
982	-0.02
983	-0.02
983	-0.02
984	-0.02
984	-0.02
984	-0.02
985	-0.019
985	-0.019
986	-0.018
986	-0.018
987	-0.017
987	-0.016
987	-0.015
988	-0.014
988	-0.013
989	-0.012
989	-0.012
990	-0.01
990	-0.009
990	-0.008
991	-0.007
991	-0.006
992	-0.004
992	-0.004
992	-0.003
993	-0.003
993	-0.003
994	-0.003
994	-0.003
995	-0.003
995	-0.004
995	-0.004
996	-0.005
996	-0.006
997	-0.007
997	-0.007
997	-0.008
998	-0.008
998	-0.008
999	-0.008
999	-0.008
1000	-0.008
1000	-0.008
1000	-0.008
1001	-0.009
1001	-0.008
1002	-0.009
1002	-0.009
1003	-0.009
1003	-0.009
1003	-0.01
1004	-0.01
1004	-0.011
1005	-0.012
1005	-0.012
1005	-0.013
1006	-0.014
1006	-0.015
1007	-0.015
1007	-0.016
1008	-0.017
1008	-0.018
1008	-0.018
1009	-0.018
1009	-0.019
1010	-0.019
1010	-0.019
1010	-0.019
1011	-0.019
1011	-0.02
1012	-0.019
1012	-0.02
1013	-0.02
1013	-0.02
1013	-0.021
1014	-0.021
1014	-0.022
1015	-0.022
1015	-0.022
1016	-0.022
1016	-0.023
1016	-0.023
1017	-0.024
1017	-0.024
1018	-0.023
1018	-0.023
1018	-0.023
1019	-0.022
1019	-0.022
1020	-0.022
1020	-0.022
1021	-0.021
1021	-0.021
1021	-0.021
1022	-0.021
1022	-0.021
1023	-0.021
1023	-0.021
1023	-0.022
1024	-0.023
1024	-0.024
1025	-0.025
1025	-0.026
1026	-0.027
1026	-0.028
1026	-0.029
1027	-0.03
1027	-0.031
1028	-0.032
1028	-0.032
1028	-0.032
1029	-0.033
1029	-0.033
1030	-0.033
1030	-0.033
1031	-0.033
1031	-0.032
1031	-0.032
1032	-0.032
1032	-0.032
1033	-0.032
1033	-0.032
1033	-0.032
1034	-0.033
1034	-0.033
1035	-0.034
1035	-0.034
1036	-0.035
1036	-0.035
1036	-0.035
1037	-0.035
1037	-0.035
1038	-0.035
1038	-0.035
1039	-0.034
1039	-0.033
1039	-0.033
1040	-0.032
1040	-0.032
1041	-0.031
1041	-0.031
1041	-0.031
1042	-0.032
1042	-0.032
1043	-0.033
1043	-0.033
1044	-0.034
1044	-0.034
1044	-0.035
1045	-0.036
1045	-0.036
1046	-0.037
1046	-0.038
1046	-0.038
1047	-0.037
1047	-0.037
1048	-0.036
1048	-0.036
1049	-0.037
1049	-0.037
1049	-0.038
1050	-0.038
1050	-0.039
1051	-0.039
1051	-0.04
1051	-0.04
1052	-0.041
1052	-0.042
1053	-0.043
1053	-0.043
1053	-0.043
1054	-0.044
1054	-0.043
1055	-0.043
1055	-0.043
1056	-0.044
1056	-0.044
1056	-0.045
1057	-0.046
1057	-0.046
1058	-0.046
1058	-0.047
1058	-0.047
1059	-0.048
1059	-0.048
1060	-0.048
1060	-0.048
1061	-0.047
1061	-0.047
1061	-0.046
1062	-0.046
1062	-0.046
1063	-0.045
1063	-0.045
1063	-0.044
1064	-0.044
1064	-0.043
1065	-0.042
1065	-0.042
1066	-0.042
1066	-0.042
1066	-0.041
1067	-0.041
1067	-0.04
1068	-0.04
1068	-0.04
1068	-0.04
1069	-0.04
1069	-0.041
1070	-0.041
1070	-0.042
1071	-0.042
1071	-0.042
1071	-0.043
1072	-0.043
1072	-0.043
1073	-0.043
1073	-0.043
1073	-0.044
1074	-0.043
1074	-0.043
1075	-0.044
1075	-0.045
1076	-0.046
1076	-0.046
1076	-0.047
1077	-0.048
1077	-0.049
1078	-0.049
1078	-0.049
1078	-0.049
1079	-0.049
1079	-0.049
1080	-0.049
1080	-0.048
1080	-0.048
1081	-0.047
1081	-0.047
1082	-0.046
1082	-0.046
1083	-0.046
1083	-0.047
1083	-0.046
1084	-0.046
1084	-0.046
1085	-0.046
1085	-0.045
1085	-0.045
1086	-0.045
1086	-0.045
1087	-0.045
1087	-0.044
1088	-0.045
1088	-0.045
1088	-0.045
1089	-0.046
1089	-0.046
1090	-0.047
1090	-0.047
1090	-0.047
1091	-0.047
1091	-0.046
1092	-0.046
1092	-0.043
1092	-0.043
1093	-0.042
1093	-0.039
1094	-0.038
1094	-0.036
1095	-0.036
1095	-0.036
1095	-0.034
1096	-0.033
1096	-0.032
1097	-0.031
1097	-0.03
1097	-0.029
1098	-0.03
1098	-0.03
1099	-0.029
1099	-0.027
1100	-0.025
1100	-0.025
1100	-0.023
1101	-0.022
1101	-0.02
1102	-0.017
1102	-0.015
1102	-0.011
1103	-0.008
1103	-0.004
1104	-0
1104	0.005
1104	0.012
1105	0.016
1105	0.021
1106	0.023
1106	0.03
1107	0.033
1107	0.043
1107	0.052
1108	0.089
1108	0.139
1109	0.209
1109	0.321
1109	0.411
1110	0.613
1110	1.445
1111	-0
1111	-0
