Data from 15c-2a-fridge-noshake_Absorbance__15__06252.txt Node

Date: Wed Jan 17 18:37:52 CET 2024
User: Marek
Spectrometer: MAYP115816
Trigger mode: 0
Integration Time (sec): 2.000000E-1
Scans to average: 10
Electric dark correction enabled: true
Nonlinearity correction enabled: true
Boxcar width: 5
XAxis mode: Wavelengths
Number of Pixels in Spectrum: 2068
>>>>>Begin Spectral Data<<<<<
199	-1.734
199	-1.592
200	-1.432
200	-1.309
201	-1.233
201	-1.185
202	-1.114
202	-1.062
203	-1.014
203	-0.974
204	-0.95
204	-0.927
205	-0.905
205	-0.895
205	-0.894
206	-0.892
206	-0.889
207	-0.886
207	-0.882
208	-0.881
208	-0.881
209	-0.876
209	-0.874
210	-0.873
210	-0.874
211	-0.871
211	-0.871
212	-0.872
212	-0.871
213	-0.87
213	-0.869
213	-0.869
214	-0.868
214	-0.867
215	-0.866
215	-0.865
216	-0.866
216	-0.863
217	-0.858
217	-0.857
218	-0.856
218	-0.852
219	-0.849
219	-0.848
220	-0.845
220	-0.842
221	-0.838
221	-0.834
221	-0.831
222	-0.827
222	-0.823
223	-0.817
223	-0.814
224	-0.809
224	-0.802
225	-0.793
225	-0.786
226	-0.777
226	-0.765
227	-0.752
227	-0.74
228	-0.724
228	-0.706
229	-0.686
229	-0.663
229	-0.637
230	-0.609
230	-0.579
231	-0.546
231	-0.511
232	-0.476
232	-0.438
233	-0.398
233	-0.358
234	-0.318
234	-0.279
235	-0.243
235	-0.206
236	-0.172
236	-0.139
236	-0.109
237	-0.081
237	-0.055
238	-0.032
238	-0.01
239	0.01
239	0.028
240	0.044
240	0.058
241	0.07
241	0.082
242	0.092
242	0.101
243	0.11
243	0.117
243	0.123
244	0.129
244	0.135
245	0.139
245	0.144
246	0.149
246	0.153
247	0.156
247	0.159
248	0.162
248	0.165
249	0.168
249	0.17
250	0.173
250	0.175
250	0.177
251	0.179
251	0.181
252	0.183
252	0.185
253	0.186
253	0.187
254	0.189
254	0.19
255	0.191
255	0.192
256	0.193
256	0.194
257	0.195
257	0.195
258	0.196
258	0.196
258	0.197
259	0.197
259	0.197
260	0.197
260	0.197
261	0.196
261	0.196
262	0.196
262	0.195
263	0.195
263	0.194
264	0.194
264	0.193
265	0.193
265	0.192
265	0.191
266	0.19
266	0.189
267	0.188
267	0.187
268	0.186
268	0.185
269	0.183
269	0.182
270	0.181
270	0.179
271	0.178
271	0.176
272	0.175
272	0.173
272	0.172
273	0.17
273	0.169
274	0.168
274	0.166
275	0.165
275	0.163
276	0.162
276	0.161
277	0.16
277	0.158
278	0.157
278	0.156
278	0.154
279	0.151
279	0.149
280	0.147
280	0.145
281	0.143
281	0.142
282	0.14
282	0.138
283	0.137
283	0.135
284	0.134
284	0.134
285	0.133
285	0.132
285	0.131
286	0.13
286	0.129
287	0.128
287	0.128
288	0.127
288	0.126
289	0.125
289	0.124
290	0.123
290	0.122
291	0.121
291	0.121
292	0.12
292	0.119
292	0.118
293	0.118
293	0.117
294	0.117
294	0.116
295	0.116
295	0.116
296	0.115
296	0.115
297	0.115
297	0.114
298	0.114
298	0.114
298	0.113
299	0.113
299	0.113
300	0.113
300	0.113
301	0.113
301	0.112
302	0.112
302	0.112
303	0.112
303	0.112
304	0.111
304	0.111
305	0.111
305	0.111
305	0.111
306	0.111
306	0.111
307	0.111
307	0.11
308	0.11
308	0.11
309	0.11
309	0.11
310	0.11
310	0.11
311	0.11
311	0.11
311	0.109
312	0.109
312	0.109
313	0.109
313	0.108
314	0.108
314	0.108
315	0.108
315	0.108
316	0.107
316	0.107
317	0.107
317	0.107
318	0.107
318	0.106
318	0.106
319	0.106
319	0.106
320	0.106
320	0.105
321	0.105
321	0.105
322	0.104
322	0.104
323	0.104
323	0.103
324	0.103
324	0.103
324	0.103
325	0.102
325	0.102
326	0.102
326	0.102
327	0.101
327	0.101
328	0.101
328	0.1
329	0.1
329	0.1
330	0.099
330	0.099
330	0.099
331	0.098
331	0.098
332	0.098
332	0.097
333	0.097
333	0.097
334	0.096
334	0.096
335	0.096
335	0.095
336	0.095
336	0.095
336	0.094
337	0.094
337	0.093
338	0.093
338	0.093
339	0.093
339	0.092
340	0.092
340	0.092
341	0.091
341	0.091
342	0.091
342	0.09
342	0.09
343	0.09
343	0.09
344	0.089
344	0.089
345	0.089
345	0.089
346	0.088
346	0.088
347	0.088
347	0.087
348	0.087
348	0.087
348	0.087
349	0.086
349	0.086
350	0.086
350	0.085
351	0.085
351	0.084
352	0.084
352	0.084
353	0.083
353	0.083
354	0.082
354	0.082
354	0.082
355	0.081
355	0.081
356	0.08
356	0.08
357	0.08
357	0.079
358	0.079
358	0.079
359	0.079
359	0.079
360	0.08
360	0.08
360	0.08
361	0.08
361	0.08
362	0.081
362	0.081
363	0.081
363	0.081
364	0.081
364	0.081
365	0.081
365	0.08
366	0.08
366	0.08
366	0.08
367	0.08
367	0.08
368	0.08
368	0.08
369	0.079
369	0.079
370	0.079
370	0.079
371	0.079
371	0.079
372	0.079
372	0.079
372	0.079
373	0.079
373	0.079
374	0.079
374	0.079
375	0.079
375	0.079
376	0.08
376	0.08
377	0.08
377	0.08
378	0.08
378	0.08
378	0.081
379	0.081
379	0.081
380	0.081
380	0.081
381	0.081
381	0.081
382	0.081
382	0.081
383	0.08
383	0.08
383	0.08
384	0.08
384	0.08
385	0.08
385	0.08
386	0.08
386	0.08
387	0.08
387	0.08
388	0.08
388	0.08
389	0.08
389	0.08
389	0.08
390	0.08
390	0.081
391	0.081
391	0.081
392	0.081
392	0.081
393	0.081
393	0.081
394	0.081
394	0.081
394	0.081
395	0.081
395	0.081
396	0.081
396	0.081
397	0.082
397	0.082
398	0.082
398	0.082
399	0.082
399	0.082
400	0.081
400	0.081
400	0.081
401	0.08
401	0.08
402	0.08
402	0.079
403	0.079
403	0.08
404	0.08
404	0.079
405	0.08
405	0.079
405	0.079
406	0.079
406	0.079
407	0.08
407	0.079
408	0.079
408	0.079
409	0.078
409	0.078
410	0.078
410	0.079
411	0.079
411	0.079
411	0.079
412	0.079
412	0.079
413	0.078
413	0.078
414	0.078
414	0.078
415	0.078
415	0.078
416	0.077
416	0.077
416	0.077
417	0.077
417	0.077
418	0.077
418	0.077
419	0.078
419	0.078
420	0.078
420	0.079
421	0.079
421	0.079
421	0.08
422	0.08
422	0.08
423	0.08
423	0.08
424	0.08
424	0.079
425	0.079
425	0.078
426	0.079
426	0.078
427	0.078
427	0.078
427	0.078
428	0.078
428	0.079
429	0.079
429	0.079
430	0.079
430	0.079
431	0.078
431	0.078
432	0.078
432	0.078
432	0.078
433	0.077
433	0.077
434	0.077
434	0.077
435	0.077
435	0.077
436	0.077
436	0.077
437	0.078
437	0.078
437	0.078
438	0.077
438	0.077
439	0.077
439	0.077
440	0.077
440	0.077
441	0.077
441	0.077
442	0.077
442	0.077
442	0.077
443	0.077
443	0.077
444	0.077
444	0.077
445	0.077
445	0.077
446	0.077
446	0.077
447	0.077
447	0.077
447	0.076
448	0.077
448	0.076
449	0.076
449	0.076
450	0.076
450	0.076
451	0.076
451	0.076
452	0.076
452	0.076
452	0.075
453	0.075
453	0.075
454	0.075
454	0.075
455	0.075
455	0.075
456	0.075
456	0.075
457	0.074
457	0.074
458	0.074
458	0.074
458	0.074
459	0.074
459	0.073
460	0.072
460	0.072
461	0.071
461	0.071
462	0.071
462	0.071
463	0.072
463	0.072
463	0.072
464	0.072
464	0.072
465	0.072
465	0.072
466	0.072
466	0.073
467	0.072
467	0.072
467	0.072
468	0.071
468	0.07
469	0.069
469	0.069
470	0.069
470	0.069
471	0.068
471	0.068
472	0.068
472	0.067
472	0.068
473	0.068
473	0.068
474	0.069
474	0.069
475	0.069
475	0.07
476	0.07
476	0.07
477	0.07
477	0.07
477	0.069
478	0.069
478	0.069
479	0.069
479	0.069
480	0.069
480	0.069
481	0.069
481	0.069
482	0.07
482	0.07
482	0.071
483	0.072
483	0.074
484	0.074
484	0.074
485	0.074
485	0.074
486	0.074
486	0.074
487	0.074
487	0.074
487	0.074
488	0.073
488	0.072
489	0.072
489	0.072
490	0.073
490	0.072
491	0.073
491	0.073
492	0.073
492	0.073
492	0.073
493	0.073
493	0.073
494	0.074
494	0.075
495	0.076
495	0.076
496	0.076
496	0.077
496	0.077
497	0.078
497	0.078
498	0.078
498	0.078
499	0.078
499	0.078
500	0.079
500	0.079
501	0.08
501	0.08
501	0.08
502	0.08
502	0.081
503	0.082
503	0.082
504	0.082
504	0.082
505	0.082
505	0.082
506	0.082
506	0.082
506	0.082
507	0.082
507	0.082
508	0.083
508	0.083
509	0.084
509	0.084
510	0.085
510	0.085
511	0.085
511	0.085
511	0.086
512	0.086
512	0.086
513	0.085
513	0.085
514	0.085
514	0.085
515	0.086
515	0.085
515	0.085
516	0.085
516	0.085
517	0.086
517	0.086
518	0.086
518	0.086
519	0.086
519	0.086
520	0.086
520	0.085
520	0.085
521	0.084
521	0.084
522	0.083
522	0.082
523	0.082
523	0.082
524	0.081
524	0.081
524	0.081
525	0.082
525	0.083
526	0.084
526	0.085
527	0.087
527	0.088
528	0.089
528	0.09
529	0.091
529	0.092
529	0.093
530	0.094
530	0.095
531	0.096
531	0.097
532	0.097
532	0.097
533	0.098
533	0.099
533	0.099
534	0.099
534	0.099
535	0.1
535	0.101
536	0.101
536	0.101
537	0.102
537	0.102
538	0.103
538	0.103
538	0.103
539	0.104
539	0.105
540	0.105
540	0.105
541	0.105
541	0.105
542	0.105
542	0.105
542	0.105
543	0.105
543	0.105
544	0.105
544	0.105
545	0.106
545	0.107
546	0.108
546	0.108
547	0.108
547	0.107
547	0.107
548	0.108
548	0.108
549	0.108
549	0.108
550	0.108
550	0.108
551	0.108
551	0.108
551	0.109
552	0.11
552	0.111
553	0.111
553	0.112
554	0.113
554	0.112
555	0.112
555	0.111
556	0.111
556	0.11
556	0.11
557	0.109
557	0.109
558	0.109
558	0.109
559	0.109
559	0.109
560	0.11
560	0.11
560	0.11
561	0.111
561	0.112
562	0.112
562	0.111
563	0.111
563	0.11
564	0.11
564	0.109
564	0.109
565	0.109
565	0.109
566	0.108
566	0.108
567	0.109
567	0.11
568	0.111
568	0.112
568	0.114
569	0.115
569	0.117
570	0.117
570	0.117
571	0.118
571	0.12
572	0.12
572	0.121
573	0.121
573	0.121
573	0.12
574	0.12
574	0.12
575	0.121
575	0.123
576	0.124
576	0.123
577	0.121
577	0.121
577	0.121
578	0.121
578	0.122
579	0.123
579	0.124
580	0.123
580	0.12
581	0.116
581	0.115
581	0.115
582	0.116
582	0.116
583	0.117
583	0.116
584	0.113
584	0.109
585	0.109
585	0.11
585	0.111
586	0.111
586	0.111
587	0.109
587	0.107
588	0.105
588	0.103
589	0.103
589	0.104
590	0.104
590	0.104
590	0.105
591	0.107
591	0.106
592	0.106
592	0.105
593	0.105
593	0.105
594	0.105
594	0.103
594	0.102
595	0.101
595	0.1
596	0.098
596	0.099
597	0.102
597	0.103
598	0.103
598	0.104
598	0.105
599	0.105
599	0.104
600	0.103
600	0.102
601	0.101
601	0.1
602	0.098
602	0.097
602	0.097
603	0.096
603	0.098
604	0.099
604	0.1
605	0.101
605	0.103
606	0.103
606	0.101
606	0.101
607	0.1
607	0.099
608	0.098
608	0.096
609	0.094
609	0.093
610	0.091
610	0.089
610	0.089
611	0.09
611	0.091
612	0.091
612	0.092
613	0.093
613	0.094
614	0.093
614	0.091
614	0.09
615	0.089
615	0.087
616	0.086
616	0.085
617	0.083
617	0.081
618	0.079
618	0.078
618	0.077
619	0.078
619	0.078
620	0.08
620	0.08
621	0.08
621	0.08
622	0.079
622	0.079
622	0.078
623	0.077
623	0.077
624	0.077
624	0.075
625	0.073
625	0.073
626	0.071
626	0.071
626	0.071
627	0.071
627	0.07
628	0.07
628	0.07
629	0.07
629	0.07
630	0.069
630	0.068
630	0.068
631	0.069
631	0.069
632	0.068
632	0.068
633	0.068
633	0.068
634	0.069
634	0.07
634	0.07
635	0.07
635	0.069
636	0.069
636	0.069
637	0.068
637	0.067
638	0.067
638	0.068
638	0.068
639	0.067
639	0.066
640	0.067
640	0.067
641	0.067
641	0.067
642	0.067
642	0.067
642	0.067
643	0.067
643	0.067
644	0.067
644	0.067
645	0.067
645	0.068
646	0.068
646	0.07
646	0.071
647	0.072
647	0.073
648	0.074
648	0.075
649	0.076
649	0.076
650	0.077
650	0.078
650	0.079
651	0.079
651	0.079
652	0.079
652	0.08
653	0.081
653	0.088
653	0.103
654	0.084
654	0.071
655	0.066
655	0.066
656	0.066
656	0.066
657	0.067
657	0.067
657	0.066
658	0.062
658	0.049
659	0.061
659	0.077
660	0.086
660	0.087
661	0.087
661	0.088
661	0.09
662	0.092
662	0.093
663	0.095
663	0.096
664	0.097
664	0.098
665	0.099
665	0.1
665	0.101
666	0.101
666	0.101
667	0.101
667	0.101
668	0.102
668	0.102
669	0.103
669	0.104
669	0.106
670	0.108
670	0.109
671	0.109
671	0.109
672	0.11
672	0.111
672	0.111
673	0.112
673	0.112
674	0.112
674	0.112
675	0.111
675	0.112
676	0.114
676	0.115
676	0.115
677	0.116
677	0.117
678	0.117
678	0.117
679	0.118
679	0.119
680	0.12
680	0.121
680	0.121
681	0.121
681	0.122
682	0.122
682	0.123
683	0.124
683	0.125
684	0.126
684	0.126
684	0.125
685	0.126
685	0.127
686	0.127
686	0.127
687	0.128
687	0.128
687	0.129
688	0.129
688	0.129
689	0.131
689	0.132
690	0.132
690	0.131
691	0.131
691	0.131
691	0.131
692	0.131
692	0.13
693	0.13
693	0.131
694	0.131
694	0.13
695	0.131
695	0.134
695	0.134
696	0.134
696	0.134
697	0.134
697	0.134
698	0.133
698	0.132
698	0.132
699	0.133
699	0.131
700	0.13
700	0.13
701	0.132
701	0.132
702	0.132
702	0.133
702	0.133
703	0.133
703	0.134
704	0.134
704	0.135
705	0.136
705	0.137
705	0.137
706	0.137
706	0.138
707	0.137
707	0.137
708	0.136
708	0.136
709	0.136
709	0.135
709	0.133
710	0.132
710	0.131
711	0.131
711	0.131
712	0.13
712	0.13
713	0.129
713	0.128
713	0.127
714	0.126
714	0.125
715	0.125
715	0.125
716	0.124
716	0.125
716	0.125
717	0.125
717	0.126
718	0.126
718	0.126
719	0.127
719	0.127
720	0.127
720	0.127
720	0.126
721	0.125
721	0.125
722	0.125
722	0.124
723	0.124
723	0.125
723	0.125
724	0.124
724	0.124
725	0.123
725	0.123
726	0.123
726	0.123
727	0.122
727	0.122
727	0.121
728	0.12
728	0.12
729	0.121
729	0.121
730	0.121
730	0.12
730	0.12
731	0.12
731	0.12
732	0.12
732	0.12
733	0.119
733	0.118
734	0.118
734	0.117
734	0.117
735	0.118
735	0.117
736	0.117
736	0.117
737	0.117
737	0.118
737	0.118
738	0.116
738	0.114
739	0.114
739	0.113
740	0.111
740	0.111
741	0.11
741	0.109
741	0.107
742	0.104
742	0.104
743	0.104
743	0.104
744	0.104
744	0.104
744	0.104
745	0.103
745	0.102
746	0.102
746	0.103
747	0.103
747	0.103
748	0.103
748	0.103
748	0.102
749	0.1
749	0.1
750	0.1
750	0.099
751	0.099
751	0.1
751	0.1
752	0.1
752	0.099
753	0.099
753	0.1
754	0.101
754	0.101
754	0.102
755	0.103
755	0.104
756	0.103
756	0.101
757	0.1
757	0.1
758	0.099
758	0.098
758	0.098
759	0.097
759	0.094
760	0.092
760	0.089
761	0.088
761	0.087
761	0.087
762	0.085
762	0.086
763	0.086
763	0.084
764	0.082
764	0.08
764	0.079
765	0.077
765	0.075
766	0.074
766	0.074
767	0.073
767	0.069
768	0.066
768	0.064
768	0.063
769	0.063
769	0.062
770	0.061
770	0.06
771	0.058
771	0.055
771	0.052
772	0.05
772	0.048
773	0.045
773	0.042
774	0.039
774	0.035
775	0.032
775	0.029
775	0.025
776	0.021
776	0.017
777	0.013
777	0.01
778	0.005
778	0.001
778	-0.003
779	-0.005
779	-0.008
780	-0.012
780	-0.017
781	-0.022
781	-0.028
781	-0.035
782	-0.043
782	-0.051
783	-0.058
783	-0.066
784	-0.076
784	-0.085
784	-0.095
785	-0.104
785	-0.114
786	-0.122
786	-0.126
787	-0.127
787	-0.129
788	-0.135
788	-0.14
788	-0.145
789	-0.149
789	-0.151
790	-0.149
790	-0.149
791	-0.15
791	-0.151
791	-0.154
792	-0.149
792	-0.138
793	-0.132
793	-0.128
794	-0.127
794	-0.129
794	-0.133
795	-0.135
795	-0.135
796	-0.136
796	-0.139
797	-0.148
797	-0.159
797	-0.166
798	-0.171
798	-0.173
799	-0.174
799	-0.173
800	-0.172
800	-0.174
801	-0.177
801	-0.178
801	-0.178
802	-0.179
802	-0.181
803	-0.181
803	-0.182
804	-0.181
804	-0.176
804	-0.169
805	-0.165
805	-0.163
806	-0.161
806	-0.16
807	-0.159
807	-0.158
807	-0.158
808	-0.158
808	-0.159
809	-0.164
809	-0.17
810	-0.174
810	-0.177
810	-0.181
811	-0.184
811	-0.184
812	-0.18
812	-0.177
813	-0.177
813	-0.178
813	-0.178
814	-0.179
814	-0.178
815	-0.175
815	-0.171
816	-0.167
816	-0.164
817	-0.163
817	-0.16
817	-0.153
818	-0.143
818	-0.131
819	-0.119
819	-0.108
820	-0.098
820	-0.087
820	-0.076
821	-0.065
821	-0.055
822	-0.047
822	-0.039
823	-0.032
823	-0.028
823	-0.024
824	-0.019
824	-0.013
825	-0.008
825	-0.003
826	0.001
826	0.004
826	0.006
827	0.009
827	0.012
828	0.014
828	0.016
829	0.018
829	0.019
829	0.02
830	0.02
830	0.022
831	0.024
831	0.026
832	0.026
832	0.028
832	0.029
833	0.031
833	0.032
834	0.034
834	0.036
835	0.038
835	0.039
835	0.041
836	0.042
836	0.044
837	0.045
837	0.046
838	0.047
838	0.048
839	0.049
839	0.049
839	0.049
840	0.049
840	0.05
841	0.05
841	0.051
842	0.052
842	0.054
842	0.055
843	0.056
843	0.056
844	0.057
844	0.058
845	0.059
845	0.06
845	0.06
846	0.06
846	0.06
847	0.059
847	0.059
848	0.058
848	0.057
848	0.056
849	0.056
849	0.055
850	0.054
850	0.053
851	0.053
851	0.053
851	0.053
852	0.053
852	0.053
853	0.054
853	0.054
854	0.054
854	0.054
854	0.054
855	0.054
855	0.053
856	0.053
856	0.052
857	0.052
857	0.052
857	0.052
858	0.051
858	0.051
859	0.05
859	0.05
860	0.05
860	0.05
860	0.05
861	0.049
861	0.049
862	0.049
862	0.049
863	0.048
863	0.048
863	0.048
864	0.048
864	0.048
865	0.049
865	0.049
866	0.049
866	0.05
866	0.05
867	0.051
867	0.052
868	0.053
868	0.055
869	0.056
869	0.057
869	0.057
870	0.058
870	0.058
871	0.058
871	0.057
872	0.057
872	0.056
872	0.055
873	0.054
873	0.053
874	0.052
874	0.051
875	0.051
875	0.051
875	0.051
876	0.051
876	0.051
877	0.052
877	0.052
878	0.052
878	0.052
878	0.053
879	0.053
879	0.052
880	0.052
880	0.052
881	0.051
881	0.051
881	0.051
882	0.05
882	0.049
883	0.048
883	0.047
884	0.047
884	0.046
884	0.046
885	0.046
885	0.046
886	0.047
886	0.047
887	0.048
887	0.049
887	0.049
888	0.05
888	0.05
889	0.051
889	0.051
890	0.051
890	0.051
890	0.05
891	0.05
891	0.049
892	0.049
892	0.048
893	0.048
893	0.047
893	0.047
894	0.046
894	0.045
895	0.044
895	0.044
895	0.043
896	0.042
896	0.041
897	0.04
897	0.04
898	0.04
898	0.04
898	0.04
899	0.04
899	0.041
900	0.041
900	0.042
901	0.044
901	0.045
901	0.047
902	0.048
902	0.049
903	0.051
903	0.051
904	0.052
904	0.053
904	0.054
905	0.054
905	0.055
906	0.055
906	0.055
907	0.055
907	0.055
907	0.054
908	0.054
908	0.054
909	0.053
909	0.052
910	0.051
910	0.051
910	0.05
911	0.049
911	0.049
912	0.05
912	0.05
913	0.05
913	0.05
913	0.05
914	0.05
914	0.05
915	0.05
915	0.049
916	0.049
916	0.048
916	0.047
917	0.046
917	0.045
918	0.044
918	0.043
918	0.042
919	0.042
919	0.042
920	0.043
920	0.043
921	0.044
921	0.044
921	0.044
922	0.045
922	0.045
923	0.045
923	0.045
924	0.045
924	0.045
924	0.044
925	0.044
925	0.043
926	0.042
926	0.041
927	0.04
927	0.039
927	0.038
928	0.037
928	0.036
929	0.035
929	0.034
930	0.033
930	0.033
930	0.032
931	0.032
931	0.032
932	0.032
932	0.032
933	0.032
933	0.032
933	0.032
934	0.032
934	0.032
935	0.031
935	0.03
935	0.03
936	0.029
936	0.028
937	0.028
937	0.027
938	0.027
938	0.026
938	0.026
939	0.026
939	0.026
940	0.026
940	0.027
941	0.027
941	0.028
941	0.029
942	0.029
942	0.03
943	0.031
943	0.031
944	0.032
944	0.032
944	0.033
945	0.033
945	0.033
946	0.033
946	0.033
946	0.032
947	0.031
947	0.03
948	0.03
948	0.029
949	0.028
949	0.028
949	0.027
950	0.027
950	0.027
951	0.027
951	0.027
952	0.027
952	0.028
952	0.028
953	0.028
953	0.028
954	0.028
954	0.028
955	0.027
955	0.027
955	0.027
956	0.027
956	0.027
957	0.026
957	0.026
957	0.025
958	0.025
958	0.025
959	0.024
959	0.024
960	0.023
960	0.023
960	0.022
961	0.02
961	0.02
962	0.019
962	0.018
963	0.017
963	0.017
963	0.017
964	0.017
964	0.017
965	0.017
965	0.018
966	0.018
966	0.019
966	0.02
967	0.021
967	0.021
968	0.021
968	0.021
968	0.021
969	0.02
969	0.02
970	0.019
970	0.018
971	0.018
971	0.017
971	0.017
972	0.017
972	0.017
973	0.017
973	0.017
974	0.017
974	0.017
974	0.017
975	0.017
975	0.017
976	0.017
976	0.017
976	0.016
977	0.015
977	0.014
978	0.013
978	0.012
979	0.011
979	0.01
979	0.009
980	0.008
980	0.008
981	0.007
981	0.007
982	0.007
982	0.007
982	0.007
983	0.008
983	0.007
984	0.007
984	0.008
984	0.008
985	0.008
985	0.008
986	0.008
986	0.008
987	0.008
987	0.009
987	0.01
988	0.011
988	0.013
989	0.014
989	0.015
990	0.016
990	0.018
990	0.02
991	0.022
991	0.023
992	0.025
992	0.026
992	0.026
993	0.027
993	0.028
994	0.028
994	0.028
995	0.027
995	0.027
995	0.026
996	0.025
996	0.024
997	0.023
997	0.022
997	0.021
998	0.021
998	0.021
999	0.021
999	0.02
1000	0.02
1000	0.02
1000	0.02
1001	0.02
1001	0.02
1002	0.02
1002	0.019
1003	0.019
1003	0.018
1003	0.018
1004	0.018
1004	0.017
1005	0.016
1005	0.016
1005	0.015
1006	0.014
1006	0.014
1007	0.013
1007	0.013
1008	0.012
1008	0.011
1008	0.011
1009	0.011
1009	0.011
1010	0.011
1010	0.011
1010	0.012
1011	0.012
1011	0.012
1012	0.012
1012	0.012
1013	0.012
1013	0.011
1013	0.01
1014	0.009
1014	0.008
1015	0.008
1015	0.007
1016	0.007
1016	0.006
1016	0.006
1017	0.005
1017	0.005
1018	0.006
1018	0.006
1018	0.006
1019	0.007
1019	0.007
1020	0.008
1020	0.008
1021	0.008
1021	0.008
1021	0.008
1022	0.008
1022	0.008
1023	0.008
1023	0.007
1023	0.007
1024	0.006
1024	0.005
1025	0.003
1025	0.002
1026	0.001
1026	0
1026	-0.001
1027	-0.002
1027	-0.002
1028	-0.003
1028	-0.003
1028	-0.003
1029	-0.003
1029	-0.002
1030	-0.002
1030	-0.001
1031	-0.001
1031	-0.001
1031	-0
1032	-0
1032	0
1033	-0
1033	-0
1033	-0
1034	-0.001
1034	-0.002
1035	-0.002
1035	-0.003
1036	-0.004
1036	-0.004
1036	-0.004
1037	-0.004
1037	-0.004
1038	-0.004
1038	-0.004
1039	-0.003
1039	-0.003
1039	-0.002
1040	-0.002
1040	-0.001
1041	-0.001
1041	-0.001
1041	-0.001
1042	-0.002
1042	-0.002
1043	-0.002
1043	-0.003
1044	-0.003
1044	-0.004
1044	-0.004
1045	-0.005
1045	-0.006
1046	-0.007
1046	-0.007
1046	-0.008
1047	-0.008
1047	-0.008
1048	-0.008
1048	-0.008
1049	-0.008
1049	-0.009
1049	-0.009
1050	-0.01
1050	-0.011
1051	-0.011
1051	-0.012
1051	-0.013
1052	-0.013
1052	-0.014
1053	-0.014
1053	-0.015
1053	-0.015
1054	-0.015
1054	-0.015
1055	-0.014
1055	-0.014
1056	-0.015
1056	-0.015
1056	-0.016
1057	-0.017
1057	-0.017
1058	-0.018
1058	-0.019
1058	-0.019
1059	-0.019
1059	-0.02
1060	-0.02
1060	-0.02
1061	-0.019
1061	-0.018
1061	-0.018
1062	-0.017
1062	-0.017
1063	-0.016
1063	-0.016
1063	-0.016
1064	-0.015
1064	-0.014
1065	-0.014
1065	-0.014
1066	-0.013
1066	-0.013
1066	-0.013
1067	-0.012
1067	-0.012
1068	-0.012
1068	-0.012
1068	-0.012
1069	-0.012
1069	-0.013
1070	-0.013
1070	-0.013
1071	-0.013
1071	-0.013
1071	-0.013
1072	-0.013
1072	-0.013
1073	-0.013
1073	-0.012
1073	-0.012
1074	-0.012
1074	-0.011
1075	-0.012
1075	-0.012
1076	-0.012
1076	-0.012
1076	-0.013
1077	-0.013
1077	-0.013
1078	-0.014
1078	-0.013
1078	-0.013
1079	-0.013
1079	-0.012
1080	-0.012
1080	-0.011
1080	-0.01
1081	-0.009
1081	-0.008
1082	-0.008
1082	-0.007
1083	-0.007
1083	-0.007
1083	-0.007
1084	-0.006
1084	-0.005
1085	-0.004
1085	-0.003
1085	-0.002
1086	-0.001
1086	-0.001
1087	-0
1087	0.001
1088	0.001
1088	0.002
1088	0.002
1089	0.002
1089	0.003
1090	0.003
1090	0.004
1090	0.005
1091	0.005
1091	0.007
1092	0.008
1092	0.011
1092	0.013
1093	0.015
1093	0.018
1094	0.021
1094	0.023
1095	0.024
1095	0.026
1095	0.03
1096	0.032
1096	0.034
1097	0.037
1097	0.039
1097	0.041
1098	0.043
1098	0.045
1099	0.048
1099	0.053
1100	0.058
1100	0.062
1100	0.066
1101	0.07
1101	0.075
1102	0.082
1102	0.089
1102	0.098
1103	0.107
1103	0.116
1104	0.126
1104	0.137
1104	0.151
1105	0.164
1105	0.176
1106	0.188
1106	0.203
1107	0.219
1107	0.243
1107	0.27
1108	0.373
1108	0.544
1109	0.944
1109	-0
1109	-0
1110	-0
1110	-0
1111	-0
1111	-0
