Data from 15c-2a-fridge-noshake_Absorbance__221__06458.txt Node

Date: Wed Jan 17 18:44:44 CET 2024
User: Marek
Spectrometer: MAYP115816
Trigger mode: 0
Integration Time (sec): 2.000000E-1
Scans to average: 10
Electric dark correction enabled: true
Nonlinearity correction enabled: true
Boxcar width: 5
XAxis mode: Wavelengths
Number of Pixels in Spectrum: 2068
>>>>>Begin Spectral Data<<<<<
199	-1.661
199	-1.522
200	-1.364
200	-1.242
201	-1.167
201	-1.121
202	-1.051
202	-1.001
203	-0.955
203	-0.916
204	-0.893
204	-0.87
205	-0.847
205	-0.837
205	-0.836
206	-0.834
206	-0.83
207	-0.829
207	-0.824
208	-0.823
208	-0.823
209	-0.818
209	-0.818
210	-0.817
210	-0.818
211	-0.816
211	-0.815
212	-0.816
212	-0.816
213	-0.815
213	-0.814
213	-0.814
214	-0.812
214	-0.811
215	-0.81
215	-0.809
216	-0.809
216	-0.807
217	-0.803
217	-0.802
218	-0.801
218	-0.797
219	-0.794
219	-0.795
220	-0.792
220	-0.789
221	-0.785
221	-0.782
221	-0.778
222	-0.774
222	-0.769
223	-0.764
223	-0.762
224	-0.757
224	-0.75
225	-0.741
225	-0.734
226	-0.725
226	-0.714
227	-0.701
227	-0.689
228	-0.674
228	-0.657
229	-0.636
229	-0.613
229	-0.587
230	-0.559
230	-0.53
231	-0.497
231	-0.463
232	-0.429
232	-0.392
233	-0.352
233	-0.313
234	-0.275
234	-0.237
235	-0.201
235	-0.167
236	-0.134
236	-0.103
236	-0.074
237	-0.048
237	-0.024
238	-0.002
238	0.017
239	0.036
239	0.052
240	0.066
240	0.078
241	0.089
241	0.1
242	0.109
242	0.117
243	0.125
243	0.131
243	0.137
244	0.142
244	0.146
245	0.15
245	0.155
246	0.159
246	0.162
247	0.165
247	0.169
248	0.172
248	0.175
249	0.177
249	0.179
250	0.181
250	0.184
250	0.186
251	0.188
251	0.189
252	0.191
252	0.192
253	0.194
253	0.195
254	0.196
254	0.198
255	0.199
255	0.2
256	0.2
256	0.201
257	0.202
257	0.202
258	0.202
258	0.203
258	0.203
259	0.203
259	0.203
260	0.203
260	0.203
261	0.203
261	0.203
262	0.202
262	0.202
263	0.201
263	0.2
264	0.2
264	0.199
265	0.199
265	0.198
265	0.197
266	0.196
266	0.195
267	0.193
267	0.192
268	0.191
268	0.19
269	0.188
269	0.187
270	0.185
270	0.184
271	0.182
271	0.18
272	0.179
272	0.177
272	0.176
273	0.174
273	0.172
274	0.171
274	0.169
275	0.168
275	0.166
276	0.165
276	0.164
277	0.163
277	0.161
278	0.16
278	0.158
278	0.156
279	0.153
279	0.151
280	0.149
280	0.147
281	0.145
281	0.143
282	0.14
282	0.139
283	0.137
283	0.136
284	0.135
284	0.134
285	0.133
285	0.132
285	0.131
286	0.13
286	0.129
287	0.128
287	0.127
288	0.126
288	0.125
289	0.124
289	0.123
290	0.122
290	0.121
291	0.12
291	0.12
292	0.119
292	0.118
292	0.117
293	0.116
293	0.116
294	0.115
294	0.115
295	0.114
295	0.114
296	0.113
296	0.113
297	0.113
297	0.112
298	0.112
298	0.112
298	0.111
299	0.111
299	0.111
300	0.111
300	0.11
301	0.11
301	0.11
302	0.11
302	0.11
303	0.11
303	0.11
304	0.109
304	0.109
305	0.109
305	0.109
305	0.109
306	0.109
306	0.108
307	0.108
307	0.108
308	0.108
308	0.108
309	0.108
309	0.107
310	0.107
310	0.107
311	0.107
311	0.107
311	0.107
312	0.106
312	0.106
313	0.106
313	0.106
314	0.106
314	0.105
315	0.105
315	0.105
316	0.105
316	0.104
317	0.104
317	0.104
318	0.104
318	0.103
318	0.103
319	0.103
319	0.103
320	0.102
320	0.102
321	0.102
321	0.101
322	0.101
322	0.101
323	0.101
323	0.1
324	0.1
324	0.1
324	0.099
325	0.099
325	0.099
326	0.098
326	0.098
327	0.098
327	0.097
328	0.097
328	0.097
329	0.097
329	0.096
330	0.096
330	0.095
330	0.095
331	0.095
331	0.094
332	0.094
332	0.094
333	0.093
333	0.093
334	0.093
334	0.092
335	0.092
335	0.092
336	0.091
336	0.091
336	0.091
337	0.09
337	0.09
338	0.09
338	0.089
339	0.089
339	0.089
340	0.088
340	0.088
341	0.088
341	0.087
342	0.087
342	0.087
342	0.086
343	0.086
343	0.086
344	0.086
344	0.085
345	0.085
345	0.085
346	0.085
346	0.084
347	0.084
347	0.084
348	0.083
348	0.083
348	0.083
349	0.083
349	0.082
350	0.082
350	0.082
351	0.081
351	0.081
352	0.081
352	0.081
353	0.08
353	0.08
354	0.079
354	0.079
354	0.079
355	0.078
355	0.078
356	0.077
356	0.077
357	0.077
357	0.077
358	0.076
358	0.076
359	0.076
359	0.076
360	0.076
360	0.077
360	0.077
361	0.077
361	0.077
362	0.077
362	0.077
363	0.077
363	0.077
364	0.077
364	0.077
365	0.077
365	0.077
366	0.077
366	0.076
366	0.076
367	0.076
367	0.077
368	0.076
368	0.076
369	0.076
369	0.076
370	0.076
370	0.076
371	0.076
371	0.076
372	0.076
372	0.076
372	0.076
373	0.076
373	0.076
374	0.076
374	0.076
375	0.076
375	0.076
376	0.077
376	0.077
377	0.077
377	0.077
378	0.077
378	0.077
378	0.077
379	0.077
379	0.077
380	0.077
380	0.077
381	0.077
381	0.077
382	0.077
382	0.077
383	0.077
383	0.077
383	0.077
384	0.077
384	0.077
385	0.077
385	0.077
386	0.077
386	0.077
387	0.077
387	0.077
388	0.077
388	0.077
389	0.077
389	0.077
389	0.077
390	0.077
390	0.077
391	0.077
391	0.078
392	0.077
392	0.077
393	0.078
393	0.078
394	0.078
394	0.078
394	0.078
395	0.078
395	0.078
396	0.078
396	0.078
397	0.078
397	0.078
398	0.078
398	0.078
399	0.078
399	0.078
400	0.078
400	0.078
400	0.077
401	0.077
401	0.077
402	0.076
402	0.076
403	0.076
403	0.076
404	0.077
404	0.076
405	0.076
405	0.076
405	0.076
406	0.076
406	0.076
407	0.076
407	0.076
408	0.076
408	0.076
409	0.075
409	0.075
410	0.075
410	0.076
411	0.076
411	0.076
411	0.076
412	0.075
412	0.075
413	0.075
413	0.075
414	0.075
414	0.075
415	0.075
415	0.074
416	0.074
416	0.074
416	0.074
417	0.073
417	0.073
418	0.074
418	0.074
419	0.074
419	0.075
420	0.075
420	0.076
421	0.076
421	0.076
421	0.077
422	0.077
422	0.077
423	0.077
423	0.077
424	0.077
424	0.077
425	0.076
425	0.076
426	0.076
426	0.076
427	0.076
427	0.076
427	0.076
428	0.076
428	0.076
429	0.077
429	0.076
430	0.076
430	0.076
431	0.076
431	0.076
432	0.075
432	0.075
432	0.075
433	0.074
433	0.074
434	0.074
434	0.074
435	0.074
435	0.074
436	0.074
436	0.074
437	0.074
437	0.074
437	0.074
438	0.074
438	0.074
439	0.074
439	0.074
440	0.073
440	0.074
441	0.074
441	0.074
442	0.074
442	0.074
442	0.074
443	0.074
443	0.074
444	0.074
444	0.074
445	0.074
445	0.074
446	0.074
446	0.074
447	0.074
447	0.073
447	0.073
448	0.074
448	0.073
449	0.073
449	0.073
450	0.073
450	0.073
451	0.073
451	0.073
452	0.073
452	0.073
452	0.073
453	0.073
453	0.073
454	0.073
454	0.072
455	0.072
455	0.072
456	0.072
456	0.072
457	0.072
457	0.072
458	0.072
458	0.071
458	0.071
459	0.071
459	0.071
460	0.07
460	0.07
461	0.069
461	0.069
462	0.069
462	0.069
463	0.069
463	0.07
463	0.07
464	0.07
464	0.07
465	0.07
465	0.07
466	0.07
466	0.07
467	0.07
467	0.07
467	0.069
468	0.068
468	0.068
469	0.067
469	0.067
470	0.067
470	0.067
471	0.066
471	0.066
472	0.066
472	0.066
472	0.066
473	0.067
473	0.067
474	0.067
474	0.068
475	0.068
475	0.068
476	0.068
476	0.068
477	0.068
477	0.068
477	0.068
478	0.068
478	0.068
479	0.068
479	0.068
480	0.068
480	0.068
481	0.068
481	0.068
482	0.068
482	0.069
482	0.07
483	0.071
483	0.072
484	0.073
484	0.073
485	0.072
485	0.073
486	0.073
486	0.073
487	0.073
487	0.073
487	0.072
488	0.072
488	0.071
489	0.07
489	0.071
490	0.071
490	0.071
491	0.072
491	0.072
492	0.072
492	0.072
492	0.072
493	0.072
493	0.072
494	0.073
494	0.074
495	0.074
495	0.074
496	0.075
496	0.075
496	0.076
497	0.077
497	0.077
498	0.077
498	0.077
499	0.077
499	0.078
500	0.078
500	0.078
501	0.079
501	0.079
501	0.08
502	0.08
502	0.081
503	0.081
503	0.082
504	0.082
504	0.081
505	0.081
505	0.081
506	0.082
506	0.082
506	0.082
507	0.082
507	0.082
508	0.082
508	0.082
509	0.083
509	0.083
510	0.084
510	0.085
511	0.085
511	0.085
511	0.085
512	0.085
512	0.085
513	0.085
513	0.085
514	0.085
514	0.085
515	0.085
515	0.085
515	0.085
516	0.085
516	0.085
517	0.086
517	0.086
518	0.086
518	0.086
519	0.086
519	0.086
520	0.085
520	0.085
520	0.085
521	0.084
521	0.083
522	0.082
522	0.082
523	0.081
523	0.081
524	0.081
524	0.081
524	0.081
525	0.082
525	0.082
526	0.083
526	0.084
527	0.085
527	0.086
528	0.087
528	0.088
529	0.088
529	0.089
529	0.089
530	0.09
530	0.09
531	0.091
531	0.092
532	0.092
532	0.092
533	0.093
533	0.093
533	0.093
534	0.093
534	0.093
535	0.093
535	0.094
536	0.094
536	0.094
537	0.094
537	0.095
538	0.095
538	0.095
538	0.095
539	0.096
539	0.096
540	0.096
540	0.096
541	0.096
541	0.096
542	0.096
542	0.096
542	0.096
543	0.096
543	0.096
544	0.096
544	0.097
545	0.097
545	0.098
546	0.099
546	0.099
547	0.099
547	0.098
547	0.097
548	0.098
548	0.098
549	0.098
549	0.098
550	0.098
550	0.098
551	0.097
551	0.098
551	0.099
552	0.099
552	0.1
553	0.101
553	0.102
554	0.102
554	0.101
555	0.101
555	0.1
556	0.1
556	0.099
556	0.099
557	0.098
557	0.098
558	0.098
558	0.098
559	0.098
559	0.098
560	0.098
560	0.098
560	0.099
561	0.1
561	0.1
562	0.1
562	0.099
563	0.099
563	0.098
564	0.097
564	0.097
564	0.097
565	0.097
565	0.097
566	0.097
566	0.097
567	0.098
567	0.099
568	0.1
568	0.101
568	0.103
569	0.104
569	0.105
570	0.105
570	0.104
571	0.105
571	0.106
572	0.106
572	0.106
573	0.105
573	0.105
573	0.104
574	0.104
574	0.105
575	0.105
575	0.107
576	0.109
576	0.107
577	0.106
577	0.106
577	0.107
578	0.107
578	0.108
579	0.109
579	0.111
580	0.109
580	0.106
581	0.103
581	0.102
581	0.103
582	0.103
582	0.103
583	0.105
583	0.104
584	0.1
584	0.097
585	0.097
585	0.098
585	0.099
586	0.099
586	0.099
587	0.097
587	0.095
588	0.093
588	0.092
589	0.093
589	0.093
590	0.093
590	0.094
590	0.096
591	0.097
591	0.097
592	0.096
592	0.095
593	0.095
593	0.095
594	0.094
594	0.093
594	0.092
595	0.091
595	0.09
596	0.089
596	0.09
597	0.093
597	0.093
598	0.094
598	0.095
598	0.095
599	0.096
599	0.095
600	0.094
600	0.093
601	0.093
601	0.092
602	0.09
602	0.09
602	0.09
603	0.09
603	0.091
604	0.093
604	0.094
605	0.096
605	0.098
606	0.098
606	0.096
606	0.096
607	0.095
607	0.095
608	0.094
608	0.091
609	0.09
609	0.089
610	0.088
610	0.086
610	0.086
611	0.087
611	0.088
612	0.089
612	0.091
613	0.092
613	0.092
614	0.091
614	0.09
614	0.089
615	0.088
615	0.087
616	0.086
616	0.084
617	0.083
617	0.082
618	0.08
618	0.079
618	0.079
619	0.079
619	0.08
620	0.082
620	0.082
621	0.082
621	0.082
622	0.082
622	0.082
622	0.081
623	0.08
623	0.081
624	0.081
624	0.079
625	0.078
625	0.078
626	0.077
626	0.076
626	0.076
627	0.077
627	0.076
628	0.076
628	0.076
629	0.076
629	0.076
630	0.075
630	0.074
630	0.075
631	0.075
631	0.075
632	0.075
632	0.075
633	0.075
633	0.076
634	0.077
634	0.078
634	0.078
635	0.078
635	0.078
636	0.078
636	0.078
637	0.078
637	0.077
638	0.078
638	0.078
638	0.078
639	0.078
639	0.078
640	0.078
640	0.079
641	0.079
641	0.08
642	0.08
642	0.081
642	0.081
643	0.081
643	0.081
644	0.082
644	0.083
645	0.083
645	0.083
646	0.084
646	0.085
646	0.087
647	0.088
647	0.09
648	0.09
648	0.091
649	0.093
649	0.094
650	0.095
650	0.096
650	0.097
651	0.098
651	0.098
652	0.099
652	0.1
653	0.101
653	0.109
653	0.124
654	0.101
654	0.084
655	0.08
655	0.08
656	0.081
656	0.081
657	0.082
657	0.082
657	0.082
658	0.078
658	0.064
659	0.08
659	0.102
660	0.112
660	0.113
661	0.114
661	0.115
661	0.117
662	0.119
662	0.122
663	0.124
663	0.125
664	0.126
664	0.127
665	0.129
665	0.13
665	0.131
666	0.131
666	0.132
667	0.132
667	0.132
668	0.133
668	0.134
669	0.135
669	0.137
669	0.14
670	0.142
670	0.143
671	0.144
671	0.145
672	0.146
672	0.147
672	0.148
673	0.149
673	0.15
674	0.15
674	0.15
675	0.15
675	0.151
676	0.153
676	0.155
676	0.155
677	0.156
677	0.157
678	0.158
678	0.158
679	0.159
679	0.16
680	0.161
680	0.162
680	0.162
681	0.162
681	0.163
682	0.164
682	0.164
683	0.165
683	0.167
684	0.168
684	0.167
684	0.167
685	0.167
685	0.168
686	0.168
686	0.169
687	0.169
687	0.169
687	0.17
688	0.169
688	0.169
689	0.17
689	0.171
690	0.171
690	0.17
691	0.17
691	0.169
691	0.169
692	0.168
692	0.167
693	0.167
693	0.168
694	0.167
694	0.166
695	0.167
695	0.169
695	0.169
696	0.168
696	0.168
697	0.167
697	0.167
698	0.166
698	0.164
698	0.164
699	0.164
699	0.163
700	0.161
700	0.162
701	0.163
701	0.163
702	0.163
702	0.162
702	0.162
703	0.162
703	0.161
704	0.161
704	0.161
705	0.162
705	0.161
705	0.16
706	0.16
706	0.16
707	0.16
707	0.158
708	0.158
708	0.157
709	0.157
709	0.155
709	0.153
710	0.151
710	0.151
711	0.15
711	0.15
712	0.149
712	0.149
713	0.148
713	0.147
713	0.146
714	0.145
714	0.144
715	0.143
715	0.142
716	0.141
716	0.141
716	0.141
717	0.14
717	0.14
718	0.139
718	0.139
719	0.139
719	0.139
720	0.139
720	0.138
720	0.137
721	0.135
721	0.134
722	0.134
722	0.133
723	0.132
723	0.132
723	0.131
724	0.13
724	0.13
725	0.128
725	0.128
726	0.127
726	0.127
727	0.126
727	0.125
727	0.124
728	0.123
728	0.123
729	0.124
729	0.124
730	0.124
730	0.123
730	0.123
731	0.123
731	0.123
732	0.123
732	0.122
733	0.121
733	0.12
734	0.119
734	0.118
734	0.117
735	0.117
735	0.116
736	0.115
736	0.114
737	0.114
737	0.115
737	0.114
738	0.113
738	0.111
739	0.11
739	0.109
740	0.107
740	0.106
741	0.106
741	0.103
741	0.101
742	0.098
742	0.097
743	0.097
743	0.097
744	0.096
744	0.096
744	0.096
745	0.095
745	0.094
746	0.094
746	0.094
747	0.093
747	0.093
748	0.093
748	0.093
748	0.092
749	0.091
749	0.09
750	0.09
750	0.089
751	0.089
751	0.089
751	0.09
752	0.089
752	0.088
753	0.087
753	0.088
754	0.088
754	0.088
754	0.089
755	0.089
755	0.09
756	0.089
756	0.087
757	0.086
757	0.087
758	0.086
758	0.085
758	0.084
759	0.083
759	0.081
760	0.078
760	0.076
761	0.074
761	0.074
761	0.073
762	0.072
762	0.072
763	0.072
763	0.07
764	0.068
764	0.066
764	0.065
765	0.064
765	0.062
766	0.061
766	0.061
767	0.06
767	0.057
768	0.054
768	0.052
768	0.051
769	0.05
769	0.05
770	0.049
770	0.047
771	0.045
771	0.043
771	0.04
772	0.039
772	0.037
773	0.035
773	0.032
774	0.029
774	0.026
775	0.023
775	0.02
775	0.016
776	0.013
776	0.01
777	0.007
777	0.004
778	0
778	-0.003
778	-0.006
779	-0.008
779	-0.011
780	-0.015
780	-0.019
781	-0.023
781	-0.028
781	-0.034
782	-0.04
782	-0.048
783	-0.054
783	-0.061
784	-0.069
784	-0.077
784	-0.085
785	-0.093
785	-0.102
786	-0.109
786	-0.114
787	-0.117
787	-0.12
788	-0.126
788	-0.132
788	-0.138
789	-0.144
789	-0.147
790	-0.147
790	-0.148
791	-0.15
791	-0.152
791	-0.155
792	-0.149
792	-0.138
793	-0.133
793	-0.129
794	-0.127
794	-0.129
794	-0.133
795	-0.136
795	-0.136
796	-0.137
796	-0.14
797	-0.149
797	-0.16
797	-0.166
798	-0.171
798	-0.174
799	-0.174
799	-0.174
800	-0.173
800	-0.175
801	-0.177
801	-0.178
801	-0.178
802	-0.18
802	-0.181
803	-0.182
803	-0.182
804	-0.181
804	-0.176
804	-0.17
805	-0.166
805	-0.164
806	-0.162
806	-0.16
807	-0.159
807	-0.159
807	-0.159
808	-0.159
808	-0.16
809	-0.165
809	-0.171
810	-0.175
810	-0.178
810	-0.181
811	-0.184
811	-0.185
812	-0.181
812	-0.178
813	-0.178
813	-0.178
813	-0.179
814	-0.179
814	-0.179
815	-0.175
815	-0.172
816	-0.168
816	-0.164
817	-0.163
817	-0.159
817	-0.152
818	-0.142
818	-0.131
819	-0.119
819	-0.108
820	-0.098
820	-0.088
820	-0.078
821	-0.068
821	-0.059
822	-0.051
822	-0.044
823	-0.038
823	-0.035
823	-0.031
824	-0.026
824	-0.021
825	-0.016
825	-0.012
826	-0.009
826	-0.007
826	-0.005
827	-0.002
827	0
828	0.002
828	0.004
829	0.006
829	0.008
829	0.009
830	0.009
830	0.011
831	0.014
831	0.015
832	0.016
832	0.018
832	0.019
833	0.02
833	0.021
834	0.023
834	0.024
835	0.026
835	0.027
835	0.028
836	0.029
836	0.031
837	0.032
837	0.033
838	0.033
838	0.034
839	0.034
839	0.035
839	0.034
840	0.035
840	0.035
841	0.035
841	0.036
842	0.037
842	0.038
842	0.039
843	0.039
843	0.04
844	0.041
844	0.042
845	0.042
845	0.043
845	0.043
846	0.043
846	0.043
847	0.042
847	0.042
848	0.041
848	0.041
848	0.04
849	0.04
849	0.039
850	0.038
850	0.037
851	0.037
851	0.037
851	0.037
852	0.037
852	0.037
853	0.037
853	0.038
854	0.038
854	0.038
854	0.038
855	0.038
855	0.038
856	0.037
856	0.037
857	0.037
857	0.036
857	0.036
858	0.036
858	0.036
859	0.035
859	0.035
860	0.035
860	0.035
860	0.035
861	0.035
861	0.034
862	0.033
862	0.033
863	0.032
863	0.032
863	0.032
864	0.032
864	0.032
865	0.032
865	0.033
866	0.033
866	0.034
866	0.035
867	0.036
867	0.037
868	0.038
868	0.04
869	0.041
869	0.042
869	0.042
870	0.043
870	0.043
871	0.043
871	0.043
872	0.042
872	0.041
872	0.04
873	0.039
873	0.038
874	0.037
874	0.037
875	0.037
875	0.038
875	0.038
876	0.038
876	0.039
877	0.039
877	0.04
878	0.04
878	0.04
878	0.04
879	0.04
879	0.039
880	0.038
880	0.037
881	0.036
881	0.035
881	0.034
882	0.033
882	0.032
883	0.031
883	0.03
884	0.03
884	0.029
884	0.029
885	0.029
885	0.03
886	0.031
886	0.031
887	0.032
887	0.033
887	0.034
888	0.034
888	0.035
889	0.036
889	0.036
890	0.037
890	0.037
890	0.037
891	0.037
891	0.037
892	0.036
892	0.036
893	0.035
893	0.035
893	0.034
894	0.034
894	0.033
895	0.032
895	0.031
895	0.029
896	0.028
896	0.027
897	0.026
897	0.026
898	0.026
898	0.026
898	0.026
899	0.026
899	0.027
900	0.028
900	0.029
901	0.031
901	0.032
901	0.033
902	0.035
902	0.035
903	0.036
903	0.036
904	0.037
904	0.037
904	0.037
905	0.038
905	0.038
906	0.038
906	0.038
907	0.038
907	0.038
907	0.038
908	0.038
908	0.037
909	0.037
909	0.036
910	0.035
910	0.035
910	0.034
911	0.034
911	0.034
912	0.034
912	0.035
913	0.035
913	0.036
913	0.036
914	0.036
914	0.036
915	0.036
915	0.036
916	0.035
916	0.035
916	0.034
917	0.033
917	0.032
918	0.031
918	0.03
918	0.029
919	0.029
919	0.029
920	0.029
920	0.03
921	0.03
921	0.031
921	0.031
922	0.032
922	0.033
923	0.034
923	0.034
924	0.035
924	0.035
924	0.035
925	0.034
925	0.034
926	0.033
926	0.032
927	0.031
927	0.03
927	0.029
928	0.028
928	0.027
929	0.026
929	0.026
930	0.025
930	0.025
930	0.024
931	0.024
931	0.024
932	0.024
932	0.024
933	0.024
933	0.024
933	0.023
934	0.023
934	0.023
935	0.022
935	0.021
935	0.02
936	0.019
936	0.019
937	0.018
937	0.017
938	0.016
938	0.016
938	0.016
939	0.016
939	0.016
940	0.016
940	0.017
941	0.017
941	0.018
941	0.019
942	0.02
942	0.021
943	0.022
943	0.022
944	0.022
944	0.022
944	0.022
945	0.022
945	0.023
946	0.023
946	0.022
946	0.022
947	0.021
947	0.021
948	0.02
948	0.02
949	0.019
949	0.019
949	0.019
950	0.019
950	0.019
951	0.019
951	0.019
952	0.018
952	0.019
952	0.019
953	0.019
953	0.019
954	0.018
954	0.018
955	0.017
955	0.016
955	0.016
956	0.016
956	0.016
957	0.016
957	0.015
957	0.014
958	0.014
958	0.014
959	0.013
959	0.013
960	0.013
960	0.012
960	0.011
961	0.01
961	0.01
962	0.009
962	0.008
963	0.008
963	0.007
963	0.007
964	0.007
964	0.008
965	0.008
965	0.009
966	0.01
966	0.011
966	0.012
967	0.013
967	0.013
968	0.013
968	0.014
968	0.014
969	0.013
969	0.013
970	0.012
970	0.011
971	0.01
971	0.009
971	0.008
972	0.008
972	0.007
973	0.007
973	0.007
974	0.006
974	0.006
974	0.006
975	0.006
975	0.006
976	0.006
976	0.006
976	0.005
977	0.005
977	0.004
978	0.002
978	0.001
979	0.001
979	-0
979	-0.001
980	-0.002
980	-0.003
981	-0.004
981	-0.004
982	-0.004
982	-0.003
982	-0.003
983	-0.003
983	-0.003
984	-0.003
984	-0.002
984	-0.002
985	-0.002
985	-0.001
986	-0.002
986	-0.002
987	-0.001
987	-0
987	0
988	0.001
988	0.002
989	0.003
989	0.004
990	0.006
990	0.007
990	0.009
991	0.011
991	0.013
992	0.014
992	0.015
992	0.017
993	0.017
993	0.018
994	0.018
994	0.018
995	0.018
995	0.017
995	0.016
996	0.015
996	0.014
997	0.013
997	0.012
997	0.011
998	0.01
998	0.01
999	0.01
999	0.009
1000	0.009
1000	0.009
1000	0.009
1001	0.009
1001	0.009
1002	0.009
1002	0.009
1003	0.009
1003	0.009
1003	0.008
1004	0.008
1004	0.008
1005	0.007
1005	0.007
1005	0.006
1006	0.005
1006	0.004
1007	0.003
1007	0.002
1008	0.002
1008	0.001
1008	0
1009	0
1009	0
1010	0
1010	0
1010	0
1011	0
1011	0
1012	0
1012	-0
1013	-0
1013	-0.001
1013	-0.002
1014	-0.003
1014	-0.004
1015	-0.005
1015	-0.005
1016	-0.006
1016	-0.006
1016	-0.007
1017	-0.007
1017	-0.008
1018	-0.007
1018	-0.007
1018	-0.007
1019	-0.007
1019	-0.006
1020	-0.006
1020	-0.006
1021	-0.006
1021	-0.006
1021	-0.005
1022	-0.005
1022	-0.005
1023	-0.005
1023	-0.005
1023	-0.006
1024	-0.007
1024	-0.008
1025	-0.009
1025	-0.01
1026	-0.011
1026	-0.012
1026	-0.013
1027	-0.014
1027	-0.015
1028	-0.015
1028	-0.015
1028	-0.015
1029	-0.015
1029	-0.014
1030	-0.014
1030	-0.013
1031	-0.013
1031	-0.012
1031	-0.012
1032	-0.012
1032	-0.012
1033	-0.012
1033	-0.012
1033	-0.012
1034	-0.013
1034	-0.014
1035	-0.015
1035	-0.016
1036	-0.016
1036	-0.017
1036	-0.017
1037	-0.018
1037	-0.018
1038	-0.019
1038	-0.018
1039	-0.018
1039	-0.017
1039	-0.017
1040	-0.017
1040	-0.016
1041	-0.016
1041	-0.016
1041	-0.015
1042	-0.015
1042	-0.015
1043	-0.016
1043	-0.016
1044	-0.016
1044	-0.017
1044	-0.017
1045	-0.017
1045	-0.018
1046	-0.018
1046	-0.019
1046	-0.019
1047	-0.019
1047	-0.018
1048	-0.018
1048	-0.018
1049	-0.018
1049	-0.019
1049	-0.02
1050	-0.02
1050	-0.021
1051	-0.022
1051	-0.022
1051	-0.023
1052	-0.024
1052	-0.025
1053	-0.025
1053	-0.026
1053	-0.026
1054	-0.026
1054	-0.026
1055	-0.025
1055	-0.026
1056	-0.026
1056	-0.027
1056	-0.028
1057	-0.028
1057	-0.029
1058	-0.029
1058	-0.03
1058	-0.031
1059	-0.032
1059	-0.033
1060	-0.033
1060	-0.033
1061	-0.032
1061	-0.032
1061	-0.031
1062	-0.031
1062	-0.031
1063	-0.03
1063	-0.03
1063	-0.029
1064	-0.029
1064	-0.028
1065	-0.027
1065	-0.027
1066	-0.027
1066	-0.026
1066	-0.026
1067	-0.025
1067	-0.025
1068	-0.025
1068	-0.024
1068	-0.024
1069	-0.025
1069	-0.025
1070	-0.025
1070	-0.026
1071	-0.025
1071	-0.026
1071	-0.026
1072	-0.026
1072	-0.026
1073	-0.027
1073	-0.026
1073	-0.026
1074	-0.026
1074	-0.025
1075	-0.026
1075	-0.026
1076	-0.027
1076	-0.026
1076	-0.027
1077	-0.027
1077	-0.027
1078	-0.028
1078	-0.027
1078	-0.027
1079	-0.027
1079	-0.026
1080	-0.026
1080	-0.025
1080	-0.025
1081	-0.025
1081	-0.024
1082	-0.023
1082	-0.024
1083	-0.024
1083	-0.023
1083	-0.023
1084	-0.023
1084	-0.022
1085	-0.022
1085	-0.021
1085	-0.02
1086	-0.02
1086	-0.02
1087	-0.019
1087	-0.018
1088	-0.019
1088	-0.018
1088	-0.018
1089	-0.019
1089	-0.019
1090	-0.019
1090	-0.018
1090	-0.017
1091	-0.017
1091	-0.015
1092	-0.015
1092	-0.012
1092	-0.011
1093	-0.01
1093	-0.006
1094	-0.004
1094	-0.002
1095	-0.001
1095	0
1095	0.003
1096	0.005
1096	0.007
1097	0.008
1097	0.009
1097	0.011
1098	0.011
1098	0.012
1099	0.015
1099	0.018
1100	0.02
1100	0.022
1100	0.024
1101	0.027
1101	0.03
1102	0.035
1102	0.04
1102	0.046
1103	0.051
1103	0.057
1104	0.064
1104	0.072
1104	0.081
1105	0.09
1105	0.098
1106	0.104
1106	0.115
1107	0.123
1107	0.139
1107	0.155
1108	0.217
1108	0.306
1109	0.453
1109	0.776
1109	1.29
1110	-0
1110	-0
1111	-0
1111	-0
