Data from 15c-2a-fridge-noshake_Absorbance__892__07129.txt Node

Date: Wed Jan 17 19:08:02 CET 2024
User: Marek
Spectrometer: MAYP115816
Trigger mode: 0
Integration Time (sec): 2.000000E-1
Scans to average: 10
Electric dark correction enabled: true
Nonlinearity correction enabled: true
Boxcar width: 5
XAxis mode: Wavelengths
Number of Pixels in Spectrum: 2068
>>>>>Begin Spectral Data<<<<<
199	-1.574
199	-1.439
200	-1.283
200	-1.163
201	-1.089
201	-1.043
202	-0.977
202	-0.929
203	-0.885
203	-0.848
204	-0.824
204	-0.802
205	-0.779
205	-0.77
205	-0.768
206	-0.767
206	-0.764
207	-0.762
207	-0.758
208	-0.757
208	-0.757
209	-0.753
209	-0.752
210	-0.751
210	-0.752
211	-0.751
211	-0.751
212	-0.753
212	-0.752
213	-0.752
213	-0.751
213	-0.75
214	-0.749
214	-0.749
215	-0.748
215	-0.747
216	-0.747
216	-0.745
217	-0.739
217	-0.738
218	-0.738
218	-0.735
219	-0.732
219	-0.731
220	-0.729
220	-0.726
221	-0.722
221	-0.719
221	-0.715
222	-0.712
222	-0.708
223	-0.702
223	-0.699
224	-0.694
224	-0.687
225	-0.678
225	-0.672
226	-0.663
226	-0.651
227	-0.639
227	-0.627
228	-0.612
228	-0.595
229	-0.575
229	-0.552
229	-0.526
230	-0.499
230	-0.469
231	-0.437
231	-0.404
232	-0.37
232	-0.333
233	-0.295
233	-0.256
234	-0.218
234	-0.181
235	-0.147
235	-0.114
236	-0.082
236	-0.052
236	-0.024
237	0.002
237	0.025
238	0.046
238	0.065
239	0.082
239	0.097
240	0.111
240	0.123
241	0.133
241	0.143
242	0.151
242	0.159
243	0.166
243	0.171
243	0.176
244	0.182
244	0.186
245	0.189
245	0.193
246	0.197
246	0.199
247	0.202
247	0.205
248	0.207
248	0.21
249	0.212
249	0.214
250	0.216
250	0.217
250	0.219
251	0.22
251	0.222
252	0.223
252	0.225
253	0.226
253	0.227
254	0.227
254	0.229
255	0.229
255	0.23
256	0.231
256	0.231
257	0.232
257	0.232
258	0.232
258	0.232
258	0.233
259	0.233
259	0.232
260	0.232
260	0.232
261	0.231
261	0.231
262	0.231
262	0.23
263	0.23
263	0.229
264	0.228
264	0.228
265	0.227
265	0.226
265	0.225
266	0.224
266	0.222
267	0.221
267	0.22
268	0.218
268	0.217
269	0.215
269	0.214
270	0.212
270	0.21
271	0.209
271	0.207
272	0.205
272	0.204
272	0.202
273	0.2
273	0.198
274	0.197
274	0.195
275	0.193
275	0.192
276	0.19
276	0.189
277	0.187
277	0.186
278	0.184
278	0.183
278	0.181
279	0.178
279	0.175
280	0.173
280	0.171
281	0.169
281	0.166
282	0.164
282	0.162
283	0.16
283	0.158
284	0.157
284	0.157
285	0.156
285	0.154
285	0.153
286	0.152
286	0.15
287	0.149
287	0.148
288	0.147
288	0.146
289	0.144
289	0.143
290	0.142
290	0.141
291	0.14
291	0.139
292	0.138
292	0.137
292	0.136
293	0.135
293	0.134
294	0.133
294	0.132
295	0.132
295	0.131
296	0.13
296	0.13
297	0.129
297	0.129
298	0.128
298	0.128
298	0.127
299	0.127
299	0.127
300	0.126
300	0.126
301	0.125
301	0.125
302	0.124
302	0.124
303	0.123
303	0.123
304	0.123
304	0.122
305	0.122
305	0.121
305	0.121
306	0.12
306	0.12
307	0.12
307	0.119
308	0.119
308	0.119
309	0.118
309	0.118
310	0.117
310	0.117
311	0.117
311	0.116
311	0.116
312	0.115
312	0.115
313	0.114
313	0.114
314	0.113
314	0.113
315	0.113
315	0.112
316	0.112
316	0.111
317	0.111
317	0.11
318	0.11
318	0.11
318	0.109
319	0.109
319	0.108
320	0.108
320	0.108
321	0.107
321	0.107
322	0.106
322	0.106
323	0.105
323	0.105
324	0.104
324	0.104
324	0.103
325	0.103
325	0.102
326	0.102
326	0.101
327	0.101
327	0.1
328	0.1
328	0.099
329	0.099
329	0.098
330	0.098
330	0.098
330	0.097
331	0.097
331	0.096
332	0.096
332	0.095
333	0.095
333	0.095
334	0.094
334	0.094
335	0.093
335	0.093
336	0.093
336	0.092
336	0.092
337	0.091
337	0.091
338	0.091
338	0.09
339	0.09
339	0.09
340	0.09
340	0.089
341	0.089
341	0.089
342	0.088
342	0.088
342	0.088
343	0.087
343	0.087
344	0.086
344	0.086
345	0.086
345	0.085
346	0.085
346	0.084
347	0.084
347	0.084
348	0.083
348	0.083
348	0.083
349	0.082
349	0.082
350	0.082
350	0.081
351	0.081
351	0.081
352	0.08
352	0.08
353	0.08
353	0.079
354	0.079
354	0.079
354	0.079
355	0.078
355	0.078
356	0.078
356	0.078
357	0.077
357	0.077
358	0.077
358	0.077
359	0.077
359	0.076
360	0.076
360	0.076
360	0.076
361	0.076
361	0.076
362	0.077
362	0.077
363	0.077
363	0.077
364	0.076
364	0.076
365	0.076
365	0.076
366	0.076
366	0.075
366	0.075
367	0.075
367	0.075
368	0.075
368	0.074
369	0.074
369	0.074
370	0.074
370	0.074
371	0.074
371	0.074
372	0.074
372	0.074
372	0.074
373	0.074
373	0.074
374	0.074
374	0.074
375	0.074
375	0.074
376	0.074
376	0.074
377	0.074
377	0.075
378	0.075
378	0.075
378	0.075
379	0.075
379	0.075
380	0.074
380	0.074
381	0.074
381	0.074
382	0.074
382	0.074
383	0.073
383	0.073
383	0.073
384	0.073
384	0.072
385	0.072
385	0.073
386	0.073
386	0.073
387	0.073
387	0.073
388	0.073
388	0.073
389	0.073
389	0.073
389	0.073
390	0.073
390	0.073
391	0.073
391	0.073
392	0.073
392	0.073
393	0.073
393	0.073
394	0.073
394	0.073
394	0.073
395	0.073
395	0.072
396	0.072
396	0.073
397	0.073
397	0.073
398	0.073
398	0.072
399	0.072
399	0.072
400	0.072
400	0.072
400	0.072
401	0.071
401	0.071
402	0.07
402	0.07
403	0.071
403	0.071
404	0.071
404	0.071
405	0.071
405	0.071
405	0.071
406	0.071
406	0.071
407	0.071
407	0.07
408	0.07
408	0.069
409	0.069
409	0.069
410	0.069
410	0.069
411	0.07
411	0.07
411	0.07
412	0.07
412	0.07
413	0.069
413	0.069
414	0.069
414	0.069
415	0.069
415	0.068
416	0.068
416	0.068
416	0.068
417	0.068
417	0.068
418	0.068
418	0.068
419	0.069
419	0.069
420	0.07
420	0.07
421	0.07
421	0.07
421	0.071
422	0.071
422	0.071
423	0.071
423	0.071
424	0.071
424	0.07
425	0.07
425	0.07
426	0.07
426	0.069
427	0.07
427	0.07
427	0.07
428	0.07
428	0.07
429	0.07
429	0.07
430	0.07
430	0.07
431	0.07
431	0.07
432	0.07
432	0.069
432	0.069
433	0.068
433	0.068
434	0.068
434	0.069
435	0.069
435	0.069
436	0.069
436	0.069
437	0.069
437	0.069
437	0.069
438	0.069
438	0.069
439	0.069
439	0.068
440	0.068
440	0.068
441	0.068
441	0.068
442	0.068
442	0.068
442	0.068
443	0.068
443	0.068
444	0.068
444	0.069
445	0.069
445	0.069
446	0.069
446	0.069
447	0.069
447	0.069
447	0.07
448	0.07
448	0.069
449	0.069
449	0.069
450	0.069
450	0.069
451	0.069
451	0.069
452	0.069
452	0.069
452	0.068
453	0.068
453	0.068
454	0.068
454	0.068
455	0.068
455	0.068
456	0.068
456	0.068
457	0.068
457	0.068
458	0.068
458	0.068
458	0.068
459	0.068
459	0.068
460	0.067
460	0.067
461	0.067
461	0.067
462	0.067
462	0.067
463	0.067
463	0.068
463	0.068
464	0.068
464	0.068
465	0.068
465	0.069
466	0.069
466	0.07
467	0.07
467	0.07
467	0.069
468	0.069
468	0.068
469	0.068
469	0.068
470	0.068
470	0.068
471	0.068
471	0.068
472	0.068
472	0.068
472	0.069
473	0.069
473	0.07
474	0.07
474	0.07
475	0.071
475	0.071
476	0.071
476	0.071
477	0.071
477	0.07
477	0.071
478	0.07
478	0.071
479	0.071
479	0.071
480	0.072
480	0.072
481	0.072
481	0.073
482	0.074
482	0.075
482	0.076
483	0.077
483	0.079
484	0.08
484	0.08
485	0.08
485	0.08
486	0.081
486	0.081
487	0.081
487	0.081
487	0.081
488	0.081
488	0.08
489	0.08
489	0.081
490	0.082
490	0.082
491	0.082
491	0.083
492	0.084
492	0.084
492	0.084
493	0.084
493	0.085
494	0.087
494	0.088
495	0.088
495	0.089
496	0.089
496	0.09
496	0.091
497	0.092
497	0.093
498	0.093
498	0.094
499	0.094
499	0.095
500	0.096
500	0.097
501	0.098
501	0.099
501	0.099
502	0.1
502	0.101
503	0.102
503	0.103
504	0.103
504	0.103
505	0.103
505	0.104
506	0.104
506	0.105
506	0.105
507	0.106
507	0.106
508	0.107
508	0.108
509	0.109
509	0.11
510	0.111
510	0.112
511	0.112
511	0.113
511	0.113
512	0.113
512	0.114
513	0.113
513	0.113
514	0.113
514	0.113
515	0.113
515	0.113
515	0.113
516	0.113
516	0.114
517	0.115
517	0.115
518	0.115
518	0.115
519	0.115
519	0.114
520	0.114
520	0.114
520	0.113
521	0.113
521	0.111
522	0.11
522	0.11
523	0.111
523	0.111
524	0.111
524	0.111
524	0.111
525	0.112
525	0.112
526	0.113
526	0.113
527	0.113
527	0.113
528	0.113
528	0.113
529	0.113
529	0.112
529	0.113
530	0.113
530	0.112
531	0.112
531	0.112
532	0.112
532	0.112
533	0.112
533	0.111
533	0.111
534	0.11
534	0.109
535	0.109
535	0.109
536	0.108
536	0.107
537	0.107
537	0.106
538	0.106
538	0.105
538	0.104
539	0.104
539	0.103
540	0.102
540	0.1
541	0.099
541	0.098
542	0.097
542	0.096
542	0.094
543	0.093
543	0.092
544	0.091
544	0.09
545	0.09
545	0.09
546	0.09
546	0.089
547	0.088
547	0.087
547	0.086
548	0.085
548	0.085
549	0.084
549	0.084
550	0.083
550	0.081
551	0.08
551	0.079
551	0.079
552	0.079
552	0.078
553	0.077
553	0.077
554	0.076
554	0.074
555	0.073
555	0.071
556	0.069
556	0.068
556	0.066
557	0.065
557	0.064
558	0.063
558	0.062
559	0.061
559	0.06
560	0.059
560	0.059
560	0.058
561	0.058
561	0.058
562	0.058
562	0.056
563	0.055
563	0.053
564	0.052
564	0.051
564	0.05
565	0.05
565	0.049
566	0.048
566	0.047
567	0.047
567	0.047
568	0.048
568	0.048
568	0.049
569	0.05
569	0.05
570	0.05
570	0.048
571	0.048
571	0.049
572	0.048
572	0.048
573	0.047
573	0.046
573	0.044
574	0.043
574	0.043
575	0.043
575	0.044
576	0.045
576	0.043
577	0.041
577	0.04
577	0.041
578	0.041
578	0.041
579	0.042
579	0.043
580	0.041
580	0.037
581	0.034
581	0.033
581	0.033
582	0.033
582	0.033
583	0.034
583	0.033
584	0.029
584	0.025
585	0.025
585	0.027
585	0.028
586	0.029
586	0.029
587	0.027
587	0.025
588	0.023
588	0.022
589	0.023
589	0.023
590	0.024
590	0.024
590	0.026
591	0.027
591	0.026
592	0.025
592	0.024
593	0.024
593	0.024
594	0.023
594	0.022
594	0.021
595	0.02
595	0.019
596	0.018
596	0.02
597	0.024
597	0.025
598	0.025
598	0.026
598	0.026
599	0.027
599	0.026
600	0.025
600	0.024
601	0.024
601	0.023
602	0.021
602	0.021
602	0.02
603	0.021
603	0.023
604	0.025
604	0.026
605	0.028
605	0.03
606	0.031
606	0.03
606	0.03
607	0.029
607	0.03
608	0.029
608	0.027
609	0.026
609	0.026
610	0.025
610	0.024
610	0.025
611	0.026
611	0.028
612	0.029
612	0.031
613	0.032
613	0.034
614	0.033
614	0.031
614	0.031
615	0.03
615	0.029
616	0.028
616	0.027
617	0.026
617	0.025
618	0.024
618	0.023
618	0.024
619	0.025
619	0.026
620	0.028
620	0.029
621	0.029
621	0.03
622	0.03
622	0.03
622	0.03
623	0.029
623	0.03
624	0.031
624	0.03
625	0.029
625	0.029
626	0.029
626	0.029
626	0.03
627	0.031
627	0.031
628	0.032
628	0.033
629	0.033
629	0.033
630	0.033
630	0.032
630	0.033
631	0.034
631	0.034
632	0.034
632	0.035
633	0.036
633	0.037
634	0.038
634	0.04
634	0.041
635	0.042
635	0.043
636	0.044
636	0.045
637	0.046
637	0.046
638	0.047
638	0.048
638	0.049
639	0.049
639	0.049
640	0.05
640	0.051
641	0.051
641	0.052
642	0.053
642	0.054
642	0.055
643	0.055
643	0.056
644	0.057
644	0.058
645	0.06
645	0.061
646	0.063
646	0.065
646	0.068
647	0.07
647	0.072
648	0.073
648	0.074
649	0.076
649	0.078
650	0.08
650	0.082
650	0.083
651	0.084
651	0.086
652	0.087
652	0.089
653	0.091
653	0.1
653	0.116
654	0.095
654	0.079
655	0.075
655	0.075
656	0.076
656	0.077
657	0.078
657	0.079
657	0.079
658	0.076
658	0.062
659	0.079
659	0.101
660	0.113
660	0.115
661	0.116
661	0.118
661	0.121
662	0.124
662	0.128
663	0.13
663	0.133
664	0.135
664	0.137
665	0.139
665	0.141
665	0.143
666	0.144
666	0.144
667	0.145
667	0.146
668	0.147
668	0.148
669	0.15
669	0.152
669	0.155
670	0.157
670	0.158
671	0.159
671	0.16
672	0.162
672	0.164
672	0.165
673	0.166
673	0.168
674	0.169
674	0.169
675	0.17
675	0.171
676	0.173
676	0.175
676	0.175
677	0.177
677	0.178
678	0.178
678	0.178
679	0.179
679	0.179
680	0.181
680	0.182
680	0.182
681	0.182
681	0.183
682	0.184
682	0.185
683	0.186
683	0.188
684	0.189
684	0.189
684	0.188
685	0.188
685	0.189
686	0.189
686	0.189
687	0.188
687	0.189
687	0.188
688	0.188
688	0.187
689	0.188
689	0.189
690	0.189
690	0.188
691	0.187
691	0.186
691	0.185
692	0.183
692	0.182
693	0.181
693	0.181
694	0.179
694	0.177
695	0.177
695	0.178
695	0.178
696	0.176
696	0.174
697	0.174
697	0.172
698	0.171
698	0.169
698	0.168
699	0.168
699	0.166
700	0.163
700	0.163
701	0.164
701	0.164
702	0.163
702	0.163
702	0.162
703	0.162
703	0.161
704	0.16
704	0.16
705	0.16
705	0.159
705	0.157
706	0.156
706	0.155
707	0.154
707	0.152
708	0.15
708	0.149
709	0.148
709	0.146
709	0.143
710	0.141
710	0.139
711	0.138
711	0.137
712	0.135
712	0.133
713	0.131
713	0.129
713	0.127
714	0.125
714	0.123
715	0.122
715	0.121
716	0.119
716	0.118
716	0.117
717	0.116
717	0.115
718	0.113
718	0.112
719	0.111
719	0.11
720	0.108
720	0.106
720	0.104
721	0.102
721	0.1
722	0.098
722	0.096
723	0.095
723	0.094
723	0.093
724	0.091
724	0.09
725	0.089
725	0.087
726	0.086
726	0.085
727	0.084
727	0.083
727	0.081
728	0.08
728	0.079
729	0.079
729	0.079
730	0.078
730	0.077
730	0.076
731	0.075
731	0.074
732	0.074
732	0.073
733	0.071
733	0.07
734	0.069
734	0.067
734	0.066
735	0.066
735	0.065
736	0.063
736	0.063
737	0.063
737	0.063
737	0.062
738	0.06
738	0.058
739	0.057
739	0.055
740	0.054
740	0.053
741	0.052
741	0.05
741	0.047
742	0.044
742	0.043
743	0.042
743	0.041
744	0.04
744	0.039
744	0.037
745	0.035
745	0.034
746	0.032
746	0.032
747	0.031
747	0.03
748	0.03
748	0.029
748	0.027
749	0.026
749	0.025
750	0.024
750	0.023
751	0.023
751	0.023
751	0.023
752	0.023
752	0.022
753	0.022
753	0.023
754	0.023
754	0.022
754	0.023
755	0.023
755	0.024
756	0.023
756	0.02
757	0.018
757	0.018
758	0.017
758	0.015
758	0.015
759	0.014
759	0.011
760	0.009
760	0.006
761	0.005
761	0.006
761	0.005
762	0.004
762	0.004
763	0.004
763	0.002
764	0
764	-0.001
764	-0.002
765	-0.004
765	-0.005
766	-0.006
766	-0.006
767	-0.008
767	-0.011
768	-0.013
768	-0.014
768	-0.014
769	-0.015
769	-0.015
770	-0.017
770	-0.018
771	-0.02
771	-0.022
771	-0.023
772	-0.024
772	-0.025
773	-0.027
773	-0.028
774	-0.03
774	-0.032
775	-0.033
775	-0.035
775	-0.037
776	-0.039
776	-0.041
777	-0.043
777	-0.045
778	-0.048
778	-0.05
778	-0.052
779	-0.053
779	-0.055
780	-0.058
780	-0.061
781	-0.063
781	-0.066
781	-0.069
782	-0.073
782	-0.077
783	-0.081
783	-0.086
784	-0.091
784	-0.096
784	-0.101
785	-0.107
785	-0.113
786	-0.118
786	-0.121
787	-0.122
787	-0.124
788	-0.129
788	-0.135
788	-0.14
789	-0.145
789	-0.147
790	-0.147
790	-0.149
791	-0.151
791	-0.153
791	-0.155
792	-0.15
792	-0.139
793	-0.133
793	-0.129
794	-0.128
794	-0.13
794	-0.134
795	-0.136
795	-0.137
796	-0.137
796	-0.14
797	-0.149
797	-0.16
797	-0.167
798	-0.172
798	-0.175
799	-0.175
799	-0.174
800	-0.174
800	-0.175
801	-0.178
801	-0.179
801	-0.179
802	-0.18
802	-0.182
803	-0.182
803	-0.183
804	-0.182
804	-0.177
804	-0.17
805	-0.167
805	-0.164
806	-0.162
806	-0.161
807	-0.16
807	-0.159
807	-0.159
808	-0.159
808	-0.161
809	-0.166
809	-0.171
810	-0.175
810	-0.178
810	-0.182
811	-0.185
811	-0.185
812	-0.181
812	-0.178
813	-0.178
813	-0.179
813	-0.179
814	-0.18
814	-0.179
815	-0.176
815	-0.172
816	-0.169
816	-0.167
817	-0.168
817	-0.166
817	-0.161
818	-0.154
818	-0.145
819	-0.136
819	-0.128
820	-0.122
820	-0.115
820	-0.108
821	-0.1
821	-0.093
822	-0.087
822	-0.082
823	-0.078
823	-0.075
823	-0.073
824	-0.07
824	-0.066
825	-0.063
825	-0.06
826	-0.058
826	-0.057
826	-0.056
827	-0.054
827	-0.053
828	-0.052
828	-0.052
829	-0.051
829	-0.05
829	-0.049
830	-0.049
830	-0.048
831	-0.046
831	-0.045
832	-0.044
832	-0.042
832	-0.041
833	-0.04
833	-0.039
834	-0.038
834	-0.036
835	-0.035
835	-0.034
835	-0.033
836	-0.032
836	-0.03
837	-0.029
837	-0.028
838	-0.028
838	-0.027
839	-0.027
839	-0.027
839	-0.027
840	-0.028
840	-0.028
841	-0.028
841	-0.028
842	-0.029
842	-0.029
842	-0.028
843	-0.028
843	-0.028
844	-0.027
844	-0.026
845	-0.025
845	-0.024
845	-0.023
846	-0.022
846	-0.022
847	-0.022
847	-0.022
848	-0.022
848	-0.023
848	-0.023
849	-0.024
849	-0.024
850	-0.025
850	-0.025
851	-0.025
851	-0.025
851	-0.025
852	-0.025
852	-0.024
853	-0.024
853	-0.024
854	-0.024
854	-0.024
854	-0.024
855	-0.025
855	-0.025
856	-0.026
856	-0.026
857	-0.026
857	-0.027
857	-0.026
858	-0.026
858	-0.026
859	-0.026
859	-0.026
860	-0.025
860	-0.025
860	-0.024
861	-0.023
861	-0.023
862	-0.023
862	-0.023
863	-0.023
863	-0.023
863	-0.022
864	-0.022
864	-0.022
865	-0.021
865	-0.021
866	-0.02
866	-0.02
866	-0.019
867	-0.018
867	-0.016
868	-0.015
868	-0.013
869	-0.012
869	-0.011
869	-0.01
870	-0.009
870	-0.009
871	-0.009
871	-0.01
872	-0.01
872	-0.012
872	-0.013
873	-0.014
873	-0.015
874	-0.016
874	-0.016
875	-0.017
875	-0.017
875	-0.018
876	-0.017
876	-0.017
877	-0.017
877	-0.016
878	-0.016
878	-0.015
878	-0.015
879	-0.014
879	-0.015
880	-0.015
880	-0.015
881	-0.016
881	-0.016
881	-0.017
882	-0.017
882	-0.018
883	-0.019
883	-0.02
884	-0.02
884	-0.02
884	-0.02
885	-0.02
885	-0.019
886	-0.018
886	-0.017
887	-0.016
887	-0.016
887	-0.015
888	-0.015
888	-0.015
889	-0.014
889	-0.014
890	-0.014
890	-0.014
890	-0.015
891	-0.016
891	-0.017
892	-0.018
892	-0.019
893	-0.02
893	-0.02
893	-0.021
894	-0.021
894	-0.022
895	-0.022
895	-0.022
895	-0.023
896	-0.024
896	-0.024
897	-0.024
897	-0.024
898	-0.024
898	-0.025
898	-0.025
899	-0.024
899	-0.024
900	-0.023
900	-0.021
901	-0.019
901	-0.018
901	-0.016
902	-0.015
902	-0.014
903	-0.013
903	-0.012
904	-0.012
904	-0.012
904	-0.012
905	-0.012
905	-0.012
906	-0.012
906	-0.013
907	-0.013
907	-0.013
907	-0.013
908	-0.014
908	-0.014
909	-0.014
909	-0.014
910	-0.013
910	-0.013
910	-0.013
911	-0.012
911	-0.011
912	-0.01
912	-0.009
913	-0.008
913	-0.008
913	-0.007
914	-0.007
914	-0.008
915	-0.009
915	-0.01
916	-0.011
916	-0.012
916	-0.013
917	-0.015
917	-0.016
918	-0.017
918	-0.019
918	-0.019
919	-0.02
919	-0.02
920	-0.019
920	-0.019
921	-0.019
921	-0.019
921	-0.018
922	-0.017
922	-0.016
923	-0.015
923	-0.015
924	-0.014
924	-0.014
924	-0.014
925	-0.014
925	-0.014
926	-0.015
926	-0.015
927	-0.016
927	-0.017
927	-0.018
928	-0.019
928	-0.02
929	-0.02
929	-0.021
930	-0.022
930	-0.022
930	-0.022
931	-0.023
931	-0.023
932	-0.024
932	-0.024
933	-0.025
933	-0.025
933	-0.026
934	-0.026
934	-0.027
935	-0.028
935	-0.028
935	-0.028
936	-0.029
936	-0.029
937	-0.028
937	-0.028
938	-0.028
938	-0.028
938	-0.027
939	-0.027
939	-0.026
940	-0.025
940	-0.024
941	-0.024
941	-0.023
941	-0.022
942	-0.021
942	-0.02
943	-0.02
943	-0.02
944	-0.02
944	-0.02
944	-0.02
945	-0.02
945	-0.02
946	-0.02
946	-0.02
946	-0.021
947	-0.021
947	-0.022
948	-0.022
948	-0.023
949	-0.023
949	-0.024
949	-0.024
950	-0.025
950	-0.025
951	-0.025
951	-0.025
952	-0.025
952	-0.025
952	-0.025
953	-0.024
953	-0.024
954	-0.025
954	-0.025
955	-0.025
955	-0.025
955	-0.025
956	-0.024
956	-0.024
957	-0.025
957	-0.025
957	-0.026
958	-0.027
958	-0.027
959	-0.028
959	-0.029
960	-0.03
960	-0.031
960	-0.033
961	-0.034
961	-0.035
962	-0.036
962	-0.036
963	-0.037
963	-0.037
963	-0.036
964	-0.036
964	-0.035
965	-0.033
965	-0.032
966	-0.03
966	-0.029
966	-0.028
967	-0.027
967	-0.026
968	-0.025
968	-0.025
968	-0.025
969	-0.025
969	-0.026
970	-0.026
970	-0.027
971	-0.027
971	-0.028
971	-0.028
972	-0.028
972	-0.028
973	-0.028
973	-0.028
974	-0.028
974	-0.029
974	-0.029
975	-0.029
975	-0.029
976	-0.029
976	-0.03
976	-0.031
977	-0.032
977	-0.033
978	-0.034
978	-0.035
979	-0.036
979	-0.037
979	-0.038
980	-0.039
980	-0.04
981	-0.04
981	-0.04
982	-0.04
982	-0.039
982	-0.038
983	-0.037
983	-0.037
984	-0.036
984	-0.036
984	-0.035
985	-0.035
985	-0.035
986	-0.036
986	-0.036
987	-0.036
987	-0.036
987	-0.036
988	-0.036
988	-0.035
989	-0.035
989	-0.034
990	-0.033
990	-0.031
990	-0.029
991	-0.028
991	-0.026
992	-0.025
992	-0.023
992	-0.022
993	-0.022
993	-0.021
994	-0.021
994	-0.021
995	-0.021
995	-0.021
995	-0.022
996	-0.022
996	-0.023
997	-0.023
997	-0.023
997	-0.023
998	-0.023
998	-0.023
999	-0.023
999	-0.023
1000	-0.022
1000	-0.022
1000	-0.022
1001	-0.022
1001	-0.022
1002	-0.022
1002	-0.023
1003	-0.023
1003	-0.023
1003	-0.024
1004	-0.024
1004	-0.025
1005	-0.026
1005	-0.026
1005	-0.027
1006	-0.028
1006	-0.029
1007	-0.03
1007	-0.031
1008	-0.031
1008	-0.032
1008	-0.033
1009	-0.033
1009	-0.033
1010	-0.033
1010	-0.033
1010	-0.033
1011	-0.033
1011	-0.033
1012	-0.033
1012	-0.033
1013	-0.033
1013	-0.034
1013	-0.036
1014	-0.037
1014	-0.038
1015	-0.039
1015	-0.04
1016	-0.041
1016	-0.042
1016	-0.043
1017	-0.043
1017	-0.044
1018	-0.044
1018	-0.043
1018	-0.043
1019	-0.042
1019	-0.042
1020	-0.042
1020	-0.041
1021	-0.041
1021	-0.041
1021	-0.04
1022	-0.04
1022	-0.04
1023	-0.039
1023	-0.039
1023	-0.039
1024	-0.04
1024	-0.04
1025	-0.041
1025	-0.042
1026	-0.043
1026	-0.044
1026	-0.045
1027	-0.046
1027	-0.046
1028	-0.047
1028	-0.047
1028	-0.047
1029	-0.047
1029	-0.047
1030	-0.047
1030	-0.047
1031	-0.047
1031	-0.047
1031	-0.047
1032	-0.047
1032	-0.047
1033	-0.048
1033	-0.048
1033	-0.048
1034	-0.049
1034	-0.05
1035	-0.05
1035	-0.051
1036	-0.052
1036	-0.052
1036	-0.052
1037	-0.052
1037	-0.052
1038	-0.052
1038	-0.051
1039	-0.05
1039	-0.05
1039	-0.049
1040	-0.049
1040	-0.049
1041	-0.048
1041	-0.048
1041	-0.048
1042	-0.049
1042	-0.049
1043	-0.05
1043	-0.051
1044	-0.051
1044	-0.052
1044	-0.052
1045	-0.053
1045	-0.053
1046	-0.054
1046	-0.055
1046	-0.055
1047	-0.055
1047	-0.055
1048	-0.055
1048	-0.055
1049	-0.055
1049	-0.056
1049	-0.057
1050	-0.058
1050	-0.059
1051	-0.06
1051	-0.06
1051	-0.061
1052	-0.062
1052	-0.063
1053	-0.064
1053	-0.064
1053	-0.065
1054	-0.065
1054	-0.065
1055	-0.065
1055	-0.065
1056	-0.066
1056	-0.067
1056	-0.068
1057	-0.069
1057	-0.069
1058	-0.069
1058	-0.07
1058	-0.07
1059	-0.07
1059	-0.07
1060	-0.07
1060	-0.069
1061	-0.068
1061	-0.067
1061	-0.065
1062	-0.065
1062	-0.064
1063	-0.063
1063	-0.063
1063	-0.062
1064	-0.061
1064	-0.061
1065	-0.061
1065	-0.061
1066	-0.06
1066	-0.06
1066	-0.06
1067	-0.059
1067	-0.059
1068	-0.059
1068	-0.059
1068	-0.059
1069	-0.059
1069	-0.06
1070	-0.061
1070	-0.061
1071	-0.062
1071	-0.062
1071	-0.063
1072	-0.064
1072	-0.064
1073	-0.064
1073	-0.064
1073	-0.064
1074	-0.063
1074	-0.063
1075	-0.063
1075	-0.063
1076	-0.064
1076	-0.063
1076	-0.064
1077	-0.064
1077	-0.064
1078	-0.064
1078	-0.064
1078	-0.064
1079	-0.064
1079	-0.063
1080	-0.064
1080	-0.063
1080	-0.064
1081	-0.063
1081	-0.063
1082	-0.062
1082	-0.063
1083	-0.063
1083	-0.063
1083	-0.063
1084	-0.062
1084	-0.062
1085	-0.061
1085	-0.06
1085	-0.059
1086	-0.058
1086	-0.058
1087	-0.056
1087	-0.056
1088	-0.056
1088	-0.056
1088	-0.056
1089	-0.057
1089	-0.057
1090	-0.057
1090	-0.057
1090	-0.057
1091	-0.057
1091	-0.056
1092	-0.057
1092	-0.055
1092	-0.053
1093	-0.052
1093	-0.05
1094	-0.048
1094	-0.047
1095	-0.047
1095	-0.046
1095	-0.044
1096	-0.043
1096	-0.042
1097	-0.041
1097	-0.041
1097	-0.04
1098	-0.041
1098	-0.04
1099	-0.039
1099	-0.038
1100	-0.036
1100	-0.036
1100	-0.035
1101	-0.033
1101	-0.032
1102	-0.029
1102	-0.027
1102	-0.024
1103	-0.021
1103	-0.017
1104	-0.014
1104	-0.009
1104	-0.003
1105	0.002
1105	0.007
1106	0.009
1106	0.015
1107	0.019
1107	0.028
1107	0.037
1108	0.073
1108	0.123
1109	0.191
1109	0.302
1109	0.389
1110	0.569
1110	1.225
1111	-0
1111	-0
