Data from 15c-2a-fridge-noshake_Absorbance__350__06587.txt Node

Date: Wed Jan 17 18:49:02 CET 2024
User: Marek
Spectrometer: MAYP115816
Trigger mode: 0
Integration Time (sec): 2.000000E-1
Scans to average: 10
Electric dark correction enabled: true
Nonlinearity correction enabled: true
Boxcar width: 5
XAxis mode: Wavelengths
Number of Pixels in Spectrum: 2068
>>>>>Begin Spectral Data<<<<<
199	-1.607
199	-1.471
200	-1.314
200	-1.194
201	-1.119
201	-1.073
202	-1.005
202	-0.956
203	-0.913
203	-0.876
204	-0.852
204	-0.83
205	-0.807
205	-0.797
205	-0.796
206	-0.795
206	-0.792
207	-0.79
207	-0.786
208	-0.784
208	-0.783
209	-0.779
209	-0.778
210	-0.778
210	-0.778
211	-0.777
211	-0.776
212	-0.778
212	-0.777
213	-0.776
213	-0.776
213	-0.776
214	-0.776
214	-0.775
215	-0.773
215	-0.773
216	-0.774
216	-0.772
217	-0.767
217	-0.766
218	-0.765
218	-0.762
219	-0.759
219	-0.758
220	-0.754
220	-0.752
221	-0.748
221	-0.744
221	-0.74
222	-0.737
222	-0.733
223	-0.727
223	-0.724
224	-0.719
224	-0.712
225	-0.705
225	-0.698
226	-0.69
226	-0.678
227	-0.666
227	-0.653
228	-0.639
228	-0.622
229	-0.603
229	-0.58
229	-0.554
230	-0.527
230	-0.497
231	-0.465
231	-0.432
232	-0.398
232	-0.362
233	-0.324
233	-0.285
234	-0.248
234	-0.211
235	-0.176
235	-0.143
236	-0.112
236	-0.084
236	-0.056
237	-0.031
237	-0.008
238	0.012
238	0.03
239	0.047
239	0.062
240	0.075
240	0.087
241	0.097
241	0.107
242	0.115
242	0.122
243	0.129
243	0.135
243	0.14
244	0.145
244	0.15
245	0.153
245	0.157
246	0.161
246	0.164
247	0.167
247	0.17
248	0.172
248	0.175
249	0.177
249	0.179
250	0.181
250	0.183
250	0.185
251	0.187
251	0.189
252	0.19
252	0.192
253	0.193
253	0.194
254	0.196
254	0.197
255	0.198
255	0.199
256	0.2
256	0.2
257	0.201
257	0.201
258	0.201
258	0.201
258	0.202
259	0.202
259	0.201
260	0.201
260	0.201
261	0.201
261	0.201
262	0.2
262	0.2
263	0.199
263	0.198
264	0.198
264	0.197
265	0.196
265	0.196
265	0.194
266	0.193
266	0.192
267	0.191
267	0.19
268	0.188
268	0.187
269	0.186
269	0.184
270	0.182
270	0.181
271	0.179
271	0.178
272	0.176
272	0.174
272	0.173
273	0.171
273	0.17
274	0.168
274	0.166
275	0.165
275	0.163
276	0.162
276	0.161
277	0.159
277	0.158
278	0.156
278	0.155
278	0.152
279	0.15
279	0.147
280	0.145
280	0.143
281	0.141
281	0.139
282	0.137
282	0.135
283	0.133
283	0.131
284	0.13
284	0.13
285	0.129
285	0.128
285	0.127
286	0.125
286	0.124
287	0.123
287	0.122
288	0.121
288	0.12
289	0.119
289	0.118
290	0.117
290	0.116
291	0.115
291	0.115
292	0.114
292	0.113
292	0.112
293	0.112
293	0.111
294	0.11
294	0.11
295	0.109
295	0.108
296	0.108
296	0.107
297	0.107
297	0.107
298	0.106
298	0.106
298	0.106
299	0.106
299	0.106
300	0.105
300	0.105
301	0.105
301	0.105
302	0.104
302	0.104
303	0.104
303	0.104
304	0.103
304	0.103
305	0.103
305	0.103
305	0.103
306	0.102
306	0.102
307	0.102
307	0.102
308	0.102
308	0.102
309	0.102
309	0.101
310	0.101
310	0.101
311	0.101
311	0.101
311	0.101
312	0.1
312	0.1
313	0.1
313	0.1
314	0.1
314	0.099
315	0.099
315	0.099
316	0.099
316	0.098
317	0.098
317	0.098
318	0.098
318	0.097
318	0.097
319	0.097
319	0.097
320	0.096
320	0.096
321	0.096
321	0.095
322	0.095
322	0.095
323	0.095
323	0.094
324	0.094
324	0.094
324	0.093
325	0.093
325	0.093
326	0.092
326	0.092
327	0.092
327	0.092
328	0.091
328	0.091
329	0.091
329	0.09
330	0.09
330	0.09
330	0.089
331	0.089
331	0.089
332	0.088
332	0.088
333	0.087
333	0.087
334	0.087
334	0.086
335	0.086
335	0.086
336	0.085
336	0.085
336	0.084
337	0.084
337	0.084
338	0.084
338	0.083
339	0.083
339	0.083
340	0.082
340	0.082
341	0.082
341	0.082
342	0.081
342	0.081
342	0.081
343	0.081
343	0.08
344	0.08
344	0.08
345	0.079
345	0.079
346	0.079
346	0.078
347	0.078
347	0.078
348	0.077
348	0.077
348	0.077
349	0.077
349	0.076
350	0.076
350	0.076
351	0.075
351	0.075
352	0.075
352	0.075
353	0.074
353	0.074
354	0.074
354	0.073
354	0.073
355	0.073
355	0.072
356	0.072
356	0.072
357	0.071
357	0.071
358	0.071
358	0.071
359	0.071
359	0.071
360	0.071
360	0.071
360	0.071
361	0.071
361	0.072
362	0.072
362	0.072
363	0.072
363	0.071
364	0.071
364	0.071
365	0.071
365	0.071
366	0.071
366	0.071
366	0.071
367	0.071
367	0.071
368	0.071
368	0.071
369	0.07
369	0.071
370	0.071
370	0.071
371	0.071
371	0.071
372	0.071
372	0.071
372	0.071
373	0.071
373	0.071
374	0.071
374	0.071
375	0.071
375	0.071
376	0.071
376	0.071
377	0.071
377	0.071
378	0.071
378	0.071
378	0.071
379	0.072
379	0.072
380	0.072
380	0.072
381	0.072
381	0.072
382	0.072
382	0.072
383	0.072
383	0.072
383	0.071
384	0.071
384	0.071
385	0.071
385	0.071
386	0.071
386	0.071
387	0.071
387	0.071
388	0.071
388	0.071
389	0.071
389	0.071
389	0.071
390	0.071
390	0.072
391	0.072
391	0.072
392	0.072
392	0.072
393	0.072
393	0.072
394	0.072
394	0.072
394	0.072
395	0.072
395	0.071
396	0.071
396	0.072
397	0.072
397	0.072
398	0.072
398	0.072
399	0.072
399	0.072
400	0.072
400	0.072
400	0.072
401	0.071
401	0.071
402	0.071
402	0.071
403	0.071
403	0.071
404	0.071
404	0.071
405	0.071
405	0.07
405	0.07
406	0.07
406	0.07
407	0.07
407	0.07
408	0.07
408	0.07
409	0.069
409	0.069
410	0.069
410	0.07
411	0.07
411	0.07
411	0.07
412	0.07
412	0.07
413	0.069
413	0.069
414	0.069
414	0.069
415	0.069
415	0.069
416	0.068
416	0.068
416	0.068
417	0.068
417	0.068
418	0.068
418	0.069
419	0.069
419	0.069
420	0.07
420	0.07
421	0.071
421	0.071
421	0.071
422	0.071
422	0.071
423	0.072
423	0.071
424	0.071
424	0.07
425	0.07
425	0.07
426	0.07
426	0.07
427	0.07
427	0.07
427	0.07
428	0.07
428	0.07
429	0.071
429	0.07
430	0.07
430	0.07
431	0.07
431	0.07
432	0.07
432	0.069
432	0.069
433	0.069
433	0.068
434	0.068
434	0.069
435	0.069
435	0.068
436	0.068
436	0.069
437	0.069
437	0.068
437	0.068
438	0.068
438	0.068
439	0.068
439	0.068
440	0.068
440	0.068
441	0.068
441	0.068
442	0.068
442	0.068
442	0.068
443	0.068
443	0.068
444	0.068
444	0.068
445	0.069
445	0.069
446	0.069
446	0.068
447	0.068
447	0.068
447	0.068
448	0.068
448	0.068
449	0.068
449	0.068
450	0.068
450	0.068
451	0.068
451	0.067
452	0.067
452	0.067
452	0.067
453	0.067
453	0.067
454	0.067
454	0.067
455	0.067
455	0.067
456	0.067
456	0.067
457	0.067
457	0.067
458	0.067
458	0.067
458	0.067
459	0.067
459	0.066
460	0.065
460	0.065
461	0.064
461	0.064
462	0.064
462	0.065
463	0.065
463	0.065
463	0.065
464	0.065
464	0.065
465	0.065
465	0.065
466	0.065
466	0.065
467	0.065
467	0.065
467	0.064
468	0.064
468	0.063
469	0.062
469	0.063
470	0.063
470	0.062
471	0.062
471	0.062
472	0.062
472	0.062
472	0.062
473	0.062
473	0.063
474	0.063
474	0.063
475	0.064
475	0.064
476	0.064
476	0.064
477	0.063
477	0.063
477	0.063
478	0.063
478	0.063
479	0.063
479	0.063
480	0.063
480	0.063
481	0.063
481	0.063
482	0.064
482	0.064
482	0.065
483	0.066
483	0.067
484	0.068
484	0.067
485	0.067
485	0.067
486	0.067
486	0.067
487	0.067
487	0.067
487	0.067
488	0.067
488	0.065
489	0.065
489	0.066
490	0.066
490	0.067
491	0.067
491	0.067
492	0.067
492	0.067
492	0.067
493	0.067
493	0.068
494	0.068
494	0.069
495	0.069
495	0.07
496	0.07
496	0.071
496	0.072
497	0.072
497	0.072
498	0.073
498	0.073
499	0.073
499	0.073
500	0.073
500	0.074
501	0.074
501	0.075
501	0.075
502	0.075
502	0.076
503	0.077
503	0.077
504	0.077
504	0.076
505	0.076
505	0.076
506	0.076
506	0.077
506	0.077
507	0.077
507	0.077
508	0.077
508	0.078
509	0.078
509	0.079
510	0.079
510	0.08
511	0.08
511	0.08
511	0.08
512	0.081
512	0.081
513	0.08
513	0.08
514	0.08
514	0.08
515	0.08
515	0.08
515	0.079
516	0.079
516	0.08
517	0.08
517	0.081
518	0.081
518	0.081
519	0.081
519	0.08
520	0.08
520	0.08
520	0.079
521	0.078
521	0.078
522	0.076
522	0.076
523	0.076
523	0.076
524	0.076
524	0.076
524	0.076
525	0.077
525	0.078
526	0.079
526	0.079
527	0.081
527	0.081
528	0.082
528	0.083
529	0.083
529	0.083
529	0.084
530	0.084
530	0.084
531	0.085
531	0.086
532	0.086
532	0.086
533	0.087
533	0.087
533	0.087
534	0.087
534	0.087
535	0.087
535	0.087
536	0.087
536	0.087
537	0.088
537	0.088
538	0.088
538	0.087
538	0.087
539	0.088
539	0.088
540	0.088
540	0.088
541	0.088
541	0.088
542	0.088
542	0.088
542	0.088
543	0.088
543	0.088
544	0.088
544	0.088
545	0.089
545	0.09
546	0.091
546	0.091
547	0.09
547	0.089
547	0.089
548	0.089
548	0.089
549	0.089
549	0.089
550	0.089
550	0.089
551	0.088
551	0.089
551	0.09
552	0.091
552	0.091
553	0.092
553	0.093
554	0.093
554	0.092
555	0.091
555	0.091
556	0.09
556	0.09
556	0.089
557	0.089
557	0.089
558	0.089
558	0.088
559	0.088
559	0.089
560	0.089
560	0.089
560	0.089
561	0.09
561	0.09
562	0.09
562	0.089
563	0.089
563	0.088
564	0.087
564	0.087
564	0.087
565	0.087
565	0.088
566	0.087
566	0.087
567	0.088
567	0.089
568	0.09
568	0.09
568	0.092
569	0.093
569	0.094
570	0.094
570	0.093
571	0.094
571	0.095
572	0.095
572	0.095
573	0.094
573	0.094
573	0.093
574	0.093
574	0.094
575	0.094
575	0.096
576	0.097
576	0.096
577	0.095
577	0.094
577	0.095
578	0.095
578	0.096
579	0.098
579	0.099
580	0.098
580	0.094
581	0.092
581	0.091
581	0.091
582	0.092
582	0.092
583	0.093
583	0.092
584	0.089
584	0.085
585	0.085
585	0.087
585	0.088
586	0.088
586	0.088
587	0.086
587	0.084
588	0.082
588	0.081
589	0.081
589	0.082
590	0.083
590	0.083
590	0.085
591	0.087
591	0.087
592	0.087
592	0.085
593	0.086
593	0.086
594	0.085
594	0.083
594	0.082
595	0.082
595	0.08
596	0.078
596	0.08
597	0.083
597	0.084
598	0.084
598	0.085
598	0.086
599	0.086
599	0.086
600	0.085
600	0.084
601	0.084
601	0.083
602	0.081
602	0.081
602	0.08
603	0.081
603	0.082
604	0.084
604	0.085
605	0.087
605	0.088
606	0.089
606	0.087
606	0.087
607	0.086
607	0.086
608	0.085
608	0.082
609	0.081
609	0.081
610	0.079
610	0.077
610	0.077
611	0.079
611	0.08
612	0.081
612	0.083
613	0.084
613	0.085
614	0.084
614	0.082
614	0.081
615	0.081
615	0.08
616	0.079
616	0.077
617	0.076
617	0.074
618	0.073
618	0.072
618	0.072
619	0.073
619	0.074
620	0.076
620	0.076
621	0.076
621	0.076
622	0.076
622	0.076
622	0.076
623	0.075
623	0.075
624	0.075
624	0.073
625	0.072
625	0.072
626	0.071
626	0.071
626	0.071
627	0.071
627	0.071
628	0.071
628	0.071
629	0.071
629	0.071
630	0.07
630	0.07
630	0.07
631	0.071
631	0.071
632	0.071
632	0.071
633	0.071
633	0.072
634	0.073
634	0.073
634	0.074
635	0.074
635	0.074
636	0.074
636	0.074
637	0.074
637	0.073
638	0.074
638	0.074
638	0.075
639	0.075
639	0.075
640	0.075
640	0.076
641	0.077
641	0.077
642	0.078
642	0.079
642	0.079
643	0.079
643	0.079
644	0.08
644	0.08
645	0.081
645	0.081
646	0.082
646	0.084
646	0.085
647	0.087
647	0.088
648	0.089
648	0.09
649	0.091
649	0.093
650	0.094
650	0.095
650	0.096
651	0.096
651	0.097
652	0.098
652	0.099
653	0.101
653	0.108
653	0.124
654	0.101
654	0.083
655	0.079
655	0.08
656	0.08
656	0.081
657	0.081
657	0.081
657	0.081
658	0.077
658	0.063
659	0.08
659	0.102
660	0.112
660	0.113
661	0.114
661	0.115
661	0.117
662	0.12
662	0.122
663	0.124
663	0.126
664	0.127
664	0.128
665	0.129
665	0.131
665	0.131
666	0.132
666	0.132
667	0.133
667	0.133
668	0.134
668	0.135
669	0.136
669	0.138
669	0.141
670	0.143
670	0.144
671	0.145
671	0.146
672	0.148
672	0.149
672	0.15
673	0.15
673	0.152
674	0.152
674	0.152
675	0.152
675	0.153
676	0.155
676	0.157
676	0.157
677	0.158
677	0.16
678	0.16
678	0.161
679	0.161
679	0.162
680	0.164
680	0.164
680	0.164
681	0.164
681	0.165
682	0.166
682	0.166
683	0.167
683	0.168
684	0.169
684	0.168
684	0.168
685	0.168
685	0.169
686	0.17
686	0.17
687	0.17
687	0.17
687	0.171
688	0.171
688	0.17
689	0.172
689	0.173
690	0.172
690	0.171
691	0.171
691	0.17
691	0.17
692	0.169
692	0.168
693	0.168
693	0.169
694	0.167
694	0.166
695	0.167
695	0.169
695	0.169
696	0.168
696	0.167
697	0.167
697	0.167
698	0.166
698	0.164
698	0.164
699	0.164
699	0.162
700	0.161
700	0.161
701	0.162
701	0.162
702	0.161
702	0.161
702	0.16
703	0.16
703	0.159
704	0.159
704	0.159
705	0.159
705	0.159
705	0.158
706	0.158
706	0.157
707	0.157
707	0.156
708	0.155
708	0.154
709	0.154
709	0.153
709	0.151
710	0.149
710	0.148
711	0.148
711	0.147
712	0.146
712	0.146
713	0.145
713	0.144
713	0.143
714	0.141
714	0.14
715	0.14
715	0.139
716	0.137
716	0.137
716	0.137
717	0.136
717	0.136
718	0.135
718	0.135
719	0.135
719	0.135
720	0.134
720	0.133
720	0.132
721	0.13
721	0.13
722	0.129
722	0.128
723	0.127
723	0.127
723	0.126
724	0.125
724	0.124
725	0.123
725	0.122
726	0.121
726	0.12
727	0.12
727	0.119
727	0.118
728	0.117
728	0.117
729	0.118
729	0.118
730	0.118
730	0.117
730	0.117
731	0.117
731	0.116
732	0.116
732	0.116
733	0.114
733	0.113
734	0.112
734	0.11
734	0.11
735	0.11
735	0.109
736	0.107
736	0.107
737	0.107
737	0.107
737	0.107
738	0.105
738	0.102
739	0.102
739	0.1
740	0.098
740	0.097
741	0.096
741	0.095
741	0.092
742	0.089
742	0.088
743	0.089
743	0.088
744	0.088
744	0.088
744	0.088
745	0.087
745	0.086
746	0.086
746	0.085
747	0.085
747	0.085
748	0.085
748	0.084
748	0.083
749	0.082
749	0.082
750	0.081
750	0.081
751	0.081
751	0.081
751	0.081
752	0.08
752	0.079
753	0.079
753	0.079
754	0.079
754	0.079
754	0.08
755	0.081
755	0.081
756	0.081
756	0.079
757	0.078
757	0.078
758	0.078
758	0.076
758	0.076
759	0.075
759	0.072
760	0.07
760	0.067
761	0.066
761	0.065
761	0.064
762	0.063
762	0.063
763	0.063
763	0.06
764	0.058
764	0.057
764	0.056
765	0.054
765	0.053
766	0.052
766	0.052
767	0.051
767	0.048
768	0.045
768	0.044
768	0.043
769	0.043
769	0.042
770	0.041
770	0.039
771	0.037
771	0.035
771	0.033
772	0.031
772	0.029
773	0.027
773	0.025
774	0.022
774	0.019
775	0.016
775	0.013
775	0.01
776	0.007
776	0.004
777	0.001
777	-0.001
778	-0.004
778	-0.008
778	-0.01
779	-0.012
779	-0.014
780	-0.018
780	-0.021
781	-0.025
781	-0.03
781	-0.035
782	-0.041
782	-0.047
783	-0.053
783	-0.059
784	-0.067
784	-0.075
784	-0.082
785	-0.089
785	-0.097
786	-0.104
786	-0.109
787	-0.112
787	-0.116
788	-0.122
788	-0.129
788	-0.135
789	-0.142
789	-0.145
790	-0.146
790	-0.148
791	-0.151
791	-0.152
791	-0.155
792	-0.15
792	-0.139
793	-0.133
793	-0.129
794	-0.127
794	-0.13
794	-0.134
795	-0.136
795	-0.136
796	-0.137
796	-0.14
797	-0.149
797	-0.16
797	-0.166
798	-0.172
798	-0.174
799	-0.175
799	-0.174
800	-0.173
800	-0.175
801	-0.178
801	-0.178
801	-0.179
802	-0.18
802	-0.182
803	-0.182
803	-0.183
804	-0.182
804	-0.176
804	-0.17
805	-0.166
805	-0.164
806	-0.162
806	-0.161
807	-0.16
807	-0.159
807	-0.159
808	-0.159
808	-0.16
809	-0.165
809	-0.171
810	-0.175
810	-0.178
810	-0.181
811	-0.185
811	-0.185
812	-0.181
812	-0.178
813	-0.178
813	-0.179
813	-0.179
814	-0.18
814	-0.179
815	-0.176
815	-0.172
816	-0.168
816	-0.164
817	-0.163
817	-0.159
817	-0.152
818	-0.142
818	-0.131
819	-0.119
819	-0.108
820	-0.099
820	-0.089
820	-0.079
821	-0.07
821	-0.061
822	-0.054
822	-0.048
823	-0.042
823	-0.038
823	-0.035
824	-0.031
824	-0.026
825	-0.022
825	-0.018
826	-0.015
826	-0.013
826	-0.011
827	-0.009
827	-0.007
828	-0.005
828	-0.003
829	-0.001
829	0
829	0.001
830	0.002
830	0.003
831	0.006
831	0.007
832	0.008
832	0.01
832	0.011
833	0.012
833	0.013
834	0.015
834	0.016
835	0.018
835	0.019
835	0.02
836	0.022
836	0.023
837	0.024
837	0.025
838	0.025
838	0.026
839	0.026
839	0.027
839	0.027
840	0.027
840	0.027
841	0.027
841	0.028
842	0.029
842	0.03
842	0.031
843	0.031
843	0.032
844	0.033
844	0.033
845	0.034
845	0.034
845	0.034
846	0.034
846	0.034
847	0.033
847	0.033
848	0.032
848	0.032
848	0.031
849	0.031
849	0.03
850	0.029
850	0.028
851	0.028
851	0.028
851	0.028
852	0.027
852	0.028
853	0.028
853	0.028
854	0.029
854	0.029
854	0.029
855	0.029
855	0.028
856	0.028
856	0.028
857	0.028
857	0.027
857	0.027
858	0.027
858	0.027
859	0.026
859	0.026
860	0.026
860	0.026
860	0.025
861	0.025
861	0.024
862	0.023
862	0.023
863	0.022
863	0.022
863	0.022
864	0.021
864	0.022
865	0.022
865	0.023
866	0.023
866	0.024
866	0.025
867	0.026
867	0.028
868	0.029
868	0.03
869	0.032
869	0.032
869	0.033
870	0.033
870	0.034
871	0.034
871	0.034
872	0.033
872	0.032
872	0.031
873	0.03
873	0.029
874	0.028
874	0.028
875	0.028
875	0.028
875	0.028
876	0.029
876	0.029
877	0.03
877	0.03
878	0.03
878	0.03
878	0.03
879	0.03
879	0.029
880	0.028
880	0.027
881	0.026
881	0.025
881	0.024
882	0.023
882	0.022
883	0.021
883	0.021
884	0.02
884	0.02
884	0.019
885	0.02
885	0.02
886	0.021
886	0.021
887	0.022
887	0.022
887	0.023
888	0.024
888	0.024
889	0.025
889	0.026
890	0.027
890	0.027
890	0.027
891	0.027
891	0.026
892	0.026
892	0.025
893	0.025
893	0.025
893	0.024
894	0.024
894	0.023
895	0.022
895	0.021
895	0.02
896	0.019
896	0.018
897	0.017
897	0.016
898	0.016
898	0.016
898	0.016
899	0.017
899	0.017
900	0.018
900	0.02
901	0.021
901	0.022
901	0.024
902	0.025
902	0.026
903	0.026
903	0.027
904	0.027
904	0.027
904	0.028
905	0.028
905	0.029
906	0.029
906	0.029
907	0.029
907	0.029
907	0.028
908	0.028
908	0.027
909	0.027
909	0.026
910	0.026
910	0.025
910	0.025
911	0.024
911	0.025
912	0.025
912	0.025
913	0.026
913	0.026
913	0.027
914	0.027
914	0.027
915	0.027
915	0.026
916	0.026
916	0.025
916	0.024
917	0.023
917	0.022
918	0.021
918	0.021
918	0.02
919	0.02
919	0.02
920	0.02
920	0.021
921	0.022
921	0.022
921	0.023
922	0.024
922	0.025
923	0.025
923	0.026
924	0.026
924	0.026
924	0.026
925	0.026
925	0.025
926	0.024
926	0.024
927	0.023
927	0.022
927	0.021
928	0.02
928	0.019
929	0.018
929	0.017
930	0.017
930	0.016
930	0.016
931	0.016
931	0.015
932	0.015
932	0.015
933	0.015
933	0.015
933	0.015
934	0.014
934	0.014
935	0.013
935	0.012
935	0.011
936	0.01
936	0.009
937	0.009
937	0.008
938	0.007
938	0.007
938	0.006
939	0.006
939	0.006
940	0.007
940	0.007
941	0.008
941	0.008
941	0.009
942	0.01
942	0.011
943	0.011
943	0.011
944	0.012
944	0.012
944	0.012
945	0.012
945	0.012
946	0.012
946	0.012
946	0.011
947	0.011
947	0.011
948	0.01
948	0.01
949	0.01
949	0.01
949	0.01
950	0.01
950	0.01
951	0.01
951	0.01
952	0.01
952	0.01
952	0.01
953	0.01
953	0.01
954	0.01
954	0.009
955	0.008
955	0.008
955	0.007
956	0.008
956	0.007
957	0.007
957	0.007
957	0.006
958	0.006
958	0.005
959	0.005
959	0.005
960	0.005
960	0.004
960	0.004
961	0.003
961	0.002
962	0.002
962	0.001
963	0.001
963	0
963	0
964	0
964	0.001
965	0.002
965	0.002
966	0.003
966	0.004
966	0.005
967	0.006
967	0.007
968	0.007
968	0.007
968	0.007
969	0.006
969	0.005
970	0.004
970	0.003
971	0.002
971	0.001
971	-0
972	-0.001
972	-0.002
973	-0.002
973	-0.003
974	-0.003
974	-0.004
974	-0.004
975	-0.004
975	-0.004
976	-0.004
976	-0.004
976	-0.004
977	-0.005
977	-0.006
978	-0.007
978	-0.008
979	-0.009
979	-0.009
979	-0.01
980	-0.011
980	-0.012
981	-0.012
981	-0.012
982	-0.012
982	-0.012
982	-0.011
983	-0.011
983	-0.011
984	-0.011
984	-0.01
984	-0.01
985	-0.01
985	-0.01
986	-0.01
986	-0.01
987	-0.009
987	-0.009
987	-0.008
988	-0.007
988	-0.006
989	-0.005
989	-0.004
990	-0.003
990	-0.001
990	0.001
991	0.003
991	0.004
992	0.006
992	0.007
992	0.008
993	0.009
993	0.009
994	0.01
994	0.01
995	0.009
995	0.009
995	0.008
996	0.007
996	0.006
997	0.005
997	0.004
997	0.004
998	0.003
998	0.003
999	0.002
999	0.002
1000	0.002
1000	0.002
1000	0.002
1001	0.001
1001	0.001
1002	0.001
1002	0.001
1003	0.001
1003	0
1003	0
1004	-0
1004	-0.001
1005	-0.001
1005	-0.002
1005	-0.002
1006	-0.003
1006	-0.004
1007	-0.005
1007	-0.006
1008	-0.006
1008	-0.007
1008	-0.007
1009	-0.007
1009	-0.007
1010	-0.007
1010	-0.007
1010	-0.007
1011	-0.007
1011	-0.007
1012	-0.007
1012	-0.008
1013	-0.008
1013	-0.009
1013	-0.01
1014	-0.011
1014	-0.012
1015	-0.013
1015	-0.013
1016	-0.014
1016	-0.015
1016	-0.015
1017	-0.016
1017	-0.016
1018	-0.016
1018	-0.016
1018	-0.016
1019	-0.015
1019	-0.015
1020	-0.015
1020	-0.015
1021	-0.015
1021	-0.015
1021	-0.014
1022	-0.014
1022	-0.014
1023	-0.014
1023	-0.014
1023	-0.015
1024	-0.016
1024	-0.017
1025	-0.018
1025	-0.018
1026	-0.02
1026	-0.021
1026	-0.021
1027	-0.022
1027	-0.023
1028	-0.023
1028	-0.023
1028	-0.023
1029	-0.023
1029	-0.022
1030	-0.022
1030	-0.022
1031	-0.021
1031	-0.021
1031	-0.02
1032	-0.02
1032	-0.02
1033	-0.02
1033	-0.02
1033	-0.02
1034	-0.021
1034	-0.022
1035	-0.023
1035	-0.024
1036	-0.025
1036	-0.026
1036	-0.026
1037	-0.027
1037	-0.027
1038	-0.027
1038	-0.027
1039	-0.026
1039	-0.026
1039	-0.026
1040	-0.025
1040	-0.024
1041	-0.024
1041	-0.023
1041	-0.023
1042	-0.023
1042	-0.023
1043	-0.024
1043	-0.024
1044	-0.024
1044	-0.025
1044	-0.025
1045	-0.025
1045	-0.026
1046	-0.027
1046	-0.027
1046	-0.027
1047	-0.027
1047	-0.027
1048	-0.027
1048	-0.027
1049	-0.027
1049	-0.028
1049	-0.028
1050	-0.029
1050	-0.029
1051	-0.03
1051	-0.03
1051	-0.031
1052	-0.032
1052	-0.033
1053	-0.033
1053	-0.033
1053	-0.034
1054	-0.034
1054	-0.034
1055	-0.033
1055	-0.034
1056	-0.034
1056	-0.035
1056	-0.036
1057	-0.037
1057	-0.037
1058	-0.038
1058	-0.039
1058	-0.04
1059	-0.041
1059	-0.041
1060	-0.042
1060	-0.042
1061	-0.042
1061	-0.041
1061	-0.041
1062	-0.041
1062	-0.041
1063	-0.04
1063	-0.04
1063	-0.039
1064	-0.039
1064	-0.038
1065	-0.038
1065	-0.037
1066	-0.037
1066	-0.036
1066	-0.035
1067	-0.035
1067	-0.034
1068	-0.034
1068	-0.034
1068	-0.034
1069	-0.034
1069	-0.035
1070	-0.035
1070	-0.036
1071	-0.036
1071	-0.036
1071	-0.037
1072	-0.038
1072	-0.038
1073	-0.038
1073	-0.038
1073	-0.037
1074	-0.037
1074	-0.037
1075	-0.037
1075	-0.037
1076	-0.038
1076	-0.037
1076	-0.038
1077	-0.038
1077	-0.039
1078	-0.039
1078	-0.04
1078	-0.039
1079	-0.04
1079	-0.039
1080	-0.039
1080	-0.039
1080	-0.039
1081	-0.038
1081	-0.037
1082	-0.037
1082	-0.037
1083	-0.037
1083	-0.037
1083	-0.037
1084	-0.037
1084	-0.036
1085	-0.035
1085	-0.035
1085	-0.034
1086	-0.034
1086	-0.033
1087	-0.033
1087	-0.032
1088	-0.033
1088	-0.033
1088	-0.033
1089	-0.034
1089	-0.034
1090	-0.034
1090	-0.034
1090	-0.034
1091	-0.034
1091	-0.033
1092	-0.032
1092	-0.03
1092	-0.029
1093	-0.027
1093	-0.025
1094	-0.023
1094	-0.022
1095	-0.021
1095	-0.02
1095	-0.017
1096	-0.016
1096	-0.015
1097	-0.014
1097	-0.013
1097	-0.013
1098	-0.012
1098	-0.011
1099	-0.01
1099	-0.008
1100	-0.007
1100	-0.005
1100	-0.003
1101	-0.001
1101	0.001
1102	0.005
1102	0.009
1102	0.013
1103	0.017
1103	0.021
1104	0.026
1104	0.033
1104	0.041
1105	0.046
1105	0.051
1106	0.055
1106	0.063
1107	0.068
1107	0.079
1107	0.09
1108	0.135
1108	0.197
1109	0.286
1109	0.437
1109	0.573
1110	0.945
1110	-0
1111	-0
1111	-0
