Data from 15c-2a-fridge-noshake_Absorbance__279__06516.txt Node

Date: Wed Jan 17 18:46:40 CET 2024
User: Marek
Spectrometer: MAYP115816
Trigger mode: 0
Integration Time (sec): 2.000000E-1
Scans to average: 10
Electric dark correction enabled: true
Nonlinearity correction enabled: true
Boxcar width: 5
XAxis mode: Wavelengths
Number of Pixels in Spectrum: 2068
>>>>>Begin Spectral Data<<<<<
199	-1.643
199	-1.505
200	-1.348
200	-1.226
201	-1.151
201	-1.104
202	-1.035
202	-0.985
203	-0.941
203	-0.902
204	-0.878
204	-0.855
205	-0.832
205	-0.822
205	-0.821
206	-0.82
206	-0.816
207	-0.815
207	-0.81
208	-0.808
208	-0.808
209	-0.804
209	-0.803
210	-0.802
210	-0.803
211	-0.802
211	-0.801
212	-0.803
212	-0.802
213	-0.802
213	-0.802
213	-0.801
214	-0.8
214	-0.799
215	-0.798
215	-0.796
216	-0.796
216	-0.794
217	-0.789
217	-0.787
218	-0.786
218	-0.783
219	-0.78
219	-0.781
220	-0.778
220	-0.776
221	-0.772
221	-0.769
221	-0.765
222	-0.762
222	-0.757
223	-0.752
223	-0.748
224	-0.744
224	-0.736
225	-0.728
225	-0.72
226	-0.712
226	-0.7
227	-0.687
227	-0.675
228	-0.66
228	-0.643
229	-0.624
229	-0.6
229	-0.575
230	-0.547
230	-0.517
231	-0.484
231	-0.45
232	-0.417
232	-0.38
233	-0.341
233	-0.302
234	-0.264
234	-0.226
235	-0.191
235	-0.158
236	-0.126
236	-0.097
236	-0.068
237	-0.042
237	-0.019
238	0.002
238	0.021
239	0.039
239	0.055
240	0.069
240	0.081
241	0.092
241	0.102
242	0.111
242	0.119
243	0.126
243	0.132
243	0.138
244	0.143
244	0.148
245	0.152
245	0.156
246	0.16
246	0.163
247	0.166
247	0.169
248	0.172
248	0.175
249	0.177
249	0.179
250	0.181
250	0.184
250	0.186
251	0.187
251	0.189
252	0.191
252	0.192
253	0.194
253	0.195
254	0.196
254	0.197
255	0.198
255	0.199
256	0.2
256	0.201
257	0.201
257	0.202
258	0.202
258	0.202
258	0.202
259	0.203
259	0.203
260	0.203
260	0.203
261	0.203
261	0.202
262	0.202
262	0.201
263	0.201
263	0.2
264	0.2
264	0.199
265	0.198
265	0.197
265	0.196
266	0.195
266	0.194
267	0.193
267	0.192
268	0.19
268	0.189
269	0.188
269	0.186
270	0.184
270	0.183
271	0.182
271	0.18
272	0.178
272	0.177
272	0.175
273	0.173
273	0.172
274	0.17
274	0.169
275	0.167
275	0.166
276	0.164
276	0.163
277	0.161
277	0.16
278	0.158
278	0.157
278	0.155
279	0.152
279	0.15
280	0.148
280	0.146
281	0.144
281	0.142
282	0.14
282	0.138
283	0.136
283	0.135
284	0.134
284	0.133
285	0.132
285	0.131
285	0.13
286	0.129
286	0.128
287	0.127
287	0.126
288	0.125
288	0.124
289	0.123
289	0.122
290	0.121
290	0.12
291	0.119
291	0.118
292	0.117
292	0.116
292	0.116
293	0.115
293	0.114
294	0.114
294	0.113
295	0.112
295	0.112
296	0.112
296	0.111
297	0.111
297	0.111
298	0.11
298	0.11
298	0.11
299	0.109
299	0.109
300	0.109
300	0.109
301	0.109
301	0.109
302	0.108
302	0.108
303	0.108
303	0.108
304	0.108
304	0.107
305	0.107
305	0.107
305	0.107
306	0.107
306	0.107
307	0.107
307	0.106
308	0.106
308	0.106
309	0.106
309	0.106
310	0.106
310	0.105
311	0.105
311	0.105
311	0.105
312	0.105
312	0.105
313	0.104
313	0.104
314	0.104
314	0.103
315	0.103
315	0.103
316	0.103
316	0.102
317	0.102
317	0.102
318	0.102
318	0.102
318	0.101
319	0.101
319	0.101
320	0.1
320	0.1
321	0.1
321	0.1
322	0.099
322	0.099
323	0.099
323	0.098
324	0.098
324	0.098
324	0.097
325	0.097
325	0.097
326	0.097
326	0.096
327	0.096
327	0.096
328	0.095
328	0.095
329	0.095
329	0.094
330	0.094
330	0.094
330	0.093
331	0.093
331	0.092
332	0.092
332	0.092
333	0.091
333	0.091
334	0.091
334	0.09
335	0.09
335	0.089
336	0.089
336	0.089
336	0.089
337	0.088
337	0.088
338	0.088
338	0.088
339	0.087
339	0.087
340	0.087
340	0.086
341	0.086
341	0.086
342	0.086
342	0.085
342	0.085
343	0.084
343	0.084
344	0.084
344	0.084
345	0.083
345	0.083
346	0.083
346	0.082
347	0.082
347	0.082
348	0.081
348	0.081
348	0.081
349	0.081
349	0.08
350	0.08
350	0.08
351	0.08
351	0.079
352	0.079
352	0.079
353	0.078
353	0.078
354	0.078
354	0.077
354	0.077
355	0.077
355	0.076
356	0.076
356	0.076
357	0.075
357	0.075
358	0.075
358	0.075
359	0.075
359	0.075
360	0.075
360	0.075
360	0.075
361	0.075
361	0.076
362	0.076
362	0.076
363	0.076
363	0.076
364	0.076
364	0.076
365	0.076
365	0.075
366	0.075
366	0.075
366	0.075
367	0.075
367	0.075
368	0.075
368	0.075
369	0.075
369	0.075
370	0.074
370	0.075
371	0.075
371	0.075
372	0.075
372	0.075
372	0.075
373	0.074
373	0.074
374	0.075
374	0.075
375	0.075
375	0.075
376	0.075
376	0.075
377	0.075
377	0.075
378	0.075
378	0.075
378	0.076
379	0.076
379	0.076
380	0.076
380	0.076
381	0.076
381	0.076
382	0.076
382	0.076
383	0.075
383	0.075
383	0.075
384	0.075
384	0.075
385	0.075
385	0.075
386	0.075
386	0.075
387	0.075
387	0.075
388	0.075
388	0.075
389	0.075
389	0.075
389	0.076
390	0.076
390	0.076
391	0.076
391	0.076
392	0.076
392	0.076
393	0.076
393	0.076
394	0.076
394	0.076
394	0.076
395	0.076
395	0.076
396	0.076
396	0.076
397	0.076
397	0.076
398	0.076
398	0.076
399	0.076
399	0.076
400	0.076
400	0.076
400	0.076
401	0.076
401	0.075
402	0.075
402	0.075
403	0.075
403	0.075
404	0.075
404	0.075
405	0.075
405	0.075
405	0.075
406	0.075
406	0.075
407	0.075
407	0.075
408	0.074
408	0.074
409	0.074
409	0.074
410	0.074
410	0.074
411	0.074
411	0.074
411	0.074
412	0.074
412	0.074
413	0.074
413	0.074
414	0.073
414	0.074
415	0.073
415	0.073
416	0.073
416	0.072
416	0.072
417	0.072
417	0.072
418	0.073
418	0.073
419	0.073
419	0.074
420	0.074
420	0.075
421	0.075
421	0.075
421	0.075
422	0.076
422	0.076
423	0.076
423	0.076
424	0.075
424	0.075
425	0.075
425	0.075
426	0.075
426	0.074
427	0.074
427	0.074
427	0.074
428	0.074
428	0.075
429	0.075
429	0.075
430	0.074
430	0.074
431	0.074
431	0.074
432	0.074
432	0.074
432	0.073
433	0.073
433	0.072
434	0.072
434	0.073
435	0.073
435	0.073
436	0.073
436	0.073
437	0.073
437	0.073
437	0.073
438	0.073
438	0.073
439	0.073
439	0.072
440	0.072
440	0.072
441	0.072
441	0.072
442	0.072
442	0.072
442	0.072
443	0.072
443	0.072
444	0.072
444	0.073
445	0.073
445	0.073
446	0.073
446	0.073
447	0.073
447	0.073
447	0.072
448	0.072
448	0.072
449	0.072
449	0.072
450	0.072
450	0.072
451	0.072
451	0.071
452	0.071
452	0.071
452	0.071
453	0.071
453	0.071
454	0.071
454	0.071
455	0.071
455	0.071
456	0.071
456	0.071
457	0.071
457	0.07
458	0.07
458	0.07
458	0.07
459	0.07
459	0.07
460	0.069
460	0.068
461	0.068
461	0.068
462	0.068
462	0.068
463	0.069
463	0.069
463	0.069
464	0.069
464	0.069
465	0.069
465	0.069
466	0.069
466	0.069
467	0.069
467	0.069
467	0.068
468	0.068
468	0.067
469	0.066
469	0.066
470	0.066
470	0.066
471	0.066
471	0.066
472	0.065
472	0.065
472	0.066
473	0.066
473	0.066
474	0.067
474	0.067
475	0.067
475	0.067
476	0.067
476	0.067
477	0.067
477	0.067
477	0.067
478	0.067
478	0.067
479	0.067
479	0.067
480	0.067
480	0.067
481	0.067
481	0.067
482	0.068
482	0.068
482	0.069
483	0.07
483	0.071
484	0.072
484	0.072
485	0.071
485	0.072
486	0.072
486	0.072
487	0.072
487	0.072
487	0.072
488	0.071
488	0.07
489	0.069
489	0.07
490	0.071
490	0.071
491	0.071
491	0.071
492	0.071
492	0.071
492	0.071
493	0.071
493	0.071
494	0.072
494	0.072
495	0.073
495	0.073
496	0.074
496	0.074
496	0.075
497	0.076
497	0.076
498	0.076
498	0.077
499	0.077
499	0.077
500	0.077
500	0.078
501	0.078
501	0.078
501	0.078
502	0.079
502	0.079
503	0.08
503	0.08
504	0.08
504	0.08
505	0.08
505	0.08
506	0.08
506	0.08
506	0.08
507	0.08
507	0.08
508	0.081
508	0.081
509	0.082
509	0.082
510	0.083
510	0.084
511	0.084
511	0.084
511	0.084
512	0.085
512	0.085
513	0.084
513	0.084
514	0.084
514	0.084
515	0.084
515	0.083
515	0.083
516	0.083
516	0.084
517	0.084
517	0.084
518	0.085
518	0.084
519	0.084
519	0.084
520	0.084
520	0.084
520	0.084
521	0.083
521	0.082
522	0.081
522	0.08
523	0.08
523	0.08
524	0.08
524	0.079
524	0.08
525	0.08
525	0.081
526	0.082
526	0.083
527	0.084
527	0.085
528	0.086
528	0.086
529	0.087
529	0.088
529	0.089
530	0.089
530	0.089
531	0.09
531	0.091
532	0.091
532	0.091
533	0.092
533	0.092
533	0.092
534	0.092
534	0.092
535	0.092
535	0.093
536	0.093
536	0.093
537	0.093
537	0.093
538	0.093
538	0.093
538	0.093
539	0.094
539	0.094
540	0.094
540	0.094
541	0.093
541	0.093
542	0.093
542	0.094
542	0.094
543	0.094
543	0.094
544	0.094
544	0.094
545	0.095
545	0.096
546	0.097
546	0.097
547	0.096
547	0.095
547	0.095
548	0.095
548	0.095
549	0.095
549	0.095
550	0.095
550	0.095
551	0.095
551	0.095
551	0.096
552	0.096
552	0.097
553	0.098
553	0.099
554	0.099
554	0.098
555	0.098
555	0.097
556	0.097
556	0.096
556	0.096
557	0.095
557	0.095
558	0.095
558	0.094
559	0.095
559	0.095
560	0.095
560	0.095
560	0.095
561	0.096
561	0.097
562	0.097
562	0.097
563	0.096
563	0.095
564	0.094
564	0.094
564	0.094
565	0.094
565	0.094
566	0.093
566	0.093
567	0.094
567	0.095
568	0.097
568	0.098
568	0.099
569	0.1
569	0.101
570	0.101
570	0.101
571	0.102
571	0.103
572	0.102
572	0.102
573	0.102
573	0.102
573	0.101
574	0.101
574	0.101
575	0.101
575	0.104
576	0.105
576	0.103
577	0.102
577	0.102
577	0.103
578	0.103
578	0.104
579	0.105
579	0.107
580	0.105
580	0.102
581	0.099
581	0.099
581	0.099
582	0.099
582	0.1
583	0.101
583	0.1
584	0.097
584	0.093
585	0.093
585	0.094
585	0.095
586	0.095
586	0.095
587	0.093
587	0.091
588	0.089
588	0.088
589	0.089
589	0.09
590	0.09
590	0.09
590	0.093
591	0.094
591	0.094
592	0.094
592	0.092
593	0.092
593	0.093
594	0.091
594	0.09
594	0.089
595	0.088
595	0.086
596	0.085
596	0.087
597	0.09
597	0.09
598	0.091
598	0.092
598	0.093
599	0.093
599	0.093
600	0.092
600	0.091
601	0.09
601	0.09
602	0.088
602	0.087
602	0.087
603	0.087
603	0.089
604	0.09
604	0.091
605	0.093
605	0.095
606	0.095
606	0.094
606	0.093
607	0.093
607	0.092
608	0.091
608	0.089
609	0.088
609	0.087
610	0.086
610	0.084
610	0.084
611	0.085
611	0.086
612	0.087
612	0.089
613	0.09
613	0.09
614	0.089
614	0.088
614	0.087
615	0.086
615	0.085
616	0.084
616	0.083
617	0.082
617	0.08
618	0.078
618	0.077
618	0.077
619	0.078
619	0.079
620	0.081
620	0.081
621	0.081
621	0.081
622	0.081
622	0.081
622	0.08
623	0.08
623	0.08
624	0.08
624	0.079
625	0.077
625	0.077
626	0.076
626	0.076
626	0.076
627	0.076
627	0.076
628	0.076
628	0.076
629	0.076
629	0.076
630	0.075
630	0.074
630	0.074
631	0.075
631	0.075
632	0.075
632	0.075
633	0.075
633	0.076
634	0.077
634	0.078
634	0.078
635	0.078
635	0.078
636	0.078
636	0.078
637	0.078
637	0.078
638	0.078
638	0.078
638	0.079
639	0.078
639	0.078
640	0.079
640	0.079
641	0.08
641	0.08
642	0.081
642	0.081
642	0.082
643	0.082
643	0.082
644	0.083
644	0.083
645	0.083
645	0.084
646	0.085
646	0.086
646	0.088
647	0.089
647	0.091
648	0.092
648	0.093
649	0.094
649	0.095
650	0.096
650	0.098
650	0.098
651	0.099
651	0.1
652	0.1
652	0.101
653	0.103
653	0.11
653	0.126
654	0.102
654	0.085
655	0.081
655	0.081
656	0.082
656	0.082
657	0.083
657	0.083
657	0.083
658	0.079
658	0.065
659	0.082
659	0.104
660	0.114
660	0.115
661	0.116
661	0.117
661	0.119
662	0.121
662	0.124
663	0.126
663	0.127
664	0.129
664	0.13
665	0.131
665	0.132
665	0.133
666	0.134
666	0.134
667	0.134
667	0.135
668	0.135
668	0.137
669	0.138
669	0.14
669	0.143
670	0.145
670	0.146
671	0.147
671	0.148
672	0.149
672	0.151
672	0.151
673	0.152
673	0.154
674	0.154
674	0.154
675	0.154
675	0.155
676	0.157
676	0.158
676	0.159
677	0.16
677	0.161
678	0.162
678	0.162
679	0.162
679	0.163
680	0.165
680	0.165
680	0.165
681	0.165
681	0.166
682	0.167
682	0.167
683	0.168
683	0.17
684	0.171
684	0.17
684	0.169
685	0.17
685	0.171
686	0.172
686	0.172
687	0.172
687	0.173
687	0.173
688	0.173
688	0.172
689	0.174
689	0.175
690	0.174
690	0.173
691	0.173
691	0.172
691	0.172
692	0.171
692	0.17
693	0.17
693	0.171
694	0.17
694	0.168
695	0.17
695	0.172
695	0.172
696	0.171
696	0.17
697	0.17
697	0.169
698	0.168
698	0.167
698	0.167
699	0.167
699	0.165
700	0.163
700	0.164
701	0.165
701	0.165
702	0.164
702	0.164
702	0.164
703	0.163
703	0.163
704	0.162
704	0.162
705	0.162
705	0.162
705	0.161
706	0.161
706	0.161
707	0.16
707	0.159
708	0.158
708	0.158
709	0.157
709	0.156
709	0.154
710	0.152
710	0.151
711	0.151
711	0.151
712	0.15
712	0.15
713	0.149
713	0.148
713	0.147
714	0.146
714	0.145
715	0.144
715	0.143
716	0.142
716	0.142
716	0.142
717	0.141
717	0.141
718	0.14
718	0.139
719	0.14
719	0.14
720	0.139
720	0.138
720	0.137
721	0.135
721	0.134
722	0.134
722	0.133
723	0.132
723	0.132
723	0.131
724	0.13
724	0.129
725	0.128
725	0.127
726	0.126
726	0.126
727	0.125
727	0.124
727	0.124
728	0.123
728	0.123
729	0.124
729	0.124
730	0.124
730	0.123
730	0.123
731	0.123
731	0.123
732	0.123
732	0.122
733	0.121
733	0.12
734	0.118
734	0.117
734	0.116
735	0.116
735	0.115
736	0.114
736	0.113
737	0.113
737	0.113
737	0.113
738	0.111
738	0.109
739	0.108
739	0.106
740	0.105
740	0.104
741	0.103
741	0.101
741	0.099
742	0.096
742	0.095
743	0.095
743	0.095
744	0.095
744	0.095
744	0.094
745	0.094
745	0.093
746	0.092
746	0.092
747	0.092
747	0.092
748	0.092
748	0.091
748	0.09
749	0.089
749	0.088
750	0.088
750	0.087
751	0.087
751	0.087
751	0.088
752	0.087
752	0.086
753	0.085
753	0.085
754	0.086
754	0.085
754	0.086
755	0.087
755	0.087
756	0.087
756	0.085
757	0.084
757	0.084
758	0.084
758	0.083
758	0.082
759	0.081
759	0.079
760	0.076
760	0.073
761	0.072
761	0.071
761	0.07
762	0.069
762	0.069
763	0.069
763	0.067
764	0.065
764	0.063
764	0.062
765	0.061
765	0.059
766	0.059
766	0.058
767	0.057
767	0.054
768	0.051
768	0.05
768	0.049
769	0.049
769	0.048
770	0.047
770	0.046
771	0.043
771	0.041
771	0.039
772	0.037
772	0.035
773	0.033
773	0.03
774	0.027
774	0.024
775	0.021
775	0.019
775	0.015
776	0.012
776	0.009
777	0.006
777	0.003
778	-0
778	-0.004
778	-0.007
779	-0.009
779	-0.011
780	-0.015
780	-0.019
781	-0.023
781	-0.028
781	-0.034
782	-0.041
782	-0.047
783	-0.054
783	-0.06
784	-0.068
784	-0.076
784	-0.084
785	-0.091
785	-0.099
786	-0.106
786	-0.112
787	-0.114
787	-0.117
788	-0.124
788	-0.131
788	-0.137
789	-0.143
789	-0.146
790	-0.146
790	-0.148
791	-0.15
791	-0.152
791	-0.155
792	-0.149
792	-0.139
793	-0.133
793	-0.129
794	-0.127
794	-0.129
794	-0.133
795	-0.136
795	-0.136
796	-0.137
796	-0.14
797	-0.149
797	-0.16
797	-0.166
798	-0.171
798	-0.174
799	-0.174
799	-0.174
800	-0.173
800	-0.175
801	-0.177
801	-0.178
801	-0.178
802	-0.18
802	-0.181
803	-0.182
803	-0.182
804	-0.181
804	-0.176
804	-0.17
805	-0.166
805	-0.164
806	-0.162
806	-0.16
807	-0.16
807	-0.159
807	-0.159
808	-0.159
808	-0.16
809	-0.165
809	-0.171
810	-0.175
810	-0.178
810	-0.181
811	-0.184
811	-0.185
812	-0.181
812	-0.178
813	-0.178
813	-0.178
813	-0.179
814	-0.179
814	-0.179
815	-0.175
815	-0.172
816	-0.167
816	-0.164
817	-0.162
817	-0.158
817	-0.151
818	-0.141
818	-0.13
819	-0.117
819	-0.106
820	-0.097
820	-0.087
820	-0.077
821	-0.067
821	-0.059
822	-0.051
822	-0.044
823	-0.039
823	-0.035
823	-0.031
824	-0.027
824	-0.022
825	-0.018
825	-0.013
826	-0.01
826	-0.009
826	-0.006
827	-0.004
827	-0.002
828	0
828	0.002
829	0.004
829	0.006
829	0.007
830	0.008
830	0.009
831	0.012
831	0.014
832	0.015
832	0.016
832	0.018
833	0.019
833	0.02
834	0.022
834	0.023
835	0.025
835	0.026
835	0.027
836	0.028
836	0.029
837	0.03
837	0.031
838	0.032
838	0.032
839	0.032
839	0.033
839	0.032
840	0.033
840	0.033
841	0.033
841	0.034
842	0.035
842	0.035
842	0.036
843	0.037
843	0.038
844	0.038
844	0.039
845	0.04
845	0.04
845	0.041
846	0.04
846	0.04
847	0.04
847	0.039
848	0.039
848	0.038
848	0.038
849	0.037
849	0.037
850	0.036
850	0.035
851	0.035
851	0.035
851	0.035
852	0.035
852	0.035
853	0.035
853	0.035
854	0.036
854	0.036
854	0.036
855	0.036
855	0.035
856	0.035
856	0.034
857	0.034
857	0.034
857	0.033
858	0.033
858	0.033
859	0.032
859	0.032
860	0.032
860	0.032
860	0.031
861	0.031
861	0.031
862	0.03
862	0.029
863	0.029
863	0.028
863	0.028
864	0.028
864	0.028
865	0.029
865	0.029
866	0.029
866	0.03
866	0.031
867	0.032
867	0.034
868	0.035
868	0.036
869	0.038
869	0.038
869	0.039
870	0.039
870	0.04
871	0.04
871	0.039
872	0.039
872	0.038
872	0.037
873	0.036
873	0.035
874	0.034
874	0.034
875	0.034
875	0.034
875	0.035
876	0.035
876	0.035
877	0.036
877	0.036
878	0.036
878	0.037
878	0.037
879	0.036
879	0.035
880	0.034
880	0.033
881	0.032
881	0.031
881	0.03
882	0.029
882	0.028
883	0.027
883	0.027
884	0.026
884	0.026
884	0.025
885	0.025
885	0.026
886	0.026
886	0.027
887	0.028
887	0.028
887	0.029
888	0.03
888	0.031
889	0.032
889	0.033
890	0.033
890	0.034
890	0.033
891	0.033
891	0.033
892	0.033
892	0.032
893	0.032
893	0.031
893	0.031
894	0.03
894	0.029
895	0.028
895	0.027
895	0.026
896	0.025
896	0.024
897	0.023
897	0.023
898	0.022
898	0.022
898	0.022
899	0.023
899	0.023
900	0.024
900	0.025
901	0.027
901	0.028
901	0.029
902	0.031
902	0.031
903	0.032
903	0.032
904	0.033
904	0.033
904	0.034
905	0.034
905	0.034
906	0.034
906	0.034
907	0.034
907	0.034
907	0.034
908	0.034
908	0.033
909	0.033
909	0.032
910	0.032
910	0.031
910	0.031
911	0.031
911	0.031
912	0.031
912	0.032
913	0.032
913	0.033
913	0.033
914	0.034
914	0.033
915	0.033
915	0.033
916	0.032
916	0.031
916	0.03
917	0.029
917	0.028
918	0.028
918	0.027
918	0.026
919	0.026
919	0.026
920	0.027
920	0.027
921	0.028
921	0.028
921	0.029
922	0.03
922	0.031
923	0.031
923	0.032
924	0.032
924	0.032
924	0.032
925	0.032
925	0.031
926	0.03
926	0.03
927	0.028
927	0.027
927	0.027
928	0.026
928	0.025
929	0.024
929	0.023
930	0.023
930	0.022
930	0.022
931	0.022
931	0.022
932	0.023
932	0.023
933	0.023
933	0.023
933	0.022
934	0.022
934	0.021
935	0.021
935	0.02
935	0.019
936	0.017
936	0.017
937	0.016
937	0.015
938	0.014
938	0.013
938	0.013
939	0.013
939	0.013
940	0.013
940	0.014
941	0.014
941	0.015
941	0.016
942	0.016
942	0.017
943	0.018
943	0.018
944	0.018
944	0.018
944	0.018
945	0.019
945	0.019
946	0.019
946	0.018
946	0.018
947	0.018
947	0.017
948	0.017
948	0.017
949	0.016
949	0.016
949	0.016
950	0.016
950	0.016
951	0.016
951	0.016
952	0.016
952	0.016
952	0.016
953	0.016
953	0.016
954	0.015
954	0.015
955	0.014
955	0.013
955	0.013
956	0.013
956	0.013
957	0.012
957	0.012
957	0.011
958	0.011
958	0.011
959	0.011
959	0.01
960	0.01
960	0.01
960	0.009
961	0.008
961	0.008
962	0.007
962	0.007
963	0.006
963	0.006
963	0.006
964	0.006
964	0.006
965	0.007
965	0.008
966	0.009
966	0.01
966	0.011
967	0.012
967	0.012
968	0.012
968	0.012
968	0.012
969	0.011
969	0.01
970	0.009
970	0.008
971	0.007
971	0.006
971	0.004
972	0.004
972	0.003
973	0.003
973	0.003
974	0.002
974	0.002
974	0.002
975	0.002
975	0.002
976	0.002
976	0.002
976	0.002
977	0.001
977	-0
978	-0.001
978	-0.002
979	-0.003
979	-0.004
979	-0.004
980	-0.005
980	-0.006
981	-0.007
981	-0.007
982	-0.007
982	-0.006
982	-0.006
983	-0.006
983	-0.006
984	-0.006
984	-0.005
984	-0.005
985	-0.005
985	-0.004
986	-0.004
986	-0.004
987	-0.004
987	-0.003
987	-0.002
988	-0.001
988	-0
989	0
989	0.001
990	0.003
990	0.004
990	0.006
991	0.008
991	0.01
992	0.011
992	0.012
992	0.013
993	0.014
993	0.015
994	0.015
994	0.015
995	0.015
995	0.014
995	0.013
996	0.012
996	0.011
997	0.01
997	0.01
997	0.009
998	0.008
998	0.008
999	0.008
999	0.007
1000	0.007
1000	0.007
1000	0.007
1001	0.007
1001	0.007
1002	0.007
1002	0.007
1003	0.007
1003	0.007
1003	0.006
1004	0.006
1004	0.006
1005	0.005
1005	0.004
1005	0.004
1006	0.003
1006	0.002
1007	0.001
1007	-0
1008	-0.001
1008	-0.002
1008	-0.002
1009	-0.002
1009	-0.002
1010	-0.002
1010	-0.002
1010	-0.002
1011	-0.002
1011	-0.002
1012	-0.002
1012	-0.003
1013	-0.003
1013	-0.004
1013	-0.005
1014	-0.006
1014	-0.007
1015	-0.008
1015	-0.008
1016	-0.009
1016	-0.01
1016	-0.01
1017	-0.011
1017	-0.011
1018	-0.011
1018	-0.011
1018	-0.011
1019	-0.01
1019	-0.01
1020	-0.01
1020	-0.01
1021	-0.009
1021	-0.009
1021	-0.009
1022	-0.009
1022	-0.009
1023	-0.008
1023	-0.009
1023	-0.009
1024	-0.01
1024	-0.011
1025	-0.012
1025	-0.013
1026	-0.014
1026	-0.015
1026	-0.016
1027	-0.017
1027	-0.017
1028	-0.018
1028	-0.017
1028	-0.017
1029	-0.017
1029	-0.016
1030	-0.016
1030	-0.015
1031	-0.015
1031	-0.014
1031	-0.014
1032	-0.014
1032	-0.014
1033	-0.014
1033	-0.014
1033	-0.014
1034	-0.015
1034	-0.017
1035	-0.017
1035	-0.018
1036	-0.019
1036	-0.02
1036	-0.02
1037	-0.02
1037	-0.021
1038	-0.021
1038	-0.02
1039	-0.02
1039	-0.019
1039	-0.019
1040	-0.018
1040	-0.018
1041	-0.017
1041	-0.017
1041	-0.017
1042	-0.017
1042	-0.017
1043	-0.017
1043	-0.018
1044	-0.018
1044	-0.018
1044	-0.018
1045	-0.019
1045	-0.019
1046	-0.02
1046	-0.021
1046	-0.021
1047	-0.021
1047	-0.02
1048	-0.02
1048	-0.02
1049	-0.021
1049	-0.021
1049	-0.022
1050	-0.022
1050	-0.023
1051	-0.023
1051	-0.024
1051	-0.024
1052	-0.025
1052	-0.026
1053	-0.027
1053	-0.027
1053	-0.027
1054	-0.027
1054	-0.027
1055	-0.027
1055	-0.027
1056	-0.027
1056	-0.028
1056	-0.029
1057	-0.03
1057	-0.031
1058	-0.031
1058	-0.032
1058	-0.032
1059	-0.034
1059	-0.034
1060	-0.035
1060	-0.035
1061	-0.035
1061	-0.034
1061	-0.033
1062	-0.033
1062	-0.033
1063	-0.033
1063	-0.032
1063	-0.032
1064	-0.031
1064	-0.03
1065	-0.03
1065	-0.03
1066	-0.029
1066	-0.028
1066	-0.028
1067	-0.027
1067	-0.026
1068	-0.026
1068	-0.026
1068	-0.026
1069	-0.026
1069	-0.027
1070	-0.027
1070	-0.027
1071	-0.027
1071	-0.028
1071	-0.028
1072	-0.029
1072	-0.029
1073	-0.029
1073	-0.029
1073	-0.029
1074	-0.028
1074	-0.028
1075	-0.029
1075	-0.029
1076	-0.03
1076	-0.029
1076	-0.03
1077	-0.031
1077	-0.031
1078	-0.032
1078	-0.032
1078	-0.031
1079	-0.031
1079	-0.03
1080	-0.03
1080	-0.029
1080	-0.029
1081	-0.029
1081	-0.028
1082	-0.027
1082	-0.027
1083	-0.027
1083	-0.027
1083	-0.027
1084	-0.027
1084	-0.026
1085	-0.025
1085	-0.024
1085	-0.023
1086	-0.022
1086	-0.022
1087	-0.022
1087	-0.022
1088	-0.022
1088	-0.021
1088	-0.022
1089	-0.022
1089	-0.022
1090	-0.022
1090	-0.022
1090	-0.022
1091	-0.022
1091	-0.021
1092	-0.02
1092	-0.018
1092	-0.017
1093	-0.015
1093	-0.013
1094	-0.011
1094	-0.009
1095	-0.009
1095	-0.008
1095	-0.005
1096	-0.003
1096	-0.002
1097	0
1097	0.002
1097	0.003
1098	0.004
1098	0.005
1099	0.007
1099	0.011
1100	0.013
1100	0.015
1100	0.017
1101	0.019
1101	0.021
1102	0.025
1102	0.03
1102	0.035
1103	0.039
1103	0.045
1104	0.051
1104	0.057
1104	0.066
1105	0.074
1105	0.082
1106	0.089
1106	0.099
1107	0.107
1107	0.12
1107	0.136
1108	0.193
1108	0.274
1109	0.402
1109	0.663
1109	0.987
1110	-0
1110	-0
1111	-0
1111	-0
