Data from 15c-2a-fridge-noshake_Absorbance__850__07087.txt Node

Date: Wed Jan 17 19:06:38 CET 2024
User: Marek
Spectrometer: MAYP115816
Trigger mode: 0
Integration Time (sec): 2.000000E-1
Scans to average: 10
Electric dark correction enabled: true
Nonlinearity correction enabled: true
Boxcar width: 5
XAxis mode: Wavelengths
Number of Pixels in Spectrum: 2068
>>>>>Begin Spectral Data<<<<<
199	-1.618
199	-1.481
200	-1.324
200	-1.203
201	-1.128
201	-1.082
202	-1.014
202	-0.964
203	-0.921
203	-0.883
204	-0.859
204	-0.836
205	-0.814
205	-0.804
205	-0.803
206	-0.802
206	-0.799
207	-0.797
207	-0.793
208	-0.791
208	-0.791
209	-0.786
209	-0.786
210	-0.786
210	-0.786
211	-0.785
211	-0.785
212	-0.786
212	-0.785
213	-0.785
213	-0.785
213	-0.785
214	-0.784
214	-0.783
215	-0.781
215	-0.78
216	-0.781
216	-0.778
217	-0.773
217	-0.772
218	-0.771
218	-0.767
219	-0.763
219	-0.763
220	-0.76
220	-0.758
221	-0.754
221	-0.751
221	-0.747
222	-0.744
222	-0.739
223	-0.733
223	-0.731
224	-0.727
224	-0.719
225	-0.711
225	-0.703
226	-0.695
226	-0.683
227	-0.67
227	-0.658
228	-0.644
228	-0.627
229	-0.607
229	-0.583
229	-0.557
230	-0.53
230	-0.501
231	-0.468
231	-0.434
232	-0.4
232	-0.363
233	-0.323
233	-0.284
234	-0.247
234	-0.209
235	-0.174
235	-0.14
236	-0.107
236	-0.077
236	-0.048
237	-0.022
237	0.001
238	0.023
238	0.042
239	0.061
239	0.077
240	0.091
240	0.104
241	0.115
241	0.125
242	0.134
242	0.142
243	0.149
243	0.155
243	0.161
244	0.166
244	0.17
245	0.174
245	0.178
246	0.182
246	0.185
247	0.188
247	0.191
248	0.193
248	0.196
249	0.198
249	0.2
250	0.202
250	0.204
250	0.206
251	0.207
251	0.208
252	0.21
252	0.211
253	0.213
253	0.213
254	0.214
254	0.216
255	0.216
255	0.217
256	0.218
256	0.218
257	0.219
257	0.219
258	0.219
258	0.219
258	0.219
259	0.219
259	0.219
260	0.219
260	0.219
261	0.219
261	0.219
262	0.218
262	0.218
263	0.217
263	0.217
264	0.216
264	0.215
265	0.215
265	0.214
265	0.213
266	0.212
266	0.21
267	0.209
267	0.208
268	0.206
268	0.205
269	0.204
269	0.202
270	0.201
270	0.199
271	0.197
271	0.196
272	0.194
272	0.193
272	0.191
273	0.189
273	0.188
274	0.186
274	0.184
275	0.183
275	0.181
276	0.18
276	0.178
277	0.177
277	0.175
278	0.174
278	0.172
278	0.17
279	0.167
279	0.165
280	0.163
280	0.161
281	0.159
281	0.157
282	0.155
282	0.153
283	0.151
283	0.149
284	0.148
284	0.147
285	0.146
285	0.145
285	0.144
286	0.143
286	0.142
287	0.141
287	0.14
288	0.138
288	0.137
289	0.136
289	0.135
290	0.134
290	0.133
291	0.132
291	0.131
292	0.13
292	0.129
292	0.128
293	0.127
293	0.127
294	0.126
294	0.125
295	0.124
295	0.124
296	0.123
296	0.123
297	0.122
297	0.122
298	0.121
298	0.121
298	0.12
299	0.12
299	0.12
300	0.119
300	0.118
301	0.118
301	0.117
302	0.117
302	0.116
303	0.116
303	0.116
304	0.115
304	0.115
305	0.115
305	0.115
305	0.114
306	0.114
306	0.114
307	0.113
307	0.113
308	0.113
308	0.112
309	0.112
309	0.112
310	0.111
310	0.111
311	0.11
311	0.11
311	0.11
312	0.109
312	0.109
313	0.109
313	0.108
314	0.108
314	0.107
315	0.107
315	0.107
316	0.106
316	0.106
317	0.106
317	0.105
318	0.105
318	0.105
318	0.104
319	0.104
319	0.103
320	0.103
320	0.103
321	0.102
321	0.102
322	0.101
322	0.101
323	0.1
323	0.1
324	0.099
324	0.099
324	0.098
325	0.098
325	0.097
326	0.097
326	0.097
327	0.096
327	0.096
328	0.095
328	0.095
329	0.094
329	0.094
330	0.094
330	0.093
330	0.093
331	0.092
331	0.092
332	0.091
332	0.091
333	0.09
333	0.09
334	0.09
334	0.089
335	0.089
335	0.088
336	0.088
336	0.088
336	0.087
337	0.087
337	0.086
338	0.086
338	0.086
339	0.085
339	0.085
340	0.084
340	0.084
341	0.084
341	0.083
342	0.083
342	0.083
342	0.083
343	0.082
343	0.082
344	0.082
344	0.081
345	0.081
345	0.081
346	0.08
346	0.08
347	0.079
347	0.079
348	0.079
348	0.079
348	0.078
349	0.078
349	0.077
350	0.077
350	0.076
351	0.076
351	0.076
352	0.075
352	0.075
353	0.075
353	0.074
354	0.074
354	0.074
354	0.074
355	0.073
355	0.073
356	0.073
356	0.073
357	0.073
357	0.072
358	0.072
358	0.072
359	0.072
359	0.072
360	0.072
360	0.072
360	0.072
361	0.072
361	0.072
362	0.072
362	0.072
363	0.072
363	0.072
364	0.072
364	0.072
365	0.072
365	0.071
366	0.071
366	0.071
366	0.071
367	0.071
367	0.071
368	0.071
368	0.071
369	0.071
369	0.071
370	0.07
370	0.07
371	0.07
371	0.07
372	0.07
372	0.07
372	0.07
373	0.07
373	0.069
374	0.07
374	0.07
375	0.07
375	0.07
376	0.07
376	0.07
377	0.07
377	0.07
378	0.07
378	0.07
378	0.07
379	0.07
379	0.07
380	0.07
380	0.07
381	0.07
381	0.07
382	0.07
382	0.07
383	0.07
383	0.069
383	0.069
384	0.069
384	0.069
385	0.069
385	0.069
386	0.069
386	0.069
387	0.069
387	0.069
388	0.069
388	0.069
389	0.069
389	0.069
389	0.069
390	0.069
390	0.069
391	0.07
391	0.07
392	0.07
392	0.07
393	0.07
393	0.07
394	0.07
394	0.07
394	0.07
395	0.07
395	0.07
396	0.069
396	0.07
397	0.07
397	0.07
398	0.07
398	0.069
399	0.069
399	0.069
400	0.069
400	0.069
400	0.069
401	0.068
401	0.068
402	0.068
402	0.067
403	0.067
403	0.067
404	0.067
404	0.067
405	0.067
405	0.067
405	0.067
406	0.067
406	0.066
407	0.066
407	0.066
408	0.066
408	0.066
409	0.066
409	0.066
410	0.066
410	0.066
411	0.066
411	0.066
411	0.066
412	0.066
412	0.066
413	0.066
413	0.066
414	0.065
414	0.065
415	0.065
415	0.065
416	0.064
416	0.064
416	0.064
417	0.064
417	0.064
418	0.064
418	0.064
419	0.065
419	0.065
420	0.066
420	0.066
421	0.066
421	0.067
421	0.067
422	0.067
422	0.067
423	0.067
423	0.067
424	0.067
424	0.066
425	0.066
425	0.066
426	0.066
426	0.066
427	0.066
427	0.066
427	0.066
428	0.066
428	0.067
429	0.067
429	0.067
430	0.067
430	0.067
431	0.066
431	0.066
432	0.066
432	0.066
432	0.065
433	0.065
433	0.064
434	0.064
434	0.065
435	0.065
435	0.065
436	0.065
436	0.065
437	0.065
437	0.065
437	0.065
438	0.065
438	0.065
439	0.065
439	0.065
440	0.065
440	0.065
441	0.065
441	0.065
442	0.065
442	0.065
442	0.065
443	0.065
443	0.065
444	0.065
444	0.065
445	0.065
445	0.065
446	0.065
446	0.065
447	0.065
447	0.065
447	0.065
448	0.065
448	0.065
449	0.065
449	0.065
450	0.065
450	0.065
451	0.065
451	0.065
452	0.065
452	0.065
452	0.065
453	0.065
453	0.065
454	0.065
454	0.065
455	0.065
455	0.065
456	0.065
456	0.065
457	0.065
457	0.065
458	0.065
458	0.065
458	0.065
459	0.065
459	0.065
460	0.064
460	0.063
461	0.063
461	0.063
462	0.064
462	0.064
463	0.064
463	0.065
463	0.065
464	0.065
464	0.065
465	0.065
465	0.065
466	0.065
466	0.065
467	0.065
467	0.065
467	0.064
468	0.064
468	0.063
469	0.063
469	0.063
470	0.063
470	0.063
471	0.063
471	0.062
472	0.062
472	0.062
472	0.063
473	0.063
473	0.064
474	0.064
474	0.065
475	0.065
475	0.066
476	0.066
476	0.066
477	0.066
477	0.067
477	0.067
478	0.067
478	0.066
479	0.067
479	0.067
480	0.067
480	0.067
481	0.067
481	0.067
482	0.068
482	0.069
482	0.07
483	0.071
483	0.073
484	0.074
484	0.073
485	0.073
485	0.074
486	0.074
486	0.074
487	0.074
487	0.074
487	0.074
488	0.074
488	0.073
489	0.073
489	0.074
490	0.075
490	0.075
491	0.076
491	0.077
492	0.077
492	0.078
492	0.078
493	0.078
493	0.079
494	0.08
494	0.081
495	0.082
495	0.082
496	0.083
496	0.084
496	0.085
497	0.086
497	0.087
498	0.087
498	0.088
499	0.088
499	0.088
500	0.089
500	0.09
501	0.09
501	0.091
501	0.091
502	0.092
502	0.093
503	0.094
503	0.094
504	0.095
504	0.095
505	0.095
505	0.095
506	0.096
506	0.096
506	0.096
507	0.097
507	0.097
508	0.098
508	0.099
509	0.099
509	0.1
510	0.101
510	0.102
511	0.102
511	0.103
511	0.103
512	0.103
512	0.104
513	0.103
513	0.103
514	0.103
514	0.103
515	0.104
515	0.104
515	0.104
516	0.104
516	0.104
517	0.105
517	0.105
518	0.104
518	0.104
519	0.104
519	0.103
520	0.103
520	0.102
520	0.102
521	0.101
521	0.1
522	0.099
522	0.099
523	0.099
523	0.099
524	0.1
524	0.1
524	0.1
525	0.101
525	0.101
526	0.102
526	0.102
527	0.102
527	0.102
528	0.102
528	0.102
529	0.103
529	0.102
529	0.103
530	0.102
530	0.102
531	0.102
531	0.103
532	0.102
532	0.102
533	0.102
533	0.102
533	0.102
534	0.101
534	0.1
535	0.1
535	0.1
536	0.1
536	0.099
537	0.099
537	0.098
538	0.098
538	0.097
538	0.096
539	0.096
539	0.096
540	0.095
540	0.093
541	0.092
541	0.091
542	0.09
542	0.089
542	0.089
543	0.088
543	0.087
544	0.086
544	0.085
545	0.085
545	0.085
546	0.085
546	0.084
547	0.083
547	0.082
547	0.081
548	0.08
548	0.08
549	0.079
549	0.079
550	0.078
550	0.077
551	0.076
551	0.075
551	0.075
552	0.075
552	0.075
553	0.074
553	0.074
554	0.074
554	0.072
555	0.071
555	0.069
556	0.068
556	0.067
556	0.065
557	0.064
557	0.064
558	0.062
558	0.061
559	0.06
559	0.06
560	0.06
560	0.059
560	0.058
561	0.058
561	0.058
562	0.058
562	0.056
563	0.055
563	0.054
564	0.053
564	0.052
564	0.051
565	0.05
565	0.05
566	0.048
566	0.048
567	0.048
567	0.048
568	0.048
568	0.048
568	0.049
569	0.05
569	0.051
570	0.05
570	0.049
571	0.05
571	0.05
572	0.05
572	0.049
573	0.049
573	0.048
573	0.047
574	0.046
574	0.046
575	0.046
575	0.048
576	0.049
576	0.047
577	0.046
577	0.045
577	0.045
578	0.045
578	0.046
579	0.047
579	0.048
580	0.046
580	0.042
581	0.038
581	0.037
581	0.037
582	0.037
582	0.037
583	0.038
583	0.037
584	0.033
584	0.029
585	0.029
585	0.031
585	0.032
586	0.032
586	0.032
587	0.03
587	0.028
588	0.026
588	0.026
589	0.026
589	0.027
590	0.027
590	0.027
590	0.029
591	0.031
591	0.031
592	0.03
592	0.029
593	0.029
593	0.029
594	0.028
594	0.027
594	0.026
595	0.026
595	0.024
596	0.023
596	0.025
597	0.028
597	0.029
598	0.03
598	0.031
598	0.031
599	0.032
599	0.031
600	0.031
600	0.03
601	0.029
601	0.028
602	0.027
602	0.026
602	0.026
603	0.027
603	0.029
604	0.03
604	0.031
605	0.033
605	0.035
606	0.036
606	0.035
606	0.034
607	0.034
607	0.034
608	0.033
608	0.031
609	0.03
609	0.03
610	0.029
610	0.027
610	0.028
611	0.029
611	0.031
612	0.032
612	0.034
613	0.035
613	0.036
614	0.035
614	0.033
614	0.033
615	0.032
615	0.031
616	0.031
616	0.03
617	0.029
617	0.027
618	0.026
618	0.026
618	0.026
619	0.026
619	0.028
620	0.03
620	0.031
621	0.031
621	0.032
622	0.032
622	0.033
622	0.032
623	0.032
623	0.033
624	0.034
624	0.032
625	0.032
625	0.032
626	0.031
626	0.031
626	0.032
627	0.033
627	0.033
628	0.034
628	0.034
629	0.035
629	0.035
630	0.035
630	0.035
630	0.036
631	0.037
631	0.038
632	0.038
632	0.038
633	0.039
633	0.04
634	0.042
634	0.043
634	0.045
635	0.045
635	0.046
636	0.046
636	0.047
637	0.047
637	0.047
638	0.048
638	0.048
638	0.049
639	0.049
639	0.05
640	0.051
640	0.051
641	0.053
641	0.054
642	0.055
642	0.056
642	0.057
643	0.057
643	0.058
644	0.059
644	0.06
645	0.061
645	0.062
646	0.064
646	0.066
646	0.068
647	0.07
647	0.072
648	0.073
648	0.075
649	0.076
649	0.078
650	0.08
650	0.081
650	0.083
651	0.084
651	0.085
652	0.086
652	0.088
653	0.09
653	0.098
653	0.113
654	0.093
654	0.077
655	0.074
655	0.075
656	0.076
656	0.077
657	0.077
657	0.078
657	0.079
658	0.075
658	0.063
659	0.079
659	0.102
660	0.112
660	0.114
661	0.115
661	0.117
661	0.12
662	0.122
662	0.125
663	0.128
663	0.13
664	0.132
664	0.133
665	0.135
665	0.137
665	0.138
666	0.139
666	0.14
667	0.14
667	0.141
668	0.143
668	0.144
669	0.146
669	0.148
669	0.151
670	0.154
670	0.156
671	0.157
671	0.158
672	0.16
672	0.161
672	0.162
673	0.163
673	0.164
674	0.165
674	0.165
675	0.165
675	0.166
676	0.168
676	0.17
676	0.171
677	0.172
677	0.174
678	0.174
678	0.174
679	0.175
679	0.176
680	0.177
680	0.177
680	0.177
681	0.177
681	0.178
682	0.178
682	0.179
683	0.18
683	0.181
684	0.182
684	0.182
684	0.181
685	0.182
685	0.182
686	0.183
686	0.183
687	0.182
687	0.182
687	0.182
688	0.182
688	0.181
689	0.182
689	0.183
690	0.182
690	0.181
691	0.18
691	0.179
691	0.179
692	0.177
692	0.176
693	0.176
693	0.177
694	0.175
694	0.174
695	0.175
695	0.177
695	0.176
696	0.175
696	0.174
697	0.173
697	0.172
698	0.171
698	0.169
698	0.168
699	0.168
699	0.165
700	0.163
700	0.163
701	0.163
701	0.162
702	0.161
702	0.161
702	0.16
703	0.159
703	0.158
704	0.158
704	0.157
705	0.157
705	0.156
705	0.154
706	0.153
706	0.151
707	0.15
707	0.148
708	0.146
708	0.145
709	0.143
709	0.141
709	0.138
710	0.135
710	0.134
711	0.133
711	0.132
712	0.131
712	0.129
713	0.127
713	0.126
713	0.124
714	0.122
714	0.121
715	0.119
715	0.118
716	0.115
716	0.115
716	0.113
717	0.112
717	0.111
718	0.109
718	0.108
719	0.107
719	0.107
720	0.105
720	0.104
720	0.102
721	0.1
721	0.099
722	0.098
722	0.097
723	0.096
723	0.096
723	0.095
724	0.094
724	0.093
725	0.091
725	0.09
726	0.089
726	0.088
727	0.087
727	0.086
727	0.085
728	0.083
728	0.082
729	0.082
729	0.082
730	0.081
730	0.079
730	0.078
731	0.077
731	0.076
732	0.075
732	0.074
733	0.072
733	0.071
734	0.069
734	0.067
734	0.066
735	0.066
735	0.065
736	0.063
736	0.063
737	0.062
737	0.062
737	0.061
738	0.059
738	0.056
739	0.055
739	0.053
740	0.051
740	0.05
741	0.049
741	0.047
741	0.044
742	0.042
742	0.041
743	0.041
743	0.041
744	0.041
744	0.041
744	0.041
745	0.04
745	0.039
746	0.039
746	0.038
747	0.037
747	0.037
748	0.036
748	0.035
748	0.034
749	0.032
749	0.031
750	0.03
750	0.029
751	0.028
751	0.028
751	0.028
752	0.027
752	0.027
753	0.027
753	0.027
754	0.027
754	0.027
754	0.027
755	0.028
755	0.028
756	0.026
756	0.023
757	0.022
757	0.021
758	0.02
758	0.019
758	0.018
759	0.017
759	0.014
760	0.012
760	0.01
761	0.009
761	0.009
761	0.008
762	0.007
762	0.007
763	0.006
763	0.004
764	0.002
764	0.001
764	-0.001
765	-0.002
765	-0.004
766	-0.005
766	-0.006
767	-0.007
767	-0.009
768	-0.012
768	-0.013
768	-0.013
769	-0.013
769	-0.013
770	-0.014
770	-0.015
771	-0.016
771	-0.019
771	-0.02
772	-0.021
772	-0.023
773	-0.025
773	-0.027
774	-0.029
774	-0.031
775	-0.033
775	-0.036
775	-0.038
776	-0.041
776	-0.043
777	-0.045
777	-0.047
778	-0.05
778	-0.052
778	-0.054
779	-0.055
779	-0.057
780	-0.059
780	-0.062
781	-0.064
781	-0.067
781	-0.071
782	-0.075
782	-0.08
783	-0.085
783	-0.09
784	-0.096
784	-0.102
784	-0.108
785	-0.114
785	-0.12
786	-0.126
786	-0.129
787	-0.129
787	-0.131
788	-0.135
788	-0.14
788	-0.144
789	-0.148
789	-0.15
790	-0.149
790	-0.149
791	-0.15
791	-0.152
791	-0.155
792	-0.15
792	-0.139
793	-0.133
793	-0.129
794	-0.127
794	-0.13
794	-0.134
795	-0.136
795	-0.136
796	-0.137
796	-0.14
797	-0.149
797	-0.16
797	-0.166
798	-0.172
798	-0.174
799	-0.175
799	-0.174
800	-0.173
800	-0.175
801	-0.178
801	-0.178
801	-0.179
802	-0.18
802	-0.181
803	-0.182
803	-0.183
804	-0.182
804	-0.176
804	-0.17
805	-0.166
805	-0.164
806	-0.162
806	-0.161
807	-0.16
807	-0.159
807	-0.159
808	-0.159
808	-0.16
809	-0.165
809	-0.171
810	-0.175
810	-0.178
810	-0.181
811	-0.185
811	-0.185
812	-0.181
812	-0.178
813	-0.178
813	-0.179
813	-0.179
814	-0.18
814	-0.179
815	-0.176
815	-0.172
816	-0.169
816	-0.169
817	-0.17
817	-0.17
817	-0.165
818	-0.159
818	-0.151
819	-0.143
819	-0.136
820	-0.131
820	-0.125
820	-0.117
821	-0.108
821	-0.1
822	-0.094
822	-0.088
823	-0.083
823	-0.079
823	-0.076
824	-0.073
824	-0.069
825	-0.066
825	-0.062
826	-0.06
826	-0.059
826	-0.058
827	-0.056
827	-0.055
828	-0.053
828	-0.053
829	-0.051
829	-0.05
829	-0.05
830	-0.049
830	-0.048
831	-0.046
831	-0.045
832	-0.044
832	-0.042
832	-0.041
833	-0.039
833	-0.038
834	-0.036
834	-0.034
835	-0.032
835	-0.031
835	-0.029
836	-0.027
836	-0.025
837	-0.024
837	-0.023
838	-0.022
838	-0.021
839	-0.02
839	-0.02
839	-0.02
840	-0.02
840	-0.02
841	-0.02
841	-0.019
842	-0.019
842	-0.018
842	-0.018
843	-0.017
843	-0.017
844	-0.016
844	-0.015
845	-0.014
845	-0.014
845	-0.013
846	-0.013
846	-0.013
847	-0.014
847	-0.014
848	-0.014
848	-0.015
848	-0.015
849	-0.016
849	-0.016
850	-0.016
850	-0.017
851	-0.017
851	-0.017
851	-0.017
852	-0.017
852	-0.017
853	-0.017
853	-0.017
854	-0.017
854	-0.017
854	-0.018
855	-0.018
855	-0.019
856	-0.02
856	-0.021
857	-0.021
857	-0.022
857	-0.022
858	-0.023
858	-0.024
859	-0.024
859	-0.025
860	-0.025
860	-0.025
860	-0.025
861	-0.025
861	-0.025
862	-0.025
862	-0.025
863	-0.025
863	-0.025
863	-0.024
864	-0.024
864	-0.023
865	-0.022
865	-0.021
866	-0.02
866	-0.02
866	-0.018
867	-0.017
867	-0.015
868	-0.013
868	-0.011
869	-0.009
869	-0.008
869	-0.007
870	-0.006
870	-0.005
871	-0.005
871	-0.005
872	-0.006
872	-0.007
872	-0.008
873	-0.009
873	-0.011
874	-0.012
874	-0.013
875	-0.014
875	-0.015
875	-0.015
876	-0.016
876	-0.016
877	-0.016
877	-0.017
878	-0.017
878	-0.017
878	-0.017
879	-0.018
879	-0.018
880	-0.018
880	-0.018
881	-0.018
881	-0.018
881	-0.019
882	-0.019
882	-0.019
883	-0.02
883	-0.02
884	-0.02
884	-0.02
884	-0.02
885	-0.02
885	-0.02
886	-0.019
886	-0.018
887	-0.017
887	-0.016
887	-0.015
888	-0.014
888	-0.014
889	-0.013
889	-0.013
890	-0.012
890	-0.013
890	-0.013
891	-0.014
891	-0.015
892	-0.016
892	-0.017
893	-0.018
893	-0.019
893	-0.019
894	-0.019
894	-0.019
895	-0.02
895	-0.02
895	-0.02
896	-0.021
896	-0.021
897	-0.021
897	-0.021
898	-0.021
898	-0.021
898	-0.02
899	-0.02
899	-0.019
900	-0.018
900	-0.016
901	-0.015
901	-0.014
901	-0.012
902	-0.011
902	-0.01
903	-0.01
903	-0.009
904	-0.009
904	-0.009
904	-0.008
905	-0.008
905	-0.008
906	-0.008
906	-0.008
907	-0.007
907	-0.007
907	-0.007
908	-0.008
908	-0.008
909	-0.008
909	-0.009
910	-0.01
910	-0.01
910	-0.01
911	-0.01
911	-0.01
912	-0.01
912	-0.009
913	-0.009
913	-0.008
913	-0.008
914	-0.008
914	-0.009
915	-0.009
915	-0.01
916	-0.011
916	-0.012
916	-0.013
917	-0.014
917	-0.015
918	-0.016
918	-0.017
918	-0.017
919	-0.018
919	-0.018
920	-0.017
920	-0.017
921	-0.017
921	-0.017
921	-0.017
922	-0.016
922	-0.016
923	-0.015
923	-0.015
924	-0.015
924	-0.015
924	-0.015
925	-0.015
925	-0.016
926	-0.016
926	-0.017
927	-0.017
927	-0.018
927	-0.018
928	-0.019
928	-0.02
929	-0.02
929	-0.02
930	-0.021
930	-0.021
930	-0.021
931	-0.021
931	-0.021
932	-0.022
932	-0.022
933	-0.023
933	-0.023
933	-0.024
934	-0.024
934	-0.025
935	-0.026
935	-0.027
935	-0.028
936	-0.029
936	-0.029
937	-0.029
937	-0.03
938	-0.03
938	-0.03
938	-0.03
939	-0.029
939	-0.028
940	-0.028
940	-0.027
941	-0.026
941	-0.025
941	-0.024
942	-0.023
942	-0.022
943	-0.021
943	-0.021
944	-0.021
944	-0.021
944	-0.021
945	-0.021
945	-0.021
946	-0.021
946	-0.022
946	-0.023
947	-0.023
947	-0.024
948	-0.025
948	-0.026
949	-0.026
949	-0.027
949	-0.027
950	-0.027
950	-0.027
951	-0.027
951	-0.027
952	-0.027
952	-0.026
952	-0.025
953	-0.025
953	-0.024
954	-0.024
954	-0.024
955	-0.024
955	-0.024
955	-0.024
956	-0.023
956	-0.023
957	-0.024
957	-0.024
957	-0.024
958	-0.025
958	-0.025
959	-0.025
959	-0.025
960	-0.025
960	-0.026
960	-0.027
961	-0.028
961	-0.028
962	-0.029
962	-0.03
963	-0.03
963	-0.03
963	-0.03
964	-0.03
964	-0.029
965	-0.029
965	-0.028
966	-0.027
966	-0.026
966	-0.025
967	-0.024
967	-0.023
968	-0.023
968	-0.023
968	-0.023
969	-0.023
969	-0.023
970	-0.024
970	-0.025
971	-0.025
971	-0.026
971	-0.027
972	-0.027
972	-0.027
973	-0.027
973	-0.028
974	-0.028
974	-0.028
974	-0.029
975	-0.028
975	-0.028
976	-0.028
976	-0.028
976	-0.029
977	-0.03
977	-0.031
978	-0.032
978	-0.034
979	-0.035
979	-0.035
979	-0.036
980	-0.038
980	-0.038
981	-0.039
981	-0.04
982	-0.04
982	-0.04
982	-0.04
983	-0.04
983	-0.041
984	-0.041
984	-0.041
984	-0.04
985	-0.04
985	-0.04
986	-0.04
986	-0.04
987	-0.039
987	-0.038
987	-0.037
988	-0.036
988	-0.035
989	-0.034
989	-0.033
990	-0.032
990	-0.03
990	-0.029
991	-0.027
991	-0.026
992	-0.025
992	-0.024
992	-0.023
993	-0.023
993	-0.022
994	-0.022
994	-0.023
995	-0.023
995	-0.024
995	-0.024
996	-0.025
996	-0.026
997	-0.026
997	-0.027
997	-0.027
998	-0.027
998	-0.027
999	-0.026
999	-0.026
1000	-0.026
1000	-0.026
1000	-0.025
1001	-0.025
1001	-0.025
1002	-0.025
1002	-0.025
1003	-0.025
1003	-0.026
1003	-0.026
1004	-0.027
1004	-0.027
1005	-0.028
1005	-0.029
1005	-0.03
1006	-0.031
1006	-0.032
1007	-0.033
1007	-0.034
1008	-0.035
1008	-0.036
1008	-0.036
1009	-0.036
1009	-0.036
1010	-0.036
1010	-0.036
1010	-0.036
1011	-0.036
1011	-0.036
1012	-0.035
1012	-0.035
1013	-0.035
1013	-0.035
1013	-0.036
1014	-0.036
1014	-0.037
1015	-0.037
1015	-0.038
1016	-0.038
1016	-0.039
1016	-0.039
1017	-0.04
1017	-0.04
1018	-0.04
1018	-0.04
1018	-0.04
1019	-0.039
1019	-0.039
1020	-0.039
1020	-0.039
1021	-0.039
1021	-0.039
1021	-0.039
1022	-0.039
1022	-0.039
1023	-0.04
1023	-0.04
1023	-0.041
1024	-0.041
1024	-0.042
1025	-0.043
1025	-0.044
1026	-0.045
1026	-0.045
1026	-0.046
1027	-0.046
1027	-0.047
1028	-0.047
1028	-0.047
1028	-0.047
1029	-0.046
1029	-0.046
1030	-0.046
1030	-0.045
1031	-0.045
1031	-0.045
1031	-0.044
1032	-0.044
1032	-0.043
1033	-0.043
1033	-0.043
1033	-0.043
1034	-0.044
1034	-0.045
1035	-0.045
1035	-0.045
1036	-0.046
1036	-0.046
1036	-0.046
1037	-0.046
1037	-0.047
1038	-0.047
1038	-0.046
1039	-0.046
1039	-0.045
1039	-0.045
1040	-0.044
1040	-0.044
1041	-0.044
1041	-0.044
1041	-0.044
1042	-0.044
1042	-0.044
1043	-0.044
1043	-0.044
1044	-0.044
1044	-0.045
1044	-0.045
1045	-0.045
1045	-0.046
1046	-0.047
1046	-0.047
1046	-0.048
1047	-0.048
1047	-0.048
1048	-0.048
1048	-0.049
1049	-0.049
1049	-0.05
1049	-0.051
1050	-0.052
1050	-0.053
1051	-0.055
1051	-0.055
1051	-0.056
1052	-0.057
1052	-0.059
1053	-0.059
1053	-0.06
1053	-0.06
1054	-0.06
1054	-0.06
1055	-0.06
1055	-0.06
1056	-0.06
1056	-0.06
1056	-0.061
1057	-0.061
1057	-0.062
1058	-0.062
1058	-0.062
1058	-0.062
1059	-0.063
1059	-0.063
1060	-0.063
1060	-0.063
1061	-0.062
1061	-0.061
1061	-0.061
1062	-0.061
1062	-0.06
1063	-0.06
1063	-0.06
1063	-0.059
1064	-0.059
1064	-0.058
1065	-0.058
1065	-0.058
1066	-0.058
1066	-0.058
1066	-0.057
1067	-0.057
1067	-0.056
1068	-0.056
1068	-0.056
1068	-0.056
1069	-0.056
1069	-0.057
1070	-0.057
1070	-0.057
1071	-0.057
1071	-0.057
1071	-0.058
1072	-0.058
1072	-0.058
1073	-0.058
1073	-0.058
1073	-0.058
1074	-0.058
1074	-0.058
1075	-0.058
1075	-0.059
1076	-0.059
1076	-0.059
1076	-0.06
1077	-0.06
1077	-0.06
1078	-0.061
1078	-0.06
1078	-0.059
1079	-0.059
1079	-0.059
1080	-0.059
1080	-0.058
1080	-0.059
1081	-0.058
1081	-0.058
1082	-0.058
1082	-0.058
1083	-0.059
1083	-0.059
1083	-0.059
1084	-0.059
1084	-0.058
1085	-0.057
1085	-0.056
1085	-0.055
1086	-0.055
1086	-0.054
1087	-0.053
1087	-0.052
1088	-0.052
1088	-0.052
1088	-0.052
1089	-0.053
1089	-0.053
1090	-0.053
1090	-0.052
1090	-0.052
1091	-0.052
1091	-0.051
1092	-0.051
1092	-0.049
1092	-0.049
1093	-0.047
1093	-0.045
1094	-0.043
1094	-0.041
1095	-0.04
1095	-0.039
1095	-0.037
1096	-0.036
1096	-0.034
1097	-0.033
1097	-0.032
1097	-0.031
1098	-0.031
1098	-0.03
1099	-0.028
1099	-0.026
1100	-0.025
1100	-0.023
1100	-0.021
1101	-0.02
1101	-0.018
1102	-0.014
1102	-0.011
1102	-0.007
1103	-0.004
1103	0.001
1104	0.006
1104	0.011
1104	0.018
1105	0.025
1105	0.031
1106	0.035
1106	0.041
1107	0.047
1107	0.057
1107	0.07
1108	0.112
1108	0.173
1109	0.261
1109	0.413
1109	0.54
1110	0.86
1110	-0
1111	-0
1111	-0
