Data from 15c-2a-fridge-noshake_Absorbance__954__07191.txt Node

Date: Wed Jan 17 19:10:06 CET 2024
User: Marek
Spectrometer: MAYP115816
Trigger mode: 0
Integration Time (sec): 2.000000E-1
Scans to average: 10
Electric dark correction enabled: true
Nonlinearity correction enabled: true
Boxcar width: 5
XAxis mode: Wavelengths
Number of Pixels in Spectrum: 2068
>>>>>Begin Spectral Data<<<<<
199	-1.563
199	-1.428
200	-1.272
200	-1.152
201	-1.078
201	-1.033
202	-0.967
202	-0.919
203	-0.876
203	-0.841
204	-0.817
204	-0.795
205	-0.772
205	-0.763
205	-0.761
206	-0.761
206	-0.758
207	-0.756
207	-0.751
208	-0.75
208	-0.749
209	-0.745
209	-0.744
210	-0.743
210	-0.745
211	-0.743
211	-0.742
212	-0.744
212	-0.743
213	-0.744
213	-0.743
213	-0.743
214	-0.742
214	-0.741
215	-0.74
215	-0.739
216	-0.739
216	-0.737
217	-0.731
217	-0.729
218	-0.729
218	-0.725
219	-0.721
219	-0.721
220	-0.718
220	-0.716
221	-0.711
221	-0.709
221	-0.705
222	-0.702
222	-0.697
223	-0.691
223	-0.689
224	-0.684
224	-0.678
225	-0.669
225	-0.662
226	-0.654
226	-0.642
227	-0.63
227	-0.619
228	-0.604
228	-0.587
229	-0.567
229	-0.544
229	-0.518
230	-0.491
230	-0.461
231	-0.428
231	-0.394
232	-0.36
232	-0.323
233	-0.285
233	-0.246
234	-0.208
234	-0.171
235	-0.136
235	-0.103
236	-0.071
236	-0.041
236	-0.013
237	0.012
237	0.035
238	0.056
238	0.075
239	0.092
239	0.108
240	0.121
240	0.133
241	0.144
241	0.154
242	0.162
242	0.17
243	0.177
243	0.183
243	0.188
244	0.193
244	0.197
245	0.2
245	0.204
246	0.207
246	0.21
247	0.213
247	0.216
248	0.218
248	0.221
249	0.223
249	0.225
250	0.227
250	0.229
250	0.231
251	0.232
251	0.234
252	0.235
252	0.236
253	0.238
253	0.238
254	0.239
254	0.24
255	0.241
255	0.242
256	0.243
256	0.243
257	0.244
257	0.244
258	0.244
258	0.244
258	0.244
259	0.244
259	0.244
260	0.244
260	0.243
261	0.243
261	0.243
262	0.242
262	0.242
263	0.241
263	0.241
264	0.24
264	0.239
265	0.238
265	0.237
265	0.236
266	0.235
266	0.234
267	0.232
267	0.231
268	0.229
268	0.228
269	0.227
269	0.225
270	0.224
270	0.222
271	0.22
271	0.219
272	0.217
272	0.215
272	0.213
273	0.212
273	0.21
274	0.208
274	0.206
275	0.205
275	0.203
276	0.201
276	0.2
277	0.198
277	0.197
278	0.195
278	0.193
278	0.191
279	0.189
279	0.186
280	0.184
280	0.182
281	0.179
281	0.177
282	0.175
282	0.173
283	0.171
283	0.169
284	0.168
284	0.167
285	0.166
285	0.165
285	0.163
286	0.162
286	0.161
287	0.16
287	0.158
288	0.157
288	0.156
289	0.155
289	0.153
290	0.152
290	0.151
291	0.15
291	0.149
292	0.148
292	0.147
292	0.146
293	0.145
293	0.144
294	0.143
294	0.142
295	0.142
295	0.141
296	0.14
296	0.14
297	0.139
297	0.139
298	0.138
298	0.138
298	0.137
299	0.137
299	0.136
300	0.136
300	0.135
301	0.135
301	0.134
302	0.134
302	0.133
303	0.133
303	0.132
304	0.132
304	0.132
305	0.131
305	0.131
305	0.13
306	0.13
306	0.13
307	0.129
307	0.129
308	0.128
308	0.128
309	0.128
309	0.127
310	0.127
310	0.126
311	0.126
311	0.126
311	0.125
312	0.125
312	0.124
313	0.124
313	0.123
314	0.123
314	0.122
315	0.122
315	0.122
316	0.121
316	0.121
317	0.12
317	0.12
318	0.12
318	0.119
318	0.119
319	0.118
319	0.118
320	0.118
320	0.117
321	0.117
321	0.116
322	0.116
322	0.115
323	0.114
323	0.114
324	0.113
324	0.113
324	0.112
325	0.112
325	0.111
326	0.111
326	0.111
327	0.11
327	0.11
328	0.109
328	0.109
329	0.108
329	0.108
330	0.107
330	0.107
330	0.107
331	0.106
331	0.106
332	0.105
332	0.105
333	0.104
333	0.104
334	0.103
334	0.103
335	0.102
335	0.102
336	0.101
336	0.101
336	0.1
337	0.1
337	0.1
338	0.099
338	0.099
339	0.099
339	0.099
340	0.098
340	0.098
341	0.098
341	0.097
342	0.097
342	0.097
342	0.096
343	0.096
343	0.096
344	0.095
344	0.095
345	0.095
345	0.094
346	0.094
346	0.093
347	0.093
347	0.092
348	0.092
348	0.092
348	0.092
349	0.091
349	0.091
350	0.09
350	0.09
351	0.09
351	0.09
352	0.089
352	0.089
353	0.089
353	0.089
354	0.088
354	0.088
354	0.088
355	0.087
355	0.087
356	0.087
356	0.086
357	0.086
357	0.086
358	0.085
358	0.085
359	0.085
359	0.085
360	0.085
360	0.086
360	0.086
361	0.086
361	0.086
362	0.086
362	0.086
363	0.086
363	0.086
364	0.085
364	0.085
365	0.085
365	0.085
366	0.085
366	0.084
366	0.084
367	0.084
367	0.084
368	0.084
368	0.083
369	0.083
369	0.083
370	0.083
370	0.083
371	0.083
371	0.083
372	0.083
372	0.083
372	0.083
373	0.083
373	0.083
374	0.083
374	0.083
375	0.083
375	0.083
376	0.083
376	0.083
377	0.083
377	0.083
378	0.083
378	0.083
378	0.084
379	0.084
379	0.084
380	0.084
380	0.084
381	0.084
381	0.083
382	0.083
382	0.083
383	0.083
383	0.083
383	0.082
384	0.082
384	0.082
385	0.082
385	0.082
386	0.082
386	0.082
387	0.082
387	0.082
388	0.082
388	0.082
389	0.082
389	0.082
389	0.082
390	0.082
390	0.082
391	0.082
391	0.082
392	0.082
392	0.082
393	0.082
393	0.082
394	0.082
394	0.082
394	0.082
395	0.082
395	0.081
396	0.081
396	0.081
397	0.081
397	0.081
398	0.081
398	0.081
399	0.081
399	0.081
400	0.081
400	0.08
400	0.08
401	0.08
401	0.08
402	0.079
402	0.079
403	0.079
403	0.08
404	0.08
404	0.08
405	0.08
405	0.079
405	0.079
406	0.079
406	0.079
407	0.079
407	0.079
408	0.078
408	0.078
409	0.078
409	0.078
410	0.078
410	0.078
411	0.078
411	0.078
411	0.078
412	0.078
412	0.078
413	0.079
413	0.079
414	0.078
414	0.078
415	0.078
415	0.077
416	0.077
416	0.077
416	0.076
417	0.076
417	0.076
418	0.076
418	0.077
419	0.077
419	0.078
420	0.078
420	0.079
421	0.079
421	0.079
421	0.08
422	0.08
422	0.08
423	0.08
423	0.08
424	0.08
424	0.079
425	0.078
425	0.078
426	0.078
426	0.078
427	0.078
427	0.078
427	0.078
428	0.078
428	0.079
429	0.079
429	0.079
430	0.079
430	0.079
431	0.079
431	0.079
432	0.079
432	0.078
432	0.078
433	0.077
433	0.077
434	0.077
434	0.077
435	0.077
435	0.077
436	0.077
436	0.077
437	0.077
437	0.077
437	0.077
438	0.077
438	0.077
439	0.077
439	0.077
440	0.077
440	0.077
441	0.077
441	0.077
442	0.077
442	0.077
442	0.077
443	0.077
443	0.078
444	0.078
444	0.078
445	0.078
445	0.078
446	0.079
446	0.078
447	0.078
447	0.078
447	0.079
448	0.079
448	0.079
449	0.078
449	0.078
450	0.078
450	0.078
451	0.078
451	0.078
452	0.078
452	0.078
452	0.078
453	0.078
453	0.078
454	0.077
454	0.077
455	0.077
455	0.077
456	0.077
456	0.077
457	0.077
457	0.077
458	0.077
458	0.077
458	0.078
459	0.078
459	0.078
460	0.077
460	0.077
461	0.077
461	0.077
462	0.077
462	0.077
463	0.078
463	0.078
463	0.079
464	0.078
464	0.078
465	0.079
465	0.079
466	0.079
466	0.08
467	0.079
467	0.079
467	0.079
468	0.078
468	0.078
469	0.078
469	0.078
470	0.078
470	0.078
471	0.078
471	0.078
472	0.078
472	0.078
472	0.078
473	0.079
473	0.079
474	0.079
474	0.08
475	0.08
475	0.08
476	0.08
476	0.08
477	0.08
477	0.08
477	0.081
478	0.081
478	0.081
479	0.081
479	0.081
480	0.082
480	0.082
481	0.083
481	0.083
482	0.084
482	0.085
482	0.086
483	0.087
483	0.089
484	0.09
484	0.09
485	0.09
485	0.091
486	0.091
486	0.091
487	0.091
487	0.092
487	0.092
488	0.091
488	0.091
489	0.09
489	0.092
490	0.092
490	0.093
491	0.093
491	0.094
492	0.095
492	0.095
492	0.095
493	0.096
493	0.097
494	0.098
494	0.099
495	0.1
495	0.1
496	0.101
496	0.102
496	0.103
497	0.104
497	0.105
498	0.105
498	0.106
499	0.106
499	0.107
500	0.108
500	0.109
501	0.11
501	0.111
501	0.112
502	0.113
502	0.114
503	0.115
503	0.116
504	0.116
504	0.116
505	0.117
505	0.117
506	0.118
506	0.119
506	0.119
507	0.12
507	0.121
508	0.122
508	0.123
509	0.123
509	0.125
510	0.125
510	0.126
511	0.126
511	0.127
511	0.127
512	0.128
512	0.128
513	0.128
513	0.127
514	0.127
514	0.127
515	0.128
515	0.127
515	0.127
516	0.128
516	0.128
517	0.129
517	0.129
518	0.129
518	0.128
519	0.128
519	0.128
520	0.128
520	0.127
520	0.127
521	0.126
521	0.125
522	0.124
522	0.124
523	0.124
523	0.125
524	0.125
524	0.125
524	0.125
525	0.126
525	0.126
526	0.127
526	0.127
527	0.127
527	0.127
528	0.127
528	0.128
529	0.127
529	0.127
529	0.127
530	0.127
530	0.127
531	0.127
531	0.127
532	0.126
532	0.126
533	0.126
533	0.125
533	0.125
534	0.124
534	0.123
535	0.122
535	0.122
536	0.121
536	0.12
537	0.12
537	0.119
538	0.118
538	0.117
538	0.116
539	0.116
539	0.115
540	0.114
540	0.113
541	0.111
541	0.11
542	0.109
542	0.108
542	0.107
543	0.106
543	0.105
544	0.104
544	0.103
545	0.103
545	0.103
546	0.103
546	0.101
547	0.1
547	0.098
547	0.097
548	0.097
548	0.096
549	0.095
549	0.094
550	0.093
550	0.092
551	0.09
551	0.089
551	0.089
552	0.088
552	0.087
553	0.087
553	0.086
554	0.085
554	0.083
555	0.081
555	0.079
556	0.078
556	0.076
556	0.075
557	0.074
557	0.073
558	0.071
558	0.07
559	0.069
559	0.068
560	0.067
560	0.066
560	0.066
561	0.066
561	0.066
562	0.065
562	0.064
563	0.062
563	0.061
564	0.059
564	0.058
564	0.057
565	0.057
565	0.056
566	0.055
566	0.054
567	0.054
567	0.054
568	0.054
568	0.054
568	0.055
569	0.056
569	0.056
570	0.056
570	0.054
571	0.054
571	0.055
572	0.054
572	0.053
573	0.052
573	0.051
573	0.049
574	0.049
574	0.049
575	0.048
575	0.05
576	0.05
576	0.048
577	0.046
577	0.045
577	0.045
578	0.045
578	0.045
579	0.046
579	0.047
580	0.045
580	0.041
581	0.037
581	0.036
581	0.036
582	0.037
582	0.037
583	0.037
583	0.036
584	0.032
584	0.028
585	0.029
585	0.031
585	0.032
586	0.032
586	0.032
587	0.03
587	0.028
588	0.026
588	0.025
589	0.026
589	0.027
590	0.027
590	0.027
590	0.029
591	0.031
591	0.03
592	0.029
592	0.027
593	0.027
593	0.028
594	0.027
594	0.025
594	0.024
595	0.024
595	0.022
596	0.022
596	0.024
597	0.028
597	0.029
598	0.029
598	0.031
598	0.031
599	0.032
599	0.031
600	0.03
600	0.029
601	0.029
601	0.028
602	0.026
602	0.026
602	0.025
603	0.025
603	0.027
604	0.029
604	0.03
605	0.032
605	0.034
606	0.034
606	0.032
606	0.032
607	0.031
607	0.031
608	0.031
608	0.028
609	0.027
609	0.027
610	0.026
610	0.025
610	0.026
611	0.028
611	0.03
612	0.032
612	0.033
613	0.035
613	0.036
614	0.036
614	0.034
614	0.034
615	0.033
615	0.032
616	0.032
616	0.031
617	0.03
617	0.028
618	0.027
618	0.026
618	0.027
619	0.028
619	0.029
620	0.032
620	0.033
621	0.033
621	0.034
622	0.034
622	0.034
622	0.034
623	0.034
623	0.035
624	0.035
624	0.034
625	0.033
625	0.034
626	0.034
626	0.034
626	0.035
627	0.036
627	0.036
628	0.037
628	0.037
629	0.038
629	0.038
630	0.037
630	0.036
630	0.037
631	0.038
631	0.038
632	0.038
632	0.039
633	0.039
633	0.041
634	0.043
634	0.044
634	0.046
635	0.047
635	0.048
636	0.049
636	0.05
637	0.051
637	0.051
638	0.052
638	0.053
638	0.053
639	0.053
639	0.054
640	0.055
640	0.056
641	0.057
641	0.058
642	0.06
642	0.061
642	0.063
643	0.064
643	0.065
644	0.066
644	0.068
645	0.069
645	0.071
646	0.073
646	0.075
646	0.077
647	0.079
647	0.081
648	0.082
648	0.083
649	0.085
649	0.087
650	0.089
650	0.09
650	0.091
651	0.092
651	0.093
652	0.094
652	0.096
653	0.098
653	0.106
653	0.123
654	0.101
654	0.083
655	0.08
655	0.081
656	0.082
656	0.083
657	0.084
657	0.085
657	0.086
658	0.082
658	0.069
659	0.087
659	0.112
660	0.123
660	0.126
661	0.127
661	0.129
661	0.132
662	0.135
662	0.138
663	0.141
663	0.143
664	0.145
664	0.147
665	0.149
665	0.151
665	0.153
666	0.154
666	0.155
667	0.156
667	0.157
668	0.159
668	0.16
669	0.162
669	0.164
669	0.167
670	0.17
670	0.171
671	0.172
671	0.174
672	0.176
672	0.177
672	0.179
673	0.18
673	0.182
674	0.183
674	0.183
675	0.184
675	0.185
676	0.188
676	0.19
676	0.19
677	0.191
677	0.193
678	0.193
678	0.193
679	0.193
679	0.194
680	0.196
680	0.196
680	0.196
681	0.197
681	0.198
682	0.199
682	0.2
683	0.201
683	0.204
684	0.205
684	0.205
684	0.204
685	0.205
685	0.206
686	0.206
686	0.206
687	0.205
687	0.205
687	0.205
688	0.204
688	0.203
689	0.204
689	0.204
690	0.203
690	0.202
691	0.201
691	0.2
691	0.198
692	0.197
692	0.195
693	0.195
693	0.194
694	0.193
694	0.191
695	0.192
695	0.193
695	0.192
696	0.191
696	0.19
697	0.189
697	0.188
698	0.187
698	0.185
698	0.184
699	0.184
699	0.182
700	0.179
700	0.179
701	0.18
701	0.179
702	0.179
702	0.178
702	0.177
703	0.176
703	0.175
704	0.174
704	0.173
705	0.172
705	0.171
705	0.169
706	0.167
706	0.166
707	0.165
707	0.163
708	0.161
708	0.16
709	0.159
709	0.157
709	0.154
710	0.152
710	0.15
711	0.149
711	0.148
712	0.146
712	0.145
713	0.143
713	0.141
713	0.14
714	0.138
714	0.136
715	0.135
715	0.133
716	0.131
716	0.13
716	0.129
717	0.127
717	0.126
718	0.124
718	0.122
719	0.121
719	0.12
720	0.117
720	0.115
720	0.113
721	0.11
721	0.109
722	0.107
722	0.105
723	0.104
723	0.103
723	0.102
724	0.1
724	0.099
725	0.098
725	0.097
726	0.095
726	0.094
727	0.093
727	0.091
727	0.09
728	0.088
728	0.087
729	0.088
729	0.087
730	0.086
730	0.085
730	0.084
731	0.083
731	0.082
732	0.081
732	0.08
733	0.078
733	0.077
734	0.075
734	0.074
734	0.073
735	0.073
735	0.072
736	0.071
736	0.07
737	0.07
737	0.071
737	0.07
738	0.068
738	0.066
739	0.064
739	0.062
740	0.06
740	0.059
741	0.058
741	0.055
741	0.052
742	0.049
742	0.047
743	0.046
743	0.044
744	0.043
744	0.042
744	0.04
745	0.039
745	0.037
746	0.036
746	0.035
747	0.033
747	0.033
748	0.032
748	0.031
748	0.03
749	0.028
749	0.028
750	0.027
750	0.026
751	0.026
751	0.026
751	0.027
752	0.026
752	0.025
753	0.025
753	0.025
754	0.025
754	0.025
754	0.025
755	0.025
755	0.026
756	0.024
756	0.022
757	0.02
757	0.019
758	0.018
758	0.017
758	0.016
759	0.015
759	0.012
760	0.01
760	0.008
761	0.007
761	0.007
761	0.006
762	0.005
762	0.006
763	0.006
763	0.004
764	0.002
764	0.001
764	-0
765	-0.002
765	-0.003
766	-0.003
766	-0.004
767	-0.005
767	-0.007
768	-0.01
768	-0.011
768	-0.011
769	-0.011
769	-0.012
770	-0.013
770	-0.014
771	-0.016
771	-0.018
771	-0.02
772	-0.021
772	-0.022
773	-0.024
773	-0.025
774	-0.027
774	-0.029
775	-0.03
775	-0.032
775	-0.034
776	-0.036
776	-0.037
777	-0.04
777	-0.042
778	-0.044
778	-0.047
778	-0.049
779	-0.05
779	-0.052
780	-0.055
780	-0.058
781	-0.06
781	-0.063
781	-0.066
782	-0.07
782	-0.074
783	-0.078
783	-0.082
784	-0.087
784	-0.092
784	-0.097
785	-0.102
785	-0.107
786	-0.112
786	-0.116
787	-0.118
787	-0.12
788	-0.126
788	-0.132
788	-0.138
789	-0.143
789	-0.146
790	-0.146
790	-0.148
791	-0.151
791	-0.153
791	-0.155
792	-0.15
792	-0.139
793	-0.133
793	-0.129
794	-0.128
794	-0.13
794	-0.134
795	-0.136
795	-0.137
796	-0.137
796	-0.14
797	-0.149
797	-0.16
797	-0.167
798	-0.172
798	-0.175
799	-0.175
799	-0.174
800	-0.174
800	-0.175
801	-0.178
801	-0.179
801	-0.179
802	-0.18
802	-0.182
803	-0.182
803	-0.183
804	-0.182
804	-0.177
804	-0.17
805	-0.167
805	-0.164
806	-0.162
806	-0.161
807	-0.16
807	-0.159
807	-0.16
808	-0.159
808	-0.161
809	-0.166
809	-0.171
810	-0.175
810	-0.178
810	-0.182
811	-0.185
811	-0.185
812	-0.182
812	-0.178
813	-0.178
813	-0.179
813	-0.179
814	-0.18
814	-0.179
815	-0.176
815	-0.172
816	-0.169
816	-0.166
817	-0.166
817	-0.164
817	-0.158
818	-0.151
818	-0.141
819	-0.132
819	-0.124
820	-0.117
820	-0.11
820	-0.103
821	-0.095
821	-0.089
822	-0.083
822	-0.079
823	-0.075
823	-0.072
823	-0.07
824	-0.067
824	-0.064
825	-0.06
825	-0.057
826	-0.055
826	-0.054
826	-0.053
827	-0.051
827	-0.05
828	-0.049
828	-0.048
829	-0.047
829	-0.046
829	-0.046
830	-0.046
830	-0.046
831	-0.044
831	-0.043
832	-0.042
832	-0.041
832	-0.04
833	-0.039
833	-0.038
834	-0.037
834	-0.036
835	-0.034
835	-0.033
835	-0.032
836	-0.031
836	-0.029
837	-0.028
837	-0.027
838	-0.027
838	-0.026
839	-0.025
839	-0.026
839	-0.026
840	-0.026
840	-0.027
841	-0.027
841	-0.028
842	-0.028
842	-0.028
842	-0.028
843	-0.028
843	-0.028
844	-0.027
844	-0.026
845	-0.025
845	-0.024
845	-0.023
846	-0.022
846	-0.022
847	-0.022
847	-0.022
848	-0.022
848	-0.023
848	-0.023
849	-0.023
849	-0.024
850	-0.024
850	-0.025
851	-0.025
851	-0.024
851	-0.024
852	-0.024
852	-0.024
853	-0.023
853	-0.023
854	-0.023
854	-0.023
854	-0.023
855	-0.023
855	-0.024
856	-0.024
856	-0.025
857	-0.025
857	-0.025
857	-0.025
858	-0.024
858	-0.024
859	-0.024
859	-0.024
860	-0.023
860	-0.022
860	-0.021
861	-0.02
861	-0.02
862	-0.02
862	-0.02
863	-0.02
863	-0.02
863	-0.019
864	-0.019
864	-0.019
865	-0.019
865	-0.018
866	-0.018
866	-0.018
866	-0.018
867	-0.017
867	-0.016
868	-0.015
868	-0.015
869	-0.014
869	-0.013
869	-0.013
870	-0.013
870	-0.013
871	-0.013
871	-0.014
872	-0.014
872	-0.016
872	-0.016
873	-0.017
873	-0.018
874	-0.018
874	-0.018
875	-0.018
875	-0.018
875	-0.018
876	-0.017
876	-0.016
877	-0.015
877	-0.014
878	-0.013
878	-0.012
878	-0.01
879	-0.01
879	-0.01
880	-0.01
880	-0.01
881	-0.01
881	-0.01
881	-0.011
882	-0.012
882	-0.013
883	-0.014
883	-0.015
884	-0.015
884	-0.016
884	-0.016
885	-0.016
885	-0.016
886	-0.015
886	-0.015
887	-0.015
887	-0.015
887	-0.015
888	-0.015
888	-0.015
889	-0.015
889	-0.015
890	-0.015
890	-0.015
890	-0.016
891	-0.017
891	-0.017
892	-0.018
892	-0.019
893	-0.02
893	-0.02
893	-0.021
894	-0.021
894	-0.022
895	-0.022
895	-0.023
895	-0.024
896	-0.024
896	-0.024
897	-0.024
897	-0.025
898	-0.025
898	-0.025
898	-0.026
899	-0.026
899	-0.026
900	-0.026
900	-0.025
901	-0.024
901	-0.022
901	-0.021
902	-0.019
902	-0.018
903	-0.017
903	-0.015
904	-0.015
904	-0.014
904	-0.013
905	-0.013
905	-0.013
906	-0.013
906	-0.014
907	-0.014
907	-0.014
907	-0.014
908	-0.015
908	-0.015
909	-0.014
909	-0.014
910	-0.014
910	-0.013
910	-0.012
911	-0.011
911	-0.01
912	-0.008
912	-0.007
913	-0.006
913	-0.005
913	-0.005
914	-0.004
914	-0.005
915	-0.005
915	-0.006
916	-0.007
916	-0.009
916	-0.01
917	-0.012
917	-0.013
918	-0.015
918	-0.016
918	-0.017
919	-0.017
919	-0.017
920	-0.017
920	-0.017
921	-0.017
921	-0.017
921	-0.016
922	-0.016
922	-0.015
923	-0.014
923	-0.013
924	-0.013
924	-0.013
924	-0.013
925	-0.013
925	-0.014
926	-0.014
926	-0.015
927	-0.016
927	-0.017
927	-0.018
928	-0.019
928	-0.02
929	-0.021
929	-0.022
930	-0.022
930	-0.023
930	-0.023
931	-0.024
931	-0.024
932	-0.025
932	-0.026
933	-0.026
933	-0.027
933	-0.028
934	-0.028
934	-0.029
935	-0.03
935	-0.03
935	-0.03
936	-0.031
936	-0.03
937	-0.03
937	-0.03
938	-0.03
938	-0.029
938	-0.029
939	-0.028
939	-0.028
940	-0.027
940	-0.027
941	-0.026
941	-0.025
941	-0.024
942	-0.023
942	-0.023
943	-0.022
943	-0.022
944	-0.022
944	-0.021
944	-0.021
945	-0.021
945	-0.021
946	-0.02
946	-0.021
946	-0.021
947	-0.021
947	-0.022
948	-0.022
948	-0.023
949	-0.023
949	-0.024
949	-0.024
950	-0.025
950	-0.025
951	-0.025
951	-0.026
952	-0.026
952	-0.026
952	-0.026
953	-0.026
953	-0.026
954	-0.026
954	-0.026
955	-0.026
955	-0.026
955	-0.026
956	-0.025
956	-0.025
957	-0.025
957	-0.025
957	-0.026
958	-0.026
958	-0.026
959	-0.026
959	-0.027
960	-0.028
960	-0.029
960	-0.03
961	-0.031
961	-0.032
962	-0.033
962	-0.034
963	-0.034
963	-0.034
963	-0.034
964	-0.033
964	-0.032
965	-0.031
965	-0.03
966	-0.029
966	-0.027
966	-0.026
967	-0.025
967	-0.024
968	-0.024
968	-0.024
968	-0.024
969	-0.024
969	-0.025
970	-0.025
970	-0.026
971	-0.027
971	-0.027
971	-0.028
972	-0.028
972	-0.028
973	-0.027
973	-0.028
974	-0.028
974	-0.028
974	-0.028
975	-0.029
975	-0.029
976	-0.029
976	-0.03
976	-0.031
977	-0.032
977	-0.033
978	-0.034
978	-0.035
979	-0.036
979	-0.037
979	-0.038
980	-0.038
980	-0.039
981	-0.039
981	-0.038
982	-0.038
982	-0.037
982	-0.035
983	-0.034
983	-0.033
984	-0.032
984	-0.031
984	-0.03
985	-0.03
985	-0.029
986	-0.03
986	-0.03
987	-0.03
987	-0.03
987	-0.03
988	-0.029
988	-0.029
989	-0.029
989	-0.028
990	-0.027
990	-0.027
990	-0.025
991	-0.023
991	-0.022
992	-0.021
992	-0.02
992	-0.02
993	-0.019
993	-0.019
994	-0.019
994	-0.019
995	-0.019
995	-0.019
995	-0.02
996	-0.02
996	-0.021
997	-0.021
997	-0.021
997	-0.021
998	-0.021
998	-0.021
999	-0.021
999	-0.021
1000	-0.021
1000	-0.021
1000	-0.021
1001	-0.021
1001	-0.021
1002	-0.021
1002	-0.022
1003	-0.022
1003	-0.022
1003	-0.023
1004	-0.023
1004	-0.024
1005	-0.025
1005	-0.025
1005	-0.026
1006	-0.027
1006	-0.027
1007	-0.028
1007	-0.029
1008	-0.029
1008	-0.03
1008	-0.03
1009	-0.03
1009	-0.03
1010	-0.03
1010	-0.029
1010	-0.029
1011	-0.029
1011	-0.029
1012	-0.029
1012	-0.029
1013	-0.03
1013	-0.03
1013	-0.032
1014	-0.033
1014	-0.035
1015	-0.036
1015	-0.037
1016	-0.038
1016	-0.039
1016	-0.04
1017	-0.041
1017	-0.042
1018	-0.042
1018	-0.042
1018	-0.041
1019	-0.041
1019	-0.04
1020	-0.04
1020	-0.039
1021	-0.039
1021	-0.039
1021	-0.038
1022	-0.038
1022	-0.038
1023	-0.038
1023	-0.038
1023	-0.038
1024	-0.039
1024	-0.039
1025	-0.04
1025	-0.041
1026	-0.042
1026	-0.043
1026	-0.044
1027	-0.045
1027	-0.045
1028	-0.046
1028	-0.046
1028	-0.046
1029	-0.046
1029	-0.047
1030	-0.047
1030	-0.047
1031	-0.047
1031	-0.047
1031	-0.047
1032	-0.047
1032	-0.047
1033	-0.047
1033	-0.047
1033	-0.048
1034	-0.048
1034	-0.049
1035	-0.049
1035	-0.05
1036	-0.05
1036	-0.05
1036	-0.05
1037	-0.05
1037	-0.05
1038	-0.05
1038	-0.05
1039	-0.049
1039	-0.048
1039	-0.048
1040	-0.048
1040	-0.047
1041	-0.047
1041	-0.047
1041	-0.048
1042	-0.048
1042	-0.049
1043	-0.05
1043	-0.05
1044	-0.051
1044	-0.052
1044	-0.053
1045	-0.054
1045	-0.055
1046	-0.056
1046	-0.056
1046	-0.056
1047	-0.056
1047	-0.056
1048	-0.056
1048	-0.056
1049	-0.057
1049	-0.057
1049	-0.058
1050	-0.058
1050	-0.059
1051	-0.059
1051	-0.06
1051	-0.06
1052	-0.061
1052	-0.062
1053	-0.062
1053	-0.062
1053	-0.063
1054	-0.063
1054	-0.063
1055	-0.063
1055	-0.063
1056	-0.064
1056	-0.065
1056	-0.066
1057	-0.067
1057	-0.068
1058	-0.068
1058	-0.069
1058	-0.069
1059	-0.069
1059	-0.07
1060	-0.07
1060	-0.069
1061	-0.068
1061	-0.067
1061	-0.066
1062	-0.066
1062	-0.065
1063	-0.065
1063	-0.064
1063	-0.063
1064	-0.062
1064	-0.062
1065	-0.061
1065	-0.061
1066	-0.06
1066	-0.06
1066	-0.059
1067	-0.059
1067	-0.058
1068	-0.058
1068	-0.059
1068	-0.059
1069	-0.06
1069	-0.06
1070	-0.061
1070	-0.062
1071	-0.062
1071	-0.062
1071	-0.064
1072	-0.064
1072	-0.064
1073	-0.065
1073	-0.064
1073	-0.064
1074	-0.064
1074	-0.063
1075	-0.064
1075	-0.064
1076	-0.065
1076	-0.064
1076	-0.066
1077	-0.066
1077	-0.066
1078	-0.067
1078	-0.067
1078	-0.066
1079	-0.066
1079	-0.065
1080	-0.066
1080	-0.065
1080	-0.065
1081	-0.065
1081	-0.064
1082	-0.064
1082	-0.064
1083	-0.065
1083	-0.065
1083	-0.065
1084	-0.065
1084	-0.064
1085	-0.063
1085	-0.063
1085	-0.062
1086	-0.061
1086	-0.061
1087	-0.06
1087	-0.059
1088	-0.059
1088	-0.059
1088	-0.059
1089	-0.059
1089	-0.06
1090	-0.06
1090	-0.06
1090	-0.06
1091	-0.06
1091	-0.059
1092	-0.058
1092	-0.056
1092	-0.055
1093	-0.053
1093	-0.051
1094	-0.049
1094	-0.047
1095	-0.047
1095	-0.046
1095	-0.043
1096	-0.042
1096	-0.041
1097	-0.04
1097	-0.039
1097	-0.038
1098	-0.038
1098	-0.039
1099	-0.038
1099	-0.036
1100	-0.035
1100	-0.034
1100	-0.033
1101	-0.032
1101	-0.031
1102	-0.028
1102	-0.026
1102	-0.023
1103	-0.02
1103	-0.016
1104	-0.012
1104	-0.008
1104	-0.003
1105	0.003
1105	0.007
1106	0.01
1106	0.016
1107	0.019
1107	0.028
1107	0.036
1108	0.072
1108	0.119
1109	0.185
1109	0.293
1109	0.373
1110	0.541
1110	1.061
1111	-0
1111	-0
