Data from 15c-2a-fridge-noshake_Absorbance__990__07227.txt Node

Date: Wed Jan 17 19:11:18 CET 2024
User: Marek
Spectrometer: MAYP115816
Trigger mode: 0
Integration Time (sec): 2.000000E-1
Scans to average: 10
Electric dark correction enabled: true
Nonlinearity correction enabled: true
Boxcar width: 5
XAxis mode: Wavelengths
Number of Pixels in Spectrum: 2068
>>>>>Begin Spectral Data<<<<<
199	-1.562
199	-1.427
200	-1.271
200	-1.151
201	-1.077
201	-1.031
202	-0.965
202	-0.917
203	-0.875
203	-0.839
204	-0.815
204	-0.792
205	-0.77
205	-0.76
205	-0.759
206	-0.759
206	-0.756
207	-0.753
207	-0.749
208	-0.748
208	-0.747
209	-0.743
209	-0.742
210	-0.742
210	-0.743
211	-0.742
211	-0.742
212	-0.743
212	-0.742
213	-0.742
213	-0.741
213	-0.742
214	-0.74
214	-0.74
215	-0.739
215	-0.738
216	-0.739
216	-0.736
217	-0.732
217	-0.73
218	-0.729
218	-0.726
219	-0.722
219	-0.722
220	-0.719
220	-0.717
221	-0.711
221	-0.708
221	-0.704
222	-0.701
222	-0.696
223	-0.69
223	-0.687
224	-0.683
224	-0.676
225	-0.667
225	-0.66
226	-0.652
226	-0.641
227	-0.629
227	-0.617
228	-0.602
228	-0.585
229	-0.566
229	-0.542
229	-0.517
230	-0.489
230	-0.459
231	-0.427
231	-0.393
232	-0.358
232	-0.321
233	-0.283
233	-0.243
234	-0.207
234	-0.17
235	-0.135
235	-0.102
236	-0.071
236	-0.04
236	-0.013
237	0.013
237	0.035
238	0.056
238	0.075
239	0.093
239	0.108
240	0.122
240	0.134
241	0.145
241	0.155
242	0.163
242	0.17
243	0.178
243	0.184
243	0.189
244	0.194
244	0.198
245	0.202
245	0.206
246	0.209
246	0.213
247	0.216
247	0.218
248	0.221
248	0.223
249	0.225
249	0.227
250	0.229
250	0.231
250	0.233
251	0.234
251	0.236
252	0.237
252	0.238
253	0.239
253	0.24
254	0.241
254	0.242
255	0.243
255	0.244
256	0.245
256	0.245
257	0.245
257	0.246
258	0.246
258	0.246
258	0.247
259	0.247
259	0.246
260	0.246
260	0.246
261	0.246
261	0.246
262	0.245
262	0.245
263	0.244
263	0.243
264	0.243
264	0.242
265	0.241
265	0.24
265	0.239
266	0.238
266	0.237
267	0.235
267	0.234
268	0.232
268	0.231
269	0.229
269	0.228
270	0.226
270	0.224
271	0.222
271	0.221
272	0.219
272	0.217
272	0.215
273	0.214
273	0.212
274	0.21
274	0.209
275	0.207
275	0.205
276	0.204
276	0.202
277	0.201
277	0.2
278	0.198
278	0.196
278	0.194
279	0.191
279	0.189
280	0.186
280	0.184
281	0.182
281	0.18
282	0.178
282	0.176
283	0.174
283	0.172
284	0.171
284	0.17
285	0.169
285	0.167
285	0.166
286	0.165
286	0.164
287	0.162
287	0.161
288	0.16
288	0.159
289	0.158
289	0.156
290	0.155
290	0.154
291	0.153
291	0.152
292	0.151
292	0.15
292	0.149
293	0.148
293	0.147
294	0.146
294	0.146
295	0.145
295	0.144
296	0.143
296	0.143
297	0.142
297	0.142
298	0.141
298	0.141
298	0.14
299	0.14
299	0.139
300	0.139
300	0.138
301	0.138
301	0.137
302	0.137
302	0.136
303	0.136
303	0.135
304	0.135
304	0.135
305	0.134
305	0.134
305	0.133
306	0.133
306	0.132
307	0.132
307	0.132
308	0.131
308	0.131
309	0.13
309	0.13
310	0.129
310	0.129
311	0.129
311	0.128
311	0.128
312	0.127
312	0.127
313	0.126
313	0.126
314	0.125
314	0.125
315	0.125
315	0.124
316	0.124
316	0.123
317	0.123
317	0.123
318	0.122
318	0.122
318	0.121
319	0.121
319	0.121
320	0.12
320	0.12
321	0.119
321	0.119
322	0.118
322	0.118
323	0.117
323	0.117
324	0.116
324	0.116
324	0.115
325	0.115
325	0.114
326	0.114
326	0.113
327	0.113
327	0.112
328	0.112
328	0.112
329	0.111
329	0.111
330	0.11
330	0.11
330	0.109
331	0.109
331	0.108
332	0.108
332	0.108
333	0.107
333	0.106
334	0.106
334	0.105
335	0.105
335	0.105
336	0.104
336	0.104
336	0.103
337	0.103
337	0.103
338	0.102
338	0.102
339	0.102
339	0.101
340	0.101
340	0.101
341	0.1
341	0.1
342	0.1
342	0.099
342	0.099
343	0.099
343	0.098
344	0.098
344	0.098
345	0.097
345	0.097
346	0.097
346	0.096
347	0.096
347	0.095
348	0.095
348	0.095
348	0.094
349	0.094
349	0.093
350	0.093
350	0.093
351	0.092
351	0.092
352	0.092
352	0.092
353	0.091
353	0.091
354	0.091
354	0.091
354	0.09
355	0.09
355	0.09
356	0.089
356	0.089
357	0.089
357	0.089
358	0.088
358	0.088
359	0.088
359	0.088
360	0.088
360	0.089
360	0.089
361	0.088
361	0.088
362	0.088
362	0.088
363	0.088
363	0.088
364	0.088
364	0.087
365	0.087
365	0.087
366	0.087
366	0.087
366	0.087
367	0.087
367	0.087
368	0.087
368	0.087
369	0.087
369	0.087
370	0.087
370	0.086
371	0.086
371	0.086
372	0.086
372	0.086
372	0.086
373	0.086
373	0.085
374	0.086
374	0.086
375	0.086
375	0.086
376	0.086
376	0.086
377	0.086
377	0.086
378	0.086
378	0.087
378	0.087
379	0.087
379	0.087
380	0.087
380	0.087
381	0.087
381	0.086
382	0.086
382	0.086
383	0.086
383	0.086
383	0.085
384	0.085
384	0.085
385	0.085
385	0.085
386	0.085
386	0.085
387	0.085
387	0.085
388	0.085
388	0.085
389	0.085
389	0.085
389	0.085
390	0.085
390	0.086
391	0.086
391	0.086
392	0.086
392	0.085
393	0.085
393	0.085
394	0.085
394	0.085
394	0.085
395	0.085
395	0.085
396	0.084
396	0.085
397	0.085
397	0.085
398	0.085
398	0.084
399	0.084
399	0.084
400	0.084
400	0.084
400	0.084
401	0.083
401	0.083
402	0.082
402	0.082
403	0.083
403	0.083
404	0.083
404	0.083
405	0.083
405	0.082
405	0.082
406	0.082
406	0.082
407	0.082
407	0.082
408	0.081
408	0.081
409	0.081
409	0.081
410	0.081
410	0.081
411	0.081
411	0.081
411	0.082
412	0.082
412	0.081
413	0.081
413	0.081
414	0.081
414	0.081
415	0.081
415	0.08
416	0.08
416	0.08
416	0.079
417	0.079
417	0.079
418	0.08
418	0.08
419	0.081
419	0.081
420	0.082
420	0.082
421	0.082
421	0.083
421	0.083
422	0.083
422	0.083
423	0.083
423	0.083
424	0.083
424	0.082
425	0.082
425	0.082
426	0.082
426	0.082
427	0.082
427	0.082
427	0.082
428	0.082
428	0.082
429	0.082
429	0.082
430	0.082
430	0.082
431	0.082
431	0.082
432	0.082
432	0.081
432	0.081
433	0.08
433	0.08
434	0.08
434	0.08
435	0.081
435	0.081
436	0.081
436	0.081
437	0.081
437	0.081
437	0.081
438	0.081
438	0.081
439	0.081
439	0.081
440	0.08
440	0.08
441	0.08
441	0.08
442	0.08
442	0.08
442	0.08
443	0.081
443	0.081
444	0.081
444	0.081
445	0.082
445	0.082
446	0.082
446	0.082
447	0.082
447	0.082
447	0.082
448	0.082
448	0.082
449	0.082
449	0.082
450	0.082
450	0.082
451	0.082
451	0.082
452	0.082
452	0.082
452	0.082
453	0.082
453	0.081
454	0.081
454	0.081
455	0.081
455	0.081
456	0.081
456	0.081
457	0.081
457	0.08
458	0.08
458	0.08
458	0.081
459	0.081
459	0.081
460	0.08
460	0.08
461	0.08
461	0.08
462	0.08
462	0.081
463	0.081
463	0.082
463	0.082
464	0.082
464	0.082
465	0.082
465	0.082
466	0.083
466	0.083
467	0.083
467	0.083
467	0.082
468	0.082
468	0.081
469	0.081
469	0.081
470	0.081
470	0.081
471	0.081
471	0.081
472	0.081
472	0.081
472	0.082
473	0.082
473	0.082
474	0.083
474	0.083
475	0.083
475	0.084
476	0.084
476	0.084
477	0.084
477	0.084
477	0.084
478	0.084
478	0.085
479	0.085
479	0.085
480	0.086
480	0.086
481	0.087
481	0.087
482	0.088
482	0.089
482	0.09
483	0.091
483	0.093
484	0.094
484	0.094
485	0.094
485	0.095
486	0.095
486	0.095
487	0.095
487	0.096
487	0.096
488	0.096
488	0.095
489	0.095
489	0.096
490	0.097
490	0.097
491	0.098
491	0.099
492	0.099
492	0.1
492	0.1
493	0.1
493	0.101
494	0.102
494	0.103
495	0.104
495	0.105
496	0.106
496	0.106
496	0.108
497	0.109
497	0.11
498	0.11
498	0.111
499	0.111
499	0.112
500	0.113
500	0.114
501	0.115
501	0.116
501	0.117
502	0.118
502	0.119
503	0.12
503	0.121
504	0.122
504	0.122
505	0.122
505	0.123
506	0.123
506	0.124
506	0.125
507	0.125
507	0.126
508	0.127
508	0.128
509	0.129
509	0.13
510	0.131
510	0.132
511	0.132
511	0.133
511	0.133
512	0.133
512	0.134
513	0.133
513	0.133
514	0.133
514	0.133
515	0.134
515	0.133
515	0.133
516	0.134
516	0.134
517	0.135
517	0.135
518	0.135
518	0.135
519	0.134
519	0.134
520	0.134
520	0.134
520	0.133
521	0.132
521	0.132
522	0.131
522	0.131
523	0.131
523	0.131
524	0.131
524	0.131
524	0.132
525	0.132
525	0.133
526	0.133
526	0.133
527	0.134
527	0.134
528	0.134
528	0.134
529	0.134
529	0.134
529	0.134
530	0.133
530	0.133
531	0.133
531	0.133
532	0.132
532	0.132
533	0.131
533	0.131
533	0.13
534	0.129
534	0.128
535	0.127
535	0.127
536	0.126
536	0.125
537	0.125
537	0.124
538	0.123
538	0.122
538	0.121
539	0.121
539	0.12
540	0.119
540	0.118
541	0.116
541	0.115
542	0.114
542	0.113
542	0.112
543	0.111
543	0.11
544	0.109
544	0.108
545	0.108
545	0.108
546	0.108
546	0.107
547	0.105
547	0.104
547	0.102
548	0.102
548	0.101
549	0.1
549	0.099
550	0.098
550	0.096
551	0.095
551	0.094
551	0.093
552	0.092
552	0.092
553	0.091
553	0.091
554	0.089
554	0.087
555	0.085
555	0.083
556	0.082
556	0.08
556	0.078
557	0.077
557	0.076
558	0.075
558	0.073
559	0.072
559	0.072
560	0.071
560	0.07
560	0.07
561	0.07
561	0.069
562	0.068
562	0.067
563	0.065
563	0.064
564	0.062
564	0.061
564	0.06
565	0.06
565	0.059
566	0.057
566	0.056
567	0.056
567	0.057
568	0.057
568	0.057
568	0.057
569	0.058
569	0.058
570	0.058
570	0.056
571	0.057
571	0.057
572	0.056
572	0.055
573	0.055
573	0.053
573	0.052
574	0.051
574	0.051
575	0.05
575	0.052
576	0.052
576	0.05
577	0.048
577	0.047
577	0.047
578	0.047
578	0.047
579	0.049
579	0.049
580	0.047
580	0.043
581	0.039
581	0.038
581	0.038
582	0.039
582	0.039
583	0.04
583	0.038
584	0.035
584	0.031
585	0.031
585	0.033
585	0.034
586	0.034
586	0.034
587	0.032
587	0.03
588	0.028
588	0.028
589	0.028
589	0.029
590	0.029
590	0.029
590	0.031
591	0.033
591	0.032
592	0.031
592	0.029
593	0.029
593	0.029
594	0.028
594	0.027
594	0.026
595	0.026
595	0.024
596	0.024
596	0.026
597	0.03
597	0.031
598	0.031
598	0.032
598	0.033
599	0.033
599	0.033
600	0.032
600	0.031
601	0.03
601	0.029
602	0.027
602	0.027
602	0.026
603	0.027
603	0.029
604	0.03
604	0.032
605	0.033
605	0.035
606	0.035
606	0.034
606	0.033
607	0.033
607	0.032
608	0.032
608	0.029
609	0.028
609	0.028
610	0.027
610	0.026
610	0.027
611	0.029
611	0.031
612	0.033
612	0.035
613	0.036
613	0.038
614	0.037
614	0.036
614	0.035
615	0.035
615	0.034
616	0.034
616	0.032
617	0.032
617	0.03
618	0.029
618	0.028
618	0.029
619	0.03
619	0.031
620	0.034
620	0.034
621	0.034
621	0.035
622	0.035
622	0.036
622	0.036
623	0.035
623	0.037
624	0.037
624	0.036
625	0.035
625	0.036
626	0.036
626	0.036
626	0.037
627	0.038
627	0.038
628	0.039
628	0.039
629	0.04
629	0.039
630	0.039
630	0.038
630	0.039
631	0.04
631	0.04
632	0.04
632	0.041
633	0.041
633	0.042
634	0.044
634	0.046
634	0.048
635	0.049
635	0.05
636	0.051
636	0.052
637	0.053
637	0.053
638	0.054
638	0.055
638	0.055
639	0.055
639	0.056
640	0.057
640	0.058
641	0.059
641	0.06
642	0.062
642	0.064
642	0.065
643	0.066
643	0.067
644	0.069
644	0.07
645	0.071
645	0.073
646	0.075
646	0.077
646	0.079
647	0.082
647	0.084
648	0.085
648	0.086
649	0.088
649	0.09
650	0.092
650	0.093
650	0.094
651	0.095
651	0.096
652	0.097
652	0.099
653	0.101
653	0.109
653	0.126
654	0.103
654	0.085
655	0.082
655	0.083
656	0.084
656	0.085
657	0.086
657	0.087
657	0.088
658	0.084
658	0.071
659	0.089
659	0.115
660	0.126
660	0.129
661	0.13
661	0.133
661	0.135
662	0.139
662	0.142
663	0.144
663	0.147
664	0.149
664	0.151
665	0.153
665	0.156
665	0.157
666	0.158
666	0.159
667	0.16
667	0.161
668	0.163
668	0.164
669	0.166
669	0.168
669	0.171
670	0.174
670	0.175
671	0.177
671	0.178
672	0.18
672	0.182
672	0.183
673	0.185
673	0.186
674	0.187
674	0.187
675	0.188
675	0.19
676	0.192
676	0.194
676	0.195
677	0.196
677	0.198
678	0.199
678	0.199
679	0.199
679	0.2
680	0.201
680	0.202
680	0.202
681	0.203
681	0.204
682	0.205
682	0.206
683	0.207
683	0.21
684	0.211
684	0.211
684	0.21
685	0.211
685	0.211
686	0.211
686	0.211
687	0.211
687	0.211
687	0.211
688	0.21
688	0.209
689	0.21
689	0.21
690	0.209
690	0.208
691	0.207
691	0.206
691	0.205
692	0.203
692	0.201
693	0.2
693	0.2
694	0.198
694	0.196
695	0.197
695	0.199
695	0.198
696	0.196
696	0.195
697	0.194
697	0.193
698	0.191
698	0.19
698	0.189
699	0.188
699	0.186
700	0.184
700	0.184
701	0.184
701	0.184
702	0.183
702	0.182
702	0.182
703	0.18
703	0.179
704	0.178
704	0.177
705	0.176
705	0.175
705	0.173
706	0.171
706	0.17
707	0.169
707	0.167
708	0.165
708	0.164
709	0.163
709	0.161
709	0.158
710	0.156
710	0.154
711	0.153
711	0.151
712	0.15
712	0.148
713	0.147
713	0.145
713	0.143
714	0.141
714	0.139
715	0.138
715	0.136
716	0.134
716	0.134
716	0.132
717	0.131
717	0.13
718	0.127
718	0.125
719	0.124
719	0.123
720	0.121
720	0.118
720	0.116
721	0.114
721	0.112
722	0.11
722	0.109
723	0.108
723	0.107
723	0.106
724	0.105
724	0.103
725	0.102
725	0.1
726	0.099
726	0.098
727	0.096
727	0.095
727	0.093
728	0.091
728	0.09
729	0.09
729	0.09
730	0.089
730	0.087
730	0.087
731	0.086
731	0.085
732	0.084
732	0.083
733	0.081
733	0.079
734	0.078
734	0.076
734	0.075
735	0.075
735	0.074
736	0.072
736	0.072
737	0.072
737	0.072
737	0.072
738	0.07
738	0.067
739	0.065
739	0.063
740	0.061
740	0.06
741	0.059
741	0.057
741	0.054
742	0.05
742	0.048
743	0.047
743	0.046
744	0.045
744	0.044
744	0.042
745	0.041
745	0.039
746	0.037
746	0.036
747	0.035
747	0.035
748	0.034
748	0.033
748	0.032
749	0.03
749	0.03
750	0.029
750	0.028
751	0.028
751	0.028
751	0.028
752	0.027
752	0.027
753	0.026
753	0.027
754	0.027
754	0.026
754	0.027
755	0.027
755	0.027
756	0.025
756	0.022
757	0.021
757	0.02
758	0.019
758	0.017
758	0.016
759	0.015
759	0.013
760	0.011
760	0.009
761	0.008
761	0.008
761	0.008
762	0.007
762	0.007
763	0.007
763	0.005
764	0.003
764	0.002
764	0.001
765	-0.001
765	-0.002
766	-0.002
766	-0.003
767	-0.004
767	-0.007
768	-0.009
768	-0.01
768	-0.01
769	-0.01
769	-0.011
770	-0.012
770	-0.013
771	-0.015
771	-0.018
771	-0.019
772	-0.02
772	-0.021
773	-0.022
773	-0.024
774	-0.026
774	-0.028
775	-0.029
775	-0.031
775	-0.033
776	-0.035
776	-0.038
777	-0.04
777	-0.042
778	-0.045
778	-0.047
778	-0.049
779	-0.05
779	-0.052
780	-0.055
780	-0.058
781	-0.06
781	-0.063
781	-0.066
782	-0.07
782	-0.074
783	-0.077
783	-0.081
784	-0.086
784	-0.091
784	-0.096
785	-0.101
785	-0.107
786	-0.112
786	-0.116
787	-0.117
787	-0.12
788	-0.125
788	-0.131
788	-0.137
789	-0.143
789	-0.145
790	-0.146
790	-0.148
791	-0.151
791	-0.153
791	-0.155
792	-0.15
792	-0.139
793	-0.133
793	-0.129
794	-0.128
794	-0.13
794	-0.134
795	-0.136
795	-0.137
796	-0.137
796	-0.14
797	-0.149
797	-0.16
797	-0.167
798	-0.172
798	-0.175
799	-0.175
799	-0.174
800	-0.174
800	-0.175
801	-0.178
801	-0.179
801	-0.179
802	-0.18
802	-0.182
803	-0.182
803	-0.183
804	-0.182
804	-0.177
804	-0.17
805	-0.167
805	-0.164
806	-0.162
806	-0.161
807	-0.16
807	-0.159
807	-0.16
808	-0.159
808	-0.161
809	-0.166
809	-0.171
810	-0.175
810	-0.178
810	-0.182
811	-0.185
811	-0.185
812	-0.182
812	-0.178
813	-0.178
813	-0.179
813	-0.179
814	-0.18
814	-0.179
815	-0.176
815	-0.172
816	-0.169
816	-0.166
817	-0.166
817	-0.164
817	-0.158
818	-0.151
818	-0.141
819	-0.132
819	-0.124
820	-0.117
820	-0.11
820	-0.102
821	-0.095
821	-0.089
822	-0.083
822	-0.078
823	-0.074
823	-0.072
823	-0.07
824	-0.067
824	-0.064
825	-0.06
825	-0.057
826	-0.055
826	-0.054
826	-0.053
827	-0.051
827	-0.05
828	-0.048
828	-0.048
829	-0.047
829	-0.046
829	-0.046
830	-0.046
830	-0.045
831	-0.043
831	-0.042
832	-0.041
832	-0.04
832	-0.039
833	-0.038
833	-0.037
834	-0.036
834	-0.035
835	-0.034
835	-0.033
835	-0.032
836	-0.03
836	-0.029
837	-0.028
837	-0.026
838	-0.026
838	-0.025
839	-0.024
839	-0.025
839	-0.025
840	-0.026
840	-0.026
841	-0.026
841	-0.027
842	-0.027
842	-0.027
842	-0.027
843	-0.027
843	-0.026
844	-0.025
844	-0.024
845	-0.023
845	-0.023
845	-0.022
846	-0.021
846	-0.021
847	-0.021
847	-0.021
848	-0.021
848	-0.022
848	-0.022
849	-0.023
849	-0.023
850	-0.023
850	-0.024
851	-0.024
851	-0.023
851	-0.023
852	-0.023
852	-0.023
853	-0.022
853	-0.022
854	-0.022
854	-0.022
854	-0.022
855	-0.022
855	-0.023
856	-0.024
856	-0.024
857	-0.024
857	-0.025
857	-0.025
858	-0.025
858	-0.025
859	-0.025
859	-0.024
860	-0.024
860	-0.023
860	-0.022
861	-0.022
861	-0.021
862	-0.021
862	-0.021
863	-0.021
863	-0.02
863	-0.02
864	-0.02
864	-0.019
865	-0.019
865	-0.019
866	-0.019
866	-0.018
866	-0.017
867	-0.017
867	-0.016
868	-0.015
868	-0.014
869	-0.013
869	-0.012
869	-0.012
870	-0.012
870	-0.012
871	-0.012
871	-0.012
872	-0.013
872	-0.014
872	-0.015
873	-0.016
873	-0.017
874	-0.017
874	-0.017
875	-0.017
875	-0.017
875	-0.016
876	-0.015
876	-0.015
877	-0.014
877	-0.013
878	-0.012
878	-0.011
878	-0.01
879	-0.009
879	-0.009
880	-0.009
880	-0.01
881	-0.01
881	-0.01
881	-0.011
882	-0.012
882	-0.013
883	-0.014
883	-0.015
884	-0.015
884	-0.016
884	-0.016
885	-0.016
885	-0.015
886	-0.015
886	-0.015
887	-0.015
887	-0.015
887	-0.015
888	-0.016
888	-0.016
889	-0.016
889	-0.016
890	-0.016
890	-0.016
890	-0.017
891	-0.018
891	-0.018
892	-0.019
892	-0.019
893	-0.02
893	-0.02
893	-0.021
894	-0.021
894	-0.022
895	-0.022
895	-0.023
895	-0.024
896	-0.024
896	-0.025
897	-0.025
897	-0.025
898	-0.025
898	-0.026
898	-0.026
899	-0.026
899	-0.026
900	-0.026
900	-0.025
901	-0.023
901	-0.022
901	-0.021
902	-0.019
902	-0.018
903	-0.017
903	-0.016
904	-0.015
904	-0.015
904	-0.015
905	-0.014
905	-0.015
906	-0.015
906	-0.015
907	-0.016
907	-0.016
907	-0.017
908	-0.017
908	-0.017
909	-0.017
909	-0.017
910	-0.016
910	-0.016
910	-0.015
911	-0.014
911	-0.013
912	-0.011
912	-0.01
913	-0.009
913	-0.008
913	-0.007
914	-0.007
914	-0.007
915	-0.007
915	-0.008
916	-0.009
916	-0.01
916	-0.011
917	-0.012
917	-0.014
918	-0.015
918	-0.016
918	-0.017
919	-0.018
919	-0.018
920	-0.018
920	-0.017
921	-0.017
921	-0.017
921	-0.016
922	-0.016
922	-0.015
923	-0.014
923	-0.013
924	-0.012
924	-0.012
924	-0.012
925	-0.012
925	-0.013
926	-0.013
926	-0.014
927	-0.015
927	-0.017
927	-0.017
928	-0.019
928	-0.02
929	-0.021
929	-0.021
930	-0.022
930	-0.023
930	-0.023
931	-0.024
931	-0.024
932	-0.025
932	-0.026
933	-0.026
933	-0.027
933	-0.028
934	-0.029
934	-0.029
935	-0.03
935	-0.031
935	-0.031
936	-0.031
936	-0.031
937	-0.031
937	-0.031
938	-0.031
938	-0.03
938	-0.03
939	-0.029
939	-0.029
940	-0.028
940	-0.027
941	-0.026
941	-0.026
941	-0.025
942	-0.024
942	-0.023
943	-0.022
943	-0.022
944	-0.022
944	-0.022
944	-0.021
945	-0.021
945	-0.021
946	-0.02
946	-0.021
946	-0.021
947	-0.021
947	-0.022
948	-0.022
948	-0.023
949	-0.024
949	-0.024
949	-0.024
950	-0.025
950	-0.025
951	-0.025
951	-0.026
952	-0.027
952	-0.027
952	-0.027
953	-0.026
953	-0.027
954	-0.027
954	-0.027
955	-0.027
955	-0.027
955	-0.027
956	-0.027
956	-0.026
957	-0.026
957	-0.026
957	-0.027
958	-0.027
958	-0.027
959	-0.027
959	-0.028
960	-0.028
960	-0.029
960	-0.03
961	-0.031
961	-0.032
962	-0.033
962	-0.034
963	-0.034
963	-0.035
963	-0.035
964	-0.034
964	-0.033
965	-0.032
965	-0.031
966	-0.03
966	-0.028
966	-0.027
967	-0.026
967	-0.025
968	-0.025
968	-0.025
968	-0.025
969	-0.026
969	-0.026
970	-0.027
970	-0.027
971	-0.028
971	-0.028
971	-0.029
972	-0.029
972	-0.028
973	-0.028
973	-0.028
974	-0.028
974	-0.028
974	-0.029
975	-0.029
975	-0.029
976	-0.03
976	-0.03
976	-0.031
977	-0.033
977	-0.034
978	-0.035
978	-0.036
979	-0.037
979	-0.038
979	-0.038
980	-0.039
980	-0.039
981	-0.04
981	-0.039
982	-0.038
982	-0.037
982	-0.036
983	-0.035
983	-0.034
984	-0.033
984	-0.032
984	-0.031
985	-0.03
985	-0.03
986	-0.03
986	-0.03
987	-0.03
987	-0.03
987	-0.03
988	-0.03
988	-0.029
989	-0.029
989	-0.028
990	-0.027
990	-0.026
990	-0.024
991	-0.023
991	-0.021
992	-0.02
992	-0.019
992	-0.019
993	-0.018
993	-0.018
994	-0.018
994	-0.018
995	-0.018
995	-0.019
995	-0.019
996	-0.02
996	-0.021
997	-0.021
997	-0.022
997	-0.022
998	-0.022
998	-0.022
999	-0.021
999	-0.021
1000	-0.021
1000	-0.021
1000	-0.021
1001	-0.021
1001	-0.021
1002	-0.021
1002	-0.021
1003	-0.022
1003	-0.022
1003	-0.023
1004	-0.023
1004	-0.024
1005	-0.024
1005	-0.025
1005	-0.026
1006	-0.026
1006	-0.027
1007	-0.027
1007	-0.028
1008	-0.028
1008	-0.029
1008	-0.029
1009	-0.029
1009	-0.029
1010	-0.028
1010	-0.028
1010	-0.028
1011	-0.028
1011	-0.028
1012	-0.028
1012	-0.028
1013	-0.028
1013	-0.029
1013	-0.03
1014	-0.031
1014	-0.033
1015	-0.034
1015	-0.036
1016	-0.037
1016	-0.038
1016	-0.039
1017	-0.04
1017	-0.04
1018	-0.04
1018	-0.04
1018	-0.04
1019	-0.039
1019	-0.039
1020	-0.039
1020	-0.038
1021	-0.038
1021	-0.037
1021	-0.037
1022	-0.037
1022	-0.037
1023	-0.037
1023	-0.037
1023	-0.038
1024	-0.038
1024	-0.039
1025	-0.04
1025	-0.041
1026	-0.043
1026	-0.044
1026	-0.044
1027	-0.045
1027	-0.046
1028	-0.047
1028	-0.047
1028	-0.047
1029	-0.048
1029	-0.048
1030	-0.048
1030	-0.048
1031	-0.048
1031	-0.048
1031	-0.048
1032	-0.048
1032	-0.048
1033	-0.048
1033	-0.049
1033	-0.049
1034	-0.05
1034	-0.05
1035	-0.05
1035	-0.051
1036	-0.051
1036	-0.051
1036	-0.051
1037	-0.051
1037	-0.05
1038	-0.05
1038	-0.05
1039	-0.049
1039	-0.048
1039	-0.048
1040	-0.047
1040	-0.047
1041	-0.047
1041	-0.048
1041	-0.048
1042	-0.049
1042	-0.049
1043	-0.05
1043	-0.051
1044	-0.052
1044	-0.053
1044	-0.054
1045	-0.054
1045	-0.055
1046	-0.056
1046	-0.057
1046	-0.057
1047	-0.057
1047	-0.057
1048	-0.057
1048	-0.057
1049	-0.057
1049	-0.058
1049	-0.058
1050	-0.059
1050	-0.059
1051	-0.06
1051	-0.06
1051	-0.061
1052	-0.061
1052	-0.062
1053	-0.062
1053	-0.062
1053	-0.063
1054	-0.063
1054	-0.063
1055	-0.063
1055	-0.064
1056	-0.064
1056	-0.065
1056	-0.066
1057	-0.067
1057	-0.067
1058	-0.068
1058	-0.069
1058	-0.069
1059	-0.069
1059	-0.07
1060	-0.07
1060	-0.069
1061	-0.068
1061	-0.067
1061	-0.067
1062	-0.066
1062	-0.066
1063	-0.065
1063	-0.064
1063	-0.063
1064	-0.063
1064	-0.062
1065	-0.061
1065	-0.061
1066	-0.06
1066	-0.059
1066	-0.059
1067	-0.058
1067	-0.057
1068	-0.057
1068	-0.058
1068	-0.058
1069	-0.058
1069	-0.059
1070	-0.06
1070	-0.06
1071	-0.06
1071	-0.061
1071	-0.062
1072	-0.063
1072	-0.063
1073	-0.064
1073	-0.063
1073	-0.064
1074	-0.063
1074	-0.063
1075	-0.063
1075	-0.063
1076	-0.064
1076	-0.063
1076	-0.064
1077	-0.065
1077	-0.065
1078	-0.066
1078	-0.065
1078	-0.065
1079	-0.065
1079	-0.064
1080	-0.064
1080	-0.064
1080	-0.064
1081	-0.064
1081	-0.063
1082	-0.063
1082	-0.064
1083	-0.064
1083	-0.064
1083	-0.064
1084	-0.064
1084	-0.064
1085	-0.063
1085	-0.062
1085	-0.061
1086	-0.06
1086	-0.06
1087	-0.059
1087	-0.058
1088	-0.059
1088	-0.059
1088	-0.058
1089	-0.059
1089	-0.06
1090	-0.06
1090	-0.06
1090	-0.06
1091	-0.059
1091	-0.058
1092	-0.057
1092	-0.056
1092	-0.055
1093	-0.053
1093	-0.05
1094	-0.048
1094	-0.047
1095	-0.047
1095	-0.046
1095	-0.043
1096	-0.043
1096	-0.041
1097	-0.04
1097	-0.04
1097	-0.039
1098	-0.039
1098	-0.039
1099	-0.038
1099	-0.036
1100	-0.034
1100	-0.034
1100	-0.032
1101	-0.032
1101	-0.03
1102	-0.027
1102	-0.024
1102	-0.021
1103	-0.019
1103	-0.014
1104	-0.012
1104	-0.008
1104	-0.001
1105	0.004
1105	0.009
1106	0.012
1106	0.016
1107	0.019
1107	0.028
1107	0.038
1108	0.073
1108	0.122
1109	0.188
1109	0.292
1109	0.37
1110	0.536
1110	1.037
1111	-0
1111	-0
