Data from 15c-2a-fridge-noshake_Absorbance__755__06992.txt Node

Date: Wed Jan 17 19:03:02 CET 2024
User: Marek
Spectrometer: MAYP115816
Trigger mode: 0
Integration Time (sec): 2.000000E-1
Scans to average: 10
Electric dark correction enabled: true
Nonlinearity correction enabled: true
Boxcar width: 5
XAxis mode: Wavelengths
Number of Pixels in Spectrum: 2068
>>>>>Begin Spectral Data<<<<<
199	-1.569
199	-1.434
200	-1.28
200	-1.16
201	-1.085
201	-1.039
202	-0.973
202	-0.925
203	-0.883
203	-0.847
204	-0.823
204	-0.801
205	-0.778
205	-0.768
205	-0.767
206	-0.768
206	-0.764
207	-0.762
207	-0.758
208	-0.757
208	-0.757
209	-0.753
209	-0.751
210	-0.751
210	-0.751
211	-0.75
211	-0.75
212	-0.752
212	-0.751
213	-0.751
213	-0.75
213	-0.749
214	-0.749
214	-0.749
215	-0.748
215	-0.748
216	-0.748
216	-0.746
217	-0.74
217	-0.738
218	-0.738
218	-0.734
219	-0.731
219	-0.731
220	-0.728
220	-0.726
221	-0.722
221	-0.719
221	-0.715
222	-0.711
222	-0.707
223	-0.701
223	-0.699
224	-0.695
224	-0.688
225	-0.68
225	-0.673
226	-0.665
226	-0.652
227	-0.64
227	-0.629
228	-0.614
228	-0.598
229	-0.578
229	-0.554
229	-0.529
230	-0.502
230	-0.474
231	-0.442
231	-0.409
232	-0.377
232	-0.34
233	-0.303
233	-0.266
234	-0.23
234	-0.195
235	-0.162
235	-0.129
236	-0.099
236	-0.071
236	-0.045
237	-0.021
237	0
238	0.019
238	0.036
239	0.052
239	0.066
240	0.079
240	0.09
241	0.1
241	0.109
242	0.116
242	0.123
243	0.13
243	0.135
243	0.14
244	0.145
244	0.149
245	0.152
245	0.156
246	0.159
246	0.162
247	0.165
247	0.168
248	0.17
248	0.173
249	0.175
249	0.177
250	0.179
250	0.18
250	0.182
251	0.184
251	0.185
252	0.187
252	0.188
253	0.189
253	0.191
254	0.192
254	0.193
255	0.194
255	0.195
256	0.196
256	0.196
257	0.196
257	0.197
258	0.197
258	0.197
258	0.197
259	0.197
259	0.197
260	0.197
260	0.197
261	0.196
261	0.196
262	0.196
262	0.195
263	0.194
263	0.194
264	0.193
264	0.192
265	0.191
265	0.19
265	0.189
266	0.188
266	0.187
267	0.186
267	0.185
268	0.183
268	0.182
269	0.18
269	0.179
270	0.177
270	0.175
271	0.174
271	0.172
272	0.17
272	0.168
272	0.167
273	0.165
273	0.163
274	0.162
274	0.16
275	0.158
275	0.157
276	0.155
276	0.154
277	0.152
277	0.151
278	0.149
278	0.148
278	0.145
279	0.142
279	0.14
280	0.138
280	0.135
281	0.133
281	0.131
282	0.129
282	0.127
283	0.125
283	0.124
284	0.123
284	0.122
285	0.121
285	0.12
285	0.118
286	0.117
286	0.116
287	0.115
287	0.114
288	0.113
288	0.112
289	0.111
289	0.11
290	0.108
290	0.107
291	0.106
291	0.106
292	0.105
292	0.104
292	0.103
293	0.102
293	0.102
294	0.101
294	0.1
295	0.1
295	0.1
296	0.099
296	0.098
297	0.098
297	0.098
298	0.097
298	0.097
298	0.097
299	0.096
299	0.096
300	0.096
300	0.096
301	0.095
301	0.095
302	0.095
302	0.095
303	0.094
303	0.094
304	0.094
304	0.094
305	0.094
305	0.093
305	0.093
306	0.093
306	0.093
307	0.093
307	0.093
308	0.093
308	0.092
309	0.092
309	0.092
310	0.092
310	0.091
311	0.091
311	0.091
311	0.091
312	0.09
312	0.09
313	0.09
313	0.09
314	0.089
314	0.089
315	0.089
315	0.089
316	0.089
316	0.088
317	0.088
317	0.088
318	0.088
318	0.088
318	0.087
319	0.087
319	0.087
320	0.087
320	0.086
321	0.086
321	0.085
322	0.085
322	0.085
323	0.084
323	0.084
324	0.083
324	0.083
324	0.083
325	0.082
325	0.082
326	0.082
326	0.082
327	0.081
327	0.081
328	0.081
328	0.081
329	0.08
329	0.08
330	0.079
330	0.079
330	0.079
331	0.078
331	0.078
332	0.078
332	0.077
333	0.077
333	0.077
334	0.076
334	0.076
335	0.076
335	0.075
336	0.075
336	0.075
336	0.074
337	0.074
337	0.074
338	0.073
338	0.073
339	0.073
339	0.072
340	0.072
340	0.072
341	0.072
341	0.071
342	0.071
342	0.071
342	0.071
343	0.07
343	0.07
344	0.069
344	0.069
345	0.069
345	0.069
346	0.068
346	0.068
347	0.068
347	0.067
348	0.067
348	0.067
348	0.067
349	0.067
349	0.066
350	0.066
350	0.066
351	0.065
351	0.065
352	0.065
352	0.064
353	0.064
353	0.064
354	0.063
354	0.063
354	0.062
355	0.062
355	0.062
356	0.061
356	0.061
357	0.061
357	0.061
358	0.061
358	0.061
359	0.061
359	0.061
360	0.061
360	0.061
360	0.062
361	0.062
361	0.062
362	0.062
362	0.061
363	0.061
363	0.061
364	0.061
364	0.061
365	0.061
365	0.061
366	0.061
366	0.061
366	0.061
367	0.061
367	0.061
368	0.061
368	0.061
369	0.061
369	0.061
370	0.06
370	0.06
371	0.06
371	0.06
372	0.06
372	0.06
372	0.06
373	0.06
373	0.06
374	0.06
374	0.06
375	0.06
375	0.06
376	0.061
376	0.061
377	0.061
377	0.061
378	0.061
378	0.061
378	0.061
379	0.061
379	0.061
380	0.061
380	0.062
381	0.062
381	0.062
382	0.061
382	0.061
383	0.061
383	0.061
383	0.06
384	0.06
384	0.06
385	0.06
385	0.06
386	0.06
386	0.06
387	0.06
387	0.06
388	0.06
388	0.06
389	0.06
389	0.06
389	0.061
390	0.061
390	0.061
391	0.061
391	0.061
392	0.061
392	0.061
393	0.061
393	0.061
394	0.061
394	0.061
394	0.061
395	0.061
395	0.061
396	0.061
396	0.061
397	0.061
397	0.061
398	0.061
398	0.061
399	0.061
399	0.061
400	0.061
400	0.061
400	0.061
401	0.061
401	0.06
402	0.06
402	0.06
403	0.06
403	0.06
404	0.06
404	0.06
405	0.06
405	0.06
405	0.06
406	0.06
406	0.06
407	0.06
407	0.06
408	0.059
408	0.059
409	0.059
409	0.059
410	0.059
410	0.059
411	0.059
411	0.059
411	0.059
412	0.059
412	0.059
413	0.059
413	0.059
414	0.059
414	0.059
415	0.058
415	0.058
416	0.058
416	0.057
416	0.057
417	0.057
417	0.057
418	0.057
418	0.057
419	0.058
419	0.058
420	0.059
420	0.059
421	0.06
421	0.06
421	0.06
422	0.06
422	0.061
423	0.061
423	0.061
424	0.06
424	0.06
425	0.059
425	0.059
426	0.059
426	0.059
427	0.059
427	0.059
427	0.059
428	0.059
428	0.059
429	0.06
429	0.059
430	0.059
430	0.059
431	0.059
431	0.059
432	0.059
432	0.058
432	0.058
433	0.057
433	0.057
434	0.057
434	0.057
435	0.058
435	0.058
436	0.058
436	0.058
437	0.058
437	0.058
437	0.058
438	0.058
438	0.058
439	0.058
439	0.057
440	0.057
440	0.057
441	0.057
441	0.057
442	0.057
442	0.057
442	0.057
443	0.057
443	0.057
444	0.057
444	0.057
445	0.058
445	0.058
446	0.058
446	0.057
447	0.057
447	0.057
447	0.057
448	0.057
448	0.056
449	0.056
449	0.056
450	0.056
450	0.056
451	0.056
451	0.056
452	0.057
452	0.057
452	0.057
453	0.057
453	0.057
454	0.056
454	0.056
455	0.056
455	0.056
456	0.056
456	0.056
457	0.056
457	0.056
458	0.055
458	0.055
458	0.055
459	0.055
459	0.055
460	0.054
460	0.054
461	0.054
461	0.054
462	0.054
462	0.054
463	0.054
463	0.055
463	0.055
464	0.055
464	0.055
465	0.055
465	0.055
466	0.056
466	0.055
467	0.055
467	0.055
467	0.055
468	0.054
468	0.053
469	0.053
469	0.053
470	0.052
470	0.052
471	0.052
471	0.051
472	0.051
472	0.051
472	0.051
473	0.052
473	0.052
474	0.052
474	0.052
475	0.053
475	0.053
476	0.053
476	0.053
477	0.053
477	0.053
477	0.054
478	0.053
478	0.053
479	0.053
479	0.053
480	0.053
480	0.053
481	0.053
481	0.053
482	0.053
482	0.054
482	0.055
483	0.056
483	0.057
484	0.058
484	0.057
485	0.057
485	0.057
486	0.057
486	0.057
487	0.057
487	0.057
487	0.057
488	0.056
488	0.055
489	0.055
489	0.056
490	0.056
490	0.056
491	0.056
491	0.057
492	0.057
492	0.057
492	0.057
493	0.057
493	0.057
494	0.058
494	0.059
495	0.059
495	0.06
496	0.06
496	0.061
496	0.061
497	0.062
497	0.062
498	0.063
498	0.063
499	0.063
499	0.063
500	0.063
500	0.064
501	0.064
501	0.064
501	0.064
502	0.065
502	0.065
503	0.066
503	0.066
504	0.066
504	0.065
505	0.066
505	0.065
506	0.066
506	0.066
506	0.066
507	0.066
507	0.066
508	0.066
508	0.066
509	0.067
509	0.067
510	0.068
510	0.069
511	0.069
511	0.069
511	0.069
512	0.069
512	0.07
513	0.069
513	0.069
514	0.069
514	0.069
515	0.068
515	0.068
515	0.068
516	0.068
516	0.068
517	0.068
517	0.068
518	0.068
518	0.067
519	0.067
519	0.067
520	0.067
520	0.066
520	0.066
521	0.065
521	0.064
522	0.064
522	0.063
523	0.063
523	0.064
524	0.064
524	0.064
524	0.064
525	0.065
525	0.065
526	0.066
526	0.067
527	0.068
527	0.068
528	0.068
528	0.068
529	0.068
529	0.069
529	0.069
530	0.069
530	0.069
531	0.069
531	0.069
532	0.069
532	0.069
533	0.07
533	0.07
533	0.07
534	0.07
534	0.069
535	0.069
535	0.07
536	0.07
536	0.07
537	0.07
537	0.07
538	0.07
538	0.07
538	0.07
539	0.071
539	0.071
540	0.071
540	0.071
541	0.071
541	0.07
542	0.071
542	0.071
542	0.071
543	0.071
543	0.071
544	0.07
544	0.07
545	0.071
545	0.072
546	0.072
546	0.072
547	0.071
547	0.07
547	0.07
548	0.07
548	0.07
549	0.07
549	0.069
550	0.069
550	0.069
551	0.068
551	0.069
551	0.069
552	0.07
552	0.071
553	0.071
553	0.072
554	0.072
554	0.072
555	0.071
555	0.07
556	0.07
556	0.069
556	0.069
557	0.068
557	0.068
558	0.068
558	0.067
559	0.068
559	0.068
560	0.068
560	0.068
560	0.068
561	0.069
561	0.069
562	0.069
562	0.069
563	0.068
563	0.067
564	0.066
564	0.066
564	0.066
565	0.066
565	0.066
566	0.066
566	0.066
567	0.066
567	0.067
568	0.068
568	0.069
568	0.07
569	0.071
569	0.072
570	0.072
570	0.071
571	0.072
571	0.072
572	0.072
572	0.072
573	0.072
573	0.071
573	0.07
574	0.07
574	0.071
575	0.071
575	0.073
576	0.074
576	0.073
577	0.072
577	0.072
577	0.073
578	0.073
578	0.074
579	0.075
579	0.077
580	0.075
580	0.072
581	0.069
581	0.069
581	0.069
582	0.07
582	0.07
583	0.071
583	0.07
584	0.067
584	0.063
585	0.063
585	0.065
585	0.065
586	0.066
586	0.065
587	0.063
587	0.062
588	0.06
588	0.059
589	0.06
589	0.061
590	0.061
590	0.062
590	0.064
591	0.066
591	0.066
592	0.066
592	0.065
593	0.065
593	0.065
594	0.064
594	0.063
594	0.062
595	0.061
595	0.06
596	0.059
596	0.061
597	0.063
597	0.064
598	0.065
598	0.066
598	0.066
599	0.067
599	0.067
600	0.066
600	0.065
601	0.064
601	0.063
602	0.062
602	0.062
602	0.061
603	0.062
603	0.063
604	0.065
604	0.066
605	0.068
605	0.07
606	0.07
606	0.069
606	0.068
607	0.068
607	0.067
608	0.067
608	0.064
609	0.063
609	0.063
610	0.061
610	0.06
610	0.06
611	0.062
611	0.063
612	0.065
612	0.066
613	0.068
613	0.069
614	0.068
614	0.067
614	0.066
615	0.066
615	0.065
616	0.064
616	0.063
617	0.062
617	0.061
618	0.059
618	0.058
618	0.058
619	0.059
619	0.06
620	0.062
620	0.063
621	0.062
621	0.063
622	0.062
622	0.062
622	0.062
623	0.061
623	0.062
624	0.062
624	0.061
625	0.059
625	0.06
626	0.059
626	0.059
626	0.06
627	0.061
627	0.061
628	0.062
628	0.062
629	0.063
629	0.063
630	0.062
630	0.062
630	0.063
631	0.063
631	0.064
632	0.063
632	0.064
633	0.064
633	0.064
634	0.066
634	0.067
634	0.068
635	0.068
635	0.068
636	0.068
636	0.069
637	0.069
637	0.069
638	0.07
638	0.07
638	0.071
639	0.071
639	0.071
640	0.072
640	0.072
641	0.073
641	0.074
642	0.075
642	0.076
642	0.077
643	0.077
643	0.077
644	0.078
644	0.079
645	0.08
645	0.081
646	0.082
646	0.084
646	0.086
647	0.088
647	0.089
648	0.091
648	0.092
649	0.094
649	0.096
650	0.097
650	0.098
650	0.1
651	0.1
651	0.101
652	0.102
652	0.103
653	0.105
653	0.113
653	0.127
654	0.103
654	0.085
655	0.082
655	0.083
656	0.084
656	0.084
657	0.085
657	0.086
657	0.086
658	0.082
658	0.07
659	0.088
659	0.113
660	0.122
660	0.123
661	0.124
661	0.126
661	0.128
662	0.131
662	0.133
663	0.135
663	0.137
664	0.139
664	0.141
665	0.142
665	0.144
665	0.145
666	0.146
666	0.147
667	0.148
667	0.148
668	0.149
668	0.15
669	0.151
669	0.153
669	0.156
670	0.158
670	0.16
671	0.161
671	0.162
672	0.163
672	0.165
672	0.166
673	0.168
673	0.169
674	0.17
674	0.17
675	0.17
675	0.171
676	0.173
676	0.175
676	0.175
677	0.176
677	0.177
678	0.177
678	0.177
679	0.178
679	0.178
680	0.18
680	0.18
680	0.18
681	0.18
681	0.181
682	0.182
682	0.182
683	0.183
683	0.185
684	0.185
684	0.185
684	0.185
685	0.185
685	0.186
686	0.186
686	0.187
687	0.187
687	0.187
687	0.187
688	0.187
688	0.186
689	0.188
689	0.188
690	0.188
690	0.187
691	0.186
691	0.186
691	0.185
692	0.184
692	0.183
693	0.184
693	0.184
694	0.183
694	0.181
695	0.183
695	0.185
695	0.185
696	0.184
696	0.183
697	0.182
697	0.182
698	0.181
698	0.179
698	0.179
699	0.178
699	0.176
700	0.174
700	0.174
701	0.174
701	0.173
702	0.172
702	0.172
702	0.171
703	0.17
703	0.169
704	0.169
704	0.169
705	0.169
705	0.168
705	0.166
706	0.166
706	0.165
707	0.164
707	0.163
708	0.162
708	0.161
709	0.16
709	0.159
709	0.157
710	0.155
710	0.155
711	0.155
711	0.154
712	0.153
712	0.152
713	0.151
713	0.15
713	0.148
714	0.147
714	0.145
715	0.144
715	0.143
716	0.141
716	0.14
716	0.139
717	0.138
717	0.138
718	0.136
718	0.135
719	0.135
719	0.135
720	0.134
720	0.132
720	0.131
721	0.129
721	0.128
722	0.127
722	0.126
723	0.125
723	0.125
723	0.123
724	0.122
724	0.121
725	0.12
725	0.119
726	0.118
726	0.118
727	0.117
727	0.117
727	0.116
728	0.115
728	0.114
729	0.115
729	0.115
730	0.114
730	0.113
730	0.112
731	0.111
731	0.111
732	0.11
732	0.109
733	0.107
733	0.105
734	0.103
734	0.102
734	0.101
735	0.1
735	0.099
736	0.097
736	0.097
737	0.096
737	0.097
737	0.096
738	0.094
738	0.092
739	0.091
739	0.09
740	0.088
740	0.087
741	0.086
741	0.085
741	0.083
742	0.08
742	0.079
743	0.079
743	0.079
744	0.079
744	0.078
744	0.077
745	0.076
745	0.075
746	0.075
746	0.074
747	0.074
747	0.073
748	0.073
748	0.072
748	0.07
749	0.069
749	0.068
750	0.068
750	0.067
751	0.067
751	0.066
751	0.067
752	0.066
752	0.065
753	0.065
753	0.065
754	0.065
754	0.065
754	0.066
755	0.066
755	0.067
756	0.066
756	0.064
757	0.063
757	0.063
758	0.062
758	0.061
758	0.06
759	0.059
759	0.056
760	0.054
760	0.051
761	0.05
761	0.049
761	0.048
762	0.047
762	0.047
763	0.047
763	0.045
764	0.043
764	0.042
764	0.04
765	0.039
765	0.038
766	0.037
766	0.037
767	0.037
767	0.034
768	0.032
768	0.031
768	0.031
769	0.031
769	0.03
770	0.029
770	0.028
771	0.026
771	0.023
771	0.021
772	0.019
772	0.017
773	0.015
773	0.013
774	0.01
774	0.007
775	0.005
775	0.002
775	-0.001
776	-0.004
776	-0.006
777	-0.009
777	-0.012
778	-0.015
778	-0.018
778	-0.021
779	-0.022
779	-0.024
780	-0.027
780	-0.03
781	-0.033
781	-0.037
781	-0.042
782	-0.047
782	-0.052
783	-0.058
783	-0.063
784	-0.07
784	-0.077
784	-0.083
785	-0.09
785	-0.097
786	-0.103
786	-0.108
787	-0.111
787	-0.114
788	-0.121
788	-0.128
788	-0.134
789	-0.14
789	-0.144
790	-0.145
790	-0.147
791	-0.15
791	-0.153
791	-0.155
792	-0.15
792	-0.139
793	-0.133
793	-0.129
794	-0.128
794	-0.13
794	-0.134
795	-0.136
795	-0.137
796	-0.137
796	-0.14
797	-0.149
797	-0.16
797	-0.167
798	-0.172
798	-0.175
799	-0.175
799	-0.174
800	-0.174
800	-0.175
801	-0.178
801	-0.179
801	-0.179
802	-0.18
802	-0.182
803	-0.182
803	-0.183
804	-0.182
804	-0.177
804	-0.17
805	-0.167
805	-0.164
806	-0.162
806	-0.161
807	-0.16
807	-0.159
807	-0.16
808	-0.159
808	-0.161
809	-0.166
809	-0.171
810	-0.175
810	-0.178
810	-0.182
811	-0.185
811	-0.185
812	-0.182
812	-0.178
813	-0.178
813	-0.179
813	-0.179
814	-0.18
814	-0.179
815	-0.176
815	-0.172
816	-0.168
816	-0.165
817	-0.163
817	-0.16
817	-0.153
818	-0.144
818	-0.133
819	-0.122
819	-0.112
820	-0.103
820	-0.094
820	-0.085
821	-0.076
821	-0.068
822	-0.061
822	-0.055
823	-0.05
823	-0.047
823	-0.043
824	-0.04
824	-0.036
825	-0.032
825	-0.028
826	-0.026
826	-0.024
826	-0.023
827	-0.021
827	-0.019
828	-0.017
828	-0.016
829	-0.015
829	-0.013
829	-0.013
830	-0.012
830	-0.011
831	-0.009
831	-0.008
832	-0.007
832	-0.005
832	-0.004
833	-0.002
833	-0.001
834	0
834	0.002
835	0.003
835	0.004
835	0.005
836	0.006
836	0.007
837	0.008
837	0.009
838	0.01
838	0.01
839	0.011
839	0.012
839	0.012
840	0.013
840	0.013
841	0.014
841	0.014
842	0.015
842	0.015
842	0.016
843	0.016
843	0.016
844	0.016
844	0.016
845	0.017
845	0.017
845	0.018
846	0.018
846	0.018
847	0.018
847	0.018
848	0.018
848	0.018
848	0.018
849	0.017
849	0.016
850	0.015
850	0.014
851	0.013
851	0.012
851	0.012
852	0.011
852	0.012
853	0.011
853	0.011
854	0.011
854	0.011
854	0.011
855	0.011
855	0.01
856	0.01
856	0.009
857	0.009
857	0.008
857	0.008
858	0.008
858	0.007
859	0.007
859	0.007
860	0.007
860	0.006
860	0.006
861	0.006
861	0.006
862	0.005
862	0.005
863	0.004
863	0.004
863	0.004
864	0.004
864	0.005
865	0.005
865	0.006
866	0.006
866	0.007
866	0.008
867	0.009
867	0.01
868	0.012
868	0.013
869	0.015
869	0.016
869	0.016
870	0.017
870	0.018
871	0.018
871	0.018
872	0.017
872	0.016
872	0.015
873	0.014
873	0.013
874	0.012
874	0.011
875	0.011
875	0.011
875	0.011
876	0.011
876	0.011
877	0.012
877	0.012
878	0.012
878	0.012
878	0.012
879	0.012
879	0.011
880	0.01
880	0.01
881	0.009
881	0.008
881	0.007
882	0.006
882	0.005
883	0.005
883	0.004
884	0.003
884	0.003
884	0.002
885	0.002
885	0.003
886	0.003
886	0.004
887	0.005
887	0.006
887	0.008
888	0.009
888	0.01
889	0.011
889	0.012
890	0.013
890	0.014
890	0.014
891	0.014
891	0.014
892	0.014
892	0.013
893	0.013
893	0.012
893	0.011
894	0.01
894	0.009
895	0.008
895	0.006
895	0.005
896	0.003
896	0.002
897	0.002
897	0.001
898	0.001
898	0.001
898	0.001
899	0.002
899	0.002
900	0.003
900	0.005
901	0.006
901	0.008
901	0.009
902	0.011
902	0.012
903	0.013
903	0.014
904	0.014
904	0.014
904	0.015
905	0.015
905	0.015
906	0.014
906	0.014
907	0.013
907	0.012
907	0.012
908	0.011
908	0.01
909	0.01
909	0.009
910	0.009
910	0.009
910	0.009
911	0.009
911	0.009
912	0.01
912	0.011
913	0.011
913	0.012
913	0.012
914	0.013
914	0.013
915	0.012
915	0.012
916	0.012
916	0.011
916	0.01
917	0.009
917	0.007
918	0.006
918	0.005
918	0.005
919	0.004
919	0.004
920	0.004
920	0.005
921	0.005
921	0.005
921	0.006
922	0.006
922	0.007
923	0.008
923	0.008
924	0.009
924	0.009
924	0.008
925	0.008
925	0.007
926	0.007
926	0.006
927	0.005
927	0.004
927	0.004
928	0.003
928	0.002
929	0.002
929	0.001
930	0.001
930	0
930	0
931	-0
931	-0
932	0
932	-0
933	-0
933	-0
933	-0
934	-0.001
934	-0.001
935	-0.002
935	-0.002
935	-0.003
936	-0.004
936	-0.005
937	-0.005
937	-0.006
938	-0.007
938	-0.007
938	-0.008
939	-0.008
939	-0.008
940	-0.008
940	-0.008
941	-0.007
941	-0.007
941	-0.006
942	-0.005
942	-0.004
943	-0.003
943	-0.003
944	-0.002
944	-0.002
944	-0.002
945	-0.001
945	-0.001
946	-0.001
946	-0.002
946	-0.002
947	-0.002
947	-0.003
948	-0.003
948	-0.004
949	-0.005
949	-0.005
949	-0.005
950	-0.006
950	-0.006
951	-0.007
951	-0.007
952	-0.008
952	-0.008
952	-0.008
953	-0.009
953	-0.009
954	-0.009
954	-0.01
955	-0.01
955	-0.01
955	-0.01
956	-0.01
956	-0.009
957	-0.009
957	-0.009
957	-0.009
958	-0.009
958	-0.009
959	-0.009
959	-0.009
960	-0.01
960	-0.01
960	-0.011
961	-0.012
961	-0.012
962	-0.013
962	-0.013
963	-0.013
963	-0.013
963	-0.013
964	-0.013
964	-0.013
965	-0.012
965	-0.011
966	-0.01
966	-0.009
966	-0.008
967	-0.007
967	-0.007
968	-0.006
968	-0.006
968	-0.006
969	-0.006
969	-0.007
970	-0.007
970	-0.008
971	-0.009
971	-0.01
971	-0.011
972	-0.012
972	-0.012
973	-0.013
973	-0.013
974	-0.014
974	-0.014
974	-0.014
975	-0.014
975	-0.014
976	-0.013
976	-0.013
976	-0.013
977	-0.014
977	-0.015
978	-0.016
978	-0.016
979	-0.017
979	-0.017
979	-0.018
980	-0.019
980	-0.02
981	-0.021
981	-0.022
982	-0.022
982	-0.022
982	-0.022
983	-0.023
983	-0.023
984	-0.023
984	-0.023
984	-0.022
985	-0.022
985	-0.021
986	-0.021
986	-0.021
987	-0.02
987	-0.019
987	-0.017
988	-0.016
988	-0.015
989	-0.014
989	-0.013
990	-0.012
990	-0.011
990	-0.009
991	-0.008
991	-0.007
992	-0.006
992	-0.005
992	-0.005
993	-0.004
993	-0.003
994	-0.003
994	-0.004
995	-0.004
995	-0.004
995	-0.005
996	-0.006
996	-0.007
997	-0.008
997	-0.008
997	-0.009
998	-0.009
998	-0.01
999	-0.01
999	-0.01
1000	-0.01
1000	-0.01
1000	-0.01
1001	-0.01
1001	-0.01
1002	-0.01
1002	-0.011
1003	-0.011
1003	-0.011
1003	-0.012
1004	-0.012
1004	-0.013
1005	-0.013
1005	-0.014
1005	-0.015
1006	-0.016
1006	-0.017
1007	-0.018
1007	-0.019
1008	-0.02
1008	-0.021
1008	-0.021
1009	-0.022
1009	-0.022
1010	-0.022
1010	-0.023
1010	-0.023
1011	-0.023
1011	-0.023
1012	-0.023
1012	-0.023
1013	-0.023
1013	-0.023
1013	-0.024
1014	-0.024
1014	-0.024
1015	-0.024
1015	-0.024
1016	-0.025
1016	-0.025
1016	-0.025
1017	-0.026
1017	-0.026
1018	-0.026
1018	-0.026
1018	-0.026
1019	-0.026
1019	-0.025
1020	-0.026
1020	-0.026
1021	-0.026
1021	-0.026
1021	-0.025
1022	-0.026
1022	-0.026
1023	-0.026
1023	-0.026
1023	-0.026
1024	-0.027
1024	-0.028
1025	-0.029
1025	-0.03
1026	-0.031
1026	-0.032
1026	-0.033
1027	-0.034
1027	-0.034
1028	-0.034
1028	-0.035
1028	-0.035
1029	-0.035
1029	-0.035
1030	-0.035
1030	-0.035
1031	-0.034
1031	-0.034
1031	-0.034
1032	-0.034
1032	-0.033
1033	-0.033
1033	-0.033
1033	-0.033
1034	-0.034
1034	-0.035
1035	-0.035
1035	-0.036
1036	-0.036
1036	-0.036
1036	-0.036
1037	-0.036
1037	-0.036
1038	-0.036
1038	-0.035
1039	-0.034
1039	-0.034
1039	-0.033
1040	-0.032
1040	-0.031
1041	-0.031
1041	-0.031
1041	-0.031
1042	-0.031
1042	-0.031
1043	-0.032
1043	-0.033
1044	-0.033
1044	-0.034
1044	-0.034
1045	-0.035
1045	-0.036
1046	-0.037
1046	-0.037
1046	-0.038
1047	-0.038
1047	-0.038
1048	-0.037
1048	-0.037
1049	-0.038
1049	-0.039
1049	-0.039
1050	-0.04
1050	-0.041
1051	-0.041
1051	-0.042
1051	-0.043
1052	-0.043
1052	-0.044
1053	-0.045
1053	-0.045
1053	-0.045
1054	-0.045
1054	-0.045
1055	-0.044
1055	-0.044
1056	-0.045
1056	-0.045
1056	-0.045
1057	-0.046
1057	-0.046
1058	-0.046
1058	-0.047
1058	-0.047
1059	-0.048
1059	-0.049
1060	-0.049
1060	-0.049
1061	-0.048
1061	-0.048
1061	-0.048
1062	-0.047
1062	-0.047
1063	-0.047
1063	-0.047
1063	-0.046
1064	-0.045
1064	-0.045
1065	-0.044
1065	-0.044
1066	-0.044
1066	-0.044
1066	-0.043
1067	-0.043
1067	-0.042
1068	-0.042
1068	-0.042
1068	-0.042
1069	-0.043
1069	-0.043
1070	-0.044
1070	-0.044
1071	-0.044
1071	-0.044
1071	-0.045
1072	-0.046
1072	-0.046
1073	-0.047
1073	-0.046
1073	-0.046
1074	-0.046
1074	-0.046
1075	-0.047
1075	-0.048
1076	-0.049
1076	-0.048
1076	-0.05
1077	-0.05
1077	-0.051
1078	-0.052
1078	-0.052
1078	-0.051
1079	-0.052
1079	-0.051
1080	-0.051
1080	-0.05
1080	-0.05
1081	-0.05
1081	-0.049
1082	-0.048
1082	-0.048
1083	-0.048
1083	-0.049
1083	-0.048
1084	-0.048
1084	-0.048
1085	-0.047
1085	-0.047
1085	-0.046
1086	-0.046
1086	-0.046
1087	-0.046
1087	-0.046
1088	-0.047
1088	-0.047
1088	-0.047
1089	-0.049
1089	-0.049
1090	-0.05
1090	-0.05
1090	-0.05
1091	-0.05
1091	-0.049
1092	-0.049
1092	-0.047
1092	-0.047
1093	-0.045
1093	-0.043
1094	-0.041
1094	-0.04
1095	-0.039
1095	-0.038
1095	-0.036
1096	-0.035
1096	-0.033
1097	-0.032
1097	-0.032
1097	-0.031
1098	-0.031
1098	-0.031
1099	-0.03
1099	-0.028
1100	-0.027
1100	-0.026
1100	-0.025
1101	-0.024
1101	-0.023
1102	-0.019
1102	-0.017
1102	-0.014
1103	-0.011
1103	-0.007
1104	-0.003
1104	0.001
1104	0.008
1105	0.013
1105	0.017
1106	0.02
1106	0.024
1107	0.028
1107	0.036
1107	0.044
1108	0.08
1108	0.128
1109	0.196
1109	0.301
1109	0.384
1110	0.554
1110	1.101
1111	-0
1111	-0
