Data from 15c-2a-fridge-noshake_Absorbance__127__06364.txt Node

Date: Wed Jan 17 18:41:36 CET 2024
User: Marek
Spectrometer: MAYP115816
Trigger mode: 0
Integration Time (sec): 2.000000E-1
Scans to average: 10
Electric dark correction enabled: true
Nonlinearity correction enabled: true
Boxcar width: 5
XAxis mode: Wavelengths
Number of Pixels in Spectrum: 2068
>>>>>Begin Spectral Data<<<<<
199	-1.676
199	-1.537
200	-1.379
200	-1.256
201	-1.18
201	-1.132
202	-1.063
202	-1.012
203	-0.967
203	-0.927
204	-0.902
204	-0.879
205	-0.856
205	-0.846
205	-0.844
206	-0.844
206	-0.84
207	-0.837
207	-0.833
208	-0.832
208	-0.832
209	-0.828
209	-0.827
210	-0.827
210	-0.827
211	-0.825
211	-0.825
212	-0.827
212	-0.827
213	-0.826
213	-0.825
213	-0.824
214	-0.823
214	-0.822
215	-0.821
215	-0.82
216	-0.821
216	-0.819
217	-0.814
217	-0.812
218	-0.811
218	-0.807
219	-0.805
219	-0.805
220	-0.802
220	-0.799
221	-0.795
221	-0.791
221	-0.787
222	-0.783
222	-0.779
223	-0.773
223	-0.771
224	-0.766
224	-0.758
225	-0.75
225	-0.743
226	-0.734
226	-0.723
227	-0.71
227	-0.698
228	-0.682
228	-0.666
229	-0.645
229	-0.622
229	-0.596
230	-0.568
230	-0.539
231	-0.505
231	-0.471
232	-0.436
232	-0.399
233	-0.36
233	-0.32
234	-0.282
234	-0.244
235	-0.208
235	-0.174
236	-0.14
236	-0.109
236	-0.08
237	-0.053
237	-0.029
238	-0.007
238	0.013
239	0.032
239	0.049
240	0.064
240	0.078
241	0.089
241	0.1
242	0.11
242	0.118
243	0.126
243	0.133
243	0.139
244	0.144
244	0.149
245	0.153
245	0.157
246	0.161
246	0.164
247	0.167
247	0.17
248	0.173
248	0.177
249	0.179
249	0.181
250	0.183
250	0.186
250	0.188
251	0.19
251	0.192
252	0.193
252	0.195
253	0.196
253	0.197
254	0.199
254	0.2
255	0.201
255	0.202
256	0.203
256	0.204
257	0.205
257	0.205
258	0.205
258	0.206
258	0.206
259	0.206
259	0.206
260	0.206
260	0.206
261	0.205
261	0.205
262	0.205
262	0.204
263	0.204
263	0.204
264	0.203
264	0.203
265	0.202
265	0.201
265	0.2
266	0.199
266	0.198
267	0.197
267	0.196
268	0.195
268	0.193
269	0.192
269	0.191
270	0.189
270	0.188
271	0.186
271	0.184
272	0.183
272	0.181
272	0.18
273	0.178
273	0.177
274	0.175
274	0.174
275	0.172
275	0.171
276	0.17
276	0.168
277	0.167
277	0.165
278	0.164
278	0.162
278	0.16
279	0.157
279	0.155
280	0.153
280	0.151
281	0.149
281	0.147
282	0.145
282	0.143
283	0.142
283	0.14
284	0.14
284	0.139
285	0.139
285	0.138
285	0.137
286	0.136
286	0.135
287	0.134
287	0.133
288	0.132
288	0.131
289	0.13
289	0.129
290	0.127
290	0.127
291	0.126
291	0.125
292	0.124
292	0.123
292	0.123
293	0.122
293	0.121
294	0.121
294	0.12
295	0.12
295	0.119
296	0.119
296	0.118
297	0.118
297	0.118
298	0.117
298	0.117
298	0.117
299	0.117
299	0.117
300	0.116
300	0.116
301	0.116
301	0.116
302	0.116
302	0.115
303	0.115
303	0.115
304	0.115
304	0.115
305	0.114
305	0.114
305	0.114
306	0.114
306	0.114
307	0.114
307	0.114
308	0.114
308	0.113
309	0.113
309	0.113
310	0.113
310	0.113
311	0.113
311	0.113
311	0.113
312	0.112
312	0.112
313	0.112
313	0.112
314	0.112
314	0.112
315	0.111
315	0.111
316	0.111
316	0.111
317	0.11
317	0.11
318	0.11
318	0.11
318	0.109
319	0.109
319	0.109
320	0.109
320	0.108
321	0.108
321	0.108
322	0.107
322	0.107
323	0.107
323	0.106
324	0.106
324	0.106
324	0.105
325	0.105
325	0.105
326	0.105
326	0.104
327	0.104
327	0.104
328	0.103
328	0.103
329	0.103
329	0.102
330	0.102
330	0.102
330	0.102
331	0.101
331	0.101
332	0.101
332	0.1
333	0.1
333	0.099
334	0.099
334	0.099
335	0.098
335	0.098
336	0.098
336	0.097
336	0.097
337	0.097
337	0.097
338	0.096
338	0.096
339	0.096
339	0.095
340	0.095
340	0.095
341	0.094
341	0.094
342	0.094
342	0.093
342	0.093
343	0.093
343	0.093
344	0.092
344	0.092
345	0.092
345	0.091
346	0.091
346	0.091
347	0.091
347	0.09
348	0.09
348	0.09
348	0.089
349	0.089
349	0.089
350	0.089
350	0.088
351	0.088
351	0.088
352	0.087
352	0.087
353	0.087
353	0.086
354	0.086
354	0.085
354	0.085
355	0.085
355	0.084
356	0.084
356	0.083
357	0.083
357	0.083
358	0.083
358	0.083
359	0.083
359	0.083
360	0.083
360	0.083
360	0.083
361	0.083
361	0.083
362	0.084
362	0.084
363	0.084
363	0.084
364	0.083
364	0.083
365	0.083
365	0.083
366	0.083
366	0.083
366	0.083
367	0.083
367	0.083
368	0.083
368	0.083
369	0.083
369	0.083
370	0.083
370	0.083
371	0.083
371	0.083
372	0.083
372	0.083
372	0.083
373	0.083
373	0.083
374	0.083
374	0.083
375	0.083
375	0.083
376	0.083
376	0.083
377	0.083
377	0.083
378	0.083
378	0.083
378	0.083
379	0.083
379	0.083
380	0.083
380	0.084
381	0.084
381	0.084
382	0.084
382	0.084
383	0.084
383	0.084
383	0.084
384	0.084
384	0.084
385	0.083
385	0.083
386	0.083
386	0.083
387	0.083
387	0.083
388	0.083
388	0.083
389	0.083
389	0.083
389	0.083
390	0.084
390	0.084
391	0.084
391	0.084
392	0.084
392	0.084
393	0.084
393	0.084
394	0.084
394	0.084
394	0.085
395	0.084
395	0.084
396	0.084
396	0.084
397	0.085
397	0.085
398	0.085
398	0.085
399	0.085
399	0.085
400	0.085
400	0.085
400	0.085
401	0.084
401	0.084
402	0.083
402	0.083
403	0.083
403	0.083
404	0.084
404	0.083
405	0.083
405	0.083
405	0.083
406	0.083
406	0.083
407	0.083
407	0.083
408	0.083
408	0.083
409	0.082
409	0.082
410	0.082
410	0.083
411	0.083
411	0.083
411	0.083
412	0.082
412	0.082
413	0.082
413	0.082
414	0.082
414	0.082
415	0.081
415	0.081
416	0.081
416	0.081
416	0.081
417	0.08
417	0.08
418	0.081
418	0.081
419	0.081
419	0.082
420	0.082
420	0.083
421	0.083
421	0.083
421	0.083
422	0.084
422	0.084
423	0.084
423	0.084
424	0.084
424	0.083
425	0.083
425	0.083
426	0.083
426	0.083
427	0.083
427	0.083
427	0.083
428	0.083
428	0.083
429	0.083
429	0.083
430	0.083
430	0.083
431	0.082
431	0.082
432	0.082
432	0.082
432	0.082
433	0.081
433	0.081
434	0.081
434	0.081
435	0.081
435	0.081
436	0.081
436	0.081
437	0.081
437	0.081
437	0.08
438	0.08
438	0.08
439	0.08
439	0.08
440	0.08
440	0.08
441	0.08
441	0.08
442	0.08
442	0.08
442	0.08
443	0.081
443	0.081
444	0.081
444	0.081
445	0.081
445	0.081
446	0.081
446	0.081
447	0.08
447	0.08
447	0.08
448	0.08
448	0.08
449	0.08
449	0.08
450	0.08
450	0.08
451	0.08
451	0.08
452	0.08
452	0.08
452	0.08
453	0.08
453	0.079
454	0.079
454	0.079
455	0.079
455	0.079
456	0.079
456	0.079
457	0.078
457	0.078
458	0.078
458	0.078
458	0.078
459	0.078
459	0.077
460	0.076
460	0.076
461	0.076
461	0.075
462	0.075
462	0.075
463	0.076
463	0.076
463	0.076
464	0.076
464	0.076
465	0.076
465	0.076
466	0.077
466	0.077
467	0.077
467	0.076
467	0.076
468	0.075
468	0.074
469	0.074
469	0.074
470	0.074
470	0.073
471	0.073
471	0.073
472	0.073
472	0.073
472	0.073
473	0.073
473	0.074
474	0.074
474	0.074
475	0.074
475	0.075
476	0.075
476	0.074
477	0.074
477	0.074
477	0.074
478	0.074
478	0.074
479	0.074
479	0.074
480	0.074
480	0.074
481	0.074
481	0.074
482	0.075
482	0.075
482	0.076
483	0.077
483	0.079
484	0.08
484	0.079
485	0.079
485	0.079
486	0.079
486	0.079
487	0.079
487	0.079
487	0.079
488	0.078
488	0.077
489	0.077
489	0.077
490	0.078
490	0.078
491	0.078
491	0.078
492	0.078
492	0.078
492	0.078
493	0.078
493	0.079
494	0.079
494	0.08
495	0.08
495	0.081
496	0.081
496	0.082
496	0.082
497	0.083
497	0.083
498	0.083
498	0.083
499	0.083
499	0.084
500	0.084
500	0.085
501	0.085
501	0.086
501	0.086
502	0.086
502	0.087
503	0.088
503	0.088
504	0.088
504	0.088
505	0.088
505	0.087
506	0.088
506	0.088
506	0.088
507	0.088
507	0.088
508	0.088
508	0.089
509	0.089
509	0.09
510	0.091
510	0.091
511	0.091
511	0.092
511	0.092
512	0.092
512	0.092
513	0.092
513	0.091
514	0.091
514	0.092
515	0.092
515	0.092
515	0.091
516	0.091
516	0.092
517	0.092
517	0.093
518	0.093
518	0.093
519	0.093
519	0.093
520	0.092
520	0.092
520	0.092
521	0.091
521	0.09
522	0.089
522	0.089
523	0.088
523	0.088
524	0.088
524	0.088
524	0.088
525	0.088
525	0.089
526	0.09
526	0.091
527	0.092
527	0.093
528	0.094
528	0.095
529	0.096
529	0.097
529	0.097
530	0.098
530	0.099
531	0.099
531	0.1
532	0.1
532	0.101
533	0.102
533	0.102
533	0.102
534	0.102
534	0.102
535	0.102
535	0.103
536	0.103
536	0.103
537	0.104
537	0.104
538	0.104
538	0.104
538	0.104
539	0.105
539	0.106
540	0.106
540	0.106
541	0.106
541	0.106
542	0.106
542	0.106
542	0.106
543	0.106
543	0.106
544	0.106
544	0.106
545	0.107
545	0.108
546	0.109
546	0.109
547	0.108
547	0.108
547	0.108
548	0.108
548	0.108
549	0.108
549	0.108
550	0.108
550	0.108
551	0.108
551	0.108
551	0.11
552	0.11
552	0.111
553	0.112
553	0.113
554	0.113
554	0.112
555	0.112
555	0.111
556	0.111
556	0.11
556	0.109
557	0.109
557	0.109
558	0.109
558	0.108
559	0.109
559	0.109
560	0.11
560	0.11
560	0.11
561	0.111
561	0.112
562	0.112
562	0.112
563	0.111
563	0.11
564	0.109
564	0.109
564	0.109
565	0.109
565	0.109
566	0.108
566	0.108
567	0.109
567	0.11
568	0.111
568	0.112
568	0.114
569	0.115
569	0.116
570	0.116
570	0.116
571	0.116
571	0.118
572	0.118
572	0.118
573	0.118
573	0.118
573	0.117
574	0.117
574	0.117
575	0.118
575	0.12
576	0.121
576	0.12
577	0.119
577	0.118
577	0.119
578	0.119
578	0.12
579	0.121
579	0.123
580	0.121
580	0.118
581	0.115
581	0.114
581	0.115
582	0.115
582	0.115
583	0.117
583	0.116
584	0.113
584	0.109
585	0.109
585	0.11
585	0.111
586	0.111
586	0.111
587	0.109
587	0.107
588	0.105
588	0.104
589	0.104
589	0.104
590	0.104
590	0.104
590	0.106
591	0.108
591	0.107
592	0.107
592	0.106
593	0.106
593	0.106
594	0.105
594	0.104
594	0.103
595	0.102
595	0.1
596	0.099
596	0.1
597	0.103
597	0.104
598	0.104
598	0.105
598	0.105
599	0.106
599	0.105
600	0.104
600	0.103
601	0.103
601	0.102
602	0.1
602	0.1
602	0.1
603	0.1
603	0.101
604	0.102
604	0.103
605	0.105
605	0.107
606	0.107
606	0.105
606	0.105
607	0.104
607	0.104
608	0.103
608	0.1
609	0.099
609	0.098
610	0.097
610	0.095
610	0.094
611	0.096
611	0.097
612	0.098
612	0.099
613	0.1
613	0.1
614	0.099
614	0.098
614	0.097
615	0.096
615	0.095
616	0.094
616	0.092
617	0.091
617	0.089
618	0.087
618	0.086
618	0.086
619	0.086
619	0.087
620	0.089
620	0.089
621	0.089
621	0.089
622	0.088
622	0.089
622	0.088
623	0.087
623	0.087
624	0.087
624	0.086
625	0.084
625	0.084
626	0.083
626	0.082
626	0.082
627	0.083
627	0.082
628	0.082
628	0.082
629	0.082
629	0.081
630	0.08
630	0.079
630	0.08
631	0.08
631	0.08
632	0.08
632	0.08
633	0.08
633	0.08
634	0.081
634	0.082
634	0.083
635	0.082
635	0.082
636	0.082
636	0.082
637	0.082
637	0.081
638	0.081
638	0.082
638	0.082
639	0.082
639	0.082
640	0.082
640	0.082
641	0.083
641	0.083
642	0.083
642	0.084
642	0.084
643	0.084
643	0.084
644	0.084
644	0.085
645	0.085
645	0.086
646	0.086
646	0.088
646	0.089
647	0.091
647	0.092
648	0.093
648	0.094
649	0.095
649	0.096
650	0.097
650	0.098
650	0.099
651	0.099
651	0.1
652	0.1
652	0.101
653	0.103
653	0.11
653	0.125
654	0.102
654	0.084
655	0.08
655	0.081
656	0.081
656	0.082
657	0.082
657	0.082
657	0.082
658	0.078
658	0.064
659	0.08
659	0.102
660	0.111
660	0.112
661	0.113
661	0.114
661	0.116
662	0.119
662	0.121
663	0.123
663	0.124
664	0.126
664	0.127
665	0.128
665	0.129
665	0.13
666	0.131
666	0.131
667	0.131
667	0.131
668	0.131
668	0.132
669	0.133
669	0.135
669	0.137
670	0.139
670	0.14
671	0.141
671	0.142
672	0.143
672	0.144
672	0.145
673	0.145
673	0.146
674	0.147
674	0.147
675	0.147
675	0.148
676	0.15
676	0.151
676	0.152
677	0.153
677	0.154
678	0.155
678	0.155
679	0.156
679	0.156
680	0.158
680	0.158
680	0.158
681	0.159
681	0.16
682	0.16
682	0.161
683	0.162
683	0.164
684	0.165
684	0.164
684	0.163
685	0.164
685	0.165
686	0.165
686	0.166
687	0.166
687	0.166
687	0.167
688	0.167
688	0.166
689	0.168
689	0.169
690	0.169
690	0.168
691	0.167
691	0.167
691	0.167
692	0.166
692	0.165
693	0.165
693	0.166
694	0.165
694	0.164
695	0.165
695	0.168
695	0.168
696	0.167
696	0.166
697	0.166
697	0.165
698	0.164
698	0.163
698	0.163
699	0.163
699	0.161
700	0.16
700	0.16
701	0.162
701	0.162
702	0.162
702	0.162
702	0.162
703	0.162
703	0.161
704	0.161
704	0.162
705	0.163
705	0.163
705	0.162
706	0.163
706	0.163
707	0.162
707	0.162
708	0.161
708	0.161
709	0.16
709	0.159
709	0.157
710	0.155
710	0.154
711	0.154
711	0.153
712	0.152
712	0.152
713	0.151
713	0.15
713	0.149
714	0.148
714	0.147
715	0.147
715	0.146
716	0.145
716	0.145
716	0.145
717	0.145
717	0.145
718	0.144
718	0.144
719	0.144
719	0.144
720	0.144
720	0.143
720	0.142
721	0.14
721	0.14
722	0.139
722	0.138
723	0.138
723	0.138
723	0.137
724	0.136
724	0.135
725	0.134
725	0.133
726	0.133
726	0.132
727	0.132
727	0.131
727	0.131
728	0.13
728	0.13
729	0.131
729	0.131
730	0.131
730	0.131
730	0.131
731	0.131
731	0.131
732	0.131
732	0.13
733	0.129
733	0.128
734	0.127
734	0.126
734	0.126
735	0.126
735	0.125
736	0.124
736	0.124
737	0.124
737	0.124
737	0.124
738	0.123
738	0.121
739	0.12
739	0.119
740	0.117
740	0.117
741	0.116
741	0.114
741	0.112
742	0.109
742	0.108
743	0.108
743	0.107
744	0.107
744	0.107
744	0.106
745	0.105
745	0.104
746	0.104
746	0.104
747	0.104
747	0.104
748	0.104
748	0.104
748	0.103
749	0.102
749	0.101
750	0.101
750	0.1
751	0.1
751	0.101
751	0.101
752	0.1
752	0.1
753	0.099
753	0.1
754	0.1
754	0.1
754	0.101
755	0.101
755	0.102
756	0.102
756	0.099
757	0.098
757	0.099
758	0.098
758	0.096
758	0.096
759	0.095
759	0.093
760	0.091
760	0.088
761	0.087
761	0.087
761	0.086
762	0.085
762	0.085
763	0.085
763	0.083
764	0.081
764	0.079
764	0.078
765	0.076
765	0.074
766	0.073
766	0.073
767	0.071
767	0.068
768	0.064
768	0.063
768	0.062
769	0.061
769	0.06
770	0.059
770	0.058
771	0.056
771	0.053
771	0.051
772	0.049
772	0.048
773	0.045
773	0.042
774	0.039
774	0.036
775	0.033
775	0.03
775	0.026
776	0.022
776	0.019
777	0.015
777	0.012
778	0.008
778	0.005
778	0.001
779	-0.001
779	-0.003
780	-0.008
780	-0.012
781	-0.016
781	-0.022
781	-0.028
782	-0.036
782	-0.043
783	-0.05
783	-0.057
784	-0.066
784	-0.074
784	-0.083
785	-0.091
785	-0.1
786	-0.108
786	-0.114
787	-0.116
787	-0.119
788	-0.126
788	-0.133
788	-0.139
789	-0.144
789	-0.147
790	-0.147
790	-0.148
791	-0.15
791	-0.152
791	-0.154
792	-0.149
792	-0.138
793	-0.132
793	-0.129
794	-0.127
794	-0.129
794	-0.133
795	-0.136
795	-0.136
796	-0.137
796	-0.14
797	-0.149
797	-0.16
797	-0.166
798	-0.171
798	-0.174
799	-0.174
799	-0.174
800	-0.173
800	-0.174
801	-0.177
801	-0.178
801	-0.178
802	-0.18
802	-0.181
803	-0.182
803	-0.182
804	-0.181
804	-0.176
804	-0.17
805	-0.166
805	-0.164
806	-0.162
806	-0.16
807	-0.159
807	-0.159
807	-0.159
808	-0.159
808	-0.16
809	-0.165
809	-0.171
810	-0.174
810	-0.177
810	-0.181
811	-0.184
811	-0.185
812	-0.181
812	-0.178
813	-0.178
813	-0.178
813	-0.179
814	-0.179
814	-0.178
815	-0.175
815	-0.172
816	-0.167
816	-0.163
817	-0.161
817	-0.157
817	-0.149
818	-0.139
818	-0.127
819	-0.114
819	-0.102
820	-0.092
820	-0.081
820	-0.071
821	-0.06
821	-0.051
822	-0.043
822	-0.036
823	-0.029
823	-0.025
823	-0.021
824	-0.016
824	-0.011
825	-0.006
825	-0.001
826	0.002
826	0.004
826	0.006
827	0.009
827	0.011
828	0.013
828	0.015
829	0.017
829	0.019
829	0.02
830	0.02
830	0.022
831	0.025
831	0.026
832	0.027
832	0.028
832	0.029
833	0.031
833	0.032
834	0.033
834	0.034
835	0.036
835	0.037
835	0.038
836	0.04
836	0.041
837	0.043
837	0.044
838	0.044
838	0.045
839	0.046
839	0.047
839	0.047
840	0.047
840	0.047
841	0.048
841	0.048
842	0.049
842	0.05
842	0.051
843	0.052
843	0.052
844	0.053
844	0.054
845	0.054
845	0.055
845	0.055
846	0.055
846	0.055
847	0.054
847	0.054
848	0.054
848	0.053
848	0.052
849	0.052
849	0.051
850	0.05
850	0.049
851	0.049
851	0.05
851	0.049
852	0.049
852	0.05
853	0.05
853	0.05
854	0.051
854	0.051
854	0.051
855	0.051
855	0.05
856	0.05
856	0.049
857	0.049
857	0.049
857	0.048
858	0.048
858	0.048
859	0.047
859	0.047
860	0.047
860	0.047
860	0.047
861	0.047
861	0.047
862	0.046
862	0.046
863	0.046
863	0.045
863	0.045
864	0.045
864	0.045
865	0.046
865	0.046
866	0.046
866	0.047
866	0.048
867	0.049
867	0.05
868	0.051
868	0.053
869	0.054
869	0.055
869	0.056
870	0.056
870	0.056
871	0.056
871	0.056
872	0.055
872	0.054
872	0.053
873	0.052
873	0.051
874	0.051
874	0.051
875	0.051
875	0.051
875	0.051
876	0.051
876	0.052
877	0.052
877	0.053
878	0.053
878	0.053
878	0.053
879	0.053
879	0.052
880	0.051
880	0.051
881	0.05
881	0.049
881	0.048
882	0.047
882	0.046
883	0.044
883	0.044
884	0.043
884	0.043
884	0.043
885	0.043
885	0.044
886	0.044
886	0.045
887	0.046
887	0.047
887	0.047
888	0.048
888	0.048
889	0.049
889	0.049
890	0.05
890	0.049
890	0.049
891	0.049
891	0.048
892	0.048
892	0.047
893	0.047
893	0.046
893	0.046
894	0.046
894	0.045
895	0.044
895	0.043
895	0.042
896	0.041
896	0.04
897	0.039
897	0.038
898	0.038
898	0.038
898	0.038
899	0.039
899	0.039
900	0.04
900	0.041
901	0.043
901	0.044
901	0.046
902	0.047
902	0.048
903	0.049
903	0.049
904	0.05
904	0.05
904	0.051
905	0.051
905	0.052
906	0.052
906	0.052
907	0.051
907	0.051
907	0.051
908	0.051
908	0.05
909	0.05
909	0.049
910	0.048
910	0.048
910	0.047
911	0.047
911	0.047
912	0.048
912	0.048
913	0.048
913	0.049
913	0.049
914	0.049
914	0.049
915	0.049
915	0.048
916	0.048
916	0.047
916	0.046
917	0.045
917	0.044
918	0.043
918	0.042
918	0.041
919	0.041
919	0.041
920	0.041
920	0.042
921	0.043
921	0.043
921	0.044
922	0.045
922	0.046
923	0.046
923	0.047
924	0.047
924	0.048
924	0.047
925	0.047
925	0.046
926	0.046
926	0.045
927	0.044
927	0.043
927	0.042
928	0.041
928	0.04
929	0.039
929	0.038
930	0.037
930	0.036
930	0.035
931	0.035
931	0.034
932	0.034
932	0.034
933	0.034
933	0.034
933	0.034
934	0.033
934	0.033
935	0.032
935	0.032
935	0.031
936	0.03
936	0.03
937	0.029
937	0.028
938	0.028
938	0.028
938	0.028
939	0.028
939	0.028
940	0.028
940	0.029
941	0.029
941	0.03
941	0.031
942	0.032
942	0.033
943	0.033
943	0.034
944	0.034
944	0.034
944	0.034
945	0.035
945	0.035
946	0.035
946	0.035
946	0.034
947	0.034
947	0.033
948	0.033
948	0.032
949	0.031
949	0.031
949	0.031
950	0.03
950	0.03
951	0.03
951	0.029
952	0.029
952	0.029
952	0.029
953	0.029
953	0.029
954	0.028
954	0.027
955	0.027
955	0.026
955	0.026
956	0.027
956	0.026
957	0.026
957	0.026
957	0.025
958	0.025
958	0.024
959	0.024
959	0.023
960	0.023
960	0.022
960	0.021
961	0.02
961	0.019
962	0.019
962	0.018
963	0.018
963	0.017
963	0.017
964	0.018
964	0.018
965	0.019
965	0.02
966	0.021
966	0.022
966	0.023
967	0.024
967	0.024
968	0.024
968	0.024
968	0.024
969	0.023
969	0.023
970	0.023
970	0.022
971	0.021
971	0.021
971	0.02
972	0.02
972	0.02
973	0.02
973	0.019
974	0.019
974	0.019
974	0.019
975	0.019
975	0.019
976	0.019
976	0.018
976	0.018
977	0.017
977	0.015
978	0.014
978	0.013
979	0.012
979	0.011
979	0.01
980	0.009
980	0.009
981	0.008
981	0.008
982	0.008
982	0.008
982	0.008
983	0.009
983	0.009
984	0.009
984	0.009
984	0.009
985	0.009
985	0.009
986	0.009
986	0.009
987	0.009
987	0.01
987	0.011
988	0.012
988	0.013
989	0.014
989	0.015
990	0.017
990	0.019
990	0.021
991	0.023
991	0.025
992	0.026
992	0.028
992	0.029
993	0.03
993	0.03
994	0.03
994	0.03
995	0.03
995	0.029
995	0.028
996	0.027
996	0.026
997	0.025
997	0.024
997	0.023
998	0.022
998	0.021
999	0.021
999	0.02
1000	0.02
1000	0.02
1000	0.019
1001	0.019
1001	0.019
1002	0.019
1002	0.019
1003	0.019
1003	0.019
1003	0.019
1004	0.019
1004	0.018
1005	0.018
1005	0.017
1005	0.017
1006	0.016
1006	0.015
1007	0.014
1007	0.013
1008	0.013
1008	0.012
1008	0.012
1009	0.012
1009	0.012
1010	0.012
1010	0.012
1010	0.012
1011	0.012
1011	0.012
1012	0.012
1012	0.012
1013	0.012
1013	0.011
1013	0.01
1014	0.009
1014	0.008
1015	0.007
1015	0.007
1016	0.006
1016	0.006
1016	0.005
1017	0.005
1017	0.005
1018	0.005
1018	0.005
1018	0.005
1019	0.006
1019	0.006
1020	0.007
1020	0.007
1021	0.007
1021	0.008
1021	0.008
1022	0.008
1022	0.008
1023	0.008
1023	0.008
1023	0.007
1024	0.006
1024	0.005
1025	0.004
1025	0.003
1026	0.001
1026	0
1026	-0.001
1027	-0.002
1027	-0.002
1028	-0.003
1028	-0.003
1028	-0.003
1029	-0.003
1029	-0.003
1030	-0.002
1030	-0.002
1031	-0.002
1031	-0.001
1031	-0.001
1032	-0.001
1032	-0.001
1033	-0
1033	-0.001
1033	-0.001
1034	-0.002
1034	-0.003
1035	-0.003
1035	-0.004
1036	-0.005
1036	-0.006
1036	-0.006
1037	-0.006
1037	-0.006
1038	-0.007
1038	-0.006
1039	-0.006
1039	-0.005
1039	-0.005
1040	-0.005
1040	-0.004
1041	-0.004
1041	-0.004
1041	-0.004
1042	-0.004
1042	-0.004
1043	-0.005
1043	-0.005
1044	-0.006
1044	-0.006
1044	-0.006
1045	-0.007
1045	-0.007
1046	-0.008
1046	-0.008
1046	-0.008
1047	-0.008
1047	-0.008
1048	-0.007
1048	-0.008
1049	-0.008
1049	-0.009
1049	-0.009
1050	-0.01
1050	-0.011
1051	-0.012
1051	-0.012
1051	-0.013
1052	-0.014
1052	-0.015
1053	-0.016
1053	-0.016
1053	-0.016
1054	-0.016
1054	-0.016
1055	-0.016
1055	-0.016
1056	-0.016
1056	-0.017
1056	-0.017
1057	-0.018
1057	-0.019
1058	-0.019
1058	-0.02
1058	-0.02
1059	-0.021
1059	-0.022
1060	-0.022
1060	-0.022
1061	-0.021
1061	-0.02
1061	-0.019
1062	-0.019
1062	-0.019
1063	-0.018
1063	-0.018
1063	-0.017
1064	-0.016
1064	-0.015
1065	-0.014
1065	-0.014
1066	-0.014
1066	-0.014
1066	-0.013
1067	-0.012
1067	-0.012
1068	-0.012
1068	-0.012
1068	-0.012
1069	-0.012
1069	-0.013
1070	-0.013
1070	-0.013
1071	-0.013
1071	-0.013
1071	-0.014
1072	-0.014
1072	-0.014
1073	-0.014
1073	-0.014
1073	-0.014
1074	-0.013
1074	-0.013
1075	-0.013
1075	-0.013
1076	-0.014
1076	-0.013
1076	-0.014
1077	-0.014
1077	-0.015
1078	-0.015
1078	-0.015
1078	-0.015
1079	-0.015
1079	-0.014
1080	-0.014
1080	-0.013
1080	-0.014
1081	-0.013
1081	-0.012
1082	-0.011
1082	-0.011
1083	-0.01
1083	-0.01
1083	-0.01
1084	-0.01
1084	-0.008
1085	-0.008
1085	-0.007
1085	-0.006
1086	-0.006
1086	-0.006
1087	-0.005
1087	-0.004
1088	-0.004
1088	-0.004
1088	-0.003
1089	-0.004
1089	-0.004
1090	-0.004
1090	-0.003
1090	-0.002
1091	-0.002
1091	0
1092	0.001
1092	0.003
1092	0.004
1093	0.006
1093	0.009
1094	0.012
1094	0.013
1095	0.014
1095	0.015
1095	0.018
1096	0.02
1096	0.021
1097	0.023
1097	0.024
1097	0.026
1098	0.026
1098	0.028
1099	0.031
1099	0.034
1100	0.037
1100	0.04
1100	0.042
1101	0.046
1101	0.049
1102	0.056
1102	0.061
1102	0.068
1103	0.073
1103	0.08
1104	0.087
1104	0.095
1104	0.105
1105	0.115
1105	0.123
1106	0.132
1106	0.144
1107	0.154
1107	0.17
1107	0.191
1108	0.261
1108	0.369
1109	0.552
1109	1.065
1109	-0
1110	-0
1110	-0
1111	-0
1111	-0
