Data from 15c-2a-fridge-noshake_Absorbance__587__06824.txt Node

Date: Wed Jan 17 18:57:26 CET 2024
User: Marek
Spectrometer: MAYP115816
Trigger mode: 0
Integration Time (sec): 2.000000E-1
Scans to average: 10
Electric dark correction enabled: true
Nonlinearity correction enabled: true
Boxcar width: 5
XAxis mode: Wavelengths
Number of Pixels in Spectrum: 2068
>>>>>Begin Spectral Data<<<<<
199	-1.587
199	-1.452
200	-1.297
200	-1.176
201	-1.102
201	-1.055
202	-0.988
202	-0.94
203	-0.897
203	-0.86
204	-0.836
204	-0.814
205	-0.791
205	-0.781
205	-0.78
206	-0.779
206	-0.777
207	-0.775
207	-0.77
208	-0.769
208	-0.77
209	-0.765
209	-0.764
210	-0.764
210	-0.764
211	-0.762
211	-0.763
212	-0.764
212	-0.764
213	-0.764
213	-0.763
213	-0.762
214	-0.762
214	-0.761
215	-0.76
215	-0.759
216	-0.76
216	-0.757
217	-0.752
217	-0.75
218	-0.75
218	-0.747
219	-0.744
219	-0.744
220	-0.74
220	-0.739
221	-0.734
221	-0.732
221	-0.728
222	-0.726
222	-0.722
223	-0.716
223	-0.713
224	-0.708
224	-0.7
225	-0.692
225	-0.685
226	-0.677
226	-0.665
227	-0.653
227	-0.641
228	-0.627
228	-0.61
229	-0.59
229	-0.567
229	-0.542
230	-0.515
230	-0.486
231	-0.453
231	-0.42
232	-0.387
232	-0.351
233	-0.313
233	-0.275
234	-0.238
234	-0.203
235	-0.17
235	-0.138
236	-0.108
236	-0.079
236	-0.053
237	-0.028
237	-0.006
238	0.014
238	0.032
239	0.048
239	0.063
240	0.076
240	0.088
241	0.098
241	0.107
242	0.115
242	0.122
243	0.129
243	0.134
243	0.139
244	0.144
244	0.148
245	0.151
245	0.155
246	0.158
246	0.161
247	0.164
247	0.167
248	0.169
248	0.172
249	0.174
249	0.176
250	0.178
250	0.18
250	0.182
251	0.183
251	0.185
252	0.187
252	0.188
253	0.19
253	0.191
254	0.192
254	0.193
255	0.194
255	0.195
256	0.196
256	0.196
257	0.197
257	0.197
258	0.198
258	0.198
258	0.198
259	0.198
259	0.198
260	0.198
260	0.198
261	0.197
261	0.197
262	0.197
262	0.196
263	0.196
263	0.195
264	0.194
264	0.193
265	0.192
265	0.191
265	0.19
266	0.189
266	0.188
267	0.187
267	0.186
268	0.184
268	0.183
269	0.181
269	0.18
270	0.178
270	0.176
271	0.175
271	0.173
272	0.171
272	0.169
272	0.168
273	0.166
273	0.164
274	0.163
274	0.161
275	0.16
275	0.158
276	0.157
276	0.155
277	0.154
277	0.152
278	0.151
278	0.149
278	0.147
279	0.144
279	0.141
280	0.139
280	0.137
281	0.135
281	0.133
282	0.131
282	0.129
283	0.127
283	0.126
284	0.125
284	0.124
285	0.123
285	0.122
285	0.121
286	0.12
286	0.119
287	0.118
287	0.117
288	0.115
288	0.114
289	0.113
289	0.112
290	0.111
290	0.11
291	0.109
291	0.108
292	0.107
292	0.106
292	0.106
293	0.105
293	0.104
294	0.104
294	0.103
295	0.102
295	0.102
296	0.102
296	0.101
297	0.101
297	0.1
298	0.1
298	0.1
298	0.1
299	0.099
299	0.099
300	0.099
300	0.098
301	0.098
301	0.098
302	0.098
302	0.098
303	0.097
303	0.097
304	0.097
304	0.097
305	0.097
305	0.096
305	0.096
306	0.096
306	0.096
307	0.096
307	0.095
308	0.095
308	0.095
309	0.095
309	0.095
310	0.095
310	0.094
311	0.094
311	0.094
311	0.094
312	0.094
312	0.093
313	0.093
313	0.093
314	0.093
314	0.092
315	0.092
315	0.092
316	0.091
316	0.091
317	0.091
317	0.091
318	0.09
318	0.09
318	0.09
319	0.09
319	0.089
320	0.089
320	0.089
321	0.089
321	0.088
322	0.088
322	0.088
323	0.087
323	0.087
324	0.087
324	0.086
324	0.086
325	0.086
325	0.085
326	0.085
326	0.085
327	0.085
327	0.085
328	0.084
328	0.084
329	0.084
329	0.083
330	0.083
330	0.083
330	0.082
331	0.082
331	0.082
332	0.081
332	0.081
333	0.081
333	0.08
334	0.08
334	0.08
335	0.079
335	0.079
336	0.078
336	0.078
336	0.077
337	0.077
337	0.077
338	0.076
338	0.076
339	0.076
339	0.076
340	0.075
340	0.075
341	0.075
341	0.075
342	0.074
342	0.074
342	0.074
343	0.074
343	0.073
344	0.073
344	0.073
345	0.073
345	0.072
346	0.072
346	0.072
347	0.071
347	0.071
348	0.071
348	0.07
348	0.07
349	0.07
349	0.069
350	0.069
350	0.069
351	0.068
351	0.068
352	0.068
352	0.068
353	0.067
353	0.067
354	0.067
354	0.067
354	0.066
355	0.066
355	0.066
356	0.065
356	0.065
357	0.065
357	0.065
358	0.064
358	0.064
359	0.065
359	0.064
360	0.065
360	0.065
360	0.065
361	0.065
361	0.065
362	0.065
362	0.065
363	0.065
363	0.065
364	0.065
364	0.064
365	0.064
365	0.064
366	0.064
366	0.064
366	0.064
367	0.064
367	0.064
368	0.064
368	0.064
369	0.064
369	0.064
370	0.064
370	0.064
371	0.064
371	0.063
372	0.064
372	0.063
372	0.063
373	0.063
373	0.063
374	0.063
374	0.063
375	0.064
375	0.064
376	0.064
376	0.064
377	0.064
377	0.064
378	0.064
378	0.065
378	0.065
379	0.065
379	0.065
380	0.065
380	0.065
381	0.065
381	0.065
382	0.064
382	0.064
383	0.064
383	0.064
383	0.064
384	0.064
384	0.064
385	0.064
385	0.064
386	0.064
386	0.065
387	0.065
387	0.065
388	0.065
388	0.065
389	0.064
389	0.064
389	0.065
390	0.065
390	0.065
391	0.065
391	0.065
392	0.065
392	0.065
393	0.065
393	0.066
394	0.065
394	0.066
394	0.065
395	0.065
395	0.065
396	0.065
396	0.065
397	0.065
397	0.065
398	0.065
398	0.065
399	0.065
399	0.065
400	0.065
400	0.065
400	0.065
401	0.064
401	0.064
402	0.063
402	0.063
403	0.063
403	0.064
404	0.064
404	0.064
405	0.064
405	0.064
405	0.064
406	0.064
406	0.064
407	0.064
407	0.064
408	0.063
408	0.063
409	0.063
409	0.063
410	0.063
410	0.063
411	0.063
411	0.063
411	0.063
412	0.063
412	0.063
413	0.063
413	0.063
414	0.063
414	0.063
415	0.063
415	0.062
416	0.062
416	0.062
416	0.061
417	0.061
417	0.061
418	0.061
418	0.062
419	0.062
419	0.063
420	0.063
420	0.064
421	0.064
421	0.064
421	0.064
422	0.065
422	0.065
423	0.065
423	0.065
424	0.064
424	0.064
425	0.064
425	0.063
426	0.063
426	0.063
427	0.063
427	0.063
427	0.064
428	0.064
428	0.064
429	0.064
429	0.064
430	0.064
430	0.064
431	0.063
431	0.063
432	0.063
432	0.063
432	0.062
433	0.062
433	0.061
434	0.061
434	0.062
435	0.062
435	0.062
436	0.062
436	0.062
437	0.063
437	0.062
437	0.062
438	0.062
438	0.062
439	0.062
439	0.061
440	0.061
440	0.061
441	0.061
441	0.061
442	0.061
442	0.061
442	0.061
443	0.061
443	0.061
444	0.061
444	0.061
445	0.061
445	0.062
446	0.062
446	0.062
447	0.062
447	0.061
447	0.062
448	0.062
448	0.061
449	0.061
449	0.061
450	0.061
450	0.061
451	0.061
451	0.061
452	0.061
452	0.061
452	0.061
453	0.061
453	0.061
454	0.061
454	0.061
455	0.061
455	0.061
456	0.06
456	0.06
457	0.06
457	0.06
458	0.06
458	0.06
458	0.06
459	0.06
459	0.06
460	0.059
460	0.058
461	0.058
461	0.058
462	0.058
462	0.058
463	0.059
463	0.059
463	0.059
464	0.059
464	0.059
465	0.059
465	0.06
466	0.06
466	0.06
467	0.06
467	0.06
467	0.059
468	0.058
468	0.058
469	0.057
469	0.057
470	0.057
470	0.057
471	0.056
471	0.056
472	0.056
472	0.056
472	0.056
473	0.057
473	0.057
474	0.057
474	0.057
475	0.057
475	0.057
476	0.057
476	0.057
477	0.056
477	0.056
477	0.056
478	0.056
478	0.056
479	0.056
479	0.056
480	0.056
480	0.057
481	0.057
481	0.057
482	0.058
482	0.058
482	0.059
483	0.06
483	0.061
484	0.062
484	0.062
485	0.061
485	0.062
486	0.062
486	0.062
487	0.062
487	0.062
487	0.062
488	0.061
488	0.06
489	0.06
489	0.06
490	0.061
490	0.06
491	0.061
491	0.061
492	0.061
492	0.061
492	0.061
493	0.061
493	0.061
494	0.062
494	0.063
495	0.063
495	0.063
496	0.064
496	0.064
496	0.065
497	0.065
497	0.065
498	0.066
498	0.066
499	0.066
499	0.066
500	0.066
500	0.067
501	0.068
501	0.068
501	0.068
502	0.068
502	0.069
503	0.07
503	0.07
504	0.07
504	0.07
505	0.07
505	0.07
506	0.07
506	0.071
506	0.071
507	0.071
507	0.071
508	0.071
508	0.072
509	0.072
509	0.073
510	0.074
510	0.074
511	0.074
511	0.074
511	0.075
512	0.075
512	0.075
513	0.074
513	0.074
514	0.074
514	0.074
515	0.074
515	0.073
515	0.073
516	0.073
516	0.073
517	0.074
517	0.074
518	0.074
518	0.074
519	0.073
519	0.073
520	0.073
520	0.073
520	0.073
521	0.072
521	0.071
522	0.07
522	0.07
523	0.07
523	0.07
524	0.07
524	0.07
524	0.07
525	0.07
525	0.071
526	0.072
526	0.072
527	0.073
527	0.073
528	0.074
528	0.074
529	0.075
529	0.075
529	0.075
530	0.076
530	0.076
531	0.076
531	0.077
532	0.077
532	0.077
533	0.078
533	0.078
533	0.078
534	0.077
534	0.077
535	0.077
535	0.078
536	0.078
536	0.077
537	0.078
537	0.078
538	0.077
538	0.077
538	0.078
539	0.078
539	0.078
540	0.078
540	0.078
541	0.078
541	0.078
542	0.078
542	0.078
542	0.078
543	0.078
543	0.078
544	0.077
544	0.078
545	0.078
545	0.079
546	0.08
546	0.08
547	0.079
547	0.078
547	0.078
548	0.078
548	0.078
549	0.078
549	0.078
550	0.078
550	0.078
551	0.078
551	0.078
551	0.078
552	0.079
552	0.079
553	0.08
553	0.08
554	0.08
554	0.079
555	0.079
555	0.078
556	0.077
556	0.077
556	0.076
557	0.076
557	0.077
558	0.076
558	0.076
559	0.076
559	0.077
560	0.077
560	0.077
560	0.077
561	0.078
561	0.079
562	0.078
562	0.077
563	0.076
563	0.076
564	0.075
564	0.074
564	0.074
565	0.075
565	0.075
566	0.074
566	0.074
567	0.075
567	0.076
568	0.077
568	0.078
568	0.08
569	0.082
569	0.083
570	0.084
570	0.083
571	0.084
571	0.086
572	0.085
572	0.086
573	0.085
573	0.085
573	0.084
574	0.084
574	0.084
575	0.084
575	0.086
576	0.086
576	0.084
577	0.083
577	0.082
577	0.083
578	0.083
578	0.084
579	0.085
579	0.086
580	0.085
580	0.081
581	0.078
581	0.077
581	0.078
582	0.079
582	0.079
583	0.08
583	0.079
584	0.076
584	0.072
585	0.073
585	0.074
585	0.076
586	0.076
586	0.076
587	0.074
587	0.072
588	0.07
588	0.07
589	0.071
589	0.072
590	0.072
590	0.073
590	0.075
591	0.076
591	0.075
592	0.075
592	0.074
593	0.074
593	0.074
594	0.073
594	0.071
594	0.07
595	0.07
595	0.069
596	0.068
596	0.07
597	0.073
597	0.075
598	0.075
598	0.076
598	0.077
599	0.077
599	0.076
600	0.075
600	0.074
601	0.074
601	0.073
602	0.071
602	0.071
602	0.07
603	0.07
603	0.073
604	0.074
604	0.075
605	0.077
605	0.078
606	0.078
606	0.077
606	0.076
607	0.075
607	0.075
608	0.074
608	0.072
609	0.07
609	0.07
610	0.069
610	0.068
610	0.068
611	0.07
611	0.072
612	0.073
612	0.075
613	0.076
613	0.077
614	0.076
614	0.074
614	0.074
615	0.073
615	0.072
616	0.071
616	0.07
617	0.069
617	0.067
618	0.066
618	0.065
618	0.065
619	0.066
619	0.067
620	0.07
620	0.07
621	0.07
621	0.07
622	0.069
622	0.069
622	0.069
623	0.068
623	0.068
624	0.068
624	0.067
625	0.066
625	0.066
626	0.066
626	0.066
626	0.066
627	0.067
627	0.067
628	0.068
628	0.068
629	0.068
629	0.068
630	0.066
630	0.065
630	0.066
631	0.066
631	0.066
632	0.065
632	0.065
633	0.065
633	0.066
634	0.067
634	0.069
634	0.07
635	0.071
635	0.071
636	0.072
636	0.072
637	0.072
637	0.072
638	0.073
638	0.073
638	0.073
639	0.073
639	0.072
640	0.073
640	0.073
641	0.074
641	0.075
642	0.076
642	0.077
642	0.077
643	0.078
643	0.078
644	0.079
644	0.08
645	0.081
645	0.082
646	0.083
646	0.085
646	0.086
647	0.088
647	0.089
648	0.09
648	0.091
649	0.092
649	0.093
650	0.095
650	0.096
650	0.097
651	0.097
651	0.098
652	0.099
652	0.1
653	0.101
653	0.109
653	0.126
654	0.102
654	0.085
655	0.08
655	0.081
656	0.082
656	0.082
657	0.083
657	0.083
657	0.083
658	0.079
658	0.065
659	0.082
659	0.105
660	0.115
660	0.116
661	0.117
661	0.119
661	0.121
662	0.124
662	0.127
663	0.129
663	0.132
664	0.134
664	0.135
665	0.137
665	0.138
665	0.14
666	0.14
666	0.141
667	0.141
667	0.142
668	0.142
668	0.143
669	0.144
669	0.146
669	0.149
670	0.151
670	0.152
671	0.153
671	0.154
672	0.156
672	0.157
672	0.158
673	0.159
673	0.161
674	0.161
674	0.161
675	0.162
675	0.163
676	0.165
676	0.167
676	0.168
677	0.169
677	0.17
678	0.17
678	0.17
679	0.171
679	0.171
680	0.173
680	0.173
680	0.173
681	0.174
681	0.175
682	0.176
682	0.177
683	0.178
683	0.18
684	0.182
684	0.182
684	0.181
685	0.182
685	0.183
686	0.183
686	0.182
687	0.182
687	0.182
687	0.182
688	0.181
688	0.18
689	0.181
689	0.182
690	0.181
690	0.18
691	0.18
691	0.179
691	0.179
692	0.178
692	0.177
693	0.177
693	0.177
694	0.175
694	0.174
695	0.175
695	0.177
695	0.177
696	0.176
696	0.175
697	0.175
697	0.174
698	0.173
698	0.172
698	0.172
699	0.173
699	0.171
700	0.169
700	0.17
701	0.171
701	0.171
702	0.17
702	0.17
702	0.169
703	0.169
703	0.168
704	0.167
704	0.166
705	0.166
705	0.165
705	0.164
706	0.164
706	0.163
707	0.163
707	0.162
708	0.161
708	0.16
709	0.16
709	0.158
709	0.156
710	0.154
710	0.153
711	0.153
711	0.152
712	0.151
712	0.15
713	0.149
713	0.148
713	0.147
714	0.145
714	0.144
715	0.144
715	0.143
716	0.141
716	0.141
716	0.14
717	0.139
717	0.139
718	0.138
718	0.136
719	0.136
719	0.135
720	0.134
720	0.132
720	0.131
721	0.129
721	0.128
722	0.126
722	0.125
723	0.124
723	0.124
723	0.123
724	0.122
724	0.121
725	0.12
725	0.119
726	0.119
726	0.118
727	0.118
727	0.117
727	0.116
728	0.115
728	0.115
729	0.116
729	0.116
730	0.115
730	0.114
730	0.114
731	0.114
731	0.113
732	0.113
732	0.112
733	0.111
733	0.111
734	0.11
734	0.109
734	0.108
735	0.108
735	0.107
736	0.106
736	0.106
737	0.106
737	0.107
737	0.107
738	0.105
738	0.103
739	0.102
739	0.101
740	0.1
740	0.099
741	0.098
741	0.096
741	0.094
742	0.09
742	0.089
743	0.088
743	0.087
744	0.086
744	0.085
744	0.083
745	0.081
745	0.08
746	0.079
746	0.078
747	0.078
747	0.078
748	0.077
748	0.077
748	0.076
749	0.075
749	0.075
750	0.074
750	0.074
751	0.074
751	0.075
751	0.075
752	0.075
752	0.074
753	0.074
753	0.075
754	0.075
754	0.074
754	0.074
755	0.073
755	0.073
756	0.071
756	0.068
757	0.066
757	0.066
758	0.065
758	0.063
758	0.062
759	0.062
759	0.059
760	0.057
760	0.055
761	0.055
761	0.055
761	0.055
762	0.054
762	0.055
763	0.055
763	0.054
764	0.052
764	0.051
764	0.05
765	0.049
765	0.047
766	0.046
766	0.046
767	0.045
767	0.041
768	0.038
768	0.037
768	0.037
769	0.036
769	0.036
770	0.034
770	0.033
771	0.031
771	0.029
771	0.027
772	0.025
772	0.024
773	0.022
773	0.02
774	0.017
774	0.015
775	0.013
775	0.011
775	0.008
776	0.005
776	0.003
777	0.001
777	-0.002
778	-0.005
778	-0.008
778	-0.01
779	-0.012
779	-0.014
780	-0.017
780	-0.021
781	-0.024
781	-0.029
781	-0.034
782	-0.039
782	-0.045
783	-0.051
783	-0.057
784	-0.064
784	-0.071
784	-0.078
785	-0.085
785	-0.092
786	-0.099
786	-0.104
787	-0.107
787	-0.112
788	-0.119
788	-0.126
788	-0.133
789	-0.14
789	-0.143
790	-0.144
790	-0.147
791	-0.15
791	-0.153
791	-0.155
792	-0.15
792	-0.139
793	-0.133
793	-0.129
794	-0.128
794	-0.13
794	-0.134
795	-0.136
795	-0.137
796	-0.137
796	-0.14
797	-0.149
797	-0.16
797	-0.167
798	-0.172
798	-0.175
799	-0.175
799	-0.174
800	-0.174
800	-0.175
801	-0.178
801	-0.179
801	-0.179
802	-0.18
802	-0.182
803	-0.182
803	-0.183
804	-0.182
804	-0.177
804	-0.17
805	-0.166
805	-0.164
806	-0.162
806	-0.161
807	-0.16
807	-0.159
807	-0.159
808	-0.159
808	-0.161
809	-0.165
809	-0.171
810	-0.175
810	-0.178
810	-0.182
811	-0.185
811	-0.185
812	-0.181
812	-0.178
813	-0.178
813	-0.179
813	-0.179
814	-0.18
814	-0.179
815	-0.176
815	-0.172
816	-0.167
816	-0.163
817	-0.161
817	-0.157
817	-0.15
818	-0.141
818	-0.129
819	-0.117
819	-0.107
820	-0.098
820	-0.089
820	-0.08
821	-0.071
821	-0.064
822	-0.057
822	-0.052
823	-0.047
823	-0.043
823	-0.04
824	-0.036
824	-0.032
825	-0.027
825	-0.023
826	-0.02
826	-0.019
826	-0.017
827	-0.015
827	-0.013
828	-0.012
828	-0.011
829	-0.009
829	-0.008
829	-0.008
830	-0.008
830	-0.007
831	-0.005
831	-0.004
832	-0.003
832	-0.001
832	-0
833	0.001
833	0.002
834	0.003
834	0.004
835	0.006
835	0.007
835	0.008
836	0.009
836	0.01
837	0.012
837	0.013
838	0.014
838	0.014
839	0.015
839	0.016
839	0.016
840	0.015
840	0.015
841	0.015
841	0.015
842	0.015
842	0.016
842	0.016
843	0.016
843	0.016
844	0.017
844	0.017
845	0.018
845	0.018
845	0.019
846	0.019
846	0.019
847	0.019
847	0.019
848	0.019
848	0.019
848	0.019
849	0.02
849	0.02
850	0.02
850	0.019
851	0.019
851	0.02
851	0.019
852	0.019
852	0.02
853	0.02
853	0.02
854	0.02
854	0.019
854	0.019
855	0.018
855	0.017
856	0.017
856	0.017
857	0.017
857	0.016
857	0.016
858	0.016
858	0.016
859	0.016
859	0.016
860	0.017
860	0.017
860	0.017
861	0.018
861	0.018
862	0.018
862	0.018
863	0.018
863	0.018
863	0.018
864	0.018
864	0.018
865	0.019
865	0.019
866	0.019
866	0.018
866	0.019
867	0.019
867	0.02
868	0.021
868	0.022
869	0.023
869	0.023
869	0.024
870	0.024
870	0.024
871	0.024
871	0.024
872	0.024
872	0.023
872	0.022
873	0.021
873	0.02
874	0.02
874	0.019
875	0.02
875	0.02
875	0.02
876	0.021
876	0.022
877	0.023
877	0.024
878	0.025
878	0.026
878	0.027
879	0.028
879	0.028
880	0.028
880	0.028
881	0.027
881	0.027
881	0.026
882	0.025
882	0.024
883	0.023
883	0.021
884	0.021
884	0.02
884	0.02
885	0.02
885	0.02
886	0.02
886	0.021
887	0.021
887	0.021
887	0.021
888	0.022
888	0.022
889	0.023
889	0.023
890	0.024
890	0.024
890	0.023
891	0.023
891	0.022
892	0.022
892	0.021
893	0.02
893	0.02
893	0.019
894	0.018
894	0.017
895	0.016
895	0.016
895	0.015
896	0.014
896	0.014
897	0.013
897	0.012
898	0.012
898	0.011
898	0.011
899	0.01
899	0.01
900	0.01
900	0.011
901	0.012
901	0.013
901	0.014
902	0.016
902	0.017
903	0.018
903	0.019
904	0.02
904	0.021
904	0.022
905	0.022
905	0.022
906	0.022
906	0.022
907	0.022
907	0.022
907	0.022
908	0.021
908	0.021
909	0.021
909	0.02
910	0.02
910	0.02
910	0.02
911	0.021
911	0.021
912	0.022
912	0.023
913	0.024
913	0.025
913	0.025
914	0.025
914	0.025
915	0.024
915	0.024
916	0.022
916	0.021
916	0.02
917	0.018
917	0.017
918	0.015
918	0.014
918	0.014
919	0.013
919	0.013
920	0.013
920	0.014
921	0.014
921	0.015
921	0.015
922	0.016
922	0.017
923	0.018
923	0.019
924	0.019
924	0.02
924	0.02
925	0.019
925	0.019
926	0.019
926	0.018
927	0.017
927	0.016
927	0.015
928	0.015
928	0.013
929	0.012
929	0.011
930	0.01
930	0.009
930	0.009
931	0.008
931	0.007
932	0.006
932	0.006
933	0.005
933	0.004
933	0.004
934	0.003
934	0.002
935	0.001
935	0.001
935	0
936	-0
936	-0.001
937	-0.001
937	-0.001
938	-0.001
938	-0.001
938	-0.001
939	-0.001
939	-0
940	0
940	0.001
941	0.001
941	0.002
941	0.003
942	0.004
942	0.005
943	0.005
943	0.006
944	0.006
944	0.006
944	0.007
945	0.007
945	0.008
946	0.008
946	0.008
946	0.008
947	0.008
947	0.008
948	0.008
948	0.008
949	0.007
949	0.007
949	0.007
950	0.006
950	0.005
951	0.005
951	0.004
952	0.003
952	0.003
952	0.003
953	0.002
953	0.002
954	0.001
954	0.001
955	0.001
955	0
955	0
956	0.001
956	0.001
957	0.001
957	0.001
957	0.001
958	0.001
958	0.001
959	0
959	0
960	-0
960	-0.001
960	-0.002
961	-0.003
961	-0.003
962	-0.004
962	-0.004
963	-0.004
963	-0.004
963	-0.004
964	-0.003
964	-0.002
965	-0.001
965	-0
966	0.001
966	0.002
966	0.003
967	0.004
967	0.004
968	0.004
968	0.005
968	0.005
969	0.005
969	0.004
970	0.004
970	0.004
971	0.003
971	0.003
971	0.002
972	0.002
972	0.002
973	0.002
973	0.001
974	0.001
974	0
974	-0
975	-0
975	-0
976	-0.001
976	-0.001
976	-0.002
977	-0.003
977	-0.004
978	-0.005
978	-0.006
979	-0.007
979	-0.007
979	-0.008
980	-0.009
980	-0.01
981	-0.01
981	-0.01
982	-0.01
982	-0.009
982	-0.008
983	-0.008
983	-0.007
984	-0.006
984	-0.005
984	-0.005
985	-0.004
985	-0.004
986	-0.004
986	-0.004
987	-0.005
987	-0.004
987	-0.004
988	-0.004
988	-0.004
989	-0.003
989	-0.003
990	-0.002
990	-0.002
990	-0
991	0.001
991	0.002
992	0.003
992	0.004
992	0.005
993	0.006
993	0.007
994	0.007
994	0.007
995	0.008
995	0.008
995	0.008
996	0.008
996	0.007
997	0.007
997	0.007
997	0.007
998	0.007
998	0.007
999	0.007
999	0.006
1000	0.006
1000	0.006
1000	0.005
1001	0.005
1001	0.005
1002	0.004
1002	0.004
1003	0.003
1003	0.003
1003	0.002
1004	0.002
1004	0.001
1005	0
1005	-0
1005	-0.001
1006	-0.002
1006	-0.002
1007	-0.003
1007	-0.003
1008	-0.004
1008	-0.004
1008	-0.004
1009	-0.004
1009	-0.004
1010	-0.004
1010	-0.003
1010	-0.003
1011	-0.004
1011	-0.004
1012	-0.004
1012	-0.005
1013	-0.005
1013	-0.006
1013	-0.008
1014	-0.009
1014	-0.01
1015	-0.011
1015	-0.012
1016	-0.013
1016	-0.014
1016	-0.014
1017	-0.015
1017	-0.015
1018	-0.015
1018	-0.015
1018	-0.014
1019	-0.014
1019	-0.014
1020	-0.013
1020	-0.013
1021	-0.013
1021	-0.012
1021	-0.012
1022	-0.012
1022	-0.012
1023	-0.011
1023	-0.012
1023	-0.012
1024	-0.013
1024	-0.014
1025	-0.015
1025	-0.016
1026	-0.017
1026	-0.019
1026	-0.02
1027	-0.021
1027	-0.022
1028	-0.023
1028	-0.023
1028	-0.024
1029	-0.024
1029	-0.024
1030	-0.025
1030	-0.025
1031	-0.024
1031	-0.024
1031	-0.024
1032	-0.025
1032	-0.025
1033	-0.025
1033	-0.025
1033	-0.025
1034	-0.026
1034	-0.026
1035	-0.027
1035	-0.027
1036	-0.028
1036	-0.028
1036	-0.028
1037	-0.028
1037	-0.028
1038	-0.028
1038	-0.027
1039	-0.027
1039	-0.027
1039	-0.026
1040	-0.027
1040	-0.027
1041	-0.027
1041	-0.027
1041	-0.028
1042	-0.029
1042	-0.029
1043	-0.03
1043	-0.031
1044	-0.032
1044	-0.033
1044	-0.033
1045	-0.034
1045	-0.035
1046	-0.035
1046	-0.036
1046	-0.036
1047	-0.036
1047	-0.035
1048	-0.035
1048	-0.035
1049	-0.035
1049	-0.036
1049	-0.036
1050	-0.036
1050	-0.037
1051	-0.037
1051	-0.038
1051	-0.038
1052	-0.038
1052	-0.039
1053	-0.039
1053	-0.039
1053	-0.04
1054	-0.04
1054	-0.039
1055	-0.039
1055	-0.039
1056	-0.04
1056	-0.041
1056	-0.042
1057	-0.043
1057	-0.043
1058	-0.044
1058	-0.045
1058	-0.045
1059	-0.045
1059	-0.046
1060	-0.046
1060	-0.045
1061	-0.044
1061	-0.043
1061	-0.042
1062	-0.041
1062	-0.041
1063	-0.04
1063	-0.039
1063	-0.038
1064	-0.038
1064	-0.037
1065	-0.036
1065	-0.036
1066	-0.036
1066	-0.036
1066	-0.036
1067	-0.036
1067	-0.035
1068	-0.036
1068	-0.036
1068	-0.036
1069	-0.037
1069	-0.038
1070	-0.039
1070	-0.039
1071	-0.04
1071	-0.04
1071	-0.041
1072	-0.042
1072	-0.042
1073	-0.042
1073	-0.042
1073	-0.042
1074	-0.042
1074	-0.041
1075	-0.042
1075	-0.043
1076	-0.044
1076	-0.043
1076	-0.045
1077	-0.045
1077	-0.046
1078	-0.047
1078	-0.047
1078	-0.047
1079	-0.048
1079	-0.047
1080	-0.048
1080	-0.047
1080	-0.048
1081	-0.048
1081	-0.047
1082	-0.047
1082	-0.047
1083	-0.047
1083	-0.047
1083	-0.046
1084	-0.046
1084	-0.046
1085	-0.045
1085	-0.044
1085	-0.043
1086	-0.043
1086	-0.043
1087	-0.042
1087	-0.041
1088	-0.042
1088	-0.042
1088	-0.041
1089	-0.042
1089	-0.042
1090	-0.042
1090	-0.041
1090	-0.041
1091	-0.04
1091	-0.039
1092	-0.038
1092	-0.035
1092	-0.034
1093	-0.032
1093	-0.029
1094	-0.027
1094	-0.025
1095	-0.025
1095	-0.024
1095	-0.021
1096	-0.02
1096	-0.02
1097	-0.019
1097	-0.019
1097	-0.018
1098	-0.018
1098	-0.018
1099	-0.017
1099	-0.015
1100	-0.013
1100	-0.013
1100	-0.012
1101	-0.011
1101	-0.01
1102	-0.006
1102	-0.003
1102	-0
1103	0.003
1103	0.007
1104	0.012
1104	0.017
1104	0.023
1105	0.028
1105	0.033
1106	0.036
1106	0.043
1107	0.047
1107	0.056
1107	0.065
1108	0.106
1108	0.161
1109	0.237
1109	0.367
1109	0.475
1110	0.721
1110	-0
1111	-0
1111	-0
