Data from 15c-2a-fridge-noshake_Absorbance__311__06548.txt Node

Date: Wed Jan 17 18:47:44 CET 2024
User: Marek
Spectrometer: MAYP115816
Trigger mode: 0
Integration Time (sec): 2.000000E-1
Scans to average: 10
Electric dark correction enabled: true
Nonlinearity correction enabled: true
Boxcar width: 5
XAxis mode: Wavelengths
Number of Pixels in Spectrum: 2068
>>>>>Begin Spectral Data<<<<<
199	-1.616
199	-1.48
200	-1.324
200	-1.202
201	-1.128
201	-1.081
202	-1.014
202	-0.964
203	-0.92
203	-0.882
204	-0.859
204	-0.836
205	-0.813
205	-0.803
205	-0.802
206	-0.801
206	-0.797
207	-0.795
207	-0.791
208	-0.79
208	-0.79
209	-0.785
209	-0.784
210	-0.784
210	-0.785
211	-0.783
211	-0.782
212	-0.785
212	-0.783
213	-0.783
213	-0.782
213	-0.782
214	-0.782
214	-0.782
215	-0.781
215	-0.779
216	-0.78
216	-0.778
217	-0.772
217	-0.772
218	-0.771
218	-0.768
219	-0.765
219	-0.764
220	-0.76
220	-0.758
221	-0.754
221	-0.751
221	-0.747
222	-0.744
222	-0.739
223	-0.733
223	-0.731
224	-0.726
224	-0.719
225	-0.711
225	-0.704
226	-0.696
226	-0.684
227	-0.671
227	-0.659
228	-0.644
228	-0.628
229	-0.608
229	-0.584
229	-0.559
230	-0.531
230	-0.503
231	-0.469
231	-0.436
232	-0.403
232	-0.366
233	-0.328
233	-0.289
234	-0.252
234	-0.215
235	-0.18
235	-0.147
236	-0.115
236	-0.086
236	-0.058
237	-0.032
237	-0.01
238	0.011
238	0.029
239	0.047
239	0.062
240	0.075
240	0.087
241	0.098
241	0.107
242	0.116
242	0.123
243	0.13
243	0.136
243	0.141
244	0.146
244	0.151
245	0.154
245	0.158
246	0.162
246	0.165
247	0.168
247	0.171
248	0.173
248	0.176
249	0.179
249	0.181
250	0.183
250	0.185
250	0.187
251	0.188
251	0.19
252	0.192
252	0.193
253	0.194
253	0.196
254	0.197
254	0.198
255	0.199
255	0.2
256	0.201
256	0.201
257	0.202
257	0.203
258	0.203
258	0.203
258	0.203
259	0.203
259	0.203
260	0.203
260	0.203
261	0.203
261	0.203
262	0.202
262	0.201
263	0.201
263	0.2
264	0.2
264	0.199
265	0.198
265	0.197
265	0.196
266	0.195
266	0.194
267	0.193
267	0.191
268	0.19
268	0.189
269	0.187
269	0.186
270	0.184
270	0.183
271	0.181
271	0.179
272	0.177
272	0.176
272	0.174
273	0.173
273	0.171
274	0.17
274	0.168
275	0.167
275	0.165
276	0.164
276	0.163
277	0.161
277	0.16
278	0.158
278	0.157
278	0.155
279	0.152
279	0.149
280	0.147
280	0.145
281	0.143
281	0.141
282	0.139
282	0.137
283	0.135
283	0.134
284	0.133
284	0.132
285	0.131
285	0.13
285	0.129
286	0.128
286	0.127
287	0.126
287	0.125
288	0.124
288	0.122
289	0.121
289	0.12
290	0.119
290	0.119
291	0.118
291	0.117
292	0.116
292	0.115
292	0.114
293	0.114
293	0.113
294	0.113
294	0.112
295	0.112
295	0.111
296	0.111
296	0.11
297	0.11
297	0.11
298	0.109
298	0.109
298	0.109
299	0.108
299	0.108
300	0.108
300	0.108
301	0.107
301	0.107
302	0.107
302	0.106
303	0.106
303	0.106
304	0.106
304	0.106
305	0.106
305	0.106
305	0.106
306	0.106
306	0.106
307	0.105
307	0.105
308	0.105
308	0.105
309	0.105
309	0.105
310	0.104
310	0.104
311	0.104
311	0.104
311	0.104
312	0.103
312	0.103
313	0.103
313	0.103
314	0.103
314	0.102
315	0.102
315	0.102
316	0.102
316	0.101
317	0.101
317	0.101
318	0.1
318	0.1
318	0.1
319	0.099
319	0.099
320	0.099
320	0.099
321	0.099
321	0.098
322	0.098
322	0.098
323	0.097
323	0.097
324	0.097
324	0.097
324	0.096
325	0.096
325	0.096
326	0.096
326	0.095
327	0.095
327	0.094
328	0.094
328	0.094
329	0.094
329	0.093
330	0.093
330	0.092
330	0.092
331	0.091
331	0.091
332	0.091
332	0.09
333	0.09
333	0.09
334	0.089
334	0.089
335	0.089
335	0.088
336	0.088
336	0.088
336	0.087
337	0.087
337	0.087
338	0.087
338	0.086
339	0.086
339	0.086
340	0.085
340	0.085
341	0.085
341	0.085
342	0.084
342	0.084
342	0.084
343	0.084
343	0.083
344	0.083
344	0.083
345	0.082
345	0.082
346	0.082
346	0.081
347	0.081
347	0.081
348	0.08
348	0.08
348	0.08
349	0.079
349	0.079
350	0.079
350	0.078
351	0.078
351	0.078
352	0.078
352	0.078
353	0.077
353	0.077
354	0.077
354	0.076
354	0.076
355	0.076
355	0.076
356	0.075
356	0.075
357	0.075
357	0.074
358	0.074
358	0.074
359	0.074
359	0.074
360	0.074
360	0.074
360	0.074
361	0.074
361	0.074
362	0.075
362	0.075
363	0.074
363	0.074
364	0.074
364	0.074
365	0.074
365	0.074
366	0.074
366	0.074
366	0.074
367	0.074
367	0.074
368	0.074
368	0.074
369	0.074
369	0.074
370	0.073
370	0.074
371	0.073
371	0.074
372	0.074
372	0.074
372	0.074
373	0.074
373	0.074
374	0.074
374	0.074
375	0.074
375	0.074
376	0.074
376	0.074
377	0.074
377	0.074
378	0.075
378	0.075
378	0.075
379	0.075
379	0.075
380	0.075
380	0.075
381	0.075
381	0.075
382	0.075
382	0.075
383	0.075
383	0.075
383	0.074
384	0.074
384	0.074
385	0.074
385	0.074
386	0.074
386	0.074
387	0.074
387	0.074
388	0.074
388	0.074
389	0.074
389	0.074
389	0.075
390	0.075
390	0.075
391	0.075
391	0.075
392	0.075
392	0.075
393	0.075
393	0.075
394	0.075
394	0.075
394	0.075
395	0.075
395	0.075
396	0.075
396	0.075
397	0.075
397	0.075
398	0.076
398	0.076
399	0.076
399	0.076
400	0.076
400	0.075
400	0.075
401	0.075
401	0.074
402	0.074
402	0.074
403	0.074
403	0.074
404	0.074
404	0.074
405	0.074
405	0.074
405	0.074
406	0.074
406	0.074
407	0.074
407	0.073
408	0.073
408	0.073
409	0.073
409	0.073
410	0.073
410	0.073
411	0.073
411	0.073
411	0.073
412	0.073
412	0.073
413	0.073
413	0.073
414	0.072
414	0.073
415	0.072
415	0.072
416	0.072
416	0.072
416	0.072
417	0.071
417	0.071
418	0.072
418	0.072
419	0.072
419	0.073
420	0.073
420	0.074
421	0.074
421	0.074
421	0.074
422	0.075
422	0.075
423	0.075
423	0.075
424	0.074
424	0.074
425	0.074
425	0.074
426	0.074
426	0.074
427	0.074
427	0.074
427	0.074
428	0.074
428	0.074
429	0.074
429	0.074
430	0.074
430	0.074
431	0.073
431	0.073
432	0.073
432	0.072
432	0.072
433	0.072
433	0.072
434	0.071
434	0.072
435	0.072
435	0.072
436	0.072
436	0.072
437	0.072
437	0.072
437	0.072
438	0.072
438	0.072
439	0.072
439	0.071
440	0.071
440	0.071
441	0.071
441	0.071
442	0.071
442	0.071
442	0.071
443	0.071
443	0.071
444	0.071
444	0.071
445	0.072
445	0.072
446	0.072
446	0.071
447	0.071
447	0.071
447	0.071
448	0.071
448	0.071
449	0.071
449	0.071
450	0.071
450	0.071
451	0.071
451	0.071
452	0.071
452	0.071
452	0.071
453	0.071
453	0.071
454	0.071
454	0.071
455	0.071
455	0.071
456	0.071
456	0.07
457	0.07
457	0.07
458	0.07
458	0.07
458	0.07
459	0.07
459	0.069
460	0.068
460	0.068
461	0.067
461	0.067
462	0.067
462	0.068
463	0.068
463	0.068
463	0.069
464	0.068
464	0.068
465	0.068
465	0.068
466	0.068
466	0.068
467	0.068
467	0.068
467	0.068
468	0.067
468	0.066
469	0.065
469	0.065
470	0.065
470	0.065
471	0.065
471	0.064
472	0.064
472	0.064
472	0.065
473	0.065
473	0.065
474	0.066
474	0.066
475	0.066
475	0.066
476	0.066
476	0.067
477	0.066
477	0.066
477	0.066
478	0.066
478	0.066
479	0.066
479	0.066
480	0.066
480	0.066
481	0.066
481	0.066
482	0.067
482	0.067
482	0.068
483	0.069
483	0.071
484	0.072
484	0.071
485	0.071
485	0.071
486	0.071
486	0.071
487	0.071
487	0.071
487	0.071
488	0.07
488	0.069
489	0.068
489	0.069
490	0.07
490	0.07
491	0.07
491	0.07
492	0.071
492	0.07
492	0.07
493	0.07
493	0.071
494	0.072
494	0.072
495	0.073
495	0.073
496	0.074
496	0.074
496	0.075
497	0.076
497	0.076
498	0.077
498	0.077
499	0.076
499	0.077
500	0.077
500	0.078
501	0.078
501	0.078
501	0.078
502	0.079
502	0.079
503	0.08
503	0.08
504	0.08
504	0.08
505	0.08
505	0.08
506	0.08
506	0.08
506	0.08
507	0.08
507	0.08
508	0.081
508	0.081
509	0.081
509	0.082
510	0.083
510	0.083
511	0.084
511	0.084
511	0.084
512	0.084
512	0.084
513	0.084
513	0.084
514	0.084
514	0.084
515	0.084
515	0.084
515	0.083
516	0.083
516	0.084
517	0.084
517	0.084
518	0.084
518	0.084
519	0.084
519	0.084
520	0.083
520	0.083
520	0.083
521	0.082
521	0.081
522	0.08
522	0.08
523	0.08
523	0.08
524	0.08
524	0.08
524	0.08
525	0.081
525	0.082
526	0.083
526	0.083
527	0.084
527	0.085
528	0.086
528	0.086
529	0.087
529	0.087
529	0.088
530	0.088
530	0.089
531	0.089
531	0.09
532	0.09
532	0.091
533	0.091
533	0.091
533	0.091
534	0.091
534	0.091
535	0.091
535	0.092
536	0.092
536	0.092
537	0.092
537	0.092
538	0.092
538	0.092
538	0.092
539	0.093
539	0.093
540	0.093
540	0.093
541	0.092
541	0.092
542	0.092
542	0.092
542	0.092
543	0.092
543	0.092
544	0.092
544	0.093
545	0.094
545	0.095
546	0.096
546	0.096
547	0.095
547	0.094
547	0.094
548	0.094
548	0.094
549	0.094
549	0.094
550	0.094
550	0.094
551	0.093
551	0.094
551	0.094
552	0.095
552	0.096
553	0.096
553	0.097
554	0.097
554	0.097
555	0.096
555	0.095
556	0.095
556	0.094
556	0.094
557	0.094
557	0.094
558	0.093
558	0.093
559	0.093
559	0.094
560	0.094
560	0.094
560	0.094
561	0.095
561	0.096
562	0.096
562	0.095
563	0.094
563	0.093
564	0.093
564	0.092
564	0.092
565	0.092
565	0.092
566	0.092
566	0.092
567	0.093
567	0.094
568	0.095
568	0.096
568	0.097
569	0.099
569	0.1
570	0.1
570	0.099
571	0.1
571	0.1
572	0.1
572	0.1
573	0.1
573	0.099
573	0.098
574	0.098
574	0.099
575	0.099
575	0.101
576	0.102
576	0.101
577	0.1
577	0.1
577	0.1
578	0.101
578	0.101
579	0.103
579	0.105
580	0.103
580	0.1
581	0.097
581	0.096
581	0.097
582	0.097
582	0.098
583	0.099
583	0.098
584	0.094
584	0.091
585	0.091
585	0.092
585	0.093
586	0.093
586	0.093
587	0.091
587	0.089
588	0.087
588	0.086
589	0.087
589	0.088
590	0.088
590	0.089
590	0.091
591	0.093
591	0.092
592	0.092
592	0.091
593	0.091
593	0.091
594	0.09
594	0.088
594	0.087
595	0.087
595	0.085
596	0.084
596	0.085
597	0.088
597	0.089
598	0.089
598	0.09
598	0.091
599	0.091
599	0.091
600	0.09
600	0.089
601	0.088
601	0.088
602	0.086
602	0.086
602	0.085
603	0.085
603	0.087
604	0.088
604	0.089
605	0.091
605	0.093
606	0.093
606	0.092
606	0.091
607	0.091
607	0.09
608	0.09
608	0.087
609	0.086
609	0.086
610	0.084
610	0.082
610	0.082
611	0.084
611	0.085
612	0.086
612	0.087
613	0.088
613	0.089
614	0.088
614	0.087
614	0.086
615	0.085
615	0.084
616	0.083
616	0.082
617	0.081
617	0.079
618	0.078
618	0.077
618	0.076
619	0.077
619	0.078
620	0.08
620	0.08
621	0.08
621	0.08
622	0.08
622	0.08
622	0.079
623	0.079
623	0.079
624	0.079
624	0.078
625	0.076
625	0.076
626	0.075
626	0.075
626	0.075
627	0.076
627	0.075
628	0.075
628	0.075
629	0.075
629	0.074
630	0.074
630	0.073
630	0.073
631	0.074
631	0.074
632	0.074
632	0.074
633	0.074
633	0.075
634	0.076
634	0.077
634	0.078
635	0.078
635	0.078
636	0.078
636	0.078
637	0.078
637	0.077
638	0.078
638	0.078
638	0.078
639	0.078
639	0.078
640	0.079
640	0.079
641	0.08
641	0.081
642	0.081
642	0.082
642	0.082
643	0.082
643	0.083
644	0.083
644	0.084
645	0.084
645	0.085
646	0.086
646	0.087
646	0.088
647	0.09
647	0.091
648	0.092
648	0.093
649	0.094
649	0.096
650	0.097
650	0.098
650	0.099
651	0.099
651	0.1
652	0.1
652	0.101
653	0.103
653	0.11
653	0.126
654	0.103
654	0.085
655	0.081
655	0.081
656	0.082
656	0.083
657	0.083
657	0.083
657	0.083
658	0.079
658	0.065
659	0.082
659	0.105
660	0.115
660	0.116
661	0.117
661	0.118
661	0.12
662	0.122
662	0.125
663	0.127
663	0.128
664	0.129
664	0.13
665	0.131
665	0.133
665	0.133
666	0.134
666	0.135
667	0.135
667	0.135
668	0.136
668	0.137
669	0.139
669	0.14
669	0.143
670	0.146
670	0.147
671	0.148
671	0.149
672	0.15
672	0.151
672	0.152
673	0.153
673	0.154
674	0.155
674	0.155
675	0.155
675	0.156
676	0.158
676	0.159
676	0.16
677	0.161
677	0.162
678	0.163
678	0.163
679	0.163
679	0.164
680	0.166
680	0.166
680	0.166
681	0.167
681	0.168
682	0.168
682	0.168
683	0.169
683	0.171
684	0.171
684	0.171
684	0.17
685	0.171
685	0.172
686	0.172
686	0.172
687	0.172
687	0.173
687	0.173
688	0.173
688	0.173
689	0.175
689	0.176
690	0.175
690	0.174
691	0.174
691	0.173
691	0.173
692	0.172
692	0.171
693	0.171
693	0.172
694	0.17
694	0.169
695	0.171
695	0.173
695	0.172
696	0.171
696	0.171
697	0.17
697	0.17
698	0.169
698	0.168
698	0.167
699	0.167
699	0.166
700	0.164
700	0.164
701	0.165
701	0.165
702	0.165
702	0.165
702	0.164
703	0.164
703	0.163
704	0.162
704	0.163
705	0.163
705	0.162
705	0.161
706	0.161
706	0.161
707	0.16
707	0.159
708	0.158
708	0.158
709	0.157
709	0.156
709	0.154
710	0.152
710	0.151
711	0.151
711	0.151
712	0.15
712	0.15
713	0.149
713	0.148
713	0.147
714	0.145
714	0.144
715	0.144
715	0.143
716	0.142
716	0.141
716	0.141
717	0.14
717	0.14
718	0.139
718	0.138
719	0.139
719	0.139
720	0.138
720	0.137
720	0.136
721	0.134
721	0.134
722	0.133
722	0.132
723	0.131
723	0.131
723	0.13
724	0.129
724	0.128
725	0.127
725	0.126
726	0.126
726	0.125
727	0.125
727	0.124
727	0.123
728	0.122
728	0.121
729	0.123
729	0.123
730	0.122
730	0.122
730	0.122
731	0.121
731	0.121
732	0.121
732	0.12
733	0.119
733	0.118
734	0.117
734	0.115
734	0.115
735	0.115
735	0.113
736	0.112
736	0.112
737	0.111
737	0.112
737	0.111
738	0.109
738	0.107
739	0.106
739	0.105
740	0.103
740	0.102
741	0.102
741	0.099
741	0.097
742	0.094
742	0.093
743	0.094
743	0.093
744	0.093
744	0.093
744	0.092
745	0.092
745	0.091
746	0.09
746	0.09
747	0.09
747	0.09
748	0.09
748	0.09
748	0.088
749	0.087
749	0.087
750	0.086
750	0.086
751	0.086
751	0.086
751	0.086
752	0.085
752	0.084
753	0.084
753	0.084
754	0.084
754	0.084
754	0.085
755	0.085
755	0.086
756	0.085
756	0.083
757	0.083
757	0.083
758	0.082
758	0.081
758	0.08
759	0.079
759	0.077
760	0.074
760	0.072
761	0.07
761	0.07
761	0.069
762	0.067
762	0.067
763	0.067
763	0.065
764	0.063
764	0.062
764	0.061
765	0.059
765	0.058
766	0.057
766	0.057
767	0.056
767	0.053
768	0.05
768	0.049
768	0.048
769	0.047
769	0.047
770	0.046
770	0.044
771	0.042
771	0.039
771	0.037
772	0.036
772	0.034
773	0.031
773	0.029
774	0.026
774	0.023
775	0.02
775	0.017
775	0.014
776	0.011
776	0.008
777	0.005
777	0.002
778	-0.001
778	-0.004
778	-0.007
779	-0.009
779	-0.011
780	-0.015
780	-0.019
781	-0.023
781	-0.028
781	-0.033
782	-0.039
782	-0.046
783	-0.052
783	-0.058
784	-0.066
784	-0.074
784	-0.081
785	-0.089
785	-0.097
786	-0.104
786	-0.109
787	-0.112
787	-0.115
788	-0.122
788	-0.129
788	-0.135
789	-0.142
789	-0.145
790	-0.146
790	-0.148
791	-0.15
791	-0.152
791	-0.155
792	-0.15
792	-0.139
793	-0.133
793	-0.129
794	-0.127
794	-0.13
794	-0.134
795	-0.136
795	-0.136
796	-0.137
796	-0.14
797	-0.149
797	-0.16
797	-0.166
798	-0.172
798	-0.174
799	-0.175
799	-0.174
800	-0.173
800	-0.175
801	-0.178
801	-0.178
801	-0.179
802	-0.18
802	-0.181
803	-0.182
803	-0.183
804	-0.182
804	-0.176
804	-0.17
805	-0.166
805	-0.164
806	-0.162
806	-0.161
807	-0.16
807	-0.159
807	-0.159
808	-0.159
808	-0.16
809	-0.165
809	-0.171
810	-0.175
810	-0.178
810	-0.181
811	-0.185
811	-0.185
812	-0.181
812	-0.178
813	-0.178
813	-0.179
813	-0.179
814	-0.18
814	-0.179
815	-0.176
815	-0.172
816	-0.168
816	-0.164
817	-0.162
817	-0.159
817	-0.151
818	-0.142
818	-0.13
819	-0.118
819	-0.107
820	-0.098
820	-0.088
820	-0.078
821	-0.068
821	-0.06
822	-0.052
822	-0.045
823	-0.04
823	-0.036
823	-0.032
824	-0.028
824	-0.023
825	-0.019
825	-0.014
826	-0.011
826	-0.009
826	-0.007
827	-0.005
827	-0.003
828	-0.001
828	0.001
829	0.003
829	0.005
829	0.005
830	0.006
830	0.007
831	0.01
831	0.012
832	0.013
832	0.014
832	0.015
833	0.017
833	0.018
834	0.019
834	0.021
835	0.022
835	0.024
835	0.025
836	0.026
836	0.027
837	0.028
837	0.029
838	0.029
838	0.03
839	0.031
839	0.031
839	0.031
840	0.031
840	0.031
841	0.032
841	0.032
842	0.033
842	0.034
842	0.035
843	0.036
843	0.036
844	0.037
844	0.037
845	0.038
845	0.038
845	0.039
846	0.038
846	0.038
847	0.038
847	0.037
848	0.037
848	0.036
848	0.036
849	0.035
849	0.035
850	0.034
850	0.033
851	0.033
851	0.033
851	0.033
852	0.032
852	0.033
853	0.033
853	0.033
854	0.033
854	0.033
854	0.033
855	0.033
855	0.033
856	0.033
856	0.032
857	0.032
857	0.032
857	0.032
858	0.032
858	0.031
859	0.031
859	0.03
860	0.03
860	0.03
860	0.03
861	0.029
861	0.029
862	0.028
862	0.027
863	0.027
863	0.026
863	0.026
864	0.026
864	0.026
865	0.027
865	0.027
866	0.028
866	0.028
866	0.03
867	0.031
867	0.032
868	0.033
868	0.035
869	0.036
869	0.037
869	0.037
870	0.038
870	0.038
871	0.038
871	0.038
872	0.037
872	0.036
872	0.035
873	0.034
873	0.033
874	0.032
874	0.032
875	0.032
875	0.032
875	0.033
876	0.033
876	0.033
877	0.034
877	0.034
878	0.035
878	0.035
878	0.035
879	0.034
879	0.033
880	0.032
880	0.031
881	0.03
881	0.029
881	0.029
882	0.027
882	0.026
883	0.025
883	0.025
884	0.024
884	0.024
884	0.024
885	0.024
885	0.024
886	0.024
886	0.025
887	0.026
887	0.026
887	0.027
888	0.028
888	0.029
889	0.029
889	0.03
890	0.031
890	0.031
890	0.031
891	0.031
891	0.031
892	0.03
892	0.03
893	0.029
893	0.029
893	0.029
894	0.028
894	0.027
895	0.026
895	0.025
895	0.024
896	0.023
896	0.022
897	0.021
897	0.021
898	0.021
898	0.02
898	0.02
899	0.021
899	0.022
900	0.022
900	0.024
901	0.025
901	0.027
901	0.028
902	0.029
902	0.03
903	0.03
903	0.031
904	0.031
904	0.032
904	0.032
905	0.032
905	0.033
906	0.033
906	0.033
907	0.033
907	0.033
907	0.032
908	0.032
908	0.031
909	0.031
909	0.03
910	0.03
910	0.029
910	0.029
911	0.029
911	0.029
912	0.029
912	0.03
913	0.03
913	0.031
913	0.031
914	0.031
914	0.031
915	0.031
915	0.031
916	0.03
916	0.029
916	0.028
917	0.027
917	0.026
918	0.025
918	0.025
918	0.024
919	0.024
919	0.024
920	0.025
920	0.025
921	0.026
921	0.026
921	0.027
922	0.028
922	0.028
923	0.029
923	0.03
924	0.03
924	0.03
924	0.03
925	0.029
925	0.029
926	0.028
926	0.027
927	0.026
927	0.025
927	0.024
928	0.023
928	0.022
929	0.022
929	0.021
930	0.021
930	0.02
930	0.02
931	0.02
931	0.02
932	0.02
932	0.02
933	0.02
933	0.02
933	0.02
934	0.019
934	0.019
935	0.018
935	0.017
935	0.016
936	0.015
936	0.014
937	0.013
937	0.012
938	0.011
938	0.011
938	0.011
939	0.011
939	0.011
940	0.011
940	0.011
941	0.012
941	0.012
941	0.013
942	0.014
942	0.015
943	0.015
943	0.016
944	0.016
944	0.016
944	0.016
945	0.017
945	0.017
946	0.017
946	0.017
946	0.016
947	0.016
947	0.016
948	0.015
948	0.015
949	0.015
949	0.015
949	0.015
950	0.015
950	0.015
951	0.015
951	0.014
952	0.014
952	0.014
952	0.015
953	0.015
953	0.014
954	0.014
954	0.013
955	0.012
955	0.011
955	0.011
956	0.011
956	0.011
957	0.011
957	0.01
957	0.01
958	0.009
958	0.009
959	0.009
959	0.009
960	0.009
960	0.008
960	0.007
961	0.007
961	0.006
962	0.006
962	0.005
963	0.005
963	0.004
963	0.005
964	0.005
964	0.005
965	0.006
965	0.007
966	0.008
966	0.009
966	0.01
967	0.01
967	0.011
968	0.011
968	0.01
968	0.01
969	0.01
969	0.009
970	0.008
970	0.007
971	0.005
971	0.004
971	0.003
972	0.002
972	0.002
973	0.001
973	0.001
974	0
974	0
974	0
975	0
975	0
976	0.001
976	0.001
976	0
977	-0.001
977	-0.002
978	-0.003
978	-0.004
979	-0.005
979	-0.005
979	-0.006
980	-0.007
980	-0.008
981	-0.008
981	-0.008
982	-0.008
982	-0.008
982	-0.008
983	-0.008
983	-0.007
984	-0.007
984	-0.007
984	-0.007
985	-0.006
985	-0.006
986	-0.006
986	-0.006
987	-0.006
987	-0.005
987	-0.004
988	-0.003
988	-0.002
989	-0.001
989	-0
990	0.001
990	0.002
990	0.004
991	0.006
991	0.008
992	0.009
992	0.01
992	0.011
993	0.012
993	0.013
994	0.013
994	0.013
995	0.013
995	0.013
995	0.012
996	0.011
996	0.01
997	0.009
997	0.008
997	0.007
998	0.007
998	0.006
999	0.006
999	0.005
1000	0.005
1000	0.005
1000	0.005
1001	0.005
1001	0.005
1002	0.005
1002	0.005
1003	0.005
1003	0.005
1003	0.004
1004	0.004
1004	0.004
1005	0.003
1005	0.002
1005	0.002
1006	0.001
1006	-0
1007	-0.001
1007	-0.002
1008	-0.003
1008	-0.003
1008	-0.004
1009	-0.004
1009	-0.004
1010	-0.004
1010	-0.004
1010	-0.004
1011	-0.004
1011	-0.004
1012	-0.005
1012	-0.005
1013	-0.005
1013	-0.006
1013	-0.007
1014	-0.008
1014	-0.009
1015	-0.01
1015	-0.01
1016	-0.011
1016	-0.012
1016	-0.012
1017	-0.013
1017	-0.013
1018	-0.013
1018	-0.013
1018	-0.012
1019	-0.012
1019	-0.012
1020	-0.012
1020	-0.012
1021	-0.012
1021	-0.011
1021	-0.011
1022	-0.011
1022	-0.011
1023	-0.011
1023	-0.012
1023	-0.012
1024	-0.013
1024	-0.014
1025	-0.015
1025	-0.016
1026	-0.017
1026	-0.018
1026	-0.018
1027	-0.019
1027	-0.019
1028	-0.02
1028	-0.019
1028	-0.019
1029	-0.019
1029	-0.019
1030	-0.018
1030	-0.018
1031	-0.017
1031	-0.017
1031	-0.017
1032	-0.016
1032	-0.016
1033	-0.016
1033	-0.016
1033	-0.017
1034	-0.017
1034	-0.018
1035	-0.019
1035	-0.02
1036	-0.021
1036	-0.022
1036	-0.022
1037	-0.022
1037	-0.023
1038	-0.023
1038	-0.023
1039	-0.022
1039	-0.022
1039	-0.021
1040	-0.021
1040	-0.02
1041	-0.02
1041	-0.02
1041	-0.019
1042	-0.02
1042	-0.02
1043	-0.02
1043	-0.02
1044	-0.021
1044	-0.021
1044	-0.021
1045	-0.022
1045	-0.022
1046	-0.023
1046	-0.024
1046	-0.024
1047	-0.024
1047	-0.023
1048	-0.023
1048	-0.023
1049	-0.023
1049	-0.024
1049	-0.024
1050	-0.025
1050	-0.025
1051	-0.026
1051	-0.026
1051	-0.026
1052	-0.027
1052	-0.028
1053	-0.029
1053	-0.029
1053	-0.03
1054	-0.03
1054	-0.029
1055	-0.029
1055	-0.029
1056	-0.03
1056	-0.031
1056	-0.032
1057	-0.033
1057	-0.034
1058	-0.034
1058	-0.035
1058	-0.036
1059	-0.037
1059	-0.038
1060	-0.039
1060	-0.038
1061	-0.038
1061	-0.037
1061	-0.037
1062	-0.037
1062	-0.037
1063	-0.036
1063	-0.036
1063	-0.035
1064	-0.035
1064	-0.034
1065	-0.033
1065	-0.033
1066	-0.032
1066	-0.032
1066	-0.031
1067	-0.031
1067	-0.03
1068	-0.03
1068	-0.03
1068	-0.029
1069	-0.03
1069	-0.03
1070	-0.031
1070	-0.031
1071	-0.031
1071	-0.031
1071	-0.032
1072	-0.033
1072	-0.033
1073	-0.033
1073	-0.033
1073	-0.034
1074	-0.033
1074	-0.033
1075	-0.034
1075	-0.034
1076	-0.034
1076	-0.034
1076	-0.035
1077	-0.035
1077	-0.035
1078	-0.036
1078	-0.036
1078	-0.036
1079	-0.036
1079	-0.035
1080	-0.035
1080	-0.034
1080	-0.034
1081	-0.034
1081	-0.033
1082	-0.032
1082	-0.032
1083	-0.032
1083	-0.032
1083	-0.032
1084	-0.031
1084	-0.031
1085	-0.03
1085	-0.029
1085	-0.028
1086	-0.028
1086	-0.028
1087	-0.027
1087	-0.026
1088	-0.027
1088	-0.027
1088	-0.027
1089	-0.028
1089	-0.028
1090	-0.029
1090	-0.029
1090	-0.029
1091	-0.028
1091	-0.027
1092	-0.027
1092	-0.025
1092	-0.023
1093	-0.021
1093	-0.019
1094	-0.017
1094	-0.015
1095	-0.015
1095	-0.014
1095	-0.011
1096	-0.01
1096	-0.008
1097	-0.007
1097	-0.006
1097	-0.004
1098	-0.004
1098	-0.003
1099	-0.001
1099	0.001
1100	0.003
1100	0.005
1100	0.006
1101	0.008
1101	0.01
1102	0.014
1102	0.017
1102	0.021
1103	0.025
1103	0.03
1104	0.035
1104	0.042
1104	0.049
1105	0.056
1105	0.062
1106	0.067
1106	0.075
1107	0.08
1107	0.091
1107	0.104
1108	0.153
1108	0.221
1109	0.321
1109	0.506
1109	0.681
1110	1.285
1110	-0
1111	-0
1111	-0
