Data from 15c-2a-fridge-noshake_Absorbance__128__06365.txt Node

Date: Wed Jan 17 18:41:38 CET 2024
User: Marek
Spectrometer: MAYP115816
Trigger mode: 0
Integration Time (sec): 2.000000E-1
Scans to average: 10
Electric dark correction enabled: true
Nonlinearity correction enabled: true
Boxcar width: 5
XAxis mode: Wavelengths
Number of Pixels in Spectrum: 2068
>>>>>Begin Spectral Data<<<<<
199	-1.666
199	-1.528
200	-1.37
200	-1.247
201	-1.172
201	-1.125
202	-1.055
202	-1.004
203	-0.959
203	-0.92
204	-0.896
204	-0.872
205	-0.849
205	-0.839
205	-0.838
206	-0.837
206	-0.833
207	-0.831
207	-0.828
208	-0.826
208	-0.826
209	-0.821
209	-0.82
210	-0.819
210	-0.82
211	-0.817
211	-0.817
212	-0.818
212	-0.817
213	-0.816
213	-0.815
213	-0.814
214	-0.813
214	-0.813
215	-0.812
215	-0.811
216	-0.812
216	-0.81
217	-0.805
217	-0.804
218	-0.803
218	-0.8
219	-0.798
219	-0.797
220	-0.794
220	-0.792
221	-0.787
221	-0.784
221	-0.779
222	-0.777
222	-0.772
223	-0.767
223	-0.763
224	-0.759
224	-0.751
225	-0.743
225	-0.737
226	-0.728
226	-0.715
227	-0.703
227	-0.69
228	-0.675
228	-0.659
229	-0.638
229	-0.615
229	-0.59
230	-0.562
230	-0.532
231	-0.499
231	-0.465
232	-0.432
232	-0.394
233	-0.355
233	-0.315
234	-0.277
234	-0.239
235	-0.203
235	-0.168
236	-0.135
236	-0.104
236	-0.076
237	-0.049
237	-0.025
238	-0.003
238	0.017
239	0.036
239	0.052
240	0.066
240	0.079
241	0.091
241	0.101
242	0.11
242	0.119
243	0.126
243	0.133
243	0.138
244	0.144
244	0.149
245	0.153
245	0.158
246	0.162
246	0.165
247	0.168
247	0.172
248	0.174
248	0.177
249	0.18
249	0.182
250	0.184
250	0.186
250	0.188
251	0.19
251	0.192
252	0.193
252	0.195
253	0.197
253	0.198
254	0.199
254	0.2
255	0.201
255	0.202
256	0.203
256	0.204
257	0.205
257	0.205
258	0.205
258	0.206
258	0.206
259	0.207
259	0.206
260	0.206
260	0.206
261	0.206
261	0.206
262	0.206
262	0.205
263	0.205
263	0.204
264	0.203
264	0.203
265	0.202
265	0.201
265	0.2
266	0.199
266	0.198
267	0.197
267	0.196
268	0.194
268	0.193
269	0.192
269	0.19
270	0.189
270	0.188
271	0.186
271	0.184
272	0.183
272	0.181
272	0.18
273	0.178
273	0.176
274	0.175
274	0.173
275	0.172
275	0.17
276	0.169
276	0.168
277	0.166
277	0.165
278	0.164
278	0.162
278	0.16
279	0.157
279	0.155
280	0.153
280	0.151
281	0.149
281	0.147
282	0.145
282	0.143
283	0.142
283	0.14
284	0.14
284	0.139
285	0.138
285	0.137
285	0.136
286	0.135
286	0.134
287	0.133
287	0.132
288	0.131
288	0.13
289	0.129
289	0.128
290	0.127
290	0.126
291	0.125
291	0.125
292	0.124
292	0.123
292	0.122
293	0.122
293	0.121
294	0.12
294	0.12
295	0.119
295	0.119
296	0.119
296	0.118
297	0.118
297	0.118
298	0.117
298	0.117
298	0.117
299	0.117
299	0.117
300	0.116
300	0.116
301	0.116
301	0.116
302	0.115
302	0.115
303	0.115
303	0.115
304	0.115
304	0.115
305	0.115
305	0.115
305	0.114
306	0.114
306	0.114
307	0.114
307	0.114
308	0.114
308	0.113
309	0.113
309	0.113
310	0.113
310	0.113
311	0.113
311	0.113
311	0.112
312	0.112
312	0.112
313	0.112
313	0.112
314	0.111
314	0.111
315	0.111
315	0.111
316	0.11
316	0.11
317	0.11
317	0.11
318	0.11
318	0.11
318	0.109
319	0.109
319	0.109
320	0.109
320	0.108
321	0.108
321	0.107
322	0.107
322	0.107
323	0.106
323	0.106
324	0.106
324	0.105
324	0.105
325	0.105
325	0.105
326	0.104
326	0.104
327	0.104
327	0.104
328	0.103
328	0.103
329	0.103
329	0.102
330	0.102
330	0.102
330	0.101
331	0.101
331	0.101
332	0.1
332	0.1
333	0.1
333	0.099
334	0.099
334	0.099
335	0.098
335	0.098
336	0.097
336	0.097
336	0.097
337	0.097
337	0.096
338	0.096
338	0.096
339	0.095
339	0.095
340	0.095
340	0.094
341	0.094
341	0.094
342	0.093
342	0.093
342	0.093
343	0.092
343	0.092
344	0.092
344	0.091
345	0.091
345	0.091
346	0.091
346	0.09
347	0.09
347	0.09
348	0.089
348	0.089
348	0.089
349	0.089
349	0.088
350	0.088
350	0.088
351	0.087
351	0.087
352	0.087
352	0.086
353	0.086
353	0.086
354	0.085
354	0.085
354	0.085
355	0.084
355	0.084
356	0.083
356	0.083
357	0.083
357	0.082
358	0.082
358	0.082
359	0.082
359	0.082
360	0.082
360	0.082
360	0.083
361	0.083
361	0.083
362	0.083
362	0.083
363	0.083
363	0.083
364	0.083
364	0.083
365	0.083
365	0.082
366	0.082
366	0.082
366	0.082
367	0.082
367	0.082
368	0.082
368	0.082
369	0.082
369	0.082
370	0.082
370	0.082
371	0.082
371	0.082
372	0.082
372	0.082
372	0.082
373	0.082
373	0.082
374	0.082
374	0.082
375	0.082
375	0.082
376	0.082
376	0.083
377	0.083
377	0.083
378	0.083
378	0.083
378	0.083
379	0.083
379	0.083
380	0.083
380	0.083
381	0.084
381	0.083
382	0.083
382	0.083
383	0.083
383	0.083
383	0.083
384	0.083
384	0.083
385	0.083
385	0.083
386	0.083
386	0.083
387	0.083
387	0.083
388	0.083
388	0.083
389	0.083
389	0.083
389	0.083
390	0.083
390	0.083
391	0.083
391	0.084
392	0.084
392	0.083
393	0.084
393	0.084
394	0.084
394	0.084
394	0.084
395	0.084
395	0.083
396	0.083
396	0.084
397	0.084
397	0.084
398	0.084
398	0.084
399	0.084
399	0.084
400	0.084
400	0.084
400	0.084
401	0.083
401	0.083
402	0.083
402	0.082
403	0.082
403	0.083
404	0.083
404	0.083
405	0.083
405	0.083
405	0.083
406	0.083
406	0.083
407	0.083
407	0.083
408	0.083
408	0.082
409	0.082
409	0.082
410	0.082
410	0.082
411	0.082
411	0.082
411	0.082
412	0.082
412	0.081
413	0.081
413	0.081
414	0.081
414	0.081
415	0.081
415	0.081
416	0.08
416	0.08
416	0.08
417	0.08
417	0.08
418	0.08
418	0.08
419	0.081
419	0.081
420	0.082
420	0.082
421	0.083
421	0.083
421	0.083
422	0.083
422	0.084
423	0.084
423	0.083
424	0.083
424	0.083
425	0.082
425	0.082
426	0.082
426	0.082
427	0.082
427	0.082
427	0.082
428	0.082
428	0.082
429	0.083
429	0.082
430	0.082
430	0.082
431	0.082
431	0.082
432	0.081
432	0.081
432	0.081
433	0.08
433	0.08
434	0.08
434	0.08
435	0.08
435	0.08
436	0.08
436	0.08
437	0.08
437	0.08
437	0.08
438	0.08
438	0.08
439	0.08
439	0.079
440	0.079
440	0.079
441	0.08
441	0.08
442	0.08
442	0.08
442	0.08
443	0.08
443	0.08
444	0.08
444	0.08
445	0.08
445	0.08
446	0.08
446	0.08
447	0.08
447	0.08
447	0.08
448	0.08
448	0.08
449	0.079
449	0.079
450	0.079
450	0.079
451	0.079
451	0.079
452	0.079
452	0.079
452	0.079
453	0.079
453	0.079
454	0.079
454	0.078
455	0.079
455	0.079
456	0.078
456	0.078
457	0.078
457	0.078
458	0.077
458	0.077
458	0.077
459	0.077
459	0.077
460	0.076
460	0.075
461	0.075
461	0.075
462	0.075
462	0.075
463	0.075
463	0.076
463	0.076
464	0.076
464	0.075
465	0.076
465	0.076
466	0.076
466	0.076
467	0.076
467	0.076
467	0.075
468	0.074
468	0.074
469	0.073
469	0.073
470	0.073
470	0.073
471	0.072
471	0.072
472	0.072
472	0.072
472	0.072
473	0.073
473	0.073
474	0.073
474	0.074
475	0.074
475	0.074
476	0.075
476	0.075
477	0.074
477	0.074
477	0.074
478	0.074
478	0.074
479	0.074
479	0.074
480	0.074
480	0.074
481	0.074
481	0.074
482	0.074
482	0.075
482	0.076
483	0.077
483	0.078
484	0.079
484	0.079
485	0.078
485	0.079
486	0.079
486	0.079
487	0.079
487	0.079
487	0.078
488	0.078
488	0.077
489	0.076
489	0.077
490	0.077
490	0.077
491	0.077
491	0.078
492	0.078
492	0.078
492	0.078
493	0.078
493	0.078
494	0.079
494	0.08
495	0.08
495	0.081
496	0.081
496	0.082
496	0.082
497	0.083
497	0.083
498	0.083
498	0.083
499	0.083
499	0.084
500	0.084
500	0.085
501	0.085
501	0.085
501	0.086
502	0.086
502	0.087
503	0.087
503	0.087
504	0.087
504	0.087
505	0.087
505	0.087
506	0.087
506	0.087
506	0.087
507	0.087
507	0.087
508	0.088
508	0.089
509	0.089
509	0.09
510	0.09
510	0.091
511	0.091
511	0.091
511	0.091
512	0.091
512	0.091
513	0.091
513	0.091
514	0.091
514	0.091
515	0.091
515	0.091
515	0.09
516	0.091
516	0.091
517	0.092
517	0.092
518	0.092
518	0.092
519	0.092
519	0.092
520	0.092
520	0.092
520	0.092
521	0.091
521	0.09
522	0.089
522	0.088
523	0.088
523	0.088
524	0.088
524	0.088
524	0.088
525	0.088
525	0.089
526	0.09
526	0.091
527	0.092
527	0.093
528	0.094
528	0.095
529	0.095
529	0.096
529	0.097
530	0.097
530	0.098
531	0.099
531	0.1
532	0.1
532	0.101
533	0.101
533	0.102
533	0.102
534	0.102
534	0.102
535	0.103
535	0.103
536	0.104
536	0.104
537	0.104
537	0.104
538	0.104
538	0.104
538	0.105
539	0.105
539	0.106
540	0.106
540	0.105
541	0.105
541	0.105
542	0.105
542	0.105
542	0.105
543	0.106
543	0.105
544	0.105
544	0.106
545	0.107
545	0.108
546	0.108
546	0.108
547	0.108
547	0.107
547	0.107
548	0.107
548	0.108
549	0.107
549	0.108
550	0.108
550	0.108
551	0.107
551	0.108
551	0.109
552	0.11
552	0.11
553	0.111
553	0.112
554	0.112
554	0.112
555	0.111
555	0.11
556	0.11
556	0.11
556	0.109
557	0.109
557	0.109
558	0.108
558	0.108
559	0.108
559	0.108
560	0.109
560	0.109
560	0.109
561	0.11
561	0.111
562	0.111
562	0.11
563	0.109
563	0.109
564	0.108
564	0.108
564	0.107
565	0.108
565	0.108
566	0.107
566	0.107
567	0.108
567	0.109
568	0.11
568	0.111
568	0.112
569	0.114
569	0.115
570	0.115
570	0.115
571	0.116
571	0.117
572	0.117
572	0.117
573	0.117
573	0.117
573	0.116
574	0.116
574	0.116
575	0.117
575	0.119
576	0.12
576	0.119
577	0.118
577	0.117
577	0.118
578	0.118
578	0.119
579	0.12
579	0.122
580	0.12
580	0.117
581	0.114
581	0.113
581	0.114
582	0.114
582	0.114
583	0.116
583	0.115
584	0.112
584	0.108
585	0.108
585	0.109
585	0.11
586	0.11
586	0.11
587	0.108
587	0.106
588	0.104
588	0.103
589	0.103
589	0.103
590	0.103
590	0.104
590	0.106
591	0.107
591	0.107
592	0.106
592	0.105
593	0.105
593	0.105
594	0.104
594	0.103
594	0.102
595	0.101
595	0.099
596	0.098
596	0.099
597	0.102
597	0.103
598	0.103
598	0.104
598	0.105
599	0.105
599	0.104
600	0.103
600	0.102
601	0.102
601	0.101
602	0.099
602	0.099
602	0.099
603	0.099
603	0.101
604	0.102
604	0.103
605	0.105
605	0.106
606	0.106
606	0.105
606	0.104
607	0.103
607	0.103
608	0.102
608	0.099
609	0.098
609	0.097
610	0.096
610	0.094
610	0.094
611	0.095
611	0.096
612	0.097
612	0.098
613	0.099
613	0.1
614	0.099
614	0.097
614	0.096
615	0.095
615	0.094
616	0.093
616	0.092
617	0.09
617	0.089
618	0.087
618	0.086
618	0.085
619	0.085
619	0.086
620	0.088
620	0.088
621	0.088
621	0.088
622	0.088
622	0.087
622	0.087
623	0.086
623	0.086
624	0.086
624	0.085
625	0.083
625	0.083
626	0.082
626	0.081
626	0.082
627	0.082
627	0.081
628	0.081
628	0.081
629	0.081
629	0.08
630	0.079
630	0.079
630	0.079
631	0.08
631	0.079
632	0.079
632	0.079
633	0.079
633	0.08
634	0.081
634	0.082
634	0.082
635	0.082
635	0.081
636	0.081
636	0.081
637	0.081
637	0.08
638	0.081
638	0.081
638	0.081
639	0.081
639	0.08
640	0.081
640	0.081
641	0.082
641	0.082
642	0.082
642	0.083
642	0.083
643	0.083
643	0.083
644	0.083
644	0.084
645	0.084
645	0.085
646	0.086
646	0.087
646	0.088
647	0.09
647	0.091
648	0.092
648	0.093
649	0.094
649	0.095
650	0.096
650	0.097
650	0.098
651	0.098
651	0.099
652	0.1
652	0.1
653	0.102
653	0.109
653	0.125
654	0.101
654	0.084
655	0.08
655	0.08
656	0.081
656	0.081
657	0.081
657	0.082
657	0.081
658	0.077
658	0.063
659	0.079
659	0.101
660	0.111
660	0.112
661	0.112
661	0.114
661	0.116
662	0.118
662	0.12
663	0.122
663	0.124
664	0.125
664	0.126
665	0.127
665	0.129
665	0.13
666	0.13
666	0.13
667	0.13
667	0.13
668	0.131
668	0.131
669	0.132
669	0.134
669	0.136
670	0.138
670	0.139
671	0.14
671	0.141
672	0.142
672	0.143
672	0.143
673	0.144
673	0.145
674	0.146
674	0.146
675	0.146
675	0.147
676	0.149
676	0.15
676	0.15
677	0.152
677	0.153
678	0.153
678	0.154
679	0.154
679	0.155
680	0.157
680	0.157
680	0.157
681	0.158
681	0.159
682	0.159
682	0.16
683	0.161
683	0.163
684	0.163
684	0.163
684	0.162
685	0.163
685	0.164
686	0.164
686	0.165
687	0.165
687	0.165
687	0.166
688	0.165
688	0.165
689	0.167
689	0.168
690	0.167
690	0.167
691	0.166
691	0.166
691	0.165
692	0.164
692	0.164
693	0.164
693	0.165
694	0.164
694	0.163
695	0.164
695	0.166
695	0.166
696	0.166
696	0.165
697	0.165
697	0.164
698	0.163
698	0.162
698	0.162
699	0.162
699	0.161
700	0.159
700	0.16
701	0.161
701	0.161
702	0.161
702	0.161
702	0.161
703	0.161
703	0.161
704	0.16
704	0.161
705	0.161
705	0.162
705	0.161
706	0.162
706	0.162
707	0.161
707	0.16
708	0.16
708	0.159
709	0.159
709	0.158
709	0.155
710	0.154
710	0.153
711	0.153
711	0.152
712	0.151
712	0.151
713	0.15
713	0.149
713	0.148
714	0.147
714	0.146
715	0.146
715	0.145
716	0.144
716	0.144
716	0.144
717	0.143
717	0.144
718	0.143
718	0.143
719	0.143
719	0.143
720	0.142
720	0.142
720	0.141
721	0.139
721	0.139
722	0.138
722	0.137
723	0.137
723	0.136
723	0.136
724	0.135
724	0.134
725	0.133
725	0.132
726	0.132
726	0.131
727	0.131
727	0.13
727	0.13
728	0.129
728	0.129
729	0.13
729	0.13
730	0.13
730	0.13
730	0.13
731	0.13
731	0.13
732	0.13
732	0.129
733	0.128
733	0.127
734	0.126
734	0.125
734	0.125
735	0.125
735	0.124
736	0.123
736	0.123
737	0.123
737	0.123
737	0.123
738	0.121
738	0.12
739	0.119
739	0.118
740	0.116
740	0.115
741	0.115
741	0.113
741	0.11
742	0.108
742	0.107
743	0.107
743	0.106
744	0.106
744	0.106
744	0.105
745	0.105
745	0.104
746	0.103
746	0.104
747	0.103
747	0.104
748	0.104
748	0.103
748	0.102
749	0.101
749	0.101
750	0.1
750	0.1
751	0.099
751	0.1
751	0.1
752	0.099
752	0.098
753	0.098
753	0.098
754	0.099
754	0.099
754	0.099
755	0.1
755	0.101
756	0.1
756	0.098
757	0.097
757	0.097
758	0.096
758	0.095
758	0.095
759	0.094
759	0.092
760	0.09
760	0.087
761	0.086
761	0.086
761	0.085
762	0.083
762	0.084
763	0.083
763	0.081
764	0.079
764	0.078
764	0.077
765	0.075
765	0.073
766	0.072
766	0.072
767	0.07
767	0.067
768	0.064
768	0.062
768	0.061
769	0.06
769	0.059
770	0.058
770	0.057
771	0.055
771	0.052
771	0.05
772	0.048
772	0.046
773	0.044
773	0.041
774	0.038
774	0.035
775	0.032
775	0.029
775	0.025
776	0.021
776	0.018
777	0.015
777	0.011
778	0.008
778	0.004
778	0.001
779	-0.001
779	-0.004
780	-0.008
780	-0.012
781	-0.017
781	-0.022
781	-0.029
782	-0.036
782	-0.043
783	-0.05
783	-0.057
784	-0.066
784	-0.074
784	-0.083
785	-0.091
785	-0.1
786	-0.108
786	-0.113
787	-0.116
787	-0.119
788	-0.126
788	-0.132
788	-0.138
789	-0.144
789	-0.147
790	-0.147
790	-0.148
791	-0.15
791	-0.152
791	-0.155
792	-0.149
792	-0.138
793	-0.132
793	-0.129
794	-0.127
794	-0.129
794	-0.133
795	-0.136
795	-0.136
796	-0.137
796	-0.14
797	-0.149
797	-0.16
797	-0.166
798	-0.171
798	-0.174
799	-0.174
799	-0.174
800	-0.173
800	-0.174
801	-0.177
801	-0.178
801	-0.178
802	-0.18
802	-0.181
803	-0.182
803	-0.182
804	-0.181
804	-0.176
804	-0.17
805	-0.166
805	-0.164
806	-0.162
806	-0.16
807	-0.159
807	-0.159
807	-0.159
808	-0.159
808	-0.16
809	-0.165
809	-0.171
810	-0.174
810	-0.177
810	-0.181
811	-0.184
811	-0.185
812	-0.181
812	-0.178
813	-0.178
813	-0.178
813	-0.179
814	-0.179
814	-0.179
815	-0.175
815	-0.172
816	-0.167
816	-0.163
817	-0.161
817	-0.157
817	-0.149
818	-0.139
818	-0.126
819	-0.113
819	-0.101
820	-0.091
820	-0.08
820	-0.07
821	-0.06
821	-0.051
822	-0.043
822	-0.036
823	-0.029
823	-0.025
823	-0.021
824	-0.017
824	-0.012
825	-0.007
825	-0.002
826	0.001
826	0.003
826	0.005
827	0.008
827	0.01
828	0.012
828	0.014
829	0.016
829	0.018
829	0.019
830	0.019
830	0.021
831	0.023
831	0.025
832	0.026
832	0.027
832	0.028
833	0.029
833	0.03
834	0.032
834	0.033
835	0.035
835	0.036
835	0.037
836	0.039
836	0.041
837	0.042
837	0.043
838	0.044
838	0.044
839	0.045
839	0.045
839	0.045
840	0.045
840	0.046
841	0.046
841	0.047
842	0.048
842	0.048
842	0.049
843	0.05
843	0.051
844	0.052
844	0.052
845	0.053
845	0.054
845	0.054
846	0.054
846	0.054
847	0.053
847	0.053
848	0.052
848	0.052
848	0.051
849	0.05
849	0.05
850	0.049
850	0.048
851	0.047
851	0.048
851	0.048
852	0.048
852	0.048
853	0.049
853	0.049
854	0.049
854	0.05
854	0.05
855	0.05
855	0.049
856	0.048
856	0.048
857	0.048
857	0.047
857	0.047
858	0.047
858	0.046
859	0.046
859	0.046
860	0.046
860	0.046
860	0.045
861	0.045
861	0.045
862	0.045
862	0.044
863	0.044
863	0.044
863	0.044
864	0.043
864	0.043
865	0.044
865	0.044
866	0.044
866	0.045
866	0.046
867	0.047
867	0.048
868	0.049
868	0.051
869	0.052
869	0.053
869	0.053
870	0.054
870	0.054
871	0.054
871	0.054
872	0.053
872	0.052
872	0.051
873	0.05
873	0.049
874	0.048
874	0.048
875	0.048
875	0.048
875	0.049
876	0.049
876	0.049
877	0.05
877	0.05
878	0.05
878	0.051
878	0.051
879	0.05
879	0.05
880	0.049
880	0.048
881	0.047
881	0.046
881	0.045
882	0.044
882	0.043
883	0.042
883	0.042
884	0.041
884	0.041
884	0.041
885	0.041
885	0.042
886	0.043
886	0.044
887	0.044
887	0.045
887	0.045
888	0.046
888	0.046
889	0.047
889	0.047
890	0.048
890	0.048
890	0.047
891	0.047
891	0.046
892	0.046
892	0.045
893	0.045
893	0.044
893	0.044
894	0.043
894	0.042
895	0.041
895	0.041
895	0.039
896	0.038
896	0.038
897	0.037
897	0.036
898	0.036
898	0.036
898	0.036
899	0.037
899	0.037
900	0.038
900	0.039
901	0.041
901	0.042
901	0.044
902	0.045
902	0.046
903	0.047
903	0.047
904	0.048
904	0.048
904	0.049
905	0.049
905	0.049
906	0.05
906	0.05
907	0.049
907	0.049
907	0.049
908	0.049
908	0.048
909	0.048
909	0.047
910	0.047
910	0.046
910	0.046
911	0.046
911	0.045
912	0.046
912	0.046
913	0.046
913	0.047
913	0.047
914	0.047
914	0.047
915	0.047
915	0.046
916	0.045
916	0.045
916	0.044
917	0.043
917	0.042
918	0.041
918	0.04
918	0.039
919	0.039
919	0.039
920	0.039
920	0.04
921	0.041
921	0.041
921	0.042
922	0.043
922	0.044
923	0.045
923	0.045
924	0.046
924	0.046
924	0.046
925	0.045
925	0.045
926	0.044
926	0.043
927	0.042
927	0.041
927	0.04
928	0.039
928	0.038
929	0.037
929	0.036
930	0.035
930	0.035
930	0.034
931	0.033
931	0.033
932	0.033
932	0.033
933	0.033
933	0.032
933	0.032
934	0.032
934	0.032
935	0.031
935	0.03
935	0.03
936	0.029
936	0.028
937	0.028
937	0.027
938	0.027
938	0.026
938	0.026
939	0.026
939	0.026
940	0.026
940	0.027
941	0.027
941	0.028
941	0.029
942	0.03
942	0.031
943	0.031
943	0.031
944	0.032
944	0.032
944	0.033
945	0.033
945	0.033
946	0.033
946	0.033
946	0.032
947	0.032
947	0.031
948	0.031
948	0.03
949	0.029
949	0.029
949	0.029
950	0.028
950	0.028
951	0.028
951	0.028
952	0.027
952	0.027
952	0.028
953	0.028
953	0.028
954	0.027
954	0.026
955	0.026
955	0.025
955	0.025
956	0.025
956	0.025
957	0.024
957	0.024
957	0.023
958	0.022
958	0.022
959	0.022
959	0.021
960	0.021
960	0.02
960	0.019
961	0.018
961	0.018
962	0.017
962	0.016
963	0.016
963	0.016
963	0.016
964	0.016
964	0.016
965	0.017
965	0.018
966	0.019
966	0.02
966	0.021
967	0.021
967	0.022
968	0.022
968	0.022
968	0.022
969	0.021
969	0.021
970	0.02
970	0.02
971	0.019
971	0.018
971	0.018
972	0.018
972	0.018
973	0.018
973	0.017
974	0.017
974	0.017
974	0.016
975	0.016
975	0.016
976	0.016
976	0.016
976	0.015
977	0.014
977	0.013
978	0.012
978	0.011
979	0.01
979	0.009
979	0.008
980	0.007
980	0.006
981	0.006
981	0.005
982	0.006
982	0.006
982	0.006
983	0.006
983	0.006
984	0.007
984	0.007
984	0.007
985	0.007
985	0.008
986	0.007
986	0.007
987	0.008
987	0.008
987	0.009
988	0.01
988	0.011
989	0.012
989	0.014
990	0.015
990	0.017
990	0.019
991	0.021
991	0.023
992	0.025
992	0.026
992	0.027
993	0.028
993	0.028
994	0.028
994	0.028
995	0.028
995	0.027
995	0.026
996	0.025
996	0.024
997	0.023
997	0.022
997	0.021
998	0.02
998	0.019
999	0.019
999	0.018
1000	0.018
1000	0.018
1000	0.018
1001	0.018
1001	0.018
1002	0.018
1002	0.018
1003	0.018
1003	0.018
1003	0.017
1004	0.017
1004	0.017
1005	0.016
1005	0.016
1005	0.015
1006	0.014
1006	0.013
1007	0.013
1007	0.012
1008	0.011
1008	0.01
1008	0.01
1009	0.01
1009	0.01
1010	0.01
1010	0.01
1010	0.01
1011	0.01
1011	0.01
1012	0.01
1012	0.01
1013	0.01
1013	0.009
1013	0.008
1014	0.007
1014	0.006
1015	0.005
1015	0.005
1016	0.004
1016	0.003
1016	0.003
1017	0.002
1017	0.002
1018	0.003
1018	0.003
1018	0.004
1019	0.004
1019	0.005
1020	0.005
1020	0.005
1021	0.006
1021	0.006
1021	0.006
1022	0.006
1022	0.006
1023	0.006
1023	0.006
1023	0.005
1024	0.004
1024	0.003
1025	0.001
1025	0
1026	-0.001
1026	-0.002
1026	-0.003
1027	-0.004
1027	-0.005
1028	-0.005
1028	-0.006
1028	-0.006
1029	-0.006
1029	-0.005
1030	-0.005
1030	-0.005
1031	-0.005
1031	-0.004
1031	-0.004
1032	-0.004
1032	-0.003
1033	-0.003
1033	-0.003
1033	-0.003
1034	-0.004
1034	-0.005
1035	-0.005
1035	-0.006
1036	-0.007
1036	-0.007
1036	-0.008
1037	-0.008
1037	-0.008
1038	-0.009
1038	-0.009
1039	-0.008
1039	-0.008
1039	-0.007
1040	-0.007
1040	-0.007
1041	-0.007
1041	-0.006
1041	-0.006
1042	-0.006
1042	-0.006
1043	-0.006
1043	-0.007
1044	-0.007
1044	-0.008
1044	-0.008
1045	-0.009
1045	-0.009
1046	-0.01
1046	-0.011
1046	-0.011
1047	-0.011
1047	-0.011
1048	-0.01
1048	-0.01
1049	-0.011
1049	-0.011
1049	-0.012
1050	-0.012
1050	-0.013
1051	-0.014
1051	-0.014
1051	-0.015
1052	-0.016
1052	-0.017
1053	-0.018
1053	-0.018
1053	-0.018
1054	-0.018
1054	-0.018
1055	-0.018
1055	-0.018
1056	-0.019
1056	-0.019
1056	-0.02
1057	-0.021
1057	-0.021
1058	-0.022
1058	-0.023
1058	-0.023
1059	-0.024
1059	-0.024
1060	-0.025
1060	-0.025
1061	-0.024
1061	-0.023
1061	-0.022
1062	-0.022
1062	-0.022
1063	-0.021
1063	-0.021
1063	-0.02
1064	-0.02
1064	-0.019
1065	-0.018
1065	-0.018
1066	-0.018
1066	-0.017
1066	-0.016
1067	-0.015
1067	-0.015
1068	-0.014
1068	-0.014
1068	-0.014
1069	-0.014
1069	-0.015
1070	-0.015
1070	-0.015
1071	-0.015
1071	-0.016
1071	-0.016
1072	-0.016
1072	-0.017
1073	-0.016
1073	-0.016
1073	-0.016
1074	-0.015
1074	-0.015
1075	-0.015
1075	-0.015
1076	-0.016
1076	-0.015
1076	-0.016
1077	-0.017
1077	-0.017
1078	-0.018
1078	-0.017
1078	-0.017
1079	-0.017
1079	-0.016
1080	-0.016
1080	-0.016
1080	-0.016
1081	-0.016
1081	-0.015
1082	-0.014
1082	-0.014
1083	-0.013
1083	-0.013
1083	-0.013
1084	-0.013
1084	-0.012
1085	-0.011
1085	-0.01
1085	-0.009
1086	-0.009
1086	-0.009
1087	-0.009
1087	-0.008
1088	-0.008
1088	-0.008
1088	-0.008
1089	-0.009
1089	-0.009
1090	-0.009
1090	-0.008
1090	-0.008
1091	-0.007
1091	-0.005
1092	-0.005
1092	-0.002
1092	-0.001
1093	0.001
1093	0.004
1094	0.007
1094	0.009
1095	0.009
1095	0.012
1095	0.015
1096	0.015
1096	0.017
1097	0.019
1097	0.02
1097	0.021
1098	0.022
1098	0.023
1099	0.025
1099	0.028
1100	0.03
1100	0.032
1100	0.035
1101	0.039
1101	0.042
1102	0.047
1102	0.052
1102	0.057
1103	0.063
1103	0.071
1104	0.077
1104	0.085
1104	0.095
1105	0.105
1105	0.112
1106	0.119
1106	0.13
1107	0.139
1107	0.157
1107	0.175
1108	0.241
1108	0.339
1109	0.502
1109	0.892
1109	1.959
1110	-0
1110	-0
1111	-0
1111	-0
