Data from 15c-2a-fridge-noshake_Absorbance__936__07173.txt Node

Date: Wed Jan 17 19:09:30 CET 2024
User: Marek
Spectrometer: MAYP115816
Trigger mode: 0
Integration Time (sec): 2.000000E-1
Scans to average: 10
Electric dark correction enabled: true
Nonlinearity correction enabled: true
Boxcar width: 5
XAxis mode: Wavelengths
Number of Pixels in Spectrum: 2068
>>>>>Begin Spectral Data<<<<<
199	-1.556
199	-1.421
200	-1.265
200	-1.145
201	-1.072
201	-1.026
202	-0.96
202	-0.913
203	-0.87
203	-0.834
204	-0.81
204	-0.788
205	-0.765
205	-0.756
205	-0.755
206	-0.753
206	-0.751
207	-0.748
207	-0.745
208	-0.744
208	-0.744
209	-0.739
209	-0.739
210	-0.739
210	-0.739
211	-0.738
211	-0.738
212	-0.739
212	-0.738
213	-0.738
213	-0.737
213	-0.737
214	-0.737
214	-0.736
215	-0.735
215	-0.734
216	-0.735
216	-0.734
217	-0.728
217	-0.728
218	-0.727
218	-0.723
219	-0.72
219	-0.719
220	-0.716
220	-0.714
221	-0.709
221	-0.705
221	-0.701
222	-0.698
222	-0.693
223	-0.687
223	-0.684
224	-0.68
224	-0.673
225	-0.664
225	-0.656
226	-0.648
226	-0.636
227	-0.624
227	-0.612
228	-0.597
228	-0.581
229	-0.561
229	-0.538
229	-0.512
230	-0.485
230	-0.457
231	-0.424
231	-0.391
232	-0.357
232	-0.321
233	-0.283
233	-0.244
234	-0.206
234	-0.17
235	-0.135
235	-0.102
236	-0.07
236	-0.041
236	-0.014
237	0.012
237	0.035
238	0.055
238	0.074
239	0.091
239	0.106
240	0.12
240	0.132
241	0.142
241	0.152
242	0.16
242	0.167
243	0.174
243	0.18
243	0.185
244	0.19
244	0.194
245	0.198
245	0.201
246	0.205
246	0.208
247	0.21
247	0.213
248	0.216
248	0.218
249	0.22
249	0.222
250	0.224
250	0.225
250	0.227
251	0.229
251	0.23
252	0.232
252	0.233
253	0.234
253	0.235
254	0.236
254	0.237
255	0.238
255	0.239
256	0.239
256	0.239
257	0.24
257	0.24
258	0.241
258	0.241
258	0.241
259	0.241
259	0.24
260	0.24
260	0.24
261	0.239
261	0.239
262	0.239
262	0.238
263	0.237
263	0.237
264	0.236
264	0.235
265	0.234
265	0.234
265	0.232
266	0.231
266	0.23
267	0.229
267	0.227
268	0.226
268	0.225
269	0.223
269	0.222
270	0.22
270	0.218
271	0.217
271	0.215
272	0.213
272	0.211
272	0.21
273	0.208
273	0.206
274	0.204
274	0.203
275	0.201
275	0.199
276	0.198
276	0.196
277	0.195
277	0.193
278	0.191
278	0.19
278	0.187
279	0.185
279	0.182
280	0.18
280	0.178
281	0.175
281	0.173
282	0.171
282	0.169
283	0.167
283	0.165
284	0.164
284	0.163
285	0.162
285	0.161
285	0.159
286	0.158
286	0.157
287	0.156
287	0.155
288	0.153
288	0.152
289	0.151
289	0.15
290	0.148
290	0.147
291	0.146
291	0.145
292	0.144
292	0.143
292	0.142
293	0.141
293	0.14
294	0.139
294	0.138
295	0.138
295	0.137
296	0.136
296	0.136
297	0.135
297	0.135
298	0.134
298	0.134
298	0.133
299	0.133
299	0.133
300	0.132
300	0.132
301	0.131
301	0.131
302	0.13
302	0.13
303	0.129
303	0.129
304	0.129
304	0.128
305	0.128
305	0.127
305	0.127
306	0.126
306	0.126
307	0.126
307	0.125
308	0.125
308	0.124
309	0.124
309	0.124
310	0.123
310	0.123
311	0.122
311	0.122
311	0.121
312	0.121
312	0.121
313	0.12
313	0.12
314	0.119
314	0.119
315	0.118
315	0.118
316	0.117
316	0.117
317	0.116
317	0.116
318	0.115
318	0.115
318	0.114
319	0.114
319	0.114
320	0.113
320	0.113
321	0.112
321	0.112
322	0.112
322	0.111
323	0.111
323	0.11
324	0.11
324	0.109
324	0.109
325	0.108
325	0.108
326	0.107
326	0.107
327	0.106
327	0.106
328	0.106
328	0.105
329	0.105
329	0.104
330	0.104
330	0.104
330	0.103
331	0.103
331	0.102
332	0.102
332	0.101
333	0.101
333	0.1
334	0.1
334	0.099
335	0.099
335	0.098
336	0.098
336	0.097
336	0.097
337	0.096
337	0.096
338	0.096
338	0.095
339	0.095
339	0.095
340	0.094
340	0.094
341	0.094
341	0.094
342	0.093
342	0.093
342	0.093
343	0.092
343	0.092
344	0.092
344	0.091
345	0.091
345	0.09
346	0.09
346	0.09
347	0.089
347	0.089
348	0.088
348	0.088
348	0.088
349	0.087
349	0.087
350	0.087
350	0.086
351	0.086
351	0.086
352	0.086
352	0.086
353	0.085
353	0.085
354	0.085
354	0.084
354	0.084
355	0.084
355	0.084
356	0.083
356	0.083
357	0.083
357	0.082
358	0.082
358	0.082
359	0.082
359	0.082
360	0.082
360	0.082
360	0.082
361	0.082
361	0.082
362	0.082
362	0.082
363	0.081
363	0.081
364	0.081
364	0.081
365	0.081
365	0.081
366	0.08
366	0.08
366	0.08
367	0.08
367	0.08
368	0.08
368	0.08
369	0.08
369	0.08
370	0.079
370	0.079
371	0.079
371	0.079
372	0.079
372	0.079
372	0.079
373	0.079
373	0.079
374	0.079
374	0.079
375	0.079
375	0.079
376	0.079
376	0.08
377	0.08
377	0.08
378	0.08
378	0.08
378	0.08
379	0.08
379	0.08
380	0.08
380	0.08
381	0.08
381	0.08
382	0.079
382	0.079
383	0.079
383	0.079
383	0.079
384	0.079
384	0.078
385	0.078
385	0.078
386	0.078
386	0.078
387	0.078
387	0.078
388	0.078
388	0.078
389	0.078
389	0.078
389	0.078
390	0.078
390	0.079
391	0.079
391	0.079
392	0.079
392	0.079
393	0.079
393	0.079
394	0.079
394	0.079
394	0.079
395	0.078
395	0.078
396	0.078
396	0.078
397	0.078
397	0.078
398	0.078
398	0.078
399	0.078
399	0.078
400	0.077
400	0.077
400	0.077
401	0.076
401	0.076
402	0.076
402	0.076
403	0.076
403	0.076
404	0.076
404	0.076
405	0.076
405	0.076
405	0.076
406	0.076
406	0.076
407	0.075
407	0.075
408	0.075
408	0.074
409	0.074
409	0.074
410	0.074
410	0.074
411	0.074
411	0.075
411	0.075
412	0.075
412	0.075
413	0.075
413	0.075
414	0.075
414	0.075
415	0.074
415	0.074
416	0.074
416	0.073
416	0.073
417	0.073
417	0.073
418	0.073
418	0.073
419	0.074
419	0.074
420	0.075
420	0.075
421	0.076
421	0.076
421	0.076
422	0.076
422	0.076
423	0.077
423	0.076
424	0.076
424	0.075
425	0.075
425	0.074
426	0.074
426	0.074
427	0.074
427	0.074
427	0.074
428	0.074
428	0.075
429	0.075
429	0.075
430	0.075
430	0.075
431	0.075
431	0.075
432	0.075
432	0.075
432	0.074
433	0.073
433	0.073
434	0.073
434	0.073
435	0.074
435	0.074
436	0.074
436	0.074
437	0.074
437	0.074
437	0.074
438	0.074
438	0.074
439	0.074
439	0.073
440	0.073
440	0.073
441	0.073
441	0.074
442	0.073
442	0.073
442	0.074
443	0.074
443	0.074
444	0.074
444	0.074
445	0.074
445	0.075
446	0.075
446	0.075
447	0.075
447	0.075
447	0.075
448	0.075
448	0.075
449	0.075
449	0.074
450	0.075
450	0.075
451	0.075
451	0.075
452	0.075
452	0.074
452	0.074
453	0.074
453	0.074
454	0.074
454	0.074
455	0.074
455	0.074
456	0.074
456	0.074
457	0.073
457	0.073
458	0.074
458	0.074
458	0.074
459	0.074
459	0.074
460	0.073
460	0.073
461	0.073
461	0.073
462	0.073
462	0.073
463	0.074
463	0.074
463	0.075
464	0.075
464	0.074
465	0.074
465	0.075
466	0.075
466	0.075
467	0.075
467	0.075
467	0.075
468	0.074
468	0.074
469	0.074
469	0.074
470	0.074
470	0.074
471	0.074
471	0.074
472	0.074
472	0.074
472	0.074
473	0.075
473	0.075
474	0.075
474	0.076
475	0.076
475	0.076
476	0.076
476	0.076
477	0.076
477	0.076
477	0.076
478	0.076
478	0.077
479	0.077
479	0.077
480	0.078
480	0.078
481	0.078
481	0.079
482	0.08
482	0.081
482	0.082
483	0.083
483	0.085
484	0.086
484	0.085
485	0.086
485	0.086
486	0.087
486	0.087
487	0.087
487	0.087
487	0.087
488	0.087
488	0.086
489	0.086
489	0.087
490	0.088
490	0.088
491	0.089
491	0.09
492	0.09
492	0.09
492	0.091
493	0.091
493	0.092
494	0.093
494	0.094
495	0.095
495	0.095
496	0.096
496	0.097
496	0.098
497	0.099
497	0.1
498	0.1
498	0.101
499	0.101
499	0.102
500	0.103
500	0.104
501	0.105
501	0.106
501	0.107
502	0.107
502	0.109
503	0.11
503	0.11
504	0.111
504	0.111
505	0.111
505	0.112
506	0.112
506	0.113
506	0.114
507	0.114
507	0.115
508	0.115
508	0.117
509	0.117
509	0.119
510	0.12
510	0.12
511	0.12
511	0.121
511	0.121
512	0.122
512	0.122
513	0.121
513	0.121
514	0.121
514	0.121
515	0.121
515	0.121
515	0.121
516	0.121
516	0.121
517	0.122
517	0.122
518	0.122
518	0.122
519	0.122
519	0.121
520	0.121
520	0.121
520	0.12
521	0.12
521	0.119
522	0.118
522	0.118
523	0.118
523	0.118
524	0.119
524	0.119
524	0.119
525	0.12
525	0.12
526	0.12
526	0.121
527	0.121
527	0.121
528	0.121
528	0.121
529	0.121
529	0.121
529	0.121
530	0.121
530	0.121
531	0.12
531	0.121
532	0.12
532	0.12
533	0.12
533	0.119
533	0.118
534	0.118
534	0.116
535	0.116
535	0.115
536	0.115
536	0.114
537	0.114
537	0.113
538	0.112
538	0.111
538	0.11
539	0.11
539	0.11
540	0.109
540	0.107
541	0.106
541	0.105
542	0.104
542	0.103
542	0.102
543	0.101
543	0.099
544	0.098
544	0.098
545	0.097
545	0.097
546	0.097
546	0.096
547	0.094
547	0.093
547	0.092
548	0.091
548	0.091
549	0.09
549	0.089
550	0.088
550	0.087
551	0.085
551	0.084
551	0.084
552	0.083
552	0.083
553	0.082
553	0.082
554	0.08
554	0.079
555	0.077
555	0.075
556	0.073
556	0.071
556	0.07
557	0.069
557	0.068
558	0.067
558	0.065
559	0.065
559	0.064
560	0.063
560	0.062
560	0.062
561	0.062
561	0.062
562	0.061
562	0.06
563	0.058
563	0.057
564	0.055
564	0.054
564	0.054
565	0.053
565	0.053
566	0.051
566	0.05
567	0.05
567	0.051
568	0.051
568	0.051
568	0.052
569	0.053
569	0.053
570	0.053
570	0.051
571	0.052
571	0.052
572	0.052
572	0.051
573	0.05
573	0.049
573	0.047
574	0.046
574	0.045
575	0.045
575	0.046
576	0.047
576	0.044
577	0.042
577	0.041
577	0.042
578	0.041
578	0.042
579	0.043
579	0.044
580	0.041
580	0.037
581	0.034
581	0.033
581	0.033
582	0.034
582	0.034
583	0.035
583	0.033
584	0.03
584	0.026
585	0.026
585	0.028
585	0.029
586	0.03
586	0.029
587	0.027
587	0.025
588	0.023
588	0.023
589	0.023
589	0.024
590	0.025
590	0.025
590	0.027
591	0.028
591	0.027
592	0.026
592	0.025
593	0.025
593	0.025
594	0.024
594	0.023
594	0.022
595	0.022
595	0.02
596	0.019
596	0.022
597	0.026
597	0.027
598	0.027
598	0.028
598	0.029
599	0.03
599	0.029
600	0.028
600	0.027
601	0.027
601	0.026
602	0.024
602	0.023
602	0.023
603	0.023
603	0.025
604	0.027
604	0.028
605	0.03
605	0.031
606	0.031
606	0.03
606	0.03
607	0.029
607	0.029
608	0.028
608	0.026
609	0.025
609	0.025
610	0.024
610	0.023
610	0.024
611	0.026
611	0.028
612	0.029
612	0.031
613	0.033
613	0.034
614	0.033
614	0.032
614	0.032
615	0.031
615	0.03
616	0.03
616	0.028
617	0.028
617	0.026
618	0.025
618	0.025
618	0.025
619	0.026
619	0.028
620	0.03
620	0.031
621	0.031
621	0.032
622	0.032
622	0.033
622	0.032
623	0.032
623	0.033
624	0.033
624	0.032
625	0.031
625	0.032
626	0.032
626	0.032
626	0.033
627	0.034
627	0.034
628	0.035
628	0.035
629	0.036
629	0.036
630	0.035
630	0.034
630	0.035
631	0.036
631	0.036
632	0.036
632	0.036
633	0.037
633	0.038
634	0.04
634	0.042
634	0.044
635	0.045
635	0.046
636	0.046
636	0.048
637	0.048
637	0.048
638	0.049
638	0.05
638	0.051
639	0.051
639	0.051
640	0.052
640	0.053
641	0.054
641	0.056
642	0.057
642	0.058
642	0.06
643	0.061
643	0.062
644	0.063
644	0.065
645	0.066
645	0.068
646	0.07
646	0.072
646	0.074
647	0.076
647	0.077
648	0.078
648	0.08
649	0.082
649	0.083
650	0.085
650	0.086
650	0.087
651	0.088
651	0.09
652	0.091
652	0.092
653	0.095
653	0.103
653	0.12
654	0.098
654	0.081
655	0.077
655	0.078
656	0.079
656	0.08
657	0.081
657	0.082
657	0.083
658	0.079
658	0.066
659	0.083
659	0.107
660	0.119
660	0.121
661	0.123
661	0.125
661	0.127
662	0.131
662	0.134
663	0.136
663	0.139
664	0.141
664	0.142
665	0.144
665	0.146
665	0.148
666	0.149
666	0.15
667	0.151
667	0.152
668	0.153
668	0.155
669	0.157
669	0.159
669	0.162
670	0.164
670	0.166
671	0.167
671	0.168
672	0.17
672	0.171
672	0.173
673	0.174
673	0.176
674	0.177
674	0.177
675	0.178
675	0.179
676	0.182
676	0.183
676	0.184
677	0.185
677	0.186
678	0.186
678	0.186
679	0.186
679	0.187
680	0.189
680	0.189
680	0.189
681	0.19
681	0.191
682	0.192
682	0.193
683	0.195
683	0.197
684	0.198
684	0.198
684	0.197
685	0.198
685	0.198
686	0.199
686	0.198
687	0.198
687	0.198
687	0.198
688	0.197
688	0.196
689	0.196
689	0.197
690	0.196
690	0.195
691	0.194
691	0.193
691	0.191
692	0.19
692	0.188
693	0.188
693	0.187
694	0.186
694	0.183
695	0.184
695	0.185
695	0.185
696	0.183
696	0.182
697	0.182
697	0.181
698	0.18
698	0.178
698	0.177
699	0.177
699	0.175
700	0.173
700	0.173
701	0.173
701	0.173
702	0.172
702	0.172
702	0.171
703	0.17
703	0.169
704	0.167
704	0.167
705	0.167
705	0.165
705	0.164
706	0.162
706	0.161
707	0.16
707	0.158
708	0.157
708	0.155
709	0.154
709	0.152
709	0.149
710	0.147
710	0.145
711	0.144
711	0.143
712	0.141
712	0.139
713	0.138
713	0.136
713	0.134
714	0.132
714	0.13
715	0.129
715	0.127
716	0.126
716	0.125
716	0.123
717	0.122
717	0.121
718	0.119
718	0.117
719	0.116
719	0.115
720	0.113
720	0.111
720	0.108
721	0.106
721	0.104
722	0.103
722	0.101
723	0.1
723	0.099
723	0.097
724	0.096
724	0.095
725	0.093
725	0.092
726	0.091
726	0.09
727	0.089
727	0.087
727	0.086
728	0.084
728	0.083
729	0.084
729	0.083
730	0.082
730	0.081
730	0.08
731	0.079
731	0.078
732	0.078
732	0.076
733	0.075
733	0.073
734	0.072
734	0.071
734	0.07
735	0.07
735	0.068
736	0.067
736	0.067
737	0.067
737	0.068
737	0.067
738	0.065
738	0.063
739	0.061
739	0.06
740	0.058
740	0.056
741	0.055
741	0.053
741	0.05
742	0.046
742	0.044
743	0.044
743	0.042
744	0.041
744	0.04
744	0.038
745	0.036
745	0.034
746	0.033
746	0.032
747	0.031
747	0.03
748	0.03
748	0.029
748	0.027
749	0.026
749	0.026
750	0.025
750	0.024
751	0.024
751	0.024
751	0.024
752	0.024
752	0.023
753	0.023
753	0.023
754	0.023
754	0.023
754	0.023
755	0.023
755	0.024
756	0.022
756	0.02
757	0.018
757	0.018
758	0.016
758	0.015
758	0.014
759	0.013
759	0.01
760	0.008
760	0.006
761	0.005
761	0.005
761	0.005
762	0.003
762	0.004
763	0.004
763	0.002
764	0
764	-0.001
764	-0.002
765	-0.003
765	-0.005
766	-0.005
766	-0.005
767	-0.006
767	-0.009
768	-0.012
768	-0.013
768	-0.013
769	-0.013
769	-0.013
770	-0.015
770	-0.016
771	-0.018
771	-0.02
771	-0.022
772	-0.023
772	-0.024
773	-0.025
773	-0.027
774	-0.029
774	-0.031
775	-0.032
775	-0.033
775	-0.035
776	-0.037
776	-0.039
777	-0.041
777	-0.043
778	-0.046
778	-0.048
778	-0.05
779	-0.051
779	-0.053
780	-0.056
780	-0.059
781	-0.061
781	-0.064
781	-0.067
782	-0.071
782	-0.075
783	-0.079
783	-0.082
784	-0.088
784	-0.093
784	-0.097
785	-0.103
785	-0.108
786	-0.113
786	-0.117
787	-0.118
787	-0.121
788	-0.126
788	-0.133
788	-0.138
789	-0.143
789	-0.146
790	-0.146
790	-0.148
791	-0.151
791	-0.153
791	-0.155
792	-0.15
792	-0.139
793	-0.133
793	-0.129
794	-0.128
794	-0.13
794	-0.134
795	-0.136
795	-0.137
796	-0.137
796	-0.14
797	-0.149
797	-0.16
797	-0.167
798	-0.172
798	-0.175
799	-0.175
799	-0.174
800	-0.174
800	-0.175
801	-0.178
801	-0.179
801	-0.179
802	-0.18
802	-0.182
803	-0.183
803	-0.183
804	-0.182
804	-0.177
804	-0.17
805	-0.167
805	-0.164
806	-0.162
806	-0.161
807	-0.16
807	-0.159
807	-0.16
808	-0.159
808	-0.161
809	-0.166
809	-0.172
810	-0.175
810	-0.178
810	-0.182
811	-0.185
811	-0.185
812	-0.182
812	-0.178
813	-0.178
813	-0.179
813	-0.179
814	-0.18
814	-0.179
815	-0.176
815	-0.172
816	-0.169
816	-0.166
817	-0.166
817	-0.163
817	-0.157
818	-0.15
818	-0.14
819	-0.131
819	-0.123
820	-0.116
820	-0.109
820	-0.102
821	-0.094
821	-0.088
822	-0.083
822	-0.078
823	-0.075
823	-0.072
823	-0.07
824	-0.067
824	-0.064
825	-0.061
825	-0.058
826	-0.056
826	-0.055
826	-0.053
827	-0.052
827	-0.051
828	-0.05
828	-0.049
829	-0.048
829	-0.048
829	-0.048
830	-0.048
830	-0.047
831	-0.045
831	-0.044
832	-0.044
832	-0.043
832	-0.042
833	-0.041
833	-0.04
834	-0.038
834	-0.037
835	-0.036
835	-0.035
835	-0.033
836	-0.032
836	-0.03
837	-0.029
837	-0.028
838	-0.027
838	-0.027
839	-0.026
839	-0.026
839	-0.027
840	-0.027
840	-0.028
841	-0.028
841	-0.029
842	-0.029
842	-0.029
842	-0.029
843	-0.029
843	-0.029
844	-0.028
844	-0.027
845	-0.026
845	-0.026
845	-0.024
846	-0.024
846	-0.024
847	-0.024
847	-0.023
848	-0.024
848	-0.024
848	-0.024
849	-0.025
849	-0.025
850	-0.025
850	-0.026
851	-0.026
851	-0.026
851	-0.026
852	-0.026
852	-0.025
853	-0.025
853	-0.025
854	-0.024
854	-0.024
854	-0.024
855	-0.025
855	-0.025
856	-0.026
856	-0.026
857	-0.026
857	-0.026
857	-0.026
858	-0.025
858	-0.025
859	-0.025
859	-0.024
860	-0.024
860	-0.023
860	-0.022
861	-0.021
861	-0.021
862	-0.021
862	-0.02
863	-0.02
863	-0.02
863	-0.02
864	-0.02
864	-0.02
865	-0.019
865	-0.019
866	-0.019
866	-0.019
866	-0.019
867	-0.018
867	-0.017
868	-0.016
868	-0.016
869	-0.015
869	-0.014
869	-0.014
870	-0.014
870	-0.014
871	-0.014
871	-0.015
872	-0.015
872	-0.016
872	-0.017
873	-0.018
873	-0.018
874	-0.019
874	-0.019
875	-0.019
875	-0.019
875	-0.018
876	-0.018
876	-0.017
877	-0.016
877	-0.015
878	-0.014
878	-0.013
878	-0.012
879	-0.011
879	-0.011
880	-0.011
880	-0.011
881	-0.011
881	-0.011
881	-0.012
882	-0.013
882	-0.014
883	-0.015
883	-0.016
884	-0.016
884	-0.017
884	-0.017
885	-0.017
885	-0.017
886	-0.017
886	-0.016
887	-0.016
887	-0.016
887	-0.016
888	-0.016
888	-0.016
889	-0.016
889	-0.015
890	-0.015
890	-0.016
890	-0.016
891	-0.017
891	-0.018
892	-0.019
892	-0.02
893	-0.02
893	-0.021
893	-0.021
894	-0.022
894	-0.022
895	-0.023
895	-0.023
895	-0.024
896	-0.024
896	-0.025
897	-0.025
897	-0.025
898	-0.025
898	-0.026
898	-0.026
899	-0.026
899	-0.026
900	-0.026
900	-0.025
901	-0.024
901	-0.022
901	-0.021
902	-0.019
902	-0.018
903	-0.017
903	-0.015
904	-0.014
904	-0.014
904	-0.013
905	-0.013
905	-0.013
906	-0.013
906	-0.014
907	-0.014
907	-0.014
907	-0.014
908	-0.014
908	-0.014
909	-0.014
909	-0.014
910	-0.014
910	-0.013
910	-0.012
911	-0.011
911	-0.01
912	-0.009
912	-0.007
913	-0.007
913	-0.006
913	-0.006
914	-0.006
914	-0.006
915	-0.007
915	-0.008
916	-0.009
916	-0.01
916	-0.012
917	-0.013
917	-0.015
918	-0.016
918	-0.017
918	-0.018
919	-0.018
919	-0.019
920	-0.018
920	-0.018
921	-0.018
921	-0.018
921	-0.018
922	-0.017
922	-0.017
923	-0.016
923	-0.015
924	-0.015
924	-0.014
924	-0.014
925	-0.015
925	-0.015
926	-0.016
926	-0.016
927	-0.017
927	-0.018
927	-0.019
928	-0.02
928	-0.021
929	-0.022
929	-0.023
930	-0.023
930	-0.023
930	-0.024
931	-0.024
931	-0.025
932	-0.025
932	-0.026
933	-0.027
933	-0.027
933	-0.028
934	-0.029
934	-0.029
935	-0.03
935	-0.031
935	-0.031
936	-0.031
936	-0.031
937	-0.031
937	-0.03
938	-0.03
938	-0.03
938	-0.029
939	-0.029
939	-0.028
940	-0.027
940	-0.027
941	-0.026
941	-0.025
941	-0.025
942	-0.024
942	-0.023
943	-0.023
943	-0.022
944	-0.022
944	-0.022
944	-0.022
945	-0.021
945	-0.021
946	-0.021
946	-0.022
946	-0.022
947	-0.022
947	-0.022
948	-0.023
948	-0.023
949	-0.024
949	-0.024
949	-0.024
950	-0.025
950	-0.025
951	-0.025
951	-0.025
952	-0.026
952	-0.026
952	-0.025
953	-0.025
953	-0.025
954	-0.026
954	-0.026
955	-0.026
955	-0.026
955	-0.026
956	-0.026
956	-0.025
957	-0.025
957	-0.026
957	-0.026
958	-0.026
958	-0.027
959	-0.027
959	-0.027
960	-0.028
960	-0.029
960	-0.03
961	-0.032
961	-0.033
962	-0.034
962	-0.034
963	-0.035
963	-0.035
963	-0.035
964	-0.034
964	-0.033
965	-0.032
965	-0.031
966	-0.029
966	-0.028
966	-0.026
967	-0.025
967	-0.025
968	-0.024
968	-0.024
968	-0.024
969	-0.024
969	-0.024
970	-0.025
970	-0.026
971	-0.026
971	-0.027
971	-0.027
972	-0.028
972	-0.028
973	-0.028
973	-0.028
974	-0.028
974	-0.029
974	-0.029
975	-0.029
975	-0.03
976	-0.03
976	-0.031
976	-0.031
977	-0.032
977	-0.034
978	-0.035
978	-0.036
979	-0.037
979	-0.037
979	-0.038
980	-0.039
980	-0.039
981	-0.04
981	-0.04
982	-0.039
982	-0.038
982	-0.037
983	-0.035
983	-0.035
984	-0.034
984	-0.033
984	-0.032
985	-0.031
985	-0.031
986	-0.031
986	-0.031
987	-0.032
987	-0.031
987	-0.031
988	-0.031
988	-0.031
989	-0.03
989	-0.03
990	-0.029
990	-0.028
990	-0.027
991	-0.025
991	-0.024
992	-0.023
992	-0.022
992	-0.021
993	-0.021
993	-0.02
994	-0.02
994	-0.02
995	-0.02
995	-0.02
995	-0.021
996	-0.021
996	-0.021
997	-0.022
997	-0.022
997	-0.022
998	-0.022
998	-0.022
999	-0.021
999	-0.021
1000	-0.021
1000	-0.021
1000	-0.021
1001	-0.021
1001	-0.022
1002	-0.022
1002	-0.022
1003	-0.022
1003	-0.023
1003	-0.024
1004	-0.024
1004	-0.025
1005	-0.025
1005	-0.026
1005	-0.027
1006	-0.027
1006	-0.028
1007	-0.029
1007	-0.03
1008	-0.03
1008	-0.031
1008	-0.031
1009	-0.031
1009	-0.031
1010	-0.031
1010	-0.031
1010	-0.031
1011	-0.031
1011	-0.031
1012	-0.031
1012	-0.031
1013	-0.031
1013	-0.032
1013	-0.033
1014	-0.034
1014	-0.036
1015	-0.037
1015	-0.038
1016	-0.039
1016	-0.04
1016	-0.041
1017	-0.042
1017	-0.042
1018	-0.042
1018	-0.042
1018	-0.042
1019	-0.042
1019	-0.041
1020	-0.041
1020	-0.041
1021	-0.041
1021	-0.04
1021	-0.04
1022	-0.039
1022	-0.039
1023	-0.039
1023	-0.039
1023	-0.039
1024	-0.04
1024	-0.04
1025	-0.041
1025	-0.042
1026	-0.043
1026	-0.044
1026	-0.044
1027	-0.045
1027	-0.046
1028	-0.046
1028	-0.047
1028	-0.047
1029	-0.047
1029	-0.047
1030	-0.047
1030	-0.047
1031	-0.047
1031	-0.047
1031	-0.047
1032	-0.048
1032	-0.048
1033	-0.048
1033	-0.048
1033	-0.048
1034	-0.049
1034	-0.05
1035	-0.05
1035	-0.05
1036	-0.051
1036	-0.051
1036	-0.051
1037	-0.051
1037	-0.051
1038	-0.051
1038	-0.05
1039	-0.05
1039	-0.049
1039	-0.048
1040	-0.048
1040	-0.048
1041	-0.048
1041	-0.048
1041	-0.049
1042	-0.049
1042	-0.05
1043	-0.051
1043	-0.052
1044	-0.052
1044	-0.053
1044	-0.054
1045	-0.055
1045	-0.056
1046	-0.056
1046	-0.057
1046	-0.057
1047	-0.057
1047	-0.057
1048	-0.057
1048	-0.057
1049	-0.057
1049	-0.058
1049	-0.058
1050	-0.059
1050	-0.059
1051	-0.06
1051	-0.061
1051	-0.061
1052	-0.062
1052	-0.063
1053	-0.063
1053	-0.064
1053	-0.064
1054	-0.064
1054	-0.064
1055	-0.064
1055	-0.064
1056	-0.065
1056	-0.066
1056	-0.067
1057	-0.068
1057	-0.068
1058	-0.069
1058	-0.069
1058	-0.07
1059	-0.07
1059	-0.071
1060	-0.071
1060	-0.07
1061	-0.069
1061	-0.068
1061	-0.067
1062	-0.067
1062	-0.066
1063	-0.065
1063	-0.065
1063	-0.064
1064	-0.063
1064	-0.062
1065	-0.061
1065	-0.061
1066	-0.061
1066	-0.06
1066	-0.06
1067	-0.06
1067	-0.06
1068	-0.06
1068	-0.06
1068	-0.06
1069	-0.061
1069	-0.062
1070	-0.062
1070	-0.063
1071	-0.063
1071	-0.064
1071	-0.064
1072	-0.065
1072	-0.065
1073	-0.065
1073	-0.065
1073	-0.065
1074	-0.065
1074	-0.064
1075	-0.065
1075	-0.065
1076	-0.066
1076	-0.065
1076	-0.066
1077	-0.067
1077	-0.067
1078	-0.067
1078	-0.067
1078	-0.067
1079	-0.067
1079	-0.066
1080	-0.067
1080	-0.067
1080	-0.067
1081	-0.067
1081	-0.066
1082	-0.066
1082	-0.066
1083	-0.067
1083	-0.067
1083	-0.067
1084	-0.067
1084	-0.066
1085	-0.065
1085	-0.064
1085	-0.063
1086	-0.062
1086	-0.062
1087	-0.062
1087	-0.061
1088	-0.061
1088	-0.061
1088	-0.061
1089	-0.062
1089	-0.062
1090	-0.062
1090	-0.062
1090	-0.062
1091	-0.061
1091	-0.06
1092	-0.059
1092	-0.057
1092	-0.056
1093	-0.055
1093	-0.052
1094	-0.05
1094	-0.049
1095	-0.048
1095	-0.047
1095	-0.044
1096	-0.044
1096	-0.043
1097	-0.041
1097	-0.041
1097	-0.04
1098	-0.039
1098	-0.039
1099	-0.038
1099	-0.037
1100	-0.036
1100	-0.035
1100	-0.035
1101	-0.034
1101	-0.032
1102	-0.03
1102	-0.028
1102	-0.026
1103	-0.023
1103	-0.02
1104	-0.017
1104	-0.013
1104	-0.006
1105	-0.002
1105	0.002
1106	0.004
1106	0.009
1107	0.012
1107	0.02
1107	0.028
1108	0.062
1108	0.108
1109	0.17
1109	0.267
1109	0.343
1110	0.495
1110	0.92
1111	-0
1111	-0
