Data from 15c-2a-fridge-noshake_Absorbance__833__07070.txt Node

Date: Wed Jan 17 19:06:04 CET 2024
User: Marek
Spectrometer: MAYP115816
Trigger mode: 0
Integration Time (sec): 2.000000E-1
Scans to average: 10
Electric dark correction enabled: true
Nonlinearity correction enabled: true
Boxcar width: 5
XAxis mode: Wavelengths
Number of Pixels in Spectrum: 2068
>>>>>Begin Spectral Data<<<<<
199	-1.663
199	-1.526
200	-1.368
200	-1.247
201	-1.172
201	-1.124
202	-1.056
202	-1.005
203	-0.961
203	-0.922
204	-0.898
204	-0.875
205	-0.852
205	-0.842
205	-0.84
206	-0.839
206	-0.836
207	-0.834
207	-0.83
208	-0.828
208	-0.828
209	-0.823
209	-0.822
210	-0.822
210	-0.823
211	-0.821
211	-0.821
212	-0.822
212	-0.821
213	-0.821
213	-0.82
213	-0.819
214	-0.818
214	-0.817
215	-0.815
215	-0.815
216	-0.815
216	-0.813
217	-0.808
217	-0.806
218	-0.805
218	-0.803
219	-0.8
219	-0.799
220	-0.796
220	-0.793
221	-0.789
221	-0.786
221	-0.782
222	-0.778
222	-0.774
223	-0.768
223	-0.764
224	-0.76
224	-0.752
225	-0.744
225	-0.737
226	-0.728
226	-0.716
227	-0.703
227	-0.691
228	-0.677
228	-0.659
229	-0.64
229	-0.616
229	-0.589
230	-0.562
230	-0.532
231	-0.499
231	-0.464
232	-0.429
232	-0.392
233	-0.352
233	-0.312
234	-0.274
234	-0.235
235	-0.199
235	-0.164
236	-0.132
236	-0.101
236	-0.071
237	-0.044
237	-0.019
238	0.003
238	0.024
239	0.043
239	0.059
240	0.074
240	0.087
241	0.1
241	0.11
242	0.119
242	0.128
243	0.136
243	0.142
243	0.148
244	0.153
244	0.158
245	0.162
245	0.166
246	0.169
246	0.173
247	0.176
247	0.179
248	0.182
248	0.184
249	0.187
249	0.189
250	0.191
250	0.193
250	0.195
251	0.197
251	0.198
252	0.2
252	0.201
253	0.203
253	0.204
254	0.205
254	0.206
255	0.207
255	0.208
256	0.208
256	0.209
257	0.21
257	0.21
258	0.21
258	0.21
258	0.21
259	0.21
259	0.21
260	0.21
260	0.21
261	0.21
261	0.21
262	0.209
262	0.209
263	0.208
263	0.208
264	0.207
264	0.206
265	0.206
265	0.205
265	0.203
266	0.203
266	0.201
267	0.2
267	0.199
268	0.198
268	0.197
269	0.195
269	0.194
270	0.192
270	0.191
271	0.189
271	0.188
272	0.186
272	0.184
272	0.183
273	0.181
273	0.18
274	0.178
274	0.176
275	0.175
275	0.174
276	0.172
276	0.171
277	0.17
277	0.168
278	0.166
278	0.165
278	0.163
279	0.16
279	0.158
280	0.156
280	0.154
281	0.152
281	0.15
282	0.148
282	0.146
283	0.144
283	0.143
284	0.142
284	0.141
285	0.14
285	0.139
285	0.138
286	0.137
286	0.136
287	0.135
287	0.134
288	0.133
288	0.131
289	0.13
289	0.129
290	0.128
290	0.127
291	0.126
291	0.125
292	0.125
292	0.124
292	0.123
293	0.122
293	0.121
294	0.121
294	0.12
295	0.119
295	0.119
296	0.118
296	0.118
297	0.117
297	0.117
298	0.116
298	0.116
298	0.116
299	0.115
299	0.115
300	0.114
300	0.114
301	0.114
301	0.113
302	0.113
302	0.112
303	0.112
303	0.112
304	0.112
304	0.111
305	0.111
305	0.111
305	0.11
306	0.11
306	0.11
307	0.109
307	0.109
308	0.109
308	0.108
309	0.108
309	0.108
310	0.107
310	0.107
311	0.107
311	0.106
311	0.106
312	0.106
312	0.105
313	0.105
313	0.104
314	0.104
314	0.104
315	0.103
315	0.103
316	0.103
316	0.102
317	0.102
317	0.102
318	0.101
318	0.101
318	0.1
319	0.1
319	0.1
320	0.099
320	0.099
321	0.098
321	0.098
322	0.098
322	0.097
323	0.097
323	0.096
324	0.096
324	0.095
324	0.095
325	0.094
325	0.094
326	0.093
326	0.093
327	0.093
327	0.092
328	0.092
328	0.091
329	0.091
329	0.091
330	0.09
330	0.09
330	0.09
331	0.089
331	0.089
332	0.088
332	0.088
333	0.087
333	0.087
334	0.087
334	0.086
335	0.086
335	0.085
336	0.085
336	0.084
336	0.084
337	0.084
337	0.083
338	0.083
338	0.082
339	0.082
339	0.082
340	0.081
340	0.081
341	0.081
341	0.08
342	0.08
342	0.08
342	0.079
343	0.079
343	0.079
344	0.078
344	0.078
345	0.078
345	0.077
346	0.077
346	0.077
347	0.076
347	0.076
348	0.075
348	0.075
348	0.075
349	0.074
349	0.074
350	0.074
350	0.073
351	0.073
351	0.073
352	0.072
352	0.072
353	0.072
353	0.071
354	0.071
354	0.071
354	0.071
355	0.07
355	0.07
356	0.07
356	0.07
357	0.07
357	0.07
358	0.069
358	0.069
359	0.069
359	0.069
360	0.07
360	0.07
360	0.07
361	0.07
361	0.07
362	0.069
362	0.069
363	0.069
363	0.069
364	0.069
364	0.069
365	0.069
365	0.069
366	0.069
366	0.069
366	0.069
367	0.068
367	0.069
368	0.068
368	0.068
369	0.068
369	0.068
370	0.068
370	0.068
371	0.067
371	0.067
372	0.067
372	0.067
372	0.067
373	0.067
373	0.067
374	0.067
374	0.067
375	0.067
375	0.067
376	0.067
376	0.067
377	0.067
377	0.068
378	0.068
378	0.068
378	0.068
379	0.068
379	0.068
380	0.068
380	0.068
381	0.068
381	0.068
382	0.068
382	0.067
383	0.067
383	0.067
383	0.066
384	0.066
384	0.066
385	0.066
385	0.066
386	0.066
386	0.066
387	0.066
387	0.066
388	0.066
388	0.066
389	0.066
389	0.066
389	0.066
390	0.067
390	0.067
391	0.067
391	0.067
392	0.067
392	0.067
393	0.067
393	0.067
394	0.067
394	0.067
394	0.067
395	0.067
395	0.067
396	0.067
396	0.067
397	0.067
397	0.067
398	0.067
398	0.067
399	0.067
399	0.067
400	0.066
400	0.066
400	0.066
401	0.065
401	0.065
402	0.065
402	0.064
403	0.065
403	0.065
404	0.065
404	0.065
405	0.065
405	0.065
405	0.064
406	0.065
406	0.065
407	0.065
407	0.065
408	0.064
408	0.064
409	0.064
409	0.064
410	0.064
410	0.064
411	0.064
411	0.064
411	0.064
412	0.063
412	0.063
413	0.063
413	0.063
414	0.063
414	0.063
415	0.062
415	0.062
416	0.062
416	0.061
416	0.061
417	0.061
417	0.061
418	0.062
418	0.062
419	0.062
419	0.063
420	0.064
420	0.064
421	0.064
421	0.065
421	0.065
422	0.065
422	0.065
423	0.065
423	0.065
424	0.065
424	0.064
425	0.064
425	0.064
426	0.064
426	0.064
427	0.064
427	0.064
427	0.064
428	0.064
428	0.065
429	0.065
429	0.065
430	0.064
430	0.064
431	0.064
431	0.064
432	0.064
432	0.063
432	0.063
433	0.063
433	0.062
434	0.062
434	0.062
435	0.063
435	0.063
436	0.063
436	0.063
437	0.063
437	0.063
437	0.062
438	0.062
438	0.062
439	0.062
439	0.062
440	0.061
440	0.062
441	0.062
441	0.062
442	0.061
442	0.061
442	0.062
443	0.062
443	0.062
444	0.062
444	0.062
445	0.063
445	0.063
446	0.063
446	0.063
447	0.063
447	0.063
447	0.063
448	0.063
448	0.063
449	0.062
449	0.062
450	0.062
450	0.062
451	0.062
451	0.062
452	0.062
452	0.062
452	0.062
453	0.062
453	0.061
454	0.061
454	0.061
455	0.061
455	0.061
456	0.062
456	0.061
457	0.061
457	0.061
458	0.061
458	0.061
458	0.061
459	0.062
459	0.062
460	0.061
460	0.061
461	0.06
461	0.061
462	0.061
462	0.061
463	0.061
463	0.061
463	0.062
464	0.061
464	0.061
465	0.061
465	0.061
466	0.061
466	0.061
467	0.061
467	0.061
467	0.061
468	0.06
468	0.059
469	0.059
469	0.059
470	0.059
470	0.059
471	0.059
471	0.058
472	0.058
472	0.058
472	0.059
473	0.059
473	0.06
474	0.06
474	0.06
475	0.061
475	0.061
476	0.061
476	0.062
477	0.062
477	0.062
477	0.062
478	0.062
478	0.062
479	0.062
479	0.063
480	0.063
480	0.063
481	0.063
481	0.064
482	0.064
482	0.065
482	0.066
483	0.067
483	0.069
484	0.07
484	0.069
485	0.069
485	0.07
486	0.07
486	0.07
487	0.07
487	0.07
487	0.07
488	0.07
488	0.069
489	0.069
489	0.07
490	0.07
490	0.07
491	0.071
491	0.072
492	0.072
492	0.072
492	0.072
493	0.072
493	0.073
494	0.074
494	0.075
495	0.076
495	0.076
496	0.077
496	0.078
496	0.079
497	0.079
497	0.08
498	0.081
498	0.081
499	0.081
499	0.082
500	0.083
500	0.083
501	0.084
501	0.085
501	0.085
502	0.086
502	0.087
503	0.088
503	0.088
504	0.088
504	0.088
505	0.088
505	0.089
506	0.089
506	0.089
506	0.09
507	0.09
507	0.09
508	0.09
508	0.091
509	0.091
509	0.092
510	0.093
510	0.094
511	0.094
511	0.094
511	0.095
512	0.095
512	0.095
513	0.095
513	0.095
514	0.095
514	0.095
515	0.095
515	0.095
515	0.095
516	0.095
516	0.096
517	0.096
517	0.096
518	0.096
518	0.095
519	0.095
519	0.094
520	0.094
520	0.094
520	0.093
521	0.092
521	0.092
522	0.091
522	0.09
523	0.091
523	0.091
524	0.091
524	0.092
524	0.092
525	0.093
525	0.093
526	0.093
526	0.094
527	0.095
527	0.095
528	0.095
528	0.095
529	0.095
529	0.095
529	0.095
530	0.095
530	0.095
531	0.094
531	0.094
532	0.094
532	0.094
533	0.094
533	0.094
533	0.093
534	0.093
534	0.092
535	0.093
535	0.093
536	0.093
536	0.092
537	0.092
537	0.092
538	0.091
538	0.091
538	0.09
539	0.09
539	0.09
540	0.089
540	0.088
541	0.087
541	0.086
542	0.085
542	0.084
542	0.084
543	0.083
543	0.082
544	0.081
544	0.081
545	0.081
545	0.081
546	0.081
546	0.08
547	0.079
547	0.078
547	0.077
548	0.076
548	0.076
549	0.075
549	0.075
550	0.074
550	0.073
551	0.072
551	0.071
551	0.071
552	0.071
552	0.071
553	0.071
553	0.071
554	0.071
554	0.07
555	0.068
555	0.067
556	0.066
556	0.065
556	0.064
557	0.063
557	0.062
558	0.061
558	0.06
559	0.059
559	0.059
560	0.059
560	0.058
560	0.058
561	0.058
561	0.058
562	0.058
562	0.057
563	0.056
563	0.055
564	0.054
564	0.053
564	0.052
565	0.052
565	0.051
566	0.05
566	0.049
567	0.049
567	0.05
568	0.05
568	0.05
568	0.051
569	0.052
569	0.053
570	0.053
570	0.052
571	0.052
571	0.053
572	0.053
572	0.052
573	0.052
573	0.051
573	0.05
574	0.05
574	0.05
575	0.05
575	0.052
576	0.053
576	0.051
577	0.049
577	0.049
577	0.049
578	0.049
578	0.049
579	0.051
579	0.052
580	0.05
580	0.046
581	0.043
581	0.042
581	0.042
582	0.043
582	0.043
583	0.044
583	0.043
584	0.039
584	0.035
585	0.035
585	0.036
585	0.037
586	0.037
586	0.037
587	0.035
587	0.033
588	0.031
588	0.03
589	0.03
589	0.031
590	0.032
590	0.032
590	0.035
591	0.036
591	0.036
592	0.035
592	0.034
593	0.034
593	0.035
594	0.034
594	0.032
594	0.031
595	0.031
595	0.029
596	0.028
596	0.03
597	0.034
597	0.035
598	0.035
598	0.036
598	0.037
599	0.037
599	0.037
600	0.036
600	0.035
601	0.034
601	0.034
602	0.032
602	0.032
602	0.031
603	0.032
603	0.034
604	0.035
604	0.036
605	0.038
605	0.04
606	0.04
606	0.039
606	0.039
607	0.038
607	0.038
608	0.037
608	0.035
609	0.033
609	0.033
610	0.032
610	0.03
610	0.031
611	0.032
611	0.034
612	0.035
612	0.037
613	0.038
613	0.039
614	0.039
614	0.037
614	0.037
615	0.036
615	0.035
616	0.035
616	0.033
617	0.032
617	0.031
618	0.03
618	0.029
618	0.03
619	0.031
619	0.032
620	0.035
620	0.036
621	0.036
621	0.037
622	0.037
622	0.037
622	0.037
623	0.036
623	0.037
624	0.037
624	0.036
625	0.035
625	0.035
626	0.034
626	0.034
626	0.035
627	0.036
627	0.036
628	0.037
628	0.037
629	0.037
629	0.038
630	0.037
630	0.037
630	0.038
631	0.039
631	0.039
632	0.039
632	0.039
633	0.04
633	0.041
634	0.042
634	0.044
634	0.045
635	0.045
635	0.046
636	0.046
636	0.047
637	0.047
637	0.047
638	0.048
638	0.049
638	0.05
639	0.05
639	0.05
640	0.051
640	0.052
641	0.053
641	0.054
642	0.056
642	0.057
642	0.058
643	0.058
643	0.059
644	0.06
644	0.061
645	0.062
645	0.063
646	0.065
646	0.066
646	0.068
647	0.071
647	0.073
648	0.074
648	0.076
649	0.077
649	0.079
650	0.081
650	0.082
650	0.083
651	0.084
651	0.085
652	0.086
652	0.087
653	0.089
653	0.097
653	0.113
654	0.092
654	0.077
655	0.074
655	0.075
656	0.076
656	0.077
657	0.078
657	0.079
657	0.079
658	0.076
658	0.063
659	0.079
659	0.101
660	0.111
660	0.112
661	0.113
661	0.115
661	0.117
662	0.119
662	0.122
663	0.124
663	0.126
664	0.128
664	0.129
665	0.131
665	0.133
665	0.134
666	0.135
666	0.136
667	0.136
667	0.137
668	0.138
668	0.139
669	0.141
669	0.143
669	0.146
670	0.149
670	0.15
671	0.152
671	0.153
672	0.155
672	0.156
672	0.158
673	0.159
673	0.161
674	0.162
674	0.162
675	0.162
675	0.164
676	0.166
676	0.168
676	0.168
677	0.17
677	0.171
678	0.171
678	0.171
679	0.171
679	0.172
680	0.173
680	0.174
680	0.174
681	0.174
681	0.175
682	0.176
682	0.176
683	0.177
683	0.179
684	0.18
684	0.18
684	0.179
685	0.18
685	0.18
686	0.181
686	0.181
687	0.18
687	0.18
687	0.18
688	0.18
688	0.179
689	0.18
689	0.181
690	0.18
690	0.179
691	0.178
691	0.177
691	0.176
692	0.175
692	0.173
693	0.173
693	0.173
694	0.172
694	0.171
695	0.172
695	0.174
695	0.174
696	0.173
696	0.172
697	0.172
697	0.171
698	0.17
698	0.169
698	0.168
699	0.167
699	0.165
700	0.162
700	0.162
701	0.162
701	0.161
702	0.16
702	0.159
702	0.158
703	0.157
703	0.156
704	0.155
704	0.155
705	0.154
705	0.153
705	0.151
706	0.15
706	0.149
707	0.148
707	0.146
708	0.145
708	0.143
709	0.143
709	0.141
709	0.138
710	0.136
710	0.135
711	0.134
711	0.133
712	0.131
712	0.13
713	0.129
713	0.128
713	0.126
714	0.124
714	0.122
715	0.121
715	0.12
716	0.118
716	0.117
716	0.115
717	0.114
717	0.113
718	0.111
718	0.11
719	0.11
719	0.11
720	0.109
720	0.107
720	0.106
721	0.104
721	0.104
722	0.103
722	0.102
723	0.101
723	0.101
723	0.1
724	0.098
724	0.097
725	0.096
725	0.095
726	0.094
726	0.093
727	0.091
727	0.09
727	0.089
728	0.087
728	0.086
729	0.087
729	0.086
730	0.085
730	0.084
730	0.083
731	0.082
731	0.081
732	0.08
732	0.079
733	0.076
733	0.075
734	0.073
734	0.071
734	0.07
735	0.07
735	0.068
736	0.067
736	0.066
737	0.066
737	0.066
737	0.065
738	0.063
738	0.06
739	0.059
739	0.057
740	0.055
740	0.054
741	0.053
741	0.051
741	0.048
742	0.046
742	0.045
743	0.045
743	0.045
744	0.045
744	0.045
744	0.044
745	0.043
745	0.042
746	0.041
746	0.04
747	0.039
747	0.039
748	0.038
748	0.037
748	0.035
749	0.034
749	0.033
750	0.032
750	0.031
751	0.031
751	0.031
751	0.032
752	0.032
752	0.031
753	0.031
753	0.032
754	0.032
754	0.032
754	0.032
755	0.032
755	0.032
756	0.031
756	0.029
757	0.027
757	0.027
758	0.025
758	0.024
758	0.023
759	0.022
759	0.019
760	0.017
760	0.014
761	0.013
761	0.013
761	0.012
762	0.01
762	0.01
763	0.01
763	0.008
764	0.006
764	0.004
764	0.003
765	0.001
765	-0
766	-0.001
766	-0.002
767	-0.003
767	-0.006
768	-0.008
768	-0.009
768	-0.01
769	-0.01
769	-0.01
770	-0.011
770	-0.013
771	-0.015
771	-0.017
771	-0.019
772	-0.021
772	-0.023
773	-0.025
773	-0.028
774	-0.031
774	-0.033
775	-0.036
775	-0.038
775	-0.041
776	-0.044
776	-0.047
777	-0.049
777	-0.051
778	-0.054
778	-0.056
778	-0.058
779	-0.06
779	-0.061
780	-0.064
780	-0.066
781	-0.069
781	-0.072
781	-0.076
782	-0.081
782	-0.087
783	-0.092
783	-0.098
784	-0.105
784	-0.112
784	-0.118
785	-0.125
785	-0.132
786	-0.137
786	-0.139
787	-0.139
787	-0.139
788	-0.142
788	-0.146
788	-0.149
789	-0.152
789	-0.152
790	-0.15
790	-0.149
791	-0.15
791	-0.152
791	-0.155
792	-0.149
792	-0.138
793	-0.133
793	-0.129
794	-0.127
794	-0.129
794	-0.133
795	-0.136
795	-0.136
796	-0.137
796	-0.14
797	-0.149
797	-0.16
797	-0.166
798	-0.171
798	-0.174
799	-0.174
799	-0.174
800	-0.173
800	-0.175
801	-0.177
801	-0.178
801	-0.178
802	-0.18
802	-0.181
803	-0.182
803	-0.182
804	-0.181
804	-0.176
804	-0.17
805	-0.166
805	-0.164
806	-0.162
806	-0.16
807	-0.159
807	-0.159
807	-0.159
808	-0.159
808	-0.16
809	-0.165
809	-0.171
810	-0.174
810	-0.178
810	-0.181
811	-0.184
811	-0.185
812	-0.181
812	-0.178
813	-0.178
813	-0.178
813	-0.179
814	-0.179
814	-0.179
815	-0.175
815	-0.172
816	-0.169
816	-0.169
817	-0.171
817	-0.171
817	-0.168
818	-0.162
818	-0.155
819	-0.147
819	-0.14
820	-0.135
820	-0.13
820	-0.123
821	-0.114
821	-0.106
822	-0.098
822	-0.092
823	-0.086
823	-0.083
823	-0.079
824	-0.075
824	-0.071
825	-0.067
825	-0.063
826	-0.06
826	-0.059
826	-0.057
827	-0.054
827	-0.053
828	-0.051
828	-0.049
829	-0.048
829	-0.046
829	-0.046
830	-0.045
830	-0.044
831	-0.041
831	-0.04
832	-0.039
832	-0.037
832	-0.035
833	-0.034
833	-0.032
834	-0.031
834	-0.029
835	-0.027
835	-0.026
835	-0.024
836	-0.023
836	-0.021
837	-0.02
837	-0.019
838	-0.018
838	-0.017
839	-0.016
839	-0.016
839	-0.016
840	-0.015
840	-0.015
841	-0.015
841	-0.014
842	-0.014
842	-0.014
842	-0.013
843	-0.013
843	-0.012
844	-0.012
844	-0.011
845	-0.01
845	-0.009
845	-0.008
846	-0.008
846	-0.008
847	-0.008
847	-0.008
848	-0.008
848	-0.008
848	-0.009
849	-0.009
849	-0.01
850	-0.01
850	-0.011
851	-0.012
851	-0.012
851	-0.012
852	-0.013
852	-0.013
853	-0.013
853	-0.013
854	-0.014
854	-0.014
854	-0.014
855	-0.015
855	-0.015
856	-0.016
856	-0.016
857	-0.016
857	-0.016
857	-0.016
858	-0.016
858	-0.017
859	-0.018
859	-0.018
860	-0.018
860	-0.018
860	-0.019
861	-0.019
861	-0.019
862	-0.02
862	-0.021
863	-0.021
863	-0.021
863	-0.021
864	-0.021
864	-0.021
865	-0.02
865	-0.019
866	-0.019
866	-0.018
866	-0.016
867	-0.015
867	-0.013
868	-0.012
868	-0.01
869	-0.008
869	-0.006
869	-0.005
870	-0.004
870	-0.004
871	-0.003
871	-0.004
872	-0.004
872	-0.005
872	-0.007
873	-0.008
873	-0.009
874	-0.011
874	-0.012
875	-0.012
875	-0.013
875	-0.014
876	-0.014
876	-0.014
877	-0.014
877	-0.014
878	-0.014
878	-0.014
878	-0.014
879	-0.014
879	-0.015
880	-0.015
880	-0.015
881	-0.015
881	-0.015
881	-0.015
882	-0.015
882	-0.016
883	-0.016
883	-0.017
884	-0.017
884	-0.017
884	-0.017
885	-0.017
885	-0.017
886	-0.016
886	-0.015
887	-0.014
887	-0.013
887	-0.012
888	-0.011
888	-0.01
889	-0.009
889	-0.008
890	-0.007
890	-0.007
890	-0.008
891	-0.008
891	-0.009
892	-0.01
892	-0.011
893	-0.011
893	-0.012
893	-0.013
894	-0.013
894	-0.014
895	-0.015
895	-0.015
895	-0.016
896	-0.017
896	-0.018
897	-0.018
897	-0.019
898	-0.019
898	-0.019
898	-0.019
899	-0.018
899	-0.018
900	-0.017
900	-0.015
901	-0.013
901	-0.012
901	-0.01
902	-0.008
902	-0.007
903	-0.007
903	-0.006
904	-0.005
904	-0.005
904	-0.005
905	-0.004
905	-0.004
906	-0.004
906	-0.004
907	-0.004
907	-0.005
907	-0.005
908	-0.005
908	-0.006
909	-0.006
909	-0.007
910	-0.008
910	-0.008
910	-0.008
911	-0.009
911	-0.008
912	-0.008
912	-0.008
913	-0.007
913	-0.007
913	-0.007
914	-0.007
914	-0.008
915	-0.009
915	-0.009
916	-0.01
916	-0.011
916	-0.012
917	-0.013
917	-0.014
918	-0.014
918	-0.015
918	-0.015
919	-0.015
919	-0.015
920	-0.015
920	-0.015
921	-0.014
921	-0.015
921	-0.014
922	-0.014
922	-0.013
923	-0.013
923	-0.013
924	-0.012
924	-0.012
924	-0.013
925	-0.013
925	-0.014
926	-0.014
926	-0.015
927	-0.015
927	-0.016
927	-0.016
928	-0.017
928	-0.017
929	-0.017
929	-0.017
930	-0.017
930	-0.017
930	-0.017
931	-0.018
931	-0.017
932	-0.018
932	-0.018
933	-0.019
933	-0.019
933	-0.02
934	-0.021
934	-0.022
935	-0.023
935	-0.024
935	-0.025
936	-0.026
936	-0.026
937	-0.027
937	-0.027
938	-0.028
938	-0.028
938	-0.028
939	-0.027
939	-0.026
940	-0.026
940	-0.025
941	-0.023
941	-0.022
941	-0.021
942	-0.02
942	-0.019
943	-0.018
943	-0.018
944	-0.018
944	-0.018
944	-0.018
945	-0.018
945	-0.018
946	-0.018
946	-0.019
946	-0.02
947	-0.02
947	-0.021
948	-0.021
948	-0.022
949	-0.023
949	-0.023
949	-0.023
950	-0.024
950	-0.024
951	-0.024
951	-0.024
952	-0.024
952	-0.023
952	-0.023
953	-0.022
953	-0.022
954	-0.022
954	-0.022
955	-0.022
955	-0.022
955	-0.022
956	-0.021
956	-0.021
957	-0.021
957	-0.021
957	-0.021
958	-0.021
958	-0.021
959	-0.021
959	-0.021
960	-0.022
960	-0.022
960	-0.023
961	-0.024
961	-0.024
962	-0.025
962	-0.025
963	-0.025
963	-0.025
963	-0.025
964	-0.025
964	-0.024
965	-0.024
965	-0.023
966	-0.022
966	-0.021
966	-0.02
967	-0.019
967	-0.019
968	-0.019
968	-0.019
968	-0.019
969	-0.019
969	-0.02
970	-0.021
970	-0.022
971	-0.023
971	-0.024
971	-0.025
972	-0.026
972	-0.027
973	-0.027
973	-0.028
974	-0.028
974	-0.029
974	-0.029
975	-0.028
975	-0.028
976	-0.028
976	-0.027
976	-0.028
977	-0.028
977	-0.029
978	-0.03
978	-0.03
979	-0.031
979	-0.032
979	-0.033
980	-0.033
980	-0.034
981	-0.035
981	-0.036
982	-0.036
982	-0.037
982	-0.037
983	-0.037
983	-0.038
984	-0.038
984	-0.038
984	-0.038
985	-0.037
985	-0.037
986	-0.037
986	-0.037
987	-0.036
987	-0.035
987	-0.034
988	-0.033
988	-0.032
989	-0.031
989	-0.03
990	-0.029
990	-0.028
990	-0.026
991	-0.025
991	-0.024
992	-0.022
992	-0.021
992	-0.02
993	-0.02
993	-0.019
994	-0.019
994	-0.019
995	-0.019
995	-0.02
995	-0.021
996	-0.021
996	-0.022
997	-0.023
997	-0.023
997	-0.023
998	-0.023
998	-0.023
999	-0.023
999	-0.022
1000	-0.022
1000	-0.022
1000	-0.022
1001	-0.022
1001	-0.022
1002	-0.022
1002	-0.023
1003	-0.023
1003	-0.023
1003	-0.024
1004	-0.025
1004	-0.025
1005	-0.026
1005	-0.027
1005	-0.028
1006	-0.029
1006	-0.03
1007	-0.031
1007	-0.032
1008	-0.033
1008	-0.034
1008	-0.035
1009	-0.035
1009	-0.035
1010	-0.035
1010	-0.035
1010	-0.035
1011	-0.035
1011	-0.035
1012	-0.035
1012	-0.034
1013	-0.035
1013	-0.035
1013	-0.035
1014	-0.036
1014	-0.036
1015	-0.037
1015	-0.037
1016	-0.038
1016	-0.038
1016	-0.038
1017	-0.039
1017	-0.039
1018	-0.039
1018	-0.039
1018	-0.039
1019	-0.039
1019	-0.039
1020	-0.039
1020	-0.039
1021	-0.039
1021	-0.039
1021	-0.039
1022	-0.04
1022	-0.04
1023	-0.04
1023	-0.041
1023	-0.041
1024	-0.042
1024	-0.043
1025	-0.043
1025	-0.044
1026	-0.044
1026	-0.045
1026	-0.045
1027	-0.045
1027	-0.045
1028	-0.045
1028	-0.045
1028	-0.045
1029	-0.045
1029	-0.044
1030	-0.044
1030	-0.043
1031	-0.043
1031	-0.042
1031	-0.041
1032	-0.041
1032	-0.041
1033	-0.04
1033	-0.04
1033	-0.04
1034	-0.04
1034	-0.041
1035	-0.041
1035	-0.042
1036	-0.042
1036	-0.042
1036	-0.043
1037	-0.043
1037	-0.043
1038	-0.043
1038	-0.042
1039	-0.041
1039	-0.041
1039	-0.04
1040	-0.04
1040	-0.039
1041	-0.039
1041	-0.038
1041	-0.038
1042	-0.038
1042	-0.038
1043	-0.038
1043	-0.038
1044	-0.039
1044	-0.039
1044	-0.039
1045	-0.04
1045	-0.04
1046	-0.041
1046	-0.042
1046	-0.042
1047	-0.042
1047	-0.042
1048	-0.042
1048	-0.043
1049	-0.043
1049	-0.044
1049	-0.045
1050	-0.046
1050	-0.047
1051	-0.048
1051	-0.049
1051	-0.05
1052	-0.051
1052	-0.052
1053	-0.052
1053	-0.053
1053	-0.053
1054	-0.054
1054	-0.053
1055	-0.053
1055	-0.053
1056	-0.053
1056	-0.053
1056	-0.054
1057	-0.055
1057	-0.055
1058	-0.055
1058	-0.055
1058	-0.055
1059	-0.056
1059	-0.056
1060	-0.056
1060	-0.056
1061	-0.055
1061	-0.054
1061	-0.054
1062	-0.054
1062	-0.054
1063	-0.053
1063	-0.053
1063	-0.053
1064	-0.052
1064	-0.052
1065	-0.052
1065	-0.052
1066	-0.051
1066	-0.051
1066	-0.05
1067	-0.05
1067	-0.05
1068	-0.05
1068	-0.05
1068	-0.049
1069	-0.049
1069	-0.05
1070	-0.05
1070	-0.05
1071	-0.05
1071	-0.051
1071	-0.052
1072	-0.052
1072	-0.052
1073	-0.053
1073	-0.053
1073	-0.054
1074	-0.054
1074	-0.054
1075	-0.055
1075	-0.055
1076	-0.056
1076	-0.055
1076	-0.056
1077	-0.056
1077	-0.057
1078	-0.057
1078	-0.057
1078	-0.056
1079	-0.056
1079	-0.055
1080	-0.055
1080	-0.054
1080	-0.054
1081	-0.053
1081	-0.052
1082	-0.051
1082	-0.051
1083	-0.051
1083	-0.051
1083	-0.051
1084	-0.05
1084	-0.049
1085	-0.049
1085	-0.048
1085	-0.047
1086	-0.046
1086	-0.046
1087	-0.046
1087	-0.045
1088	-0.045
1088	-0.045
1088	-0.045
1089	-0.046
1089	-0.046
1090	-0.046
1090	-0.045
1090	-0.045
1091	-0.045
1091	-0.044
1092	-0.044
1092	-0.041
1092	-0.04
1093	-0.039
1093	-0.035
1094	-0.034
1094	-0.032
1095	-0.031
1095	-0.03
1095	-0.028
1096	-0.026
1096	-0.024
1097	-0.022
1097	-0.022
1097	-0.02
1098	-0.019
1098	-0.017
1099	-0.014
1099	-0.011
1100	-0.008
1100	-0.006
1100	-0.003
1101	0.001
1101	0.003
1102	0.008
1102	0.013
1102	0.018
1103	0.022
1103	0.028
1104	0.034
1104	0.04
1104	0.049
1105	0.058
1105	0.063
1106	0.069
1106	0.079
1107	0.088
1107	0.101
1107	0.116
1108	0.174
1108	0.256
1109	0.385
1109	0.645
1109	0.945
1110	-0
1110	-0
1111	-0
1111	-0
