Data from 15c-2a-fridge-noshake_Absorbance__138__06375.txt Node

Date: Wed Jan 17 18:41:58 CET 2024
User: Marek
Spectrometer: MAYP115816
Trigger mode: 0
Integration Time (sec): 2.000000E-1
Scans to average: 10
Electric dark correction enabled: true
Nonlinearity correction enabled: true
Boxcar width: 5
XAxis mode: Wavelengths
Number of Pixels in Spectrum: 2068
>>>>>Begin Spectral Data<<<<<
199	-1.673
199	-1.535
200	-1.376
200	-1.254
201	-1.178
201	-1.13
202	-1.061
202	-1.011
203	-0.966
203	-0.926
204	-0.902
204	-0.878
205	-0.855
205	-0.845
205	-0.844
206	-0.844
206	-0.839
207	-0.838
207	-0.834
208	-0.831
208	-0.831
209	-0.827
209	-0.826
210	-0.825
210	-0.826
211	-0.824
211	-0.823
212	-0.825
212	-0.823
213	-0.823
213	-0.822
213	-0.821
214	-0.82
214	-0.819
215	-0.818
215	-0.817
216	-0.817
216	-0.815
217	-0.81
217	-0.808
218	-0.807
218	-0.804
219	-0.802
219	-0.801
220	-0.798
220	-0.795
221	-0.791
221	-0.788
221	-0.783
222	-0.78
222	-0.776
223	-0.771
223	-0.768
224	-0.763
224	-0.756
225	-0.748
225	-0.741
226	-0.732
226	-0.72
227	-0.708
227	-0.696
228	-0.68
228	-0.663
229	-0.643
229	-0.619
229	-0.594
230	-0.566
230	-0.536
231	-0.503
231	-0.469
232	-0.435
232	-0.397
233	-0.359
233	-0.319
234	-0.28
234	-0.242
235	-0.206
235	-0.171
236	-0.138
236	-0.107
236	-0.078
237	-0.051
237	-0.027
238	-0.005
238	0.016
239	0.034
239	0.051
240	0.065
240	0.078
241	0.09
241	0.1
242	0.109
242	0.118
243	0.125
243	0.132
243	0.138
244	0.143
244	0.148
245	0.152
245	0.156
246	0.16
246	0.164
247	0.167
247	0.17
248	0.173
248	0.176
249	0.179
249	0.181
250	0.183
250	0.185
250	0.188
251	0.189
251	0.191
252	0.193
252	0.194
253	0.196
253	0.197
254	0.198
254	0.199
255	0.2
255	0.202
256	0.202
256	0.203
257	0.203
257	0.204
258	0.205
258	0.205
258	0.205
259	0.205
259	0.205
260	0.205
260	0.205
261	0.205
261	0.205
262	0.204
262	0.204
263	0.203
263	0.203
264	0.202
264	0.202
265	0.201
265	0.2
265	0.199
266	0.198
266	0.197
267	0.196
267	0.195
268	0.194
268	0.192
269	0.191
269	0.189
270	0.188
270	0.187
271	0.185
271	0.183
272	0.182
272	0.18
272	0.179
273	0.177
273	0.175
274	0.174
274	0.172
275	0.171
275	0.17
276	0.168
276	0.167
277	0.166
277	0.164
278	0.163
278	0.161
278	0.159
279	0.157
279	0.154
280	0.152
280	0.15
281	0.148
281	0.146
282	0.144
282	0.142
283	0.141
283	0.139
284	0.139
284	0.138
285	0.137
285	0.136
285	0.135
286	0.134
286	0.133
287	0.132
287	0.132
288	0.13
288	0.129
289	0.128
289	0.127
290	0.126
290	0.125
291	0.124
291	0.124
292	0.123
292	0.122
292	0.121
293	0.12
293	0.12
294	0.119
294	0.119
295	0.118
295	0.118
296	0.117
296	0.117
297	0.116
297	0.116
298	0.116
298	0.116
298	0.115
299	0.115
299	0.115
300	0.115
300	0.115
301	0.115
301	0.114
302	0.114
302	0.114
303	0.114
303	0.114
304	0.114
304	0.113
305	0.113
305	0.113
305	0.113
306	0.113
306	0.113
307	0.112
307	0.112
308	0.112
308	0.112
309	0.112
309	0.112
310	0.111
310	0.111
311	0.111
311	0.111
311	0.111
312	0.111
312	0.111
313	0.11
313	0.11
314	0.11
314	0.11
315	0.11
315	0.109
316	0.109
316	0.109
317	0.109
317	0.108
318	0.108
318	0.108
318	0.108
319	0.108
319	0.107
320	0.107
320	0.107
321	0.107
321	0.106
322	0.106
322	0.105
323	0.105
323	0.105
324	0.104
324	0.104
324	0.104
325	0.103
325	0.103
326	0.103
326	0.102
327	0.102
327	0.102
328	0.102
328	0.101
329	0.101
329	0.101
330	0.1
330	0.1
330	0.1
331	0.099
331	0.099
332	0.099
332	0.098
333	0.098
333	0.098
334	0.097
334	0.097
335	0.097
335	0.096
336	0.096
336	0.096
336	0.095
337	0.095
337	0.095
338	0.094
338	0.094
339	0.094
339	0.093
340	0.093
340	0.093
341	0.092
341	0.092
342	0.092
342	0.091
342	0.091
343	0.091
343	0.091
344	0.09
344	0.09
345	0.09
345	0.089
346	0.089
346	0.089
347	0.089
347	0.088
348	0.088
348	0.088
348	0.088
349	0.087
349	0.087
350	0.087
350	0.086
351	0.086
351	0.086
352	0.085
352	0.085
353	0.085
353	0.085
354	0.084
354	0.084
354	0.083
355	0.083
355	0.082
356	0.082
356	0.082
357	0.081
357	0.081
358	0.08
358	0.08
359	0.08
359	0.081
360	0.081
360	0.081
360	0.081
361	0.081
361	0.081
362	0.082
362	0.082
363	0.082
363	0.082
364	0.082
364	0.082
365	0.082
365	0.081
366	0.081
366	0.081
366	0.081
367	0.081
367	0.081
368	0.081
368	0.081
369	0.081
369	0.081
370	0.081
370	0.081
371	0.081
371	0.08
372	0.08
372	0.08
372	0.08
373	0.08
373	0.08
374	0.08
374	0.081
375	0.081
375	0.081
376	0.081
376	0.081
377	0.081
377	0.081
378	0.081
378	0.081
378	0.082
379	0.082
379	0.082
380	0.082
380	0.082
381	0.082
381	0.082
382	0.082
382	0.082
383	0.082
383	0.081
383	0.081
384	0.081
384	0.081
385	0.081
385	0.081
386	0.081
386	0.081
387	0.081
387	0.081
388	0.081
388	0.081
389	0.081
389	0.081
389	0.081
390	0.081
390	0.082
391	0.082
391	0.082
392	0.082
392	0.082
393	0.082
393	0.082
394	0.082
394	0.082
394	0.082
395	0.082
395	0.082
396	0.082
396	0.082
397	0.082
397	0.082
398	0.082
398	0.083
399	0.083
399	0.083
400	0.083
400	0.082
400	0.082
401	0.082
401	0.081
402	0.081
402	0.081
403	0.081
403	0.081
404	0.081
404	0.081
405	0.081
405	0.081
405	0.081
406	0.081
406	0.081
407	0.081
407	0.081
408	0.08
408	0.08
409	0.08
409	0.08
410	0.08
410	0.08
411	0.08
411	0.08
411	0.08
412	0.08
412	0.08
413	0.079
413	0.079
414	0.079
414	0.079
415	0.079
415	0.079
416	0.078
416	0.078
416	0.078
417	0.078
417	0.078
418	0.078
418	0.079
419	0.079
419	0.079
420	0.08
420	0.08
421	0.081
421	0.081
421	0.081
422	0.082
422	0.082
423	0.082
423	0.082
424	0.082
424	0.081
425	0.081
425	0.081
426	0.081
426	0.08
427	0.08
427	0.08
427	0.08
428	0.081
428	0.081
429	0.081
429	0.081
430	0.081
430	0.08
431	0.08
431	0.08
432	0.08
432	0.079
432	0.079
433	0.078
433	0.078
434	0.078
434	0.078
435	0.078
435	0.078
436	0.078
436	0.078
437	0.078
437	0.078
437	0.078
438	0.078
438	0.078
439	0.078
439	0.078
440	0.078
440	0.078
441	0.078
441	0.078
442	0.078
442	0.078
442	0.078
443	0.078
443	0.078
444	0.078
444	0.078
445	0.078
445	0.078
446	0.078
446	0.078
447	0.078
447	0.078
447	0.078
448	0.078
448	0.077
449	0.077
449	0.077
450	0.077
450	0.077
451	0.077
451	0.077
452	0.077
452	0.077
452	0.077
453	0.077
453	0.077
454	0.077
454	0.077
455	0.077
455	0.077
456	0.076
456	0.076
457	0.076
457	0.076
458	0.075
458	0.075
458	0.075
459	0.075
459	0.075
460	0.074
460	0.073
461	0.073
461	0.073
462	0.073
462	0.073
463	0.073
463	0.073
463	0.074
464	0.074
464	0.074
465	0.074
465	0.074
466	0.074
466	0.074
467	0.074
467	0.074
467	0.073
468	0.073
468	0.072
469	0.071
469	0.071
470	0.071
470	0.071
471	0.071
471	0.07
472	0.07
472	0.07
472	0.07
473	0.071
473	0.071
474	0.071
474	0.072
475	0.072
475	0.072
476	0.072
476	0.072
477	0.072
477	0.072
477	0.072
478	0.072
478	0.072
479	0.072
479	0.072
480	0.072
480	0.072
481	0.072
481	0.072
482	0.073
482	0.073
482	0.074
483	0.075
483	0.077
484	0.077
484	0.077
485	0.077
485	0.077
486	0.077
486	0.077
487	0.077
487	0.077
487	0.077
488	0.076
488	0.075
489	0.074
489	0.075
490	0.075
490	0.075
491	0.076
491	0.076
492	0.076
492	0.076
492	0.076
493	0.076
493	0.076
494	0.077
494	0.078
495	0.078
495	0.078
496	0.079
496	0.079
496	0.08
497	0.081
497	0.081
498	0.081
498	0.081
499	0.081
499	0.082
500	0.082
500	0.083
501	0.083
501	0.083
501	0.084
502	0.084
502	0.085
503	0.086
503	0.086
504	0.086
504	0.086
505	0.086
505	0.085
506	0.086
506	0.086
506	0.085
507	0.085
507	0.085
508	0.086
508	0.086
509	0.087
509	0.087
510	0.088
510	0.088
511	0.088
511	0.089
511	0.089
512	0.089
512	0.089
513	0.089
513	0.089
514	0.089
514	0.089
515	0.089
515	0.089
515	0.089
516	0.089
516	0.089
517	0.09
517	0.09
518	0.09
518	0.09
519	0.09
519	0.09
520	0.089
520	0.089
520	0.089
521	0.088
521	0.087
522	0.086
522	0.086
523	0.085
523	0.085
524	0.085
524	0.085
524	0.085
525	0.086
525	0.087
526	0.088
526	0.089
527	0.09
527	0.091
528	0.091
528	0.092
529	0.093
529	0.093
529	0.094
530	0.095
530	0.095
531	0.096
531	0.097
532	0.097
532	0.098
533	0.099
533	0.099
533	0.099
534	0.099
534	0.099
535	0.099
535	0.1
536	0.1
536	0.1
537	0.101
537	0.101
538	0.101
538	0.101
538	0.102
539	0.102
539	0.103
540	0.103
540	0.103
541	0.102
541	0.103
542	0.102
542	0.103
542	0.103
543	0.103
543	0.103
544	0.103
544	0.103
545	0.104
545	0.105
546	0.106
546	0.106
547	0.105
547	0.105
547	0.104
548	0.105
548	0.105
549	0.105
549	0.105
550	0.105
550	0.105
551	0.105
551	0.105
551	0.106
552	0.107
552	0.107
553	0.108
553	0.109
554	0.109
554	0.109
555	0.108
555	0.108
556	0.107
556	0.107
556	0.106
557	0.106
557	0.106
558	0.106
558	0.106
559	0.106
559	0.106
560	0.107
560	0.107
560	0.107
561	0.108
561	0.109
562	0.109
562	0.108
563	0.107
563	0.106
564	0.106
564	0.105
564	0.105
565	0.105
565	0.105
566	0.105
566	0.105
567	0.105
567	0.107
568	0.108
568	0.109
568	0.11
569	0.112
569	0.113
570	0.113
570	0.113
571	0.114
571	0.115
572	0.115
572	0.115
573	0.115
573	0.115
573	0.114
574	0.114
574	0.114
575	0.115
575	0.117
576	0.118
576	0.117
577	0.116
577	0.116
577	0.116
578	0.116
578	0.117
579	0.118
579	0.12
580	0.118
580	0.115
581	0.112
581	0.111
581	0.111
582	0.112
582	0.112
583	0.113
583	0.112
584	0.109
584	0.105
585	0.105
585	0.107
585	0.107
586	0.108
586	0.107
587	0.106
587	0.104
588	0.102
588	0.101
589	0.101
589	0.101
590	0.101
590	0.102
590	0.104
591	0.105
591	0.105
592	0.104
592	0.103
593	0.103
593	0.103
594	0.102
594	0.101
594	0.1
595	0.099
595	0.098
596	0.096
596	0.097
597	0.1
597	0.101
598	0.101
598	0.102
598	0.103
599	0.103
599	0.103
600	0.102
600	0.101
601	0.1
601	0.099
602	0.098
602	0.097
602	0.097
603	0.097
603	0.099
604	0.1
604	0.101
605	0.103
605	0.104
606	0.104
606	0.103
606	0.102
607	0.101
607	0.101
608	0.1
608	0.097
609	0.096
609	0.095
610	0.094
610	0.092
610	0.092
611	0.093
611	0.094
612	0.095
612	0.096
613	0.097
613	0.098
614	0.097
614	0.095
614	0.094
615	0.093
615	0.092
616	0.091
616	0.089
617	0.088
617	0.086
618	0.084
618	0.083
618	0.083
619	0.083
619	0.084
620	0.086
620	0.086
621	0.086
621	0.086
622	0.086
622	0.086
622	0.085
623	0.084
623	0.085
624	0.084
624	0.083
625	0.082
625	0.081
626	0.08
626	0.08
626	0.08
627	0.08
627	0.08
628	0.08
628	0.08
629	0.079
629	0.079
630	0.078
630	0.077
630	0.078
631	0.078
631	0.078
632	0.077
632	0.077
633	0.078
633	0.078
634	0.079
634	0.08
634	0.08
635	0.08
635	0.08
636	0.08
636	0.08
637	0.079
637	0.079
638	0.079
638	0.079
638	0.079
639	0.079
639	0.079
640	0.08
640	0.08
641	0.08
641	0.081
642	0.081
642	0.082
642	0.082
643	0.082
643	0.082
644	0.083
644	0.083
645	0.083
645	0.084
646	0.085
646	0.086
646	0.088
647	0.089
647	0.09
648	0.091
648	0.092
649	0.093
649	0.094
650	0.095
650	0.096
650	0.097
651	0.098
651	0.098
652	0.099
652	0.099
653	0.101
653	0.108
653	0.124
654	0.101
654	0.083
655	0.079
655	0.079
656	0.08
656	0.08
657	0.081
657	0.081
657	0.081
658	0.076
658	0.062
659	0.078
659	0.1
660	0.109
660	0.11
661	0.111
661	0.112
661	0.114
662	0.117
662	0.119
663	0.121
663	0.123
664	0.124
664	0.125
665	0.127
665	0.128
665	0.129
666	0.129
666	0.129
667	0.129
667	0.129
668	0.13
668	0.131
669	0.132
669	0.133
669	0.136
670	0.138
670	0.139
671	0.139
671	0.14
672	0.141
672	0.142
672	0.143
673	0.144
673	0.145
674	0.145
674	0.145
675	0.145
675	0.146
676	0.148
676	0.149
676	0.15
677	0.151
677	0.152
678	0.153
678	0.153
679	0.154
679	0.155
680	0.156
680	0.157
680	0.157
681	0.157
681	0.158
682	0.159
682	0.16
683	0.161
683	0.162
684	0.163
684	0.162
684	0.162
685	0.162
685	0.163
686	0.164
686	0.164
687	0.164
687	0.165
687	0.165
688	0.165
688	0.165
689	0.166
689	0.168
690	0.167
690	0.166
691	0.166
691	0.166
691	0.165
692	0.164
692	0.164
693	0.164
693	0.165
694	0.164
694	0.162
695	0.164
695	0.166
695	0.166
696	0.165
696	0.165
697	0.164
697	0.164
698	0.163
698	0.162
698	0.161
699	0.162
699	0.16
700	0.158
700	0.159
701	0.16
701	0.16
702	0.16
702	0.16
702	0.16
703	0.16
703	0.159
704	0.159
704	0.16
705	0.16
705	0.16
705	0.16
706	0.16
706	0.16
707	0.16
707	0.159
708	0.158
708	0.158
709	0.158
709	0.156
709	0.154
710	0.152
710	0.152
711	0.151
711	0.151
712	0.15
712	0.149
713	0.149
713	0.148
713	0.146
714	0.145
714	0.144
715	0.144
715	0.143
716	0.142
716	0.142
716	0.142
717	0.142
717	0.142
718	0.142
718	0.141
719	0.142
719	0.142
720	0.141
720	0.14
720	0.14
721	0.138
721	0.138
722	0.137
722	0.136
723	0.136
723	0.135
723	0.135
724	0.134
724	0.133
725	0.132
725	0.131
726	0.131
726	0.13
727	0.129
727	0.129
727	0.128
728	0.128
728	0.127
729	0.129
729	0.129
730	0.129
730	0.128
730	0.128
731	0.128
731	0.128
732	0.128
732	0.127
733	0.126
733	0.125
734	0.124
734	0.123
734	0.122
735	0.123
735	0.122
736	0.121
736	0.12
737	0.12
737	0.121
737	0.121
738	0.119
738	0.117
739	0.117
739	0.116
740	0.114
740	0.114
741	0.113
741	0.111
741	0.109
742	0.106
742	0.105
743	0.105
743	0.104
744	0.104
744	0.103
744	0.103
745	0.102
745	0.101
746	0.101
746	0.1
747	0.1
747	0.101
748	0.101
748	0.1
748	0.099
749	0.098
749	0.098
750	0.097
750	0.097
751	0.097
751	0.097
751	0.098
752	0.097
752	0.096
753	0.096
753	0.096
754	0.096
754	0.096
754	0.097
755	0.098
755	0.098
756	0.098
756	0.096
757	0.095
757	0.095
758	0.094
758	0.093
758	0.093
759	0.092
759	0.089
760	0.087
760	0.085
761	0.083
761	0.083
761	0.082
762	0.081
762	0.081
763	0.081
763	0.079
764	0.077
764	0.075
764	0.074
765	0.072
765	0.07
766	0.069
766	0.069
767	0.067
767	0.064
768	0.061
768	0.059
768	0.058
769	0.057
769	0.057
770	0.055
770	0.054
771	0.052
771	0.05
771	0.047
772	0.046
772	0.044
773	0.042
773	0.039
774	0.036
774	0.033
775	0.03
775	0.027
775	0.023
776	0.019
776	0.016
777	0.012
777	0.009
778	0.006
778	0.002
778	-0.001
779	-0.003
779	-0.005
780	-0.009
780	-0.014
781	-0.018
781	-0.023
781	-0.029
782	-0.036
782	-0.044
783	-0.051
783	-0.058
784	-0.066
784	-0.075
784	-0.083
785	-0.092
785	-0.1
786	-0.108
786	-0.114
787	-0.116
787	-0.12
788	-0.126
788	-0.133
788	-0.138
789	-0.144
789	-0.147
790	-0.147
790	-0.148
791	-0.15
791	-0.152
791	-0.154
792	-0.149
792	-0.138
793	-0.132
793	-0.129
794	-0.127
794	-0.129
794	-0.133
795	-0.136
795	-0.136
796	-0.137
796	-0.14
797	-0.149
797	-0.16
797	-0.166
798	-0.171
798	-0.174
799	-0.174
799	-0.174
800	-0.173
800	-0.174
801	-0.177
801	-0.178
801	-0.178
802	-0.18
802	-0.181
803	-0.182
803	-0.182
804	-0.181
804	-0.176
804	-0.17
805	-0.166
805	-0.164
806	-0.162
806	-0.16
807	-0.159
807	-0.159
807	-0.159
808	-0.159
808	-0.16
809	-0.165
809	-0.171
810	-0.174
810	-0.177
810	-0.181
811	-0.184
811	-0.185
812	-0.181
812	-0.178
813	-0.178
813	-0.178
813	-0.179
814	-0.179
814	-0.178
815	-0.175
815	-0.172
816	-0.167
816	-0.164
817	-0.162
817	-0.158
817	-0.151
818	-0.141
818	-0.129
819	-0.116
819	-0.105
820	-0.095
820	-0.084
820	-0.074
821	-0.063
821	-0.054
822	-0.046
822	-0.039
823	-0.032
823	-0.028
823	-0.024
824	-0.02
824	-0.015
825	-0.01
825	-0.005
826	-0.002
826	0
826	0.003
827	0.005
827	0.007
828	0.01
828	0.011
829	0.014
829	0.015
829	0.016
830	0.017
830	0.018
831	0.021
831	0.022
832	0.023
832	0.024
832	0.025
833	0.027
833	0.028
834	0.029
834	0.03
835	0.032
835	0.033
835	0.035
836	0.036
836	0.038
837	0.039
837	0.04
838	0.041
838	0.042
839	0.042
839	0.043
839	0.043
840	0.043
840	0.043
841	0.044
841	0.044
842	0.045
842	0.046
842	0.047
843	0.048
843	0.048
844	0.049
844	0.05
845	0.051
845	0.051
845	0.052
846	0.052
846	0.051
847	0.051
847	0.05
848	0.049
848	0.049
848	0.048
849	0.047
849	0.046
850	0.046
850	0.045
851	0.044
851	0.045
851	0.045
852	0.045
852	0.045
853	0.046
853	0.046
854	0.046
854	0.047
854	0.047
855	0.047
855	0.046
856	0.046
856	0.045
857	0.045
857	0.044
857	0.044
858	0.044
858	0.044
859	0.043
859	0.043
860	0.043
860	0.043
860	0.043
861	0.043
861	0.043
862	0.042
862	0.042
863	0.041
863	0.041
863	0.041
864	0.041
864	0.041
865	0.041
865	0.042
866	0.042
866	0.042
866	0.043
867	0.045
867	0.046
868	0.047
868	0.049
869	0.05
869	0.051
869	0.051
870	0.052
870	0.052
871	0.052
871	0.052
872	0.051
872	0.05
872	0.049
873	0.048
873	0.047
874	0.046
874	0.046
875	0.046
875	0.046
875	0.046
876	0.047
876	0.047
877	0.048
877	0.048
878	0.048
878	0.049
878	0.049
879	0.048
879	0.048
880	0.047
880	0.046
881	0.045
881	0.044
881	0.043
882	0.042
882	0.041
883	0.04
883	0.039
884	0.039
884	0.039
884	0.039
885	0.039
885	0.039
886	0.04
886	0.041
887	0.042
887	0.042
887	0.043
888	0.043
888	0.044
889	0.044
889	0.045
890	0.045
890	0.045
890	0.045
891	0.044
891	0.044
892	0.044
892	0.043
893	0.043
893	0.042
893	0.042
894	0.041
894	0.04
895	0.039
895	0.039
895	0.037
896	0.036
896	0.035
897	0.035
897	0.034
898	0.034
898	0.034
898	0.034
899	0.034
899	0.035
900	0.036
900	0.037
901	0.039
901	0.04
901	0.041
902	0.043
902	0.044
903	0.044
903	0.045
904	0.045
904	0.046
904	0.046
905	0.047
905	0.047
906	0.047
906	0.047
907	0.047
907	0.047
907	0.046
908	0.046
908	0.046
909	0.045
909	0.044
910	0.044
910	0.043
910	0.043
911	0.042
911	0.042
912	0.043
912	0.043
913	0.043
913	0.044
913	0.044
914	0.044
914	0.044
915	0.044
915	0.044
916	0.043
916	0.042
916	0.041
917	0.04
917	0.039
918	0.038
918	0.038
918	0.037
919	0.037
919	0.037
920	0.037
920	0.038
921	0.039
921	0.039
921	0.04
922	0.041
922	0.042
923	0.042
923	0.043
924	0.043
924	0.044
924	0.043
925	0.043
925	0.042
926	0.042
926	0.041
927	0.04
927	0.038
927	0.038
928	0.036
928	0.035
929	0.034
929	0.033
930	0.032
930	0.032
930	0.031
931	0.03
931	0.03
932	0.03
932	0.03
933	0.03
933	0.03
933	0.03
934	0.029
934	0.029
935	0.028
935	0.028
935	0.027
936	0.026
936	0.025
937	0.025
937	0.024
938	0.024
938	0.023
938	0.023
939	0.023
939	0.023
940	0.024
940	0.024
941	0.025
941	0.026
941	0.026
942	0.027
942	0.028
943	0.029
943	0.029
944	0.03
944	0.03
944	0.03
945	0.03
945	0.031
946	0.031
946	0.03
946	0.03
947	0.03
947	0.029
948	0.028
948	0.028
949	0.027
949	0.027
949	0.027
950	0.026
950	0.026
951	0.026
951	0.025
952	0.025
952	0.025
952	0.025
953	0.025
953	0.025
954	0.024
954	0.024
955	0.023
955	0.023
955	0.023
956	0.023
956	0.023
957	0.022
957	0.022
957	0.021
958	0.021
958	0.02
959	0.02
959	0.02
960	0.019
960	0.018
960	0.017
961	0.016
961	0.016
962	0.015
962	0.014
963	0.014
963	0.013
963	0.013
964	0.013
964	0.014
965	0.014
965	0.015
966	0.016
966	0.017
966	0.018
967	0.019
967	0.02
968	0.02
968	0.02
968	0.02
969	0.02
969	0.019
970	0.019
970	0.018
971	0.017
971	0.016
971	0.016
972	0.016
972	0.015
973	0.015
973	0.015
974	0.015
974	0.014
974	0.014
975	0.014
975	0.014
976	0.014
976	0.014
976	0.013
977	0.012
977	0.011
978	0.009
978	0.008
979	0.007
979	0.006
979	0.005
980	0.004
980	0.004
981	0.003
981	0.003
982	0.003
982	0.003
982	0.004
983	0.004
983	0.004
984	0.005
984	0.005
984	0.005
985	0.005
985	0.005
986	0.005
986	0.005
987	0.005
987	0.006
987	0.007
988	0.008
988	0.009
989	0.01
989	0.011
990	0.013
990	0.015
990	0.017
991	0.019
991	0.021
992	0.023
992	0.024
992	0.025
993	0.025
993	0.026
994	0.026
994	0.026
995	0.026
995	0.025
995	0.024
996	0.023
996	0.021
997	0.02
997	0.019
997	0.018
998	0.017
998	0.017
999	0.016
999	0.016
1000	0.016
1000	0.015
1000	0.015
1001	0.015
1001	0.015
1002	0.015
1002	0.015
1003	0.015
1003	0.015
1003	0.015
1004	0.015
1004	0.014
1005	0.014
1005	0.013
1005	0.012
1006	0.012
1006	0.011
1007	0.01
1007	0.009
1008	0.008
1008	0.008
1008	0.007
1009	0.007
1009	0.007
1010	0.007
1010	0.008
1010	0.008
1011	0.008
1011	0.008
1012	0.008
1012	0.008
1013	0.008
1013	0.007
1013	0.006
1014	0.005
1014	0.004
1015	0.003
1015	0.002
1016	0.002
1016	0.001
1016	0.001
1017	-0
1017	-0
1018	0
1018	0
1018	0.001
1019	0.001
1019	0.002
1020	0.002
1020	0.002
1021	0.003
1021	0.003
1021	0.003
1022	0.003
1022	0.003
1023	0.003
1023	0.003
1023	0.002
1024	0.001
1024	0
1025	-0.001
1025	-0.002
1026	-0.004
1026	-0.005
1026	-0.006
1027	-0.007
1027	-0.007
1028	-0.007
1028	-0.007
1028	-0.007
1029	-0.007
1029	-0.007
1030	-0.007
1030	-0.007
1031	-0.006
1031	-0.006
1031	-0.006
1032	-0.006
1032	-0.006
1033	-0.006
1033	-0.006
1033	-0.006
1034	-0.007
1034	-0.008
1035	-0.008
1035	-0.009
1036	-0.01
1036	-0.01
1036	-0.011
1037	-0.011
1037	-0.011
1038	-0.011
1038	-0.011
1039	-0.01
1039	-0.01
1039	-0.01
1040	-0.01
1040	-0.009
1041	-0.009
1041	-0.009
1041	-0.009
1042	-0.009
1042	-0.009
1043	-0.009
1043	-0.01
1044	-0.01
1044	-0.011
1044	-0.01
1045	-0.011
1045	-0.011
1046	-0.012
1046	-0.012
1046	-0.013
1047	-0.013
1047	-0.012
1048	-0.012
1048	-0.012
1049	-0.013
1049	-0.014
1049	-0.014
1050	-0.015
1050	-0.016
1051	-0.017
1051	-0.017
1051	-0.018
1052	-0.019
1052	-0.019
1053	-0.02
1053	-0.02
1053	-0.021
1054	-0.021
1054	-0.02
1055	-0.02
1055	-0.02
1056	-0.021
1056	-0.021
1056	-0.022
1057	-0.023
1057	-0.023
1058	-0.024
1058	-0.025
1058	-0.026
1059	-0.027
1059	-0.028
1060	-0.028
1060	-0.027
1061	-0.027
1061	-0.026
1061	-0.025
1062	-0.025
1062	-0.024
1063	-0.024
1063	-0.023
1063	-0.022
1064	-0.022
1064	-0.021
1065	-0.021
1065	-0.021
1066	-0.02
1066	-0.02
1066	-0.019
1067	-0.019
1067	-0.018
1068	-0.018
1068	-0.017
1068	-0.017
1069	-0.017
1069	-0.018
1070	-0.018
1070	-0.019
1071	-0.018
1071	-0.018
1071	-0.019
1072	-0.019
1072	-0.019
1073	-0.019
1073	-0.019
1073	-0.019
1074	-0.018
1074	-0.017
1075	-0.018
1075	-0.018
1076	-0.019
1076	-0.018
1076	-0.019
1077	-0.02
1077	-0.02
1078	-0.021
1078	-0.021
1078	-0.02
1079	-0.021
1079	-0.02
1080	-0.02
1080	-0.02
1080	-0.02
1081	-0.019
1081	-0.018
1082	-0.017
1082	-0.017
1083	-0.016
1083	-0.016
1083	-0.015
1084	-0.015
1084	-0.014
1085	-0.013
1085	-0.013
1085	-0.012
1086	-0.011
1086	-0.011
1087	-0.011
1087	-0.01
1088	-0.011
1088	-0.011
1088	-0.01
1089	-0.011
1089	-0.01
1090	-0.01
1090	-0.01
1090	-0.009
1091	-0.008
1091	-0.006
1092	-0.005
1092	-0.002
1092	-0.001
1093	0.001
1093	0.004
1094	0.007
1094	0.008
1095	0.009
1095	0.01
1095	0.013
1096	0.014
1096	0.015
1097	0.017
1097	0.018
1097	0.019
1098	0.02
1098	0.022
1099	0.024
1099	0.027
1100	0.03
1100	0.033
1100	0.036
1101	0.039
1101	0.043
1102	0.049
1102	0.054
1102	0.06
1103	0.065
1103	0.073
1104	0.081
1104	0.089
1104	0.1
1105	0.11
1105	0.118
1106	0.124
1106	0.136
1107	0.145
1107	0.162
1107	0.181
1108	0.249
1108	0.351
1109	0.526
1109	0.965
1109	-0
1110	-0
1110	-0
1111	-0
1111	-0
