Data from 15c-2a-fridge-noshake_Absorbance__388__06625.txt Node

Date: Wed Jan 17 18:50:18 CET 2024
User: Marek
Spectrometer: MAYP115816
Trigger mode: 0
Integration Time (sec): 2.000000E-1
Scans to average: 10
Electric dark correction enabled: true
Nonlinearity correction enabled: true
Boxcar width: 5
XAxis mode: Wavelengths
Number of Pixels in Spectrum: 2068
>>>>>Begin Spectral Data<<<<<
199	-1.608
199	-1.472
200	-1.315
200	-1.194
201	-1.119
201	-1.073
202	-1.006
202	-0.957
203	-0.913
203	-0.876
204	-0.852
204	-0.829
205	-0.807
205	-0.797
205	-0.796
206	-0.795
206	-0.791
207	-0.789
207	-0.784
208	-0.783
208	-0.783
209	-0.779
209	-0.778
210	-0.777
210	-0.778
211	-0.776
211	-0.776
212	-0.777
212	-0.777
213	-0.777
213	-0.776
213	-0.775
214	-0.773
214	-0.773
215	-0.772
215	-0.771
216	-0.773
216	-0.771
217	-0.766
217	-0.764
218	-0.764
218	-0.76
219	-0.757
219	-0.757
220	-0.754
220	-0.752
221	-0.748
221	-0.745
221	-0.74
222	-0.737
222	-0.733
223	-0.728
223	-0.726
224	-0.722
224	-0.714
225	-0.706
225	-0.698
226	-0.689
226	-0.677
227	-0.665
227	-0.653
228	-0.638
228	-0.621
229	-0.602
229	-0.578
229	-0.553
230	-0.526
230	-0.497
231	-0.465
231	-0.432
232	-0.398
232	-0.362
233	-0.324
233	-0.286
234	-0.249
234	-0.212
235	-0.178
235	-0.145
236	-0.114
236	-0.085
236	-0.057
237	-0.032
237	-0.01
238	0.011
238	0.029
239	0.046
239	0.061
240	0.074
240	0.086
241	0.096
241	0.105
242	0.113
242	0.121
243	0.128
243	0.134
243	0.139
244	0.144
244	0.149
245	0.152
245	0.156
246	0.159
246	0.163
247	0.166
247	0.168
248	0.171
248	0.174
249	0.176
249	0.178
250	0.18
250	0.182
250	0.184
251	0.186
251	0.188
252	0.19
252	0.191
253	0.192
253	0.193
254	0.194
254	0.196
255	0.197
255	0.198
256	0.198
256	0.199
257	0.199
257	0.2
258	0.2
258	0.2
258	0.2
259	0.2
259	0.2
260	0.2
260	0.2
261	0.199
261	0.199
262	0.199
262	0.198
263	0.198
263	0.197
264	0.196
264	0.196
265	0.195
265	0.194
265	0.193
266	0.192
266	0.191
267	0.19
267	0.188
268	0.187
268	0.186
269	0.184
269	0.183
270	0.181
270	0.18
271	0.178
271	0.176
272	0.175
272	0.173
272	0.172
273	0.17
273	0.168
274	0.167
274	0.165
275	0.164
275	0.162
276	0.161
276	0.159
277	0.158
277	0.156
278	0.155
278	0.153
278	0.151
279	0.148
279	0.146
280	0.144
280	0.141
281	0.139
281	0.137
282	0.135
282	0.133
283	0.131
283	0.13
284	0.129
284	0.128
285	0.127
285	0.126
285	0.125
286	0.124
286	0.123
287	0.122
287	0.121
288	0.12
288	0.119
289	0.118
289	0.117
290	0.116
290	0.114
291	0.114
291	0.113
292	0.112
292	0.111
292	0.11
293	0.109
293	0.109
294	0.108
294	0.108
295	0.107
295	0.107
296	0.106
296	0.106
297	0.106
297	0.105
298	0.105
298	0.105
298	0.104
299	0.104
299	0.104
300	0.104
300	0.103
301	0.103
301	0.103
302	0.102
302	0.102
303	0.102
303	0.102
304	0.102
304	0.102
305	0.102
305	0.101
305	0.101
306	0.101
306	0.101
307	0.101
307	0.101
308	0.101
308	0.1
309	0.1
309	0.1
310	0.1
310	0.1
311	0.1
311	0.099
311	0.099
312	0.099
312	0.099
313	0.098
313	0.098
314	0.098
314	0.098
315	0.097
315	0.097
316	0.097
316	0.097
317	0.096
317	0.096
318	0.096
318	0.096
318	0.095
319	0.095
319	0.095
320	0.095
320	0.094
321	0.094
321	0.094
322	0.094
322	0.093
323	0.093
323	0.092
324	0.092
324	0.092
324	0.091
325	0.091
325	0.091
326	0.09
326	0.09
327	0.09
327	0.09
328	0.089
328	0.089
329	0.088
329	0.088
330	0.088
330	0.087
330	0.087
331	0.087
331	0.086
332	0.086
332	0.086
333	0.085
333	0.085
334	0.085
334	0.084
335	0.084
335	0.084
336	0.083
336	0.083
336	0.083
337	0.083
337	0.082
338	0.082
338	0.082
339	0.081
339	0.081
340	0.08
340	0.08
341	0.08
341	0.08
342	0.079
342	0.079
342	0.079
343	0.079
343	0.078
344	0.078
344	0.078
345	0.078
345	0.078
346	0.077
346	0.077
347	0.077
347	0.076
348	0.076
348	0.076
348	0.076
349	0.075
349	0.075
350	0.075
350	0.074
351	0.074
351	0.074
352	0.074
352	0.073
353	0.073
353	0.073
354	0.072
354	0.072
354	0.071
355	0.071
355	0.071
356	0.071
356	0.07
357	0.07
357	0.069
358	0.069
358	0.069
359	0.069
359	0.069
360	0.069
360	0.069
360	0.07
361	0.07
361	0.07
362	0.07
362	0.07
363	0.07
363	0.07
364	0.07
364	0.07
365	0.07
365	0.07
366	0.069
366	0.069
366	0.069
367	0.069
367	0.07
368	0.069
368	0.069
369	0.069
369	0.069
370	0.069
370	0.069
371	0.069
371	0.069
372	0.069
372	0.069
372	0.069
373	0.069
373	0.069
374	0.069
374	0.069
375	0.069
375	0.069
376	0.069
376	0.069
377	0.069
377	0.07
378	0.07
378	0.07
378	0.07
379	0.07
379	0.07
380	0.07
380	0.071
381	0.071
381	0.07
382	0.07
382	0.07
383	0.07
383	0.07
383	0.07
384	0.069
384	0.069
385	0.069
385	0.069
386	0.069
386	0.07
387	0.07
387	0.07
388	0.07
388	0.07
389	0.07
389	0.07
389	0.07
390	0.07
390	0.07
391	0.07
391	0.07
392	0.07
392	0.07
393	0.07
393	0.07
394	0.07
394	0.07
394	0.07
395	0.07
395	0.07
396	0.07
396	0.07
397	0.07
397	0.07
398	0.07
398	0.07
399	0.071
399	0.071
400	0.071
400	0.07
400	0.07
401	0.07
401	0.07
402	0.069
402	0.069
403	0.069
403	0.069
404	0.069
404	0.069
405	0.069
405	0.069
405	0.069
406	0.069
406	0.069
407	0.069
407	0.069
408	0.069
408	0.069
409	0.068
409	0.068
410	0.069
410	0.069
411	0.069
411	0.069
411	0.069
412	0.069
412	0.068
413	0.068
413	0.068
414	0.068
414	0.068
415	0.068
415	0.067
416	0.067
416	0.067
416	0.067
417	0.067
417	0.067
418	0.067
418	0.067
419	0.068
419	0.068
420	0.069
420	0.069
421	0.069
421	0.07
421	0.07
422	0.07
422	0.07
423	0.07
423	0.07
424	0.07
424	0.069
425	0.069
425	0.069
426	0.069
426	0.069
427	0.069
427	0.069
427	0.069
428	0.069
428	0.069
429	0.069
429	0.069
430	0.069
430	0.069
431	0.069
431	0.068
432	0.068
432	0.068
432	0.068
433	0.067
433	0.067
434	0.067
434	0.067
435	0.068
435	0.067
436	0.067
436	0.067
437	0.067
437	0.067
437	0.067
438	0.067
438	0.067
439	0.067
439	0.067
440	0.067
440	0.067
441	0.067
441	0.067
442	0.067
442	0.067
442	0.067
443	0.067
443	0.067
444	0.067
444	0.067
445	0.067
445	0.067
446	0.067
446	0.067
447	0.067
447	0.067
447	0.067
448	0.067
448	0.066
449	0.066
449	0.066
450	0.066
450	0.066
451	0.066
451	0.066
452	0.066
452	0.066
452	0.066
453	0.066
453	0.066
454	0.066
454	0.066
455	0.066
455	0.066
456	0.065
456	0.065
457	0.065
457	0.065
458	0.065
458	0.065
458	0.065
459	0.065
459	0.064
460	0.063
460	0.063
461	0.063
461	0.063
462	0.063
462	0.063
463	0.063
463	0.063
463	0.064
464	0.064
464	0.063
465	0.063
465	0.064
466	0.064
466	0.064
467	0.064
467	0.064
467	0.063
468	0.062
468	0.062
469	0.061
469	0.061
470	0.061
470	0.061
471	0.061
471	0.06
472	0.06
472	0.06
472	0.061
473	0.061
473	0.061
474	0.062
474	0.062
475	0.062
475	0.062
476	0.063
476	0.063
477	0.062
477	0.062
477	0.062
478	0.062
478	0.062
479	0.062
479	0.061
480	0.061
480	0.061
481	0.062
481	0.062
482	0.062
482	0.063
482	0.064
483	0.065
483	0.066
484	0.067
484	0.067
485	0.066
485	0.067
486	0.067
486	0.066
487	0.066
487	0.066
487	0.066
488	0.065
488	0.064
489	0.064
489	0.065
490	0.065
490	0.065
491	0.065
491	0.066
492	0.066
492	0.066
492	0.066
493	0.066
493	0.066
494	0.067
494	0.068
495	0.068
495	0.068
496	0.069
496	0.069
496	0.07
497	0.071
497	0.071
498	0.071
498	0.071
499	0.071
499	0.072
500	0.072
500	0.073
501	0.073
501	0.074
501	0.074
502	0.074
502	0.075
503	0.075
503	0.076
504	0.075
504	0.075
505	0.075
505	0.075
506	0.075
506	0.075
506	0.075
507	0.075
507	0.075
508	0.076
508	0.076
509	0.077
509	0.078
510	0.078
510	0.079
511	0.079
511	0.079
511	0.079
512	0.079
512	0.079
513	0.079
513	0.079
514	0.079
514	0.079
515	0.079
515	0.078
515	0.078
516	0.078
516	0.079
517	0.08
517	0.079
518	0.08
518	0.079
519	0.079
519	0.079
520	0.079
520	0.078
520	0.078
521	0.077
521	0.076
522	0.075
522	0.074
523	0.074
523	0.074
524	0.074
524	0.075
524	0.075
525	0.076
525	0.076
526	0.077
526	0.078
527	0.079
527	0.08
528	0.08
528	0.081
529	0.081
529	0.081
529	0.082
530	0.083
530	0.083
531	0.084
531	0.084
532	0.084
532	0.085
533	0.085
533	0.086
533	0.086
534	0.085
534	0.085
535	0.085
535	0.086
536	0.086
536	0.085
537	0.086
537	0.086
538	0.085
538	0.085
538	0.086
539	0.086
539	0.087
540	0.086
540	0.086
541	0.086
541	0.086
542	0.086
542	0.086
542	0.086
543	0.086
543	0.086
544	0.086
544	0.086
545	0.087
545	0.088
546	0.089
546	0.089
547	0.089
547	0.088
547	0.087
548	0.088
548	0.088
549	0.087
549	0.088
550	0.087
550	0.087
551	0.087
551	0.087
551	0.088
552	0.088
552	0.089
553	0.09
553	0.091
554	0.091
554	0.09
555	0.089
555	0.089
556	0.088
556	0.088
556	0.087
557	0.087
557	0.087
558	0.087
558	0.086
559	0.086
559	0.087
560	0.087
560	0.087
560	0.087
561	0.088
561	0.089
562	0.088
562	0.088
563	0.087
563	0.086
564	0.086
564	0.085
564	0.085
565	0.085
565	0.085
566	0.085
566	0.085
567	0.085
567	0.087
568	0.088
568	0.088
568	0.09
569	0.091
569	0.092
570	0.092
570	0.091
571	0.092
571	0.093
572	0.093
572	0.093
573	0.093
573	0.092
573	0.091
574	0.091
574	0.091
575	0.092
575	0.094
576	0.095
576	0.094
577	0.092
577	0.092
577	0.093
578	0.093
578	0.094
579	0.096
579	0.097
580	0.096
580	0.092
581	0.089
581	0.089
581	0.089
582	0.089
582	0.09
583	0.091
583	0.09
584	0.087
584	0.083
585	0.083
585	0.085
585	0.085
586	0.086
586	0.086
587	0.084
587	0.082
588	0.08
588	0.079
589	0.079
589	0.08
590	0.081
590	0.081
590	0.083
591	0.085
591	0.085
592	0.085
592	0.083
593	0.084
593	0.084
594	0.083
594	0.082
594	0.08
595	0.08
595	0.078
596	0.077
596	0.078
597	0.081
597	0.082
598	0.082
598	0.083
598	0.084
599	0.084
599	0.084
600	0.083
600	0.082
601	0.082
601	0.081
602	0.079
602	0.079
602	0.079
603	0.079
603	0.081
604	0.082
604	0.083
605	0.085
605	0.087
606	0.087
606	0.086
606	0.085
607	0.084
607	0.084
608	0.083
608	0.081
609	0.079
609	0.079
610	0.078
610	0.076
610	0.076
611	0.078
611	0.079
612	0.08
612	0.082
613	0.083
613	0.084
614	0.083
614	0.081
614	0.08
615	0.08
615	0.079
616	0.078
616	0.076
617	0.075
617	0.073
618	0.072
618	0.071
618	0.071
619	0.071
619	0.073
620	0.075
620	0.075
621	0.075
621	0.076
622	0.075
622	0.075
622	0.075
623	0.074
623	0.074
624	0.074
624	0.073
625	0.071
625	0.071
626	0.071
626	0.07
626	0.07
627	0.071
627	0.07
628	0.071
628	0.07
629	0.07
629	0.07
630	0.069
630	0.069
630	0.07
631	0.07
631	0.071
632	0.07
632	0.07
633	0.071
633	0.072
634	0.073
634	0.073
634	0.074
635	0.074
635	0.074
636	0.074
636	0.074
637	0.074
637	0.074
638	0.074
638	0.074
638	0.075
639	0.075
639	0.075
640	0.076
640	0.076
641	0.077
641	0.077
642	0.078
642	0.079
642	0.079
643	0.079
643	0.079
644	0.08
644	0.08
645	0.081
645	0.081
646	0.082
646	0.084
646	0.085
647	0.087
647	0.088
648	0.089
648	0.09
649	0.091
649	0.093
650	0.094
650	0.095
650	0.096
651	0.096
651	0.097
652	0.098
652	0.098
653	0.1
653	0.108
653	0.124
654	0.101
654	0.083
655	0.079
655	0.08
656	0.08
656	0.081
657	0.081
657	0.082
657	0.082
658	0.078
658	0.064
659	0.08
659	0.103
660	0.113
660	0.114
661	0.115
661	0.116
661	0.118
662	0.121
662	0.123
663	0.125
663	0.126
664	0.128
664	0.129
665	0.13
665	0.131
665	0.132
666	0.133
666	0.133
667	0.133
667	0.134
668	0.135
668	0.136
669	0.137
669	0.139
669	0.142
670	0.144
670	0.145
671	0.146
671	0.147
672	0.149
672	0.15
672	0.151
673	0.152
673	0.153
674	0.153
674	0.153
675	0.153
675	0.154
676	0.156
676	0.158
676	0.158
677	0.159
677	0.161
678	0.161
678	0.161
679	0.162
679	0.163
680	0.164
680	0.165
680	0.165
681	0.165
681	0.166
682	0.167
682	0.167
683	0.168
683	0.169
684	0.17
684	0.169
684	0.169
685	0.169
685	0.17
686	0.171
686	0.171
687	0.172
687	0.172
687	0.172
688	0.172
688	0.172
689	0.173
689	0.174
690	0.174
690	0.173
691	0.172
691	0.172
691	0.171
692	0.17
692	0.169
693	0.169
693	0.17
694	0.169
694	0.167
695	0.169
695	0.171
695	0.17
696	0.169
696	0.169
697	0.168
697	0.167
698	0.167
698	0.165
698	0.165
699	0.165
699	0.163
700	0.161
700	0.162
701	0.163
701	0.163
702	0.162
702	0.162
702	0.162
703	0.161
703	0.16
704	0.16
704	0.16
705	0.16
705	0.159
705	0.159
706	0.158
706	0.158
707	0.157
707	0.156
708	0.155
708	0.155
709	0.154
709	0.153
709	0.15
710	0.149
710	0.148
711	0.148
711	0.147
712	0.146
712	0.146
713	0.145
713	0.144
713	0.142
714	0.141
714	0.14
715	0.139
715	0.138
716	0.137
716	0.137
716	0.136
717	0.136
717	0.135
718	0.134
718	0.134
719	0.134
719	0.134
720	0.134
720	0.133
720	0.132
721	0.13
721	0.129
722	0.129
722	0.127
723	0.127
723	0.127
723	0.126
724	0.125
724	0.124
725	0.122
725	0.121
726	0.121
726	0.12
727	0.119
727	0.118
727	0.118
728	0.116
728	0.116
729	0.117
729	0.117
730	0.117
730	0.116
730	0.116
731	0.116
731	0.115
732	0.115
732	0.114
733	0.113
733	0.112
734	0.111
734	0.109
734	0.109
735	0.109
735	0.107
736	0.106
736	0.106
737	0.105
737	0.106
737	0.105
738	0.103
738	0.101
739	0.1
739	0.099
740	0.097
740	0.096
741	0.095
741	0.094
741	0.091
742	0.088
742	0.088
743	0.088
743	0.087
744	0.087
744	0.088
744	0.087
745	0.086
745	0.085
746	0.085
746	0.085
747	0.084
747	0.085
748	0.084
748	0.084
748	0.082
749	0.081
749	0.08
750	0.08
750	0.079
751	0.079
751	0.079
751	0.08
752	0.079
752	0.078
753	0.078
753	0.078
754	0.078
754	0.078
754	0.079
755	0.08
755	0.08
756	0.08
756	0.078
757	0.077
757	0.077
758	0.076
758	0.075
758	0.074
759	0.073
759	0.071
760	0.068
760	0.066
761	0.064
761	0.064
761	0.063
762	0.061
762	0.061
763	0.061
763	0.059
764	0.057
764	0.056
764	0.054
765	0.053
765	0.051
766	0.051
766	0.051
767	0.05
767	0.047
768	0.044
768	0.042
768	0.042
769	0.041
769	0.041
770	0.039
770	0.038
771	0.036
771	0.034
771	0.032
772	0.03
772	0.028
773	0.026
773	0.024
774	0.021
774	0.018
775	0.016
775	0.013
775	0.009
776	0.006
776	0.004
777	0.001
777	-0.002
778	-0.005
778	-0.008
778	-0.011
779	-0.012
779	-0.014
780	-0.018
780	-0.022
781	-0.025
781	-0.03
781	-0.035
782	-0.041
782	-0.048
783	-0.054
783	-0.06
784	-0.067
784	-0.075
784	-0.082
785	-0.089
785	-0.096
786	-0.103
786	-0.108
787	-0.111
787	-0.115
788	-0.121
788	-0.128
788	-0.135
789	-0.141
789	-0.144
790	-0.145
790	-0.148
791	-0.15
791	-0.152
791	-0.155
792	-0.15
792	-0.139
793	-0.133
793	-0.129
794	-0.127
794	-0.13
794	-0.134
795	-0.136
795	-0.136
796	-0.137
796	-0.14
797	-0.149
797	-0.16
797	-0.166
798	-0.172
798	-0.174
799	-0.175
799	-0.174
800	-0.173
800	-0.175
801	-0.178
801	-0.178
801	-0.179
802	-0.18
802	-0.182
803	-0.182
803	-0.183
804	-0.182
804	-0.176
804	-0.17
805	-0.166
805	-0.164
806	-0.162
806	-0.161
807	-0.16
807	-0.159
807	-0.159
808	-0.159
808	-0.16
809	-0.165
809	-0.171
810	-0.175
810	-0.178
810	-0.181
811	-0.185
811	-0.185
812	-0.181
812	-0.178
813	-0.178
813	-0.179
813	-0.179
814	-0.18
814	-0.179
815	-0.176
815	-0.172
816	-0.168
816	-0.164
817	-0.163
817	-0.159
817	-0.152
818	-0.143
818	-0.131
819	-0.12
819	-0.109
820	-0.1
820	-0.09
820	-0.08
821	-0.071
821	-0.062
822	-0.055
822	-0.049
823	-0.043
823	-0.039
823	-0.036
824	-0.032
824	-0.028
825	-0.023
825	-0.019
826	-0.016
826	-0.015
826	-0.013
827	-0.01
827	-0.008
828	-0.006
828	-0.005
829	-0.003
829	-0.001
829	-0
830	0
830	0.002
831	0.004
831	0.006
832	0.007
832	0.008
832	0.009
833	0.011
833	0.012
834	0.013
834	0.015
835	0.016
835	0.017
835	0.019
836	0.02
836	0.021
837	0.022
837	0.023
838	0.023
838	0.024
839	0.024
839	0.024
839	0.024
840	0.025
840	0.025
841	0.025
841	0.026
842	0.027
842	0.028
842	0.029
843	0.029
843	0.03
844	0.031
844	0.031
845	0.032
845	0.032
845	0.033
846	0.033
846	0.032
847	0.032
847	0.031
848	0.031
848	0.03
848	0.03
849	0.029
849	0.029
850	0.028
850	0.027
851	0.027
851	0.027
851	0.027
852	0.026
852	0.027
853	0.027
853	0.027
854	0.027
854	0.027
854	0.028
855	0.027
855	0.027
856	0.026
856	0.026
857	0.026
857	0.025
857	0.025
858	0.025
858	0.025
859	0.024
859	0.024
860	0.024
860	0.024
860	0.023
861	0.023
861	0.023
862	0.022
862	0.021
863	0.02
863	0.02
863	0.02
864	0.02
864	0.02
865	0.021
865	0.021
866	0.021
866	0.022
866	0.023
867	0.025
867	0.026
868	0.027
868	0.028
869	0.03
869	0.031
869	0.031
870	0.032
870	0.032
871	0.032
871	0.032
872	0.031
872	0.03
872	0.029
873	0.028
873	0.027
874	0.027
874	0.026
875	0.026
875	0.026
875	0.027
876	0.027
876	0.027
877	0.028
877	0.029
878	0.029
878	0.029
878	0.029
879	0.029
879	0.028
880	0.027
880	0.026
881	0.025
881	0.024
881	0.023
882	0.022
882	0.021
883	0.02
883	0.019
884	0.019
884	0.018
884	0.018
885	0.018
885	0.019
886	0.019
886	0.02
887	0.02
887	0.021
887	0.022
888	0.022
888	0.023
889	0.024
889	0.024
890	0.025
890	0.025
890	0.025
891	0.025
891	0.025
892	0.024
892	0.024
893	0.023
893	0.023
893	0.022
894	0.022
894	0.021
895	0.02
895	0.019
895	0.018
896	0.017
896	0.016
897	0.016
897	0.015
898	0.015
898	0.015
898	0.015
899	0.015
899	0.016
900	0.017
900	0.018
901	0.019
901	0.021
901	0.022
902	0.023
902	0.024
903	0.025
903	0.025
904	0.026
904	0.026
904	0.027
905	0.027
905	0.027
906	0.027
906	0.027
907	0.027
907	0.027
907	0.027
908	0.027
908	0.026
909	0.026
909	0.025
910	0.024
910	0.024
910	0.023
911	0.023
911	0.023
912	0.024
912	0.024
913	0.024
913	0.025
913	0.025
914	0.026
914	0.026
915	0.025
915	0.025
916	0.024
916	0.024
916	0.023
917	0.022
917	0.021
918	0.021
918	0.02
918	0.019
919	0.019
919	0.019
920	0.02
920	0.02
921	0.021
921	0.021
921	0.022
922	0.023
922	0.023
923	0.024
923	0.025
924	0.025
924	0.025
924	0.025
925	0.024
925	0.024
926	0.023
926	0.022
927	0.021
927	0.02
927	0.019
928	0.018
928	0.018
929	0.017
929	0.016
930	0.015
930	0.015
930	0.015
931	0.014
931	0.014
932	0.014
932	0.014
933	0.014
933	0.014
933	0.014
934	0.013
934	0.013
935	0.012
935	0.011
935	0.01
936	0.009
936	0.008
937	0.008
937	0.007
938	0.006
938	0.005
938	0.005
939	0.005
939	0.005
940	0.005
940	0.006
941	0.007
941	0.007
941	0.008
942	0.009
942	0.01
943	0.01
943	0.011
944	0.011
944	0.011
944	0.011
945	0.011
945	0.011
946	0.011
946	0.011
946	0.01
947	0.01
947	0.01
948	0.009
948	0.009
949	0.008
949	0.008
949	0.009
950	0.009
950	0.009
951	0.009
951	0.009
952	0.008
952	0.009
952	0.009
953	0.009
953	0.009
954	0.009
954	0.008
955	0.007
955	0.007
955	0.006
956	0.007
956	0.007
957	0.006
957	0.006
957	0.005
958	0.005
958	0.005
959	0.005
959	0.005
960	0.004
960	0.004
960	0.003
961	0.002
961	0.001
962	0.001
962	0
963	-0
963	-0.001
963	-0.001
964	-0.001
964	-0
965	0
965	0.001
966	0.002
966	0.003
966	0.004
967	0.005
967	0.006
968	0.006
968	0.006
968	0.005
969	0.005
969	0.004
970	0.003
970	0.002
971	0
971	-0.001
971	-0.002
972	-0.002
972	-0.003
973	-0.003
973	-0.004
974	-0.004
974	-0.004
974	-0.004
975	-0.004
975	-0.004
976	-0.004
976	-0.004
976	-0.005
977	-0.006
977	-0.007
978	-0.008
978	-0.009
979	-0.01
979	-0.01
979	-0.011
980	-0.012
980	-0.012
981	-0.013
981	-0.013
982	-0.013
982	-0.013
982	-0.012
983	-0.012
983	-0.012
984	-0.012
984	-0.011
984	-0.011
985	-0.011
985	-0.011
986	-0.011
986	-0.011
987	-0.011
987	-0.01
987	-0.009
988	-0.008
988	-0.007
989	-0.006
989	-0.005
990	-0.004
990	-0.002
990	-0
991	0.001
991	0.003
992	0.005
992	0.006
992	0.007
993	0.008
993	0.008
994	0.009
994	0.009
995	0.008
995	0.008
995	0.007
996	0.006
996	0.005
997	0.004
997	0.003
997	0.003
998	0.002
998	0.002
999	0.001
999	0.001
1000	0.001
1000	0.001
1000	0
1001	0
1001	0.001
1002	0
1002	0
1003	0
1003	-0
1003	-0
1004	-0.001
1004	-0.001
1005	-0.002
1005	-0.002
1005	-0.003
1006	-0.004
1006	-0.005
1007	-0.005
1007	-0.006
1008	-0.007
1008	-0.008
1008	-0.008
1009	-0.008
1009	-0.008
1010	-0.008
1010	-0.008
1010	-0.008
1011	-0.009
1011	-0.009
1012	-0.009
1012	-0.009
1013	-0.01
1013	-0.011
1013	-0.012
1014	-0.013
1014	-0.014
1015	-0.014
1015	-0.015
1016	-0.015
1016	-0.016
1016	-0.016
1017	-0.017
1017	-0.017
1018	-0.017
1018	-0.017
1018	-0.017
1019	-0.016
1019	-0.016
1020	-0.016
1020	-0.016
1021	-0.016
1021	-0.016
1021	-0.015
1022	-0.015
1022	-0.015
1023	-0.015
1023	-0.016
1023	-0.016
1024	-0.017
1024	-0.018
1025	-0.019
1025	-0.02
1026	-0.021
1026	-0.022
1026	-0.022
1027	-0.023
1027	-0.023
1028	-0.024
1028	-0.024
1028	-0.024
1029	-0.023
1029	-0.023
1030	-0.022
1030	-0.022
1031	-0.022
1031	-0.021
1031	-0.021
1032	-0.021
1032	-0.021
1033	-0.021
1033	-0.021
1033	-0.021
1034	-0.022
1034	-0.023
1035	-0.024
1035	-0.025
1036	-0.026
1036	-0.026
1036	-0.027
1037	-0.027
1037	-0.027
1038	-0.027
1038	-0.027
1039	-0.026
1039	-0.026
1039	-0.025
1040	-0.025
1040	-0.024
1041	-0.024
1041	-0.024
1041	-0.024
1042	-0.024
1042	-0.024
1043	-0.024
1043	-0.025
1044	-0.025
1044	-0.026
1044	-0.026
1045	-0.027
1045	-0.027
1046	-0.028
1046	-0.028
1046	-0.028
1047	-0.028
1047	-0.028
1048	-0.027
1048	-0.027
1049	-0.027
1049	-0.028
1049	-0.028
1050	-0.029
1050	-0.029
1051	-0.03
1051	-0.03
1051	-0.031
1052	-0.032
1052	-0.033
1053	-0.034
1053	-0.034
1053	-0.034
1054	-0.035
1054	-0.034
1055	-0.034
1055	-0.034
1056	-0.035
1056	-0.035
1056	-0.036
1057	-0.037
1057	-0.038
1058	-0.039
1058	-0.04
1058	-0.04
1059	-0.041
1059	-0.043
1060	-0.043
1060	-0.043
1061	-0.043
1061	-0.043
1061	-0.042
1062	-0.042
1062	-0.042
1063	-0.041
1063	-0.041
1063	-0.04
1064	-0.04
1064	-0.039
1065	-0.039
1065	-0.038
1066	-0.038
1066	-0.038
1066	-0.037
1067	-0.036
1067	-0.036
1068	-0.035
1068	-0.035
1068	-0.035
1069	-0.035
1069	-0.036
1070	-0.036
1070	-0.037
1071	-0.037
1071	-0.037
1071	-0.038
1072	-0.038
1072	-0.038
1073	-0.039
1073	-0.039
1073	-0.039
1074	-0.038
1074	-0.038
1075	-0.038
1075	-0.038
1076	-0.039
1076	-0.038
1076	-0.039
1077	-0.039
1077	-0.04
1078	-0.041
1078	-0.04
1078	-0.04
1079	-0.04
1079	-0.04
1080	-0.04
1080	-0.039
1080	-0.039
1081	-0.039
1081	-0.038
1082	-0.038
1082	-0.037
1083	-0.037
1083	-0.038
1083	-0.037
1084	-0.037
1084	-0.037
1085	-0.036
1085	-0.035
1085	-0.034
1086	-0.034
1086	-0.034
1087	-0.033
1087	-0.033
1088	-0.033
1088	-0.033
1088	-0.033
1089	-0.033
1089	-0.034
1090	-0.034
1090	-0.033
1090	-0.034
1091	-0.034
1091	-0.033
1092	-0.033
1092	-0.03
1092	-0.03
1093	-0.028
1093	-0.026
1094	-0.024
1094	-0.023
1095	-0.023
1095	-0.021
1095	-0.019
1096	-0.018
1096	-0.016
1097	-0.015
1097	-0.015
1097	-0.014
1098	-0.013
1098	-0.012
1099	-0.01
1099	-0.008
1100	-0.005
1100	-0.004
1100	-0.002
1101	-0.001
1101	0.001
1102	0.006
1102	0.01
1102	0.014
1103	0.017
1103	0.023
1104	0.027
1104	0.032
1104	0.04
1105	0.046
1105	0.052
1106	0.056
1106	0.061
1107	0.066
1107	0.075
1107	0.088
1108	0.132
1108	0.192
1109	0.283
1109	0.437
1109	0.576
1110	0.94
1110	-0
1111	-0
1111	-0
