Data from 15c-2a-fridge-noshake_Absorbance__904__07141.txt Node

Date: Wed Jan 17 19:08:26 CET 2024
User: Marek
Spectrometer: MAYP115816
Trigger mode: 0
Integration Time (sec): 2.000000E-1
Scans to average: 10
Electric dark correction enabled: true
Nonlinearity correction enabled: true
Boxcar width: 5
XAxis mode: Wavelengths
Number of Pixels in Spectrum: 2068
>>>>>Begin Spectral Data<<<<<
199	-1.568
199	-1.433
200	-1.278
200	-1.158
201	-1.084
201	-1.038
202	-0.971
202	-0.925
203	-0.883
203	-0.846
204	-0.823
204	-0.8
205	-0.778
205	-0.768
205	-0.767
206	-0.767
206	-0.763
207	-0.762
207	-0.757
208	-0.756
208	-0.755
209	-0.75
209	-0.749
210	-0.749
210	-0.75
211	-0.748
211	-0.747
212	-0.748
212	-0.747
213	-0.747
213	-0.746
213	-0.746
214	-0.745
214	-0.744
215	-0.743
215	-0.742
216	-0.743
216	-0.741
217	-0.735
217	-0.734
218	-0.733
218	-0.73
219	-0.727
219	-0.727
220	-0.724
220	-0.722
221	-0.717
221	-0.714
221	-0.71
222	-0.708
222	-0.704
223	-0.699
223	-0.696
224	-0.691
224	-0.684
225	-0.675
225	-0.669
226	-0.66
226	-0.648
227	-0.636
227	-0.624
228	-0.608
228	-0.592
229	-0.572
229	-0.548
229	-0.523
230	-0.496
230	-0.467
231	-0.434
231	-0.401
232	-0.367
232	-0.33
233	-0.292
233	-0.252
234	-0.214
234	-0.178
235	-0.144
235	-0.11
236	-0.078
236	-0.049
236	-0.021
237	0.005
237	0.028
238	0.049
238	0.067
239	0.085
239	0.1
240	0.114
240	0.126
241	0.137
241	0.146
242	0.154
242	0.162
243	0.169
243	0.174
243	0.179
244	0.184
244	0.188
245	0.192
245	0.195
246	0.199
246	0.202
247	0.205
247	0.207
248	0.21
248	0.213
249	0.215
249	0.216
250	0.218
250	0.22
250	0.222
251	0.223
251	0.225
252	0.226
252	0.227
253	0.229
253	0.23
254	0.231
254	0.232
255	0.232
255	0.233
256	0.234
256	0.234
257	0.235
257	0.235
258	0.235
258	0.235
258	0.236
259	0.235
259	0.235
260	0.235
260	0.234
261	0.234
261	0.234
262	0.233
262	0.232
263	0.232
263	0.231
264	0.23
264	0.23
265	0.229
265	0.228
265	0.227
266	0.226
266	0.225
267	0.223
267	0.222
268	0.221
268	0.219
269	0.218
269	0.216
270	0.214
270	0.213
271	0.211
271	0.209
272	0.207
272	0.206
272	0.204
273	0.202
273	0.2
274	0.199
274	0.197
275	0.195
275	0.194
276	0.192
276	0.191
277	0.189
277	0.188
278	0.186
278	0.185
278	0.182
279	0.18
279	0.177
280	0.175
280	0.173
281	0.17
281	0.168
282	0.166
282	0.164
283	0.162
283	0.16
284	0.159
284	0.158
285	0.157
285	0.156
285	0.155
286	0.153
286	0.152
287	0.151
287	0.15
288	0.148
288	0.147
289	0.146
289	0.145
290	0.144
290	0.143
291	0.141
291	0.14
292	0.139
292	0.139
292	0.138
293	0.137
293	0.136
294	0.135
294	0.134
295	0.134
295	0.133
296	0.132
296	0.132
297	0.131
297	0.131
298	0.13
298	0.13
298	0.129
299	0.129
299	0.128
300	0.128
300	0.127
301	0.127
301	0.126
302	0.126
302	0.125
303	0.125
303	0.125
304	0.124
304	0.124
305	0.123
305	0.123
305	0.122
306	0.122
306	0.121
307	0.121
307	0.121
308	0.12
308	0.12
309	0.119
309	0.119
310	0.118
310	0.118
311	0.118
311	0.117
311	0.117
312	0.117
312	0.116
313	0.116
313	0.115
314	0.115
314	0.114
315	0.114
315	0.114
316	0.113
316	0.112
317	0.112
317	0.112
318	0.111
318	0.111
318	0.11
319	0.11
319	0.11
320	0.109
320	0.109
321	0.108
321	0.108
322	0.108
322	0.107
323	0.107
323	0.106
324	0.105
324	0.105
324	0.104
325	0.104
325	0.104
326	0.103
326	0.103
327	0.102
327	0.102
328	0.101
328	0.101
329	0.101
329	0.1
330	0.1
330	0.099
330	0.099
331	0.098
331	0.098
332	0.097
332	0.097
333	0.096
333	0.096
334	0.095
334	0.095
335	0.094
335	0.094
336	0.094
336	0.093
336	0.093
337	0.092
337	0.092
338	0.092
338	0.091
339	0.091
339	0.091
340	0.091
340	0.09
341	0.09
341	0.09
342	0.089
342	0.089
342	0.089
343	0.088
343	0.088
344	0.088
344	0.087
345	0.087
345	0.086
346	0.086
346	0.086
347	0.085
347	0.085
348	0.084
348	0.084
348	0.084
349	0.083
349	0.083
350	0.083
350	0.082
351	0.082
351	0.082
352	0.081
352	0.081
353	0.081
353	0.08
354	0.08
354	0.08
354	0.08
355	0.079
355	0.079
356	0.079
356	0.079
357	0.078
357	0.078
358	0.078
358	0.078
359	0.078
359	0.078
360	0.078
360	0.078
360	0.078
361	0.078
361	0.078
362	0.078
362	0.078
363	0.078
363	0.078
364	0.077
364	0.077
365	0.077
365	0.077
366	0.077
366	0.077
366	0.077
367	0.077
367	0.076
368	0.076
368	0.076
369	0.076
369	0.076
370	0.075
370	0.075
371	0.075
371	0.075
372	0.075
372	0.075
372	0.075
373	0.075
373	0.074
374	0.075
374	0.075
375	0.075
375	0.075
376	0.075
376	0.075
377	0.075
377	0.075
378	0.076
378	0.076
378	0.076
379	0.076
379	0.076
380	0.076
380	0.076
381	0.076
381	0.075
382	0.075
382	0.075
383	0.075
383	0.074
383	0.074
384	0.074
384	0.074
385	0.074
385	0.074
386	0.074
386	0.074
387	0.074
387	0.074
388	0.074
388	0.074
389	0.074
389	0.074
389	0.074
390	0.074
390	0.074
391	0.074
391	0.074
392	0.074
392	0.074
393	0.074
393	0.074
394	0.074
394	0.074
394	0.074
395	0.074
395	0.073
396	0.073
396	0.074
397	0.074
397	0.074
398	0.074
398	0.073
399	0.073
399	0.073
400	0.073
400	0.073
400	0.073
401	0.072
401	0.071
402	0.071
402	0.071
403	0.072
403	0.072
404	0.072
404	0.072
405	0.072
405	0.072
405	0.072
406	0.072
406	0.072
407	0.071
407	0.071
408	0.071
408	0.07
409	0.07
409	0.07
410	0.07
410	0.07
411	0.071
411	0.071
411	0.071
412	0.071
412	0.071
413	0.071
413	0.07
414	0.07
414	0.07
415	0.07
415	0.069
416	0.069
416	0.069
416	0.069
417	0.068
417	0.069
418	0.069
418	0.069
419	0.07
419	0.07
420	0.071
420	0.071
421	0.071
421	0.071
421	0.072
422	0.072
422	0.072
423	0.072
423	0.072
424	0.071
424	0.071
425	0.071
425	0.07
426	0.071
426	0.07
427	0.07
427	0.07
427	0.071
428	0.071
428	0.071
429	0.071
429	0.071
430	0.071
430	0.071
431	0.071
431	0.071
432	0.07
432	0.07
432	0.07
433	0.069
433	0.069
434	0.069
434	0.069
435	0.069
435	0.069
436	0.069
436	0.069
437	0.07
437	0.07
437	0.069
438	0.07
438	0.07
439	0.07
439	0.069
440	0.069
440	0.069
441	0.069
441	0.069
442	0.069
442	0.069
442	0.069
443	0.069
443	0.069
444	0.069
444	0.07
445	0.07
445	0.07
446	0.07
446	0.07
447	0.071
447	0.07
447	0.071
448	0.071
448	0.071
449	0.07
449	0.07
450	0.07
450	0.07
451	0.07
451	0.07
452	0.07
452	0.07
452	0.07
453	0.069
453	0.069
454	0.069
454	0.069
455	0.069
455	0.069
456	0.069
456	0.069
457	0.069
457	0.069
458	0.069
458	0.069
458	0.069
459	0.069
459	0.069
460	0.068
460	0.068
461	0.068
461	0.068
462	0.068
462	0.068
463	0.069
463	0.069
463	0.07
464	0.07
464	0.07
465	0.07
465	0.07
466	0.071
466	0.071
467	0.071
467	0.071
467	0.071
468	0.07
468	0.069
469	0.069
469	0.069
470	0.069
470	0.069
471	0.069
471	0.069
472	0.069
472	0.069
472	0.07
473	0.07
473	0.071
474	0.071
474	0.071
475	0.071
475	0.072
476	0.071
476	0.071
477	0.071
477	0.071
477	0.071
478	0.071
478	0.072
479	0.072
479	0.072
480	0.073
480	0.073
481	0.073
481	0.074
482	0.075
482	0.076
482	0.077
483	0.078
483	0.08
484	0.081
484	0.08
485	0.08
485	0.081
486	0.081
486	0.082
487	0.082
487	0.082
487	0.082
488	0.082
488	0.081
489	0.081
489	0.082
490	0.082
490	0.083
491	0.083
491	0.084
492	0.085
492	0.085
492	0.085
493	0.085
493	0.086
494	0.088
494	0.089
495	0.089
495	0.09
496	0.09
496	0.091
496	0.092
497	0.093
497	0.094
498	0.095
498	0.095
499	0.095
499	0.096
500	0.097
500	0.098
501	0.099
501	0.1
501	0.101
502	0.101
502	0.102
503	0.103
503	0.104
504	0.104
504	0.104
505	0.105
505	0.105
506	0.105
506	0.106
506	0.106
507	0.107
507	0.108
508	0.108
508	0.11
509	0.111
509	0.112
510	0.113
510	0.113
511	0.114
511	0.114
511	0.115
512	0.115
512	0.115
513	0.115
513	0.115
514	0.114
514	0.115
515	0.115
515	0.115
515	0.115
516	0.115
516	0.115
517	0.116
517	0.116
518	0.116
518	0.115
519	0.115
519	0.115
520	0.114
520	0.114
520	0.114
521	0.113
521	0.112
522	0.111
522	0.111
523	0.111
523	0.112
524	0.112
524	0.112
524	0.113
525	0.113
525	0.114
526	0.114
526	0.114
527	0.115
527	0.115
528	0.115
528	0.115
529	0.115
529	0.115
529	0.115
530	0.115
530	0.114
531	0.114
531	0.114
532	0.114
532	0.113
533	0.113
533	0.113
533	0.112
534	0.111
534	0.11
535	0.11
535	0.11
536	0.109
536	0.109
537	0.108
537	0.108
538	0.107
538	0.106
538	0.105
539	0.105
539	0.104
540	0.103
540	0.102
541	0.1
541	0.099
542	0.098
542	0.097
542	0.096
543	0.095
543	0.093
544	0.092
544	0.092
545	0.091
545	0.091
546	0.091
546	0.09
547	0.089
547	0.087
547	0.087
548	0.086
548	0.086
549	0.085
549	0.084
550	0.084
550	0.082
551	0.081
551	0.08
551	0.08
552	0.08
552	0.079
553	0.078
553	0.078
554	0.077
554	0.075
555	0.073
555	0.071
556	0.07
556	0.068
556	0.067
557	0.065
557	0.064
558	0.063
558	0.062
559	0.061
559	0.061
560	0.06
560	0.059
560	0.059
561	0.059
561	0.059
562	0.058
562	0.057
563	0.055
563	0.054
564	0.053
564	0.052
564	0.051
565	0.051
565	0.05
566	0.049
566	0.048
567	0.048
567	0.048
568	0.048
568	0.048
568	0.049
569	0.05
569	0.051
570	0.05
570	0.048
571	0.049
571	0.049
572	0.048
572	0.048
573	0.047
573	0.046
573	0.044
574	0.043
574	0.043
575	0.042
575	0.044
576	0.044
576	0.042
577	0.041
577	0.04
577	0.04
578	0.04
578	0.041
579	0.042
579	0.043
580	0.041
580	0.037
581	0.033
581	0.032
581	0.032
582	0.033
582	0.033
583	0.034
583	0.032
584	0.029
584	0.025
585	0.025
585	0.027
585	0.028
586	0.029
586	0.028
587	0.027
587	0.025
588	0.023
588	0.022
589	0.023
589	0.023
590	0.024
590	0.024
590	0.026
591	0.027
591	0.026
592	0.025
592	0.024
593	0.024
593	0.024
594	0.023
594	0.021
594	0.02
595	0.02
595	0.019
596	0.018
596	0.02
597	0.024
597	0.025
598	0.025
598	0.026
598	0.027
599	0.027
599	0.027
600	0.026
600	0.025
601	0.024
601	0.023
602	0.021
602	0.021
602	0.021
603	0.021
603	0.023
604	0.025
604	0.026
605	0.028
605	0.03
606	0.03
606	0.029
606	0.029
607	0.029
607	0.029
608	0.028
608	0.026
609	0.025
609	0.025
610	0.024
610	0.023
610	0.024
611	0.026
611	0.027
612	0.029
612	0.031
613	0.032
613	0.033
614	0.032
614	0.031
614	0.03
615	0.03
615	0.029
616	0.028
616	0.027
617	0.026
617	0.025
618	0.024
618	0.023
618	0.024
619	0.025
619	0.026
620	0.028
620	0.029
621	0.029
621	0.03
622	0.03
622	0.03
622	0.03
623	0.029
623	0.031
624	0.031
624	0.03
625	0.029
625	0.029
626	0.029
626	0.029
626	0.03
627	0.031
627	0.032
628	0.032
628	0.033
629	0.033
629	0.034
630	0.033
630	0.032
630	0.033
631	0.034
631	0.034
632	0.034
632	0.035
633	0.036
633	0.037
634	0.038
634	0.04
634	0.042
635	0.043
635	0.043
636	0.044
636	0.045
637	0.046
637	0.046
638	0.047
638	0.048
638	0.049
639	0.049
639	0.049
640	0.05
640	0.051
641	0.052
641	0.053
642	0.054
642	0.055
642	0.056
643	0.056
643	0.057
644	0.059
644	0.06
645	0.062
645	0.063
646	0.065
646	0.067
646	0.069
647	0.071
647	0.073
648	0.074
648	0.075
649	0.077
649	0.079
650	0.08
650	0.082
650	0.083
651	0.085
651	0.086
652	0.087
652	0.089
653	0.092
653	0.1
653	0.116
654	0.095
654	0.079
655	0.075
655	0.076
656	0.077
656	0.078
657	0.078
657	0.079
657	0.08
658	0.076
658	0.063
659	0.079
659	0.102
660	0.113
660	0.116
661	0.117
661	0.119
661	0.122
662	0.125
662	0.128
663	0.131
663	0.133
664	0.135
664	0.137
665	0.139
665	0.141
665	0.143
666	0.144
666	0.145
667	0.145
667	0.146
668	0.148
668	0.149
669	0.15
669	0.152
669	0.155
670	0.157
670	0.159
671	0.16
671	0.161
672	0.163
672	0.165
672	0.166
673	0.167
673	0.169
674	0.17
674	0.17
675	0.171
675	0.172
676	0.175
676	0.176
676	0.177
677	0.178
677	0.179
678	0.18
678	0.179
679	0.18
679	0.181
680	0.182
680	0.183
680	0.183
681	0.184
681	0.185
682	0.186
682	0.187
683	0.188
683	0.19
684	0.191
684	0.191
684	0.19
685	0.19
685	0.19
686	0.191
686	0.19
687	0.19
687	0.19
687	0.19
688	0.189
688	0.188
689	0.189
689	0.19
690	0.189
690	0.188
691	0.188
691	0.187
691	0.186
692	0.184
692	0.183
693	0.182
693	0.182
694	0.18
694	0.177
695	0.178
695	0.179
695	0.178
696	0.176
696	0.175
697	0.174
697	0.173
698	0.172
698	0.17
698	0.17
699	0.169
699	0.167
700	0.165
700	0.165
701	0.166
701	0.165
702	0.165
702	0.164
702	0.164
703	0.163
703	0.162
704	0.162
704	0.161
705	0.161
705	0.16
705	0.158
706	0.157
706	0.156
707	0.154
707	0.152
708	0.151
708	0.15
709	0.149
709	0.147
709	0.144
710	0.141
710	0.14
711	0.139
711	0.137
712	0.136
712	0.134
713	0.133
713	0.131
713	0.129
714	0.127
714	0.125
715	0.124
715	0.122
716	0.12
716	0.12
716	0.118
717	0.117
717	0.116
718	0.114
718	0.113
719	0.112
719	0.111
720	0.109
720	0.107
720	0.105
721	0.103
721	0.101
722	0.099
722	0.097
723	0.096
723	0.095
723	0.094
724	0.092
724	0.091
725	0.089
725	0.088
726	0.087
726	0.086
727	0.084
727	0.083
727	0.082
728	0.08
728	0.079
729	0.08
729	0.079
730	0.078
730	0.077
730	0.077
731	0.076
731	0.075
732	0.074
732	0.073
733	0.072
733	0.07
734	0.069
734	0.068
734	0.067
735	0.067
735	0.066
736	0.064
736	0.064
737	0.063
737	0.064
737	0.063
738	0.061
738	0.059
739	0.058
739	0.056
740	0.054
740	0.053
741	0.052
741	0.05
741	0.047
742	0.044
742	0.042
743	0.042
743	0.04
744	0.039
744	0.038
744	0.036
745	0.035
745	0.033
746	0.032
746	0.031
747	0.03
747	0.029
748	0.029
748	0.028
748	0.027
749	0.025
749	0.025
750	0.024
750	0.023
751	0.023
751	0.023
751	0.023
752	0.023
752	0.022
753	0.022
753	0.022
754	0.022
754	0.022
754	0.023
755	0.023
755	0.023
756	0.022
756	0.019
757	0.018
757	0.018
758	0.016
758	0.015
758	0.014
759	0.013
759	0.011
760	0.008
760	0.006
761	0.005
761	0.005
761	0.005
762	0.004
762	0.004
763	0.004
763	0.002
764	-0
764	-0.001
764	-0.002
765	-0.004
765	-0.005
766	-0.006
766	-0.007
767	-0.008
767	-0.011
768	-0.013
768	-0.014
768	-0.015
769	-0.015
769	-0.015
770	-0.017
770	-0.018
771	-0.019
771	-0.022
771	-0.023
772	-0.024
772	-0.025
773	-0.027
773	-0.028
774	-0.03
774	-0.032
775	-0.033
775	-0.035
775	-0.037
776	-0.039
776	-0.041
777	-0.043
777	-0.045
778	-0.047
778	-0.05
778	-0.052
779	-0.053
779	-0.054
780	-0.057
780	-0.06
781	-0.062
781	-0.065
781	-0.068
782	-0.072
782	-0.076
783	-0.08
783	-0.084
784	-0.09
784	-0.095
784	-0.1
785	-0.105
785	-0.111
786	-0.116
786	-0.12
787	-0.121
787	-0.123
788	-0.128
788	-0.134
788	-0.139
789	-0.144
789	-0.147
790	-0.147
790	-0.148
791	-0.151
791	-0.153
791	-0.155
792	-0.15
792	-0.139
793	-0.133
793	-0.129
794	-0.128
794	-0.13
794	-0.134
795	-0.136
795	-0.137
796	-0.137
796	-0.14
797	-0.149
797	-0.16
797	-0.167
798	-0.172
798	-0.175
799	-0.175
799	-0.174
800	-0.174
800	-0.175
801	-0.178
801	-0.179
801	-0.179
802	-0.18
802	-0.182
803	-0.182
803	-0.183
804	-0.182
804	-0.177
804	-0.17
805	-0.167
805	-0.164
806	-0.162
806	-0.161
807	-0.16
807	-0.159
807	-0.16
808	-0.159
808	-0.161
809	-0.166
809	-0.171
810	-0.175
810	-0.178
810	-0.182
811	-0.185
811	-0.185
812	-0.182
812	-0.178
813	-0.178
813	-0.179
813	-0.179
814	-0.18
814	-0.179
815	-0.176
815	-0.172
816	-0.169
816	-0.167
817	-0.167
817	-0.165
817	-0.159
818	-0.152
818	-0.143
819	-0.134
819	-0.126
820	-0.12
820	-0.113
820	-0.105
821	-0.098
821	-0.091
822	-0.086
822	-0.081
823	-0.077
823	-0.074
823	-0.072
824	-0.069
824	-0.065
825	-0.062
825	-0.059
826	-0.057
826	-0.056
826	-0.055
827	-0.053
827	-0.052
828	-0.051
828	-0.051
829	-0.05
829	-0.049
829	-0.049
830	-0.049
830	-0.048
831	-0.046
831	-0.045
832	-0.044
832	-0.043
832	-0.042
833	-0.041
833	-0.04
834	-0.038
834	-0.037
835	-0.036
835	-0.035
835	-0.033
836	-0.032
836	-0.03
837	-0.029
837	-0.028
838	-0.028
838	-0.027
839	-0.026
839	-0.027
839	-0.027
840	-0.028
840	-0.028
841	-0.028
841	-0.029
842	-0.029
842	-0.029
842	-0.029
843	-0.029
843	-0.029
844	-0.028
844	-0.027
845	-0.026
845	-0.025
845	-0.024
846	-0.023
846	-0.023
847	-0.023
847	-0.023
848	-0.023
848	-0.023
848	-0.024
849	-0.024
849	-0.025
850	-0.025
850	-0.026
851	-0.026
851	-0.025
851	-0.025
852	-0.025
852	-0.025
853	-0.025
853	-0.024
854	-0.024
854	-0.024
854	-0.025
855	-0.025
855	-0.026
856	-0.026
856	-0.027
857	-0.027
857	-0.027
857	-0.027
858	-0.026
858	-0.026
859	-0.026
859	-0.025
860	-0.025
860	-0.024
860	-0.024
861	-0.023
861	-0.022
862	-0.022
862	-0.022
863	-0.022
863	-0.022
863	-0.022
864	-0.022
864	-0.021
865	-0.021
865	-0.02
866	-0.02
866	-0.02
866	-0.019
867	-0.018
867	-0.017
868	-0.015
868	-0.014
869	-0.013
869	-0.012
869	-0.012
870	-0.012
870	-0.011
871	-0.011
871	-0.011
872	-0.012
872	-0.013
872	-0.014
873	-0.015
873	-0.016
874	-0.017
874	-0.017
875	-0.017
875	-0.018
875	-0.018
876	-0.017
876	-0.017
877	-0.017
877	-0.016
878	-0.015
878	-0.014
878	-0.013
879	-0.013
879	-0.013
880	-0.013
880	-0.013
881	-0.014
881	-0.014
881	-0.015
882	-0.016
882	-0.017
883	-0.018
883	-0.018
884	-0.019
884	-0.019
884	-0.019
885	-0.019
885	-0.018
886	-0.018
886	-0.017
887	-0.016
887	-0.016
887	-0.016
888	-0.016
888	-0.015
889	-0.015
889	-0.015
890	-0.015
890	-0.015
890	-0.016
891	-0.017
891	-0.018
892	-0.018
892	-0.019
893	-0.02
893	-0.02
893	-0.021
894	-0.021
894	-0.022
895	-0.022
895	-0.023
895	-0.024
896	-0.024
896	-0.024
897	-0.024
897	-0.025
898	-0.025
898	-0.025
898	-0.026
899	-0.025
899	-0.025
900	-0.024
900	-0.023
901	-0.021
901	-0.02
901	-0.018
902	-0.016
902	-0.015
903	-0.014
903	-0.013
904	-0.012
904	-0.012
904	-0.012
905	-0.012
905	-0.012
906	-0.013
906	-0.013
907	-0.014
907	-0.014
907	-0.014
908	-0.014
908	-0.014
909	-0.014
909	-0.014
910	-0.014
910	-0.013
910	-0.013
911	-0.012
911	-0.011
912	-0.01
912	-0.009
913	-0.008
913	-0.007
913	-0.007
914	-0.007
914	-0.007
915	-0.008
915	-0.009
916	-0.01
916	-0.012
916	-0.013
917	-0.015
917	-0.016
918	-0.018
918	-0.019
918	-0.019
919	-0.02
919	-0.02
920	-0.02
920	-0.02
921	-0.019
921	-0.019
921	-0.019
922	-0.018
922	-0.017
923	-0.016
923	-0.015
924	-0.014
924	-0.014
924	-0.014
925	-0.014
925	-0.014
926	-0.015
926	-0.015
927	-0.016
927	-0.017
927	-0.018
928	-0.019
928	-0.02
929	-0.021
929	-0.022
930	-0.022
930	-0.023
930	-0.023
931	-0.024
931	-0.024
932	-0.024
932	-0.025
933	-0.026
933	-0.026
933	-0.027
934	-0.028
934	-0.028
935	-0.029
935	-0.029
935	-0.03
936	-0.03
936	-0.03
937	-0.029
937	-0.029
938	-0.029
938	-0.028
938	-0.028
939	-0.027
939	-0.026
940	-0.026
940	-0.025
941	-0.024
941	-0.024
941	-0.023
942	-0.022
942	-0.021
943	-0.02
943	-0.02
944	-0.02
944	-0.02
944	-0.02
945	-0.02
945	-0.02
946	-0.02
946	-0.02
946	-0.021
947	-0.021
947	-0.022
948	-0.022
948	-0.023
949	-0.023
949	-0.023
949	-0.024
950	-0.024
950	-0.024
951	-0.024
951	-0.025
952	-0.025
952	-0.025
952	-0.025
953	-0.025
953	-0.025
954	-0.025
954	-0.025
955	-0.025
955	-0.025
955	-0.025
956	-0.025
956	-0.025
957	-0.025
957	-0.026
957	-0.026
958	-0.027
958	-0.027
959	-0.028
959	-0.029
960	-0.03
960	-0.031
960	-0.032
961	-0.033
961	-0.034
962	-0.035
962	-0.036
963	-0.036
963	-0.036
963	-0.036
964	-0.035
964	-0.034
965	-0.033
965	-0.031
966	-0.03
966	-0.029
966	-0.027
967	-0.026
967	-0.025
968	-0.025
968	-0.025
968	-0.024
969	-0.025
969	-0.025
970	-0.026
970	-0.026
971	-0.027
971	-0.027
971	-0.028
972	-0.028
972	-0.028
973	-0.028
973	-0.028
974	-0.028
974	-0.029
974	-0.029
975	-0.029
975	-0.03
976	-0.03
976	-0.031
976	-0.031
977	-0.033
977	-0.034
978	-0.035
978	-0.036
979	-0.037
979	-0.038
979	-0.039
980	-0.04
980	-0.04
981	-0.04
981	-0.04
982	-0.04
982	-0.039
982	-0.038
983	-0.037
983	-0.036
984	-0.035
984	-0.035
984	-0.034
985	-0.034
985	-0.034
986	-0.035
986	-0.035
987	-0.036
987	-0.035
987	-0.035
988	-0.035
988	-0.035
989	-0.034
989	-0.033
990	-0.032
990	-0.031
990	-0.029
991	-0.027
991	-0.026
992	-0.024
992	-0.023
992	-0.022
993	-0.022
993	-0.021
994	-0.021
994	-0.021
995	-0.021
995	-0.021
995	-0.021
996	-0.022
996	-0.022
997	-0.023
997	-0.023
997	-0.023
998	-0.023
998	-0.023
999	-0.022
999	-0.022
1000	-0.022
1000	-0.022
1000	-0.022
1001	-0.022
1001	-0.022
1002	-0.022
1002	-0.023
1003	-0.023
1003	-0.024
1003	-0.024
1004	-0.024
1004	-0.025
1005	-0.026
1005	-0.026
1005	-0.027
1006	-0.028
1006	-0.029
1007	-0.029
1007	-0.03
1008	-0.031
1008	-0.032
1008	-0.032
1009	-0.032
1009	-0.032
1010	-0.032
1010	-0.032
1010	-0.032
1011	-0.032
1011	-0.032
1012	-0.032
1012	-0.032
1013	-0.033
1013	-0.034
1013	-0.035
1014	-0.036
1014	-0.037
1015	-0.039
1015	-0.04
1016	-0.041
1016	-0.042
1016	-0.042
1017	-0.043
1017	-0.044
1018	-0.043
1018	-0.043
1018	-0.043
1019	-0.042
1019	-0.042
1020	-0.042
1020	-0.041
1021	-0.041
1021	-0.041
1021	-0.04
1022	-0.04
1022	-0.04
1023	-0.039
1023	-0.04
1023	-0.04
1024	-0.04
1024	-0.041
1025	-0.042
1025	-0.042
1026	-0.043
1026	-0.044
1026	-0.045
1027	-0.046
1027	-0.047
1028	-0.047
1028	-0.047
1028	-0.048
1029	-0.048
1029	-0.048
1030	-0.048
1030	-0.048
1031	-0.048
1031	-0.048
1031	-0.048
1032	-0.048
1032	-0.048
1033	-0.048
1033	-0.048
1033	-0.049
1034	-0.05
1034	-0.05
1035	-0.051
1035	-0.051
1036	-0.052
1036	-0.052
1036	-0.052
1037	-0.052
1037	-0.052
1038	-0.052
1038	-0.051
1039	-0.05
1039	-0.05
1039	-0.049
1040	-0.049
1040	-0.049
1041	-0.048
1041	-0.048
1041	-0.049
1042	-0.049
1042	-0.05
1043	-0.05
1043	-0.051
1044	-0.052
1044	-0.052
1044	-0.053
1045	-0.054
1045	-0.055
1046	-0.055
1046	-0.056
1046	-0.056
1047	-0.056
1047	-0.056
1048	-0.055
1048	-0.055
1049	-0.056
1049	-0.057
1049	-0.057
1050	-0.058
1050	-0.059
1051	-0.059
1051	-0.06
1051	-0.061
1052	-0.062
1052	-0.063
1053	-0.064
1053	-0.064
1053	-0.065
1054	-0.065
1054	-0.065
1055	-0.065
1055	-0.065
1056	-0.066
1056	-0.067
1056	-0.068
1057	-0.069
1057	-0.069
1058	-0.07
1058	-0.07
1058	-0.07
1059	-0.07
1059	-0.071
1060	-0.071
1060	-0.07
1061	-0.069
1061	-0.068
1061	-0.066
1062	-0.066
1062	-0.065
1063	-0.064
1063	-0.064
1063	-0.063
1064	-0.062
1064	-0.062
1065	-0.061
1065	-0.061
1066	-0.061
1066	-0.061
1066	-0.06
1067	-0.06
1067	-0.059
1068	-0.06
1068	-0.06
1068	-0.06
1069	-0.06
1069	-0.061
1070	-0.061
1070	-0.062
1071	-0.062
1071	-0.063
1071	-0.064
1072	-0.064
1072	-0.064
1073	-0.065
1073	-0.065
1073	-0.064
1074	-0.064
1074	-0.064
1075	-0.064
1075	-0.064
1076	-0.065
1076	-0.064
1076	-0.065
1077	-0.065
1077	-0.065
1078	-0.066
1078	-0.066
1078	-0.065
1079	-0.065
1079	-0.065
1080	-0.065
1080	-0.064
1080	-0.065
1081	-0.064
1081	-0.063
1082	-0.064
1082	-0.064
1083	-0.064
1083	-0.065
1083	-0.064
1084	-0.064
1084	-0.063
1085	-0.062
1085	-0.061
1085	-0.06
1086	-0.059
1086	-0.059
1087	-0.058
1087	-0.057
1088	-0.057
1088	-0.057
1088	-0.057
1089	-0.058
1089	-0.058
1090	-0.059
1090	-0.059
1090	-0.059
1091	-0.059
1091	-0.058
1092	-0.058
1092	-0.056
1092	-0.055
1093	-0.054
1093	-0.051
1094	-0.049
1094	-0.048
1095	-0.047
1095	-0.047
1095	-0.044
1096	-0.043
1096	-0.042
1097	-0.041
1097	-0.04
1097	-0.04
1098	-0.041
1098	-0.041
1099	-0.04
1099	-0.038
1100	-0.037
1100	-0.037
1100	-0.036
1101	-0.035
1101	-0.033
1102	-0.03
1102	-0.027
1102	-0.024
1103	-0.021
1103	-0.017
1104	-0.013
1104	-0.008
1104	-0.001
1105	0.004
1105	0.007
1106	0.01
1106	0.015
1107	0.017
1107	0.025
1107	0.033
1108	0.069
1108	0.114
1109	0.178
1109	0.277
1109	0.352
1110	0.518
1110	0.997
1111	-0
1111	-0
