Data from 15c-2a-fridge-noshake_Absorbance__183__06420.txt Node

Date: Wed Jan 17 18:43:28 CET 2024
User: Marek
Spectrometer: MAYP115816
Trigger mode: 0
Integration Time (sec): 2.000000E-1
Scans to average: 10
Electric dark correction enabled: true
Nonlinearity correction enabled: true
Boxcar width: 5
XAxis mode: Wavelengths
Number of Pixels in Spectrum: 2068
>>>>>Begin Spectral Data<<<<<
199	-1.661
199	-1.523
200	-1.365
200	-1.242
201	-1.168
201	-1.12
202	-1.05
202	-1
203	-0.954
203	-0.915
204	-0.891
204	-0.867
205	-0.845
205	-0.835
205	-0.833
206	-0.832
206	-0.828
207	-0.826
207	-0.822
208	-0.821
208	-0.821
209	-0.817
209	-0.816
210	-0.815
210	-0.816
211	-0.814
211	-0.813
212	-0.815
212	-0.814
213	-0.814
213	-0.813
213	-0.813
214	-0.812
214	-0.811
215	-0.81
215	-0.809
216	-0.811
216	-0.808
217	-0.803
217	-0.802
218	-0.802
218	-0.798
219	-0.795
219	-0.794
220	-0.791
220	-0.789
221	-0.784
221	-0.78
221	-0.777
222	-0.773
222	-0.769
223	-0.764
223	-0.761
224	-0.757
224	-0.75
225	-0.742
225	-0.735
226	-0.727
226	-0.714
227	-0.701
227	-0.689
228	-0.674
228	-0.656
229	-0.636
229	-0.612
229	-0.587
230	-0.559
230	-0.53
231	-0.497
231	-0.463
232	-0.429
232	-0.391
233	-0.352
233	-0.312
234	-0.274
234	-0.237
235	-0.2
235	-0.166
236	-0.133
236	-0.103
236	-0.074
237	-0.048
237	-0.025
238	-0.003
238	0.017
239	0.035
239	0.051
240	0.065
240	0.078
241	0.09
241	0.1
242	0.109
242	0.117
243	0.125
243	0.131
243	0.137
244	0.143
244	0.147
245	0.151
245	0.156
246	0.16
246	0.163
247	0.167
247	0.17
248	0.172
248	0.175
249	0.178
249	0.18
250	0.182
250	0.185
250	0.187
251	0.188
251	0.19
252	0.192
252	0.193
253	0.195
253	0.196
254	0.197
254	0.198
255	0.199
255	0.2
256	0.201
256	0.202
257	0.202
257	0.203
258	0.203
258	0.203
258	0.204
259	0.204
259	0.204
260	0.204
260	0.204
261	0.203
261	0.203
262	0.203
262	0.202
263	0.202
263	0.201
264	0.201
264	0.2
265	0.199
265	0.198
265	0.197
266	0.197
266	0.195
267	0.194
267	0.193
268	0.192
268	0.191
269	0.189
269	0.188
270	0.186
270	0.185
271	0.183
271	0.182
272	0.18
272	0.178
272	0.177
273	0.175
273	0.173
274	0.172
274	0.17
275	0.169
275	0.167
276	0.166
276	0.165
277	0.163
277	0.162
278	0.16
278	0.159
278	0.157
279	0.154
279	0.152
280	0.15
280	0.148
281	0.146
281	0.144
282	0.142
282	0.14
283	0.139
283	0.137
284	0.136
284	0.136
285	0.135
285	0.134
285	0.133
286	0.132
286	0.131
287	0.13
287	0.129
288	0.128
288	0.126
289	0.125
289	0.124
290	0.123
290	0.122
291	0.122
291	0.121
292	0.12
292	0.119
292	0.118
293	0.118
293	0.117
294	0.116
294	0.116
295	0.115
295	0.115
296	0.114
296	0.114
297	0.114
297	0.114
298	0.113
298	0.113
298	0.113
299	0.112
299	0.112
300	0.112
300	0.112
301	0.111
301	0.111
302	0.111
302	0.111
303	0.111
303	0.111
304	0.11
304	0.11
305	0.11
305	0.11
305	0.11
306	0.11
306	0.11
307	0.11
307	0.109
308	0.109
308	0.109
309	0.109
309	0.109
310	0.108
310	0.108
311	0.108
311	0.108
311	0.108
312	0.108
312	0.108
313	0.107
313	0.107
314	0.107
314	0.107
315	0.106
315	0.106
316	0.106
316	0.106
317	0.105
317	0.105
318	0.105
318	0.105
318	0.105
319	0.105
319	0.104
320	0.104
320	0.104
321	0.104
321	0.103
322	0.103
322	0.102
323	0.102
323	0.102
324	0.101
324	0.101
324	0.101
325	0.1
325	0.1
326	0.1
326	0.1
327	0.099
327	0.099
328	0.098
328	0.098
329	0.098
329	0.097
330	0.097
330	0.097
330	0.096
331	0.096
331	0.096
332	0.096
332	0.095
333	0.095
333	0.094
334	0.094
334	0.094
335	0.093
335	0.093
336	0.093
336	0.092
336	0.092
337	0.092
337	0.091
338	0.091
338	0.091
339	0.091
339	0.09
340	0.09
340	0.09
341	0.089
341	0.089
342	0.089
342	0.088
342	0.088
343	0.088
343	0.087
344	0.087
344	0.087
345	0.086
345	0.086
346	0.086
346	0.086
347	0.085
347	0.085
348	0.085
348	0.085
348	0.084
349	0.084
349	0.084
350	0.084
350	0.083
351	0.083
351	0.083
352	0.082
352	0.082
353	0.082
353	0.081
354	0.081
354	0.08
354	0.08
355	0.08
355	0.079
356	0.079
356	0.078
357	0.078
357	0.078
358	0.078
358	0.078
359	0.078
359	0.078
360	0.078
360	0.078
360	0.078
361	0.078
361	0.078
362	0.079
362	0.079
363	0.079
363	0.079
364	0.078
364	0.078
365	0.078
365	0.078
366	0.078
366	0.078
366	0.078
367	0.078
367	0.078
368	0.078
368	0.078
369	0.078
369	0.078
370	0.078
370	0.078
371	0.078
371	0.078
372	0.078
372	0.078
372	0.078
373	0.078
373	0.078
374	0.078
374	0.078
375	0.078
375	0.078
376	0.078
376	0.078
377	0.078
377	0.078
378	0.078
378	0.078
378	0.079
379	0.079
379	0.079
380	0.079
380	0.079
381	0.079
381	0.079
382	0.079
382	0.079
383	0.079
383	0.079
383	0.079
384	0.078
384	0.078
385	0.078
385	0.078
386	0.078
386	0.078
387	0.078
387	0.078
388	0.078
388	0.078
389	0.078
389	0.078
389	0.078
390	0.078
390	0.079
391	0.079
391	0.079
392	0.079
392	0.079
393	0.079
393	0.079
394	0.079
394	0.079
394	0.079
395	0.079
395	0.079
396	0.079
396	0.079
397	0.079
397	0.08
398	0.079
398	0.079
399	0.08
399	0.08
400	0.079
400	0.079
400	0.079
401	0.079
401	0.078
402	0.078
402	0.078
403	0.078
403	0.078
404	0.078
404	0.078
405	0.078
405	0.078
405	0.078
406	0.078
406	0.078
407	0.078
407	0.078
408	0.078
408	0.077
409	0.077
409	0.077
410	0.077
410	0.077
411	0.077
411	0.077
411	0.077
412	0.077
412	0.077
413	0.076
413	0.076
414	0.076
414	0.076
415	0.076
415	0.076
416	0.076
416	0.075
416	0.075
417	0.075
417	0.075
418	0.076
418	0.076
419	0.076
419	0.077
420	0.077
420	0.077
421	0.078
421	0.078
421	0.078
422	0.078
422	0.079
423	0.079
423	0.079
424	0.078
424	0.078
425	0.078
425	0.078
426	0.077
426	0.077
427	0.077
427	0.077
427	0.077
428	0.077
428	0.078
429	0.078
429	0.078
430	0.077
430	0.077
431	0.077
431	0.077
432	0.077
432	0.076
432	0.076
433	0.075
433	0.075
434	0.075
434	0.075
435	0.076
435	0.075
436	0.075
436	0.075
437	0.076
437	0.075
437	0.075
438	0.075
438	0.075
439	0.075
439	0.075
440	0.074
440	0.075
441	0.075
441	0.075
442	0.075
442	0.075
442	0.075
443	0.075
443	0.075
444	0.075
444	0.075
445	0.076
445	0.076
446	0.076
446	0.075
447	0.075
447	0.075
447	0.075
448	0.075
448	0.075
449	0.075
449	0.074
450	0.074
450	0.074
451	0.074
451	0.074
452	0.074
452	0.074
452	0.074
453	0.074
453	0.074
454	0.073
454	0.073
455	0.073
455	0.073
456	0.073
456	0.073
457	0.073
457	0.073
458	0.073
458	0.073
458	0.073
459	0.073
459	0.072
460	0.071
460	0.071
461	0.07
461	0.07
462	0.07
462	0.07
463	0.07
463	0.071
463	0.071
464	0.071
464	0.071
465	0.071
465	0.071
466	0.071
466	0.071
467	0.071
467	0.071
467	0.07
468	0.07
468	0.069
469	0.069
469	0.069
470	0.068
470	0.068
471	0.068
471	0.067
472	0.067
472	0.067
472	0.067
473	0.068
473	0.068
474	0.068
474	0.069
475	0.069
475	0.069
476	0.069
476	0.069
477	0.069
477	0.069
477	0.069
478	0.069
478	0.069
479	0.069
479	0.069
480	0.069
480	0.069
481	0.069
481	0.069
482	0.07
482	0.07
482	0.071
483	0.072
483	0.074
484	0.074
484	0.074
485	0.074
485	0.074
486	0.074
486	0.074
487	0.074
487	0.074
487	0.074
488	0.073
488	0.072
489	0.071
489	0.072
490	0.072
490	0.072
491	0.073
491	0.073
492	0.073
492	0.073
492	0.073
493	0.073
493	0.074
494	0.075
494	0.075
495	0.076
495	0.076
496	0.076
496	0.077
496	0.077
497	0.078
497	0.078
498	0.079
498	0.078
499	0.078
499	0.079
500	0.079
500	0.08
501	0.08
501	0.081
501	0.081
502	0.081
502	0.082
503	0.083
503	0.083
504	0.083
504	0.082
505	0.082
505	0.082
506	0.082
506	0.082
506	0.082
507	0.082
507	0.082
508	0.083
508	0.083
509	0.084
509	0.084
510	0.085
510	0.086
511	0.086
511	0.086
511	0.086
512	0.086
512	0.086
513	0.086
513	0.086
514	0.086
514	0.086
515	0.086
515	0.086
515	0.086
516	0.086
516	0.086
517	0.087
517	0.087
518	0.087
518	0.087
519	0.087
519	0.087
520	0.086
520	0.086
520	0.086
521	0.085
521	0.084
522	0.083
522	0.083
523	0.083
523	0.083
524	0.083
524	0.082
524	0.082
525	0.083
525	0.084
526	0.084
526	0.085
527	0.086
527	0.087
528	0.088
528	0.089
529	0.09
529	0.09
529	0.091
530	0.092
530	0.092
531	0.093
531	0.094
532	0.094
532	0.094
533	0.095
533	0.095
533	0.095
534	0.095
534	0.095
535	0.095
535	0.096
536	0.096
536	0.096
537	0.097
537	0.097
538	0.097
538	0.097
538	0.098
539	0.098
539	0.099
540	0.099
540	0.098
541	0.098
541	0.098
542	0.098
542	0.098
542	0.098
543	0.098
543	0.098
544	0.098
544	0.098
545	0.099
545	0.1
546	0.101
546	0.101
547	0.101
547	0.1
547	0.099
548	0.1
548	0.1
549	0.1
549	0.1
550	0.1
550	0.1
551	0.1
551	0.1
551	0.101
552	0.102
552	0.103
553	0.103
553	0.104
554	0.104
554	0.104
555	0.103
555	0.103
556	0.102
556	0.102
556	0.101
557	0.101
557	0.101
558	0.1
558	0.1
559	0.1
559	0.101
560	0.101
560	0.101
560	0.101
561	0.102
561	0.102
562	0.102
562	0.102
563	0.101
563	0.1
564	0.1
564	0.099
564	0.099
565	0.099
565	0.099
566	0.099
566	0.099
567	0.1
567	0.101
568	0.102
568	0.103
568	0.104
569	0.106
569	0.107
570	0.107
570	0.107
571	0.108
571	0.109
572	0.108
572	0.109
573	0.108
573	0.108
573	0.107
574	0.107
574	0.108
575	0.109
575	0.111
576	0.112
576	0.111
577	0.109
577	0.109
577	0.11
578	0.11
578	0.11
579	0.112
579	0.113
580	0.112
580	0.109
581	0.106
581	0.105
581	0.105
582	0.105
582	0.106
583	0.107
583	0.106
584	0.103
584	0.099
585	0.099
585	0.101
585	0.101
586	0.102
586	0.102
587	0.1
587	0.098
588	0.095
588	0.094
589	0.095
589	0.095
590	0.095
590	0.096
590	0.098
591	0.099
591	0.099
592	0.099
592	0.098
593	0.098
593	0.098
594	0.097
594	0.095
594	0.094
595	0.094
595	0.092
596	0.09
596	0.092
597	0.094
597	0.095
598	0.096
598	0.097
598	0.097
599	0.098
599	0.097
600	0.096
600	0.095
601	0.095
601	0.094
602	0.093
602	0.092
602	0.092
603	0.092
603	0.093
604	0.095
604	0.096
605	0.098
605	0.099
606	0.099
606	0.098
606	0.097
607	0.097
607	0.096
608	0.095
608	0.093
609	0.091
609	0.091
610	0.089
610	0.087
610	0.087
611	0.088
611	0.089
612	0.09
612	0.092
613	0.093
613	0.093
614	0.092
614	0.091
614	0.09
615	0.089
615	0.088
616	0.087
616	0.086
617	0.085
617	0.083
618	0.081
618	0.08
618	0.08
619	0.08
619	0.081
620	0.083
620	0.083
621	0.083
621	0.083
622	0.083
622	0.083
622	0.082
623	0.081
623	0.082
624	0.082
624	0.08
625	0.079
625	0.078
626	0.078
626	0.077
626	0.077
627	0.077
627	0.077
628	0.077
628	0.077
629	0.076
629	0.076
630	0.075
630	0.074
630	0.075
631	0.076
631	0.076
632	0.075
632	0.075
633	0.076
633	0.076
634	0.077
634	0.078
634	0.078
635	0.078
635	0.078
636	0.078
636	0.078
637	0.078
637	0.077
638	0.077
638	0.078
638	0.078
639	0.078
639	0.078
640	0.078
640	0.079
641	0.079
641	0.079
642	0.08
642	0.08
642	0.081
643	0.081
643	0.081
644	0.081
644	0.082
645	0.082
645	0.083
646	0.084
646	0.085
646	0.087
647	0.088
647	0.089
648	0.09
648	0.091
649	0.092
649	0.093
650	0.095
650	0.096
650	0.096
651	0.097
651	0.097
652	0.098
652	0.099
653	0.101
653	0.108
653	0.123
654	0.1
654	0.083
655	0.079
655	0.079
656	0.08
656	0.08
657	0.081
657	0.081
657	0.081
658	0.077
658	0.063
659	0.079
659	0.101
660	0.11
660	0.111
661	0.112
661	0.113
661	0.115
662	0.117
662	0.12
663	0.122
663	0.124
664	0.125
664	0.126
665	0.127
665	0.129
665	0.129
666	0.13
666	0.13
667	0.13
667	0.13
668	0.131
668	0.132
669	0.133
669	0.135
669	0.137
670	0.139
670	0.14
671	0.141
671	0.142
672	0.143
672	0.144
672	0.145
673	0.146
673	0.147
674	0.148
674	0.147
675	0.147
675	0.148
676	0.151
676	0.152
676	0.152
677	0.153
677	0.155
678	0.155
678	0.156
679	0.156
679	0.157
680	0.158
680	0.159
680	0.159
681	0.16
681	0.161
682	0.161
682	0.162
683	0.163
683	0.164
684	0.165
684	0.165
684	0.164
685	0.165
685	0.166
686	0.166
686	0.166
687	0.167
687	0.167
687	0.168
688	0.167
688	0.167
689	0.168
689	0.169
690	0.169
690	0.168
691	0.168
691	0.167
691	0.167
692	0.166
692	0.165
693	0.165
693	0.166
694	0.165
694	0.164
695	0.165
695	0.167
695	0.167
696	0.166
696	0.166
697	0.165
697	0.165
698	0.164
698	0.163
698	0.162
699	0.163
699	0.161
700	0.159
700	0.16
701	0.161
701	0.161
702	0.161
702	0.161
702	0.161
703	0.16
703	0.16
704	0.16
704	0.16
705	0.161
705	0.16
705	0.16
706	0.16
706	0.16
707	0.159
707	0.158
708	0.157
708	0.157
709	0.157
709	0.155
709	0.153
710	0.151
710	0.151
711	0.15
711	0.15
712	0.149
712	0.148
713	0.148
713	0.147
713	0.146
714	0.144
714	0.143
715	0.143
715	0.142
716	0.141
716	0.141
716	0.141
717	0.14
717	0.14
718	0.139
718	0.139
719	0.139
719	0.139
720	0.139
720	0.138
720	0.137
721	0.135
721	0.134
722	0.134
722	0.133
723	0.132
723	0.132
723	0.131
724	0.131
724	0.13
725	0.129
725	0.128
726	0.127
726	0.127
727	0.126
727	0.126
727	0.125
728	0.124
728	0.124
729	0.125
729	0.125
730	0.125
730	0.124
730	0.124
731	0.124
731	0.124
732	0.124
732	0.123
733	0.122
733	0.121
734	0.12
734	0.119
734	0.118
735	0.119
735	0.118
736	0.117
736	0.116
737	0.116
737	0.117
737	0.116
738	0.115
738	0.113
739	0.112
739	0.111
740	0.109
740	0.108
741	0.108
741	0.106
741	0.103
742	0.1
742	0.099
743	0.099
743	0.099
744	0.098
744	0.098
744	0.097
745	0.097
745	0.096
746	0.095
746	0.095
747	0.095
747	0.095
748	0.095
748	0.095
748	0.094
749	0.092
749	0.092
750	0.092
750	0.091
751	0.091
751	0.091
751	0.092
752	0.091
752	0.09
753	0.09
753	0.09
754	0.09
754	0.09
754	0.091
755	0.091
755	0.092
756	0.092
756	0.089
757	0.089
757	0.089
758	0.088
758	0.087
758	0.087
759	0.086
759	0.083
760	0.081
760	0.079
761	0.077
761	0.077
761	0.076
762	0.075
762	0.075
763	0.075
763	0.072
764	0.07
764	0.069
764	0.068
765	0.066
765	0.064
766	0.063
766	0.063
767	0.062
767	0.058
768	0.055
768	0.054
768	0.053
769	0.052
769	0.051
770	0.05
770	0.049
771	0.047
771	0.044
771	0.042
772	0.041
772	0.039
773	0.036
773	0.034
774	0.031
774	0.028
775	0.025
775	0.022
775	0.018
776	0.014
776	0.011
777	0.008
777	0.005
778	0.001
778	-0.002
778	-0.005
779	-0.007
779	-0.009
780	-0.013
780	-0.018
781	-0.022
781	-0.027
781	-0.033
782	-0.04
782	-0.047
783	-0.054
783	-0.06
784	-0.069
784	-0.077
784	-0.085
785	-0.093
785	-0.102
786	-0.109
786	-0.114
787	-0.117
787	-0.12
788	-0.126
788	-0.133
788	-0.138
789	-0.144
789	-0.147
790	-0.147
790	-0.148
791	-0.15
791	-0.152
791	-0.155
792	-0.149
792	-0.138
793	-0.133
793	-0.129
794	-0.127
794	-0.129
794	-0.133
795	-0.136
795	-0.136
796	-0.137
796	-0.14
797	-0.149
797	-0.16
797	-0.166
798	-0.171
798	-0.174
799	-0.174
799	-0.174
800	-0.173
800	-0.175
801	-0.177
801	-0.178
801	-0.178
802	-0.18
802	-0.181
803	-0.182
803	-0.182
804	-0.181
804	-0.176
804	-0.17
805	-0.166
805	-0.164
806	-0.162
806	-0.16
807	-0.159
807	-0.159
807	-0.159
808	-0.159
808	-0.16
809	-0.165
809	-0.171
810	-0.175
810	-0.178
810	-0.181
811	-0.184
811	-0.185
812	-0.181
812	-0.178
813	-0.178
813	-0.178
813	-0.179
814	-0.179
814	-0.179
815	-0.175
815	-0.172
816	-0.167
816	-0.164
817	-0.162
817	-0.158
817	-0.151
818	-0.141
818	-0.129
819	-0.117
819	-0.106
820	-0.096
820	-0.086
820	-0.075
821	-0.066
821	-0.056
822	-0.049
822	-0.042
823	-0.036
823	-0.032
823	-0.028
824	-0.023
824	-0.018
825	-0.013
825	-0.009
826	-0.006
826	-0.004
826	-0.002
827	0.001
827	0.003
828	0.005
828	0.007
829	0.009
829	0.01
829	0.011
830	0.012
830	0.013
831	0.016
831	0.017
832	0.018
832	0.019
832	0.021
833	0.022
833	0.023
834	0.024
834	0.026
835	0.028
835	0.029
835	0.03
836	0.032
836	0.033
837	0.034
837	0.035
838	0.036
838	0.036
839	0.037
839	0.037
839	0.037
840	0.037
840	0.038
841	0.038
841	0.039
842	0.04
842	0.041
842	0.041
843	0.042
843	0.043
844	0.044
844	0.044
845	0.045
845	0.045
845	0.045
846	0.045
846	0.045
847	0.044
847	0.044
848	0.043
848	0.043
848	0.042
849	0.042
849	0.041
850	0.04
850	0.039
851	0.039
851	0.039
851	0.039
852	0.039
852	0.039
853	0.04
853	0.04
854	0.04
854	0.04
854	0.041
855	0.04
855	0.04
856	0.04
856	0.039
857	0.039
857	0.038
857	0.038
858	0.038
858	0.037
859	0.037
859	0.037
860	0.037
860	0.037
860	0.037
861	0.037
861	0.036
862	0.036
862	0.035
863	0.035
863	0.035
863	0.034
864	0.034
864	0.034
865	0.035
865	0.035
866	0.035
866	0.035
866	0.036
867	0.037
867	0.039
868	0.04
868	0.041
869	0.043
869	0.043
869	0.044
870	0.044
870	0.045
871	0.045
871	0.044
872	0.044
872	0.043
872	0.042
873	0.041
873	0.04
874	0.039
874	0.039
875	0.039
875	0.039
875	0.04
876	0.04
876	0.04
877	0.041
877	0.041
878	0.041
878	0.042
878	0.042
879	0.042
879	0.041
880	0.04
880	0.039
881	0.038
881	0.037
881	0.036
882	0.035
882	0.034
883	0.033
883	0.032
884	0.032
884	0.031
884	0.031
885	0.032
885	0.032
886	0.033
886	0.034
887	0.035
887	0.035
887	0.036
888	0.037
888	0.037
889	0.038
889	0.039
890	0.039
890	0.039
890	0.039
891	0.039
891	0.038
892	0.038
892	0.037
893	0.037
893	0.037
893	0.036
894	0.035
894	0.034
895	0.033
895	0.032
895	0.031
896	0.03
896	0.029
897	0.028
897	0.028
898	0.028
898	0.028
898	0.028
899	0.028
899	0.029
900	0.03
900	0.031
901	0.033
901	0.034
901	0.035
902	0.037
902	0.038
903	0.038
903	0.039
904	0.039
904	0.04
904	0.04
905	0.04
905	0.041
906	0.041
906	0.041
907	0.041
907	0.041
907	0.04
908	0.04
908	0.039
909	0.039
909	0.038
910	0.037
910	0.037
910	0.037
911	0.036
911	0.036
912	0.037
912	0.037
913	0.038
913	0.038
913	0.038
914	0.039
914	0.039
915	0.038
915	0.038
916	0.037
916	0.036
916	0.035
917	0.034
917	0.033
918	0.032
918	0.032
918	0.031
919	0.031
919	0.031
920	0.031
920	0.032
921	0.032
921	0.033
921	0.034
922	0.034
922	0.035
923	0.036
923	0.037
924	0.037
924	0.037
924	0.037
925	0.036
925	0.036
926	0.035
926	0.034
927	0.033
927	0.032
927	0.031
928	0.03
928	0.029
929	0.029
929	0.028
930	0.027
930	0.026
930	0.026
931	0.025
931	0.025
932	0.025
932	0.025
933	0.025
933	0.025
933	0.025
934	0.024
934	0.024
935	0.023
935	0.022
935	0.022
936	0.021
936	0.02
937	0.019
937	0.019
938	0.018
938	0.018
938	0.018
939	0.017
939	0.018
940	0.018
940	0.018
941	0.019
941	0.02
941	0.02
942	0.021
942	0.022
943	0.023
943	0.023
944	0.023
944	0.023
944	0.024
945	0.024
945	0.024
946	0.024
946	0.024
946	0.024
947	0.023
947	0.023
948	0.022
948	0.021
949	0.021
949	0.021
949	0.021
950	0.021
950	0.02
951	0.02
951	0.02
952	0.019
952	0.019
952	0.019
953	0.019
953	0.019
954	0.018
954	0.018
955	0.017
955	0.017
955	0.016
956	0.017
956	0.017
957	0.016
957	0.016
957	0.015
958	0.015
958	0.015
959	0.014
959	0.014
960	0.013
960	0.013
960	0.012
961	0.011
961	0.01
962	0.01
962	0.009
963	0.009
963	0.008
963	0.008
964	0.008
964	0.009
965	0.01
965	0.01
966	0.011
966	0.013
966	0.014
967	0.014
967	0.015
968	0.015
968	0.015
968	0.015
969	0.015
969	0.014
970	0.013
970	0.012
971	0.011
971	0.011
971	0.01
972	0.01
972	0.01
973	0.009
973	0.009
974	0.008
974	0.008
974	0.008
975	0.008
975	0.008
976	0.008
976	0.008
976	0.007
977	0.006
977	0.005
978	0.004
978	0.003
979	0.002
979	0.001
979	0
980	-0.001
980	-0.002
981	-0.002
981	-0.003
982	-0.002
982	-0.002
982	-0.002
983	-0.001
983	-0.001
984	-0.001
984	-0.001
984	-0
985	-0
985	-0
986	-0
986	-0
987	0
987	0.001
987	0.002
988	0.003
988	0.004
989	0.005
989	0.006
990	0.008
990	0.009
990	0.011
991	0.013
991	0.015
992	0.016
992	0.018
992	0.019
993	0.019
993	0.02
994	0.02
994	0.02
995	0.02
995	0.019
995	0.018
996	0.017
996	0.016
997	0.015
997	0.014
997	0.013
998	0.012
998	0.012
999	0.011
999	0.011
1000	0.011
1000	0.01
1000	0.01
1001	0.01
1001	0.01
1002	0.01
1002	0.01
1003	0.01
1003	0.01
1003	0.009
1004	0.009
1004	0.009
1005	0.008
1005	0.008
1005	0.007
1006	0.006
1006	0.005
1007	0.004
1007	0.003
1008	0.002
1008	0.002
1008	0.001
1009	0.001
1009	0.001
1010	0.001
1010	0.001
1010	0.001
1011	0.001
1011	0.001
1012	0.001
1012	0.001
1013	0
1013	-0
1013	-0.001
1014	-0.002
1014	-0.003
1015	-0.003
1015	-0.004
1016	-0.004
1016	-0.005
1016	-0.005
1017	-0.006
1017	-0.006
1018	-0.006
1018	-0.005
1018	-0.005
1019	-0.004
1019	-0.004
1020	-0.004
1020	-0.004
1021	-0.003
1021	-0.003
1021	-0.003
1022	-0.003
1022	-0.003
1023	-0.003
1023	-0.003
1023	-0.004
1024	-0.005
1024	-0.006
1025	-0.008
1025	-0.008
1026	-0.01
1026	-0.011
1026	-0.012
1027	-0.013
1027	-0.013
1028	-0.013
1028	-0.013
1028	-0.013
1029	-0.013
1029	-0.013
1030	-0.013
1030	-0.012
1031	-0.012
1031	-0.011
1031	-0.011
1032	-0.011
1032	-0.011
1033	-0.011
1033	-0.011
1033	-0.011
1034	-0.012
1034	-0.013
1035	-0.013
1035	-0.014
1036	-0.015
1036	-0.015
1036	-0.016
1037	-0.016
1037	-0.016
1038	-0.016
1038	-0.016
1039	-0.016
1039	-0.015
1039	-0.015
1040	-0.015
1040	-0.014
1041	-0.014
1041	-0.014
1041	-0.014
1042	-0.014
1042	-0.014
1043	-0.014
1043	-0.015
1044	-0.015
1044	-0.016
1044	-0.016
1045	-0.016
1045	-0.017
1046	-0.017
1046	-0.018
1046	-0.018
1047	-0.018
1047	-0.018
1048	-0.018
1048	-0.018
1049	-0.018
1049	-0.019
1049	-0.019
1050	-0.02
1050	-0.021
1051	-0.021
1051	-0.022
1051	-0.023
1052	-0.023
1052	-0.024
1053	-0.025
1053	-0.025
1053	-0.025
1054	-0.026
1054	-0.025
1055	-0.025
1055	-0.025
1056	-0.026
1056	-0.026
1056	-0.027
1057	-0.028
1057	-0.028
1058	-0.028
1058	-0.029
1058	-0.03
1059	-0.031
1059	-0.032
1060	-0.032
1060	-0.032
1061	-0.031
1061	-0.031
1061	-0.03
1062	-0.03
1062	-0.03
1063	-0.029
1063	-0.029
1063	-0.028
1064	-0.028
1064	-0.027
1065	-0.026
1065	-0.026
1066	-0.026
1066	-0.025
1066	-0.024
1067	-0.024
1067	-0.023
1068	-0.023
1068	-0.022
1068	-0.022
1069	-0.023
1069	-0.023
1070	-0.023
1070	-0.024
1071	-0.024
1071	-0.024
1071	-0.025
1072	-0.025
1072	-0.025
1073	-0.025
1073	-0.025
1073	-0.025
1074	-0.024
1074	-0.024
1075	-0.024
1075	-0.024
1076	-0.025
1076	-0.024
1076	-0.025
1077	-0.026
1077	-0.026
1078	-0.027
1078	-0.026
1078	-0.026
1079	-0.026
1079	-0.025
1080	-0.026
1080	-0.025
1080	-0.025
1081	-0.024
1081	-0.023
1082	-0.023
1082	-0.023
1083	-0.023
1083	-0.023
1083	-0.022
1084	-0.022
1084	-0.021
1085	-0.02
1085	-0.02
1085	-0.019
1086	-0.018
1086	-0.018
1087	-0.018
1087	-0.017
1088	-0.018
1088	-0.017
1088	-0.017
1089	-0.018
1089	-0.018
1090	-0.018
1090	-0.017
1090	-0.016
1091	-0.016
1091	-0.014
1092	-0.013
1092	-0.01
1092	-0.009
1093	-0.007
1093	-0.004
1094	-0.002
1094	-0
1095	0.001
1095	0.002
1095	0.004
1096	0.005
1096	0.007
1097	0.009
1097	0.01
1097	0.011
1098	0.012
1098	0.014
1099	0.017
1099	0.021
1100	0.023
1100	0.025
1100	0.027
1101	0.03
1101	0.033
1102	0.038
1102	0.043
1102	0.047
1103	0.052
1103	0.058
1104	0.064
1104	0.072
1104	0.082
1105	0.09
1105	0.097
1106	0.103
1106	0.113
1107	0.121
1107	0.136
1107	0.152
1108	0.213
1108	0.301
1109	0.442
1109	0.754
1109	1.208
1110	-0
1110	-0
1111	-0
1111	-0
