Data from 15c-2a-fridge-noshake_Absorbance__386__06623.txt Node

Date: Wed Jan 17 18:50:14 CET 2024
User: Marek
Spectrometer: MAYP115816
Trigger mode: 0
Integration Time (sec): 2.000000E-1
Scans to average: 10
Electric dark correction enabled: true
Nonlinearity correction enabled: true
Boxcar width: 5
XAxis mode: Wavelengths
Number of Pixels in Spectrum: 2068
>>>>>Begin Spectral Data<<<<<
199	-1.616
199	-1.481
200	-1.324
200	-1.203
201	-1.128
201	-1.082
202	-1.014
202	-0.965
203	-0.921
203	-0.884
204	-0.86
204	-0.837
205	-0.815
205	-0.805
205	-0.804
206	-0.802
206	-0.799
207	-0.797
207	-0.793
208	-0.791
208	-0.791
209	-0.787
209	-0.786
210	-0.785
210	-0.787
211	-0.785
211	-0.785
212	-0.787
212	-0.786
213	-0.785
213	-0.784
213	-0.783
214	-0.782
214	-0.781
215	-0.78
215	-0.779
216	-0.778
216	-0.776
217	-0.771
217	-0.77
218	-0.77
218	-0.766
219	-0.763
219	-0.763
220	-0.76
220	-0.757
221	-0.753
221	-0.751
221	-0.746
222	-0.744
222	-0.74
223	-0.734
223	-0.732
224	-0.727
224	-0.721
225	-0.713
225	-0.706
226	-0.698
226	-0.685
227	-0.674
227	-0.661
228	-0.646
228	-0.629
229	-0.608
229	-0.585
229	-0.559
230	-0.532
230	-0.503
231	-0.471
231	-0.438
232	-0.404
232	-0.368
233	-0.329
233	-0.29
234	-0.253
234	-0.217
235	-0.182
235	-0.149
236	-0.117
236	-0.088
236	-0.06
237	-0.035
237	-0.012
238	0.008
238	0.027
239	0.044
239	0.059
240	0.073
240	0.084
241	0.095
241	0.105
242	0.113
242	0.121
243	0.128
243	0.134
243	0.139
244	0.144
244	0.148
245	0.152
245	0.156
246	0.159
246	0.162
247	0.165
247	0.168
248	0.171
248	0.173
249	0.176
249	0.178
250	0.18
250	0.182
250	0.184
251	0.185
251	0.187
252	0.189
252	0.19
253	0.191
253	0.192
254	0.194
254	0.195
255	0.196
255	0.197
256	0.198
256	0.198
257	0.199
257	0.199
258	0.199
258	0.2
258	0.2
259	0.2
259	0.2
260	0.2
260	0.2
261	0.199
261	0.199
262	0.199
262	0.198
263	0.198
263	0.197
264	0.197
264	0.196
265	0.195
265	0.194
265	0.193
266	0.192
266	0.191
267	0.189
267	0.188
268	0.187
268	0.186
269	0.184
269	0.183
270	0.181
270	0.18
271	0.178
271	0.176
272	0.175
272	0.173
272	0.172
273	0.17
273	0.168
274	0.167
274	0.165
275	0.163
275	0.162
276	0.161
276	0.159
277	0.158
277	0.156
278	0.155
278	0.153
278	0.151
279	0.148
279	0.145
280	0.143
280	0.141
281	0.139
281	0.137
282	0.135
282	0.133
283	0.131
283	0.13
284	0.129
284	0.128
285	0.127
285	0.126
285	0.125
286	0.124
286	0.123
287	0.122
287	0.121
288	0.12
288	0.119
289	0.118
289	0.117
290	0.116
290	0.115
291	0.114
291	0.113
292	0.112
292	0.111
292	0.11
293	0.11
293	0.109
294	0.108
294	0.108
295	0.107
295	0.107
296	0.106
296	0.106
297	0.105
297	0.105
298	0.105
298	0.104
298	0.104
299	0.104
299	0.104
300	0.103
300	0.103
301	0.103
301	0.103
302	0.102
302	0.102
303	0.102
303	0.102
304	0.102
304	0.102
305	0.101
305	0.101
305	0.101
306	0.101
306	0.101
307	0.101
307	0.1
308	0.1
308	0.1
309	0.1
309	0.1
310	0.1
310	0.1
311	0.099
311	0.099
311	0.099
312	0.099
312	0.099
313	0.099
313	0.098
314	0.098
314	0.098
315	0.097
315	0.097
316	0.097
316	0.097
317	0.096
317	0.096
318	0.096
318	0.096
318	0.095
319	0.095
319	0.095
320	0.095
320	0.094
321	0.094
321	0.094
322	0.094
322	0.093
323	0.093
323	0.093
324	0.092
324	0.092
324	0.092
325	0.091
325	0.091
326	0.091
326	0.09
327	0.09
327	0.09
328	0.089
328	0.089
329	0.089
329	0.088
330	0.088
330	0.088
330	0.087
331	0.087
331	0.087
332	0.086
332	0.086
333	0.086
333	0.085
334	0.085
334	0.085
335	0.084
335	0.084
336	0.083
336	0.083
336	0.083
337	0.083
337	0.082
338	0.082
338	0.082
339	0.081
339	0.081
340	0.081
340	0.081
341	0.08
341	0.08
342	0.08
342	0.08
342	0.079
343	0.079
343	0.079
344	0.078
344	0.078
345	0.077
345	0.077
346	0.077
346	0.077
347	0.076
347	0.076
348	0.076
348	0.075
348	0.075
349	0.075
349	0.074
350	0.074
350	0.074
351	0.073
351	0.073
352	0.073
352	0.073
353	0.072
353	0.072
354	0.072
354	0.071
354	0.071
355	0.071
355	0.071
356	0.07
356	0.07
357	0.07
357	0.069
358	0.069
358	0.069
359	0.069
359	0.069
360	0.069
360	0.069
360	0.07
361	0.07
361	0.07
362	0.07
362	0.07
363	0.07
363	0.07
364	0.069
364	0.069
365	0.069
365	0.069
366	0.069
366	0.069
366	0.069
367	0.069
367	0.069
368	0.069
368	0.069
369	0.069
369	0.069
370	0.069
370	0.069
371	0.069
371	0.069
372	0.069
372	0.069
372	0.069
373	0.069
373	0.069
374	0.069
374	0.069
375	0.069
375	0.069
376	0.069
376	0.069
377	0.069
377	0.069
378	0.069
378	0.07
378	0.07
379	0.07
379	0.07
380	0.07
380	0.07
381	0.07
381	0.07
382	0.07
382	0.07
383	0.07
383	0.07
383	0.069
384	0.069
384	0.069
385	0.069
385	0.069
386	0.069
386	0.069
387	0.069
387	0.069
388	0.069
388	0.069
389	0.069
389	0.069
389	0.069
390	0.069
390	0.07
391	0.07
391	0.07
392	0.07
392	0.07
393	0.07
393	0.07
394	0.07
394	0.07
394	0.07
395	0.07
395	0.07
396	0.07
396	0.07
397	0.07
397	0.071
398	0.07
398	0.07
399	0.07
399	0.07
400	0.07
400	0.07
400	0.07
401	0.069
401	0.069
402	0.069
402	0.069
403	0.069
403	0.069
404	0.069
404	0.069
405	0.069
405	0.069
405	0.069
406	0.069
406	0.069
407	0.069
407	0.069
408	0.068
408	0.068
409	0.068
409	0.068
410	0.068
410	0.068
411	0.068
411	0.068
411	0.068
412	0.068
412	0.068
413	0.068
413	0.068
414	0.068
414	0.068
415	0.067
415	0.067
416	0.067
416	0.066
416	0.066
417	0.066
417	0.066
418	0.067
418	0.067
419	0.067
419	0.068
420	0.068
420	0.069
421	0.069
421	0.069
421	0.069
422	0.07
422	0.07
423	0.07
423	0.07
424	0.07
424	0.069
425	0.069
425	0.069
426	0.069
426	0.069
427	0.069
427	0.069
427	0.069
428	0.069
428	0.069
429	0.069
429	0.069
430	0.069
430	0.069
431	0.068
431	0.068
432	0.068
432	0.068
432	0.067
433	0.067
433	0.067
434	0.067
434	0.067
435	0.067
435	0.067
436	0.067
436	0.067
437	0.067
437	0.067
437	0.067
438	0.067
438	0.066
439	0.066
439	0.066
440	0.066
440	0.066
441	0.066
441	0.066
442	0.066
442	0.066
442	0.066
443	0.066
443	0.066
444	0.066
444	0.067
445	0.067
445	0.066
446	0.066
446	0.066
447	0.066
447	0.066
447	0.066
448	0.066
448	0.066
449	0.066
449	0.066
450	0.066
450	0.066
451	0.066
451	0.066
452	0.066
452	0.066
452	0.065
453	0.065
453	0.065
454	0.065
454	0.065
455	0.065
455	0.065
456	0.065
456	0.065
457	0.065
457	0.065
458	0.065
458	0.064
458	0.065
459	0.065
459	0.064
460	0.064
460	0.063
461	0.063
461	0.063
462	0.063
462	0.063
463	0.063
463	0.063
463	0.064
464	0.064
464	0.063
465	0.063
465	0.063
466	0.064
466	0.064
467	0.063
467	0.063
467	0.062
468	0.062
468	0.061
469	0.06
469	0.06
470	0.06
470	0.06
471	0.06
471	0.059
472	0.059
472	0.06
472	0.06
473	0.06
473	0.061
474	0.061
474	0.061
475	0.062
475	0.062
476	0.062
476	0.062
477	0.062
477	0.062
477	0.062
478	0.061
478	0.061
479	0.061
479	0.061
480	0.061
480	0.061
481	0.061
481	0.061
482	0.062
482	0.062
482	0.063
483	0.064
483	0.066
484	0.066
484	0.066
485	0.066
485	0.066
486	0.066
486	0.066
487	0.066
487	0.066
487	0.066
488	0.065
488	0.064
489	0.064
489	0.065
490	0.065
490	0.065
491	0.065
491	0.066
492	0.066
492	0.066
492	0.065
493	0.065
493	0.066
494	0.066
494	0.067
495	0.068
495	0.068
496	0.068
496	0.069
496	0.07
497	0.07
497	0.071
498	0.071
498	0.071
499	0.071
499	0.071
500	0.071
500	0.072
501	0.072
501	0.073
501	0.073
502	0.073
502	0.074
503	0.075
503	0.075
504	0.075
504	0.075
505	0.075
505	0.075
506	0.075
506	0.075
506	0.075
507	0.075
507	0.075
508	0.075
508	0.076
509	0.076
509	0.077
510	0.077
510	0.078
511	0.078
511	0.078
511	0.078
512	0.079
512	0.079
513	0.078
513	0.078
514	0.078
514	0.078
515	0.078
515	0.078
515	0.078
516	0.078
516	0.078
517	0.079
517	0.079
518	0.079
518	0.079
519	0.079
519	0.078
520	0.078
520	0.078
520	0.077
521	0.076
521	0.075
522	0.074
522	0.074
523	0.074
523	0.074
524	0.074
524	0.074
524	0.074
525	0.075
525	0.076
526	0.077
526	0.077
527	0.078
527	0.079
528	0.08
528	0.08
529	0.08
529	0.081
529	0.081
530	0.082
530	0.082
531	0.083
531	0.083
532	0.083
532	0.083
533	0.084
533	0.084
533	0.084
534	0.084
534	0.084
535	0.084
535	0.085
536	0.085
536	0.085
537	0.086
537	0.086
538	0.086
538	0.085
538	0.086
539	0.086
539	0.087
540	0.087
540	0.086
541	0.086
541	0.086
542	0.086
542	0.086
542	0.086
543	0.086
543	0.086
544	0.086
544	0.086
545	0.087
545	0.088
546	0.089
546	0.089
547	0.088
547	0.087
547	0.087
548	0.087
548	0.087
549	0.087
549	0.087
550	0.087
550	0.086
551	0.086
551	0.086
551	0.087
552	0.088
552	0.088
553	0.089
553	0.09
554	0.09
554	0.089
555	0.089
555	0.088
556	0.088
556	0.087
556	0.087
557	0.087
557	0.087
558	0.086
558	0.086
559	0.086
559	0.086
560	0.086
560	0.086
560	0.086
561	0.087
561	0.088
562	0.088
562	0.087
563	0.086
563	0.086
564	0.085
564	0.084
564	0.084
565	0.084
565	0.085
566	0.084
566	0.084
567	0.085
567	0.086
568	0.087
568	0.088
568	0.089
569	0.091
569	0.092
570	0.092
570	0.091
571	0.092
571	0.093
572	0.093
572	0.092
573	0.092
573	0.092
573	0.091
574	0.091
574	0.091
575	0.092
575	0.094
576	0.095
576	0.094
577	0.093
577	0.092
577	0.093
578	0.093
578	0.094
579	0.096
579	0.097
580	0.096
580	0.092
581	0.089
581	0.089
581	0.089
582	0.089
582	0.09
583	0.091
583	0.09
584	0.087
584	0.083
585	0.083
585	0.085
585	0.085
586	0.086
586	0.085
587	0.084
587	0.082
588	0.08
588	0.079
589	0.079
589	0.08
590	0.081
590	0.081
590	0.084
591	0.085
591	0.085
592	0.085
592	0.084
593	0.084
593	0.084
594	0.083
594	0.081
594	0.08
595	0.079
595	0.078
596	0.076
596	0.078
597	0.081
597	0.082
598	0.082
598	0.083
598	0.084
599	0.084
599	0.084
600	0.083
600	0.082
601	0.082
601	0.081
602	0.079
602	0.079
602	0.078
603	0.079
603	0.08
604	0.082
604	0.083
605	0.085
605	0.087
606	0.087
606	0.086
606	0.085
607	0.085
607	0.084
608	0.084
608	0.081
609	0.08
609	0.079
610	0.078
610	0.076
610	0.076
611	0.077
611	0.078
612	0.08
612	0.081
613	0.082
613	0.083
614	0.082
614	0.081
614	0.08
615	0.079
615	0.078
616	0.078
616	0.076
617	0.075
617	0.073
618	0.072
618	0.071
618	0.071
619	0.071
619	0.073
620	0.075
620	0.075
621	0.075
621	0.075
622	0.075
622	0.075
622	0.074
623	0.074
623	0.074
624	0.074
624	0.072
625	0.071
625	0.071
626	0.07
626	0.07
626	0.07
627	0.07
627	0.07
628	0.07
628	0.07
629	0.07
629	0.07
630	0.069
630	0.068
630	0.069
631	0.07
631	0.07
632	0.07
632	0.07
633	0.07
633	0.071
634	0.072
634	0.073
634	0.074
635	0.074
635	0.073
636	0.074
636	0.074
637	0.074
637	0.073
638	0.074
638	0.074
638	0.075
639	0.074
639	0.075
640	0.075
640	0.076
641	0.076
641	0.077
642	0.078
642	0.078
642	0.079
643	0.079
643	0.079
644	0.08
644	0.08
645	0.081
645	0.081
646	0.082
646	0.083
646	0.085
647	0.087
647	0.088
648	0.089
648	0.09
649	0.091
649	0.092
650	0.094
650	0.095
650	0.096
651	0.096
651	0.097
652	0.098
652	0.098
653	0.1
653	0.108
653	0.123
654	0.101
654	0.083
655	0.079
655	0.08
656	0.08
656	0.081
657	0.081
657	0.082
657	0.082
658	0.078
658	0.064
659	0.08
659	0.102
660	0.112
660	0.114
661	0.114
661	0.116
661	0.117
662	0.12
662	0.122
663	0.124
663	0.126
664	0.127
664	0.128
665	0.13
665	0.131
665	0.132
666	0.132
666	0.133
667	0.133
667	0.134
668	0.134
668	0.136
669	0.137
669	0.139
669	0.142
670	0.144
670	0.145
671	0.146
671	0.147
672	0.148
672	0.149
672	0.15
673	0.151
673	0.153
674	0.153
674	0.153
675	0.153
675	0.154
676	0.156
676	0.158
676	0.158
677	0.159
677	0.161
678	0.161
678	0.162
679	0.162
679	0.163
680	0.164
680	0.165
680	0.165
681	0.165
681	0.166
682	0.166
682	0.167
683	0.168
683	0.169
684	0.17
684	0.169
684	0.168
685	0.169
685	0.17
686	0.171
686	0.171
687	0.171
687	0.171
687	0.172
688	0.172
688	0.171
689	0.173
689	0.174
690	0.174
690	0.172
691	0.172
691	0.171
691	0.171
692	0.17
692	0.169
693	0.169
693	0.17
694	0.169
694	0.167
695	0.168
695	0.17
695	0.17
696	0.169
696	0.168
697	0.168
697	0.167
698	0.166
698	0.165
698	0.165
699	0.164
699	0.163
700	0.161
700	0.162
701	0.162
701	0.162
702	0.162
702	0.161
702	0.161
703	0.16
703	0.16
704	0.159
704	0.159
705	0.16
705	0.159
705	0.158
706	0.158
706	0.158
707	0.157
707	0.156
708	0.155
708	0.154
709	0.154
709	0.152
709	0.15
710	0.148
710	0.148
711	0.147
711	0.147
712	0.146
712	0.146
713	0.145
713	0.144
713	0.142
714	0.141
714	0.14
715	0.139
715	0.138
716	0.137
716	0.137
716	0.136
717	0.136
717	0.136
718	0.135
718	0.134
719	0.134
719	0.134
720	0.133
720	0.132
720	0.131
721	0.13
721	0.129
722	0.128
722	0.127
723	0.127
723	0.127
723	0.126
724	0.124
724	0.123
725	0.122
725	0.121
726	0.121
726	0.12
727	0.119
727	0.118
727	0.118
728	0.116
728	0.116
729	0.117
729	0.117
730	0.117
730	0.116
730	0.116
731	0.116
731	0.115
732	0.115
732	0.115
733	0.113
733	0.112
734	0.111
734	0.11
734	0.109
735	0.109
735	0.107
736	0.106
736	0.106
737	0.105
737	0.106
737	0.106
738	0.103
738	0.101
739	0.1
739	0.099
740	0.097
740	0.096
741	0.095
741	0.093
741	0.091
742	0.088
742	0.087
743	0.088
743	0.087
744	0.087
744	0.087
744	0.087
745	0.086
745	0.085
746	0.085
746	0.085
747	0.084
747	0.084
748	0.084
748	0.084
748	0.082
749	0.081
749	0.081
750	0.08
750	0.079
751	0.079
751	0.079
751	0.079
752	0.079
752	0.078
753	0.078
753	0.078
754	0.078
754	0.078
754	0.079
755	0.079
755	0.08
756	0.08
756	0.078
757	0.077
757	0.077
758	0.076
758	0.075
758	0.074
759	0.073
759	0.071
760	0.068
760	0.065
761	0.064
761	0.063
761	0.062
762	0.061
762	0.061
763	0.061
763	0.059
764	0.057
764	0.055
764	0.054
765	0.053
765	0.051
766	0.051
766	0.051
767	0.05
767	0.047
768	0.044
768	0.043
768	0.042
769	0.041
769	0.041
770	0.039
770	0.038
771	0.036
771	0.034
771	0.031
772	0.03
772	0.028
773	0.026
773	0.023
774	0.021
774	0.018
775	0.015
775	0.012
775	0.009
776	0.006
776	0.003
777	0
777	-0.002
778	-0.005
778	-0.008
778	-0.011
779	-0.013
779	-0.015
780	-0.018
780	-0.022
781	-0.026
781	-0.031
781	-0.036
782	-0.042
782	-0.048
783	-0.054
783	-0.06
784	-0.068
784	-0.076
784	-0.083
785	-0.09
785	-0.098
786	-0.104
786	-0.11
787	-0.112
787	-0.116
788	-0.122
788	-0.129
788	-0.136
789	-0.142
789	-0.145
790	-0.146
790	-0.148
791	-0.15
791	-0.152
791	-0.155
792	-0.15
792	-0.139
793	-0.133
793	-0.129
794	-0.127
794	-0.13
794	-0.134
795	-0.136
795	-0.136
796	-0.137
796	-0.14
797	-0.149
797	-0.16
797	-0.166
798	-0.172
798	-0.174
799	-0.175
799	-0.174
800	-0.173
800	-0.175
801	-0.178
801	-0.178
801	-0.179
802	-0.18
802	-0.181
803	-0.182
803	-0.183
804	-0.182
804	-0.176
804	-0.17
805	-0.166
805	-0.164
806	-0.162
806	-0.161
807	-0.16
807	-0.159
807	-0.159
808	-0.159
808	-0.16
809	-0.165
809	-0.171
810	-0.175
810	-0.178
810	-0.181
811	-0.185
811	-0.185
812	-0.181
812	-0.178
813	-0.178
813	-0.179
813	-0.179
814	-0.18
814	-0.179
815	-0.176
815	-0.172
816	-0.168
816	-0.164
817	-0.163
817	-0.16
817	-0.152
818	-0.143
818	-0.132
819	-0.12
819	-0.109
820	-0.1
820	-0.091
820	-0.081
821	-0.071
821	-0.063
822	-0.055
822	-0.049
823	-0.043
823	-0.04
823	-0.036
824	-0.032
824	-0.028
825	-0.023
825	-0.019
826	-0.016
826	-0.015
826	-0.013
827	-0.01
827	-0.008
828	-0.006
828	-0.005
829	-0.003
829	-0.001
829	-0
830	0
830	0.002
831	0.004
831	0.006
832	0.007
832	0.008
832	0.01
833	0.011
833	0.012
834	0.013
834	0.015
835	0.016
835	0.018
835	0.019
836	0.02
836	0.022
837	0.022
837	0.023
838	0.024
838	0.024
839	0.025
839	0.025
839	0.025
840	0.025
840	0.025
841	0.025
841	0.026
842	0.027
842	0.028
842	0.029
843	0.03
843	0.03
844	0.031
844	0.032
845	0.032
845	0.032
845	0.033
846	0.033
846	0.032
847	0.032
847	0.032
848	0.031
848	0.03
848	0.03
849	0.029
849	0.029
850	0.028
850	0.027
851	0.027
851	0.027
851	0.027
852	0.027
852	0.027
853	0.027
853	0.027
854	0.028
854	0.028
854	0.028
855	0.028
855	0.027
856	0.027
856	0.026
857	0.026
857	0.026
857	0.026
858	0.026
858	0.025
859	0.025
859	0.024
860	0.024
860	0.024
860	0.024
861	0.023
861	0.023
862	0.022
862	0.021
863	0.021
863	0.02
863	0.02
864	0.02
864	0.02
865	0.021
865	0.021
866	0.022
866	0.022
866	0.023
867	0.025
867	0.026
868	0.027
868	0.028
869	0.03
869	0.031
869	0.031
870	0.032
870	0.032
871	0.032
871	0.032
872	0.031
872	0.03
872	0.029
873	0.029
873	0.028
874	0.027
874	0.027
875	0.027
875	0.027
875	0.027
876	0.027
876	0.028
877	0.028
877	0.029
878	0.029
878	0.029
878	0.029
879	0.029
879	0.028
880	0.027
880	0.026
881	0.025
881	0.024
881	0.023
882	0.022
882	0.021
883	0.02
883	0.019
884	0.019
884	0.018
884	0.018
885	0.018
885	0.019
886	0.019
886	0.02
887	0.02
887	0.021
887	0.022
888	0.022
888	0.023
889	0.024
889	0.025
890	0.025
890	0.025
890	0.025
891	0.025
891	0.025
892	0.025
892	0.024
893	0.024
893	0.024
893	0.023
894	0.023
894	0.022
895	0.021
895	0.02
895	0.019
896	0.018
896	0.017
897	0.016
897	0.016
898	0.015
898	0.015
898	0.015
899	0.016
899	0.016
900	0.017
900	0.018
901	0.02
901	0.021
901	0.022
902	0.024
902	0.024
903	0.025
903	0.026
904	0.026
904	0.026
904	0.027
905	0.027
905	0.027
906	0.028
906	0.028
907	0.028
907	0.028
907	0.027
908	0.027
908	0.026
909	0.026
909	0.025
910	0.025
910	0.024
910	0.024
911	0.024
911	0.024
912	0.024
912	0.024
913	0.025
913	0.025
913	0.026
914	0.026
914	0.026
915	0.026
915	0.025
916	0.025
916	0.024
916	0.023
917	0.023
917	0.022
918	0.021
918	0.02
918	0.02
919	0.019
919	0.02
920	0.02
920	0.021
921	0.021
921	0.022
921	0.022
922	0.023
922	0.024
923	0.025
923	0.025
924	0.026
924	0.026
924	0.025
925	0.025
925	0.024
926	0.023
926	0.023
927	0.022
927	0.021
927	0.02
928	0.019
928	0.018
929	0.017
929	0.016
930	0.016
930	0.016
930	0.015
931	0.015
931	0.015
932	0.015
932	0.014
933	0.014
933	0.014
933	0.014
934	0.014
934	0.013
935	0.012
935	0.011
935	0.01
936	0.009
936	0.008
937	0.008
937	0.007
938	0.006
938	0.005
938	0.005
939	0.005
939	0.005
940	0.006
940	0.006
941	0.007
941	0.007
941	0.008
942	0.009
942	0.01
943	0.01
943	0.011
944	0.011
944	0.011
944	0.011
945	0.012
945	0.012
946	0.012
946	0.011
946	0.011
947	0.011
947	0.01
948	0.01
948	0.009
949	0.009
949	0.009
949	0.009
950	0.009
950	0.01
951	0.01
951	0.009
952	0.009
952	0.009
952	0.01
953	0.01
953	0.01
954	0.009
954	0.009
955	0.008
955	0.007
955	0.007
956	0.007
956	0.007
957	0.006
957	0.006
957	0.005
958	0.005
958	0.005
959	0.005
959	0.005
960	0.004
960	0.004
960	0.003
961	0.002
961	0.002
962	0.001
962	0.001
963	-0
963	-0
963	-0
964	-0
964	0
965	0.001
965	0.002
966	0.003
966	0.004
966	0.005
967	0.006
967	0.006
968	0.006
968	0.006
968	0.006
969	0.005
969	0.004
970	0.003
970	0.002
971	0.001
971	-0.001
971	-0.002
972	-0.002
972	-0.003
973	-0.003
973	-0.003
974	-0.004
974	-0.004
974	-0.004
975	-0.004
975	-0.004
976	-0.004
976	-0.004
976	-0.004
977	-0.005
977	-0.006
978	-0.007
978	-0.008
979	-0.009
979	-0.01
979	-0.01
980	-0.011
980	-0.012
981	-0.012
981	-0.012
982	-0.012
982	-0.012
982	-0.011
983	-0.011
983	-0.011
984	-0.011
984	-0.011
984	-0.011
985	-0.011
985	-0.01
986	-0.011
986	-0.011
987	-0.01
987	-0.01
987	-0.009
988	-0.008
988	-0.007
989	-0.006
989	-0.005
990	-0.004
990	-0.002
990	-0
991	0.002
991	0.003
992	0.005
992	0.006
992	0.007
993	0.008
993	0.008
994	0.009
994	0.009
995	0.008
995	0.008
995	0.007
996	0.006
996	0.005
997	0.004
997	0.004
997	0.003
998	0.002
998	0.002
999	0.002
999	0.001
1000	0.001
1000	0.001
1000	0.001
1001	0.001
1001	0.001
1002	0.001
1002	0.001
1003	0.001
1003	0
1003	-0
1004	-0
1004	-0.001
1005	-0.002
1005	-0.002
1005	-0.003
1006	-0.004
1006	-0.004
1007	-0.005
1007	-0.006
1008	-0.007
1008	-0.007
1008	-0.008
1009	-0.008
1009	-0.008
1010	-0.008
1010	-0.008
1010	-0.008
1011	-0.008
1011	-0.008
1012	-0.008
1012	-0.009
1013	-0.009
1013	-0.01
1013	-0.011
1014	-0.012
1014	-0.013
1015	-0.014
1015	-0.014
1016	-0.015
1016	-0.015
1016	-0.016
1017	-0.016
1017	-0.017
1018	-0.016
1018	-0.016
1018	-0.016
1019	-0.016
1019	-0.015
1020	-0.015
1020	-0.015
1021	-0.015
1021	-0.015
1021	-0.015
1022	-0.015
1022	-0.015
1023	-0.015
1023	-0.015
1023	-0.016
1024	-0.017
1024	-0.017
1025	-0.018
1025	-0.019
1026	-0.02
1026	-0.021
1026	-0.022
1027	-0.023
1027	-0.023
1028	-0.023
1028	-0.023
1028	-0.023
1029	-0.023
1029	-0.022
1030	-0.022
1030	-0.021
1031	-0.021
1031	-0.021
1031	-0.02
1032	-0.02
1032	-0.02
1033	-0.02
1033	-0.02
1033	-0.021
1034	-0.022
1034	-0.022
1035	-0.023
1035	-0.024
1036	-0.025
1036	-0.026
1036	-0.026
1037	-0.027
1037	-0.027
1038	-0.027
1038	-0.027
1039	-0.026
1039	-0.026
1039	-0.025
1040	-0.025
1040	-0.024
1041	-0.024
1041	-0.024
1041	-0.024
1042	-0.024
1042	-0.024
1043	-0.024
1043	-0.024
1044	-0.025
1044	-0.025
1044	-0.026
1045	-0.026
1045	-0.027
1046	-0.027
1046	-0.028
1046	-0.028
1047	-0.028
1047	-0.027
1048	-0.027
1048	-0.027
1049	-0.027
1049	-0.028
1049	-0.028
1050	-0.029
1050	-0.029
1051	-0.03
1051	-0.031
1051	-0.031
1052	-0.032
1052	-0.033
1053	-0.034
1053	-0.034
1053	-0.034
1054	-0.034
1054	-0.034
1055	-0.034
1055	-0.034
1056	-0.035
1056	-0.035
1056	-0.036
1057	-0.037
1057	-0.038
1058	-0.039
1058	-0.04
1058	-0.04
1059	-0.041
1059	-0.042
1060	-0.043
1060	-0.042
1061	-0.042
1061	-0.042
1061	-0.041
1062	-0.041
1062	-0.041
1063	-0.04
1063	-0.04
1063	-0.039
1064	-0.038
1064	-0.037
1065	-0.037
1065	-0.037
1066	-0.036
1066	-0.036
1066	-0.035
1067	-0.035
1067	-0.034
1068	-0.034
1068	-0.034
1068	-0.034
1069	-0.034
1069	-0.035
1070	-0.035
1070	-0.036
1071	-0.036
1071	-0.036
1071	-0.037
1072	-0.037
1072	-0.038
1073	-0.038
1073	-0.038
1073	-0.038
1074	-0.037
1074	-0.037
1075	-0.037
1075	-0.037
1076	-0.038
1076	-0.037
1076	-0.038
1077	-0.038
1077	-0.039
1078	-0.04
1078	-0.039
1078	-0.039
1079	-0.039
1079	-0.038
1080	-0.038
1080	-0.038
1080	-0.037
1081	-0.037
1081	-0.036
1082	-0.036
1082	-0.036
1083	-0.035
1083	-0.036
1083	-0.035
1084	-0.035
1084	-0.034
1085	-0.034
1085	-0.033
1085	-0.032
1086	-0.032
1086	-0.032
1087	-0.031
1087	-0.031
1088	-0.031
1088	-0.031
1088	-0.031
1089	-0.032
1089	-0.032
1090	-0.032
1090	-0.032
1090	-0.032
1091	-0.032
1091	-0.031
1092	-0.03
1092	-0.028
1092	-0.027
1093	-0.026
1093	-0.023
1094	-0.021
1094	-0.02
1095	-0.019
1095	-0.017
1095	-0.015
1096	-0.014
1096	-0.013
1097	-0.012
1097	-0.012
1097	-0.01
1098	-0.01
1098	-0.009
1099	-0.007
1099	-0.005
1100	-0.003
1100	-0.002
1100	-0
1101	0.002
1101	0.004
1102	0.008
1102	0.011
1102	0.015
1103	0.02
1103	0.025
1104	0.03
1104	0.036
1104	0.044
1105	0.051
1105	0.057
1106	0.061
1106	0.068
1107	0.073
1107	0.084
1107	0.096
1108	0.143
1108	0.207
1109	0.302
1109	0.475
1109	0.624
1110	1.101
1110	-0
1111	-0
1111	-0
