Data from 15c-2a-fridge-noshake_Absorbance__855__07092.txt Node

Date: Wed Jan 17 19:06:48 CET 2024
User: Marek
Spectrometer: MAYP115816
Trigger mode: 0
Integration Time (sec): 2.000000E-1
Scans to average: 10
Electric dark correction enabled: true
Nonlinearity correction enabled: true
Boxcar width: 5
XAxis mode: Wavelengths
Number of Pixels in Spectrum: 2068
>>>>>Begin Spectral Data<<<<<
199	-1.609
199	-1.472
200	-1.316
200	-1.195
201	-1.12
201	-1.074
202	-1.006
202	-0.958
203	-0.914
203	-0.877
204	-0.854
204	-0.831
205	-0.808
205	-0.797
205	-0.797
206	-0.797
206	-0.793
207	-0.791
207	-0.787
208	-0.785
208	-0.785
209	-0.78
209	-0.78
210	-0.78
210	-0.782
211	-0.78
211	-0.779
212	-0.781
212	-0.78
213	-0.78
213	-0.779
213	-0.779
214	-0.779
214	-0.778
215	-0.776
215	-0.775
216	-0.776
216	-0.774
217	-0.768
217	-0.767
218	-0.766
218	-0.763
219	-0.759
219	-0.759
220	-0.756
220	-0.753
221	-0.748
221	-0.745
221	-0.741
222	-0.738
222	-0.734
223	-0.728
223	-0.726
224	-0.721
224	-0.713
225	-0.705
225	-0.698
226	-0.69
226	-0.678
227	-0.666
227	-0.653
228	-0.638
228	-0.621
229	-0.601
229	-0.578
229	-0.552
230	-0.525
230	-0.496
231	-0.463
231	-0.43
232	-0.396
232	-0.359
233	-0.32
233	-0.28
234	-0.242
234	-0.205
235	-0.169
235	-0.135
236	-0.102
236	-0.072
236	-0.044
237	-0.017
237	0.006
238	0.027
238	0.047
239	0.064
239	0.08
240	0.094
240	0.107
241	0.118
241	0.128
242	0.136
242	0.144
243	0.151
243	0.157
243	0.162
244	0.167
244	0.172
245	0.176
245	0.179
246	0.183
246	0.186
247	0.189
247	0.192
248	0.195
248	0.197
249	0.199
249	0.201
250	0.203
250	0.205
250	0.207
251	0.208
251	0.21
252	0.212
252	0.213
253	0.214
253	0.215
254	0.216
254	0.217
255	0.218
255	0.219
256	0.219
256	0.22
257	0.22
257	0.221
258	0.221
258	0.221
258	0.221
259	0.221
259	0.221
260	0.221
260	0.22
261	0.22
261	0.22
262	0.219
262	0.219
263	0.218
263	0.217
264	0.217
264	0.216
265	0.215
265	0.214
265	0.213
266	0.212
266	0.211
267	0.21
267	0.209
268	0.207
268	0.206
269	0.205
269	0.203
270	0.202
270	0.2
271	0.198
271	0.197
272	0.195
272	0.194
272	0.192
273	0.191
273	0.189
274	0.187
274	0.185
275	0.184
275	0.182
276	0.181
276	0.179
277	0.178
277	0.177
278	0.175
278	0.173
278	0.171
279	0.168
279	0.166
280	0.164
280	0.162
281	0.16
281	0.157
282	0.155
282	0.153
283	0.151
283	0.15
284	0.149
284	0.148
285	0.147
285	0.146
285	0.145
286	0.144
286	0.143
287	0.142
287	0.141
288	0.139
288	0.138
289	0.137
289	0.136
290	0.135
290	0.133
291	0.132
291	0.132
292	0.131
292	0.13
292	0.129
293	0.128
293	0.127
294	0.126
294	0.126
295	0.125
295	0.124
296	0.124
296	0.123
297	0.122
297	0.122
298	0.122
298	0.121
298	0.121
299	0.12
299	0.12
300	0.119
300	0.119
301	0.118
301	0.118
302	0.117
302	0.117
303	0.117
303	0.116
304	0.116
304	0.116
305	0.115
305	0.115
305	0.115
306	0.115
306	0.114
307	0.114
307	0.113
308	0.113
308	0.113
309	0.113
309	0.112
310	0.112
310	0.111
311	0.111
311	0.111
311	0.11
312	0.11
312	0.109
313	0.109
313	0.109
314	0.108
314	0.108
315	0.108
315	0.107
316	0.107
316	0.106
317	0.106
317	0.106
318	0.105
318	0.105
318	0.104
319	0.104
319	0.104
320	0.103
320	0.103
321	0.102
321	0.102
322	0.101
322	0.101
323	0.1
323	0.1
324	0.099
324	0.099
324	0.099
325	0.098
325	0.098
326	0.097
326	0.097
327	0.096
327	0.096
328	0.096
328	0.095
329	0.095
329	0.094
330	0.094
330	0.093
330	0.093
331	0.092
331	0.092
332	0.091
332	0.091
333	0.09
333	0.09
334	0.089
334	0.089
335	0.089
335	0.088
336	0.088
336	0.088
336	0.087
337	0.087
337	0.086
338	0.086
338	0.086
339	0.085
339	0.085
340	0.085
340	0.084
341	0.084
341	0.083
342	0.083
342	0.083
342	0.083
343	0.082
343	0.082
344	0.082
344	0.081
345	0.081
345	0.081
346	0.08
346	0.08
347	0.08
347	0.079
348	0.079
348	0.079
348	0.078
349	0.078
349	0.077
350	0.077
350	0.077
351	0.076
351	0.076
352	0.076
352	0.075
353	0.075
353	0.075
354	0.074
354	0.074
354	0.074
355	0.073
355	0.073
356	0.073
356	0.073
357	0.072
357	0.072
358	0.072
358	0.072
359	0.072
359	0.072
360	0.072
360	0.072
360	0.072
361	0.072
361	0.072
362	0.072
362	0.072
363	0.072
363	0.072
364	0.072
364	0.072
365	0.072
365	0.072
366	0.071
366	0.071
366	0.071
367	0.071
367	0.071
368	0.071
368	0.071
369	0.071
369	0.071
370	0.07
370	0.07
371	0.07
371	0.07
372	0.07
372	0.07
372	0.07
373	0.07
373	0.07
374	0.07
374	0.07
375	0.07
375	0.07
376	0.07
376	0.07
377	0.07
377	0.07
378	0.07
378	0.07
378	0.07
379	0.07
379	0.07
380	0.07
380	0.071
381	0.071
381	0.07
382	0.07
382	0.07
383	0.07
383	0.07
383	0.069
384	0.069
384	0.069
385	0.069
385	0.069
386	0.069
386	0.069
387	0.069
387	0.069
388	0.069
388	0.069
389	0.069
389	0.069
389	0.069
390	0.069
390	0.069
391	0.069
391	0.069
392	0.069
392	0.069
393	0.069
393	0.07
394	0.069
394	0.069
394	0.07
395	0.07
395	0.069
396	0.069
396	0.069
397	0.07
397	0.07
398	0.07
398	0.07
399	0.069
399	0.069
400	0.069
400	0.069
400	0.069
401	0.068
401	0.068
402	0.067
402	0.067
403	0.067
403	0.067
404	0.067
404	0.067
405	0.067
405	0.067
405	0.067
406	0.067
406	0.067
407	0.067
407	0.067
408	0.067
408	0.066
409	0.066
409	0.066
410	0.066
410	0.066
411	0.066
411	0.066
411	0.066
412	0.066
412	0.066
413	0.066
413	0.066
414	0.066
414	0.065
415	0.065
415	0.065
416	0.064
416	0.064
416	0.064
417	0.064
417	0.064
418	0.064
418	0.065
419	0.065
419	0.065
420	0.066
420	0.066
421	0.067
421	0.067
421	0.067
422	0.067
422	0.068
423	0.068
423	0.068
424	0.067
424	0.067
425	0.067
425	0.066
426	0.066
426	0.066
427	0.066
427	0.066
427	0.066
428	0.067
428	0.067
429	0.067
429	0.067
430	0.067
430	0.067
431	0.066
431	0.066
432	0.066
432	0.066
432	0.065
433	0.065
433	0.065
434	0.065
434	0.065
435	0.065
435	0.065
436	0.065
436	0.065
437	0.065
437	0.065
437	0.065
438	0.065
438	0.065
439	0.065
439	0.065
440	0.065
440	0.065
441	0.065
441	0.065
442	0.065
442	0.065
442	0.065
443	0.065
443	0.065
444	0.065
444	0.065
445	0.065
445	0.065
446	0.066
446	0.065
447	0.066
447	0.065
447	0.065
448	0.066
448	0.065
449	0.065
449	0.065
450	0.065
450	0.065
451	0.065
451	0.065
452	0.065
452	0.065
452	0.065
453	0.065
453	0.065
454	0.065
454	0.065
455	0.065
455	0.065
456	0.065
456	0.065
457	0.065
457	0.065
458	0.065
458	0.065
458	0.065
459	0.065
459	0.064
460	0.063
460	0.063
461	0.063
461	0.063
462	0.063
462	0.064
463	0.064
463	0.065
463	0.065
464	0.065
464	0.065
465	0.065
465	0.065
466	0.065
466	0.065
467	0.065
467	0.065
467	0.064
468	0.064
468	0.063
469	0.063
469	0.063
470	0.063
470	0.063
471	0.063
471	0.063
472	0.063
472	0.063
472	0.063
473	0.064
473	0.064
474	0.065
474	0.065
475	0.066
475	0.066
476	0.066
476	0.066
477	0.067
477	0.067
477	0.067
478	0.067
478	0.067
479	0.067
479	0.067
480	0.067
480	0.067
481	0.068
481	0.068
482	0.069
482	0.069
482	0.07
483	0.072
483	0.073
484	0.074
484	0.074
485	0.074
485	0.075
486	0.075
486	0.075
487	0.075
487	0.075
487	0.075
488	0.075
488	0.074
489	0.074
489	0.075
490	0.076
490	0.076
491	0.077
491	0.078
492	0.078
492	0.078
492	0.078
493	0.079
493	0.079
494	0.081
494	0.082
495	0.083
495	0.083
496	0.084
496	0.085
496	0.086
497	0.087
497	0.087
498	0.088
498	0.088
499	0.089
499	0.089
500	0.09
500	0.091
501	0.091
501	0.092
501	0.092
502	0.093
502	0.094
503	0.095
503	0.095
504	0.095
504	0.096
505	0.096
505	0.096
506	0.097
506	0.097
506	0.097
507	0.098
507	0.098
508	0.099
508	0.1
509	0.101
509	0.101
510	0.102
510	0.103
511	0.103
511	0.103
511	0.104
512	0.104
512	0.105
513	0.104
513	0.104
514	0.104
514	0.104
515	0.105
515	0.105
515	0.105
516	0.105
516	0.106
517	0.106
517	0.106
518	0.106
518	0.105
519	0.105
519	0.105
520	0.104
520	0.103
520	0.103
521	0.102
521	0.101
522	0.099
522	0.099
523	0.099
523	0.1
524	0.1
524	0.1
524	0.1
525	0.101
525	0.102
526	0.102
526	0.103
527	0.104
527	0.104
528	0.104
528	0.104
529	0.104
529	0.104
529	0.104
530	0.104
530	0.104
531	0.104
531	0.104
532	0.103
532	0.103
533	0.103
533	0.103
533	0.102
534	0.102
534	0.101
535	0.101
535	0.101
536	0.101
536	0.1
537	0.1
537	0.099
538	0.098
538	0.097
538	0.097
539	0.097
539	0.096
540	0.095
540	0.094
541	0.092
541	0.092
542	0.091
542	0.09
542	0.089
543	0.088
543	0.087
544	0.086
544	0.086
545	0.086
545	0.086
546	0.086
546	0.085
547	0.084
547	0.082
547	0.082
548	0.081
548	0.08
549	0.08
549	0.079
550	0.078
550	0.077
551	0.076
551	0.076
551	0.075
552	0.075
552	0.075
553	0.075
553	0.075
554	0.074
554	0.072
555	0.071
555	0.069
556	0.068
556	0.067
556	0.065
557	0.064
557	0.064
558	0.062
558	0.061
559	0.06
559	0.06
560	0.059
560	0.058
560	0.058
561	0.058
561	0.058
562	0.057
562	0.056
563	0.055
563	0.053
564	0.052
564	0.051
564	0.05
565	0.049
565	0.049
566	0.048
566	0.047
567	0.047
567	0.047
568	0.048
568	0.048
568	0.049
569	0.05
569	0.05
570	0.05
570	0.049
571	0.049
571	0.049
572	0.049
572	0.048
573	0.048
573	0.047
573	0.045
574	0.045
574	0.045
575	0.045
575	0.047
576	0.047
576	0.046
577	0.044
577	0.043
577	0.044
578	0.043
578	0.044
579	0.045
579	0.046
580	0.044
580	0.04
581	0.037
581	0.035
581	0.035
582	0.036
582	0.036
583	0.036
583	0.035
584	0.032
584	0.028
585	0.028
585	0.03
585	0.03
586	0.031
586	0.031
587	0.029
587	0.027
588	0.025
588	0.024
589	0.025
589	0.026
590	0.026
590	0.026
590	0.028
591	0.03
591	0.029
592	0.029
592	0.028
593	0.028
593	0.028
594	0.027
594	0.026
594	0.025
595	0.024
595	0.023
596	0.022
596	0.024
597	0.027
597	0.028
598	0.028
598	0.029
598	0.03
599	0.03
599	0.03
600	0.029
600	0.028
601	0.027
601	0.027
602	0.025
602	0.025
602	0.024
603	0.025
603	0.027
604	0.028
604	0.03
605	0.032
605	0.034
606	0.034
606	0.033
606	0.033
607	0.032
607	0.032
608	0.031
608	0.029
609	0.028
609	0.028
610	0.027
610	0.026
610	0.026
611	0.028
611	0.029
612	0.031
612	0.032
613	0.033
613	0.034
614	0.033
614	0.032
614	0.032
615	0.031
615	0.03
616	0.03
616	0.029
617	0.028
617	0.026
618	0.025
618	0.025
618	0.025
619	0.026
619	0.027
620	0.029
620	0.03
621	0.03
621	0.031
622	0.031
622	0.032
622	0.032
623	0.031
623	0.032
624	0.032
624	0.031
625	0.031
625	0.031
626	0.031
626	0.03
626	0.031
627	0.032
627	0.032
628	0.033
628	0.034
629	0.034
629	0.034
630	0.034
630	0.034
630	0.035
631	0.036
631	0.037
632	0.037
632	0.038
633	0.039
633	0.04
634	0.041
634	0.043
634	0.044
635	0.045
635	0.045
636	0.046
636	0.046
637	0.046
637	0.046
638	0.047
638	0.048
638	0.048
639	0.048
639	0.049
640	0.05
640	0.051
641	0.052
641	0.053
642	0.054
642	0.055
642	0.056
643	0.056
643	0.057
644	0.058
644	0.059
645	0.06
645	0.061
646	0.063
646	0.065
646	0.067
647	0.07
647	0.071
648	0.073
648	0.074
649	0.076
649	0.078
650	0.079
650	0.081
650	0.082
651	0.083
651	0.084
652	0.085
652	0.087
653	0.089
653	0.097
653	0.113
654	0.093
654	0.077
655	0.073
655	0.074
656	0.075
656	0.076
657	0.077
657	0.078
657	0.079
658	0.075
658	0.063
659	0.079
659	0.101
660	0.112
660	0.114
661	0.116
661	0.117
661	0.12
662	0.123
662	0.126
663	0.128
663	0.13
664	0.132
664	0.134
665	0.136
665	0.137
665	0.139
666	0.14
666	0.141
667	0.141
667	0.142
668	0.144
668	0.145
669	0.147
669	0.149
669	0.152
670	0.155
670	0.157
671	0.158
671	0.159
672	0.16
672	0.162
672	0.163
673	0.164
673	0.165
674	0.165
674	0.165
675	0.165
675	0.166
676	0.169
676	0.17
676	0.171
677	0.173
677	0.174
678	0.174
678	0.175
679	0.175
679	0.176
680	0.177
680	0.178
680	0.178
681	0.178
681	0.179
682	0.179
682	0.18
683	0.181
683	0.182
684	0.183
684	0.182
684	0.182
685	0.182
685	0.183
686	0.183
686	0.183
687	0.183
687	0.183
687	0.183
688	0.182
688	0.182
689	0.182
689	0.183
690	0.182
690	0.181
691	0.18
691	0.18
691	0.179
692	0.178
692	0.177
693	0.176
693	0.177
694	0.176
694	0.174
695	0.175
695	0.176
695	0.176
696	0.175
696	0.174
697	0.173
697	0.172
698	0.171
698	0.169
698	0.168
699	0.167
699	0.164
700	0.162
700	0.162
701	0.162
701	0.162
702	0.161
702	0.16
702	0.16
703	0.159
703	0.158
704	0.158
704	0.158
705	0.157
705	0.156
705	0.154
706	0.153
706	0.152
707	0.15
707	0.148
708	0.146
708	0.145
709	0.143
709	0.141
709	0.138
710	0.135
710	0.134
711	0.133
711	0.131
712	0.13
712	0.128
713	0.127
713	0.125
713	0.123
714	0.121
714	0.12
715	0.118
715	0.117
716	0.115
716	0.114
716	0.113
717	0.111
717	0.11
718	0.109
718	0.107
719	0.107
719	0.106
720	0.104
720	0.103
720	0.101
721	0.099
721	0.098
722	0.097
722	0.095
723	0.095
723	0.095
723	0.093
724	0.092
724	0.091
725	0.09
725	0.089
726	0.088
726	0.087
727	0.086
727	0.085
727	0.083
728	0.082
728	0.081
729	0.081
729	0.08
730	0.079
730	0.078
730	0.077
731	0.076
731	0.075
732	0.074
732	0.073
733	0.071
733	0.069
734	0.068
734	0.066
734	0.065
735	0.065
735	0.063
736	0.062
736	0.061
737	0.061
737	0.061
737	0.06
738	0.058
738	0.055
739	0.054
739	0.052
740	0.05
740	0.049
741	0.049
741	0.047
741	0.044
742	0.042
742	0.041
743	0.041
743	0.041
744	0.041
744	0.041
744	0.04
745	0.039
745	0.038
746	0.038
746	0.037
747	0.037
747	0.036
748	0.036
748	0.035
748	0.033
749	0.031
749	0.03
750	0.029
750	0.028
751	0.027
751	0.027
751	0.027
752	0.026
752	0.025
753	0.025
753	0.025
754	0.026
754	0.025
754	0.026
755	0.026
755	0.026
756	0.025
756	0.022
757	0.021
757	0.021
758	0.019
758	0.018
758	0.017
759	0.016
759	0.013
760	0.011
760	0.009
761	0.008
761	0.008
761	0.007
762	0.006
762	0.006
763	0.005
763	0.003
764	0.001
764	-0
764	-0.002
765	-0.003
765	-0.005
766	-0.006
766	-0.007
767	-0.008
767	-0.01
768	-0.013
768	-0.014
768	-0.014
769	-0.014
769	-0.014
770	-0.015
770	-0.016
771	-0.017
771	-0.019
771	-0.021
772	-0.022
772	-0.023
773	-0.025
773	-0.027
774	-0.029
774	-0.031
775	-0.033
775	-0.036
775	-0.038
776	-0.041
776	-0.043
777	-0.045
777	-0.047
778	-0.05
778	-0.052
778	-0.054
779	-0.056
779	-0.057
780	-0.06
780	-0.062
781	-0.065
781	-0.068
781	-0.072
782	-0.076
782	-0.081
783	-0.086
783	-0.091
784	-0.097
784	-0.103
784	-0.108
785	-0.114
785	-0.12
786	-0.126
786	-0.129
787	-0.129
787	-0.13
788	-0.135
788	-0.14
788	-0.144
789	-0.148
789	-0.149
790	-0.149
790	-0.149
791	-0.151
791	-0.152
791	-0.155
792	-0.15
792	-0.139
793	-0.133
793	-0.129
794	-0.127
794	-0.13
794	-0.134
795	-0.136
795	-0.136
796	-0.137
796	-0.14
797	-0.149
797	-0.16
797	-0.166
798	-0.172
798	-0.174
799	-0.175
799	-0.174
800	-0.173
800	-0.175
801	-0.178
801	-0.178
801	-0.179
802	-0.18
802	-0.182
803	-0.182
803	-0.183
804	-0.182
804	-0.176
804	-0.17
805	-0.166
805	-0.164
806	-0.162
806	-0.161
807	-0.16
807	-0.159
807	-0.159
808	-0.159
808	-0.16
809	-0.165
809	-0.171
810	-0.175
810	-0.178
810	-0.181
811	-0.185
811	-0.185
812	-0.181
812	-0.178
813	-0.178
813	-0.179
813	-0.179
814	-0.18
814	-0.179
815	-0.176
815	-0.172
816	-0.169
816	-0.168
817	-0.169
817	-0.168
817	-0.164
818	-0.157
818	-0.149
819	-0.14
819	-0.133
820	-0.127
820	-0.121
820	-0.113
821	-0.105
821	-0.097
822	-0.091
822	-0.085
823	-0.081
823	-0.078
823	-0.075
824	-0.072
824	-0.068
825	-0.065
825	-0.061
826	-0.059
826	-0.059
826	-0.057
827	-0.056
827	-0.055
828	-0.054
828	-0.053
829	-0.051
829	-0.05
829	-0.05
830	-0.05
830	-0.049
831	-0.047
831	-0.045
832	-0.044
832	-0.043
832	-0.041
833	-0.04
833	-0.039
834	-0.037
834	-0.035
835	-0.033
835	-0.032
835	-0.03
836	-0.029
836	-0.027
837	-0.026
837	-0.025
838	-0.024
838	-0.023
839	-0.022
839	-0.022
839	-0.022
840	-0.022
840	-0.022
841	-0.022
841	-0.021
842	-0.021
842	-0.02
842	-0.02
843	-0.019
843	-0.019
844	-0.018
844	-0.017
845	-0.016
845	-0.015
845	-0.015
846	-0.015
846	-0.015
847	-0.015
847	-0.015
848	-0.016
848	-0.017
848	-0.017
849	-0.018
849	-0.018
850	-0.019
850	-0.019
851	-0.019
851	-0.019
851	-0.019
852	-0.019
852	-0.018
853	-0.018
853	-0.018
854	-0.018
854	-0.019
854	-0.019
855	-0.02
855	-0.021
856	-0.022
856	-0.022
857	-0.023
857	-0.024
857	-0.024
858	-0.024
858	-0.025
859	-0.026
859	-0.026
860	-0.026
860	-0.026
860	-0.026
861	-0.026
861	-0.026
862	-0.026
862	-0.026
863	-0.026
863	-0.025
863	-0.025
864	-0.024
864	-0.024
865	-0.022
865	-0.022
866	-0.021
866	-0.02
866	-0.018
867	-0.017
867	-0.015
868	-0.013
868	-0.011
869	-0.009
869	-0.008
869	-0.007
870	-0.006
870	-0.005
871	-0.005
871	-0.005
872	-0.006
872	-0.007
872	-0.009
873	-0.01
873	-0.011
874	-0.013
874	-0.014
875	-0.015
875	-0.015
875	-0.016
876	-0.016
876	-0.017
877	-0.017
877	-0.017
878	-0.018
878	-0.018
878	-0.018
879	-0.018
879	-0.018
880	-0.019
880	-0.019
881	-0.019
881	-0.019
881	-0.019
882	-0.02
882	-0.02
883	-0.021
883	-0.021
884	-0.021
884	-0.021
884	-0.021
885	-0.02
885	-0.02
886	-0.019
886	-0.018
887	-0.017
887	-0.016
887	-0.015
888	-0.015
888	-0.014
889	-0.014
889	-0.013
890	-0.013
890	-0.014
890	-0.015
891	-0.015
891	-0.017
892	-0.018
892	-0.019
893	-0.019
893	-0.02
893	-0.02
894	-0.02
894	-0.021
895	-0.021
895	-0.021
895	-0.021
896	-0.021
896	-0.021
897	-0.021
897	-0.021
898	-0.021
898	-0.021
898	-0.021
899	-0.02
899	-0.019
900	-0.018
900	-0.017
901	-0.015
901	-0.014
901	-0.013
902	-0.012
902	-0.011
903	-0.01
903	-0.01
904	-0.009
904	-0.009
904	-0.009
905	-0.009
905	-0.009
906	-0.009
906	-0.008
907	-0.009
907	-0.009
907	-0.009
908	-0.009
908	-0.009
909	-0.009
909	-0.01
910	-0.01
910	-0.011
910	-0.011
911	-0.011
911	-0.011
912	-0.01
912	-0.009
913	-0.009
913	-0.008
913	-0.008
914	-0.008
914	-0.008
915	-0.009
915	-0.01
916	-0.01
916	-0.012
916	-0.013
917	-0.014
917	-0.015
918	-0.016
918	-0.017
918	-0.017
919	-0.018
919	-0.018
920	-0.018
920	-0.017
921	-0.017
921	-0.017
921	-0.017
922	-0.016
922	-0.016
923	-0.015
923	-0.015
924	-0.015
924	-0.015
924	-0.015
925	-0.015
925	-0.016
926	-0.016
926	-0.017
927	-0.018
927	-0.018
927	-0.019
928	-0.019
928	-0.02
929	-0.02
929	-0.021
930	-0.021
930	-0.021
930	-0.021
931	-0.022
931	-0.022
932	-0.022
932	-0.023
933	-0.023
933	-0.024
933	-0.024
934	-0.025
934	-0.026
935	-0.027
935	-0.027
935	-0.028
936	-0.029
936	-0.029
937	-0.029
937	-0.029
938	-0.029
938	-0.029
938	-0.029
939	-0.028
939	-0.028
940	-0.027
940	-0.026
941	-0.026
941	-0.025
941	-0.024
942	-0.023
942	-0.022
943	-0.022
943	-0.022
944	-0.021
944	-0.022
944	-0.022
945	-0.022
945	-0.022
946	-0.022
946	-0.022
946	-0.023
947	-0.023
947	-0.024
948	-0.025
948	-0.025
949	-0.026
949	-0.027
949	-0.027
950	-0.027
950	-0.027
951	-0.027
951	-0.027
952	-0.027
952	-0.026
952	-0.026
953	-0.025
953	-0.024
954	-0.024
954	-0.024
955	-0.024
955	-0.024
955	-0.024
956	-0.024
956	-0.024
957	-0.024
957	-0.025
957	-0.025
958	-0.026
958	-0.026
959	-0.026
959	-0.027
960	-0.027
960	-0.028
960	-0.029
961	-0.029
961	-0.03
962	-0.031
962	-0.031
963	-0.032
963	-0.032
963	-0.032
964	-0.032
964	-0.031
965	-0.03
965	-0.029
966	-0.028
966	-0.027
966	-0.026
967	-0.025
967	-0.024
968	-0.024
968	-0.024
968	-0.024
969	-0.024
969	-0.024
970	-0.025
970	-0.025
971	-0.026
971	-0.027
971	-0.027
972	-0.027
972	-0.027
973	-0.027
973	-0.028
974	-0.028
974	-0.028
974	-0.028
975	-0.028
975	-0.028
976	-0.028
976	-0.028
976	-0.029
977	-0.03
977	-0.031
978	-0.033
978	-0.034
979	-0.035
979	-0.036
979	-0.037
980	-0.038
980	-0.039
981	-0.04
981	-0.04
982	-0.04
982	-0.04
982	-0.04
983	-0.04
983	-0.04
984	-0.04
984	-0.04
984	-0.04
985	-0.04
985	-0.04
986	-0.04
986	-0.04
987	-0.04
987	-0.039
987	-0.038
988	-0.037
988	-0.036
989	-0.035
989	-0.034
990	-0.032
990	-0.031
990	-0.029
991	-0.027
991	-0.026
992	-0.025
992	-0.024
992	-0.023
993	-0.023
993	-0.023
994	-0.023
994	-0.023
995	-0.023
995	-0.024
995	-0.024
996	-0.025
996	-0.026
997	-0.026
997	-0.026
997	-0.026
998	-0.026
998	-0.026
999	-0.026
999	-0.026
1000	-0.026
1000	-0.025
1000	-0.025
1001	-0.025
1001	-0.025
1002	-0.025
1002	-0.026
1003	-0.026
1003	-0.026
1003	-0.027
1004	-0.027
1004	-0.028
1005	-0.029
1005	-0.029
1005	-0.03
1006	-0.031
1006	-0.032
1007	-0.033
1007	-0.034
1008	-0.035
1008	-0.036
1008	-0.036
1009	-0.036
1009	-0.036
1010	-0.036
1010	-0.036
1010	-0.036
1011	-0.036
1011	-0.036
1012	-0.035
1012	-0.035
1013	-0.035
1013	-0.035
1013	-0.036
1014	-0.037
1014	-0.037
1015	-0.038
1015	-0.038
1016	-0.039
1016	-0.039
1016	-0.04
1017	-0.04
1017	-0.041
1018	-0.041
1018	-0.04
1018	-0.04
1019	-0.04
1019	-0.04
1020	-0.04
1020	-0.039
1021	-0.039
1021	-0.039
1021	-0.039
1022	-0.039
1022	-0.039
1023	-0.039
1023	-0.04
1023	-0.04
1024	-0.041
1024	-0.042
1025	-0.043
1025	-0.044
1026	-0.044
1026	-0.045
1026	-0.046
1027	-0.046
1027	-0.047
1028	-0.047
1028	-0.047
1028	-0.047
1029	-0.047
1029	-0.046
1030	-0.046
1030	-0.046
1031	-0.045
1031	-0.045
1031	-0.045
1032	-0.044
1032	-0.044
1033	-0.044
1033	-0.044
1033	-0.044
1034	-0.044
1034	-0.045
1035	-0.046
1035	-0.046
1036	-0.047
1036	-0.047
1036	-0.047
1037	-0.048
1037	-0.048
1038	-0.048
1038	-0.048
1039	-0.047
1039	-0.047
1039	-0.046
1040	-0.046
1040	-0.046
1041	-0.045
1041	-0.045
1041	-0.046
1042	-0.046
1042	-0.046
1043	-0.046
1043	-0.046
1044	-0.047
1044	-0.047
1044	-0.047
1045	-0.048
1045	-0.049
1046	-0.049
1046	-0.05
1046	-0.05
1047	-0.05
1047	-0.05
1048	-0.05
1048	-0.051
1049	-0.051
1049	-0.052
1049	-0.053
1050	-0.054
1050	-0.055
1051	-0.056
1051	-0.057
1051	-0.058
1052	-0.059
1052	-0.061
1053	-0.062
1053	-0.062
1053	-0.062
1054	-0.063
1054	-0.062
1055	-0.062
1055	-0.062
1056	-0.062
1056	-0.063
1056	-0.063
1057	-0.064
1057	-0.064
1058	-0.064
1058	-0.064
1058	-0.064
1059	-0.065
1059	-0.065
1060	-0.065
1060	-0.065
1061	-0.064
1061	-0.063
1061	-0.062
1062	-0.062
1062	-0.062
1063	-0.061
1063	-0.061
1063	-0.061
1064	-0.06
1064	-0.06
1065	-0.06
1065	-0.06
1066	-0.06
1066	-0.06
1066	-0.059
1067	-0.058
1067	-0.058
1068	-0.057
1068	-0.057
1068	-0.057
1069	-0.057
1069	-0.058
1070	-0.058
1070	-0.058
1071	-0.058
1071	-0.058
1071	-0.059
1072	-0.059
1072	-0.059
1073	-0.059
1073	-0.059
1073	-0.059
1074	-0.059
1074	-0.058
1075	-0.059
1075	-0.059
1076	-0.06
1076	-0.059
1076	-0.06
1077	-0.061
1077	-0.061
1078	-0.062
1078	-0.062
1078	-0.062
1079	-0.062
1079	-0.061
1080	-0.061
1080	-0.06
1080	-0.061
1081	-0.06
1081	-0.06
1082	-0.059
1082	-0.059
1083	-0.059
1083	-0.06
1083	-0.06
1084	-0.059
1084	-0.059
1085	-0.058
1085	-0.057
1085	-0.056
1086	-0.055
1086	-0.055
1087	-0.054
1087	-0.053
1088	-0.054
1088	-0.053
1088	-0.053
1089	-0.054
1089	-0.054
1090	-0.055
1090	-0.054
1090	-0.054
1091	-0.054
1091	-0.053
1092	-0.052
1092	-0.05
1092	-0.049
1093	-0.048
1093	-0.045
1094	-0.043
1094	-0.042
1095	-0.041
1095	-0.041
1095	-0.038
1096	-0.038
1096	-0.037
1097	-0.035
1097	-0.035
1097	-0.034
1098	-0.034
1098	-0.033
1099	-0.032
1099	-0.03
1100	-0.029
1100	-0.027
1100	-0.026
1101	-0.024
1101	-0.022
1102	-0.018
1102	-0.014
1102	-0.011
1103	-0.007
1103	-0.002
1104	0.003
1104	0.009
1104	0.016
1105	0.022
1105	0.027
1106	0.031
1106	0.037
1107	0.042
1107	0.053
1107	0.063
1108	0.105
1108	0.163
1109	0.246
1109	0.388
1109	0.512
1110	0.817
1110	-0
1111	-0
1111	-0
