Data from 15c-2a-fridge-noshake_Absorbance__885__07122.txt Node

Date: Wed Jan 17 19:07:48 CET 2024
User: Marek
Spectrometer: MAYP115816
Trigger mode: 0
Integration Time (sec): 2.000000E-1
Scans to average: 10
Electric dark correction enabled: true
Nonlinearity correction enabled: true
Boxcar width: 5
XAxis mode: Wavelengths
Number of Pixels in Spectrum: 2068
>>>>>Begin Spectral Data<<<<<
199	-1.577
199	-1.441
200	-1.286
200	-1.166
201	-1.092
201	-1.046
202	-0.979
202	-0.93
203	-0.888
203	-0.851
204	-0.828
204	-0.805
205	-0.782
205	-0.772
205	-0.771
206	-0.77
206	-0.767
207	-0.765
207	-0.761
208	-0.759
208	-0.759
209	-0.755
209	-0.754
210	-0.754
210	-0.755
211	-0.754
211	-0.754
212	-0.755
212	-0.755
213	-0.755
213	-0.755
213	-0.755
214	-0.753
214	-0.753
215	-0.752
215	-0.751
216	-0.752
216	-0.75
217	-0.744
217	-0.743
218	-0.743
218	-0.739
219	-0.736
219	-0.736
220	-0.733
220	-0.73
221	-0.725
221	-0.722
221	-0.718
222	-0.715
222	-0.71
223	-0.704
223	-0.701
224	-0.696
224	-0.689
225	-0.681
225	-0.673
226	-0.665
226	-0.653
227	-0.641
227	-0.629
228	-0.614
228	-0.597
229	-0.577
229	-0.554
229	-0.528
230	-0.501
230	-0.472
231	-0.439
231	-0.406
232	-0.372
232	-0.335
233	-0.297
233	-0.259
234	-0.221
234	-0.184
235	-0.15
235	-0.116
236	-0.085
236	-0.055
236	-0.027
237	-0.001
237	0.021
238	0.042
238	0.061
239	0.079
239	0.094
240	0.108
240	0.12
241	0.131
241	0.14
242	0.149
242	0.156
243	0.163
243	0.169
243	0.174
244	0.179
244	0.183
245	0.187
245	0.19
246	0.194
246	0.197
247	0.2
247	0.202
248	0.205
248	0.208
249	0.21
249	0.212
250	0.213
250	0.215
250	0.217
251	0.219
251	0.22
252	0.222
252	0.223
253	0.224
253	0.225
254	0.226
254	0.227
255	0.228
255	0.229
256	0.229
256	0.23
257	0.23
257	0.23
258	0.231
258	0.231
258	0.231
259	0.231
259	0.231
260	0.23
260	0.23
261	0.23
261	0.23
262	0.229
262	0.229
263	0.228
263	0.227
264	0.227
264	0.226
265	0.225
265	0.224
265	0.223
266	0.222
266	0.22
267	0.219
267	0.218
268	0.216
268	0.215
269	0.214
269	0.212
270	0.211
270	0.209
271	0.207
271	0.206
272	0.204
272	0.202
272	0.2
273	0.199
273	0.197
274	0.195
274	0.193
275	0.191
275	0.19
276	0.188
276	0.187
277	0.185
277	0.184
278	0.182
278	0.181
278	0.179
279	0.176
279	0.173
280	0.171
280	0.169
281	0.167
281	0.165
282	0.162
282	0.16
283	0.158
283	0.157
284	0.156
284	0.155
285	0.154
285	0.153
285	0.151
286	0.15
286	0.149
287	0.148
287	0.147
288	0.146
288	0.144
289	0.143
289	0.142
290	0.141
290	0.139
291	0.138
291	0.137
292	0.136
292	0.135
292	0.134
293	0.134
293	0.133
294	0.132
294	0.131
295	0.13
295	0.13
296	0.129
296	0.129
297	0.128
297	0.128
298	0.127
298	0.127
298	0.126
299	0.126
299	0.125
300	0.125
300	0.124
301	0.124
301	0.124
302	0.123
302	0.123
303	0.122
303	0.122
304	0.121
304	0.121
305	0.121
305	0.12
305	0.12
306	0.119
306	0.119
307	0.119
307	0.118
308	0.118
308	0.118
309	0.117
309	0.117
310	0.116
310	0.116
311	0.116
311	0.115
311	0.115
312	0.114
312	0.114
313	0.114
313	0.113
314	0.113
314	0.112
315	0.112
315	0.111
316	0.111
316	0.11
317	0.11
317	0.11
318	0.109
318	0.108
318	0.108
319	0.108
319	0.107
320	0.107
320	0.106
321	0.106
321	0.106
322	0.105
322	0.105
323	0.104
323	0.104
324	0.103
324	0.103
324	0.102
325	0.102
325	0.101
326	0.101
326	0.1
327	0.1
327	0.1
328	0.099
328	0.099
329	0.098
329	0.098
330	0.097
330	0.097
330	0.096
331	0.096
331	0.095
332	0.095
332	0.094
333	0.094
333	0.094
334	0.093
334	0.093
335	0.092
335	0.092
336	0.092
336	0.091
336	0.091
337	0.091
337	0.09
338	0.09
338	0.09
339	0.089
339	0.089
340	0.089
340	0.088
341	0.088
341	0.088
342	0.087
342	0.087
342	0.087
343	0.086
343	0.086
344	0.085
344	0.085
345	0.085
345	0.084
346	0.084
346	0.084
347	0.083
347	0.083
348	0.082
348	0.082
348	0.082
349	0.082
349	0.081
350	0.081
350	0.081
351	0.08
351	0.08
352	0.079
352	0.079
353	0.079
353	0.079
354	0.078
354	0.078
354	0.078
355	0.077
355	0.077
356	0.077
356	0.077
357	0.077
357	0.076
358	0.076
358	0.076
359	0.076
359	0.076
360	0.076
360	0.076
360	0.076
361	0.076
361	0.076
362	0.076
362	0.076
363	0.076
363	0.076
364	0.076
364	0.075
365	0.075
365	0.075
366	0.075
366	0.074
366	0.074
367	0.074
367	0.074
368	0.074
368	0.074
369	0.073
369	0.074
370	0.073
370	0.073
371	0.073
371	0.073
372	0.073
372	0.073
372	0.073
373	0.073
373	0.073
374	0.073
374	0.073
375	0.073
375	0.073
376	0.073
376	0.073
377	0.073
377	0.074
378	0.074
378	0.074
378	0.074
379	0.074
379	0.074
380	0.074
380	0.074
381	0.074
381	0.073
382	0.073
382	0.073
383	0.073
383	0.073
383	0.072
384	0.072
384	0.072
385	0.072
385	0.072
386	0.072
386	0.072
387	0.072
387	0.072
388	0.072
388	0.072
389	0.072
389	0.072
389	0.072
390	0.072
390	0.073
391	0.073
391	0.073
392	0.073
392	0.073
393	0.073
393	0.073
394	0.072
394	0.072
394	0.072
395	0.072
395	0.072
396	0.072
396	0.072
397	0.072
397	0.072
398	0.072
398	0.072
399	0.072
399	0.072
400	0.072
400	0.071
400	0.071
401	0.071
401	0.07
402	0.07
402	0.07
403	0.07
403	0.07
404	0.07
404	0.07
405	0.07
405	0.07
405	0.07
406	0.07
406	0.07
407	0.07
407	0.069
408	0.069
408	0.069
409	0.069
409	0.069
410	0.069
410	0.069
411	0.069
411	0.069
411	0.069
412	0.069
412	0.069
413	0.069
413	0.069
414	0.069
414	0.069
415	0.069
415	0.068
416	0.068
416	0.067
416	0.067
417	0.067
417	0.067
418	0.067
418	0.068
419	0.068
419	0.069
420	0.069
420	0.069
421	0.07
421	0.07
421	0.07
422	0.07
422	0.071
423	0.071
423	0.071
424	0.07
424	0.07
425	0.069
425	0.069
426	0.069
426	0.069
427	0.069
427	0.069
427	0.069
428	0.069
428	0.069
429	0.07
429	0.069
430	0.069
430	0.069
431	0.069
431	0.069
432	0.069
432	0.068
432	0.068
433	0.067
433	0.067
434	0.067
434	0.068
435	0.068
435	0.068
436	0.068
436	0.068
437	0.068
437	0.068
437	0.068
438	0.068
438	0.068
439	0.068
439	0.068
440	0.067
440	0.068
441	0.068
441	0.068
442	0.067
442	0.067
442	0.067
443	0.067
443	0.068
444	0.068
444	0.068
445	0.068
445	0.069
446	0.069
446	0.069
447	0.069
447	0.069
447	0.069
448	0.069
448	0.069
449	0.069
449	0.069
450	0.069
450	0.069
451	0.068
451	0.069
452	0.069
452	0.068
452	0.068
453	0.068
453	0.068
454	0.068
454	0.068
455	0.068
455	0.068
456	0.068
456	0.067
457	0.067
457	0.067
458	0.067
458	0.067
458	0.067
459	0.067
459	0.067
460	0.066
460	0.066
461	0.066
461	0.066
462	0.066
462	0.066
463	0.067
463	0.067
463	0.068
464	0.068
464	0.068
465	0.068
465	0.069
466	0.069
466	0.069
467	0.069
467	0.069
467	0.069
468	0.068
468	0.068
469	0.067
469	0.068
470	0.068
470	0.068
471	0.068
471	0.067
472	0.067
472	0.068
472	0.068
473	0.069
473	0.069
474	0.069
474	0.07
475	0.07
475	0.07
476	0.07
476	0.07
477	0.07
477	0.07
477	0.07
478	0.07
478	0.07
479	0.071
479	0.071
480	0.071
480	0.072
481	0.072
481	0.072
482	0.073
482	0.074
482	0.075
483	0.076
483	0.078
484	0.079
484	0.079
485	0.079
485	0.079
486	0.079
486	0.08
487	0.08
487	0.08
487	0.08
488	0.08
488	0.079
489	0.079
489	0.08
490	0.081
490	0.081
491	0.082
491	0.082
492	0.083
492	0.083
492	0.083
493	0.084
493	0.085
494	0.086
494	0.087
495	0.088
495	0.088
496	0.089
496	0.09
496	0.091
497	0.091
497	0.092
498	0.093
498	0.093
499	0.093
499	0.094
500	0.095
500	0.096
501	0.097
501	0.098
501	0.098
502	0.099
502	0.1
503	0.101
503	0.102
504	0.102
504	0.102
505	0.103
505	0.103
506	0.104
506	0.104
506	0.105
507	0.105
507	0.106
508	0.107
508	0.108
509	0.108
509	0.109
510	0.11
510	0.111
511	0.112
511	0.112
511	0.112
512	0.113
512	0.113
513	0.112
513	0.112
514	0.112
514	0.112
515	0.112
515	0.112
515	0.112
516	0.112
516	0.113
517	0.114
517	0.114
518	0.114
518	0.114
519	0.114
519	0.113
520	0.113
520	0.113
520	0.112
521	0.111
521	0.11
522	0.109
522	0.109
523	0.109
523	0.11
524	0.11
524	0.11
524	0.11
525	0.11
525	0.111
526	0.111
526	0.112
527	0.112
527	0.112
528	0.112
528	0.112
529	0.112
529	0.111
529	0.111
530	0.111
530	0.111
531	0.111
531	0.111
532	0.11
532	0.11
533	0.11
533	0.11
533	0.109
534	0.109
534	0.108
535	0.107
535	0.107
536	0.107
536	0.106
537	0.106
537	0.105
538	0.104
538	0.103
538	0.103
539	0.103
539	0.102
540	0.101
540	0.1
541	0.098
541	0.097
542	0.096
542	0.095
542	0.094
543	0.093
543	0.092
544	0.091
544	0.09
545	0.09
545	0.09
546	0.09
546	0.089
547	0.087
547	0.086
547	0.085
548	0.084
548	0.084
549	0.083
549	0.082
550	0.081
550	0.08
551	0.079
551	0.078
551	0.078
552	0.078
552	0.077
553	0.077
553	0.077
554	0.076
554	0.074
555	0.072
555	0.071
556	0.07
556	0.068
556	0.067
557	0.066
557	0.065
558	0.063
558	0.062
559	0.061
559	0.06
560	0.06
560	0.059
560	0.058
561	0.058
561	0.058
562	0.058
562	0.056
563	0.055
563	0.054
564	0.052
564	0.051
564	0.05
565	0.05
565	0.049
566	0.048
566	0.047
567	0.047
567	0.047
568	0.048
568	0.048
568	0.049
569	0.049
569	0.05
570	0.05
570	0.048
571	0.048
571	0.049
572	0.048
572	0.048
573	0.047
573	0.046
573	0.044
574	0.043
574	0.043
575	0.043
575	0.045
576	0.045
576	0.043
577	0.041
577	0.04
577	0.041
578	0.041
578	0.042
579	0.043
579	0.044
580	0.042
580	0.038
581	0.034
581	0.033
581	0.033
582	0.034
582	0.033
583	0.034
583	0.033
584	0.029
584	0.025
585	0.026
585	0.027
585	0.029
586	0.029
586	0.029
587	0.027
587	0.025
588	0.023
588	0.023
589	0.023
589	0.024
590	0.024
590	0.024
590	0.026
591	0.028
591	0.027
592	0.026
592	0.025
593	0.025
593	0.025
594	0.024
594	0.023
594	0.022
595	0.021
595	0.02
596	0.019
596	0.021
597	0.024
597	0.025
598	0.025
598	0.026
598	0.027
599	0.027
599	0.027
600	0.026
600	0.025
601	0.024
601	0.023
602	0.022
602	0.021
602	0.021
603	0.022
603	0.024
604	0.025
604	0.027
605	0.029
605	0.031
606	0.031
606	0.03
606	0.03
607	0.03
607	0.03
608	0.029
608	0.027
609	0.026
609	0.027
610	0.026
610	0.024
610	0.025
611	0.027
611	0.028
612	0.03
612	0.031
613	0.033
613	0.034
614	0.033
614	0.031
614	0.031
615	0.03
615	0.029
616	0.029
616	0.028
617	0.027
617	0.025
618	0.024
618	0.024
618	0.024
619	0.025
619	0.026
620	0.028
620	0.029
621	0.029
621	0.03
622	0.03
622	0.03
622	0.03
623	0.029
623	0.031
624	0.031
624	0.03
625	0.029
625	0.029
626	0.029
626	0.029
626	0.03
627	0.031
627	0.031
628	0.032
628	0.033
629	0.033
629	0.033
630	0.033
630	0.033
630	0.034
631	0.034
631	0.035
632	0.035
632	0.035
633	0.036
633	0.037
634	0.039
634	0.04
634	0.042
635	0.043
635	0.043
636	0.044
636	0.045
637	0.046
637	0.046
638	0.047
638	0.048
638	0.049
639	0.049
639	0.049
640	0.05
640	0.051
641	0.051
641	0.052
642	0.053
642	0.054
642	0.055
643	0.055
643	0.056
644	0.057
644	0.059
645	0.06
645	0.061
646	0.063
646	0.065
646	0.068
647	0.07
647	0.072
648	0.073
648	0.074
649	0.076
649	0.078
650	0.08
650	0.082
650	0.083
651	0.084
651	0.086
652	0.087
652	0.089
653	0.092
653	0.1
653	0.116
654	0.095
654	0.079
655	0.075
655	0.075
656	0.076
656	0.077
657	0.078
657	0.079
657	0.079
658	0.075
658	0.062
659	0.079
659	0.101
660	0.112
660	0.115
661	0.116
661	0.118
661	0.121
662	0.124
662	0.127
663	0.13
663	0.132
664	0.135
664	0.137
665	0.139
665	0.141
665	0.142
666	0.143
666	0.144
667	0.144
667	0.145
668	0.146
668	0.148
669	0.149
669	0.152
669	0.154
670	0.156
670	0.158
671	0.159
671	0.16
672	0.162
672	0.163
672	0.165
673	0.166
673	0.167
674	0.168
674	0.168
675	0.169
675	0.17
676	0.173
676	0.174
676	0.175
677	0.176
677	0.177
678	0.178
678	0.178
679	0.178
679	0.179
680	0.181
680	0.181
680	0.181
681	0.182
681	0.183
682	0.184
682	0.185
683	0.186
683	0.188
684	0.189
684	0.188
684	0.187
685	0.188
685	0.188
686	0.188
686	0.188
687	0.187
687	0.187
687	0.188
688	0.187
688	0.186
689	0.187
689	0.188
690	0.188
690	0.187
691	0.186
691	0.186
691	0.184
692	0.183
692	0.181
693	0.181
693	0.18
694	0.179
694	0.177
695	0.177
695	0.178
695	0.177
696	0.175
696	0.174
697	0.173
697	0.172
698	0.171
698	0.169
698	0.168
699	0.167
699	0.165
700	0.163
700	0.163
701	0.163
701	0.163
702	0.163
702	0.163
702	0.162
703	0.161
703	0.161
704	0.16
704	0.16
705	0.16
705	0.158
705	0.157
706	0.156
706	0.155
707	0.153
707	0.151
708	0.15
708	0.149
709	0.148
709	0.145
709	0.142
710	0.14
710	0.138
711	0.137
711	0.135
712	0.134
712	0.132
713	0.13
713	0.128
713	0.126
714	0.124
714	0.123
715	0.121
715	0.12
716	0.118
716	0.118
716	0.116
717	0.115
717	0.114
718	0.113
718	0.111
719	0.111
719	0.109
720	0.107
720	0.105
720	0.103
721	0.101
721	0.099
722	0.098
722	0.096
723	0.095
723	0.094
723	0.093
724	0.091
724	0.09
725	0.089
725	0.088
726	0.086
726	0.085
727	0.084
727	0.083
727	0.082
728	0.08
728	0.079
729	0.079
729	0.079
730	0.078
730	0.077
730	0.076
731	0.075
731	0.075
732	0.074
732	0.073
733	0.071
733	0.07
734	0.069
734	0.067
734	0.066
735	0.066
735	0.064
736	0.063
736	0.062
737	0.062
737	0.063
737	0.062
738	0.06
738	0.058
739	0.056
739	0.055
740	0.053
740	0.053
741	0.052
741	0.05
741	0.047
742	0.044
742	0.043
743	0.042
743	0.041
744	0.04
744	0.039
744	0.038
745	0.036
745	0.034
746	0.033
746	0.032
747	0.031
747	0.031
748	0.03
748	0.03
748	0.028
749	0.027
749	0.026
750	0.025
750	0.024
751	0.024
751	0.024
751	0.024
752	0.024
752	0.023
753	0.023
753	0.023
754	0.023
754	0.023
754	0.024
755	0.024
755	0.024
756	0.023
756	0.02
757	0.019
757	0.018
758	0.017
758	0.016
758	0.015
759	0.014
759	0.012
760	0.009
760	0.007
761	0.006
761	0.006
761	0.006
762	0.005
762	0.005
763	0.004
763	0.002
764	0.001
764	-0.001
764	-0.002
765	-0.003
765	-0.005
766	-0.005
766	-0.006
767	-0.007
767	-0.01
768	-0.013
768	-0.014
768	-0.014
769	-0.015
769	-0.015
770	-0.016
770	-0.017
771	-0.019
771	-0.021
771	-0.023
772	-0.024
772	-0.025
773	-0.026
773	-0.028
774	-0.03
774	-0.031
775	-0.033
775	-0.034
775	-0.037
776	-0.039
776	-0.041
777	-0.043
777	-0.045
778	-0.048
778	-0.05
778	-0.052
779	-0.053
779	-0.055
780	-0.058
780	-0.061
781	-0.063
781	-0.066
781	-0.069
782	-0.073
782	-0.078
783	-0.082
783	-0.086
784	-0.092
784	-0.097
784	-0.102
785	-0.107
785	-0.113
786	-0.118
786	-0.122
787	-0.123
787	-0.125
788	-0.13
788	-0.135
788	-0.14
789	-0.145
789	-0.147
790	-0.147
790	-0.149
791	-0.151
791	-0.153
791	-0.155
792	-0.15
792	-0.139
793	-0.133
793	-0.129
794	-0.128
794	-0.13
794	-0.134
795	-0.136
795	-0.137
796	-0.137
796	-0.14
797	-0.149
797	-0.16
797	-0.167
798	-0.172
798	-0.175
799	-0.175
799	-0.174
800	-0.174
800	-0.175
801	-0.178
801	-0.179
801	-0.179
802	-0.18
802	-0.182
803	-0.182
803	-0.183
804	-0.182
804	-0.177
804	-0.17
805	-0.167
805	-0.164
806	-0.162
806	-0.161
807	-0.16
807	-0.159
807	-0.159
808	-0.159
808	-0.161
809	-0.166
809	-0.171
810	-0.175
810	-0.178
810	-0.182
811	-0.185
811	-0.185
812	-0.181
812	-0.178
813	-0.178
813	-0.179
813	-0.179
814	-0.18
814	-0.179
815	-0.176
815	-0.172
816	-0.169
816	-0.168
817	-0.168
817	-0.166
817	-0.161
818	-0.154
818	-0.145
819	-0.136
819	-0.129
820	-0.122
820	-0.116
820	-0.108
821	-0.101
821	-0.094
822	-0.088
822	-0.083
823	-0.078
823	-0.076
823	-0.073
824	-0.07
824	-0.067
825	-0.063
825	-0.06
826	-0.058
826	-0.057
826	-0.056
827	-0.054
827	-0.053
828	-0.052
828	-0.052
829	-0.051
829	-0.05
829	-0.05
830	-0.049
830	-0.048
831	-0.046
831	-0.045
832	-0.044
832	-0.042
832	-0.041
833	-0.04
833	-0.038
834	-0.037
834	-0.036
835	-0.035
835	-0.033
835	-0.032
836	-0.031
836	-0.03
837	-0.029
837	-0.028
838	-0.027
838	-0.027
839	-0.026
839	-0.026
839	-0.027
840	-0.027
840	-0.027
841	-0.028
841	-0.028
842	-0.028
842	-0.028
842	-0.028
843	-0.027
843	-0.027
844	-0.026
844	-0.025
845	-0.024
845	-0.023
845	-0.022
846	-0.021
846	-0.021
847	-0.021
847	-0.021
848	-0.021
848	-0.022
848	-0.022
849	-0.023
849	-0.023
850	-0.024
850	-0.024
851	-0.024
851	-0.024
851	-0.024
852	-0.024
852	-0.023
853	-0.023
853	-0.023
854	-0.023
854	-0.023
854	-0.023
855	-0.024
855	-0.024
856	-0.025
856	-0.025
857	-0.026
857	-0.026
857	-0.026
858	-0.026
858	-0.026
859	-0.026
859	-0.026
860	-0.025
860	-0.025
860	-0.024
861	-0.024
861	-0.023
862	-0.023
862	-0.023
863	-0.023
863	-0.023
863	-0.023
864	-0.022
864	-0.022
865	-0.021
865	-0.021
866	-0.02
866	-0.02
866	-0.018
867	-0.017
867	-0.015
868	-0.014
868	-0.012
869	-0.011
869	-0.01
869	-0.009
870	-0.008
870	-0.008
871	-0.008
871	-0.008
872	-0.009
872	-0.011
872	-0.012
873	-0.013
873	-0.014
874	-0.015
874	-0.016
875	-0.016
875	-0.017
875	-0.017
876	-0.017
876	-0.017
877	-0.017
877	-0.016
878	-0.016
878	-0.016
878	-0.015
879	-0.015
879	-0.015
880	-0.015
880	-0.016
881	-0.016
881	-0.017
881	-0.017
882	-0.018
882	-0.019
883	-0.02
883	-0.02
884	-0.021
884	-0.021
884	-0.02
885	-0.02
885	-0.019
886	-0.018
886	-0.017
887	-0.016
887	-0.015
887	-0.015
888	-0.014
888	-0.014
889	-0.014
889	-0.014
890	-0.014
890	-0.014
890	-0.015
891	-0.016
891	-0.017
892	-0.018
892	-0.019
893	-0.02
893	-0.02
893	-0.02
894	-0.021
894	-0.022
895	-0.022
895	-0.022
895	-0.023
896	-0.023
896	-0.023
897	-0.023
897	-0.024
898	-0.024
898	-0.024
898	-0.024
899	-0.024
899	-0.023
900	-0.022
900	-0.02
901	-0.019
901	-0.017
901	-0.016
902	-0.014
902	-0.013
903	-0.012
903	-0.012
904	-0.011
904	-0.011
904	-0.011
905	-0.011
905	-0.012
906	-0.012
906	-0.012
907	-0.013
907	-0.013
907	-0.013
908	-0.013
908	-0.013
909	-0.013
909	-0.013
910	-0.013
910	-0.013
910	-0.013
911	-0.012
911	-0.011
912	-0.01
912	-0.009
913	-0.008
913	-0.008
913	-0.008
914	-0.008
914	-0.008
915	-0.009
915	-0.009
916	-0.011
916	-0.012
916	-0.013
917	-0.015
917	-0.016
918	-0.017
918	-0.018
918	-0.019
919	-0.019
919	-0.019
920	-0.019
920	-0.018
921	-0.018
921	-0.018
921	-0.018
922	-0.017
922	-0.016
923	-0.015
923	-0.014
924	-0.014
924	-0.013
924	-0.013
925	-0.014
925	-0.014
926	-0.014
926	-0.015
927	-0.016
927	-0.017
927	-0.017
928	-0.018
928	-0.019
929	-0.02
929	-0.02
930	-0.021
930	-0.021
930	-0.022
931	-0.022
931	-0.022
932	-0.023
932	-0.023
933	-0.024
933	-0.024
933	-0.025
934	-0.025
934	-0.026
935	-0.027
935	-0.027
935	-0.027
936	-0.028
936	-0.028
937	-0.027
937	-0.027
938	-0.027
938	-0.027
938	-0.027
939	-0.026
939	-0.025
940	-0.024
940	-0.024
941	-0.023
941	-0.022
941	-0.021
942	-0.021
942	-0.02
943	-0.019
943	-0.019
944	-0.019
944	-0.02
944	-0.02
945	-0.02
945	-0.02
946	-0.02
946	-0.021
946	-0.021
947	-0.021
947	-0.022
948	-0.023
948	-0.023
949	-0.024
949	-0.024
949	-0.024
950	-0.025
950	-0.025
951	-0.025
951	-0.025
952	-0.025
952	-0.025
952	-0.025
953	-0.025
953	-0.024
954	-0.024
954	-0.024
955	-0.025
955	-0.025
955	-0.025
956	-0.024
956	-0.024
957	-0.025
957	-0.025
957	-0.026
958	-0.027
958	-0.027
959	-0.028
959	-0.029
960	-0.03
960	-0.031
960	-0.032
961	-0.034
961	-0.035
962	-0.035
962	-0.036
963	-0.036
963	-0.036
963	-0.036
964	-0.036
964	-0.034
965	-0.033
965	-0.032
966	-0.03
966	-0.029
966	-0.028
967	-0.027
967	-0.026
968	-0.025
968	-0.025
968	-0.025
969	-0.025
969	-0.025
970	-0.026
970	-0.026
971	-0.027
971	-0.027
971	-0.028
972	-0.028
972	-0.027
973	-0.027
973	-0.027
974	-0.028
974	-0.028
974	-0.028
975	-0.028
975	-0.029
976	-0.029
976	-0.029
976	-0.03
977	-0.031
977	-0.033
978	-0.034
978	-0.035
979	-0.036
979	-0.037
979	-0.038
980	-0.039
980	-0.04
981	-0.04
981	-0.04
982	-0.04
982	-0.039
982	-0.039
983	-0.038
983	-0.038
984	-0.037
984	-0.037
984	-0.036
985	-0.036
985	-0.036
986	-0.037
986	-0.037
987	-0.038
987	-0.037
987	-0.037
988	-0.036
988	-0.036
989	-0.035
989	-0.034
990	-0.033
990	-0.031
990	-0.029
991	-0.027
991	-0.025
992	-0.024
992	-0.023
992	-0.022
993	-0.021
993	-0.021
994	-0.02
994	-0.02
995	-0.021
995	-0.021
995	-0.021
996	-0.022
996	-0.023
997	-0.023
997	-0.023
997	-0.023
998	-0.023
998	-0.023
999	-0.023
999	-0.023
1000	-0.022
1000	-0.022
1000	-0.022
1001	-0.023
1001	-0.023
1002	-0.023
1002	-0.023
1003	-0.023
1003	-0.024
1003	-0.024
1004	-0.025
1004	-0.026
1005	-0.026
1005	-0.027
1005	-0.028
1006	-0.028
1006	-0.029
1007	-0.03
1007	-0.031
1008	-0.032
1008	-0.032
1008	-0.033
1009	-0.033
1009	-0.033
1010	-0.033
1010	-0.033
1010	-0.033
1011	-0.033
1011	-0.033
1012	-0.033
1012	-0.033
1013	-0.033
1013	-0.034
1013	-0.035
1014	-0.036
1014	-0.038
1015	-0.039
1015	-0.04
1016	-0.041
1016	-0.042
1016	-0.042
1017	-0.043
1017	-0.043
1018	-0.043
1018	-0.043
1018	-0.043
1019	-0.042
1019	-0.042
1020	-0.041
1020	-0.041
1021	-0.041
1021	-0.04
1021	-0.04
1022	-0.039
1022	-0.039
1023	-0.039
1023	-0.039
1023	-0.039
1024	-0.04
1024	-0.041
1025	-0.041
1025	-0.042
1026	-0.043
1026	-0.044
1026	-0.045
1027	-0.045
1027	-0.046
1028	-0.046
1028	-0.047
1028	-0.047
1029	-0.047
1029	-0.047
1030	-0.047
1030	-0.047
1031	-0.047
1031	-0.047
1031	-0.047
1032	-0.047
1032	-0.047
1033	-0.047
1033	-0.048
1033	-0.048
1034	-0.049
1034	-0.05
1035	-0.05
1035	-0.051
1036	-0.051
1036	-0.052
1036	-0.052
1037	-0.052
1037	-0.051
1038	-0.051
1038	-0.051
1039	-0.05
1039	-0.049
1039	-0.049
1040	-0.048
1040	-0.048
1041	-0.048
1041	-0.048
1041	-0.048
1042	-0.048
1042	-0.049
1043	-0.049
1043	-0.05
1044	-0.051
1044	-0.051
1044	-0.052
1045	-0.053
1045	-0.053
1046	-0.054
1046	-0.054
1046	-0.055
1047	-0.055
1047	-0.054
1048	-0.054
1048	-0.054
1049	-0.055
1049	-0.055
1049	-0.056
1050	-0.057
1050	-0.058
1051	-0.059
1051	-0.06
1051	-0.061
1052	-0.062
1052	-0.063
1053	-0.064
1053	-0.064
1053	-0.065
1054	-0.065
1054	-0.065
1055	-0.065
1055	-0.066
1056	-0.066
1056	-0.067
1056	-0.068
1057	-0.069
1057	-0.069
1058	-0.069
1058	-0.07
1058	-0.07
1059	-0.07
1059	-0.07
1060	-0.07
1060	-0.069
1061	-0.068
1061	-0.067
1061	-0.065
1062	-0.065
1062	-0.064
1063	-0.063
1063	-0.063
1063	-0.062
1064	-0.062
1064	-0.061
1065	-0.06
1065	-0.061
1066	-0.06
1066	-0.06
1066	-0.06
1067	-0.059
1067	-0.059
1068	-0.059
1068	-0.059
1068	-0.059
1069	-0.06
1069	-0.06
1070	-0.061
1070	-0.061
1071	-0.061
1071	-0.062
1071	-0.063
1072	-0.063
1072	-0.063
1073	-0.063
1073	-0.063
1073	-0.063
1074	-0.062
1074	-0.062
1075	-0.062
1075	-0.063
1076	-0.063
1076	-0.062
1076	-0.063
1077	-0.064
1077	-0.064
1078	-0.064
1078	-0.064
1078	-0.063
1079	-0.063
1079	-0.062
1080	-0.062
1080	-0.062
1080	-0.062
1081	-0.062
1081	-0.061
1082	-0.061
1082	-0.061
1083	-0.061
1083	-0.062
1083	-0.062
1084	-0.061
1084	-0.061
1085	-0.06
1085	-0.059
1085	-0.058
1086	-0.057
1086	-0.057
1087	-0.056
1087	-0.055
1088	-0.055
1088	-0.055
1088	-0.055
1089	-0.056
1089	-0.057
1090	-0.057
1090	-0.057
1090	-0.057
1091	-0.057
1091	-0.056
1092	-0.056
1092	-0.054
1092	-0.053
1093	-0.052
1093	-0.049
1094	-0.047
1094	-0.047
1095	-0.046
1095	-0.045
1095	-0.043
1096	-0.042
1096	-0.042
1097	-0.041
1097	-0.04
1097	-0.041
1098	-0.041
1098	-0.041
1099	-0.039
1099	-0.037
1100	-0.036
1100	-0.035
1100	-0.034
1101	-0.033
1101	-0.032
1102	-0.029
1102	-0.025
1102	-0.022
1103	-0.02
1103	-0.016
1104	-0.013
1104	-0.009
1104	-0.003
1105	0.002
1105	0.006
1106	0.008
1106	0.014
1107	0.017
1107	0.025
1107	0.034
1108	0.07
1108	0.119
1109	0.187
1109	0.295
1109	0.381
1110	0.559
1110	1.155
1111	-0
1111	-0
