Data from 17C_3.4A_30min_2sec_int_Absorbance__39__00760.txt Node

Date: Mon Jun 19 16:49:30 CEST 2023
User: Marek
Spectrometer: MAYP115816
Trigger mode: 0
Integration Time (sec): 2.500000E-1
Scans to average: 10
Electric dark correction enabled: true
Nonlinearity correction enabled: true
Boxcar width: 5
XAxis mode: Wavelengths
Number of Pixels in Spectrum: 2068
>>>>>Begin Spectral Data<<<<<
199	-0.613
199	-0.621
200	-0.528
200	-0.479
201	-0.44
201	-0.43
202	-0.414
202	-0.401
203	-0.394
203	-0.39
204	-0.376
204	-0.364
205	-0.342
205	-0.338
205	-0.335
206	-0.34
206	-0.343
207	-0.334
207	-0.336
208	-0.335
208	-0.335
209	-0.332
209	-0.334
210	-0.338
210	-0.341
211	-0.343
211	-0.345
212	-0.347
212	-0.355
213	-0.353
213	-0.354
213	-0.357
214	-0.352
214	-0.351
215	-0.35
215	-0.358
216	-0.361
216	-0.367
217	-0.362
217	-0.366
218	-0.37
218	-0.373
219	-0.377
219	-0.387
220	-0.389
220	-0.397
221	-0.394
221	-0.396
221	-0.39
222	-0.387
222	-0.386
223	-0.39
223	-0.393
224	-0.394
224	-0.394
225	-0.39
225	-0.386
226	-0.39
226	-0.391
227	-0.395
227	-0.404
228	-0.406
228	-0.405
229	-0.405
229	-0.402
229	-0.398
230	-0.403
230	-0.406
231	-0.4
231	-0.391
232	-0.384
232	-0.383
233	-0.377
233	-0.376
234	-0.376
234	-0.374
235	-0.375
235	-0.379
236	-0.377
236	-0.382
236	-0.389
237	-0.398
237	-0.4
238	-0.408
238	-0.407
239	-0.407
239	-0.413
240	-0.414
240	-0.413
241	-0.417
241	-0.413
242	-0.418
242	-0.413
243	-0.408
243	-0.411
243	-0.419
244	-0.418
244	-0.418
245	-0.43
245	-0.431
246	-0.438
246	-0.443
247	-0.445
247	-0.45
248	-0.455
248	-0.449
249	-0.45
249	-0.459
250	-0.455
250	-0.45
250	-0.45
251	-0.448
251	-0.447
252	-0.448
252	-0.439
253	-0.444
253	-0.455
254	-0.454
254	-0.451
255	-0.459
255	-0.452
256	-0.45
256	-0.46
257	-0.459
257	-0.455
258	-0.471
258	-0.467
258	-0.462
259	-0.457
259	-0.464
260	-0.465
260	-0.469
261	-0.476
261	-0.467
262	-0.465
262	-0.468
263	-0.456
263	-0.454
264	-0.456
264	-0.468
265	-0.464
265	-0.472
265	-0.477
266	-0.475
266	-0.474
267	-0.484
267	-0.49
268	-0.506
268	-0.515
269	-0.512
269	-0.505
270	-0.51
270	-0.514
271	-0.515
271	-0.521
272	-0.522
272	-0.518
272	-0.511
273	-0.509
273	-0.515
274	-0.519
274	-0.523
275	-0.522
275	-0.513
276	-0.516
276	-0.509
277	-0.515
277	-0.531
278	-0.542
278	-0.534
278	-0.525
279	-0.529
279	-0.537
280	-0.534
280	-0.534
281	-0.529
281	-0.534
282	-0.525
282	-0.527
283	-0.517
283	-0.519
284	-0.517
284	-0.505
285	-0.503
285	-0.5
285	-0.495
286	-0.502
286	-0.496
287	-0.495
287	-0.477
288	-0.47
288	-0.478
289	-0.489
289	-0.498
290	-0.485
290	-0.487
291	-0.486
291	-0.478
292	-0.481
292	-0.489
292	-0.493
293	-0.5
293	-0.49
294	-0.48
294	-0.472
295	-0.469
295	-0.464
296	-0.462
296	-0.464
297	-0.457
297	-0.441
298	-0.434
298	-0.44
298	-0.43
299	-0.421
299	-0.423
300	-0.418
300	-0.412
301	-0.411
301	-0.409
302	-0.417
302	-0.425
303	-0.414
303	-0.401
304	-0.405
304	-0.407
305	-0.41
305	-0.411
305	-0.409
306	-0.392
306	-0.386
307	-0.372
307	-0.374
308	-0.385
308	-0.383
309	-0.382
309	-0.374
310	-0.361
310	-0.359
311	-0.354
311	-0.361
311	-0.359
312	-0.356
312	-0.353
313	-0.34
313	-0.341
314	-0.34
314	-0.339
315	-0.338
315	-0.336
316	-0.331
316	-0.324
317	-0.316
317	-0.312
318	-0.3
318	-0.298
318	-0.294
319	-0.281
319	-0.277
320	-0.274
320	-0.275
321	-0.281
321	-0.278
322	-0.273
322	-0.268
323	-0.267
323	-0.263
324	-0.256
324	-0.249
324	-0.239
325	-0.226
325	-0.209
326	-0.195
326	-0.178
327	-0.164
327	-0.143
328	-0.119
328	-0.1
329	-0.077
329	-0.057
330	-0.032
330	-0.004
330	0.022
331	0.049
331	0.073
332	0.097
332	0.116
333	0.137
333	0.16
334	0.177
334	0.194
335	0.209
335	0.223
336	0.234
336	0.247
336	0.256
337	0.266
337	0.275
338	0.282
338	0.287
339	0.294
339	0.299
340	0.303
340	0.307
341	0.311
341	0.313
342	0.317
342	0.319
342	0.322
343	0.325
343	0.327
344	0.329
344	0.33
345	0.331
345	0.332
346	0.333
346	0.333
347	0.334
347	0.334
348	0.334
348	0.335
348	0.335
349	0.335
349	0.335
350	0.335
350	0.335
351	0.335
351	0.335
352	0.335
352	0.335
353	0.334
353	0.334
354	0.334
354	0.334
354	0.333
355	0.333
355	0.333
356	0.333
356	0.333
357	0.332
357	0.331
358	0.331
358	0.331
359	0.331
359	0.331
360	0.33
360	0.33
360	0.33
361	0.33
361	0.33
362	0.33
362	0.33
363	0.33
363	0.33
364	0.33
364	0.33
365	0.33
365	0.329
366	0.329
366	0.329
366	0.329
367	0.329
367	0.329
368	0.329
368	0.328
369	0.328
369	0.328
370	0.328
370	0.327
371	0.327
371	0.327
372	0.327
372	0.326
372	0.326
373	0.326
373	0.326
374	0.326
374	0.326
375	0.326
375	0.325
376	0.325
376	0.325
377	0.325
377	0.325
378	0.325
378	0.325
378	0.325
379	0.324
379	0.324
380	0.324
380	0.324
381	0.323
381	0.323
382	0.323
382	0.323
383	0.322
383	0.322
383	0.322
384	0.322
384	0.322
385	0.321
385	0.321
386	0.321
386	0.321
387	0.321
387	0.321
388	0.32
388	0.32
389	0.32
389	0.32
389	0.32
390	0.319
390	0.319
391	0.319
391	0.319
392	0.318
392	0.318
393	0.318
393	0.318
394	0.318
394	0.317
394	0.317
395	0.317
395	0.316
396	0.316
396	0.316
397	0.316
397	0.316
398	0.315
398	0.315
399	0.315
399	0.315
400	0.314
400	0.314
400	0.314
401	0.314
401	0.313
402	0.313
402	0.313
403	0.313
403	0.313
404	0.313
404	0.313
405	0.313
405	0.312
405	0.312
406	0.312
406	0.312
407	0.311
407	0.311
408	0.311
408	0.31
409	0.31
409	0.31
410	0.309
410	0.309
411	0.309
411	0.309
411	0.309
412	0.309
412	0.309
413	0.308
413	0.308
414	0.308
414	0.308
415	0.307
415	0.307
416	0.306
416	0.306
416	0.306
417	0.306
417	0.306
418	0.306
418	0.306
419	0.306
419	0.306
420	0.306
420	0.306
421	0.305
421	0.306
421	0.305
422	0.305
422	0.305
423	0.305
423	0.305
424	0.305
424	0.305
425	0.305
425	0.304
426	0.304
426	0.304
427	0.304
427	0.304
427	0.303
428	0.303
428	0.303
429	0.303
429	0.302
430	0.302
430	0.302
431	0.302
431	0.302
432	0.301
432	0.301
432	0.301
433	0.301
433	0.3
434	0.3
434	0.3
435	0.3
435	0.3
436	0.3
436	0.3
437	0.3
437	0.3
437	0.3
438	0.3
438	0.3
439	0.3
439	0.3
440	0.299
440	0.299
441	0.299
441	0.299
442	0.299
442	0.298
442	0.298
443	0.298
443	0.298
444	0.298
444	0.297
445	0.297
445	0.297
446	0.297
446	0.297
447	0.298
447	0.298
447	0.298
448	0.298
448	0.298
449	0.298
449	0.298
450	0.298
450	0.298
451	0.298
451	0.298
452	0.298
452	0.298
452	0.298
453	0.298
453	0.298
454	0.298
454	0.297
455	0.297
455	0.298
456	0.297
456	0.297
457	0.297
457	0.297
458	0.297
458	0.297
458	0.297
459	0.297
459	0.297
460	0.297
460	0.297
461	0.297
461	0.297
462	0.298
462	0.298
463	0.298
463	0.299
463	0.299
464	0.299
464	0.299
465	0.3
465	0.3
466	0.3
466	0.301
467	0.301
467	0.301
467	0.301
468	0.301
468	0.301
469	0.302
469	0.302
470	0.303
470	0.303
471	0.303
471	0.303
472	0.304
472	0.304
472	0.304
473	0.305
473	0.305
474	0.305
474	0.306
475	0.306
475	0.307
476	0.307
476	0.307
477	0.308
477	0.308
477	0.309
478	0.31
478	0.31
479	0.31
479	0.311
480	0.311
480	0.312
481	0.313
481	0.314
482	0.315
482	0.315
482	0.316
483	0.317
483	0.318
484	0.319
484	0.319
485	0.319
485	0.32
486	0.321
486	0.322
487	0.323
487	0.324
487	0.325
488	0.325
488	0.326
489	0.328
489	0.33
490	0.332
490	0.333
491	0.335
491	0.336
492	0.337
492	0.339
492	0.34
493	0.342
493	0.344
494	0.345
494	0.347
495	0.348
495	0.35
496	0.352
496	0.354
496	0.355
497	0.357
497	0.359
498	0.361
498	0.363
499	0.365
499	0.366
500	0.369
500	0.371
501	0.372
501	0.374
501	0.376
502	0.377
502	0.379
503	0.381
503	0.383
504	0.385
504	0.387
505	0.39
505	0.392
506	0.394
506	0.397
506	0.399
507	0.401
507	0.404
508	0.406
508	0.408
509	0.411
509	0.413
510	0.416
510	0.418
511	0.42
511	0.422
511	0.424
512	0.427
512	0.429
513	0.431
513	0.433
514	0.435
514	0.438
515	0.44
515	0.442
515	0.444
516	0.447
516	0.449
517	0.451
517	0.453
518	0.455
518	0.457
519	0.459
519	0.461
520	0.464
520	0.466
520	0.468
521	0.47
521	0.472
522	0.474
522	0.476
523	0.478
523	0.479
524	0.481
524	0.482
524	0.483
525	0.485
525	0.486
526	0.487
526	0.489
527	0.49
527	0.491
528	0.492
528	0.494
529	0.495
529	0.496
529	0.498
530	0.499
530	0.499
531	0.5
531	0.501
532	0.502
532	0.503
533	0.504
533	0.504
533	0.505
534	0.506
534	0.506
535	0.507
535	0.508
536	0.508
536	0.509
537	0.509
537	0.509
538	0.51
538	0.51
538	0.51
539	0.511
539	0.511
540	0.511
540	0.51
541	0.51
541	0.51
542	0.51
542	0.51
542	0.51
543	0.509
543	0.509
544	0.508
544	0.508
545	0.508
545	0.508
546	0.508
546	0.508
547	0.508
547	0.507
547	0.507
548	0.507
548	0.507
549	0.507
549	0.506
550	0.506
550	0.505
551	0.505
551	0.505
551	0.505
552	0.505
552	0.504
553	0.504
553	0.504
554	0.503
554	0.502
555	0.501
555	0.5
556	0.499
556	0.499
556	0.497
557	0.497
557	0.496
558	0.495
558	0.494
559	0.493
559	0.492
560	0.491
560	0.491
560	0.49
561	0.489
561	0.489
562	0.488
562	0.487
563	0.486
563	0.485
564	0.485
564	0.484
564	0.483
565	0.482
565	0.481
566	0.48
566	0.479
567	0.478
567	0.476
568	0.475
568	0.474
568	0.473
569	0.472
569	0.47
570	0.469
570	0.467
571	0.467
571	0.465
572	0.464
572	0.463
573	0.461
573	0.46
573	0.458
574	0.457
574	0.456
575	0.455
575	0.455
576	0.454
576	0.452
577	0.451
577	0.451
577	0.451
578	0.45
578	0.45
579	0.449
579	0.449
580	0.447
580	0.445
581	0.443
581	0.442
581	0.441
582	0.44
582	0.439
583	0.437
583	0.436
584	0.433
584	0.431
585	0.431
585	0.43
585	0.428
586	0.427
586	0.426
587	0.425
587	0.424
588	0.422
588	0.421
589	0.42
589	0.419
590	0.418
590	0.417
590	0.416
591	0.414
591	0.412
592	0.41
592	0.408
593	0.407
593	0.406
594	0.405
594	0.403
594	0.402
595	0.401
595	0.399
596	0.398
596	0.398
597	0.397
597	0.396
598	0.394
598	0.393
598	0.391
599	0.39
599	0.388
600	0.387
600	0.385
601	0.384
601	0.382
602	0.38
602	0.378
602	0.377
603	0.376
603	0.375
604	0.373
604	0.373
605	0.372
605	0.371
606	0.369
606	0.368
606	0.366
607	0.365
607	0.363
608	0.362
608	0.36
609	0.359
609	0.357
610	0.356
610	0.354
610	0.353
611	0.352
611	0.351
612	0.351
612	0.349
613	0.348
613	0.346
614	0.344
614	0.341
614	0.34
615	0.338
615	0.336
616	0.334
616	0.332
617	0.33
617	0.328
618	0.326
618	0.325
618	0.323
619	0.322
619	0.321
620	0.32
620	0.318
621	0.316
621	0.315
622	0.313
622	0.311
622	0.309
623	0.307
623	0.306
624	0.304
624	0.302
625	0.3
625	0.298
626	0.296
626	0.294
626	0.292
627	0.29
627	0.288
628	0.285
628	0.282
629	0.279
629	0.276
630	0.273
630	0.27
630	0.266
631	0.263
631	0.259
632	0.255
632	0.251
633	0.246
633	0.242
634	0.237
634	0.233
634	0.228
635	0.223
635	0.217
636	0.211
636	0.205
637	0.199
637	0.192
638	0.185
638	0.178
638	0.172
639	0.164
639	0.156
640	0.149
640	0.142
641	0.134
641	0.127
642	0.12
642	0.113
642	0.105
643	0.098
643	0.089
644	0.081
644	0.073
645	0.064
645	0.055
646	0.047
646	0.038
646	0.029
647	0.021
647	0.012
648	0.004
648	-0.005
649	-0.014
649	-0.023
650	-0.031
650	-0.04
650	-0.049
651	-0.06
651	-0.074
652	-0.09
652	-0.107
653	-0.121
653	-0.134
653	-0.13
654	-0.103
654	-0.087
655	-0.088
655	-0.092
656	-0.097
656	-0.101
657	-0.104
657	-0.108
657	-0.113
658	-0.118
658	-0.148
659	-0.239
659	-0.347
660	-0.394
660	-0.423
661	-0.454
661	-0.489
661	-0.53
662	-0.569
662	-0.612
663	-0.659
663	-0.71
664	-0.763
664	-0.822
665	-0.882
665	-0.951
665	-1.014
666	-1.079
666	-1.149
667	-1.221
667	-1.293
668	-1.373
668	-1.455
669	-1.541
669	-1.632
669	-1.744
670	-1.923
670	-2.093
671	-2.183
671	-2.294
672	-2.44
672	-2.581
672	-2.677
673	-2.745
673	-2.775
674	-2.792
674	-2.801
675	-2.803
675	-2.892
676	-3.046
676	-2.985
676	-2.744
677	-2.512
677	-2.297
678	-1.995
678	-1.775
679	-1.647
679	-1.552
680	-1.475
680	-1.407
680	-1.348
681	-1.31
681	-1.255
682	-1.217
682	-1.182
683	-1.148
683	-1.129
684	-1.106
684	-1.085
684	-1.061
685	-1.035
685	-1.01
686	-0.983
686	-0.966
687	-0.938
687	-0.923
687	-0.901
688	-0.875
688	-0.853
689	-0.831
689	-0.815
690	-0.792
690	-0.777
691	-0.768
691	-0.77
691	-0.784
692	-0.774
692	-0.761
693	-0.753
693	-0.758
694	-0.751
694	-0.743
695	-0.744
695	-0.739
695	-0.719
696	-0.713
696	-0.689
697	-0.688
697	-0.703
698	-0.706
698	-0.694
698	-0.705
699	-0.707
699	-0.706
700	-0.7
700	-0.713
701	-0.713
701	-0.716
702	-0.713
702	-0.698
702	-0.689
703	-0.68
703	-0.67
704	-0.664
704	-0.662
705	-0.67
705	-0.662
705	-0.647
706	-0.649
706	-0.647
707	-0.651
707	-0.643
708	-0.641
708	-0.633
709	-0.637
709	-0.637
709	-0.629
710	-0.638
710	-0.647
711	-0.637
711	-0.635
712	-0.636
712	-0.65
713	-0.651
713	-0.656
713	-0.645
714	-0.642
714	-0.643
715	-0.631
715	-0.618
716	-0.626
716	-0.628
716	-0.619
717	-0.619
717	-0.621
718	-0.615
718	-0.616
719	-0.622
719	-0.625
720	-0.622
720	-0.632
720	-0.624
721	-0.616
721	-0.614
722	-0.601
722	-0.588
723	-0.583
723	-0.586
723	-0.572
724	-0.573
724	-0.575
725	-0.573
725	-0.582
726	-0.593
726	-0.598
727	-0.604
727	-0.618
727	-0.626
728	-0.628
728	-0.635
729	-0.635
729	-0.64
730	-0.644
730	-0.634
730	-0.624
731	-0.607
731	-0.617
732	-0.624
732	-0.626
733	-0.623
733	-0.63
734	-0.622
734	-0.619
734	-0.608
735	-0.608
735	-0.608
736	-0.616
736	-0.603
737	-0.593
737	-0.593
737	-0.602
738	-0.594
738	-0.595
739	-0.594
739	-0.605
740	-0.603
740	-0.602
741	-0.599
741	-0.595
741	-0.599
742	-0.596
742	-0.595
743	-0.601
743	-0.605
744	-0.602
744	-0.593
744	-0.595
745	-0.599
745	-0.591
746	-0.593
746	-0.589
747	-0.589
747	-0.578
748	-0.566
748	-0.571
748	-0.573
749	-0.571
749	-0.57
750	-0.56
750	-0.562
751	-0.568
751	-0.578
751	-0.583
752	-0.587
752	-0.599
753	-0.593
753	-0.589
754	-0.594
754	-0.59
754	-0.606
755	-0.621
755	-0.627
756	-0.615
756	-0.612
757	-0.61
757	-0.605
758	-0.607
758	-0.603
758	-0.607
759	-0.611
759	-0.596
760	-0.59
760	-0.587
761	-0.598
761	-0.595
761	-0.594
762	-0.601
762	-0.603
763	-0.611
763	-0.606
764	-0.607
764	-0.613
764	-0.619
765	-0.61
765	-0.598
766	-0.605
766	-0.612
767	-0.626
767	-0.619
768	-0.613
768	-0.623
768	-0.626
769	-0.646
769	-0.647
770	-0.65
770	-0.661
771	-0.657
771	-0.661
771	-0.66
772	-0.663
772	-0.659
773	-0.659
773	-0.655
774	-0.65
774	-0.652
775	-0.653
775	-0.647
775	-0.653
776	-0.65
776	-0.64
777	-0.651
777	-0.675
778	-0.673
778	-0.69
778	-0.677
779	-0.698
779	-0.707
780	-0.722
780	-0.723
781	-0.735
781	-0.732
781	-0.747
782	-0.747
782	-0.75
783	-0.741
783	-0.742
784	-0.725
784	-0.718
784	-0.728
785	-0.738
785	-0.723
786	-0.728
786	-0.708
787	-0.691
787	-0.69
788	-0.689
788	-0.698
788	-0.704
789	-0.701
789	-0.678
790	-0.655
790	-0.658
791	-0.656
791	-0.67
791	-0.676
792	-0.668
792	-0.647
793	-0.634
793	-0.611
794	-0.615
794	-0.609
794	-0.622
795	-0.617
795	-0.612
796	-0.593
796	-0.602
797	-0.597
797	-0.606
797	-0.616
798	-0.628
798	-0.62
799	-0.63
799	-0.614
800	-0.621
800	-0.612
801	-0.617
801	-0.602
801	-0.612
802	-0.624
802	-0.622
803	-0.626
803	-0.636
804	-0.629
804	-0.637
804	-0.626
805	-0.633
805	-0.626
806	-0.63
806	-0.616
807	-0.613
807	-0.596
807	-0.584
808	-0.576
808	-0.573
809	-0.561
809	-0.569
810	-0.566
810	-0.557
810	-0.554
811	-0.559
811	-0.549
812	-0.55
812	-0.553
813	-0.556
813	-0.552
813	-0.556
814	-0.556
814	-0.561
815	-0.566
815	-0.567
816	-0.56
816	-0.566
817	-0.574
817	-0.592
817	-0.606
818	-0.614
818	-0.616
819	-0.609
819	-0.609
820	-0.621
820	-0.619
820	-0.629
821	-0.627
821	-0.616
822	-0.584
822	-0.562
823	-0.558
823	-0.561
823	-0.558
824	-0.552
824	-0.556
825	-0.549
825	-0.53
826	-0.525
826	-0.529
826	-0.538
827	-0.531
827	-0.53
828	-0.511
828	-0.515
829	-0.508
829	-0.492
829	-0.482
830	-0.49
830	-0.486
831	-0.479
831	-0.472
832	-0.473
832	-0.464
832	-0.47
833	-0.464
833	-0.464
834	-0.462
834	-0.473
835	-0.462
835	-0.458
835	-0.457
836	-0.455
836	-0.454
837	-0.452
837	-0.443
838	-0.436
838	-0.426
839	-0.413
839	-0.402
839	-0.393
840	-0.383
840	-0.38
841	-0.369
841	-0.36
842	-0.354
842	-0.345
842	-0.339
843	-0.334
843	-0.33
844	-0.323
844	-0.319
845	-0.313
845	-0.302
845	-0.29
846	-0.28
846	-0.267
847	-0.259
847	-0.249
848	-0.239
848	-0.231
848	-0.217
849	-0.209
849	-0.199
850	-0.191
850	-0.187
851	-0.182
851	-0.173
851	-0.165
852	-0.153
852	-0.142
853	-0.133
853	-0.128
854	-0.119
854	-0.108
854	-0.097
855	-0.088
855	-0.083
856	-0.076
856	-0.069
857	-0.063
857	-0.056
857	-0.048
858	-0.04
858	-0.036
859	-0.031
859	-0.024
860	-0.018
860	-0.008
860	-0.003
861	0.001
861	0.007
862	0.011
862	0.016
863	0.021
863	0.027
863	0.031
864	0.034
864	0.038
865	0.042
865	0.046
866	0.049
866	0.05
866	0.053
867	0.054
867	0.057
868	0.058
868	0.061
869	0.063
869	0.065
869	0.066
870	0.068
870	0.069
871	0.072
871	0.073
872	0.075
872	0.075
872	0.076
873	0.076
873	0.076
874	0.076
874	0.076
875	0.075
875	0.074
875	0.073
876	0.072
876	0.07
877	0.069
877	0.067
878	0.066
878	0.064
878	0.062
879	0.06
879	0.059
880	0.058
880	0.058
881	0.057
881	0.057
881	0.057
882	0.057
882	0.056
883	0.056
883	0.056
884	0.056
884	0.056
884	0.056
885	0.056
885	0.056
886	0.056
886	0.056
887	0.055
887	0.056
887	0.056
888	0.056
888	0.056
889	0.056
889	0.056
890	0.056
890	0.057
890	0.057
891	0.057
891	0.057
892	0.057
892	0.057
893	0.057
893	0.057
893	0.056
894	0.056
894	0.055
895	0.055
895	0.055
895	0.055
896	0.054
896	0.053
897	0.053
897	0.052
898	0.052
898	0.051
898	0.051
899	0.051
899	0.051
900	0.051
900	0.051
901	0.051
901	0.052
901	0.052
902	0.052
902	0.052
903	0.052
903	0.052
904	0.053
904	0.053
904	0.053
905	0.054
905	0.054
906	0.054
906	0.053
907	0.053
907	0.053
907	0.052
908	0.052
908	0.051
909	0.05
909	0.05
910	0.049
910	0.049
910	0.048
911	0.048
911	0.049
912	0.049
912	0.049
913	0.049
913	0.05
913	0.05
914	0.051
914	0.051
915	0.052
915	0.053
916	0.053
916	0.053
916	0.053
917	0.053
917	0.054
918	0.053
918	0.053
918	0.052
919	0.052
919	0.051
920	0.051
920	0.051
921	0.05
921	0.05
921	0.05
922	0.049
922	0.049
923	0.049
923	0.049
924	0.049
924	0.049
924	0.049
925	0.049
925	0.048
926	0.048
926	0.048
927	0.048
927	0.048
927	0.048
928	0.047
928	0.047
929	0.047
929	0.046
930	0.046
930	0.047
930	0.047
931	0.047
931	0.047
932	0.048
932	0.048
933	0.047
933	0.047
933	0.046
934	0.045
934	0.045
935	0.044
935	0.043
935	0.042
936	0.041
936	0.04
937	0.039
937	0.039
938	0.039
938	0.039
938	0.039
939	0.039
939	0.04
940	0.04
940	0.04
941	0.04
941	0.041
941	0.041
942	0.041
942	0.041
943	0.041
943	0.04
944	0.04
944	0.039
944	0.038
945	0.038
945	0.037
946	0.036
946	0.035
946	0.034
947	0.034
947	0.034
948	0.034
948	0.035
949	0.035
949	0.035
949	0.035
950	0.036
950	0.036
951	0.037
951	0.038
952	0.038
952	0.039
952	0.04
953	0.04
953	0.041
954	0.042
954	0.043
955	0.043
955	0.045
955	0.045
956	0.046
956	0.046
957	0.046
957	0.046
957	0.046
958	0.046
958	0.047
959	0.047
959	0.047
960	0.046
960	0.046
960	0.046
961	0.046
961	0.047
962	0.047
962	0.047
963	0.047
963	0.047
963	0.047
964	0.047
964	0.047
965	0.048
965	0.048
966	0.048
966	0.048
966	0.048
967	0.048
967	0.047
968	0.047
968	0.047
968	0.047
969	0.047
969	0.047
970	0.047
970	0.047
971	0.047
971	0.047
971	0.047
972	0.047
972	0.046
973	0.046
973	0.045
974	0.044
974	0.044
974	0.044
975	0.043
975	0.043
976	0.042
976	0.042
976	0.041
977	0.041
977	0.041
978	0.041
978	0.04
979	0.04
979	0.04
979	0.039
980	0.039
980	0.039
981	0.039
981	0.038
982	0.038
982	0.038
982	0.037
983	0.037
983	0.036
984	0.036
984	0.036
984	0.036
985	0.036
985	0.037
986	0.037
986	0.037
987	0.038
987	0.039
987	0.039
988	0.039
988	0.04
989	0.04
989	0.039
990	0.039
990	0.039
990	0.038
991	0.038
991	0.038
992	0.037
992	0.037
992	0.037
993	0.037
993	0.037
994	0.037
994	0.037
995	0.037
995	0.037
995	0.037
996	0.037
996	0.037
997	0.037
997	0.037
997	0.037
998	0.037
998	0.037
999	0.037
999	0.037
1000	0.037
1000	0.036
1000	0.036
1001	0.036
1001	0.036
1002	0.035
1002	0.034
1003	0.034
1003	0.033
1003	0.032
1004	0.031
1004	0.029
1005	0.028
1005	0.026
1005	0.025
1006	0.024
1006	0.022
1007	0.022
1007	0.021
1008	0.021
1008	0.02
1008	0.02
1009	0.02
1009	0.02
1010	0.02
1010	0.021
1010	0.021
1011	0.021
1011	0.02
1012	0.019
1012	0.018
1013	0.017
1013	0.016
1013	0.015
1014	0.014
1014	0.013
1015	0.012
1015	0.011
1016	0.01
1016	0.01
1016	0.009
1017	0.009
1017	0.009
1018	0.009
1018	0.008
1018	0.008
1019	0.008
1019	0.007
1020	0.007
1020	0.006
1021	0.006
1021	0.005
1021	0.004
1022	0.004
1022	0.003
1023	0.003
1023	0.003
1023	0.003
1024	0.003
1024	0.002
1025	0.003
1025	0.003
1026	0.003
1026	0.003
1026	0.004
1027	0.003
1027	0.004
1028	0.004
1028	0.003
1028	0.003
1029	0.003
1029	0.003
1030	0.003
1030	0.003
1031	0.003
1031	0.003
1031	0.004
1032	0.004
1032	0.005
1033	0.005
1033	0.006
1033	0.007
1034	0.007
1034	0.008
1035	0.008
1035	0.008
1036	0.008
1036	0.008
1036	0.008
1037	0.008
1037	0.007
1038	0.007
1038	0.007
1039	0.007
1039	0.006
1039	0.006
1040	0.006
1040	0.007
1041	0.007
1041	0.007
1041	0.008
1042	0.008
1042	0.008
1043	0.008
1043	0.008
1044	0.008
1044	0.009
1044	0.009
1045	0.009
1045	0.009
1046	0.009
1046	0.009
1046	0.009
1047	0.01
1047	0.01
1048	0.011
1048	0.011
1049	0.012
1049	0.012
1049	0.013
1050	0.013
1050	0.013
1051	0.013
1051	0.013
1051	0.013
1052	0.013
1052	0.013
1053	0.013
1053	0.012
1053	0.012
1054	0.011
1054	0.011
1055	0.01
1055	0.01
1056	0.009
1056	0.008
1056	0.007
1057	0.006
1057	0.005
1058	0.005
1058	0.004
1058	0.004
1059	0.004
1059	0.003
1060	0.003
1060	0.002
1061	0.003
1061	0.003
1061	0.003
1062	0.003
1062	0.003
1063	0.003
1063	0.004
1063	0.003
1064	0.004
1064	0.004
1065	0.003
1065	0.003
1066	0.002
1066	0.002
1066	0.001
1067	0
1067	-0
1068	-0.001
1068	-0.002
1068	-0.003
1069	-0.003
1069	-0.003
1070	-0.004
1070	-0.003
1071	-0.004
1071	-0.004
1071	-0.004
1072	-0.004
1072	-0.004
1073	-0.004
1073	-0.004
1073	-0.005
1074	-0.004
1074	-0.004
1075	-0.005
1075	-0.005
1076	-0.006
1076	-0.006
1076	-0.006
1077	-0.007
1077	-0.007
1078	-0.008
1078	-0.008
1078	-0.009
1079	-0.01
1079	-0.01
1080	-0.011
1080	-0.011
1080	-0.012
1081	-0.012
1081	-0.013
1082	-0.013
1082	-0.014
1083	-0.015
1083	-0.015
1083	-0.016
1084	-0.017
1084	-0.017
1085	-0.018
1085	-0.018
1085	-0.018
1086	-0.018
1086	-0.019
1087	-0.019
1087	-0.019
1088	-0.019
1088	-0.019
1088	-0.019
1089	-0.02
1089	-0.021
1090	-0.021
1090	-0.022
1090	-0.022
1091	-0.022
1091	-0.023
1092	-0.023
1092	-0.023
1092	-0.024
1093	-0.025
1093	-0.025
1094	-0.025
1094	-0.026
1095	-0.026
1095	-0.026
1095	-0.027
1096	-0.028
1096	-0.028
1097	-0.028
1097	-0.028
1097	-0.028
1098	-0.029
1098	-0.03
1099	-0.03
1099	-0.03
1100	-0.031
1100	-0.032
1100	-0.034
1101	-0.036
1101	-0.039
1102	-0.04
1102	-0.043
1102	-0.044
1103	-0.046
1103	-0.049
1104	-0.051
1104	-0.052
1104	-0.053
1105	-0.055
1105	-0.057
1106	-0.06
1106	-0.061
1107	-0.063
1107	-0.066
1107	-0.069
1108	-0.07
1108	-0.072
1109	-0.075
1109	-0.078
1109	-0.079
1110	-0.079
1110	-0.081
1111	-0.085
1111	-0.087
