Data from 17C_3.4A_30min_2sec_int_Absorbance__332__01053.txt Node

Date: Mon Jun 19 17:01:42 CEST 2023
User: Marek
Spectrometer: MAYP115816
Trigger mode: 0
Integration Time (sec): 2.500000E-1
Scans to average: 10
Electric dark correction enabled: true
Nonlinearity correction enabled: true
Boxcar width: 5
XAxis mode: Wavelengths
Number of Pixels in Spectrum: 2068
>>>>>Begin Spectral Data<<<<<
199	-0.637
199	-0.657
200	-0.565
200	-0.515
201	-0.475
201	-0.466
202	-0.449
202	-0.438
203	-0.43
203	-0.427
204	-0.416
204	-0.403
205	-0.378
205	-0.371
205	-0.367
206	-0.371
206	-0.37
207	-0.361
207	-0.361
208	-0.364
208	-0.362
209	-0.356
209	-0.356
210	-0.359
210	-0.367
211	-0.371
211	-0.371
212	-0.377
212	-0.383
213	-0.382
213	-0.38
213	-0.384
214	-0.379
214	-0.381
215	-0.382
215	-0.387
216	-0.389
216	-0.397
217	-0.391
217	-0.395
218	-0.397
218	-0.397
219	-0.401
219	-0.412
220	-0.414
220	-0.424
221	-0.422
221	-0.424
221	-0.417
222	-0.411
222	-0.414
223	-0.418
223	-0.423
224	-0.427
224	-0.425
225	-0.423
225	-0.416
226	-0.421
226	-0.42
227	-0.426
227	-0.438
228	-0.438
228	-0.44
229	-0.44
229	-0.435
229	-0.431
230	-0.434
230	-0.437
231	-0.434
231	-0.427
232	-0.424
232	-0.423
233	-0.416
233	-0.415
234	-0.413
234	-0.409
235	-0.411
235	-0.416
236	-0.414
236	-0.417
236	-0.422
237	-0.425
237	-0.424
238	-0.433
238	-0.43
239	-0.43
239	-0.439
240	-0.437
240	-0.436
241	-0.44
241	-0.438
242	-0.445
242	-0.44
243	-0.436
243	-0.439
243	-0.447
244	-0.449
244	-0.447
245	-0.462
245	-0.46
246	-0.468
246	-0.474
247	-0.474
247	-0.48
248	-0.488
248	-0.482
249	-0.486
249	-0.493
250	-0.491
250	-0.487
250	-0.488
251	-0.486
251	-0.484
252	-0.487
252	-0.478
253	-0.483
253	-0.496
254	-0.492
254	-0.489
255	-0.498
255	-0.492
256	-0.49
256	-0.497
257	-0.495
257	-0.491
258	-0.506
258	-0.501
258	-0.497
259	-0.497
259	-0.506
260	-0.504
260	-0.509
261	-0.518
261	-0.51
262	-0.506
262	-0.508
263	-0.499
263	-0.495
264	-0.494
264	-0.5
265	-0.496
265	-0.504
265	-0.507
266	-0.504
266	-0.502
267	-0.514
267	-0.52
268	-0.535
268	-0.542
269	-0.54
269	-0.535
270	-0.538
270	-0.541
271	-0.54
271	-0.547
272	-0.549
272	-0.543
272	-0.538
273	-0.536
273	-0.544
274	-0.548
274	-0.552
275	-0.554
275	-0.547
276	-0.55
276	-0.544
277	-0.55
277	-0.568
278	-0.578
278	-0.572
278	-0.567
279	-0.571
279	-0.581
280	-0.577
280	-0.578
281	-0.574
281	-0.581
282	-0.574
282	-0.575
283	-0.564
283	-0.566
284	-0.562
284	-0.553
285	-0.547
285	-0.544
285	-0.541
286	-0.55
286	-0.544
287	-0.54
287	-0.525
288	-0.518
288	-0.526
289	-0.537
289	-0.543
290	-0.533
290	-0.532
291	-0.528
291	-0.521
292	-0.525
292	-0.531
292	-0.535
293	-0.541
293	-0.532
294	-0.52
294	-0.514
295	-0.51
295	-0.51
296	-0.508
296	-0.505
297	-0.498
297	-0.482
298	-0.473
298	-0.478
298	-0.466
299	-0.462
299	-0.466
300	-0.46
300	-0.454
301	-0.45
301	-0.45
302	-0.458
302	-0.466
303	-0.457
303	-0.446
304	-0.451
304	-0.448
305	-0.447
305	-0.449
305	-0.446
306	-0.431
306	-0.425
307	-0.412
307	-0.413
308	-0.423
308	-0.421
309	-0.421
309	-0.411
310	-0.401
310	-0.397
311	-0.39
311	-0.4
311	-0.396
312	-0.392
312	-0.39
313	-0.378
313	-0.381
314	-0.379
314	-0.383
315	-0.384
315	-0.381
316	-0.378
316	-0.367
317	-0.36
317	-0.357
318	-0.347
318	-0.345
318	-0.339
319	-0.329
319	-0.323
320	-0.317
320	-0.32
321	-0.324
321	-0.324
322	-0.319
322	-0.315
323	-0.316
323	-0.309
324	-0.303
324	-0.296
324	-0.287
325	-0.277
325	-0.259
326	-0.245
326	-0.232
327	-0.214
327	-0.192
328	-0.168
328	-0.149
329	-0.129
329	-0.106
330	-0.083
330	-0.053
330	-0.03
331	-0.004
331	0.023
332	0.043
332	0.062
333	0.082
333	0.103
334	0.121
334	0.136
335	0.152
335	0.164
336	0.176
336	0.188
336	0.196
337	0.206
337	0.214
338	0.221
338	0.225
339	0.232
339	0.237
340	0.24
340	0.243
341	0.246
341	0.249
342	0.252
342	0.254
342	0.257
343	0.258
343	0.261
344	0.262
344	0.263
345	0.265
345	0.266
346	0.266
346	0.267
347	0.267
347	0.268
348	0.268
348	0.269
348	0.269
349	0.269
349	0.269
350	0.269
350	0.269
351	0.269
351	0.269
352	0.269
352	0.269
353	0.269
353	0.269
354	0.269
354	0.269
354	0.269
355	0.269
355	0.268
356	0.268
356	0.268
357	0.268
357	0.268
358	0.267
358	0.267
359	0.267
359	0.267
360	0.266
360	0.266
360	0.266
361	0.266
361	0.266
362	0.265
362	0.265
363	0.265
363	0.265
364	0.265
364	0.265
365	0.265
365	0.265
366	0.265
366	0.265
366	0.265
367	0.265
367	0.264
368	0.264
368	0.264
369	0.264
369	0.263
370	0.263
370	0.263
371	0.263
371	0.263
372	0.263
372	0.262
372	0.262
373	0.262
373	0.262
374	0.262
374	0.262
375	0.262
375	0.262
376	0.262
376	0.262
377	0.262
377	0.262
378	0.261
378	0.261
378	0.261
379	0.261
379	0.261
380	0.261
380	0.26
381	0.26
381	0.26
382	0.26
382	0.26
383	0.259
383	0.259
383	0.259
384	0.259
384	0.259
385	0.258
385	0.258
386	0.258
386	0.258
387	0.258
387	0.258
388	0.258
388	0.258
389	0.258
389	0.258
389	0.258
390	0.258
390	0.258
391	0.258
391	0.258
392	0.258
392	0.258
393	0.258
393	0.257
394	0.257
394	0.256
394	0.256
395	0.256
395	0.256
396	0.255
396	0.255
397	0.255
397	0.255
398	0.255
398	0.255
399	0.255
399	0.254
400	0.254
400	0.254
400	0.254
401	0.254
401	0.254
402	0.254
402	0.253
403	0.253
403	0.253
404	0.253
404	0.253
405	0.253
405	0.253
405	0.253
406	0.252
406	0.252
407	0.252
407	0.252
408	0.252
408	0.252
409	0.251
409	0.251
410	0.251
410	0.251
411	0.251
411	0.251
411	0.251
412	0.251
412	0.251
413	0.25
413	0.25
414	0.25
414	0.25
415	0.25
415	0.25
416	0.25
416	0.25
416	0.249
417	0.249
417	0.249
418	0.249
418	0.249
419	0.249
419	0.249
420	0.249
420	0.249
421	0.249
421	0.249
421	0.249
422	0.249
422	0.249
423	0.249
423	0.249
424	0.249
424	0.248
425	0.248
425	0.248
426	0.247
426	0.247
427	0.247
427	0.247
427	0.246
428	0.246
428	0.246
429	0.246
429	0.246
430	0.246
430	0.246
431	0.246
431	0.246
432	0.246
432	0.245
432	0.245
433	0.245
433	0.245
434	0.245
434	0.245
435	0.245
435	0.244
436	0.244
436	0.244
437	0.244
437	0.244
437	0.244
438	0.244
438	0.244
439	0.244
439	0.244
440	0.244
440	0.244
441	0.243
441	0.243
442	0.243
442	0.243
442	0.243
443	0.243
443	0.243
444	0.243
444	0.243
445	0.243
445	0.243
446	0.244
446	0.244
447	0.244
447	0.244
447	0.244
448	0.244
448	0.244
449	0.244
449	0.244
450	0.245
450	0.245
451	0.244
451	0.244
452	0.244
452	0.244
452	0.244
453	0.244
453	0.244
454	0.244
454	0.244
455	0.244
455	0.244
456	0.244
456	0.244
457	0.244
457	0.244
458	0.244
458	0.244
458	0.244
459	0.244
459	0.244
460	0.244
460	0.244
461	0.244
461	0.244
462	0.244
462	0.244
463	0.244
463	0.244
463	0.244
464	0.244
464	0.244
465	0.244
465	0.244
466	0.245
466	0.245
467	0.245
467	0.245
467	0.245
468	0.245
468	0.246
469	0.246
469	0.247
470	0.247
470	0.247
471	0.247
471	0.247
472	0.248
472	0.248
472	0.248
473	0.248
473	0.249
474	0.249
474	0.249
475	0.25
475	0.25
476	0.251
476	0.251
477	0.251
477	0.252
477	0.252
478	0.253
478	0.253
479	0.253
479	0.254
480	0.254
480	0.254
481	0.255
481	0.256
482	0.256
482	0.257
482	0.257
483	0.258
483	0.259
484	0.259
484	0.26
485	0.26
485	0.261
486	0.261
486	0.262
487	0.263
487	0.264
487	0.265
488	0.265
488	0.266
489	0.268
489	0.27
490	0.271
490	0.272
491	0.273
491	0.274
492	0.275
492	0.276
492	0.277
493	0.278
493	0.279
494	0.281
494	0.282
495	0.283
495	0.284
496	0.285
496	0.286
496	0.288
497	0.289
497	0.291
498	0.292
498	0.294
499	0.295
499	0.297
500	0.299
500	0.3
501	0.301
501	0.303
501	0.304
502	0.305
502	0.307
503	0.308
503	0.31
504	0.311
504	0.313
505	0.315
505	0.316
506	0.318
506	0.319
506	0.321
507	0.322
507	0.324
508	0.326
508	0.327
509	0.329
509	0.331
510	0.333
510	0.334
511	0.336
511	0.338
511	0.34
512	0.341
512	0.342
513	0.344
513	0.345
514	0.346
514	0.348
515	0.349
515	0.351
515	0.352
516	0.354
516	0.355
517	0.357
517	0.359
518	0.36
518	0.362
519	0.364
519	0.365
520	0.367
520	0.368
520	0.37
521	0.371
521	0.372
522	0.373
522	0.375
523	0.376
523	0.377
524	0.378
524	0.378
524	0.379
525	0.38
525	0.38
526	0.381
526	0.382
527	0.383
527	0.383
528	0.384
528	0.385
529	0.385
529	0.386
529	0.387
530	0.387
530	0.388
531	0.388
531	0.389
532	0.389
532	0.39
533	0.39
533	0.39
533	0.39
534	0.39
534	0.39
535	0.39
535	0.39
536	0.389
536	0.388
537	0.388
537	0.388
538	0.387
538	0.387
538	0.387
539	0.387
539	0.386
540	0.386
540	0.385
541	0.384
541	0.384
542	0.384
542	0.383
542	0.382
543	0.381
543	0.38
544	0.379
544	0.379
545	0.378
545	0.378
546	0.377
546	0.377
547	0.376
547	0.375
547	0.374
548	0.374
548	0.373
549	0.372
549	0.371
550	0.37
550	0.369
551	0.368
551	0.368
551	0.368
552	0.368
552	0.367
553	0.367
553	0.367
554	0.366
554	0.365
555	0.364
555	0.364
556	0.363
556	0.362
556	0.361
557	0.36
557	0.359
558	0.357
558	0.356
559	0.355
559	0.354
560	0.353
560	0.352
560	0.351
561	0.35
561	0.349
562	0.348
562	0.347
563	0.346
563	0.345
564	0.344
564	0.343
564	0.343
565	0.342
565	0.342
566	0.341
566	0.34
567	0.339
567	0.338
568	0.337
568	0.336
568	0.335
569	0.334
569	0.333
570	0.331
570	0.33
571	0.329
571	0.328
572	0.327
572	0.327
573	0.326
573	0.325
573	0.324
574	0.324
574	0.323
575	0.323
575	0.323
576	0.322
576	0.321
577	0.32
577	0.32
577	0.32
578	0.319
578	0.319
579	0.319
579	0.319
580	0.318
580	0.316
581	0.315
581	0.315
581	0.315
582	0.314
582	0.314
583	0.313
583	0.312
584	0.311
584	0.31
585	0.31
585	0.31
585	0.31
586	0.309
586	0.309
587	0.309
587	0.308
588	0.308
588	0.308
589	0.308
589	0.307
590	0.307
590	0.307
590	0.307
591	0.307
591	0.305
592	0.305
592	0.304
593	0.304
593	0.304
594	0.303
594	0.303
594	0.303
595	0.303
595	0.302
596	0.302
596	0.303
597	0.303
597	0.303
598	0.302
598	0.302
598	0.301
599	0.3
599	0.299
600	0.299
600	0.298
601	0.297
601	0.296
602	0.295
602	0.295
602	0.295
603	0.295
603	0.296
604	0.296
604	0.296
605	0.297
605	0.297
606	0.296
606	0.295
606	0.295
607	0.294
607	0.294
608	0.293
608	0.291
609	0.291
609	0.291
610	0.29
610	0.289
610	0.289
611	0.289
611	0.289
612	0.29
612	0.29
613	0.29
613	0.289
614	0.288
614	0.287
614	0.286
615	0.285
615	0.285
616	0.284
616	0.283
617	0.282
617	0.281
618	0.28
618	0.279
618	0.279
619	0.279
619	0.279
620	0.278
620	0.278
621	0.277
621	0.276
622	0.275
622	0.275
622	0.274
623	0.273
623	0.273
624	0.272
624	0.271
625	0.27
625	0.27
626	0.269
626	0.268
626	0.268
627	0.267
627	0.266
628	0.264
628	0.263
629	0.262
629	0.26
630	0.258
630	0.256
630	0.254
631	0.252
631	0.25
632	0.247
632	0.245
633	0.243
633	0.24
634	0.237
634	0.235
634	0.232
635	0.229
635	0.225
636	0.221
636	0.218
637	0.214
637	0.21
638	0.205
638	0.201
638	0.197
639	0.192
639	0.186
640	0.181
640	0.176
641	0.171
641	0.166
642	0.161
642	0.155
642	0.15
643	0.145
643	0.139
644	0.132
644	0.126
645	0.12
645	0.114
646	0.108
646	0.102
646	0.095
647	0.088
647	0.082
648	0.075
648	0.068
649	0.061
649	0.053
650	0.046
650	0.038
650	0.03
651	0.021
651	0.008
652	-0.006
652	-0.022
653	-0.035
653	-0.047
653	-0.045
654	-0.024
654	-0.013
655	-0.016
655	-0.022
656	-0.028
656	-0.033
657	-0.037
657	-0.042
657	-0.047
658	-0.053
658	-0.08
659	-0.162
659	-0.259
660	-0.303
660	-0.329
661	-0.357
661	-0.387
661	-0.422
662	-0.455
662	-0.492
663	-0.534
663	-0.579
664	-0.626
664	-0.68
665	-0.734
665	-0.796
665	-0.854
666	-0.915
666	-0.979
667	-1.046
667	-1.114
668	-1.189
668	-1.264
669	-1.341
669	-1.42
669	-1.503
670	-1.588
670	-1.676
671	-1.893
671	-2.089
672	-2.283
672	-2.455
672	-2.572
673	-2.656
673	-2.73
674	-2.761
674	-2.777
675	-2.8
675	-2.932
676	-3.103
676	-3.052
676	-2.825
677	-2.617
677	-2.445
678	-2.253
678	-1.9
679	-1.677
679	-1.556
680	-1.466
680	-1.386
680	-1.318
681	-1.275
681	-1.216
682	-1.177
682	-1.139
683	-1.103
683	-1.084
684	-1.061
684	-1.041
684	-1.017
685	-0.992
685	-0.969
686	-0.943
686	-0.926
687	-0.899
687	-0.887
687	-0.866
688	-0.839
688	-0.818
689	-0.796
689	-0.781
690	-0.761
690	-0.747
691	-0.739
691	-0.741
691	-0.755
692	-0.746
692	-0.736
693	-0.73
693	-0.735
694	-0.729
694	-0.721
695	-0.724
695	-0.719
695	-0.705
696	-0.702
696	-0.679
697	-0.678
697	-0.693
698	-0.696
698	-0.686
698	-0.7
699	-0.703
699	-0.699
700	-0.691
700	-0.703
701	-0.701
701	-0.707
702	-0.708
702	-0.695
702	-0.687
703	-0.681
703	-0.669
704	-0.664
704	-0.665
705	-0.676
705	-0.667
705	-0.656
706	-0.655
706	-0.651
707	-0.656
707	-0.649
708	-0.647
708	-0.64
709	-0.643
709	-0.645
709	-0.636
710	-0.647
710	-0.656
711	-0.646
711	-0.647
712	-0.644
712	-0.658
713	-0.656
713	-0.664
713	-0.654
714	-0.652
714	-0.655
715	-0.646
715	-0.632
716	-0.641
716	-0.643
716	-0.635
717	-0.635
717	-0.637
718	-0.627
718	-0.628
719	-0.632
719	-0.631
720	-0.624
720	-0.633
720	-0.625
721	-0.613
721	-0.615
722	-0.601
722	-0.592
723	-0.591
723	-0.595
723	-0.582
724	-0.586
724	-0.59
725	-0.589
725	-0.596
726	-0.609
726	-0.614
727	-0.619
727	-0.632
727	-0.641
728	-0.642
728	-0.648
729	-0.645
729	-0.649
730	-0.655
730	-0.652
730	-0.642
731	-0.624
731	-0.634
732	-0.639
732	-0.638
733	-0.637
733	-0.641
734	-0.637
734	-0.636
734	-0.621
735	-0.618
735	-0.62
736	-0.631
736	-0.617
737	-0.608
737	-0.609
737	-0.616
738	-0.61
738	-0.61
739	-0.61
739	-0.623
740	-0.622
740	-0.62
741	-0.615
741	-0.614
741	-0.62
742	-0.618
742	-0.617
743	-0.625
743	-0.628
744	-0.624
744	-0.617
744	-0.617
745	-0.624
745	-0.616
746	-0.615
746	-0.609
747	-0.61
747	-0.6
748	-0.589
748	-0.597
748	-0.6
749	-0.598
749	-0.598
750	-0.589
750	-0.591
751	-0.597
751	-0.606
751	-0.608
752	-0.613
752	-0.623
753	-0.617
753	-0.613
754	-0.617
754	-0.61
754	-0.622
755	-0.638
755	-0.649
756	-0.64
756	-0.636
757	-0.637
757	-0.631
758	-0.631
758	-0.629
758	-0.633
759	-0.639
759	-0.624
760	-0.617
760	-0.612
761	-0.621
761	-0.618
761	-0.614
762	-0.623
762	-0.623
763	-0.634
763	-0.631
764	-0.629
764	-0.636
764	-0.64
765	-0.631
765	-0.618
766	-0.625
766	-0.632
767	-0.645
767	-0.639
768	-0.629
768	-0.638
768	-0.645
769	-0.661
769	-0.665
770	-0.669
770	-0.683
771	-0.679
771	-0.68
771	-0.68
772	-0.685
772	-0.684
773	-0.683
773	-0.677
774	-0.678
774	-0.676
775	-0.678
775	-0.675
775	-0.685
776	-0.687
776	-0.679
777	-0.687
777	-0.708
778	-0.707
778	-0.726
778	-0.712
779	-0.734
779	-0.743
780	-0.754
780	-0.752
781	-0.763
781	-0.758
781	-0.772
782	-0.773
782	-0.774
783	-0.759
783	-0.758
784	-0.74
784	-0.731
784	-0.74
785	-0.745
785	-0.732
786	-0.736
786	-0.715
787	-0.696
787	-0.695
788	-0.702
788	-0.71
788	-0.719
789	-0.718
789	-0.7
790	-0.681
790	-0.682
791	-0.683
791	-0.698
791	-0.709
792	-0.706
792	-0.678
793	-0.666
793	-0.646
794	-0.648
794	-0.64
794	-0.653
795	-0.649
795	-0.641
796	-0.628
796	-0.632
797	-0.627
797	-0.642
797	-0.649
798	-0.658
798	-0.651
799	-0.663
799	-0.645
800	-0.65
800	-0.644
801	-0.646
801	-0.633
801	-0.642
802	-0.649
802	-0.652
803	-0.656
803	-0.666
804	-0.66
804	-0.671
804	-0.661
805	-0.664
805	-0.655
806	-0.656
806	-0.64
807	-0.639
807	-0.618
807	-0.606
808	-0.594
808	-0.59
809	-0.574
809	-0.586
810	-0.583
810	-0.574
810	-0.574
811	-0.579
811	-0.569
812	-0.571
812	-0.574
813	-0.582
813	-0.578
813	-0.587
814	-0.587
814	-0.591
815	-0.596
815	-0.601
816	-0.594
816	-0.601
817	-0.61
817	-0.626
817	-0.638
818	-0.644
818	-0.644
819	-0.633
819	-0.634
820	-0.643
820	-0.639
820	-0.651
821	-0.648
821	-0.638
822	-0.609
822	-0.585
823	-0.583
823	-0.585
823	-0.582
824	-0.576
824	-0.58
825	-0.573
825	-0.553
826	-0.549
826	-0.554
826	-0.56
827	-0.558
827	-0.555
828	-0.536
828	-0.538
829	-0.528
829	-0.512
829	-0.504
830	-0.513
830	-0.51
831	-0.501
831	-0.494
832	-0.494
832	-0.487
832	-0.495
833	-0.487
833	-0.489
834	-0.49
834	-0.499
835	-0.486
835	-0.481
835	-0.476
836	-0.473
836	-0.467
837	-0.464
837	-0.452
838	-0.444
838	-0.434
839	-0.42
839	-0.407
839	-0.398
840	-0.386
840	-0.384
841	-0.371
841	-0.364
842	-0.359
842	-0.352
842	-0.346
843	-0.339
843	-0.335
844	-0.327
844	-0.321
845	-0.316
845	-0.307
845	-0.295
846	-0.286
846	-0.273
847	-0.263
847	-0.255
848	-0.243
848	-0.232
848	-0.22
849	-0.209
849	-0.198
850	-0.185
850	-0.181
851	-0.173
851	-0.163
851	-0.154
852	-0.14
852	-0.131
853	-0.123
853	-0.117
854	-0.108
854	-0.097
854	-0.088
855	-0.078
855	-0.072
856	-0.063
856	-0.058
857	-0.052
857	-0.044
857	-0.034
858	-0.025
858	-0.019
859	-0.013
859	-0.003
860	0.005
860	0.016
860	0.023
861	0.031
861	0.038
862	0.045
862	0.05
863	0.055
863	0.062
863	0.066
864	0.07
864	0.074
865	0.079
865	0.082
866	0.085
866	0.088
866	0.09
867	0.093
867	0.097
868	0.099
868	0.102
869	0.105
869	0.108
869	0.109
870	0.111
870	0.113
871	0.116
871	0.117
872	0.118
872	0.119
872	0.12
873	0.121
873	0.121
874	0.121
874	0.121
875	0.12
875	0.119
875	0.118
876	0.117
876	0.116
877	0.115
877	0.114
878	0.112
878	0.11
878	0.108
879	0.106
879	0.105
880	0.104
880	0.103
881	0.103
881	0.103
881	0.103
882	0.103
882	0.103
883	0.102
883	0.102
884	0.101
884	0.1
884	0.1
885	0.099
885	0.098
886	0.097
886	0.097
887	0.096
887	0.096
887	0.095
888	0.095
888	0.095
889	0.095
889	0.096
890	0.096
890	0.096
890	0.096
891	0.095
891	0.095
892	0.096
892	0.096
893	0.095
893	0.095
893	0.095
894	0.094
894	0.094
895	0.093
895	0.093
895	0.092
896	0.091
896	0.09
897	0.089
897	0.088
898	0.088
898	0.087
898	0.087
899	0.087
899	0.087
900	0.088
900	0.088
901	0.089
901	0.089
901	0.09
902	0.091
902	0.091
903	0.091
903	0.091
904	0.092
904	0.092
904	0.092
905	0.093
905	0.093
906	0.094
906	0.094
907	0.094
907	0.093
907	0.093
908	0.093
908	0.092
909	0.092
909	0.091
910	0.091
910	0.091
910	0.091
911	0.091
911	0.091
912	0.092
912	0.092
913	0.092
913	0.093
913	0.094
914	0.094
914	0.095
915	0.095
915	0.095
916	0.096
916	0.096
916	0.095
917	0.095
917	0.095
918	0.094
918	0.094
918	0.093
919	0.092
919	0.092
920	0.092
920	0.092
921	0.092
921	0.092
921	0.092
922	0.092
922	0.092
923	0.092
923	0.092
924	0.092
924	0.091
924	0.091
925	0.09
925	0.089
926	0.088
926	0.087
927	0.087
927	0.086
927	0.086
928	0.086
928	0.085
929	0.085
929	0.085
930	0.085
930	0.084
930	0.084
931	0.084
931	0.084
932	0.084
932	0.083
933	0.082
933	0.081
933	0.079
934	0.078
934	0.077
935	0.076
935	0.075
935	0.073
936	0.072
936	0.071
937	0.07
937	0.07
938	0.07
938	0.07
938	0.071
939	0.071
939	0.072
940	0.073
940	0.073
941	0.074
941	0.075
941	0.076
942	0.077
942	0.077
943	0.077
943	0.077
944	0.077
944	0.077
944	0.076
945	0.076
945	0.075
946	0.074
946	0.073
946	0.072
947	0.071
947	0.071
948	0.071
948	0.072
949	0.072
949	0.072
949	0.073
950	0.073
950	0.074
951	0.075
951	0.076
952	0.077
952	0.078
952	0.078
953	0.079
953	0.08
954	0.08
954	0.081
955	0.082
955	0.083
955	0.084
956	0.085
956	0.085
957	0.085
957	0.085
957	0.085
958	0.085
958	0.085
959	0.086
959	0.085
960	0.085
960	0.084
960	0.085
961	0.084
961	0.084
962	0.084
962	0.084
963	0.084
963	0.084
963	0.083
964	0.084
964	0.084
965	0.084
965	0.084
966	0.084
966	0.083
966	0.084
967	0.083
967	0.083
968	0.082
968	0.081
968	0.081
969	0.08
969	0.08
970	0.08
970	0.08
971	0.08
971	0.08
971	0.081
972	0.081
972	0.081
973	0.081
973	0.081
974	0.08
974	0.08
974	0.08
975	0.079
975	0.078
976	0.077
976	0.077
976	0.076
977	0.076
977	0.076
978	0.075
978	0.075
979	0.074
979	0.074
979	0.073
980	0.073
980	0.072
981	0.072
981	0.072
982	0.071
982	0.071
982	0.071
983	0.071
983	0.071
984	0.071
984	0.071
984	0.072
985	0.072
985	0.073
986	0.073
986	0.073
987	0.074
987	0.074
987	0.073
988	0.073
988	0.072
989	0.072
989	0.071
990	0.07
990	0.069
990	0.068
991	0.067
991	0.067
992	0.066
992	0.066
992	0.066
993	0.066
993	0.066
994	0.066
994	0.066
995	0.066
995	0.066
995	0.065
996	0.065
996	0.065
997	0.064
997	0.065
997	0.065
998	0.065
998	0.065
999	0.065
999	0.065
1000	0.066
1000	0.066
1000	0.066
1001	0.066
1001	0.066
1002	0.066
1002	0.066
1003	0.066
1003	0.065
1003	0.065
1004	0.064
1004	0.063
1005	0.062
1005	0.062
1005	0.06
1006	0.059
1006	0.058
1007	0.058
1007	0.057
1008	0.057
1008	0.056
1008	0.056
1009	0.056
1009	0.056
1010	0.056
1010	0.056
1010	0.056
1011	0.056
1011	0.055
1012	0.055
1012	0.054
1013	0.053
1013	0.051
1013	0.05
1014	0.05
1014	0.049
1015	0.048
1015	0.047
1016	0.046
1016	0.045
1016	0.045
1017	0.044
1017	0.044
1018	0.043
1018	0.042
1018	0.042
1019	0.041
1019	0.041
1020	0.04
1020	0.04
1021	0.039
1021	0.038
1021	0.037
1022	0.036
1022	0.036
1023	0.035
1023	0.035
1023	0.034
1024	0.034
1024	0.034
1025	0.035
1025	0.035
1026	0.035
1026	0.036
1026	0.036
1027	0.037
1027	0.038
1028	0.038
1028	0.038
1028	0.038
1029	0.038
1029	0.037
1030	0.036
1030	0.036
1031	0.035
1031	0.035
1031	0.035
1032	0.035
1032	0.035
1033	0.035
1033	0.035
1033	0.036
1034	0.036
1034	0.036
1035	0.037
1035	0.037
1036	0.037
1036	0.036
1036	0.036
1037	0.036
1037	0.036
1038	0.036
1038	0.036
1039	0.036
1039	0.036
1039	0.036
1040	0.037
1040	0.037
1041	0.037
1041	0.037
1041	0.038
1042	0.037
1042	0.037
1043	0.037
1043	0.036
1044	0.036
1044	0.035
1044	0.034
1045	0.034
1045	0.034
1046	0.033
1046	0.033
1046	0.033
1047	0.034
1047	0.034
1048	0.035
1048	0.035
1049	0.036
1049	0.036
1049	0.036
1050	0.036
1050	0.036
1051	0.036
1051	0.036
1051	0.036
1052	0.037
1052	0.036
1053	0.036
1053	0.036
1053	0.036
1054	0.036
1054	0.036
1055	0.036
1055	0.035
1056	0.035
1056	0.034
1056	0.032
1057	0.032
1057	0.031
1058	0.031
1058	0.03
1058	0.03
1059	0.03
1059	0.029
1060	0.029
1060	0.028
1061	0.028
1061	0.028
1061	0.028
1062	0.028
1062	0.028
1063	0.028
1063	0.028
1063	0.029
1064	0.029
1064	0.029
1065	0.029
1065	0.029
1066	0.029
1066	0.028
1066	0.028
1067	0.028
1067	0.027
1068	0.027
1068	0.026
1068	0.025
1069	0.025
1069	0.024
1070	0.024
1070	0.024
1071	0.024
1071	0.024
1071	0.023
1072	0.023
1072	0.023
1073	0.022
1073	0.022
1073	0.022
1074	0.022
1074	0.023
1075	0.022
1075	0.021
1076	0.021
1076	0.021
1076	0.02
1077	0.02
1077	0.02
1078	0.019
1078	0.018
1078	0.017
1079	0.016
1079	0.016
1080	0.015
1080	0.014
1080	0.013
1081	0.013
1081	0.012
1082	0.012
1082	0.011
1083	0.01
1083	0.009
1083	0.009
1084	0.008
1084	0.007
1085	0.006
1085	0.005
1085	0.005
1086	0.004
1086	0.004
1087	0.004
1087	0.004
1088	0.003
1088	0.003
1088	0.003
1089	0.003
1089	0.002
1090	0.002
1090	0.001
1090	0
1091	-0
1091	-0
1092	-0.001
1092	-0.001
1092	-0.002
1093	-0.003
1093	-0.004
1094	-0.004
1094	-0.004
1095	-0.005
1095	-0.005
1095	-0.005
1096	-0.006
1096	-0.007
1097	-0.007
1097	-0.007
1097	-0.007
1098	-0.007
1098	-0.009
1099	-0.01
1099	-0.01
1100	-0.012
1100	-0.013
1100	-0.016
1101	-0.017
1101	-0.02
1102	-0.021
1102	-0.024
1102	-0.025
1103	-0.026
1103	-0.028
1104	-0.029
1104	-0.031
1104	-0.033
1105	-0.035
1105	-0.037
1106	-0.041
1106	-0.043
1107	-0.046
1107	-0.05
1107	-0.053
1108	-0.056
1108	-0.058
1109	-0.06
1109	-0.064
1109	-0.066
1110	-0.067
1110	-0.069
1111	-0.074
1111	-0.073
