Data from 17C_3.4A_30min_2sec_int_Absorbance__752__01473.txt Node

Date: Mon Jun 19 17:19:12 CEST 2023
User: Marek
Spectrometer: MAYP115816
Trigger mode: 0
Integration Time (sec): 2.500000E-1
Scans to average: 10
Electric dark correction enabled: true
Nonlinearity correction enabled: true
Boxcar width: 5
XAxis mode: Wavelengths
Number of Pixels in Spectrum: 2068
>>>>>Begin Spectral Data<<<<<
199	-0.677
199	-0.701
200	-0.606
200	-0.556
201	-0.518
201	-0.506
202	-0.489
202	-0.475
203	-0.468
203	-0.463
204	-0.453
204	-0.44
205	-0.415
205	-0.411
205	-0.41
206	-0.414
206	-0.414
207	-0.404
207	-0.405
208	-0.407
208	-0.407
209	-0.402
209	-0.405
210	-0.411
210	-0.416
211	-0.415
211	-0.416
212	-0.42
212	-0.429
213	-0.427
213	-0.425
213	-0.43
214	-0.424
214	-0.422
215	-0.421
215	-0.427
216	-0.432
216	-0.44
217	-0.436
217	-0.439
218	-0.443
218	-0.444
219	-0.447
219	-0.458
220	-0.463
220	-0.473
221	-0.472
221	-0.473
221	-0.465
222	-0.464
222	-0.466
223	-0.468
223	-0.472
224	-0.477
224	-0.478
225	-0.472
225	-0.467
226	-0.47
226	-0.471
227	-0.477
227	-0.485
228	-0.485
228	-0.487
229	-0.487
229	-0.481
229	-0.474
230	-0.479
230	-0.482
231	-0.475
231	-0.467
232	-0.461
232	-0.459
233	-0.453
233	-0.451
234	-0.451
234	-0.447
235	-0.45
235	-0.456
236	-0.454
236	-0.457
236	-0.463
237	-0.469
237	-0.47
238	-0.478
238	-0.478
239	-0.479
239	-0.487
240	-0.486
240	-0.483
241	-0.489
241	-0.488
242	-0.492
242	-0.49
243	-0.486
243	-0.487
243	-0.497
244	-0.497
244	-0.497
245	-0.512
245	-0.51
246	-0.514
246	-0.521
247	-0.524
247	-0.528
248	-0.535
248	-0.532
249	-0.533
249	-0.539
250	-0.536
250	-0.532
250	-0.532
251	-0.531
251	-0.53
252	-0.533
252	-0.523
253	-0.527
253	-0.539
254	-0.536
254	-0.535
255	-0.545
255	-0.536
256	-0.535
256	-0.545
257	-0.541
257	-0.539
258	-0.557
258	-0.555
258	-0.551
259	-0.548
259	-0.555
260	-0.554
260	-0.559
261	-0.571
261	-0.561
262	-0.559
262	-0.562
263	-0.55
263	-0.544
264	-0.545
264	-0.553
265	-0.55
265	-0.558
265	-0.564
266	-0.561
266	-0.56
267	-0.574
267	-0.581
268	-0.594
268	-0.605
269	-0.602
269	-0.597
270	-0.601
270	-0.604
271	-0.602
271	-0.606
272	-0.609
272	-0.6
272	-0.593
273	-0.592
273	-0.598
274	-0.603
274	-0.606
275	-0.608
275	-0.6
276	-0.605
276	-0.6
277	-0.607
277	-0.627
278	-0.635
278	-0.631
278	-0.625
279	-0.627
279	-0.64
280	-0.637
280	-0.635
281	-0.629
281	-0.635
282	-0.628
282	-0.627
283	-0.619
283	-0.619
284	-0.614
284	-0.605
285	-0.6
285	-0.597
285	-0.596
286	-0.606
286	-0.6
287	-0.595
287	-0.581
288	-0.574
288	-0.584
289	-0.597
289	-0.604
290	-0.595
290	-0.593
291	-0.59
291	-0.583
292	-0.587
292	-0.594
292	-0.598
293	-0.601
293	-0.592
294	-0.579
294	-0.571
295	-0.567
295	-0.567
296	-0.564
296	-0.562
297	-0.555
297	-0.541
298	-0.535
298	-0.545
298	-0.532
299	-0.528
299	-0.53
300	-0.526
300	-0.519
301	-0.518
301	-0.516
302	-0.524
302	-0.531
303	-0.518
303	-0.503
304	-0.506
304	-0.504
305	-0.504
305	-0.502
305	-0.499
306	-0.482
306	-0.477
307	-0.463
307	-0.465
308	-0.48
308	-0.476
309	-0.477
309	-0.469
310	-0.456
310	-0.454
311	-0.449
311	-0.456
311	-0.451
312	-0.447
312	-0.445
313	-0.43
313	-0.434
314	-0.435
314	-0.437
315	-0.44
315	-0.439
316	-0.433
316	-0.425
317	-0.421
317	-0.419
318	-0.409
318	-0.408
318	-0.403
319	-0.39
319	-0.387
320	-0.381
320	-0.383
321	-0.39
321	-0.389
322	-0.384
322	-0.378
323	-0.377
323	-0.372
324	-0.364
324	-0.356
324	-0.347
325	-0.337
325	-0.321
326	-0.306
326	-0.288
327	-0.273
327	-0.254
328	-0.23
328	-0.21
329	-0.191
329	-0.17
330	-0.145
330	-0.116
330	-0.092
331	-0.065
331	-0.041
332	-0.018
332	0.003
333	0.023
333	0.044
334	0.062
334	0.078
335	0.093
335	0.105
336	0.117
336	0.128
336	0.136
337	0.145
337	0.153
338	0.16
338	0.165
339	0.171
339	0.176
340	0.18
340	0.183
341	0.186
341	0.189
342	0.192
342	0.194
342	0.197
343	0.199
343	0.201
344	0.202
344	0.203
345	0.205
345	0.206
346	0.206
346	0.207
347	0.208
347	0.208
348	0.209
348	0.209
348	0.209
349	0.209
349	0.21
350	0.21
350	0.21
351	0.21
351	0.21
352	0.21
352	0.21
353	0.21
353	0.21
354	0.21
354	0.21
354	0.21
355	0.209
355	0.209
356	0.209
356	0.209
357	0.209
357	0.208
358	0.208
358	0.208
359	0.208
359	0.208
360	0.207
360	0.207
360	0.207
361	0.207
361	0.207
362	0.207
362	0.207
363	0.207
363	0.207
364	0.207
364	0.207
365	0.207
365	0.207
366	0.207
366	0.207
366	0.207
367	0.207
367	0.206
368	0.206
368	0.206
369	0.206
369	0.206
370	0.206
370	0.206
371	0.205
371	0.205
372	0.205
372	0.205
372	0.205
373	0.205
373	0.205
374	0.205
374	0.205
375	0.205
375	0.205
376	0.205
376	0.205
377	0.205
377	0.205
378	0.205
378	0.205
378	0.205
379	0.205
379	0.205
380	0.205
380	0.205
381	0.204
381	0.204
382	0.204
382	0.204
383	0.204
383	0.203
383	0.203
384	0.203
384	0.203
385	0.203
385	0.203
386	0.203
386	0.203
387	0.203
387	0.203
388	0.203
388	0.203
389	0.203
389	0.203
389	0.203
390	0.203
390	0.203
391	0.203
391	0.203
392	0.203
392	0.203
393	0.203
393	0.203
394	0.203
394	0.202
394	0.202
395	0.202
395	0.202
396	0.201
396	0.201
397	0.201
397	0.201
398	0.201
398	0.201
399	0.201
399	0.201
400	0.201
400	0.201
400	0.201
401	0.2
401	0.2
402	0.2
402	0.2
403	0.2
403	0.199
404	0.199
404	0.199
405	0.2
405	0.2
405	0.2
406	0.2
406	0.199
407	0.199
407	0.199
408	0.199
408	0.199
409	0.199
409	0.199
410	0.199
410	0.199
411	0.199
411	0.199
411	0.199
412	0.199
412	0.199
413	0.199
413	0.199
414	0.199
414	0.199
415	0.199
415	0.198
416	0.198
416	0.198
416	0.198
417	0.198
417	0.198
418	0.198
418	0.198
419	0.198
419	0.198
420	0.198
420	0.198
421	0.198
421	0.198
421	0.198
422	0.198
422	0.198
423	0.198
423	0.198
424	0.198
424	0.197
425	0.197
425	0.197
426	0.197
426	0.197
427	0.196
427	0.196
427	0.196
428	0.196
428	0.196
429	0.196
429	0.196
430	0.196
430	0.196
431	0.196
431	0.196
432	0.196
432	0.196
432	0.196
433	0.196
433	0.196
434	0.195
434	0.195
435	0.195
435	0.195
436	0.195
436	0.195
437	0.195
437	0.195
437	0.195
438	0.195
438	0.195
439	0.195
439	0.195
440	0.194
440	0.194
441	0.194
441	0.194
442	0.194
442	0.194
442	0.194
443	0.194
443	0.194
444	0.194
444	0.194
445	0.194
445	0.194
446	0.194
446	0.194
447	0.195
447	0.195
447	0.195
448	0.195
448	0.195
449	0.195
449	0.195
450	0.195
450	0.195
451	0.195
451	0.195
452	0.195
452	0.195
452	0.195
453	0.195
453	0.194
454	0.194
454	0.194
455	0.194
455	0.194
456	0.194
456	0.194
457	0.194
457	0.194
458	0.194
458	0.194
458	0.194
459	0.194
459	0.194
460	0.194
460	0.194
461	0.194
461	0.194
462	0.194
462	0.194
463	0.194
463	0.194
463	0.194
464	0.194
464	0.194
465	0.194
465	0.194
466	0.194
466	0.195
467	0.195
467	0.195
467	0.195
468	0.195
468	0.195
469	0.195
469	0.196
470	0.196
470	0.196
471	0.196
471	0.196
472	0.196
472	0.196
472	0.196
473	0.197
473	0.197
474	0.197
474	0.197
475	0.197
475	0.198
476	0.198
476	0.198
477	0.198
477	0.199
477	0.199
478	0.199
478	0.199
479	0.2
479	0.2
480	0.2
480	0.2
481	0.201
481	0.201
482	0.201
482	0.202
482	0.202
483	0.203
483	0.203
484	0.203
484	0.203
485	0.203
485	0.204
486	0.204
486	0.205
487	0.205
487	0.206
487	0.206
488	0.207
488	0.207
489	0.208
489	0.21
490	0.21
490	0.211
491	0.212
491	0.213
492	0.214
492	0.214
492	0.215
493	0.216
493	0.217
494	0.218
494	0.218
495	0.219
495	0.219
496	0.22
496	0.221
496	0.222
497	0.223
497	0.225
498	0.225
498	0.226
499	0.227
499	0.228
500	0.229
500	0.231
501	0.231
501	0.232
501	0.233
502	0.234
502	0.234
503	0.235
503	0.236
504	0.237
504	0.238
505	0.239
505	0.24
506	0.241
506	0.242
506	0.243
507	0.244
507	0.245
508	0.246
508	0.247
509	0.248
509	0.249
510	0.251
510	0.252
511	0.253
511	0.254
511	0.255
512	0.257
512	0.258
513	0.258
513	0.26
514	0.261
514	0.262
515	0.262
515	0.263
515	0.264
516	0.265
516	0.266
517	0.267
517	0.268
518	0.269
518	0.27
519	0.271
519	0.272
520	0.273
520	0.274
520	0.276
521	0.277
521	0.278
522	0.279
522	0.28
523	0.281
523	0.282
524	0.282
524	0.282
524	0.283
525	0.283
525	0.283
526	0.283
526	0.284
527	0.284
527	0.285
528	0.285
528	0.286
529	0.287
529	0.287
529	0.288
530	0.289
530	0.29
531	0.29
531	0.29
532	0.291
532	0.291
533	0.292
533	0.292
533	0.292
534	0.292
534	0.291
535	0.291
535	0.291
536	0.29
536	0.29
537	0.29
537	0.29
538	0.29
538	0.29
538	0.29
539	0.29
539	0.29
540	0.29
540	0.29
541	0.289
541	0.289
542	0.289
542	0.289
542	0.288
543	0.287
543	0.287
544	0.286
544	0.286
545	0.286
545	0.285
546	0.285
546	0.285
547	0.284
547	0.283
547	0.283
548	0.283
548	0.282
549	0.282
549	0.282
550	0.281
550	0.281
551	0.28
551	0.28
551	0.281
552	0.281
552	0.281
553	0.281
553	0.281
554	0.281
554	0.28
555	0.279
555	0.279
556	0.278
556	0.278
556	0.277
557	0.276
557	0.275
558	0.275
558	0.274
559	0.273
559	0.273
560	0.273
560	0.272
560	0.272
561	0.272
561	0.271
562	0.27
562	0.269
563	0.268
563	0.268
564	0.267
564	0.267
564	0.267
565	0.267
565	0.266
566	0.266
566	0.265
567	0.265
567	0.265
568	0.264
568	0.263
568	0.263
569	0.262
569	0.261
570	0.26
570	0.259
571	0.258
571	0.258
572	0.257
572	0.257
573	0.257
573	0.256
573	0.256
574	0.256
574	0.255
575	0.255
575	0.256
576	0.255
576	0.255
577	0.254
577	0.254
577	0.254
578	0.254
578	0.254
579	0.255
579	0.255
580	0.254
580	0.252
581	0.252
581	0.252
581	0.252
582	0.252
582	0.252
583	0.251
583	0.251
584	0.25
584	0.249
585	0.25
585	0.25
585	0.251
586	0.251
586	0.251
587	0.25
587	0.25
588	0.25
588	0.25
589	0.25
589	0.25
590	0.25
590	0.25
590	0.251
591	0.251
591	0.25
592	0.25
592	0.249
593	0.249
593	0.249
594	0.249
594	0.249
594	0.249
595	0.249
595	0.249
596	0.249
596	0.25
597	0.251
597	0.25
598	0.25
598	0.25
598	0.25
599	0.25
599	0.249
600	0.248
600	0.248
601	0.248
601	0.247
602	0.246
602	0.247
602	0.247
603	0.248
603	0.249
604	0.249
604	0.25
605	0.251
605	0.251
606	0.251
606	0.251
606	0.25
607	0.25
607	0.25
608	0.249
608	0.248
609	0.248
609	0.248
610	0.248
610	0.248
610	0.248
611	0.248
611	0.249
612	0.25
612	0.25
613	0.25
613	0.25
614	0.25
614	0.249
614	0.248
615	0.248
615	0.247
616	0.247
616	0.246
617	0.246
617	0.245
618	0.244
618	0.244
618	0.245
619	0.245
619	0.245
620	0.246
620	0.246
621	0.246
621	0.246
622	0.246
622	0.246
622	0.245
623	0.245
623	0.245
624	0.245
624	0.244
625	0.244
625	0.244
626	0.243
626	0.243
626	0.243
627	0.242
627	0.242
628	0.241
628	0.24
629	0.239
629	0.238
630	0.236
630	0.235
630	0.234
631	0.232
631	0.23
632	0.229
632	0.227
633	0.225
633	0.223
634	0.222
634	0.22
634	0.218
635	0.216
635	0.213
636	0.211
636	0.208
637	0.206
637	0.202
638	0.199
638	0.195
638	0.192
639	0.188
639	0.183
640	0.179
640	0.175
641	0.171
641	0.167
642	0.163
642	0.159
642	0.154
643	0.15
643	0.145
644	0.14
644	0.135
645	0.129
645	0.124
646	0.119
646	0.113
646	0.108
647	0.102
647	0.096
648	0.089
648	0.083
649	0.076
649	0.069
650	0.062
650	0.054
650	0.045
651	0.036
651	0.023
652	0.01
652	-0.005
653	-0.017
653	-0.029
653	-0.027
654	-0.008
654	0.001
655	-0.003
655	-0.008
656	-0.014
656	-0.02
657	-0.024
657	-0.029
657	-0.035
658	-0.041
658	-0.069
659	-0.149
659	-0.244
660	-0.289
660	-0.314
661	-0.34
661	-0.37
661	-0.404
662	-0.434
662	-0.468
663	-0.507
663	-0.549
664	-0.593
664	-0.643
665	-0.693
665	-0.752
665	-0.808
666	-0.865
666	-0.926
667	-0.991
667	-1.056
668	-1.129
668	-1.201
669	-1.273
669	-1.346
669	-1.422
670	-1.484
670	-1.5
671	-1.59
671	-1.918
672	-2.165
672	-2.366
672	-2.501
673	-2.597
673	-2.68
674	-2.733
674	-2.754
675	-2.78
675	-2.923
676	-3.128
676	-3.082
676	-2.86
677	-2.66
677	-2.504
678	-2.34
678	-2.075
679	-1.753
679	-1.6
680	-1.499
680	-1.412
680	-1.337
681	-1.289
681	-1.228
682	-1.187
682	-1.148
683	-1.111
683	-1.094
684	-1.073
684	-1.053
684	-1.03
685	-1.005
685	-0.983
686	-0.958
686	-0.941
687	-0.915
687	-0.903
687	-0.882
688	-0.855
688	-0.835
689	-0.811
689	-0.798
690	-0.779
690	-0.766
691	-0.76
691	-0.765
691	-0.78
692	-0.771
692	-0.762
693	-0.756
693	-0.763
694	-0.76
694	-0.751
695	-0.754
695	-0.749
695	-0.733
696	-0.729
696	-0.708
697	-0.708
697	-0.722
698	-0.725
698	-0.714
698	-0.726
699	-0.729
699	-0.728
700	-0.723
700	-0.736
701	-0.736
701	-0.742
702	-0.741
702	-0.729
702	-0.721
703	-0.714
703	-0.705
704	-0.704
704	-0.701
705	-0.711
705	-0.706
705	-0.693
706	-0.694
706	-0.689
707	-0.692
707	-0.688
708	-0.686
708	-0.678
709	-0.679
709	-0.682
709	-0.674
710	-0.681
710	-0.69
711	-0.679
711	-0.68
712	-0.681
712	-0.692
713	-0.691
713	-0.698
713	-0.69
714	-0.686
714	-0.686
715	-0.676
715	-0.663
716	-0.671
716	-0.675
716	-0.667
717	-0.669
717	-0.672
718	-0.665
718	-0.665
719	-0.671
719	-0.675
720	-0.672
720	-0.681
720	-0.675
721	-0.663
721	-0.663
722	-0.651
722	-0.639
723	-0.635
723	-0.64
723	-0.627
724	-0.628
724	-0.632
725	-0.633
725	-0.641
726	-0.655
726	-0.66
727	-0.666
727	-0.681
727	-0.689
728	-0.69
728	-0.696
729	-0.695
729	-0.697
730	-0.702
730	-0.697
730	-0.687
731	-0.671
731	-0.679
732	-0.684
732	-0.683
733	-0.68
733	-0.685
734	-0.677
734	-0.679
734	-0.665
735	-0.664
735	-0.663
736	-0.671
736	-0.659
737	-0.652
737	-0.652
737	-0.662
738	-0.658
738	-0.661
739	-0.658
739	-0.67
740	-0.668
740	-0.669
741	-0.666
741	-0.667
741	-0.673
742	-0.67
742	-0.671
743	-0.679
743	-0.682
744	-0.68
744	-0.67
744	-0.671
745	-0.677
745	-0.67
746	-0.667
746	-0.664
747	-0.666
747	-0.651
748	-0.639
748	-0.645
748	-0.647
749	-0.646
749	-0.648
750	-0.638
750	-0.639
751	-0.642
751	-0.649
751	-0.651
752	-0.656
752	-0.664
753	-0.659
753	-0.654
754	-0.661
754	-0.655
754	-0.668
755	-0.684
755	-0.696
756	-0.686
756	-0.684
757	-0.681
757	-0.678
758	-0.681
758	-0.679
758	-0.68
759	-0.684
759	-0.67
760	-0.663
760	-0.657
761	-0.666
761	-0.663
761	-0.664
762	-0.671
762	-0.67
763	-0.68
763	-0.675
764	-0.676
764	-0.68
764	-0.688
765	-0.68
765	-0.668
766	-0.673
766	-0.68
767	-0.694
767	-0.688
768	-0.68
768	-0.688
768	-0.693
769	-0.714
769	-0.715
770	-0.719
770	-0.729
771	-0.725
771	-0.73
771	-0.73
772	-0.733
772	-0.733
773	-0.733
773	-0.725
774	-0.722
774	-0.722
775	-0.725
775	-0.722
775	-0.732
776	-0.728
776	-0.719
777	-0.728
777	-0.746
778	-0.745
778	-0.767
778	-0.754
779	-0.775
779	-0.783
780	-0.795
780	-0.795
781	-0.809
781	-0.805
781	-0.818
782	-0.821
782	-0.822
783	-0.809
783	-0.807
784	-0.786
784	-0.777
784	-0.784
785	-0.791
785	-0.774
786	-0.78
786	-0.76
787	-0.742
787	-0.742
788	-0.744
788	-0.756
788	-0.767
789	-0.768
789	-0.752
790	-0.733
790	-0.734
791	-0.735
791	-0.751
791	-0.757
792	-0.752
792	-0.729
793	-0.716
793	-0.692
794	-0.694
794	-0.686
794	-0.697
795	-0.692
795	-0.685
796	-0.67
796	-0.676
797	-0.67
797	-0.682
797	-0.69
798	-0.703
798	-0.699
799	-0.709
799	-0.692
800	-0.699
800	-0.692
801	-0.699
801	-0.684
801	-0.695
802	-0.704
802	-0.705
803	-0.707
803	-0.714
804	-0.71
804	-0.723
804	-0.709
805	-0.712
805	-0.698
806	-0.702
806	-0.686
807	-0.682
807	-0.662
807	-0.651
808	-0.642
808	-0.637
809	-0.623
809	-0.633
810	-0.631
810	-0.624
810	-0.622
811	-0.627
811	-0.62
812	-0.622
812	-0.626
813	-0.632
813	-0.627
813	-0.631
814	-0.633
814	-0.638
815	-0.642
815	-0.645
816	-0.638
816	-0.643
817	-0.652
817	-0.666
817	-0.678
818	-0.685
818	-0.688
819	-0.681
819	-0.679
820	-0.692
820	-0.687
820	-0.699
821	-0.696
821	-0.682
822	-0.652
822	-0.631
823	-0.629
823	-0.634
823	-0.628
824	-0.625
824	-0.627
825	-0.62
825	-0.601
826	-0.596
826	-0.604
826	-0.614
827	-0.608
827	-0.604
828	-0.583
828	-0.586
829	-0.576
829	-0.561
829	-0.552
830	-0.562
830	-0.557
831	-0.549
831	-0.538
832	-0.536
832	-0.527
832	-0.535
833	-0.527
833	-0.527
834	-0.526
834	-0.533
835	-0.521
835	-0.519
835	-0.514
836	-0.513
836	-0.509
837	-0.508
837	-0.494
838	-0.486
838	-0.476
839	-0.462
839	-0.451
839	-0.443
840	-0.431
840	-0.427
841	-0.416
841	-0.407
842	-0.401
842	-0.393
842	-0.387
843	-0.38
843	-0.376
844	-0.366
844	-0.356
845	-0.348
845	-0.336
845	-0.323
846	-0.313
846	-0.298
847	-0.288
847	-0.278
848	-0.267
848	-0.255
848	-0.24
849	-0.231
849	-0.218
850	-0.205
850	-0.198
851	-0.188
851	-0.178
851	-0.168
852	-0.151
852	-0.138
853	-0.13
853	-0.124
854	-0.113
854	-0.102
854	-0.09
855	-0.08
855	-0.074
856	-0.064
856	-0.055
857	-0.049
857	-0.041
857	-0.03
858	-0.019
858	-0.013
859	-0.005
859	0.004
860	0.013
860	0.025
860	0.033
861	0.041
861	0.049
862	0.057
862	0.064
863	0.071
863	0.08
863	0.085
864	0.09
864	0.096
865	0.101
865	0.106
866	0.111
866	0.114
866	0.118
867	0.122
867	0.126
868	0.128
868	0.132
869	0.136
869	0.138
869	0.14
870	0.142
870	0.145
871	0.147
871	0.148
872	0.149
872	0.15
872	0.15
873	0.151
873	0.151
874	0.151
874	0.15
875	0.149
875	0.148
875	0.147
876	0.146
876	0.145
877	0.143
877	0.142
878	0.14
878	0.138
878	0.136
879	0.134
879	0.133
880	0.132
880	0.132
881	0.132
881	0.132
881	0.132
882	0.131
882	0.131
883	0.13
883	0.129
884	0.129
884	0.128
884	0.127
885	0.126
885	0.126
886	0.125
886	0.124
887	0.123
887	0.123
887	0.123
888	0.123
888	0.123
889	0.123
889	0.123
890	0.123
890	0.123
890	0.123
891	0.123
891	0.123
892	0.123
892	0.123
893	0.123
893	0.123
893	0.123
894	0.122
894	0.122
895	0.121
895	0.121
895	0.121
896	0.12
896	0.119
897	0.118
897	0.116
898	0.115
898	0.115
898	0.115
899	0.115
899	0.115
900	0.116
900	0.116
901	0.117
901	0.118
901	0.118
902	0.119
902	0.12
903	0.12
903	0.121
904	0.121
904	0.122
904	0.123
905	0.124
905	0.125
906	0.125
906	0.125
907	0.125
907	0.125
907	0.124
908	0.124
908	0.123
909	0.123
909	0.122
910	0.121
910	0.121
910	0.12
911	0.12
911	0.121
912	0.121
912	0.122
913	0.122
913	0.123
913	0.123
914	0.124
914	0.124
915	0.125
915	0.125
916	0.125
916	0.126
916	0.126
917	0.126
917	0.126
918	0.126
918	0.126
918	0.125
919	0.125
919	0.125
920	0.125
920	0.125
921	0.126
921	0.126
921	0.126
922	0.125
922	0.125
923	0.125
923	0.125
924	0.125
924	0.124
924	0.123
925	0.122
925	0.121
926	0.12
926	0.119
927	0.118
927	0.117
927	0.117
928	0.116
928	0.115
929	0.115
929	0.114
930	0.114
930	0.113
930	0.113
931	0.113
931	0.112
932	0.112
932	0.11
933	0.109
933	0.108
933	0.107
934	0.106
934	0.105
935	0.104
935	0.102
935	0.101
936	0.1
936	0.099
937	0.099
937	0.098
938	0.098
938	0.099
938	0.099
939	0.1
939	0.1
940	0.101
940	0.102
941	0.102
941	0.103
941	0.104
942	0.105
942	0.105
943	0.105
943	0.105
944	0.105
944	0.104
944	0.104
945	0.103
945	0.102
946	0.101
946	0.099
946	0.098
947	0.098
947	0.097
948	0.097
948	0.098
949	0.098
949	0.099
949	0.099
950	0.1
950	0.1
951	0.102
951	0.102
952	0.103
952	0.104
952	0.105
953	0.105
953	0.106
954	0.106
954	0.107
955	0.108
955	0.109
955	0.11
956	0.11
956	0.111
957	0.111
957	0.111
957	0.111
958	0.111
958	0.112
959	0.112
959	0.112
960	0.111
960	0.111
960	0.111
961	0.111
961	0.111
962	0.11
962	0.11
963	0.11
963	0.11
963	0.11
964	0.11
964	0.11
965	0.11
965	0.11
966	0.11
966	0.11
966	0.11
967	0.11
967	0.109
968	0.108
968	0.108
968	0.107
969	0.107
969	0.106
970	0.106
970	0.106
971	0.106
971	0.106
971	0.106
972	0.106
972	0.106
973	0.106
973	0.105
974	0.105
974	0.105
974	0.104
975	0.104
975	0.103
976	0.102
976	0.101
976	0.101
977	0.101
977	0.101
978	0.101
978	0.1
979	0.1
979	0.1
979	0.099
980	0.099
980	0.099
981	0.099
981	0.099
982	0.099
982	0.098
982	0.098
983	0.097
983	0.097
984	0.097
984	0.097
984	0.098
985	0.098
985	0.098
986	0.098
986	0.098
987	0.098
987	0.098
987	0.097
988	0.097
988	0.096
989	0.096
989	0.095
990	0.094
990	0.093
990	0.093
991	0.092
991	0.092
992	0.092
992	0.092
992	0.092
993	0.092
993	0.092
994	0.092
994	0.091
995	0.091
995	0.091
995	0.09
996	0.09
996	0.089
997	0.089
997	0.089
997	0.089
998	0.089
998	0.089
999	0.089
999	0.089
1000	0.09
1000	0.09
1000	0.09
1001	0.091
1001	0.091
1002	0.091
1002	0.091
1003	0.091
1003	0.091
1003	0.091
1004	0.091
1004	0.09
1005	0.09
1005	0.089
1005	0.088
1006	0.087
1006	0.086
1007	0.084
1007	0.084
1008	0.083
1008	0.082
1008	0.082
1009	0.081
1009	0.081
1010	0.082
1010	0.082
1010	0.081
1011	0.081
1011	0.081
1012	0.08
1012	0.08
1013	0.079
1013	0.078
1013	0.077
1014	0.076
1014	0.075
1015	0.074
1015	0.074
1016	0.073
1016	0.072
1016	0.071
1017	0.07
1017	0.07
1018	0.069
1018	0.068
1018	0.068
1019	0.067
1019	0.066
1020	0.066
1020	0.065
1021	0.064
1021	0.063
1021	0.062
1022	0.061
1022	0.061
1023	0.06
1023	0.06
1023	0.059
1024	0.059
1024	0.059
1025	0.059
1025	0.06
1026	0.06
1026	0.061
1026	0.061
1027	0.061
1027	0.062
1028	0.062
1028	0.062
1028	0.062
1029	0.062
1029	0.062
1030	0.061
1030	0.06
1031	0.06
1031	0.06
1031	0.06
1032	0.059
1032	0.059
1033	0.059
1033	0.059
1033	0.06
1034	0.06
1034	0.06
1035	0.06
1035	0.06
1036	0.06
1036	0.06
1036	0.06
1037	0.06
1037	0.06
1038	0.06
1038	0.06
1039	0.06
1039	0.061
1039	0.061
1040	0.062
1040	0.062
1041	0.062
1041	0.063
1041	0.063
1042	0.063
1042	0.062
1043	0.062
1043	0.061
1044	0.061
1044	0.06
1044	0.059
1045	0.058
1045	0.057
1046	0.057
1046	0.056
1046	0.056
1047	0.056
1047	0.057
1048	0.057
1048	0.057
1049	0.058
1049	0.058
1049	0.058
1050	0.058
1050	0.059
1051	0.059
1051	0.059
1051	0.059
1052	0.059
1052	0.06
1053	0.06
1053	0.06
1053	0.06
1054	0.059
1054	0.059
1055	0.059
1055	0.059
1056	0.058
1056	0.057
1056	0.057
1057	0.056
1057	0.055
1058	0.055
1058	0.054
1058	0.053
1059	0.053
1059	0.052
1060	0.052
1060	0.051
1061	0.051
1061	0.051
1061	0.051
1062	0.051
1062	0.05
1063	0.05
1063	0.051
1063	0.051
1064	0.052
1064	0.052
1065	0.051
1065	0.051
1066	0.051
1066	0.051
1066	0.05
1067	0.05
1067	0.05
1068	0.049
1068	0.048
1068	0.047
1069	0.047
1069	0.046
1070	0.046
1070	0.046
1071	0.045
1071	0.045
1071	0.044
1072	0.044
1072	0.043
1073	0.043
1073	0.043
1073	0.043
1074	0.043
1074	0.043
1075	0.042
1075	0.042
1076	0.042
1076	0.042
1076	0.041
1077	0.04
1077	0.04
1078	0.039
1078	0.038
1078	0.038
1079	0.037
1079	0.036
1080	0.035
1080	0.034
1080	0.033
1081	0.033
1081	0.032
1082	0.032
1082	0.031
1083	0.03
1083	0.029
1083	0.029
1084	0.028
1084	0.027
1085	0.026
1085	0.026
1085	0.026
1086	0.025
1086	0.024
1087	0.024
1087	0.025
1088	0.024
1088	0.024
1088	0.023
1089	0.023
1089	0.022
1090	0.021
1090	0.021
1090	0.019
1091	0.019
1091	0.019
1092	0.017
1092	0.017
1092	0.016
1093	0.015
1093	0.015
1094	0.015
1094	0.014
1095	0.013
1095	0.013
1095	0.013
1096	0.012
1096	0.012
1097	0.011
1097	0.01
1097	0.009
1098	0.007
1098	0.005
1099	0.005
1099	0.004
1100	0.002
1100	0
1100	-0.002
1101	-0.005
1101	-0.008
1102	-0.009
1102	-0.012
1102	-0.012
1103	-0.014
1103	-0.016
1104	-0.018
1104	-0.02
1104	-0.022
1105	-0.023
1105	-0.027
1106	-0.031
1106	-0.033
1107	-0.037
1107	-0.041
1107	-0.045
1108	-0.047
1108	-0.049
1109	-0.053
1109	-0.057
1109	-0.06
1110	-0.058
1110	-0.057
1111	-0.063
1111	-0.063
