Data from 17C_3.4A_30min_2sec_int_Absorbance__713__01434.txt Node

Date: Mon Jun 19 17:17:35 CEST 2023
User: Marek
Spectrometer: MAYP115816
Trigger mode: 0
Integration Time (sec): 2.500000E-1
Scans to average: 10
Electric dark correction enabled: true
Nonlinearity correction enabled: true
Boxcar width: 5
XAxis mode: Wavelengths
Number of Pixels in Spectrum: 2068
>>>>>Begin Spectral Data<<<<<
199	-0.693
199	-0.704
200	-0.609
200	-0.559
201	-0.524
201	-0.511
202	-0.494
202	-0.482
203	-0.469
203	-0.466
204	-0.455
204	-0.44
205	-0.418
205	-0.415
205	-0.414
206	-0.416
206	-0.419
207	-0.409
207	-0.409
208	-0.414
208	-0.414
209	-0.409
209	-0.409
210	-0.412
210	-0.417
211	-0.417
211	-0.418
212	-0.42
212	-0.429
213	-0.427
213	-0.429
213	-0.433
214	-0.427
214	-0.426
215	-0.424
215	-0.429
216	-0.433
216	-0.44
217	-0.436
217	-0.44
218	-0.444
218	-0.443
219	-0.447
219	-0.457
220	-0.462
220	-0.473
221	-0.472
221	-0.473
221	-0.465
222	-0.46
222	-0.46
223	-0.463
223	-0.466
224	-0.47
224	-0.471
225	-0.464
225	-0.459
226	-0.463
226	-0.463
227	-0.47
227	-0.481
228	-0.482
228	-0.483
229	-0.483
229	-0.477
229	-0.473
230	-0.479
230	-0.482
231	-0.474
231	-0.466
232	-0.459
232	-0.456
233	-0.45
233	-0.448
234	-0.448
234	-0.443
235	-0.445
235	-0.45
236	-0.448
236	-0.453
236	-0.459
237	-0.467
237	-0.469
238	-0.481
238	-0.48
239	-0.48
239	-0.488
240	-0.488
240	-0.486
241	-0.491
241	-0.493
242	-0.497
242	-0.493
243	-0.488
243	-0.486
243	-0.496
244	-0.496
244	-0.495
245	-0.508
245	-0.509
246	-0.514
246	-0.518
247	-0.521
247	-0.524
248	-0.529
248	-0.526
249	-0.526
249	-0.535
250	-0.536
250	-0.532
250	-0.531
251	-0.528
251	-0.53
252	-0.533
252	-0.525
253	-0.531
253	-0.542
254	-0.543
254	-0.54
255	-0.55
255	-0.543
256	-0.539
256	-0.551
257	-0.545
257	-0.541
258	-0.558
258	-0.553
258	-0.55
259	-0.545
259	-0.556
260	-0.552
260	-0.557
261	-0.57
261	-0.559
262	-0.558
262	-0.559
263	-0.548
263	-0.543
264	-0.544
264	-0.553
265	-0.547
265	-0.556
265	-0.559
266	-0.557
266	-0.557
267	-0.571
267	-0.58
268	-0.596
268	-0.605
269	-0.6
269	-0.593
270	-0.597
270	-0.599
271	-0.6
271	-0.603
272	-0.605
272	-0.598
272	-0.59
273	-0.587
273	-0.596
274	-0.603
274	-0.609
275	-0.611
275	-0.604
276	-0.606
276	-0.6
277	-0.603
277	-0.622
278	-0.633
278	-0.628
278	-0.622
279	-0.624
279	-0.635
280	-0.631
280	-0.634
281	-0.629
281	-0.637
282	-0.632
282	-0.631
283	-0.623
283	-0.623
284	-0.618
284	-0.608
285	-0.602
285	-0.601
285	-0.597
286	-0.604
286	-0.599
287	-0.596
287	-0.581
288	-0.573
288	-0.583
289	-0.594
289	-0.604
290	-0.593
290	-0.591
291	-0.587
291	-0.581
292	-0.584
292	-0.591
292	-0.595
293	-0.6
293	-0.59
294	-0.581
294	-0.573
295	-0.572
295	-0.568
296	-0.569
296	-0.567
297	-0.56
297	-0.543
298	-0.536
298	-0.544
298	-0.531
299	-0.524
299	-0.524
300	-0.518
300	-0.516
301	-0.509
301	-0.507
302	-0.515
302	-0.524
303	-0.511
303	-0.497
304	-0.501
304	-0.502
305	-0.504
305	-0.503
305	-0.498
306	-0.485
306	-0.478
307	-0.465
307	-0.465
308	-0.479
308	-0.479
309	-0.481
309	-0.47
310	-0.458
310	-0.455
311	-0.449
311	-0.454
311	-0.452
312	-0.448
312	-0.446
313	-0.432
313	-0.432
314	-0.427
314	-0.431
315	-0.433
315	-0.432
316	-0.427
316	-0.42
317	-0.414
317	-0.409
318	-0.399
318	-0.397
318	-0.392
319	-0.383
319	-0.378
320	-0.373
320	-0.375
321	-0.381
321	-0.38
322	-0.376
322	-0.371
323	-0.371
323	-0.366
324	-0.359
324	-0.351
324	-0.342
325	-0.333
325	-0.314
326	-0.299
326	-0.284
327	-0.268
327	-0.249
328	-0.226
328	-0.206
329	-0.185
329	-0.165
330	-0.139
330	-0.109
330	-0.086
331	-0.062
331	-0.036
332	-0.014
332	0.007
333	0.027
333	0.048
334	0.066
334	0.081
335	0.096
335	0.109
336	0.12
336	0.132
336	0.14
337	0.149
337	0.156
338	0.164
338	0.169
339	0.175
339	0.18
340	0.184
340	0.187
341	0.19
341	0.193
342	0.196
342	0.199
342	0.201
343	0.203
343	0.205
344	0.206
344	0.207
345	0.208
345	0.209
346	0.209
346	0.21
347	0.21
347	0.211
348	0.211
348	0.212
348	0.212
349	0.212
349	0.213
350	0.213
350	0.213
351	0.213
351	0.213
352	0.213
352	0.213
353	0.213
353	0.213
354	0.213
354	0.213
354	0.213
355	0.213
355	0.212
356	0.213
356	0.212
357	0.212
357	0.212
358	0.211
358	0.211
359	0.211
359	0.211
360	0.21
360	0.211
360	0.21
361	0.21
361	0.21
362	0.21
362	0.21
363	0.21
363	0.21
364	0.21
364	0.21
365	0.21
365	0.21
366	0.21
366	0.21
366	0.21
367	0.21
367	0.21
368	0.21
368	0.209
369	0.209
369	0.209
370	0.209
370	0.209
371	0.209
371	0.209
372	0.209
372	0.209
372	0.209
373	0.209
373	0.209
374	0.209
374	0.209
375	0.209
375	0.209
376	0.209
376	0.209
377	0.209
377	0.209
378	0.209
378	0.209
378	0.209
379	0.209
379	0.208
380	0.208
380	0.208
381	0.208
381	0.208
382	0.208
382	0.208
383	0.207
383	0.207
383	0.207
384	0.207
384	0.207
385	0.206
385	0.207
386	0.206
386	0.206
387	0.206
387	0.206
388	0.206
388	0.206
389	0.206
389	0.206
389	0.206
390	0.207
390	0.207
391	0.206
391	0.206
392	0.206
392	0.206
393	0.206
393	0.206
394	0.205
394	0.205
394	0.205
395	0.205
395	0.204
396	0.204
396	0.204
397	0.204
397	0.204
398	0.204
398	0.204
399	0.204
399	0.205
400	0.204
400	0.204
400	0.204
401	0.204
401	0.204
402	0.204
402	0.204
403	0.203
403	0.203
404	0.203
404	0.203
405	0.203
405	0.203
405	0.203
406	0.203
406	0.203
407	0.203
407	0.203
408	0.203
408	0.203
409	0.202
409	0.203
410	0.203
410	0.203
411	0.203
411	0.203
411	0.203
412	0.203
412	0.203
413	0.202
413	0.202
414	0.202
414	0.202
415	0.202
415	0.202
416	0.202
416	0.201
416	0.201
417	0.201
417	0.201
418	0.201
418	0.201
419	0.201
419	0.201
420	0.201
420	0.202
421	0.202
421	0.202
421	0.202
422	0.202
422	0.202
423	0.202
423	0.202
424	0.201
424	0.201
425	0.201
425	0.201
426	0.2
426	0.2
427	0.2
427	0.2
427	0.199
428	0.199
428	0.199
429	0.199
429	0.199
430	0.199
430	0.199
431	0.199
431	0.199
432	0.199
432	0.199
432	0.199
433	0.199
433	0.199
434	0.198
434	0.198
435	0.198
435	0.198
436	0.198
436	0.198
437	0.198
437	0.198
437	0.197
438	0.197
438	0.197
439	0.197
439	0.198
440	0.197
440	0.197
441	0.197
441	0.197
442	0.197
442	0.197
442	0.197
443	0.197
443	0.197
444	0.197
444	0.197
445	0.197
445	0.197
446	0.197
446	0.198
447	0.198
447	0.198
447	0.198
448	0.198
448	0.198
449	0.198
449	0.198
450	0.199
450	0.198
451	0.198
451	0.198
452	0.198
452	0.198
452	0.198
453	0.198
453	0.197
454	0.197
454	0.197
455	0.197
455	0.197
456	0.197
456	0.197
457	0.197
457	0.197
458	0.197
458	0.197
458	0.197
459	0.197
459	0.197
460	0.197
460	0.197
461	0.197
461	0.197
462	0.197
462	0.197
463	0.197
463	0.197
463	0.197
464	0.197
464	0.197
465	0.197
465	0.197
466	0.198
466	0.198
467	0.198
467	0.198
467	0.198
468	0.198
468	0.198
469	0.198
469	0.199
470	0.199
470	0.199
471	0.199
471	0.199
472	0.199
472	0.199
472	0.2
473	0.2
473	0.2
474	0.2
474	0.201
475	0.201
475	0.201
476	0.202
476	0.202
477	0.202
477	0.202
477	0.202
478	0.203
478	0.203
479	0.203
479	0.203
480	0.203
480	0.203
481	0.203
481	0.204
482	0.204
482	0.205
482	0.205
483	0.206
483	0.207
484	0.207
484	0.207
485	0.207
485	0.208
486	0.208
486	0.209
487	0.209
487	0.21
487	0.21
488	0.211
488	0.211
489	0.212
489	0.214
490	0.214
490	0.215
491	0.216
491	0.216
492	0.217
492	0.218
492	0.218
493	0.219
493	0.22
494	0.221
494	0.222
495	0.222
495	0.223
496	0.224
496	0.225
496	0.226
497	0.227
497	0.228
498	0.229
498	0.23
499	0.231
499	0.232
500	0.233
500	0.234
501	0.235
501	0.236
501	0.237
502	0.238
502	0.239
503	0.24
503	0.241
504	0.242
504	0.243
505	0.244
505	0.245
506	0.246
506	0.247
506	0.248
507	0.249
507	0.25
508	0.251
508	0.252
509	0.253
509	0.254
510	0.256
510	0.257
511	0.258
511	0.259
511	0.26
512	0.262
512	0.263
513	0.264
513	0.265
514	0.266
514	0.267
515	0.268
515	0.269
515	0.27
516	0.271
516	0.272
517	0.273
517	0.274
518	0.275
518	0.276
519	0.277
519	0.278
520	0.279
520	0.28
520	0.282
521	0.282
521	0.283
522	0.284
522	0.285
523	0.286
523	0.287
524	0.287
524	0.288
524	0.288
525	0.288
525	0.289
526	0.289
526	0.29
527	0.29
527	0.291
528	0.291
528	0.292
529	0.293
529	0.294
529	0.295
530	0.295
530	0.296
531	0.296
531	0.296
532	0.297
532	0.297
533	0.297
533	0.297
533	0.297
534	0.297
534	0.297
535	0.297
535	0.297
536	0.296
536	0.296
537	0.295
537	0.295
538	0.295
538	0.295
538	0.295
539	0.295
539	0.296
540	0.295
540	0.295
541	0.294
541	0.294
542	0.294
542	0.293
542	0.293
543	0.292
543	0.292
544	0.291
544	0.291
545	0.29
545	0.29
546	0.29
546	0.29
547	0.289
547	0.288
547	0.288
548	0.288
548	0.287
549	0.287
549	0.287
550	0.286
550	0.285
551	0.285
551	0.285
551	0.286
552	0.286
552	0.286
553	0.286
553	0.286
554	0.285
554	0.284
555	0.284
555	0.284
556	0.283
556	0.282
556	0.282
557	0.281
557	0.28
558	0.279
558	0.279
559	0.278
559	0.277
560	0.277
560	0.276
560	0.276
561	0.275
561	0.275
562	0.274
562	0.273
563	0.273
563	0.272
564	0.272
564	0.271
564	0.271
565	0.271
565	0.271
566	0.27
566	0.27
567	0.269
567	0.269
568	0.268
568	0.268
568	0.267
569	0.266
569	0.265
570	0.264
570	0.263
571	0.263
571	0.262
572	0.261
572	0.261
573	0.261
573	0.26
573	0.259
574	0.259
574	0.259
575	0.259
575	0.259
576	0.259
576	0.258
577	0.257
577	0.257
577	0.258
578	0.258
578	0.258
579	0.258
579	0.258
580	0.257
580	0.256
581	0.255
581	0.255
581	0.255
582	0.255
582	0.255
583	0.255
583	0.254
584	0.253
584	0.253
585	0.253
585	0.254
585	0.254
586	0.254
586	0.254
587	0.254
587	0.253
588	0.253
588	0.253
589	0.253
589	0.253
590	0.253
590	0.253
590	0.254
591	0.254
591	0.253
592	0.253
592	0.252
593	0.253
593	0.253
594	0.253
594	0.252
594	0.252
595	0.253
595	0.252
596	0.252
596	0.253
597	0.254
597	0.254
598	0.254
598	0.254
598	0.254
599	0.253
599	0.252
600	0.252
600	0.251
601	0.251
601	0.25
602	0.25
602	0.25
602	0.25
603	0.251
603	0.252
604	0.252
604	0.253
605	0.254
605	0.254
606	0.254
606	0.254
606	0.253
607	0.253
607	0.253
608	0.252
608	0.251
609	0.251
609	0.251
610	0.251
610	0.25
610	0.251
611	0.251
611	0.252
612	0.252
612	0.253
613	0.253
613	0.253
614	0.252
614	0.251
614	0.251
615	0.25
615	0.25
616	0.249
616	0.249
617	0.248
617	0.247
618	0.247
618	0.247
618	0.247
619	0.247
619	0.248
620	0.248
620	0.248
621	0.248
621	0.248
622	0.247
622	0.247
622	0.247
623	0.247
623	0.247
624	0.247
624	0.246
625	0.246
625	0.246
626	0.245
626	0.245
626	0.245
627	0.245
627	0.244
628	0.243
628	0.242
629	0.241
629	0.24
630	0.239
630	0.237
630	0.236
631	0.235
631	0.233
632	0.231
632	0.229
633	0.227
633	0.225
634	0.223
634	0.222
634	0.219
635	0.217
635	0.215
636	0.212
636	0.209
637	0.207
637	0.203
638	0.2
638	0.197
638	0.193
639	0.189
639	0.185
640	0.18
640	0.176
641	0.172
641	0.168
642	0.163
642	0.159
642	0.155
643	0.15
643	0.145
644	0.14
644	0.135
645	0.13
645	0.124
646	0.119
646	0.113
646	0.107
647	0.101
647	0.095
648	0.089
648	0.082
649	0.075
649	0.068
650	0.061
650	0.054
650	0.046
651	0.036
651	0.024
652	0.01
652	-0.005
653	-0.017
653	-0.029
653	-0.027
654	-0.009
654	-0.001
655	-0.005
655	-0.01
656	-0.016
656	-0.022
657	-0.027
657	-0.031
657	-0.037
658	-0.042
658	-0.07
659	-0.15
659	-0.244
660	-0.288
660	-0.313
661	-0.34
661	-0.369
661	-0.402
662	-0.434
662	-0.468
663	-0.507
663	-0.549
664	-0.593
664	-0.644
665	-0.695
665	-0.754
665	-0.809
666	-0.866
666	-0.927
667	-0.992
667	-1.057
668	-1.13
668	-1.202
669	-1.276
669	-1.348
669	-1.424
670	-1.488
670	-1.511
671	-1.624
671	-1.937
672	-2.178
672	-2.375
672	-2.508
673	-2.603
673	-2.685
674	-2.738
674	-2.759
675	-2.785
675	-2.927
676	-3.129
676	-3.082
676	-2.861
677	-2.66
677	-2.504
678	-2.34
678	-2.076
679	-1.752
679	-1.599
680	-1.499
680	-1.413
680	-1.339
681	-1.292
681	-1.23
682	-1.189
682	-1.15
683	-1.114
683	-1.096
684	-1.074
684	-1.054
684	-1.032
685	-1.007
685	-0.984
686	-0.961
686	-0.945
687	-0.918
687	-0.904
687	-0.883
688	-0.855
688	-0.832
689	-0.81
689	-0.796
690	-0.776
690	-0.762
691	-0.752
691	-0.756
691	-0.773
692	-0.764
692	-0.756
693	-0.751
693	-0.76
694	-0.756
694	-0.748
695	-0.754
695	-0.751
695	-0.736
696	-0.734
696	-0.713
697	-0.713
697	-0.729
698	-0.732
698	-0.723
698	-0.735
699	-0.739
699	-0.734
700	-0.726
700	-0.741
701	-0.739
701	-0.745
702	-0.745
702	-0.733
702	-0.724
703	-0.716
703	-0.709
704	-0.705
704	-0.705
705	-0.718
705	-0.71
705	-0.696
706	-0.697
706	-0.691
707	-0.694
707	-0.688
708	-0.686
708	-0.679
709	-0.681
709	-0.683
709	-0.671
710	-0.679
710	-0.69
711	-0.681
711	-0.683
712	-0.684
712	-0.699
713	-0.697
713	-0.703
713	-0.695
714	-0.689
714	-0.692
715	-0.684
715	-0.669
716	-0.677
716	-0.679
716	-0.67
717	-0.67
717	-0.672
718	-0.664
718	-0.665
719	-0.673
719	-0.675
720	-0.669
720	-0.68
720	-0.673
721	-0.663
721	-0.664
722	-0.652
722	-0.642
723	-0.639
723	-0.642
723	-0.63
724	-0.634
724	-0.638
725	-0.636
725	-0.644
726	-0.656
726	-0.658
727	-0.663
727	-0.677
727	-0.683
728	-0.683
728	-0.688
729	-0.687
729	-0.692
730	-0.699
730	-0.693
730	-0.682
731	-0.668
731	-0.677
732	-0.683
732	-0.684
733	-0.681
733	-0.687
734	-0.68
734	-0.681
734	-0.668
735	-0.666
735	-0.669
736	-0.678
736	-0.666
737	-0.658
737	-0.658
737	-0.672
738	-0.665
738	-0.665
739	-0.662
739	-0.673
740	-0.672
740	-0.671
741	-0.667
741	-0.668
741	-0.672
742	-0.668
742	-0.664
743	-0.673
743	-0.676
744	-0.673
744	-0.663
744	-0.666
745	-0.674
745	-0.666
746	-0.663
746	-0.658
747	-0.66
747	-0.65
748	-0.637
748	-0.644
748	-0.647
749	-0.647
749	-0.646
750	-0.632
750	-0.632
751	-0.639
751	-0.647
751	-0.652
752	-0.656
752	-0.667
753	-0.659
753	-0.655
754	-0.661
754	-0.655
754	-0.669
755	-0.685
755	-0.696
756	-0.686
756	-0.679
757	-0.679
757	-0.672
758	-0.675
758	-0.671
758	-0.674
759	-0.682
759	-0.667
760	-0.66
760	-0.654
761	-0.664
761	-0.665
761	-0.662
762	-0.671
762	-0.671
763	-0.681
763	-0.676
764	-0.675
764	-0.682
764	-0.689
765	-0.678
765	-0.667
766	-0.674
766	-0.681
767	-0.696
767	-0.689
768	-0.682
768	-0.692
768	-0.696
769	-0.715
769	-0.716
770	-0.722
770	-0.733
771	-0.73
771	-0.732
771	-0.731
772	-0.734
772	-0.733
773	-0.732
773	-0.726
774	-0.724
774	-0.725
775	-0.728
775	-0.721
775	-0.729
776	-0.727
776	-0.718
777	-0.727
777	-0.746
778	-0.743
778	-0.763
778	-0.747
779	-0.768
779	-0.776
780	-0.79
780	-0.789
781	-0.803
781	-0.797
781	-0.812
782	-0.812
782	-0.814
783	-0.801
783	-0.8
784	-0.781
784	-0.77
784	-0.779
785	-0.785
785	-0.769
786	-0.777
786	-0.754
787	-0.74
787	-0.741
788	-0.744
788	-0.757
788	-0.767
789	-0.769
789	-0.752
790	-0.732
790	-0.734
791	-0.733
791	-0.751
791	-0.759
792	-0.753
792	-0.728
793	-0.715
793	-0.694
794	-0.699
794	-0.691
794	-0.702
795	-0.698
795	-0.691
796	-0.676
796	-0.68
797	-0.676
797	-0.688
797	-0.695
798	-0.704
798	-0.697
799	-0.706
799	-0.69
800	-0.697
800	-0.691
801	-0.695
801	-0.68
801	-0.69
802	-0.699
802	-0.701
803	-0.703
803	-0.711
804	-0.707
804	-0.718
804	-0.705
805	-0.709
805	-0.699
806	-0.703
806	-0.689
807	-0.685
807	-0.667
807	-0.656
808	-0.647
808	-0.641
809	-0.628
809	-0.635
810	-0.633
810	-0.626
810	-0.623
811	-0.629
811	-0.622
812	-0.622
812	-0.628
813	-0.633
813	-0.629
813	-0.635
814	-0.638
814	-0.643
815	-0.646
815	-0.65
816	-0.641
816	-0.644
817	-0.653
817	-0.668
817	-0.681
818	-0.688
818	-0.691
819	-0.683
819	-0.685
820	-0.695
820	-0.693
820	-0.705
821	-0.705
821	-0.692
822	-0.66
822	-0.64
823	-0.636
823	-0.638
823	-0.635
824	-0.626
824	-0.627
825	-0.619
825	-0.6
826	-0.596
826	-0.604
826	-0.614
827	-0.605
827	-0.604
828	-0.584
828	-0.584
829	-0.575
829	-0.562
829	-0.554
830	-0.562
830	-0.557
831	-0.548
831	-0.537
832	-0.536
832	-0.527
832	-0.535
833	-0.528
833	-0.53
834	-0.528
834	-0.537
835	-0.524
835	-0.518
835	-0.515
836	-0.512
836	-0.508
837	-0.506
837	-0.496
838	-0.488
838	-0.477
839	-0.463
839	-0.451
839	-0.442
840	-0.431
840	-0.426
841	-0.414
841	-0.405
842	-0.4
842	-0.391
842	-0.384
843	-0.379
843	-0.374
844	-0.363
844	-0.355
845	-0.346
845	-0.336
845	-0.324
846	-0.315
846	-0.298
847	-0.287
847	-0.276
848	-0.264
848	-0.252
848	-0.238
849	-0.227
849	-0.217
850	-0.204
850	-0.198
851	-0.188
851	-0.18
851	-0.171
852	-0.155
852	-0.143
853	-0.135
853	-0.129
854	-0.118
854	-0.105
854	-0.096
855	-0.084
855	-0.077
856	-0.065
856	-0.056
857	-0.05
857	-0.042
857	-0.031
858	-0.019
858	-0.014
859	-0.006
859	0.005
860	0.014
860	0.026
860	0.033
861	0.041
861	0.05
862	0.057
862	0.063
863	0.07
863	0.079
863	0.084
864	0.089
864	0.094
865	0.1
865	0.104
866	0.109
866	0.113
866	0.117
867	0.121
867	0.124
868	0.127
868	0.131
869	0.134
869	0.137
869	0.139
870	0.141
870	0.143
871	0.145
871	0.147
872	0.148
872	0.149
872	0.149
873	0.15
873	0.15
874	0.15
874	0.15
875	0.149
875	0.148
875	0.146
876	0.145
876	0.144
877	0.142
877	0.141
878	0.139
878	0.137
878	0.135
879	0.133
879	0.132
880	0.131
880	0.131
881	0.131
881	0.131
881	0.13
882	0.13
882	0.129
883	0.129
883	0.128
884	0.127
884	0.126
884	0.125
885	0.124
885	0.124
886	0.123
886	0.123
887	0.122
887	0.121
887	0.121
888	0.121
888	0.121
889	0.121
889	0.122
890	0.122
890	0.122
890	0.121
891	0.122
891	0.122
892	0.122
892	0.122
893	0.122
893	0.122
893	0.122
894	0.122
894	0.121
895	0.121
895	0.121
895	0.12
896	0.119
896	0.118
897	0.117
897	0.116
898	0.115
898	0.114
898	0.114
899	0.114
899	0.115
900	0.115
900	0.115
901	0.116
901	0.117
901	0.118
902	0.118
902	0.119
903	0.12
903	0.12
904	0.12
904	0.121
904	0.122
905	0.123
905	0.123
906	0.124
906	0.124
907	0.124
907	0.123
907	0.123
908	0.122
908	0.122
909	0.121
909	0.12
910	0.12
910	0.119
910	0.119
911	0.119
911	0.119
912	0.12
912	0.12
913	0.12
913	0.121
913	0.122
914	0.122
914	0.123
915	0.123
915	0.124
916	0.124
916	0.124
916	0.124
917	0.124
917	0.124
918	0.123
918	0.123
918	0.123
919	0.123
919	0.123
920	0.123
920	0.123
921	0.123
921	0.123
921	0.123
922	0.123
922	0.123
923	0.123
923	0.123
924	0.122
924	0.122
924	0.121
925	0.12
925	0.119
926	0.118
926	0.116
927	0.116
927	0.115
927	0.115
928	0.114
928	0.114
929	0.113
929	0.113
930	0.112
930	0.112
930	0.112
931	0.111
931	0.111
932	0.111
932	0.11
933	0.109
933	0.107
933	0.106
934	0.104
934	0.103
935	0.102
935	0.101
935	0.1
936	0.099
936	0.098
937	0.097
937	0.097
938	0.098
938	0.098
938	0.098
939	0.099
939	0.099
940	0.1
940	0.1
941	0.101
941	0.102
941	0.103
942	0.104
942	0.104
943	0.104
943	0.104
944	0.104
944	0.103
944	0.103
945	0.103
945	0.101
946	0.1
946	0.099
946	0.098
947	0.097
947	0.097
948	0.097
948	0.097
949	0.097
949	0.098
949	0.098
950	0.099
950	0.099
951	0.101
951	0.101
952	0.102
952	0.103
952	0.104
953	0.105
953	0.106
954	0.106
954	0.106
955	0.107
955	0.108
955	0.109
956	0.11
956	0.11
957	0.11
957	0.11
957	0.11
958	0.11
958	0.111
959	0.111
959	0.111
960	0.111
960	0.11
960	0.11
961	0.11
961	0.111
962	0.11
962	0.11
963	0.11
963	0.11
963	0.11
964	0.11
964	0.11
965	0.11
965	0.11
966	0.11
966	0.11
966	0.109
967	0.109
967	0.108
968	0.108
968	0.107
968	0.106
969	0.106
969	0.105
970	0.105
970	0.105
971	0.105
971	0.105
971	0.105
972	0.105
972	0.105
973	0.105
973	0.105
974	0.104
974	0.104
974	0.104
975	0.103
975	0.103
976	0.102
976	0.101
976	0.101
977	0.101
977	0.1
978	0.1
978	0.1
979	0.1
979	0.099
979	0.099
980	0.099
980	0.099
981	0.098
981	0.098
982	0.098
982	0.097
982	0.097
983	0.097
983	0.096
984	0.097
984	0.097
984	0.097
985	0.097
985	0.097
986	0.097
986	0.097
987	0.097
987	0.097
987	0.097
988	0.097
988	0.096
989	0.096
989	0.095
990	0.094
990	0.094
990	0.093
991	0.093
991	0.092
992	0.092
992	0.092
992	0.092
993	0.091
993	0.092
994	0.091
994	0.091
995	0.091
995	0.09
995	0.09
996	0.089
996	0.089
997	0.088
997	0.088
997	0.088
998	0.088
998	0.088
999	0.089
999	0.089
1000	0.089
1000	0.089
1000	0.09
1001	0.09
1001	0.091
1002	0.09
1002	0.091
1003	0.091
1003	0.091
1003	0.09
1004	0.09
1004	0.089
1005	0.089
1005	0.088
1005	0.087
1006	0.086
1006	0.084
1007	0.083
1007	0.082
1008	0.082
1008	0.081
1008	0.081
1009	0.08
1009	0.08
1010	0.08
1010	0.08
1010	0.08
1011	0.08
1011	0.079
1012	0.079
1012	0.078
1013	0.077
1013	0.076
1013	0.075
1014	0.074
1014	0.073
1015	0.072
1015	0.072
1016	0.071
1016	0.071
1016	0.07
1017	0.069
1017	0.068
1018	0.068
1018	0.067
1018	0.067
1019	0.066
1019	0.065
1020	0.064
1020	0.064
1021	0.063
1021	0.062
1021	0.061
1022	0.06
1022	0.059
1023	0.059
1023	0.058
1023	0.058
1024	0.058
1024	0.057
1025	0.058
1025	0.058
1026	0.059
1026	0.059
1026	0.059
1027	0.06
1027	0.06
1028	0.061
1028	0.061
1028	0.06
1029	0.061
1029	0.06
1030	0.06
1030	0.059
1031	0.059
1031	0.058
1031	0.058
1032	0.058
1032	0.058
1033	0.058
1033	0.058
1033	0.058
1034	0.058
1034	0.059
1035	0.059
1035	0.059
1036	0.059
1036	0.059
1036	0.059
1037	0.058
1037	0.059
1038	0.058
1038	0.058
1039	0.059
1039	0.059
1039	0.059
1040	0.06
1040	0.06
1041	0.06
1041	0.061
1041	0.061
1042	0.061
1042	0.061
1043	0.06
1043	0.06
1044	0.059
1044	0.058
1044	0.058
1045	0.057
1045	0.056
1046	0.055
1046	0.055
1046	0.055
1047	0.055
1047	0.055
1048	0.056
1048	0.056
1049	0.056
1049	0.056
1049	0.057
1050	0.057
1050	0.058
1051	0.058
1051	0.058
1051	0.058
1052	0.058
1052	0.059
1053	0.059
1053	0.059
1053	0.059
1054	0.058
1054	0.058
1055	0.058
1055	0.058
1056	0.058
1056	0.057
1056	0.055
1057	0.055
1057	0.054
1058	0.054
1058	0.053
1058	0.053
1059	0.052
1059	0.051
1060	0.051
1060	0.05
1061	0.05
1061	0.05
1061	0.05
1062	0.05
1062	0.05
1063	0.05
1063	0.05
1063	0.05
1064	0.05
1064	0.051
1065	0.051
1065	0.05
1066	0.05
1066	0.05
1066	0.049
1067	0.049
1067	0.048
1068	0.048
1068	0.047
1068	0.046
1069	0.046
1069	0.045
1070	0.044
1070	0.044
1071	0.044
1071	0.044
1071	0.043
1072	0.043
1072	0.042
1073	0.042
1073	0.042
1073	0.042
1074	0.042
1074	0.043
1075	0.042
1075	0.042
1076	0.041
1076	0.041
1076	0.041
1077	0.04
1077	0.04
1078	0.039
1078	0.039
1078	0.037
1079	0.037
1079	0.037
1080	0.036
1080	0.035
1080	0.034
1081	0.033
1081	0.033
1082	0.032
1082	0.031
1083	0.03
1083	0.029
1083	0.028
1084	0.027
1084	0.027
1085	0.026
1085	0.025
1085	0.025
1086	0.024
1086	0.023
1087	0.023
1087	0.024
1088	0.023
1088	0.023
1088	0.022
1089	0.021
1089	0.021
1090	0.019
1090	0.019
1090	0.018
1091	0.017
1091	0.017
1092	0.016
1092	0.016
1092	0.015
1093	0.014
1093	0.015
1094	0.015
1094	0.014
1095	0.013
1095	0.013
1095	0.013
1096	0.012
1096	0.01
1097	0.01
1097	0.009
1097	0.008
1098	0.007
1098	0.005
1099	0.004
1099	0.003
1100	0.002
1100	0.001
1100	-0.002
1101	-0.004
1101	-0.007
1102	-0.009
1102	-0.011
1102	-0.012
1103	-0.014
1103	-0.016
1104	-0.019
1104	-0.021
1104	-0.024
1105	-0.025
1105	-0.028
1106	-0.031
1106	-0.034
1107	-0.038
1107	-0.042
1107	-0.046
1108	-0.049
1108	-0.051
1109	-0.053
1109	-0.058
1109	-0.06
1110	-0.06
1110	-0.063
1111	-0.069
1111	-0.066
