Data from 17C_3.4A_30min_2sec_int_Absorbance__93__00814.txt Node

Date: Mon Jun 19 16:51:45 CEST 2023
User: Marek
Spectrometer: MAYP115816
Trigger mode: 0
Integration Time (sec): 2.500000E-1
Scans to average: 10
Electric dark correction enabled: true
Nonlinearity correction enabled: true
Boxcar width: 5
XAxis mode: Wavelengths
Number of Pixels in Spectrum: 2068
>>>>>Begin Spectral Data<<<<<
199	-0.621
199	-0.636
200	-0.545
200	-0.489
201	-0.457
201	-0.444
202	-0.427
202	-0.413
203	-0.406
203	-0.401
204	-0.386
204	-0.373
205	-0.349
205	-0.343
205	-0.344
206	-0.347
206	-0.345
207	-0.335
207	-0.338
208	-0.34
208	-0.339
209	-0.335
209	-0.335
210	-0.34
210	-0.348
211	-0.346
211	-0.349
212	-0.353
212	-0.361
213	-0.358
213	-0.358
213	-0.362
214	-0.36
214	-0.359
215	-0.36
215	-0.365
216	-0.369
216	-0.372
217	-0.372
217	-0.376
218	-0.38
218	-0.379
219	-0.381
219	-0.392
220	-0.397
220	-0.404
221	-0.401
221	-0.404
221	-0.398
222	-0.392
222	-0.392
223	-0.395
223	-0.399
224	-0.405
224	-0.405
225	-0.399
225	-0.393
226	-0.396
226	-0.392
227	-0.399
227	-0.407
228	-0.407
228	-0.408
229	-0.407
229	-0.401
229	-0.393
230	-0.398
230	-0.402
231	-0.399
231	-0.394
232	-0.386
232	-0.389
233	-0.384
233	-0.382
234	-0.382
234	-0.38
235	-0.382
235	-0.385
236	-0.383
236	-0.384
236	-0.391
237	-0.399
237	-0.394
238	-0.401
238	-0.4
239	-0.402
239	-0.41
240	-0.409
240	-0.408
241	-0.411
241	-0.412
242	-0.416
242	-0.41
243	-0.41
243	-0.411
243	-0.419
244	-0.417
244	-0.413
245	-0.426
245	-0.426
246	-0.434
246	-0.438
247	-0.441
247	-0.445
248	-0.448
248	-0.445
249	-0.448
249	-0.457
250	-0.458
250	-0.456
250	-0.457
251	-0.451
251	-0.451
252	-0.452
252	-0.443
253	-0.448
253	-0.458
254	-0.455
254	-0.452
255	-0.46
255	-0.45
256	-0.449
256	-0.462
257	-0.46
257	-0.458
258	-0.476
258	-0.472
258	-0.47
259	-0.469
259	-0.478
260	-0.476
260	-0.484
261	-0.492
261	-0.482
262	-0.478
262	-0.477
263	-0.464
263	-0.461
264	-0.459
264	-0.467
265	-0.461
265	-0.468
265	-0.472
266	-0.473
266	-0.47
267	-0.481
267	-0.49
268	-0.506
268	-0.515
269	-0.514
269	-0.508
270	-0.512
270	-0.516
271	-0.515
271	-0.515
272	-0.516
272	-0.514
272	-0.505
273	-0.504
273	-0.511
274	-0.517
274	-0.52
275	-0.522
275	-0.517
276	-0.523
276	-0.517
277	-0.524
277	-0.537
278	-0.549
278	-0.544
278	-0.539
279	-0.538
279	-0.548
280	-0.544
280	-0.543
281	-0.538
281	-0.546
282	-0.537
282	-0.54
283	-0.529
283	-0.532
284	-0.526
284	-0.518
285	-0.512
285	-0.512
285	-0.507
286	-0.512
286	-0.507
287	-0.505
287	-0.489
288	-0.483
288	-0.492
289	-0.503
289	-0.515
290	-0.506
290	-0.503
291	-0.502
291	-0.496
292	-0.498
292	-0.506
292	-0.509
293	-0.512
293	-0.498
294	-0.49
294	-0.479
295	-0.475
295	-0.473
296	-0.468
296	-0.469
297	-0.463
297	-0.445
298	-0.439
298	-0.447
298	-0.436
299	-0.426
299	-0.426
300	-0.423
300	-0.42
301	-0.415
301	-0.411
302	-0.419
302	-0.428
303	-0.414
303	-0.4
304	-0.402
304	-0.403
305	-0.405
305	-0.404
305	-0.4
306	-0.386
306	-0.38
307	-0.367
307	-0.368
308	-0.38
308	-0.378
309	-0.381
309	-0.37
310	-0.359
310	-0.358
311	-0.351
311	-0.358
311	-0.355
312	-0.35
312	-0.347
313	-0.337
313	-0.339
314	-0.337
314	-0.339
315	-0.341
315	-0.338
316	-0.334
316	-0.327
317	-0.321
317	-0.319
318	-0.31
318	-0.307
318	-0.302
319	-0.292
319	-0.291
320	-0.283
320	-0.283
321	-0.288
321	-0.284
322	-0.279
322	-0.272
323	-0.271
323	-0.266
324	-0.26
324	-0.252
324	-0.243
325	-0.231
325	-0.216
326	-0.205
326	-0.188
327	-0.173
327	-0.154
328	-0.128
328	-0.111
329	-0.089
329	-0.068
330	-0.041
330	-0.011
330	0.014
331	0.044
331	0.069
332	0.092
332	0.113
333	0.132
333	0.156
334	0.174
334	0.189
335	0.204
335	0.217
336	0.229
336	0.241
336	0.25
337	0.26
337	0.268
338	0.276
338	0.28
339	0.287
339	0.292
340	0.296
340	0.3
341	0.303
341	0.306
342	0.309
342	0.311
342	0.314
343	0.315
343	0.318
344	0.319
344	0.32
345	0.322
345	0.322
346	0.323
346	0.324
347	0.325
347	0.325
348	0.325
348	0.326
348	0.326
349	0.326
349	0.327
350	0.327
350	0.327
351	0.327
351	0.327
352	0.327
352	0.327
353	0.327
353	0.327
354	0.326
354	0.326
354	0.326
355	0.326
355	0.325
356	0.325
356	0.325
357	0.324
357	0.324
358	0.324
358	0.323
359	0.323
359	0.323
360	0.323
360	0.323
360	0.322
361	0.322
361	0.322
362	0.322
362	0.322
363	0.322
363	0.322
364	0.322
364	0.322
365	0.322
365	0.322
366	0.322
366	0.321
366	0.321
367	0.321
367	0.321
368	0.321
368	0.32
369	0.32
369	0.32
370	0.32
370	0.319
371	0.319
371	0.319
372	0.319
372	0.319
372	0.318
373	0.318
373	0.318
374	0.318
374	0.317
375	0.317
375	0.317
376	0.317
376	0.317
377	0.317
377	0.316
378	0.316
378	0.316
378	0.316
379	0.316
379	0.316
380	0.315
380	0.315
381	0.314
381	0.314
382	0.314
382	0.314
383	0.314
383	0.313
383	0.313
384	0.313
384	0.313
385	0.313
385	0.312
386	0.312
386	0.312
387	0.312
387	0.312
388	0.312
388	0.311
389	0.311
389	0.311
389	0.311
390	0.311
390	0.311
391	0.31
391	0.31
392	0.31
392	0.31
393	0.31
393	0.309
394	0.309
394	0.309
394	0.308
395	0.308
395	0.308
396	0.307
396	0.307
397	0.307
397	0.307
398	0.307
398	0.306
399	0.306
399	0.306
400	0.306
400	0.305
400	0.305
401	0.305
401	0.304
402	0.304
402	0.304
403	0.304
403	0.303
404	0.303
404	0.303
405	0.303
405	0.303
405	0.303
406	0.303
406	0.302
407	0.302
407	0.302
408	0.302
408	0.301
409	0.301
409	0.301
410	0.301
410	0.301
411	0.301
411	0.3
411	0.301
412	0.301
412	0.3
413	0.3
413	0.3
414	0.299
414	0.299
415	0.299
415	0.298
416	0.298
416	0.298
416	0.298
417	0.297
417	0.297
418	0.297
418	0.297
419	0.297
419	0.297
420	0.297
420	0.297
421	0.297
421	0.297
421	0.297
422	0.297
422	0.297
423	0.297
423	0.297
424	0.296
424	0.296
425	0.296
425	0.296
426	0.295
426	0.295
427	0.295
427	0.295
427	0.295
428	0.295
428	0.295
429	0.294
429	0.294
430	0.294
430	0.294
431	0.294
431	0.294
432	0.294
432	0.293
432	0.293
433	0.293
433	0.292
434	0.292
434	0.292
435	0.292
435	0.292
436	0.292
436	0.292
437	0.292
437	0.292
437	0.292
438	0.292
438	0.292
439	0.292
439	0.292
440	0.291
440	0.291
441	0.291
441	0.291
442	0.291
442	0.29
442	0.29
443	0.29
443	0.29
444	0.29
444	0.29
445	0.289
445	0.289
446	0.289
446	0.289
447	0.29
447	0.29
447	0.29
448	0.29
448	0.29
449	0.29
449	0.29
450	0.291
450	0.291
451	0.291
451	0.291
452	0.291
452	0.291
452	0.291
453	0.29
453	0.29
454	0.29
454	0.29
455	0.29
455	0.29
456	0.29
456	0.29
457	0.29
457	0.29
458	0.29
458	0.29
458	0.29
459	0.29
459	0.29
460	0.29
460	0.29
461	0.29
461	0.29
462	0.29
462	0.291
463	0.291
463	0.291
463	0.292
464	0.292
464	0.292
465	0.292
465	0.293
466	0.293
466	0.294
467	0.294
467	0.294
467	0.295
468	0.295
468	0.295
469	0.296
469	0.296
470	0.297
470	0.297
471	0.297
471	0.297
472	0.298
472	0.298
472	0.298
473	0.299
473	0.299
474	0.299
474	0.299
475	0.3
475	0.301
476	0.301
476	0.301
477	0.302
477	0.302
477	0.303
478	0.303
478	0.304
479	0.305
479	0.305
480	0.306
480	0.306
481	0.307
481	0.308
482	0.309
482	0.31
482	0.311
483	0.312
483	0.313
484	0.313
484	0.314
485	0.314
485	0.315
486	0.316
486	0.317
487	0.318
487	0.319
487	0.32
488	0.321
488	0.322
489	0.323
489	0.326
490	0.327
490	0.329
491	0.33
491	0.332
492	0.333
492	0.335
492	0.336
493	0.338
493	0.34
494	0.341
494	0.343
495	0.344
495	0.346
496	0.347
496	0.349
496	0.351
497	0.353
497	0.355
498	0.357
498	0.359
499	0.361
499	0.363
500	0.365
500	0.367
501	0.369
501	0.371
501	0.372
502	0.374
502	0.376
503	0.378
503	0.38
504	0.382
504	0.384
505	0.387
505	0.389
506	0.391
506	0.393
506	0.396
507	0.398
507	0.401
508	0.403
508	0.405
509	0.408
509	0.41
510	0.413
510	0.415
511	0.417
511	0.419
511	0.422
512	0.424
512	0.426
513	0.428
513	0.43
514	0.432
514	0.434
515	0.437
515	0.439
515	0.441
516	0.443
516	0.445
517	0.447
517	0.449
518	0.451
518	0.453
519	0.455
519	0.457
520	0.459
520	0.461
520	0.463
521	0.465
521	0.467
522	0.468
522	0.47
523	0.472
523	0.473
524	0.474
524	0.476
524	0.477
525	0.477
525	0.478
526	0.479
526	0.48
527	0.481
527	0.482
528	0.483
528	0.484
529	0.485
529	0.486
529	0.487
530	0.488
530	0.488
531	0.488
531	0.489
532	0.489
532	0.49
533	0.49
533	0.491
533	0.491
534	0.491
534	0.491
535	0.492
535	0.492
536	0.492
536	0.492
537	0.492
537	0.492
538	0.492
538	0.492
538	0.491
539	0.491
539	0.491
540	0.49
540	0.49
541	0.489
541	0.489
542	0.488
542	0.487
542	0.486
543	0.486
543	0.485
544	0.484
544	0.483
545	0.482
545	0.482
546	0.481
546	0.48
547	0.479
547	0.478
547	0.478
548	0.477
548	0.476
549	0.475
549	0.474
550	0.473
550	0.472
551	0.471
551	0.47
551	0.469
552	0.469
552	0.468
553	0.467
553	0.466
554	0.465
554	0.464
555	0.463
555	0.462
556	0.461
556	0.459
556	0.459
557	0.458
557	0.456
558	0.455
558	0.454
559	0.452
559	0.451
560	0.45
560	0.449
560	0.448
561	0.447
561	0.445
562	0.444
562	0.443
563	0.442
563	0.441
564	0.439
564	0.439
564	0.438
565	0.437
565	0.435
566	0.434
566	0.433
567	0.431
567	0.43
568	0.428
568	0.426
568	0.425
569	0.424
569	0.422
570	0.42
570	0.419
571	0.418
571	0.417
572	0.415
572	0.413
573	0.412
573	0.411
573	0.409
574	0.408
574	0.407
575	0.406
575	0.405
576	0.404
576	0.403
577	0.402
577	0.401
577	0.401
578	0.4
578	0.4
579	0.4
579	0.399
580	0.397
580	0.395
581	0.393
581	0.392
581	0.391
582	0.39
582	0.389
583	0.388
583	0.386
584	0.384
584	0.383
585	0.382
585	0.381
585	0.38
586	0.379
586	0.378
587	0.377
587	0.376
588	0.375
588	0.374
589	0.373
589	0.372
590	0.371
590	0.37
590	0.37
591	0.368
591	0.367
592	0.365
592	0.363
593	0.362
593	0.361
594	0.36
594	0.359
594	0.358
595	0.357
595	0.356
596	0.355
596	0.354
597	0.354
597	0.353
598	0.352
598	0.351
598	0.35
599	0.349
599	0.347
600	0.346
600	0.345
601	0.343
601	0.342
602	0.34
602	0.339
602	0.338
603	0.337
603	0.337
604	0.336
604	0.335
605	0.335
605	0.334
606	0.332
606	0.331
606	0.33
607	0.329
607	0.328
608	0.326
608	0.325
609	0.324
609	0.323
610	0.322
610	0.321
610	0.32
611	0.319
611	0.319
612	0.318
612	0.317
613	0.316
613	0.315
614	0.313
614	0.311
614	0.31
615	0.308
615	0.306
616	0.305
616	0.303
617	0.301
617	0.3
618	0.298
618	0.297
618	0.296
619	0.295
619	0.294
620	0.293
620	0.292
621	0.29
621	0.289
622	0.288
622	0.286
622	0.285
623	0.283
623	0.282
624	0.281
624	0.279
625	0.277
625	0.276
626	0.274
626	0.273
626	0.272
627	0.27
627	0.268
628	0.266
628	0.264
629	0.261
629	0.259
630	0.256
630	0.253
630	0.25
631	0.248
631	0.244
632	0.241
632	0.238
633	0.234
633	0.231
634	0.227
634	0.223
634	0.219
635	0.214
635	0.21
636	0.205
636	0.2
637	0.194
637	0.189
638	0.183
638	0.178
638	0.172
639	0.166
639	0.159
640	0.153
640	0.147
641	0.141
641	0.135
642	0.128
642	0.122
642	0.116
643	0.109
643	0.102
644	0.095
644	0.087
645	0.08
645	0.072
646	0.065
646	0.057
646	0.049
647	0.041
647	0.034
648	0.026
648	0.018
649	0.009
649	0.002
650	-0.006
650	-0.013
650	-0.022
651	-0.032
651	-0.045
652	-0.06
652	-0.075
653	-0.089
653	-0.1
653	-0.096
654	-0.072
654	-0.059
655	-0.061
655	-0.065
656	-0.07
656	-0.075
657	-0.079
657	-0.082
657	-0.086
658	-0.091
658	-0.119
659	-0.204
659	-0.305
660	-0.349
660	-0.376
661	-0.406
661	-0.437
661	-0.474
662	-0.512
662	-0.552
663	-0.597
663	-0.645
664	-0.695
664	-0.752
665	-0.81
665	-0.874
665	-0.936
666	-0.999
666	-1.067
667	-1.136
667	-1.206
668	-1.284
668	-1.364
669	-1.446
669	-1.532
669	-1.631
670	-1.759
670	-1.951
671	-2.088
671	-2.223
672	-2.384
672	-2.535
672	-2.638
673	-2.712
673	-2.752
674	-2.771
674	-2.783
675	-2.798
675	-2.901
676	-3.055
676	-2.996
676	-2.757
677	-2.529
677	-2.321
678	-2.041
678	-1.766
679	-1.623
679	-1.523
680	-1.441
680	-1.37
680	-1.309
681	-1.27
681	-1.215
682	-1.178
682	-1.143
683	-1.109
683	-1.091
684	-1.069
684	-1.047
684	-1.024
685	-0.998
685	-0.975
686	-0.949
686	-0.931
687	-0.903
687	-0.889
687	-0.867
688	-0.84
688	-0.817
689	-0.794
689	-0.78
690	-0.76
690	-0.743
691	-0.734
691	-0.737
691	-0.75
692	-0.741
692	-0.731
693	-0.724
693	-0.729
694	-0.724
694	-0.716
695	-0.718
695	-0.716
695	-0.7
696	-0.695
696	-0.673
697	-0.672
697	-0.686
698	-0.688
698	-0.678
698	-0.688
699	-0.689
699	-0.687
700	-0.676
700	-0.691
701	-0.688
701	-0.694
702	-0.695
702	-0.68
702	-0.671
703	-0.667
703	-0.657
704	-0.653
704	-0.652
705	-0.664
705	-0.656
705	-0.645
706	-0.644
706	-0.638
707	-0.642
707	-0.636
708	-0.632
708	-0.625
709	-0.628
709	-0.629
709	-0.621
710	-0.627
710	-0.637
711	-0.628
711	-0.628
712	-0.629
712	-0.643
713	-0.641
713	-0.646
713	-0.636
714	-0.631
714	-0.632
715	-0.62
715	-0.605
716	-0.613
716	-0.615
716	-0.609
717	-0.609
717	-0.613
718	-0.607
718	-0.61
719	-0.618
719	-0.618
720	-0.614
720	-0.624
720	-0.614
721	-0.603
721	-0.602
722	-0.589
722	-0.579
723	-0.573
723	-0.577
723	-0.563
724	-0.566
724	-0.573
725	-0.572
725	-0.581
726	-0.593
726	-0.597
727	-0.605
727	-0.618
727	-0.627
728	-0.625
728	-0.63
729	-0.629
729	-0.631
730	-0.638
730	-0.63
730	-0.621
731	-0.604
731	-0.61
732	-0.617
732	-0.614
733	-0.612
733	-0.617
734	-0.609
734	-0.608
734	-0.593
735	-0.593
735	-0.594
736	-0.603
736	-0.591
737	-0.582
737	-0.587
737	-0.599
738	-0.594
738	-0.596
739	-0.593
739	-0.607
740	-0.607
740	-0.605
741	-0.601
741	-0.6
741	-0.601
742	-0.598
742	-0.595
743	-0.604
743	-0.608
744	-0.608
744	-0.595
744	-0.595
745	-0.603
745	-0.597
746	-0.596
746	-0.593
747	-0.593
747	-0.583
748	-0.569
748	-0.574
748	-0.573
749	-0.573
749	-0.573
750	-0.56
750	-0.56
751	-0.565
751	-0.576
751	-0.575
752	-0.578
752	-0.588
753	-0.584
753	-0.581
754	-0.587
754	-0.582
754	-0.598
755	-0.612
755	-0.623
756	-0.611
756	-0.612
757	-0.612
757	-0.609
758	-0.612
758	-0.611
758	-0.61
759	-0.618
759	-0.601
760	-0.596
760	-0.591
761	-0.602
761	-0.598
761	-0.596
762	-0.599
762	-0.598
763	-0.607
763	-0.604
764	-0.601
764	-0.608
764	-0.612
765	-0.603
765	-0.59
766	-0.597
766	-0.605
767	-0.619
767	-0.613
768	-0.604
768	-0.617
768	-0.622
769	-0.641
769	-0.642
770	-0.646
770	-0.659
771	-0.656
771	-0.656
771	-0.659
772	-0.661
772	-0.662
773	-0.661
773	-0.655
774	-0.651
774	-0.651
775	-0.654
775	-0.647
775	-0.654
776	-0.656
776	-0.647
777	-0.656
777	-0.673
778	-0.67
778	-0.689
778	-0.678
779	-0.698
779	-0.705
780	-0.72
780	-0.72
781	-0.729
781	-0.724
781	-0.738
782	-0.742
782	-0.743
783	-0.733
783	-0.733
784	-0.716
784	-0.707
784	-0.717
785	-0.725
785	-0.714
786	-0.721
786	-0.698
787	-0.68
787	-0.68
788	-0.685
788	-0.693
788	-0.701
789	-0.7
789	-0.68
790	-0.66
790	-0.66
791	-0.657
791	-0.673
791	-0.681
792	-0.673
792	-0.646
793	-0.635
793	-0.616
794	-0.62
794	-0.612
794	-0.621
795	-0.619
795	-0.612
796	-0.597
796	-0.603
797	-0.598
797	-0.61
797	-0.617
798	-0.629
798	-0.622
799	-0.629
799	-0.616
800	-0.62
800	-0.615
801	-0.622
801	-0.608
801	-0.618
802	-0.624
802	-0.622
803	-0.625
803	-0.634
804	-0.631
804	-0.641
804	-0.629
805	-0.634
805	-0.62
806	-0.624
806	-0.611
807	-0.611
807	-0.596
807	-0.584
808	-0.578
808	-0.575
809	-0.559
809	-0.569
810	-0.569
810	-0.565
810	-0.562
811	-0.569
811	-0.561
812	-0.56
812	-0.561
813	-0.566
813	-0.559
813	-0.564
814	-0.563
814	-0.564
815	-0.569
815	-0.57
816	-0.563
816	-0.566
817	-0.575
817	-0.596
817	-0.606
818	-0.618
818	-0.62
819	-0.614
819	-0.613
820	-0.622
820	-0.619
820	-0.628
821	-0.626
821	-0.615
822	-0.58
822	-0.558
823	-0.554
823	-0.556
823	-0.553
824	-0.549
824	-0.548
825	-0.543
825	-0.525
826	-0.52
826	-0.525
826	-0.538
827	-0.532
827	-0.529
828	-0.511
828	-0.512
829	-0.505
829	-0.493
829	-0.484
830	-0.493
830	-0.491
831	-0.487
831	-0.476
832	-0.478
832	-0.469
832	-0.475
833	-0.473
833	-0.474
834	-0.474
834	-0.483
835	-0.472
835	-0.469
835	-0.463
836	-0.462
836	-0.458
837	-0.457
837	-0.449
838	-0.44
838	-0.428
839	-0.416
839	-0.405
839	-0.395
840	-0.383
840	-0.381
841	-0.369
841	-0.361
842	-0.355
842	-0.346
842	-0.34
843	-0.334
843	-0.33
844	-0.322
844	-0.316
845	-0.309
845	-0.299
845	-0.287
846	-0.277
846	-0.266
847	-0.256
847	-0.246
848	-0.237
848	-0.229
848	-0.215
849	-0.207
849	-0.198
850	-0.187
850	-0.183
851	-0.176
851	-0.166
851	-0.16
852	-0.147
852	-0.138
853	-0.13
853	-0.126
854	-0.115
854	-0.106
854	-0.098
855	-0.088
855	-0.084
856	-0.076
856	-0.069
857	-0.063
857	-0.055
857	-0.046
858	-0.037
858	-0.034
859	-0.028
859	-0.02
860	-0.014
860	-0.004
860	0.001
861	0.006
861	0.011
862	0.016
862	0.02
863	0.025
863	0.032
863	0.035
864	0.037
864	0.041
865	0.045
865	0.048
866	0.051
866	0.053
866	0.055
867	0.057
867	0.059
868	0.061
868	0.064
869	0.066
869	0.068
869	0.069
870	0.071
870	0.073
871	0.075
871	0.077
872	0.078
872	0.079
872	0.08
873	0.08
873	0.08
874	0.079
874	0.079
875	0.078
875	0.077
875	0.076
876	0.075
876	0.074
877	0.072
877	0.071
878	0.069
878	0.067
878	0.065
879	0.064
879	0.062
880	0.061
880	0.061
881	0.06
881	0.06
881	0.06
882	0.06
882	0.06
883	0.06
883	0.059
884	0.059
884	0.059
884	0.059
885	0.059
885	0.058
886	0.058
886	0.058
887	0.058
887	0.058
887	0.058
888	0.059
888	0.058
889	0.059
889	0.06
890	0.06
890	0.06
890	0.061
891	0.061
891	0.061
892	0.061
892	0.061
893	0.06
893	0.06
893	0.06
894	0.059
894	0.059
895	0.058
895	0.058
895	0.058
896	0.057
896	0.057
897	0.056
897	0.055
898	0.055
898	0.054
898	0.054
899	0.054
899	0.054
900	0.054
900	0.054
901	0.055
901	0.055
901	0.055
902	0.055
902	0.056
903	0.056
903	0.056
904	0.056
904	0.056
904	0.057
905	0.058
905	0.058
906	0.058
906	0.057
907	0.057
907	0.056
907	0.056
908	0.055
908	0.055
909	0.054
909	0.053
910	0.053
910	0.052
910	0.052
911	0.052
911	0.052
912	0.052
912	0.052
913	0.053
913	0.053
913	0.054
914	0.054
914	0.055
915	0.055
915	0.056
916	0.057
916	0.057
916	0.057
917	0.057
917	0.057
918	0.057
918	0.057
918	0.056
919	0.056
919	0.055
920	0.055
920	0.055
921	0.054
921	0.054
921	0.053
922	0.053
922	0.053
923	0.053
923	0.053
924	0.053
924	0.053
924	0.053
925	0.052
925	0.052
926	0.052
926	0.052
927	0.052
927	0.051
927	0.051
928	0.051
928	0.051
929	0.05
929	0.05
930	0.05
930	0.05
930	0.05
931	0.05
931	0.051
932	0.051
932	0.051
933	0.051
933	0.05
933	0.05
934	0.049
934	0.048
935	0.048
935	0.047
935	0.046
936	0.045
936	0.044
937	0.043
937	0.043
938	0.043
938	0.043
938	0.042
939	0.043
939	0.043
940	0.043
940	0.043
941	0.043
941	0.043
941	0.044
942	0.044
942	0.044
943	0.044
943	0.044
944	0.043
944	0.043
944	0.042
945	0.042
945	0.041
946	0.041
946	0.039
946	0.039
947	0.039
947	0.039
948	0.039
948	0.039
949	0.039
949	0.04
949	0.04
950	0.04
950	0.04
951	0.042
951	0.042
952	0.043
952	0.043
952	0.044
953	0.044
953	0.045
954	0.046
954	0.047
955	0.047
955	0.049
955	0.049
956	0.05
956	0.051
957	0.05
957	0.05
957	0.05
958	0.05
958	0.051
959	0.051
959	0.051
960	0.051
960	0.05
960	0.05
961	0.05
961	0.051
962	0.051
962	0.052
963	0.052
963	0.052
963	0.052
964	0.052
964	0.052
965	0.052
965	0.052
966	0.052
966	0.052
966	0.052
967	0.052
967	0.051
968	0.051
968	0.051
968	0.051
969	0.051
969	0.051
970	0.051
970	0.051
971	0.051
971	0.051
971	0.05
972	0.05
972	0.05
973	0.05
973	0.049
974	0.049
974	0.048
974	0.048
975	0.047
975	0.046
976	0.046
976	0.045
976	0.045
977	0.044
977	0.044
978	0.044
978	0.044
979	0.044
979	0.043
979	0.043
980	0.043
980	0.043
981	0.043
981	0.043
982	0.042
982	0.042
982	0.041
983	0.04
983	0.04
984	0.04
984	0.039
984	0.04
985	0.04
985	0.04
986	0.041
986	0.041
987	0.042
987	0.042
987	0.043
988	0.043
988	0.043
989	0.043
989	0.043
990	0.042
990	0.042
990	0.041
991	0.041
991	0.041
992	0.04
992	0.04
992	0.04
993	0.04
993	0.04
994	0.04
994	0.04
995	0.04
995	0.04
995	0.04
996	0.041
996	0.04
997	0.04
997	0.04
997	0.04
998	0.04
998	0.04
999	0.04
999	0.04
1000	0.04
1000	0.039
1000	0.039
1001	0.039
1001	0.038
1002	0.038
1002	0.038
1003	0.037
1003	0.036
1003	0.035
1004	0.034
1004	0.033
1005	0.032
1005	0.03
1005	0.028
1006	0.027
1006	0.026
1007	0.025
1007	0.024
1008	0.024
1008	0.023
1008	0.023
1009	0.023
1009	0.023
1010	0.024
1010	0.024
1010	0.024
1011	0.024
1011	0.023
1012	0.023
1012	0.022
1013	0.021
1013	0.02
1013	0.018
1014	0.017
1014	0.016
1015	0.016
1015	0.015
1016	0.014
1016	0.013
1016	0.013
1017	0.012
1017	0.012
1018	0.012
1018	0.012
1018	0.011
1019	0.011
1019	0.01
1020	0.01
1020	0.009
1021	0.009
1021	0.008
1021	0.007
1022	0.006
1022	0.006
1023	0.006
1023	0.006
1023	0.006
1024	0.006
1024	0.006
1025	0.006
1025	0.006
1026	0.006
1026	0.007
1026	0.007
1027	0.007
1027	0.007
1028	0.007
1028	0.007
1028	0.006
1029	0.007
1029	0.006
1030	0.006
1030	0.006
1031	0.006
1031	0.006
1031	0.007
1032	0.007
1032	0.007
1033	0.008
1033	0.009
1033	0.009
1034	0.01
1034	0.011
1035	0.011
1035	0.011
1036	0.011
1036	0.011
1036	0.011
1037	0.011
1037	0.011
1038	0.01
1038	0.01
1039	0.01
1039	0.01
1039	0.01
1040	0.01
1040	0.01
1041	0.01
1041	0.011
1041	0.011
1042	0.011
1042	0.011
1043	0.011
1043	0.011
1044	0.011
1044	0.011
1044	0.011
1045	0.011
1045	0.011
1046	0.011
1046	0.012
1046	0.012
1047	0.012
1047	0.013
1048	0.014
1048	0.014
1049	0.015
1049	0.015
1049	0.016
1050	0.016
1050	0.016
1051	0.016
1051	0.016
1051	0.016
1052	0.016
1052	0.016
1053	0.016
1053	0.015
1053	0.015
1054	0.014
1054	0.014
1055	0.013
1055	0.012
1056	0.011
1056	0.011
1056	0.01
1057	0.009
1057	0.008
1058	0.007
1058	0.007
1058	0.007
1059	0.007
1059	0.006
1060	0.006
1060	0.006
1061	0.006
1061	0.006
1061	0.006
1062	0.006
1062	0.007
1063	0.007
1063	0.006
1063	0.006
1064	0.006
1064	0.006
1065	0.006
1065	0.005
1066	0.004
1066	0.004
1066	0.003
1067	0.003
1067	0.002
1068	0.001
1068	0
1068	-0
1069	-0
1069	-0.001
1070	-0.001
1070	-0.001
1071	-0.002
1071	-0.001
1071	-0.002
1072	-0.002
1072	-0.002
1073	-0.002
1073	-0.001
1073	-0.001
1074	-0.001
1074	-0.001
1075	-0.002
1075	-0.002
1076	-0.003
1076	-0.003
1076	-0.003
1077	-0.003
1077	-0.004
1078	-0.004
1078	-0.005
1078	-0.005
1079	-0.006
1079	-0.006
1080	-0.007
1080	-0.008
1080	-0.009
1081	-0.009
1081	-0.01
1082	-0.011
1082	-0.012
1083	-0.012
1083	-0.013
1083	-0.014
1084	-0.014
1084	-0.015
1085	-0.016
1085	-0.016
1085	-0.016
1086	-0.016
1086	-0.017
1087	-0.017
1087	-0.016
1088	-0.017
1088	-0.017
1088	-0.017
1089	-0.018
1089	-0.017
1090	-0.018
1090	-0.018
1090	-0.019
1091	-0.019
1091	-0.02
1092	-0.021
1092	-0.02
1092	-0.021
1093	-0.022
1093	-0.022
1094	-0.022
1094	-0.022
1095	-0.023
1095	-0.023
1095	-0.023
1096	-0.024
1096	-0.024
1097	-0.024
1097	-0.025
1097	-0.025
1098	-0.026
1098	-0.027
1099	-0.027
1099	-0.028
1100	-0.03
1100	-0.031
1100	-0.032
1101	-0.034
1101	-0.036
1102	-0.038
1102	-0.039
1102	-0.039
1103	-0.041
1103	-0.043
1104	-0.045
1104	-0.046
1104	-0.048
1105	-0.05
1105	-0.052
1106	-0.056
1106	-0.057
1107	-0.061
1107	-0.063
1107	-0.067
1108	-0.069
1108	-0.071
1109	-0.073
1109	-0.077
1109	-0.078
1110	-0.079
1110	-0.079
1111	-0.083
1111	-0.08
