Data from 17C_3.4A_30min_2sec_int_Absorbance__5__00726.txt Node

Date: Mon Jun 19 16:48:05 CEST 2023
User: Marek
Spectrometer: MAYP115816
Trigger mode: 0
Integration Time (sec): 2.500000E-1
Scans to average: 10
Electric dark correction enabled: true
Nonlinearity correction enabled: true
Boxcar width: 5
XAxis mode: Wavelengths
Number of Pixels in Spectrum: 2068
>>>>>Begin Spectral Data<<<<<
199	-0.618
199	-0.628
200	-0.53
200	-0.484
201	-0.448
201	-0.435
202	-0.418
202	-0.406
203	-0.399
203	-0.395
204	-0.384
204	-0.374
205	-0.351
205	-0.347
205	-0.345
206	-0.348
206	-0.35
207	-0.342
207	-0.344
208	-0.344
208	-0.344
209	-0.337
209	-0.337
210	-0.343
210	-0.349
211	-0.35
211	-0.351
212	-0.354
212	-0.361
213	-0.36
213	-0.361
213	-0.363
214	-0.36
214	-0.358
215	-0.358
215	-0.365
216	-0.368
216	-0.377
217	-0.373
217	-0.377
218	-0.38
218	-0.379
219	-0.382
219	-0.39
220	-0.395
220	-0.404
221	-0.4
221	-0.402
221	-0.395
222	-0.392
222	-0.394
223	-0.394
223	-0.4
224	-0.403
224	-0.404
225	-0.398
225	-0.389
226	-0.394
226	-0.395
227	-0.398
227	-0.404
228	-0.402
228	-0.404
229	-0.403
229	-0.397
229	-0.392
230	-0.397
230	-0.4
231	-0.394
231	-0.384
232	-0.377
232	-0.378
233	-0.373
233	-0.373
234	-0.373
234	-0.373
235	-0.377
235	-0.383
236	-0.383
236	-0.384
236	-0.39
237	-0.399
237	-0.399
238	-0.408
238	-0.405
239	-0.402
239	-0.408
240	-0.408
240	-0.403
241	-0.406
241	-0.406
242	-0.411
242	-0.405
243	-0.399
243	-0.4
243	-0.407
244	-0.409
244	-0.407
245	-0.42
245	-0.421
246	-0.426
246	-0.433
247	-0.436
247	-0.442
248	-0.449
248	-0.447
249	-0.451
249	-0.459
250	-0.46
250	-0.453
250	-0.455
251	-0.454
251	-0.454
252	-0.457
252	-0.447
253	-0.451
253	-0.464
254	-0.462
254	-0.461
255	-0.467
255	-0.46
256	-0.457
256	-0.465
257	-0.463
257	-0.459
258	-0.478
258	-0.474
258	-0.468
259	-0.463
259	-0.472
260	-0.471
260	-0.477
261	-0.488
261	-0.479
262	-0.473
262	-0.472
263	-0.456
263	-0.453
264	-0.455
264	-0.463
265	-0.457
265	-0.463
265	-0.467
266	-0.464
266	-0.465
267	-0.478
267	-0.486
268	-0.503
268	-0.511
269	-0.509
269	-0.505
270	-0.507
270	-0.511
271	-0.508
271	-0.512
272	-0.516
272	-0.51
272	-0.505
273	-0.5
273	-0.511
274	-0.513
274	-0.515
275	-0.517
275	-0.508
276	-0.514
276	-0.507
277	-0.51
277	-0.525
278	-0.538
278	-0.533
278	-0.525
279	-0.527
279	-0.539
280	-0.535
280	-0.537
281	-0.531
281	-0.536
282	-0.528
282	-0.529
283	-0.519
283	-0.521
284	-0.514
284	-0.504
285	-0.496
285	-0.492
285	-0.487
286	-0.494
286	-0.492
287	-0.49
287	-0.477
288	-0.47
288	-0.48
289	-0.493
289	-0.503
290	-0.495
290	-0.496
291	-0.492
291	-0.486
292	-0.489
292	-0.498
292	-0.502
293	-0.504
293	-0.49
294	-0.482
294	-0.474
295	-0.471
295	-0.468
296	-0.467
296	-0.465
297	-0.458
297	-0.442
298	-0.433
298	-0.442
298	-0.431
299	-0.423
299	-0.421
300	-0.416
300	-0.411
301	-0.406
301	-0.404
302	-0.411
302	-0.417
303	-0.403
303	-0.389
304	-0.393
304	-0.391
305	-0.393
305	-0.396
305	-0.392
306	-0.378
306	-0.376
307	-0.365
307	-0.366
308	-0.383
308	-0.378
309	-0.382
309	-0.373
310	-0.361
310	-0.358
311	-0.355
311	-0.365
311	-0.361
312	-0.356
312	-0.356
313	-0.34
313	-0.343
314	-0.34
314	-0.341
315	-0.34
315	-0.335
316	-0.33
316	-0.32
317	-0.312
317	-0.307
318	-0.295
318	-0.293
318	-0.29
319	-0.278
319	-0.276
320	-0.273
320	-0.276
321	-0.281
321	-0.282
322	-0.276
322	-0.272
323	-0.271
323	-0.267
324	-0.257
324	-0.25
324	-0.241
325	-0.23
325	-0.213
326	-0.198
326	-0.178
327	-0.163
327	-0.143
328	-0.119
328	-0.098
329	-0.077
329	-0.054
330	-0.027
330	0.004
330	0.03
331	0.056
331	0.081
332	0.104
332	0.124
333	0.147
333	0.169
334	0.19
334	0.207
335	0.224
335	0.236
336	0.248
336	0.262
336	0.272
337	0.284
337	0.292
338	0.3
338	0.304
339	0.31
339	0.316
340	0.32
340	0.324
341	0.327
341	0.33
342	0.333
342	0.335
342	0.339
343	0.34
343	0.343
344	0.345
344	0.346
345	0.347
345	0.348
346	0.349
346	0.349
347	0.35
347	0.35
348	0.35
348	0.351
348	0.351
349	0.351
349	0.351
350	0.351
350	0.351
351	0.351
351	0.351
352	0.351
352	0.351
353	0.351
353	0.351
354	0.351
354	0.35
354	0.35
355	0.35
355	0.35
356	0.35
356	0.35
357	0.349
357	0.349
358	0.349
358	0.349
359	0.349
359	0.349
360	0.348
360	0.348
360	0.348
361	0.347
361	0.347
362	0.347
362	0.347
363	0.347
363	0.347
364	0.346
364	0.346
365	0.346
365	0.346
366	0.346
366	0.346
366	0.345
367	0.346
367	0.345
368	0.345
368	0.345
369	0.345
369	0.345
370	0.344
370	0.344
371	0.344
371	0.344
372	0.344
372	0.343
372	0.343
373	0.343
373	0.343
374	0.342
374	0.342
375	0.342
375	0.342
376	0.342
376	0.342
377	0.342
377	0.341
378	0.341
378	0.341
378	0.341
379	0.341
379	0.34
380	0.34
380	0.34
381	0.34
381	0.339
382	0.339
382	0.339
383	0.338
383	0.338
383	0.338
384	0.338
384	0.337
385	0.337
385	0.337
386	0.337
386	0.337
387	0.336
387	0.336
388	0.336
388	0.336
389	0.336
389	0.335
389	0.335
390	0.335
390	0.335
391	0.335
391	0.335
392	0.335
392	0.334
393	0.334
393	0.334
394	0.333
394	0.333
394	0.333
395	0.333
395	0.332
396	0.332
396	0.331
397	0.331
397	0.331
398	0.331
398	0.331
399	0.33
399	0.33
400	0.33
400	0.329
400	0.329
401	0.329
401	0.329
402	0.328
402	0.328
403	0.328
403	0.327
404	0.327
404	0.327
405	0.327
405	0.327
405	0.326
406	0.326
406	0.326
407	0.326
407	0.325
408	0.325
408	0.325
409	0.325
409	0.325
410	0.324
410	0.324
411	0.324
411	0.324
411	0.324
412	0.324
412	0.323
413	0.323
413	0.323
414	0.323
414	0.322
415	0.322
415	0.321
416	0.321
416	0.321
416	0.321
417	0.32
417	0.32
418	0.32
418	0.32
419	0.32
419	0.32
420	0.32
420	0.32
421	0.32
421	0.32
421	0.32
422	0.319
422	0.319
423	0.32
423	0.319
424	0.319
424	0.319
425	0.319
425	0.318
426	0.318
426	0.318
427	0.318
427	0.318
427	0.317
428	0.317
428	0.317
429	0.317
429	0.316
430	0.316
430	0.316
431	0.316
431	0.316
432	0.315
432	0.315
432	0.315
433	0.315
433	0.314
434	0.314
434	0.314
435	0.314
435	0.314
436	0.314
436	0.314
437	0.314
437	0.314
437	0.314
438	0.314
438	0.314
439	0.314
439	0.314
440	0.313
440	0.313
441	0.313
441	0.313
442	0.312
442	0.312
442	0.312
443	0.312
443	0.312
444	0.311
444	0.311
445	0.311
445	0.311
446	0.311
446	0.311
447	0.311
447	0.311
447	0.311
448	0.311
448	0.311
449	0.311
449	0.311
450	0.312
450	0.312
451	0.312
451	0.312
452	0.312
452	0.312
452	0.312
453	0.312
453	0.312
454	0.312
454	0.311
455	0.311
455	0.311
456	0.311
456	0.311
457	0.311
457	0.311
458	0.311
458	0.311
458	0.311
459	0.311
459	0.311
460	0.311
460	0.311
461	0.311
461	0.311
462	0.311
462	0.312
463	0.312
463	0.312
463	0.313
464	0.313
464	0.313
465	0.313
465	0.314
466	0.314
466	0.315
467	0.315
467	0.315
467	0.315
468	0.316
468	0.316
469	0.316
469	0.317
470	0.318
470	0.318
471	0.318
471	0.318
472	0.318
472	0.318
472	0.319
473	0.319
473	0.32
474	0.32
474	0.32
475	0.321
475	0.321
476	0.322
476	0.322
477	0.323
477	0.323
477	0.324
478	0.325
478	0.326
479	0.326
479	0.327
480	0.328
480	0.328
481	0.329
481	0.33
482	0.331
482	0.332
482	0.333
483	0.334
483	0.335
484	0.336
484	0.336
485	0.337
485	0.338
486	0.338
486	0.339
487	0.34
487	0.341
487	0.342
488	0.343
488	0.344
489	0.346
489	0.348
490	0.35
490	0.352
491	0.353
491	0.355
492	0.357
492	0.358
492	0.36
493	0.362
493	0.364
494	0.365
494	0.367
495	0.369
495	0.371
496	0.373
496	0.375
496	0.377
497	0.379
497	0.38
498	0.382
498	0.384
499	0.386
499	0.388
500	0.391
500	0.393
501	0.395
501	0.397
501	0.399
502	0.4
502	0.402
503	0.405
503	0.407
504	0.409
504	0.412
505	0.414
505	0.416
506	0.419
506	0.422
506	0.424
507	0.427
507	0.43
508	0.432
508	0.435
509	0.437
509	0.44
510	0.443
510	0.446
511	0.448
511	0.451
511	0.453
512	0.456
512	0.459
513	0.461
513	0.463
514	0.466
514	0.468
515	0.471
515	0.473
515	0.475
516	0.477
516	0.48
517	0.482
517	0.485
518	0.487
518	0.489
519	0.492
519	0.494
520	0.497
520	0.499
520	0.502
521	0.504
521	0.506
522	0.508
522	0.51
523	0.512
523	0.514
524	0.516
524	0.518
524	0.519
525	0.521
525	0.522
526	0.524
526	0.525
527	0.526
527	0.528
528	0.529
528	0.531
529	0.532
529	0.533
529	0.535
530	0.536
530	0.536
531	0.537
531	0.538
532	0.539
532	0.54
533	0.541
533	0.542
533	0.543
534	0.544
534	0.545
535	0.546
535	0.547
536	0.547
536	0.548
537	0.549
537	0.549
538	0.55
538	0.55
538	0.55
539	0.551
539	0.551
540	0.551
540	0.551
541	0.551
541	0.55
542	0.55
542	0.55
542	0.55
543	0.549
543	0.549
544	0.548
544	0.548
545	0.548
545	0.548
546	0.549
546	0.548
547	0.548
547	0.547
547	0.547
548	0.547
548	0.546
549	0.546
549	0.545
550	0.544
550	0.544
551	0.543
551	0.543
551	0.542
552	0.542
552	0.541
553	0.541
553	0.541
554	0.54
554	0.539
555	0.538
555	0.537
556	0.535
556	0.534
556	0.534
557	0.533
557	0.531
558	0.53
558	0.529
559	0.527
559	0.526
560	0.525
560	0.524
560	0.524
561	0.523
561	0.522
562	0.52
562	0.519
563	0.518
563	0.517
564	0.516
564	0.515
564	0.514
565	0.513
565	0.512
566	0.51
566	0.509
567	0.507
567	0.505
568	0.503
568	0.502
568	0.5
569	0.499
569	0.497
570	0.495
570	0.493
571	0.492
571	0.49
572	0.488
572	0.487
573	0.485
573	0.483
573	0.481
574	0.48
574	0.478
575	0.477
575	0.476
576	0.475
576	0.473
577	0.472
577	0.471
577	0.47
578	0.469
578	0.468
579	0.467
579	0.466
580	0.463
580	0.461
581	0.459
581	0.457
581	0.456
582	0.454
582	0.453
583	0.451
583	0.449
584	0.446
584	0.444
585	0.442
585	0.441
585	0.439
586	0.437
586	0.436
587	0.434
587	0.433
588	0.431
588	0.429
589	0.428
589	0.426
590	0.424
590	0.422
590	0.421
591	0.418
591	0.416
592	0.413
592	0.411
593	0.41
593	0.408
594	0.406
594	0.404
594	0.403
595	0.401
595	0.399
596	0.397
596	0.397
597	0.395
597	0.393
598	0.391
598	0.39
598	0.388
599	0.386
599	0.384
600	0.382
600	0.38
601	0.379
601	0.377
602	0.374
602	0.372
602	0.37
603	0.369
603	0.367
604	0.366
604	0.364
605	0.363
605	0.362
606	0.36
606	0.358
606	0.356
607	0.354
607	0.353
608	0.351
608	0.348
609	0.347
609	0.345
610	0.344
610	0.342
610	0.34
611	0.339
611	0.338
612	0.337
612	0.335
613	0.333
613	0.331
614	0.329
614	0.327
614	0.325
615	0.322
615	0.32
616	0.318
616	0.316
617	0.314
617	0.311
618	0.309
618	0.307
618	0.305
619	0.304
619	0.303
620	0.301
620	0.3
621	0.298
621	0.296
622	0.294
622	0.292
622	0.29
623	0.288
623	0.286
624	0.284
624	0.282
625	0.28
625	0.278
626	0.275
626	0.273
626	0.271
627	0.268
627	0.266
628	0.263
628	0.26
629	0.257
629	0.254
630	0.25
630	0.247
630	0.243
631	0.24
631	0.236
632	0.231
632	0.227
633	0.222
633	0.218
634	0.213
634	0.208
634	0.203
635	0.197
635	0.191
636	0.185
636	0.179
637	0.173
637	0.166
638	0.159
638	0.152
638	0.145
639	0.137
639	0.129
640	0.121
640	0.114
641	0.106
641	0.099
642	0.091
642	0.084
642	0.076
643	0.068
643	0.06
644	0.051
644	0.043
645	0.034
645	0.025
646	0.017
646	0.008
646	-0.001
647	-0.009
647	-0.018
648	-0.027
648	-0.036
649	-0.045
649	-0.054
650	-0.062
650	-0.07
650	-0.08
651	-0.091
651	-0.105
652	-0.12
652	-0.137
653	-0.151
653	-0.163
653	-0.158
654	-0.131
654	-0.115
655	-0.116
655	-0.12
656	-0.124
656	-0.13
657	-0.132
657	-0.135
657	-0.139
658	-0.145
658	-0.175
659	-0.264
659	-0.372
660	-0.418
660	-0.446
661	-0.476
661	-0.511
661	-0.551
662	-0.592
662	-0.634
663	-0.681
663	-0.732
664	-0.785
664	-0.845
665	-0.905
665	-0.973
665	-1.036
666	-1.101
666	-1.17
667	-1.242
667	-1.314
668	-1.395
668	-1.478
669	-1.566
669	-1.66
669	-1.784
670	-2.008
670	-2.143
671	-2.219
671	-2.322
672	-2.464
672	-2.6
672	-2.693
673	-2.759
673	-2.783
674	-2.799
674	-2.805
675	-2.797
675	-2.885
676	-3.037
676	-2.975
676	-2.731
677	-2.495
677	-2.271
678	-1.941
678	-1.753
679	-1.634
679	-1.542
680	-1.467
680	-1.402
680	-1.345
681	-1.309
681	-1.255
682	-1.219
682	-1.184
683	-1.151
683	-1.134
684	-1.11
684	-1.089
684	-1.065
685	-1.039
685	-1.013
686	-0.986
686	-0.968
687	-0.94
687	-0.924
687	-0.902
688	-0.874
688	-0.853
689	-0.83
689	-0.816
690	-0.794
690	-0.778
691	-0.77
691	-0.773
691	-0.788
692	-0.779
692	-0.767
693	-0.761
693	-0.765
694	-0.759
694	-0.748
695	-0.75
695	-0.748
695	-0.73
696	-0.723
696	-0.697
697	-0.694
697	-0.706
698	-0.707
698	-0.696
698	-0.706
699	-0.708
699	-0.705
700	-0.695
700	-0.708
701	-0.707
701	-0.713
702	-0.714
702	-0.704
702	-0.695
703	-0.687
703	-0.679
704	-0.676
704	-0.674
705	-0.686
705	-0.68
705	-0.668
706	-0.667
706	-0.661
707	-0.663
707	-0.658
708	-0.657
708	-0.649
709	-0.648
709	-0.648
709	-0.638
710	-0.644
710	-0.652
711	-0.644
711	-0.645
712	-0.645
712	-0.656
713	-0.651
713	-0.658
713	-0.648
714	-0.646
714	-0.647
715	-0.638
715	-0.626
716	-0.632
716	-0.634
716	-0.623
717	-0.624
717	-0.628
718	-0.617
718	-0.619
719	-0.624
719	-0.624
720	-0.617
720	-0.626
720	-0.619
721	-0.606
721	-0.609
722	-0.596
722	-0.585
723	-0.582
723	-0.585
723	-0.575
724	-0.577
724	-0.58
725	-0.577
725	-0.585
726	-0.601
726	-0.603
727	-0.607
727	-0.62
727	-0.626
728	-0.626
728	-0.63
729	-0.628
729	-0.633
730	-0.641
730	-0.632
730	-0.619
731	-0.606
731	-0.616
732	-0.622
732	-0.623
733	-0.619
733	-0.624
734	-0.618
734	-0.617
734	-0.604
735	-0.604
735	-0.605
736	-0.613
736	-0.602
737	-0.593
737	-0.595
737	-0.606
738	-0.602
738	-0.603
739	-0.603
739	-0.617
740	-0.614
740	-0.617
741	-0.612
741	-0.607
741	-0.612
742	-0.61
742	-0.61
743	-0.617
743	-0.622
744	-0.615
744	-0.603
744	-0.607
745	-0.607
745	-0.601
746	-0.603
746	-0.601
747	-0.601
747	-0.59
748	-0.578
748	-0.584
748	-0.587
749	-0.584
749	-0.584
750	-0.576
750	-0.577
751	-0.58
751	-0.589
751	-0.592
752	-0.595
752	-0.604
753	-0.597
753	-0.594
754	-0.6
754	-0.593
754	-0.608
755	-0.628
755	-0.64
756	-0.628
756	-0.624
757	-0.624
757	-0.619
758	-0.622
758	-0.619
758	-0.622
759	-0.628
759	-0.608
760	-0.596
760	-0.59
761	-0.6
761	-0.596
761	-0.595
762	-0.601
762	-0.6
763	-0.608
763	-0.603
764	-0.603
764	-0.613
764	-0.621
765	-0.61
765	-0.598
766	-0.608
766	-0.614
767	-0.63
767	-0.623
768	-0.614
768	-0.625
768	-0.629
769	-0.647
769	-0.645
770	-0.651
770	-0.662
771	-0.659
771	-0.659
771	-0.658
772	-0.661
772	-0.662
773	-0.663
773	-0.658
774	-0.656
774	-0.658
775	-0.659
775	-0.656
775	-0.662
776	-0.664
776	-0.654
777	-0.662
777	-0.683
778	-0.68
778	-0.7
778	-0.686
779	-0.706
779	-0.714
780	-0.727
780	-0.727
781	-0.737
781	-0.733
781	-0.75
782	-0.75
782	-0.752
783	-0.741
783	-0.743
784	-0.725
784	-0.722
784	-0.732
785	-0.742
785	-0.73
786	-0.738
786	-0.714
787	-0.697
787	-0.698
788	-0.697
788	-0.702
788	-0.71
789	-0.705
789	-0.684
790	-0.661
790	-0.661
791	-0.656
791	-0.674
791	-0.679
792	-0.673
792	-0.649
793	-0.643
793	-0.619
794	-0.623
794	-0.617
794	-0.625
795	-0.621
795	-0.617
796	-0.603
796	-0.611
797	-0.603
797	-0.616
797	-0.619
798	-0.633
798	-0.624
799	-0.633
799	-0.62
800	-0.626
800	-0.619
801	-0.621
801	-0.608
801	-0.619
802	-0.623
802	-0.625
803	-0.629
803	-0.64
804	-0.638
804	-0.648
804	-0.636
805	-0.641
805	-0.632
806	-0.634
806	-0.618
807	-0.622
807	-0.602
807	-0.59
808	-0.584
808	-0.574
809	-0.558
809	-0.567
810	-0.564
810	-0.556
810	-0.552
811	-0.561
811	-0.552
812	-0.555
812	-0.559
813	-0.56
813	-0.556
813	-0.563
814	-0.566
814	-0.571
815	-0.577
815	-0.58
816	-0.57
816	-0.576
817	-0.581
817	-0.597
817	-0.613
818	-0.623
818	-0.624
819	-0.615
819	-0.615
820	-0.625
820	-0.62
820	-0.629
821	-0.626
821	-0.618
822	-0.588
822	-0.562
823	-0.561
823	-0.565
823	-0.563
824	-0.557
824	-0.557
825	-0.551
825	-0.536
826	-0.53
826	-0.536
826	-0.544
827	-0.541
827	-0.535
828	-0.517
828	-0.515
829	-0.509
829	-0.496
829	-0.49
830	-0.499
830	-0.497
831	-0.49
831	-0.48
832	-0.478
832	-0.471
832	-0.478
833	-0.472
833	-0.472
834	-0.47
834	-0.476
835	-0.464
835	-0.461
835	-0.457
836	-0.457
836	-0.456
837	-0.455
837	-0.445
838	-0.438
838	-0.428
839	-0.415
839	-0.405
839	-0.394
840	-0.385
840	-0.382
841	-0.371
841	-0.361
842	-0.354
842	-0.348
842	-0.344
843	-0.339
843	-0.336
844	-0.327
844	-0.322
845	-0.314
845	-0.304
845	-0.293
846	-0.285
846	-0.274
847	-0.261
847	-0.253
848	-0.243
848	-0.234
848	-0.222
849	-0.215
849	-0.206
850	-0.195
850	-0.191
851	-0.185
851	-0.176
851	-0.17
852	-0.157
852	-0.146
853	-0.139
853	-0.135
854	-0.126
854	-0.117
854	-0.108
855	-0.099
855	-0.093
856	-0.085
856	-0.079
857	-0.074
857	-0.068
857	-0.06
858	-0.051
858	-0.047
859	-0.041
859	-0.034
860	-0.027
860	-0.018
860	-0.014
861	-0.008
861	-0.004
862	0.001
862	0.006
863	0.01
863	0.017
863	0.02
864	0.023
864	0.026
865	0.029
865	0.032
866	0.034
866	0.036
866	0.038
867	0.04
867	0.042
868	0.043
868	0.046
869	0.048
869	0.05
869	0.051
870	0.053
870	0.056
871	0.058
871	0.06
872	0.061
872	0.062
872	0.062
873	0.063
873	0.063
874	0.063
874	0.062
875	0.062
875	0.061
875	0.059
876	0.058
876	0.057
877	0.056
877	0.054
878	0.053
878	0.051
878	0.049
879	0.047
879	0.046
880	0.045
880	0.045
881	0.044
881	0.044
881	0.044
882	0.044
882	0.044
883	0.043
883	0.043
884	0.043
884	0.043
884	0.043
885	0.043
885	0.043
886	0.043
886	0.043
887	0.043
887	0.043
887	0.043
888	0.043
888	0.043
889	0.044
889	0.044
890	0.044
890	0.044
890	0.044
891	0.044
891	0.044
892	0.045
892	0.045
893	0.045
893	0.045
893	0.044
894	0.044
894	0.044
895	0.043
895	0.043
895	0.043
896	0.042
896	0.041
897	0.04
897	0.04
898	0.039
898	0.039
898	0.039
899	0.039
899	0.039
900	0.039
900	0.039
901	0.039
901	0.039
901	0.039
902	0.04
902	0.04
903	0.04
903	0.04
904	0.04
904	0.041
904	0.042
905	0.042
905	0.042
906	0.042
906	0.042
907	0.042
907	0.041
907	0.041
908	0.041
908	0.04
909	0.039
909	0.039
910	0.038
910	0.038
910	0.037
911	0.037
911	0.037
912	0.038
912	0.038
913	0.038
913	0.038
913	0.039
914	0.039
914	0.04
915	0.04
915	0.041
916	0.042
916	0.042
916	0.042
917	0.043
917	0.043
918	0.042
918	0.042
918	0.041
919	0.041
919	0.04
920	0.04
920	0.04
921	0.039
921	0.039
921	0.038
922	0.038
922	0.038
923	0.038
923	0.038
924	0.038
924	0.038
924	0.038
925	0.038
925	0.037
926	0.037
926	0.037
927	0.037
927	0.037
927	0.037
928	0.037
928	0.036
929	0.036
929	0.036
930	0.036
930	0.036
930	0.036
931	0.037
931	0.037
932	0.037
932	0.037
933	0.037
933	0.036
933	0.035
934	0.035
934	0.034
935	0.033
935	0.032
935	0.031
936	0.03
936	0.029
937	0.028
937	0.028
938	0.028
938	0.028
938	0.028
939	0.028
939	0.028
940	0.029
940	0.029
941	0.03
941	0.03
941	0.031
942	0.031
942	0.031
943	0.031
943	0.03
944	0.03
944	0.029
944	0.029
945	0.029
945	0.028
946	0.027
946	0.026
946	0.025
947	0.025
947	0.025
948	0.025
948	0.025
949	0.025
949	0.025
949	0.025
950	0.025
950	0.025
951	0.026
951	0.026
952	0.027
952	0.028
952	0.028
953	0.029
953	0.03
954	0.03
954	0.031
955	0.032
955	0.033
955	0.034
956	0.035
956	0.035
957	0.035
957	0.035
957	0.035
958	0.035
958	0.035
959	0.035
959	0.035
960	0.035
960	0.035
960	0.035
961	0.035
961	0.036
962	0.036
962	0.036
963	0.036
963	0.036
963	0.036
964	0.036
964	0.037
965	0.037
965	0.037
966	0.037
966	0.037
966	0.037
967	0.037
967	0.037
968	0.036
968	0.036
968	0.036
969	0.036
969	0.036
970	0.036
970	0.036
971	0.036
971	0.036
971	0.036
972	0.036
972	0.035
973	0.035
973	0.035
974	0.034
974	0.034
974	0.033
975	0.033
975	0.032
976	0.031
976	0.031
976	0.031
977	0.031
977	0.03
978	0.03
978	0.03
979	0.03
979	0.03
979	0.03
980	0.03
980	0.029
981	0.029
981	0.029
982	0.029
982	0.028
982	0.028
983	0.027
983	0.027
984	0.026
984	0.026
984	0.027
985	0.027
985	0.027
986	0.027
986	0.028
987	0.029
987	0.029
987	0.03
988	0.03
988	0.03
989	0.03
989	0.03
990	0.029
990	0.029
990	0.028
991	0.028
991	0.028
992	0.028
992	0.027
992	0.027
993	0.027
993	0.028
994	0.028
994	0.028
995	0.028
995	0.028
995	0.028
996	0.028
996	0.028
997	0.028
997	0.028
997	0.028
998	0.028
998	0.028
999	0.028
999	0.028
1000	0.028
1000	0.028
1000	0.027
1001	0.027
1001	0.027
1002	0.026
1002	0.026
1003	0.025
1003	0.025
1003	0.024
1004	0.022
1004	0.021
1005	0.02
1005	0.018
1005	0.017
1006	0.015
1006	0.014
1007	0.013
1007	0.012
1008	0.012
1008	0.011
1008	0.011
1009	0.012
1009	0.012
1010	0.012
1010	0.012
1010	0.013
1011	0.013
1011	0.012
1012	0.012
1012	0.011
1013	0.01
1013	0.009
1013	0.008
1014	0.007
1014	0.005
1015	0.004
1015	0.004
1016	0.003
1016	0.002
1016	0.002
1017	0.001
1017	0.001
1018	0.001
1018	0
1018	0
1019	0
1019	-0
1020	-0.001
1020	-0.001
1021	-0.002
1021	-0.003
1021	-0.004
1022	-0.004
1022	-0.005
1023	-0.005
1023	-0.005
1023	-0.005
1024	-0.005
1024	-0.005
1025	-0.005
1025	-0.005
1026	-0.004
1026	-0.004
1026	-0.004
1027	-0.004
1027	-0.003
1028	-0.003
1028	-0.003
1028	-0.004
1029	-0.004
1029	-0.004
1030	-0.004
1030	-0.004
1031	-0.004
1031	-0.004
1031	-0.003
1032	-0.003
1032	-0.002
1033	-0.002
1033	-0.001
1033	-0
1034	0
1034	0.001
1035	0.001
1035	0.001
1036	0.001
1036	0.001
1036	0.001
1037	0
1037	0
1038	0
1038	-0
1039	-0
1039	-0
1039	-0
1040	-0
1040	0
1041	0
1041	0.001
1041	0.001
1042	0.001
1042	0.001
1043	0.002
1043	0.002
1044	0.002
1044	0.002
1044	0.002
1045	0.002
1045	0.002
1046	0.002
1046	0.002
1046	0.002
1047	0.003
1047	0.003
1048	0.004
1048	0.004
1049	0.005
1049	0.005
1049	0.005
1050	0.005
1050	0.006
1051	0.006
1051	0.006
1051	0.006
1052	0.006
1052	0.006
1053	0.005
1053	0.005
1053	0.005
1054	0.004
1054	0.003
1055	0.003
1055	0.002
1056	0.002
1056	0.001
1056	0
1057	-0.001
1057	-0.001
1058	-0.002
1058	-0.002
1058	-0.003
1059	-0.003
1059	-0.004
1060	-0.004
1060	-0.004
1061	-0.004
1061	-0.004
1061	-0.004
1062	-0.004
1062	-0.004
1063	-0.004
1063	-0.004
1063	-0.004
1064	-0.004
1064	-0.004
1065	-0.004
1065	-0.005
1066	-0.005
1066	-0.006
1066	-0.006
1067	-0.007
1067	-0.007
1068	-0.008
1068	-0.008
1068	-0.009
1069	-0.009
1069	-0.01
1070	-0.01
1070	-0.01
1071	-0.011
1071	-0.01
1071	-0.011
1072	-0.011
1072	-0.011
1073	-0.011
1073	-0.012
1073	-0.012
1074	-0.011
1074	-0.011
1075	-0.012
1075	-0.012
1076	-0.013
1076	-0.013
1076	-0.013
1077	-0.013
1077	-0.013
1078	-0.014
1078	-0.014
1078	-0.015
1079	-0.016
1079	-0.016
1080	-0.017
1080	-0.017
1080	-0.018
1081	-0.018
1081	-0.019
1082	-0.02
1082	-0.021
1083	-0.021
1083	-0.022
1083	-0.022
1084	-0.023
1084	-0.023
1085	-0.024
1085	-0.025
1085	-0.024
1086	-0.025
1086	-0.026
1087	-0.025
1087	-0.025
1088	-0.026
1088	-0.026
1088	-0.027
1089	-0.027
1089	-0.027
1090	-0.028
1090	-0.028
1090	-0.028
1091	-0.029
1091	-0.029
1092	-0.03
1092	-0.029
1092	-0.03
1093	-0.031
1093	-0.031
1094	-0.031
1094	-0.031
1095	-0.032
1095	-0.032
1095	-0.032
1096	-0.033
1096	-0.033
1097	-0.034
1097	-0.034
1097	-0.034
1098	-0.035
1098	-0.036
1099	-0.036
1099	-0.036
1100	-0.038
1100	-0.039
1100	-0.041
1101	-0.042
1101	-0.044
1102	-0.046
1102	-0.047
1102	-0.048
1103	-0.049
1103	-0.051
1104	-0.054
1104	-0.055
1104	-0.057
1105	-0.059
1105	-0.062
1106	-0.065
1106	-0.066
1107	-0.069
1107	-0.073
1107	-0.077
1108	-0.079
1108	-0.08
1109	-0.082
1109	-0.086
1109	-0.087
1110	-0.087
1110	-0.089
1111	-0.094
1111	-0.096
