Data from 17C_3.4A_30min_2sec_int_Absorbance__472__01193.txt Node

Date: Mon Jun 19 17:07:32 CEST 2023
User: Marek
Spectrometer: MAYP115816
Trigger mode: 0
Integration Time (sec): 2.500000E-1
Scans to average: 10
Electric dark correction enabled: true
Nonlinearity correction enabled: true
Boxcar width: 5
XAxis mode: Wavelengths
Number of Pixels in Spectrum: 2068
>>>>>Begin Spectral Data<<<<<
199	-0.659
199	-0.681
200	-0.587
200	-0.534
201	-0.494
201	-0.478
202	-0.461
202	-0.449
203	-0.44
203	-0.438
204	-0.426
204	-0.412
205	-0.387
205	-0.379
205	-0.377
206	-0.382
206	-0.384
207	-0.377
207	-0.382
208	-0.384
208	-0.384
209	-0.379
209	-0.383
210	-0.388
210	-0.395
211	-0.397
211	-0.397
212	-0.402
212	-0.409
213	-0.406
213	-0.405
213	-0.407
214	-0.404
214	-0.401
215	-0.4
215	-0.404
216	-0.408
216	-0.416
217	-0.41
217	-0.414
218	-0.416
218	-0.419
219	-0.422
219	-0.433
220	-0.436
220	-0.445
221	-0.446
221	-0.448
221	-0.44
222	-0.438
222	-0.439
223	-0.44
223	-0.442
224	-0.444
224	-0.445
225	-0.441
225	-0.435
226	-0.439
226	-0.44
227	-0.444
227	-0.453
228	-0.453
228	-0.456
229	-0.459
229	-0.453
229	-0.447
230	-0.452
230	-0.456
231	-0.449
231	-0.442
232	-0.438
232	-0.437
233	-0.43
233	-0.43
234	-0.428
234	-0.426
235	-0.43
235	-0.435
236	-0.433
236	-0.438
236	-0.443
237	-0.448
237	-0.449
238	-0.459
238	-0.457
239	-0.455
239	-0.461
240	-0.462
240	-0.46
241	-0.466
241	-0.463
242	-0.47
242	-0.467
243	-0.463
243	-0.461
243	-0.47
244	-0.471
244	-0.471
245	-0.482
245	-0.482
246	-0.487
246	-0.493
247	-0.493
247	-0.498
248	-0.504
248	-0.502
249	-0.503
249	-0.512
250	-0.51
250	-0.506
250	-0.506
251	-0.502
251	-0.503
252	-0.503
252	-0.494
253	-0.501
253	-0.512
254	-0.509
254	-0.507
255	-0.515
255	-0.51
256	-0.506
256	-0.518
257	-0.514
257	-0.511
258	-0.526
258	-0.52
258	-0.517
259	-0.515
259	-0.525
260	-0.525
260	-0.53
261	-0.543
261	-0.533
262	-0.529
262	-0.534
263	-0.521
263	-0.519
264	-0.518
264	-0.526
265	-0.519
265	-0.528
265	-0.53
266	-0.525
266	-0.525
267	-0.539
267	-0.546
268	-0.564
268	-0.573
269	-0.57
269	-0.565
270	-0.571
270	-0.574
271	-0.573
271	-0.579
272	-0.583
272	-0.574
272	-0.567
273	-0.562
273	-0.569
274	-0.575
274	-0.578
275	-0.578
275	-0.569
276	-0.576
276	-0.568
277	-0.573
277	-0.594
278	-0.604
278	-0.6
278	-0.592
279	-0.593
279	-0.603
280	-0.601
280	-0.601
281	-0.596
281	-0.605
282	-0.597
282	-0.596
283	-0.588
283	-0.59
284	-0.589
284	-0.579
285	-0.575
285	-0.572
285	-0.569
286	-0.576
286	-0.569
287	-0.567
287	-0.55
288	-0.543
288	-0.551
289	-0.562
289	-0.57
290	-0.561
290	-0.558
291	-0.557
291	-0.55
292	-0.552
292	-0.559
292	-0.564
293	-0.568
293	-0.558
294	-0.548
294	-0.54
295	-0.535
295	-0.535
296	-0.533
296	-0.53
297	-0.524
297	-0.507
298	-0.5
298	-0.507
298	-0.496
299	-0.488
299	-0.487
300	-0.485
300	-0.479
301	-0.474
301	-0.473
302	-0.482
302	-0.493
303	-0.48
303	-0.468
304	-0.47
304	-0.471
305	-0.473
305	-0.473
305	-0.47
306	-0.456
306	-0.45
307	-0.44
307	-0.438
308	-0.452
308	-0.449
309	-0.449
309	-0.439
310	-0.427
310	-0.426
311	-0.419
311	-0.427
311	-0.424
312	-0.416
312	-0.415
313	-0.402
313	-0.403
314	-0.401
314	-0.403
315	-0.405
315	-0.401
316	-0.398
316	-0.39
317	-0.384
317	-0.381
318	-0.372
318	-0.37
318	-0.366
319	-0.355
319	-0.351
320	-0.344
320	-0.345
321	-0.348
321	-0.346
322	-0.342
322	-0.336
323	-0.335
323	-0.331
324	-0.325
324	-0.318
324	-0.308
325	-0.299
325	-0.284
326	-0.27
326	-0.253
327	-0.238
327	-0.221
328	-0.196
328	-0.175
329	-0.154
329	-0.132
330	-0.106
330	-0.077
330	-0.053
331	-0.028
331	-0.004
332	0.02
332	0.039
333	0.059
333	0.079
334	0.098
334	0.112
335	0.127
335	0.14
336	0.152
336	0.163
336	0.171
337	0.18
337	0.188
338	0.195
338	0.199
339	0.205
339	0.21
340	0.214
340	0.217
341	0.22
341	0.223
342	0.226
342	0.229
342	0.232
343	0.234
343	0.236
344	0.237
344	0.238
345	0.239
345	0.24
346	0.241
346	0.241
347	0.242
347	0.242
348	0.242
348	0.243
348	0.243
349	0.243
349	0.243
350	0.244
350	0.244
351	0.244
351	0.244
352	0.244
352	0.244
353	0.244
353	0.244
354	0.243
354	0.243
354	0.243
355	0.243
355	0.243
356	0.243
356	0.243
357	0.242
357	0.241
358	0.241
358	0.241
359	0.241
359	0.241
360	0.24
360	0.24
360	0.24
361	0.24
361	0.24
362	0.24
362	0.24
363	0.24
363	0.24
364	0.24
364	0.24
365	0.24
365	0.24
366	0.24
366	0.24
366	0.24
367	0.24
367	0.24
368	0.24
368	0.239
369	0.239
369	0.239
370	0.239
370	0.239
371	0.238
371	0.238
372	0.238
372	0.238
372	0.238
373	0.238
373	0.238
374	0.238
374	0.238
375	0.238
375	0.238
376	0.238
376	0.238
377	0.237
377	0.237
378	0.237
378	0.237
378	0.237
379	0.237
379	0.237
380	0.237
380	0.236
381	0.236
381	0.236
382	0.236
382	0.236
383	0.235
383	0.235
383	0.235
384	0.235
384	0.235
385	0.234
385	0.235
386	0.234
386	0.234
387	0.234
387	0.234
388	0.234
388	0.234
389	0.234
389	0.234
389	0.234
390	0.234
390	0.234
391	0.234
391	0.234
392	0.234
392	0.234
393	0.234
393	0.233
394	0.233
394	0.233
394	0.233
395	0.232
395	0.232
396	0.232
396	0.232
397	0.232
397	0.232
398	0.232
398	0.232
399	0.232
399	0.232
400	0.232
400	0.232
400	0.231
401	0.231
401	0.231
402	0.231
402	0.231
403	0.23
403	0.23
404	0.23
404	0.23
405	0.23
405	0.23
405	0.23
406	0.23
406	0.23
407	0.229
407	0.229
408	0.229
408	0.229
409	0.229
409	0.229
410	0.229
410	0.229
411	0.229
411	0.229
411	0.229
412	0.229
412	0.229
413	0.229
413	0.229
414	0.228
414	0.228
415	0.228
415	0.228
416	0.228
416	0.228
416	0.227
417	0.227
417	0.227
418	0.227
418	0.227
419	0.227
419	0.227
420	0.227
420	0.227
421	0.227
421	0.227
421	0.227
422	0.227
422	0.227
423	0.227
423	0.227
424	0.227
424	0.227
425	0.226
425	0.226
426	0.226
426	0.225
427	0.225
427	0.225
427	0.225
428	0.225
428	0.225
429	0.225
429	0.225
430	0.225
430	0.225
431	0.225
431	0.224
432	0.224
432	0.224
432	0.224
433	0.224
433	0.224
434	0.223
434	0.223
435	0.223
435	0.223
436	0.223
436	0.223
437	0.223
437	0.223
437	0.223
438	0.223
438	0.223
439	0.223
439	0.223
440	0.223
440	0.223
441	0.222
441	0.222
442	0.222
442	0.222
442	0.222
443	0.222
443	0.222
444	0.222
444	0.222
445	0.222
445	0.222
446	0.223
446	0.223
447	0.223
447	0.223
447	0.223
448	0.223
448	0.223
449	0.223
449	0.223
450	0.223
450	0.223
451	0.223
451	0.223
452	0.223
452	0.223
452	0.223
453	0.223
453	0.223
454	0.222
454	0.222
455	0.222
455	0.222
456	0.222
456	0.223
457	0.222
457	0.222
458	0.222
458	0.222
458	0.222
459	0.223
459	0.222
460	0.222
460	0.222
461	0.222
461	0.222
462	0.222
462	0.222
463	0.223
463	0.223
463	0.223
464	0.223
464	0.222
465	0.222
465	0.223
466	0.223
466	0.223
467	0.224
467	0.224
467	0.224
468	0.224
468	0.224
469	0.224
469	0.225
470	0.225
470	0.225
471	0.225
471	0.225
472	0.226
472	0.226
472	0.226
473	0.226
473	0.227
474	0.227
474	0.227
475	0.228
475	0.228
476	0.228
476	0.228
477	0.228
477	0.229
477	0.229
478	0.23
478	0.23
479	0.23
479	0.23
480	0.23
480	0.231
481	0.232
481	0.232
482	0.233
482	0.233
482	0.234
483	0.234
483	0.235
484	0.235
484	0.235
485	0.236
485	0.236
486	0.237
486	0.238
487	0.238
487	0.239
487	0.24
488	0.24
488	0.241
489	0.242
489	0.244
490	0.245
490	0.246
491	0.247
491	0.248
492	0.249
492	0.249
492	0.25
493	0.251
493	0.252
494	0.253
494	0.254
495	0.255
495	0.256
496	0.257
496	0.258
496	0.259
497	0.261
497	0.262
498	0.263
498	0.265
499	0.266
499	0.267
500	0.269
500	0.27
501	0.271
501	0.272
501	0.273
502	0.274
502	0.275
503	0.276
503	0.277
504	0.279
504	0.28
505	0.281
505	0.283
506	0.284
506	0.285
506	0.287
507	0.288
507	0.29
508	0.291
508	0.293
509	0.294
509	0.296
510	0.297
510	0.299
511	0.3
511	0.302
511	0.303
512	0.304
512	0.306
513	0.307
513	0.308
514	0.309
514	0.31
515	0.311
515	0.312
515	0.314
516	0.315
516	0.317
517	0.318
517	0.319
518	0.32
518	0.322
519	0.323
519	0.324
520	0.325
520	0.327
520	0.328
521	0.329
521	0.331
522	0.332
522	0.333
523	0.334
523	0.335
524	0.336
524	0.336
524	0.337
525	0.337
525	0.337
526	0.338
526	0.339
527	0.339
527	0.34
528	0.34
528	0.341
529	0.342
529	0.342
529	0.343
530	0.344
530	0.344
531	0.345
531	0.345
532	0.345
532	0.346
533	0.346
533	0.346
533	0.346
534	0.346
534	0.346
535	0.345
535	0.345
536	0.345
536	0.344
537	0.344
537	0.344
538	0.344
538	0.343
538	0.343
539	0.343
539	0.343
540	0.343
540	0.342
541	0.341
541	0.341
542	0.34
542	0.34
542	0.339
543	0.338
543	0.338
544	0.337
544	0.336
545	0.336
545	0.336
546	0.336
546	0.335
547	0.334
547	0.333
547	0.333
548	0.333
548	0.332
549	0.331
549	0.33
550	0.33
550	0.329
551	0.328
551	0.328
551	0.328
552	0.329
552	0.328
553	0.328
553	0.328
554	0.328
554	0.327
555	0.327
555	0.326
556	0.325
556	0.324
556	0.324
557	0.322
557	0.321
558	0.32
558	0.319
559	0.318
559	0.318
560	0.317
560	0.316
560	0.315
561	0.315
561	0.314
562	0.313
562	0.312
563	0.311
563	0.31
564	0.31
564	0.309
564	0.309
565	0.309
565	0.308
566	0.307
566	0.307
567	0.306
567	0.305
568	0.304
568	0.303
568	0.303
569	0.302
569	0.301
570	0.299
570	0.298
571	0.298
571	0.297
572	0.296
572	0.296
573	0.295
573	0.294
573	0.294
574	0.293
574	0.293
575	0.292
575	0.293
576	0.292
576	0.291
577	0.29
577	0.29
577	0.29
578	0.29
578	0.29
579	0.29
579	0.29
580	0.289
580	0.288
581	0.287
581	0.287
581	0.287
582	0.287
582	0.286
583	0.286
583	0.285
584	0.284
584	0.283
585	0.284
585	0.284
585	0.284
586	0.284
586	0.284
587	0.283
587	0.283
588	0.282
588	0.282
589	0.282
589	0.282
590	0.282
590	0.282
590	0.282
591	0.282
591	0.281
592	0.281
592	0.28
593	0.28
593	0.28
594	0.28
594	0.28
594	0.279
595	0.28
595	0.279
596	0.279
596	0.28
597	0.281
597	0.28
598	0.28
598	0.28
598	0.279
599	0.279
599	0.278
600	0.277
600	0.277
601	0.276
601	0.276
602	0.275
602	0.275
602	0.275
603	0.276
603	0.277
604	0.277
604	0.277
605	0.278
605	0.278
606	0.278
606	0.277
606	0.277
607	0.276
607	0.276
608	0.275
608	0.274
609	0.273
609	0.273
610	0.273
610	0.272
610	0.272
611	0.273
611	0.273
612	0.273
612	0.274
613	0.274
613	0.274
614	0.273
614	0.272
614	0.271
615	0.271
615	0.27
616	0.27
616	0.269
617	0.268
617	0.267
618	0.267
618	0.266
618	0.266
619	0.266
619	0.266
620	0.266
620	0.266
621	0.265
621	0.265
622	0.264
622	0.264
622	0.263
623	0.263
623	0.263
624	0.262
624	0.261
625	0.261
625	0.261
626	0.26
626	0.259
626	0.259
627	0.258
627	0.257
628	0.256
628	0.255
629	0.254
629	0.253
630	0.251
630	0.249
630	0.248
631	0.246
631	0.244
632	0.242
632	0.24
633	0.238
633	0.235
634	0.233
634	0.231
634	0.228
635	0.225
635	0.222
636	0.219
636	0.216
637	0.213
637	0.209
638	0.205
638	0.201
638	0.197
639	0.193
639	0.188
640	0.183
640	0.179
641	0.174
641	0.169
642	0.164
642	0.16
642	0.155
643	0.15
643	0.144
644	0.139
644	0.133
645	0.127
645	0.122
646	0.116
646	0.11
646	0.104
647	0.097
647	0.091
648	0.085
648	0.078
649	0.071
649	0.064
650	0.057
650	0.049
650	0.041
651	0.031
651	0.018
652	0.004
652	-0.011
653	-0.024
653	-0.036
653	-0.034
654	-0.015
654	-0.004
655	-0.007
655	-0.013
656	-0.019
656	-0.025
657	-0.028
657	-0.032
657	-0.038
658	-0.044
658	-0.071
659	-0.152
659	-0.249
660	-0.293
660	-0.319
661	-0.347
661	-0.377
661	-0.412
662	-0.445
662	-0.481
663	-0.521
663	-0.565
664	-0.61
664	-0.663
665	-0.716
665	-0.775
665	-0.832
666	-0.89
666	-0.953
667	-1.019
667	-1.086
668	-1.159
668	-1.233
669	-1.309
669	-1.384
669	-1.463
670	-1.533
670	-1.566
671	-1.706
671	-1.979
672	-2.206
672	-2.395
672	-2.524
673	-2.616
673	-2.696
674	-2.736
674	-2.754
675	-2.779
675	-2.919
676	-3.114
676	-3.064
676	-2.84
677	-2.635
677	-2.47
678	-2.29
678	-1.98
679	-1.713
679	-1.58
680	-1.486
680	-1.402
680	-1.331
681	-1.286
681	-1.226
682	-1.185
682	-1.146
683	-1.109
683	-1.091
684	-1.069
684	-1.048
684	-1.024
685	-0.998
685	-0.974
686	-0.948
686	-0.932
687	-0.906
687	-0.892
687	-0.87
688	-0.844
688	-0.822
689	-0.801
689	-0.787
690	-0.767
690	-0.752
691	-0.745
691	-0.747
691	-0.763
692	-0.756
692	-0.747
693	-0.74
693	-0.746
694	-0.741
694	-0.733
695	-0.737
695	-0.736
695	-0.72
696	-0.717
696	-0.694
697	-0.691
697	-0.708
698	-0.71
698	-0.7
698	-0.713
699	-0.716
699	-0.714
700	-0.705
700	-0.718
701	-0.715
701	-0.721
702	-0.722
702	-0.707
702	-0.698
703	-0.691
703	-0.682
704	-0.679
704	-0.679
705	-0.69
705	-0.683
705	-0.672
706	-0.672
706	-0.667
707	-0.672
707	-0.67
708	-0.669
708	-0.66
709	-0.661
709	-0.666
709	-0.658
710	-0.666
710	-0.674
711	-0.665
711	-0.666
712	-0.667
712	-0.678
713	-0.676
713	-0.684
713	-0.675
714	-0.669
714	-0.668
715	-0.657
715	-0.645
716	-0.652
716	-0.652
716	-0.644
717	-0.646
717	-0.646
718	-0.637
718	-0.637
719	-0.643
719	-0.647
720	-0.642
720	-0.651
720	-0.645
721	-0.635
721	-0.636
722	-0.624
722	-0.614
723	-0.612
723	-0.619
723	-0.606
724	-0.607
724	-0.611
725	-0.613
725	-0.62
726	-0.632
726	-0.637
727	-0.64
727	-0.655
727	-0.661
728	-0.66
728	-0.666
729	-0.663
729	-0.667
730	-0.67
730	-0.664
730	-0.655
731	-0.638
731	-0.647
732	-0.653
732	-0.652
733	-0.651
733	-0.655
734	-0.651
734	-0.653
734	-0.641
735	-0.641
735	-0.64
736	-0.648
736	-0.637
737	-0.627
737	-0.63
737	-0.64
738	-0.635
738	-0.635
739	-0.631
739	-0.643
740	-0.644
740	-0.642
741	-0.64
741	-0.641
741	-0.646
742	-0.643
742	-0.641
743	-0.647
743	-0.65
744	-0.649
744	-0.64
744	-0.64
745	-0.649
745	-0.641
746	-0.64
746	-0.636
747	-0.636
747	-0.625
748	-0.614
748	-0.624
748	-0.623
749	-0.621
749	-0.623
750	-0.611
750	-0.614
751	-0.617
751	-0.627
751	-0.63
752	-0.633
752	-0.642
753	-0.633
753	-0.631
754	-0.634
754	-0.628
754	-0.641
755	-0.657
755	-0.666
756	-0.656
756	-0.653
757	-0.655
757	-0.651
758	-0.654
758	-0.652
758	-0.657
759	-0.661
759	-0.646
760	-0.639
760	-0.636
761	-0.643
761	-0.642
761	-0.641
762	-0.649
762	-0.647
763	-0.654
763	-0.65
764	-0.65
764	-0.656
764	-0.66
765	-0.65
765	-0.639
766	-0.645
766	-0.651
767	-0.666
767	-0.661
768	-0.656
768	-0.662
768	-0.667
769	-0.684
769	-0.687
770	-0.691
770	-0.705
771	-0.701
771	-0.705
771	-0.703
772	-0.704
772	-0.701
773	-0.702
773	-0.7
774	-0.698
774	-0.699
775	-0.704
775	-0.699
775	-0.707
776	-0.703
776	-0.695
777	-0.706
777	-0.727
778	-0.723
778	-0.742
778	-0.729
779	-0.749
779	-0.755
780	-0.768
780	-0.768
781	-0.781
781	-0.777
781	-0.791
782	-0.789
782	-0.794
783	-0.781
783	-0.781
784	-0.763
784	-0.753
784	-0.761
785	-0.766
785	-0.752
786	-0.757
786	-0.736
787	-0.723
787	-0.723
788	-0.726
788	-0.737
788	-0.748
789	-0.748
789	-0.728
790	-0.707
790	-0.709
791	-0.705
791	-0.725
791	-0.732
792	-0.726
792	-0.702
793	-0.69
793	-0.666
794	-0.669
794	-0.662
794	-0.671
795	-0.667
795	-0.662
796	-0.644
796	-0.649
797	-0.643
797	-0.654
797	-0.659
798	-0.671
798	-0.664
799	-0.676
799	-0.666
800	-0.669
800	-0.662
801	-0.665
801	-0.651
801	-0.661
802	-0.67
802	-0.671
803	-0.674
803	-0.684
804	-0.679
804	-0.687
804	-0.676
805	-0.68
805	-0.67
806	-0.674
806	-0.658
807	-0.656
807	-0.64
807	-0.625
808	-0.614
808	-0.609
809	-0.598
809	-0.606
810	-0.604
810	-0.597
810	-0.594
811	-0.601
811	-0.593
812	-0.594
812	-0.597
813	-0.602
813	-0.595
813	-0.598
814	-0.598
814	-0.605
815	-0.61
815	-0.614
816	-0.608
816	-0.612
817	-0.616
817	-0.634
817	-0.651
818	-0.663
818	-0.666
819	-0.66
819	-0.659
820	-0.665
820	-0.66
820	-0.672
821	-0.67
821	-0.659
822	-0.629
822	-0.604
823	-0.599
823	-0.602
823	-0.599
824	-0.595
824	-0.6
825	-0.595
825	-0.575
826	-0.57
826	-0.577
826	-0.588
827	-0.584
827	-0.581
828	-0.562
828	-0.561
829	-0.551
829	-0.537
829	-0.527
830	-0.536
830	-0.533
831	-0.524
831	-0.513
832	-0.512
832	-0.504
832	-0.511
833	-0.505
833	-0.506
834	-0.502
834	-0.51
835	-0.498
835	-0.493
835	-0.492
836	-0.489
836	-0.485
837	-0.483
837	-0.474
838	-0.467
838	-0.456
839	-0.444
839	-0.434
839	-0.423
840	-0.413
840	-0.408
841	-0.399
841	-0.389
842	-0.382
842	-0.371
842	-0.367
843	-0.359
843	-0.353
844	-0.344
844	-0.339
845	-0.332
845	-0.322
845	-0.308
846	-0.297
846	-0.284
847	-0.274
847	-0.261
848	-0.25
848	-0.242
848	-0.226
849	-0.216
849	-0.205
850	-0.191
850	-0.187
851	-0.18
851	-0.168
851	-0.16
852	-0.146
852	-0.134
853	-0.125
853	-0.12
854	-0.11
854	-0.098
854	-0.088
855	-0.077
855	-0.07
856	-0.061
856	-0.053
857	-0.047
857	-0.04
857	-0.03
858	-0.02
858	-0.014
859	-0.007
859	0.003
860	0.012
860	0.023
860	0.031
861	0.038
861	0.046
862	0.052
862	0.058
863	0.064
863	0.072
863	0.077
864	0.08
864	0.085
865	0.09
865	0.094
866	0.098
866	0.101
866	0.104
867	0.107
867	0.111
868	0.113
868	0.116
869	0.12
869	0.122
869	0.124
870	0.126
870	0.129
871	0.131
871	0.133
872	0.134
872	0.134
872	0.135
873	0.136
873	0.136
874	0.136
874	0.136
875	0.135
875	0.134
875	0.133
876	0.132
876	0.13
877	0.129
877	0.128
878	0.126
878	0.124
878	0.122
879	0.121
879	0.119
880	0.118
880	0.118
881	0.117
881	0.118
881	0.118
882	0.118
882	0.117
883	0.117
883	0.116
884	0.115
884	0.115
884	0.114
885	0.113
885	0.112
886	0.112
886	0.111
887	0.11
887	0.109
887	0.109
888	0.109
888	0.109
889	0.109
889	0.11
890	0.11
890	0.11
890	0.11
891	0.11
891	0.11
892	0.11
892	0.11
893	0.11
893	0.11
893	0.109
894	0.109
894	0.108
895	0.107
895	0.107
895	0.107
896	0.106
896	0.105
897	0.104
897	0.103
898	0.102
898	0.102
898	0.102
899	0.102
899	0.102
900	0.102
900	0.103
901	0.103
901	0.104
901	0.105
902	0.105
902	0.105
903	0.105
903	0.106
904	0.106
904	0.106
904	0.107
905	0.108
905	0.108
906	0.108
906	0.109
907	0.109
907	0.108
907	0.108
908	0.108
908	0.107
909	0.107
909	0.106
910	0.106
910	0.106
910	0.105
911	0.105
911	0.106
912	0.106
912	0.106
913	0.107
913	0.107
913	0.108
914	0.108
914	0.109
915	0.109
915	0.109
916	0.11
916	0.11
916	0.11
917	0.109
917	0.109
918	0.108
918	0.108
918	0.107
919	0.107
919	0.107
920	0.107
920	0.106
921	0.106
921	0.106
921	0.106
922	0.106
922	0.106
923	0.106
923	0.106
924	0.106
924	0.106
924	0.105
925	0.104
925	0.103
926	0.102
926	0.102
927	0.101
927	0.101
927	0.1
928	0.1
928	0.1
929	0.1
929	0.099
930	0.099
930	0.099
930	0.098
931	0.098
931	0.098
932	0.098
932	0.097
933	0.096
933	0.094
933	0.093
934	0.091
934	0.09
935	0.089
935	0.088
935	0.086
936	0.085
936	0.084
937	0.083
937	0.083
938	0.083
938	0.083
938	0.084
939	0.084
939	0.085
940	0.086
940	0.086
941	0.087
941	0.088
941	0.089
942	0.09
942	0.09
943	0.091
943	0.091
944	0.09
944	0.09
944	0.089
945	0.089
945	0.088
946	0.087
946	0.085
946	0.084
947	0.084
947	0.083
948	0.083
948	0.084
949	0.084
949	0.084
949	0.085
950	0.086
950	0.086
951	0.088
951	0.089
952	0.09
952	0.091
952	0.091
953	0.092
953	0.093
954	0.093
954	0.094
955	0.095
955	0.096
955	0.096
956	0.097
956	0.097
957	0.097
957	0.097
957	0.097
958	0.097
958	0.098
959	0.098
959	0.098
960	0.098
960	0.097
960	0.097
961	0.097
961	0.097
962	0.097
962	0.097
963	0.097
963	0.096
963	0.096
964	0.096
964	0.096
965	0.096
965	0.096
966	0.096
966	0.096
966	0.096
967	0.096
967	0.095
968	0.094
968	0.094
968	0.093
969	0.093
969	0.092
970	0.092
970	0.092
971	0.092
971	0.092
971	0.093
972	0.093
972	0.093
973	0.093
973	0.093
974	0.093
974	0.092
974	0.092
975	0.092
975	0.091
976	0.09
976	0.089
976	0.089
977	0.089
977	0.088
978	0.088
978	0.088
979	0.087
979	0.087
979	0.086
980	0.086
980	0.086
981	0.085
981	0.085
982	0.085
982	0.084
982	0.084
983	0.084
983	0.084
984	0.084
984	0.084
984	0.085
985	0.085
985	0.086
986	0.086
986	0.086
987	0.087
987	0.087
987	0.087
988	0.086
988	0.086
989	0.085
989	0.084
990	0.083
990	0.082
990	0.081
991	0.081
991	0.08
992	0.08
992	0.079
992	0.079
993	0.079
993	0.079
994	0.079
994	0.079
995	0.079
995	0.078
995	0.078
996	0.078
996	0.077
997	0.077
997	0.077
997	0.077
998	0.077
998	0.077
999	0.078
999	0.078
1000	0.078
1000	0.078
1000	0.078
1001	0.079
1001	0.079
1002	0.079
1002	0.079
1003	0.079
1003	0.078
1003	0.078
1004	0.077
1004	0.077
1005	0.076
1005	0.075
1005	0.073
1006	0.072
1006	0.071
1007	0.07
1007	0.069
1008	0.069
1008	0.068
1008	0.068
1009	0.068
1009	0.068
1010	0.068
1010	0.068
1010	0.068
1011	0.068
1011	0.068
1012	0.067
1012	0.066
1013	0.065
1013	0.064
1013	0.063
1014	0.062
1014	0.061
1015	0.06
1015	0.059
1016	0.058
1016	0.058
1016	0.057
1017	0.056
1017	0.055
1018	0.055
1018	0.054
1018	0.054
1019	0.053
1019	0.053
1020	0.052
1020	0.051
1021	0.05
1021	0.049
1021	0.048
1022	0.048
1022	0.047
1023	0.047
1023	0.046
1023	0.046
1024	0.046
1024	0.045
1025	0.046
1025	0.046
1026	0.047
1026	0.047
1026	0.047
1027	0.048
1027	0.048
1028	0.048
1028	0.049
1028	0.048
1029	0.048
1029	0.048
1030	0.048
1030	0.047
1031	0.046
1031	0.047
1031	0.046
1032	0.046
1032	0.046
1033	0.046
1033	0.047
1033	0.047
1034	0.047
1034	0.047
1035	0.047
1035	0.047
1036	0.047
1036	0.047
1036	0.047
1037	0.047
1037	0.047
1038	0.047
1038	0.047
1039	0.047
1039	0.047
1039	0.047
1040	0.048
1040	0.049
1041	0.049
1041	0.049
1041	0.049
1042	0.049
1042	0.049
1043	0.049
1043	0.049
1044	0.048
1044	0.047
1044	0.047
1045	0.046
1045	0.045
1046	0.045
1046	0.045
1046	0.045
1047	0.045
1047	0.045
1048	0.046
1048	0.046
1049	0.046
1049	0.046
1049	0.047
1050	0.047
1050	0.047
1051	0.047
1051	0.047
1051	0.048
1052	0.048
1052	0.048
1053	0.048
1053	0.048
1053	0.048
1054	0.048
1054	0.047
1055	0.047
1055	0.047
1056	0.046
1056	0.045
1056	0.044
1057	0.043
1057	0.043
1058	0.042
1058	0.042
1058	0.041
1059	0.041
1059	0.04
1060	0.04
1060	0.04
1061	0.04
1061	0.04
1061	0.04
1062	0.04
1062	0.04
1063	0.04
1063	0.04
1063	0.041
1064	0.041
1064	0.041
1065	0.041
1065	0.04
1066	0.04
1066	0.04
1066	0.039
1067	0.039
1067	0.038
1068	0.037
1068	0.036
1068	0.036
1069	0.036
1069	0.035
1070	0.035
1070	0.035
1071	0.034
1071	0.035
1071	0.034
1072	0.034
1072	0.034
1073	0.033
1073	0.034
1073	0.033
1074	0.033
1074	0.033
1075	0.032
1075	0.032
1076	0.031
1076	0.031
1076	0.031
1077	0.03
1077	0.03
1078	0.028
1078	0.028
1078	0.027
1079	0.026
1079	0.026
1080	0.025
1080	0.025
1080	0.024
1081	0.023
1081	0.022
1082	0.022
1082	0.021
1083	0.02
1083	0.019
1083	0.019
1084	0.018
1084	0.017
1085	0.016
1085	0.016
1085	0.016
1086	0.016
1086	0.015
1087	0.015
1087	0.015
1088	0.014
1088	0.014
1088	0.013
1089	0.012
1089	0.012
1090	0.011
1090	0.01
1090	0.009
1091	0.008
1091	0.008
1092	0.007
1092	0.007
1092	0.006
1093	0.006
1093	0.006
1094	0.006
1094	0.006
1095	0.004
1095	0.005
1095	0.005
1096	0.004
1096	0.003
1097	0.003
1097	0.002
1097	0.001
1098	-0.001
1098	-0.003
1099	-0.003
1099	-0.003
1100	-0.005
1100	-0.006
1100	-0.008
1101	-0.011
1101	-0.014
1102	-0.015
1102	-0.017
1102	-0.018
1103	-0.019
1103	-0.021
1104	-0.024
1104	-0.026
1104	-0.028
1105	-0.03
1105	-0.033
1106	-0.036
1106	-0.038
1107	-0.042
1107	-0.046
1107	-0.051
1108	-0.052
1108	-0.054
1109	-0.057
1109	-0.062
1109	-0.065
1110	-0.064
1110	-0.067
1111	-0.073
1111	-0.07
