Data from 17C_3.4A_30min_2sec_int_Absorbance__541__01262.txt Node

Date: Mon Jun 19 17:10:25 CEST 2023
User: Marek
Spectrometer: MAYP115816
Trigger mode: 0
Integration Time (sec): 2.500000E-1
Scans to average: 10
Electric dark correction enabled: true
Nonlinearity correction enabled: true
Boxcar width: 5
XAxis mode: Wavelengths
Number of Pixels in Spectrum: 2068
>>>>>Begin Spectral Data<<<<<
199	-0.674
199	-0.685
200	-0.59
200	-0.539
201	-0.503
201	-0.487
202	-0.469
202	-0.456
203	-0.449
203	-0.445
204	-0.431
204	-0.417
205	-0.395
205	-0.391
205	-0.389
206	-0.39
206	-0.395
207	-0.388
207	-0.389
208	-0.391
208	-0.39
209	-0.384
209	-0.387
210	-0.391
210	-0.396
211	-0.397
211	-0.401
212	-0.403
212	-0.409
213	-0.409
213	-0.409
213	-0.411
214	-0.409
214	-0.406
215	-0.403
215	-0.406
216	-0.41
216	-0.417
217	-0.412
217	-0.417
218	-0.418
218	-0.421
219	-0.427
219	-0.436
220	-0.442
220	-0.455
221	-0.453
221	-0.456
221	-0.448
222	-0.445
222	-0.446
223	-0.448
223	-0.453
224	-0.455
224	-0.455
225	-0.45
225	-0.445
226	-0.451
226	-0.452
227	-0.457
227	-0.465
228	-0.466
228	-0.471
229	-0.469
229	-0.463
229	-0.458
230	-0.462
230	-0.464
231	-0.458
231	-0.452
232	-0.448
232	-0.446
233	-0.441
233	-0.436
234	-0.436
234	-0.434
235	-0.438
235	-0.445
236	-0.441
236	-0.445
236	-0.45
237	-0.453
237	-0.456
238	-0.465
238	-0.464
239	-0.461
239	-0.47
240	-0.468
240	-0.463
241	-0.47
241	-0.471
242	-0.475
242	-0.473
243	-0.467
243	-0.467
243	-0.477
244	-0.479
244	-0.477
245	-0.49
245	-0.489
246	-0.492
246	-0.497
247	-0.497
247	-0.502
248	-0.509
248	-0.504
249	-0.506
249	-0.513
250	-0.511
250	-0.507
250	-0.51
251	-0.508
251	-0.508
252	-0.511
252	-0.501
253	-0.506
253	-0.519
254	-0.516
254	-0.513
255	-0.522
255	-0.517
256	-0.515
256	-0.522
257	-0.519
257	-0.514
258	-0.53
258	-0.528
258	-0.523
259	-0.52
259	-0.53
260	-0.529
260	-0.532
261	-0.542
261	-0.535
262	-0.533
262	-0.537
263	-0.527
263	-0.52
264	-0.522
264	-0.53
265	-0.524
265	-0.532
265	-0.536
266	-0.536
266	-0.533
267	-0.544
267	-0.552
268	-0.569
268	-0.578
269	-0.574
269	-0.569
270	-0.575
270	-0.577
271	-0.578
271	-0.582
272	-0.589
272	-0.585
272	-0.576
273	-0.573
273	-0.582
274	-0.589
274	-0.593
275	-0.595
275	-0.587
276	-0.592
276	-0.586
277	-0.587
277	-0.601
278	-0.614
278	-0.611
278	-0.606
279	-0.609
279	-0.618
280	-0.613
280	-0.614
281	-0.611
281	-0.615
282	-0.605
282	-0.608
283	-0.597
283	-0.596
284	-0.59
284	-0.579
285	-0.577
285	-0.578
285	-0.574
286	-0.581
286	-0.577
287	-0.576
287	-0.561
288	-0.554
288	-0.562
289	-0.575
289	-0.583
290	-0.575
290	-0.569
291	-0.567
291	-0.559
292	-0.562
292	-0.567
292	-0.57
293	-0.577
293	-0.565
294	-0.555
294	-0.544
295	-0.54
295	-0.541
296	-0.539
296	-0.538
297	-0.531
297	-0.515
298	-0.509
298	-0.515
298	-0.507
299	-0.499
299	-0.502
300	-0.495
300	-0.494
301	-0.489
301	-0.488
302	-0.494
302	-0.507
303	-0.495
303	-0.483
304	-0.484
304	-0.484
305	-0.486
305	-0.486
305	-0.479
306	-0.465
306	-0.458
307	-0.448
307	-0.446
308	-0.458
308	-0.456
309	-0.456
309	-0.445
310	-0.433
310	-0.432
311	-0.424
311	-0.431
311	-0.428
312	-0.425
312	-0.424
313	-0.411
313	-0.413
314	-0.413
314	-0.417
315	-0.419
315	-0.416
316	-0.414
316	-0.405
317	-0.399
317	-0.395
318	-0.384
318	-0.383
318	-0.379
319	-0.367
319	-0.363
320	-0.356
320	-0.358
321	-0.361
321	-0.362
322	-0.357
322	-0.349
323	-0.347
323	-0.341
324	-0.333
324	-0.326
324	-0.316
325	-0.306
325	-0.29
326	-0.277
326	-0.26
327	-0.244
327	-0.227
328	-0.202
328	-0.183
329	-0.161
329	-0.14
330	-0.115
330	-0.084
330	-0.06
331	-0.033
331	-0.01
332	0.012
332	0.032
333	0.051
333	0.071
334	0.089
334	0.103
335	0.117
335	0.129
336	0.141
336	0.152
336	0.16
337	0.17
337	0.177
338	0.184
338	0.189
339	0.196
339	0.201
340	0.204
340	0.208
341	0.211
341	0.214
342	0.218
342	0.22
342	0.223
343	0.224
343	0.226
344	0.227
344	0.229
345	0.23
345	0.23
346	0.231
346	0.231
347	0.232
347	0.233
348	0.233
348	0.234
348	0.234
349	0.234
349	0.234
350	0.234
350	0.234
351	0.234
351	0.235
352	0.235
352	0.235
353	0.234
353	0.234
354	0.234
354	0.234
354	0.234
355	0.234
355	0.234
356	0.234
356	0.233
357	0.232
357	0.232
358	0.232
358	0.232
359	0.232
359	0.232
360	0.231
360	0.231
360	0.231
361	0.231
361	0.231
362	0.231
362	0.231
363	0.231
363	0.231
364	0.231
364	0.231
365	0.231
365	0.231
366	0.231
366	0.23
366	0.23
367	0.231
367	0.23
368	0.23
368	0.23
369	0.23
369	0.23
370	0.23
370	0.229
371	0.229
371	0.229
372	0.229
372	0.229
372	0.229
373	0.229
373	0.229
374	0.229
374	0.229
375	0.229
375	0.229
376	0.228
376	0.228
377	0.228
377	0.228
378	0.228
378	0.228
378	0.228
379	0.228
379	0.228
380	0.228
380	0.228
381	0.228
381	0.227
382	0.227
382	0.227
383	0.227
383	0.227
383	0.226
384	0.226
384	0.226
385	0.226
385	0.226
386	0.226
386	0.226
387	0.226
387	0.226
388	0.226
388	0.226
389	0.225
389	0.226
389	0.226
390	0.226
390	0.226
391	0.226
391	0.225
392	0.225
392	0.225
393	0.225
393	0.225
394	0.225
394	0.225
394	0.224
395	0.224
395	0.224
396	0.224
396	0.224
397	0.223
397	0.223
398	0.223
398	0.223
399	0.223
399	0.223
400	0.223
400	0.223
400	0.223
401	0.223
401	0.223
402	0.222
402	0.222
403	0.222
403	0.222
404	0.222
404	0.222
405	0.222
405	0.222
405	0.221
406	0.221
406	0.221
407	0.221
407	0.221
408	0.221
408	0.221
409	0.221
409	0.221
410	0.221
410	0.221
411	0.221
411	0.221
411	0.221
412	0.221
412	0.221
413	0.221
413	0.22
414	0.22
414	0.22
415	0.22
415	0.22
416	0.22
416	0.22
416	0.219
417	0.219
417	0.219
418	0.219
418	0.219
419	0.22
419	0.22
420	0.22
420	0.22
421	0.22
421	0.22
421	0.22
422	0.22
422	0.22
423	0.22
423	0.219
424	0.219
424	0.219
425	0.219
425	0.218
426	0.218
426	0.218
427	0.217
427	0.217
427	0.217
428	0.217
428	0.217
429	0.217
429	0.217
430	0.217
430	0.217
431	0.217
431	0.217
432	0.217
432	0.216
432	0.216
433	0.216
433	0.216
434	0.216
434	0.216
435	0.216
435	0.216
436	0.216
436	0.215
437	0.215
437	0.215
437	0.215
438	0.215
438	0.215
439	0.215
439	0.215
440	0.215
440	0.215
441	0.215
441	0.214
442	0.214
442	0.214
442	0.214
443	0.214
443	0.214
444	0.214
444	0.215
445	0.215
445	0.215
446	0.215
446	0.215
447	0.215
447	0.216
447	0.216
448	0.216
448	0.216
449	0.216
449	0.216
450	0.216
450	0.216
451	0.216
451	0.216
452	0.216
452	0.216
452	0.216
453	0.216
453	0.215
454	0.215
454	0.215
455	0.215
455	0.215
456	0.215
456	0.215
457	0.215
457	0.215
458	0.215
458	0.215
458	0.215
459	0.215
459	0.215
460	0.215
460	0.214
461	0.214
461	0.214
462	0.214
462	0.214
463	0.214
463	0.214
463	0.215
464	0.215
464	0.214
465	0.215
465	0.215
466	0.215
466	0.215
467	0.216
467	0.216
467	0.216
468	0.216
468	0.216
469	0.216
469	0.217
470	0.217
470	0.217
471	0.217
471	0.217
472	0.218
472	0.218
472	0.218
473	0.218
473	0.218
474	0.219
474	0.219
475	0.219
475	0.219
476	0.22
476	0.22
477	0.22
477	0.22
477	0.221
478	0.221
478	0.221
479	0.222
479	0.222
480	0.222
480	0.222
481	0.223
481	0.224
482	0.224
482	0.225
482	0.225
483	0.226
483	0.227
484	0.227
484	0.227
485	0.227
485	0.228
486	0.228
486	0.229
487	0.229
487	0.23
487	0.23
488	0.231
488	0.231
489	0.233
489	0.234
490	0.235
490	0.236
491	0.237
491	0.238
492	0.239
492	0.239
492	0.24
493	0.241
493	0.242
494	0.243
494	0.244
495	0.245
495	0.246
496	0.247
496	0.248
496	0.249
497	0.251
497	0.252
498	0.253
498	0.254
499	0.255
499	0.257
500	0.258
500	0.259
501	0.26
501	0.261
501	0.262
502	0.263
502	0.264
503	0.265
503	0.266
504	0.267
504	0.268
505	0.27
505	0.271
506	0.272
506	0.273
506	0.274
507	0.276
507	0.277
508	0.279
508	0.28
509	0.281
509	0.283
510	0.284
510	0.285
511	0.287
511	0.288
511	0.289
512	0.291
512	0.292
513	0.293
513	0.294
514	0.295
514	0.296
515	0.297
515	0.298
515	0.3
516	0.301
516	0.302
517	0.304
517	0.305
518	0.306
518	0.307
519	0.308
519	0.309
520	0.311
520	0.312
520	0.313
521	0.314
521	0.316
522	0.316
522	0.318
523	0.319
523	0.32
524	0.32
524	0.321
524	0.321
525	0.321
525	0.322
526	0.322
526	0.323
527	0.323
527	0.324
528	0.325
528	0.325
529	0.326
529	0.327
529	0.328
530	0.328
530	0.329
531	0.329
531	0.33
532	0.33
532	0.33
533	0.331
533	0.331
533	0.331
534	0.33
534	0.33
535	0.33
535	0.33
536	0.33
536	0.329
537	0.329
537	0.329
538	0.329
538	0.328
538	0.328
539	0.328
539	0.328
540	0.328
540	0.327
541	0.327
541	0.326
542	0.326
542	0.325
542	0.325
543	0.324
543	0.324
544	0.323
544	0.322
545	0.322
545	0.322
546	0.322
546	0.321
547	0.321
547	0.32
547	0.319
548	0.319
548	0.318
549	0.318
549	0.317
550	0.316
550	0.315
551	0.315
551	0.315
551	0.315
552	0.315
552	0.315
553	0.315
553	0.315
554	0.314
554	0.314
555	0.313
555	0.313
556	0.312
556	0.311
556	0.31
557	0.309
557	0.309
558	0.308
558	0.307
559	0.306
559	0.305
560	0.305
560	0.304
560	0.303
561	0.303
561	0.302
562	0.301
562	0.3
563	0.299
563	0.298
564	0.298
564	0.297
564	0.297
565	0.297
565	0.296
566	0.296
566	0.295
567	0.295
567	0.294
568	0.294
568	0.293
568	0.292
569	0.291
569	0.29
570	0.289
570	0.287
571	0.287
571	0.286
572	0.286
572	0.285
573	0.284
573	0.284
573	0.283
574	0.283
574	0.283
575	0.282
575	0.282
576	0.282
576	0.281
577	0.28
577	0.28
577	0.28
578	0.28
578	0.28
579	0.28
579	0.28
580	0.279
580	0.278
581	0.277
581	0.277
581	0.277
582	0.277
582	0.277
583	0.277
583	0.276
584	0.275
584	0.274
585	0.275
585	0.275
585	0.275
586	0.275
586	0.275
587	0.274
587	0.274
588	0.274
588	0.274
589	0.274
589	0.274
590	0.274
590	0.274
590	0.274
591	0.274
591	0.273
592	0.273
592	0.272
593	0.272
593	0.272
594	0.272
594	0.272
594	0.272
595	0.272
595	0.271
596	0.271
596	0.272
597	0.273
597	0.273
598	0.272
598	0.272
598	0.272
599	0.271
599	0.27
600	0.27
600	0.269
601	0.269
601	0.268
602	0.268
602	0.268
602	0.268
603	0.268
603	0.269
604	0.27
604	0.27
605	0.271
605	0.271
606	0.271
606	0.27
606	0.27
607	0.269
607	0.269
608	0.268
608	0.267
609	0.267
609	0.267
610	0.266
610	0.266
610	0.266
611	0.266
611	0.267
612	0.267
612	0.268
613	0.268
613	0.268
614	0.267
614	0.266
614	0.266
615	0.265
615	0.265
616	0.264
616	0.264
617	0.263
617	0.262
618	0.261
618	0.261
618	0.261
619	0.261
619	0.261
620	0.261
620	0.261
621	0.26
621	0.26
622	0.26
622	0.259
622	0.258
623	0.258
623	0.258
624	0.258
624	0.257
625	0.257
625	0.256
626	0.256
626	0.255
626	0.255
627	0.255
627	0.254
628	0.253
628	0.252
629	0.25
629	0.249
630	0.247
630	0.246
630	0.245
631	0.243
631	0.241
632	0.239
632	0.237
633	0.235
633	0.233
634	0.231
634	0.228
634	0.226
635	0.223
635	0.221
636	0.217
636	0.215
637	0.211
637	0.208
638	0.204
638	0.2
638	0.197
639	0.192
639	0.188
640	0.183
640	0.179
641	0.174
641	0.17
642	0.165
642	0.16
642	0.156
643	0.151
643	0.146
644	0.14
644	0.135
645	0.129
645	0.123
646	0.118
646	0.112
646	0.106
647	0.1
647	0.093
648	0.087
648	0.081
649	0.073
649	0.066
650	0.059
650	0.051
650	0.043
651	0.033
651	0.021
652	0.006
652	-0.009
653	-0.022
653	-0.034
653	-0.031
654	-0.013
654	-0.003
655	-0.007
655	-0.012
656	-0.018
656	-0.024
657	-0.028
657	-0.032
657	-0.038
658	-0.044
658	-0.071
659	-0.152
659	-0.248
660	-0.292
660	-0.319
661	-0.346
661	-0.377
661	-0.411
662	-0.444
662	-0.479
663	-0.52
663	-0.563
664	-0.608
664	-0.66
665	-0.712
665	-0.772
665	-0.828
666	-0.886
666	-0.949
667	-1.016
667	-1.082
668	-1.156
668	-1.23
669	-1.306
669	-1.381
669	-1.461
670	-1.532
670	-1.579
671	-1.768
671	-2.014
672	-2.229
672	-2.413
672	-2.539
673	-2.628
673	-2.706
674	-2.745
674	-2.763
675	-2.788
675	-2.927
676	-3.113
676	-3.063
676	-2.839
677	-2.633
677	-2.468
678	-2.287
678	-1.973
679	-1.708
679	-1.574
680	-1.48
680	-1.397
680	-1.326
681	-1.281
681	-1.222
682	-1.181
682	-1.143
683	-1.107
683	-1.089
684	-1.067
684	-1.048
684	-1.025
685	-0.999
685	-0.976
686	-0.95
686	-0.933
687	-0.905
687	-0.894
687	-0.873
688	-0.847
688	-0.826
689	-0.803
689	-0.789
690	-0.769
690	-0.757
691	-0.75
691	-0.756
691	-0.772
692	-0.761
692	-0.752
693	-0.747
693	-0.753
694	-0.748
694	-0.74
695	-0.745
695	-0.742
695	-0.725
696	-0.72
696	-0.699
697	-0.699
697	-0.715
698	-0.718
698	-0.708
698	-0.72
699	-0.723
699	-0.72
700	-0.71
700	-0.725
701	-0.723
701	-0.728
702	-0.727
702	-0.715
702	-0.703
703	-0.697
703	-0.689
704	-0.684
704	-0.683
705	-0.694
705	-0.687
705	-0.676
706	-0.678
706	-0.673
707	-0.677
707	-0.675
708	-0.674
708	-0.668
709	-0.671
709	-0.674
709	-0.664
710	-0.672
710	-0.682
711	-0.671
711	-0.672
712	-0.67
712	-0.68
713	-0.678
713	-0.683
713	-0.674
714	-0.668
714	-0.67
715	-0.661
715	-0.647
716	-0.653
716	-0.656
716	-0.65
717	-0.653
717	-0.655
718	-0.648
718	-0.649
719	-0.656
719	-0.658
720	-0.654
720	-0.664
720	-0.658
721	-0.645
721	-0.645
722	-0.632
722	-0.622
723	-0.62
723	-0.622
723	-0.61
724	-0.612
724	-0.617
725	-0.614
725	-0.625
726	-0.637
726	-0.642
727	-0.648
727	-0.662
727	-0.667
728	-0.669
728	-0.675
729	-0.674
729	-0.674
730	-0.68
730	-0.672
730	-0.663
731	-0.647
731	-0.656
732	-0.661
732	-0.662
733	-0.659
733	-0.664
734	-0.659
734	-0.661
734	-0.649
735	-0.649
735	-0.646
736	-0.656
736	-0.641
737	-0.634
737	-0.636
737	-0.646
738	-0.639
738	-0.64
739	-0.638
739	-0.649
740	-0.646
740	-0.648
741	-0.644
741	-0.644
741	-0.645
742	-0.64
742	-0.641
743	-0.648
743	-0.653
744	-0.651
744	-0.643
744	-0.645
745	-0.653
745	-0.646
746	-0.646
746	-0.644
747	-0.649
747	-0.636
748	-0.623
748	-0.626
748	-0.628
749	-0.625
749	-0.624
750	-0.614
750	-0.616
751	-0.621
751	-0.629
751	-0.632
752	-0.635
752	-0.65
753	-0.644
753	-0.638
754	-0.644
754	-0.636
754	-0.65
755	-0.665
755	-0.678
756	-0.666
756	-0.663
757	-0.663
757	-0.656
758	-0.658
758	-0.66
758	-0.664
759	-0.672
759	-0.656
760	-0.648
760	-0.641
761	-0.653
761	-0.649
761	-0.647
762	-0.653
762	-0.653
763	-0.659
763	-0.654
764	-0.653
764	-0.662
764	-0.668
765	-0.657
765	-0.642
766	-0.649
766	-0.654
767	-0.669
767	-0.661
768	-0.655
768	-0.663
768	-0.669
769	-0.685
769	-0.686
770	-0.693
770	-0.707
771	-0.706
771	-0.708
771	-0.71
772	-0.714
772	-0.712
773	-0.713
773	-0.707
774	-0.708
774	-0.71
775	-0.71
775	-0.704
775	-0.711
776	-0.712
776	-0.702
777	-0.713
777	-0.731
778	-0.727
778	-0.746
778	-0.729
779	-0.751
779	-0.76
780	-0.774
780	-0.773
781	-0.786
781	-0.784
781	-0.797
782	-0.799
782	-0.802
783	-0.789
783	-0.79
784	-0.77
784	-0.76
784	-0.769
785	-0.774
785	-0.757
786	-0.761
786	-0.738
787	-0.721
787	-0.72
788	-0.722
788	-0.73
788	-0.74
789	-0.743
789	-0.723
790	-0.704
790	-0.708
791	-0.708
791	-0.727
791	-0.735
792	-0.731
792	-0.709
793	-0.699
793	-0.677
794	-0.681
794	-0.673
794	-0.681
795	-0.677
795	-0.669
796	-0.653
796	-0.661
797	-0.654
797	-0.666
797	-0.674
798	-0.686
798	-0.677
799	-0.688
799	-0.675
800	-0.678
800	-0.673
801	-0.677
801	-0.662
801	-0.673
802	-0.679
802	-0.679
803	-0.681
803	-0.691
804	-0.687
804	-0.699
804	-0.69
805	-0.691
805	-0.681
806	-0.684
806	-0.669
807	-0.668
807	-0.653
807	-0.638
808	-0.628
808	-0.623
809	-0.607
809	-0.618
810	-0.617
810	-0.61
810	-0.607
811	-0.613
811	-0.605
812	-0.605
812	-0.612
813	-0.617
813	-0.61
813	-0.616
814	-0.616
814	-0.62
815	-0.625
815	-0.629
816	-0.621
816	-0.628
817	-0.632
817	-0.648
817	-0.661
818	-0.669
818	-0.672
819	-0.666
819	-0.666
820	-0.676
820	-0.674
820	-0.683
821	-0.679
821	-0.668
822	-0.637
822	-0.614
823	-0.612
823	-0.614
823	-0.61
824	-0.603
824	-0.605
825	-0.595
825	-0.579
826	-0.573
826	-0.579
826	-0.589
827	-0.584
827	-0.579
828	-0.56
828	-0.561
829	-0.55
829	-0.536
829	-0.529
830	-0.537
830	-0.535
831	-0.529
831	-0.519
832	-0.519
832	-0.513
832	-0.523
833	-0.517
833	-0.521
834	-0.518
834	-0.527
835	-0.515
835	-0.511
835	-0.507
836	-0.505
836	-0.501
837	-0.497
837	-0.483
838	-0.474
838	-0.46
839	-0.45
839	-0.438
839	-0.427
840	-0.417
840	-0.413
841	-0.402
841	-0.395
842	-0.388
842	-0.38
842	-0.374
843	-0.37
843	-0.365
844	-0.355
844	-0.349
845	-0.34
845	-0.331
845	-0.317
846	-0.304
846	-0.292
847	-0.281
847	-0.269
848	-0.258
848	-0.246
848	-0.23
849	-0.22
849	-0.209
850	-0.194
850	-0.189
851	-0.181
851	-0.171
851	-0.162
852	-0.148
852	-0.136
853	-0.127
853	-0.122
854	-0.11
854	-0.098
854	-0.088
855	-0.076
855	-0.07
856	-0.061
856	-0.053
857	-0.047
857	-0.039
857	-0.028
858	-0.018
858	-0.013
859	-0.005
859	0.005
860	0.013
860	0.024
860	0.031
861	0.039
861	0.047
862	0.054
862	0.061
863	0.068
863	0.076
863	0.082
864	0.085
864	0.091
865	0.095
865	0.1
866	0.104
866	0.106
866	0.109
867	0.112
867	0.115
868	0.117
868	0.121
869	0.124
869	0.127
869	0.129
870	0.131
870	0.134
871	0.136
871	0.138
872	0.138
872	0.139
872	0.14
873	0.141
873	0.141
874	0.141
874	0.141
875	0.14
875	0.139
875	0.138
876	0.137
876	0.135
877	0.134
877	0.133
878	0.131
878	0.129
878	0.127
879	0.126
879	0.124
880	0.123
880	0.123
881	0.123
881	0.123
881	0.122
882	0.122
882	0.121
883	0.121
883	0.12
884	0.12
884	0.119
884	0.118
885	0.117
885	0.117
886	0.116
886	0.115
887	0.115
887	0.114
887	0.114
888	0.114
888	0.113
889	0.114
889	0.114
890	0.114
890	0.114
890	0.114
891	0.114
891	0.113
892	0.114
892	0.114
893	0.114
893	0.114
893	0.113
894	0.113
894	0.112
895	0.111
895	0.111
895	0.11
896	0.109
896	0.108
897	0.108
897	0.106
898	0.106
898	0.105
898	0.105
899	0.105
899	0.106
900	0.106
900	0.107
901	0.108
901	0.108
901	0.109
902	0.109
902	0.11
903	0.11
903	0.11
904	0.111
904	0.112
904	0.112
905	0.113
905	0.113
906	0.114
906	0.114
907	0.114
907	0.113
907	0.113
908	0.113
908	0.112
909	0.112
909	0.111
910	0.111
910	0.11
910	0.11
911	0.11
911	0.111
912	0.111
912	0.111
913	0.112
913	0.112
913	0.113
914	0.113
914	0.113
915	0.114
915	0.114
916	0.114
916	0.114
916	0.114
917	0.114
917	0.114
918	0.114
918	0.113
918	0.113
919	0.112
919	0.112
920	0.112
920	0.112
921	0.112
921	0.112
921	0.112
922	0.112
922	0.112
923	0.112
923	0.111
924	0.111
924	0.111
924	0.11
925	0.109
925	0.108
926	0.108
926	0.107
927	0.106
927	0.106
927	0.105
928	0.105
928	0.105
929	0.104
929	0.104
930	0.104
930	0.103
930	0.103
931	0.103
931	0.103
932	0.102
932	0.101
933	0.1
933	0.098
933	0.097
934	0.096
934	0.095
935	0.093
935	0.092
935	0.091
936	0.089
936	0.088
937	0.087
937	0.087
938	0.087
938	0.087
938	0.088
939	0.088
939	0.089
940	0.089
940	0.09
941	0.091
941	0.092
941	0.093
942	0.094
942	0.095
943	0.095
943	0.095
944	0.094
944	0.095
944	0.094
945	0.094
945	0.093
946	0.091
946	0.09
946	0.089
947	0.088
947	0.088
948	0.088
948	0.088
949	0.088
949	0.089
949	0.09
950	0.091
950	0.091
951	0.093
951	0.093
952	0.094
952	0.095
952	0.096
953	0.096
953	0.097
954	0.097
954	0.098
955	0.099
955	0.1
955	0.101
956	0.101
956	0.102
957	0.102
957	0.102
957	0.102
958	0.103
958	0.103
959	0.103
959	0.103
960	0.102
960	0.102
960	0.102
961	0.102
961	0.102
962	0.102
962	0.102
963	0.102
963	0.101
963	0.101
964	0.101
964	0.101
965	0.101
965	0.101
966	0.101
966	0.101
966	0.101
967	0.101
967	0.1
968	0.099
968	0.099
968	0.098
969	0.098
969	0.097
970	0.097
970	0.097
971	0.097
971	0.097
971	0.097
972	0.098
972	0.098
973	0.098
973	0.098
974	0.097
974	0.097
974	0.097
975	0.096
975	0.095
976	0.094
976	0.094
976	0.093
977	0.093
977	0.092
978	0.092
978	0.092
979	0.091
979	0.091
979	0.09
980	0.09
980	0.09
981	0.089
981	0.089
982	0.089
982	0.088
982	0.088
983	0.088
983	0.088
984	0.088
984	0.088
984	0.089
985	0.09
985	0.09
986	0.09
986	0.09
987	0.09
987	0.09
987	0.09
988	0.09
988	0.089
989	0.089
989	0.088
990	0.087
990	0.086
990	0.085
991	0.084
991	0.084
992	0.083
992	0.083
992	0.083
993	0.083
993	0.083
994	0.083
994	0.083
995	0.083
995	0.083
995	0.082
996	0.082
996	0.082
997	0.082
997	0.082
997	0.082
998	0.082
998	0.082
999	0.082
999	0.082
1000	0.083
1000	0.082
1000	0.082
1001	0.083
1001	0.083
1002	0.083
1002	0.083
1003	0.083
1003	0.083
1003	0.082
1004	0.082
1004	0.081
1005	0.08
1005	0.079
1005	0.078
1006	0.077
1006	0.076
1007	0.075
1007	0.074
1008	0.073
1008	0.073
1008	0.072
1009	0.072
1009	0.072
1010	0.072
1010	0.072
1010	0.072
1011	0.072
1011	0.072
1012	0.071
1012	0.07
1013	0.069
1013	0.068
1013	0.067
1014	0.066
1014	0.065
1015	0.064
1015	0.064
1016	0.063
1016	0.062
1016	0.062
1017	0.061
1017	0.061
1018	0.06
1018	0.059
1018	0.059
1019	0.058
1019	0.057
1020	0.057
1020	0.056
1021	0.055
1021	0.054
1021	0.053
1022	0.052
1022	0.052
1023	0.052
1023	0.051
1023	0.051
1024	0.051
1024	0.05
1025	0.05
1025	0.051
1026	0.051
1026	0.052
1026	0.052
1027	0.052
1027	0.053
1028	0.053
1028	0.053
1028	0.053
1029	0.053
1029	0.053
1030	0.053
1030	0.052
1031	0.052
1031	0.052
1031	0.052
1032	0.051
1032	0.051
1033	0.051
1033	0.051
1033	0.052
1034	0.052
1034	0.052
1035	0.052
1035	0.052
1036	0.052
1036	0.052
1036	0.051
1037	0.051
1037	0.051
1038	0.051
1038	0.052
1039	0.052
1039	0.052
1039	0.052
1040	0.053
1040	0.053
1041	0.053
1041	0.054
1041	0.054
1042	0.054
1042	0.053
1043	0.053
1043	0.052
1044	0.052
1044	0.051
1044	0.05
1045	0.05
1045	0.049
1046	0.049
1046	0.049
1046	0.048
1047	0.049
1047	0.049
1048	0.049
1048	0.05
1049	0.05
1049	0.05
1049	0.051
1050	0.051
1050	0.051
1051	0.051
1051	0.051
1051	0.051
1052	0.052
1052	0.052
1053	0.052
1053	0.052
1053	0.052
1054	0.052
1054	0.051
1055	0.051
1055	0.051
1056	0.05
1056	0.049
1056	0.048
1057	0.047
1057	0.047
1058	0.046
1058	0.045
1058	0.045
1059	0.044
1059	0.043
1060	0.043
1060	0.043
1061	0.042
1061	0.043
1061	0.043
1062	0.043
1062	0.042
1063	0.043
1063	0.043
1063	0.043
1064	0.044
1064	0.044
1065	0.044
1065	0.044
1066	0.043
1066	0.043
1066	0.043
1067	0.043
1067	0.042
1068	0.041
1068	0.041
1068	0.04
1069	0.039
1069	0.038
1070	0.038
1070	0.038
1071	0.037
1071	0.037
1071	0.036
1072	0.036
1072	0.036
1073	0.035
1073	0.035
1073	0.035
1074	0.036
1074	0.036
1075	0.035
1075	0.035
1076	0.035
1076	0.034
1076	0.034
1077	0.033
1077	0.033
1078	0.032
1078	0.031
1078	0.03
1079	0.029
1079	0.029
1080	0.028
1080	0.027
1080	0.027
1081	0.026
1081	0.026
1082	0.025
1082	0.024
1083	0.023
1083	0.022
1083	0.022
1084	0.021
1084	0.02
1085	0.019
1085	0.019
1085	0.018
1086	0.018
1086	0.018
1087	0.018
1087	0.018
1088	0.017
1088	0.017
1088	0.016
1089	0.015
1089	0.015
1090	0.014
1090	0.014
1090	0.012
1091	0.012
1091	0.011
1092	0.01
1092	0.011
1092	0.01
1093	0.009
1093	0.009
1094	0.009
1094	0.009
1095	0.008
1095	0.007
1095	0.007
1096	0.006
1096	0.005
1097	0.004
1097	0.004
1097	0.003
1098	0.001
1098	-0
1099	-0.002
1099	-0.002
1100	-0.004
1100	-0.006
1100	-0.008
1101	-0.01
1101	-0.012
1102	-0.014
1102	-0.016
1102	-0.016
1103	-0.018
1103	-0.02
1104	-0.022
1104	-0.023
1104	-0.025
1105	-0.027
1105	-0.03
1106	-0.034
1106	-0.036
1107	-0.04
1107	-0.044
1107	-0.049
1108	-0.051
1108	-0.054
1109	-0.057
1109	-0.062
1109	-0.065
1110	-0.065
1110	-0.068
1111	-0.074
1111	-0.077
