Data from 17C_3.4A_30min_2sec_int_Absorbance__386__01107.txt Node

Date: Mon Jun 19 17:03:57 CEST 2023
User: Marek
Spectrometer: MAYP115816
Trigger mode: 0
Integration Time (sec): 2.500000E-1
Scans to average: 10
Electric dark correction enabled: true
Nonlinearity correction enabled: true
Boxcar width: 5
XAxis mode: Wavelengths
Number of Pixels in Spectrum: 2068
>>>>>Begin Spectral Data<<<<<
199	-0.663
199	-0.671
200	-0.58
200	-0.526
201	-0.486
201	-0.47
202	-0.455
202	-0.442
203	-0.434
203	-0.429
204	-0.415
204	-0.401
205	-0.379
205	-0.371
205	-0.37
206	-0.372
206	-0.375
207	-0.367
207	-0.369
208	-0.371
208	-0.37
209	-0.364
209	-0.364
210	-0.366
210	-0.373
211	-0.374
211	-0.379
212	-0.381
212	-0.387
213	-0.385
213	-0.384
213	-0.387
214	-0.386
214	-0.385
215	-0.388
215	-0.394
216	-0.396
216	-0.4
217	-0.397
217	-0.4
218	-0.404
218	-0.407
219	-0.411
219	-0.42
220	-0.425
220	-0.433
221	-0.43
221	-0.435
221	-0.429
222	-0.426
222	-0.428
223	-0.431
223	-0.433
224	-0.436
224	-0.436
225	-0.432
225	-0.426
226	-0.429
226	-0.428
227	-0.433
227	-0.441
228	-0.441
228	-0.442
229	-0.442
229	-0.438
229	-0.432
230	-0.435
230	-0.437
231	-0.433
231	-0.428
232	-0.423
232	-0.425
233	-0.42
233	-0.417
234	-0.419
234	-0.413
235	-0.419
235	-0.425
236	-0.423
236	-0.426
236	-0.431
237	-0.437
237	-0.434
238	-0.442
238	-0.44
239	-0.439
239	-0.45
240	-0.446
240	-0.442
241	-0.447
241	-0.445
242	-0.449
242	-0.445
243	-0.44
243	-0.441
243	-0.448
244	-0.448
244	-0.448
245	-0.463
245	-0.462
246	-0.468
246	-0.475
247	-0.475
247	-0.481
248	-0.486
248	-0.485
249	-0.489
249	-0.497
250	-0.492
250	-0.49
250	-0.49
251	-0.488
251	-0.487
252	-0.492
252	-0.482
253	-0.487
253	-0.498
254	-0.495
254	-0.495
255	-0.505
255	-0.496
256	-0.493
256	-0.504
257	-0.498
257	-0.495
258	-0.51
258	-0.505
258	-0.5
259	-0.497
259	-0.503
260	-0.5
260	-0.507
261	-0.516
261	-0.506
262	-0.504
262	-0.504
263	-0.494
263	-0.492
264	-0.493
264	-0.502
265	-0.498
265	-0.505
265	-0.51
266	-0.508
266	-0.506
267	-0.521
267	-0.53
268	-0.545
268	-0.554
269	-0.55
269	-0.545
270	-0.552
270	-0.553
271	-0.554
271	-0.56
272	-0.565
272	-0.557
272	-0.55
273	-0.549
273	-0.556
274	-0.562
274	-0.565
275	-0.564
275	-0.558
276	-0.562
276	-0.554
277	-0.561
277	-0.579
278	-0.59
278	-0.582
278	-0.576
279	-0.581
279	-0.594
280	-0.591
280	-0.594
281	-0.588
281	-0.596
282	-0.585
282	-0.587
283	-0.576
283	-0.581
284	-0.577
284	-0.567
285	-0.56
285	-0.558
285	-0.553
286	-0.56
286	-0.554
287	-0.552
287	-0.535
288	-0.53
288	-0.538
289	-0.549
289	-0.558
290	-0.545
290	-0.545
291	-0.542
291	-0.536
292	-0.538
292	-0.542
292	-0.547
293	-0.551
293	-0.54
294	-0.53
294	-0.52
295	-0.521
295	-0.518
296	-0.518
296	-0.515
297	-0.508
297	-0.493
298	-0.484
298	-0.492
298	-0.48
299	-0.472
299	-0.471
300	-0.466
300	-0.459
301	-0.454
301	-0.454
302	-0.461
302	-0.47
303	-0.461
303	-0.446
304	-0.45
304	-0.45
305	-0.452
305	-0.45
305	-0.45
306	-0.433
306	-0.429
307	-0.416
307	-0.418
308	-0.429
308	-0.428
309	-0.43
309	-0.421
310	-0.412
310	-0.41
311	-0.401
311	-0.409
311	-0.404
312	-0.402
312	-0.4
313	-0.385
313	-0.386
314	-0.385
314	-0.39
315	-0.39
315	-0.385
316	-0.383
316	-0.376
317	-0.372
317	-0.367
318	-0.356
318	-0.355
318	-0.351
319	-0.34
319	-0.336
320	-0.33
320	-0.332
321	-0.338
321	-0.338
322	-0.331
322	-0.325
323	-0.326
323	-0.321
324	-0.313
324	-0.305
324	-0.295
325	-0.286
325	-0.271
326	-0.256
326	-0.239
327	-0.223
327	-0.206
328	-0.18
328	-0.161
329	-0.141
329	-0.118
330	-0.093
330	-0.062
330	-0.038
331	-0.012
331	0.012
332	0.033
332	0.055
333	0.074
333	0.094
334	0.112
334	0.127
335	0.142
335	0.155
336	0.167
336	0.178
336	0.187
337	0.197
337	0.204
338	0.211
338	0.216
339	0.223
339	0.227
340	0.231
340	0.234
341	0.237
341	0.239
342	0.242
342	0.245
342	0.247
343	0.249
343	0.251
344	0.252
344	0.253
345	0.254
345	0.255
346	0.256
346	0.257
347	0.257
347	0.258
348	0.258
348	0.258
348	0.259
349	0.259
349	0.259
350	0.259
350	0.26
351	0.26
351	0.259
352	0.26
352	0.26
353	0.26
353	0.26
354	0.259
354	0.259
354	0.259
355	0.259
355	0.259
356	0.259
356	0.258
357	0.258
357	0.258
358	0.257
358	0.257
359	0.257
359	0.257
360	0.256
360	0.256
360	0.256
361	0.256
361	0.256
362	0.256
362	0.256
363	0.256
363	0.256
364	0.256
364	0.256
365	0.255
365	0.255
366	0.255
366	0.255
366	0.255
367	0.255
367	0.255
368	0.255
368	0.254
369	0.254
369	0.254
370	0.254
370	0.254
371	0.254
371	0.253
372	0.253
372	0.253
372	0.253
373	0.253
373	0.253
374	0.253
374	0.253
375	0.253
375	0.253
376	0.253
376	0.253
377	0.253
377	0.253
378	0.252
378	0.252
378	0.252
379	0.252
379	0.252
380	0.251
380	0.251
381	0.251
381	0.251
382	0.251
382	0.251
383	0.25
383	0.25
383	0.25
384	0.25
384	0.25
385	0.25
385	0.25
386	0.249
386	0.249
387	0.249
387	0.249
388	0.249
388	0.249
389	0.249
389	0.249
389	0.249
390	0.249
390	0.249
391	0.249
391	0.249
392	0.248
392	0.248
393	0.248
393	0.248
394	0.248
394	0.247
394	0.247
395	0.247
395	0.247
396	0.246
396	0.246
397	0.246
397	0.246
398	0.246
398	0.246
399	0.246
399	0.246
400	0.246
400	0.245
400	0.245
401	0.245
401	0.245
402	0.245
402	0.245
403	0.245
403	0.244
404	0.244
404	0.244
405	0.244
405	0.244
405	0.243
406	0.243
406	0.243
407	0.243
407	0.243
408	0.243
408	0.243
409	0.243
409	0.243
410	0.243
410	0.243
411	0.243
411	0.243
411	0.243
412	0.243
412	0.243
413	0.242
413	0.242
414	0.242
414	0.242
415	0.242
415	0.241
416	0.241
416	0.241
416	0.241
417	0.241
417	0.241
418	0.241
418	0.241
419	0.241
419	0.241
420	0.241
420	0.241
421	0.241
421	0.241
421	0.241
422	0.241
422	0.241
423	0.241
423	0.241
424	0.24
424	0.24
425	0.24
425	0.24
426	0.239
426	0.239
427	0.239
427	0.239
427	0.239
428	0.238
428	0.238
429	0.238
429	0.238
430	0.238
430	0.238
431	0.238
431	0.238
432	0.238
432	0.238
432	0.237
433	0.237
433	0.237
434	0.237
434	0.237
435	0.237
435	0.236
436	0.236
436	0.236
437	0.236
437	0.236
437	0.236
438	0.236
438	0.236
439	0.236
439	0.236
440	0.236
440	0.236
441	0.236
441	0.236
442	0.235
442	0.235
442	0.235
443	0.235
443	0.235
444	0.235
444	0.235
445	0.236
445	0.236
446	0.236
446	0.236
447	0.236
447	0.237
447	0.237
448	0.237
448	0.236
449	0.236
449	0.237
450	0.237
450	0.236
451	0.236
451	0.236
452	0.236
452	0.236
452	0.236
453	0.236
453	0.236
454	0.236
454	0.236
455	0.235
455	0.235
456	0.235
456	0.235
457	0.235
457	0.235
458	0.235
458	0.235
458	0.236
459	0.236
459	0.236
460	0.235
460	0.235
461	0.235
461	0.235
462	0.235
462	0.235
463	0.235
463	0.236
463	0.235
464	0.235
464	0.235
465	0.236
465	0.236
466	0.236
466	0.236
467	0.236
467	0.237
467	0.237
468	0.237
468	0.237
469	0.237
469	0.238
470	0.238
470	0.239
471	0.239
471	0.239
472	0.239
472	0.239
472	0.24
473	0.24
473	0.24
474	0.241
474	0.241
475	0.241
475	0.242
476	0.242
476	0.242
477	0.243
477	0.243
477	0.243
478	0.244
478	0.244
479	0.244
479	0.245
480	0.245
480	0.245
481	0.246
481	0.246
482	0.247
482	0.247
482	0.248
483	0.249
483	0.25
484	0.25
484	0.25
485	0.251
485	0.252
486	0.252
486	0.253
487	0.253
487	0.254
487	0.255
488	0.255
488	0.256
489	0.258
489	0.259
490	0.261
490	0.262
491	0.263
491	0.264
492	0.265
492	0.266
492	0.267
493	0.268
493	0.269
494	0.27
494	0.271
495	0.272
495	0.273
496	0.274
496	0.275
496	0.277
497	0.279
497	0.28
498	0.281
498	0.283
499	0.284
499	0.286
500	0.287
500	0.289
501	0.29
501	0.291
501	0.292
502	0.293
502	0.294
503	0.296
503	0.297
504	0.299
504	0.3
505	0.302
505	0.303
506	0.305
506	0.306
506	0.307
507	0.309
507	0.311
508	0.312
508	0.314
509	0.315
509	0.317
510	0.319
510	0.32
511	0.322
511	0.323
511	0.325
512	0.326
512	0.328
513	0.329
513	0.33
514	0.332
514	0.333
515	0.335
515	0.336
515	0.337
516	0.339
516	0.34
517	0.342
517	0.343
518	0.345
518	0.346
519	0.348
519	0.349
520	0.35
520	0.352
520	0.354
521	0.355
521	0.356
522	0.357
522	0.359
523	0.36
523	0.361
524	0.361
524	0.362
524	0.363
525	0.363
525	0.363
526	0.364
526	0.365
527	0.365
527	0.366
528	0.366
528	0.367
529	0.367
529	0.368
529	0.369
530	0.37
530	0.37
531	0.37
531	0.371
532	0.371
532	0.371
533	0.372
533	0.372
533	0.372
534	0.372
534	0.372
535	0.371
535	0.371
536	0.371
536	0.37
537	0.37
537	0.37
538	0.369
538	0.369
538	0.369
539	0.369
539	0.368
540	0.368
540	0.367
541	0.367
541	0.366
542	0.366
542	0.365
542	0.365
543	0.364
543	0.363
544	0.362
544	0.362
545	0.362
545	0.361
546	0.361
546	0.36
547	0.359
547	0.358
547	0.358
548	0.357
548	0.356
549	0.356
549	0.355
550	0.354
550	0.353
551	0.352
551	0.352
551	0.352
552	0.352
552	0.352
553	0.351
553	0.351
554	0.351
554	0.35
555	0.349
555	0.348
556	0.347
556	0.347
556	0.346
557	0.345
557	0.344
558	0.343
558	0.342
559	0.341
559	0.34
560	0.339
560	0.338
560	0.337
561	0.337
561	0.336
562	0.334
562	0.334
563	0.333
563	0.332
564	0.331
564	0.33
564	0.33
565	0.329
565	0.329
566	0.328
566	0.327
567	0.327
567	0.326
568	0.325
568	0.323
568	0.322
569	0.322
569	0.321
570	0.319
570	0.318
571	0.317
571	0.317
572	0.316
572	0.315
573	0.314
573	0.313
573	0.313
574	0.312
574	0.311
575	0.311
575	0.311
576	0.31
576	0.309
577	0.308
577	0.308
577	0.308
578	0.308
578	0.308
579	0.308
579	0.308
580	0.306
580	0.305
581	0.304
581	0.304
581	0.304
582	0.304
582	0.303
583	0.303
583	0.302
584	0.301
584	0.3
585	0.3
585	0.3
585	0.3
586	0.3
586	0.3
587	0.299
587	0.299
588	0.298
588	0.298
589	0.298
589	0.298
590	0.298
590	0.297
590	0.298
591	0.298
591	0.297
592	0.296
592	0.296
593	0.296
593	0.296
594	0.295
594	0.295
594	0.295
595	0.295
595	0.294
596	0.294
596	0.295
597	0.295
597	0.295
598	0.294
598	0.294
598	0.293
599	0.293
599	0.292
600	0.291
600	0.29
601	0.29
601	0.289
602	0.288
602	0.288
602	0.288
603	0.288
603	0.289
604	0.289
604	0.29
605	0.29
605	0.29
606	0.289
606	0.289
606	0.288
607	0.288
607	0.287
608	0.286
608	0.285
609	0.285
609	0.285
610	0.284
610	0.284
610	0.284
611	0.284
611	0.284
612	0.284
612	0.285
613	0.285
613	0.284
614	0.283
614	0.282
614	0.282
615	0.281
615	0.28
616	0.28
616	0.279
617	0.278
617	0.277
618	0.276
618	0.276
618	0.275
619	0.275
619	0.275
620	0.275
620	0.274
621	0.274
621	0.273
622	0.272
622	0.272
622	0.271
623	0.27
623	0.27
624	0.27
624	0.269
625	0.268
625	0.268
626	0.267
626	0.267
626	0.266
627	0.266
627	0.264
628	0.263
628	0.262
629	0.26
629	0.258
630	0.257
630	0.255
630	0.253
631	0.251
631	0.249
632	0.247
632	0.244
633	0.242
633	0.239
634	0.237
634	0.234
634	0.232
635	0.229
635	0.225
636	0.222
636	0.218
637	0.215
637	0.211
638	0.207
638	0.203
638	0.198
639	0.193
639	0.189
640	0.184
640	0.179
641	0.174
641	0.169
642	0.164
642	0.159
642	0.154
643	0.149
643	0.143
644	0.137
644	0.131
645	0.125
645	0.119
646	0.113
646	0.107
646	0.1
647	0.094
647	0.088
648	0.081
648	0.075
649	0.067
649	0.06
650	0.052
650	0.044
650	0.036
651	0.027
651	0.015
652	0
652	-0.015
653	-0.028
653	-0.041
653	-0.037
654	-0.018
654	-0.008
655	-0.011
655	-0.016
656	-0.023
656	-0.029
657	-0.034
657	-0.037
657	-0.044
658	-0.05
658	-0.078
659	-0.16
659	-0.257
660	-0.301
660	-0.327
661	-0.354
661	-0.386
661	-0.42
662	-0.454
662	-0.489
663	-0.53
663	-0.574
664	-0.622
664	-0.675
665	-0.728
665	-0.789
665	-0.847
666	-0.906
666	-0.97
667	-1.037
667	-1.104
668	-1.179
668	-1.254
669	-1.33
669	-1.407
669	-1.488
670	-1.564
670	-1.623
671	-1.827
671	-2.048
672	-2.253
672	-2.432
672	-2.553
673	-2.64
673	-2.716
674	-2.75
674	-2.767
675	-2.79
675	-2.927
676	-3.106
676	-3.056
676	-2.829
677	-2.621
677	-2.452
678	-2.263
678	-1.922
679	-1.687
679	-1.564
680	-1.472
680	-1.39
680	-1.321
681	-1.277
681	-1.218
682	-1.178
682	-1.141
683	-1.106
683	-1.087
684	-1.065
684	-1.044
684	-1.021
685	-0.995
685	-0.972
686	-0.946
686	-0.928
687	-0.901
687	-0.886
687	-0.866
688	-0.839
688	-0.818
689	-0.797
689	-0.782
690	-0.762
690	-0.748
691	-0.742
691	-0.746
691	-0.761
692	-0.753
692	-0.742
693	-0.735
693	-0.741
694	-0.736
694	-0.727
695	-0.732
695	-0.728
695	-0.711
696	-0.706
696	-0.684
697	-0.682
697	-0.699
698	-0.703
698	-0.692
698	-0.705
699	-0.709
699	-0.704
700	-0.696
700	-0.71
701	-0.708
701	-0.714
702	-0.714
702	-0.701
702	-0.693
703	-0.688
703	-0.678
704	-0.673
704	-0.673
705	-0.683
705	-0.676
705	-0.665
706	-0.665
706	-0.659
707	-0.661
707	-0.655
708	-0.653
708	-0.645
709	-0.649
709	-0.653
709	-0.643
710	-0.651
710	-0.661
711	-0.653
711	-0.653
712	-0.654
712	-0.666
713	-0.666
713	-0.672
713	-0.663
714	-0.656
714	-0.658
715	-0.648
715	-0.632
716	-0.638
716	-0.641
716	-0.632
717	-0.633
717	-0.635
718	-0.627
718	-0.627
719	-0.634
719	-0.635
720	-0.63
720	-0.638
720	-0.631
721	-0.617
721	-0.619
722	-0.606
722	-0.594
723	-0.591
723	-0.593
723	-0.579
724	-0.58
724	-0.584
725	-0.584
725	-0.594
726	-0.61
726	-0.616
727	-0.622
727	-0.636
727	-0.643
728	-0.644
728	-0.651
729	-0.653
729	-0.657
730	-0.664
730	-0.657
730	-0.645
731	-0.63
731	-0.639
732	-0.645
732	-0.646
733	-0.646
733	-0.652
734	-0.643
734	-0.643
734	-0.629
735	-0.628
735	-0.629
736	-0.637
736	-0.624
737	-0.617
737	-0.619
737	-0.626
738	-0.621
738	-0.625
739	-0.624
739	-0.64
740	-0.639
740	-0.637
741	-0.633
741	-0.633
741	-0.636
742	-0.631
742	-0.632
743	-0.64
743	-0.644
744	-0.638
744	-0.628
744	-0.63
745	-0.637
745	-0.63
746	-0.63
746	-0.624
747	-0.628
747	-0.615
748	-0.602
748	-0.606
748	-0.607
749	-0.604
749	-0.605
750	-0.594
750	-0.596
751	-0.6
751	-0.611
751	-0.611
752	-0.615
752	-0.622
753	-0.617
753	-0.615
754	-0.621
754	-0.615
754	-0.629
755	-0.643
755	-0.652
756	-0.64
756	-0.638
757	-0.636
757	-0.635
758	-0.637
758	-0.633
758	-0.636
759	-0.641
759	-0.628
760	-0.621
760	-0.618
761	-0.628
761	-0.626
761	-0.625
762	-0.633
762	-0.632
763	-0.644
763	-0.64
764	-0.638
764	-0.643
764	-0.648
765	-0.639
765	-0.627
766	-0.634
766	-0.641
767	-0.655
767	-0.65
768	-0.64
768	-0.648
768	-0.652
769	-0.671
769	-0.672
770	-0.676
770	-0.688
771	-0.683
771	-0.687
771	-0.69
772	-0.692
772	-0.691
773	-0.693
773	-0.688
774	-0.684
774	-0.685
775	-0.688
775	-0.682
775	-0.69
776	-0.687
776	-0.677
777	-0.686
777	-0.706
778	-0.702
778	-0.723
778	-0.71
779	-0.732
779	-0.737
780	-0.753
780	-0.752
781	-0.766
781	-0.759
781	-0.776
782	-0.775
782	-0.778
783	-0.765
783	-0.765
784	-0.747
784	-0.739
784	-0.747
785	-0.754
785	-0.738
786	-0.745
786	-0.72
787	-0.703
787	-0.704
788	-0.708
788	-0.717
788	-0.726
789	-0.727
789	-0.706
790	-0.688
790	-0.69
791	-0.69
791	-0.709
791	-0.716
792	-0.709
792	-0.683
793	-0.675
793	-0.652
794	-0.656
794	-0.648
794	-0.655
795	-0.653
795	-0.644
796	-0.627
796	-0.636
797	-0.632
797	-0.645
797	-0.647
798	-0.662
798	-0.656
799	-0.667
799	-0.655
800	-0.658
800	-0.652
801	-0.657
801	-0.64
801	-0.649
802	-0.656
802	-0.657
803	-0.656
803	-0.664
804	-0.66
804	-0.672
804	-0.661
805	-0.666
805	-0.656
806	-0.658
806	-0.645
807	-0.645
807	-0.628
807	-0.617
808	-0.608
808	-0.602
809	-0.588
809	-0.596
810	-0.595
810	-0.588
810	-0.587
811	-0.592
811	-0.58
812	-0.584
812	-0.584
813	-0.588
813	-0.584
813	-0.589
814	-0.591
814	-0.593
815	-0.596
815	-0.597
816	-0.59
816	-0.599
817	-0.603
817	-0.623
817	-0.636
818	-0.645
818	-0.644
819	-0.636
819	-0.637
820	-0.647
820	-0.645
820	-0.657
821	-0.654
821	-0.641
822	-0.61
822	-0.59
823	-0.585
823	-0.591
823	-0.589
824	-0.585
824	-0.587
825	-0.58
825	-0.561
826	-0.556
826	-0.564
826	-0.575
827	-0.567
827	-0.564
828	-0.543
828	-0.544
829	-0.534
829	-0.517
829	-0.51
830	-0.519
830	-0.516
831	-0.511
831	-0.5
832	-0.5
832	-0.491
832	-0.5
833	-0.494
833	-0.495
834	-0.495
834	-0.503
835	-0.49
835	-0.484
835	-0.479
836	-0.477
836	-0.473
837	-0.473
837	-0.463
838	-0.453
838	-0.442
839	-0.43
839	-0.418
839	-0.409
840	-0.399
840	-0.395
841	-0.383
841	-0.376
842	-0.369
842	-0.36
842	-0.354
843	-0.349
843	-0.344
844	-0.336
844	-0.331
845	-0.321
845	-0.312
845	-0.3
846	-0.288
846	-0.276
847	-0.266
847	-0.256
848	-0.244
848	-0.235
848	-0.22
849	-0.209
849	-0.2
850	-0.187
850	-0.182
851	-0.174
851	-0.165
851	-0.156
852	-0.142
852	-0.13
853	-0.122
853	-0.118
854	-0.108
854	-0.096
854	-0.087
855	-0.077
855	-0.071
856	-0.061
856	-0.054
857	-0.048
857	-0.039
857	-0.028
858	-0.017
858	-0.012
859	-0.006
859	0.003
860	0.01
860	0.021
860	0.029
861	0.037
861	0.044
862	0.048
862	0.053
863	0.059
863	0.067
863	0.071
864	0.075
864	0.081
865	0.085
865	0.089
866	0.093
866	0.095
866	0.098
867	0.1
867	0.103
868	0.105
868	0.108
869	0.111
869	0.114
869	0.116
870	0.118
870	0.121
871	0.123
871	0.125
872	0.126
872	0.127
872	0.127
873	0.128
873	0.128
874	0.128
874	0.128
875	0.127
875	0.126
875	0.125
876	0.124
876	0.123
877	0.122
877	0.12
878	0.119
878	0.117
878	0.115
879	0.113
879	0.111
880	0.11
880	0.11
881	0.109
881	0.109
881	0.109
882	0.109
882	0.109
883	0.108
883	0.107
884	0.107
884	0.106
884	0.105
885	0.105
885	0.104
886	0.103
886	0.102
887	0.102
887	0.101
887	0.101
888	0.101
888	0.101
889	0.101
889	0.101
890	0.101
890	0.102
890	0.102
891	0.102
891	0.101
892	0.101
892	0.102
893	0.102
893	0.101
893	0.101
894	0.101
894	0.101
895	0.1
895	0.1
895	0.1
896	0.099
896	0.098
897	0.096
897	0.095
898	0.094
898	0.093
898	0.093
899	0.093
899	0.094
900	0.094
900	0.094
901	0.095
901	0.095
901	0.096
902	0.097
902	0.097
903	0.097
903	0.098
904	0.098
904	0.098
904	0.099
905	0.1
905	0.1
906	0.1
906	0.1
907	0.1
907	0.1
907	0.1
908	0.1
908	0.099
909	0.099
909	0.098
910	0.098
910	0.097
910	0.097
911	0.097
911	0.097
912	0.098
912	0.098
913	0.099
913	0.099
913	0.1
914	0.101
914	0.101
915	0.101
915	0.102
916	0.102
916	0.102
916	0.102
917	0.101
917	0.101
918	0.101
918	0.1
918	0.099
919	0.099
919	0.098
920	0.098
920	0.098
921	0.098
921	0.098
921	0.098
922	0.098
922	0.098
923	0.098
923	0.098
924	0.098
924	0.098
924	0.097
925	0.096
925	0.095
926	0.095
926	0.094
927	0.093
927	0.093
927	0.093
928	0.092
928	0.092
929	0.092
929	0.092
930	0.091
930	0.091
930	0.091
931	0.091
931	0.091
932	0.09
932	0.089
933	0.088
933	0.087
933	0.085
934	0.084
934	0.082
935	0.081
935	0.08
935	0.079
936	0.078
936	0.076
937	0.076
937	0.075
938	0.076
938	0.076
938	0.076
939	0.077
939	0.078
940	0.078
940	0.079
941	0.08
941	0.08
941	0.081
942	0.082
942	0.083
943	0.083
943	0.083
944	0.082
944	0.082
944	0.082
945	0.081
945	0.08
946	0.08
946	0.079
946	0.078
947	0.077
947	0.077
948	0.077
948	0.077
949	0.078
949	0.078
949	0.079
950	0.08
950	0.08
951	0.081
951	0.082
952	0.083
952	0.084
952	0.084
953	0.084
953	0.085
954	0.086
954	0.086
955	0.087
955	0.089
955	0.09
956	0.09
956	0.091
957	0.091
957	0.092
957	0.092
958	0.092
958	0.092
959	0.092
959	0.092
960	0.092
960	0.091
960	0.092
961	0.091
961	0.091
962	0.091
962	0.09
963	0.09
963	0.09
963	0.09
964	0.09
964	0.09
965	0.09
965	0.09
966	0.09
966	0.089
966	0.089
967	0.089
967	0.089
968	0.088
968	0.088
968	0.087
969	0.086
969	0.086
970	0.086
970	0.086
971	0.086
971	0.086
971	0.086
972	0.087
972	0.087
973	0.087
973	0.087
974	0.087
974	0.087
974	0.086
975	0.086
975	0.085
976	0.084
976	0.083
976	0.083
977	0.082
977	0.082
978	0.082
978	0.081
979	0.081
979	0.08
979	0.08
980	0.079
980	0.079
981	0.079
981	0.078
982	0.078
982	0.077
982	0.077
983	0.077
983	0.077
984	0.077
984	0.077
984	0.078
985	0.078
985	0.079
986	0.079
986	0.079
987	0.08
987	0.08
987	0.08
988	0.079
988	0.078
989	0.078
989	0.077
990	0.076
990	0.075
990	0.074
991	0.073
991	0.073
992	0.072
992	0.072
992	0.072
993	0.072
993	0.072
994	0.072
994	0.072
995	0.072
995	0.071
995	0.071
996	0.071
996	0.07
997	0.07
997	0.07
997	0.07
998	0.07
998	0.07
999	0.071
999	0.071
1000	0.071
1000	0.071
1000	0.071
1001	0.072
1001	0.072
1002	0.072
1002	0.072
1003	0.072
1003	0.071
1003	0.071
1004	0.07
1004	0.069
1005	0.069
1005	0.068
1005	0.067
1006	0.066
1006	0.065
1007	0.064
1007	0.063
1008	0.062
1008	0.062
1008	0.062
1009	0.062
1009	0.062
1010	0.062
1010	0.062
1010	0.062
1011	0.062
1011	0.061
1012	0.061
1012	0.06
1013	0.059
1013	0.057
1013	0.056
1014	0.055
1014	0.054
1015	0.053
1015	0.052
1016	0.051
1016	0.05
1016	0.05
1017	0.049
1017	0.048
1018	0.048
1018	0.047
1018	0.046
1019	0.046
1019	0.045
1020	0.045
1020	0.044
1021	0.044
1021	0.043
1021	0.042
1022	0.041
1022	0.041
1023	0.041
1023	0.04
1023	0.04
1024	0.04
1024	0.04
1025	0.04
1025	0.04
1026	0.041
1026	0.041
1026	0.042
1027	0.042
1027	0.043
1028	0.043
1028	0.043
1028	0.043
1029	0.043
1029	0.043
1030	0.042
1030	0.041
1031	0.041
1031	0.041
1031	0.041
1032	0.041
1032	0.04
1033	0.041
1033	0.041
1033	0.041
1034	0.041
1034	0.041
1035	0.042
1035	0.042
1036	0.042
1036	0.042
1036	0.041
1037	0.041
1037	0.041
1038	0.041
1038	0.041
1039	0.041
1039	0.041
1039	0.042
1040	0.042
1040	0.042
1041	0.043
1041	0.043
1041	0.043
1042	0.043
1042	0.043
1043	0.042
1043	0.042
1044	0.042
1044	0.041
1044	0.04
1045	0.039
1045	0.039
1046	0.039
1046	0.038
1046	0.039
1047	0.039
1047	0.039
1048	0.039
1048	0.04
1049	0.04
1049	0.041
1049	0.041
1050	0.042
1050	0.042
1051	0.042
1051	0.042
1051	0.042
1052	0.043
1052	0.043
1053	0.043
1053	0.043
1053	0.043
1054	0.042
1054	0.042
1055	0.042
1055	0.041
1056	0.04
1056	0.04
1056	0.038
1057	0.037
1057	0.037
1058	0.036
1058	0.036
1058	0.035
1059	0.035
1059	0.034
1060	0.034
1060	0.034
1061	0.034
1061	0.034
1061	0.034
1062	0.034
1062	0.034
1063	0.034
1063	0.035
1063	0.035
1064	0.036
1064	0.035
1065	0.035
1065	0.035
1066	0.034
1066	0.034
1066	0.034
1067	0.033
1067	0.033
1068	0.032
1068	0.031
1068	0.03
1069	0.03
1069	0.029
1070	0.029
1070	0.029
1071	0.028
1071	0.028
1071	0.028
1072	0.028
1072	0.028
1073	0.027
1073	0.027
1073	0.027
1074	0.027
1074	0.027
1075	0.027
1075	0.027
1076	0.026
1076	0.026
1076	0.026
1077	0.025
1077	0.025
1078	0.024
1078	0.024
1078	0.023
1079	0.022
1079	0.021
1080	0.02
1080	0.019
1080	0.018
1081	0.017
1081	0.017
1082	0.016
1082	0.015
1083	0.015
1083	0.014
1083	0.014
1084	0.013
1084	0.013
1085	0.012
1085	0.011
1085	0.011
1086	0.01
1086	0.01
1087	0.01
1087	0.01
1088	0.009
1088	0.009
1088	0.008
1089	0.007
1089	0.007
1090	0.006
1090	0.006
1090	0.005
1091	0.004
1091	0.003
1092	0.002
1092	0.003
1092	0.002
1093	0.001
1093	0.001
1094	0.001
1094	0.001
1095	-0.001
1095	-0.001
1095	-0.001
1096	-0.001
1096	-0.001
1097	-0.001
1097	-0.001
1097	-0.001
1098	-0.003
1098	-0.004
1099	-0.005
1099	-0.005
1100	-0.006
1100	-0.008
1100	-0.011
1101	-0.013
1101	-0.016
1102	-0.018
1102	-0.02
1102	-0.02
1103	-0.022
1103	-0.025
1104	-0.026
1104	-0.028
1104	-0.03
1105	-0.03
1105	-0.032
1106	-0.036
1106	-0.037
1107	-0.041
1107	-0.045
1107	-0.049
1108	-0.051
1108	-0.053
1109	-0.056
1109	-0.06
1109	-0.063
1110	-0.063
1110	-0.066
1111	-0.073
1111	-0.074
