Data from 17C_3.4A_30min_2sec_int_Absorbance__9__00730.txt Node

Date: Mon Jun 19 16:48:15 CEST 2023
User: Marek
Spectrometer: MAYP115816
Trigger mode: 0
Integration Time (sec): 2.500000E-1
Scans to average: 10
Electric dark correction enabled: true
Nonlinearity correction enabled: true
Boxcar width: 5
XAxis mode: Wavelengths
Number of Pixels in Spectrum: 2068
>>>>>Begin Spectral Data<<<<<
199	-0.621
199	-0.634
200	-0.537
200	-0.486
201	-0.453
201	-0.44
202	-0.419
202	-0.406
203	-0.399
203	-0.393
204	-0.38
204	-0.368
205	-0.346
205	-0.341
205	-0.34
206	-0.343
206	-0.346
207	-0.337
207	-0.338
208	-0.339
208	-0.337
209	-0.332
209	-0.333
210	-0.338
210	-0.343
211	-0.343
211	-0.341
212	-0.343
212	-0.352
213	-0.355
213	-0.355
213	-0.364
214	-0.361
214	-0.359
215	-0.358
215	-0.364
216	-0.367
216	-0.374
217	-0.367
217	-0.368
218	-0.37
218	-0.368
219	-0.369
219	-0.377
220	-0.383
220	-0.392
221	-0.39
221	-0.394
221	-0.388
222	-0.388
222	-0.391
223	-0.393
223	-0.398
224	-0.402
224	-0.402
225	-0.395
225	-0.39
226	-0.395
226	-0.397
227	-0.405
227	-0.412
228	-0.412
228	-0.413
229	-0.413
229	-0.408
229	-0.402
230	-0.406
230	-0.408
231	-0.401
231	-0.389
232	-0.38
232	-0.381
233	-0.372
233	-0.37
234	-0.369
234	-0.364
235	-0.369
235	-0.376
236	-0.375
236	-0.38
236	-0.388
237	-0.395
237	-0.394
238	-0.405
238	-0.403
239	-0.403
239	-0.413
240	-0.414
240	-0.411
241	-0.415
241	-0.413
242	-0.418
242	-0.414
243	-0.411
243	-0.41
243	-0.419
244	-0.417
244	-0.415
245	-0.428
245	-0.428
246	-0.437
246	-0.44
247	-0.442
247	-0.445
248	-0.449
248	-0.448
249	-0.448
249	-0.458
250	-0.457
250	-0.45
250	-0.45
251	-0.444
251	-0.444
252	-0.447
252	-0.439
253	-0.444
253	-0.456
254	-0.455
254	-0.453
255	-0.46
255	-0.454
256	-0.45
256	-0.459
257	-0.458
257	-0.455
258	-0.472
258	-0.47
258	-0.463
259	-0.46
259	-0.468
260	-0.469
260	-0.472
261	-0.484
261	-0.477
262	-0.473
262	-0.473
263	-0.462
263	-0.456
264	-0.459
264	-0.467
265	-0.462
265	-0.469
265	-0.472
266	-0.47
266	-0.468
267	-0.482
267	-0.489
268	-0.501
268	-0.511
269	-0.507
269	-0.502
270	-0.509
270	-0.514
271	-0.512
271	-0.517
272	-0.518
272	-0.511
272	-0.503
273	-0.502
273	-0.51
274	-0.517
274	-0.517
275	-0.515
275	-0.505
276	-0.512
276	-0.504
277	-0.51
277	-0.526
278	-0.538
278	-0.534
278	-0.526
279	-0.527
279	-0.54
280	-0.537
280	-0.536
281	-0.53
281	-0.537
282	-0.532
282	-0.53
283	-0.518
283	-0.52
284	-0.515
284	-0.501
285	-0.496
285	-0.494
285	-0.493
286	-0.5
286	-0.494
287	-0.488
287	-0.478
288	-0.472
288	-0.478
289	-0.49
289	-0.5
290	-0.49
290	-0.487
291	-0.482
291	-0.473
292	-0.477
292	-0.486
292	-0.489
293	-0.497
293	-0.484
294	-0.475
294	-0.469
295	-0.467
295	-0.464
296	-0.463
296	-0.464
297	-0.458
297	-0.444
298	-0.435
298	-0.443
298	-0.435
299	-0.427
299	-0.428
300	-0.422
300	-0.419
301	-0.414
301	-0.413
302	-0.42
302	-0.426
303	-0.414
303	-0.402
304	-0.402
304	-0.402
305	-0.404
305	-0.404
305	-0.403
306	-0.387
306	-0.382
307	-0.37
307	-0.372
308	-0.384
308	-0.379
309	-0.381
309	-0.371
310	-0.361
310	-0.357
311	-0.351
311	-0.36
311	-0.356
312	-0.351
312	-0.349
313	-0.337
313	-0.337
314	-0.336
314	-0.338
315	-0.341
315	-0.339
316	-0.332
316	-0.322
317	-0.316
317	-0.311
318	-0.298
318	-0.297
318	-0.294
319	-0.282
319	-0.276
320	-0.268
320	-0.271
321	-0.277
321	-0.276
322	-0.271
322	-0.266
323	-0.268
323	-0.26
324	-0.253
324	-0.247
324	-0.24
325	-0.229
325	-0.21
326	-0.194
326	-0.18
327	-0.163
327	-0.144
328	-0.119
328	-0.098
329	-0.077
329	-0.054
330	-0.027
330	0.003
330	0.028
331	0.054
331	0.083
332	0.104
332	0.126
333	0.146
333	0.168
334	0.188
334	0.204
335	0.22
335	0.234
336	0.247
336	0.259
336	0.268
337	0.281
337	0.288
338	0.296
338	0.3
339	0.306
339	0.312
340	0.316
340	0.321
341	0.324
341	0.327
342	0.33
342	0.332
342	0.335
343	0.337
343	0.34
344	0.342
344	0.343
345	0.344
345	0.345
346	0.345
346	0.346
347	0.347
347	0.347
348	0.347
348	0.348
348	0.348
349	0.348
349	0.349
350	0.349
350	0.349
351	0.349
351	0.349
352	0.349
352	0.349
353	0.349
353	0.349
354	0.348
354	0.348
354	0.348
355	0.348
355	0.348
356	0.348
356	0.348
357	0.346
357	0.346
358	0.346
358	0.346
359	0.345
359	0.345
360	0.345
360	0.345
360	0.344
361	0.344
361	0.344
362	0.344
362	0.344
363	0.344
363	0.344
364	0.344
364	0.344
365	0.344
365	0.343
366	0.343
366	0.343
366	0.343
367	0.343
367	0.343
368	0.342
368	0.342
369	0.342
369	0.342
370	0.342
370	0.341
371	0.341
371	0.341
372	0.341
372	0.341
372	0.341
373	0.34
373	0.34
374	0.34
374	0.34
375	0.339
375	0.339
376	0.339
376	0.339
377	0.339
377	0.339
378	0.338
378	0.339
378	0.338
379	0.338
379	0.338
380	0.337
380	0.337
381	0.337
381	0.337
382	0.337
382	0.336
383	0.336
383	0.336
383	0.336
384	0.336
384	0.335
385	0.335
385	0.335
386	0.335
386	0.335
387	0.334
387	0.334
388	0.334
388	0.334
389	0.333
389	0.333
389	0.333
390	0.333
390	0.333
391	0.333
391	0.333
392	0.332
392	0.332
393	0.332
393	0.332
394	0.332
394	0.331
394	0.331
395	0.33
395	0.33
396	0.33
396	0.33
397	0.329
397	0.329
398	0.329
398	0.328
399	0.328
399	0.328
400	0.328
400	0.327
400	0.327
401	0.327
401	0.326
402	0.326
402	0.326
403	0.325
403	0.325
404	0.325
404	0.325
405	0.325
405	0.325
405	0.324
406	0.324
406	0.324
407	0.324
407	0.323
408	0.323
408	0.323
409	0.323
409	0.323
410	0.323
410	0.322
411	0.322
411	0.322
411	0.322
412	0.322
412	0.321
413	0.321
413	0.321
414	0.32
414	0.32
415	0.319
415	0.319
416	0.319
416	0.318
416	0.318
417	0.318
417	0.318
418	0.318
418	0.318
419	0.318
419	0.318
420	0.318
420	0.318
421	0.318
421	0.318
421	0.318
422	0.318
422	0.318
423	0.318
423	0.317
424	0.317
424	0.317
425	0.317
425	0.316
426	0.316
426	0.316
427	0.316
427	0.315
427	0.315
428	0.315
428	0.315
429	0.315
429	0.314
430	0.314
430	0.314
431	0.314
431	0.313
432	0.313
432	0.313
432	0.313
433	0.313
433	0.312
434	0.312
434	0.312
435	0.312
435	0.312
436	0.312
436	0.312
437	0.312
437	0.312
437	0.312
438	0.311
438	0.312
439	0.311
439	0.311
440	0.311
440	0.311
441	0.311
441	0.311
442	0.31
442	0.31
442	0.31
443	0.309
443	0.309
444	0.309
444	0.309
445	0.309
445	0.309
446	0.309
446	0.309
447	0.309
447	0.309
447	0.31
448	0.31
448	0.31
449	0.31
449	0.31
450	0.31
450	0.31
451	0.31
451	0.31
452	0.31
452	0.31
452	0.31
453	0.31
453	0.31
454	0.309
454	0.309
455	0.309
455	0.309
456	0.309
456	0.309
457	0.309
457	0.309
458	0.309
458	0.309
458	0.309
459	0.309
459	0.309
460	0.309
460	0.309
461	0.309
461	0.309
462	0.309
462	0.31
463	0.31
463	0.311
463	0.311
464	0.311
464	0.311
465	0.311
465	0.311
466	0.312
466	0.312
467	0.312
467	0.313
467	0.313
468	0.313
468	0.313
469	0.314
469	0.314
470	0.315
470	0.315
471	0.315
471	0.315
472	0.315
472	0.316
472	0.316
473	0.316
473	0.317
474	0.317
474	0.318
475	0.318
475	0.319
476	0.319
476	0.32
477	0.32
477	0.321
477	0.321
478	0.322
478	0.322
479	0.323
479	0.324
480	0.324
480	0.325
481	0.326
481	0.327
482	0.328
482	0.328
482	0.33
483	0.33
483	0.331
484	0.332
484	0.332
485	0.333
485	0.334
486	0.335
486	0.336
487	0.337
487	0.338
487	0.339
488	0.34
488	0.341
489	0.343
489	0.345
490	0.347
490	0.348
491	0.35
491	0.351
492	0.353
492	0.354
492	0.356
493	0.358
493	0.359
494	0.361
494	0.363
495	0.365
495	0.366
496	0.368
496	0.37
496	0.372
497	0.374
497	0.375
498	0.377
498	0.379
499	0.381
499	0.383
500	0.385
500	0.387
501	0.389
501	0.391
501	0.393
502	0.395
502	0.397
503	0.399
503	0.401
504	0.404
504	0.406
505	0.408
505	0.411
506	0.413
506	0.416
506	0.418
507	0.421
507	0.423
508	0.426
508	0.429
509	0.431
509	0.434
510	0.437
510	0.439
511	0.442
511	0.444
511	0.447
512	0.45
512	0.452
513	0.454
513	0.456
514	0.458
514	0.461
515	0.463
515	0.465
515	0.467
516	0.47
516	0.473
517	0.475
517	0.477
518	0.48
518	0.482
519	0.484
519	0.486
520	0.489
520	0.491
520	0.494
521	0.496
521	0.498
522	0.5
522	0.502
523	0.505
523	0.507
524	0.508
524	0.51
524	0.511
525	0.513
525	0.514
526	0.516
526	0.517
527	0.518
527	0.52
528	0.521
528	0.523
529	0.525
529	0.526
529	0.527
530	0.528
530	0.529
531	0.53
531	0.531
532	0.532
532	0.533
533	0.534
533	0.535
533	0.536
534	0.537
534	0.538
535	0.538
535	0.539
536	0.54
536	0.54
537	0.54
537	0.541
538	0.542
538	0.542
538	0.543
539	0.543
539	0.544
540	0.544
540	0.544
541	0.544
541	0.544
542	0.545
542	0.544
542	0.544
543	0.544
543	0.544
544	0.543
544	0.543
545	0.543
545	0.543
546	0.543
546	0.542
547	0.542
547	0.542
547	0.541
548	0.541
548	0.54
549	0.54
549	0.54
550	0.539
550	0.539
551	0.538
551	0.538
551	0.537
552	0.537
552	0.537
553	0.536
553	0.536
554	0.536
554	0.535
555	0.534
555	0.533
556	0.532
556	0.531
556	0.531
557	0.53
557	0.529
558	0.528
558	0.527
559	0.526
559	0.525
560	0.524
560	0.523
560	0.522
561	0.522
561	0.521
562	0.52
562	0.519
563	0.518
563	0.517
564	0.516
564	0.515
564	0.514
565	0.513
565	0.512
566	0.511
566	0.509
567	0.508
567	0.506
568	0.504
568	0.502
568	0.501
569	0.499
569	0.497
570	0.496
570	0.494
571	0.492
571	0.491
572	0.489
572	0.488
573	0.486
573	0.485
573	0.483
574	0.481
574	0.48
575	0.479
575	0.478
576	0.477
576	0.475
577	0.474
577	0.473
577	0.473
578	0.472
578	0.471
579	0.47
579	0.469
580	0.466
580	0.464
581	0.462
581	0.461
581	0.459
582	0.458
582	0.456
583	0.455
583	0.453
584	0.45
584	0.448
585	0.447
585	0.445
585	0.444
586	0.442
586	0.441
587	0.439
587	0.438
588	0.436
588	0.435
589	0.433
589	0.432
590	0.43
590	0.428
590	0.427
591	0.425
591	0.422
592	0.42
592	0.418
593	0.416
593	0.415
594	0.413
594	0.411
594	0.41
595	0.408
595	0.406
596	0.405
596	0.404
597	0.403
597	0.401
598	0.399
598	0.397
598	0.396
599	0.394
599	0.392
600	0.39
600	0.388
601	0.386
601	0.384
602	0.382
602	0.38
602	0.378
603	0.376
603	0.375
604	0.374
604	0.372
605	0.371
605	0.37
606	0.368
606	0.366
606	0.364
607	0.362
607	0.361
608	0.359
608	0.357
609	0.355
609	0.354
610	0.352
610	0.35
610	0.349
611	0.348
611	0.347
612	0.345
612	0.344
613	0.342
613	0.34
614	0.338
614	0.335
614	0.333
615	0.331
615	0.329
616	0.327
616	0.324
617	0.322
617	0.32
618	0.318
618	0.316
618	0.314
619	0.313
619	0.312
620	0.31
620	0.308
621	0.307
621	0.305
622	0.303
622	0.301
622	0.299
623	0.297
623	0.295
624	0.293
624	0.291
625	0.289
625	0.287
626	0.284
626	0.282
626	0.28
627	0.277
627	0.275
628	0.272
628	0.269
629	0.266
629	0.262
630	0.259
630	0.255
630	0.252
631	0.248
631	0.244
632	0.24
632	0.235
633	0.231
633	0.226
634	0.221
634	0.216
634	0.211
635	0.205
635	0.199
636	0.193
636	0.187
637	0.18
637	0.173
638	0.166
638	0.159
638	0.152
639	0.144
639	0.136
640	0.128
640	0.121
641	0.113
641	0.105
642	0.098
642	0.09
642	0.083
643	0.075
643	0.066
644	0.058
644	0.049
645	0.04
645	0.031
646	0.023
646	0.014
646	0.005
647	-0.004
647	-0.013
648	-0.022
648	-0.031
649	-0.041
649	-0.049
650	-0.058
650	-0.066
650	-0.075
651	-0.086
651	-0.1
652	-0.116
652	-0.133
653	-0.148
653	-0.16
653	-0.155
654	-0.129
654	-0.112
655	-0.113
655	-0.117
656	-0.121
656	-0.126
657	-0.129
657	-0.132
657	-0.137
658	-0.142
658	-0.171
659	-0.263
659	-0.371
660	-0.418
660	-0.446
661	-0.477
661	-0.512
661	-0.552
662	-0.592
662	-0.635
663	-0.683
663	-0.733
664	-0.787
664	-0.847
665	-0.908
665	-0.975
665	-1.039
666	-1.104
666	-1.173
667	-1.245
667	-1.318
668	-1.398
668	-1.481
669	-1.569
669	-1.662
669	-1.784
670	-1.991
670	-2.132
671	-2.211
671	-2.316
672	-2.458
672	-2.596
672	-2.689
673	-2.755
673	-2.781
674	-2.797
674	-2.803
675	-2.798
675	-2.886
676	-3.039
676	-2.977
676	-2.734
677	-2.498
677	-2.277
678	-1.954
678	-1.765
679	-1.644
679	-1.552
680	-1.476
680	-1.41
680	-1.352
681	-1.316
681	-1.262
682	-1.225
682	-1.189
683	-1.155
683	-1.137
684	-1.114
684	-1.092
684	-1.069
685	-1.041
685	-1.016
686	-0.988
686	-0.97
687	-0.94
687	-0.926
687	-0.903
688	-0.877
688	-0.855
689	-0.834
689	-0.819
690	-0.798
690	-0.784
691	-0.774
691	-0.776
691	-0.79
692	-0.781
692	-0.77
693	-0.762
693	-0.764
694	-0.757
694	-0.748
695	-0.752
695	-0.747
695	-0.731
696	-0.726
696	-0.703
697	-0.701
697	-0.713
698	-0.716
698	-0.707
698	-0.715
699	-0.717
699	-0.711
700	-0.701
700	-0.714
701	-0.713
701	-0.72
702	-0.717
702	-0.705
702	-0.694
703	-0.686
703	-0.679
704	-0.673
704	-0.669
705	-0.679
705	-0.669
705	-0.658
706	-0.656
706	-0.652
707	-0.654
707	-0.649
708	-0.649
708	-0.642
709	-0.644
709	-0.646
709	-0.636
710	-0.646
710	-0.652
711	-0.644
711	-0.643
712	-0.643
712	-0.657
713	-0.655
713	-0.661
713	-0.652
714	-0.65
714	-0.651
715	-0.638
715	-0.627
716	-0.632
716	-0.634
716	-0.625
717	-0.623
717	-0.626
718	-0.617
718	-0.616
719	-0.621
719	-0.623
720	-0.619
720	-0.626
720	-0.618
721	-0.607
721	-0.61
722	-0.6
722	-0.588
723	-0.582
723	-0.586
723	-0.573
724	-0.575
724	-0.578
725	-0.577
725	-0.586
726	-0.596
726	-0.598
727	-0.602
727	-0.617
727	-0.627
728	-0.627
728	-0.634
729	-0.633
729	-0.637
730	-0.641
730	-0.633
730	-0.624
731	-0.606
731	-0.614
732	-0.618
732	-0.618
733	-0.616
733	-0.62
734	-0.614
734	-0.616
734	-0.605
735	-0.604
735	-0.605
736	-0.617
736	-0.604
737	-0.595
737	-0.595
737	-0.604
738	-0.597
738	-0.596
739	-0.594
739	-0.607
740	-0.606
740	-0.604
741	-0.598
741	-0.596
741	-0.599
742	-0.597
742	-0.596
743	-0.601
743	-0.607
744	-0.602
744	-0.594
744	-0.595
745	-0.6
745	-0.593
746	-0.595
746	-0.592
747	-0.593
747	-0.582
748	-0.572
748	-0.574
748	-0.574
749	-0.567
749	-0.568
750	-0.561
750	-0.561
751	-0.564
751	-0.573
751	-0.575
752	-0.581
752	-0.591
753	-0.589
753	-0.59
754	-0.598
754	-0.594
754	-0.606
755	-0.624
755	-0.634
756	-0.623
756	-0.62
757	-0.616
757	-0.611
758	-0.613
758	-0.609
758	-0.612
759	-0.617
759	-0.6
760	-0.593
760	-0.589
761	-0.597
761	-0.598
761	-0.597
762	-0.604
762	-0.605
763	-0.613
763	-0.609
764	-0.607
764	-0.613
764	-0.616
765	-0.607
765	-0.595
766	-0.6
766	-0.606
767	-0.622
767	-0.614
768	-0.605
768	-0.611
768	-0.616
769	-0.636
769	-0.634
770	-0.64
770	-0.651
771	-0.649
771	-0.655
771	-0.653
772	-0.659
772	-0.657
773	-0.659
773	-0.655
774	-0.654
774	-0.658
775	-0.659
775	-0.656
775	-0.661
776	-0.657
776	-0.647
777	-0.652
777	-0.677
778	-0.676
778	-0.696
778	-0.681
779	-0.702
779	-0.71
780	-0.722
780	-0.721
781	-0.735
781	-0.732
781	-0.751
782	-0.752
782	-0.753
783	-0.741
783	-0.742
784	-0.726
784	-0.719
784	-0.73
785	-0.739
785	-0.724
786	-0.73
786	-0.706
787	-0.689
787	-0.688
788	-0.687
788	-0.694
788	-0.701
789	-0.697
789	-0.677
790	-0.654
790	-0.656
791	-0.654
791	-0.668
791	-0.674
792	-0.671
792	-0.651
793	-0.638
793	-0.615
794	-0.621
794	-0.614
794	-0.624
795	-0.62
795	-0.612
796	-0.599
796	-0.605
797	-0.597
797	-0.606
797	-0.615
798	-0.629
798	-0.621
799	-0.631
799	-0.617
800	-0.622
800	-0.614
801	-0.619
801	-0.602
801	-0.614
802	-0.622
802	-0.621
803	-0.621
803	-0.632
804	-0.626
804	-0.637
804	-0.626
805	-0.634
805	-0.621
806	-0.626
806	-0.611
807	-0.609
807	-0.593
807	-0.582
808	-0.573
808	-0.569
809	-0.555
809	-0.565
810	-0.563
810	-0.559
810	-0.556
811	-0.563
811	-0.556
812	-0.556
812	-0.56
813	-0.565
813	-0.56
813	-0.566
814	-0.568
814	-0.57
815	-0.574
815	-0.574
816	-0.568
816	-0.572
817	-0.579
817	-0.594
817	-0.606
818	-0.614
818	-0.617
819	-0.608
819	-0.607
820	-0.616
820	-0.616
820	-0.626
821	-0.622
821	-0.611
822	-0.581
822	-0.56
823	-0.559
823	-0.558
823	-0.555
824	-0.55
824	-0.551
825	-0.542
825	-0.524
826	-0.521
826	-0.527
826	-0.538
827	-0.533
827	-0.528
828	-0.511
828	-0.51
829	-0.503
829	-0.49
829	-0.482
830	-0.49
830	-0.487
831	-0.481
831	-0.474
832	-0.473
832	-0.468
832	-0.474
833	-0.469
833	-0.469
834	-0.467
834	-0.475
835	-0.464
835	-0.459
835	-0.456
836	-0.453
836	-0.449
837	-0.446
837	-0.437
838	-0.43
838	-0.421
839	-0.41
839	-0.401
839	-0.393
840	-0.384
840	-0.382
841	-0.372
841	-0.364
842	-0.361
842	-0.354
842	-0.349
843	-0.343
843	-0.339
844	-0.332
844	-0.327
845	-0.32
845	-0.309
845	-0.296
846	-0.286
846	-0.273
847	-0.263
847	-0.253
848	-0.244
848	-0.234
848	-0.218
849	-0.21
849	-0.201
850	-0.19
850	-0.188
851	-0.181
851	-0.173
851	-0.165
852	-0.154
852	-0.145
853	-0.139
853	-0.134
854	-0.124
854	-0.114
854	-0.105
855	-0.095
855	-0.091
856	-0.083
856	-0.077
857	-0.071
857	-0.063
857	-0.055
858	-0.048
858	-0.044
859	-0.038
859	-0.031
860	-0.025
860	-0.016
860	-0.011
861	-0.005
861	0
862	0.005
862	0.009
863	0.014
863	0.02
863	0.023
864	0.025
864	0.029
865	0.033
865	0.035
866	0.038
866	0.039
866	0.041
867	0.043
867	0.045
868	0.047
868	0.05
869	0.052
869	0.054
869	0.056
870	0.057
870	0.06
871	0.062
871	0.064
872	0.065
872	0.066
872	0.066
873	0.066
873	0.066
874	0.066
874	0.066
875	0.065
875	0.064
875	0.063
876	0.062
876	0.061
877	0.059
877	0.058
878	0.056
878	0.054
878	0.052
879	0.051
879	0.049
880	0.048
880	0.048
881	0.048
881	0.047
881	0.047
882	0.047
882	0.047
883	0.047
883	0.047
884	0.047
884	0.047
884	0.047
885	0.047
885	0.047
886	0.047
886	0.047
887	0.046
887	0.047
887	0.047
888	0.047
888	0.046
889	0.047
889	0.047
890	0.048
890	0.048
890	0.048
891	0.048
891	0.048
892	0.048
892	0.048
893	0.048
893	0.048
893	0.048
894	0.047
894	0.047
895	0.046
895	0.046
895	0.046
896	0.045
896	0.044
897	0.044
897	0.043
898	0.042
898	0.042
898	0.041
899	0.041
899	0.042
900	0.042
900	0.042
901	0.042
901	0.042
901	0.042
902	0.043
902	0.043
903	0.043
903	0.044
904	0.044
904	0.044
904	0.045
905	0.045
905	0.045
906	0.045
906	0.045
907	0.045
907	0.045
907	0.044
908	0.044
908	0.043
909	0.043
909	0.042
910	0.041
910	0.041
910	0.04
911	0.04
911	0.04
912	0.04
912	0.041
913	0.041
913	0.041
913	0.042
914	0.042
914	0.043
915	0.043
915	0.044
916	0.045
916	0.045
916	0.045
917	0.045
917	0.045
918	0.045
918	0.045
918	0.044
919	0.044
919	0.043
920	0.043
920	0.043
921	0.043
921	0.042
921	0.042
922	0.041
922	0.041
923	0.041
923	0.041
924	0.041
924	0.041
924	0.041
925	0.041
925	0.04
926	0.04
926	0.04
927	0.04
927	0.04
927	0.04
928	0.04
928	0.04
929	0.039
929	0.039
930	0.039
930	0.039
930	0.04
931	0.04
931	0.04
932	0.04
932	0.04
933	0.04
933	0.039
933	0.038
934	0.038
934	0.037
935	0.036
935	0.035
935	0.034
936	0.033
936	0.032
937	0.031
937	0.031
938	0.031
938	0.031
938	0.031
939	0.031
939	0.031
940	0.031
940	0.031
941	0.032
941	0.032
941	0.033
942	0.033
942	0.033
943	0.033
943	0.032
944	0.032
944	0.031
944	0.031
945	0.031
945	0.03
946	0.029
946	0.028
946	0.028
947	0.027
947	0.027
948	0.027
948	0.027
949	0.027
949	0.027
949	0.027
950	0.028
950	0.028
951	0.028
951	0.029
952	0.03
952	0.031
952	0.031
953	0.032
953	0.033
954	0.034
954	0.035
955	0.036
955	0.037
955	0.037
956	0.038
956	0.038
957	0.038
957	0.038
957	0.039
958	0.038
958	0.039
959	0.039
959	0.038
960	0.038
960	0.038
960	0.038
961	0.038
961	0.038
962	0.038
962	0.038
963	0.039
963	0.039
963	0.039
964	0.039
964	0.039
965	0.04
965	0.04
966	0.04
966	0.04
966	0.04
967	0.04
967	0.039
968	0.039
968	0.039
968	0.039
969	0.039
969	0.039
970	0.039
970	0.039
971	0.039
971	0.039
971	0.039
972	0.039
972	0.039
973	0.039
973	0.038
974	0.038
974	0.037
974	0.037
975	0.036
975	0.035
976	0.035
976	0.034
976	0.034
977	0.033
977	0.033
978	0.033
978	0.033
979	0.033
979	0.033
979	0.032
980	0.032
980	0.032
981	0.032
981	0.032
982	0.031
982	0.031
982	0.03
983	0.03
983	0.029
984	0.029
984	0.029
984	0.029
985	0.029
985	0.03
986	0.03
986	0.031
987	0.031
987	0.032
987	0.032
988	0.032
988	0.032
989	0.032
989	0.032
990	0.032
990	0.031
990	0.031
991	0.031
991	0.03
992	0.03
992	0.03
992	0.03
993	0.03
993	0.03
994	0.03
994	0.03
995	0.03
995	0.03
995	0.031
996	0.031
996	0.031
997	0.031
997	0.031
997	0.031
998	0.03
998	0.031
999	0.031
999	0.031
1000	0.031
1000	0.03
1000	0.03
1001	0.03
1001	0.029
1002	0.029
1002	0.029
1003	0.028
1003	0.027
1003	0.026
1004	0.025
1004	0.023
1005	0.022
1005	0.02
1005	0.019
1006	0.018
1006	0.016
1007	0.015
1007	0.015
1008	0.014
1008	0.014
1008	0.014
1009	0.014
1009	0.014
1010	0.014
1010	0.015
1010	0.015
1011	0.015
1011	0.014
1012	0.014
1012	0.013
1013	0.012
1013	0.011
1013	0.009
1014	0.008
1014	0.007
1015	0.006
1015	0.005
1016	0.004
1016	0.004
1016	0.003
1017	0.003
1017	0.003
1018	0.003
1018	0.002
1018	0.002
1019	0.002
1019	0.002
1020	0.001
1020	0.001
1021	0
1021	-0
1021	-0.001
1022	-0.002
1022	-0.002
1023	-0.002
1023	-0.003
1023	-0.003
1024	-0.003
1024	-0.003
1025	-0.003
1025	-0.002
1026	-0.002
1026	-0.002
1026	-0.001
1027	-0.001
1027	-0.001
1028	-0.001
1028	-0.001
1028	-0.002
1029	-0.002
1029	-0.002
1030	-0.002
1030	-0.002
1031	-0.002
1031	-0.002
1031	-0.001
1032	-0.001
1032	-0.001
1033	-0
1033	0.001
1033	0.001
1034	0.002
1034	0.003
1035	0.003
1035	0.003
1036	0.003
1036	0.003
1036	0.003
1037	0.003
1037	0.003
1038	0.002
1038	0.002
1039	0.002
1039	0.002
1039	0.001
1040	0.001
1040	0.002
1041	0.002
1041	0.003
1041	0.003
1042	0.003
1042	0.003
1043	0.003
1043	0.003
1044	0.003
1044	0.003
1044	0.003
1045	0.003
1045	0.003
1046	0.003
1046	0.003
1046	0.004
1047	0.004
1047	0.005
1048	0.006
1048	0.006
1049	0.007
1049	0.007
1049	0.008
1050	0.008
1050	0.008
1051	0.008
1051	0.008
1051	0.008
1052	0.008
1052	0.008
1053	0.008
1053	0.007
1053	0.007
1054	0.006
1054	0.006
1055	0.005
1055	0.004
1056	0.004
1056	0.003
1056	0.002
1057	0.001
1057	0
1058	-0
1058	-0.001
1058	-0.001
1059	-0.001
1059	-0.002
1060	-0.002
1060	-0.002
1061	-0.002
1061	-0.002
1061	-0.002
1062	-0.002
1062	-0.002
1063	-0.002
1063	-0.002
1063	-0.002
1064	-0.002
1064	-0.002
1065	-0.002
1065	-0.003
1066	-0.003
1066	-0.004
1066	-0.005
1067	-0.005
1067	-0.005
1068	-0.006
1068	-0.007
1068	-0.007
1069	-0.008
1069	-0.008
1070	-0.009
1070	-0.009
1071	-0.009
1071	-0.009
1071	-0.009
1072	-0.01
1072	-0.01
1073	-0.01
1073	-0.01
1073	-0.01
1074	-0.009
1074	-0.009
1075	-0.01
1075	-0.01
1076	-0.011
1076	-0.011
1076	-0.011
1077	-0.011
1077	-0.012
1078	-0.012
1078	-0.013
1078	-0.014
1079	-0.014
1079	-0.014
1080	-0.015
1080	-0.015
1080	-0.016
1081	-0.017
1081	-0.017
1082	-0.018
1082	-0.019
1083	-0.02
1083	-0.021
1083	-0.021
1084	-0.022
1084	-0.022
1085	-0.023
1085	-0.024
1085	-0.024
1086	-0.024
1086	-0.025
1087	-0.024
1087	-0.024
1088	-0.025
1088	-0.024
1088	-0.025
1089	-0.025
1089	-0.025
1090	-0.026
1090	-0.026
1090	-0.027
1091	-0.027
1091	-0.027
1092	-0.028
1092	-0.028
1092	-0.029
1093	-0.029
1093	-0.029
1094	-0.028
1094	-0.029
1095	-0.03
1095	-0.029
1095	-0.029
1096	-0.03
1096	-0.03
1097	-0.031
1097	-0.031
1097	-0.031
1098	-0.032
1098	-0.033
1099	-0.034
1099	-0.034
1100	-0.036
1100	-0.036
1100	-0.039
1101	-0.041
1101	-0.042
1102	-0.044
1102	-0.045
1102	-0.046
1103	-0.048
1103	-0.051
1104	-0.053
1104	-0.054
1104	-0.056
1105	-0.057
1105	-0.059
1106	-0.063
1106	-0.065
1107	-0.068
1107	-0.072
1107	-0.075
1108	-0.076
1108	-0.078
1109	-0.081
1109	-0.084
1109	-0.085
1110	-0.085
1110	-0.088
1111	-0.094
1111	-0.091
