Data from 17C_3.4A_30min_2sec_int_Absorbance__506__01227.txt Node

Date: Mon Jun 19 17:08:57 CEST 2023
User: Marek
Spectrometer: MAYP115816
Trigger mode: 0
Integration Time (sec): 2.500000E-1
Scans to average: 10
Electric dark correction enabled: true
Nonlinearity correction enabled: true
Boxcar width: 5
XAxis mode: Wavelengths
Number of Pixels in Spectrum: 2068
>>>>>Begin Spectral Data<<<<<
199	-0.647
199	-0.665
200	-0.576
200	-0.53
201	-0.495
201	-0.484
202	-0.469
202	-0.454
203	-0.446
203	-0.442
204	-0.434
204	-0.421
205	-0.399
205	-0.395
205	-0.392
206	-0.393
206	-0.394
207	-0.385
207	-0.39
208	-0.392
208	-0.389
209	-0.381
209	-0.383
210	-0.386
210	-0.39
211	-0.392
211	-0.393
212	-0.395
212	-0.402
213	-0.399
213	-0.398
213	-0.404
214	-0.401
214	-0.399
215	-0.399
215	-0.405
216	-0.409
216	-0.419
217	-0.416
217	-0.421
218	-0.423
218	-0.425
219	-0.427
219	-0.44
220	-0.445
220	-0.455
221	-0.454
221	-0.455
221	-0.445
222	-0.441
222	-0.441
223	-0.444
223	-0.448
224	-0.451
224	-0.448
225	-0.444
225	-0.439
226	-0.443
226	-0.445
227	-0.451
227	-0.46
228	-0.46
228	-0.461
229	-0.462
229	-0.456
229	-0.453
230	-0.456
230	-0.457
231	-0.452
231	-0.444
232	-0.438
232	-0.437
233	-0.432
233	-0.429
234	-0.426
234	-0.424
235	-0.427
235	-0.433
236	-0.432
236	-0.435
236	-0.441
237	-0.448
237	-0.449
238	-0.457
238	-0.456
239	-0.458
239	-0.466
240	-0.465
240	-0.463
241	-0.469
241	-0.467
242	-0.472
242	-0.468
243	-0.462
243	-0.463
243	-0.472
244	-0.472
244	-0.472
245	-0.487
245	-0.487
246	-0.489
246	-0.495
247	-0.496
247	-0.501
248	-0.507
248	-0.506
249	-0.51
249	-0.518
250	-0.515
250	-0.507
250	-0.506
251	-0.508
251	-0.507
252	-0.512
252	-0.502
253	-0.507
253	-0.517
254	-0.513
254	-0.513
255	-0.52
255	-0.514
256	-0.513
256	-0.519
257	-0.516
257	-0.513
258	-0.528
258	-0.525
258	-0.521
259	-0.52
259	-0.525
260	-0.527
260	-0.534
261	-0.544
261	-0.539
262	-0.535
262	-0.532
263	-0.524
263	-0.519
264	-0.518
264	-0.526
265	-0.52
265	-0.528
265	-0.53
266	-0.527
266	-0.523
267	-0.536
267	-0.546
268	-0.558
268	-0.566
269	-0.567
269	-0.562
270	-0.567
270	-0.571
271	-0.572
271	-0.577
272	-0.582
272	-0.577
272	-0.57
273	-0.57
273	-0.576
274	-0.58
274	-0.585
275	-0.588
275	-0.579
276	-0.585
276	-0.58
277	-0.584
277	-0.601
278	-0.611
278	-0.605
278	-0.602
279	-0.605
279	-0.614
280	-0.611
280	-0.613
281	-0.605
281	-0.611
282	-0.603
282	-0.604
283	-0.595
283	-0.594
284	-0.59
284	-0.578
285	-0.573
285	-0.569
285	-0.566
286	-0.574
286	-0.57
287	-0.568
287	-0.552
288	-0.544
288	-0.556
289	-0.565
289	-0.575
290	-0.566
290	-0.565
291	-0.56
291	-0.554
292	-0.556
292	-0.562
292	-0.568
293	-0.573
293	-0.562
294	-0.553
294	-0.545
295	-0.544
295	-0.543
296	-0.541
296	-0.538
297	-0.531
297	-0.516
298	-0.508
298	-0.517
298	-0.504
299	-0.499
299	-0.498
300	-0.491
300	-0.488
301	-0.485
301	-0.485
302	-0.492
302	-0.502
303	-0.489
303	-0.475
304	-0.478
304	-0.475
305	-0.478
305	-0.478
305	-0.473
306	-0.458
306	-0.452
307	-0.438
307	-0.438
308	-0.452
308	-0.449
309	-0.451
309	-0.444
310	-0.432
310	-0.426
311	-0.419
311	-0.427
311	-0.424
312	-0.42
312	-0.418
313	-0.402
313	-0.405
314	-0.403
314	-0.404
315	-0.406
315	-0.405
316	-0.404
316	-0.397
317	-0.39
317	-0.385
318	-0.374
318	-0.373
318	-0.365
319	-0.357
319	-0.352
320	-0.347
320	-0.347
321	-0.351
321	-0.35
322	-0.346
322	-0.342
323	-0.344
323	-0.34
324	-0.334
324	-0.325
324	-0.316
325	-0.307
325	-0.292
326	-0.278
326	-0.262
327	-0.246
327	-0.226
328	-0.203
328	-0.183
329	-0.163
329	-0.139
330	-0.114
330	-0.083
330	-0.058
331	-0.032
331	-0.006
332	0.016
332	0.035
333	0.056
333	0.076
334	0.092
334	0.107
335	0.121
335	0.133
336	0.145
336	0.156
336	0.164
337	0.174
337	0.181
338	0.188
338	0.193
339	0.2
339	0.205
340	0.208
340	0.212
341	0.215
341	0.218
342	0.221
342	0.223
342	0.225
343	0.227
343	0.23
344	0.231
344	0.232
345	0.233
345	0.234
346	0.234
346	0.235
347	0.235
347	0.236
348	0.236
348	0.237
348	0.237
349	0.237
349	0.237
350	0.238
350	0.238
351	0.238
351	0.238
352	0.238
352	0.238
353	0.238
353	0.238
354	0.238
354	0.237
354	0.237
355	0.237
355	0.237
356	0.237
356	0.237
357	0.237
357	0.236
358	0.236
358	0.236
359	0.236
359	0.236
360	0.235
360	0.235
360	0.235
361	0.235
361	0.235
362	0.235
362	0.235
363	0.234
363	0.234
364	0.234
364	0.234
365	0.234
365	0.234
366	0.234
366	0.234
366	0.234
367	0.234
367	0.234
368	0.234
368	0.234
369	0.234
369	0.234
370	0.233
370	0.233
371	0.233
371	0.233
372	0.233
372	0.233
372	0.233
373	0.232
373	0.232
374	0.232
374	0.232
375	0.232
375	0.232
376	0.232
376	0.232
377	0.232
377	0.232
378	0.232
378	0.232
378	0.232
379	0.232
379	0.231
380	0.231
380	0.231
381	0.231
381	0.231
382	0.231
382	0.231
383	0.23
383	0.23
383	0.23
384	0.23
384	0.23
385	0.229
385	0.229
386	0.229
386	0.229
387	0.229
387	0.229
388	0.229
388	0.229
389	0.229
389	0.229
389	0.229
390	0.229
390	0.229
391	0.229
391	0.229
392	0.229
392	0.229
393	0.229
393	0.229
394	0.228
394	0.228
394	0.228
395	0.227
395	0.227
396	0.227
396	0.227
397	0.227
397	0.227
398	0.227
398	0.227
399	0.226
399	0.227
400	0.226
400	0.226
400	0.226
401	0.226
401	0.225
402	0.225
402	0.225
403	0.225
403	0.225
404	0.225
404	0.225
405	0.225
405	0.225
405	0.225
406	0.225
406	0.225
407	0.224
407	0.224
408	0.224
408	0.224
409	0.224
409	0.224
410	0.224
410	0.224
411	0.224
411	0.224
411	0.224
412	0.224
412	0.224
413	0.224
413	0.223
414	0.223
414	0.223
415	0.223
415	0.223
416	0.223
416	0.222
416	0.222
417	0.222
417	0.222
418	0.222
418	0.222
419	0.222
419	0.222
420	0.222
420	0.223
421	0.223
421	0.223
421	0.223
422	0.223
422	0.223
423	0.223
423	0.223
424	0.222
424	0.222
425	0.222
425	0.222
426	0.221
426	0.221
427	0.221
427	0.22
427	0.22
428	0.22
428	0.22
429	0.22
429	0.22
430	0.22
430	0.22
431	0.22
431	0.22
432	0.22
432	0.22
432	0.219
433	0.219
433	0.219
434	0.219
434	0.219
435	0.219
435	0.218
436	0.218
436	0.218
437	0.218
437	0.218
437	0.218
438	0.218
438	0.218
439	0.218
439	0.218
440	0.218
440	0.218
441	0.217
441	0.217
442	0.217
442	0.217
442	0.217
443	0.217
443	0.217
444	0.217
444	0.217
445	0.217
445	0.218
446	0.218
446	0.218
447	0.218
447	0.219
447	0.219
448	0.219
448	0.219
449	0.219
449	0.219
450	0.219
450	0.219
451	0.219
451	0.219
452	0.219
452	0.219
452	0.219
453	0.219
453	0.218
454	0.218
454	0.218
455	0.218
455	0.218
456	0.218
456	0.218
457	0.218
457	0.218
458	0.218
458	0.218
458	0.218
459	0.218
459	0.218
460	0.218
460	0.217
461	0.217
461	0.217
462	0.217
462	0.218
463	0.218
463	0.218
463	0.218
464	0.218
464	0.218
465	0.218
465	0.218
466	0.218
466	0.218
467	0.218
467	0.218
467	0.219
468	0.219
468	0.219
469	0.219
469	0.22
470	0.22
470	0.22
471	0.22
471	0.22
472	0.221
472	0.221
472	0.221
473	0.221
473	0.222
474	0.222
474	0.222
475	0.222
475	0.223
476	0.223
476	0.223
477	0.224
477	0.224
477	0.224
478	0.225
478	0.225
479	0.225
479	0.225
480	0.225
480	0.225
481	0.226
481	0.227
482	0.227
482	0.228
482	0.228
483	0.229
483	0.229
484	0.23
484	0.23
485	0.23
485	0.231
486	0.231
486	0.232
487	0.232
487	0.233
487	0.234
488	0.235
488	0.235
489	0.237
489	0.238
490	0.239
490	0.24
491	0.241
491	0.242
492	0.243
492	0.243
492	0.244
493	0.245
493	0.246
494	0.247
494	0.248
495	0.249
495	0.25
496	0.251
496	0.252
496	0.253
497	0.255
497	0.256
498	0.257
498	0.258
499	0.259
499	0.261
500	0.262
500	0.263
501	0.264
501	0.265
501	0.266
502	0.267
502	0.268
503	0.27
503	0.271
504	0.272
504	0.273
505	0.274
505	0.276
506	0.277
506	0.278
506	0.279
507	0.281
507	0.282
508	0.283
508	0.285
509	0.286
509	0.288
510	0.289
510	0.29
511	0.292
511	0.293
511	0.294
512	0.296
512	0.297
513	0.298
513	0.299
514	0.3
514	0.302
515	0.303
515	0.304
515	0.305
516	0.306
516	0.308
517	0.309
517	0.311
518	0.312
518	0.313
519	0.314
519	0.315
520	0.316
520	0.318
520	0.32
521	0.321
521	0.322
522	0.323
522	0.324
523	0.325
523	0.326
524	0.327
524	0.327
524	0.328
525	0.328
525	0.328
526	0.329
526	0.329
527	0.33
527	0.33
528	0.331
528	0.332
529	0.332
529	0.333
529	0.334
530	0.335
530	0.335
531	0.335
531	0.336
532	0.336
532	0.336
533	0.337
533	0.337
533	0.337
534	0.337
534	0.337
535	0.337
535	0.337
536	0.336
536	0.336
537	0.336
537	0.335
538	0.335
538	0.335
538	0.335
539	0.335
539	0.335
540	0.334
540	0.334
541	0.333
541	0.333
542	0.333
542	0.332
542	0.331
543	0.33
543	0.33
544	0.329
544	0.328
545	0.328
545	0.328
546	0.328
546	0.327
547	0.326
547	0.326
547	0.325
548	0.325
548	0.324
549	0.323
549	0.322
550	0.322
550	0.321
551	0.32
551	0.32
551	0.321
552	0.321
552	0.321
553	0.321
553	0.321
554	0.32
554	0.319
555	0.318
555	0.318
556	0.317
556	0.316
556	0.315
557	0.314
557	0.313
558	0.312
558	0.311
559	0.311
559	0.31
560	0.31
560	0.309
560	0.308
561	0.307
561	0.306
562	0.305
562	0.304
563	0.303
563	0.303
564	0.302
564	0.301
564	0.301
565	0.301
565	0.301
566	0.3
566	0.299
567	0.299
567	0.298
568	0.298
568	0.297
568	0.296
569	0.295
569	0.294
570	0.293
570	0.291
571	0.291
571	0.291
572	0.29
572	0.289
573	0.288
573	0.288
573	0.287
574	0.287
574	0.286
575	0.286
575	0.286
576	0.286
576	0.285
577	0.284
577	0.284
577	0.284
578	0.284
578	0.284
579	0.284
579	0.284
580	0.283
580	0.282
581	0.281
581	0.281
581	0.281
582	0.281
582	0.28
583	0.28
583	0.279
584	0.278
584	0.277
585	0.278
585	0.278
585	0.278
586	0.278
586	0.278
587	0.277
587	0.277
588	0.277
588	0.277
589	0.277
589	0.277
590	0.277
590	0.277
590	0.277
591	0.277
591	0.277
592	0.276
592	0.275
593	0.276
593	0.275
594	0.275
594	0.275
594	0.274
595	0.274
595	0.274
596	0.274
596	0.275
597	0.276
597	0.275
598	0.275
598	0.275
598	0.275
599	0.274
599	0.273
600	0.273
600	0.272
601	0.271
601	0.271
602	0.27
602	0.27
602	0.27
603	0.271
603	0.272
604	0.272
604	0.273
605	0.273
605	0.273
606	0.273
606	0.272
606	0.272
607	0.271
607	0.271
608	0.27
608	0.269
609	0.269
609	0.269
610	0.268
610	0.268
610	0.268
611	0.268
611	0.269
612	0.269
612	0.27
613	0.27
613	0.27
614	0.269
614	0.268
614	0.267
615	0.267
615	0.266
616	0.266
616	0.265
617	0.265
617	0.264
618	0.263
618	0.263
618	0.262
619	0.263
619	0.263
620	0.263
620	0.262
621	0.262
621	0.261
622	0.261
622	0.26
622	0.26
623	0.259
623	0.259
624	0.259
624	0.258
625	0.258
625	0.257
626	0.257
626	0.256
626	0.256
627	0.255
627	0.254
628	0.254
628	0.252
629	0.251
629	0.25
630	0.248
630	0.247
630	0.245
631	0.244
631	0.242
632	0.24
632	0.237
633	0.235
633	0.233
634	0.231
634	0.229
634	0.226
635	0.224
635	0.221
636	0.218
636	0.215
637	0.211
637	0.208
638	0.204
638	0.2
638	0.196
639	0.192
639	0.187
640	0.183
640	0.178
641	0.173
641	0.169
642	0.164
642	0.159
642	0.155
643	0.15
643	0.144
644	0.139
644	0.133
645	0.127
645	0.121
646	0.116
646	0.11
646	0.104
647	0.098
647	0.092
648	0.085
648	0.079
649	0.072
649	0.065
650	0.057
650	0.05
650	0.041
651	0.031
651	0.018
652	0.004
652	-0.011
653	-0.024
653	-0.036
653	-0.033
654	-0.015
654	-0.005
655	-0.008
655	-0.013
656	-0.018
656	-0.025
657	-0.028
657	-0.032
657	-0.038
658	-0.044
658	-0.071
659	-0.152
659	-0.249
660	-0.292
660	-0.319
661	-0.347
661	-0.378
661	-0.411
662	-0.445
662	-0.48
663	-0.521
663	-0.566
664	-0.61
664	-0.663
665	-0.716
665	-0.776
665	-0.832
666	-0.89
666	-0.954
667	-1.019
667	-1.086
668	-1.16
668	-1.234
669	-1.309
669	-1.385
669	-1.466
670	-1.539
670	-1.594
671	-1.797
671	-2.03
672	-2.241
672	-2.422
672	-2.546
673	-2.634
673	-2.711
674	-2.75
674	-2.768
675	-2.793
675	-2.93
676	-3.113
676	-3.064
676	-2.839
677	-2.634
677	-2.468
678	-2.287
678	-1.974
679	-1.708
679	-1.575
680	-1.481
680	-1.397
680	-1.327
681	-1.281
681	-1.222
682	-1.181
682	-1.143
683	-1.107
683	-1.09
684	-1.068
684	-1.048
684	-1.024
685	-1
685	-0.977
686	-0.952
686	-0.934
687	-0.908
687	-0.893
687	-0.873
688	-0.846
688	-0.824
689	-0.801
689	-0.788
690	-0.768
690	-0.756
691	-0.747
691	-0.752
691	-0.765
692	-0.758
692	-0.749
693	-0.743
693	-0.749
694	-0.744
694	-0.736
695	-0.74
695	-0.736
695	-0.72
696	-0.716
696	-0.694
697	-0.693
697	-0.707
698	-0.711
698	-0.702
698	-0.718
699	-0.72
699	-0.717
700	-0.709
700	-0.721
701	-0.719
701	-0.724
702	-0.722
702	-0.71
702	-0.702
703	-0.695
703	-0.683
704	-0.68
704	-0.679
705	-0.691
705	-0.686
705	-0.677
706	-0.678
706	-0.675
707	-0.68
707	-0.673
708	-0.672
708	-0.666
709	-0.668
709	-0.671
709	-0.658
710	-0.666
710	-0.674
711	-0.667
711	-0.665
712	-0.664
712	-0.678
713	-0.675
713	-0.68
713	-0.672
714	-0.667
714	-0.67
715	-0.658
715	-0.645
716	-0.649
716	-0.652
716	-0.647
717	-0.648
717	-0.65
718	-0.642
718	-0.644
719	-0.65
719	-0.651
720	-0.65
720	-0.659
720	-0.652
721	-0.642
721	-0.639
722	-0.626
722	-0.616
723	-0.614
723	-0.618
723	-0.604
724	-0.61
724	-0.613
725	-0.613
725	-0.621
726	-0.636
726	-0.641
727	-0.647
727	-0.66
727	-0.666
728	-0.666
728	-0.671
729	-0.668
729	-0.673
730	-0.676
730	-0.67
730	-0.659
731	-0.643
731	-0.651
732	-0.657
732	-0.656
733	-0.655
733	-0.662
734	-0.659
734	-0.658
734	-0.648
735	-0.646
735	-0.647
736	-0.657
736	-0.644
737	-0.635
737	-0.636
737	-0.644
738	-0.638
738	-0.635
739	-0.631
739	-0.642
740	-0.641
740	-0.641
741	-0.637
741	-0.636
741	-0.639
742	-0.638
742	-0.639
743	-0.645
743	-0.649
744	-0.647
744	-0.637
744	-0.636
745	-0.644
745	-0.635
746	-0.636
746	-0.634
747	-0.636
747	-0.623
748	-0.614
748	-0.619
748	-0.62
749	-0.618
749	-0.621
750	-0.609
750	-0.609
751	-0.612
751	-0.62
751	-0.621
752	-0.628
752	-0.637
753	-0.632
753	-0.631
754	-0.636
754	-0.631
754	-0.647
755	-0.665
755	-0.675
756	-0.666
756	-0.662
757	-0.659
757	-0.653
758	-0.656
758	-0.651
758	-0.654
759	-0.661
759	-0.644
760	-0.635
760	-0.632
761	-0.642
761	-0.641
761	-0.641
762	-0.649
762	-0.647
763	-0.656
763	-0.653
764	-0.649
764	-0.659
764	-0.666
765	-0.656
765	-0.642
766	-0.649
766	-0.655
767	-0.668
767	-0.664
768	-0.657
768	-0.667
768	-0.674
769	-0.69
769	-0.69
770	-0.694
770	-0.706
771	-0.704
771	-0.708
771	-0.707
772	-0.709
772	-0.706
773	-0.707
773	-0.698
774	-0.696
774	-0.697
775	-0.701
775	-0.695
775	-0.703
776	-0.701
776	-0.694
777	-0.705
777	-0.727
778	-0.721
778	-0.745
778	-0.733
779	-0.753
779	-0.759
780	-0.774
780	-0.773
781	-0.785
781	-0.781
781	-0.794
782	-0.794
782	-0.799
783	-0.782
783	-0.781
784	-0.764
784	-0.757
784	-0.766
785	-0.771
785	-0.757
786	-0.76
786	-0.739
787	-0.721
787	-0.72
788	-0.726
788	-0.736
788	-0.747
789	-0.748
789	-0.727
790	-0.709
790	-0.71
791	-0.709
791	-0.723
791	-0.733
792	-0.728
792	-0.701
793	-0.69
793	-0.665
794	-0.668
794	-0.66
794	-0.668
795	-0.664
795	-0.657
796	-0.644
796	-0.649
797	-0.642
797	-0.657
797	-0.663
798	-0.673
798	-0.667
799	-0.678
799	-0.663
800	-0.669
800	-0.663
801	-0.667
801	-0.65
801	-0.662
802	-0.669
802	-0.67
803	-0.674
803	-0.686
804	-0.682
804	-0.694
804	-0.683
805	-0.689
805	-0.68
806	-0.685
806	-0.671
807	-0.669
807	-0.649
807	-0.635
808	-0.625
808	-0.621
809	-0.606
809	-0.614
810	-0.61
810	-0.603
810	-0.603
811	-0.606
811	-0.599
812	-0.602
812	-0.608
813	-0.612
813	-0.606
813	-0.612
814	-0.613
814	-0.618
815	-0.621
815	-0.625
816	-0.62
816	-0.623
817	-0.63
817	-0.647
817	-0.661
818	-0.669
818	-0.671
819	-0.662
819	-0.665
820	-0.676
820	-0.671
820	-0.681
821	-0.679
821	-0.668
822	-0.635
822	-0.611
823	-0.609
823	-0.614
823	-0.612
824	-0.605
824	-0.605
825	-0.599
825	-0.579
826	-0.573
826	-0.578
826	-0.589
827	-0.582
827	-0.579
828	-0.557
828	-0.558
829	-0.55
829	-0.535
829	-0.529
830	-0.538
830	-0.534
831	-0.528
831	-0.517
832	-0.518
832	-0.509
832	-0.517
833	-0.509
833	-0.51
834	-0.507
834	-0.514
835	-0.502
835	-0.499
835	-0.495
836	-0.494
836	-0.49
837	-0.487
837	-0.477
838	-0.471
838	-0.459
839	-0.447
839	-0.434
839	-0.424
840	-0.414
840	-0.408
841	-0.394
841	-0.385
842	-0.381
842	-0.371
842	-0.365
843	-0.357
843	-0.353
844	-0.345
844	-0.338
845	-0.33
845	-0.322
845	-0.31
846	-0.301
846	-0.286
847	-0.277
847	-0.266
848	-0.258
848	-0.246
848	-0.23
849	-0.222
849	-0.211
850	-0.198
850	-0.192
851	-0.182
851	-0.171
851	-0.162
852	-0.145
852	-0.131
853	-0.123
853	-0.118
854	-0.106
854	-0.095
854	-0.085
855	-0.072
855	-0.067
856	-0.058
856	-0.051
857	-0.047
857	-0.039
857	-0.029
858	-0.02
858	-0.014
859	-0.007
859	0.003
860	0.01
860	0.022
860	0.029
861	0.037
861	0.045
862	0.052
862	0.058
863	0.064
863	0.072
863	0.078
864	0.082
864	0.087
865	0.092
865	0.096
866	0.1
866	0.103
866	0.106
867	0.109
867	0.113
868	0.115
868	0.119
869	0.122
869	0.124
869	0.126
870	0.129
870	0.131
871	0.133
871	0.135
872	0.136
872	0.137
872	0.137
873	0.138
873	0.138
874	0.138
874	0.138
875	0.137
875	0.136
875	0.135
876	0.134
876	0.133
877	0.131
877	0.13
878	0.128
878	0.126
878	0.124
879	0.123
879	0.121
880	0.12
880	0.12
881	0.12
881	0.12
881	0.12
882	0.12
882	0.119
883	0.119
883	0.118
884	0.118
884	0.117
884	0.116
885	0.115
885	0.114
886	0.114
886	0.113
887	0.112
887	0.112
887	0.112
888	0.112
888	0.111
889	0.112
889	0.112
890	0.112
890	0.112
890	0.111
891	0.111
891	0.111
892	0.111
892	0.111
893	0.111
893	0.111
893	0.111
894	0.11
894	0.109
895	0.109
895	0.109
895	0.108
896	0.107
896	0.106
897	0.105
897	0.104
898	0.103
898	0.102
898	0.103
899	0.103
899	0.103
900	0.104
900	0.104
901	0.105
901	0.106
901	0.106
902	0.107
902	0.107
903	0.107
903	0.107
904	0.108
904	0.108
904	0.109
905	0.11
905	0.11
906	0.111
906	0.111
907	0.111
907	0.11
907	0.11
908	0.11
908	0.11
909	0.109
909	0.108
910	0.108
910	0.108
910	0.107
911	0.107
911	0.108
912	0.108
912	0.108
913	0.109
913	0.109
913	0.11
914	0.11
914	0.111
915	0.111
915	0.111
916	0.112
916	0.112
916	0.112
917	0.112
917	0.112
918	0.111
918	0.111
918	0.11
919	0.11
919	0.109
920	0.109
920	0.109
921	0.109
921	0.109
921	0.109
922	0.109
922	0.109
923	0.109
923	0.109
924	0.109
924	0.108
924	0.108
925	0.107
925	0.106
926	0.105
926	0.104
927	0.103
927	0.103
927	0.103
928	0.102
928	0.102
929	0.102
929	0.101
930	0.101
930	0.101
930	0.101
931	0.1
931	0.1
932	0.099
932	0.098
933	0.098
933	0.096
933	0.095
934	0.093
934	0.092
935	0.091
935	0.09
935	0.088
936	0.087
936	0.086
937	0.085
937	0.085
938	0.085
938	0.085
938	0.085
939	0.086
939	0.086
940	0.087
940	0.088
941	0.089
941	0.089
941	0.091
942	0.091
942	0.092
943	0.092
943	0.093
944	0.093
944	0.092
944	0.092
945	0.091
945	0.09
946	0.089
946	0.087
946	0.086
947	0.086
947	0.085
948	0.085
948	0.085
949	0.086
949	0.087
949	0.087
950	0.088
950	0.088
951	0.09
951	0.091
952	0.091
952	0.092
952	0.093
953	0.094
953	0.095
954	0.095
954	0.096
955	0.096
955	0.098
955	0.098
956	0.099
956	0.099
957	0.099
957	0.099
957	0.099
958	0.099
958	0.099
959	0.099
959	0.099
960	0.099
960	0.099
960	0.099
961	0.099
961	0.099
962	0.099
962	0.099
963	0.098
963	0.098
963	0.098
964	0.098
964	0.098
965	0.098
965	0.098
966	0.098
966	0.098
966	0.098
967	0.098
967	0.097
968	0.097
968	0.096
968	0.096
969	0.095
969	0.095
970	0.094
970	0.094
971	0.094
971	0.095
971	0.095
972	0.095
972	0.095
973	0.095
973	0.095
974	0.095
974	0.094
974	0.094
975	0.093
975	0.092
976	0.091
976	0.091
976	0.09
977	0.09
977	0.09
978	0.089
978	0.089
979	0.088
979	0.088
979	0.088
980	0.087
980	0.087
981	0.087
981	0.086
982	0.086
982	0.086
982	0.085
983	0.085
983	0.085
984	0.085
984	0.085
984	0.086
985	0.087
985	0.087
986	0.087
986	0.088
987	0.088
987	0.088
987	0.088
988	0.087
988	0.087
989	0.086
989	0.085
990	0.084
990	0.083
990	0.082
991	0.082
991	0.081
992	0.081
992	0.08
992	0.08
993	0.08
993	0.08
994	0.08
994	0.08
995	0.08
995	0.08
995	0.08
996	0.079
996	0.079
997	0.078
997	0.078
997	0.079
998	0.079
998	0.079
999	0.079
999	0.079
1000	0.079
1000	0.079
1000	0.08
1001	0.08
1001	0.08
1002	0.08
1002	0.08
1003	0.08
1003	0.08
1003	0.08
1004	0.079
1004	0.078
1005	0.077
1005	0.076
1005	0.075
1006	0.074
1006	0.073
1007	0.072
1007	0.071
1008	0.071
1008	0.07
1008	0.07
1009	0.069
1009	0.07
1010	0.07
1010	0.07
1010	0.07
1011	0.069
1011	0.069
1012	0.068
1012	0.067
1013	0.067
1013	0.065
1013	0.064
1014	0.064
1014	0.062
1015	0.062
1015	0.061
1016	0.06
1016	0.059
1016	0.059
1017	0.058
1017	0.057
1018	0.057
1018	0.056
1018	0.055
1019	0.055
1019	0.054
1020	0.054
1020	0.053
1021	0.052
1021	0.052
1021	0.051
1022	0.05
1022	0.049
1023	0.048
1023	0.048
1023	0.048
1024	0.048
1024	0.047
1025	0.048
1025	0.048
1026	0.048
1026	0.049
1026	0.049
1027	0.05
1027	0.05
1028	0.05
1028	0.051
1028	0.051
1029	0.051
1029	0.05
1030	0.05
1030	0.049
1031	0.049
1031	0.049
1031	0.049
1032	0.048
1032	0.048
1033	0.048
1033	0.049
1033	0.049
1034	0.049
1034	0.049
1035	0.05
1035	0.05
1036	0.049
1036	0.049
1036	0.049
1037	0.049
1037	0.049
1038	0.049
1038	0.049
1039	0.049
1039	0.049
1039	0.049
1040	0.05
1040	0.05
1041	0.051
1041	0.051
1041	0.052
1042	0.051
1042	0.051
1043	0.051
1043	0.05
1044	0.05
1044	0.049
1044	0.048
1045	0.047
1045	0.047
1046	0.046
1046	0.046
1046	0.046
1047	0.046
1047	0.047
1048	0.047
1048	0.047
1049	0.048
1049	0.048
1049	0.049
1050	0.049
1050	0.049
1051	0.049
1051	0.049
1051	0.05
1052	0.05
1052	0.05
1053	0.05
1053	0.05
1053	0.05
1054	0.049
1054	0.049
1055	0.049
1055	0.049
1056	0.048
1056	0.047
1056	0.046
1057	0.045
1057	0.044
1058	0.044
1058	0.043
1058	0.042
1059	0.042
1059	0.041
1060	0.04
1060	0.04
1061	0.04
1061	0.04
1061	0.04
1062	0.04
1062	0.04
1063	0.04
1063	0.041
1063	0.041
1064	0.041
1064	0.041
1065	0.041
1065	0.041
1066	0.04
1066	0.04
1066	0.04
1067	0.039
1067	0.039
1068	0.038
1068	0.037
1068	0.037
1069	0.037
1069	0.036
1070	0.036
1070	0.036
1071	0.035
1071	0.035
1071	0.034
1072	0.034
1072	0.034
1073	0.034
1073	0.034
1073	0.033
1074	0.034
1074	0.034
1075	0.033
1075	0.033
1076	0.032
1076	0.032
1076	0.032
1077	0.032
1077	0.031
1078	0.03
1078	0.029
1078	0.028
1079	0.028
1079	0.027
1080	0.026
1080	0.026
1080	0.025
1081	0.024
1081	0.023
1082	0.022
1082	0.021
1083	0.021
1083	0.02
1083	0.019
1084	0.018
1084	0.018
1085	0.017
1085	0.016
1085	0.016
1086	0.016
1086	0.015
1087	0.015
1087	0.015
1088	0.015
1088	0.015
1088	0.015
1089	0.014
1089	0.013
1090	0.012
1090	0.012
1090	0.011
1091	0.01
1091	0.01
1092	0.01
1092	0.01
1092	0.008
1093	0.007
1093	0.007
1094	0.007
1094	0.007
1095	0.006
1095	0.006
1095	0.005
1096	0.004
1096	0.003
1097	0.003
1097	0.002
1097	0.002
1098	0.001
1098	-0.001
1099	-0.001
1099	-0.002
1100	-0.004
1100	-0.006
1100	-0.007
1101	-0.01
1101	-0.013
1102	-0.015
1102	-0.018
1102	-0.019
1103	-0.02
1103	-0.023
1104	-0.024
1104	-0.026
1104	-0.028
1105	-0.03
1105	-0.032
1106	-0.035
1106	-0.036
1107	-0.04
1107	-0.045
1107	-0.05
1108	-0.052
1108	-0.055
1109	-0.057
1109	-0.061
1109	-0.065
1110	-0.065
1110	-0.068
1111	-0.075
1111	-0.072
