Data from 17C_3.4A_30min_2sec_int_Absorbance__66__00787.txt Node

Date: Mon Jun 19 16:50:37 CEST 2023
User: Marek
Spectrometer: MAYP115816
Trigger mode: 0
Integration Time (sec): 2.500000E-1
Scans to average: 10
Electric dark correction enabled: true
Nonlinearity correction enabled: true
Boxcar width: 5
XAxis mode: Wavelengths
Number of Pixels in Spectrum: 2068
>>>>>Begin Spectral Data<<<<<
199	-0.618
199	-0.628
200	-0.531
200	-0.481
201	-0.451
201	-0.438
202	-0.422
202	-0.408
203	-0.399
203	-0.396
204	-0.384
204	-0.37
205	-0.349
205	-0.344
205	-0.341
206	-0.342
206	-0.344
207	-0.334
207	-0.337
208	-0.339
208	-0.338
209	-0.335
209	-0.337
210	-0.34
210	-0.346
211	-0.348
211	-0.349
212	-0.351
212	-0.359
213	-0.357
213	-0.358
213	-0.363
214	-0.359
214	-0.357
215	-0.356
215	-0.361
216	-0.363
216	-0.369
217	-0.364
217	-0.372
218	-0.374
218	-0.376
219	-0.376
219	-0.385
220	-0.39
220	-0.4
221	-0.399
221	-0.403
221	-0.399
222	-0.395
222	-0.392
223	-0.396
223	-0.398
224	-0.402
224	-0.403
225	-0.398
225	-0.392
226	-0.396
226	-0.396
227	-0.399
227	-0.408
228	-0.409
228	-0.411
229	-0.411
229	-0.405
229	-0.4
230	-0.406
230	-0.409
231	-0.405
231	-0.395
232	-0.391
232	-0.39
233	-0.385
233	-0.385
234	-0.383
234	-0.381
235	-0.382
235	-0.385
236	-0.383
236	-0.384
236	-0.393
237	-0.397
237	-0.4
238	-0.406
238	-0.403
239	-0.403
239	-0.411
240	-0.41
240	-0.407
241	-0.413
241	-0.414
242	-0.416
242	-0.415
243	-0.411
243	-0.412
243	-0.421
244	-0.421
244	-0.42
245	-0.433
245	-0.43
246	-0.434
246	-0.437
247	-0.439
247	-0.443
248	-0.447
248	-0.444
249	-0.445
249	-0.454
250	-0.454
250	-0.45
250	-0.45
251	-0.449
251	-0.451
252	-0.451
252	-0.442
253	-0.446
253	-0.457
254	-0.455
254	-0.453
255	-0.457
255	-0.452
256	-0.45
256	-0.458
257	-0.455
257	-0.454
258	-0.471
258	-0.469
258	-0.463
259	-0.46
259	-0.467
260	-0.468
260	-0.474
261	-0.487
261	-0.478
262	-0.473
262	-0.475
263	-0.461
263	-0.455
264	-0.456
264	-0.465
265	-0.461
265	-0.467
265	-0.469
266	-0.463
266	-0.462
267	-0.476
267	-0.483
268	-0.499
268	-0.508
269	-0.506
269	-0.5
270	-0.505
270	-0.51
271	-0.509
271	-0.517
272	-0.518
272	-0.514
272	-0.508
273	-0.506
273	-0.515
274	-0.52
274	-0.524
275	-0.521
275	-0.511
276	-0.515
276	-0.505
277	-0.512
277	-0.528
278	-0.537
278	-0.532
278	-0.524
279	-0.528
279	-0.536
280	-0.536
280	-0.536
281	-0.532
281	-0.541
282	-0.535
282	-0.533
283	-0.525
283	-0.526
284	-0.523
284	-0.512
285	-0.504
285	-0.503
285	-0.502
286	-0.508
286	-0.501
287	-0.497
287	-0.484
288	-0.475
288	-0.485
289	-0.496
289	-0.506
290	-0.501
290	-0.501
291	-0.498
291	-0.495
292	-0.497
292	-0.502
292	-0.504
293	-0.508
293	-0.496
294	-0.485
294	-0.476
295	-0.472
295	-0.466
296	-0.467
296	-0.464
297	-0.459
297	-0.444
298	-0.439
298	-0.448
298	-0.439
299	-0.432
299	-0.434
300	-0.432
300	-0.429
301	-0.422
301	-0.422
302	-0.427
302	-0.437
303	-0.421
303	-0.406
304	-0.406
304	-0.405
305	-0.407
305	-0.405
305	-0.401
306	-0.385
306	-0.379
307	-0.368
307	-0.368
308	-0.382
308	-0.38
309	-0.387
309	-0.376
310	-0.363
310	-0.358
311	-0.351
311	-0.36
311	-0.357
312	-0.353
312	-0.351
313	-0.337
313	-0.34
314	-0.335
314	-0.338
315	-0.338
315	-0.339
316	-0.337
316	-0.33
317	-0.323
317	-0.32
318	-0.31
318	-0.307
318	-0.303
319	-0.293
319	-0.289
320	-0.284
320	-0.284
321	-0.285
321	-0.283
322	-0.277
322	-0.271
323	-0.271
323	-0.269
324	-0.263
324	-0.254
324	-0.244
325	-0.235
325	-0.219
326	-0.208
326	-0.191
327	-0.176
327	-0.157
328	-0.134
328	-0.112
329	-0.09
329	-0.067
330	-0.042
330	-0.012
330	0.015
331	0.042
331	0.069
332	0.093
332	0.114
333	0.136
333	0.158
334	0.177
334	0.193
335	0.209
335	0.222
336	0.234
336	0.247
336	0.255
337	0.265
337	0.272
338	0.28
338	0.284
339	0.291
339	0.297
340	0.3
340	0.304
341	0.307
341	0.309
342	0.313
342	0.316
342	0.318
343	0.32
343	0.323
344	0.324
344	0.325
345	0.326
345	0.327
346	0.328
346	0.329
347	0.329
347	0.329
348	0.33
348	0.331
348	0.331
349	0.331
349	0.331
350	0.331
350	0.331
351	0.331
351	0.331
352	0.331
352	0.331
353	0.331
353	0.331
354	0.33
354	0.33
354	0.33
355	0.33
355	0.329
356	0.33
356	0.329
357	0.329
357	0.328
358	0.328
358	0.328
359	0.327
359	0.327
360	0.327
360	0.327
360	0.327
361	0.326
361	0.326
362	0.326
362	0.326
363	0.325
363	0.325
364	0.325
364	0.325
365	0.325
365	0.325
366	0.325
366	0.325
366	0.325
367	0.325
367	0.325
368	0.324
368	0.324
369	0.324
369	0.324
370	0.323
370	0.323
371	0.323
371	0.323
372	0.323
372	0.322
372	0.322
373	0.322
373	0.322
374	0.322
374	0.321
375	0.321
375	0.321
376	0.321
376	0.321
377	0.321
377	0.321
378	0.321
378	0.32
378	0.32
379	0.32
379	0.32
380	0.32
380	0.319
381	0.319
381	0.319
382	0.319
382	0.318
383	0.318
383	0.318
383	0.318
384	0.317
384	0.317
385	0.317
385	0.317
386	0.316
386	0.316
387	0.316
387	0.316
388	0.316
388	0.315
389	0.315
389	0.315
389	0.315
390	0.315
390	0.315
391	0.315
391	0.314
392	0.314
392	0.314
393	0.314
393	0.314
394	0.313
394	0.313
394	0.313
395	0.313
395	0.312
396	0.312
396	0.312
397	0.311
397	0.311
398	0.311
398	0.311
399	0.31
399	0.31
400	0.31
400	0.31
400	0.309
401	0.309
401	0.309
402	0.309
402	0.309
403	0.308
403	0.308
404	0.308
404	0.308
405	0.308
405	0.307
405	0.307
406	0.307
406	0.307
407	0.306
407	0.306
408	0.306
408	0.306
409	0.306
409	0.305
410	0.305
410	0.305
411	0.305
411	0.305
411	0.305
412	0.305
412	0.304
413	0.304
413	0.304
414	0.304
414	0.303
415	0.303
415	0.303
416	0.302
416	0.302
416	0.302
417	0.302
417	0.302
418	0.302
418	0.302
419	0.301
419	0.301
420	0.301
420	0.301
421	0.301
421	0.301
421	0.301
422	0.301
422	0.301
423	0.301
423	0.301
424	0.3
424	0.3
425	0.3
425	0.3
426	0.3
426	0.299
427	0.299
427	0.299
427	0.299
428	0.299
428	0.299
429	0.298
429	0.298
430	0.298
430	0.298
431	0.298
431	0.298
432	0.297
432	0.297
432	0.297
433	0.297
433	0.296
434	0.296
434	0.296
435	0.296
435	0.296
436	0.296
436	0.296
437	0.296
437	0.296
437	0.295
438	0.295
438	0.295
439	0.295
439	0.295
440	0.295
440	0.295
441	0.295
441	0.295
442	0.295
442	0.294
442	0.294
443	0.294
443	0.294
444	0.294
444	0.293
445	0.293
445	0.293
446	0.293
446	0.293
447	0.293
447	0.293
447	0.294
448	0.294
448	0.294
449	0.294
449	0.294
450	0.294
450	0.294
451	0.294
451	0.294
452	0.294
452	0.294
452	0.294
453	0.294
453	0.294
454	0.294
454	0.294
455	0.294
455	0.294
456	0.293
456	0.293
457	0.293
457	0.293
458	0.293
458	0.293
458	0.293
459	0.293
459	0.294
460	0.293
460	0.293
461	0.294
461	0.294
462	0.294
462	0.295
463	0.295
463	0.295
463	0.296
464	0.296
464	0.296
465	0.296
465	0.296
466	0.297
466	0.297
467	0.297
467	0.297
467	0.298
468	0.298
468	0.298
469	0.299
469	0.299
470	0.3
470	0.3
471	0.3
471	0.3
472	0.301
472	0.301
472	0.301
473	0.302
473	0.302
474	0.302
474	0.303
475	0.303
475	0.303
476	0.304
476	0.305
477	0.305
477	0.305
477	0.306
478	0.306
478	0.307
479	0.308
479	0.309
480	0.309
480	0.31
481	0.31
481	0.311
482	0.312
482	0.313
482	0.314
483	0.315
483	0.316
484	0.316
484	0.316
485	0.317
485	0.318
486	0.319
486	0.32
487	0.321
487	0.321
487	0.322
488	0.323
488	0.324
489	0.326
489	0.328
490	0.33
490	0.331
491	0.333
491	0.334
492	0.336
492	0.337
492	0.339
493	0.341
493	0.342
494	0.344
494	0.346
495	0.347
495	0.349
496	0.35
496	0.352
496	0.354
497	0.356
497	0.358
498	0.359
498	0.361
499	0.363
499	0.365
500	0.367
500	0.369
501	0.371
501	0.373
501	0.375
502	0.376
502	0.378
503	0.381
503	0.383
504	0.385
504	0.387
505	0.389
505	0.391
506	0.394
506	0.396
506	0.398
507	0.401
507	0.403
508	0.405
508	0.407
509	0.41
509	0.412
510	0.414
510	0.417
511	0.419
511	0.421
511	0.424
512	0.426
512	0.428
513	0.43
513	0.432
514	0.434
514	0.437
515	0.439
515	0.441
515	0.443
516	0.445
516	0.447
517	0.449
517	0.452
518	0.453
518	0.455
519	0.457
519	0.459
520	0.461
520	0.464
520	0.466
521	0.468
521	0.47
522	0.471
522	0.473
523	0.475
523	0.477
524	0.478
524	0.479
524	0.481
525	0.482
525	0.483
526	0.484
526	0.485
527	0.486
527	0.488
528	0.489
528	0.49
529	0.49
529	0.491
529	0.492
530	0.493
530	0.494
531	0.494
531	0.495
532	0.495
532	0.496
533	0.497
533	0.497
533	0.498
534	0.498
534	0.499
535	0.499
535	0.5
536	0.5
536	0.5
537	0.5
537	0.5
538	0.5
538	0.5
538	0.5
539	0.5
539	0.5
540	0.5
540	0.499
541	0.499
541	0.499
542	0.498
542	0.498
542	0.497
543	0.496
543	0.496
544	0.495
544	0.494
545	0.494
545	0.494
546	0.493
546	0.493
547	0.492
547	0.491
547	0.49
548	0.49
548	0.489
549	0.488
549	0.488
550	0.487
550	0.486
551	0.485
551	0.485
551	0.484
552	0.484
552	0.483
553	0.483
553	0.482
554	0.481
554	0.48
555	0.479
555	0.478
556	0.477
556	0.477
556	0.476
557	0.475
557	0.473
558	0.472
558	0.471
559	0.47
559	0.469
560	0.468
560	0.467
560	0.466
561	0.465
561	0.464
562	0.463
562	0.462
563	0.461
563	0.46
564	0.459
564	0.458
564	0.457
565	0.457
565	0.455
566	0.454
566	0.453
567	0.451
567	0.45
568	0.448
568	0.447
568	0.446
569	0.445
569	0.443
570	0.441
570	0.44
571	0.439
571	0.437
572	0.436
572	0.435
573	0.433
573	0.432
573	0.43
574	0.429
574	0.428
575	0.427
575	0.427
576	0.426
576	0.424
577	0.423
577	0.423
577	0.422
578	0.422
578	0.421
579	0.421
579	0.42
580	0.418
580	0.416
581	0.414
581	0.413
581	0.412
582	0.411
582	0.41
583	0.409
583	0.407
584	0.405
584	0.404
585	0.403
585	0.402
585	0.401
586	0.4
586	0.399
587	0.398
587	0.397
588	0.395
588	0.395
589	0.394
589	0.393
590	0.391
590	0.39
590	0.39
591	0.388
591	0.386
592	0.385
592	0.383
593	0.382
593	0.381
594	0.379
594	0.378
594	0.377
595	0.376
595	0.375
596	0.374
596	0.374
597	0.373
597	0.372
598	0.37
598	0.369
598	0.368
599	0.367
599	0.365
600	0.364
600	0.362
601	0.361
601	0.359
602	0.357
602	0.356
602	0.355
603	0.354
603	0.353
604	0.352
604	0.351
605	0.35
605	0.35
606	0.348
606	0.347
606	0.345
607	0.344
607	0.343
608	0.341
608	0.34
609	0.339
609	0.338
610	0.336
610	0.335
610	0.334
611	0.334
611	0.333
612	0.333
612	0.332
613	0.33
613	0.329
614	0.327
614	0.325
614	0.323
615	0.321
615	0.32
616	0.318
616	0.316
617	0.314
617	0.312
618	0.31
618	0.309
618	0.307
619	0.307
619	0.306
620	0.305
620	0.303
621	0.302
621	0.301
622	0.299
622	0.297
622	0.295
623	0.294
623	0.292
624	0.291
624	0.289
625	0.287
625	0.286
626	0.284
626	0.282
626	0.281
627	0.279
627	0.277
628	0.275
628	0.272
629	0.269
629	0.267
630	0.264
630	0.261
630	0.258
631	0.254
631	0.251
632	0.247
632	0.243
633	0.24
633	0.236
634	0.231
634	0.227
634	0.223
635	0.218
635	0.213
636	0.208
636	0.202
637	0.197
637	0.191
638	0.185
638	0.178
638	0.172
639	0.165
639	0.158
640	0.152
640	0.145
641	0.138
641	0.132
642	0.125
642	0.118
642	0.112
643	0.105
643	0.097
644	0.089
644	0.082
645	0.073
645	0.065
646	0.058
646	0.05
646	0.041
647	0.033
647	0.025
648	0.017
648	0.009
649	-0
649	-0.008
650	-0.016
650	-0.025
650	-0.033
651	-0.044
651	-0.058
652	-0.074
652	-0.09
653	-0.104
653	-0.116
653	-0.112
654	-0.088
654	-0.073
655	-0.075
655	-0.078
656	-0.082
656	-0.088
657	-0.091
657	-0.094
657	-0.098
658	-0.104
658	-0.132
659	-0.219
659	-0.324
660	-0.37
660	-0.396
661	-0.427
661	-0.46
661	-0.499
662	-0.537
662	-0.579
663	-0.624
663	-0.674
664	-0.726
664	-0.785
665	-0.844
665	-0.911
665	-0.973
666	-1.036
666	-1.105
667	-1.175
667	-1.247
668	-1.326
668	-1.407
669	-1.491
669	-1.579
669	-1.683
670	-1.835
670	-2.044
671	-2.15
671	-2.269
672	-2.42
672	-2.565
672	-2.663
673	-2.733
673	-2.767
674	-2.785
674	-2.795
675	-2.805
675	-2.895
676	-3.048
676	-2.988
676	-2.747
677	-2.516
677	-2.303
678	-2.006
678	-1.762
679	-1.628
679	-1.531
680	-1.451
680	-1.382
680	-1.323
681	-1.286
681	-1.231
682	-1.192
682	-1.156
683	-1.122
683	-1.104
684	-1.082
684	-1.062
684	-1.038
685	-1.011
685	-0.986
686	-0.958
686	-0.94
687	-0.912
687	-0.898
687	-0.875
688	-0.847
688	-0.825
689	-0.803
689	-0.789
690	-0.769
690	-0.755
691	-0.747
691	-0.749
691	-0.764
692	-0.755
692	-0.745
693	-0.738
693	-0.744
694	-0.738
694	-0.73
695	-0.73
695	-0.727
695	-0.709
696	-0.705
696	-0.681
697	-0.679
697	-0.691
698	-0.693
698	-0.681
698	-0.691
699	-0.693
699	-0.692
700	-0.683
700	-0.696
701	-0.693
701	-0.701
702	-0.701
702	-0.687
702	-0.678
703	-0.67
703	-0.663
704	-0.657
704	-0.656
705	-0.666
705	-0.657
705	-0.646
706	-0.644
706	-0.638
707	-0.644
707	-0.641
708	-0.64
708	-0.632
709	-0.634
709	-0.634
709	-0.625
710	-0.634
710	-0.642
711	-0.633
711	-0.632
712	-0.631
712	-0.643
713	-0.641
713	-0.647
713	-0.639
714	-0.635
714	-0.637
715	-0.624
715	-0.612
716	-0.62
716	-0.621
716	-0.614
717	-0.614
717	-0.615
718	-0.606
718	-0.605
719	-0.609
719	-0.61
720	-0.606
720	-0.614
720	-0.607
721	-0.596
721	-0.594
722	-0.582
722	-0.573
723	-0.568
723	-0.572
723	-0.563
724	-0.565
724	-0.569
725	-0.569
725	-0.576
726	-0.589
726	-0.593
727	-0.598
727	-0.612
727	-0.622
728	-0.624
728	-0.628
729	-0.626
729	-0.631
730	-0.634
730	-0.628
730	-0.618
731	-0.604
731	-0.615
732	-0.618
732	-0.618
733	-0.612
733	-0.616
734	-0.611
734	-0.613
734	-0.602
735	-0.599
735	-0.6
736	-0.609
736	-0.593
737	-0.587
737	-0.588
737	-0.598
738	-0.594
738	-0.593
739	-0.589
739	-0.601
740	-0.598
740	-0.596
741	-0.593
741	-0.594
741	-0.596
742	-0.593
742	-0.593
743	-0.602
743	-0.606
744	-0.602
744	-0.591
744	-0.594
745	-0.603
745	-0.594
746	-0.594
746	-0.591
747	-0.592
747	-0.581
748	-0.567
748	-0.573
748	-0.575
749	-0.575
749	-0.577
750	-0.566
750	-0.568
751	-0.572
751	-0.58
751	-0.583
752	-0.588
752	-0.597
753	-0.59
753	-0.588
754	-0.589
754	-0.582
754	-0.596
755	-0.609
755	-0.616
756	-0.603
756	-0.6
757	-0.6
757	-0.598
758	-0.6
758	-0.599
758	-0.604
759	-0.611
759	-0.596
760	-0.59
760	-0.588
761	-0.601
761	-0.599
761	-0.596
762	-0.601
762	-0.603
763	-0.609
763	-0.607
764	-0.605
764	-0.613
764	-0.618
765	-0.609
765	-0.597
766	-0.602
766	-0.61
767	-0.625
767	-0.616
768	-0.611
768	-0.619
768	-0.624
769	-0.643
769	-0.645
770	-0.65
770	-0.662
771	-0.66
771	-0.662
771	-0.663
772	-0.67
772	-0.667
773	-0.666
773	-0.663
774	-0.658
774	-0.658
775	-0.659
775	-0.653
775	-0.66
776	-0.657
776	-0.645
777	-0.655
777	-0.674
778	-0.674
778	-0.692
778	-0.681
779	-0.699
779	-0.707
780	-0.72
780	-0.721
781	-0.731
781	-0.728
781	-0.739
782	-0.741
782	-0.743
783	-0.731
783	-0.73
784	-0.713
784	-0.707
784	-0.719
785	-0.726
785	-0.719
786	-0.726
786	-0.707
787	-0.692
787	-0.69
788	-0.691
788	-0.7
788	-0.71
789	-0.706
789	-0.684
790	-0.664
790	-0.658
791	-0.657
791	-0.674
791	-0.678
792	-0.674
792	-0.651
793	-0.638
793	-0.616
794	-0.619
794	-0.613
794	-0.621
795	-0.62
795	-0.612
796	-0.595
796	-0.601
797	-0.59
797	-0.604
797	-0.613
798	-0.624
798	-0.62
799	-0.628
799	-0.614
800	-0.617
800	-0.61
801	-0.615
801	-0.602
801	-0.616
802	-0.622
802	-0.621
803	-0.624
803	-0.633
804	-0.63
804	-0.642
804	-0.631
805	-0.636
805	-0.624
806	-0.626
806	-0.612
807	-0.612
807	-0.593
807	-0.581
808	-0.572
808	-0.565
809	-0.55
809	-0.559
810	-0.556
810	-0.553
810	-0.551
811	-0.558
811	-0.549
812	-0.553
812	-0.555
813	-0.558
813	-0.555
813	-0.561
814	-0.565
814	-0.568
815	-0.569
815	-0.574
816	-0.566
816	-0.571
817	-0.578
817	-0.594
817	-0.607
818	-0.613
818	-0.618
819	-0.609
819	-0.612
820	-0.619
820	-0.614
820	-0.624
821	-0.62
821	-0.607
822	-0.576
822	-0.555
823	-0.554
823	-0.554
823	-0.551
824	-0.543
824	-0.548
825	-0.541
825	-0.523
826	-0.518
826	-0.525
826	-0.537
827	-0.533
827	-0.53
828	-0.511
828	-0.51
829	-0.505
829	-0.492
829	-0.484
830	-0.494
830	-0.492
831	-0.488
831	-0.476
832	-0.475
832	-0.468
832	-0.478
833	-0.472
833	-0.471
834	-0.47
834	-0.478
835	-0.465
835	-0.462
835	-0.456
836	-0.456
836	-0.454
837	-0.451
837	-0.442
838	-0.435
838	-0.421
839	-0.409
839	-0.398
839	-0.389
840	-0.378
840	-0.375
841	-0.362
841	-0.354
842	-0.348
842	-0.34
842	-0.336
843	-0.334
843	-0.33
844	-0.322
844	-0.317
845	-0.311
845	-0.303
845	-0.292
846	-0.282
846	-0.269
847	-0.257
847	-0.249
848	-0.24
848	-0.23
848	-0.219
849	-0.21
849	-0.2
850	-0.189
850	-0.185
851	-0.179
851	-0.171
851	-0.164
852	-0.152
852	-0.141
853	-0.133
853	-0.128
854	-0.118
854	-0.109
854	-0.1
855	-0.09
855	-0.086
856	-0.077
856	-0.069
857	-0.064
857	-0.058
857	-0.049
858	-0.04
858	-0.035
859	-0.029
859	-0.022
860	-0.015
860	-0.006
860	-0.001
861	0.004
861	0.011
862	0.016
862	0.02
863	0.024
863	0.031
863	0.034
864	0.037
864	0.041
865	0.045
865	0.047
866	0.05
866	0.051
866	0.053
867	0.056
867	0.058
868	0.059
868	0.062
869	0.064
869	0.066
869	0.067
870	0.069
870	0.072
871	0.074
871	0.076
872	0.077
872	0.078
872	0.078
873	0.078
873	0.078
874	0.078
874	0.078
875	0.077
875	0.076
875	0.075
876	0.073
876	0.072
877	0.071
877	0.069
878	0.068
878	0.066
878	0.064
879	0.062
879	0.061
880	0.06
880	0.059
881	0.059
881	0.059
881	0.059
882	0.058
882	0.059
883	0.059
883	0.058
884	0.059
884	0.059
884	0.058
885	0.058
885	0.058
886	0.058
886	0.058
887	0.057
887	0.057
887	0.057
888	0.057
888	0.057
889	0.058
889	0.058
890	0.059
890	0.058
890	0.059
891	0.058
891	0.059
892	0.059
892	0.059
893	0.059
893	0.059
893	0.058
894	0.058
894	0.057
895	0.057
895	0.056
895	0.056
896	0.056
896	0.055
897	0.054
897	0.053
898	0.053
898	0.052
898	0.053
899	0.052
899	0.053
900	0.053
900	0.053
901	0.053
901	0.053
901	0.053
902	0.053
902	0.054
903	0.054
903	0.054
904	0.054
904	0.054
904	0.055
905	0.055
905	0.056
906	0.056
906	0.055
907	0.055
907	0.054
907	0.054
908	0.054
908	0.053
909	0.052
909	0.052
910	0.051
910	0.051
910	0.05
911	0.05
911	0.051
912	0.051
912	0.051
913	0.051
913	0.052
913	0.053
914	0.053
914	0.053
915	0.054
915	0.055
916	0.055
916	0.056
916	0.056
917	0.056
917	0.056
918	0.056
918	0.055
918	0.055
919	0.054
919	0.054
920	0.054
920	0.053
921	0.053
921	0.053
921	0.052
922	0.052
922	0.052
923	0.051
923	0.052
924	0.052
924	0.052
924	0.052
925	0.051
925	0.051
926	0.051
926	0.051
927	0.051
927	0.051
927	0.05
928	0.05
928	0.05
929	0.049
929	0.049
930	0.049
930	0.049
930	0.049
931	0.05
931	0.05
932	0.05
932	0.05
933	0.05
933	0.049
933	0.048
934	0.048
934	0.047
935	0.046
935	0.045
935	0.044
936	0.043
936	0.042
937	0.041
937	0.041
938	0.041
938	0.041
938	0.041
939	0.041
939	0.041
940	0.042
940	0.042
941	0.042
941	0.043
941	0.043
942	0.044
942	0.044
943	0.043
943	0.043
944	0.042
944	0.042
944	0.041
945	0.041
945	0.04
946	0.039
946	0.038
946	0.038
947	0.037
947	0.037
948	0.038
948	0.038
949	0.038
949	0.038
949	0.038
950	0.039
950	0.039
951	0.04
951	0.04
952	0.041
952	0.042
952	0.042
953	0.043
953	0.044
954	0.044
954	0.045
955	0.046
955	0.047
955	0.047
956	0.048
956	0.048
957	0.049
957	0.048
957	0.049
958	0.049
958	0.049
959	0.049
959	0.049
960	0.049
960	0.048
960	0.048
961	0.048
961	0.049
962	0.049
962	0.049
963	0.049
963	0.049
963	0.049
964	0.05
964	0.05
965	0.05
965	0.05
966	0.05
966	0.05
966	0.05
967	0.05
967	0.05
968	0.05
968	0.049
968	0.049
969	0.049
969	0.049
970	0.049
970	0.049
971	0.049
971	0.049
971	0.049
972	0.049
972	0.049
973	0.049
973	0.048
974	0.047
974	0.047
974	0.046
975	0.046
975	0.045
976	0.044
976	0.043
976	0.043
977	0.043
977	0.042
978	0.042
978	0.042
979	0.042
979	0.041
979	0.041
980	0.041
980	0.041
981	0.041
981	0.041
982	0.04
982	0.04
982	0.039
983	0.039
983	0.038
984	0.038
984	0.038
984	0.038
985	0.038
985	0.039
986	0.039
986	0.039
987	0.04
987	0.04
987	0.041
988	0.041
988	0.041
989	0.041
989	0.041
990	0.04
990	0.04
990	0.039
991	0.039
991	0.038
992	0.038
992	0.038
992	0.038
993	0.038
993	0.038
994	0.038
994	0.038
995	0.039
995	0.039
995	0.039
996	0.039
996	0.039
997	0.039
997	0.039
997	0.039
998	0.039
998	0.039
999	0.039
999	0.039
1000	0.039
1000	0.038
1000	0.038
1001	0.038
1001	0.037
1002	0.036
1002	0.036
1003	0.035
1003	0.035
1003	0.033
1004	0.032
1004	0.031
1005	0.03
1005	0.028
1005	0.027
1006	0.026
1006	0.025
1007	0.024
1007	0.023
1008	0.022
1008	0.022
1008	0.022
1009	0.022
1009	0.022
1010	0.022
1010	0.022
1010	0.022
1011	0.022
1011	0.022
1012	0.021
1012	0.02
1013	0.019
1013	0.018
1013	0.017
1014	0.016
1014	0.015
1015	0.014
1015	0.013
1016	0.012
1016	0.011
1016	0.011
1017	0.01
1017	0.01
1018	0.01
1018	0.01
1018	0.009
1019	0.009
1019	0.008
1020	0.008
1020	0.007
1021	0.007
1021	0.006
1021	0.005
1022	0.005
1022	0.004
1023	0.004
1023	0.004
1023	0.004
1024	0.004
1024	0.004
1025	0.004
1025	0.005
1026	0.005
1026	0.006
1026	0.006
1027	0.006
1027	0.006
1028	0.006
1028	0.006
1028	0.005
1029	0.006
1029	0.005
1030	0.005
1030	0.005
1031	0.005
1031	0.005
1031	0.005
1032	0.005
1032	0.006
1033	0.007
1033	0.007
1033	0.008
1034	0.008
1034	0.009
1035	0.009
1035	0.01
1036	0.01
1036	0.01
1036	0.01
1037	0.009
1037	0.009
1038	0.009
1038	0.009
1039	0.009
1039	0.008
1039	0.008
1040	0.008
1040	0.008
1041	0.008
1041	0.009
1041	0.009
1042	0.009
1042	0.009
1043	0.009
1043	0.009
1044	0.009
1044	0.009
1044	0.01
1045	0.01
1045	0.01
1046	0.01
1046	0.01
1046	0.011
1047	0.011
1047	0.011
1048	0.012
1048	0.013
1049	0.013
1049	0.014
1049	0.014
1050	0.014
1050	0.015
1051	0.015
1051	0.015
1051	0.015
1052	0.015
1052	0.015
1053	0.014
1053	0.014
1053	0.014
1054	0.013
1054	0.012
1055	0.012
1055	0.012
1056	0.011
1056	0.01
1056	0.009
1057	0.008
1057	0.008
1058	0.007
1058	0.006
1058	0.006
1059	0.006
1059	0.005
1060	0.004
1060	0.004
1061	0.004
1061	0.004
1061	0.004
1062	0.005
1062	0.005
1063	0.005
1063	0.005
1063	0.005
1064	0.005
1064	0.005
1065	0.005
1065	0.005
1066	0.004
1066	0.004
1066	0.003
1067	0.003
1067	0.002
1068	0.001
1068	0
1068	-0
1069	-0.001
1069	-0.001
1070	-0.002
1070	-0.002
1071	-0.002
1071	-0.002
1071	-0.003
1072	-0.003
1072	-0.003
1073	-0.003
1073	-0.003
1073	-0.003
1074	-0.003
1074	-0.002
1075	-0.003
1075	-0.003
1076	-0.004
1076	-0.004
1076	-0.005
1077	-0.005
1077	-0.005
1078	-0.006
1078	-0.006
1078	-0.007
1079	-0.008
1079	-0.008
1080	-0.009
1080	-0.009
1080	-0.01
1081	-0.011
1081	-0.011
1082	-0.012
1082	-0.013
1083	-0.014
1083	-0.014
1083	-0.015
1084	-0.015
1084	-0.015
1085	-0.016
1085	-0.016
1085	-0.017
1086	-0.017
1086	-0.017
1087	-0.017
1087	-0.017
1088	-0.017
1088	-0.017
1088	-0.018
1089	-0.018
1089	-0.019
1090	-0.02
1090	-0.02
1090	-0.02
1091	-0.021
1091	-0.021
1092	-0.022
1092	-0.022
1092	-0.023
1093	-0.023
1093	-0.023
1094	-0.023
1094	-0.024
1095	-0.025
1095	-0.025
1095	-0.025
1096	-0.026
1096	-0.027
1097	-0.026
1097	-0.027
1097	-0.027
1098	-0.028
1098	-0.029
1099	-0.029
1099	-0.03
1100	-0.031
1100	-0.032
1100	-0.034
1101	-0.036
1101	-0.038
1102	-0.039
1102	-0.041
1102	-0.041
1103	-0.042
1103	-0.044
1104	-0.045
1104	-0.046
1104	-0.048
1105	-0.049
1105	-0.052
1106	-0.055
1106	-0.057
1107	-0.06
1107	-0.064
1107	-0.068
1108	-0.07
1108	-0.071
1109	-0.073
1109	-0.077
1109	-0.079
1110	-0.079
1110	-0.082
1111	-0.086
1111	-0.087
