Data from 17C_3.4A_30min_2sec_int_Absorbance__827__01548.txt Node

Date: Mon Jun 19 17:22:20 CEST 2023
User: Marek
Spectrometer: MAYP115816
Trigger mode: 0
Integration Time (sec): 2.500000E-1
Scans to average: 10
Electric dark correction enabled: true
Nonlinearity correction enabled: true
Boxcar width: 5
XAxis mode: Wavelengths
Number of Pixels in Spectrum: 2068
>>>>>Begin Spectral Data<<<<<
199	-0.691
199	-0.706
200	-0.612
200	-0.563
201	-0.526
201	-0.516
202	-0.495
202	-0.481
203	-0.476
203	-0.474
204	-0.463
204	-0.452
205	-0.429
205	-0.424
205	-0.42
206	-0.423
206	-0.424
207	-0.417
207	-0.419
208	-0.419
208	-0.416
209	-0.409
209	-0.41
210	-0.414
210	-0.421
211	-0.423
211	-0.425
212	-0.429
212	-0.437
213	-0.435
213	-0.437
213	-0.441
214	-0.437
214	-0.435
215	-0.434
215	-0.437
216	-0.441
216	-0.448
217	-0.442
217	-0.447
218	-0.45
218	-0.45
219	-0.453
219	-0.464
220	-0.469
220	-0.478
221	-0.477
221	-0.477
221	-0.47
222	-0.465
222	-0.465
223	-0.468
223	-0.472
224	-0.477
224	-0.477
225	-0.47
225	-0.467
226	-0.473
226	-0.475
227	-0.482
227	-0.49
228	-0.492
228	-0.493
229	-0.493
229	-0.486
229	-0.482
230	-0.487
230	-0.49
231	-0.484
231	-0.476
232	-0.471
232	-0.471
233	-0.466
233	-0.464
234	-0.464
234	-0.46
235	-0.462
235	-0.468
236	-0.467
236	-0.47
236	-0.476
237	-0.482
237	-0.481
238	-0.49
238	-0.489
239	-0.49
239	-0.497
240	-0.498
240	-0.496
241	-0.502
241	-0.499
242	-0.502
242	-0.498
243	-0.495
243	-0.495
243	-0.503
244	-0.502
244	-0.504
245	-0.515
245	-0.513
246	-0.519
246	-0.525
247	-0.527
247	-0.533
248	-0.539
248	-0.537
249	-0.539
249	-0.548
250	-0.547
250	-0.542
250	-0.544
251	-0.538
251	-0.539
252	-0.542
252	-0.534
253	-0.536
253	-0.549
254	-0.545
254	-0.541
255	-0.547
255	-0.542
256	-0.539
256	-0.551
257	-0.547
257	-0.546
258	-0.56
258	-0.558
258	-0.553
259	-0.55
259	-0.561
260	-0.561
260	-0.565
261	-0.577
261	-0.57
262	-0.568
262	-0.567
263	-0.556
263	-0.552
264	-0.553
264	-0.562
265	-0.556
265	-0.562
265	-0.564
266	-0.56
266	-0.555
267	-0.568
267	-0.574
268	-0.589
268	-0.598
269	-0.596
269	-0.592
270	-0.598
270	-0.602
271	-0.603
271	-0.609
272	-0.613
272	-0.608
272	-0.602
273	-0.601
273	-0.608
274	-0.613
274	-0.618
275	-0.618
275	-0.611
276	-0.618
276	-0.612
277	-0.619
277	-0.637
278	-0.648
278	-0.643
278	-0.638
279	-0.641
279	-0.649
280	-0.648
280	-0.647
281	-0.64
281	-0.646
282	-0.639
282	-0.638
283	-0.628
283	-0.629
284	-0.625
284	-0.613
285	-0.608
285	-0.607
285	-0.605
286	-0.613
286	-0.607
287	-0.603
287	-0.589
288	-0.582
288	-0.59
289	-0.601
289	-0.612
290	-0.603
290	-0.6
291	-0.597
291	-0.589
292	-0.592
292	-0.598
292	-0.602
293	-0.606
293	-0.595
294	-0.585
294	-0.576
295	-0.572
295	-0.569
296	-0.569
296	-0.567
297	-0.562
297	-0.547
298	-0.539
298	-0.549
298	-0.538
299	-0.531
299	-0.534
300	-0.531
300	-0.527
301	-0.521
301	-0.521
302	-0.529
302	-0.537
303	-0.525
303	-0.512
304	-0.514
304	-0.515
305	-0.515
305	-0.514
305	-0.512
306	-0.496
306	-0.49
307	-0.476
307	-0.478
308	-0.49
308	-0.487
309	-0.49
309	-0.479
310	-0.467
310	-0.463
311	-0.456
311	-0.463
311	-0.459
312	-0.455
312	-0.454
313	-0.441
313	-0.444
314	-0.438
314	-0.44
315	-0.442
315	-0.44
316	-0.437
316	-0.429
317	-0.423
317	-0.419
318	-0.409
318	-0.406
318	-0.401
319	-0.394
319	-0.393
320	-0.386
320	-0.387
321	-0.391
321	-0.393
322	-0.388
322	-0.385
323	-0.386
323	-0.381
324	-0.376
324	-0.365
324	-0.353
325	-0.345
325	-0.331
326	-0.317
326	-0.298
327	-0.282
327	-0.26
328	-0.233
328	-0.215
329	-0.192
329	-0.171
330	-0.146
330	-0.116
330	-0.091
331	-0.066
331	-0.042
332	-0.021
332	-0.001
333	0.018
333	0.04
334	0.059
334	0.072
335	0.086
335	0.098
336	0.11
336	0.122
336	0.129
337	0.139
337	0.147
338	0.154
338	0.158
339	0.164
339	0.169
340	0.173
340	0.177
341	0.18
341	0.183
342	0.186
342	0.188
342	0.191
343	0.192
343	0.195
344	0.196
344	0.197
345	0.199
345	0.199
346	0.2
346	0.201
347	0.202
347	0.202
348	0.203
348	0.204
348	0.204
349	0.204
349	0.204
350	0.204
350	0.205
351	0.205
351	0.205
352	0.205
352	0.204
353	0.204
353	0.204
354	0.204
354	0.204
354	0.204
355	0.204
355	0.204
356	0.203
356	0.203
357	0.203
357	0.203
358	0.203
358	0.202
359	0.202
359	0.202
360	0.202
360	0.202
360	0.201
361	0.201
361	0.201
362	0.201
362	0.201
363	0.201
363	0.201
364	0.201
364	0.201
365	0.201
365	0.201
366	0.201
366	0.201
366	0.201
367	0.201
367	0.201
368	0.201
368	0.2
369	0.2
369	0.2
370	0.2
370	0.2
371	0.2
371	0.2
372	0.2
372	0.2
372	0.2
373	0.2
373	0.2
374	0.2
374	0.2
375	0.2
375	0.2
376	0.2
376	0.2
377	0.2
377	0.2
378	0.2
378	0.2
378	0.2
379	0.2
379	0.2
380	0.199
380	0.199
381	0.199
381	0.199
382	0.199
382	0.199
383	0.199
383	0.198
383	0.198
384	0.198
384	0.198
385	0.198
385	0.198
386	0.198
386	0.198
387	0.198
387	0.198
388	0.198
388	0.198
389	0.198
389	0.198
389	0.198
390	0.198
390	0.198
391	0.198
391	0.198
392	0.198
392	0.198
393	0.198
393	0.198
394	0.198
394	0.197
394	0.197
395	0.197
395	0.197
396	0.196
396	0.196
397	0.196
397	0.196
398	0.196
398	0.196
399	0.196
399	0.196
400	0.196
400	0.196
400	0.196
401	0.196
401	0.196
402	0.195
402	0.195
403	0.195
403	0.195
404	0.195
404	0.195
405	0.195
405	0.195
405	0.195
406	0.195
406	0.195
407	0.195
407	0.194
408	0.194
408	0.194
409	0.194
409	0.194
410	0.194
410	0.194
411	0.194
411	0.194
411	0.195
412	0.195
412	0.195
413	0.194
413	0.194
414	0.194
414	0.194
415	0.194
415	0.194
416	0.194
416	0.194
416	0.194
417	0.193
417	0.193
418	0.193
418	0.193
419	0.194
419	0.194
420	0.194
420	0.194
421	0.194
421	0.194
421	0.194
422	0.194
422	0.194
423	0.194
423	0.194
424	0.193
424	0.193
425	0.193
425	0.193
426	0.192
426	0.192
427	0.192
427	0.192
427	0.192
428	0.192
428	0.192
429	0.192
429	0.192
430	0.192
430	0.192
431	0.192
431	0.191
432	0.191
432	0.191
432	0.191
433	0.191
433	0.191
434	0.19
434	0.19
435	0.19
435	0.19
436	0.19
436	0.19
437	0.19
437	0.19
437	0.19
438	0.19
438	0.19
439	0.19
439	0.19
440	0.19
440	0.19
441	0.19
441	0.19
442	0.19
442	0.19
442	0.19
443	0.19
443	0.19
444	0.19
444	0.19
445	0.19
445	0.19
446	0.19
446	0.19
447	0.19
447	0.19
447	0.19
448	0.191
448	0.191
449	0.191
449	0.191
450	0.191
450	0.191
451	0.191
451	0.191
452	0.191
452	0.191
452	0.191
453	0.19
453	0.19
454	0.19
454	0.19
455	0.19
455	0.19
456	0.19
456	0.19
457	0.189
457	0.189
458	0.189
458	0.189
458	0.189
459	0.189
459	0.19
460	0.189
460	0.189
461	0.189
461	0.189
462	0.189
462	0.189
463	0.189
463	0.189
463	0.19
464	0.189
464	0.189
465	0.19
465	0.19
466	0.19
466	0.19
467	0.19
467	0.19
467	0.191
468	0.191
468	0.191
469	0.191
469	0.192
470	0.192
470	0.192
471	0.192
471	0.192
472	0.192
472	0.192
472	0.192
473	0.192
473	0.193
474	0.193
474	0.193
475	0.193
475	0.193
476	0.193
476	0.194
477	0.194
477	0.194
477	0.194
478	0.194
478	0.194
479	0.194
479	0.194
480	0.194
480	0.195
481	0.195
481	0.195
482	0.196
482	0.196
482	0.197
483	0.197
483	0.198
484	0.198
484	0.198
485	0.199
485	0.199
486	0.199
486	0.2
487	0.2
487	0.201
487	0.201
488	0.202
488	0.202
489	0.203
489	0.204
490	0.205
490	0.206
491	0.207
491	0.207
492	0.208
492	0.208
492	0.209
493	0.21
493	0.211
494	0.211
494	0.212
495	0.212
495	0.213
496	0.214
496	0.215
496	0.216
497	0.217
497	0.218
498	0.219
498	0.22
499	0.22
499	0.222
500	0.223
500	0.224
501	0.224
501	0.225
501	0.226
502	0.226
502	0.227
503	0.228
503	0.229
504	0.229
504	0.231
505	0.232
505	0.233
506	0.234
506	0.235
506	0.236
507	0.237
507	0.238
508	0.239
508	0.24
509	0.241
509	0.242
510	0.243
510	0.244
511	0.245
511	0.246
511	0.247
512	0.248
512	0.249
513	0.25
513	0.251
514	0.252
514	0.253
515	0.254
515	0.255
515	0.256
516	0.257
516	0.258
517	0.259
517	0.26
518	0.261
518	0.262
519	0.263
519	0.264
520	0.265
520	0.266
520	0.267
521	0.268
521	0.269
522	0.27
522	0.27
523	0.271
523	0.272
524	0.272
524	0.273
524	0.273
525	0.273
525	0.274
526	0.274
526	0.275
527	0.275
527	0.275
528	0.276
528	0.276
529	0.277
529	0.278
529	0.279
530	0.279
530	0.28
531	0.28
531	0.281
532	0.281
532	0.282
533	0.282
533	0.282
533	0.282
534	0.282
534	0.282
535	0.282
535	0.282
536	0.281
536	0.281
537	0.28
537	0.28
538	0.28
538	0.28
538	0.28
539	0.28
539	0.28
540	0.28
540	0.28
541	0.279
541	0.28
542	0.279
542	0.279
542	0.278
543	0.278
543	0.277
544	0.277
544	0.276
545	0.276
545	0.276
546	0.276
546	0.276
547	0.275
547	0.275
547	0.274
548	0.274
548	0.274
549	0.273
549	0.273
550	0.273
550	0.272
551	0.271
551	0.272
551	0.272
552	0.273
552	0.273
553	0.273
553	0.273
554	0.273
554	0.272
555	0.272
555	0.271
556	0.271
556	0.27
556	0.27
557	0.269
557	0.268
558	0.267
558	0.267
559	0.266
559	0.265
560	0.265
560	0.264
560	0.264
561	0.264
561	0.263
562	0.262
562	0.262
563	0.261
563	0.261
564	0.26
564	0.26
564	0.26
565	0.26
565	0.259
566	0.259
566	0.259
567	0.258
567	0.258
568	0.257
568	0.257
568	0.256
569	0.255
569	0.255
570	0.253
570	0.252
571	0.252
571	0.252
572	0.251
572	0.251
573	0.25
573	0.25
573	0.249
574	0.249
574	0.249
575	0.249
575	0.249
576	0.249
576	0.248
577	0.248
577	0.248
577	0.248
578	0.248
578	0.249
579	0.249
579	0.249
580	0.248
580	0.247
581	0.246
581	0.246
581	0.246
582	0.247
582	0.246
583	0.246
583	0.246
584	0.245
584	0.244
585	0.244
585	0.245
585	0.245
586	0.245
586	0.245
587	0.245
587	0.245
588	0.244
588	0.244
589	0.244
589	0.245
590	0.245
590	0.245
590	0.245
591	0.245
591	0.245
592	0.245
592	0.244
593	0.244
593	0.244
594	0.244
594	0.244
594	0.244
595	0.244
595	0.244
596	0.244
596	0.245
597	0.246
597	0.246
598	0.246
598	0.246
598	0.246
599	0.245
599	0.244
600	0.244
600	0.243
601	0.243
601	0.242
602	0.242
602	0.242
602	0.242
603	0.243
603	0.244
604	0.244
604	0.245
605	0.246
605	0.246
606	0.246
606	0.246
606	0.246
607	0.245
607	0.245
608	0.245
608	0.244
609	0.243
609	0.244
610	0.243
610	0.243
610	0.243
611	0.244
611	0.244
612	0.245
612	0.246
613	0.246
613	0.246
614	0.246
614	0.245
614	0.244
615	0.244
615	0.243
616	0.243
616	0.242
617	0.242
617	0.241
618	0.24
618	0.24
618	0.24
619	0.241
619	0.241
620	0.242
620	0.242
621	0.242
621	0.242
622	0.241
622	0.241
622	0.241
623	0.241
623	0.241
624	0.241
624	0.24
625	0.24
625	0.24
626	0.24
626	0.239
626	0.239
627	0.239
627	0.238
628	0.238
628	0.237
629	0.236
629	0.235
630	0.233
630	0.232
630	0.231
631	0.23
631	0.228
632	0.226
632	0.225
633	0.223
633	0.221
634	0.219
634	0.218
634	0.216
635	0.214
635	0.211
636	0.209
636	0.206
637	0.203
637	0.2
638	0.197
638	0.194
638	0.19
639	0.186
639	0.182
640	0.178
640	0.174
641	0.171
641	0.167
642	0.163
642	0.159
642	0.155
643	0.15
643	0.145
644	0.14
644	0.135
645	0.13
645	0.125
646	0.119
646	0.113
646	0.107
647	0.102
647	0.095
648	0.089
648	0.083
649	0.076
649	0.069
650	0.062
650	0.055
650	0.047
651	0.038
651	0.026
652	0.012
652	-0.002
653	-0.015
653	-0.026
653	-0.024
654	-0.007
654	0.002
655	-0.002
655	-0.008
656	-0.014
656	-0.02
657	-0.024
657	-0.029
657	-0.036
658	-0.042
658	-0.07
659	-0.149
659	-0.244
660	-0.287
660	-0.313
661	-0.341
661	-0.371
661	-0.404
662	-0.435
662	-0.468
663	-0.506
663	-0.549
664	-0.592
664	-0.642
665	-0.692
665	-0.749
665	-0.803
666	-0.859
666	-0.921
667	-0.985
667	-1.05
668	-1.122
668	-1.194
669	-1.266
669	-1.339
669	-1.415
670	-1.477
670	-1.492
671	-1.575
671	-1.908
672	-2.159
672	-2.361
672	-2.498
673	-2.594
673	-2.678
674	-2.733
674	-2.754
675	-2.781
675	-2.924
676	-3.129
676	-3.084
676	-2.864
677	-2.664
677	-2.509
678	-2.347
678	-2.089
679	-1.755
679	-1.598
680	-1.498
680	-1.41
680	-1.336
681	-1.289
681	-1.228
682	-1.187
682	-1.148
683	-1.112
683	-1.095
684	-1.074
684	-1.055
684	-1.031
685	-1.006
685	-0.983
686	-0.959
686	-0.943
687	-0.917
687	-0.905
687	-0.884
688	-0.857
688	-0.835
689	-0.814
689	-0.8
690	-0.782
690	-0.77
691	-0.765
691	-0.769
691	-0.785
692	-0.777
692	-0.768
693	-0.762
693	-0.77
694	-0.765
694	-0.758
695	-0.763
695	-0.758
695	-0.74
696	-0.736
696	-0.715
697	-0.715
697	-0.73
698	-0.733
698	-0.723
698	-0.736
699	-0.738
699	-0.734
700	-0.727
700	-0.743
701	-0.741
701	-0.747
702	-0.746
702	-0.735
702	-0.726
703	-0.718
703	-0.71
704	-0.707
704	-0.706
705	-0.716
705	-0.709
705	-0.697
706	-0.697
706	-0.691
707	-0.694
707	-0.691
708	-0.691
708	-0.683
709	-0.685
709	-0.687
709	-0.678
710	-0.686
710	-0.696
711	-0.689
711	-0.691
712	-0.691
712	-0.702
713	-0.701
713	-0.709
713	-0.699
714	-0.695
714	-0.697
715	-0.687
715	-0.673
716	-0.679
716	-0.68
716	-0.671
717	-0.673
717	-0.675
718	-0.666
718	-0.668
719	-0.675
719	-0.675
720	-0.673
720	-0.685
720	-0.678
721	-0.67
721	-0.672
722	-0.659
722	-0.648
723	-0.645
723	-0.648
723	-0.635
724	-0.636
724	-0.638
725	-0.634
725	-0.642
726	-0.655
726	-0.657
727	-0.664
727	-0.678
727	-0.686
728	-0.687
728	-0.694
729	-0.695
729	-0.699
730	-0.707
730	-0.7
730	-0.689
731	-0.676
731	-0.686
732	-0.693
732	-0.693
733	-0.692
733	-0.698
734	-0.69
734	-0.691
734	-0.677
735	-0.676
735	-0.675
736	-0.683
736	-0.668
737	-0.657
737	-0.659
737	-0.668
738	-0.662
738	-0.662
739	-0.66
739	-0.672
740	-0.669
740	-0.671
741	-0.669
741	-0.669
741	-0.674
742	-0.67
742	-0.668
743	-0.676
743	-0.681
744	-0.678
744	-0.67
744	-0.673
745	-0.678
745	-0.67
746	-0.671
746	-0.668
747	-0.67
747	-0.66
748	-0.648
748	-0.656
748	-0.656
749	-0.653
749	-0.653
750	-0.642
750	-0.645
751	-0.647
751	-0.657
751	-0.658
752	-0.66
752	-0.67
753	-0.662
753	-0.661
754	-0.667
754	-0.663
754	-0.676
755	-0.692
755	-0.703
756	-0.69
756	-0.688
757	-0.687
757	-0.682
758	-0.683
758	-0.68
758	-0.684
759	-0.691
759	-0.676
760	-0.667
760	-0.663
761	-0.673
761	-0.67
761	-0.67
762	-0.679
762	-0.68
763	-0.689
763	-0.684
764	-0.68
764	-0.687
764	-0.693
765	-0.683
765	-0.67
766	-0.679
766	-0.685
767	-0.699
767	-0.693
768	-0.685
768	-0.695
768	-0.699
769	-0.716
769	-0.716
770	-0.722
770	-0.733
771	-0.73
771	-0.733
771	-0.735
772	-0.738
772	-0.737
773	-0.736
773	-0.733
774	-0.731
774	-0.733
775	-0.736
775	-0.731
775	-0.738
776	-0.738
776	-0.728
777	-0.737
777	-0.758
778	-0.754
778	-0.774
778	-0.762
779	-0.782
779	-0.79
780	-0.807
780	-0.805
781	-0.815
781	-0.812
781	-0.827
782	-0.827
782	-0.831
783	-0.816
783	-0.816
784	-0.797
784	-0.786
784	-0.792
785	-0.798
785	-0.785
786	-0.788
786	-0.766
787	-0.749
787	-0.748
788	-0.751
788	-0.76
788	-0.77
789	-0.77
789	-0.753
790	-0.734
790	-0.736
791	-0.739
791	-0.756
791	-0.763
792	-0.756
792	-0.734
793	-0.723
793	-0.7
794	-0.704
794	-0.694
794	-0.704
795	-0.701
795	-0.694
796	-0.677
796	-0.682
797	-0.674
797	-0.685
797	-0.692
798	-0.706
798	-0.701
799	-0.712
799	-0.698
800	-0.704
800	-0.696
801	-0.705
801	-0.692
801	-0.704
802	-0.713
802	-0.712
803	-0.713
803	-0.721
804	-0.716
804	-0.729
804	-0.716
805	-0.719
805	-0.705
806	-0.71
806	-0.697
807	-0.694
807	-0.676
807	-0.662
808	-0.653
808	-0.648
809	-0.63
809	-0.639
810	-0.638
810	-0.632
810	-0.628
811	-0.634
811	-0.625
812	-0.628
812	-0.632
813	-0.637
813	-0.632
813	-0.638
814	-0.639
814	-0.643
815	-0.647
815	-0.65
816	-0.642
816	-0.647
817	-0.654
817	-0.672
817	-0.687
818	-0.695
818	-0.699
819	-0.69
819	-0.69
820	-0.697
820	-0.692
820	-0.702
821	-0.701
821	-0.689
822	-0.658
822	-0.634
823	-0.631
823	-0.633
823	-0.633
824	-0.628
824	-0.634
825	-0.627
825	-0.61
826	-0.606
826	-0.613
826	-0.621
827	-0.618
827	-0.617
828	-0.597
828	-0.595
829	-0.584
829	-0.568
829	-0.561
830	-0.569
830	-0.563
831	-0.557
831	-0.547
832	-0.544
832	-0.534
832	-0.543
833	-0.537
833	-0.538
834	-0.537
834	-0.546
835	-0.535
835	-0.531
835	-0.525
836	-0.522
836	-0.518
837	-0.516
837	-0.504
838	-0.495
838	-0.482
839	-0.469
839	-0.454
839	-0.443
840	-0.432
840	-0.428
841	-0.417
841	-0.408
842	-0.4
842	-0.392
842	-0.387
843	-0.383
843	-0.379
844	-0.37
844	-0.364
845	-0.357
845	-0.345
845	-0.332
846	-0.323
846	-0.31
847	-0.298
847	-0.288
848	-0.274
848	-0.262
848	-0.246
849	-0.233
849	-0.22
850	-0.208
850	-0.203
851	-0.194
851	-0.182
851	-0.173
852	-0.156
852	-0.144
853	-0.136
853	-0.131
854	-0.12
854	-0.108
854	-0.096
855	-0.082
855	-0.075
856	-0.065
856	-0.056
857	-0.05
857	-0.041
857	-0.03
858	-0.019
858	-0.012
859	-0.005
859	0.004
860	0.013
860	0.026
860	0.033
861	0.042
861	0.05
862	0.057
862	0.065
863	0.072
863	0.081
863	0.087
864	0.092
864	0.098
865	0.104
865	0.109
866	0.114
866	0.117
866	0.12
867	0.124
867	0.128
868	0.13
868	0.134
869	0.137
869	0.139
869	0.141
870	0.144
870	0.146
871	0.149
871	0.15
872	0.152
872	0.152
872	0.153
873	0.154
873	0.154
874	0.154
874	0.154
875	0.153
875	0.152
875	0.151
876	0.15
876	0.149
877	0.147
877	0.146
878	0.144
878	0.142
878	0.14
879	0.138
879	0.137
880	0.136
880	0.135
881	0.135
881	0.134
881	0.134
882	0.134
882	0.134
883	0.133
883	0.132
884	0.132
884	0.131
884	0.13
885	0.129
885	0.129
886	0.128
886	0.127
887	0.126
887	0.126
887	0.126
888	0.126
888	0.126
889	0.126
889	0.126
890	0.126
890	0.125
890	0.125
891	0.125
891	0.125
892	0.125
892	0.126
893	0.125
893	0.125
893	0.125
894	0.125
894	0.124
895	0.124
895	0.123
895	0.123
896	0.122
896	0.121
897	0.119
897	0.119
898	0.118
898	0.117
898	0.117
899	0.118
899	0.119
900	0.119
900	0.119
901	0.12
901	0.121
901	0.121
902	0.122
902	0.122
903	0.122
903	0.123
904	0.123
904	0.124
904	0.124
905	0.125
905	0.126
906	0.127
906	0.127
907	0.127
907	0.126
907	0.126
908	0.126
908	0.125
909	0.125
909	0.124
910	0.123
910	0.123
910	0.122
911	0.122
911	0.123
912	0.123
912	0.123
913	0.124
913	0.124
913	0.125
914	0.126
914	0.126
915	0.127
915	0.127
916	0.128
916	0.128
916	0.128
917	0.128
917	0.128
918	0.128
918	0.128
918	0.127
919	0.127
919	0.127
920	0.127
920	0.127
921	0.127
921	0.127
921	0.127
922	0.127
922	0.127
923	0.127
923	0.127
924	0.127
924	0.126
924	0.126
925	0.125
925	0.124
926	0.123
926	0.122
927	0.121
927	0.12
927	0.12
928	0.119
928	0.118
929	0.118
929	0.118
930	0.117
930	0.117
930	0.116
931	0.116
931	0.116
932	0.115
932	0.115
933	0.114
933	0.112
933	0.111
934	0.109
934	0.108
935	0.107
935	0.106
935	0.105
936	0.104
936	0.103
937	0.102
937	0.101
938	0.101
938	0.101
938	0.102
939	0.102
939	0.103
940	0.103
940	0.104
941	0.104
941	0.105
941	0.106
942	0.107
942	0.107
943	0.107
943	0.107
944	0.107
944	0.106
944	0.106
945	0.106
945	0.105
946	0.104
946	0.102
946	0.101
947	0.101
947	0.1
948	0.101
948	0.101
949	0.101
949	0.102
949	0.102
950	0.103
950	0.104
951	0.105
951	0.105
952	0.106
952	0.107
952	0.107
953	0.108
953	0.109
954	0.109
954	0.109
955	0.11
955	0.111
955	0.112
956	0.113
956	0.114
957	0.114
957	0.114
957	0.114
958	0.114
958	0.115
959	0.115
959	0.115
960	0.115
960	0.114
960	0.115
961	0.114
961	0.114
962	0.114
962	0.114
963	0.114
963	0.114
963	0.113
964	0.113
964	0.113
965	0.114
965	0.113
966	0.113
966	0.113
966	0.113
967	0.113
967	0.112
968	0.111
968	0.11
968	0.11
969	0.11
969	0.109
970	0.109
970	0.109
971	0.109
971	0.109
971	0.109
972	0.109
972	0.109
973	0.109
973	0.109
974	0.108
974	0.108
974	0.108
975	0.107
975	0.106
976	0.105
976	0.105
976	0.105
977	0.104
977	0.104
978	0.104
978	0.104
979	0.103
979	0.103
979	0.103
980	0.103
980	0.102
981	0.102
981	0.102
982	0.102
982	0.101
982	0.101
983	0.101
983	0.101
984	0.101
984	0.101
984	0.101
985	0.102
985	0.102
986	0.102
986	0.102
987	0.102
987	0.102
987	0.102
988	0.101
988	0.1
989	0.1
989	0.099
990	0.098
990	0.097
990	0.097
991	0.096
991	0.096
992	0.095
992	0.095
992	0.095
993	0.095
993	0.095
994	0.095
994	0.095
995	0.095
995	0.094
995	0.094
996	0.094
996	0.093
997	0.093
997	0.093
997	0.093
998	0.093
998	0.093
999	0.093
999	0.093
1000	0.094
1000	0.094
1000	0.094
1001	0.095
1001	0.095
1002	0.095
1002	0.095
1003	0.095
1003	0.095
1003	0.094
1004	0.094
1004	0.094
1005	0.093
1005	0.092
1005	0.091
1006	0.09
1006	0.089
1007	0.088
1007	0.087
1008	0.086
1008	0.086
1008	0.085
1009	0.085
1009	0.085
1010	0.085
1010	0.085
1010	0.085
1011	0.084
1011	0.083
1012	0.083
1012	0.082
1013	0.081
1013	0.08
1013	0.079
1014	0.078
1014	0.077
1015	0.076
1015	0.075
1016	0.074
1016	0.074
1016	0.073
1017	0.072
1017	0.072
1018	0.071
1018	0.071
1018	0.07
1019	0.07
1019	0.07
1020	0.069
1020	0.068
1021	0.068
1021	0.067
1021	0.065
1022	0.064
1022	0.064
1023	0.063
1023	0.063
1023	0.062
1024	0.062
1024	0.061
1025	0.061
1025	0.062
1026	0.062
1026	0.063
1026	0.063
1027	0.064
1027	0.064
1028	0.065
1028	0.065
1028	0.065
1029	0.065
1029	0.064
1030	0.064
1030	0.063
1031	0.063
1031	0.063
1031	0.063
1032	0.062
1032	0.062
1033	0.062
1033	0.062
1033	0.062
1034	0.062
1034	0.063
1035	0.063
1035	0.063
1036	0.063
1036	0.062
1036	0.063
1037	0.063
1037	0.063
1038	0.063
1038	0.063
1039	0.063
1039	0.063
1039	0.064
1040	0.064
1040	0.064
1041	0.065
1041	0.065
1041	0.065
1042	0.065
1042	0.065
1043	0.064
1043	0.064
1044	0.064
1044	0.063
1044	0.062
1045	0.062
1045	0.061
1046	0.06
1046	0.06
1046	0.06
1047	0.06
1047	0.06
1048	0.061
1048	0.061
1049	0.061
1049	0.062
1049	0.062
1050	0.062
1050	0.063
1051	0.063
1051	0.063
1051	0.063
1052	0.063
1052	0.063
1053	0.063
1053	0.063
1053	0.063
1054	0.062
1054	0.062
1055	0.062
1055	0.062
1056	0.061
1056	0.061
1056	0.059
1057	0.059
1057	0.058
1058	0.057
1058	0.057
1058	0.056
1059	0.056
1059	0.055
1060	0.054
1060	0.054
1061	0.054
1061	0.054
1061	0.053
1062	0.053
1062	0.053
1063	0.053
1063	0.053
1063	0.054
1064	0.054
1064	0.054
1065	0.054
1065	0.053
1066	0.053
1066	0.053
1066	0.052
1067	0.052
1067	0.052
1068	0.051
1068	0.05
1068	0.049
1069	0.049
1069	0.048
1070	0.047
1070	0.047
1071	0.047
1071	0.046
1071	0.046
1072	0.045
1072	0.045
1073	0.045
1073	0.045
1073	0.045
1074	0.046
1074	0.046
1075	0.045
1075	0.045
1076	0.045
1076	0.045
1076	0.044
1077	0.043
1077	0.043
1078	0.042
1078	0.041
1078	0.04
1079	0.039
1079	0.039
1080	0.038
1080	0.037
1080	0.036
1081	0.036
1081	0.035
1082	0.035
1082	0.034
1083	0.033
1083	0.032
1083	0.031
1084	0.03
1084	0.029
1085	0.028
1085	0.028
1085	0.027
1086	0.027
1086	0.025
1087	0.026
1087	0.025
1088	0.024
1088	0.024
1088	0.024
1089	0.023
1089	0.023
1090	0.022
1090	0.022
1090	0.021
1091	0.02
1091	0.02
1092	0.019
1092	0.02
1092	0.018
1093	0.018
1093	0.018
1094	0.018
1094	0.017
1095	0.016
1095	0.015
1095	0.016
1096	0.014
1096	0.013
1097	0.013
1097	0.012
1097	0.011
1098	0.009
1098	0.008
1099	0.007
1099	0.006
1100	0.004
1100	0.003
1100	0.001
1101	-0.002
1101	-0.006
1102	-0.007
1102	-0.01
1102	-0.01
1103	-0.013
1103	-0.016
1104	-0.018
1104	-0.021
1104	-0.023
1105	-0.025
1105	-0.028
1106	-0.032
1106	-0.034
1107	-0.038
1107	-0.043
1107	-0.048
1108	-0.049
1108	-0.051
1109	-0.054
1109	-0.058
1109	-0.062
1110	-0.063
1110	-0.066
1111	-0.072
1111	-0.074
