Data from 17C_3.4A_30min_2sec_int_Absorbance__487__01208.txt Node

Date: Mon Jun 19 17:08:10 CEST 2023
User: Marek
Spectrometer: MAYP115816
Trigger mode: 0
Integration Time (sec): 2.500000E-1
Scans to average: 10
Electric dark correction enabled: true
Nonlinearity correction enabled: true
Boxcar width: 5
XAxis mode: Wavelengths
Number of Pixels in Spectrum: 2068
>>>>>Begin Spectral Data<<<<<
199	-0.671
199	-0.684
200	-0.59
200	-0.533
201	-0.497
201	-0.484
202	-0.463
202	-0.45
203	-0.443
203	-0.439
204	-0.425
204	-0.412
205	-0.389
205	-0.383
205	-0.383
206	-0.388
206	-0.392
207	-0.385
207	-0.387
208	-0.389
208	-0.389
209	-0.385
209	-0.386
210	-0.391
210	-0.396
211	-0.398
211	-0.398
212	-0.397
212	-0.403
213	-0.402
213	-0.402
213	-0.407
214	-0.403
214	-0.401
215	-0.399
215	-0.402
216	-0.404
216	-0.413
217	-0.409
217	-0.414
218	-0.418
218	-0.419
219	-0.42
219	-0.429
220	-0.434
220	-0.444
221	-0.446
221	-0.449
221	-0.44
222	-0.437
222	-0.439
223	-0.441
223	-0.444
224	-0.448
224	-0.45
225	-0.445
225	-0.438
226	-0.442
226	-0.442
227	-0.449
227	-0.46
228	-0.459
228	-0.46
229	-0.46
229	-0.455
229	-0.45
230	-0.456
230	-0.46
231	-0.454
231	-0.445
232	-0.439
232	-0.437
233	-0.432
233	-0.428
234	-0.428
234	-0.424
235	-0.426
235	-0.43
236	-0.429
236	-0.433
236	-0.44
237	-0.447
237	-0.448
238	-0.458
238	-0.458
239	-0.458
239	-0.469
240	-0.468
240	-0.466
241	-0.471
241	-0.469
242	-0.472
242	-0.466
243	-0.46
243	-0.46
243	-0.468
244	-0.466
244	-0.465
245	-0.478
245	-0.479
246	-0.485
246	-0.491
247	-0.494
247	-0.5
248	-0.508
248	-0.505
249	-0.507
249	-0.515
250	-0.511
250	-0.505
250	-0.505
251	-0.502
251	-0.501
252	-0.504
252	-0.493
253	-0.498
253	-0.508
254	-0.509
254	-0.509
255	-0.517
255	-0.513
256	-0.51
256	-0.522
257	-0.518
257	-0.515
258	-0.531
258	-0.529
258	-0.528
259	-0.524
259	-0.531
260	-0.531
260	-0.535
261	-0.545
261	-0.535
262	-0.533
262	-0.533
263	-0.522
263	-0.517
264	-0.514
264	-0.523
265	-0.518
265	-0.528
265	-0.53
266	-0.529
266	-0.527
267	-0.539
267	-0.547
268	-0.562
268	-0.57
269	-0.567
269	-0.561
270	-0.567
270	-0.566
271	-0.565
271	-0.57
272	-0.574
272	-0.569
272	-0.562
273	-0.561
273	-0.57
274	-0.577
274	-0.581
275	-0.582
275	-0.578
276	-0.585
276	-0.578
277	-0.583
277	-0.605
278	-0.615
278	-0.609
278	-0.602
279	-0.603
279	-0.613
280	-0.61
280	-0.609
281	-0.601
281	-0.607
282	-0.597
282	-0.596
283	-0.585
283	-0.587
284	-0.582
284	-0.572
285	-0.569
285	-0.565
285	-0.561
286	-0.57
286	-0.566
287	-0.565
287	-0.55
288	-0.542
288	-0.551
289	-0.563
289	-0.572
290	-0.558
290	-0.558
291	-0.557
291	-0.552
292	-0.554
292	-0.56
292	-0.563
293	-0.571
293	-0.559
294	-0.55
294	-0.54
295	-0.54
295	-0.539
296	-0.536
296	-0.533
297	-0.528
297	-0.514
298	-0.506
298	-0.512
298	-0.502
299	-0.495
299	-0.498
300	-0.495
300	-0.489
301	-0.481
301	-0.48
302	-0.486
302	-0.494
303	-0.481
303	-0.466
304	-0.468
304	-0.467
305	-0.469
305	-0.466
305	-0.465
306	-0.452
306	-0.445
307	-0.434
307	-0.435
308	-0.449
308	-0.448
309	-0.452
309	-0.441
310	-0.429
310	-0.425
311	-0.418
311	-0.426
311	-0.425
312	-0.421
312	-0.418
313	-0.405
313	-0.407
314	-0.402
314	-0.404
315	-0.405
315	-0.406
316	-0.402
316	-0.395
317	-0.387
317	-0.382
318	-0.372
318	-0.367
318	-0.363
319	-0.355
319	-0.352
320	-0.347
320	-0.346
321	-0.35
321	-0.35
322	-0.345
322	-0.343
323	-0.342
323	-0.338
324	-0.331
324	-0.323
324	-0.315
325	-0.303
325	-0.29
326	-0.275
326	-0.259
327	-0.244
327	-0.222
328	-0.2
328	-0.182
329	-0.16
329	-0.138
330	-0.112
330	-0.083
330	-0.058
331	-0.032
331	-0.006
332	0.017
332	0.036
333	0.056
333	0.077
334	0.094
334	0.108
335	0.123
335	0.136
336	0.148
336	0.159
336	0.167
337	0.177
337	0.184
338	0.192
338	0.196
339	0.203
339	0.208
340	0.211
340	0.215
341	0.218
341	0.221
342	0.224
342	0.226
342	0.229
343	0.23
343	0.232
344	0.234
344	0.234
345	0.236
345	0.237
346	0.238
346	0.238
347	0.239
347	0.239
348	0.24
348	0.24
348	0.241
349	0.241
349	0.242
350	0.241
350	0.241
351	0.241
351	0.241
352	0.241
352	0.241
353	0.241
353	0.241
354	0.241
354	0.24
354	0.24
355	0.24
355	0.24
356	0.24
356	0.24
357	0.239
357	0.239
358	0.238
358	0.238
359	0.238
359	0.238
360	0.238
360	0.238
360	0.238
361	0.237
361	0.237
362	0.238
362	0.238
363	0.238
363	0.238
364	0.238
364	0.238
365	0.238
365	0.238
366	0.238
366	0.238
366	0.238
367	0.238
367	0.237
368	0.237
368	0.237
369	0.237
369	0.237
370	0.236
370	0.236
371	0.236
371	0.236
372	0.236
372	0.236
372	0.236
373	0.236
373	0.236
374	0.236
374	0.236
375	0.235
375	0.235
376	0.235
376	0.235
377	0.235
377	0.235
378	0.235
378	0.235
378	0.235
379	0.235
379	0.234
380	0.234
380	0.234
381	0.234
381	0.234
382	0.234
382	0.233
383	0.233
383	0.233
383	0.233
384	0.233
384	0.232
385	0.232
385	0.232
386	0.232
386	0.232
387	0.232
387	0.232
388	0.232
388	0.232
389	0.232
389	0.232
389	0.232
390	0.232
390	0.232
391	0.232
391	0.232
392	0.232
392	0.232
393	0.232
393	0.231
394	0.231
394	0.231
394	0.231
395	0.23
395	0.23
396	0.23
396	0.23
397	0.23
397	0.23
398	0.23
398	0.23
399	0.23
399	0.23
400	0.229
400	0.229
400	0.229
401	0.229
401	0.229
402	0.229
402	0.228
403	0.228
403	0.228
404	0.228
404	0.228
405	0.228
405	0.228
405	0.228
406	0.227
406	0.227
407	0.227
407	0.227
408	0.227
408	0.226
409	0.226
409	0.226
410	0.226
410	0.226
411	0.226
411	0.226
411	0.226
412	0.226
412	0.226
413	0.226
413	0.227
414	0.226
414	0.226
415	0.226
415	0.226
416	0.226
416	0.226
416	0.225
417	0.225
417	0.225
418	0.225
418	0.225
419	0.225
419	0.225
420	0.225
420	0.225
421	0.225
421	0.226
421	0.226
422	0.226
422	0.226
423	0.225
423	0.225
424	0.225
424	0.225
425	0.224
425	0.224
426	0.224
426	0.224
427	0.223
427	0.223
427	0.223
428	0.223
428	0.223
429	0.223
429	0.223
430	0.223
430	0.223
431	0.223
431	0.222
432	0.222
432	0.222
432	0.222
433	0.222
433	0.222
434	0.221
434	0.221
435	0.221
435	0.221
436	0.221
436	0.221
437	0.22
437	0.22
437	0.22
438	0.22
438	0.22
439	0.221
439	0.22
440	0.22
440	0.22
441	0.22
441	0.22
442	0.22
442	0.22
442	0.22
443	0.22
443	0.22
444	0.22
444	0.22
445	0.22
445	0.22
446	0.22
446	0.221
447	0.221
447	0.221
447	0.221
448	0.221
448	0.221
449	0.221
449	0.221
450	0.222
450	0.221
451	0.221
451	0.221
452	0.221
452	0.221
452	0.221
453	0.221
453	0.221
454	0.221
454	0.22
455	0.22
455	0.22
456	0.22
456	0.22
457	0.22
457	0.22
458	0.22
458	0.22
458	0.22
459	0.22
459	0.22
460	0.22
460	0.22
461	0.22
461	0.22
462	0.22
462	0.219
463	0.22
463	0.22
463	0.22
464	0.22
464	0.22
465	0.22
465	0.22
466	0.221
466	0.221
467	0.221
467	0.222
467	0.222
468	0.222
468	0.222
469	0.222
469	0.223
470	0.223
470	0.224
471	0.224
471	0.224
472	0.224
472	0.224
472	0.224
473	0.224
473	0.225
474	0.225
474	0.225
475	0.225
475	0.226
476	0.226
476	0.226
477	0.226
477	0.227
477	0.227
478	0.227
478	0.227
479	0.228
479	0.228
480	0.228
480	0.229
481	0.229
481	0.23
482	0.23
482	0.231
482	0.231
483	0.232
483	0.233
484	0.233
484	0.233
485	0.234
485	0.234
486	0.235
486	0.235
487	0.236
487	0.236
487	0.237
488	0.238
488	0.238
489	0.24
489	0.241
490	0.242
490	0.243
491	0.244
491	0.245
492	0.246
492	0.247
492	0.248
493	0.248
493	0.249
494	0.25
494	0.251
495	0.252
495	0.253
496	0.254
496	0.256
496	0.257
497	0.258
497	0.26
498	0.261
498	0.262
499	0.263
499	0.265
500	0.266
500	0.267
501	0.268
501	0.269
501	0.27
502	0.271
502	0.272
503	0.274
503	0.275
504	0.276
504	0.277
505	0.279
505	0.28
506	0.281
506	0.282
506	0.284
507	0.285
507	0.286
508	0.287
508	0.289
509	0.29
509	0.292
510	0.293
510	0.295
511	0.296
511	0.297
511	0.299
512	0.3
512	0.302
513	0.303
513	0.304
514	0.305
514	0.307
515	0.308
515	0.309
515	0.31
516	0.312
516	0.313
517	0.315
517	0.316
518	0.317
518	0.318
519	0.319
519	0.321
520	0.322
520	0.324
520	0.325
521	0.326
521	0.327
522	0.328
522	0.329
523	0.33
523	0.331
524	0.332
524	0.333
524	0.333
525	0.333
525	0.334
526	0.334
526	0.335
527	0.335
527	0.336
528	0.336
528	0.337
529	0.338
529	0.338
529	0.339
530	0.34
530	0.34
531	0.341
531	0.341
532	0.341
532	0.342
533	0.342
533	0.342
533	0.342
534	0.342
534	0.342
535	0.341
535	0.341
536	0.341
536	0.341
537	0.34
537	0.34
538	0.34
538	0.34
538	0.34
539	0.34
539	0.34
540	0.339
540	0.339
541	0.338
541	0.338
542	0.337
542	0.337
542	0.336
543	0.335
543	0.335
544	0.334
544	0.334
545	0.333
545	0.333
546	0.333
546	0.332
547	0.331
547	0.331
547	0.33
548	0.329
548	0.329
549	0.328
549	0.327
550	0.326
550	0.326
551	0.325
551	0.325
551	0.325
552	0.325
552	0.325
553	0.325
553	0.325
554	0.324
554	0.323
555	0.323
555	0.322
556	0.322
556	0.321
556	0.32
557	0.319
557	0.318
558	0.317
558	0.316
559	0.315
559	0.315
560	0.314
560	0.313
560	0.312
561	0.312
561	0.311
562	0.31
562	0.309
563	0.308
563	0.308
564	0.307
564	0.307
564	0.306
565	0.306
565	0.306
566	0.305
566	0.304
567	0.304
567	0.303
568	0.302
568	0.301
568	0.3
569	0.299
569	0.298
570	0.297
570	0.295
571	0.295
571	0.294
572	0.294
572	0.293
573	0.292
573	0.292
573	0.291
574	0.29
574	0.29
575	0.29
575	0.29
576	0.289
576	0.288
577	0.288
577	0.288
577	0.288
578	0.288
578	0.288
579	0.288
579	0.288
580	0.287
580	0.286
581	0.285
581	0.284
581	0.284
582	0.284
582	0.284
583	0.284
583	0.283
584	0.282
584	0.281
585	0.281
585	0.282
585	0.282
586	0.281
586	0.281
587	0.281
587	0.281
588	0.28
588	0.28
589	0.28
589	0.281
590	0.28
590	0.28
590	0.281
591	0.281
591	0.28
592	0.279
592	0.279
593	0.279
593	0.279
594	0.278
594	0.278
594	0.278
595	0.278
595	0.277
596	0.277
596	0.278
597	0.279
597	0.278
598	0.278
598	0.278
598	0.278
599	0.277
599	0.276
600	0.275
600	0.275
601	0.275
601	0.274
602	0.273
602	0.273
602	0.273
603	0.274
603	0.275
604	0.275
604	0.276
605	0.276
605	0.276
606	0.276
606	0.275
606	0.275
607	0.274
607	0.274
608	0.273
608	0.272
609	0.271
609	0.271
610	0.271
610	0.271
610	0.271
611	0.271
611	0.271
612	0.272
612	0.272
613	0.272
613	0.272
614	0.271
614	0.27
614	0.27
615	0.269
615	0.269
616	0.268
616	0.268
617	0.267
617	0.266
618	0.265
618	0.265
618	0.264
619	0.265
619	0.265
620	0.265
620	0.264
621	0.264
621	0.263
622	0.263
622	0.262
622	0.262
623	0.261
623	0.261
624	0.261
624	0.26
625	0.259
625	0.259
626	0.259
626	0.258
626	0.258
627	0.257
627	0.256
628	0.255
628	0.254
629	0.253
629	0.251
630	0.25
630	0.248
630	0.247
631	0.245
631	0.243
632	0.241
632	0.239
633	0.237
633	0.235
634	0.232
634	0.23
634	0.227
635	0.225
635	0.222
636	0.219
636	0.216
637	0.212
637	0.208
638	0.205
638	0.201
638	0.197
639	0.192
639	0.188
640	0.183
640	0.179
641	0.174
641	0.169
642	0.165
642	0.16
642	0.155
643	0.15
643	0.145
644	0.139
644	0.133
645	0.127
645	0.122
646	0.116
646	0.11
646	0.104
647	0.098
647	0.091
648	0.085
648	0.078
649	0.071
649	0.064
650	0.056
650	0.049
650	0.041
651	0.031
651	0.019
652	0.004
652	-0.011
653	-0.024
653	-0.036
653	-0.033
654	-0.014
654	-0.004
655	-0.007
655	-0.012
656	-0.017
656	-0.023
657	-0.027
657	-0.031
657	-0.037
658	-0.043
658	-0.071
659	-0.152
659	-0.249
660	-0.293
660	-0.32
661	-0.348
661	-0.378
661	-0.412
662	-0.444
662	-0.479
663	-0.519
663	-0.563
664	-0.608
664	-0.661
665	-0.713
665	-0.773
665	-0.83
666	-0.888
666	-0.952
667	-1.019
667	-1.085
668	-1.159
668	-1.233
669	-1.308
669	-1.383
669	-1.462
670	-1.534
670	-1.574
671	-1.708
671	-1.98
672	-2.206
672	-2.396
672	-2.525
673	-2.617
673	-2.696
674	-2.735
674	-2.753
675	-2.778
675	-2.917
676	-3.112
676	-3.063
676	-2.838
677	-2.632
677	-2.466
678	-2.284
678	-1.968
679	-1.707
679	-1.575
680	-1.481
680	-1.397
680	-1.327
681	-1.281
681	-1.221
682	-1.182
682	-1.144
683	-1.108
683	-1.091
684	-1.068
684	-1.048
684	-1.026
685	-1
685	-0.976
686	-0.95
686	-0.933
687	-0.905
687	-0.893
687	-0.872
688	-0.846
688	-0.823
689	-0.8
689	-0.785
690	-0.764
690	-0.752
691	-0.746
691	-0.75
691	-0.767
692	-0.757
692	-0.746
693	-0.741
693	-0.748
694	-0.743
694	-0.736
695	-0.742
695	-0.74
695	-0.722
696	-0.719
696	-0.696
697	-0.695
697	-0.709
698	-0.711
698	-0.699
698	-0.713
699	-0.714
699	-0.712
700	-0.701
700	-0.716
701	-0.714
701	-0.72
702	-0.72
702	-0.709
702	-0.702
703	-0.697
703	-0.687
704	-0.685
704	-0.682
705	-0.695
705	-0.686
705	-0.673
706	-0.672
706	-0.668
707	-0.672
707	-0.665
708	-0.664
708	-0.655
709	-0.655
709	-0.657
709	-0.646
710	-0.657
710	-0.666
711	-0.658
711	-0.659
712	-0.658
712	-0.671
713	-0.669
713	-0.676
713	-0.667
714	-0.664
714	-0.667
715	-0.656
715	-0.64
716	-0.648
716	-0.647
716	-0.64
717	-0.64
717	-0.644
718	-0.636
718	-0.637
719	-0.643
719	-0.644
720	-0.64
720	-0.651
720	-0.643
721	-0.632
721	-0.633
722	-0.623
722	-0.612
723	-0.609
723	-0.615
723	-0.601
724	-0.603
724	-0.606
725	-0.604
725	-0.614
726	-0.627
726	-0.63
727	-0.633
727	-0.647
727	-0.654
728	-0.654
728	-0.663
729	-0.662
729	-0.666
730	-0.675
730	-0.669
730	-0.659
731	-0.642
731	-0.651
732	-0.657
732	-0.659
733	-0.657
733	-0.661
734	-0.656
734	-0.656
734	-0.641
735	-0.638
735	-0.64
736	-0.649
736	-0.636
737	-0.626
737	-0.628
737	-0.638
738	-0.635
738	-0.634
739	-0.633
739	-0.648
740	-0.648
740	-0.647
741	-0.644
741	-0.645
741	-0.647
742	-0.644
742	-0.642
743	-0.648
743	-0.653
744	-0.649
744	-0.636
744	-0.635
745	-0.642
745	-0.636
746	-0.638
746	-0.634
747	-0.635
747	-0.625
748	-0.613
748	-0.619
748	-0.621
749	-0.62
749	-0.622
750	-0.611
750	-0.613
751	-0.614
751	-0.623
751	-0.627
752	-0.632
752	-0.641
753	-0.635
753	-0.632
754	-0.638
754	-0.632
754	-0.644
755	-0.658
755	-0.671
756	-0.662
756	-0.657
757	-0.653
757	-0.648
758	-0.653
758	-0.649
758	-0.651
759	-0.659
759	-0.642
760	-0.637
760	-0.633
761	-0.642
761	-0.639
761	-0.639
762	-0.646
762	-0.645
763	-0.654
763	-0.653
764	-0.649
764	-0.657
764	-0.661
765	-0.65
765	-0.638
766	-0.646
766	-0.652
767	-0.666
767	-0.658
768	-0.652
768	-0.659
768	-0.666
769	-0.685
769	-0.686
770	-0.692
770	-0.703
771	-0.7
771	-0.701
771	-0.701
772	-0.708
772	-0.708
773	-0.707
773	-0.702
774	-0.7
774	-0.701
775	-0.702
775	-0.698
775	-0.705
776	-0.706
776	-0.695
777	-0.702
777	-0.722
778	-0.718
778	-0.739
778	-0.725
779	-0.745
779	-0.753
780	-0.766
780	-0.767
781	-0.779
781	-0.775
781	-0.791
782	-0.789
782	-0.792
783	-0.779
783	-0.778
784	-0.761
784	-0.753
784	-0.762
785	-0.771
785	-0.755
786	-0.759
786	-0.734
787	-0.718
787	-0.72
788	-0.72
788	-0.731
788	-0.74
789	-0.74
789	-0.721
790	-0.702
790	-0.703
791	-0.705
791	-0.723
791	-0.731
792	-0.723
792	-0.701
793	-0.689
793	-0.666
794	-0.668
794	-0.659
794	-0.669
795	-0.666
795	-0.66
796	-0.646
796	-0.651
797	-0.646
797	-0.658
797	-0.665
798	-0.678
798	-0.673
799	-0.684
799	-0.667
800	-0.674
800	-0.667
801	-0.672
801	-0.66
801	-0.67
802	-0.678
802	-0.678
803	-0.681
803	-0.692
804	-0.684
804	-0.696
804	-0.682
805	-0.684
805	-0.674
806	-0.673
806	-0.658
807	-0.655
807	-0.635
807	-0.621
808	-0.61
808	-0.608
809	-0.594
809	-0.603
810	-0.602
810	-0.595
810	-0.595
811	-0.601
811	-0.593
812	-0.596
812	-0.602
813	-0.607
813	-0.602
813	-0.608
814	-0.611
814	-0.613
815	-0.617
815	-0.62
816	-0.613
816	-0.62
817	-0.625
817	-0.64
817	-0.654
818	-0.663
818	-0.665
819	-0.654
819	-0.655
820	-0.665
820	-0.661
820	-0.673
821	-0.669
821	-0.659
822	-0.627
822	-0.602
823	-0.599
823	-0.603
823	-0.603
824	-0.597
824	-0.599
825	-0.592
825	-0.574
826	-0.57
826	-0.578
826	-0.588
827	-0.586
827	-0.581
828	-0.561
828	-0.561
829	-0.551
829	-0.538
829	-0.529
830	-0.537
830	-0.534
831	-0.528
831	-0.517
832	-0.512
832	-0.505
832	-0.514
833	-0.508
833	-0.511
834	-0.51
834	-0.52
835	-0.507
835	-0.501
835	-0.494
836	-0.493
836	-0.49
837	-0.486
837	-0.476
838	-0.468
838	-0.457
839	-0.444
839	-0.43
839	-0.422
840	-0.413
840	-0.408
841	-0.394
841	-0.386
842	-0.382
842	-0.371
842	-0.366
843	-0.359
843	-0.355
844	-0.348
844	-0.34
845	-0.331
845	-0.324
845	-0.313
846	-0.303
846	-0.288
847	-0.278
847	-0.268
848	-0.256
848	-0.245
848	-0.229
849	-0.217
849	-0.208
850	-0.195
850	-0.19
851	-0.181
851	-0.172
851	-0.163
852	-0.146
852	-0.136
853	-0.127
853	-0.122
854	-0.112
854	-0.098
854	-0.088
855	-0.077
855	-0.072
856	-0.063
856	-0.055
857	-0.048
857	-0.041
857	-0.03
858	-0.021
858	-0.015
859	-0.008
859	0.002
860	0.01
860	0.022
860	0.029
861	0.037
861	0.045
862	0.052
862	0.059
863	0.065
863	0.073
863	0.078
864	0.082
864	0.086
865	0.091
865	0.096
866	0.099
866	0.102
866	0.105
867	0.108
867	0.111
868	0.113
868	0.117
869	0.12
869	0.122
869	0.124
870	0.126
870	0.129
871	0.131
871	0.133
872	0.134
872	0.135
872	0.136
873	0.136
873	0.137
874	0.137
874	0.137
875	0.136
875	0.135
875	0.134
876	0.132
876	0.131
877	0.13
877	0.129
878	0.127
878	0.125
878	0.123
879	0.121
879	0.119
880	0.118
880	0.118
881	0.118
881	0.118
881	0.118
882	0.117
882	0.117
883	0.116
883	0.115
884	0.115
884	0.114
884	0.113
885	0.112
885	0.112
886	0.111
886	0.11
887	0.109
887	0.109
887	0.109
888	0.109
888	0.109
889	0.11
889	0.11
890	0.11
890	0.11
890	0.11
891	0.11
891	0.11
892	0.11
892	0.11
893	0.109
893	0.109
893	0.109
894	0.108
894	0.108
895	0.107
895	0.107
895	0.106
896	0.105
896	0.104
897	0.103
897	0.102
898	0.101
898	0.101
898	0.101
899	0.101
899	0.102
900	0.102
900	0.102
901	0.103
901	0.104
901	0.105
902	0.105
902	0.106
903	0.106
903	0.106
904	0.106
904	0.107
904	0.107
905	0.108
905	0.108
906	0.109
906	0.109
907	0.108
907	0.108
907	0.108
908	0.108
908	0.107
909	0.107
909	0.106
910	0.106
910	0.105
910	0.105
911	0.105
911	0.106
912	0.106
912	0.107
913	0.107
913	0.107
913	0.108
914	0.109
914	0.109
915	0.11
915	0.11
916	0.11
916	0.11
916	0.11
917	0.11
917	0.109
918	0.109
918	0.108
918	0.108
919	0.107
919	0.107
920	0.107
920	0.107
921	0.107
921	0.107
921	0.107
922	0.107
922	0.107
923	0.107
923	0.107
924	0.107
924	0.106
924	0.105
925	0.105
925	0.103
926	0.103
926	0.102
927	0.101
927	0.101
927	0.101
928	0.1
928	0.1
929	0.1
929	0.1
930	0.099
930	0.099
930	0.099
931	0.099
931	0.098
932	0.098
932	0.097
933	0.096
933	0.094
933	0.093
934	0.091
934	0.09
935	0.089
935	0.088
935	0.086
936	0.085
936	0.084
937	0.083
937	0.083
938	0.083
938	0.084
938	0.084
939	0.085
939	0.085
940	0.086
940	0.087
941	0.088
941	0.088
941	0.09
942	0.091
942	0.091
943	0.091
943	0.091
944	0.091
944	0.091
944	0.09
945	0.09
945	0.089
946	0.088
946	0.086
946	0.085
947	0.084
947	0.083
948	0.084
948	0.084
949	0.084
949	0.085
949	0.085
950	0.086
950	0.086
951	0.088
951	0.089
952	0.089
952	0.09
952	0.091
953	0.091
953	0.092
954	0.092
954	0.093
955	0.094
955	0.096
955	0.096
956	0.097
956	0.098
957	0.098
957	0.098
957	0.098
958	0.098
958	0.098
959	0.098
959	0.098
960	0.098
960	0.098
960	0.098
961	0.097
961	0.098
962	0.097
962	0.097
963	0.097
963	0.097
963	0.097
964	0.097
964	0.097
965	0.097
965	0.097
966	0.097
966	0.097
966	0.097
967	0.096
967	0.096
968	0.095
968	0.094
968	0.094
969	0.093
969	0.093
970	0.093
970	0.093
971	0.093
971	0.093
971	0.093
972	0.093
972	0.094
973	0.094
973	0.093
974	0.093
974	0.093
974	0.093
975	0.092
975	0.091
976	0.09
976	0.09
976	0.089
977	0.089
977	0.088
978	0.088
978	0.088
979	0.087
979	0.087
979	0.086
980	0.086
980	0.085
981	0.085
981	0.085
982	0.085
982	0.084
982	0.084
983	0.084
983	0.084
984	0.084
984	0.085
984	0.085
985	0.086
985	0.086
986	0.087
986	0.087
987	0.087
987	0.087
987	0.087
988	0.086
988	0.086
989	0.085
989	0.084
990	0.083
990	0.082
990	0.081
991	0.08
991	0.08
992	0.08
992	0.079
992	0.079
993	0.079
993	0.079
994	0.079
994	0.079
995	0.079
995	0.079
995	0.078
996	0.078
996	0.078
997	0.077
997	0.078
997	0.078
998	0.078
998	0.078
999	0.078
999	0.078
1000	0.079
1000	0.079
1000	0.079
1001	0.079
1001	0.079
1002	0.079
1002	0.079
1003	0.079
1003	0.079
1003	0.078
1004	0.078
1004	0.077
1005	0.076
1005	0.075
1005	0.074
1006	0.073
1006	0.072
1007	0.071
1007	0.07
1008	0.069
1008	0.069
1008	0.069
1009	0.069
1009	0.069
1010	0.069
1010	0.069
1010	0.069
1011	0.069
1011	0.068
1012	0.067
1012	0.067
1013	0.066
1013	0.064
1013	0.063
1014	0.062
1014	0.061
1015	0.06
1015	0.06
1016	0.058
1016	0.058
1016	0.057
1017	0.056
1017	0.056
1018	0.055
1018	0.054
1018	0.054
1019	0.054
1019	0.053
1020	0.052
1020	0.052
1021	0.051
1021	0.05
1021	0.049
1022	0.049
1022	0.048
1023	0.047
1023	0.047
1023	0.047
1024	0.047
1024	0.046
1025	0.046
1025	0.047
1026	0.047
1026	0.048
1026	0.048
1027	0.048
1027	0.049
1028	0.049
1028	0.049
1028	0.049
1029	0.049
1029	0.049
1030	0.049
1030	0.048
1031	0.048
1031	0.048
1031	0.048
1032	0.047
1032	0.048
1033	0.048
1033	0.048
1033	0.048
1034	0.048
1034	0.048
1035	0.048
1035	0.048
1036	0.048
1036	0.048
1036	0.048
1037	0.047
1037	0.047
1038	0.047
1038	0.047
1039	0.047
1039	0.048
1039	0.048
1040	0.048
1040	0.049
1041	0.049
1041	0.049
1041	0.049
1042	0.049
1042	0.049
1043	0.049
1043	0.048
1044	0.048
1044	0.047
1044	0.046
1045	0.045
1045	0.045
1046	0.045
1046	0.045
1046	0.045
1047	0.045
1047	0.045
1048	0.045
1048	0.046
1049	0.046
1049	0.046
1049	0.047
1050	0.047
1050	0.047
1051	0.047
1051	0.048
1051	0.048
1052	0.048
1052	0.048
1053	0.048
1053	0.048
1053	0.048
1054	0.048
1054	0.048
1055	0.047
1055	0.047
1056	0.046
1056	0.045
1056	0.044
1057	0.043
1057	0.043
1058	0.042
1058	0.042
1058	0.041
1059	0.041
1059	0.04
1060	0.04
1060	0.039
1061	0.04
1061	0.04
1061	0.04
1062	0.04
1062	0.04
1063	0.04
1063	0.04
1063	0.04
1064	0.04
1064	0.04
1065	0.041
1065	0.04
1066	0.04
1066	0.04
1066	0.039
1067	0.039
1067	0.038
1068	0.037
1068	0.037
1068	0.036
1069	0.036
1069	0.035
1070	0.035
1070	0.034
1071	0.034
1071	0.034
1071	0.033
1072	0.033
1072	0.033
1073	0.033
1073	0.034
1073	0.033
1074	0.033
1074	0.034
1075	0.033
1075	0.032
1076	0.032
1076	0.032
1076	0.031
1077	0.03
1077	0.03
1078	0.029
1078	0.028
1078	0.027
1079	0.026
1079	0.026
1080	0.025
1080	0.025
1080	0.024
1081	0.023
1081	0.022
1082	0.022
1082	0.02
1083	0.02
1083	0.019
1083	0.018
1084	0.017
1084	0.017
1085	0.016
1085	0.015
1085	0.015
1086	0.014
1086	0.014
1087	0.014
1087	0.015
1088	0.014
1088	0.014
1088	0.014
1089	0.013
1089	0.012
1090	0.011
1090	0.01
1090	0.01
1091	0.009
1091	0.008
1092	0.007
1092	0.007
1092	0.006
1093	0.005
1093	0.005
1094	0.005
1094	0.005
1095	0.003
1095	0.003
1095	0.003
1096	0.002
1096	0.001
1097	0.001
1097	0
1097	-0
1098	-0.002
1098	-0.003
1099	-0.004
1099	-0.004
1100	-0.006
1100	-0.008
1100	-0.009
1101	-0.011
1101	-0.013
1102	-0.016
1102	-0.017
1102	-0.018
1103	-0.02
1103	-0.021
1104	-0.022
1104	-0.025
1104	-0.027
1105	-0.029
1105	-0.031
1106	-0.035
1106	-0.037
1107	-0.041
1107	-0.045
1107	-0.05
1108	-0.052
1108	-0.055
1109	-0.057
1109	-0.06
1109	-0.062
1110	-0.063
1110	-0.066
1111	-0.071
1111	-0.071
