Data from 17C_3.4A_30min_2sec_int_Absorbance__785__01506.txt Node

Date: Mon Jun 19 17:20:35 CEST 2023
User: Marek
Spectrometer: MAYP115816
Trigger mode: 0
Integration Time (sec): 2.500000E-1
Scans to average: 10
Electric dark correction enabled: true
Nonlinearity correction enabled: true
Boxcar width: 5
XAxis mode: Wavelengths
Number of Pixels in Spectrum: 2068
>>>>>Begin Spectral Data<<<<<
199	-0.691
199	-0.703
200	-0.619
200	-0.564
201	-0.527
201	-0.515
202	-0.5
202	-0.486
203	-0.481
203	-0.475
204	-0.462
204	-0.449
205	-0.426
205	-0.416
205	-0.416
206	-0.419
206	-0.42
207	-0.412
207	-0.414
208	-0.415
208	-0.414
209	-0.408
209	-0.407
210	-0.412
210	-0.421
211	-0.42
211	-0.42
212	-0.423
212	-0.43
213	-0.429
213	-0.426
213	-0.432
214	-0.429
214	-0.431
215	-0.433
215	-0.437
216	-0.443
216	-0.451
217	-0.449
217	-0.453
218	-0.452
218	-0.456
219	-0.457
219	-0.467
220	-0.469
220	-0.478
221	-0.476
221	-0.477
221	-0.47
222	-0.465
222	-0.465
223	-0.471
223	-0.473
224	-0.481
224	-0.48
225	-0.476
225	-0.47
226	-0.474
226	-0.474
227	-0.477
227	-0.488
228	-0.489
228	-0.489
229	-0.491
229	-0.481
229	-0.477
230	-0.481
230	-0.484
231	-0.477
231	-0.469
232	-0.465
232	-0.464
233	-0.455
233	-0.456
234	-0.455
234	-0.454
235	-0.459
235	-0.465
236	-0.462
236	-0.467
236	-0.474
237	-0.481
237	-0.479
238	-0.489
238	-0.486
239	-0.483
239	-0.489
240	-0.488
240	-0.486
241	-0.492
241	-0.491
242	-0.497
242	-0.493
243	-0.492
243	-0.492
243	-0.5
244	-0.501
244	-0.501
245	-0.514
245	-0.514
246	-0.519
246	-0.524
247	-0.523
247	-0.527
248	-0.534
248	-0.533
249	-0.537
249	-0.546
250	-0.542
250	-0.539
250	-0.541
251	-0.538
251	-0.537
252	-0.539
252	-0.53
253	-0.534
253	-0.545
254	-0.544
254	-0.542
255	-0.552
255	-0.545
256	-0.543
256	-0.553
257	-0.551
257	-0.549
258	-0.566
258	-0.56
258	-0.554
259	-0.552
259	-0.561
260	-0.559
260	-0.565
261	-0.575
261	-0.567
262	-0.564
262	-0.565
263	-0.554
263	-0.552
264	-0.553
264	-0.56
265	-0.555
265	-0.565
265	-0.568
266	-0.567
266	-0.563
267	-0.576
267	-0.585
268	-0.599
268	-0.608
269	-0.605
269	-0.599
270	-0.603
270	-0.605
271	-0.605
271	-0.608
272	-0.613
272	-0.606
272	-0.599
273	-0.599
273	-0.606
274	-0.611
274	-0.617
275	-0.617
275	-0.61
276	-0.615
276	-0.607
277	-0.612
277	-0.631
278	-0.641
278	-0.632
278	-0.627
279	-0.63
279	-0.64
280	-0.638
280	-0.638
281	-0.633
281	-0.643
282	-0.635
282	-0.633
283	-0.624
283	-0.63
284	-0.625
284	-0.615
285	-0.609
285	-0.606
285	-0.603
286	-0.61
286	-0.603
287	-0.602
287	-0.588
288	-0.581
288	-0.588
289	-0.599
289	-0.61
290	-0.602
290	-0.602
291	-0.599
291	-0.592
292	-0.595
292	-0.601
292	-0.604
293	-0.607
293	-0.598
294	-0.587
294	-0.579
295	-0.574
295	-0.571
296	-0.568
296	-0.566
297	-0.56
297	-0.545
298	-0.539
298	-0.547
298	-0.534
299	-0.526
299	-0.526
300	-0.522
300	-0.517
301	-0.516
301	-0.516
302	-0.523
302	-0.533
303	-0.519
303	-0.506
304	-0.509
304	-0.509
305	-0.511
305	-0.512
305	-0.509
306	-0.493
306	-0.489
307	-0.473
307	-0.472
308	-0.486
308	-0.485
309	-0.488
309	-0.477
310	-0.465
310	-0.461
311	-0.453
311	-0.461
311	-0.453
312	-0.451
312	-0.45
313	-0.435
313	-0.44
314	-0.436
314	-0.438
315	-0.44
315	-0.439
316	-0.437
316	-0.428
317	-0.424
317	-0.42
318	-0.41
318	-0.41
318	-0.403
319	-0.395
319	-0.393
320	-0.388
320	-0.388
321	-0.391
321	-0.391
322	-0.385
322	-0.381
323	-0.379
323	-0.372
324	-0.362
324	-0.353
324	-0.343
325	-0.332
325	-0.318
326	-0.303
326	-0.287
327	-0.273
327	-0.253
328	-0.229
328	-0.212
329	-0.193
329	-0.17
330	-0.145
330	-0.117
330	-0.09
331	-0.066
331	-0.041
332	-0.018
332	0
333	0.019
333	0.042
334	0.06
334	0.075
335	0.089
335	0.101
336	0.112
336	0.124
336	0.132
337	0.141
337	0.15
338	0.157
338	0.161
339	0.167
339	0.172
340	0.176
340	0.18
341	0.183
341	0.186
342	0.189
342	0.191
342	0.194
343	0.195
343	0.198
344	0.199
344	0.2
345	0.201
345	0.202
346	0.203
346	0.203
347	0.204
347	0.204
348	0.204
348	0.205
348	0.205
349	0.205
349	0.206
350	0.206
350	0.206
351	0.206
351	0.206
352	0.206
352	0.207
353	0.207
353	0.206
354	0.206
354	0.206
354	0.206
355	0.206
355	0.206
356	0.206
356	0.206
357	0.205
357	0.204
358	0.204
358	0.204
359	0.204
359	0.203
360	0.203
360	0.203
360	0.203
361	0.203
361	0.203
362	0.203
362	0.204
363	0.203
363	0.203
364	0.204
364	0.203
365	0.203
365	0.203
366	0.203
366	0.203
366	0.203
367	0.203
367	0.203
368	0.203
368	0.203
369	0.203
369	0.203
370	0.202
370	0.202
371	0.202
371	0.202
372	0.202
372	0.202
372	0.202
373	0.202
373	0.202
374	0.202
374	0.202
375	0.202
375	0.202
376	0.202
376	0.202
377	0.202
377	0.202
378	0.202
378	0.202
378	0.202
379	0.202
379	0.202
380	0.201
380	0.201
381	0.201
381	0.201
382	0.201
382	0.2
383	0.2
383	0.2
383	0.2
384	0.2
384	0.2
385	0.2
385	0.2
386	0.2
386	0.2
387	0.2
387	0.2
388	0.2
388	0.2
389	0.2
389	0.2
389	0.2
390	0.2
390	0.2
391	0.2
391	0.2
392	0.2
392	0.2
393	0.2
393	0.2
394	0.199
394	0.199
394	0.199
395	0.199
395	0.198
396	0.198
396	0.198
397	0.198
397	0.198
398	0.198
398	0.198
399	0.198
399	0.198
400	0.198
400	0.198
400	0.198
401	0.198
401	0.198
402	0.198
402	0.197
403	0.197
403	0.197
404	0.197
404	0.197
405	0.197
405	0.197
405	0.197
406	0.197
406	0.197
407	0.196
407	0.196
408	0.196
408	0.196
409	0.196
409	0.196
410	0.196
410	0.196
411	0.196
411	0.196
411	0.197
412	0.197
412	0.197
413	0.196
413	0.196
414	0.196
414	0.196
415	0.196
415	0.196
416	0.196
416	0.195
416	0.195
417	0.195
417	0.195
418	0.195
418	0.195
419	0.195
419	0.196
420	0.196
420	0.196
421	0.196
421	0.196
421	0.196
422	0.196
422	0.196
423	0.196
423	0.196
424	0.195
424	0.195
425	0.195
425	0.194
426	0.194
426	0.194
427	0.194
427	0.193
427	0.193
428	0.194
428	0.194
429	0.194
429	0.194
430	0.194
430	0.194
431	0.194
431	0.193
432	0.193
432	0.193
432	0.193
433	0.193
433	0.193
434	0.192
434	0.192
435	0.192
435	0.192
436	0.192
436	0.192
437	0.192
437	0.192
437	0.192
438	0.192
438	0.192
439	0.192
439	0.192
440	0.192
440	0.192
441	0.192
441	0.191
442	0.191
442	0.191
442	0.191
443	0.191
443	0.191
444	0.191
444	0.191
445	0.191
445	0.191
446	0.192
446	0.192
447	0.192
447	0.192
447	0.192
448	0.192
448	0.192
449	0.192
449	0.192
450	0.193
450	0.193
451	0.192
451	0.192
452	0.192
452	0.192
452	0.192
453	0.192
453	0.192
454	0.192
454	0.191
455	0.191
455	0.191
456	0.191
456	0.191
457	0.191
457	0.191
458	0.191
458	0.191
458	0.191
459	0.191
459	0.191
460	0.191
460	0.191
461	0.191
461	0.191
462	0.191
462	0.191
463	0.191
463	0.191
463	0.191
464	0.191
464	0.191
465	0.191
465	0.191
466	0.192
466	0.192
467	0.192
467	0.192
467	0.192
468	0.193
468	0.193
469	0.193
469	0.193
470	0.194
470	0.194
471	0.194
471	0.194
472	0.194
472	0.194
472	0.194
473	0.194
473	0.195
474	0.195
474	0.195
475	0.195
475	0.195
476	0.196
476	0.196
477	0.196
477	0.196
477	0.196
478	0.196
478	0.196
479	0.196
479	0.197
480	0.197
480	0.197
481	0.197
481	0.198
482	0.198
482	0.199
482	0.199
483	0.199
483	0.2
484	0.2
484	0.2
485	0.201
485	0.201
486	0.201
486	0.202
487	0.202
487	0.203
487	0.203
488	0.204
488	0.204
489	0.206
489	0.207
490	0.208
490	0.209
491	0.209
491	0.21
492	0.211
492	0.211
492	0.212
493	0.213
493	0.213
494	0.214
494	0.215
495	0.215
495	0.216
496	0.217
496	0.218
496	0.219
497	0.22
497	0.221
498	0.222
498	0.223
499	0.224
499	0.225
500	0.226
500	0.227
501	0.228
501	0.228
501	0.229
502	0.23
502	0.23
503	0.232
503	0.232
504	0.233
504	0.234
505	0.235
505	0.236
506	0.237
506	0.238
506	0.239
507	0.24
507	0.241
508	0.242
508	0.243
509	0.244
509	0.245
510	0.247
510	0.248
511	0.249
511	0.25
511	0.251
512	0.252
512	0.253
513	0.254
513	0.255
514	0.256
514	0.257
515	0.258
515	0.259
515	0.26
516	0.261
516	0.262
517	0.263
517	0.264
518	0.265
518	0.265
519	0.266
519	0.267
520	0.269
520	0.27
520	0.271
521	0.272
521	0.273
522	0.273
522	0.275
523	0.275
523	0.276
524	0.277
524	0.277
524	0.278
525	0.278
525	0.278
526	0.279
526	0.279
527	0.28
527	0.28
528	0.281
528	0.281
529	0.282
529	0.283
529	0.284
530	0.284
530	0.285
531	0.285
531	0.285
532	0.285
532	0.286
533	0.286
533	0.286
533	0.286
534	0.286
534	0.285
535	0.285
535	0.285
536	0.285
536	0.285
537	0.284
537	0.284
538	0.284
538	0.284
538	0.284
539	0.284
539	0.284
540	0.284
540	0.284
541	0.284
541	0.284
542	0.283
542	0.283
542	0.282
543	0.282
543	0.282
544	0.281
544	0.281
545	0.281
545	0.281
546	0.281
546	0.28
547	0.279
547	0.279
547	0.278
548	0.278
548	0.277
549	0.277
549	0.277
550	0.276
550	0.276
551	0.275
551	0.275
551	0.276
552	0.276
552	0.276
553	0.276
553	0.276
554	0.276
554	0.275
555	0.275
555	0.274
556	0.274
556	0.273
556	0.273
557	0.272
557	0.271
558	0.27
558	0.27
559	0.269
559	0.268
560	0.268
560	0.268
560	0.267
561	0.267
561	0.266
562	0.265
562	0.265
563	0.264
563	0.264
564	0.263
564	0.263
564	0.263
565	0.263
565	0.263
566	0.262
566	0.262
567	0.262
567	0.261
568	0.261
568	0.26
568	0.259
569	0.259
569	0.258
570	0.257
570	0.255
571	0.255
571	0.254
572	0.254
572	0.253
573	0.253
573	0.252
573	0.251
574	0.251
574	0.251
575	0.251
575	0.251
576	0.251
576	0.25
577	0.25
577	0.25
577	0.251
578	0.251
578	0.251
579	0.251
579	0.251
580	0.25
580	0.249
581	0.248
581	0.248
581	0.248
582	0.248
582	0.248
583	0.248
583	0.248
584	0.246
584	0.246
585	0.247
585	0.247
585	0.247
586	0.247
586	0.247
587	0.247
587	0.246
588	0.246
588	0.246
589	0.246
589	0.247
590	0.246
590	0.247
590	0.247
591	0.247
591	0.247
592	0.247
592	0.246
593	0.246
593	0.246
594	0.246
594	0.246
594	0.246
595	0.246
595	0.246
596	0.246
596	0.247
597	0.248
597	0.248
598	0.248
598	0.248
598	0.248
599	0.247
599	0.246
600	0.246
600	0.245
601	0.245
601	0.244
602	0.244
602	0.244
602	0.244
603	0.245
603	0.246
604	0.246
604	0.247
605	0.247
605	0.248
606	0.248
606	0.247
606	0.247
607	0.247
607	0.247
608	0.246
608	0.245
609	0.245
609	0.245
610	0.245
610	0.245
610	0.245
611	0.246
611	0.246
612	0.247
612	0.247
613	0.248
613	0.248
614	0.247
614	0.246
614	0.246
615	0.245
615	0.245
616	0.244
616	0.243
617	0.243
617	0.242
618	0.241
618	0.241
618	0.241
619	0.242
619	0.242
620	0.243
620	0.243
621	0.242
621	0.242
622	0.242
622	0.242
622	0.242
623	0.242
623	0.242
624	0.242
624	0.241
625	0.241
625	0.241
626	0.241
626	0.24
626	0.24
627	0.24
627	0.239
628	0.239
628	0.238
629	0.237
629	0.236
630	0.234
630	0.233
630	0.232
631	0.231
631	0.229
632	0.227
632	0.226
633	0.224
633	0.222
634	0.22
634	0.218
634	0.216
635	0.214
635	0.212
636	0.209
636	0.207
637	0.204
637	0.201
638	0.198
638	0.194
638	0.191
639	0.187
639	0.183
640	0.179
640	0.174
641	0.17
641	0.166
642	0.162
642	0.158
642	0.154
643	0.15
643	0.145
644	0.14
644	0.134
645	0.129
645	0.124
646	0.119
646	0.113
646	0.107
647	0.101
647	0.095
648	0.089
648	0.083
649	0.076
649	0.069
650	0.061
650	0.054
650	0.046
651	0.036
651	0.023
652	0.009
652	-0.005
653	-0.018
653	-0.03
653	-0.028
654	-0.01
654	-0.001
655	-0.005
655	-0.01
656	-0.016
656	-0.022
657	-0.026
657	-0.03
657	-0.037
658	-0.043
658	-0.071
659	-0.15
659	-0.245
660	-0.288
660	-0.314
661	-0.342
661	-0.372
661	-0.405
662	-0.436
662	-0.47
663	-0.508
663	-0.55
664	-0.593
664	-0.644
665	-0.694
665	-0.752
665	-0.807
666	-0.864
666	-0.925
667	-0.99
667	-1.055
668	-1.127
668	-1.201
669	-1.274
669	-1.347
669	-1.424
670	-1.491
670	-1.543
671	-1.721
671	-1.987
672	-2.212
672	-2.4
672	-2.528
673	-2.62
673	-2.699
674	-2.752
674	-2.772
675	-2.798
675	-2.938
676	-3.129
676	-3.083
676	-2.862
677	-2.662
677	-2.506
678	-2.343
678	-2.08
679	-1.752
679	-1.597
680	-1.497
680	-1.41
680	-1.336
681	-1.288
681	-1.228
682	-1.187
682	-1.149
683	-1.112
683	-1.094
684	-1.072
684	-1.052
684	-1.03
685	-1.005
685	-0.982
686	-0.957
686	-0.941
687	-0.915
687	-0.904
687	-0.883
688	-0.857
688	-0.836
689	-0.813
689	-0.798
690	-0.778
690	-0.766
691	-0.76
691	-0.764
691	-0.778
692	-0.769
692	-0.761
693	-0.756
693	-0.764
694	-0.762
694	-0.754
695	-0.758
695	-0.756
695	-0.739
696	-0.736
696	-0.716
697	-0.717
697	-0.733
698	-0.735
698	-0.722
698	-0.736
699	-0.74
699	-0.738
700	-0.727
700	-0.741
701	-0.74
701	-0.745
702	-0.743
702	-0.731
702	-0.725
703	-0.72
703	-0.709
704	-0.705
704	-0.704
705	-0.717
705	-0.71
705	-0.698
706	-0.697
706	-0.693
707	-0.696
707	-0.69
708	-0.687
708	-0.681
709	-0.684
709	-0.685
709	-0.675
710	-0.683
710	-0.693
711	-0.685
711	-0.686
712	-0.683
712	-0.697
713	-0.697
713	-0.705
713	-0.694
714	-0.692
714	-0.694
715	-0.685
715	-0.67
716	-0.679
716	-0.68
716	-0.673
717	-0.675
717	-0.677
718	-0.666
718	-0.668
719	-0.673
719	-0.674
720	-0.668
720	-0.682
720	-0.672
721	-0.663
721	-0.665
722	-0.653
722	-0.642
723	-0.64
723	-0.643
723	-0.63
724	-0.633
724	-0.639
725	-0.636
725	-0.644
726	-0.656
726	-0.659
727	-0.662
727	-0.677
727	-0.684
728	-0.686
728	-0.692
729	-0.69
729	-0.697
730	-0.703
730	-0.697
730	-0.688
731	-0.671
731	-0.681
732	-0.686
732	-0.684
733	-0.683
733	-0.688
734	-0.683
734	-0.682
734	-0.669
735	-0.666
735	-0.665
736	-0.676
736	-0.664
737	-0.656
737	-0.659
737	-0.668
738	-0.663
738	-0.664
739	-0.66
739	-0.67
740	-0.67
740	-0.67
741	-0.668
741	-0.668
741	-0.671
742	-0.67
742	-0.671
743	-0.678
743	-0.681
744	-0.679
744	-0.67
744	-0.671
745	-0.678
745	-0.669
746	-0.668
746	-0.665
747	-0.666
747	-0.653
748	-0.641
748	-0.646
748	-0.647
749	-0.645
749	-0.647
750	-0.638
750	-0.639
751	-0.644
751	-0.651
751	-0.653
752	-0.659
752	-0.668
753	-0.663
753	-0.661
754	-0.667
754	-0.658
754	-0.671
755	-0.688
755	-0.698
756	-0.687
756	-0.685
757	-0.682
757	-0.679
758	-0.681
758	-0.68
758	-0.684
759	-0.692
759	-0.677
760	-0.669
760	-0.666
761	-0.678
761	-0.675
761	-0.676
762	-0.68
762	-0.682
763	-0.689
763	-0.684
764	-0.682
764	-0.689
764	-0.693
765	-0.682
765	-0.669
766	-0.674
766	-0.68
767	-0.696
767	-0.69
768	-0.682
768	-0.689
768	-0.693
769	-0.711
769	-0.713
770	-0.72
770	-0.733
771	-0.73
771	-0.732
771	-0.733
772	-0.734
772	-0.733
773	-0.735
773	-0.73
774	-0.726
774	-0.727
775	-0.727
775	-0.719
775	-0.726
776	-0.725
776	-0.715
777	-0.725
777	-0.745
778	-0.739
778	-0.76
778	-0.749
779	-0.773
779	-0.784
780	-0.799
780	-0.8
781	-0.814
781	-0.811
781	-0.826
782	-0.828
782	-0.83
783	-0.816
783	-0.815
784	-0.793
784	-0.782
784	-0.79
785	-0.796
785	-0.78
786	-0.783
786	-0.761
787	-0.744
787	-0.747
788	-0.752
788	-0.762
788	-0.774
789	-0.775
789	-0.756
790	-0.737
790	-0.738
791	-0.74
791	-0.758
791	-0.766
792	-0.759
792	-0.735
793	-0.724
793	-0.703
794	-0.706
794	-0.699
794	-0.71
795	-0.706
795	-0.699
796	-0.682
796	-0.688
797	-0.684
797	-0.695
797	-0.702
798	-0.712
798	-0.709
799	-0.721
799	-0.704
800	-0.71
800	-0.702
801	-0.707
801	-0.694
801	-0.705
802	-0.714
802	-0.712
803	-0.714
803	-0.721
804	-0.715
804	-0.725
804	-0.712
805	-0.717
805	-0.705
806	-0.704
806	-0.686
807	-0.684
807	-0.669
807	-0.655
808	-0.646
808	-0.64
809	-0.626
809	-0.636
810	-0.634
810	-0.628
810	-0.628
811	-0.636
811	-0.627
812	-0.628
812	-0.632
813	-0.637
813	-0.631
813	-0.636
814	-0.635
814	-0.642
815	-0.646
815	-0.649
816	-0.64
816	-0.646
817	-0.653
817	-0.67
817	-0.684
818	-0.692
818	-0.695
819	-0.687
819	-0.686
820	-0.693
820	-0.69
820	-0.701
821	-0.697
821	-0.684
822	-0.651
822	-0.629
823	-0.628
823	-0.633
823	-0.632
824	-0.625
824	-0.63
825	-0.622
825	-0.603
826	-0.6
826	-0.608
826	-0.62
827	-0.614
827	-0.61
828	-0.59
828	-0.591
829	-0.58
829	-0.565
829	-0.557
830	-0.567
830	-0.562
831	-0.555
831	-0.544
832	-0.544
832	-0.535
832	-0.541
833	-0.535
833	-0.538
834	-0.536
834	-0.543
835	-0.528
835	-0.523
835	-0.518
836	-0.516
836	-0.513
837	-0.51
837	-0.502
838	-0.492
838	-0.478
839	-0.465
839	-0.455
839	-0.446
840	-0.436
840	-0.432
841	-0.419
841	-0.409
842	-0.404
842	-0.394
842	-0.388
843	-0.383
843	-0.378
844	-0.369
844	-0.363
845	-0.355
845	-0.344
845	-0.333
846	-0.321
846	-0.306
847	-0.295
847	-0.285
848	-0.273
848	-0.262
848	-0.247
849	-0.237
849	-0.225
850	-0.211
850	-0.203
851	-0.195
851	-0.183
851	-0.175
852	-0.159
852	-0.145
853	-0.137
853	-0.13
854	-0.118
854	-0.105
854	-0.095
855	-0.083
855	-0.076
856	-0.066
856	-0.058
857	-0.05
857	-0.042
857	-0.031
858	-0.021
858	-0.015
859	-0.007
859	0.003
860	0.013
860	0.026
860	0.034
861	0.042
861	0.049
862	0.056
862	0.064
863	0.071
863	0.08
863	0.086
864	0.09
864	0.096
865	0.102
865	0.106
866	0.111
866	0.115
866	0.118
867	0.121
867	0.125
868	0.128
868	0.132
869	0.135
869	0.138
869	0.14
870	0.142
870	0.144
871	0.147
871	0.149
872	0.15
872	0.15
872	0.151
873	0.152
873	0.152
874	0.152
874	0.152
875	0.151
875	0.15
875	0.149
876	0.147
876	0.146
877	0.145
877	0.143
878	0.142
878	0.14
878	0.138
879	0.136
879	0.134
880	0.134
880	0.133
881	0.133
881	0.133
881	0.133
882	0.132
882	0.132
883	0.131
883	0.13
884	0.13
884	0.129
884	0.128
885	0.127
885	0.126
886	0.126
886	0.125
887	0.124
887	0.124
887	0.123
888	0.124
888	0.123
889	0.123
889	0.124
890	0.124
890	0.124
890	0.124
891	0.124
891	0.124
892	0.124
892	0.125
893	0.124
893	0.124
893	0.124
894	0.124
894	0.123
895	0.122
895	0.122
895	0.122
896	0.121
896	0.119
897	0.118
897	0.117
898	0.116
898	0.116
898	0.116
899	0.116
899	0.117
900	0.117
900	0.117
901	0.118
901	0.119
901	0.12
902	0.121
902	0.121
903	0.121
903	0.122
904	0.122
904	0.123
904	0.124
905	0.124
905	0.125
906	0.125
906	0.125
907	0.125
907	0.124
907	0.124
908	0.124
908	0.123
909	0.122
909	0.121
910	0.121
910	0.12
910	0.12
911	0.12
911	0.12
912	0.121
912	0.121
913	0.122
913	0.123
913	0.123
914	0.124
914	0.125
915	0.125
915	0.125
916	0.126
916	0.126
916	0.126
917	0.126
917	0.126
918	0.126
918	0.126
918	0.125
919	0.125
919	0.125
920	0.125
920	0.125
921	0.126
921	0.126
921	0.126
922	0.126
922	0.126
923	0.126
923	0.125
924	0.125
924	0.125
924	0.124
925	0.123
925	0.122
926	0.121
926	0.12
927	0.119
927	0.118
927	0.117
928	0.117
928	0.116
929	0.116
929	0.115
930	0.115
930	0.114
930	0.114
931	0.114
931	0.113
932	0.113
932	0.112
933	0.111
933	0.11
933	0.109
934	0.107
934	0.106
935	0.105
935	0.104
935	0.103
936	0.102
936	0.101
937	0.1
937	0.1
938	0.1
938	0.1
938	0.101
939	0.101
939	0.102
940	0.102
940	0.103
941	0.104
941	0.104
941	0.105
942	0.106
942	0.106
943	0.106
943	0.106
944	0.105
944	0.105
944	0.104
945	0.103
945	0.102
946	0.101
946	0.1
946	0.099
947	0.098
947	0.098
948	0.098
948	0.098
949	0.098
949	0.099
949	0.1
950	0.101
950	0.101
951	0.102
951	0.103
952	0.104
952	0.105
952	0.105
953	0.106
953	0.107
954	0.107
954	0.108
955	0.109
955	0.11
955	0.111
956	0.112
956	0.112
957	0.112
957	0.112
957	0.112
958	0.112
958	0.113
959	0.113
959	0.113
960	0.112
960	0.112
960	0.112
961	0.112
961	0.112
962	0.112
962	0.112
963	0.112
963	0.111
963	0.111
964	0.111
964	0.112
965	0.112
965	0.111
966	0.111
966	0.111
966	0.111
967	0.111
967	0.11
968	0.109
968	0.109
968	0.108
969	0.108
969	0.107
970	0.107
970	0.107
971	0.107
971	0.107
971	0.107
972	0.107
972	0.107
973	0.107
973	0.106
974	0.106
974	0.106
974	0.106
975	0.105
975	0.105
976	0.104
976	0.103
976	0.103
977	0.102
977	0.102
978	0.102
978	0.102
979	0.102
979	0.101
979	0.101
980	0.101
980	0.101
981	0.1
981	0.1
982	0.1
982	0.1
982	0.1
983	0.099
983	0.099
984	0.099
984	0.099
984	0.1
985	0.1
985	0.1
986	0.1
986	0.1
987	0.1
987	0.1
987	0.1
988	0.099
988	0.099
989	0.098
989	0.097
990	0.097
990	0.096
990	0.095
991	0.095
991	0.094
992	0.094
992	0.094
992	0.093
993	0.093
993	0.093
994	0.093
994	0.093
995	0.092
995	0.092
995	0.092
996	0.091
996	0.091
997	0.09
997	0.09
997	0.09
998	0.091
998	0.091
999	0.091
999	0.091
1000	0.091
1000	0.091
1000	0.092
1001	0.092
1001	0.093
1002	0.093
1002	0.093
1003	0.093
1003	0.093
1003	0.093
1004	0.092
1004	0.092
1005	0.091
1005	0.09
1005	0.089
1006	0.088
1006	0.087
1007	0.086
1007	0.085
1008	0.084
1008	0.083
1008	0.083
1009	0.083
1009	0.082
1010	0.082
1010	0.083
1010	0.082
1011	0.082
1011	0.081
1012	0.081
1012	0.08
1013	0.079
1013	0.078
1013	0.077
1014	0.076
1014	0.075
1015	0.075
1015	0.074
1016	0.073
1016	0.072
1016	0.072
1017	0.071
1017	0.07
1018	0.07
1018	0.069
1018	0.068
1019	0.068
1019	0.067
1020	0.066
1020	0.066
1021	0.065
1021	0.064
1021	0.063
1022	0.062
1022	0.061
1023	0.061
1023	0.061
1023	0.06
1024	0.06
1024	0.06
1025	0.06
1025	0.06
1026	0.06
1026	0.061
1026	0.061
1027	0.061
1027	0.062
1028	0.062
1028	0.062
1028	0.062
1029	0.062
1029	0.062
1030	0.061
1030	0.06
1031	0.06
1031	0.06
1031	0.06
1032	0.06
1032	0.06
1033	0.06
1033	0.06
1033	0.06
1034	0.061
1034	0.061
1035	0.062
1035	0.062
1036	0.061
1036	0.061
1036	0.061
1037	0.061
1037	0.061
1038	0.061
1038	0.061
1039	0.061
1039	0.061
1039	0.061
1040	0.062
1040	0.063
1041	0.063
1041	0.063
1041	0.063
1042	0.063
1042	0.063
1043	0.063
1043	0.063
1044	0.062
1044	0.061
1044	0.06
1045	0.059
1045	0.059
1046	0.058
1046	0.058
1046	0.057
1047	0.058
1047	0.058
1048	0.058
1048	0.058
1049	0.058
1049	0.058
1049	0.059
1050	0.059
1050	0.06
1051	0.06
1051	0.06
1051	0.06
1052	0.061
1052	0.061
1053	0.061
1053	0.061
1053	0.061
1054	0.061
1054	0.061
1055	0.061
1055	0.061
1056	0.06
1056	0.059
1056	0.058
1057	0.057
1057	0.056
1058	0.055
1058	0.055
1058	0.054
1059	0.053
1059	0.053
1060	0.052
1060	0.052
1061	0.052
1061	0.052
1061	0.052
1062	0.052
1062	0.052
1063	0.052
1063	0.052
1063	0.053
1064	0.053
1064	0.053
1065	0.053
1065	0.053
1066	0.052
1066	0.052
1066	0.051
1067	0.051
1067	0.05
1068	0.049
1068	0.049
1068	0.048
1069	0.047
1069	0.047
1070	0.046
1070	0.046
1071	0.045
1071	0.046
1071	0.045
1072	0.045
1072	0.044
1073	0.044
1073	0.044
1073	0.043
1074	0.044
1074	0.044
1075	0.043
1075	0.043
1076	0.043
1076	0.043
1076	0.042
1077	0.042
1077	0.042
1078	0.04
1078	0.04
1078	0.039
1079	0.039
1079	0.038
1080	0.037
1080	0.037
1080	0.036
1081	0.035
1081	0.034
1082	0.034
1082	0.033
1083	0.032
1083	0.031
1083	0.03
1084	0.029
1084	0.028
1085	0.027
1085	0.027
1085	0.027
1086	0.026
1086	0.026
1087	0.026
1087	0.026
1088	0.025
1088	0.024
1088	0.024
1089	0.023
1089	0.022
1090	0.021
1090	0.02
1090	0.019
1091	0.018
1091	0.019
1092	0.018
1092	0.018
1092	0.017
1093	0.017
1093	0.017
1094	0.017
1094	0.016
1095	0.015
1095	0.015
1095	0.015
1096	0.013
1096	0.012
1097	0.011
1097	0.01
1097	0.009
1098	0.008
1098	0.007
1099	0.006
1099	0.005
1100	0.003
1100	0.002
1100	-0
1101	-0.003
1101	-0.006
1102	-0.007
1102	-0.01
1102	-0.011
1103	-0.013
1103	-0.016
1104	-0.019
1104	-0.02
1104	-0.023
1105	-0.025
1105	-0.028
1106	-0.032
1106	-0.034
1107	-0.039
1107	-0.043
1107	-0.049
1108	-0.05
1108	-0.053
1109	-0.057
1109	-0.061
1109	-0.065
1110	-0.066
1110	-0.069
1111	-0.073
1111	-0.073
