Data from 17C_3.4A_30min_2sec_int_Absorbance__832__01553.txt Node

Date: Mon Jun 19 17:22:32 CEST 2023
User: Marek
Spectrometer: MAYP115816
Trigger mode: 0
Integration Time (sec): 2.500000E-1
Scans to average: 10
Electric dark correction enabled: true
Nonlinearity correction enabled: true
Boxcar width: 5
XAxis mode: Wavelengths
Number of Pixels in Spectrum: 2068
>>>>>Begin Spectral Data<<<<<
199	-0.69
199	-0.706
200	-0.61
200	-0.56
201	-0.527
201	-0.515
202	-0.498
202	-0.483
203	-0.477
203	-0.471
204	-0.459
204	-0.446
205	-0.426
205	-0.422
205	-0.42
206	-0.421
206	-0.424
207	-0.416
207	-0.419
208	-0.421
208	-0.422
209	-0.416
209	-0.417
210	-0.418
210	-0.424
211	-0.424
211	-0.427
212	-0.427
212	-0.436
213	-0.434
213	-0.432
213	-0.437
214	-0.435
214	-0.435
215	-0.435
215	-0.439
216	-0.442
216	-0.449
217	-0.448
217	-0.452
218	-0.455
218	-0.458
219	-0.461
219	-0.468
220	-0.474
220	-0.483
221	-0.482
221	-0.486
221	-0.479
222	-0.473
222	-0.474
223	-0.476
223	-0.479
224	-0.484
224	-0.485
225	-0.479
225	-0.474
226	-0.479
226	-0.48
227	-0.486
227	-0.494
228	-0.495
228	-0.495
229	-0.495
229	-0.489
229	-0.485
230	-0.491
230	-0.492
231	-0.487
231	-0.48
232	-0.472
232	-0.472
233	-0.464
233	-0.463
234	-0.461
234	-0.458
235	-0.46
235	-0.463
236	-0.463
236	-0.465
236	-0.47
237	-0.479
237	-0.48
238	-0.489
238	-0.487
239	-0.488
239	-0.496
240	-0.494
240	-0.493
241	-0.498
241	-0.497
242	-0.503
242	-0.496
243	-0.494
243	-0.495
243	-0.504
244	-0.504
244	-0.504
245	-0.519
245	-0.519
246	-0.524
246	-0.531
247	-0.53
247	-0.537
248	-0.542
248	-0.54
249	-0.545
249	-0.552
250	-0.551
250	-0.548
250	-0.55
251	-0.547
251	-0.547
252	-0.551
252	-0.54
253	-0.545
253	-0.555
254	-0.553
254	-0.552
255	-0.558
255	-0.551
256	-0.547
256	-0.558
257	-0.555
257	-0.549
258	-0.566
258	-0.563
258	-0.557
259	-0.552
259	-0.56
260	-0.561
260	-0.564
261	-0.574
261	-0.566
262	-0.561
262	-0.565
263	-0.553
263	-0.549
264	-0.55
264	-0.559
265	-0.555
265	-0.562
265	-0.567
266	-0.565
266	-0.563
267	-0.576
267	-0.583
268	-0.599
268	-0.608
269	-0.605
269	-0.599
270	-0.605
270	-0.61
271	-0.609
271	-0.613
272	-0.616
272	-0.611
272	-0.606
273	-0.601
273	-0.61
274	-0.617
274	-0.622
275	-0.622
275	-0.613
276	-0.619
276	-0.614
277	-0.618
277	-0.637
278	-0.647
278	-0.643
278	-0.635
279	-0.639
279	-0.65
280	-0.645
280	-0.648
281	-0.644
281	-0.649
282	-0.642
282	-0.641
283	-0.631
283	-0.635
284	-0.63
284	-0.62
285	-0.614
285	-0.613
285	-0.607
286	-0.613
286	-0.608
287	-0.606
287	-0.592
288	-0.586
288	-0.591
289	-0.605
289	-0.612
290	-0.599
290	-0.6
291	-0.599
291	-0.594
292	-0.597
292	-0.604
292	-0.605
293	-0.61
293	-0.6
294	-0.588
294	-0.58
295	-0.579
295	-0.576
296	-0.573
296	-0.568
297	-0.562
297	-0.547
298	-0.542
298	-0.549
298	-0.538
299	-0.532
299	-0.533
300	-0.526
300	-0.521
301	-0.514
301	-0.515
302	-0.521
302	-0.53
303	-0.516
303	-0.503
304	-0.508
304	-0.508
305	-0.51
305	-0.511
305	-0.509
306	-0.495
306	-0.488
307	-0.475
307	-0.475
308	-0.489
308	-0.486
309	-0.486
309	-0.475
310	-0.464
310	-0.461
311	-0.452
311	-0.461
311	-0.459
312	-0.456
312	-0.457
313	-0.441
313	-0.443
314	-0.441
314	-0.444
315	-0.445
315	-0.444
316	-0.442
316	-0.435
317	-0.428
317	-0.423
318	-0.412
318	-0.412
318	-0.407
319	-0.394
319	-0.39
320	-0.383
320	-0.385
321	-0.389
321	-0.388
322	-0.383
322	-0.378
323	-0.379
323	-0.373
324	-0.37
324	-0.365
324	-0.356
325	-0.346
325	-0.329
326	-0.315
326	-0.298
327	-0.285
327	-0.264
328	-0.239
328	-0.22
329	-0.197
329	-0.175
330	-0.15
330	-0.121
330	-0.097
331	-0.069
331	-0.046
332	-0.022
332	-0.003
333	0.018
333	0.038
334	0.056
334	0.071
335	0.086
335	0.098
336	0.11
336	0.121
336	0.129
337	0.138
337	0.146
338	0.153
338	0.157
339	0.163
339	0.168
340	0.171
340	0.175
341	0.179
341	0.182
342	0.185
342	0.187
342	0.19
343	0.191
343	0.194
344	0.196
344	0.196
345	0.198
345	0.198
346	0.199
346	0.199
347	0.2
347	0.201
348	0.201
348	0.202
348	0.202
349	0.202
349	0.203
350	0.203
350	0.203
351	0.203
351	0.203
352	0.203
352	0.203
353	0.203
353	0.203
354	0.203
354	0.203
354	0.202
355	0.202
355	0.202
356	0.202
356	0.202
357	0.201
357	0.201
358	0.201
358	0.2
359	0.2
359	0.2
360	0.2
360	0.2
360	0.2
361	0.2
361	0.2
362	0.2
362	0.2
363	0.2
363	0.2
364	0.2
364	0.2
365	0.2
365	0.2
366	0.2
366	0.2
366	0.2
367	0.2
367	0.2
368	0.2
368	0.2
369	0.2
369	0.199
370	0.199
370	0.199
371	0.199
371	0.199
372	0.199
372	0.199
372	0.199
373	0.199
373	0.199
374	0.199
374	0.199
375	0.199
375	0.199
376	0.198
376	0.198
377	0.198
377	0.198
378	0.198
378	0.198
378	0.198
379	0.198
379	0.198
380	0.198
380	0.198
381	0.198
381	0.198
382	0.198
382	0.197
383	0.197
383	0.197
383	0.197
384	0.197
384	0.197
385	0.197
385	0.197
386	0.197
386	0.197
387	0.197
387	0.197
388	0.197
388	0.197
389	0.197
389	0.197
389	0.197
390	0.197
390	0.197
391	0.197
391	0.197
392	0.197
392	0.197
393	0.196
393	0.196
394	0.196
394	0.196
394	0.196
395	0.195
395	0.195
396	0.195
396	0.195
397	0.195
397	0.195
398	0.195
398	0.195
399	0.195
399	0.195
400	0.195
400	0.195
400	0.195
401	0.195
401	0.195
402	0.195
402	0.194
403	0.194
403	0.194
404	0.194
404	0.194
405	0.194
405	0.194
405	0.194
406	0.194
406	0.193
407	0.193
407	0.193
408	0.193
408	0.193
409	0.193
409	0.193
410	0.193
410	0.193
411	0.193
411	0.193
411	0.193
412	0.193
412	0.193
413	0.193
413	0.193
414	0.193
414	0.193
415	0.193
415	0.193
416	0.193
416	0.193
416	0.193
417	0.192
417	0.192
418	0.192
418	0.192
419	0.193
419	0.193
420	0.193
420	0.193
421	0.193
421	0.193
421	0.193
422	0.193
422	0.193
423	0.193
423	0.193
424	0.192
424	0.192
425	0.192
425	0.192
426	0.191
426	0.191
427	0.191
427	0.191
427	0.191
428	0.191
428	0.191
429	0.191
429	0.191
430	0.191
430	0.191
431	0.19
431	0.19
432	0.19
432	0.19
432	0.19
433	0.19
433	0.189
434	0.189
434	0.189
435	0.189
435	0.189
436	0.189
436	0.189
437	0.189
437	0.189
437	0.189
438	0.189
438	0.189
439	0.189
439	0.189
440	0.189
440	0.189
441	0.189
441	0.189
442	0.189
442	0.188
442	0.188
443	0.188
443	0.188
444	0.188
444	0.188
445	0.188
445	0.189
446	0.189
446	0.189
447	0.189
447	0.19
447	0.19
448	0.19
448	0.19
449	0.19
449	0.19
450	0.19
450	0.19
451	0.19
451	0.189
452	0.189
452	0.189
452	0.189
453	0.189
453	0.189
454	0.189
454	0.189
455	0.189
455	0.189
456	0.189
456	0.189
457	0.188
457	0.188
458	0.188
458	0.188
458	0.189
459	0.189
459	0.188
460	0.188
460	0.188
461	0.188
461	0.188
462	0.188
462	0.188
463	0.188
463	0.188
463	0.188
464	0.188
464	0.188
465	0.188
465	0.189
466	0.189
466	0.189
467	0.189
467	0.189
467	0.19
468	0.19
468	0.19
469	0.19
469	0.19
470	0.191
470	0.191
471	0.191
471	0.191
472	0.191
472	0.191
472	0.191
473	0.191
473	0.191
474	0.192
474	0.192
475	0.192
475	0.192
476	0.192
476	0.193
477	0.193
477	0.193
477	0.193
478	0.193
478	0.193
479	0.193
479	0.194
480	0.194
480	0.194
481	0.194
481	0.194
482	0.195
482	0.195
482	0.196
483	0.196
483	0.197
484	0.197
484	0.197
485	0.197
485	0.198
486	0.198
486	0.198
487	0.199
487	0.199
487	0.2
488	0.2
488	0.201
489	0.202
489	0.204
490	0.204
490	0.205
491	0.206
491	0.206
492	0.207
492	0.207
492	0.208
493	0.208
493	0.209
494	0.21
494	0.21
495	0.211
495	0.212
496	0.213
496	0.214
496	0.215
497	0.216
497	0.217
498	0.218
498	0.219
499	0.22
499	0.221
500	0.222
500	0.223
501	0.224
501	0.224
501	0.225
502	0.225
502	0.226
503	0.227
503	0.228
504	0.229
504	0.229
505	0.23
505	0.231
506	0.232
506	0.233
506	0.234
507	0.235
507	0.236
508	0.237
508	0.238
509	0.24
509	0.241
510	0.242
510	0.243
511	0.244
511	0.245
511	0.246
512	0.247
512	0.248
513	0.249
513	0.25
514	0.251
514	0.252
515	0.253
515	0.254
515	0.254
516	0.255
516	0.257
517	0.258
517	0.259
518	0.26
518	0.26
519	0.261
519	0.262
520	0.263
520	0.264
520	0.265
521	0.266
521	0.267
522	0.268
522	0.269
523	0.27
523	0.27
524	0.271
524	0.271
524	0.271
525	0.272
525	0.272
526	0.273
526	0.273
527	0.274
527	0.274
528	0.275
528	0.275
529	0.276
529	0.277
529	0.277
530	0.278
530	0.278
531	0.279
531	0.279
532	0.279
532	0.28
533	0.28
533	0.28
533	0.28
534	0.28
534	0.28
535	0.28
535	0.28
536	0.28
536	0.279
537	0.279
537	0.279
538	0.278
538	0.278
538	0.278
539	0.278
539	0.278
540	0.278
540	0.278
541	0.278
541	0.277
542	0.277
542	0.277
542	0.276
543	0.276
543	0.275
544	0.275
544	0.274
545	0.274
545	0.274
546	0.275
546	0.274
547	0.273
547	0.273
547	0.272
548	0.272
548	0.272
549	0.272
549	0.271
550	0.271
550	0.27
551	0.27
551	0.27
551	0.27
552	0.271
552	0.271
553	0.271
553	0.271
554	0.271
554	0.27
555	0.27
555	0.269
556	0.269
556	0.268
556	0.268
557	0.267
557	0.266
558	0.265
558	0.265
559	0.264
559	0.263
560	0.263
560	0.263
560	0.262
561	0.262
561	0.261
562	0.261
562	0.26
563	0.259
563	0.259
564	0.259
564	0.259
564	0.259
565	0.258
565	0.258
566	0.258
566	0.258
567	0.257
567	0.257
568	0.256
568	0.256
568	0.255
569	0.255
569	0.254
570	0.252
570	0.251
571	0.251
571	0.25
572	0.25
572	0.249
573	0.249
573	0.248
573	0.248
574	0.247
574	0.247
575	0.247
575	0.248
576	0.247
576	0.247
577	0.246
577	0.246
577	0.247
578	0.247
578	0.247
579	0.248
579	0.248
580	0.247
580	0.246
581	0.245
581	0.245
581	0.245
582	0.245
582	0.245
583	0.245
583	0.244
584	0.243
584	0.242
585	0.243
585	0.244
585	0.244
586	0.244
586	0.244
587	0.243
587	0.243
588	0.243
588	0.243
589	0.243
589	0.243
590	0.243
590	0.243
590	0.244
591	0.244
591	0.244
592	0.243
592	0.243
593	0.243
593	0.243
594	0.243
594	0.243
594	0.243
595	0.243
595	0.243
596	0.243
596	0.244
597	0.245
597	0.245
598	0.245
598	0.245
598	0.245
599	0.244
599	0.243
600	0.243
600	0.242
601	0.242
601	0.241
602	0.241
602	0.241
602	0.241
603	0.241
603	0.242
604	0.243
604	0.244
605	0.245
605	0.245
606	0.245
606	0.245
606	0.245
607	0.244
607	0.244
608	0.244
608	0.243
609	0.242
609	0.243
610	0.242
610	0.242
610	0.242
611	0.243
611	0.243
612	0.244
612	0.245
613	0.245
613	0.245
614	0.245
614	0.244
614	0.243
615	0.243
615	0.242
616	0.242
616	0.241
617	0.241
617	0.24
618	0.239
618	0.239
618	0.239
619	0.24
619	0.24
620	0.241
620	0.241
621	0.241
621	0.241
622	0.241
622	0.24
622	0.24
623	0.24
623	0.24
624	0.24
624	0.239
625	0.239
625	0.239
626	0.239
626	0.238
626	0.238
627	0.238
627	0.237
628	0.236
628	0.236
629	0.235
629	0.234
630	0.232
630	0.231
630	0.23
631	0.229
631	0.228
632	0.226
632	0.224
633	0.222
633	0.22
634	0.219
634	0.217
634	0.215
635	0.213
635	0.21
636	0.208
636	0.205
637	0.202
637	0.199
638	0.196
638	0.193
638	0.189
639	0.185
639	0.181
640	0.177
640	0.174
641	0.17
641	0.166
642	0.162
642	0.158
642	0.154
643	0.149
643	0.144
644	0.14
644	0.135
645	0.129
645	0.124
646	0.119
646	0.113
646	0.107
647	0.102
647	0.096
648	0.09
648	0.083
649	0.076
649	0.069
650	0.062
650	0.055
650	0.047
651	0.037
651	0.025
652	0.011
652	-0.003
653	-0.016
653	-0.029
653	-0.027
654	-0.01
654	-0.001
655	-0.005
655	-0.01
656	-0.016
656	-0.023
657	-0.027
657	-0.031
657	-0.037
658	-0.043
658	-0.07
659	-0.149
659	-0.243
660	-0.286
660	-0.313
661	-0.341
661	-0.371
661	-0.405
662	-0.436
662	-0.47
663	-0.507
663	-0.549
664	-0.591
664	-0.642
665	-0.692
665	-0.75
665	-0.804
666	-0.86
666	-0.92
667	-0.984
667	-1.049
668	-1.121
668	-1.194
669	-1.267
669	-1.339
669	-1.414
670	-1.476
670	-1.491
671	-1.581
671	-1.914
672	-2.163
672	-2.364
672	-2.5
673	-2.596
673	-2.679
674	-2.735
674	-2.757
675	-2.783
675	-2.926
676	-3.131
676	-3.086
676	-2.865
677	-2.666
677	-2.511
678	-2.351
678	-2.095
679	-1.757
679	-1.6
680	-1.499
680	-1.413
680	-1.338
681	-1.29
681	-1.23
682	-1.189
682	-1.15
683	-1.113
683	-1.095
684	-1.073
684	-1.054
684	-1.031
685	-1.007
685	-0.983
686	-0.957
686	-0.941
687	-0.914
687	-0.902
687	-0.882
688	-0.857
688	-0.836
689	-0.815
689	-0.801
690	-0.782
690	-0.77
691	-0.764
691	-0.769
691	-0.786
692	-0.777
692	-0.768
693	-0.76
693	-0.767
694	-0.761
694	-0.753
695	-0.758
695	-0.756
695	-0.74
696	-0.734
696	-0.712
697	-0.711
697	-0.727
698	-0.732
698	-0.724
698	-0.737
699	-0.741
699	-0.737
700	-0.727
700	-0.742
701	-0.743
701	-0.749
702	-0.749
702	-0.735
702	-0.726
703	-0.718
703	-0.71
704	-0.708
704	-0.708
705	-0.72
705	-0.712
705	-0.7
706	-0.698
706	-0.693
707	-0.698
707	-0.693
708	-0.689
708	-0.683
709	-0.684
709	-0.686
709	-0.674
710	-0.684
710	-0.693
711	-0.687
711	-0.688
712	-0.687
712	-0.699
713	-0.701
713	-0.705
713	-0.695
714	-0.691
714	-0.694
715	-0.684
715	-0.67
716	-0.676
716	-0.678
716	-0.672
717	-0.673
717	-0.676
718	-0.669
718	-0.669
719	-0.675
719	-0.678
720	-0.674
720	-0.684
720	-0.678
721	-0.668
721	-0.666
722	-0.656
722	-0.646
723	-0.646
723	-0.649
723	-0.638
724	-0.64
724	-0.643
725	-0.641
725	-0.649
726	-0.661
726	-0.668
727	-0.671
727	-0.683
727	-0.689
728	-0.688
728	-0.695
729	-0.696
729	-0.704
730	-0.71
730	-0.703
730	-0.693
731	-0.676
731	-0.687
732	-0.693
732	-0.694
733	-0.695
733	-0.697
734	-0.689
734	-0.687
734	-0.675
735	-0.674
735	-0.676
736	-0.686
736	-0.676
737	-0.667
737	-0.669
737	-0.676
738	-0.673
738	-0.673
739	-0.668
739	-0.68
740	-0.679
740	-0.677
741	-0.674
741	-0.67
741	-0.673
742	-0.668
742	-0.674
743	-0.682
743	-0.686
744	-0.684
744	-0.675
744	-0.675
745	-0.682
745	-0.674
746	-0.673
746	-0.672
747	-0.675
747	-0.662
748	-0.649
748	-0.655
748	-0.658
749	-0.654
749	-0.657
750	-0.647
750	-0.648
751	-0.652
751	-0.66
751	-0.662
752	-0.664
752	-0.674
753	-0.669
753	-0.666
754	-0.674
754	-0.666
754	-0.681
755	-0.698
755	-0.712
756	-0.7
756	-0.695
757	-0.693
757	-0.686
758	-0.687
758	-0.683
758	-0.684
759	-0.692
759	-0.673
760	-0.666
760	-0.659
761	-0.668
761	-0.669
761	-0.667
762	-0.677
762	-0.677
763	-0.687
763	-0.686
764	-0.683
764	-0.69
764	-0.694
765	-0.687
765	-0.674
766	-0.68
766	-0.686
767	-0.699
767	-0.691
768	-0.682
768	-0.689
768	-0.695
769	-0.712
769	-0.714
770	-0.718
770	-0.729
771	-0.727
771	-0.729
771	-0.73
772	-0.735
772	-0.736
773	-0.737
773	-0.731
774	-0.732
774	-0.732
775	-0.733
775	-0.73
775	-0.737
776	-0.738
776	-0.729
777	-0.737
777	-0.756
778	-0.751
778	-0.771
778	-0.757
779	-0.778
779	-0.786
780	-0.799
780	-0.799
781	-0.811
781	-0.807
781	-0.823
782	-0.824
782	-0.829
783	-0.815
783	-0.815
784	-0.797
784	-0.788
784	-0.796
785	-0.802
785	-0.787
786	-0.794
786	-0.772
787	-0.756
787	-0.756
788	-0.758
788	-0.767
788	-0.779
789	-0.777
789	-0.759
790	-0.741
790	-0.743
791	-0.74
791	-0.756
791	-0.764
792	-0.758
792	-0.735
793	-0.722
793	-0.697
794	-0.703
794	-0.698
794	-0.706
795	-0.703
795	-0.696
796	-0.681
796	-0.689
797	-0.683
797	-0.694
797	-0.704
798	-0.716
798	-0.71
799	-0.719
799	-0.707
800	-0.711
800	-0.704
801	-0.708
801	-0.691
801	-0.701
802	-0.708
802	-0.71
803	-0.713
803	-0.721
804	-0.715
804	-0.726
804	-0.715
805	-0.721
805	-0.711
806	-0.716
806	-0.702
807	-0.7
807	-0.681
807	-0.668
808	-0.657
808	-0.651
809	-0.634
809	-0.644
810	-0.642
810	-0.635
810	-0.631
811	-0.637
811	-0.627
812	-0.626
812	-0.63
813	-0.634
813	-0.629
813	-0.635
814	-0.634
814	-0.637
815	-0.643
815	-0.646
816	-0.639
816	-0.645
817	-0.654
817	-0.671
817	-0.687
818	-0.696
818	-0.698
819	-0.691
819	-0.692
820	-0.701
820	-0.697
820	-0.709
821	-0.708
821	-0.695
822	-0.664
822	-0.64
823	-0.636
823	-0.64
823	-0.636
824	-0.631
824	-0.634
825	-0.626
825	-0.608
826	-0.604
826	-0.613
826	-0.622
827	-0.616
827	-0.613
828	-0.593
828	-0.592
829	-0.581
829	-0.565
829	-0.558
830	-0.566
830	-0.563
831	-0.554
831	-0.544
832	-0.546
832	-0.538
832	-0.545
833	-0.539
833	-0.541
834	-0.54
834	-0.545
835	-0.533
835	-0.526
835	-0.521
836	-0.517
836	-0.51
837	-0.508
837	-0.498
838	-0.492
838	-0.48
839	-0.466
839	-0.454
839	-0.444
840	-0.434
840	-0.432
841	-0.423
841	-0.414
842	-0.409
842	-0.398
842	-0.391
843	-0.384
843	-0.38
844	-0.373
844	-0.366
845	-0.357
845	-0.345
845	-0.331
846	-0.319
846	-0.304
847	-0.292
847	-0.282
848	-0.27
848	-0.259
848	-0.241
849	-0.23
849	-0.219
850	-0.206
850	-0.2
851	-0.193
851	-0.183
851	-0.174
852	-0.158
852	-0.147
853	-0.139
853	-0.133
854	-0.12
854	-0.109
854	-0.097
855	-0.086
855	-0.078
856	-0.068
856	-0.06
857	-0.053
857	-0.044
857	-0.032
858	-0.021
858	-0.015
859	-0.006
859	0.004
860	0.013
860	0.025
860	0.034
861	0.043
861	0.05
862	0.059
862	0.065
863	0.073
863	0.082
863	0.087
864	0.092
864	0.097
865	0.103
865	0.108
866	0.113
866	0.116
866	0.119
867	0.123
867	0.127
868	0.13
868	0.134
869	0.137
869	0.139
869	0.141
870	0.144
870	0.147
871	0.149
871	0.151
872	0.152
872	0.153
872	0.153
873	0.154
873	0.154
874	0.154
874	0.154
875	0.153
875	0.152
875	0.151
876	0.15
876	0.149
877	0.147
877	0.146
878	0.144
878	0.142
878	0.14
879	0.138
879	0.137
880	0.136
880	0.135
881	0.135
881	0.135
881	0.134
882	0.134
882	0.133
883	0.132
883	0.131
884	0.131
884	0.13
884	0.129
885	0.129
885	0.128
886	0.127
886	0.126
887	0.126
887	0.125
887	0.125
888	0.125
888	0.125
889	0.125
889	0.125
890	0.125
890	0.125
890	0.125
891	0.125
891	0.125
892	0.126
892	0.126
893	0.126
893	0.126
893	0.125
894	0.125
894	0.124
895	0.124
895	0.124
895	0.123
896	0.123
896	0.121
897	0.12
897	0.119
898	0.118
898	0.118
898	0.118
899	0.118
899	0.118
900	0.118
900	0.119
901	0.12
901	0.121
901	0.121
902	0.122
902	0.123
903	0.123
903	0.123
904	0.124
904	0.124
904	0.125
905	0.126
905	0.126
906	0.126
906	0.127
907	0.126
907	0.126
907	0.126
908	0.126
908	0.125
909	0.125
909	0.124
910	0.123
910	0.123
910	0.122
911	0.123
911	0.123
912	0.124
912	0.124
913	0.124
913	0.125
913	0.125
914	0.126
914	0.127
915	0.127
915	0.128
916	0.128
916	0.128
916	0.128
917	0.128
917	0.128
918	0.128
918	0.127
918	0.127
919	0.127
919	0.127
920	0.127
920	0.127
921	0.127
921	0.127
921	0.127
922	0.127
922	0.127
923	0.127
923	0.127
924	0.126
924	0.126
924	0.125
925	0.124
925	0.123
926	0.122
926	0.121
927	0.12
927	0.12
927	0.119
928	0.119
928	0.118
929	0.118
929	0.118
930	0.117
930	0.117
930	0.116
931	0.116
931	0.116
932	0.116
932	0.115
933	0.114
933	0.112
933	0.111
934	0.11
934	0.108
935	0.107
935	0.106
935	0.105
936	0.104
936	0.103
937	0.102
937	0.102
938	0.102
938	0.102
938	0.102
939	0.103
939	0.103
940	0.104
940	0.104
941	0.105
941	0.106
941	0.107
942	0.107
942	0.107
943	0.108
943	0.108
944	0.107
944	0.107
944	0.106
945	0.106
945	0.105
946	0.104
946	0.102
946	0.101
947	0.1
947	0.1
948	0.1
948	0.1
949	0.1
949	0.101
949	0.101
950	0.102
950	0.103
951	0.104
951	0.105
952	0.106
952	0.107
952	0.107
953	0.108
953	0.109
954	0.109
954	0.109
955	0.11
955	0.111
955	0.112
956	0.113
956	0.113
957	0.114
957	0.114
957	0.114
958	0.114
958	0.115
959	0.115
959	0.115
960	0.115
960	0.115
960	0.115
961	0.115
961	0.115
962	0.115
962	0.114
963	0.114
963	0.114
963	0.114
964	0.113
964	0.113
965	0.114
965	0.113
966	0.113
966	0.113
966	0.113
967	0.113
967	0.112
968	0.112
968	0.111
968	0.11
969	0.11
969	0.109
970	0.109
970	0.109
971	0.109
971	0.109
971	0.109
972	0.109
972	0.109
973	0.109
973	0.109
974	0.108
974	0.108
974	0.108
975	0.107
975	0.106
976	0.106
976	0.105
976	0.105
977	0.104
977	0.104
978	0.104
978	0.104
979	0.104
979	0.103
979	0.103
980	0.103
980	0.103
981	0.102
981	0.102
982	0.102
982	0.102
982	0.102
983	0.101
983	0.101
984	0.101
984	0.102
984	0.102
985	0.102
985	0.103
986	0.103
986	0.103
987	0.103
987	0.102
987	0.102
988	0.102
988	0.101
989	0.1
989	0.099
990	0.098
990	0.098
990	0.097
991	0.097
991	0.096
992	0.096
992	0.095
992	0.095
993	0.095
993	0.095
994	0.095
994	0.095
995	0.094
995	0.094
995	0.093
996	0.093
996	0.093
997	0.092
997	0.093
997	0.093
998	0.093
998	0.093
999	0.093
999	0.094
1000	0.094
1000	0.094
1000	0.094
1001	0.095
1001	0.095
1002	0.095
1002	0.095
1003	0.095
1003	0.095
1003	0.094
1004	0.094
1004	0.093
1005	0.093
1005	0.092
1005	0.091
1006	0.09
1006	0.089
1007	0.088
1007	0.087
1008	0.086
1008	0.086
1008	0.085
1009	0.085
1009	0.085
1010	0.085
1010	0.085
1010	0.085
1011	0.085
1011	0.084
1012	0.084
1012	0.083
1013	0.082
1013	0.081
1013	0.08
1014	0.079
1014	0.078
1015	0.077
1015	0.076
1016	0.075
1016	0.074
1016	0.074
1017	0.073
1017	0.073
1018	0.072
1018	0.071
1018	0.07
1019	0.07
1019	0.069
1020	0.069
1020	0.068
1021	0.067
1021	0.066
1021	0.065
1022	0.064
1022	0.063
1023	0.063
1023	0.063
1023	0.062
1024	0.062
1024	0.061
1025	0.062
1025	0.062
1026	0.063
1026	0.063
1026	0.063
1027	0.064
1027	0.065
1028	0.065
1028	0.065
1028	0.064
1029	0.064
1029	0.064
1030	0.064
1030	0.063
1031	0.063
1031	0.063
1031	0.062
1032	0.062
1032	0.062
1033	0.062
1033	0.063
1033	0.063
1034	0.063
1034	0.063
1035	0.063
1035	0.063
1036	0.063
1036	0.063
1036	0.063
1037	0.063
1037	0.063
1038	0.063
1038	0.063
1039	0.064
1039	0.064
1039	0.064
1040	0.064
1040	0.065
1041	0.065
1041	0.065
1041	0.066
1042	0.066
1042	0.065
1043	0.065
1043	0.064
1044	0.064
1044	0.063
1044	0.063
1045	0.062
1045	0.061
1046	0.061
1046	0.06
1046	0.06
1047	0.06
1047	0.06
1048	0.06
1048	0.061
1049	0.061
1049	0.061
1049	0.061
1050	0.062
1050	0.062
1051	0.062
1051	0.062
1051	0.063
1052	0.063
1052	0.063
1053	0.063
1053	0.063
1053	0.064
1054	0.063
1054	0.063
1055	0.063
1055	0.063
1056	0.062
1056	0.061
1056	0.06
1057	0.059
1057	0.058
1058	0.058
1058	0.057
1058	0.056
1059	0.056
1059	0.055
1060	0.054
1060	0.054
1061	0.054
1061	0.054
1061	0.054
1062	0.054
1062	0.054
1063	0.054
1063	0.054
1063	0.054
1064	0.054
1064	0.054
1065	0.054
1065	0.054
1066	0.053
1066	0.052
1066	0.052
1067	0.052
1067	0.051
1068	0.05
1068	0.05
1068	0.049
1069	0.049
1069	0.049
1070	0.048
1070	0.048
1071	0.048
1071	0.048
1071	0.047
1072	0.047
1072	0.047
1073	0.047
1073	0.047
1073	0.046
1074	0.047
1074	0.047
1075	0.046
1075	0.046
1076	0.046
1076	0.046
1076	0.045
1077	0.044
1077	0.043
1078	0.043
1078	0.042
1078	0.041
1079	0.04
1079	0.039
1080	0.038
1080	0.038
1080	0.037
1081	0.037
1081	0.036
1082	0.035
1082	0.034
1083	0.034
1083	0.033
1083	0.032
1084	0.031
1084	0.03
1085	0.029
1085	0.028
1085	0.028
1086	0.028
1086	0.027
1087	0.027
1087	0.027
1088	0.026
1088	0.026
1088	0.026
1089	0.025
1089	0.025
1090	0.023
1090	0.023
1090	0.021
1091	0.021
1091	0.02
1092	0.019
1092	0.02
1092	0.018
1093	0.018
1093	0.018
1094	0.017
1094	0.017
1095	0.016
1095	0.016
1095	0.015
1096	0.014
1096	0.013
1097	0.012
1097	0.012
1097	0.011
1098	0.01
1098	0.008
1099	0.007
1099	0.007
1100	0.005
1100	0.003
1100	0.001
1101	-0.001
1101	-0.004
1102	-0.006
1102	-0.009
1102	-0.009
1103	-0.011
1103	-0.014
1104	-0.015
1104	-0.017
1104	-0.019
1105	-0.021
1105	-0.025
1106	-0.029
1106	-0.031
1107	-0.036
1107	-0.041
1107	-0.046
1108	-0.048
1108	-0.051
1109	-0.055
1109	-0.059
1109	-0.062
1110	-0.062
1110	-0.065
1111	-0.071
1111	-0.069
