Data from 17C_3.4A_30min_2sec_int_Absorbance__14__00735.txt Node

Date: Mon Jun 19 16:48:27 CEST 2023
User: Marek
Spectrometer: MAYP115816
Trigger mode: 0
Integration Time (sec): 2.500000E-1
Scans to average: 10
Electric dark correction enabled: true
Nonlinearity correction enabled: true
Boxcar width: 5
XAxis mode: Wavelengths
Number of Pixels in Spectrum: 2068
>>>>>Begin Spectral Data<<<<<
199	-0.626
199	-0.627
200	-0.537
200	-0.483
201	-0.452
201	-0.437
202	-0.422
202	-0.408
203	-0.399
203	-0.396
204	-0.384
204	-0.37
205	-0.349
205	-0.344
205	-0.342
206	-0.342
206	-0.344
207	-0.335
207	-0.335
208	-0.337
208	-0.336
209	-0.328
209	-0.329
210	-0.334
210	-0.34
211	-0.344
211	-0.347
212	-0.354
212	-0.359
213	-0.36
213	-0.363
213	-0.366
214	-0.367
214	-0.367
215	-0.367
215	-0.371
216	-0.374
216	-0.38
217	-0.374
217	-0.379
218	-0.382
218	-0.382
219	-0.386
219	-0.392
220	-0.394
220	-0.4
221	-0.399
221	-0.402
221	-0.396
222	-0.392
222	-0.393
223	-0.396
223	-0.399
224	-0.403
224	-0.404
225	-0.4
225	-0.396
226	-0.401
226	-0.398
227	-0.404
227	-0.411
228	-0.412
228	-0.414
229	-0.413
229	-0.408
229	-0.403
230	-0.409
230	-0.414
231	-0.406
231	-0.4
232	-0.393
232	-0.395
233	-0.386
233	-0.384
234	-0.382
234	-0.378
235	-0.382
235	-0.386
236	-0.384
236	-0.39
236	-0.392
237	-0.4
237	-0.399
238	-0.408
238	-0.404
239	-0.405
239	-0.414
240	-0.409
240	-0.405
241	-0.409
241	-0.406
242	-0.416
242	-0.41
243	-0.406
243	-0.408
243	-0.415
244	-0.414
244	-0.412
245	-0.428
245	-0.428
246	-0.433
246	-0.441
247	-0.438
247	-0.443
248	-0.448
248	-0.443
249	-0.448
249	-0.457
250	-0.457
250	-0.453
250	-0.454
251	-0.449
251	-0.447
252	-0.451
252	-0.441
253	-0.446
253	-0.459
254	-0.456
254	-0.454
255	-0.461
255	-0.453
256	-0.451
256	-0.463
257	-0.461
257	-0.456
258	-0.474
258	-0.47
258	-0.463
259	-0.46
259	-0.467
260	-0.465
260	-0.469
261	-0.48
261	-0.475
262	-0.474
262	-0.477
263	-0.464
263	-0.458
264	-0.46
264	-0.47
265	-0.466
265	-0.473
265	-0.477
266	-0.472
266	-0.467
267	-0.479
267	-0.485
268	-0.501
268	-0.512
269	-0.509
269	-0.502
270	-0.506
270	-0.508
271	-0.511
271	-0.517
272	-0.518
272	-0.511
272	-0.505
273	-0.502
273	-0.509
274	-0.515
274	-0.518
275	-0.517
275	-0.511
276	-0.512
276	-0.506
277	-0.513
277	-0.532
278	-0.541
278	-0.535
278	-0.529
279	-0.53
279	-0.54
280	-0.538
280	-0.539
281	-0.536
281	-0.544
282	-0.536
282	-0.533
283	-0.523
283	-0.525
284	-0.522
284	-0.514
285	-0.509
285	-0.509
285	-0.504
286	-0.508
286	-0.505
287	-0.501
287	-0.487
288	-0.48
288	-0.489
289	-0.499
289	-0.51
290	-0.499
290	-0.496
291	-0.494
291	-0.488
292	-0.487
292	-0.496
292	-0.5
293	-0.504
293	-0.494
294	-0.482
294	-0.469
295	-0.467
295	-0.464
296	-0.462
296	-0.46
297	-0.454
297	-0.437
298	-0.427
298	-0.434
298	-0.422
299	-0.418
299	-0.422
300	-0.416
300	-0.413
301	-0.408
301	-0.408
302	-0.415
302	-0.425
303	-0.415
303	-0.4
304	-0.402
304	-0.4
305	-0.401
305	-0.4
305	-0.396
306	-0.382
306	-0.378
307	-0.365
307	-0.364
308	-0.374
308	-0.374
309	-0.378
309	-0.37
310	-0.358
310	-0.355
311	-0.349
311	-0.357
311	-0.352
312	-0.35
312	-0.35
313	-0.338
313	-0.339
314	-0.333
314	-0.336
315	-0.335
315	-0.333
316	-0.329
316	-0.318
317	-0.31
317	-0.303
318	-0.29
318	-0.29
318	-0.284
319	-0.276
319	-0.269
320	-0.265
320	-0.265
321	-0.269
321	-0.27
322	-0.266
322	-0.263
323	-0.265
323	-0.258
324	-0.252
324	-0.244
324	-0.236
325	-0.226
325	-0.211
326	-0.198
326	-0.182
327	-0.168
327	-0.15
328	-0.125
328	-0.107
329	-0.086
329	-0.061
330	-0.036
330	-0.005
330	0.023
331	0.05
331	0.076
332	0.1
332	0.121
333	0.144
333	0.167
334	0.186
334	0.201
335	0.218
335	0.231
336	0.243
336	0.256
336	0.265
337	0.276
337	0.285
338	0.292
338	0.297
339	0.304
339	0.309
340	0.313
340	0.317
341	0.321
341	0.324
342	0.327
342	0.329
342	0.332
343	0.334
343	0.337
344	0.338
344	0.339
345	0.341
345	0.341
346	0.342
346	0.343
347	0.343
347	0.344
348	0.344
348	0.344
348	0.344
349	0.344
349	0.345
350	0.345
350	0.345
351	0.345
351	0.345
352	0.345
352	0.345
353	0.345
353	0.345
354	0.345
354	0.345
354	0.345
355	0.345
355	0.344
356	0.344
356	0.344
357	0.343
357	0.343
358	0.342
358	0.342
359	0.342
359	0.342
360	0.341
360	0.341
360	0.341
361	0.341
361	0.341
362	0.341
362	0.34
363	0.34
363	0.34
364	0.34
364	0.34
365	0.34
365	0.34
366	0.34
366	0.34
366	0.34
367	0.34
367	0.34
368	0.339
368	0.339
369	0.339
369	0.339
370	0.338
370	0.338
371	0.338
371	0.338
372	0.338
372	0.337
372	0.337
373	0.337
373	0.337
374	0.337
374	0.336
375	0.336
375	0.336
376	0.336
376	0.336
377	0.336
377	0.336
378	0.335
378	0.335
378	0.335
379	0.335
379	0.335
380	0.335
380	0.335
381	0.334
381	0.334
382	0.334
382	0.333
383	0.333
383	0.333
383	0.333
384	0.332
384	0.332
385	0.332
385	0.332
386	0.332
386	0.331
387	0.331
387	0.331
388	0.33
388	0.33
389	0.33
389	0.33
389	0.33
390	0.33
390	0.33
391	0.33
391	0.33
392	0.329
392	0.329
393	0.329
393	0.329
394	0.329
394	0.328
394	0.328
395	0.328
395	0.327
396	0.327
396	0.327
397	0.326
397	0.326
398	0.326
398	0.326
399	0.325
399	0.325
400	0.325
400	0.324
400	0.324
401	0.324
401	0.324
402	0.323
402	0.323
403	0.323
403	0.323
404	0.322
404	0.322
405	0.322
405	0.322
405	0.322
406	0.321
406	0.321
407	0.321
407	0.32
408	0.32
408	0.32
409	0.32
409	0.319
410	0.319
410	0.319
411	0.319
411	0.319
411	0.319
412	0.319
412	0.318
413	0.318
413	0.318
414	0.318
414	0.317
415	0.317
415	0.317
416	0.316
416	0.316
416	0.316
417	0.316
417	0.316
418	0.316
418	0.315
419	0.315
419	0.315
420	0.315
420	0.315
421	0.315
421	0.315
421	0.315
422	0.315
422	0.315
423	0.315
423	0.315
424	0.315
424	0.314
425	0.314
425	0.314
426	0.314
426	0.314
427	0.313
427	0.313
427	0.313
428	0.313
428	0.312
429	0.312
429	0.312
430	0.312
430	0.312
431	0.311
431	0.311
432	0.311
432	0.311
432	0.31
433	0.31
433	0.31
434	0.31
434	0.31
435	0.31
435	0.31
436	0.31
436	0.309
437	0.309
437	0.309
437	0.309
438	0.309
438	0.309
439	0.309
439	0.309
440	0.308
440	0.308
441	0.308
441	0.308
442	0.308
442	0.307
442	0.307
443	0.307
443	0.307
444	0.307
444	0.306
445	0.306
445	0.306
446	0.306
446	0.307
447	0.307
447	0.307
447	0.307
448	0.307
448	0.307
449	0.307
449	0.307
450	0.307
450	0.307
451	0.307
451	0.307
452	0.307
452	0.307
452	0.307
453	0.307
453	0.307
454	0.307
454	0.307
455	0.307
455	0.307
456	0.307
456	0.307
457	0.306
457	0.306
458	0.306
458	0.306
458	0.306
459	0.307
459	0.307
460	0.306
460	0.306
461	0.307
461	0.307
462	0.307
462	0.307
463	0.308
463	0.308
463	0.308
464	0.308
464	0.308
465	0.309
465	0.309
466	0.309
466	0.31
467	0.31
467	0.31
467	0.31
468	0.31
468	0.31
469	0.311
469	0.312
470	0.312
470	0.312
471	0.312
471	0.312
472	0.313
472	0.313
472	0.314
473	0.314
473	0.315
474	0.315
474	0.315
475	0.316
475	0.316
476	0.317
476	0.317
477	0.317
477	0.318
477	0.318
478	0.319
478	0.319
479	0.32
479	0.321
480	0.321
480	0.322
481	0.323
481	0.324
482	0.325
482	0.325
482	0.326
483	0.327
483	0.328
484	0.329
484	0.329
485	0.33
485	0.331
486	0.331
486	0.332
487	0.333
487	0.334
487	0.335
488	0.336
488	0.337
489	0.339
489	0.341
490	0.342
490	0.344
491	0.346
491	0.347
492	0.349
492	0.35
492	0.352
493	0.353
493	0.355
494	0.357
494	0.359
495	0.36
495	0.362
496	0.364
496	0.365
496	0.367
497	0.369
497	0.371
498	0.373
498	0.375
499	0.377
499	0.378
500	0.38
500	0.383
501	0.384
501	0.386
501	0.388
502	0.39
502	0.392
503	0.394
503	0.396
504	0.398
504	0.401
505	0.403
505	0.405
506	0.408
506	0.41
506	0.413
507	0.415
507	0.418
508	0.42
508	0.423
509	0.425
509	0.428
510	0.43
510	0.433
511	0.435
511	0.437
511	0.44
512	0.443
512	0.445
513	0.447
513	0.449
514	0.452
514	0.454
515	0.456
515	0.459
515	0.461
516	0.463
516	0.466
517	0.468
517	0.47
518	0.472
518	0.475
519	0.477
519	0.479
520	0.481
520	0.484
520	0.486
521	0.488
521	0.49
522	0.492
522	0.495
523	0.496
523	0.499
524	0.5
524	0.502
524	0.503
525	0.505
525	0.506
526	0.507
526	0.509
527	0.51
527	0.512
528	0.513
528	0.515
529	0.516
529	0.518
529	0.519
530	0.52
530	0.521
531	0.522
531	0.523
532	0.524
532	0.525
533	0.526
533	0.527
533	0.528
534	0.529
534	0.53
535	0.53
535	0.531
536	0.532
536	0.532
537	0.533
537	0.533
538	0.534
538	0.534
538	0.534
539	0.535
539	0.535
540	0.536
540	0.536
541	0.536
541	0.536
542	0.536
542	0.536
542	0.536
543	0.536
543	0.536
544	0.535
544	0.535
545	0.535
545	0.536
546	0.536
546	0.535
547	0.535
547	0.535
547	0.535
548	0.534
548	0.534
549	0.534
549	0.534
550	0.533
550	0.532
551	0.532
551	0.532
551	0.532
552	0.532
552	0.532
553	0.531
553	0.531
554	0.53
554	0.53
555	0.529
555	0.528
556	0.528
556	0.527
556	0.526
557	0.525
557	0.524
558	0.524
558	0.523
559	0.522
559	0.521
560	0.52
560	0.519
560	0.519
561	0.518
561	0.517
562	0.516
562	0.515
563	0.514
563	0.513
564	0.512
564	0.511
564	0.511
565	0.51
565	0.509
566	0.508
566	0.506
567	0.505
567	0.503
568	0.502
568	0.5
568	0.499
569	0.498
569	0.496
570	0.494
570	0.493
571	0.492
571	0.49
572	0.488
572	0.487
573	0.485
573	0.484
573	0.482
574	0.481
574	0.48
575	0.479
575	0.478
576	0.477
576	0.475
577	0.474
577	0.474
577	0.473
578	0.472
578	0.472
579	0.471
579	0.47
580	0.468
580	0.465
581	0.463
581	0.462
581	0.461
582	0.46
582	0.458
583	0.457
583	0.455
584	0.452
584	0.45
585	0.449
585	0.448
585	0.446
586	0.445
586	0.443
587	0.442
587	0.441
588	0.439
588	0.437
589	0.436
589	0.435
590	0.433
590	0.431
590	0.43
591	0.428
591	0.425
592	0.423
592	0.421
593	0.42
593	0.418
594	0.417
594	0.415
594	0.414
595	0.412
595	0.411
596	0.409
596	0.408
597	0.407
597	0.405
598	0.404
598	0.402
598	0.4
599	0.399
599	0.397
600	0.395
600	0.393
601	0.392
601	0.39
602	0.387
602	0.386
602	0.384
603	0.383
603	0.381
604	0.38
604	0.378
605	0.377
605	0.376
606	0.374
606	0.372
606	0.371
607	0.369
607	0.368
608	0.366
608	0.364
609	0.362
609	0.361
610	0.359
610	0.357
610	0.356
611	0.355
611	0.354
612	0.352
612	0.351
613	0.349
613	0.347
614	0.344
614	0.342
614	0.34
615	0.338
615	0.336
616	0.334
616	0.331
617	0.329
617	0.327
618	0.325
618	0.323
618	0.321
619	0.32
619	0.319
620	0.317
620	0.315
621	0.314
621	0.312
622	0.31
622	0.308
622	0.306
623	0.304
623	0.302
624	0.3
624	0.298
625	0.296
625	0.294
626	0.291
626	0.289
626	0.287
627	0.285
627	0.282
628	0.279
628	0.276
629	0.273
629	0.27
630	0.266
630	0.263
630	0.259
631	0.255
631	0.251
632	0.247
632	0.242
633	0.238
633	0.233
634	0.228
634	0.223
634	0.218
635	0.212
635	0.206
636	0.2
636	0.194
637	0.187
637	0.18
638	0.173
638	0.166
638	0.159
639	0.151
639	0.143
640	0.135
640	0.127
641	0.119
641	0.112
642	0.104
642	0.097
642	0.089
643	0.081
643	0.072
644	0.064
644	0.055
645	0.046
645	0.037
646	0.029
646	0.02
646	0.01
647	0.001
647	-0.007
648	-0.017
648	-0.025
649	-0.035
649	-0.044
650	-0.052
650	-0.061
650	-0.07
651	-0.081
651	-0.095
652	-0.111
652	-0.128
653	-0.142
653	-0.155
653	-0.15
654	-0.123
654	-0.107
655	-0.109
655	-0.112
656	-0.116
656	-0.121
657	-0.123
657	-0.126
657	-0.132
658	-0.137
658	-0.167
659	-0.258
659	-0.367
660	-0.414
660	-0.443
661	-0.475
661	-0.51
661	-0.552
662	-0.592
662	-0.634
663	-0.681
663	-0.733
664	-0.787
664	-0.847
665	-0.909
665	-0.977
665	-1.041
666	-1.106
666	-1.176
667	-1.249
667	-1.322
668	-1.403
668	-1.486
669	-1.573
669	-1.666
669	-1.783
670	-1.986
670	-2.13
671	-2.209
671	-2.314
672	-2.457
672	-2.595
672	-2.688
673	-2.754
673	-2.78
674	-2.797
674	-2.804
675	-2.799
675	-2.888
676	-3.041
676	-2.979
676	-2.737
677	-2.502
677	-2.283
678	-1.966
678	-1.769
679	-1.648
679	-1.555
680	-1.479
680	-1.413
680	-1.355
681	-1.319
681	-1.265
682	-1.228
682	-1.192
683	-1.158
683	-1.14
684	-1.116
684	-1.095
684	-1.071
685	-1.045
685	-1.02
686	-0.991
686	-0.972
687	-0.943
687	-0.927
687	-0.906
688	-0.879
688	-0.857
689	-0.835
689	-0.82
690	-0.797
690	-0.782
691	-0.775
691	-0.777
691	-0.791
692	-0.781
692	-0.77
693	-0.761
693	-0.766
694	-0.759
694	-0.75
695	-0.754
695	-0.749
695	-0.732
696	-0.727
696	-0.702
697	-0.701
697	-0.715
698	-0.717
698	-0.706
698	-0.715
699	-0.715
699	-0.711
700	-0.703
700	-0.715
701	-0.713
701	-0.719
702	-0.717
702	-0.704
702	-0.695
703	-0.689
703	-0.681
704	-0.678
704	-0.675
705	-0.684
705	-0.676
705	-0.664
706	-0.663
706	-0.658
707	-0.66
707	-0.654
708	-0.65
708	-0.643
709	-0.642
709	-0.645
709	-0.637
710	-0.645
710	-0.652
711	-0.641
711	-0.642
712	-0.642
712	-0.656
713	-0.654
713	-0.659
713	-0.652
714	-0.645
714	-0.644
715	-0.636
715	-0.622
716	-0.632
716	-0.632
716	-0.624
717	-0.625
717	-0.628
718	-0.62
718	-0.619
719	-0.627
719	-0.629
720	-0.623
720	-0.634
720	-0.624
721	-0.616
721	-0.613
722	-0.599
722	-0.588
723	-0.584
723	-0.589
723	-0.577
724	-0.582
724	-0.586
725	-0.584
725	-0.592
726	-0.602
726	-0.608
727	-0.613
727	-0.627
727	-0.635
728	-0.634
728	-0.638
729	-0.636
729	-0.639
730	-0.644
730	-0.636
730	-0.627
731	-0.609
731	-0.619
732	-0.621
732	-0.621
733	-0.62
733	-0.625
734	-0.615
734	-0.613
734	-0.599
735	-0.6
735	-0.601
736	-0.611
736	-0.597
737	-0.59
737	-0.591
737	-0.6
738	-0.595
738	-0.598
739	-0.597
739	-0.612
740	-0.609
740	-0.605
741	-0.604
741	-0.604
741	-0.608
742	-0.605
742	-0.604
743	-0.61
743	-0.613
744	-0.61
744	-0.598
744	-0.599
745	-0.607
745	-0.598
746	-0.597
746	-0.594
747	-0.594
747	-0.582
748	-0.572
748	-0.576
748	-0.578
749	-0.577
749	-0.577
750	-0.564
750	-0.563
751	-0.569
751	-0.576
751	-0.579
752	-0.586
752	-0.593
753	-0.591
753	-0.588
754	-0.593
754	-0.59
754	-0.605
755	-0.622
755	-0.631
756	-0.622
756	-0.62
757	-0.617
757	-0.613
758	-0.613
758	-0.61
758	-0.615
759	-0.625
759	-0.611
760	-0.603
760	-0.602
761	-0.61
761	-0.608
761	-0.606
762	-0.614
762	-0.613
763	-0.624
763	-0.618
764	-0.613
764	-0.618
764	-0.623
765	-0.61
765	-0.597
766	-0.603
766	-0.613
767	-0.628
767	-0.621
768	-0.609
768	-0.619
768	-0.624
769	-0.642
769	-0.643
770	-0.648
770	-0.659
771	-0.659
771	-0.66
771	-0.655
772	-0.659
772	-0.659
773	-0.658
773	-0.651
774	-0.651
774	-0.653
775	-0.656
775	-0.651
775	-0.657
776	-0.655
776	-0.649
777	-0.659
777	-0.681
778	-0.68
778	-0.701
778	-0.689
779	-0.708
779	-0.716
780	-0.728
780	-0.726
781	-0.739
781	-0.733
781	-0.746
782	-0.748
782	-0.751
783	-0.74
783	-0.739
784	-0.724
784	-0.719
784	-0.732
785	-0.742
785	-0.729
786	-0.737
786	-0.716
787	-0.698
787	-0.697
788	-0.699
788	-0.708
788	-0.714
789	-0.709
789	-0.687
790	-0.664
790	-0.664
791	-0.66
791	-0.675
791	-0.68
792	-0.672
792	-0.647
793	-0.635
793	-0.614
794	-0.615
794	-0.606
794	-0.617
795	-0.612
795	-0.608
796	-0.593
796	-0.6
797	-0.593
797	-0.606
797	-0.612
798	-0.624
798	-0.619
799	-0.63
799	-0.616
800	-0.622
800	-0.614
801	-0.619
801	-0.604
801	-0.614
802	-0.623
802	-0.624
803	-0.625
803	-0.633
804	-0.629
804	-0.638
804	-0.628
805	-0.632
805	-0.623
806	-0.626
806	-0.614
807	-0.61
807	-0.592
807	-0.583
808	-0.576
808	-0.571
809	-0.556
809	-0.568
810	-0.568
810	-0.561
810	-0.559
811	-0.564
811	-0.555
812	-0.556
812	-0.559
813	-0.563
813	-0.557
813	-0.562
814	-0.559
814	-0.562
815	-0.566
815	-0.569
816	-0.563
816	-0.568
817	-0.576
817	-0.591
817	-0.603
818	-0.611
818	-0.616
819	-0.611
819	-0.61
820	-0.618
820	-0.616
820	-0.627
821	-0.624
821	-0.611
822	-0.579
822	-0.558
823	-0.556
823	-0.557
823	-0.555
824	-0.55
824	-0.552
825	-0.546
825	-0.525
826	-0.522
826	-0.531
826	-0.543
827	-0.538
827	-0.536
828	-0.516
828	-0.516
829	-0.509
829	-0.495
829	-0.487
830	-0.494
830	-0.493
831	-0.484
831	-0.476
832	-0.475
832	-0.468
832	-0.477
833	-0.469
833	-0.467
834	-0.466
834	-0.473
835	-0.466
835	-0.461
835	-0.457
836	-0.451
836	-0.448
837	-0.447
837	-0.436
838	-0.429
838	-0.422
839	-0.412
839	-0.401
839	-0.39
840	-0.38
840	-0.379
841	-0.369
841	-0.363
842	-0.357
842	-0.35
842	-0.345
843	-0.34
843	-0.335
844	-0.328
844	-0.323
845	-0.315
845	-0.304
845	-0.294
846	-0.284
846	-0.272
847	-0.262
847	-0.253
848	-0.244
848	-0.235
848	-0.222
849	-0.213
849	-0.204
850	-0.193
850	-0.188
851	-0.181
851	-0.174
851	-0.167
852	-0.155
852	-0.145
853	-0.136
853	-0.131
854	-0.123
854	-0.115
854	-0.106
855	-0.096
855	-0.091
856	-0.083
856	-0.075
857	-0.07
857	-0.063
857	-0.055
858	-0.047
858	-0.042
859	-0.036
859	-0.029
860	-0.022
860	-0.013
860	-0.006
861	-0.001
861	0.004
862	0.009
862	0.014
863	0.017
863	0.023
863	0.027
864	0.029
864	0.033
865	0.036
865	0.038
866	0.041
866	0.043
866	0.044
867	0.046
867	0.049
868	0.05
868	0.053
869	0.055
869	0.057
869	0.058
870	0.06
870	0.063
871	0.065
871	0.067
872	0.068
872	0.069
872	0.069
873	0.069
873	0.069
874	0.069
874	0.069
875	0.068
875	0.067
875	0.066
876	0.065
876	0.064
877	0.062
877	0.061
878	0.059
878	0.058
878	0.056
879	0.054
879	0.053
880	0.052
880	0.051
881	0.051
881	0.051
881	0.051
882	0.05
882	0.05
883	0.05
883	0.05
884	0.05
884	0.05
884	0.05
885	0.049
885	0.049
886	0.049
886	0.049
887	0.049
887	0.049
887	0.049
888	0.049
888	0.049
889	0.05
889	0.05
890	0.051
890	0.051
890	0.051
891	0.051
891	0.052
892	0.052
892	0.052
893	0.051
893	0.051
893	0.051
894	0.051
894	0.05
895	0.05
895	0.049
895	0.049
896	0.048
896	0.048
897	0.047
897	0.046
898	0.046
898	0.045
898	0.045
899	0.045
899	0.045
900	0.045
900	0.045
901	0.045
901	0.045
901	0.046
902	0.046
902	0.047
903	0.046
903	0.046
904	0.047
904	0.047
904	0.047
905	0.048
905	0.048
906	0.048
906	0.047
907	0.047
907	0.046
907	0.046
908	0.046
908	0.045
909	0.045
909	0.044
910	0.043
910	0.043
910	0.043
911	0.042
911	0.043
912	0.043
912	0.043
913	0.043
913	0.044
913	0.044
914	0.045
914	0.045
915	0.046
915	0.047
916	0.047
916	0.048
916	0.048
917	0.048
917	0.048
918	0.048
918	0.047
918	0.047
919	0.046
919	0.046
920	0.046
920	0.045
921	0.045
921	0.044
921	0.044
922	0.044
922	0.043
923	0.043
923	0.043
924	0.044
924	0.044
924	0.043
925	0.043
925	0.043
926	0.043
926	0.042
927	0.042
927	0.042
927	0.042
928	0.042
928	0.042
929	0.042
929	0.041
930	0.041
930	0.041
930	0.041
931	0.042
931	0.042
932	0.042
932	0.042
933	0.042
933	0.042
933	0.041
934	0.04
934	0.039
935	0.038
935	0.038
935	0.037
936	0.036
936	0.035
937	0.034
937	0.034
938	0.033
938	0.033
938	0.033
939	0.033
939	0.034
940	0.034
940	0.034
941	0.035
941	0.035
941	0.036
942	0.036
942	0.036
943	0.035
943	0.035
944	0.035
944	0.034
944	0.034
945	0.033
945	0.032
946	0.032
946	0.031
946	0.03
947	0.03
947	0.03
948	0.03
948	0.03
949	0.03
949	0.031
949	0.031
950	0.031
950	0.031
951	0.032
951	0.032
952	0.033
952	0.034
952	0.035
953	0.035
953	0.036
954	0.036
954	0.037
955	0.038
955	0.039
955	0.04
956	0.04
956	0.041
957	0.04
957	0.04
957	0.04
958	0.04
958	0.041
959	0.041
959	0.041
960	0.04
960	0.04
960	0.041
961	0.04
961	0.041
962	0.041
962	0.042
963	0.042
963	0.042
963	0.042
964	0.042
964	0.042
965	0.042
965	0.042
966	0.042
966	0.042
966	0.042
967	0.042
967	0.041
968	0.041
968	0.041
968	0.041
969	0.041
969	0.041
970	0.041
970	0.041
971	0.041
971	0.041
971	0.041
972	0.041
972	0.041
973	0.041
973	0.04
974	0.039
974	0.039
974	0.038
975	0.038
975	0.037
976	0.037
976	0.036
976	0.036
977	0.036
977	0.036
978	0.036
978	0.036
979	0.035
979	0.035
979	0.035
980	0.035
980	0.034
981	0.034
981	0.034
982	0.034
982	0.033
982	0.032
983	0.032
983	0.031
984	0.031
984	0.031
984	0.031
985	0.031
985	0.032
986	0.032
986	0.033
987	0.033
987	0.034
987	0.034
988	0.035
988	0.035
989	0.035
989	0.035
990	0.034
990	0.034
990	0.034
991	0.033
991	0.033
992	0.033
992	0.032
992	0.032
993	0.032
993	0.032
994	0.032
994	0.032
995	0.033
995	0.032
995	0.033
996	0.033
996	0.032
997	0.032
997	0.033
997	0.032
998	0.032
998	0.032
999	0.032
999	0.032
1000	0.032
1000	0.032
1000	0.032
1001	0.032
1001	0.031
1002	0.031
1002	0.03
1003	0.03
1003	0.029
1003	0.028
1004	0.027
1004	0.026
1005	0.024
1005	0.023
1005	0.021
1006	0.02
1006	0.019
1007	0.018
1007	0.017
1008	0.016
1008	0.016
1008	0.016
1009	0.016
1009	0.016
1010	0.016
1010	0.017
1010	0.017
1011	0.017
1011	0.016
1012	0.016
1012	0.015
1013	0.014
1013	0.013
1013	0.011
1014	0.01
1014	0.009
1015	0.008
1015	0.008
1016	0.006
1016	0.006
1016	0.006
1017	0.005
1017	0.005
1018	0.005
1018	0.004
1018	0.004
1019	0.004
1019	0.003
1020	0.003
1020	0.002
1021	0.002
1021	0.001
1021	0
1022	-0
1022	-0.001
1023	-0.001
1023	-0.001
1023	-0.001
1024	-0.001
1024	-0.001
1025	-0.001
1025	-0.001
1026	-0.001
1026	-0
1026	-0
1027	-0
1027	0
1028	-0
1028	-0
1028	-0
1029	-0
1029	-0
1030	-0.001
1030	-0.001
1031	-0.001
1031	-0
1031	0
1032	0.001
1032	0.001
1033	0.002
1033	0.003
1033	0.004
1034	0.004
1034	0.004
1035	0.005
1035	0.005
1036	0.005
1036	0.004
1036	0.004
1037	0.004
1037	0.004
1038	0.003
1038	0.003
1039	0.003
1039	0.003
1039	0.003
1040	0.003
1040	0.003
1041	0.004
1041	0.004
1041	0.004
1042	0.005
1042	0.005
1043	0.005
1043	0.005
1044	0.005
1044	0.005
1044	0.006
1045	0.006
1045	0.006
1046	0.006
1046	0.006
1046	0.006
1047	0.007
1047	0.007
1048	0.008
1048	0.008
1049	0.009
1049	0.009
1049	0.009
1050	0.01
1050	0.01
1051	0.01
1051	0.01
1051	0.01
1052	0.01
1052	0.01
1053	0.01
1053	0.009
1053	0.009
1054	0.008
1054	0.007
1055	0.007
1055	0.006
1056	0.005
1056	0.004
1056	0.003
1057	0.003
1057	0.002
1058	0.002
1058	0.001
1058	0.001
1059	0
1059	-0
1060	-0.001
1060	-0.001
1061	-0.001
1061	-0.001
1061	-0.001
1062	-0.001
1062	-0.001
1063	-0.001
1063	-0.001
1063	-0
1064	0
1064	-0
1065	-0
1065	-0.001
1066	-0.001
1066	-0.002
1066	-0.003
1067	-0.003
1067	-0.004
1068	-0.005
1068	-0.005
1068	-0.006
1069	-0.006
1069	-0.007
1070	-0.007
1070	-0.007
1071	-0.008
1071	-0.007
1071	-0.008
1072	-0.008
1072	-0.008
1073	-0.008
1073	-0.008
1073	-0.008
1074	-0.007
1074	-0.007
1075	-0.008
1075	-0.008
1076	-0.009
1076	-0.008
1076	-0.009
1077	-0.009
1077	-0.01
1078	-0.01
1078	-0.011
1078	-0.012
1079	-0.012
1079	-0.012
1080	-0.014
1080	-0.014
1080	-0.015
1081	-0.015
1081	-0.016
1082	-0.016
1082	-0.018
1083	-0.018
1083	-0.019
1083	-0.02
1084	-0.02
1084	-0.021
1085	-0.021
1085	-0.022
1085	-0.022
1086	-0.022
1086	-0.023
1087	-0.023
1087	-0.023
1088	-0.023
1088	-0.023
1088	-0.024
1089	-0.024
1089	-0.024
1090	-0.025
1090	-0.024
1090	-0.025
1091	-0.025
1091	-0.026
1092	-0.027
1092	-0.027
1092	-0.028
1093	-0.029
1093	-0.029
1094	-0.029
1094	-0.03
1095	-0.031
1095	-0.031
1095	-0.031
1096	-0.031
1096	-0.031
1097	-0.031
1097	-0.031
1097	-0.031
1098	-0.033
1098	-0.033
1099	-0.033
1099	-0.033
1100	-0.034
1100	-0.035
1100	-0.037
1101	-0.039
1101	-0.041
1102	-0.042
1102	-0.044
1102	-0.044
1103	-0.046
1103	-0.048
1104	-0.05
1104	-0.051
1104	-0.053
1105	-0.054
1105	-0.056
1106	-0.059
1106	-0.061
1107	-0.064
1107	-0.068
1107	-0.071
1108	-0.073
1108	-0.075
1109	-0.078
1109	-0.081
1109	-0.084
1110	-0.085
1110	-0.088
1111	-0.093
1111	-0.094
