Data from 17C_3.4A_30min_2sec_int_Absorbance__59__00780.txt Node

Date: Mon Jun 19 16:50:20 CEST 2023
User: Marek
Spectrometer: MAYP115816
Trigger mode: 0
Integration Time (sec): 2.500000E-1
Scans to average: 10
Electric dark correction enabled: true
Nonlinearity correction enabled: true
Boxcar width: 5
XAxis mode: Wavelengths
Number of Pixels in Spectrum: 2068
>>>>>Begin Spectral Data<<<<<
199	-0.618
199	-0.63
200	-0.532
200	-0.474
201	-0.44
201	-0.429
202	-0.414
202	-0.399
203	-0.393
203	-0.386
204	-0.375
204	-0.363
205	-0.34
205	-0.338
205	-0.338
206	-0.341
206	-0.343
207	-0.334
207	-0.337
208	-0.336
208	-0.341
209	-0.335
209	-0.334
210	-0.34
210	-0.344
211	-0.347
211	-0.345
212	-0.348
212	-0.356
213	-0.352
213	-0.355
213	-0.354
214	-0.35
214	-0.351
215	-0.35
215	-0.354
216	-0.356
216	-0.366
217	-0.362
217	-0.366
218	-0.37
218	-0.371
219	-0.378
219	-0.39
220	-0.394
220	-0.401
221	-0.401
221	-0.403
221	-0.395
222	-0.392
222	-0.392
223	-0.397
223	-0.401
224	-0.404
224	-0.402
225	-0.397
225	-0.391
226	-0.395
226	-0.395
227	-0.402
227	-0.409
228	-0.409
228	-0.409
229	-0.407
229	-0.401
229	-0.394
230	-0.396
230	-0.4
231	-0.394
231	-0.389
232	-0.381
232	-0.38
233	-0.376
233	-0.374
234	-0.373
234	-0.367
235	-0.371
235	-0.376
236	-0.375
236	-0.38
236	-0.385
237	-0.392
237	-0.391
238	-0.398
238	-0.397
239	-0.398
239	-0.411
240	-0.412
240	-0.412
241	-0.416
241	-0.413
242	-0.419
242	-0.415
243	-0.413
243	-0.412
243	-0.419
244	-0.418
244	-0.415
245	-0.429
245	-0.429
246	-0.434
246	-0.439
247	-0.44
247	-0.443
248	-0.451
248	-0.449
249	-0.452
249	-0.46
250	-0.46
250	-0.456
250	-0.458
251	-0.453
251	-0.453
252	-0.453
252	-0.444
253	-0.446
253	-0.457
254	-0.457
254	-0.454
255	-0.459
255	-0.45
256	-0.446
256	-0.457
257	-0.457
257	-0.453
258	-0.469
258	-0.466
258	-0.461
259	-0.456
259	-0.464
260	-0.465
260	-0.469
261	-0.478
261	-0.47
262	-0.467
262	-0.469
263	-0.456
263	-0.453
264	-0.452
264	-0.462
265	-0.461
265	-0.467
265	-0.47
266	-0.468
266	-0.466
267	-0.478
267	-0.487
268	-0.502
268	-0.511
269	-0.509
269	-0.502
270	-0.505
270	-0.507
271	-0.51
271	-0.515
272	-0.516
272	-0.508
272	-0.5
273	-0.497
273	-0.506
274	-0.511
274	-0.515
275	-0.516
275	-0.508
276	-0.511
276	-0.505
277	-0.51
277	-0.528
278	-0.542
278	-0.537
278	-0.529
279	-0.531
279	-0.543
280	-0.539
280	-0.541
281	-0.535
281	-0.542
282	-0.533
282	-0.534
283	-0.524
283	-0.527
284	-0.523
284	-0.514
285	-0.507
285	-0.505
285	-0.504
286	-0.511
286	-0.506
287	-0.507
287	-0.491
288	-0.481
288	-0.489
289	-0.502
289	-0.509
290	-0.5
290	-0.499
291	-0.493
291	-0.486
292	-0.489
292	-0.494
292	-0.497
293	-0.502
293	-0.489
294	-0.478
294	-0.472
295	-0.47
295	-0.467
296	-0.466
296	-0.466
297	-0.46
297	-0.444
298	-0.438
298	-0.448
298	-0.438
299	-0.429
299	-0.428
300	-0.423
300	-0.419
301	-0.414
301	-0.41
302	-0.416
302	-0.422
303	-0.411
303	-0.396
304	-0.397
304	-0.397
305	-0.397
305	-0.397
305	-0.393
306	-0.378
306	-0.373
307	-0.362
307	-0.363
308	-0.375
308	-0.372
309	-0.377
309	-0.366
310	-0.355
310	-0.353
311	-0.347
311	-0.354
311	-0.351
312	-0.345
312	-0.346
313	-0.332
313	-0.334
314	-0.332
314	-0.335
315	-0.337
315	-0.333
316	-0.33
316	-0.323
317	-0.317
317	-0.316
318	-0.307
318	-0.305
318	-0.302
319	-0.293
319	-0.289
320	-0.282
320	-0.284
321	-0.289
321	-0.29
322	-0.284
322	-0.28
323	-0.278
323	-0.273
324	-0.265
324	-0.257
324	-0.249
325	-0.238
325	-0.22
326	-0.206
326	-0.187
327	-0.17
327	-0.149
328	-0.124
328	-0.106
329	-0.083
329	-0.059
330	-0.032
330	-0.002
330	0.022
331	0.049
331	0.073
332	0.095
332	0.116
333	0.137
333	0.16
334	0.177
334	0.193
335	0.208
335	0.221
336	0.234
336	0.245
336	0.255
337	0.265
337	0.273
338	0.281
338	0.285
339	0.292
339	0.298
340	0.301
340	0.305
341	0.308
341	0.312
342	0.314
342	0.317
342	0.319
343	0.321
343	0.324
344	0.325
344	0.326
345	0.327
345	0.328
346	0.329
346	0.33
347	0.33
347	0.331
348	0.331
348	0.331
348	0.331
349	0.332
349	0.332
350	0.332
350	0.332
351	0.332
351	0.332
352	0.332
352	0.332
353	0.332
353	0.332
354	0.332
354	0.331
354	0.331
355	0.331
355	0.331
356	0.33
356	0.33
357	0.33
357	0.329
358	0.329
358	0.329
359	0.329
359	0.328
360	0.328
360	0.328
360	0.328
361	0.328
361	0.327
362	0.327
362	0.327
363	0.327
363	0.327
364	0.327
364	0.326
365	0.326
365	0.326
366	0.326
366	0.326
366	0.326
367	0.326
367	0.326
368	0.326
368	0.326
369	0.325
369	0.325
370	0.325
370	0.325
371	0.324
371	0.324
372	0.324
372	0.324
372	0.324
373	0.323
373	0.323
374	0.323
374	0.323
375	0.323
375	0.323
376	0.323
376	0.322
377	0.322
377	0.322
378	0.322
378	0.322
378	0.322
379	0.321
379	0.321
380	0.321
380	0.321
381	0.32
381	0.32
382	0.32
382	0.32
383	0.319
383	0.319
383	0.319
384	0.319
384	0.319
385	0.319
385	0.319
386	0.318
386	0.318
387	0.318
387	0.318
388	0.317
388	0.317
389	0.317
389	0.317
389	0.317
390	0.316
390	0.316
391	0.316
391	0.316
392	0.316
392	0.316
393	0.316
393	0.315
394	0.315
394	0.315
394	0.315
395	0.314
395	0.314
396	0.313
396	0.313
397	0.313
397	0.313
398	0.312
398	0.312
399	0.312
399	0.312
400	0.311
400	0.311
400	0.311
401	0.31
401	0.31
402	0.31
402	0.31
403	0.309
403	0.309
404	0.309
404	0.309
405	0.309
405	0.309
405	0.309
406	0.309
406	0.308
407	0.308
407	0.308
408	0.307
408	0.307
409	0.307
409	0.307
410	0.307
410	0.306
411	0.306
411	0.306
411	0.306
412	0.306
412	0.306
413	0.306
413	0.305
414	0.305
414	0.304
415	0.304
415	0.304
416	0.304
416	0.303
416	0.303
417	0.303
417	0.303
418	0.303
418	0.303
419	0.303
419	0.303
420	0.303
420	0.302
421	0.302
421	0.302
421	0.302
422	0.302
422	0.302
423	0.302
423	0.302
424	0.302
424	0.302
425	0.302
425	0.301
426	0.301
426	0.301
427	0.301
427	0.301
427	0.3
428	0.3
428	0.3
429	0.3
429	0.3
430	0.299
430	0.299
431	0.299
431	0.299
432	0.299
432	0.298
432	0.298
433	0.298
433	0.298
434	0.298
434	0.298
435	0.298
435	0.297
436	0.297
436	0.297
437	0.297
437	0.297
437	0.297
438	0.297
438	0.297
439	0.297
439	0.297
440	0.297
440	0.297
441	0.296
441	0.296
442	0.296
442	0.295
442	0.295
443	0.295
443	0.295
444	0.295
444	0.295
445	0.294
445	0.294
446	0.295
446	0.294
447	0.295
447	0.295
447	0.295
448	0.295
448	0.295
449	0.295
449	0.295
450	0.295
450	0.296
451	0.296
451	0.296
452	0.296
452	0.296
452	0.296
453	0.296
453	0.296
454	0.295
454	0.295
455	0.295
455	0.295
456	0.295
456	0.295
457	0.294
457	0.294
458	0.294
458	0.294
458	0.295
459	0.295
459	0.295
460	0.295
460	0.295
461	0.295
461	0.295
462	0.295
462	0.296
463	0.296
463	0.297
463	0.297
464	0.297
464	0.297
465	0.297
465	0.298
466	0.298
466	0.298
467	0.299
467	0.299
467	0.299
468	0.299
468	0.3
469	0.3
469	0.301
470	0.301
470	0.301
471	0.301
471	0.301
472	0.302
472	0.302
472	0.302
473	0.302
473	0.303
474	0.303
474	0.303
475	0.304
475	0.304
476	0.305
476	0.305
477	0.306
477	0.306
477	0.307
478	0.307
478	0.308
479	0.309
479	0.309
480	0.31
480	0.31
481	0.311
481	0.312
482	0.313
482	0.314
482	0.314
483	0.315
483	0.316
484	0.317
484	0.317
485	0.318
485	0.319
486	0.32
486	0.321
487	0.322
487	0.322
487	0.323
488	0.324
488	0.325
489	0.327
489	0.329
490	0.33
490	0.332
491	0.334
491	0.335
492	0.337
492	0.338
492	0.34
493	0.341
493	0.343
494	0.345
494	0.346
495	0.348
495	0.349
496	0.351
496	0.353
496	0.354
497	0.356
497	0.358
498	0.36
498	0.362
499	0.364
499	0.366
500	0.368
500	0.37
501	0.371
501	0.373
501	0.375
502	0.377
502	0.379
503	0.381
503	0.383
504	0.385
504	0.387
505	0.389
505	0.391
506	0.394
506	0.396
506	0.399
507	0.401
507	0.403
508	0.406
508	0.408
509	0.41
509	0.413
510	0.415
510	0.418
511	0.42
511	0.422
511	0.424
512	0.427
512	0.429
513	0.431
513	0.433
514	0.435
514	0.437
515	0.44
515	0.442
515	0.444
516	0.446
516	0.449
517	0.451
517	0.453
518	0.454
518	0.456
519	0.458
519	0.46
520	0.462
520	0.464
520	0.467
521	0.468
521	0.47
522	0.472
522	0.474
523	0.476
523	0.477
524	0.478
524	0.48
524	0.481
525	0.482
525	0.483
526	0.484
526	0.486
527	0.487
527	0.488
528	0.489
528	0.491
529	0.492
529	0.493
529	0.494
530	0.495
530	0.496
531	0.496
531	0.497
532	0.497
532	0.498
533	0.499
533	0.499
533	0.499
534	0.5
534	0.501
535	0.501
535	0.502
536	0.502
536	0.502
537	0.502
537	0.502
538	0.502
538	0.502
538	0.502
539	0.502
539	0.502
540	0.502
540	0.502
541	0.502
541	0.502
542	0.501
542	0.501
542	0.5
543	0.5
543	0.499
544	0.498
544	0.497
545	0.497
545	0.497
546	0.497
546	0.496
547	0.496
547	0.495
547	0.495
548	0.494
548	0.494
549	0.494
549	0.493
550	0.492
550	0.491
551	0.49
551	0.49
551	0.49
552	0.489
552	0.489
553	0.488
553	0.488
554	0.487
554	0.486
555	0.485
555	0.484
556	0.483
556	0.482
556	0.481
557	0.48
557	0.479
558	0.478
558	0.477
559	0.475
559	0.475
560	0.474
560	0.473
560	0.472
561	0.471
561	0.47
562	0.469
562	0.468
563	0.467
563	0.466
564	0.466
564	0.465
564	0.464
565	0.463
565	0.462
566	0.461
566	0.459
567	0.458
567	0.457
568	0.455
568	0.453
568	0.452
569	0.451
569	0.45
570	0.448
570	0.447
571	0.446
571	0.445
572	0.443
572	0.441
573	0.44
573	0.439
573	0.437
574	0.436
574	0.435
575	0.434
575	0.434
576	0.433
576	0.431
577	0.43
577	0.43
577	0.429
578	0.429
578	0.428
579	0.428
579	0.427
580	0.425
580	0.423
581	0.421
581	0.42
581	0.42
582	0.419
582	0.418
583	0.416
583	0.415
584	0.413
584	0.411
585	0.41
585	0.409
585	0.408
586	0.407
586	0.406
587	0.405
587	0.404
588	0.403
588	0.402
589	0.401
589	0.4
590	0.399
590	0.398
590	0.397
591	0.395
591	0.393
592	0.391
592	0.39
593	0.389
593	0.388
594	0.386
594	0.385
594	0.384
595	0.383
595	0.382
596	0.38
596	0.38
597	0.38
597	0.378
598	0.377
598	0.376
598	0.374
599	0.373
599	0.372
600	0.37
600	0.368
601	0.367
601	0.365
602	0.363
602	0.362
602	0.361
603	0.36
603	0.359
604	0.358
604	0.357
605	0.356
605	0.355
606	0.354
606	0.352
606	0.351
607	0.35
607	0.349
608	0.347
608	0.345
609	0.344
609	0.343
610	0.342
610	0.341
610	0.34
611	0.339
611	0.338
612	0.338
612	0.337
613	0.335
613	0.334
614	0.332
614	0.33
614	0.328
615	0.326
615	0.324
616	0.323
616	0.321
617	0.319
617	0.317
618	0.315
618	0.314
618	0.312
619	0.311
619	0.31
620	0.309
620	0.308
621	0.307
621	0.305
622	0.303
622	0.302
622	0.3
623	0.298
623	0.297
624	0.295
624	0.293
625	0.292
625	0.29
626	0.288
626	0.286
626	0.284
627	0.282
627	0.28
628	0.278
628	0.275
629	0.272
629	0.27
630	0.267
630	0.264
630	0.26
631	0.257
631	0.254
632	0.25
632	0.246
633	0.243
633	0.239
634	0.234
634	0.23
634	0.225
635	0.22
635	0.215
636	0.21
636	0.204
637	0.198
637	0.192
638	0.186
638	0.179
638	0.173
639	0.166
639	0.159
640	0.152
640	0.145
641	0.138
641	0.131
642	0.124
642	0.117
642	0.11
643	0.103
643	0.095
644	0.087
644	0.079
645	0.071
645	0.063
646	0.055
646	0.047
646	0.038
647	0.03
647	0.022
648	0.013
648	0.005
649	-0.004
649	-0.012
650	-0.021
650	-0.028
650	-0.037
651	-0.048
651	-0.061
652	-0.076
652	-0.092
653	-0.106
653	-0.118
653	-0.113
654	-0.088
654	-0.074
655	-0.075
655	-0.08
656	-0.084
656	-0.09
657	-0.093
657	-0.097
657	-0.102
658	-0.107
658	-0.137
659	-0.226
659	-0.332
660	-0.379
660	-0.406
661	-0.436
661	-0.471
661	-0.51
662	-0.549
662	-0.591
663	-0.637
663	-0.686
664	-0.738
664	-0.797
665	-0.856
665	-0.923
665	-0.985
666	-1.05
666	-1.118
667	-1.189
667	-1.26
668	-1.34
668	-1.421
669	-1.506
669	-1.596
669	-1.704
670	-1.867
670	-2.061
671	-2.161
671	-2.278
672	-2.427
672	-2.57
672	-2.668
673	-2.737
673	-2.769
674	-2.786
674	-2.796
675	-2.803
675	-2.892
676	-3.046
676	-2.985
676	-2.744
677	-2.511
677	-2.296
678	-1.992
678	-1.761
679	-1.631
679	-1.535
680	-1.456
680	-1.388
680	-1.329
681	-1.291
681	-1.237
682	-1.199
682	-1.164
683	-1.13
683	-1.112
684	-1.089
684	-1.067
684	-1.044
685	-1.018
685	-0.992
686	-0.966
686	-0.946
687	-0.918
687	-0.902
687	-0.881
688	-0.855
688	-0.833
689	-0.811
689	-0.797
690	-0.774
690	-0.76
691	-0.751
691	-0.754
691	-0.767
692	-0.757
692	-0.748
693	-0.741
693	-0.746
694	-0.739
694	-0.729
695	-0.734
695	-0.731
695	-0.714
696	-0.707
696	-0.685
697	-0.684
697	-0.695
698	-0.697
698	-0.685
698	-0.696
699	-0.701
699	-0.697
700	-0.685
700	-0.697
701	-0.698
701	-0.706
702	-0.703
702	-0.692
702	-0.68
703	-0.675
703	-0.665
704	-0.66
704	-0.658
705	-0.669
705	-0.66
705	-0.647
706	-0.645
706	-0.639
707	-0.642
707	-0.637
708	-0.633
708	-0.626
709	-0.628
709	-0.629
709	-0.62
710	-0.628
710	-0.637
711	-0.629
711	-0.631
712	-0.63
712	-0.644
713	-0.643
713	-0.648
713	-0.639
714	-0.636
714	-0.638
715	-0.627
715	-0.611
716	-0.618
716	-0.619
716	-0.612
717	-0.613
717	-0.616
718	-0.606
718	-0.607
719	-0.611
719	-0.61
720	-0.608
720	-0.616
720	-0.608
721	-0.599
721	-0.6
722	-0.588
722	-0.577
723	-0.574
723	-0.577
723	-0.565
724	-0.568
724	-0.571
725	-0.571
725	-0.581
726	-0.593
726	-0.598
727	-0.602
727	-0.615
727	-0.622
728	-0.623
728	-0.629
729	-0.628
729	-0.634
730	-0.641
730	-0.633
730	-0.62
731	-0.602
731	-0.61
732	-0.616
732	-0.617
733	-0.614
733	-0.618
734	-0.614
734	-0.612
734	-0.6
735	-0.599
735	-0.6
736	-0.61
736	-0.599
737	-0.59
737	-0.593
737	-0.6
738	-0.595
738	-0.594
739	-0.591
739	-0.601
740	-0.598
740	-0.597
741	-0.593
741	-0.591
741	-0.592
742	-0.588
742	-0.59
743	-0.597
743	-0.601
744	-0.599
744	-0.592
744	-0.595
745	-0.6
745	-0.593
746	-0.597
746	-0.594
747	-0.596
747	-0.583
748	-0.57
748	-0.575
748	-0.577
749	-0.574
749	-0.576
750	-0.568
750	-0.569
751	-0.57
751	-0.58
751	-0.582
752	-0.586
752	-0.596
753	-0.591
753	-0.586
754	-0.592
754	-0.585
754	-0.598
755	-0.614
755	-0.626
756	-0.616
756	-0.614
757	-0.615
757	-0.612
758	-0.611
758	-0.609
758	-0.61
759	-0.617
759	-0.601
760	-0.593
760	-0.588
761	-0.595
761	-0.592
761	-0.591
762	-0.6
762	-0.601
763	-0.611
763	-0.609
764	-0.607
764	-0.615
764	-0.621
765	-0.612
765	-0.601
766	-0.61
766	-0.614
767	-0.624
767	-0.617
768	-0.61
768	-0.616
768	-0.622
769	-0.64
769	-0.641
770	-0.643
770	-0.656
771	-0.652
771	-0.654
771	-0.655
772	-0.661
772	-0.658
773	-0.658
773	-0.652
774	-0.648
774	-0.648
775	-0.651
775	-0.646
775	-0.651
776	-0.651
776	-0.641
777	-0.65
777	-0.673
778	-0.672
778	-0.692
778	-0.68
779	-0.701
779	-0.709
780	-0.72
780	-0.719
781	-0.731
781	-0.727
781	-0.742
782	-0.742
782	-0.747
783	-0.737
783	-0.737
784	-0.721
784	-0.713
784	-0.724
785	-0.735
785	-0.723
786	-0.73
786	-0.709
787	-0.693
787	-0.689
788	-0.689
788	-0.697
788	-0.704
789	-0.702
789	-0.683
790	-0.661
790	-0.662
791	-0.658
791	-0.672
791	-0.678
792	-0.671
792	-0.645
793	-0.632
793	-0.611
794	-0.612
794	-0.605
794	-0.615
795	-0.608
795	-0.604
796	-0.589
796	-0.595
797	-0.591
797	-0.603
797	-0.611
798	-0.622
798	-0.616
799	-0.626
799	-0.612
800	-0.619
800	-0.611
801	-0.617
801	-0.604
801	-0.612
802	-0.622
802	-0.624
803	-0.628
803	-0.638
804	-0.631
804	-0.642
804	-0.63
805	-0.635
805	-0.625
806	-0.624
806	-0.61
807	-0.608
807	-0.59
807	-0.578
808	-0.57
808	-0.566
809	-0.551
809	-0.564
810	-0.558
810	-0.551
810	-0.551
811	-0.557
811	-0.547
812	-0.547
812	-0.55
813	-0.556
813	-0.55
813	-0.554
814	-0.553
814	-0.559
815	-0.566
815	-0.567
816	-0.56
816	-0.567
817	-0.575
817	-0.59
817	-0.599
818	-0.611
818	-0.616
819	-0.606
819	-0.606
820	-0.613
820	-0.609
820	-0.62
821	-0.62
821	-0.609
822	-0.58
822	-0.56
823	-0.556
823	-0.557
823	-0.556
824	-0.551
824	-0.556
825	-0.551
825	-0.531
826	-0.524
826	-0.53
826	-0.54
827	-0.537
827	-0.533
828	-0.514
828	-0.514
829	-0.505
829	-0.49
829	-0.482
830	-0.492
830	-0.49
831	-0.485
831	-0.474
832	-0.471
832	-0.464
832	-0.472
833	-0.467
833	-0.468
834	-0.465
834	-0.471
835	-0.46
835	-0.455
835	-0.449
836	-0.448
836	-0.447
837	-0.445
837	-0.435
838	-0.426
838	-0.417
839	-0.405
839	-0.394
839	-0.384
840	-0.373
840	-0.372
841	-0.359
841	-0.352
842	-0.347
842	-0.339
842	-0.334
843	-0.328
843	-0.324
844	-0.317
844	-0.314
845	-0.309
845	-0.299
845	-0.288
846	-0.276
846	-0.263
847	-0.254
847	-0.246
848	-0.237
848	-0.228
848	-0.215
849	-0.206
849	-0.195
850	-0.185
850	-0.182
851	-0.176
851	-0.169
851	-0.161
852	-0.148
852	-0.139
853	-0.132
853	-0.128
854	-0.118
854	-0.108
854	-0.1
855	-0.09
855	-0.085
856	-0.076
856	-0.069
857	-0.064
857	-0.056
857	-0.047
858	-0.038
858	-0.034
859	-0.029
859	-0.02
860	-0.014
860	-0.004
860	0.001
861	0.007
861	0.013
862	0.017
862	0.021
863	0.025
863	0.031
863	0.035
864	0.037
864	0.041
865	0.044
865	0.048
866	0.05
866	0.052
866	0.054
867	0.056
867	0.059
868	0.061
868	0.063
869	0.065
869	0.067
869	0.069
870	0.07
870	0.072
871	0.075
871	0.076
872	0.077
872	0.078
872	0.079
873	0.079
873	0.079
874	0.078
874	0.078
875	0.077
875	0.076
875	0.075
876	0.074
876	0.073
877	0.071
877	0.07
878	0.068
878	0.066
878	0.064
879	0.063
879	0.061
880	0.06
880	0.06
881	0.059
881	0.059
881	0.059
882	0.059
882	0.059
883	0.058
883	0.058
884	0.058
884	0.058
884	0.058
885	0.057
885	0.057
886	0.057
886	0.057
887	0.057
887	0.057
887	0.057
888	0.057
888	0.057
889	0.058
889	0.059
890	0.059
890	0.059
890	0.059
891	0.059
891	0.059
892	0.059
892	0.059
893	0.059
893	0.059
893	0.059
894	0.058
894	0.058
895	0.057
895	0.057
895	0.057
896	0.056
896	0.055
897	0.055
897	0.054
898	0.054
898	0.053
898	0.053
899	0.053
899	0.053
900	0.053
900	0.053
901	0.053
901	0.054
901	0.054
902	0.054
902	0.054
903	0.054
903	0.054
904	0.055
904	0.055
904	0.055
905	0.056
905	0.056
906	0.056
906	0.056
907	0.055
907	0.055
907	0.054
908	0.054
908	0.053
909	0.052
909	0.052
910	0.051
910	0.051
910	0.05
911	0.05
911	0.051
912	0.051
912	0.051
913	0.051
913	0.052
913	0.053
914	0.053
914	0.054
915	0.054
915	0.055
916	0.056
916	0.056
916	0.056
917	0.056
917	0.056
918	0.056
918	0.056
918	0.055
919	0.054
919	0.054
920	0.054
920	0.054
921	0.053
921	0.053
921	0.052
922	0.052
922	0.052
923	0.051
923	0.052
924	0.052
924	0.052
924	0.052
925	0.051
925	0.051
926	0.051
926	0.051
927	0.05
927	0.05
927	0.05
928	0.05
928	0.05
929	0.049
929	0.049
930	0.049
930	0.049
930	0.049
931	0.05
931	0.05
932	0.051
932	0.05
933	0.05
933	0.049
933	0.049
934	0.048
934	0.047
935	0.046
935	0.045
935	0.044
936	0.043
936	0.042
937	0.041
937	0.041
938	0.041
938	0.041
938	0.041
939	0.041
939	0.042
940	0.042
940	0.042
941	0.043
941	0.043
941	0.044
942	0.044
942	0.043
943	0.043
943	0.043
944	0.042
944	0.042
944	0.041
945	0.041
945	0.04
946	0.039
946	0.038
946	0.037
947	0.037
947	0.037
948	0.037
948	0.037
949	0.037
949	0.038
949	0.038
950	0.038
950	0.039
951	0.04
951	0.041
952	0.041
952	0.042
952	0.043
953	0.043
953	0.044
954	0.045
954	0.045
955	0.046
955	0.048
955	0.048
956	0.049
956	0.049
957	0.049
957	0.049
957	0.049
958	0.049
958	0.049
959	0.049
959	0.049
960	0.049
960	0.048
960	0.048
961	0.048
961	0.048
962	0.049
962	0.049
963	0.049
963	0.049
963	0.049
964	0.049
964	0.049
965	0.05
965	0.05
966	0.05
966	0.05
966	0.05
967	0.05
967	0.05
968	0.05
968	0.05
968	0.05
969	0.05
969	0.049
970	0.049
970	0.049
971	0.049
971	0.049
971	0.049
972	0.049
972	0.048
973	0.048
973	0.047
974	0.047
974	0.046
974	0.046
975	0.045
975	0.044
976	0.044
976	0.043
976	0.043
977	0.042
977	0.042
978	0.042
978	0.042
979	0.042
979	0.042
979	0.041
980	0.041
980	0.041
981	0.041
981	0.041
982	0.04
982	0.04
982	0.039
983	0.039
983	0.038
984	0.038
984	0.038
984	0.038
985	0.038
985	0.039
986	0.039
986	0.039
987	0.04
987	0.04
987	0.041
988	0.041
988	0.041
989	0.041
989	0.041
990	0.041
990	0.04
990	0.04
991	0.039
991	0.039
992	0.039
992	0.039
992	0.038
993	0.038
993	0.038
994	0.038
994	0.038
995	0.038
995	0.038
995	0.039
996	0.039
996	0.039
997	0.038
997	0.039
997	0.039
998	0.039
998	0.039
999	0.039
999	0.038
1000	0.038
1000	0.038
1000	0.038
1001	0.038
1001	0.037
1002	0.037
1002	0.036
1003	0.035
1003	0.035
1003	0.034
1004	0.033
1004	0.031
1005	0.03
1005	0.028
1005	0.027
1006	0.026
1006	0.025
1007	0.024
1007	0.023
1008	0.023
1008	0.022
1008	0.022
1009	0.022
1009	0.022
1010	0.022
1010	0.022
1010	0.022
1011	0.022
1011	0.021
1012	0.021
1012	0.02
1013	0.019
1013	0.018
1013	0.017
1014	0.016
1014	0.014
1015	0.014
1015	0.013
1016	0.012
1016	0.011
1016	0.011
1017	0.011
1017	0.01
1018	0.01
1018	0.01
1018	0.01
1019	0.01
1019	0.009
1020	0.008
1020	0.008
1021	0.007
1021	0.007
1021	0.006
1022	0.005
1022	0.005
1023	0.004
1023	0.004
1023	0.004
1024	0.004
1024	0.004
1025	0.005
1025	0.005
1026	0.005
1026	0.006
1026	0.006
1027	0.006
1027	0.007
1028	0.006
1028	0.006
1028	0.006
1029	0.006
1029	0.006
1030	0.005
1030	0.005
1031	0.005
1031	0.005
1031	0.005
1032	0.005
1032	0.006
1033	0.007
1033	0.007
1033	0.008
1034	0.009
1034	0.009
1035	0.01
1035	0.01
1036	0.01
1036	0.01
1036	0.01
1037	0.01
1037	0.01
1038	0.009
1038	0.009
1039	0.009
1039	0.009
1039	0.009
1040	0.009
1040	0.01
1041	0.01
1041	0.01
1041	0.01
1042	0.01
1042	0.01
1043	0.01
1043	0.01
1044	0.01
1044	0.01
1044	0.01
1045	0.01
1045	0.01
1046	0.011
1046	0.011
1046	0.011
1047	0.012
1047	0.012
1048	0.013
1048	0.014
1049	0.014
1049	0.014
1049	0.014
1050	0.015
1050	0.015
1051	0.015
1051	0.015
1051	0.015
1052	0.015
1052	0.015
1053	0.014
1053	0.014
1053	0.013
1054	0.013
1054	0.013
1055	0.012
1055	0.012
1056	0.011
1056	0.01
1056	0.009
1057	0.008
1057	0.007
1058	0.007
1058	0.007
1058	0.006
1059	0.005
1059	0.005
1060	0.004
1060	0.005
1061	0.004
1061	0.005
1061	0.005
1062	0.005
1062	0.005
1063	0.005
1063	0.005
1063	0.006
1064	0.006
1064	0.006
1065	0.005
1065	0.005
1066	0.004
1066	0.003
1066	0.003
1067	0.002
1067	0.001
1068	0
1068	-0
1068	-0.001
1069	-0.001
1069	-0.001
1070	-0.002
1070	-0.002
1071	-0.002
1071	-0.002
1071	-0.003
1072	-0.003
1072	-0.003
1073	-0.003
1073	-0.003
1073	-0.003
1074	-0.003
1074	-0.002
1075	-0.002
1075	-0.003
1076	-0.003
1076	-0.003
1076	-0.004
1077	-0.004
1077	-0.004
1078	-0.005
1078	-0.006
1078	-0.006
1079	-0.007
1079	-0.007
1080	-0.008
1080	-0.009
1080	-0.009
1081	-0.01
1081	-0.01
1082	-0.011
1082	-0.011
1083	-0.012
1083	-0.013
1083	-0.013
1084	-0.014
1084	-0.015
1085	-0.016
1085	-0.016
1085	-0.016
1086	-0.016
1086	-0.017
1087	-0.017
1087	-0.017
1088	-0.018
1088	-0.018
1088	-0.018
1089	-0.018
1089	-0.018
1090	-0.018
1090	-0.019
1090	-0.02
1091	-0.02
1091	-0.021
1092	-0.022
1092	-0.021
1092	-0.023
1093	-0.023
1093	-0.023
1094	-0.023
1094	-0.024
1095	-0.024
1095	-0.025
1095	-0.024
1096	-0.025
1096	-0.025
1097	-0.025
1097	-0.026
1097	-0.026
1098	-0.027
1098	-0.028
1099	-0.028
1099	-0.029
1100	-0.03
1100	-0.031
1100	-0.033
1101	-0.035
1101	-0.037
1102	-0.038
1102	-0.041
1102	-0.041
1103	-0.042
1103	-0.044
1104	-0.045
1104	-0.046
1104	-0.048
1105	-0.049
1105	-0.052
1106	-0.056
1106	-0.058
1107	-0.06
1107	-0.065
1107	-0.069
1108	-0.071
1108	-0.073
1109	-0.076
1109	-0.08
1109	-0.083
1110	-0.081
1110	-0.083
1111	-0.088
1111	-0.089
