Data from 17C_3.4A_30min_2sec_int_Absorbance__413__01134.txt Node

Date: Mon Jun 19 17:05:05 CEST 2023
User: Marek
Spectrometer: MAYP115816
Trigger mode: 0
Integration Time (sec): 2.500000E-1
Scans to average: 10
Electric dark correction enabled: true
Nonlinearity correction enabled: true
Boxcar width: 5
XAxis mode: Wavelengths
Number of Pixels in Spectrum: 2068
>>>>>Begin Spectral Data<<<<<
199	-0.653
199	-0.669
200	-0.576
200	-0.526
201	-0.489
201	-0.476
202	-0.457
202	-0.446
203	-0.438
203	-0.436
204	-0.422
204	-0.407
205	-0.385
205	-0.38
205	-0.376
206	-0.379
206	-0.382
207	-0.374
207	-0.373
208	-0.376
208	-0.373
209	-0.369
209	-0.373
210	-0.377
210	-0.383
211	-0.385
211	-0.388
212	-0.392
212	-0.399
213	-0.399
213	-0.398
213	-0.401
214	-0.397
214	-0.395
215	-0.392
215	-0.399
216	-0.403
216	-0.408
217	-0.401
217	-0.407
218	-0.411
218	-0.411
219	-0.418
219	-0.428
220	-0.433
220	-0.445
221	-0.441
221	-0.441
221	-0.434
222	-0.431
222	-0.43
223	-0.432
223	-0.438
224	-0.438
224	-0.437
225	-0.434
225	-0.427
226	-0.432
226	-0.43
227	-0.437
227	-0.446
228	-0.446
228	-0.447
229	-0.447
229	-0.443
229	-0.436
230	-0.44
230	-0.441
231	-0.435
231	-0.43
232	-0.422
232	-0.423
233	-0.418
233	-0.417
234	-0.416
234	-0.412
235	-0.416
235	-0.42
236	-0.421
236	-0.425
236	-0.43
237	-0.438
237	-0.437
238	-0.446
238	-0.443
239	-0.443
239	-0.45
240	-0.449
240	-0.448
241	-0.453
241	-0.453
242	-0.459
242	-0.455
243	-0.453
243	-0.452
243	-0.461
244	-0.462
244	-0.462
245	-0.476
245	-0.475
246	-0.479
246	-0.484
247	-0.482
247	-0.485
248	-0.49
248	-0.488
249	-0.492
249	-0.498
250	-0.498
250	-0.495
250	-0.496
251	-0.494
251	-0.495
252	-0.5
252	-0.491
253	-0.496
253	-0.506
254	-0.502
254	-0.502
255	-0.511
255	-0.503
256	-0.501
256	-0.511
257	-0.505
257	-0.503
258	-0.52
258	-0.518
258	-0.514
259	-0.513
259	-0.52
260	-0.519
260	-0.524
261	-0.535
261	-0.525
262	-0.525
262	-0.523
263	-0.512
263	-0.504
264	-0.503
264	-0.508
265	-0.503
265	-0.509
265	-0.514
266	-0.51
266	-0.508
267	-0.52
267	-0.53
268	-0.544
268	-0.553
269	-0.552
269	-0.549
270	-0.554
270	-0.556
271	-0.558
271	-0.563
272	-0.567
272	-0.562
272	-0.556
273	-0.557
273	-0.565
274	-0.571
274	-0.574
275	-0.575
275	-0.57
276	-0.574
276	-0.566
277	-0.568
277	-0.587
278	-0.596
278	-0.589
278	-0.583
279	-0.587
279	-0.597
280	-0.593
280	-0.591
281	-0.587
281	-0.595
282	-0.589
282	-0.589
283	-0.578
283	-0.579
284	-0.577
284	-0.566
285	-0.559
285	-0.556
285	-0.554
286	-0.561
286	-0.557
287	-0.553
287	-0.538
288	-0.532
288	-0.54
289	-0.551
289	-0.559
290	-0.555
290	-0.555
291	-0.55
291	-0.542
292	-0.543
292	-0.551
292	-0.554
293	-0.559
293	-0.548
294	-0.537
294	-0.528
295	-0.522
295	-0.517
296	-0.517
296	-0.515
297	-0.509
297	-0.494
298	-0.487
298	-0.493
298	-0.485
299	-0.479
299	-0.481
300	-0.478
300	-0.475
301	-0.47
301	-0.469
302	-0.479
302	-0.485
303	-0.472
303	-0.461
304	-0.462
304	-0.459
305	-0.462
305	-0.459
305	-0.455
306	-0.439
306	-0.435
307	-0.419
307	-0.419
308	-0.434
308	-0.43
309	-0.433
309	-0.425
310	-0.411
310	-0.41
311	-0.402
311	-0.409
311	-0.406
312	-0.404
312	-0.404
313	-0.39
313	-0.392
314	-0.388
314	-0.39
315	-0.392
315	-0.391
316	-0.39
316	-0.385
317	-0.379
317	-0.372
318	-0.361
318	-0.359
318	-0.355
319	-0.346
319	-0.342
320	-0.336
320	-0.337
321	-0.34
321	-0.337
322	-0.332
322	-0.329
323	-0.329
323	-0.326
324	-0.318
324	-0.312
324	-0.304
325	-0.293
325	-0.276
326	-0.264
326	-0.25
327	-0.235
327	-0.216
328	-0.194
328	-0.174
329	-0.152
329	-0.129
330	-0.102
330	-0.074
330	-0.049
331	-0.021
331	0.005
332	0.028
332	0.049
333	0.069
333	0.091
334	0.109
334	0.122
335	0.136
335	0.148
336	0.16
336	0.171
336	0.18
337	0.19
337	0.197
338	0.204
338	0.208
339	0.214
339	0.219
340	0.223
340	0.227
341	0.23
341	0.233
342	0.236
342	0.238
342	0.241
343	0.242
343	0.245
344	0.247
344	0.248
345	0.249
345	0.25
346	0.25
346	0.251
347	0.252
347	0.252
348	0.252
348	0.253
348	0.253
349	0.253
349	0.254
350	0.254
350	0.254
351	0.254
351	0.254
352	0.254
352	0.254
353	0.254
353	0.254
354	0.254
354	0.253
354	0.253
355	0.253
355	0.253
356	0.253
356	0.253
357	0.252
357	0.251
358	0.251
358	0.251
359	0.251
359	0.251
360	0.25
360	0.25
360	0.25
361	0.25
361	0.25
362	0.25
362	0.25
363	0.25
363	0.25
364	0.25
364	0.25
365	0.25
365	0.25
366	0.25
366	0.25
366	0.249
367	0.25
367	0.25
368	0.249
368	0.249
369	0.249
369	0.249
370	0.249
370	0.248
371	0.248
371	0.248
372	0.248
372	0.248
372	0.248
373	0.248
373	0.248
374	0.247
374	0.247
375	0.247
375	0.247
376	0.247
376	0.247
377	0.247
377	0.247
378	0.247
378	0.247
378	0.247
379	0.246
379	0.246
380	0.246
380	0.246
381	0.246
381	0.245
382	0.245
382	0.245
383	0.245
383	0.245
383	0.244
384	0.244
384	0.244
385	0.244
385	0.244
386	0.244
386	0.244
387	0.244
387	0.244
388	0.243
388	0.243
389	0.243
389	0.244
389	0.244
390	0.244
390	0.244
391	0.244
391	0.244
392	0.243
392	0.243
393	0.243
393	0.243
394	0.243
394	0.242
394	0.242
395	0.242
395	0.241
396	0.241
396	0.241
397	0.241
397	0.241
398	0.241
398	0.241
399	0.24
399	0.24
400	0.24
400	0.24
400	0.24
401	0.24
401	0.24
402	0.24
402	0.239
403	0.239
403	0.239
404	0.239
404	0.239
405	0.239
405	0.238
405	0.238
406	0.238
406	0.238
407	0.238
407	0.238
408	0.238
408	0.238
409	0.238
409	0.238
410	0.238
410	0.238
411	0.238
411	0.238
411	0.238
412	0.238
412	0.237
413	0.237
413	0.237
414	0.237
414	0.237
415	0.236
415	0.236
416	0.236
416	0.236
416	0.236
417	0.236
417	0.236
418	0.236
418	0.236
419	0.236
419	0.236
420	0.236
420	0.236
421	0.236
421	0.236
421	0.236
422	0.236
422	0.236
423	0.236
423	0.236
424	0.236
424	0.235
425	0.235
425	0.235
426	0.234
426	0.234
427	0.234
427	0.234
427	0.233
428	0.233
428	0.233
429	0.233
429	0.233
430	0.233
430	0.233
431	0.233
431	0.233
432	0.233
432	0.233
432	0.232
433	0.232
433	0.232
434	0.232
434	0.232
435	0.232
435	0.232
436	0.231
436	0.231
437	0.231
437	0.231
437	0.231
438	0.231
438	0.231
439	0.23
439	0.231
440	0.23
440	0.23
441	0.23
441	0.23
442	0.23
442	0.23
442	0.23
443	0.23
443	0.23
444	0.23
444	0.23
445	0.231
445	0.231
446	0.231
446	0.231
447	0.232
447	0.232
447	0.232
448	0.232
448	0.232
449	0.232
449	0.232
450	0.232
450	0.232
451	0.232
451	0.232
452	0.232
452	0.232
452	0.232
453	0.232
453	0.231
454	0.231
454	0.231
455	0.231
455	0.231
456	0.231
456	0.231
457	0.231
457	0.231
458	0.231
458	0.231
458	0.231
459	0.231
459	0.231
460	0.231
460	0.231
461	0.23
461	0.23
462	0.23
462	0.23
463	0.23
463	0.231
463	0.231
464	0.231
464	0.231
465	0.231
465	0.231
466	0.231
466	0.232
467	0.232
467	0.232
467	0.232
468	0.233
468	0.233
469	0.233
469	0.234
470	0.234
470	0.234
471	0.234
471	0.234
472	0.234
472	0.234
472	0.235
473	0.235
473	0.235
474	0.235
474	0.235
475	0.236
475	0.236
476	0.236
476	0.237
477	0.237
477	0.238
477	0.238
478	0.238
478	0.239
479	0.239
479	0.24
480	0.24
480	0.24
481	0.241
481	0.241
482	0.242
482	0.242
482	0.243
483	0.243
483	0.244
484	0.245
484	0.245
485	0.246
485	0.246
486	0.247
486	0.247
487	0.248
487	0.249
487	0.249
488	0.25
488	0.251
489	0.252
489	0.254
490	0.255
490	0.256
491	0.257
491	0.258
492	0.259
492	0.26
492	0.261
493	0.262
493	0.263
494	0.264
494	0.265
495	0.266
495	0.267
496	0.268
496	0.269
496	0.271
497	0.272
497	0.274
498	0.275
498	0.276
499	0.277
499	0.278
500	0.28
500	0.282
501	0.283
501	0.284
501	0.285
502	0.286
502	0.287
503	0.289
503	0.29
504	0.291
504	0.293
505	0.294
505	0.295
506	0.297
506	0.298
506	0.3
507	0.301
507	0.303
508	0.304
508	0.306
509	0.307
509	0.309
510	0.311
510	0.312
511	0.314
511	0.315
511	0.317
512	0.318
512	0.32
513	0.321
513	0.322
514	0.324
514	0.325
515	0.326
515	0.327
515	0.329
516	0.33
516	0.332
517	0.333
517	0.335
518	0.336
518	0.337
519	0.339
519	0.34
520	0.341
520	0.343
520	0.345
521	0.346
521	0.347
522	0.348
522	0.35
523	0.351
523	0.352
524	0.353
524	0.354
524	0.354
525	0.354
525	0.354
526	0.355
526	0.356
527	0.356
527	0.357
528	0.357
528	0.357
529	0.358
529	0.359
529	0.36
530	0.361
530	0.361
531	0.361
531	0.362
532	0.362
532	0.362
533	0.363
533	0.362
533	0.362
534	0.362
534	0.362
535	0.362
535	0.362
536	0.361
536	0.36
537	0.36
537	0.36
538	0.36
538	0.359
538	0.359
539	0.359
539	0.359
540	0.359
540	0.358
541	0.358
541	0.358
542	0.357
542	0.356
542	0.356
543	0.355
543	0.355
544	0.354
544	0.353
545	0.353
545	0.353
546	0.352
546	0.352
547	0.351
547	0.35
547	0.349
548	0.348
548	0.348
549	0.347
549	0.346
550	0.345
550	0.344
551	0.343
551	0.343
551	0.344
552	0.344
552	0.343
553	0.343
553	0.343
554	0.342
554	0.341
555	0.341
555	0.34
556	0.34
556	0.339
556	0.338
557	0.337
557	0.336
558	0.335
558	0.334
559	0.333
559	0.332
560	0.331
560	0.33
560	0.329
561	0.329
561	0.328
562	0.327
562	0.326
563	0.325
563	0.324
564	0.323
564	0.323
564	0.322
565	0.322
565	0.321
566	0.321
566	0.32
567	0.319
567	0.318
568	0.317
568	0.316
568	0.315
569	0.315
569	0.314
570	0.312
570	0.311
571	0.31
571	0.31
572	0.309
572	0.308
573	0.307
573	0.307
573	0.306
574	0.305
574	0.305
575	0.304
575	0.305
576	0.304
576	0.303
577	0.302
577	0.302
577	0.302
578	0.301
578	0.301
579	0.301
579	0.301
580	0.3
580	0.299
581	0.298
581	0.298
581	0.298
582	0.297
582	0.297
583	0.297
583	0.296
584	0.295
584	0.294
585	0.294
585	0.294
585	0.294
586	0.294
586	0.294
587	0.294
587	0.293
588	0.293
588	0.293
589	0.293
589	0.293
590	0.292
590	0.292
590	0.293
591	0.292
591	0.291
592	0.291
592	0.29
593	0.29
593	0.29
594	0.29
594	0.289
594	0.289
595	0.289
595	0.289
596	0.289
596	0.29
597	0.29
597	0.29
598	0.289
598	0.289
598	0.288
599	0.288
599	0.287
600	0.286
600	0.285
601	0.285
601	0.284
602	0.283
602	0.283
602	0.283
603	0.284
603	0.284
604	0.285
604	0.285
605	0.286
605	0.286
606	0.285
606	0.285
606	0.284
607	0.283
607	0.283
608	0.282
608	0.281
609	0.281
609	0.281
610	0.28
610	0.279
610	0.28
611	0.28
611	0.28
612	0.281
612	0.281
613	0.281
613	0.281
614	0.28
614	0.279
614	0.278
615	0.277
615	0.277
616	0.276
616	0.275
617	0.275
617	0.274
618	0.273
618	0.272
618	0.272
619	0.272
619	0.272
620	0.272
620	0.271
621	0.271
621	0.27
622	0.269
622	0.269
622	0.268
623	0.268
623	0.267
624	0.267
624	0.266
625	0.266
625	0.265
626	0.265
626	0.264
626	0.264
627	0.263
627	0.262
628	0.261
628	0.26
629	0.258
629	0.257
630	0.255
630	0.253
630	0.252
631	0.25
631	0.248
632	0.245
632	0.243
633	0.24
633	0.238
634	0.235
634	0.233
634	0.23
635	0.227
635	0.224
636	0.221
636	0.217
637	0.214
637	0.21
638	0.206
638	0.202
638	0.198
639	0.193
639	0.188
640	0.183
640	0.178
641	0.173
641	0.169
642	0.164
642	0.159
642	0.154
643	0.149
643	0.144
644	0.138
644	0.132
645	0.126
645	0.12
646	0.115
646	0.108
646	0.102
647	0.096
647	0.089
648	0.083
648	0.076
649	0.068
649	0.061
650	0.054
650	0.046
650	0.038
651	0.028
651	0.015
652	0
652	-0.015
653	-0.028
653	-0.04
653	-0.038
654	-0.018
654	-0.008
655	-0.011
655	-0.016
656	-0.022
656	-0.028
657	-0.031
657	-0.036
657	-0.042
658	-0.047
658	-0.074
659	-0.155
659	-0.253
660	-0.298
660	-0.326
661	-0.354
661	-0.385
661	-0.421
662	-0.453
662	-0.489
663	-0.531
663	-0.576
664	-0.622
664	-0.674
665	-0.726
665	-0.787
665	-0.844
666	-0.903
666	-0.967
667	-1.034
667	-1.102
668	-1.175
668	-1.25
669	-1.327
669	-1.404
669	-1.485
670	-1.561
670	-1.625
671	-1.852
671	-2.063
672	-2.264
672	-2.44
672	-2.56
673	-2.646
673	-2.722
674	-2.756
674	-2.774
675	-2.797
675	-2.934
676	-3.108
676	-3.058
676	-2.832
677	-2.625
677	-2.457
678	-2.271
678	-1.94
679	-1.693
679	-1.566
680	-1.474
680	-1.392
680	-1.323
681	-1.279
681	-1.22
682	-1.18
682	-1.142
683	-1.106
683	-1.087
684	-1.065
684	-1.045
684	-1.021
685	-0.995
685	-0.971
686	-0.947
686	-0.929
687	-0.902
687	-0.89
687	-0.868
688	-0.844
688	-0.822
689	-0.798
689	-0.786
690	-0.765
690	-0.752
691	-0.745
691	-0.748
691	-0.763
692	-0.753
692	-0.744
693	-0.736
693	-0.743
694	-0.738
694	-0.73
695	-0.734
695	-0.731
695	-0.713
696	-0.709
696	-0.688
697	-0.688
697	-0.702
698	-0.706
698	-0.695
698	-0.707
699	-0.709
699	-0.707
700	-0.698
700	-0.713
701	-0.713
701	-0.719
702	-0.719
702	-0.707
702	-0.699
703	-0.692
703	-0.683
704	-0.679
704	-0.677
705	-0.69
705	-0.684
705	-0.67
706	-0.67
706	-0.664
707	-0.669
707	-0.664
708	-0.663
708	-0.656
709	-0.66
709	-0.662
709	-0.651
710	-0.658
710	-0.668
711	-0.659
711	-0.659
712	-0.657
712	-0.668
713	-0.668
713	-0.673
713	-0.662
714	-0.659
714	-0.657
715	-0.647
715	-0.634
716	-0.64
716	-0.64
716	-0.632
717	-0.636
717	-0.636
718	-0.63
718	-0.63
719	-0.636
719	-0.639
720	-0.634
720	-0.643
720	-0.638
721	-0.629
721	-0.631
722	-0.619
722	-0.608
723	-0.603
723	-0.608
723	-0.596
724	-0.6
724	-0.606
725	-0.604
725	-0.612
726	-0.624
726	-0.628
727	-0.63
727	-0.644
727	-0.653
728	-0.654
728	-0.659
729	-0.657
729	-0.658
730	-0.666
730	-0.659
730	-0.646
731	-0.629
731	-0.639
732	-0.646
732	-0.644
733	-0.64
733	-0.646
734	-0.641
734	-0.643
734	-0.628
735	-0.628
735	-0.632
736	-0.644
736	-0.632
737	-0.624
737	-0.627
737	-0.637
738	-0.631
738	-0.63
739	-0.628
739	-0.642
740	-0.64
740	-0.637
741	-0.633
741	-0.632
741	-0.636
742	-0.633
742	-0.633
743	-0.639
743	-0.643
744	-0.639
744	-0.631
744	-0.634
745	-0.641
745	-0.633
746	-0.63
746	-0.628
747	-0.63
747	-0.618
748	-0.607
748	-0.612
748	-0.615
749	-0.614
749	-0.613
750	-0.602
750	-0.603
751	-0.606
751	-0.612
751	-0.612
752	-0.616
752	-0.624
753	-0.619
753	-0.614
754	-0.616
754	-0.607
754	-0.624
755	-0.641
755	-0.654
756	-0.644
756	-0.646
757	-0.644
757	-0.64
758	-0.642
758	-0.641
758	-0.644
759	-0.653
759	-0.636
760	-0.63
760	-0.626
761	-0.636
761	-0.63
761	-0.628
762	-0.636
762	-0.636
763	-0.644
763	-0.641
764	-0.637
764	-0.644
764	-0.648
765	-0.638
765	-0.625
766	-0.632
766	-0.639
767	-0.655
767	-0.649
768	-0.643
768	-0.65
768	-0.655
769	-0.675
769	-0.674
770	-0.679
770	-0.692
771	-0.69
771	-0.693
771	-0.692
772	-0.696
772	-0.694
773	-0.695
773	-0.688
774	-0.682
774	-0.685
775	-0.689
775	-0.684
775	-0.691
776	-0.692
776	-0.685
777	-0.691
777	-0.71
778	-0.707
778	-0.728
778	-0.714
779	-0.732
779	-0.737
780	-0.75
780	-0.75
781	-0.76
781	-0.753
781	-0.771
782	-0.774
782	-0.777
783	-0.766
783	-0.769
784	-0.752
784	-0.746
784	-0.756
785	-0.764
785	-0.748
786	-0.754
786	-0.732
787	-0.715
787	-0.715
788	-0.717
788	-0.726
788	-0.735
789	-0.733
789	-0.713
790	-0.69
790	-0.694
791	-0.693
791	-0.708
791	-0.718
792	-0.711
792	-0.689
793	-0.677
793	-0.656
794	-0.661
794	-0.654
794	-0.665
795	-0.662
795	-0.655
796	-0.638
796	-0.643
797	-0.637
797	-0.647
797	-0.656
798	-0.67
798	-0.663
799	-0.674
799	-0.658
800	-0.662
800	-0.656
801	-0.663
801	-0.646
801	-0.659
802	-0.668
802	-0.669
803	-0.667
803	-0.678
804	-0.672
804	-0.683
804	-0.67
805	-0.677
805	-0.666
806	-0.67
806	-0.654
807	-0.651
807	-0.631
807	-0.622
808	-0.61
808	-0.606
809	-0.589
809	-0.603
810	-0.598
810	-0.593
810	-0.594
811	-0.601
811	-0.593
812	-0.595
812	-0.599
813	-0.603
813	-0.599
813	-0.608
814	-0.608
814	-0.611
815	-0.614
815	-0.616
816	-0.608
816	-0.614
817	-0.619
817	-0.636
817	-0.651
818	-0.659
818	-0.659
819	-0.649
819	-0.652
820	-0.66
820	-0.658
820	-0.669
821	-0.665
821	-0.653
822	-0.62
822	-0.597
823	-0.594
823	-0.598
823	-0.597
824	-0.592
824	-0.593
825	-0.583
825	-0.563
826	-0.559
826	-0.565
826	-0.576
827	-0.569
827	-0.566
828	-0.546
828	-0.545
829	-0.534
829	-0.521
829	-0.513
830	-0.523
830	-0.518
831	-0.513
831	-0.505
832	-0.506
832	-0.497
832	-0.505
833	-0.502
833	-0.505
834	-0.501
834	-0.509
835	-0.496
835	-0.491
835	-0.486
836	-0.483
836	-0.477
837	-0.476
837	-0.465
838	-0.455
838	-0.441
839	-0.43
839	-0.419
839	-0.409
840	-0.399
840	-0.395
841	-0.383
841	-0.376
842	-0.371
842	-0.361
842	-0.356
843	-0.352
843	-0.346
844	-0.337
844	-0.33
845	-0.323
845	-0.313
845	-0.302
846	-0.292
846	-0.278
847	-0.268
847	-0.257
848	-0.246
848	-0.237
848	-0.224
849	-0.215
849	-0.204
850	-0.191
850	-0.185
851	-0.177
851	-0.167
851	-0.158
852	-0.143
852	-0.132
853	-0.123
853	-0.117
854	-0.107
854	-0.095
854	-0.086
855	-0.075
855	-0.07
856	-0.06
856	-0.054
857	-0.048
857	-0.04
857	-0.031
858	-0.022
858	-0.016
859	-0.009
859	0
860	0.008
860	0.02
860	0.026
861	0.034
861	0.041
862	0.048
862	0.054
863	0.061
863	0.069
863	0.074
864	0.077
864	0.082
865	0.087
865	0.091
866	0.095
866	0.098
866	0.101
867	0.103
867	0.106
868	0.108
868	0.111
869	0.114
869	0.116
869	0.118
870	0.121
870	0.123
871	0.126
871	0.127
872	0.128
872	0.129
872	0.13
873	0.131
873	0.131
874	0.131
874	0.131
875	0.13
875	0.129
875	0.128
876	0.127
876	0.125
877	0.124
877	0.123
878	0.121
878	0.119
878	0.117
879	0.115
879	0.114
880	0.113
880	0.112
881	0.112
881	0.112
881	0.112
882	0.112
882	0.111
883	0.11
883	0.11
884	0.109
884	0.109
884	0.108
885	0.107
885	0.107
886	0.106
886	0.105
887	0.104
887	0.104
887	0.104
888	0.104
888	0.104
889	0.104
889	0.105
890	0.105
890	0.105
890	0.105
891	0.105
891	0.106
892	0.106
892	0.105
893	0.105
893	0.105
893	0.105
894	0.104
894	0.103
895	0.103
895	0.102
895	0.102
896	0.101
896	0.1
897	0.099
897	0.098
898	0.097
898	0.097
898	0.097
899	0.097
899	0.098
900	0.098
900	0.098
901	0.099
901	0.1
901	0.1
902	0.1
902	0.101
903	0.101
903	0.101
904	0.101
904	0.101
904	0.102
905	0.103
905	0.103
906	0.103
906	0.103
907	0.103
907	0.103
907	0.103
908	0.102
908	0.102
909	0.101
909	0.101
910	0.1
910	0.1
910	0.099
911	0.1
911	0.1
912	0.101
912	0.101
913	0.101
913	0.102
913	0.103
914	0.103
914	0.103
915	0.104
915	0.104
916	0.104
916	0.104
916	0.104
917	0.104
917	0.104
918	0.103
918	0.102
918	0.102
919	0.101
919	0.101
920	0.1
920	0.1
921	0.1
921	0.1
921	0.1
922	0.1
922	0.1
923	0.1
923	0.1
924	0.1
924	0.1
924	0.099
925	0.099
925	0.098
926	0.097
926	0.096
927	0.096
927	0.095
927	0.095
928	0.095
928	0.095
929	0.095
929	0.094
930	0.094
930	0.094
930	0.094
931	0.094
931	0.094
932	0.094
932	0.093
933	0.092
933	0.09
933	0.089
934	0.087
934	0.086
935	0.085
935	0.084
935	0.082
936	0.081
936	0.08
937	0.079
937	0.078
938	0.078
938	0.079
938	0.079
939	0.08
939	0.08
940	0.081
940	0.081
941	0.082
941	0.083
941	0.084
942	0.085
942	0.085
943	0.086
943	0.086
944	0.085
944	0.085
944	0.085
945	0.085
945	0.083
946	0.082
946	0.081
946	0.08
947	0.079
947	0.079
948	0.079
948	0.079
949	0.079
949	0.08
949	0.08
950	0.082
950	0.082
951	0.083
951	0.084
952	0.085
952	0.086
952	0.086
953	0.087
953	0.088
954	0.088
954	0.089
955	0.09
955	0.091
955	0.092
956	0.092
956	0.093
957	0.093
957	0.093
957	0.094
958	0.094
958	0.094
959	0.095
959	0.094
960	0.094
960	0.094
960	0.094
961	0.094
961	0.094
962	0.094
962	0.093
963	0.093
963	0.093
963	0.092
964	0.092
964	0.092
965	0.092
965	0.092
966	0.092
966	0.092
966	0.092
967	0.091
967	0.091
968	0.09
968	0.09
968	0.089
969	0.089
969	0.088
970	0.088
970	0.088
971	0.088
971	0.088
971	0.088
972	0.089
972	0.089
973	0.089
973	0.089
974	0.088
974	0.088
974	0.088
975	0.087
975	0.087
976	0.086
976	0.085
976	0.085
977	0.085
977	0.085
978	0.084
978	0.084
979	0.083
979	0.083
979	0.083
980	0.082
980	0.082
981	0.081
981	0.081
982	0.081
982	0.08
982	0.08
983	0.08
983	0.08
984	0.08
984	0.08
984	0.081
985	0.082
985	0.082
986	0.082
986	0.082
987	0.083
987	0.083
987	0.083
988	0.082
988	0.082
989	0.081
989	0.08
990	0.079
990	0.078
990	0.077
991	0.076
991	0.076
992	0.075
992	0.075
992	0.074
993	0.074
993	0.074
994	0.074
994	0.074
995	0.073
995	0.073
995	0.073
996	0.073
996	0.072
997	0.072
997	0.072
997	0.072
998	0.073
998	0.073
999	0.073
999	0.074
1000	0.074
1000	0.074
1000	0.074
1001	0.075
1001	0.075
1002	0.075
1002	0.075
1003	0.074
1003	0.074
1003	0.074
1004	0.073
1004	0.072
1005	0.071
1005	0.07
1005	0.069
1006	0.068
1006	0.067
1007	0.066
1007	0.065
1008	0.065
1008	0.064
1008	0.064
1009	0.064
1009	0.064
1010	0.064
1010	0.064
1010	0.064
1011	0.064
1011	0.064
1012	0.063
1012	0.062
1013	0.061
1013	0.06
1013	0.059
1014	0.058
1014	0.056
1015	0.056
1015	0.055
1016	0.054
1016	0.053
1016	0.053
1017	0.052
1017	0.051
1018	0.051
1018	0.05
1018	0.05
1019	0.05
1019	0.049
1020	0.048
1020	0.047
1021	0.047
1021	0.046
1021	0.045
1022	0.044
1022	0.043
1023	0.043
1023	0.042
1023	0.042
1024	0.042
1024	0.042
1025	0.042
1025	0.042
1026	0.043
1026	0.043
1026	0.044
1027	0.044
1027	0.045
1028	0.045
1028	0.045
1028	0.045
1029	0.045
1029	0.045
1030	0.044
1030	0.043
1031	0.043
1031	0.043
1031	0.043
1032	0.043
1032	0.043
1033	0.043
1033	0.043
1033	0.043
1034	0.043
1034	0.043
1035	0.044
1035	0.043
1036	0.043
1036	0.043
1036	0.043
1037	0.043
1037	0.043
1038	0.042
1038	0.043
1039	0.043
1039	0.043
1039	0.043
1040	0.043
1040	0.044
1041	0.044
1041	0.045
1041	0.045
1042	0.045
1042	0.045
1043	0.045
1043	0.044
1044	0.044
1044	0.044
1044	0.043
1045	0.042
1045	0.042
1046	0.041
1046	0.041
1046	0.041
1047	0.041
1047	0.042
1048	0.042
1048	0.042
1049	0.043
1049	0.043
1049	0.043
1050	0.043
1050	0.043
1051	0.043
1051	0.043
1051	0.044
1052	0.044
1052	0.044
1053	0.044
1053	0.044
1053	0.044
1054	0.044
1054	0.044
1055	0.044
1055	0.043
1056	0.042
1056	0.041
1056	0.04
1057	0.039
1057	0.039
1058	0.038
1058	0.038
1058	0.037
1059	0.037
1059	0.036
1060	0.036
1060	0.036
1061	0.036
1061	0.036
1061	0.036
1062	0.036
1062	0.036
1063	0.036
1063	0.036
1063	0.037
1064	0.037
1064	0.037
1065	0.037
1065	0.036
1066	0.036
1066	0.036
1066	0.035
1067	0.035
1067	0.034
1068	0.033
1068	0.032
1068	0.032
1069	0.032
1069	0.031
1070	0.03
1070	0.03
1071	0.03
1071	0.03
1071	0.03
1072	0.03
1072	0.03
1073	0.03
1073	0.029
1073	0.029
1074	0.03
1074	0.03
1075	0.03
1075	0.029
1076	0.029
1076	0.029
1076	0.028
1077	0.028
1077	0.027
1078	0.027
1078	0.026
1078	0.025
1079	0.024
1079	0.023
1080	0.022
1080	0.022
1080	0.02
1081	0.02
1081	0.02
1082	0.019
1082	0.018
1083	0.017
1083	0.017
1083	0.016
1084	0.015
1084	0.014
1085	0.014
1085	0.013
1085	0.013
1086	0.012
1086	0.011
1087	0.011
1087	0.011
1088	0.011
1088	0.01
1088	0.01
1089	0.009
1089	0.008
1090	0.007
1090	0.006
1090	0.005
1091	0.005
1091	0.004
1092	0.003
1092	0.004
1092	0.002
1093	0.002
1093	0.002
1094	0.002
1094	0.002
1095	0.002
1095	0.001
1095	0.001
1096	-0
1096	-0
1097	-0.001
1097	-0.001
1097	-0.002
1098	-0.003
1098	-0.005
1099	-0.005
1099	-0.006
1100	-0.007
1100	-0.008
1100	-0.011
1101	-0.013
1101	-0.015
1102	-0.017
1102	-0.02
1102	-0.02
1103	-0.022
1103	-0.024
1104	-0.026
1104	-0.028
1104	-0.03
1105	-0.031
1105	-0.034
1106	-0.038
1106	-0.039
1107	-0.043
1107	-0.047
1107	-0.051
1108	-0.053
1108	-0.055
1109	-0.059
1109	-0.063
1109	-0.066
1110	-0.065
1110	-0.068
1111	-0.073
1111	-0.074
