Data from 17C_3.4A_30min_2sec_int_Absorbance__379__01100.txt Node

Date: Mon Jun 19 17:03:40 CEST 2023
User: Marek
Spectrometer: MAYP115816
Trigger mode: 0
Integration Time (sec): 2.500000E-1
Scans to average: 10
Electric dark correction enabled: true
Nonlinearity correction enabled: true
Boxcar width: 5
XAxis mode: Wavelengths
Number of Pixels in Spectrum: 2068
>>>>>Begin Spectral Data<<<<<
199	-0.659
199	-0.665
200	-0.57
200	-0.52
201	-0.484
201	-0.469
202	-0.448
202	-0.44
203	-0.433
203	-0.431
204	-0.419
204	-0.405
205	-0.383
205	-0.379
205	-0.377
206	-0.379
206	-0.384
207	-0.378
207	-0.377
208	-0.379
208	-0.377
209	-0.37
209	-0.371
210	-0.375
210	-0.38
211	-0.381
211	-0.381
212	-0.382
212	-0.389
213	-0.39
213	-0.391
213	-0.396
214	-0.393
214	-0.393
215	-0.393
215	-0.399
216	-0.401
216	-0.407
217	-0.404
217	-0.409
218	-0.41
218	-0.407
219	-0.41
219	-0.419
220	-0.424
220	-0.432
221	-0.432
221	-0.433
221	-0.429
222	-0.423
222	-0.423
223	-0.426
223	-0.431
224	-0.433
224	-0.434
225	-0.428
225	-0.424
226	-0.428
226	-0.43
227	-0.436
227	-0.446
228	-0.446
228	-0.447
229	-0.447
229	-0.442
229	-0.435
230	-0.438
230	-0.44
231	-0.434
231	-0.425
232	-0.417
232	-0.416
233	-0.411
233	-0.411
234	-0.41
234	-0.407
235	-0.411
235	-0.417
236	-0.416
236	-0.42
236	-0.427
237	-0.436
237	-0.436
238	-0.444
238	-0.44
239	-0.439
239	-0.448
240	-0.446
240	-0.445
241	-0.449
241	-0.446
242	-0.452
242	-0.445
243	-0.442
243	-0.443
243	-0.452
244	-0.453
244	-0.455
245	-0.469
245	-0.467
246	-0.473
246	-0.48
247	-0.48
247	-0.485
248	-0.492
248	-0.49
249	-0.493
249	-0.5
250	-0.496
250	-0.491
250	-0.494
251	-0.489
251	-0.489
252	-0.49
252	-0.481
253	-0.484
253	-0.494
254	-0.494
254	-0.492
255	-0.501
255	-0.497
256	-0.492
256	-0.506
257	-0.502
257	-0.502
258	-0.518
258	-0.514
258	-0.513
259	-0.509
259	-0.517
260	-0.517
260	-0.52
261	-0.534
261	-0.523
262	-0.52
262	-0.52
263	-0.509
263	-0.506
264	-0.504
264	-0.511
265	-0.506
265	-0.513
265	-0.517
266	-0.513
266	-0.51
267	-0.525
267	-0.533
268	-0.549
268	-0.559
269	-0.558
269	-0.555
270	-0.56
270	-0.561
271	-0.56
271	-0.564
272	-0.567
272	-0.558
272	-0.552
273	-0.548
273	-0.553
274	-0.558
274	-0.559
275	-0.557
275	-0.552
276	-0.558
276	-0.549
277	-0.554
277	-0.573
278	-0.585
278	-0.579
278	-0.574
279	-0.574
279	-0.586
280	-0.588
280	-0.587
281	-0.582
281	-0.592
282	-0.585
282	-0.585
283	-0.574
283	-0.577
284	-0.574
284	-0.564
285	-0.561
285	-0.556
285	-0.554
286	-0.56
286	-0.555
287	-0.552
287	-0.537
288	-0.53
288	-0.54
289	-0.549
289	-0.557
290	-0.544
290	-0.543
291	-0.541
291	-0.533
292	-0.536
292	-0.545
292	-0.546
293	-0.55
293	-0.539
294	-0.529
294	-0.52
295	-0.519
295	-0.515
296	-0.512
296	-0.511
297	-0.505
297	-0.488
298	-0.483
298	-0.493
298	-0.479
299	-0.474
299	-0.475
300	-0.472
300	-0.468
301	-0.464
301	-0.463
302	-0.468
302	-0.477
303	-0.463
303	-0.445
304	-0.451
304	-0.449
305	-0.45
305	-0.447
305	-0.445
306	-0.429
306	-0.424
307	-0.411
307	-0.413
308	-0.428
308	-0.43
309	-0.43
309	-0.424
310	-0.413
310	-0.41
311	-0.404
311	-0.412
311	-0.408
312	-0.405
312	-0.405
313	-0.392
313	-0.39
314	-0.386
314	-0.386
315	-0.386
315	-0.387
316	-0.383
316	-0.375
317	-0.369
317	-0.365
318	-0.353
318	-0.35
318	-0.347
319	-0.338
319	-0.334
320	-0.33
320	-0.329
321	-0.332
321	-0.333
322	-0.327
322	-0.321
323	-0.318
323	-0.314
324	-0.307
324	-0.299
324	-0.292
325	-0.281
325	-0.266
326	-0.252
326	-0.236
327	-0.221
327	-0.204
328	-0.182
328	-0.163
329	-0.142
329	-0.121
330	-0.095
330	-0.065
330	-0.041
331	-0.014
331	0.01
332	0.033
332	0.053
333	0.072
333	0.093
334	0.111
334	0.126
335	0.142
335	0.154
336	0.165
336	0.177
336	0.185
337	0.196
337	0.204
338	0.211
338	0.215
339	0.222
339	0.227
340	0.231
340	0.234
341	0.238
341	0.24
342	0.244
342	0.246
342	0.248
343	0.25
343	0.253
344	0.254
344	0.255
345	0.256
345	0.256
346	0.257
346	0.258
347	0.258
347	0.259
348	0.259
348	0.26
348	0.26
349	0.26
349	0.26
350	0.26
350	0.261
351	0.261
351	0.261
352	0.261
352	0.261
353	0.26
353	0.26
354	0.26
354	0.26
354	0.26
355	0.26
355	0.259
356	0.259
356	0.259
357	0.259
357	0.258
358	0.258
358	0.258
359	0.257
359	0.257
360	0.257
360	0.257
360	0.257
361	0.257
361	0.256
362	0.257
362	0.257
363	0.257
363	0.257
364	0.257
364	0.257
365	0.256
365	0.256
366	0.256
366	0.256
366	0.256
367	0.256
367	0.256
368	0.256
368	0.255
369	0.255
369	0.255
370	0.255
370	0.255
371	0.254
371	0.254
372	0.254
372	0.254
372	0.254
373	0.254
373	0.254
374	0.254
374	0.254
375	0.253
375	0.253
376	0.253
376	0.253
377	0.253
377	0.253
378	0.253
378	0.253
378	0.253
379	0.253
379	0.253
380	0.252
380	0.252
381	0.252
381	0.252
382	0.252
382	0.251
383	0.251
383	0.251
383	0.25
384	0.25
384	0.25
385	0.25
385	0.25
386	0.25
386	0.25
387	0.25
387	0.249
388	0.249
388	0.249
389	0.249
389	0.249
389	0.249
390	0.249
390	0.249
391	0.249
391	0.249
392	0.249
392	0.249
393	0.249
393	0.248
394	0.248
394	0.248
394	0.248
395	0.247
395	0.247
396	0.247
396	0.247
397	0.247
397	0.246
398	0.246
398	0.246
399	0.246
399	0.246
400	0.246
400	0.246
400	0.246
401	0.246
401	0.246
402	0.246
402	0.245
403	0.245
403	0.245
404	0.245
404	0.245
405	0.245
405	0.244
405	0.244
406	0.244
406	0.244
407	0.244
407	0.244
408	0.243
408	0.243
409	0.243
409	0.243
410	0.243
410	0.243
411	0.243
411	0.243
411	0.243
412	0.243
412	0.243
413	0.243
413	0.243
414	0.243
414	0.243
415	0.242
415	0.242
416	0.242
416	0.242
416	0.241
417	0.241
417	0.241
418	0.241
418	0.241
419	0.241
419	0.241
420	0.241
420	0.241
421	0.241
421	0.241
421	0.241
422	0.242
422	0.242
423	0.242
423	0.241
424	0.241
424	0.241
425	0.241
425	0.24
426	0.24
426	0.24
427	0.239
427	0.239
427	0.239
428	0.239
428	0.239
429	0.239
429	0.239
430	0.239
430	0.239
431	0.238
431	0.238
432	0.238
432	0.238
432	0.238
433	0.238
433	0.237
434	0.237
434	0.237
435	0.237
435	0.237
436	0.237
436	0.237
437	0.236
437	0.236
437	0.236
438	0.236
438	0.236
439	0.236
439	0.236
440	0.236
440	0.236
441	0.236
441	0.236
442	0.236
442	0.236
442	0.236
443	0.236
443	0.236
444	0.236
444	0.236
445	0.236
445	0.236
446	0.237
446	0.237
447	0.237
447	0.237
447	0.237
448	0.237
448	0.237
449	0.237
449	0.237
450	0.237
450	0.237
451	0.237
451	0.237
452	0.237
452	0.237
452	0.237
453	0.237
453	0.236
454	0.236
454	0.236
455	0.236
455	0.236
456	0.236
456	0.236
457	0.236
457	0.236
458	0.236
458	0.236
458	0.236
459	0.236
459	0.236
460	0.236
460	0.236
461	0.236
461	0.236
462	0.236
462	0.236
463	0.236
463	0.236
463	0.236
464	0.236
464	0.236
465	0.237
465	0.237
466	0.237
466	0.237
467	0.237
467	0.237
467	0.238
468	0.238
468	0.238
469	0.238
469	0.239
470	0.239
470	0.239
471	0.239
471	0.239
472	0.24
472	0.24
472	0.24
473	0.24
473	0.241
474	0.241
474	0.241
475	0.242
475	0.242
476	0.242
476	0.243
477	0.243
477	0.244
477	0.244
478	0.244
478	0.245
479	0.245
479	0.245
480	0.246
480	0.246
481	0.246
481	0.247
482	0.248
482	0.248
482	0.249
483	0.25
483	0.25
484	0.251
484	0.251
485	0.252
485	0.252
486	0.253
486	0.254
487	0.254
487	0.255
487	0.256
488	0.256
488	0.257
489	0.259
489	0.26
490	0.262
490	0.263
491	0.264
491	0.265
492	0.266
492	0.266
492	0.267
493	0.268
493	0.269
494	0.271
494	0.272
495	0.272
495	0.274
496	0.275
496	0.276
496	0.278
497	0.28
497	0.281
498	0.282
498	0.284
499	0.285
499	0.287
500	0.288
500	0.29
501	0.291
501	0.292
501	0.293
502	0.294
502	0.295
503	0.297
503	0.298
504	0.299
504	0.301
505	0.303
505	0.304
506	0.305
506	0.307
506	0.308
507	0.31
507	0.311
508	0.313
508	0.315
509	0.316
509	0.318
510	0.32
510	0.321
511	0.323
511	0.324
511	0.326
512	0.327
512	0.329
513	0.33
513	0.331
514	0.333
514	0.334
515	0.335
515	0.337
515	0.338
516	0.34
516	0.341
517	0.343
517	0.345
518	0.346
518	0.347
519	0.349
519	0.35
520	0.351
520	0.353
520	0.354
521	0.356
521	0.357
522	0.358
522	0.359
523	0.36
523	0.361
524	0.362
524	0.363
524	0.363
525	0.364
525	0.364
526	0.365
526	0.366
527	0.367
527	0.367
528	0.368
528	0.368
529	0.369
529	0.37
529	0.37
530	0.371
530	0.372
531	0.372
531	0.372
532	0.373
532	0.373
533	0.373
533	0.373
533	0.373
534	0.373
534	0.373
535	0.373
535	0.373
536	0.372
536	0.372
537	0.372
537	0.371
538	0.371
538	0.371
538	0.371
539	0.371
539	0.37
540	0.37
540	0.369
541	0.369
541	0.368
542	0.368
542	0.367
542	0.366
543	0.366
543	0.365
544	0.364
544	0.363
545	0.363
545	0.363
546	0.363
546	0.362
547	0.361
547	0.36
547	0.359
548	0.359
548	0.358
549	0.357
549	0.356
550	0.355
550	0.354
551	0.354
551	0.353
551	0.353
552	0.353
552	0.353
553	0.353
553	0.352
554	0.352
554	0.351
555	0.35
555	0.35
556	0.349
556	0.348
556	0.347
557	0.346
557	0.345
558	0.344
558	0.343
559	0.342
559	0.341
560	0.34
560	0.339
560	0.338
561	0.338
561	0.337
562	0.336
562	0.335
563	0.333
563	0.333
564	0.332
564	0.331
564	0.331
565	0.33
565	0.33
566	0.329
566	0.328
567	0.327
567	0.327
568	0.326
568	0.325
568	0.324
569	0.323
569	0.322
570	0.32
570	0.319
571	0.318
571	0.318
572	0.317
572	0.316
573	0.315
573	0.315
573	0.314
574	0.313
574	0.313
575	0.312
575	0.312
576	0.311
576	0.31
577	0.31
577	0.309
577	0.309
578	0.309
578	0.309
579	0.309
579	0.309
580	0.307
580	0.306
581	0.305
581	0.305
581	0.305
582	0.305
582	0.304
583	0.304
583	0.303
584	0.302
584	0.301
585	0.301
585	0.301
585	0.301
586	0.301
586	0.301
587	0.3
587	0.3
588	0.299
588	0.299
589	0.299
589	0.299
590	0.298
590	0.298
590	0.299
591	0.298
591	0.297
592	0.297
592	0.296
593	0.296
593	0.296
594	0.296
594	0.295
594	0.295
595	0.295
595	0.295
596	0.295
596	0.295
597	0.296
597	0.295
598	0.294
598	0.294
598	0.294
599	0.293
599	0.292
600	0.291
600	0.29
601	0.29
601	0.289
602	0.288
602	0.288
602	0.288
603	0.289
603	0.289
604	0.29
604	0.29
605	0.29
605	0.29
606	0.29
606	0.289
606	0.289
607	0.288
607	0.288
608	0.287
608	0.286
609	0.285
609	0.285
610	0.284
610	0.284
610	0.284
611	0.284
611	0.284
612	0.284
612	0.285
613	0.285
613	0.285
614	0.284
614	0.283
614	0.282
615	0.281
615	0.281
616	0.28
616	0.279
617	0.278
617	0.277
618	0.277
618	0.276
618	0.275
619	0.275
619	0.275
620	0.275
620	0.274
621	0.274
621	0.273
622	0.272
622	0.271
622	0.271
623	0.27
623	0.27
624	0.269
624	0.269
625	0.268
625	0.268
626	0.267
626	0.266
626	0.266
627	0.265
627	0.264
628	0.263
628	0.261
629	0.26
629	0.258
630	0.256
630	0.254
630	0.253
631	0.251
631	0.249
632	0.246
632	0.244
633	0.241
633	0.239
634	0.236
634	0.234
634	0.231
635	0.228
635	0.225
636	0.221
636	0.218
637	0.214
637	0.211
638	0.206
638	0.202
638	0.198
639	0.193
639	0.188
640	0.183
640	0.178
641	0.173
641	0.168
642	0.163
642	0.158
642	0.153
643	0.148
643	0.142
644	0.136
644	0.13
645	0.124
645	0.118
646	0.112
646	0.105
646	0.099
647	0.092
647	0.086
648	0.079
648	0.072
649	0.065
649	0.058
650	0.05
650	0.043
650	0.034
651	0.024
651	0.012
652	-0.002
652	-0.018
653	-0.031
653	-0.043
653	-0.04
654	-0.02
654	-0.009
655	-0.012
655	-0.016
656	-0.022
656	-0.028
657	-0.032
657	-0.037
657	-0.042
658	-0.048
658	-0.076
659	-0.158
659	-0.256
660	-0.3
660	-0.327
661	-0.354
661	-0.385
661	-0.419
662	-0.453
662	-0.489
663	-0.529
663	-0.574
664	-0.621
664	-0.674
665	-0.728
665	-0.789
665	-0.847
666	-0.905
666	-0.97
667	-1.037
667	-1.104
668	-1.179
668	-1.253
669	-1.33
669	-1.406
669	-1.488
670	-1.566
670	-1.631
671	-1.84
671	-2.056
672	-2.259
672	-2.436
672	-2.557
673	-2.643
673	-2.719
674	-2.754
674	-2.771
675	-2.795
675	-2.931
676	-3.108
676	-3.058
676	-2.832
677	-2.625
677	-2.457
678	-2.271
678	-1.94
679	-1.692
679	-1.567
680	-1.474
680	-1.392
680	-1.323
681	-1.278
681	-1.219
682	-1.179
682	-1.141
683	-1.105
683	-1.087
684	-1.065
684	-1.043
684	-1.02
685	-0.992
685	-0.97
686	-0.944
686	-0.926
687	-0.898
687	-0.886
687	-0.865
688	-0.838
688	-0.817
689	-0.796
689	-0.783
690	-0.766
690	-0.752
691	-0.745
691	-0.751
691	-0.767
692	-0.757
692	-0.746
693	-0.739
693	-0.746
694	-0.739
694	-0.729
695	-0.732
695	-0.727
695	-0.71
696	-0.705
696	-0.682
697	-0.681
697	-0.697
698	-0.7
698	-0.688
698	-0.702
699	-0.704
699	-0.701
700	-0.695
700	-0.709
701	-0.707
701	-0.714
702	-0.712
702	-0.699
702	-0.692
703	-0.683
703	-0.673
704	-0.671
704	-0.671
705	-0.68
705	-0.672
705	-0.661
706	-0.661
706	-0.657
707	-0.662
707	-0.657
708	-0.658
708	-0.651
709	-0.652
709	-0.655
709	-0.647
710	-0.654
710	-0.662
711	-0.652
711	-0.65
712	-0.648
712	-0.661
713	-0.66
713	-0.666
713	-0.658
714	-0.652
714	-0.651
715	-0.644
715	-0.631
716	-0.638
716	-0.64
716	-0.634
717	-0.635
717	-0.637
718	-0.629
718	-0.627
719	-0.634
719	-0.637
720	-0.631
720	-0.64
720	-0.636
721	-0.627
721	-0.626
722	-0.613
722	-0.601
723	-0.599
723	-0.604
723	-0.594
724	-0.595
724	-0.602
725	-0.601
725	-0.608
726	-0.619
726	-0.625
727	-0.63
727	-0.645
727	-0.651
728	-0.649
728	-0.654
729	-0.651
729	-0.653
730	-0.659
730	-0.653
730	-0.645
731	-0.628
731	-0.636
732	-0.641
732	-0.643
733	-0.643
733	-0.647
734	-0.642
734	-0.642
734	-0.628
735	-0.624
735	-0.624
736	-0.632
736	-0.622
737	-0.612
737	-0.614
737	-0.622
738	-0.617
738	-0.618
739	-0.615
739	-0.627
740	-0.629
740	-0.628
741	-0.625
741	-0.623
741	-0.628
742	-0.625
742	-0.626
743	-0.634
743	-0.637
744	-0.637
744	-0.628
744	-0.629
745	-0.635
745	-0.627
746	-0.628
746	-0.622
747	-0.622
747	-0.61
748	-0.6
748	-0.605
748	-0.608
749	-0.603
749	-0.604
750	-0.592
750	-0.594
751	-0.597
751	-0.607
751	-0.607
752	-0.615
752	-0.622
753	-0.617
753	-0.611
754	-0.619
754	-0.613
754	-0.627
755	-0.642
755	-0.655
756	-0.645
756	-0.644
757	-0.641
757	-0.635
758	-0.637
758	-0.635
758	-0.639
759	-0.647
759	-0.633
760	-0.624
760	-0.62
761	-0.629
761	-0.626
761	-0.625
762	-0.633
762	-0.632
763	-0.642
763	-0.636
764	-0.63
764	-0.639
764	-0.644
765	-0.634
765	-0.623
766	-0.631
766	-0.64
767	-0.654
767	-0.649
768	-0.642
768	-0.651
768	-0.658
769	-0.675
769	-0.678
770	-0.683
770	-0.694
771	-0.691
771	-0.691
771	-0.69
772	-0.694
772	-0.692
773	-0.691
773	-0.686
774	-0.684
774	-0.684
775	-0.685
775	-0.68
775	-0.686
776	-0.687
776	-0.677
777	-0.688
777	-0.708
778	-0.705
778	-0.726
778	-0.711
779	-0.732
779	-0.742
780	-0.756
780	-0.758
781	-0.768
781	-0.765
781	-0.78
782	-0.78
782	-0.783
783	-0.77
783	-0.77
784	-0.749
784	-0.737
784	-0.745
785	-0.75
785	-0.735
786	-0.739
786	-0.717
787	-0.702
787	-0.701
788	-0.703
788	-0.71
788	-0.72
789	-0.721
789	-0.703
790	-0.684
790	-0.687
791	-0.685
791	-0.702
791	-0.708
792	-0.703
792	-0.681
793	-0.672
793	-0.653
794	-0.658
794	-0.649
794	-0.657
795	-0.654
795	-0.651
796	-0.635
796	-0.64
797	-0.635
797	-0.649
797	-0.655
798	-0.666
798	-0.658
799	-0.668
799	-0.656
800	-0.66
800	-0.652
801	-0.657
801	-0.645
801	-0.656
802	-0.661
802	-0.664
803	-0.667
803	-0.678
804	-0.673
804	-0.683
804	-0.672
805	-0.676
805	-0.664
806	-0.666
806	-0.648
807	-0.645
807	-0.626
807	-0.612
808	-0.603
808	-0.598
809	-0.585
809	-0.595
810	-0.593
810	-0.586
810	-0.584
811	-0.59
811	-0.584
812	-0.585
812	-0.59
813	-0.596
813	-0.589
813	-0.593
814	-0.595
814	-0.599
815	-0.605
815	-0.606
816	-0.602
816	-0.607
817	-0.613
817	-0.629
817	-0.64
818	-0.647
818	-0.651
819	-0.642
819	-0.64
820	-0.65
820	-0.649
820	-0.659
821	-0.656
821	-0.644
822	-0.613
822	-0.591
823	-0.59
823	-0.593
823	-0.589
824	-0.584
824	-0.588
825	-0.579
825	-0.561
826	-0.557
826	-0.564
826	-0.575
827	-0.569
827	-0.564
828	-0.545
828	-0.549
829	-0.539
829	-0.523
829	-0.516
830	-0.525
830	-0.519
831	-0.514
831	-0.505
832	-0.503
832	-0.495
832	-0.503
833	-0.495
833	-0.497
834	-0.498
834	-0.504
835	-0.49
835	-0.488
835	-0.481
836	-0.478
836	-0.477
837	-0.476
837	-0.464
838	-0.455
838	-0.445
839	-0.43
839	-0.419
839	-0.413
840	-0.403
840	-0.401
841	-0.39
841	-0.379
842	-0.376
842	-0.366
842	-0.36
843	-0.354
843	-0.349
844	-0.34
844	-0.333
845	-0.323
845	-0.313
845	-0.299
846	-0.288
846	-0.274
847	-0.262
847	-0.252
848	-0.241
848	-0.232
848	-0.217
849	-0.205
849	-0.194
850	-0.182
850	-0.177
851	-0.17
851	-0.161
851	-0.155
852	-0.141
852	-0.129
853	-0.122
853	-0.116
854	-0.107
854	-0.097
854	-0.086
855	-0.076
855	-0.07
856	-0.061
856	-0.052
857	-0.047
857	-0.04
857	-0.031
858	-0.021
858	-0.015
859	-0.008
859	-0
860	0.008
860	0.019
860	0.026
861	0.034
861	0.041
862	0.047
862	0.054
863	0.058
863	0.066
863	0.071
864	0.074
864	0.079
865	0.084
865	0.087
866	0.091
866	0.093
866	0.096
867	0.099
867	0.103
868	0.104
868	0.108
869	0.111
869	0.113
869	0.114
870	0.117
870	0.119
871	0.122
871	0.123
872	0.124
872	0.125
872	0.126
873	0.126
873	0.127
874	0.127
874	0.127
875	0.126
875	0.125
875	0.124
876	0.123
876	0.122
877	0.12
877	0.119
878	0.117
878	0.115
878	0.113
879	0.111
879	0.11
880	0.109
880	0.109
881	0.108
881	0.108
881	0.108
882	0.108
882	0.108
883	0.107
883	0.106
884	0.106
884	0.105
884	0.104
885	0.104
885	0.103
886	0.102
886	0.101
887	0.101
887	0.1
887	0.1
888	0.1
888	0.099
889	0.1
889	0.1
890	0.1
890	0.101
890	0.1
891	0.1
891	0.1
892	0.101
892	0.101
893	0.101
893	0.1
893	0.1
894	0.099
894	0.099
895	0.098
895	0.098
895	0.098
896	0.097
896	0.096
897	0.095
897	0.094
898	0.093
898	0.092
898	0.092
899	0.093
899	0.093
900	0.094
900	0.094
901	0.095
901	0.095
901	0.096
902	0.097
902	0.097
903	0.097
903	0.097
904	0.097
904	0.097
904	0.098
905	0.099
905	0.099
906	0.099
906	0.099
907	0.099
907	0.099
907	0.099
908	0.099
908	0.098
909	0.098
909	0.097
910	0.097
910	0.096
910	0.096
911	0.096
911	0.097
912	0.097
912	0.097
913	0.098
913	0.098
913	0.099
914	0.099
914	0.099
915	0.1
915	0.1
916	0.1
916	0.1
916	0.1
917	0.1
917	0.099
918	0.099
918	0.098
918	0.098
919	0.097
919	0.097
920	0.097
920	0.097
921	0.096
921	0.096
921	0.097
922	0.097
922	0.096
923	0.096
923	0.096
924	0.096
924	0.096
924	0.095
925	0.095
925	0.094
926	0.093
926	0.092
927	0.092
927	0.091
927	0.091
928	0.091
928	0.09
929	0.09
929	0.09
930	0.09
930	0.089
930	0.089
931	0.089
931	0.089
932	0.089
932	0.088
933	0.087
933	0.086
933	0.084
934	0.083
934	0.082
935	0.081
935	0.079
935	0.078
936	0.077
936	0.076
937	0.075
937	0.075
938	0.075
938	0.075
938	0.076
939	0.076
939	0.077
940	0.078
940	0.078
941	0.079
941	0.08
941	0.081
942	0.081
942	0.082
943	0.082
943	0.082
944	0.082
944	0.081
944	0.081
945	0.081
945	0.08
946	0.079
946	0.078
946	0.076
947	0.076
947	0.075
948	0.076
948	0.076
949	0.076
949	0.077
949	0.078
950	0.078
950	0.079
951	0.08
951	0.081
952	0.081
952	0.083
952	0.083
953	0.084
953	0.085
954	0.085
954	0.086
955	0.087
955	0.088
955	0.089
956	0.09
956	0.09
957	0.09
957	0.09
957	0.09
958	0.09
958	0.091
959	0.091
959	0.091
960	0.091
960	0.09
960	0.09
961	0.09
961	0.09
962	0.089
962	0.089
963	0.089
963	0.089
963	0.088
964	0.088
964	0.089
965	0.089
965	0.088
966	0.088
966	0.088
966	0.088
967	0.088
967	0.087
968	0.087
968	0.086
968	0.085
969	0.085
969	0.084
970	0.084
970	0.084
971	0.084
971	0.085
971	0.085
972	0.085
972	0.085
973	0.086
973	0.085
974	0.085
974	0.085
974	0.085
975	0.084
975	0.083
976	0.082
976	0.082
976	0.081
977	0.081
977	0.081
978	0.081
978	0.08
979	0.079
979	0.079
979	0.078
980	0.078
980	0.078
981	0.077
981	0.077
982	0.076
982	0.076
982	0.076
983	0.075
983	0.075
984	0.075
984	0.076
984	0.076
985	0.077
985	0.077
986	0.078
986	0.078
987	0.078
987	0.078
987	0.078
988	0.078
988	0.077
989	0.076
989	0.075
990	0.074
990	0.073
990	0.073
991	0.072
991	0.071
992	0.071
992	0.071
992	0.07
993	0.07
993	0.07
994	0.07
994	0.07
995	0.07
995	0.07
995	0.069
996	0.069
996	0.068
997	0.068
997	0.068
997	0.068
998	0.069
998	0.069
999	0.069
999	0.069
1000	0.07
1000	0.07
1000	0.07
1001	0.071
1001	0.071
1002	0.071
1002	0.071
1003	0.07
1003	0.07
1003	0.07
1004	0.069
1004	0.069
1005	0.068
1005	0.066
1005	0.065
1006	0.064
1006	0.063
1007	0.063
1007	0.062
1008	0.061
1008	0.061
1008	0.061
1009	0.06
1009	0.061
1010	0.061
1010	0.061
1010	0.06
1011	0.06
1011	0.06
1012	0.059
1012	0.059
1013	0.057
1013	0.056
1013	0.055
1014	0.054
1014	0.053
1015	0.052
1015	0.051
1016	0.05
1016	0.049
1016	0.049
1017	0.048
1017	0.047
1018	0.047
1018	0.046
1018	0.046
1019	0.046
1019	0.045
1020	0.044
1020	0.043
1021	0.043
1021	0.042
1021	0.041
1022	0.04
1022	0.039
1023	0.039
1023	0.039
1023	0.038
1024	0.038
1024	0.038
1025	0.038
1025	0.039
1026	0.039
1026	0.04
1026	0.04
1027	0.041
1027	0.041
1028	0.042
1028	0.042
1028	0.042
1029	0.042
1029	0.042
1030	0.041
1030	0.041
1031	0.04
1031	0.04
1031	0.04
1032	0.039
1032	0.039
1033	0.039
1033	0.04
1033	0.04
1034	0.04
1034	0.04
1035	0.04
1035	0.04
1036	0.04
1036	0.04
1036	0.039
1037	0.039
1037	0.039
1038	0.039
1038	0.039
1039	0.039
1039	0.039
1039	0.04
1040	0.04
1040	0.041
1041	0.041
1041	0.042
1041	0.042
1042	0.042
1042	0.041
1043	0.041
1043	0.041
1044	0.04
1044	0.039
1044	0.039
1045	0.038
1045	0.037
1046	0.037
1046	0.037
1046	0.037
1047	0.037
1047	0.038
1048	0.038
1048	0.039
1049	0.039
1049	0.04
1049	0.04
1050	0.04
1050	0.04
1051	0.041
1051	0.041
1051	0.041
1052	0.041
1052	0.041
1053	0.041
1053	0.041
1053	0.041
1054	0.041
1054	0.04
1055	0.04
1055	0.04
1056	0.039
1056	0.038
1056	0.037
1057	0.036
1057	0.036
1058	0.035
1058	0.035
1058	0.035
1059	0.034
1059	0.034
1060	0.033
1060	0.033
1061	0.033
1061	0.033
1061	0.033
1062	0.033
1062	0.033
1063	0.033
1063	0.033
1063	0.033
1064	0.034
1064	0.034
1065	0.034
1065	0.033
1066	0.033
1066	0.032
1066	0.032
1067	0.031
1067	0.031
1068	0.03
1068	0.029
1068	0.029
1069	0.028
1069	0.028
1070	0.027
1070	0.027
1071	0.027
1071	0.027
1071	0.027
1072	0.026
1072	0.026
1073	0.026
1073	0.026
1073	0.026
1074	0.026
1074	0.026
1075	0.026
1075	0.025
1076	0.025
1076	0.025
1076	0.024
1077	0.024
1077	0.023
1078	0.022
1078	0.022
1078	0.021
1079	0.02
1079	0.02
1080	0.019
1080	0.018
1080	0.017
1081	0.017
1081	0.016
1082	0.015
1082	0.014
1083	0.013
1083	0.013
1083	0.012
1084	0.011
1084	0.011
1085	0.01
1085	0.009
1085	0.009
1086	0.009
1086	0.008
1087	0.008
1087	0.008
1088	0.008
1088	0.008
1088	0.008
1089	0.007
1089	0.006
1090	0.006
1090	0.005
1090	0.004
1091	0.004
1091	0.003
1092	0.002
1092	0.002
1092	0.001
1093	0
1093	0
1094	-0
1094	-0.001
1095	-0.002
1095	-0.002
1095	-0.002
1096	-0.003
1096	-0.004
1097	-0.004
1097	-0.005
1097	-0.006
1098	-0.007
1098	-0.008
1099	-0.009
1099	-0.009
1100	-0.01
1100	-0.011
1100	-0.012
1101	-0.014
1101	-0.016
1102	-0.017
1102	-0.019
1102	-0.019
1103	-0.022
1103	-0.024
1104	-0.025
1104	-0.027
1104	-0.029
1105	-0.031
1105	-0.034
1106	-0.038
1106	-0.04
1107	-0.044
1107	-0.048
1107	-0.051
1108	-0.053
1108	-0.055
1109	-0.058
1109	-0.063
1109	-0.066
1110	-0.065
1110	-0.066
1111	-0.069
1111	-0.069
