Data from 17C_3.4A_30min_2sec_int_Absorbance__458__01179.txt Node

Date: Mon Jun 19 17:06:57 CEST 2023
User: Marek
Spectrometer: MAYP115816
Trigger mode: 0
Integration Time (sec): 2.500000E-1
Scans to average: 10
Electric dark correction enabled: true
Nonlinearity correction enabled: true
Boxcar width: 5
XAxis mode: Wavelengths
Number of Pixels in Spectrum: 2068
>>>>>Begin Spectral Data<<<<<
199	-0.683
199	-0.695
200	-0.597
200	-0.544
201	-0.505
201	-0.488
202	-0.469
202	-0.454
203	-0.447
203	-0.445
204	-0.43
204	-0.416
205	-0.392
205	-0.388
205	-0.386
206	-0.388
206	-0.391
207	-0.381
207	-0.383
208	-0.384
208	-0.381
209	-0.376
209	-0.379
210	-0.384
210	-0.389
211	-0.39
211	-0.39
212	-0.393
212	-0.403
213	-0.403
213	-0.403
213	-0.408
214	-0.406
214	-0.404
215	-0.402
215	-0.409
216	-0.412
216	-0.422
217	-0.417
217	-0.419
218	-0.423
218	-0.424
219	-0.425
219	-0.434
220	-0.439
220	-0.449
221	-0.444
221	-0.446
221	-0.44
222	-0.436
222	-0.438
223	-0.441
223	-0.443
224	-0.45
224	-0.45
225	-0.445
225	-0.439
226	-0.444
226	-0.444
227	-0.449
227	-0.458
228	-0.458
228	-0.458
229	-0.459
229	-0.451
229	-0.444
230	-0.449
230	-0.453
231	-0.447
231	-0.44
232	-0.436
232	-0.436
233	-0.429
233	-0.428
234	-0.426
234	-0.424
235	-0.428
235	-0.434
236	-0.431
236	-0.435
236	-0.44
237	-0.446
237	-0.447
238	-0.458
238	-0.457
239	-0.458
239	-0.466
240	-0.467
240	-0.465
241	-0.469
241	-0.467
242	-0.473
242	-0.469
243	-0.466
243	-0.463
243	-0.471
244	-0.471
244	-0.472
245	-0.483
245	-0.482
246	-0.487
246	-0.495
247	-0.496
247	-0.501
248	-0.506
248	-0.504
249	-0.506
249	-0.515
250	-0.509
250	-0.505
250	-0.505
251	-0.505
251	-0.503
252	-0.504
252	-0.493
253	-0.5
253	-0.512
254	-0.508
254	-0.505
255	-0.516
255	-0.511
256	-0.507
256	-0.518
257	-0.516
257	-0.516
258	-0.532
258	-0.526
258	-0.522
259	-0.522
259	-0.53
260	-0.529
260	-0.533
261	-0.544
261	-0.535
262	-0.53
262	-0.53
263	-0.519
263	-0.516
264	-0.517
264	-0.523
265	-0.519
265	-0.526
265	-0.53
266	-0.528
266	-0.525
267	-0.538
267	-0.544
268	-0.559
268	-0.566
269	-0.563
269	-0.56
270	-0.565
270	-0.567
271	-0.569
271	-0.573
272	-0.577
272	-0.572
272	-0.566
273	-0.564
273	-0.574
274	-0.581
274	-0.583
275	-0.583
275	-0.578
276	-0.583
276	-0.578
277	-0.584
277	-0.6
278	-0.609
278	-0.603
278	-0.596
279	-0.596
279	-0.605
280	-0.603
280	-0.602
281	-0.597
281	-0.601
282	-0.594
282	-0.596
283	-0.586
283	-0.588
284	-0.584
284	-0.574
285	-0.571
285	-0.568
285	-0.564
286	-0.569
286	-0.567
287	-0.564
287	-0.551
288	-0.545
288	-0.554
289	-0.567
289	-0.576
290	-0.565
290	-0.564
291	-0.56
291	-0.554
292	-0.554
292	-0.557
292	-0.56
293	-0.563
293	-0.553
294	-0.539
294	-0.529
295	-0.527
295	-0.524
296	-0.522
296	-0.52
297	-0.517
297	-0.502
298	-0.492
298	-0.502
298	-0.49
299	-0.485
299	-0.488
300	-0.485
300	-0.481
301	-0.478
301	-0.477
302	-0.48
302	-0.491
303	-0.481
303	-0.464
304	-0.467
304	-0.467
305	-0.469
305	-0.466
305	-0.462
306	-0.447
306	-0.442
307	-0.433
307	-0.434
308	-0.446
308	-0.445
309	-0.449
309	-0.438
310	-0.426
310	-0.423
311	-0.417
311	-0.425
311	-0.421
312	-0.416
312	-0.415
313	-0.4
313	-0.403
314	-0.398
314	-0.401
315	-0.401
315	-0.4
316	-0.397
316	-0.389
317	-0.383
317	-0.381
318	-0.369
318	-0.368
318	-0.363
319	-0.354
319	-0.35
320	-0.345
320	-0.347
321	-0.352
321	-0.353
322	-0.348
322	-0.342
323	-0.34
323	-0.334
324	-0.328
324	-0.322
324	-0.313
325	-0.303
325	-0.286
326	-0.271
326	-0.253
327	-0.24
327	-0.221
328	-0.2
328	-0.183
329	-0.16
329	-0.138
330	-0.112
330	-0.081
330	-0.057
331	-0.032
331	-0.006
332	0.016
332	0.038
333	0.059
333	0.081
334	0.1
334	0.114
335	0.129
335	0.141
336	0.153
336	0.164
336	0.172
337	0.182
337	0.189
338	0.196
338	0.2
339	0.207
339	0.212
340	0.216
340	0.22
341	0.222
341	0.225
342	0.228
342	0.231
342	0.233
343	0.235
343	0.237
344	0.238
344	0.239
345	0.24
345	0.241
346	0.242
346	0.243
347	0.243
347	0.244
348	0.244
348	0.245
348	0.245
349	0.246
349	0.246
350	0.246
350	0.246
351	0.246
351	0.246
352	0.246
352	0.246
353	0.246
353	0.246
354	0.246
354	0.245
354	0.245
355	0.245
355	0.245
356	0.245
356	0.245
357	0.243
357	0.243
358	0.243
358	0.243
359	0.242
359	0.242
360	0.242
360	0.242
360	0.242
361	0.242
361	0.242
362	0.242
362	0.242
363	0.242
363	0.242
364	0.242
364	0.242
365	0.242
365	0.242
366	0.242
366	0.242
366	0.242
367	0.242
367	0.242
368	0.241
368	0.241
369	0.241
369	0.241
370	0.241
370	0.24
371	0.24
371	0.24
372	0.24
372	0.24
372	0.24
373	0.24
373	0.24
374	0.24
374	0.24
375	0.24
375	0.24
376	0.239
376	0.239
377	0.239
377	0.239
378	0.239
378	0.239
378	0.239
379	0.239
379	0.239
380	0.239
380	0.238
381	0.238
381	0.238
382	0.238
382	0.238
383	0.237
383	0.237
383	0.237
384	0.237
384	0.237
385	0.237
385	0.237
386	0.237
386	0.236
387	0.236
387	0.236
388	0.236
388	0.236
389	0.236
389	0.236
389	0.236
390	0.236
390	0.236
391	0.236
391	0.236
392	0.236
392	0.236
393	0.236
393	0.236
394	0.235
394	0.235
394	0.235
395	0.234
395	0.234
396	0.234
396	0.234
397	0.234
397	0.234
398	0.234
398	0.234
399	0.234
399	0.234
400	0.233
400	0.233
400	0.233
401	0.233
401	0.233
402	0.232
402	0.232
403	0.232
403	0.232
404	0.232
404	0.231
405	0.231
405	0.231
405	0.231
406	0.231
406	0.231
407	0.231
407	0.231
408	0.231
408	0.231
409	0.231
409	0.231
410	0.231
410	0.231
411	0.231
411	0.231
411	0.231
412	0.231
412	0.231
413	0.231
413	0.23
414	0.23
414	0.23
415	0.23
415	0.23
416	0.229
416	0.229
416	0.229
417	0.229
417	0.229
418	0.229
418	0.229
419	0.229
419	0.229
420	0.229
420	0.229
421	0.229
421	0.229
421	0.229
422	0.229
422	0.229
423	0.229
423	0.229
424	0.229
424	0.228
425	0.228
425	0.228
426	0.227
426	0.227
427	0.227
427	0.227
427	0.227
428	0.226
428	0.227
429	0.227
429	0.227
430	0.227
430	0.227
431	0.227
431	0.227
432	0.227
432	0.226
432	0.226
433	0.226
433	0.226
434	0.226
434	0.225
435	0.225
435	0.225
436	0.225
436	0.225
437	0.225
437	0.225
437	0.224
438	0.224
438	0.224
439	0.225
439	0.225
440	0.224
440	0.224
441	0.224
441	0.224
442	0.224
442	0.224
442	0.224
443	0.224
443	0.224
444	0.224
444	0.224
445	0.224
445	0.224
446	0.224
446	0.225
447	0.225
447	0.225
447	0.225
448	0.225
448	0.225
449	0.225
449	0.225
450	0.225
450	0.225
451	0.225
451	0.225
452	0.225
452	0.225
452	0.225
453	0.225
453	0.224
454	0.224
454	0.224
455	0.224
455	0.224
456	0.224
456	0.224
457	0.224
457	0.224
458	0.224
458	0.224
458	0.224
459	0.224
459	0.224
460	0.224
460	0.224
461	0.224
461	0.224
462	0.224
462	0.224
463	0.224
463	0.224
463	0.224
464	0.224
464	0.224
465	0.224
465	0.225
466	0.225
466	0.225
467	0.225
467	0.225
467	0.225
468	0.226
468	0.226
469	0.226
469	0.227
470	0.227
470	0.227
471	0.227
471	0.227
472	0.228
472	0.228
472	0.228
473	0.228
473	0.228
474	0.229
474	0.229
475	0.229
475	0.229
476	0.23
476	0.23
477	0.23
477	0.231
477	0.231
478	0.231
478	0.232
479	0.232
479	0.232
480	0.232
480	0.233
481	0.233
481	0.234
482	0.234
482	0.235
482	0.236
483	0.236
483	0.237
484	0.237
484	0.237
485	0.238
485	0.238
486	0.239
486	0.239
487	0.24
487	0.241
487	0.241
488	0.242
488	0.243
489	0.244
489	0.246
490	0.247
490	0.248
491	0.249
491	0.25
492	0.251
492	0.251
492	0.252
493	0.253
493	0.254
494	0.255
494	0.256
495	0.257
495	0.258
496	0.259
496	0.26
496	0.262
497	0.263
497	0.264
498	0.266
498	0.267
499	0.268
499	0.27
500	0.271
500	0.272
501	0.274
501	0.275
501	0.276
502	0.277
502	0.278
503	0.279
503	0.28
504	0.281
504	0.283
505	0.284
505	0.286
506	0.287
506	0.288
506	0.289
507	0.291
507	0.292
508	0.293
508	0.295
509	0.297
509	0.298
510	0.3
510	0.301
511	0.303
511	0.304
511	0.306
512	0.307
512	0.308
513	0.31
513	0.311
514	0.312
514	0.314
515	0.315
515	0.316
515	0.317
516	0.319
516	0.32
517	0.322
517	0.323
518	0.324
518	0.325
519	0.326
519	0.327
520	0.329
520	0.33
520	0.332
521	0.333
521	0.334
522	0.335
522	0.336
523	0.337
523	0.338
524	0.339
524	0.339
524	0.34
525	0.34
525	0.34
526	0.341
526	0.342
527	0.343
527	0.343
528	0.344
528	0.345
529	0.345
529	0.346
529	0.347
530	0.348
530	0.348
531	0.349
531	0.349
532	0.349
532	0.349
533	0.349
533	0.349
533	0.349
534	0.349
534	0.349
535	0.349
535	0.349
536	0.348
536	0.347
537	0.347
537	0.347
538	0.347
538	0.347
538	0.347
539	0.347
539	0.347
540	0.346
540	0.346
541	0.345
541	0.345
542	0.344
542	0.344
542	0.343
543	0.343
543	0.342
544	0.341
544	0.341
545	0.34
545	0.34
546	0.34
546	0.339
547	0.338
547	0.337
547	0.337
548	0.336
548	0.335
549	0.335
549	0.334
550	0.333
550	0.332
551	0.332
551	0.331
551	0.332
552	0.332
552	0.332
553	0.331
553	0.331
554	0.331
554	0.33
555	0.329
555	0.329
556	0.328
556	0.327
556	0.326
557	0.325
557	0.324
558	0.323
558	0.322
559	0.321
559	0.32
560	0.32
560	0.319
560	0.318
561	0.317
561	0.317
562	0.316
562	0.315
563	0.314
563	0.313
564	0.312
564	0.312
564	0.311
565	0.311
565	0.311
566	0.31
566	0.309
567	0.308
567	0.308
568	0.307
568	0.306
568	0.305
569	0.304
569	0.303
570	0.302
570	0.301
571	0.3
571	0.3
572	0.299
572	0.298
573	0.297
573	0.297
573	0.296
574	0.296
574	0.295
575	0.295
575	0.295
576	0.295
576	0.294
577	0.293
577	0.293
577	0.293
578	0.293
578	0.293
579	0.293
579	0.293
580	0.292
580	0.29
581	0.289
581	0.289
581	0.289
582	0.289
582	0.288
583	0.288
583	0.287
584	0.286
584	0.285
585	0.286
585	0.286
585	0.286
586	0.285
586	0.286
587	0.285
587	0.285
588	0.284
588	0.284
589	0.285
589	0.284
590	0.284
590	0.284
590	0.285
591	0.284
591	0.284
592	0.283
592	0.283
593	0.283
593	0.282
594	0.282
594	0.282
594	0.282
595	0.282
595	0.281
596	0.281
596	0.282
597	0.283
597	0.282
598	0.282
598	0.282
598	0.281
599	0.281
599	0.28
600	0.279
600	0.279
601	0.278
601	0.277
602	0.277
602	0.277
602	0.276
603	0.277
603	0.278
604	0.278
604	0.279
605	0.279
605	0.279
606	0.279
606	0.278
606	0.278
607	0.278
607	0.277
608	0.276
608	0.275
609	0.275
609	0.275
610	0.274
610	0.274
610	0.274
611	0.274
611	0.274
612	0.275
612	0.275
613	0.275
613	0.275
614	0.274
614	0.273
614	0.272
615	0.272
615	0.271
616	0.271
616	0.27
617	0.269
617	0.268
618	0.268
618	0.267
618	0.267
619	0.267
619	0.267
620	0.267
620	0.267
621	0.266
621	0.266
622	0.265
622	0.265
622	0.264
623	0.263
623	0.264
624	0.263
624	0.262
625	0.262
625	0.262
626	0.261
626	0.261
626	0.26
627	0.26
627	0.259
628	0.258
628	0.256
629	0.255
629	0.253
630	0.252
630	0.25
630	0.248
631	0.247
631	0.245
632	0.242
632	0.24
633	0.238
633	0.236
634	0.233
634	0.231
634	0.229
635	0.226
635	0.223
636	0.22
636	0.216
637	0.213
637	0.209
638	0.205
638	0.202
638	0.197
639	0.193
639	0.188
640	0.183
640	0.179
641	0.174
641	0.169
642	0.164
642	0.16
642	0.155
643	0.15
643	0.144
644	0.138
644	0.133
645	0.127
645	0.121
646	0.115
646	0.109
646	0.103
647	0.097
647	0.09
648	0.084
648	0.077
649	0.07
649	0.062
650	0.055
650	0.048
650	0.039
651	0.029
651	0.017
652	0.001
652	-0.014
653	-0.027
653	-0.039
653	-0.036
654	-0.017
654	-0.007
655	-0.01
655	-0.015
656	-0.02
656	-0.026
657	-0.029
657	-0.033
657	-0.039
658	-0.046
658	-0.073
659	-0.154
659	-0.251
660	-0.295
660	-0.32
661	-0.349
661	-0.38
661	-0.414
662	-0.447
662	-0.483
663	-0.522
663	-0.567
664	-0.612
664	-0.665
665	-0.719
665	-0.779
665	-0.836
666	-0.896
666	-0.96
667	-1.026
667	-1.093
668	-1.167
668	-1.242
669	-1.318
669	-1.394
669	-1.475
670	-1.549
670	-1.608
671	-1.804
671	-2.035
672	-2.244
672	-2.424
672	-2.548
673	-2.636
673	-2.713
674	-2.749
674	-2.766
675	-2.79
675	-2.928
676	-3.11
676	-3.06
676	-2.835
677	-2.628
677	-2.461
678	-2.276
678	-1.952
679	-1.7
679	-1.572
680	-1.478
680	-1.395
680	-1.325
681	-1.28
681	-1.221
682	-1.181
682	-1.143
683	-1.107
683	-1.089
684	-1.066
684	-1.046
684	-1.023
685	-0.998
685	-0.974
686	-0.948
686	-0.932
687	-0.904
687	-0.891
687	-0.868
688	-0.841
688	-0.82
689	-0.799
689	-0.785
690	-0.766
690	-0.754
691	-0.747
691	-0.75
691	-0.768
692	-0.759
692	-0.751
693	-0.744
693	-0.751
694	-0.745
694	-0.736
695	-0.739
695	-0.735
695	-0.718
696	-0.715
696	-0.691
697	-0.691
697	-0.705
698	-0.708
698	-0.699
698	-0.712
699	-0.715
699	-0.712
700	-0.704
700	-0.718
701	-0.714
701	-0.721
702	-0.721
702	-0.708
702	-0.7
703	-0.691
703	-0.683
704	-0.679
704	-0.679
705	-0.689
705	-0.682
705	-0.669
706	-0.67
706	-0.666
707	-0.67
707	-0.666
708	-0.663
708	-0.655
709	-0.657
709	-0.66
709	-0.65
710	-0.66
710	-0.671
711	-0.661
711	-0.659
712	-0.659
712	-0.673
713	-0.674
713	-0.681
713	-0.67
714	-0.666
714	-0.669
715	-0.658
715	-0.644
716	-0.653
716	-0.656
716	-0.648
717	-0.647
717	-0.651
718	-0.643
718	-0.645
719	-0.652
719	-0.653
720	-0.651
720	-0.66
720	-0.652
721	-0.642
721	-0.643
722	-0.629
722	-0.617
723	-0.615
723	-0.617
723	-0.604
724	-0.605
724	-0.607
725	-0.604
725	-0.613
726	-0.624
726	-0.627
727	-0.632
727	-0.647
727	-0.654
728	-0.658
728	-0.662
729	-0.662
729	-0.666
730	-0.674
730	-0.667
730	-0.657
731	-0.643
731	-0.652
732	-0.659
732	-0.658
733	-0.653
733	-0.659
734	-0.653
734	-0.652
734	-0.64
735	-0.639
735	-0.64
736	-0.65
736	-0.637
737	-0.627
737	-0.629
737	-0.641
738	-0.637
738	-0.639
739	-0.637
739	-0.646
740	-0.645
740	-0.646
741	-0.641
741	-0.642
741	-0.646
742	-0.643
742	-0.641
743	-0.648
743	-0.652
744	-0.648
744	-0.638
744	-0.641
745	-0.645
745	-0.638
746	-0.636
746	-0.63
747	-0.632
747	-0.621
748	-0.606
748	-0.612
748	-0.616
749	-0.618
749	-0.618
750	-0.608
750	-0.612
751	-0.615
751	-0.625
751	-0.625
752	-0.63
752	-0.64
753	-0.634
753	-0.627
754	-0.629
754	-0.622
754	-0.635
755	-0.647
755	-0.657
756	-0.646
756	-0.643
757	-0.64
757	-0.636
758	-0.64
758	-0.639
758	-0.643
759	-0.65
759	-0.638
760	-0.635
760	-0.632
761	-0.645
761	-0.644
761	-0.643
762	-0.65
762	-0.649
763	-0.66
763	-0.656
764	-0.654
764	-0.661
764	-0.664
765	-0.655
765	-0.642
766	-0.65
766	-0.657
767	-0.675
767	-0.669
768	-0.66
768	-0.67
768	-0.675
769	-0.689
769	-0.69
770	-0.695
770	-0.708
771	-0.706
771	-0.709
771	-0.708
772	-0.711
772	-0.707
773	-0.707
773	-0.702
774	-0.701
774	-0.702
775	-0.702
775	-0.696
775	-0.702
776	-0.701
776	-0.689
777	-0.696
777	-0.72
778	-0.715
778	-0.735
778	-0.721
779	-0.743
779	-0.752
780	-0.766
780	-0.765
781	-0.779
781	-0.777
781	-0.794
782	-0.793
782	-0.796
783	-0.783
783	-0.783
784	-0.763
784	-0.751
784	-0.759
785	-0.764
785	-0.748
786	-0.752
786	-0.728
787	-0.712
787	-0.713
788	-0.715
788	-0.724
788	-0.736
789	-0.737
789	-0.718
790	-0.698
790	-0.701
791	-0.701
791	-0.72
791	-0.727
792	-0.721
792	-0.698
793	-0.688
793	-0.665
794	-0.671
794	-0.663
794	-0.674
795	-0.669
795	-0.663
796	-0.647
796	-0.655
797	-0.647
797	-0.657
797	-0.666
798	-0.676
798	-0.669
799	-0.68
799	-0.666
800	-0.672
800	-0.663
801	-0.668
801	-0.654
801	-0.667
802	-0.676
802	-0.677
803	-0.678
803	-0.688
804	-0.684
804	-0.694
804	-0.683
805	-0.687
805	-0.676
806	-0.679
806	-0.663
807	-0.663
807	-0.641
807	-0.632
808	-0.621
808	-0.614
809	-0.601
809	-0.61
810	-0.609
810	-0.604
810	-0.599
811	-0.604
811	-0.594
812	-0.595
812	-0.597
813	-0.604
813	-0.6
813	-0.604
814	-0.606
814	-0.61
815	-0.613
815	-0.618
816	-0.613
816	-0.618
817	-0.626
817	-0.645
817	-0.657
818	-0.666
818	-0.671
819	-0.662
819	-0.662
820	-0.672
820	-0.668
820	-0.678
821	-0.677
821	-0.666
822	-0.634
822	-0.61
823	-0.606
823	-0.606
823	-0.602
824	-0.596
824	-0.598
825	-0.591
825	-0.572
826	-0.569
826	-0.575
826	-0.584
827	-0.579
827	-0.577
828	-0.557
828	-0.56
829	-0.552
829	-0.535
829	-0.527
830	-0.535
830	-0.531
831	-0.523
831	-0.516
832	-0.514
832	-0.505
832	-0.512
833	-0.507
833	-0.51
834	-0.51
834	-0.518
835	-0.505
835	-0.499
835	-0.494
836	-0.491
836	-0.49
837	-0.487
837	-0.478
838	-0.469
838	-0.455
839	-0.442
839	-0.43
839	-0.421
840	-0.412
840	-0.411
841	-0.399
841	-0.389
842	-0.383
842	-0.374
842	-0.367
843	-0.361
843	-0.356
844	-0.351
844	-0.344
845	-0.336
845	-0.324
845	-0.311
846	-0.301
846	-0.287
847	-0.276
847	-0.266
848	-0.254
848	-0.244
848	-0.228
849	-0.218
849	-0.206
850	-0.194
850	-0.191
851	-0.183
851	-0.172
851	-0.164
852	-0.149
852	-0.139
853	-0.13
853	-0.124
854	-0.113
854	-0.102
854	-0.091
855	-0.078
855	-0.071
856	-0.061
856	-0.054
857	-0.048
857	-0.04
857	-0.03
858	-0.021
858	-0.015
859	-0.008
859	0.001
860	0.01
860	0.021
860	0.028
861	0.036
861	0.044
862	0.05
862	0.056
863	0.062
863	0.07
863	0.075
864	0.079
864	0.085
865	0.09
865	0.093
866	0.098
866	0.1
866	0.103
867	0.106
867	0.11
868	0.112
868	0.115
869	0.118
869	0.12
869	0.122
870	0.124
870	0.126
871	0.129
871	0.131
872	0.132
872	0.133
872	0.134
873	0.134
873	0.135
874	0.135
874	0.134
875	0.134
875	0.133
875	0.132
876	0.13
876	0.129
877	0.128
877	0.127
878	0.125
878	0.123
878	0.121
879	0.119
879	0.118
880	0.116
880	0.116
881	0.116
881	0.116
881	0.116
882	0.116
882	0.115
883	0.115
883	0.114
884	0.114
884	0.113
884	0.112
885	0.111
885	0.11
886	0.11
886	0.109
887	0.108
887	0.108
887	0.107
888	0.108
888	0.107
889	0.108
889	0.108
890	0.109
890	0.109
890	0.108
891	0.108
891	0.108
892	0.109
892	0.108
893	0.108
893	0.108
893	0.108
894	0.107
894	0.106
895	0.106
895	0.106
895	0.105
896	0.104
896	0.103
897	0.102
897	0.101
898	0.1
898	0.099
898	0.1
899	0.1
899	0.1
900	0.101
900	0.101
901	0.102
901	0.103
901	0.103
902	0.104
902	0.104
903	0.104
903	0.104
904	0.104
904	0.105
904	0.105
905	0.106
905	0.106
906	0.106
906	0.107
907	0.107
907	0.106
907	0.106
908	0.106
908	0.105
909	0.105
909	0.104
910	0.104
910	0.103
910	0.103
911	0.103
911	0.104
912	0.104
912	0.105
913	0.105
913	0.105
913	0.106
914	0.107
914	0.107
915	0.107
915	0.108
916	0.108
916	0.108
916	0.108
917	0.108
917	0.108
918	0.107
918	0.107
918	0.106
919	0.106
919	0.105
920	0.105
920	0.105
921	0.105
921	0.105
921	0.105
922	0.105
922	0.105
923	0.105
923	0.105
924	0.105
924	0.104
924	0.104
925	0.103
925	0.102
926	0.101
926	0.1
927	0.1
927	0.099
927	0.099
928	0.099
928	0.098
929	0.098
929	0.098
930	0.098
930	0.097
930	0.097
931	0.097
931	0.097
932	0.096
932	0.095
933	0.094
933	0.093
933	0.091
934	0.09
934	0.089
935	0.088
935	0.087
935	0.085
936	0.084
936	0.083
937	0.082
937	0.082
938	0.082
938	0.082
938	0.082
939	0.083
939	0.084
940	0.084
940	0.085
941	0.085
941	0.086
941	0.087
942	0.088
942	0.089
943	0.089
943	0.089
944	0.089
944	0.089
944	0.089
945	0.088
945	0.087
946	0.086
946	0.085
946	0.084
947	0.083
947	0.083
948	0.083
948	0.083
949	0.083
949	0.083
949	0.084
950	0.084
950	0.085
951	0.086
951	0.087
952	0.088
952	0.089
952	0.089
953	0.09
953	0.091
954	0.091
954	0.092
955	0.093
955	0.095
955	0.096
956	0.096
956	0.097
957	0.097
957	0.097
957	0.097
958	0.097
958	0.098
959	0.097
959	0.097
960	0.097
960	0.096
960	0.096
961	0.096
961	0.096
962	0.096
962	0.096
963	0.096
963	0.095
963	0.095
964	0.095
964	0.095
965	0.096
965	0.095
966	0.095
966	0.095
966	0.095
967	0.095
967	0.094
968	0.094
968	0.093
968	0.093
969	0.092
969	0.092
970	0.092
970	0.092
971	0.091
971	0.092
971	0.092
972	0.092
972	0.092
973	0.092
973	0.092
974	0.091
974	0.091
974	0.091
975	0.09
975	0.089
976	0.088
976	0.088
976	0.088
977	0.087
977	0.087
978	0.087
978	0.086
979	0.086
979	0.085
979	0.085
980	0.085
980	0.084
981	0.084
981	0.084
982	0.083
982	0.083
982	0.083
983	0.082
983	0.082
984	0.082
984	0.083
984	0.083
985	0.084
985	0.085
986	0.085
986	0.085
987	0.085
987	0.085
987	0.085
988	0.085
988	0.084
989	0.083
989	0.082
990	0.081
990	0.08
990	0.079
991	0.078
991	0.078
992	0.078
992	0.077
992	0.077
993	0.077
993	0.077
994	0.077
994	0.077
995	0.077
995	0.076
995	0.076
996	0.076
996	0.075
997	0.075
997	0.075
997	0.075
998	0.076
998	0.076
999	0.076
999	0.076
1000	0.077
1000	0.077
1000	0.077
1001	0.077
1001	0.077
1002	0.077
1002	0.077
1003	0.077
1003	0.077
1003	0.076
1004	0.076
1004	0.075
1005	0.074
1005	0.073
1005	0.072
1006	0.071
1006	0.07
1007	0.07
1007	0.069
1008	0.068
1008	0.068
1008	0.068
1009	0.068
1009	0.067
1010	0.067
1010	0.067
1010	0.067
1011	0.067
1011	0.066
1012	0.065
1012	0.065
1013	0.064
1013	0.062
1013	0.061
1014	0.06
1014	0.06
1015	0.059
1015	0.058
1016	0.057
1016	0.056
1016	0.056
1017	0.055
1017	0.054
1018	0.054
1018	0.053
1018	0.053
1019	0.052
1019	0.051
1020	0.051
1020	0.05
1021	0.05
1021	0.049
1021	0.048
1022	0.047
1022	0.047
1023	0.046
1023	0.046
1023	0.045
1024	0.045
1024	0.045
1025	0.045
1025	0.045
1026	0.045
1026	0.046
1026	0.046
1027	0.046
1027	0.047
1028	0.047
1028	0.047
1028	0.047
1029	0.047
1029	0.047
1030	0.046
1030	0.046
1031	0.045
1031	0.046
1031	0.045
1032	0.045
1032	0.045
1033	0.045
1033	0.046
1033	0.046
1034	0.046
1034	0.046
1035	0.047
1035	0.047
1036	0.046
1036	0.046
1036	0.046
1037	0.046
1037	0.046
1038	0.046
1038	0.046
1039	0.046
1039	0.046
1039	0.047
1040	0.047
1040	0.047
1041	0.048
1041	0.048
1041	0.048
1042	0.048
1042	0.047
1043	0.047
1043	0.046
1044	0.046
1044	0.045
1044	0.045
1045	0.044
1045	0.044
1046	0.043
1046	0.043
1046	0.043
1047	0.044
1047	0.044
1048	0.044
1048	0.045
1049	0.045
1049	0.046
1049	0.046
1050	0.046
1050	0.047
1051	0.046
1051	0.046
1051	0.047
1052	0.047
1052	0.047
1053	0.047
1053	0.047
1053	0.047
1054	0.046
1054	0.046
1055	0.046
1055	0.045
1056	0.045
1056	0.043
1056	0.042
1057	0.041
1057	0.041
1058	0.04
1058	0.04
1058	0.039
1059	0.039
1059	0.038
1060	0.038
1060	0.038
1061	0.038
1061	0.038
1061	0.038
1062	0.038
1062	0.038
1063	0.038
1063	0.038
1063	0.039
1064	0.039
1064	0.039
1065	0.039
1065	0.039
1066	0.038
1066	0.038
1066	0.037
1067	0.037
1067	0.037
1068	0.036
1068	0.035
1068	0.035
1069	0.034
1069	0.034
1070	0.033
1070	0.033
1071	0.033
1071	0.033
1071	0.032
1072	0.031
1072	0.031
1073	0.031
1073	0.031
1073	0.03
1074	0.031
1074	0.031
1075	0.03
1075	0.03
1076	0.03
1076	0.03
1076	0.03
1077	0.029
1077	0.029
1078	0.028
1078	0.027
1078	0.027
1079	0.026
1079	0.025
1080	0.024
1080	0.023
1080	0.022
1081	0.021
1081	0.021
1082	0.02
1082	0.019
1083	0.019
1083	0.017
1083	0.017
1084	0.016
1084	0.016
1085	0.015
1085	0.015
1085	0.015
1086	0.014
1086	0.013
1087	0.014
1087	0.014
1088	0.013
1088	0.013
1088	0.012
1089	0.012
1089	0.011
1090	0.01
1090	0.009
1090	0.009
1091	0.008
1091	0.007
1092	0.006
1092	0.006
1092	0.005
1093	0.004
1093	0.004
1094	0.004
1094	0.003
1095	0.002
1095	0.002
1095	0.001
1096	0.001
1096	0
1097	0
1097	0
1097	0.001
1098	-0
1098	-0.002
1099	-0.003
1099	-0.003
1100	-0.005
1100	-0.006
1100	-0.009
1101	-0.011
1101	-0.015
1102	-0.018
1102	-0.021
1102	-0.022
1103	-0.023
1103	-0.024
1104	-0.026
1104	-0.027
1104	-0.029
1105	-0.031
1105	-0.034
1106	-0.037
1106	-0.038
1107	-0.042
1107	-0.046
1107	-0.051
1108	-0.053
1108	-0.055
1109	-0.059
1109	-0.064
1109	-0.066
1110	-0.066
1110	-0.068
1111	-0.072
1111	-0.07
