Data from 17C_3.4A_30min_2sec_int_Absorbance__283__01004.txt Node

Date: Mon Jun 19 16:59:40 CEST 2023
User: Marek
Spectrometer: MAYP115816
Trigger mode: 0
Integration Time (sec): 2.500000E-1
Scans to average: 10
Electric dark correction enabled: true
Nonlinearity correction enabled: true
Boxcar width: 5
XAxis mode: Wavelengths
Number of Pixels in Spectrum: 2068
>>>>>Begin Spectral Data<<<<<
199	-0.633
199	-0.662
200	-0.571
200	-0.516
201	-0.478
201	-0.465
202	-0.445
202	-0.433
203	-0.423
203	-0.42
204	-0.404
204	-0.392
205	-0.365
205	-0.357
205	-0.356
206	-0.358
206	-0.359
207	-0.352
207	-0.353
208	-0.356
208	-0.355
209	-0.353
209	-0.355
210	-0.361
210	-0.368
211	-0.368
211	-0.37
212	-0.371
212	-0.378
213	-0.377
213	-0.375
213	-0.379
214	-0.374
214	-0.372
215	-0.371
215	-0.375
216	-0.379
216	-0.385
217	-0.381
217	-0.388
218	-0.391
218	-0.392
219	-0.394
219	-0.404
220	-0.407
220	-0.415
221	-0.413
221	-0.417
221	-0.411
222	-0.408
222	-0.407
223	-0.409
223	-0.413
224	-0.418
224	-0.418
225	-0.413
225	-0.409
226	-0.416
226	-0.416
227	-0.422
227	-0.431
228	-0.431
228	-0.433
229	-0.435
229	-0.427
229	-0.422
230	-0.429
230	-0.43
231	-0.423
231	-0.414
232	-0.408
232	-0.407
233	-0.401
233	-0.4
234	-0.395
234	-0.393
235	-0.397
235	-0.4
236	-0.4
236	-0.403
236	-0.411
237	-0.417
237	-0.419
238	-0.427
238	-0.425
239	-0.428
239	-0.435
240	-0.436
240	-0.436
241	-0.442
241	-0.441
242	-0.445
242	-0.441
243	-0.435
243	-0.433
243	-0.439
244	-0.439
244	-0.439
245	-0.45
245	-0.446
246	-0.451
246	-0.456
247	-0.455
247	-0.458
248	-0.467
248	-0.465
249	-0.471
249	-0.48
250	-0.476
250	-0.472
250	-0.476
251	-0.472
251	-0.472
252	-0.475
252	-0.465
253	-0.468
253	-0.48
254	-0.479
254	-0.477
255	-0.486
255	-0.48
256	-0.476
256	-0.489
257	-0.486
257	-0.484
258	-0.503
258	-0.501
258	-0.498
259	-0.494
259	-0.502
260	-0.501
260	-0.507
261	-0.518
261	-0.508
262	-0.507
262	-0.506
263	-0.493
263	-0.488
264	-0.488
264	-0.495
265	-0.489
265	-0.495
265	-0.496
266	-0.49
266	-0.488
267	-0.499
267	-0.508
268	-0.524
268	-0.531
269	-0.53
269	-0.525
270	-0.53
270	-0.535
271	-0.535
271	-0.542
272	-0.542
272	-0.537
272	-0.529
273	-0.527
273	-0.536
274	-0.541
274	-0.546
275	-0.546
275	-0.537
276	-0.544
276	-0.536
277	-0.544
277	-0.562
278	-0.57
278	-0.564
278	-0.558
279	-0.562
279	-0.571
280	-0.569
280	-0.571
281	-0.565
281	-0.574
282	-0.563
282	-0.564
283	-0.554
283	-0.557
284	-0.551
284	-0.538
285	-0.534
285	-0.53
285	-0.528
286	-0.535
286	-0.529
287	-0.531
287	-0.516
288	-0.508
288	-0.518
289	-0.531
289	-0.54
290	-0.529
290	-0.528
291	-0.523
291	-0.516
292	-0.516
292	-0.52
292	-0.524
293	-0.529
293	-0.516
294	-0.503
294	-0.496
295	-0.494
295	-0.492
296	-0.492
296	-0.492
297	-0.489
297	-0.472
298	-0.464
298	-0.473
298	-0.463
299	-0.458
299	-0.46
300	-0.456
300	-0.454
301	-0.45
301	-0.447
302	-0.452
302	-0.461
303	-0.448
303	-0.435
304	-0.436
304	-0.436
305	-0.436
305	-0.435
305	-0.431
306	-0.417
306	-0.412
307	-0.401
307	-0.402
308	-0.414
308	-0.414
309	-0.417
309	-0.404
310	-0.393
310	-0.39
311	-0.382
311	-0.39
311	-0.389
312	-0.385
312	-0.383
313	-0.372
313	-0.371
314	-0.367
314	-0.368
315	-0.369
315	-0.369
316	-0.364
316	-0.354
317	-0.347
317	-0.345
318	-0.336
318	-0.332
318	-0.331
319	-0.321
319	-0.32
320	-0.314
320	-0.318
321	-0.322
321	-0.322
322	-0.313
322	-0.307
323	-0.307
323	-0.3
324	-0.292
324	-0.284
324	-0.276
325	-0.266
325	-0.246
326	-0.233
326	-0.218
327	-0.207
327	-0.188
328	-0.165
328	-0.148
329	-0.125
329	-0.104
330	-0.078
330	-0.05
330	-0.025
331	0.002
331	0.028
332	0.053
332	0.073
333	0.095
333	0.116
334	0.134
334	0.148
335	0.164
335	0.176
336	0.188
336	0.2
336	0.208
337	0.218
337	0.226
338	0.232
338	0.237
339	0.243
339	0.248
340	0.252
340	0.255
341	0.258
341	0.261
342	0.264
342	0.266
342	0.268
343	0.27
343	0.273
344	0.274
344	0.275
345	0.276
345	0.277
346	0.278
346	0.279
347	0.279
347	0.28
348	0.28
348	0.28
348	0.28
349	0.28
349	0.281
350	0.281
350	0.281
351	0.281
351	0.281
352	0.281
352	0.281
353	0.281
353	0.281
354	0.281
354	0.28
354	0.28
355	0.28
355	0.28
356	0.28
356	0.28
357	0.279
357	0.278
358	0.278
358	0.278
359	0.278
359	0.277
360	0.277
360	0.277
360	0.276
361	0.276
361	0.276
362	0.276
362	0.276
363	0.276
363	0.276
364	0.276
364	0.276
365	0.276
365	0.276
366	0.276
366	0.276
366	0.276
367	0.276
367	0.276
368	0.275
368	0.275
369	0.275
369	0.275
370	0.275
370	0.274
371	0.274
371	0.274
372	0.273
372	0.273
372	0.273
373	0.273
373	0.273
374	0.273
374	0.273
375	0.272
375	0.272
376	0.272
376	0.272
377	0.272
377	0.272
378	0.272
378	0.272
378	0.272
379	0.272
379	0.272
380	0.271
380	0.271
381	0.271
381	0.271
382	0.27
382	0.27
383	0.27
383	0.27
383	0.27
384	0.269
384	0.269
385	0.269
385	0.269
386	0.269
386	0.269
387	0.269
387	0.268
388	0.268
388	0.268
389	0.268
389	0.268
389	0.268
390	0.268
390	0.268
391	0.268
391	0.268
392	0.268
392	0.267
393	0.267
393	0.267
394	0.267
394	0.267
394	0.266
395	0.266
395	0.266
396	0.266
396	0.265
397	0.265
397	0.265
398	0.265
398	0.265
399	0.265
399	0.265
400	0.265
400	0.264
400	0.264
401	0.264
401	0.264
402	0.264
402	0.264
403	0.263
403	0.263
404	0.263
404	0.263
405	0.263
405	0.263
405	0.262
406	0.262
406	0.262
407	0.262
407	0.262
408	0.261
408	0.261
409	0.261
409	0.261
410	0.261
410	0.261
411	0.261
411	0.26
411	0.26
412	0.26
412	0.26
413	0.26
413	0.26
414	0.26
414	0.26
415	0.26
415	0.259
416	0.259
416	0.259
416	0.259
417	0.259
417	0.259
418	0.259
418	0.259
419	0.259
419	0.259
420	0.259
420	0.259
421	0.259
421	0.259
421	0.259
422	0.259
422	0.259
423	0.258
423	0.258
424	0.258
424	0.258
425	0.257
425	0.257
426	0.257
426	0.256
427	0.256
427	0.256
427	0.256
428	0.256
428	0.256
429	0.256
429	0.255
430	0.255
430	0.255
431	0.255
431	0.255
432	0.255
432	0.255
432	0.255
433	0.254
433	0.254
434	0.254
434	0.254
435	0.254
435	0.254
436	0.254
436	0.253
437	0.253
437	0.253
437	0.253
438	0.253
438	0.253
439	0.253
439	0.253
440	0.253
440	0.253
441	0.252
441	0.252
442	0.252
442	0.252
442	0.252
443	0.252
443	0.252
444	0.252
444	0.252
445	0.252
445	0.253
446	0.253
446	0.253
447	0.253
447	0.253
447	0.253
448	0.253
448	0.253
449	0.254
449	0.254
450	0.254
450	0.254
451	0.254
451	0.254
452	0.254
452	0.254
452	0.254
453	0.253
453	0.253
454	0.253
454	0.253
455	0.253
455	0.253
456	0.253
456	0.253
457	0.253
457	0.253
458	0.253
458	0.253
458	0.254
459	0.254
459	0.253
460	0.253
460	0.253
461	0.253
461	0.253
462	0.253
462	0.253
463	0.253
463	0.253
463	0.254
464	0.254
464	0.254
465	0.254
465	0.254
466	0.254
466	0.254
467	0.255
467	0.255
467	0.255
468	0.255
468	0.255
469	0.256
469	0.256
470	0.257
470	0.257
471	0.257
471	0.257
472	0.257
472	0.257
472	0.258
473	0.258
473	0.258
474	0.259
474	0.259
475	0.259
475	0.26
476	0.26
476	0.261
477	0.261
477	0.261
477	0.262
478	0.262
478	0.263
479	0.263
479	0.264
480	0.264
480	0.264
481	0.265
481	0.266
482	0.266
482	0.267
482	0.268
483	0.269
483	0.269
484	0.27
484	0.27
485	0.271
485	0.272
486	0.273
486	0.273
487	0.274
487	0.275
487	0.276
488	0.277
488	0.278
489	0.279
489	0.281
490	0.282
490	0.284
491	0.285
491	0.286
492	0.287
492	0.289
492	0.29
493	0.291
493	0.292
494	0.293
494	0.294
495	0.295
495	0.297
496	0.298
496	0.299
496	0.301
497	0.303
497	0.304
498	0.305
498	0.307
499	0.308
499	0.31
500	0.312
500	0.314
501	0.315
501	0.316
501	0.318
502	0.319
502	0.321
503	0.322
503	0.324
504	0.326
504	0.327
505	0.329
505	0.331
506	0.333
506	0.334
506	0.336
507	0.338
507	0.34
508	0.341
508	0.343
509	0.345
509	0.347
510	0.349
510	0.35
511	0.352
511	0.354
511	0.356
512	0.358
512	0.359
513	0.361
513	0.362
514	0.364
514	0.366
515	0.367
515	0.368
515	0.37
516	0.371
516	0.373
517	0.375
517	0.377
518	0.378
518	0.38
519	0.381
519	0.383
520	0.385
520	0.387
520	0.388
521	0.39
521	0.391
522	0.393
522	0.394
523	0.395
523	0.397
524	0.397
524	0.398
524	0.398
525	0.399
525	0.399
526	0.4
526	0.401
527	0.402
527	0.402
528	0.403
528	0.403
529	0.404
529	0.405
529	0.406
530	0.407
530	0.407
531	0.408
531	0.408
532	0.408
532	0.409
533	0.409
533	0.409
533	0.409
534	0.409
534	0.408
535	0.409
535	0.409
536	0.408
536	0.407
537	0.407
537	0.407
538	0.407
538	0.406
538	0.406
539	0.406
539	0.406
540	0.405
540	0.404
541	0.404
541	0.403
542	0.403
542	0.402
542	0.401
543	0.4
543	0.399
544	0.398
544	0.398
545	0.397
545	0.397
546	0.396
546	0.395
547	0.394
547	0.393
547	0.392
548	0.392
548	0.391
549	0.39
549	0.389
550	0.388
550	0.387
551	0.386
551	0.386
551	0.385
552	0.385
552	0.385
553	0.384
553	0.384
554	0.383
554	0.382
555	0.381
555	0.38
556	0.379
556	0.378
556	0.377
557	0.376
557	0.375
558	0.374
558	0.372
559	0.371
559	0.37
560	0.369
560	0.368
560	0.367
561	0.366
561	0.365
562	0.364
562	0.363
563	0.361
563	0.36
564	0.359
564	0.359
564	0.358
565	0.357
565	0.357
566	0.356
566	0.355
567	0.354
567	0.353
568	0.352
568	0.35
568	0.35
569	0.348
569	0.347
570	0.346
570	0.344
571	0.343
571	0.342
572	0.341
572	0.34
573	0.34
573	0.339
573	0.338
574	0.337
574	0.337
575	0.336
575	0.336
576	0.335
576	0.334
577	0.333
577	0.333
577	0.332
578	0.332
578	0.332
579	0.331
579	0.331
580	0.33
580	0.328
581	0.327
581	0.327
581	0.326
582	0.326
582	0.325
583	0.325
583	0.324
584	0.322
584	0.321
585	0.321
585	0.321
585	0.321
586	0.321
586	0.321
587	0.32
587	0.32
588	0.319
588	0.319
589	0.319
589	0.318
590	0.318
590	0.317
590	0.318
591	0.317
591	0.316
592	0.315
592	0.314
593	0.314
593	0.313
594	0.313
594	0.312
594	0.312
595	0.312
595	0.311
596	0.311
596	0.312
597	0.312
597	0.311
598	0.31
598	0.31
598	0.309
599	0.308
599	0.307
600	0.306
600	0.305
601	0.305
601	0.304
602	0.303
602	0.303
602	0.302
603	0.303
603	0.303
604	0.303
604	0.304
605	0.304
605	0.303
606	0.303
606	0.302
606	0.301
607	0.3
607	0.3
608	0.299
608	0.297
609	0.296
609	0.296
610	0.295
610	0.295
610	0.294
611	0.294
611	0.294
612	0.295
612	0.295
613	0.294
613	0.294
614	0.293
614	0.292
614	0.291
615	0.29
615	0.289
616	0.289
616	0.288
617	0.287
617	0.285
618	0.284
618	0.284
618	0.283
619	0.283
619	0.282
620	0.282
620	0.281
621	0.28
621	0.28
622	0.279
622	0.278
622	0.277
623	0.276
623	0.276
624	0.275
624	0.274
625	0.274
625	0.273
626	0.272
626	0.271
626	0.27
627	0.27
627	0.268
628	0.267
628	0.265
629	0.263
629	0.262
630	0.26
630	0.257
630	0.256
631	0.253
631	0.251
632	0.248
632	0.245
633	0.243
633	0.24
634	0.237
634	0.234
634	0.231
635	0.228
635	0.224
636	0.221
636	0.217
637	0.213
637	0.209
638	0.204
638	0.2
638	0.195
639	0.19
639	0.185
640	0.179
640	0.174
641	0.169
641	0.163
642	0.158
642	0.153
642	0.147
643	0.142
643	0.135
644	0.129
644	0.123
645	0.116
645	0.11
646	0.104
646	0.097
646	0.09
647	0.083
647	0.077
648	0.069
648	0.062
649	0.055
649	0.047
650	0.04
650	0.032
650	0.024
651	0.014
651	0.002
652	-0.013
652	-0.027
653	-0.04
653	-0.052
653	-0.049
654	-0.028
654	-0.018
655	-0.021
655	-0.025
656	-0.031
656	-0.037
657	-0.04
657	-0.044
657	-0.05
658	-0.056
658	-0.083
659	-0.164
659	-0.261
660	-0.305
660	-0.332
661	-0.36
661	-0.391
661	-0.426
662	-0.46
662	-0.496
663	-0.539
663	-0.586
664	-0.633
664	-0.688
665	-0.742
665	-0.804
665	-0.863
666	-0.923
666	-0.988
667	-1.056
667	-1.124
668	-1.199
668	-1.274
669	-1.352
669	-1.431
669	-1.516
670	-1.603
670	-1.703
671	-1.928
671	-2.112
672	-2.3
672	-2.468
672	-2.583
673	-2.665
673	-2.738
674	-2.767
674	-2.782
675	-2.804
675	-2.935
676	-3.101
676	-3.049
676	-2.822
677	-2.612
677	-2.439
678	-2.243
678	-1.879
679	-1.669
679	-1.551
680	-1.462
680	-1.382
680	-1.315
681	-1.272
681	-1.214
682	-1.174
682	-1.137
683	-1.1
683	-1.082
684	-1.059
684	-1.037
684	-1.013
685	-0.986
685	-0.964
686	-0.938
686	-0.92
687	-0.894
687	-0.88
687	-0.86
688	-0.833
688	-0.811
689	-0.788
689	-0.773
690	-0.753
690	-0.738
691	-0.731
691	-0.734
691	-0.748
692	-0.738
692	-0.728
693	-0.724
693	-0.73
694	-0.725
694	-0.718
695	-0.722
695	-0.721
695	-0.703
696	-0.699
696	-0.675
697	-0.674
697	-0.686
698	-0.686
698	-0.676
698	-0.687
699	-0.689
699	-0.685
700	-0.677
700	-0.691
701	-0.688
701	-0.696
702	-0.697
702	-0.686
702	-0.678
703	-0.67
703	-0.662
704	-0.659
704	-0.658
705	-0.667
705	-0.661
705	-0.649
706	-0.649
706	-0.643
707	-0.646
707	-0.641
708	-0.64
708	-0.631
709	-0.633
709	-0.635
709	-0.628
710	-0.633
710	-0.645
711	-0.635
711	-0.638
712	-0.638
712	-0.652
713	-0.649
713	-0.659
713	-0.649
714	-0.644
714	-0.642
715	-0.634
715	-0.622
716	-0.627
716	-0.628
716	-0.621
717	-0.622
717	-0.625
718	-0.615
718	-0.615
719	-0.621
719	-0.624
720	-0.618
720	-0.623
720	-0.619
721	-0.607
721	-0.607
722	-0.593
722	-0.584
723	-0.582
723	-0.585
723	-0.572
724	-0.577
724	-0.583
725	-0.584
725	-0.59
726	-0.603
726	-0.608
727	-0.615
727	-0.628
727	-0.637
728	-0.638
728	-0.646
729	-0.642
729	-0.646
730	-0.651
730	-0.645
730	-0.635
731	-0.618
731	-0.628
732	-0.634
732	-0.633
733	-0.632
733	-0.635
734	-0.631
734	-0.631
734	-0.62
735	-0.617
735	-0.616
736	-0.626
736	-0.612
737	-0.603
737	-0.605
737	-0.613
738	-0.608
738	-0.606
739	-0.601
739	-0.613
740	-0.612
740	-0.61
741	-0.607
741	-0.608
741	-0.612
742	-0.607
742	-0.608
743	-0.616
743	-0.619
744	-0.616
744	-0.608
744	-0.609
745	-0.618
745	-0.61
746	-0.608
746	-0.605
747	-0.607
747	-0.596
748	-0.585
748	-0.592
748	-0.596
749	-0.593
749	-0.594
750	-0.582
750	-0.583
751	-0.587
751	-0.595
751	-0.599
752	-0.604
752	-0.611
753	-0.607
753	-0.604
754	-0.608
754	-0.602
754	-0.615
755	-0.633
755	-0.643
756	-0.634
756	-0.631
757	-0.63
757	-0.627
758	-0.625
758	-0.623
758	-0.626
759	-0.635
759	-0.619
760	-0.607
760	-0.605
761	-0.612
761	-0.609
761	-0.609
762	-0.616
762	-0.619
763	-0.629
763	-0.628
764	-0.623
764	-0.63
764	-0.637
765	-0.625
765	-0.613
766	-0.621
766	-0.628
767	-0.64
767	-0.631
768	-0.621
768	-0.628
768	-0.633
769	-0.652
769	-0.655
770	-0.661
770	-0.674
771	-0.67
771	-0.671
771	-0.673
772	-0.676
772	-0.675
773	-0.677
773	-0.671
774	-0.667
774	-0.666
775	-0.665
775	-0.661
775	-0.67
776	-0.666
776	-0.657
777	-0.668
777	-0.689
778	-0.684
778	-0.707
778	-0.694
779	-0.717
779	-0.727
780	-0.738
780	-0.735
781	-0.75
781	-0.745
781	-0.759
782	-0.762
782	-0.765
783	-0.751
783	-0.752
784	-0.733
784	-0.725
784	-0.736
785	-0.745
785	-0.73
786	-0.735
786	-0.713
787	-0.696
787	-0.698
788	-0.699
788	-0.706
788	-0.715
789	-0.715
789	-0.693
790	-0.674
790	-0.674
791	-0.673
791	-0.688
791	-0.696
792	-0.687
792	-0.662
793	-0.653
793	-0.628
794	-0.631
794	-0.626
794	-0.636
795	-0.635
795	-0.627
796	-0.613
796	-0.618
797	-0.612
797	-0.626
797	-0.633
798	-0.65
798	-0.643
799	-0.653
799	-0.636
800	-0.642
800	-0.637
801	-0.641
801	-0.63
801	-0.642
802	-0.648
802	-0.649
803	-0.648
803	-0.66
804	-0.655
804	-0.666
804	-0.655
805	-0.659
805	-0.65
806	-0.652
806	-0.637
807	-0.635
807	-0.618
807	-0.607
808	-0.595
808	-0.589
809	-0.575
809	-0.583
810	-0.58
810	-0.572
810	-0.571
811	-0.575
811	-0.57
812	-0.569
812	-0.571
813	-0.578
813	-0.572
813	-0.579
814	-0.581
814	-0.586
815	-0.589
815	-0.589
816	-0.585
816	-0.587
817	-0.594
817	-0.614
817	-0.627
818	-0.637
818	-0.637
819	-0.628
819	-0.629
820	-0.64
820	-0.637
820	-0.646
821	-0.648
821	-0.636
822	-0.604
822	-0.579
823	-0.576
823	-0.579
823	-0.575
824	-0.568
824	-0.572
825	-0.565
825	-0.545
826	-0.54
826	-0.546
826	-0.556
827	-0.554
827	-0.55
828	-0.532
828	-0.533
829	-0.525
829	-0.51
829	-0.501
830	-0.511
830	-0.504
831	-0.499
831	-0.49
832	-0.487
832	-0.478
832	-0.484
833	-0.479
833	-0.48
834	-0.476
834	-0.485
835	-0.473
835	-0.468
835	-0.464
836	-0.46
836	-0.461
837	-0.46
837	-0.453
838	-0.444
838	-0.434
839	-0.425
839	-0.414
839	-0.406
840	-0.396
840	-0.39
841	-0.38
841	-0.369
842	-0.362
842	-0.35
842	-0.343
843	-0.337
843	-0.331
844	-0.321
844	-0.315
845	-0.308
845	-0.3
845	-0.287
846	-0.276
846	-0.265
847	-0.255
847	-0.246
848	-0.235
848	-0.226
848	-0.21
849	-0.201
849	-0.191
850	-0.179
850	-0.176
851	-0.167
851	-0.158
851	-0.15
852	-0.135
852	-0.125
853	-0.118
853	-0.116
854	-0.107
854	-0.097
854	-0.087
855	-0.076
855	-0.072
856	-0.064
856	-0.057
857	-0.052
857	-0.044
857	-0.034
858	-0.024
858	-0.018
859	-0.012
859	-0.003
860	0.004
860	0.015
860	0.021
861	0.027
861	0.033
862	0.038
862	0.044
863	0.05
863	0.056
863	0.061
864	0.064
864	0.068
865	0.073
865	0.077
866	0.08
866	0.083
866	0.085
867	0.088
867	0.091
868	0.093
868	0.096
869	0.098
869	0.1
869	0.102
870	0.105
870	0.106
871	0.109
871	0.11
872	0.111
872	0.112
872	0.113
873	0.114
873	0.114
874	0.114
874	0.114
875	0.113
875	0.112
875	0.111
876	0.11
876	0.109
877	0.108
877	0.107
878	0.105
878	0.103
878	0.101
879	0.099
879	0.098
880	0.097
880	0.097
881	0.096
881	0.096
881	0.096
882	0.096
882	0.096
883	0.095
883	0.094
884	0.094
884	0.093
884	0.093
885	0.092
885	0.091
886	0.091
886	0.09
887	0.089
887	0.089
887	0.089
888	0.089
888	0.089
889	0.089
889	0.089
890	0.09
890	0.09
890	0.09
891	0.09
891	0.09
892	0.09
892	0.09
893	0.09
893	0.089
893	0.089
894	0.088
894	0.088
895	0.087
895	0.086
895	0.086
896	0.085
896	0.084
897	0.083
897	0.081
898	0.081
898	0.08
898	0.08
899	0.08
899	0.08
900	0.081
900	0.081
901	0.082
901	0.082
901	0.083
902	0.083
902	0.084
903	0.084
903	0.084
904	0.085
904	0.085
904	0.085
905	0.086
905	0.087
906	0.087
906	0.087
907	0.087
907	0.087
907	0.086
908	0.086
908	0.086
909	0.085
909	0.085
910	0.085
910	0.084
910	0.084
911	0.084
911	0.085
912	0.085
912	0.085
913	0.086
913	0.086
913	0.087
914	0.087
914	0.088
915	0.088
915	0.089
916	0.089
916	0.089
916	0.089
917	0.089
917	0.088
918	0.088
918	0.087
918	0.087
919	0.086
919	0.086
920	0.086
920	0.086
921	0.086
921	0.086
921	0.086
922	0.086
922	0.086
923	0.086
923	0.086
924	0.086
924	0.085
924	0.085
925	0.084
925	0.083
926	0.083
926	0.082
927	0.081
927	0.081
927	0.08
928	0.08
928	0.08
929	0.08
929	0.079
930	0.079
930	0.079
930	0.078
931	0.078
931	0.078
932	0.078
932	0.076
933	0.075
933	0.074
933	0.073
934	0.071
934	0.07
935	0.069
935	0.068
935	0.067
936	0.066
936	0.064
937	0.063
937	0.063
938	0.064
938	0.064
938	0.064
939	0.065
939	0.066
940	0.067
940	0.067
941	0.068
941	0.069
941	0.07
942	0.071
942	0.071
943	0.072
943	0.072
944	0.072
944	0.072
944	0.071
945	0.07
945	0.069
946	0.068
946	0.067
946	0.066
947	0.065
947	0.065
948	0.065
948	0.065
949	0.065
949	0.066
949	0.066
950	0.067
950	0.068
951	0.069
951	0.07
952	0.071
952	0.071
952	0.072
953	0.073
953	0.074
954	0.074
954	0.075
955	0.076
955	0.077
955	0.078
956	0.079
956	0.079
957	0.079
957	0.08
957	0.08
958	0.079
958	0.08
959	0.08
959	0.08
960	0.08
960	0.08
960	0.08
961	0.079
961	0.079
962	0.079
962	0.078
963	0.078
963	0.078
963	0.078
964	0.078
964	0.078
965	0.078
965	0.078
966	0.078
966	0.078
966	0.078
967	0.078
967	0.077
968	0.077
968	0.076
968	0.076
969	0.076
969	0.075
970	0.075
970	0.075
971	0.075
971	0.075
971	0.075
972	0.076
972	0.076
973	0.075
973	0.075
974	0.074
974	0.074
974	0.074
975	0.073
975	0.072
976	0.071
976	0.07
976	0.07
977	0.07
977	0.07
978	0.07
978	0.069
979	0.069
979	0.068
979	0.068
980	0.068
980	0.067
981	0.067
981	0.067
982	0.066
982	0.066
982	0.065
983	0.065
983	0.065
984	0.065
984	0.065
984	0.066
985	0.067
985	0.067
986	0.067
986	0.067
987	0.068
987	0.068
987	0.068
988	0.067
988	0.067
989	0.066
989	0.065
990	0.064
990	0.063
990	0.062
991	0.062
991	0.061
992	0.061
992	0.061
992	0.061
993	0.06
993	0.061
994	0.061
994	0.06
995	0.06
995	0.06
995	0.06
996	0.059
996	0.059
997	0.058
997	0.058
997	0.059
998	0.059
998	0.059
999	0.059
999	0.059
1000	0.059
1000	0.06
1000	0.06
1001	0.06
1001	0.06
1002	0.06
1002	0.06
1003	0.06
1003	0.06
1003	0.059
1004	0.059
1004	0.058
1005	0.057
1005	0.056
1005	0.055
1006	0.054
1006	0.053
1007	0.052
1007	0.051
1008	0.051
1008	0.051
1008	0.05
1009	0.051
1009	0.051
1010	0.051
1010	0.051
1010	0.051
1011	0.051
1011	0.05
1012	0.049
1012	0.049
1013	0.048
1013	0.046
1013	0.045
1014	0.044
1014	0.043
1015	0.042
1015	0.041
1016	0.041
1016	0.04
1016	0.039
1017	0.038
1017	0.038
1018	0.037
1018	0.037
1018	0.036
1019	0.036
1019	0.035
1020	0.034
1020	0.034
1021	0.033
1021	0.032
1021	0.031
1022	0.031
1022	0.03
1023	0.03
1023	0.03
1023	0.029
1024	0.029
1024	0.029
1025	0.029
1025	0.029
1026	0.03
1026	0.03
1026	0.031
1027	0.031
1027	0.032
1028	0.032
1028	0.032
1028	0.032
1029	0.032
1029	0.032
1030	0.031
1030	0.031
1031	0.031
1031	0.031
1031	0.03
1032	0.03
1032	0.03
1033	0.03
1033	0.031
1033	0.031
1034	0.031
1034	0.031
1035	0.031
1035	0.031
1036	0.031
1036	0.031
1036	0.031
1037	0.031
1037	0.031
1038	0.031
1038	0.031
1039	0.031
1039	0.031
1039	0.031
1040	0.032
1040	0.032
1041	0.033
1041	0.033
1041	0.033
1042	0.033
1042	0.032
1043	0.032
1043	0.032
1044	0.031
1044	0.031
1044	0.03
1045	0.029
1045	0.029
1046	0.028
1046	0.028
1046	0.028
1047	0.029
1047	0.029
1048	0.03
1048	0.03
1049	0.03
1049	0.031
1049	0.031
1050	0.031
1050	0.031
1051	0.031
1051	0.032
1051	0.032
1052	0.032
1052	0.032
1053	0.032
1053	0.032
1053	0.032
1054	0.031
1054	0.031
1055	0.031
1055	0.031
1056	0.03
1056	0.029
1056	0.028
1057	0.027
1057	0.027
1058	0.026
1058	0.026
1058	0.025
1059	0.025
1059	0.024
1060	0.024
1060	0.023
1061	0.023
1061	0.023
1061	0.024
1062	0.024
1062	0.024
1063	0.024
1063	0.024
1063	0.024
1064	0.025
1064	0.025
1065	0.025
1065	0.025
1066	0.024
1066	0.024
1066	0.023
1067	0.023
1067	0.023
1068	0.022
1068	0.021
1068	0.02
1069	0.02
1069	0.019
1070	0.019
1070	0.019
1071	0.019
1071	0.019
1071	0.019
1072	0.019
1072	0.019
1073	0.018
1073	0.018
1073	0.018
1074	0.018
1074	0.018
1075	0.018
1075	0.017
1076	0.017
1076	0.016
1076	0.016
1077	0.015
1077	0.015
1078	0.014
1078	0.014
1078	0.013
1079	0.012
1079	0.012
1080	0.011
1080	0.011
1080	0.01
1081	0.01
1081	0.009
1082	0.009
1082	0.008
1083	0.007
1083	0.006
1083	0.006
1084	0.005
1084	0.004
1085	0.003
1085	0.002
1085	0.002
1086	0.001
1086	0
1087	0.001
1087	0.001
1088	0
1088	-0
1088	-0.001
1089	-0.001
1089	-0.001
1090	-0.002
1090	-0.002
1090	-0.003
1091	-0.004
1091	-0.005
1092	-0.006
1092	-0.005
1092	-0.006
1093	-0.007
1093	-0.007
1094	-0.007
1094	-0.007
1095	-0.008
1095	-0.009
1095	-0.008
1096	-0.009
1096	-0.009
1097	-0.009
1097	-0.01
1097	-0.01
1098	-0.012
1098	-0.013
1099	-0.013
1099	-0.014
1100	-0.016
1100	-0.017
1100	-0.018
1101	-0.021
1101	-0.024
1102	-0.025
1102	-0.028
1102	-0.028
1103	-0.029
1103	-0.03
1104	-0.032
1104	-0.033
1104	-0.035
1105	-0.037
1105	-0.04
1106	-0.043
1106	-0.045
1107	-0.048
1107	-0.052
1107	-0.057
1108	-0.059
1108	-0.061
1109	-0.064
1109	-0.069
1109	-0.071
1110	-0.07
1110	-0.07
1111	-0.079
1111	-0.081
