Data from 17C_3.4A_30min_2sec_int_Absorbance__637__01358.txt Node

Date: Mon Jun 19 17:14:25 CEST 2023
User: Marek
Spectrometer: MAYP115816
Trigger mode: 0
Integration Time (sec): 2.500000E-1
Scans to average: 10
Electric dark correction enabled: true
Nonlinearity correction enabled: true
Boxcar width: 5
XAxis mode: Wavelengths
Number of Pixels in Spectrum: 2068
>>>>>Begin Spectral Data<<<<<
199	-0.667
199	-0.683
200	-0.59
200	-0.539
201	-0.506
201	-0.497
202	-0.48
202	-0.47
203	-0.464
203	-0.462
204	-0.45
204	-0.438
205	-0.417
205	-0.413
205	-0.413
206	-0.415
206	-0.415
207	-0.407
207	-0.405
208	-0.407
208	-0.404
209	-0.4
209	-0.399
210	-0.401
210	-0.408
211	-0.406
211	-0.408
212	-0.41
212	-0.419
213	-0.418
213	-0.418
213	-0.423
214	-0.42
214	-0.419
215	-0.417
215	-0.419
216	-0.424
216	-0.432
217	-0.429
217	-0.433
218	-0.436
218	-0.436
219	-0.438
219	-0.445
220	-0.45
220	-0.461
221	-0.46
221	-0.462
221	-0.454
222	-0.449
222	-0.448
223	-0.45
223	-0.453
224	-0.458
224	-0.46
225	-0.455
225	-0.45
226	-0.454
226	-0.455
227	-0.461
227	-0.47
228	-0.471
228	-0.474
229	-0.475
229	-0.468
229	-0.461
230	-0.465
230	-0.468
231	-0.464
231	-0.457
232	-0.453
232	-0.45
233	-0.443
233	-0.442
234	-0.442
234	-0.441
235	-0.448
235	-0.452
236	-0.45
236	-0.452
236	-0.458
237	-0.463
237	-0.465
238	-0.475
238	-0.473
239	-0.47
239	-0.477
240	-0.475
240	-0.474
241	-0.478
241	-0.477
242	-0.483
242	-0.48
243	-0.475
243	-0.477
243	-0.485
244	-0.486
244	-0.486
245	-0.5
245	-0.497
246	-0.505
246	-0.512
247	-0.513
247	-0.517
248	-0.523
248	-0.519
249	-0.523
249	-0.532
250	-0.531
250	-0.527
250	-0.53
251	-0.524
251	-0.522
252	-0.523
252	-0.513
253	-0.521
253	-0.531
254	-0.526
254	-0.524
255	-0.531
255	-0.523
256	-0.521
256	-0.535
257	-0.532
257	-0.53
258	-0.549
258	-0.543
258	-0.54
259	-0.54
259	-0.547
260	-0.549
260	-0.555
261	-0.564
261	-0.553
262	-0.55
262	-0.552
263	-0.541
263	-0.537
264	-0.537
264	-0.544
265	-0.542
265	-0.548
265	-0.549
266	-0.545
266	-0.544
267	-0.556
267	-0.564
268	-0.576
268	-0.585
269	-0.583
269	-0.578
270	-0.579
270	-0.58
271	-0.581
271	-0.591
272	-0.597
272	-0.592
272	-0.584
273	-0.583
273	-0.592
274	-0.599
274	-0.602
275	-0.604
275	-0.598
276	-0.604
276	-0.592
277	-0.595
277	-0.614
278	-0.625
278	-0.62
278	-0.613
279	-0.613
279	-0.625
280	-0.622
280	-0.627
281	-0.623
281	-0.63
282	-0.622
282	-0.621
283	-0.61
283	-0.612
284	-0.607
284	-0.598
285	-0.594
285	-0.591
285	-0.583
286	-0.589
286	-0.585
287	-0.583
287	-0.569
288	-0.562
288	-0.57
289	-0.582
289	-0.591
290	-0.582
290	-0.583
291	-0.58
291	-0.576
292	-0.577
292	-0.583
292	-0.587
293	-0.593
293	-0.582
294	-0.57
294	-0.56
295	-0.555
295	-0.552
296	-0.55
296	-0.548
297	-0.543
297	-0.526
298	-0.52
298	-0.526
298	-0.518
299	-0.513
299	-0.516
300	-0.513
300	-0.508
301	-0.505
301	-0.502
302	-0.509
302	-0.519
303	-0.508
303	-0.493
304	-0.492
304	-0.489
305	-0.492
305	-0.492
305	-0.49
306	-0.475
306	-0.47
307	-0.458
307	-0.459
308	-0.471
308	-0.47
309	-0.473
309	-0.467
310	-0.454
310	-0.45
311	-0.441
311	-0.449
311	-0.445
312	-0.44
312	-0.44
313	-0.427
313	-0.431
314	-0.428
314	-0.43
315	-0.43
315	-0.43
316	-0.428
316	-0.421
317	-0.414
317	-0.411
318	-0.398
318	-0.395
318	-0.386
319	-0.375
319	-0.371
320	-0.363
320	-0.364
321	-0.367
321	-0.365
322	-0.36
322	-0.355
323	-0.354
323	-0.349
324	-0.342
324	-0.334
324	-0.324
325	-0.317
325	-0.3
326	-0.288
326	-0.271
327	-0.259
327	-0.241
328	-0.218
328	-0.201
329	-0.181
329	-0.161
330	-0.135
330	-0.103
330	-0.079
331	-0.053
331	-0.028
332	-0.004
332	0.016
333	0.038
333	0.059
334	0.076
334	0.091
335	0.104
335	0.116
336	0.128
336	0.14
336	0.147
337	0.156
337	0.164
338	0.171
338	0.175
339	0.183
339	0.188
340	0.192
340	0.195
341	0.199
341	0.201
342	0.205
342	0.207
342	0.21
343	0.211
343	0.214
344	0.214
344	0.216
345	0.217
345	0.218
346	0.218
346	0.219
347	0.219
347	0.22
348	0.22
348	0.221
348	0.221
349	0.221
349	0.221
350	0.221
350	0.221
351	0.222
351	0.222
352	0.221
352	0.221
353	0.221
353	0.221
354	0.221
354	0.221
354	0.22
355	0.22
355	0.22
356	0.22
356	0.22
357	0.22
357	0.219
358	0.219
358	0.219
359	0.219
359	0.219
360	0.219
360	0.219
360	0.219
361	0.218
361	0.218
362	0.218
362	0.218
363	0.218
363	0.218
364	0.218
364	0.218
365	0.218
365	0.218
366	0.218
366	0.217
366	0.218
367	0.218
367	0.217
368	0.217
368	0.217
369	0.217
369	0.217
370	0.217
370	0.217
371	0.216
371	0.216
372	0.216
372	0.216
372	0.216
373	0.216
373	0.216
374	0.216
374	0.216
375	0.216
375	0.216
376	0.216
376	0.216
377	0.216
377	0.216
378	0.216
378	0.216
378	0.216
379	0.216
379	0.216
380	0.216
380	0.216
381	0.216
381	0.215
382	0.215
382	0.215
383	0.215
383	0.214
383	0.214
384	0.214
384	0.214
385	0.214
385	0.214
386	0.214
386	0.214
387	0.214
387	0.213
388	0.213
388	0.213
389	0.213
389	0.213
389	0.214
390	0.214
390	0.214
391	0.214
391	0.214
392	0.214
392	0.214
393	0.213
393	0.213
394	0.213
394	0.213
394	0.212
395	0.212
395	0.212
396	0.212
396	0.212
397	0.211
397	0.211
398	0.211
398	0.211
399	0.211
399	0.211
400	0.211
400	0.211
400	0.211
401	0.211
401	0.211
402	0.211
402	0.21
403	0.21
403	0.21
404	0.21
404	0.21
405	0.21
405	0.21
405	0.21
406	0.21
406	0.21
407	0.21
407	0.21
408	0.209
408	0.209
409	0.209
409	0.209
410	0.209
410	0.209
411	0.209
411	0.209
411	0.209
412	0.209
412	0.209
413	0.209
413	0.209
414	0.209
414	0.209
415	0.209
415	0.208
416	0.208
416	0.208
416	0.208
417	0.208
417	0.208
418	0.208
418	0.208
419	0.208
419	0.208
420	0.208
420	0.208
421	0.208
421	0.209
421	0.209
422	0.209
422	0.209
423	0.208
423	0.208
424	0.208
424	0.208
425	0.208
425	0.207
426	0.207
426	0.207
427	0.206
427	0.206
427	0.206
428	0.206
428	0.206
429	0.206
429	0.206
430	0.206
430	0.206
431	0.206
431	0.206
432	0.206
432	0.206
432	0.206
433	0.205
433	0.205
434	0.205
434	0.205
435	0.205
435	0.204
436	0.204
436	0.204
437	0.204
437	0.204
437	0.204
438	0.204
438	0.204
439	0.204
439	0.204
440	0.204
440	0.204
441	0.204
441	0.204
442	0.204
442	0.204
442	0.203
443	0.204
443	0.203
444	0.204
444	0.204
445	0.204
445	0.204
446	0.204
446	0.204
447	0.204
447	0.205
447	0.205
448	0.205
448	0.205
449	0.205
449	0.205
450	0.205
450	0.205
451	0.205
451	0.205
452	0.205
452	0.205
452	0.205
453	0.204
453	0.204
454	0.204
454	0.204
455	0.204
455	0.204
456	0.204
456	0.204
457	0.204
457	0.204
458	0.204
458	0.204
458	0.204
459	0.204
459	0.204
460	0.204
460	0.204
461	0.204
461	0.204
462	0.203
462	0.204
463	0.204
463	0.204
463	0.204
464	0.204
464	0.204
465	0.204
465	0.204
466	0.204
466	0.204
467	0.205
467	0.205
467	0.205
468	0.205
468	0.205
469	0.205
469	0.206
470	0.206
470	0.206
471	0.206
471	0.206
472	0.206
472	0.206
472	0.207
473	0.207
473	0.207
474	0.207
474	0.207
475	0.208
475	0.208
476	0.208
476	0.209
477	0.209
477	0.209
477	0.209
478	0.21
478	0.21
479	0.21
479	0.21
480	0.21
480	0.211
481	0.211
481	0.212
482	0.212
482	0.212
482	0.213
483	0.213
483	0.214
484	0.214
484	0.214
485	0.214
485	0.215
486	0.215
486	0.216
487	0.216
487	0.217
487	0.217
488	0.218
488	0.218
489	0.22
489	0.221
490	0.222
490	0.223
491	0.224
491	0.225
492	0.225
492	0.226
492	0.227
493	0.228
493	0.228
494	0.229
494	0.23
495	0.231
495	0.231
496	0.232
496	0.234
496	0.235
497	0.236
497	0.237
498	0.238
498	0.239
499	0.24
499	0.242
500	0.243
500	0.244
501	0.245
501	0.246
501	0.246
502	0.247
502	0.248
503	0.249
503	0.25
504	0.251
504	0.252
505	0.253
505	0.255
506	0.256
506	0.257
506	0.258
507	0.259
507	0.26
508	0.261
508	0.263
509	0.264
509	0.265
510	0.267
510	0.268
511	0.269
511	0.27
511	0.272
512	0.273
512	0.274
513	0.275
513	0.276
514	0.277
514	0.278
515	0.279
515	0.28
515	0.281
516	0.282
516	0.283
517	0.285
517	0.286
518	0.287
518	0.288
519	0.289
519	0.29
520	0.291
520	0.293
520	0.294
521	0.295
521	0.296
522	0.297
522	0.298
523	0.299
523	0.3
524	0.3
524	0.301
524	0.301
525	0.301
525	0.301
526	0.302
526	0.303
527	0.303
527	0.304
528	0.304
528	0.305
529	0.306
529	0.306
529	0.307
530	0.308
530	0.308
531	0.309
531	0.309
532	0.309
532	0.31
533	0.31
533	0.31
533	0.31
534	0.31
534	0.31
535	0.309
535	0.309
536	0.309
536	0.308
537	0.308
537	0.308
538	0.308
538	0.308
538	0.308
539	0.308
539	0.308
540	0.308
540	0.307
541	0.307
541	0.307
542	0.306
542	0.306
542	0.305
543	0.305
543	0.304
544	0.303
544	0.303
545	0.303
545	0.303
546	0.303
546	0.302
547	0.301
547	0.3
547	0.3
548	0.299
548	0.299
549	0.298
549	0.298
550	0.297
550	0.296
551	0.296
551	0.296
551	0.296
552	0.297
552	0.297
553	0.296
553	0.296
554	0.296
554	0.295
555	0.294
555	0.294
556	0.293
556	0.293
556	0.292
557	0.291
557	0.29
558	0.289
558	0.289
559	0.288
559	0.288
560	0.287
560	0.286
560	0.286
561	0.286
561	0.285
562	0.284
562	0.283
563	0.282
563	0.282
564	0.281
564	0.281
564	0.281
565	0.281
565	0.28
566	0.28
566	0.279
567	0.279
567	0.278
568	0.278
568	0.277
568	0.276
569	0.275
569	0.274
570	0.273
570	0.272
571	0.271
571	0.271
572	0.27
572	0.27
573	0.269
573	0.269
573	0.268
574	0.268
574	0.268
575	0.267
575	0.268
576	0.268
576	0.267
577	0.266
577	0.266
577	0.266
578	0.266
578	0.266
579	0.266
579	0.266
580	0.265
580	0.264
581	0.263
581	0.263
581	0.263
582	0.263
582	0.263
583	0.263
583	0.262
584	0.261
584	0.26
585	0.261
585	0.262
585	0.262
586	0.262
586	0.262
587	0.261
587	0.261
588	0.26
588	0.26
589	0.26
589	0.261
590	0.26
590	0.26
590	0.261
591	0.261
591	0.26
592	0.26
592	0.26
593	0.26
593	0.26
594	0.26
594	0.259
594	0.259
595	0.259
595	0.259
596	0.259
596	0.26
597	0.261
597	0.26
598	0.26
598	0.26
598	0.26
599	0.259
599	0.258
600	0.258
600	0.257
601	0.257
601	0.257
602	0.256
602	0.257
602	0.257
603	0.257
603	0.258
604	0.259
604	0.26
605	0.26
605	0.261
606	0.26
606	0.26
606	0.26
607	0.259
607	0.259
608	0.258
608	0.257
609	0.257
609	0.257
610	0.256
610	0.256
610	0.256
611	0.257
611	0.257
612	0.258
612	0.258
613	0.259
613	0.259
614	0.258
614	0.257
614	0.256
615	0.256
615	0.255
616	0.255
616	0.254
617	0.253
617	0.252
618	0.252
618	0.252
618	0.252
619	0.252
619	0.253
620	0.253
620	0.253
621	0.253
621	0.253
622	0.252
622	0.252
622	0.251
623	0.251
623	0.251
624	0.251
624	0.25
625	0.25
625	0.25
626	0.25
626	0.249
626	0.249
627	0.249
627	0.248
628	0.247
628	0.246
629	0.245
629	0.244
630	0.242
630	0.241
630	0.24
631	0.238
631	0.237
632	0.234
632	0.232
633	0.231
633	0.228
634	0.227
634	0.225
634	0.223
635	0.22
635	0.218
636	0.215
636	0.212
637	0.209
637	0.205
638	0.202
638	0.198
638	0.194
639	0.19
639	0.186
640	0.181
640	0.177
641	0.173
641	0.169
642	0.164
642	0.16
642	0.156
643	0.151
643	0.146
644	0.14
644	0.135
645	0.13
645	0.124
646	0.119
646	0.113
646	0.107
647	0.101
647	0.095
648	0.089
648	0.083
649	0.075
649	0.068
650	0.061
650	0.054
650	0.046
651	0.036
651	0.024
652	0.01
652	-0.005
653	-0.018
653	-0.03
653	-0.028
654	-0.01
654	-0.001
655	-0.004
655	-0.01
656	-0.015
656	-0.022
657	-0.027
657	-0.031
657	-0.037
658	-0.043
658	-0.07
659	-0.15
659	-0.245
660	-0.289
660	-0.315
661	-0.343
661	-0.373
661	-0.406
662	-0.438
662	-0.472
663	-0.511
663	-0.553
664	-0.598
664	-0.65
665	-0.7
665	-0.759
665	-0.815
666	-0.872
666	-0.934
667	-0.999
667	-1.066
668	-1.139
668	-1.212
669	-1.286
669	-1.359
669	-1.436
670	-1.502
670	-1.526
671	-1.639
671	-1.945
672	-2.183
672	-2.379
672	-2.511
673	-2.605
673	-2.687
674	-2.737
674	-2.757
675	-2.783
675	-2.924
676	-3.125
676	-3.078
676	-2.856
677	-2.655
677	-2.496
678	-2.329
678	-2.056
679	-1.741
679	-1.592
680	-1.493
680	-1.407
680	-1.333
681	-1.286
681	-1.225
682	-1.184
682	-1.145
683	-1.109
683	-1.091
684	-1.069
684	-1.049
684	-1.027
685	-1.001
685	-0.978
686	-0.952
686	-0.936
687	-0.91
687	-0.898
687	-0.875
688	-0.849
688	-0.829
689	-0.807
689	-0.793
690	-0.772
690	-0.76
691	-0.755
691	-0.758
691	-0.773
692	-0.764
692	-0.756
693	-0.75
693	-0.756
694	-0.753
694	-0.745
695	-0.75
695	-0.747
695	-0.729
696	-0.724
696	-0.702
697	-0.702
697	-0.717
698	-0.719
698	-0.709
698	-0.722
699	-0.726
699	-0.724
700	-0.715
700	-0.729
701	-0.73
701	-0.736
702	-0.734
702	-0.722
702	-0.713
703	-0.706
703	-0.696
704	-0.692
704	-0.688
705	-0.699
705	-0.694
705	-0.681
706	-0.68
706	-0.676
707	-0.681
707	-0.677
708	-0.675
708	-0.668
709	-0.67
709	-0.673
709	-0.663
710	-0.669
710	-0.679
711	-0.672
711	-0.673
712	-0.67
712	-0.681
713	-0.681
713	-0.688
713	-0.679
714	-0.677
714	-0.678
715	-0.67
715	-0.655
716	-0.662
716	-0.665
716	-0.66
717	-0.663
717	-0.665
718	-0.655
718	-0.656
719	-0.663
719	-0.663
720	-0.66
720	-0.669
720	-0.663
721	-0.653
721	-0.654
722	-0.642
722	-0.63
723	-0.631
723	-0.635
723	-0.621
724	-0.624
724	-0.626
725	-0.627
725	-0.634
726	-0.645
726	-0.649
727	-0.654
727	-0.671
727	-0.676
728	-0.675
728	-0.682
729	-0.68
729	-0.686
730	-0.691
730	-0.685
730	-0.674
731	-0.658
731	-0.668
732	-0.672
732	-0.673
733	-0.672
733	-0.678
734	-0.674
734	-0.67
734	-0.66
735	-0.658
735	-0.658
736	-0.667
736	-0.654
737	-0.644
737	-0.646
737	-0.656
738	-0.65
738	-0.649
739	-0.649
739	-0.658
740	-0.659
740	-0.658
741	-0.655
741	-0.655
741	-0.661
742	-0.658
742	-0.657
743	-0.663
743	-0.665
744	-0.662
744	-0.653
744	-0.653
745	-0.657
745	-0.65
746	-0.648
746	-0.642
747	-0.643
747	-0.631
748	-0.619
748	-0.627
748	-0.629
749	-0.627
749	-0.628
750	-0.621
750	-0.622
751	-0.624
751	-0.636
751	-0.637
752	-0.643
752	-0.653
753	-0.648
753	-0.644
754	-0.652
754	-0.647
754	-0.66
755	-0.677
755	-0.691
756	-0.678
756	-0.675
757	-0.672
757	-0.667
758	-0.671
758	-0.669
758	-0.671
759	-0.678
759	-0.662
760	-0.654
760	-0.648
761	-0.658
761	-0.656
761	-0.656
762	-0.664
762	-0.663
763	-0.672
763	-0.666
764	-0.662
764	-0.668
764	-0.672
765	-0.661
765	-0.647
766	-0.654
766	-0.66
767	-0.673
767	-0.667
768	-0.66
768	-0.669
768	-0.674
769	-0.693
769	-0.695
770	-0.7
770	-0.715
771	-0.713
771	-0.715
771	-0.714
772	-0.717
772	-0.714
773	-0.713
773	-0.709
774	-0.704
774	-0.707
775	-0.71
775	-0.707
775	-0.712
776	-0.713
776	-0.704
777	-0.715
777	-0.735
778	-0.734
778	-0.753
778	-0.739
779	-0.761
779	-0.768
780	-0.78
780	-0.779
781	-0.793
781	-0.791
781	-0.805
782	-0.808
782	-0.81
783	-0.799
783	-0.799
784	-0.777
784	-0.767
784	-0.776
785	-0.783
785	-0.768
786	-0.77
786	-0.748
787	-0.731
787	-0.732
788	-0.734
788	-0.743
788	-0.754
789	-0.755
789	-0.736
790	-0.715
790	-0.716
791	-0.716
791	-0.731
791	-0.741
792	-0.735
792	-0.71
793	-0.703
793	-0.681
794	-0.684
794	-0.679
794	-0.689
795	-0.685
795	-0.679
796	-0.665
796	-0.67
797	-0.665
797	-0.678
797	-0.683
798	-0.694
798	-0.688
799	-0.699
799	-0.685
800	-0.692
800	-0.682
801	-0.69
801	-0.675
801	-0.685
802	-0.69
802	-0.69
803	-0.694
803	-0.703
804	-0.697
804	-0.708
804	-0.696
805	-0.704
805	-0.691
806	-0.693
806	-0.68
807	-0.679
807	-0.659
807	-0.644
808	-0.636
808	-0.629
809	-0.613
809	-0.621
810	-0.617
810	-0.612
810	-0.608
811	-0.614
811	-0.606
812	-0.608
812	-0.612
813	-0.616
813	-0.613
813	-0.619
814	-0.621
814	-0.624
815	-0.628
815	-0.631
816	-0.622
816	-0.629
817	-0.637
817	-0.656
817	-0.669
818	-0.676
818	-0.678
819	-0.67
819	-0.671
820	-0.681
820	-0.679
820	-0.691
821	-0.689
821	-0.676
822	-0.644
822	-0.621
823	-0.62
823	-0.622
823	-0.619
824	-0.615
824	-0.616
825	-0.607
825	-0.587
826	-0.58
826	-0.587
826	-0.597
827	-0.593
827	-0.588
828	-0.567
828	-0.569
829	-0.559
829	-0.546
829	-0.54
830	-0.549
830	-0.549
831	-0.542
831	-0.532
832	-0.531
832	-0.524
832	-0.532
833	-0.525
833	-0.526
834	-0.523
834	-0.529
835	-0.517
835	-0.51
835	-0.507
836	-0.505
836	-0.499
837	-0.497
837	-0.487
838	-0.48
838	-0.468
839	-0.456
839	-0.445
839	-0.435
840	-0.426
840	-0.423
841	-0.411
841	-0.404
842	-0.399
842	-0.39
842	-0.384
843	-0.379
843	-0.373
844	-0.364
844	-0.357
845	-0.348
845	-0.336
845	-0.323
846	-0.31
846	-0.296
847	-0.284
847	-0.273
848	-0.261
848	-0.252
848	-0.236
849	-0.226
849	-0.214
850	-0.2
850	-0.194
851	-0.186
851	-0.174
851	-0.166
852	-0.148
852	-0.136
853	-0.126
853	-0.122
854	-0.112
854	-0.1
854	-0.092
855	-0.081
855	-0.075
856	-0.065
856	-0.056
857	-0.051
857	-0.043
857	-0.032
858	-0.022
858	-0.015
859	-0.008
859	0.003
860	0.013
860	0.025
860	0.033
861	0.04
861	0.048
862	0.056
862	0.063
863	0.07
863	0.079
863	0.084
864	0.088
864	0.093
865	0.098
865	0.102
866	0.106
866	0.11
866	0.113
867	0.116
867	0.12
868	0.123
868	0.127
869	0.13
869	0.133
869	0.134
870	0.137
870	0.139
871	0.142
871	0.144
872	0.145
872	0.145
872	0.146
873	0.146
873	0.146
874	0.146
874	0.146
875	0.145
875	0.144
875	0.143
876	0.141
876	0.14
877	0.139
877	0.138
878	0.136
878	0.134
878	0.132
879	0.13
879	0.129
880	0.128
880	0.128
881	0.128
881	0.127
881	0.127
882	0.127
882	0.127
883	0.126
883	0.125
884	0.124
884	0.124
884	0.123
885	0.122
885	0.121
886	0.121
886	0.12
887	0.119
887	0.119
887	0.119
888	0.119
888	0.119
889	0.119
889	0.119
890	0.119
890	0.119
890	0.119
891	0.118
891	0.119
892	0.119
892	0.119
893	0.119
893	0.119
893	0.119
894	0.118
894	0.118
895	0.117
895	0.117
895	0.117
896	0.116
896	0.115
897	0.114
897	0.113
898	0.112
898	0.111
898	0.111
899	0.111
899	0.112
900	0.112
900	0.112
901	0.113
901	0.114
901	0.115
902	0.116
902	0.116
903	0.117
903	0.117
904	0.118
904	0.119
904	0.119
905	0.12
905	0.12
906	0.121
906	0.121
907	0.12
907	0.12
907	0.119
908	0.119
908	0.118
909	0.117
909	0.117
910	0.116
910	0.115
910	0.115
911	0.115
911	0.116
912	0.116
912	0.116
913	0.117
913	0.118
913	0.118
914	0.119
914	0.12
915	0.12
915	0.12
916	0.121
916	0.121
916	0.121
917	0.121
917	0.121
918	0.12
918	0.12
918	0.12
919	0.119
919	0.119
920	0.119
920	0.119
921	0.12
921	0.12
921	0.12
922	0.12
922	0.12
923	0.119
923	0.119
924	0.119
924	0.118
924	0.117
925	0.116
925	0.115
926	0.114
926	0.113
927	0.112
927	0.111
927	0.111
928	0.11
928	0.11
929	0.11
929	0.109
930	0.109
930	0.108
930	0.108
931	0.108
931	0.108
932	0.107
932	0.106
933	0.105
933	0.104
933	0.102
934	0.101
934	0.1
935	0.099
935	0.098
935	0.097
936	0.096
936	0.095
937	0.094
937	0.094
938	0.094
938	0.094
938	0.095
939	0.096
939	0.096
940	0.097
940	0.098
941	0.099
941	0.099
941	0.1
942	0.101
942	0.102
943	0.102
943	0.102
944	0.101
944	0.101
944	0.1
945	0.099
945	0.098
946	0.098
946	0.096
946	0.095
947	0.095
947	0.095
948	0.094
948	0.095
949	0.095
949	0.096
949	0.096
950	0.097
950	0.097
951	0.098
951	0.099
952	0.1
952	0.101
952	0.101
953	0.102
953	0.102
954	0.102
954	0.103
955	0.103
955	0.105
955	0.105
956	0.106
956	0.107
957	0.107
957	0.107
957	0.107
958	0.107
958	0.108
959	0.108
959	0.108
960	0.108
960	0.108
960	0.108
961	0.107
961	0.107
962	0.107
962	0.107
963	0.107
963	0.107
963	0.107
964	0.107
964	0.107
965	0.107
965	0.107
966	0.107
966	0.107
966	0.107
967	0.106
967	0.106
968	0.105
968	0.104
968	0.104
969	0.103
969	0.102
970	0.102
970	0.102
971	0.102
971	0.102
971	0.102
972	0.102
972	0.102
973	0.102
973	0.102
974	0.101
974	0.101
974	0.101
975	0.1
975	0.1
976	0.099
976	0.098
976	0.098
977	0.098
977	0.097
978	0.097
978	0.097
979	0.097
979	0.096
979	0.096
980	0.095
980	0.095
981	0.095
981	0.094
982	0.094
982	0.094
982	0.093
983	0.093
983	0.093
984	0.093
984	0.093
984	0.093
985	0.093
985	0.094
986	0.094
986	0.093
987	0.093
987	0.094
987	0.093
988	0.093
988	0.092
989	0.092
989	0.091
990	0.09
990	0.089
990	0.089
991	0.089
991	0.088
992	0.088
992	0.088
992	0.088
993	0.088
993	0.088
994	0.088
994	0.087
995	0.087
995	0.087
995	0.086
996	0.086
996	0.085
997	0.085
997	0.085
997	0.085
998	0.085
998	0.085
999	0.086
999	0.086
1000	0.086
1000	0.086
1000	0.086
1001	0.087
1001	0.087
1002	0.087
1002	0.087
1003	0.087
1003	0.087
1003	0.086
1004	0.086
1004	0.086
1005	0.085
1005	0.084
1005	0.083
1006	0.082
1006	0.081
1007	0.08
1007	0.079
1008	0.078
1008	0.078
1008	0.077
1009	0.077
1009	0.077
1010	0.077
1010	0.077
1010	0.077
1011	0.077
1011	0.076
1012	0.076
1012	0.075
1013	0.074
1013	0.073
1013	0.072
1014	0.072
1014	0.071
1015	0.07
1015	0.069
1016	0.068
1016	0.067
1016	0.067
1017	0.066
1017	0.065
1018	0.065
1018	0.064
1018	0.063
1019	0.063
1019	0.062
1020	0.061
1020	0.061
1021	0.06
1021	0.059
1021	0.058
1022	0.057
1022	0.057
1023	0.057
1023	0.056
1023	0.056
1024	0.056
1024	0.055
1025	0.055
1025	0.055
1026	0.056
1026	0.056
1026	0.057
1027	0.057
1027	0.057
1028	0.057
1028	0.058
1028	0.057
1029	0.057
1029	0.057
1030	0.057
1030	0.056
1031	0.056
1031	0.056
1031	0.055
1032	0.055
1032	0.055
1033	0.055
1033	0.056
1033	0.056
1034	0.056
1034	0.056
1035	0.056
1035	0.056
1036	0.056
1036	0.056
1036	0.056
1037	0.056
1037	0.056
1038	0.056
1038	0.056
1039	0.056
1039	0.057
1039	0.057
1040	0.057
1040	0.058
1041	0.058
1041	0.059
1041	0.059
1042	0.059
1042	0.058
1043	0.058
1043	0.057
1044	0.056
1044	0.056
1044	0.055
1045	0.054
1045	0.054
1046	0.053
1046	0.052
1046	0.052
1047	0.053
1047	0.053
1048	0.053
1048	0.054
1049	0.054
1049	0.054
1049	0.054
1050	0.055
1050	0.055
1051	0.055
1051	0.055
1051	0.056
1052	0.056
1052	0.056
1053	0.056
1053	0.056
1053	0.056
1054	0.056
1054	0.056
1055	0.055
1055	0.055
1056	0.054
1056	0.053
1056	0.052
1057	0.051
1057	0.05
1058	0.05
1058	0.049
1058	0.049
1059	0.048
1059	0.047
1060	0.047
1060	0.047
1061	0.047
1061	0.047
1061	0.047
1062	0.047
1062	0.047
1063	0.047
1063	0.047
1063	0.047
1064	0.048
1064	0.048
1065	0.047
1065	0.047
1066	0.047
1066	0.047
1066	0.047
1067	0.046
1067	0.046
1068	0.045
1068	0.045
1068	0.044
1069	0.044
1069	0.043
1070	0.043
1070	0.042
1071	0.042
1071	0.042
1071	0.041
1072	0.041
1072	0.04
1073	0.04
1073	0.04
1073	0.04
1074	0.04
1074	0.04
1075	0.039
1075	0.039
1076	0.038
1076	0.038
1076	0.038
1077	0.037
1077	0.037
1078	0.036
1078	0.035
1078	0.034
1079	0.034
1079	0.033
1080	0.032
1080	0.032
1080	0.031
1081	0.03
1081	0.029
1082	0.029
1082	0.028
1083	0.027
1083	0.026
1083	0.025
1084	0.025
1084	0.024
1085	0.024
1085	0.023
1085	0.023
1086	0.023
1086	0.022
1087	0.022
1087	0.022
1088	0.021
1088	0.021
1088	0.021
1089	0.02
1089	0.019
1090	0.018
1090	0.017
1090	0.016
1091	0.015
1091	0.015
1092	0.014
1092	0.014
1092	0.013
1093	0.012
1093	0.012
1094	0.012
1094	0.011
1095	0.01
1095	0.01
1095	0.009
1096	0.009
1096	0.008
1097	0.007
1097	0.007
1097	0.006
1098	0.004
1098	0.003
1099	0.003
1099	0.002
1100	0
1100	-0.001
1100	-0.003
1101	-0.005
1101	-0.007
1102	-0.009
1102	-0.011
1102	-0.012
1103	-0.014
1103	-0.016
1104	-0.017
1104	-0.019
1104	-0.021
1105	-0.024
1105	-0.028
1106	-0.032
1106	-0.033
1107	-0.038
1107	-0.042
1107	-0.047
1108	-0.049
1108	-0.053
1109	-0.056
1109	-0.061
1109	-0.064
1110	-0.064
1110	-0.069
1111	-0.077
1111	-0.075
