Data from 17C_3.4A_30min_2sec_int_Absorbance__747__01468.txt Node

Date: Mon Jun 19 17:19:00 CEST 2023
User: Marek
Spectrometer: MAYP115816
Trigger mode: 0
Integration Time (sec): 2.500000E-1
Scans to average: 10
Electric dark correction enabled: true
Nonlinearity correction enabled: true
Boxcar width: 5
XAxis mode: Wavelengths
Number of Pixels in Spectrum: 2068
>>>>>Begin Spectral Data<<<<<
199	-0.711
199	-0.72
200	-0.619
200	-0.567
201	-0.531
201	-0.516
202	-0.497
202	-0.487
203	-0.478
203	-0.474
204	-0.46
204	-0.447
205	-0.424
205	-0.419
205	-0.417
206	-0.42
206	-0.424
207	-0.417
207	-0.417
208	-0.419
208	-0.418
209	-0.413
209	-0.413
210	-0.417
210	-0.422
211	-0.421
211	-0.42
212	-0.421
212	-0.427
213	-0.427
213	-0.425
213	-0.43
214	-0.427
214	-0.425
215	-0.423
215	-0.429
216	-0.433
216	-0.442
217	-0.437
217	-0.442
218	-0.445
218	-0.445
219	-0.447
219	-0.454
220	-0.46
220	-0.47
221	-0.468
221	-0.472
221	-0.464
222	-0.461
222	-0.463
223	-0.464
223	-0.469
224	-0.474
224	-0.477
225	-0.473
225	-0.47
226	-0.474
226	-0.474
227	-0.479
227	-0.488
228	-0.487
228	-0.489
229	-0.489
229	-0.482
229	-0.477
230	-0.481
230	-0.482
231	-0.477
231	-0.469
232	-0.464
232	-0.462
233	-0.457
233	-0.456
234	-0.456
234	-0.454
235	-0.456
235	-0.459
236	-0.459
236	-0.463
236	-0.469
237	-0.475
237	-0.476
238	-0.483
238	-0.48
239	-0.48
239	-0.489
240	-0.488
240	-0.485
241	-0.49
241	-0.489
242	-0.495
242	-0.491
243	-0.487
243	-0.489
243	-0.498
244	-0.498
244	-0.496
245	-0.512
245	-0.513
246	-0.519
246	-0.523
247	-0.523
247	-0.528
248	-0.533
248	-0.53
249	-0.534
249	-0.542
250	-0.542
250	-0.534
250	-0.534
251	-0.528
251	-0.53
252	-0.535
252	-0.526
253	-0.531
253	-0.543
254	-0.539
254	-0.536
255	-0.543
255	-0.54
256	-0.54
256	-0.554
257	-0.55
257	-0.543
258	-0.558
258	-0.557
258	-0.55
259	-0.55
259	-0.557
260	-0.557
260	-0.562
261	-0.57
261	-0.562
262	-0.559
262	-0.563
263	-0.553
263	-0.547
264	-0.548
264	-0.556
265	-0.554
265	-0.56
265	-0.562
266	-0.561
266	-0.556
267	-0.569
267	-0.575
268	-0.591
268	-0.601
269	-0.6
269	-0.592
270	-0.595
270	-0.599
271	-0.601
271	-0.606
272	-0.607
272	-0.6
272	-0.595
273	-0.592
273	-0.602
274	-0.606
274	-0.611
275	-0.613
275	-0.605
276	-0.609
276	-0.602
277	-0.611
277	-0.631
278	-0.642
278	-0.636
278	-0.628
279	-0.632
279	-0.642
280	-0.641
280	-0.64
281	-0.636
281	-0.641
282	-0.63
282	-0.629
283	-0.618
283	-0.622
284	-0.617
284	-0.605
285	-0.6
285	-0.597
285	-0.595
286	-0.604
286	-0.598
287	-0.598
287	-0.584
288	-0.577
288	-0.584
289	-0.597
289	-0.608
290	-0.599
290	-0.598
291	-0.593
291	-0.584
292	-0.588
292	-0.592
292	-0.596
293	-0.6
293	-0.587
294	-0.578
294	-0.566
295	-0.562
295	-0.557
296	-0.557
296	-0.555
297	-0.549
297	-0.537
298	-0.53
298	-0.539
298	-0.529
299	-0.522
299	-0.526
300	-0.523
300	-0.519
301	-0.515
301	-0.513
302	-0.522
302	-0.528
303	-0.515
303	-0.501
304	-0.505
304	-0.504
305	-0.503
305	-0.501
305	-0.499
306	-0.484
306	-0.481
307	-0.468
307	-0.469
308	-0.483
308	-0.481
309	-0.483
309	-0.474
310	-0.464
310	-0.461
311	-0.453
311	-0.461
311	-0.456
312	-0.451
312	-0.449
313	-0.436
313	-0.439
314	-0.436
314	-0.438
315	-0.438
315	-0.436
316	-0.434
316	-0.426
317	-0.418
317	-0.414
318	-0.403
318	-0.402
318	-0.395
319	-0.386
319	-0.382
320	-0.376
320	-0.378
321	-0.384
321	-0.382
322	-0.379
322	-0.375
323	-0.376
323	-0.37
324	-0.365
324	-0.356
324	-0.347
325	-0.339
325	-0.322
326	-0.307
326	-0.293
327	-0.277
327	-0.257
328	-0.233
328	-0.215
329	-0.194
329	-0.172
330	-0.147
330	-0.116
330	-0.093
331	-0.067
331	-0.041
332	-0.019
332	0.002
333	0.022
333	0.045
334	0.063
334	0.078
335	0.092
335	0.104
336	0.117
336	0.128
336	0.136
337	0.146
337	0.153
338	0.16
338	0.164
339	0.171
339	0.176
340	0.18
340	0.184
341	0.187
341	0.19
342	0.193
342	0.195
342	0.198
343	0.2
343	0.202
344	0.204
344	0.204
345	0.206
345	0.207
346	0.207
346	0.208
347	0.209
347	0.209
348	0.209
348	0.21
348	0.21
349	0.21
349	0.211
350	0.211
350	0.211
351	0.211
351	0.211
352	0.211
352	0.211
353	0.211
353	0.21
354	0.21
354	0.21
354	0.21
355	0.21
355	0.21
356	0.209
356	0.209
357	0.209
357	0.209
358	0.209
358	0.209
359	0.208
359	0.208
360	0.208
360	0.208
360	0.208
361	0.208
361	0.207
362	0.207
362	0.207
363	0.207
363	0.207
364	0.207
364	0.207
365	0.207
365	0.207
366	0.207
366	0.207
366	0.207
367	0.207
367	0.207
368	0.207
368	0.207
369	0.207
369	0.207
370	0.207
370	0.207
371	0.206
371	0.206
372	0.206
372	0.206
372	0.206
373	0.206
373	0.206
374	0.206
374	0.206
375	0.206
375	0.206
376	0.206
376	0.206
377	0.206
377	0.206
378	0.206
378	0.206
378	0.206
379	0.206
379	0.206
380	0.206
380	0.205
381	0.205
381	0.205
382	0.205
382	0.205
383	0.205
383	0.204
383	0.204
384	0.204
384	0.204
385	0.204
385	0.204
386	0.204
386	0.204
387	0.204
387	0.204
388	0.204
388	0.203
389	0.203
389	0.204
389	0.204
390	0.204
390	0.204
391	0.204
391	0.204
392	0.204
392	0.204
393	0.203
393	0.203
394	0.203
394	0.203
394	0.203
395	0.202
395	0.202
396	0.202
396	0.202
397	0.202
397	0.202
398	0.202
398	0.202
399	0.202
399	0.202
400	0.202
400	0.202
400	0.202
401	0.201
401	0.201
402	0.201
402	0.201
403	0.201
403	0.201
404	0.201
404	0.2
405	0.201
405	0.2
405	0.2
406	0.2
406	0.2
407	0.2
407	0.2
408	0.2
408	0.2
409	0.2
409	0.2
410	0.2
410	0.2
411	0.2
411	0.2
411	0.2
412	0.2
412	0.2
413	0.2
413	0.2
414	0.2
414	0.199
415	0.199
415	0.199
416	0.199
416	0.199
416	0.199
417	0.199
417	0.199
418	0.199
418	0.199
419	0.199
419	0.199
420	0.199
420	0.199
421	0.199
421	0.199
421	0.199
422	0.199
422	0.199
423	0.199
423	0.199
424	0.199
424	0.198
425	0.198
425	0.198
426	0.198
426	0.198
427	0.197
427	0.197
427	0.197
428	0.197
428	0.197
429	0.197
429	0.197
430	0.197
430	0.197
431	0.197
431	0.197
432	0.197
432	0.197
432	0.197
433	0.197
433	0.196
434	0.196
434	0.196
435	0.196
435	0.196
436	0.196
436	0.195
437	0.195
437	0.195
437	0.195
438	0.195
438	0.195
439	0.195
439	0.195
440	0.195
440	0.195
441	0.195
441	0.195
442	0.195
442	0.195
442	0.195
443	0.195
443	0.194
444	0.195
444	0.195
445	0.194
445	0.194
446	0.195
446	0.195
447	0.195
447	0.195
447	0.196
448	0.196
448	0.196
449	0.196
449	0.196
450	0.196
450	0.196
451	0.196
451	0.196
452	0.196
452	0.196
452	0.196
453	0.196
453	0.195
454	0.195
454	0.195
455	0.195
455	0.195
456	0.195
456	0.195
457	0.195
457	0.195
458	0.195
458	0.195
458	0.195
459	0.195
459	0.195
460	0.195
460	0.195
461	0.195
461	0.195
462	0.195
462	0.195
463	0.195
463	0.195
463	0.195
464	0.195
464	0.195
465	0.195
465	0.195
466	0.195
466	0.195
467	0.196
467	0.196
467	0.196
468	0.196
468	0.196
469	0.196
469	0.196
470	0.197
470	0.197
471	0.197
471	0.197
472	0.197
472	0.197
472	0.197
473	0.198
473	0.198
474	0.198
474	0.198
475	0.199
475	0.199
476	0.199
476	0.199
477	0.199
477	0.199
477	0.2
478	0.2
478	0.2
479	0.2
479	0.201
480	0.201
480	0.201
481	0.201
481	0.202
482	0.202
482	0.202
482	0.203
483	0.203
483	0.204
484	0.204
484	0.204
485	0.205
485	0.205
486	0.205
486	0.206
487	0.206
487	0.207
487	0.207
488	0.208
488	0.208
489	0.209
489	0.211
490	0.212
490	0.212
491	0.213
491	0.214
492	0.215
492	0.215
492	0.216
493	0.217
493	0.218
494	0.218
494	0.219
495	0.22
495	0.22
496	0.221
496	0.222
496	0.223
497	0.224
497	0.225
498	0.226
498	0.227
499	0.228
499	0.229
500	0.23
500	0.231
501	0.232
501	0.233
501	0.233
502	0.234
502	0.235
503	0.236
503	0.237
504	0.238
504	0.239
505	0.24
505	0.241
506	0.242
506	0.243
506	0.244
507	0.245
507	0.246
508	0.247
508	0.248
509	0.25
509	0.251
510	0.252
510	0.253
511	0.254
511	0.255
511	0.256
512	0.257
512	0.258
513	0.259
513	0.26
514	0.261
514	0.262
515	0.263
515	0.264
515	0.265
516	0.266
516	0.267
517	0.269
517	0.27
518	0.271
518	0.271
519	0.273
519	0.273
520	0.274
520	0.276
520	0.277
521	0.278
521	0.279
522	0.279
522	0.28
523	0.281
523	0.282
524	0.283
524	0.283
524	0.284
525	0.284
525	0.284
526	0.284
526	0.285
527	0.286
527	0.286
528	0.287
528	0.287
529	0.288
529	0.289
529	0.29
530	0.29
530	0.291
531	0.291
531	0.291
532	0.292
532	0.292
533	0.293
533	0.292
533	0.293
534	0.292
534	0.292
535	0.292
535	0.292
536	0.291
536	0.291
537	0.29
537	0.29
538	0.29
538	0.29
538	0.29
539	0.291
539	0.291
540	0.291
540	0.291
541	0.29
541	0.29
542	0.29
542	0.29
542	0.289
543	0.288
543	0.288
544	0.287
544	0.287
545	0.287
545	0.287
546	0.286
546	0.286
547	0.285
547	0.284
547	0.284
548	0.284
548	0.283
549	0.283
549	0.283
550	0.282
550	0.281
551	0.281
551	0.281
551	0.281
552	0.282
552	0.282
553	0.282
553	0.282
554	0.281
554	0.281
555	0.28
555	0.28
556	0.28
556	0.279
556	0.278
557	0.277
557	0.277
558	0.276
558	0.275
559	0.275
559	0.274
560	0.274
560	0.273
560	0.273
561	0.272
561	0.272
562	0.271
562	0.27
563	0.269
563	0.269
564	0.268
564	0.268
564	0.268
565	0.268
565	0.268
566	0.267
566	0.267
567	0.266
567	0.266
568	0.265
568	0.265
568	0.264
569	0.263
569	0.262
570	0.261
570	0.26
571	0.259
571	0.259
572	0.258
572	0.258
573	0.257
573	0.257
573	0.256
574	0.256
574	0.256
575	0.256
575	0.256
576	0.256
576	0.255
577	0.255
577	0.255
577	0.255
578	0.255
578	0.255
579	0.255
579	0.255
580	0.255
580	0.253
581	0.253
581	0.252
581	0.253
582	0.253
582	0.252
583	0.252
583	0.252
584	0.251
584	0.25
585	0.25
585	0.251
585	0.251
586	0.251
586	0.251
587	0.251
587	0.251
588	0.25
588	0.25
589	0.251
589	0.251
590	0.251
590	0.251
590	0.252
591	0.251
591	0.251
592	0.25
592	0.25
593	0.25
593	0.25
594	0.25
594	0.25
594	0.25
595	0.25
595	0.25
596	0.25
596	0.251
597	0.252
597	0.251
598	0.251
598	0.251
598	0.251
599	0.251
599	0.25
600	0.249
600	0.249
601	0.248
601	0.248
602	0.247
602	0.247
602	0.247
603	0.248
603	0.249
604	0.249
604	0.25
605	0.251
605	0.252
606	0.251
606	0.251
606	0.251
607	0.251
607	0.25
608	0.25
608	0.249
609	0.249
609	0.249
610	0.248
610	0.248
610	0.248
611	0.249
611	0.25
612	0.25
612	0.251
613	0.251
613	0.251
614	0.25
614	0.249
614	0.249
615	0.248
615	0.248
616	0.247
616	0.247
617	0.246
617	0.245
618	0.245
618	0.245
618	0.245
619	0.245
619	0.246
620	0.247
620	0.247
621	0.246
621	0.247
622	0.246
622	0.246
622	0.246
623	0.245
623	0.246
624	0.245
624	0.245
625	0.245
625	0.244
626	0.244
626	0.243
626	0.243
627	0.243
627	0.242
628	0.241
628	0.24
629	0.239
629	0.238
630	0.237
630	0.235
630	0.234
631	0.233
631	0.231
632	0.229
632	0.227
633	0.226
633	0.224
634	0.222
634	0.221
634	0.219
635	0.217
635	0.214
636	0.212
636	0.209
637	0.206
637	0.203
638	0.2
638	0.197
638	0.193
639	0.189
639	0.184
640	0.18
640	0.176
641	0.172
641	0.168
642	0.163
642	0.159
642	0.155
643	0.15
643	0.146
644	0.141
644	0.136
645	0.13
645	0.125
646	0.12
646	0.114
646	0.108
647	0.102
647	0.096
648	0.09
648	0.084
649	0.076
649	0.069
650	0.062
650	0.055
650	0.046
651	0.037
651	0.025
652	0.011
652	-0.004
653	-0.017
653	-0.029
653	-0.027
654	-0.009
654	-0
655	-0.004
655	-0.009
656	-0.015
656	-0.022
657	-0.026
657	-0.03
657	-0.036
658	-0.043
658	-0.07
659	-0.15
659	-0.245
660	-0.289
660	-0.315
661	-0.342
661	-0.371
661	-0.404
662	-0.435
662	-0.468
663	-0.505
663	-0.548
664	-0.591
664	-0.643
665	-0.693
665	-0.75
665	-0.806
666	-0.862
666	-0.924
667	-0.988
667	-1.053
668	-1.126
668	-1.197
669	-1.271
669	-1.343
669	-1.418
670	-1.481
670	-1.495
671	-1.573
671	-1.895
672	-2.151
672	-2.355
672	-2.493
673	-2.59
673	-2.674
674	-2.73
674	-2.751
675	-2.778
675	-2.92
676	-3.127
676	-3.085
676	-2.864
677	-2.665
677	-2.51
678	-2.348
678	-2.091
679	-1.757
679	-1.6
680	-1.499
680	-1.411
680	-1.337
681	-1.289
681	-1.228
682	-1.187
682	-1.149
683	-1.113
683	-1.095
684	-1.073
684	-1.054
684	-1.031
685	-1.006
685	-0.983
686	-0.959
686	-0.943
687	-0.916
687	-0.904
687	-0.883
688	-0.855
688	-0.834
689	-0.813
689	-0.799
690	-0.78
690	-0.767
691	-0.76
691	-0.766
691	-0.782
692	-0.772
692	-0.763
693	-0.759
693	-0.767
694	-0.762
694	-0.754
695	-0.759
695	-0.755
695	-0.739
696	-0.733
696	-0.71
697	-0.71
697	-0.725
698	-0.727
698	-0.718
698	-0.73
699	-0.734
699	-0.732
700	-0.724
700	-0.738
701	-0.738
701	-0.745
702	-0.744
702	-0.731
702	-0.723
703	-0.716
703	-0.707
704	-0.701
704	-0.7
705	-0.712
705	-0.704
705	-0.692
706	-0.692
706	-0.687
707	-0.693
707	-0.687
708	-0.683
708	-0.675
709	-0.678
709	-0.68
709	-0.668
710	-0.675
710	-0.684
711	-0.674
711	-0.675
712	-0.674
712	-0.688
713	-0.688
713	-0.696
713	-0.687
714	-0.685
714	-0.689
715	-0.681
715	-0.667
716	-0.675
716	-0.675
716	-0.669
717	-0.67
717	-0.675
718	-0.665
718	-0.667
719	-0.672
719	-0.674
720	-0.67
720	-0.681
720	-0.675
721	-0.666
721	-0.665
722	-0.652
722	-0.64
723	-0.638
723	-0.64
723	-0.626
724	-0.627
724	-0.629
725	-0.627
725	-0.634
726	-0.646
726	-0.651
727	-0.658
727	-0.673
727	-0.679
728	-0.679
728	-0.688
729	-0.69
729	-0.697
730	-0.703
730	-0.697
730	-0.689
731	-0.67
731	-0.678
732	-0.684
732	-0.685
733	-0.685
733	-0.689
734	-0.683
734	-0.682
734	-0.671
735	-0.67
735	-0.671
736	-0.684
736	-0.671
737	-0.662
737	-0.664
737	-0.676
738	-0.671
738	-0.669
739	-0.667
739	-0.677
740	-0.674
740	-0.673
741	-0.668
741	-0.667
741	-0.673
742	-0.669
742	-0.668
743	-0.676
743	-0.68
744	-0.676
744	-0.668
744	-0.67
745	-0.675
745	-0.669
746	-0.671
746	-0.665
747	-0.668
747	-0.656
748	-0.641
748	-0.649
748	-0.652
749	-0.65
749	-0.652
750	-0.641
750	-0.641
751	-0.644
751	-0.653
751	-0.654
752	-0.657
752	-0.668
753	-0.66
753	-0.657
754	-0.662
754	-0.655
754	-0.672
755	-0.689
755	-0.699
756	-0.689
756	-0.688
757	-0.687
757	-0.682
758	-0.685
758	-0.68
758	-0.682
759	-0.69
759	-0.672
760	-0.666
760	-0.659
761	-0.669
761	-0.667
761	-0.665
762	-0.674
762	-0.673
763	-0.683
763	-0.681
764	-0.677
764	-0.685
764	-0.688
765	-0.68
765	-0.666
766	-0.671
766	-0.678
767	-0.69
767	-0.685
768	-0.676
768	-0.684
768	-0.689
769	-0.708
769	-0.708
770	-0.715
770	-0.728
771	-0.727
771	-0.73
771	-0.732
772	-0.735
772	-0.736
773	-0.736
773	-0.729
774	-0.726
774	-0.726
775	-0.727
775	-0.723
775	-0.731
776	-0.731
776	-0.719
777	-0.727
777	-0.746
778	-0.742
778	-0.764
778	-0.751
779	-0.773
779	-0.783
780	-0.797
780	-0.796
781	-0.807
781	-0.805
781	-0.821
782	-0.821
782	-0.827
783	-0.814
783	-0.815
784	-0.797
784	-0.786
784	-0.791
785	-0.797
785	-0.782
786	-0.786
786	-0.763
787	-0.747
787	-0.747
788	-0.748
788	-0.756
788	-0.766
789	-0.767
789	-0.75
790	-0.734
790	-0.734
791	-0.735
791	-0.751
791	-0.758
792	-0.752
792	-0.728
793	-0.716
793	-0.694
794	-0.698
794	-0.691
794	-0.698
795	-0.696
795	-0.689
796	-0.675
796	-0.681
797	-0.675
797	-0.688
797	-0.695
798	-0.707
798	-0.702
799	-0.715
799	-0.699
800	-0.705
800	-0.698
801	-0.704
801	-0.689
801	-0.699
802	-0.706
802	-0.706
803	-0.71
803	-0.719
804	-0.712
804	-0.724
804	-0.712
805	-0.717
805	-0.705
806	-0.707
806	-0.692
807	-0.692
807	-0.673
807	-0.658
808	-0.648
808	-0.643
809	-0.628
809	-0.637
810	-0.633
810	-0.628
810	-0.628
811	-0.635
811	-0.628
812	-0.629
812	-0.635
813	-0.638
813	-0.633
813	-0.639
814	-0.641
814	-0.646
815	-0.648
815	-0.651
816	-0.643
816	-0.646
817	-0.655
817	-0.669
817	-0.684
818	-0.691
818	-0.692
819	-0.683
819	-0.682
820	-0.693
820	-0.689
820	-0.699
821	-0.698
821	-0.685
822	-0.653
822	-0.629
823	-0.626
823	-0.63
823	-0.627
824	-0.624
824	-0.625
825	-0.617
825	-0.599
826	-0.594
826	-0.602
826	-0.613
827	-0.608
827	-0.605
828	-0.585
828	-0.587
829	-0.576
829	-0.564
829	-0.557
830	-0.567
830	-0.563
831	-0.555
831	-0.545
832	-0.542
832	-0.534
832	-0.542
833	-0.532
833	-0.534
834	-0.531
834	-0.538
835	-0.525
835	-0.519
835	-0.516
836	-0.513
836	-0.509
837	-0.506
837	-0.495
838	-0.49
838	-0.476
839	-0.464
839	-0.452
839	-0.443
840	-0.434
840	-0.428
841	-0.419
841	-0.412
842	-0.407
842	-0.399
842	-0.39
843	-0.385
843	-0.378
844	-0.37
844	-0.361
845	-0.35
845	-0.341
845	-0.328
846	-0.317
846	-0.303
847	-0.291
847	-0.28
848	-0.268
848	-0.259
848	-0.243
849	-0.233
849	-0.222
850	-0.208
850	-0.2
851	-0.192
851	-0.18
851	-0.17
852	-0.154
852	-0.14
853	-0.13
853	-0.124
854	-0.112
854	-0.102
854	-0.091
855	-0.08
855	-0.071
856	-0.061
856	-0.054
857	-0.048
857	-0.042
857	-0.032
858	-0.021
858	-0.015
859	-0.007
859	0.004
860	0.012
860	0.024
860	0.033
861	0.041
861	0.05
862	0.057
862	0.065
863	0.071
863	0.08
863	0.085
864	0.09
864	0.096
865	0.101
865	0.106
866	0.11
866	0.113
866	0.117
867	0.12
867	0.124
868	0.127
868	0.131
869	0.134
869	0.136
869	0.138
870	0.14
870	0.143
871	0.146
871	0.147
872	0.148
872	0.149
872	0.15
873	0.15
873	0.151
874	0.151
874	0.15
875	0.149
875	0.148
875	0.147
876	0.146
876	0.144
877	0.143
877	0.142
878	0.14
878	0.138
878	0.136
879	0.134
879	0.133
880	0.132
880	0.132
881	0.132
881	0.132
881	0.132
882	0.131
882	0.131
883	0.129
883	0.129
884	0.128
884	0.127
884	0.126
885	0.126
885	0.125
886	0.124
886	0.123
887	0.123
887	0.123
887	0.122
888	0.123
888	0.122
889	0.123
889	0.123
890	0.123
890	0.123
890	0.123
891	0.123
891	0.123
892	0.123
892	0.123
893	0.124
893	0.123
893	0.123
894	0.123
894	0.123
895	0.122
895	0.121
895	0.121
896	0.12
896	0.119
897	0.118
897	0.116
898	0.116
898	0.115
898	0.115
899	0.115
899	0.116
900	0.116
900	0.116
901	0.117
901	0.118
901	0.119
902	0.12
902	0.12
903	0.121
903	0.121
904	0.121
904	0.122
904	0.122
905	0.124
905	0.124
906	0.125
906	0.125
907	0.124
907	0.124
907	0.124
908	0.124
908	0.123
909	0.122
909	0.121
910	0.121
910	0.12
910	0.12
911	0.12
911	0.12
912	0.121
912	0.121
913	0.121
913	0.122
913	0.123
914	0.123
914	0.124
915	0.124
915	0.125
916	0.125
916	0.125
916	0.125
917	0.125
917	0.125
918	0.125
918	0.125
918	0.125
919	0.124
919	0.124
920	0.125
920	0.125
921	0.125
921	0.125
921	0.125
922	0.125
922	0.125
923	0.125
923	0.124
924	0.124
924	0.124
924	0.123
925	0.122
925	0.12
926	0.119
926	0.118
927	0.117
927	0.116
927	0.116
928	0.115
928	0.115
929	0.114
929	0.114
930	0.113
930	0.113
930	0.113
931	0.112
931	0.112
932	0.112
932	0.11
933	0.11
933	0.108
933	0.107
934	0.105
934	0.104
935	0.103
935	0.103
935	0.102
936	0.1
936	0.099
937	0.098
937	0.098
938	0.098
938	0.099
938	0.099
939	0.1
939	0.1
940	0.101
940	0.101
941	0.102
941	0.103
941	0.104
942	0.105
942	0.105
943	0.105
943	0.105
944	0.104
944	0.104
944	0.103
945	0.103
945	0.102
946	0.101
946	0.099
946	0.099
947	0.098
947	0.098
948	0.098
948	0.098
949	0.098
949	0.099
949	0.099
950	0.1
950	0.1
951	0.102
951	0.102
952	0.103
952	0.104
952	0.105
953	0.105
953	0.106
954	0.106
954	0.107
955	0.108
955	0.109
955	0.11
956	0.111
956	0.111
957	0.111
957	0.111
957	0.112
958	0.112
958	0.113
959	0.113
959	0.112
960	0.112
960	0.111
960	0.111
961	0.111
961	0.111
962	0.111
962	0.111
963	0.11
963	0.11
963	0.11
964	0.11
964	0.11
965	0.11
965	0.11
966	0.11
966	0.11
966	0.109
967	0.109
967	0.109
968	0.108
968	0.107
968	0.107
969	0.107
969	0.106
970	0.106
970	0.106
971	0.106
971	0.106
971	0.106
972	0.106
972	0.106
973	0.106
973	0.106
974	0.105
974	0.105
974	0.105
975	0.104
975	0.103
976	0.102
976	0.102
976	0.101
977	0.101
977	0.101
978	0.101
978	0.101
979	0.1
979	0.1
979	0.1
980	0.1
980	0.1
981	0.099
981	0.099
982	0.099
982	0.098
982	0.098
983	0.097
983	0.097
984	0.097
984	0.097
984	0.097
985	0.098
985	0.098
986	0.098
986	0.098
987	0.098
987	0.098
987	0.098
988	0.097
988	0.097
989	0.096
989	0.095
990	0.094
990	0.093
990	0.093
991	0.093
991	0.092
992	0.092
992	0.092
992	0.092
993	0.092
993	0.092
994	0.092
994	0.091
995	0.091
995	0.091
995	0.09
996	0.09
996	0.089
997	0.089
997	0.089
997	0.089
998	0.089
998	0.089
999	0.089
999	0.089
1000	0.09
1000	0.09
1000	0.09
1001	0.091
1001	0.091
1002	0.091
1002	0.091
1003	0.091
1003	0.091
1003	0.091
1004	0.091
1004	0.09
1005	0.089
1005	0.088
1005	0.087
1006	0.086
1006	0.085
1007	0.085
1007	0.084
1008	0.083
1008	0.083
1008	0.082
1009	0.082
1009	0.082
1010	0.082
1010	0.082
1010	0.082
1011	0.082
1011	0.081
1012	0.08
1012	0.08
1013	0.079
1013	0.078
1013	0.077
1014	0.076
1014	0.075
1015	0.074
1015	0.073
1016	0.072
1016	0.072
1016	0.071
1017	0.07
1017	0.07
1018	0.069
1018	0.069
1018	0.068
1019	0.068
1019	0.067
1020	0.066
1020	0.065
1021	0.064
1021	0.063
1021	0.062
1022	0.061
1022	0.061
1023	0.06
1023	0.06
1023	0.059
1024	0.059
1024	0.059
1025	0.059
1025	0.059
1026	0.06
1026	0.06
1026	0.06
1027	0.061
1027	0.061
1028	0.062
1028	0.062
1028	0.061
1029	0.061
1029	0.061
1030	0.06
1030	0.06
1031	0.059
1031	0.059
1031	0.059
1032	0.058
1032	0.058
1033	0.058
1033	0.059
1033	0.059
1034	0.059
1034	0.059
1035	0.06
1035	0.06
1036	0.06
1036	0.06
1036	0.06
1037	0.06
1037	0.06
1038	0.06
1038	0.06
1039	0.06
1039	0.061
1039	0.061
1040	0.061
1040	0.062
1041	0.062
1041	0.062
1041	0.062
1042	0.062
1042	0.062
1043	0.061
1043	0.061
1044	0.061
1044	0.06
1044	0.059
1045	0.058
1045	0.058
1046	0.057
1046	0.056
1046	0.056
1047	0.056
1047	0.056
1048	0.056
1048	0.056
1049	0.057
1049	0.057
1049	0.057
1050	0.058
1050	0.058
1051	0.058
1051	0.058
1051	0.059
1052	0.059
1052	0.059
1053	0.059
1053	0.059
1053	0.059
1054	0.059
1054	0.059
1055	0.059
1055	0.059
1056	0.058
1056	0.057
1056	0.056
1057	0.056
1057	0.055
1058	0.054
1058	0.054
1058	0.053
1059	0.052
1059	0.052
1060	0.051
1060	0.051
1061	0.051
1061	0.051
1061	0.05
1062	0.051
1062	0.05
1063	0.05
1063	0.051
1063	0.051
1064	0.051
1064	0.051
1065	0.051
1065	0.051
1066	0.051
1066	0.051
1066	0.05
1067	0.05
1067	0.049
1068	0.049
1068	0.048
1068	0.047
1069	0.047
1069	0.046
1070	0.046
1070	0.046
1071	0.045
1071	0.045
1071	0.045
1072	0.045
1072	0.044
1073	0.043
1073	0.043
1073	0.043
1074	0.043
1074	0.043
1075	0.043
1075	0.042
1076	0.041
1076	0.042
1076	0.041
1077	0.04
1077	0.04
1078	0.038
1078	0.038
1078	0.037
1079	0.036
1079	0.036
1080	0.035
1080	0.035
1080	0.033
1081	0.033
1081	0.032
1082	0.032
1082	0.031
1083	0.03
1083	0.029
1083	0.028
1084	0.028
1084	0.027
1085	0.026
1085	0.025
1085	0.025
1086	0.025
1086	0.024
1087	0.024
1087	0.024
1088	0.023
1088	0.023
1088	0.022
1089	0.021
1089	0.02
1090	0.019
1090	0.019
1090	0.018
1091	0.017
1091	0.017
1092	0.016
1092	0.016
1092	0.016
1093	0.015
1093	0.016
1094	0.016
1094	0.015
1095	0.014
1095	0.012
1095	0.012
1096	0.011
1096	0.01
1097	0.009
1097	0.008
1097	0.007
1098	0.005
1098	0.004
1099	0.003
1099	0.003
1100	0.002
1100	0
1100	-0.002
1101	-0.005
1101	-0.007
1102	-0.009
1102	-0.012
1102	-0.013
1103	-0.015
1103	-0.018
1104	-0.02
1104	-0.023
1104	-0.024
1105	-0.026
1105	-0.028
1106	-0.032
1106	-0.034
1107	-0.038
1107	-0.042
1107	-0.047
1108	-0.049
1108	-0.052
1109	-0.055
1109	-0.06
1109	-0.064
1110	-0.065
1110	-0.067
1111	-0.074
1111	-0.07
