Data from 17C_3.4A_30min_2sec_int_Absorbance__291__01012.txt Node

Date: Mon Jun 19 17:00:00 CEST 2023
User: Marek
Spectrometer: MAYP115816
Trigger mode: 0
Integration Time (sec): 2.500000E-1
Scans to average: 10
Electric dark correction enabled: true
Nonlinearity correction enabled: true
Boxcar width: 5
XAxis mode: Wavelengths
Number of Pixels in Spectrum: 2068
>>>>>Begin Spectral Data<<<<<
199	-0.624
199	-0.64
200	-0.551
200	-0.497
201	-0.463
201	-0.451
202	-0.434
202	-0.422
203	-0.418
203	-0.413
204	-0.401
204	-0.389
205	-0.367
205	-0.362
205	-0.36
206	-0.362
206	-0.365
207	-0.355
207	-0.355
208	-0.354
208	-0.355
209	-0.35
209	-0.349
210	-0.352
210	-0.357
211	-0.36
211	-0.362
212	-0.364
212	-0.371
213	-0.369
213	-0.37
213	-0.372
214	-0.368
214	-0.369
215	-0.37
215	-0.376
216	-0.381
216	-0.388
217	-0.384
217	-0.388
218	-0.392
218	-0.392
219	-0.398
219	-0.408
220	-0.414
220	-0.423
221	-0.42
221	-0.42
221	-0.414
222	-0.41
222	-0.413
223	-0.418
223	-0.422
224	-0.425
224	-0.425
225	-0.418
225	-0.412
226	-0.418
226	-0.417
227	-0.424
227	-0.433
228	-0.434
228	-0.434
229	-0.433
229	-0.427
229	-0.423
230	-0.427
230	-0.431
231	-0.426
231	-0.419
232	-0.412
232	-0.411
233	-0.404
233	-0.402
234	-0.404
234	-0.399
235	-0.4
235	-0.403
236	-0.402
236	-0.406
236	-0.411
237	-0.417
237	-0.418
238	-0.426
238	-0.426
239	-0.425
239	-0.434
240	-0.436
240	-0.436
241	-0.44
241	-0.438
242	-0.444
242	-0.438
243	-0.433
243	-0.433
243	-0.441
244	-0.441
244	-0.442
245	-0.454
245	-0.453
246	-0.458
246	-0.463
247	-0.464
247	-0.469
248	-0.476
248	-0.473
249	-0.476
249	-0.482
250	-0.48
250	-0.476
250	-0.478
251	-0.474
251	-0.476
252	-0.478
252	-0.47
253	-0.475
253	-0.487
254	-0.485
254	-0.484
255	-0.489
255	-0.483
256	-0.482
256	-0.494
257	-0.491
257	-0.488
258	-0.503
258	-0.498
258	-0.493
259	-0.489
259	-0.5
260	-0.501
260	-0.506
261	-0.515
261	-0.504
262	-0.501
262	-0.504
263	-0.493
263	-0.488
264	-0.489
264	-0.497
265	-0.491
265	-0.499
265	-0.501
266	-0.5
266	-0.499
267	-0.511
267	-0.518
268	-0.531
268	-0.539
269	-0.535
269	-0.529
270	-0.532
270	-0.534
271	-0.533
271	-0.536
272	-0.537
272	-0.532
272	-0.524
273	-0.523
273	-0.534
274	-0.539
274	-0.544
275	-0.548
275	-0.542
276	-0.548
276	-0.541
277	-0.547
277	-0.565
278	-0.576
278	-0.57
278	-0.563
279	-0.566
279	-0.578
280	-0.572
280	-0.573
281	-0.567
281	-0.574
282	-0.569
282	-0.567
283	-0.559
283	-0.561
284	-0.558
284	-0.548
285	-0.541
285	-0.539
285	-0.536
286	-0.54
286	-0.535
287	-0.531
287	-0.516
288	-0.507
288	-0.517
289	-0.526
289	-0.535
290	-0.524
290	-0.523
291	-0.519
291	-0.514
292	-0.517
292	-0.523
292	-0.525
293	-0.53
293	-0.518
294	-0.506
294	-0.501
295	-0.497
295	-0.495
296	-0.492
296	-0.49
297	-0.485
297	-0.471
298	-0.465
298	-0.472
298	-0.462
299	-0.455
299	-0.453
300	-0.449
300	-0.443
301	-0.439
301	-0.44
302	-0.448
302	-0.455
303	-0.445
303	-0.432
304	-0.433
304	-0.436
305	-0.44
305	-0.44
305	-0.438
306	-0.425
306	-0.416
307	-0.402
307	-0.406
308	-0.416
308	-0.414
309	-0.417
309	-0.405
310	-0.392
310	-0.391
311	-0.385
311	-0.389
311	-0.388
312	-0.384
312	-0.38
313	-0.368
313	-0.369
314	-0.366
314	-0.368
315	-0.369
315	-0.367
316	-0.364
316	-0.356
317	-0.347
317	-0.344
318	-0.336
318	-0.333
318	-0.33
319	-0.32
319	-0.318
320	-0.314
320	-0.315
321	-0.318
321	-0.319
322	-0.315
322	-0.311
323	-0.311
323	-0.307
324	-0.299
324	-0.293
324	-0.283
325	-0.27
325	-0.255
326	-0.24
326	-0.225
327	-0.211
327	-0.191
328	-0.164
328	-0.146
329	-0.125
329	-0.102
330	-0.077
330	-0.047
330	-0.022
331	0.004
331	0.03
332	0.052
332	0.073
333	0.093
333	0.114
334	0.131
334	0.147
335	0.161
335	0.173
336	0.185
336	0.197
336	0.205
337	0.214
337	0.222
338	0.229
338	0.234
339	0.241
339	0.246
340	0.249
340	0.253
341	0.256
341	0.259
342	0.262
342	0.264
342	0.267
343	0.268
343	0.271
344	0.272
344	0.273
345	0.274
345	0.275
346	0.275
346	0.276
347	0.277
347	0.278
348	0.278
348	0.279
348	0.279
349	0.279
349	0.279
350	0.279
350	0.279
351	0.279
351	0.279
352	0.279
352	0.279
353	0.279
353	0.278
354	0.278
354	0.278
354	0.278
355	0.278
355	0.278
356	0.278
356	0.278
357	0.277
357	0.277
358	0.276
358	0.276
359	0.276
359	0.275
360	0.275
360	0.275
360	0.275
361	0.275
361	0.274
362	0.275
362	0.275
363	0.275
363	0.274
364	0.274
364	0.274
365	0.274
365	0.274
366	0.274
366	0.274
366	0.274
367	0.274
367	0.274
368	0.274
368	0.273
369	0.273
369	0.273
370	0.273
370	0.272
371	0.272
371	0.272
372	0.272
372	0.272
372	0.272
373	0.271
373	0.271
374	0.271
374	0.271
375	0.271
375	0.271
376	0.271
376	0.271
377	0.271
377	0.271
378	0.271
378	0.271
378	0.271
379	0.271
379	0.27
380	0.27
380	0.27
381	0.27
381	0.269
382	0.269
382	0.269
383	0.268
383	0.268
383	0.268
384	0.268
384	0.268
385	0.267
385	0.267
386	0.267
386	0.267
387	0.267
387	0.267
388	0.267
388	0.267
389	0.266
389	0.266
389	0.266
390	0.267
390	0.266
391	0.266
391	0.266
392	0.266
392	0.266
393	0.266
393	0.265
394	0.265
394	0.265
394	0.264
395	0.264
395	0.264
396	0.263
396	0.263
397	0.263
397	0.263
398	0.263
398	0.263
399	0.263
399	0.263
400	0.263
400	0.263
400	0.263
401	0.262
401	0.262
402	0.262
402	0.262
403	0.261
403	0.261
404	0.261
404	0.261
405	0.261
405	0.261
405	0.26
406	0.26
406	0.26
407	0.26
407	0.26
408	0.26
408	0.26
409	0.26
409	0.259
410	0.259
410	0.259
411	0.259
411	0.259
411	0.259
412	0.259
412	0.259
413	0.259
413	0.258
414	0.258
414	0.258
415	0.258
415	0.258
416	0.258
416	0.258
416	0.257
417	0.257
417	0.257
418	0.257
418	0.257
419	0.257
419	0.257
420	0.257
420	0.257
421	0.257
421	0.257
421	0.257
422	0.257
422	0.257
423	0.257
423	0.257
424	0.256
424	0.256
425	0.256
425	0.256
426	0.255
426	0.255
427	0.255
427	0.254
427	0.254
428	0.254
428	0.254
429	0.254
429	0.254
430	0.254
430	0.254
431	0.254
431	0.254
432	0.254
432	0.254
432	0.253
433	0.253
433	0.253
434	0.253
434	0.253
435	0.253
435	0.252
436	0.252
436	0.252
437	0.252
437	0.252
437	0.252
438	0.251
438	0.251
439	0.251
439	0.251
440	0.251
440	0.251
441	0.251
441	0.251
442	0.251
442	0.251
442	0.251
443	0.251
443	0.251
444	0.251
444	0.251
445	0.251
445	0.251
446	0.251
446	0.251
447	0.251
447	0.252
447	0.252
448	0.252
448	0.252
449	0.252
449	0.252
450	0.252
450	0.252
451	0.252
451	0.252
452	0.252
452	0.252
452	0.252
453	0.252
453	0.252
454	0.252
454	0.251
455	0.251
455	0.252
456	0.252
456	0.252
457	0.252
457	0.251
458	0.252
458	0.252
458	0.252
459	0.252
459	0.252
460	0.251
460	0.251
461	0.251
461	0.251
462	0.251
462	0.251
463	0.252
463	0.252
463	0.252
464	0.252
464	0.252
465	0.252
465	0.253
466	0.253
466	0.253
467	0.253
467	0.253
467	0.254
468	0.254
468	0.254
469	0.254
469	0.255
470	0.255
470	0.256
471	0.256
471	0.256
472	0.256
472	0.256
472	0.256
473	0.257
473	0.257
474	0.257
474	0.258
475	0.258
475	0.258
476	0.259
476	0.259
477	0.259
477	0.26
477	0.26
478	0.261
478	0.261
479	0.261
479	0.262
480	0.262
480	0.263
481	0.263
481	0.264
482	0.264
482	0.265
482	0.266
483	0.267
483	0.268
484	0.268
484	0.268
485	0.269
485	0.27
486	0.271
486	0.271
487	0.272
487	0.273
487	0.274
488	0.275
488	0.276
489	0.277
489	0.279
490	0.281
490	0.282
491	0.283
491	0.284
492	0.285
492	0.286
492	0.287
493	0.288
493	0.289
494	0.291
494	0.292
495	0.293
495	0.294
496	0.295
496	0.297
496	0.299
497	0.3
497	0.302
498	0.303
498	0.305
499	0.306
499	0.308
500	0.31
500	0.312
501	0.313
501	0.315
501	0.316
502	0.317
502	0.319
503	0.321
503	0.322
504	0.324
504	0.326
505	0.327
505	0.329
506	0.33
506	0.332
506	0.333
507	0.335
507	0.337
508	0.339
508	0.34
509	0.342
509	0.344
510	0.346
510	0.348
511	0.349
511	0.351
511	0.353
512	0.355
512	0.356
513	0.358
513	0.359
514	0.361
514	0.363
515	0.364
515	0.366
515	0.367
516	0.369
516	0.371
517	0.372
517	0.374
518	0.376
518	0.377
519	0.379
519	0.38
520	0.382
520	0.384
520	0.385
521	0.386
521	0.388
522	0.389
522	0.39
523	0.391
523	0.393
524	0.393
524	0.394
524	0.394
525	0.395
525	0.395
526	0.396
526	0.397
527	0.398
527	0.399
528	0.399
528	0.4
529	0.401
529	0.402
529	0.403
530	0.404
530	0.404
531	0.405
531	0.405
532	0.406
532	0.406
533	0.406
533	0.406
533	0.406
534	0.406
534	0.406
535	0.406
535	0.406
536	0.405
536	0.404
537	0.404
537	0.403
538	0.403
538	0.403
538	0.402
539	0.402
539	0.402
540	0.401
540	0.401
541	0.4
541	0.4
542	0.399
542	0.398
542	0.397
543	0.397
543	0.396
544	0.395
544	0.394
545	0.394
545	0.393
546	0.393
546	0.392
547	0.391
547	0.39
547	0.389
548	0.388
548	0.387
549	0.386
549	0.385
550	0.384
550	0.383
551	0.382
551	0.382
551	0.382
552	0.382
552	0.382
553	0.381
553	0.381
554	0.38
554	0.379
555	0.378
555	0.377
556	0.377
556	0.375
556	0.375
557	0.373
557	0.372
558	0.371
558	0.37
559	0.368
559	0.368
560	0.366
560	0.366
560	0.365
561	0.364
561	0.363
562	0.362
562	0.36
563	0.359
563	0.358
564	0.357
564	0.356
564	0.356
565	0.355
565	0.354
566	0.353
566	0.352
567	0.352
567	0.351
568	0.35
568	0.349
568	0.348
569	0.347
569	0.345
570	0.344
570	0.342
571	0.341
571	0.34
572	0.339
572	0.338
573	0.337
573	0.336
573	0.335
574	0.335
574	0.334
575	0.334
575	0.334
576	0.333
576	0.332
577	0.331
577	0.33
577	0.33
578	0.33
578	0.329
579	0.329
579	0.329
580	0.327
580	0.326
581	0.325
581	0.325
581	0.324
582	0.324
582	0.323
583	0.323
583	0.322
584	0.321
584	0.319
585	0.32
585	0.32
585	0.319
586	0.319
586	0.319
587	0.318
587	0.318
588	0.317
588	0.317
589	0.316
589	0.316
590	0.316
590	0.315
590	0.316
591	0.315
591	0.314
592	0.313
592	0.312
593	0.312
593	0.312
594	0.311
594	0.311
594	0.311
595	0.31
595	0.31
596	0.309
596	0.31
597	0.31
597	0.31
598	0.309
598	0.308
598	0.308
599	0.307
599	0.306
600	0.305
600	0.304
601	0.304
601	0.303
602	0.302
602	0.302
602	0.301
603	0.302
603	0.302
604	0.302
604	0.302
605	0.303
605	0.303
606	0.302
606	0.301
606	0.3
607	0.3
607	0.299
608	0.298
608	0.296
609	0.296
609	0.295
610	0.295
610	0.294
610	0.294
611	0.293
611	0.294
612	0.294
612	0.294
613	0.294
613	0.293
614	0.292
614	0.291
614	0.29
615	0.289
615	0.288
616	0.288
616	0.287
617	0.286
617	0.285
618	0.284
618	0.283
618	0.282
619	0.282
619	0.282
620	0.282
620	0.281
621	0.28
621	0.279
622	0.279
622	0.278
622	0.277
623	0.276
623	0.276
624	0.275
624	0.274
625	0.273
625	0.273
626	0.272
626	0.271
626	0.27
627	0.269
627	0.267
628	0.266
628	0.264
629	0.263
629	0.261
630	0.259
630	0.257
630	0.255
631	0.253
631	0.251
632	0.248
632	0.246
633	0.243
633	0.24
634	0.238
634	0.235
634	0.231
635	0.228
635	0.225
636	0.221
636	0.217
637	0.213
637	0.209
638	0.204
638	0.2
638	0.195
639	0.19
639	0.185
640	0.179
640	0.174
641	0.169
641	0.164
642	0.158
642	0.153
642	0.148
643	0.142
643	0.136
644	0.13
644	0.123
645	0.117
645	0.111
646	0.105
646	0.098
646	0.091
647	0.085
647	0.078
648	0.071
648	0.064
649	0.056
649	0.049
650	0.042
650	0.034
650	0.026
651	0.016
651	0.003
652	-0.011
652	-0.026
653	-0.039
653	-0.051
653	-0.048
654	-0.028
654	-0.016
655	-0.019
655	-0.024
656	-0.029
656	-0.034
657	-0.038
657	-0.042
657	-0.047
658	-0.054
658	-0.081
659	-0.163
659	-0.262
660	-0.306
660	-0.333
661	-0.362
661	-0.394
661	-0.43
662	-0.465
662	-0.502
663	-0.543
663	-0.589
664	-0.637
664	-0.691
665	-0.746
665	-0.807
665	-0.865
666	-0.926
666	-0.99
667	-1.057
667	-1.125
668	-1.2
668	-1.277
669	-1.354
669	-1.433
669	-1.518
670	-1.602
670	-1.693
671	-1.931
671	-2.114
672	-2.301
672	-2.469
672	-2.584
673	-2.666
673	-2.738
674	-2.767
674	-2.782
675	-2.804
675	-2.936
676	-3.1
676	-3.049
676	-2.821
677	-2.611
677	-2.438
678	-2.24
678	-1.873
679	-1.664
679	-1.547
680	-1.458
680	-1.378
680	-1.311
681	-1.268
681	-1.211
682	-1.172
682	-1.133
683	-1.098
683	-1.08
684	-1.058
684	-1.039
684	-1.016
685	-0.99
685	-0.966
686	-0.941
686	-0.924
687	-0.897
687	-0.883
687	-0.861
688	-0.835
688	-0.813
689	-0.788
689	-0.775
690	-0.755
690	-0.742
691	-0.733
691	-0.735
691	-0.748
692	-0.74
692	-0.732
693	-0.724
693	-0.73
694	-0.727
694	-0.718
695	-0.721
695	-0.718
695	-0.703
696	-0.698
696	-0.677
697	-0.675
697	-0.688
698	-0.692
698	-0.682
698	-0.692
699	-0.693
699	-0.691
700	-0.682
700	-0.696
701	-0.693
701	-0.699
702	-0.701
702	-0.69
702	-0.682
703	-0.674
703	-0.666
704	-0.664
704	-0.662
705	-0.67
705	-0.663
705	-0.654
706	-0.652
706	-0.647
707	-0.649
707	-0.643
708	-0.639
708	-0.632
709	-0.635
709	-0.638
709	-0.631
710	-0.639
710	-0.649
711	-0.641
711	-0.639
712	-0.641
712	-0.654
713	-0.652
713	-0.659
713	-0.649
714	-0.646
714	-0.647
715	-0.634
715	-0.621
716	-0.628
716	-0.631
716	-0.624
717	-0.626
717	-0.629
718	-0.619
718	-0.621
719	-0.626
719	-0.627
720	-0.626
720	-0.633
720	-0.626
721	-0.616
721	-0.614
722	-0.599
722	-0.591
723	-0.59
723	-0.593
723	-0.58
724	-0.584
724	-0.584
725	-0.585
725	-0.593
726	-0.607
726	-0.612
727	-0.62
727	-0.632
727	-0.636
728	-0.634
728	-0.64
729	-0.639
729	-0.645
730	-0.649
730	-0.644
730	-0.631
731	-0.614
731	-0.622
732	-0.63
732	-0.633
733	-0.631
733	-0.636
734	-0.63
734	-0.63
734	-0.617
735	-0.617
735	-0.618
736	-0.629
736	-0.617
737	-0.607
737	-0.606
737	-0.615
738	-0.611
738	-0.614
739	-0.611
739	-0.626
740	-0.622
740	-0.621
741	-0.617
741	-0.616
741	-0.619
742	-0.616
742	-0.618
743	-0.626
743	-0.629
744	-0.627
744	-0.614
744	-0.615
745	-0.622
745	-0.615
746	-0.616
746	-0.613
747	-0.616
747	-0.603
748	-0.588
748	-0.593
748	-0.595
749	-0.594
749	-0.596
750	-0.586
750	-0.587
751	-0.589
751	-0.596
751	-0.598
752	-0.604
752	-0.616
753	-0.61
753	-0.608
754	-0.611
754	-0.605
754	-0.619
755	-0.635
755	-0.647
756	-0.634
756	-0.632
757	-0.63
757	-0.627
758	-0.629
758	-0.622
758	-0.626
759	-0.635
759	-0.619
760	-0.612
760	-0.607
761	-0.619
761	-0.614
761	-0.613
762	-0.618
762	-0.619
763	-0.63
763	-0.629
764	-0.623
764	-0.63
764	-0.636
765	-0.624
765	-0.612
766	-0.62
766	-0.626
767	-0.64
767	-0.632
768	-0.623
768	-0.629
768	-0.634
769	-0.651
769	-0.65
770	-0.657
770	-0.668
771	-0.665
771	-0.669
771	-0.671
772	-0.675
772	-0.676
773	-0.677
773	-0.675
774	-0.674
774	-0.675
775	-0.678
775	-0.673
775	-0.682
776	-0.68
776	-0.668
777	-0.678
777	-0.697
778	-0.694
778	-0.711
778	-0.697
779	-0.717
779	-0.726
780	-0.739
780	-0.736
781	-0.745
781	-0.743
781	-0.76
782	-0.76
782	-0.764
783	-0.752
783	-0.752
784	-0.735
784	-0.728
784	-0.735
785	-0.742
785	-0.729
786	-0.734
786	-0.709
787	-0.692
787	-0.691
788	-0.689
788	-0.697
788	-0.704
789	-0.7
789	-0.684
790	-0.666
790	-0.67
791	-0.673
791	-0.689
791	-0.697
792	-0.693
792	-0.673
793	-0.664
793	-0.644
794	-0.649
794	-0.64
794	-0.649
795	-0.645
795	-0.635
796	-0.621
796	-0.627
797	-0.622
797	-0.634
797	-0.641
798	-0.652
798	-0.645
799	-0.655
799	-0.639
800	-0.644
800	-0.639
801	-0.643
801	-0.629
801	-0.639
802	-0.645
802	-0.647
803	-0.647
803	-0.656
804	-0.654
804	-0.665
804	-0.654
805	-0.659
805	-0.649
806	-0.651
806	-0.636
807	-0.635
807	-0.615
807	-0.605
808	-0.599
808	-0.592
809	-0.575
809	-0.584
810	-0.581
810	-0.572
810	-0.569
811	-0.575
811	-0.566
812	-0.568
812	-0.571
813	-0.575
813	-0.57
813	-0.579
814	-0.579
814	-0.582
815	-0.587
815	-0.589
816	-0.581
816	-0.584
817	-0.589
817	-0.607
817	-0.621
818	-0.629
818	-0.633
819	-0.626
819	-0.628
820	-0.639
820	-0.635
820	-0.647
821	-0.645
821	-0.635
822	-0.603
822	-0.579
823	-0.577
823	-0.577
823	-0.575
824	-0.567
824	-0.569
825	-0.565
825	-0.547
826	-0.542
826	-0.547
826	-0.557
827	-0.554
827	-0.548
828	-0.531
828	-0.53
829	-0.525
829	-0.512
829	-0.503
830	-0.512
830	-0.51
831	-0.505
831	-0.495
832	-0.494
832	-0.488
832	-0.493
833	-0.488
833	-0.486
834	-0.483
834	-0.493
835	-0.481
835	-0.476
835	-0.473
836	-0.471
836	-0.466
837	-0.464
837	-0.454
838	-0.448
838	-0.437
839	-0.425
839	-0.412
839	-0.403
840	-0.391
840	-0.387
841	-0.375
841	-0.367
842	-0.36
842	-0.352
842	-0.345
843	-0.339
843	-0.336
844	-0.328
844	-0.322
845	-0.317
845	-0.307
845	-0.297
846	-0.288
846	-0.277
847	-0.266
847	-0.255
848	-0.245
848	-0.234
848	-0.219
849	-0.21
849	-0.2
850	-0.187
850	-0.18
851	-0.173
851	-0.162
851	-0.155
852	-0.142
852	-0.131
853	-0.124
853	-0.119
854	-0.108
854	-0.097
854	-0.089
855	-0.08
855	-0.075
856	-0.066
856	-0.058
857	-0.052
857	-0.044
857	-0.034
858	-0.026
858	-0.02
859	-0.014
859	-0.005
860	0.003
860	0.014
860	0.02
861	0.027
861	0.033
862	0.038
862	0.045
863	0.05
863	0.057
863	0.061
864	0.065
864	0.07
865	0.074
865	0.077
866	0.08
866	0.083
866	0.085
867	0.087
867	0.091
868	0.093
868	0.096
869	0.099
869	0.101
869	0.103
870	0.106
870	0.108
871	0.11
871	0.112
872	0.113
872	0.114
872	0.115
873	0.115
873	0.116
874	0.116
874	0.116
875	0.115
875	0.114
875	0.113
876	0.112
876	0.111
877	0.11
877	0.108
878	0.106
878	0.104
878	0.102
879	0.101
879	0.099
880	0.098
880	0.098
881	0.098
881	0.098
881	0.098
882	0.097
882	0.097
883	0.097
883	0.096
884	0.096
884	0.095
884	0.095
885	0.094
885	0.093
886	0.092
886	0.092
887	0.091
887	0.091
887	0.09
888	0.091
888	0.09
889	0.091
889	0.091
890	0.092
890	0.092
890	0.091
891	0.091
891	0.091
892	0.091
892	0.091
893	0.091
893	0.09
893	0.09
894	0.089
894	0.089
895	0.088
895	0.087
895	0.087
896	0.086
896	0.085
897	0.084
897	0.083
898	0.082
898	0.082
898	0.081
899	0.082
899	0.082
900	0.082
900	0.083
901	0.083
901	0.084
901	0.085
902	0.085
902	0.085
903	0.086
903	0.086
904	0.086
904	0.086
904	0.087
905	0.088
905	0.088
906	0.088
906	0.089
907	0.088
907	0.088
907	0.088
908	0.088
908	0.087
909	0.087
909	0.086
910	0.086
910	0.085
910	0.085
911	0.085
911	0.086
912	0.086
912	0.087
913	0.087
913	0.088
913	0.088
914	0.089
914	0.089
915	0.09
915	0.09
916	0.09
916	0.09
916	0.09
917	0.09
917	0.09
918	0.089
918	0.089
918	0.088
919	0.088
919	0.087
920	0.087
920	0.087
921	0.087
921	0.087
921	0.087
922	0.087
922	0.087
923	0.087
923	0.087
924	0.087
924	0.087
924	0.086
925	0.085
925	0.084
926	0.083
926	0.082
927	0.082
927	0.081
927	0.081
928	0.081
928	0.08
929	0.08
929	0.08
930	0.08
930	0.08
930	0.08
931	0.08
931	0.079
932	0.079
932	0.078
933	0.077
933	0.076
933	0.074
934	0.073
934	0.072
935	0.071
935	0.07
935	0.069
936	0.067
936	0.066
937	0.065
937	0.065
938	0.065
938	0.065
938	0.066
939	0.066
939	0.067
940	0.067
940	0.068
941	0.069
941	0.07
941	0.071
942	0.072
942	0.072
943	0.073
943	0.073
944	0.073
944	0.072
944	0.072
945	0.072
945	0.071
946	0.069
946	0.068
946	0.067
947	0.066
947	0.066
948	0.066
948	0.066
949	0.066
949	0.067
949	0.067
950	0.068
950	0.069
951	0.07
951	0.071
952	0.072
952	0.073
952	0.073
953	0.074
953	0.075
954	0.075
954	0.076
955	0.076
955	0.078
955	0.079
956	0.08
956	0.08
957	0.08
957	0.08
957	0.08
958	0.08
958	0.081
959	0.081
959	0.081
960	0.081
960	0.08
960	0.08
961	0.08
961	0.08
962	0.08
962	0.08
963	0.08
963	0.079
963	0.079
964	0.079
964	0.079
965	0.079
965	0.079
966	0.079
966	0.079
966	0.079
967	0.079
967	0.078
968	0.078
968	0.077
968	0.076
969	0.076
969	0.076
970	0.075
970	0.075
971	0.076
971	0.076
971	0.076
972	0.076
972	0.076
973	0.076
973	0.076
974	0.076
974	0.075
974	0.075
975	0.074
975	0.074
976	0.072
976	0.072
976	0.071
977	0.071
977	0.071
978	0.07
978	0.07
979	0.07
979	0.069
979	0.069
980	0.068
980	0.068
981	0.068
981	0.068
982	0.067
982	0.067
982	0.067
983	0.066
983	0.066
984	0.066
984	0.067
984	0.067
985	0.068
985	0.068
986	0.068
986	0.068
987	0.069
987	0.068
987	0.068
988	0.068
988	0.067
989	0.067
989	0.066
990	0.065
990	0.064
990	0.063
991	0.063
991	0.062
992	0.062
992	0.062
992	0.062
993	0.062
993	0.062
994	0.062
994	0.062
995	0.062
995	0.061
995	0.061
996	0.061
996	0.06
997	0.06
997	0.06
997	0.06
998	0.06
998	0.06
999	0.061
999	0.061
1000	0.061
1000	0.061
1000	0.061
1001	0.062
1001	0.062
1002	0.062
1002	0.062
1003	0.062
1003	0.061
1003	0.061
1004	0.06
1004	0.06
1005	0.059
1005	0.058
1005	0.057
1006	0.055
1006	0.054
1007	0.054
1007	0.053
1008	0.052
1008	0.052
1008	0.052
1009	0.052
1009	0.052
1010	0.052
1010	0.052
1010	0.052
1011	0.051
1011	0.051
1012	0.05
1012	0.049
1013	0.048
1013	0.047
1013	0.046
1014	0.045
1014	0.044
1015	0.043
1015	0.043
1016	0.042
1016	0.041
1016	0.04
1017	0.04
1017	0.039
1018	0.039
1018	0.038
1018	0.037
1019	0.037
1019	0.036
1020	0.036
1020	0.035
1021	0.034
1021	0.033
1021	0.033
1022	0.032
1022	0.031
1023	0.031
1023	0.031
1023	0.031
1024	0.031
1024	0.031
1025	0.031
1025	0.031
1026	0.032
1026	0.032
1026	0.033
1027	0.033
1027	0.034
1028	0.034
1028	0.034
1028	0.034
1029	0.034
1029	0.034
1030	0.033
1030	0.033
1031	0.032
1031	0.032
1031	0.032
1032	0.032
1032	0.032
1033	0.032
1033	0.032
1033	0.032
1034	0.032
1034	0.033
1035	0.033
1035	0.033
1036	0.032
1036	0.032
1036	0.032
1037	0.032
1037	0.032
1038	0.032
1038	0.032
1039	0.032
1039	0.032
1039	0.032
1040	0.033
1040	0.033
1041	0.033
1041	0.033
1041	0.033
1042	0.033
1042	0.033
1043	0.033
1043	0.032
1044	0.032
1044	0.031
1044	0.031
1045	0.03
1045	0.03
1046	0.03
1046	0.03
1046	0.03
1047	0.03
1047	0.03
1048	0.031
1048	0.031
1049	0.032
1049	0.032
1049	0.032
1050	0.032
1050	0.032
1051	0.032
1051	0.032
1051	0.033
1052	0.033
1052	0.033
1053	0.033
1053	0.033
1053	0.033
1054	0.032
1054	0.032
1055	0.032
1055	0.032
1056	0.031
1056	0.03
1056	0.029
1057	0.028
1057	0.028
1058	0.027
1058	0.026
1058	0.026
1059	0.025
1059	0.024
1060	0.024
1060	0.024
1061	0.024
1061	0.024
1061	0.024
1062	0.024
1062	0.024
1063	0.024
1063	0.024
1063	0.025
1064	0.025
1064	0.026
1065	0.025
1065	0.025
1066	0.025
1066	0.025
1066	0.024
1067	0.024
1067	0.023
1068	0.023
1068	0.022
1068	0.021
1069	0.021
1069	0.02
1070	0.02
1070	0.02
1071	0.02
1071	0.021
1071	0.02
1072	0.02
1072	0.02
1073	0.02
1073	0.019
1073	0.019
1074	0.019
1074	0.019
1075	0.019
1075	0.018
1076	0.018
1076	0.018
1076	0.017
1077	0.017
1077	0.016
1078	0.015
1078	0.015
1078	0.014
1079	0.013
1079	0.013
1080	0.012
1080	0.012
1080	0.011
1081	0.01
1081	0.01
1082	0.009
1082	0.008
1083	0.008
1083	0.007
1083	0.006
1084	0.005
1084	0.004
1085	0.003
1085	0.003
1085	0.002
1086	0.002
1086	0.001
1087	0.001
1087	0.001
1088	0.001
1088	0.001
1088	0
1089	0
1089	0
1090	-0.001
1090	-0.001
1090	-0.002
1091	-0.003
1091	-0.003
1092	-0.004
1092	-0.003
1092	-0.005
1093	-0.006
1093	-0.006
1094	-0.006
1094	-0.006
1095	-0.008
1095	-0.008
1095	-0.008
1096	-0.009
1096	-0.01
1097	-0.01
1097	-0.011
1097	-0.012
1098	-0.013
1098	-0.014
1099	-0.015
1099	-0.015
1100	-0.017
1100	-0.018
1100	-0.019
1101	-0.021
1101	-0.023
1102	-0.024
1102	-0.026
1102	-0.026
1103	-0.029
1103	-0.031
1104	-0.032
1104	-0.034
1104	-0.036
1105	-0.037
1105	-0.04
1106	-0.043
1106	-0.045
1107	-0.049
1107	-0.053
1107	-0.057
1108	-0.058
1108	-0.062
1109	-0.064
1109	-0.067
1109	-0.07
1110	-0.07
1110	-0.073
1111	-0.078
1111	-0.077
