Data from 17C_3.4A_30min_2sec_int_Absorbance__698__01419.txt Node

Date: Mon Jun 19 17:16:57 CEST 2023
User: Marek
Spectrometer: MAYP115816
Trigger mode: 0
Integration Time (sec): 2.500000E-1
Scans to average: 10
Electric dark correction enabled: true
Nonlinearity correction enabled: true
Boxcar width: 5
XAxis mode: Wavelengths
Number of Pixels in Spectrum: 2068
>>>>>Begin Spectral Data<<<<<
199	-0.676
199	-0.695
200	-0.595
200	-0.549
201	-0.514
201	-0.502
202	-0.483
202	-0.471
203	-0.461
203	-0.457
204	-0.445
204	-0.433
205	-0.41
205	-0.406
205	-0.403
206	-0.406
206	-0.409
207	-0.401
207	-0.403
208	-0.408
208	-0.406
209	-0.402
209	-0.405
210	-0.408
210	-0.414
211	-0.415
211	-0.417
212	-0.42
212	-0.428
213	-0.427
213	-0.428
213	-0.435
214	-0.429
214	-0.427
215	-0.426
215	-0.433
216	-0.436
216	-0.444
217	-0.436
217	-0.44
218	-0.443
218	-0.441
219	-0.443
219	-0.452
220	-0.457
220	-0.468
221	-0.468
221	-0.472
221	-0.465
222	-0.465
222	-0.466
223	-0.469
223	-0.474
224	-0.479
224	-0.481
225	-0.478
225	-0.472
226	-0.474
226	-0.474
227	-0.479
227	-0.486
228	-0.486
228	-0.487
229	-0.486
229	-0.478
229	-0.473
230	-0.476
230	-0.48
231	-0.474
231	-0.467
232	-0.463
232	-0.464
233	-0.46
233	-0.459
234	-0.457
234	-0.455
235	-0.457
235	-0.46
236	-0.457
236	-0.461
236	-0.466
237	-0.469
237	-0.468
238	-0.478
238	-0.476
239	-0.478
239	-0.485
240	-0.486
240	-0.483
241	-0.49
241	-0.488
242	-0.494
242	-0.49
243	-0.486
243	-0.485
243	-0.494
244	-0.493
244	-0.494
245	-0.507
245	-0.509
246	-0.515
246	-0.522
247	-0.522
247	-0.528
248	-0.534
248	-0.532
249	-0.533
249	-0.541
250	-0.54
250	-0.536
250	-0.535
251	-0.529
251	-0.528
252	-0.532
252	-0.522
253	-0.526
253	-0.537
254	-0.536
254	-0.535
255	-0.541
255	-0.533
256	-0.53
256	-0.542
257	-0.537
257	-0.532
258	-0.549
258	-0.545
258	-0.542
259	-0.539
259	-0.549
260	-0.55
260	-0.558
261	-0.568
261	-0.56
262	-0.56
262	-0.562
263	-0.55
263	-0.546
264	-0.544
264	-0.553
265	-0.546
265	-0.551
265	-0.554
266	-0.554
266	-0.554
267	-0.567
267	-0.576
268	-0.591
268	-0.6
269	-0.599
269	-0.592
270	-0.597
270	-0.601
271	-0.601
271	-0.605
272	-0.607
272	-0.601
272	-0.592
273	-0.592
273	-0.6
274	-0.603
274	-0.607
275	-0.605
275	-0.595
276	-0.6
276	-0.591
277	-0.593
277	-0.611
278	-0.623
278	-0.616
278	-0.609
279	-0.614
279	-0.626
280	-0.625
280	-0.627
281	-0.624
281	-0.631
282	-0.625
282	-0.624
283	-0.614
283	-0.617
284	-0.613
284	-0.602
285	-0.597
285	-0.596
285	-0.593
286	-0.598
286	-0.596
287	-0.595
287	-0.578
288	-0.571
288	-0.58
289	-0.591
289	-0.601
290	-0.592
290	-0.589
291	-0.587
291	-0.58
292	-0.582
292	-0.589
292	-0.593
293	-0.599
293	-0.587
294	-0.578
294	-0.568
295	-0.564
295	-0.56
296	-0.557
296	-0.555
297	-0.549
297	-0.532
298	-0.525
298	-0.534
298	-0.523
299	-0.516
299	-0.517
300	-0.515
300	-0.511
301	-0.509
301	-0.507
302	-0.513
302	-0.52
303	-0.511
303	-0.495
304	-0.498
304	-0.497
305	-0.497
305	-0.496
305	-0.491
306	-0.476
306	-0.47
307	-0.458
307	-0.459
308	-0.472
308	-0.471
309	-0.475
309	-0.466
310	-0.456
310	-0.451
311	-0.446
311	-0.455
311	-0.452
312	-0.449
312	-0.45
313	-0.435
313	-0.436
314	-0.432
314	-0.433
315	-0.432
315	-0.432
316	-0.429
316	-0.418
317	-0.411
317	-0.404
318	-0.391
318	-0.391
318	-0.386
319	-0.375
319	-0.374
320	-0.368
320	-0.371
321	-0.377
321	-0.376
322	-0.373
322	-0.369
323	-0.37
323	-0.362
324	-0.356
324	-0.35
324	-0.34
325	-0.331
325	-0.314
326	-0.301
326	-0.286
327	-0.27
327	-0.252
328	-0.228
328	-0.21
329	-0.187
329	-0.165
330	-0.141
330	-0.111
330	-0.085
331	-0.057
331	-0.033
332	-0.011
332	0.011
333	0.031
333	0.051
334	0.069
334	0.083
335	0.099
335	0.111
336	0.122
336	0.134
336	0.142
337	0.152
337	0.159
338	0.166
338	0.17
339	0.176
339	0.181
340	0.184
340	0.188
341	0.191
341	0.194
342	0.197
342	0.199
342	0.201
343	0.203
343	0.206
344	0.207
344	0.208
345	0.209
345	0.21
346	0.211
346	0.212
347	0.212
347	0.213
348	0.213
348	0.214
348	0.214
349	0.214
349	0.214
350	0.214
350	0.215
351	0.214
351	0.215
352	0.215
352	0.215
353	0.214
353	0.214
354	0.214
354	0.214
354	0.214
355	0.214
355	0.214
356	0.214
356	0.213
357	0.213
357	0.213
358	0.213
358	0.212
359	0.212
359	0.212
360	0.212
360	0.212
360	0.212
361	0.211
361	0.211
362	0.211
362	0.211
363	0.212
363	0.212
364	0.212
364	0.211
365	0.211
365	0.211
366	0.211
366	0.211
366	0.211
367	0.211
367	0.211
368	0.211
368	0.211
369	0.211
369	0.21
370	0.21
370	0.21
371	0.21
371	0.21
372	0.21
372	0.21
372	0.21
373	0.21
373	0.21
374	0.21
374	0.21
375	0.21
375	0.21
376	0.21
376	0.209
377	0.209
377	0.209
378	0.209
378	0.21
378	0.209
379	0.209
379	0.209
380	0.209
380	0.209
381	0.209
381	0.208
382	0.208
382	0.208
383	0.208
383	0.208
383	0.208
384	0.207
384	0.207
385	0.208
385	0.208
386	0.208
386	0.207
387	0.207
387	0.207
388	0.207
388	0.207
389	0.207
389	0.207
389	0.207
390	0.207
390	0.207
391	0.207
391	0.207
392	0.207
392	0.207
393	0.207
393	0.207
394	0.207
394	0.206
394	0.206
395	0.206
395	0.206
396	0.206
396	0.206
397	0.206
397	0.206
398	0.206
398	0.205
399	0.205
399	0.205
400	0.205
400	0.205
400	0.205
401	0.205
401	0.205
402	0.205
402	0.204
403	0.204
403	0.204
404	0.204
404	0.204
405	0.204
405	0.204
405	0.204
406	0.204
406	0.204
407	0.204
407	0.204
408	0.204
408	0.204
409	0.203
409	0.203
410	0.203
410	0.203
411	0.203
411	0.203
411	0.203
412	0.203
412	0.203
413	0.203
413	0.203
414	0.203
414	0.203
415	0.203
415	0.203
416	0.203
416	0.202
416	0.202
417	0.202
417	0.202
418	0.202
418	0.202
419	0.202
419	0.202
420	0.202
420	0.202
421	0.203
421	0.203
421	0.203
422	0.203
422	0.203
423	0.203
423	0.203
424	0.202
424	0.202
425	0.202
425	0.202
426	0.201
426	0.201
427	0.201
427	0.201
427	0.2
428	0.2
428	0.2
429	0.2
429	0.2
430	0.2
430	0.2
431	0.2
431	0.2
432	0.2
432	0.2
432	0.2
433	0.199
433	0.199
434	0.199
434	0.199
435	0.199
435	0.199
436	0.199
436	0.199
437	0.199
437	0.199
437	0.198
438	0.198
438	0.199
439	0.198
439	0.199
440	0.198
440	0.198
441	0.198
441	0.198
442	0.198
442	0.198
442	0.198
443	0.198
443	0.198
444	0.198
444	0.198
445	0.198
445	0.198
446	0.198
446	0.198
447	0.198
447	0.199
447	0.199
448	0.199
448	0.199
449	0.199
449	0.199
450	0.2
450	0.199
451	0.199
451	0.199
452	0.199
452	0.199
452	0.199
453	0.199
453	0.198
454	0.198
454	0.198
455	0.198
455	0.198
456	0.198
456	0.198
457	0.198
457	0.198
458	0.198
458	0.198
458	0.198
459	0.198
459	0.198
460	0.198
460	0.197
461	0.197
461	0.197
462	0.197
462	0.198
463	0.198
463	0.198
463	0.198
464	0.198
464	0.198
465	0.198
465	0.198
466	0.198
466	0.199
467	0.199
467	0.199
467	0.199
468	0.199
468	0.199
469	0.199
469	0.2
470	0.2
470	0.2
471	0.2
471	0.2
472	0.201
472	0.201
472	0.201
473	0.201
473	0.201
474	0.201
474	0.202
475	0.202
475	0.202
476	0.203
476	0.203
477	0.203
477	0.203
477	0.203
478	0.203
478	0.204
479	0.204
479	0.204
480	0.204
480	0.204
481	0.204
481	0.205
482	0.205
482	0.206
482	0.206
483	0.207
483	0.207
484	0.208
484	0.208
485	0.208
485	0.209
486	0.209
486	0.21
487	0.21
487	0.211
487	0.211
488	0.212
488	0.212
489	0.213
489	0.215
490	0.216
490	0.216
491	0.217
491	0.218
492	0.219
492	0.219
492	0.22
493	0.221
493	0.222
494	0.223
494	0.223
495	0.224
495	0.225
496	0.226
496	0.227
496	0.228
497	0.229
497	0.23
498	0.231
498	0.231
499	0.232
499	0.233
500	0.235
500	0.236
501	0.236
501	0.237
501	0.238
502	0.239
502	0.24
503	0.241
503	0.242
504	0.243
504	0.244
505	0.245
505	0.246
506	0.247
506	0.249
506	0.249
507	0.251
507	0.252
508	0.253
508	0.254
509	0.255
509	0.256
510	0.258
510	0.259
511	0.26
511	0.261
511	0.263
512	0.264
512	0.265
513	0.266
513	0.267
514	0.268
514	0.269
515	0.27
515	0.271
515	0.272
516	0.273
516	0.274
517	0.275
517	0.276
518	0.277
518	0.278
519	0.279
519	0.28
520	0.281
520	0.282
520	0.284
521	0.285
521	0.286
522	0.286
522	0.287
523	0.288
523	0.289
524	0.289
524	0.29
524	0.29
525	0.29
525	0.291
526	0.291
526	0.292
527	0.292
527	0.293
528	0.293
528	0.294
529	0.295
529	0.295
529	0.296
530	0.297
530	0.297
531	0.298
531	0.298
532	0.298
532	0.299
533	0.299
533	0.299
533	0.299
534	0.299
534	0.299
535	0.299
535	0.298
536	0.298
536	0.297
537	0.297
537	0.297
538	0.297
538	0.297
538	0.297
539	0.297
539	0.297
540	0.297
540	0.297
541	0.297
541	0.297
542	0.296
542	0.296
542	0.295
543	0.295
543	0.294
544	0.293
544	0.293
545	0.293
545	0.293
546	0.292
546	0.292
547	0.291
547	0.29
547	0.29
548	0.289
548	0.289
549	0.288
549	0.288
550	0.288
550	0.287
551	0.287
551	0.287
551	0.287
552	0.288
552	0.288
553	0.288
553	0.287
554	0.287
554	0.286
555	0.285
555	0.285
556	0.284
556	0.284
556	0.283
557	0.282
557	0.282
558	0.281
558	0.28
559	0.28
559	0.279
560	0.279
560	0.278
560	0.278
561	0.277
561	0.277
562	0.276
562	0.275
563	0.274
563	0.274
564	0.273
564	0.273
564	0.273
565	0.272
565	0.272
566	0.271
566	0.271
567	0.271
567	0.27
568	0.27
568	0.269
568	0.268
569	0.267
569	0.267
570	0.265
570	0.264
571	0.264
571	0.263
572	0.263
572	0.262
573	0.262
573	0.262
573	0.261
574	0.261
574	0.261
575	0.26
575	0.261
576	0.26
576	0.259
577	0.259
577	0.259
577	0.259
578	0.259
578	0.259
579	0.259
579	0.259
580	0.258
580	0.257
581	0.256
581	0.256
581	0.256
582	0.257
582	0.256
583	0.256
583	0.256
584	0.254
584	0.254
585	0.254
585	0.255
585	0.255
586	0.255
586	0.255
587	0.255
587	0.254
588	0.254
588	0.254
589	0.254
589	0.254
590	0.254
590	0.254
590	0.255
591	0.255
591	0.255
592	0.254
592	0.254
593	0.254
593	0.254
594	0.254
594	0.253
594	0.253
595	0.254
595	0.253
596	0.253
596	0.254
597	0.255
597	0.255
598	0.255
598	0.255
598	0.255
599	0.254
599	0.253
600	0.253
600	0.252
601	0.252
601	0.251
602	0.251
602	0.251
602	0.251
603	0.251
603	0.252
604	0.253
604	0.254
605	0.254
605	0.255
606	0.255
606	0.254
606	0.254
607	0.254
607	0.253
608	0.253
608	0.252
609	0.251
609	0.251
610	0.251
610	0.251
610	0.251
611	0.252
611	0.252
612	0.253
612	0.254
613	0.254
613	0.254
614	0.253
614	0.252
614	0.252
615	0.251
615	0.25
616	0.25
616	0.249
617	0.249
617	0.248
618	0.247
618	0.247
618	0.247
619	0.248
619	0.248
620	0.248
620	0.248
621	0.248
621	0.248
622	0.248
622	0.248
622	0.247
623	0.247
623	0.247
624	0.247
624	0.246
625	0.246
625	0.246
626	0.245
626	0.245
626	0.245
627	0.245
627	0.244
628	0.243
628	0.242
629	0.241
629	0.24
630	0.239
630	0.238
630	0.236
631	0.235
631	0.233
632	0.231
632	0.229
633	0.228
633	0.226
634	0.224
634	0.222
634	0.22
635	0.218
635	0.215
636	0.213
636	0.21
637	0.207
637	0.204
638	0.2
638	0.197
638	0.193
639	0.189
639	0.185
640	0.181
640	0.176
641	0.172
641	0.168
642	0.164
642	0.16
642	0.155
643	0.151
643	0.145
644	0.14
644	0.135
645	0.13
645	0.125
646	0.119
646	0.114
646	0.107
647	0.102
647	0.096
648	0.09
648	0.083
649	0.076
649	0.069
650	0.062
650	0.054
650	0.046
651	0.036
651	0.023
652	0.009
652	-0.006
653	-0.019
653	-0.03
653	-0.028
654	-0.011
654	-0.002
655	-0.005
655	-0.011
656	-0.017
656	-0.023
657	-0.028
657	-0.032
657	-0.038
658	-0.044
658	-0.071
659	-0.15
659	-0.244
660	-0.288
660	-0.313
661	-0.341
661	-0.371
661	-0.405
662	-0.437
662	-0.47
663	-0.51
663	-0.551
664	-0.596
664	-0.647
665	-0.697
665	-0.756
665	-0.811
666	-0.868
666	-0.93
667	-0.995
667	-1.062
668	-1.134
668	-1.208
669	-1.281
669	-1.355
669	-1.432
670	-1.5
670	-1.547
671	-1.711
671	-1.982
672	-2.208
672	-2.397
672	-2.526
673	-2.618
673	-2.698
674	-2.748
674	-2.768
675	-2.794
675	-2.934
676	-3.127
676	-3.08
676	-2.858
677	-2.657
677	-2.5
678	-2.334
678	-2.064
679	-1.746
679	-1.594
680	-1.494
680	-1.408
680	-1.334
681	-1.287
681	-1.226
682	-1.185
682	-1.147
683	-1.11
683	-1.092
684	-1.07
684	-1.05
684	-1.028
685	-1.002
685	-0.98
686	-0.954
686	-0.938
687	-0.912
687	-0.9
687	-0.879
688	-0.852
688	-0.832
689	-0.811
689	-0.796
690	-0.778
690	-0.765
691	-0.757
691	-0.761
691	-0.775
692	-0.766
692	-0.758
693	-0.753
693	-0.758
694	-0.752
694	-0.745
695	-0.749
695	-0.744
695	-0.73
696	-0.728
696	-0.705
697	-0.705
697	-0.721
698	-0.723
698	-0.715
698	-0.728
699	-0.731
699	-0.728
700	-0.72
700	-0.734
701	-0.733
701	-0.739
702	-0.741
702	-0.727
702	-0.718
703	-0.71
703	-0.7
704	-0.698
704	-0.697
705	-0.709
705	-0.702
705	-0.688
706	-0.689
706	-0.682
707	-0.687
707	-0.684
708	-0.683
708	-0.677
709	-0.68
709	-0.681
709	-0.67
710	-0.678
710	-0.689
711	-0.682
711	-0.682
712	-0.682
712	-0.694
713	-0.692
713	-0.7
713	-0.691
714	-0.69
714	-0.691
715	-0.682
715	-0.668
716	-0.674
716	-0.676
716	-0.67
717	-0.671
717	-0.672
718	-0.661
718	-0.661
719	-0.666
719	-0.668
720	-0.662
720	-0.671
720	-0.666
721	-0.654
721	-0.655
722	-0.642
722	-0.633
723	-0.631
723	-0.635
723	-0.621
724	-0.624
724	-0.628
725	-0.628
725	-0.636
726	-0.649
726	-0.651
727	-0.657
727	-0.672
727	-0.679
728	-0.679
728	-0.687
729	-0.686
729	-0.69
730	-0.697
730	-0.687
730	-0.678
731	-0.664
731	-0.674
732	-0.678
732	-0.68
733	-0.68
733	-0.683
734	-0.676
734	-0.677
734	-0.662
735	-0.662
735	-0.662
736	-0.67
736	-0.657
737	-0.65
737	-0.649
737	-0.658
738	-0.655
738	-0.659
739	-0.655
739	-0.67
740	-0.67
740	-0.671
741	-0.666
741	-0.667
741	-0.668
742	-0.665
742	-0.664
743	-0.67
743	-0.673
744	-0.671
744	-0.662
744	-0.662
745	-0.668
745	-0.661
746	-0.657
746	-0.655
747	-0.658
747	-0.648
748	-0.637
748	-0.64
748	-0.642
749	-0.641
749	-0.642
750	-0.629
750	-0.629
751	-0.635
751	-0.644
751	-0.646
752	-0.651
752	-0.658
753	-0.654
753	-0.649
754	-0.652
754	-0.646
754	-0.662
755	-0.678
755	-0.688
756	-0.68
756	-0.678
757	-0.676
757	-0.673
758	-0.677
758	-0.675
758	-0.676
759	-0.683
759	-0.666
760	-0.659
760	-0.655
761	-0.664
761	-0.664
761	-0.663
762	-0.669
762	-0.67
763	-0.677
763	-0.675
764	-0.674
764	-0.682
764	-0.686
765	-0.678
765	-0.664
766	-0.668
766	-0.673
767	-0.689
767	-0.68
768	-0.675
768	-0.683
768	-0.688
769	-0.706
769	-0.707
770	-0.711
770	-0.724
771	-0.721
771	-0.724
771	-0.724
772	-0.728
772	-0.726
773	-0.725
773	-0.72
774	-0.718
774	-0.718
775	-0.72
775	-0.716
775	-0.724
776	-0.724
776	-0.713
777	-0.721
777	-0.739
778	-0.738
778	-0.757
778	-0.745
779	-0.769
779	-0.776
780	-0.788
780	-0.786
781	-0.797
781	-0.793
781	-0.808
782	-0.81
782	-0.813
783	-0.801
783	-0.797
784	-0.775
784	-0.764
784	-0.774
785	-0.78
785	-0.767
786	-0.773
786	-0.753
787	-0.738
787	-0.736
788	-0.737
788	-0.748
788	-0.757
789	-0.761
789	-0.742
790	-0.724
790	-0.728
791	-0.726
791	-0.742
791	-0.751
792	-0.747
792	-0.725
793	-0.714
793	-0.696
794	-0.697
794	-0.69
794	-0.699
795	-0.693
795	-0.688
796	-0.673
796	-0.678
797	-0.671
797	-0.685
797	-0.693
798	-0.704
798	-0.699
799	-0.708
799	-0.692
800	-0.698
800	-0.69
801	-0.694
801	-0.679
801	-0.689
802	-0.697
802	-0.697
803	-0.699
803	-0.708
804	-0.704
804	-0.716
804	-0.703
805	-0.707
805	-0.698
806	-0.701
806	-0.687
807	-0.687
807	-0.669
807	-0.657
808	-0.647
808	-0.643
809	-0.629
809	-0.639
810	-0.636
810	-0.629
810	-0.626
811	-0.631
811	-0.62
812	-0.619
812	-0.622
813	-0.629
813	-0.623
813	-0.629
814	-0.63
814	-0.635
815	-0.638
815	-0.643
816	-0.634
816	-0.64
817	-0.647
817	-0.664
817	-0.678
818	-0.687
818	-0.687
819	-0.678
819	-0.677
820	-0.687
820	-0.683
820	-0.695
821	-0.693
821	-0.683
822	-0.652
822	-0.628
823	-0.623
823	-0.628
823	-0.626
824	-0.622
824	-0.624
825	-0.615
825	-0.597
826	-0.592
826	-0.597
826	-0.606
827	-0.602
827	-0.597
828	-0.578
828	-0.579
829	-0.568
829	-0.555
829	-0.548
830	-0.557
830	-0.552
831	-0.545
831	-0.538
832	-0.534
832	-0.527
832	-0.533
833	-0.527
833	-0.528
834	-0.524
834	-0.532
835	-0.519
835	-0.516
835	-0.512
836	-0.507
836	-0.505
837	-0.504
837	-0.493
838	-0.486
838	-0.473
839	-0.463
839	-0.452
839	-0.442
840	-0.43
840	-0.426
841	-0.416
841	-0.408
842	-0.401
842	-0.394
842	-0.386
843	-0.382
843	-0.374
844	-0.365
844	-0.359
845	-0.353
845	-0.342
845	-0.327
846	-0.314
846	-0.299
847	-0.287
847	-0.276
848	-0.264
848	-0.252
848	-0.237
849	-0.226
849	-0.213
850	-0.201
850	-0.196
851	-0.187
851	-0.177
851	-0.168
852	-0.152
852	-0.14
853	-0.133
853	-0.127
854	-0.116
854	-0.103
854	-0.092
855	-0.081
855	-0.075
856	-0.065
856	-0.058
857	-0.052
857	-0.044
857	-0.033
858	-0.022
858	-0.015
859	-0.007
859	0.004
860	0.013
860	0.026
860	0.034
861	0.043
861	0.051
862	0.059
862	0.066
863	0.073
863	0.081
863	0.086
864	0.091
864	0.096
865	0.101
865	0.106
866	0.11
866	0.113
866	0.117
867	0.12
867	0.124
868	0.127
868	0.13
869	0.133
869	0.136
869	0.137
870	0.14
870	0.142
871	0.144
871	0.146
872	0.147
872	0.147
872	0.148
873	0.148
873	0.149
874	0.149
874	0.148
875	0.147
875	0.146
875	0.145
876	0.144
876	0.143
877	0.141
877	0.14
878	0.138
878	0.136
878	0.134
879	0.133
879	0.131
880	0.131
880	0.13
881	0.13
881	0.13
881	0.129
882	0.129
882	0.128
883	0.127
883	0.127
884	0.126
884	0.125
884	0.125
885	0.124
885	0.123
886	0.123
886	0.122
887	0.121
887	0.121
887	0.121
888	0.121
888	0.121
889	0.121
889	0.121
890	0.122
890	0.122
890	0.121
891	0.122
891	0.122
892	0.122
892	0.122
893	0.122
893	0.123
893	0.122
894	0.122
894	0.122
895	0.121
895	0.121
895	0.121
896	0.12
896	0.119
897	0.117
897	0.116
898	0.115
898	0.114
898	0.114
899	0.114
899	0.115
900	0.115
900	0.115
901	0.116
901	0.116
901	0.117
902	0.118
902	0.119
903	0.119
903	0.119
904	0.12
904	0.12
904	0.121
905	0.122
905	0.123
906	0.123
906	0.123
907	0.123
907	0.122
907	0.122
908	0.121
908	0.12
909	0.12
909	0.119
910	0.118
910	0.117
910	0.117
911	0.117
911	0.118
912	0.118
912	0.119
913	0.119
913	0.12
913	0.121
914	0.121
914	0.122
915	0.122
915	0.123
916	0.123
916	0.123
916	0.123
917	0.123
917	0.123
918	0.123
918	0.122
918	0.122
919	0.122
919	0.121
920	0.122
920	0.122
921	0.122
921	0.122
921	0.122
922	0.122
922	0.122
923	0.121
923	0.121
924	0.121
924	0.121
924	0.12
925	0.119
925	0.118
926	0.117
926	0.116
927	0.115
927	0.114
927	0.114
928	0.113
928	0.113
929	0.112
929	0.112
930	0.112
930	0.111
930	0.111
931	0.11
931	0.11
932	0.11
932	0.109
933	0.108
933	0.107
933	0.105
934	0.104
934	0.103
935	0.102
935	0.101
935	0.1
936	0.099
936	0.098
937	0.097
937	0.097
938	0.097
938	0.097
938	0.097
939	0.098
939	0.098
940	0.099
940	0.1
941	0.1
941	0.101
941	0.102
942	0.103
942	0.103
943	0.103
943	0.103
944	0.102
944	0.102
944	0.101
945	0.101
945	0.1
946	0.099
946	0.097
946	0.096
947	0.096
947	0.095
948	0.096
948	0.096
949	0.096
949	0.097
949	0.097
950	0.098
950	0.098
951	0.099
951	0.1
952	0.101
952	0.101
952	0.102
953	0.103
953	0.104
954	0.104
954	0.105
955	0.105
955	0.107
955	0.108
956	0.109
956	0.109
957	0.109
957	0.11
957	0.11
958	0.11
958	0.111
959	0.111
959	0.111
960	0.111
960	0.111
960	0.111
961	0.11
961	0.11
962	0.11
962	0.11
963	0.11
963	0.11
963	0.109
964	0.109
964	0.11
965	0.11
965	0.109
966	0.109
966	0.109
966	0.109
967	0.108
967	0.107
968	0.107
968	0.106
968	0.105
969	0.105
969	0.104
970	0.104
970	0.104
971	0.104
971	0.104
971	0.104
972	0.104
972	0.104
973	0.104
973	0.104
974	0.104
974	0.104
974	0.103
975	0.103
975	0.102
976	0.101
976	0.101
976	0.1
977	0.1
977	0.1
978	0.1
978	0.1
979	0.099
979	0.099
979	0.099
980	0.098
980	0.098
981	0.098
981	0.097
982	0.097
982	0.097
982	0.096
983	0.096
983	0.096
984	0.096
984	0.096
984	0.096
985	0.097
985	0.097
986	0.097
986	0.097
987	0.097
987	0.097
987	0.097
988	0.096
988	0.096
989	0.095
989	0.094
990	0.093
990	0.093
990	0.092
991	0.092
991	0.091
992	0.091
992	0.091
992	0.09
993	0.09
993	0.09
994	0.09
994	0.09
995	0.089
995	0.089
995	0.089
996	0.088
996	0.088
997	0.088
997	0.088
997	0.088
998	0.088
998	0.088
999	0.088
999	0.089
1000	0.089
1000	0.089
1000	0.089
1001	0.09
1001	0.09
1002	0.089
1002	0.089
1003	0.089
1003	0.089
1003	0.089
1004	0.089
1004	0.088
1005	0.088
1005	0.087
1005	0.086
1006	0.085
1006	0.084
1007	0.083
1007	0.082
1008	0.081
1008	0.081
1008	0.08
1009	0.08
1009	0.08
1010	0.08
1010	0.08
1010	0.079
1011	0.079
1011	0.079
1012	0.078
1012	0.078
1013	0.077
1013	0.076
1013	0.075
1014	0.074
1014	0.073
1015	0.072
1015	0.071
1016	0.07
1016	0.069
1016	0.069
1017	0.068
1017	0.067
1018	0.066
1018	0.066
1018	0.065
1019	0.065
1019	0.064
1020	0.063
1020	0.063
1021	0.062
1021	0.061
1021	0.06
1022	0.059
1022	0.059
1023	0.058
1023	0.058
1023	0.057
1024	0.057
1024	0.057
1025	0.057
1025	0.057
1026	0.057
1026	0.058
1026	0.058
1027	0.058
1027	0.058
1028	0.059
1028	0.059
1028	0.059
1029	0.059
1029	0.058
1030	0.058
1030	0.057
1031	0.057
1031	0.057
1031	0.056
1032	0.056
1032	0.056
1033	0.056
1033	0.057
1033	0.057
1034	0.057
1034	0.057
1035	0.057
1035	0.057
1036	0.057
1036	0.057
1036	0.057
1037	0.057
1037	0.057
1038	0.057
1038	0.057
1039	0.057
1039	0.057
1039	0.058
1040	0.058
1040	0.059
1041	0.059
1041	0.059
1041	0.06
1042	0.06
1042	0.06
1043	0.059
1043	0.059
1044	0.058
1044	0.058
1044	0.057
1045	0.056
1045	0.056
1046	0.055
1046	0.055
1046	0.055
1047	0.055
1047	0.055
1048	0.055
1048	0.055
1049	0.056
1049	0.056
1049	0.056
1050	0.057
1050	0.057
1051	0.057
1051	0.057
1051	0.058
1052	0.058
1052	0.058
1053	0.059
1053	0.059
1053	0.058
1054	0.058
1054	0.058
1055	0.058
1055	0.057
1056	0.057
1056	0.056
1056	0.054
1057	0.054
1057	0.053
1058	0.053
1058	0.052
1058	0.051
1059	0.051
1059	0.051
1060	0.05
1060	0.05
1061	0.05
1061	0.05
1061	0.05
1062	0.05
1062	0.05
1063	0.05
1063	0.05
1063	0.05
1064	0.05
1064	0.05
1065	0.05
1065	0.05
1066	0.049
1066	0.049
1066	0.048
1067	0.048
1067	0.048
1068	0.047
1068	0.046
1068	0.045
1069	0.045
1069	0.044
1070	0.044
1070	0.044
1071	0.044
1071	0.044
1071	0.043
1072	0.042
1072	0.042
1073	0.041
1073	0.041
1073	0.041
1074	0.042
1074	0.042
1075	0.042
1075	0.042
1076	0.041
1076	0.041
1076	0.04
1077	0.04
1077	0.039
1078	0.039
1078	0.038
1078	0.037
1079	0.036
1079	0.035
1080	0.034
1080	0.034
1080	0.033
1081	0.033
1081	0.033
1082	0.032
1082	0.031
1083	0.03
1083	0.029
1083	0.028
1084	0.027
1084	0.027
1085	0.025
1085	0.025
1085	0.025
1086	0.024
1086	0.023
1087	0.023
1087	0.023
1088	0.022
1088	0.022
1088	0.021
1089	0.02
1089	0.02
1090	0.018
1090	0.018
1090	0.017
1091	0.016
1091	0.016
1092	0.014
1092	0.015
1092	0.014
1093	0.013
1093	0.013
1094	0.013
1094	0.013
1095	0.012
1095	0.012
1095	0.011
1096	0.01
1096	0.01
1097	0.01
1097	0.009
1097	0.009
1098	0.008
1098	0.006
1099	0.005
1099	0.004
1100	0.002
1100	0.001
1100	-0.001
1101	-0.004
1101	-0.007
1102	-0.009
1102	-0.011
1102	-0.012
1103	-0.014
1103	-0.016
1104	-0.018
1104	-0.019
1104	-0.022
1105	-0.024
1105	-0.026
1106	-0.031
1106	-0.033
1107	-0.038
1107	-0.042
1107	-0.046
1108	-0.048
1108	-0.05
1109	-0.054
1109	-0.057
1109	-0.059
1110	-0.06
1110	-0.061
1111	-0.068
1111	-0.067
