Data from 17C_3.4A_30min_2sec_int_Absorbance__665__01386.txt Node

Date: Mon Jun 19 17:15:35 CEST 2023
User: Marek
Spectrometer: MAYP115816
Trigger mode: 0
Integration Time (sec): 2.500000E-1
Scans to average: 10
Electric dark correction enabled: true
Nonlinearity correction enabled: true
Boxcar width: 5
XAxis mode: Wavelengths
Number of Pixels in Spectrum: 2068
>>>>>Begin Spectral Data<<<<<
199	-0.689
199	-0.693
200	-0.6
200	-0.549
201	-0.513
201	-0.504
202	-0.484
202	-0.472
203	-0.464
203	-0.46
204	-0.446
204	-0.432
205	-0.411
205	-0.404
205	-0.401
206	-0.402
206	-0.402
207	-0.394
207	-0.397
208	-0.399
208	-0.398
209	-0.394
209	-0.395
210	-0.401
210	-0.408
211	-0.411
211	-0.415
212	-0.417
212	-0.425
213	-0.423
213	-0.423
213	-0.425
214	-0.423
214	-0.422
215	-0.419
215	-0.423
216	-0.426
216	-0.434
217	-0.43
217	-0.435
218	-0.437
218	-0.438
219	-0.443
219	-0.453
220	-0.457
220	-0.468
221	-0.466
221	-0.468
221	-0.461
222	-0.456
222	-0.456
223	-0.46
223	-0.464
224	-0.467
224	-0.465
225	-0.46
225	-0.454
226	-0.46
226	-0.461
227	-0.466
227	-0.476
228	-0.477
228	-0.477
229	-0.477
229	-0.47
229	-0.467
230	-0.471
230	-0.474
231	-0.47
231	-0.461
232	-0.455
232	-0.455
233	-0.448
233	-0.449
234	-0.446
234	-0.444
235	-0.448
235	-0.452
236	-0.45
236	-0.453
236	-0.46
237	-0.467
237	-0.465
238	-0.474
238	-0.47
239	-0.471
239	-0.48
240	-0.479
240	-0.478
241	-0.482
241	-0.48
242	-0.483
242	-0.479
243	-0.477
243	-0.479
243	-0.489
244	-0.488
244	-0.486
245	-0.5
245	-0.5
246	-0.504
246	-0.51
247	-0.51
247	-0.516
248	-0.523
248	-0.519
249	-0.522
249	-0.532
250	-0.53
250	-0.525
250	-0.527
251	-0.524
251	-0.525
252	-0.529
252	-0.521
253	-0.525
253	-0.537
254	-0.534
254	-0.53
255	-0.538
255	-0.531
256	-0.527
256	-0.541
257	-0.537
257	-0.535
258	-0.549
258	-0.544
258	-0.54
259	-0.538
259	-0.547
260	-0.547
260	-0.552
261	-0.566
261	-0.555
262	-0.553
262	-0.553
263	-0.542
263	-0.538
264	-0.537
264	-0.545
265	-0.541
265	-0.547
265	-0.548
266	-0.543
266	-0.541
267	-0.554
267	-0.561
268	-0.577
268	-0.585
269	-0.584
269	-0.578
270	-0.584
270	-0.588
271	-0.59
271	-0.595
272	-0.599
272	-0.594
272	-0.586
273	-0.584
273	-0.593
274	-0.596
274	-0.6
275	-0.6
275	-0.594
276	-0.599
276	-0.591
277	-0.595
277	-0.612
278	-0.623
278	-0.616
278	-0.61
279	-0.615
279	-0.624
280	-0.621
280	-0.621
281	-0.615
281	-0.624
282	-0.618
282	-0.618
283	-0.612
283	-0.615
284	-0.609
284	-0.596
285	-0.592
285	-0.59
285	-0.588
286	-0.596
286	-0.591
287	-0.588
287	-0.573
288	-0.562
288	-0.571
289	-0.584
289	-0.594
290	-0.585
290	-0.582
291	-0.579
291	-0.571
292	-0.573
292	-0.578
292	-0.583
293	-0.589
293	-0.577
294	-0.567
294	-0.559
295	-0.557
295	-0.555
296	-0.553
296	-0.553
297	-0.547
297	-0.532
298	-0.525
298	-0.533
298	-0.521
299	-0.514
299	-0.513
300	-0.506
300	-0.499
301	-0.495
301	-0.494
302	-0.503
302	-0.513
303	-0.502
303	-0.488
304	-0.492
304	-0.492
305	-0.496
305	-0.498
305	-0.5
306	-0.484
306	-0.476
307	-0.464
307	-0.463
308	-0.476
308	-0.473
309	-0.474
309	-0.464
310	-0.451
310	-0.447
311	-0.439
311	-0.449
311	-0.447
312	-0.442
312	-0.439
313	-0.425
313	-0.428
314	-0.426
314	-0.429
315	-0.432
315	-0.43
316	-0.426
316	-0.416
317	-0.408
317	-0.405
318	-0.396
318	-0.395
318	-0.391
319	-0.381
319	-0.377
320	-0.371
320	-0.372
321	-0.376
321	-0.376
322	-0.373
322	-0.368
323	-0.367
323	-0.362
324	-0.354
324	-0.344
324	-0.334
325	-0.324
325	-0.308
326	-0.296
326	-0.279
327	-0.263
327	-0.243
328	-0.219
328	-0.2
329	-0.179
329	-0.157
330	-0.133
330	-0.104
330	-0.078
331	-0.051
331	-0.028
332	-0.006
332	0.015
333	0.035
333	0.056
334	0.073
334	0.087
335	0.101
335	0.114
336	0.125
336	0.137
336	0.146
337	0.155
337	0.162
338	0.169
338	0.174
339	0.18
339	0.184
340	0.188
340	0.192
341	0.195
341	0.198
342	0.201
342	0.203
342	0.206
343	0.207
343	0.21
344	0.211
344	0.212
345	0.214
345	0.214
346	0.215
346	0.216
347	0.216
347	0.217
348	0.217
348	0.217
348	0.217
349	0.218
349	0.218
350	0.218
350	0.218
351	0.218
351	0.218
352	0.218
352	0.218
353	0.218
353	0.218
354	0.218
354	0.217
354	0.217
355	0.217
355	0.217
356	0.217
356	0.217
357	0.217
357	0.216
358	0.216
358	0.216
359	0.216
359	0.216
360	0.216
360	0.216
360	0.216
361	0.216
361	0.216
362	0.215
362	0.215
363	0.215
363	0.215
364	0.215
364	0.215
365	0.215
365	0.215
366	0.215
366	0.215
366	0.215
367	0.215
367	0.215
368	0.214
368	0.214
369	0.214
369	0.214
370	0.214
370	0.214
371	0.214
371	0.214
372	0.213
372	0.213
372	0.213
373	0.213
373	0.213
374	0.213
374	0.214
375	0.213
375	0.213
376	0.213
376	0.213
377	0.213
377	0.213
378	0.213
378	0.213
378	0.213
379	0.213
379	0.212
380	0.212
380	0.212
381	0.212
381	0.212
382	0.212
382	0.212
383	0.212
383	0.211
383	0.211
384	0.211
384	0.211
385	0.211
385	0.211
386	0.211
386	0.211
387	0.211
387	0.211
388	0.21
388	0.21
389	0.21
389	0.211
389	0.211
390	0.211
390	0.211
391	0.211
391	0.211
392	0.211
392	0.21
393	0.21
393	0.21
394	0.21
394	0.21
394	0.209
395	0.209
395	0.209
396	0.209
396	0.208
397	0.208
397	0.209
398	0.209
398	0.208
399	0.209
399	0.208
400	0.208
400	0.208
400	0.208
401	0.208
401	0.208
402	0.208
402	0.208
403	0.208
403	0.208
404	0.207
404	0.208
405	0.208
405	0.208
405	0.208
406	0.207
406	0.207
407	0.207
407	0.207
408	0.207
408	0.207
409	0.207
409	0.206
410	0.206
410	0.206
411	0.206
411	0.207
411	0.207
412	0.207
412	0.207
413	0.207
413	0.206
414	0.206
414	0.206
415	0.206
415	0.206
416	0.206
416	0.206
416	0.205
417	0.205
417	0.205
418	0.205
418	0.205
419	0.205
419	0.205
420	0.205
420	0.206
421	0.206
421	0.206
421	0.206
422	0.206
422	0.206
423	0.206
423	0.206
424	0.205
424	0.205
425	0.205
425	0.205
426	0.204
426	0.204
427	0.204
427	0.203
427	0.203
428	0.203
428	0.204
429	0.204
429	0.203
430	0.203
430	0.203
431	0.203
431	0.203
432	0.203
432	0.203
432	0.203
433	0.203
433	0.202
434	0.202
434	0.202
435	0.202
435	0.202
436	0.202
436	0.202
437	0.201
437	0.201
437	0.201
438	0.201
438	0.201
439	0.201
439	0.201
440	0.201
440	0.201
441	0.201
441	0.201
442	0.201
442	0.201
442	0.201
443	0.201
443	0.201
444	0.201
444	0.201
445	0.201
445	0.201
446	0.202
446	0.202
447	0.202
447	0.202
447	0.202
448	0.202
448	0.202
449	0.203
449	0.203
450	0.203
450	0.203
451	0.202
451	0.202
452	0.202
452	0.202
452	0.202
453	0.202
453	0.202
454	0.201
454	0.201
455	0.201
455	0.201
456	0.201
456	0.201
457	0.201
457	0.201
458	0.201
458	0.201
458	0.201
459	0.201
459	0.201
460	0.201
460	0.201
461	0.201
461	0.201
462	0.201
462	0.201
463	0.201
463	0.201
463	0.201
464	0.201
464	0.201
465	0.201
465	0.201
466	0.202
466	0.202
467	0.202
467	0.202
467	0.202
468	0.202
468	0.203
469	0.203
469	0.203
470	0.204
470	0.204
471	0.204
471	0.204
472	0.204
472	0.204
472	0.204
473	0.204
473	0.204
474	0.204
474	0.205
475	0.205
475	0.205
476	0.205
476	0.206
477	0.206
477	0.206
477	0.206
478	0.207
478	0.207
479	0.207
479	0.208
480	0.208
480	0.208
481	0.208
481	0.209
482	0.209
482	0.21
482	0.21
483	0.21
483	0.211
484	0.211
484	0.211
485	0.212
485	0.212
486	0.212
486	0.213
487	0.213
487	0.214
487	0.215
488	0.215
488	0.215
489	0.217
489	0.218
490	0.219
490	0.22
491	0.221
491	0.222
492	0.222
492	0.223
492	0.224
493	0.224
493	0.225
494	0.226
494	0.227
495	0.227
495	0.228
496	0.229
496	0.23
496	0.231
497	0.233
497	0.234
498	0.235
498	0.236
499	0.236
499	0.238
500	0.239
500	0.24
501	0.241
501	0.242
501	0.243
502	0.243
502	0.244
503	0.245
503	0.246
504	0.247
504	0.248
505	0.249
505	0.251
506	0.252
506	0.253
506	0.254
507	0.255
507	0.256
508	0.257
508	0.259
509	0.26
509	0.261
510	0.263
510	0.264
511	0.265
511	0.266
511	0.267
512	0.269
512	0.27
513	0.271
513	0.272
514	0.273
514	0.274
515	0.275
515	0.276
515	0.277
516	0.278
516	0.279
517	0.28
517	0.281
518	0.282
518	0.283
519	0.284
519	0.285
520	0.286
520	0.288
520	0.289
521	0.29
521	0.291
522	0.292
522	0.293
523	0.294
523	0.295
524	0.295
524	0.295
524	0.296
525	0.296
525	0.296
526	0.297
526	0.298
527	0.298
527	0.299
528	0.299
528	0.3
529	0.301
529	0.301
529	0.302
530	0.303
530	0.303
531	0.304
531	0.304
532	0.304
532	0.305
533	0.305
533	0.305
533	0.305
534	0.305
534	0.305
535	0.304
535	0.304
536	0.304
536	0.304
537	0.303
537	0.303
538	0.303
538	0.303
538	0.303
539	0.303
539	0.303
540	0.303
540	0.303
541	0.302
541	0.302
542	0.302
542	0.301
542	0.3
543	0.3
543	0.299
544	0.299
544	0.298
545	0.298
545	0.298
546	0.298
546	0.297
547	0.296
547	0.295
547	0.295
548	0.295
548	0.294
549	0.294
549	0.293
550	0.293
550	0.292
551	0.292
551	0.292
551	0.292
552	0.293
552	0.293
553	0.293
553	0.293
554	0.292
554	0.291
555	0.291
555	0.29
556	0.29
556	0.289
556	0.288
557	0.287
557	0.287
558	0.286
558	0.285
559	0.284
559	0.284
560	0.283
560	0.282
560	0.282
561	0.282
561	0.281
562	0.28
562	0.279
563	0.279
563	0.278
564	0.278
564	0.277
564	0.277
565	0.277
565	0.277
566	0.276
566	0.276
567	0.275
567	0.275
568	0.274
568	0.273
568	0.273
569	0.272
569	0.271
570	0.27
570	0.268
571	0.268
571	0.268
572	0.267
572	0.266
573	0.266
573	0.265
573	0.265
574	0.265
574	0.264
575	0.264
575	0.265
576	0.264
576	0.263
577	0.263
577	0.263
577	0.263
578	0.263
578	0.263
579	0.263
579	0.263
580	0.262
580	0.261
581	0.26
581	0.26
581	0.26
582	0.26
582	0.26
583	0.26
583	0.259
584	0.258
584	0.257
585	0.258
585	0.259
585	0.259
586	0.259
586	0.259
587	0.258
587	0.258
588	0.258
588	0.258
589	0.258
589	0.258
590	0.258
590	0.258
590	0.259
591	0.259
591	0.258
592	0.258
592	0.257
593	0.257
593	0.257
594	0.257
594	0.257
594	0.257
595	0.257
595	0.256
596	0.256
596	0.258
597	0.258
597	0.258
598	0.258
598	0.258
598	0.257
599	0.257
599	0.256
600	0.256
600	0.255
601	0.255
601	0.255
602	0.254
602	0.254
602	0.254
603	0.255
603	0.256
604	0.257
604	0.257
605	0.258
605	0.258
606	0.258
606	0.257
606	0.257
607	0.257
607	0.257
608	0.256
608	0.255
609	0.254
609	0.255
610	0.254
610	0.254
610	0.254
611	0.254
611	0.255
612	0.256
612	0.256
613	0.256
613	0.256
614	0.256
614	0.255
614	0.254
615	0.253
615	0.253
616	0.253
616	0.252
617	0.251
617	0.25
618	0.25
618	0.25
618	0.25
619	0.25
619	0.25
620	0.251
620	0.251
621	0.251
621	0.251
622	0.25
622	0.25
622	0.25
623	0.249
623	0.25
624	0.25
624	0.249
625	0.249
625	0.249
626	0.248
626	0.248
626	0.248
627	0.247
627	0.246
628	0.246
628	0.245
629	0.244
629	0.242
630	0.241
630	0.239
630	0.238
631	0.237
631	0.235
632	0.233
632	0.231
633	0.229
633	0.227
634	0.226
634	0.224
634	0.222
635	0.219
635	0.217
636	0.214
636	0.211
637	0.208
637	0.205
638	0.201
638	0.198
638	0.194
639	0.19
639	0.185
640	0.181
640	0.177
641	0.172
641	0.168
642	0.164
642	0.16
642	0.155
643	0.15
643	0.145
644	0.14
644	0.135
645	0.129
645	0.124
646	0.119
646	0.113
646	0.107
647	0.101
647	0.095
648	0.089
648	0.082
649	0.074
649	0.067
650	0.06
650	0.052
650	0.044
651	0.034
651	0.022
652	0.008
652	-0.007
653	-0.02
653	-0.032
653	-0.029
654	-0.011
654	-0.001
655	-0.005
655	-0.01
656	-0.016
656	-0.023
657	-0.027
657	-0.031
657	-0.036
658	-0.043
658	-0.07
659	-0.151
659	-0.247
660	-0.29
660	-0.317
661	-0.344
661	-0.373
661	-0.407
662	-0.44
662	-0.473
663	-0.513
663	-0.555
664	-0.599
664	-0.651
665	-0.702
665	-0.76
665	-0.815
666	-0.873
666	-0.935
667	-1
667	-1.066
668	-1.138
668	-1.212
669	-1.286
669	-1.359
669	-1.436
670	-1.503
670	-1.529
671	-1.664
671	-1.957
672	-2.191
672	-2.385
672	-2.516
673	-2.609
673	-2.69
674	-2.74
674	-2.76
675	-2.785
675	-2.927
676	-3.125
676	-3.077
676	-2.855
677	-2.654
677	-2.495
678	-2.327
678	-2.052
679	-1.739
679	-1.591
680	-1.492
680	-1.406
680	-1.332
681	-1.286
681	-1.226
682	-1.185
682	-1.148
683	-1.111
683	-1.094
684	-1.072
684	-1.053
684	-1.031
685	-1.006
685	-0.983
686	-0.957
686	-0.942
687	-0.916
687	-0.904
687	-0.883
688	-0.856
688	-0.836
689	-0.813
689	-0.799
690	-0.779
690	-0.767
691	-0.759
691	-0.763
691	-0.777
692	-0.767
692	-0.759
693	-0.755
693	-0.76
694	-0.755
694	-0.746
695	-0.749
695	-0.747
695	-0.731
696	-0.728
696	-0.708
697	-0.709
697	-0.723
698	-0.723
698	-0.714
698	-0.726
699	-0.731
699	-0.73
700	-0.721
700	-0.734
701	-0.731
701	-0.736
702	-0.733
702	-0.72
702	-0.716
703	-0.707
703	-0.698
704	-0.692
704	-0.692
705	-0.703
705	-0.696
705	-0.687
706	-0.687
706	-0.683
707	-0.689
707	-0.684
708	-0.685
708	-0.678
709	-0.682
709	-0.684
709	-0.675
710	-0.684
710	-0.692
711	-0.684
711	-0.687
712	-0.686
712	-0.698
713	-0.696
713	-0.7
713	-0.692
714	-0.687
714	-0.686
715	-0.674
715	-0.661
716	-0.667
716	-0.668
716	-0.66
717	-0.663
717	-0.666
718	-0.659
718	-0.659
719	-0.667
719	-0.669
720	-0.666
720	-0.677
720	-0.671
721	-0.661
721	-0.661
722	-0.648
722	-0.636
723	-0.635
723	-0.639
723	-0.625
724	-0.627
724	-0.632
725	-0.628
725	-0.635
726	-0.646
726	-0.649
727	-0.654
727	-0.669
727	-0.677
728	-0.675
728	-0.681
729	-0.682
729	-0.685
730	-0.693
730	-0.684
730	-0.674
731	-0.66
731	-0.67
732	-0.674
732	-0.674
733	-0.672
733	-0.676
734	-0.668
734	-0.668
734	-0.655
735	-0.657
735	-0.657
736	-0.667
736	-0.653
737	-0.645
737	-0.646
737	-0.655
738	-0.651
738	-0.654
739	-0.653
739	-0.664
740	-0.664
740	-0.663
741	-0.659
741	-0.659
741	-0.663
742	-0.661
742	-0.664
743	-0.672
743	-0.673
744	-0.671
744	-0.661
744	-0.662
745	-0.671
745	-0.664
746	-0.665
746	-0.66
747	-0.662
747	-0.648
748	-0.636
748	-0.641
748	-0.643
749	-0.641
749	-0.641
750	-0.629
750	-0.632
751	-0.636
751	-0.645
751	-0.646
752	-0.652
752	-0.661
753	-0.657
753	-0.654
754	-0.658
754	-0.653
754	-0.664
755	-0.68
755	-0.691
756	-0.68
756	-0.681
757	-0.676
757	-0.67
758	-0.672
758	-0.67
758	-0.673
759	-0.679
759	-0.663
760	-0.655
760	-0.65
761	-0.66
761	-0.654
761	-0.654
762	-0.664
762	-0.662
763	-0.67
763	-0.666
764	-0.666
764	-0.673
764	-0.678
765	-0.668
765	-0.657
766	-0.666
766	-0.672
767	-0.686
767	-0.678
768	-0.67
768	-0.681
768	-0.686
769	-0.704
769	-0.707
770	-0.712
770	-0.723
771	-0.72
771	-0.724
771	-0.724
772	-0.732
772	-0.731
773	-0.729
773	-0.726
774	-0.725
774	-0.725
775	-0.726
775	-0.722
775	-0.726
776	-0.725
776	-0.714
777	-0.72
777	-0.739
778	-0.734
778	-0.751
778	-0.737
779	-0.757
779	-0.768
780	-0.78
780	-0.78
781	-0.795
781	-0.791
781	-0.807
782	-0.809
782	-0.813
783	-0.8
783	-0.8
784	-0.781
784	-0.77
784	-0.778
785	-0.785
785	-0.768
786	-0.775
786	-0.753
787	-0.737
787	-0.738
788	-0.741
788	-0.751
788	-0.762
789	-0.763
789	-0.746
790	-0.729
790	-0.733
791	-0.731
791	-0.748
791	-0.756
792	-0.749
792	-0.727
793	-0.714
793	-0.691
794	-0.695
794	-0.688
794	-0.697
795	-0.69
795	-0.684
796	-0.67
796	-0.676
797	-0.67
797	-0.68
797	-0.688
798	-0.7
798	-0.692
799	-0.701
799	-0.685
800	-0.693
800	-0.685
801	-0.689
801	-0.674
801	-0.684
802	-0.692
802	-0.693
803	-0.695
803	-0.705
804	-0.698
804	-0.708
804	-0.697
805	-0.701
805	-0.69
806	-0.69
806	-0.677
807	-0.675
807	-0.654
807	-0.64
808	-0.633
808	-0.63
809	-0.615
809	-0.624
810	-0.621
810	-0.612
810	-0.613
811	-0.618
811	-0.61
812	-0.614
812	-0.62
813	-0.624
813	-0.619
813	-0.626
814	-0.627
814	-0.631
815	-0.635
815	-0.637
816	-0.631
816	-0.635
817	-0.641
817	-0.657
817	-0.673
818	-0.68
818	-0.682
819	-0.673
819	-0.675
820	-0.687
820	-0.685
820	-0.695
821	-0.693
821	-0.681
822	-0.649
822	-0.623
823	-0.619
823	-0.621
823	-0.619
824	-0.614
824	-0.614
825	-0.608
825	-0.588
826	-0.585
826	-0.593
826	-0.604
827	-0.599
827	-0.595
828	-0.576
828	-0.577
829	-0.567
829	-0.552
829	-0.543
830	-0.554
830	-0.551
831	-0.544
831	-0.535
832	-0.534
832	-0.527
832	-0.532
833	-0.523
833	-0.525
834	-0.523
834	-0.529
835	-0.516
835	-0.511
835	-0.507
836	-0.503
836	-0.499
837	-0.495
837	-0.487
838	-0.482
838	-0.469
839	-0.456
839	-0.445
839	-0.435
840	-0.423
840	-0.421
841	-0.409
841	-0.4
842	-0.395
842	-0.387
842	-0.38
843	-0.375
843	-0.372
844	-0.364
844	-0.358
845	-0.351
845	-0.339
845	-0.326
846	-0.318
846	-0.305
847	-0.292
847	-0.28
848	-0.269
848	-0.255
848	-0.24
849	-0.228
849	-0.216
850	-0.202
850	-0.196
851	-0.185
851	-0.173
851	-0.164
852	-0.149
852	-0.137
853	-0.13
853	-0.123
854	-0.113
854	-0.101
854	-0.09
855	-0.08
855	-0.073
856	-0.064
856	-0.057
857	-0.05
857	-0.041
857	-0.031
858	-0.021
858	-0.015
859	-0.008
859	0.003
860	0.011
860	0.023
860	0.032
861	0.039
861	0.047
862	0.054
862	0.062
863	0.068
863	0.077
863	0.083
864	0.088
864	0.094
865	0.099
865	0.104
866	0.109
866	0.112
866	0.115
867	0.119
867	0.122
868	0.125
868	0.128
869	0.132
869	0.134
869	0.136
870	0.138
870	0.141
871	0.143
871	0.144
872	0.145
872	0.146
872	0.147
873	0.147
873	0.147
874	0.147
874	0.147
875	0.146
875	0.145
875	0.144
876	0.142
876	0.141
877	0.14
877	0.139
878	0.137
878	0.135
878	0.133
879	0.131
879	0.13
880	0.129
880	0.129
881	0.128
881	0.128
881	0.128
882	0.128
882	0.127
883	0.126
883	0.125
884	0.125
884	0.124
884	0.123
885	0.122
885	0.122
886	0.121
886	0.12
887	0.12
887	0.119
887	0.119
888	0.119
888	0.119
889	0.119
889	0.12
890	0.12
890	0.12
890	0.12
891	0.12
891	0.12
892	0.12
892	0.121
893	0.12
893	0.121
893	0.121
894	0.12
894	0.12
895	0.119
895	0.119
895	0.119
896	0.118
896	0.117
897	0.116
897	0.115
898	0.114
898	0.113
898	0.113
899	0.113
899	0.113
900	0.114
900	0.114
901	0.115
901	0.116
901	0.116
902	0.117
902	0.117
903	0.118
903	0.118
904	0.119
904	0.119
904	0.12
905	0.121
905	0.121
906	0.121
906	0.121
907	0.121
907	0.121
907	0.12
908	0.12
908	0.119
909	0.118
909	0.117
910	0.117
910	0.116
910	0.116
911	0.116
911	0.117
912	0.117
912	0.117
913	0.118
913	0.118
913	0.119
914	0.12
914	0.12
915	0.121
915	0.121
916	0.122
916	0.122
916	0.122
917	0.122
917	0.122
918	0.122
918	0.121
918	0.121
919	0.12
919	0.12
920	0.12
920	0.12
921	0.12
921	0.12
921	0.12
922	0.12
922	0.12
923	0.12
923	0.12
924	0.12
924	0.119
924	0.118
925	0.118
925	0.116
926	0.115
926	0.114
927	0.113
927	0.113
927	0.112
928	0.112
928	0.111
929	0.111
929	0.11
930	0.11
930	0.11
930	0.11
931	0.109
931	0.109
932	0.108
932	0.107
933	0.107
933	0.105
933	0.104
934	0.102
934	0.101
935	0.1
935	0.099
935	0.098
936	0.097
936	0.097
937	0.096
937	0.095
938	0.096
938	0.096
938	0.096
939	0.097
939	0.097
940	0.098
940	0.099
941	0.099
941	0.1
941	0.101
942	0.101
942	0.102
943	0.102
943	0.102
944	0.101
944	0.101
944	0.1
945	0.1
945	0.099
946	0.098
946	0.097
946	0.096
947	0.096
947	0.096
948	0.096
948	0.096
949	0.096
949	0.097
949	0.097
950	0.098
950	0.098
951	0.099
951	0.1
952	0.1
952	0.101
952	0.102
953	0.102
953	0.104
954	0.104
954	0.104
955	0.105
955	0.106
955	0.107
956	0.108
956	0.108
957	0.108
957	0.109
957	0.109
958	0.109
958	0.11
959	0.11
959	0.11
960	0.11
960	0.109
960	0.109
961	0.109
961	0.109
962	0.109
962	0.109
963	0.108
963	0.108
963	0.108
964	0.108
964	0.108
965	0.108
965	0.108
966	0.108
966	0.108
966	0.108
967	0.107
967	0.107
968	0.106
968	0.105
968	0.105
969	0.104
969	0.104
970	0.103
970	0.103
971	0.103
971	0.103
971	0.103
972	0.103
972	0.103
973	0.103
973	0.103
974	0.103
974	0.103
974	0.102
975	0.102
975	0.101
976	0.101
976	0.1
976	0.1
977	0.099
977	0.099
978	0.099
978	0.099
979	0.098
979	0.098
979	0.098
980	0.097
980	0.097
981	0.097
981	0.097
982	0.096
982	0.095
982	0.095
983	0.095
983	0.095
984	0.095
984	0.095
984	0.095
985	0.095
985	0.095
986	0.096
986	0.096
987	0.096
987	0.096
987	0.095
988	0.095
988	0.094
989	0.093
989	0.093
990	0.092
990	0.091
990	0.091
991	0.09
991	0.09
992	0.089
992	0.089
992	0.089
993	0.089
993	0.089
994	0.089
994	0.088
995	0.088
995	0.088
995	0.087
996	0.087
996	0.086
997	0.086
997	0.086
997	0.086
998	0.086
998	0.086
999	0.087
999	0.087
1000	0.087
1000	0.087
1000	0.087
1001	0.088
1001	0.088
1002	0.088
1002	0.088
1003	0.088
1003	0.088
1003	0.088
1004	0.088
1004	0.087
1005	0.087
1005	0.086
1005	0.084
1006	0.083
1006	0.082
1007	0.081
1007	0.081
1008	0.08
1008	0.08
1008	0.079
1009	0.079
1009	0.079
1010	0.079
1010	0.079
1010	0.078
1011	0.078
1011	0.078
1012	0.077
1012	0.076
1013	0.075
1013	0.074
1013	0.073
1014	0.073
1014	0.072
1015	0.071
1015	0.071
1016	0.069
1016	0.069
1016	0.068
1017	0.067
1017	0.067
1018	0.066
1018	0.065
1018	0.064
1019	0.064
1019	0.063
1020	0.062
1020	0.062
1021	0.06
1021	0.06
1021	0.058
1022	0.057
1022	0.057
1023	0.056
1023	0.056
1023	0.056
1024	0.055
1024	0.055
1025	0.055
1025	0.056
1026	0.056
1026	0.057
1026	0.057
1027	0.058
1027	0.058
1028	0.058
1028	0.058
1028	0.058
1029	0.058
1029	0.058
1030	0.057
1030	0.056
1031	0.056
1031	0.056
1031	0.056
1032	0.055
1032	0.055
1033	0.055
1033	0.055
1033	0.056
1034	0.056
1034	0.056
1035	0.057
1035	0.057
1036	0.057
1036	0.057
1036	0.057
1037	0.057
1037	0.057
1038	0.057
1038	0.057
1039	0.057
1039	0.057
1039	0.057
1040	0.057
1040	0.058
1041	0.058
1041	0.059
1041	0.059
1042	0.059
1042	0.059
1043	0.058
1043	0.058
1044	0.057
1044	0.057
1044	0.056
1045	0.055
1045	0.055
1046	0.054
1046	0.053
1046	0.053
1047	0.053
1047	0.053
1048	0.053
1048	0.054
1049	0.054
1049	0.054
1049	0.055
1050	0.055
1050	0.056
1051	0.056
1051	0.056
1051	0.057
1052	0.057
1052	0.057
1053	0.057
1053	0.057
1053	0.057
1054	0.057
1054	0.057
1055	0.057
1055	0.056
1056	0.055
1056	0.054
1056	0.053
1057	0.052
1057	0.052
1058	0.051
1058	0.051
1058	0.05
1059	0.05
1059	0.049
1060	0.049
1060	0.049
1061	0.049
1061	0.049
1061	0.049
1062	0.049
1062	0.049
1063	0.049
1063	0.049
1063	0.049
1064	0.05
1064	0.05
1065	0.05
1065	0.049
1066	0.049
1066	0.048
1066	0.048
1067	0.047
1067	0.047
1068	0.046
1068	0.045
1068	0.044
1069	0.044
1069	0.043
1070	0.043
1070	0.043
1071	0.042
1071	0.042
1071	0.042
1072	0.041
1072	0.041
1073	0.041
1073	0.041
1073	0.041
1074	0.041
1074	0.041
1075	0.041
1075	0.04
1076	0.04
1076	0.04
1076	0.039
1077	0.039
1077	0.039
1078	0.038
1078	0.037
1078	0.036
1079	0.035
1079	0.035
1080	0.033
1080	0.033
1080	0.032
1081	0.031
1081	0.031
1082	0.03
1082	0.029
1083	0.028
1083	0.028
1083	0.027
1084	0.026
1084	0.026
1085	0.025
1085	0.025
1085	0.024
1086	0.024
1086	0.023
1087	0.023
1087	0.023
1088	0.022
1088	0.021
1088	0.021
1089	0.02
1089	0.019
1090	0.018
1090	0.018
1090	0.016
1091	0.015
1091	0.015
1092	0.014
1092	0.015
1092	0.013
1093	0.013
1093	0.013
1094	0.013
1094	0.012
1095	0.012
1095	0.012
1095	0.012
1096	0.011
1096	0.01
1097	0.01
1097	0.009
1097	0.007
1098	0.005
1098	0.004
1099	0.004
1099	0.002
1100	0
1100	-0.002
1100	-0.004
1101	-0.006
1101	-0.009
1102	-0.011
1102	-0.013
1102	-0.013
1103	-0.015
1103	-0.018
1104	-0.02
1104	-0.022
1104	-0.023
1105	-0.024
1105	-0.027
1106	-0.031
1106	-0.034
1107	-0.037
1107	-0.042
1107	-0.047
1108	-0.049
1108	-0.051
1109	-0.054
1109	-0.058
1109	-0.061
1110	-0.062
1110	-0.066
1111	-0.073
1111	-0.073
