Data from 17C_3.4A_30min_2sec_int_Absorbance__362__01083.txt Node

Date: Mon Jun 19 17:02:57 CEST 2023
User: Marek
Spectrometer: MAYP115816
Trigger mode: 0
Integration Time (sec): 2.500000E-1
Scans to average: 10
Electric dark correction enabled: true
Nonlinearity correction enabled: true
Boxcar width: 5
XAxis mode: Wavelengths
Number of Pixels in Spectrum: 2068
>>>>>Begin Spectral Data<<<<<
199	-0.655
199	-0.656
200	-0.56
200	-0.512
201	-0.479
201	-0.467
202	-0.45
202	-0.439
203	-0.433
203	-0.429
204	-0.416
204	-0.401
205	-0.381
205	-0.376
205	-0.375
206	-0.376
206	-0.377
207	-0.368
207	-0.368
208	-0.368
208	-0.367
209	-0.36
209	-0.36
210	-0.364
210	-0.369
211	-0.37
211	-0.373
212	-0.377
212	-0.386
213	-0.384
213	-0.384
213	-0.388
214	-0.385
214	-0.384
215	-0.383
215	-0.387
216	-0.39
216	-0.396
217	-0.389
217	-0.394
218	-0.396
218	-0.398
219	-0.402
219	-0.414
220	-0.419
220	-0.429
221	-0.43
221	-0.432
221	-0.425
222	-0.425
222	-0.424
223	-0.429
223	-0.432
224	-0.435
224	-0.435
225	-0.43
225	-0.423
226	-0.425
226	-0.424
227	-0.431
227	-0.437
228	-0.436
228	-0.435
229	-0.436
229	-0.43
229	-0.423
230	-0.427
230	-0.434
231	-0.43
231	-0.423
232	-0.416
232	-0.418
233	-0.416
233	-0.415
234	-0.415
234	-0.412
235	-0.416
235	-0.421
236	-0.419
236	-0.422
236	-0.429
237	-0.435
237	-0.434
238	-0.442
238	-0.441
239	-0.44
239	-0.448
240	-0.447
240	-0.444
241	-0.449
241	-0.447
242	-0.45
242	-0.446
243	-0.443
243	-0.444
243	-0.451
244	-0.452
244	-0.452
245	-0.465
245	-0.464
246	-0.469
246	-0.476
247	-0.479
247	-0.484
248	-0.489
248	-0.488
249	-0.49
249	-0.497
250	-0.493
250	-0.491
250	-0.492
251	-0.49
251	-0.489
252	-0.491
252	-0.481
253	-0.485
253	-0.494
254	-0.492
254	-0.491
255	-0.502
255	-0.493
256	-0.491
256	-0.5
257	-0.498
257	-0.495
258	-0.511
258	-0.508
258	-0.503
259	-0.5
259	-0.506
260	-0.505
260	-0.513
261	-0.523
261	-0.515
262	-0.513
262	-0.513
263	-0.503
263	-0.5
264	-0.499
264	-0.509
265	-0.506
265	-0.51
265	-0.513
266	-0.511
266	-0.508
267	-0.518
267	-0.526
268	-0.54
268	-0.549
269	-0.548
269	-0.541
270	-0.544
270	-0.55
271	-0.548
271	-0.553
272	-0.556
272	-0.552
272	-0.546
273	-0.545
273	-0.554
274	-0.557
274	-0.561
275	-0.562
275	-0.555
276	-0.561
276	-0.554
277	-0.558
277	-0.575
278	-0.585
278	-0.578
278	-0.57
279	-0.573
279	-0.586
280	-0.585
280	-0.585
281	-0.579
281	-0.586
282	-0.58
282	-0.58
283	-0.57
283	-0.572
284	-0.569
284	-0.559
285	-0.551
285	-0.547
285	-0.543
286	-0.55
286	-0.545
287	-0.541
287	-0.528
288	-0.518
288	-0.527
289	-0.539
289	-0.549
290	-0.54
290	-0.538
291	-0.536
291	-0.528
292	-0.53
292	-0.536
292	-0.539
293	-0.548
293	-0.537
294	-0.524
294	-0.514
295	-0.51
295	-0.509
296	-0.508
296	-0.506
297	-0.5
297	-0.486
298	-0.478
298	-0.484
298	-0.472
299	-0.468
299	-0.47
300	-0.469
300	-0.465
301	-0.46
301	-0.46
302	-0.469
302	-0.475
303	-0.463
303	-0.449
304	-0.453
304	-0.453
305	-0.453
305	-0.45
305	-0.45
306	-0.436
306	-0.428
307	-0.416
307	-0.418
308	-0.43
308	-0.429
309	-0.43
309	-0.419
310	-0.407
310	-0.404
311	-0.395
311	-0.401
311	-0.4
312	-0.395
312	-0.394
313	-0.381
313	-0.385
314	-0.384
314	-0.386
315	-0.386
315	-0.383
316	-0.382
316	-0.377
317	-0.369
317	-0.367
318	-0.358
318	-0.355
318	-0.35
319	-0.339
319	-0.336
320	-0.329
320	-0.331
321	-0.333
321	-0.331
322	-0.325
322	-0.319
323	-0.318
323	-0.312
324	-0.304
324	-0.297
324	-0.289
325	-0.282
325	-0.267
326	-0.253
326	-0.237
327	-0.223
327	-0.204
328	-0.18
328	-0.162
329	-0.141
329	-0.118
330	-0.092
330	-0.062
330	-0.035
331	-0.009
331	0.017
332	0.038
332	0.059
333	0.079
333	0.1
334	0.118
334	0.132
335	0.148
335	0.16
336	0.172
336	0.183
336	0.191
337	0.201
337	0.208
338	0.216
338	0.22
339	0.227
339	0.232
340	0.235
340	0.238
341	0.241
341	0.244
342	0.247
342	0.25
342	0.252
343	0.254
343	0.256
344	0.257
344	0.258
345	0.259
345	0.26
346	0.261
346	0.261
347	0.262
347	0.262
348	0.263
348	0.263
348	0.263
349	0.263
349	0.264
350	0.264
350	0.264
351	0.264
351	0.264
352	0.264
352	0.264
353	0.263
353	0.263
354	0.263
354	0.263
354	0.263
355	0.263
355	0.262
356	0.262
356	0.262
357	0.262
357	0.262
358	0.262
358	0.261
359	0.261
359	0.261
360	0.261
360	0.261
360	0.26
361	0.26
361	0.26
362	0.26
362	0.26
363	0.26
363	0.26
364	0.26
364	0.259
365	0.259
365	0.259
366	0.259
366	0.259
366	0.259
367	0.259
367	0.259
368	0.259
368	0.259
369	0.259
369	0.258
370	0.258
370	0.258
371	0.258
371	0.257
372	0.257
372	0.257
372	0.257
373	0.257
373	0.257
374	0.256
374	0.257
375	0.256
375	0.256
376	0.256
376	0.256
377	0.256
377	0.256
378	0.256
378	0.256
378	0.256
379	0.256
379	0.256
380	0.255
380	0.255
381	0.255
381	0.255
382	0.254
382	0.254
383	0.254
383	0.254
383	0.253
384	0.253
384	0.253
385	0.253
385	0.253
386	0.253
386	0.253
387	0.253
387	0.253
388	0.253
388	0.253
389	0.253
389	0.253
389	0.253
390	0.253
390	0.253
391	0.253
391	0.252
392	0.252
392	0.252
393	0.252
393	0.252
394	0.251
394	0.251
394	0.251
395	0.25
395	0.25
396	0.25
396	0.25
397	0.25
397	0.25
398	0.25
398	0.25
399	0.25
399	0.249
400	0.249
400	0.249
400	0.249
401	0.249
401	0.249
402	0.249
402	0.248
403	0.248
403	0.248
404	0.247
404	0.247
405	0.247
405	0.247
405	0.247
406	0.247
406	0.247
407	0.247
407	0.246
408	0.246
408	0.246
409	0.246
409	0.246
410	0.246
410	0.246
411	0.246
411	0.246
411	0.246
412	0.246
412	0.246
413	0.246
413	0.246
414	0.246
414	0.245
415	0.245
415	0.245
416	0.245
416	0.245
416	0.244
417	0.244
417	0.244
418	0.244
418	0.244
419	0.244
419	0.244
420	0.244
420	0.244
421	0.244
421	0.245
421	0.244
422	0.245
422	0.245
423	0.244
423	0.244
424	0.244
424	0.244
425	0.243
425	0.243
426	0.242
426	0.242
427	0.242
427	0.242
427	0.241
428	0.241
428	0.241
429	0.241
429	0.241
430	0.241
430	0.241
431	0.241
431	0.241
432	0.241
432	0.241
432	0.241
433	0.24
433	0.24
434	0.24
434	0.24
435	0.24
435	0.24
436	0.24
436	0.239
437	0.239
437	0.239
437	0.239
438	0.239
438	0.239
439	0.239
439	0.239
440	0.239
440	0.239
441	0.239
441	0.239
442	0.238
442	0.238
442	0.238
443	0.238
443	0.238
444	0.238
444	0.238
445	0.239
445	0.239
446	0.239
446	0.239
447	0.239
447	0.239
447	0.239
448	0.24
448	0.24
449	0.239
449	0.239
450	0.24
450	0.239
451	0.239
451	0.239
452	0.239
452	0.239
452	0.239
453	0.239
453	0.239
454	0.239
454	0.239
455	0.239
455	0.239
456	0.239
456	0.239
457	0.238
457	0.239
458	0.239
458	0.239
458	0.239
459	0.239
459	0.239
460	0.238
460	0.238
461	0.238
461	0.238
462	0.238
462	0.238
463	0.238
463	0.238
463	0.239
464	0.239
464	0.239
465	0.239
465	0.239
466	0.24
466	0.24
467	0.24
467	0.24
467	0.24
468	0.241
468	0.241
469	0.241
469	0.242
470	0.242
470	0.242
471	0.242
471	0.242
472	0.243
472	0.243
472	0.243
473	0.243
473	0.244
474	0.244
474	0.244
475	0.245
475	0.245
476	0.245
476	0.246
477	0.246
477	0.246
477	0.246
478	0.247
478	0.247
479	0.248
479	0.248
480	0.249
480	0.249
481	0.249
481	0.25
482	0.251
482	0.251
482	0.252
483	0.253
483	0.253
484	0.254
484	0.254
485	0.254
485	0.255
486	0.256
486	0.256
487	0.257
487	0.258
487	0.259
488	0.26
488	0.261
489	0.262
489	0.264
490	0.265
490	0.266
491	0.267
491	0.268
492	0.269
492	0.27
492	0.271
493	0.272
493	0.273
494	0.274
494	0.275
495	0.276
495	0.277
496	0.278
496	0.28
496	0.281
497	0.283
497	0.284
498	0.286
498	0.287
499	0.288
499	0.29
500	0.291
500	0.293
501	0.294
501	0.296
501	0.297
502	0.298
502	0.299
503	0.301
503	0.302
504	0.304
504	0.305
505	0.307
505	0.308
506	0.31
506	0.311
506	0.313
507	0.314
507	0.316
508	0.318
508	0.319
509	0.321
509	0.323
510	0.324
510	0.326
511	0.328
511	0.329
511	0.331
512	0.332
512	0.334
513	0.335
513	0.336
514	0.338
514	0.339
515	0.34
515	0.342
515	0.343
516	0.345
516	0.346
517	0.348
517	0.349
518	0.351
518	0.352
519	0.354
519	0.355
520	0.356
520	0.358
520	0.359
521	0.361
521	0.362
522	0.363
522	0.365
523	0.366
523	0.367
524	0.368
524	0.368
524	0.369
525	0.369
525	0.37
526	0.371
526	0.371
527	0.372
527	0.372
528	0.373
528	0.374
529	0.375
529	0.375
529	0.376
530	0.377
530	0.377
531	0.378
531	0.378
532	0.378
532	0.379
533	0.379
533	0.379
533	0.379
534	0.379
534	0.378
535	0.378
535	0.378
536	0.377
536	0.377
537	0.377
537	0.376
538	0.376
538	0.376
538	0.376
539	0.376
539	0.376
540	0.375
540	0.375
541	0.374
541	0.374
542	0.373
542	0.372
542	0.372
543	0.371
543	0.37
544	0.369
544	0.369
545	0.368
545	0.368
546	0.368
546	0.367
547	0.366
547	0.365
547	0.364
548	0.363
548	0.362
549	0.362
549	0.361
550	0.36
550	0.359
551	0.358
551	0.358
551	0.358
552	0.358
552	0.358
553	0.358
553	0.358
554	0.357
554	0.356
555	0.356
555	0.355
556	0.354
556	0.353
556	0.352
557	0.351
557	0.35
558	0.349
558	0.347
559	0.346
559	0.345
560	0.344
560	0.344
560	0.343
561	0.342
561	0.341
562	0.34
562	0.339
563	0.338
563	0.337
564	0.337
564	0.336
564	0.335
565	0.335
565	0.334
566	0.333
566	0.333
567	0.332
567	0.331
568	0.33
568	0.328
568	0.327
569	0.326
569	0.325
570	0.324
570	0.323
571	0.322
571	0.321
572	0.32
572	0.319
573	0.319
573	0.318
573	0.317
574	0.317
574	0.316
575	0.315
575	0.316
576	0.315
576	0.314
577	0.313
577	0.313
577	0.313
578	0.312
578	0.312
579	0.312
579	0.312
580	0.311
580	0.309
581	0.309
581	0.308
581	0.308
582	0.308
582	0.307
583	0.307
583	0.306
584	0.305
584	0.304
585	0.304
585	0.304
585	0.304
586	0.304
586	0.304
587	0.303
587	0.303
588	0.302
588	0.302
589	0.302
589	0.302
590	0.301
590	0.301
590	0.302
591	0.301
591	0.3
592	0.3
592	0.299
593	0.299
593	0.299
594	0.298
594	0.298
594	0.298
595	0.298
595	0.297
596	0.297
596	0.297
597	0.298
597	0.297
598	0.297
598	0.296
598	0.296
599	0.295
599	0.294
600	0.294
600	0.293
601	0.292
601	0.292
602	0.291
602	0.291
602	0.291
603	0.291
603	0.292
604	0.292
604	0.292
605	0.292
605	0.293
606	0.292
606	0.291
606	0.291
607	0.29
607	0.29
608	0.289
608	0.287
609	0.287
609	0.287
610	0.286
610	0.286
610	0.285
611	0.285
611	0.286
612	0.286
612	0.286
613	0.286
613	0.286
614	0.285
614	0.284
614	0.283
615	0.283
615	0.282
616	0.281
616	0.28
617	0.28
617	0.278
618	0.278
618	0.277
618	0.277
619	0.277
619	0.276
620	0.276
620	0.275
621	0.275
621	0.274
622	0.273
622	0.273
622	0.272
623	0.271
623	0.271
624	0.27
624	0.27
625	0.269
625	0.268
626	0.268
626	0.267
626	0.266
627	0.266
627	0.265
628	0.263
628	0.262
629	0.26
629	0.259
630	0.257
630	0.255
630	0.254
631	0.252
631	0.249
632	0.247
632	0.244
633	0.242
633	0.239
634	0.237
634	0.234
634	0.232
635	0.229
635	0.225
636	0.222
636	0.218
637	0.215
637	0.21
638	0.206
638	0.202
638	0.198
639	0.193
639	0.188
640	0.182
640	0.177
641	0.172
641	0.167
642	0.162
642	0.157
642	0.152
643	0.147
643	0.141
644	0.135
644	0.129
645	0.122
645	0.116
646	0.11
646	0.104
646	0.098
647	0.091
647	0.085
648	0.078
648	0.071
649	0.064
649	0.057
650	0.049
650	0.042
650	0.034
651	0.024
651	0.011
652	-0.003
652	-0.018
653	-0.031
653	-0.043
653	-0.04
654	-0.021
654	-0.009
655	-0.013
655	-0.018
656	-0.024
656	-0.03
657	-0.033
657	-0.038
657	-0.043
658	-0.049
658	-0.076
659	-0.158
659	-0.256
660	-0.301
660	-0.327
661	-0.355
661	-0.386
661	-0.421
662	-0.454
662	-0.492
663	-0.532
663	-0.578
664	-0.625
664	-0.678
665	-0.731
665	-0.792
665	-0.849
666	-0.909
666	-0.973
667	-1.04
667	-1.108
668	-1.182
668	-1.258
669	-1.334
669	-1.412
669	-1.495
670	-1.574
670	-1.648
671	-1.882
671	-2.082
672	-2.278
672	-2.451
672	-2.569
673	-2.654
673	-2.728
674	-2.76
674	-2.777
675	-2.8
675	-2.935
676	-3.105
676	-3.055
676	-2.828
677	-2.62
677	-2.45
678	-2.26
678	-1.916
679	-1.683
679	-1.561
680	-1.469
680	-1.388
680	-1.319
681	-1.275
681	-1.217
682	-1.177
682	-1.138
683	-1.102
683	-1.084
684	-1.061
684	-1.041
684	-1.017
685	-0.991
685	-0.967
686	-0.942
686	-0.924
687	-0.898
687	-0.885
687	-0.865
688	-0.836
688	-0.814
689	-0.792
689	-0.779
690	-0.758
690	-0.745
691	-0.738
691	-0.742
691	-0.756
692	-0.745
692	-0.735
693	-0.729
693	-0.737
694	-0.731
694	-0.722
695	-0.726
695	-0.722
695	-0.705
696	-0.702
696	-0.681
697	-0.68
697	-0.695
698	-0.697
698	-0.686
698	-0.699
699	-0.703
699	-0.702
700	-0.693
700	-0.707
701	-0.704
701	-0.708
702	-0.71
702	-0.698
702	-0.69
703	-0.683
703	-0.675
704	-0.672
704	-0.671
705	-0.682
705	-0.674
705	-0.663
706	-0.663
706	-0.656
707	-0.66
707	-0.653
708	-0.652
708	-0.642
709	-0.644
709	-0.646
709	-0.636
710	-0.644
710	-0.652
711	-0.645
711	-0.647
712	-0.647
712	-0.661
713	-0.659
713	-0.667
713	-0.656
714	-0.652
714	-0.656
715	-0.647
715	-0.634
716	-0.64
716	-0.641
716	-0.632
717	-0.634
717	-0.635
718	-0.627
718	-0.63
719	-0.636
719	-0.636
720	-0.63
720	-0.64
720	-0.633
721	-0.623
721	-0.621
722	-0.609
722	-0.6
723	-0.598
723	-0.599
723	-0.586
724	-0.589
724	-0.593
725	-0.592
725	-0.601
726	-0.614
726	-0.62
727	-0.626
727	-0.639
727	-0.648
728	-0.648
728	-0.654
729	-0.653
729	-0.658
730	-0.663
730	-0.655
730	-0.643
731	-0.627
731	-0.636
732	-0.64
732	-0.639
733	-0.639
733	-0.645
734	-0.639
734	-0.638
734	-0.625
735	-0.624
735	-0.625
736	-0.636
736	-0.622
737	-0.616
737	-0.618
737	-0.625
738	-0.62
738	-0.621
739	-0.622
739	-0.634
740	-0.634
740	-0.635
741	-0.628
741	-0.627
741	-0.629
742	-0.626
742	-0.627
743	-0.633
743	-0.636
744	-0.631
744	-0.622
744	-0.622
745	-0.628
745	-0.623
746	-0.625
746	-0.622
747	-0.623
747	-0.613
748	-0.601
748	-0.608
748	-0.612
749	-0.611
749	-0.612
750	-0.601
750	-0.601
751	-0.604
751	-0.612
751	-0.616
752	-0.618
752	-0.628
753	-0.622
753	-0.616
754	-0.617
754	-0.61
754	-0.625
755	-0.638
755	-0.647
756	-0.636
756	-0.633
757	-0.63
757	-0.625
758	-0.628
758	-0.626
758	-0.631
759	-0.637
759	-0.621
760	-0.617
760	-0.614
761	-0.624
761	-0.62
761	-0.623
762	-0.629
762	-0.628
763	-0.637
763	-0.635
764	-0.636
764	-0.644
764	-0.65
765	-0.64
765	-0.626
766	-0.632
766	-0.637
767	-0.65
767	-0.645
768	-0.639
768	-0.647
768	-0.652
769	-0.669
769	-0.668
770	-0.672
770	-0.685
771	-0.686
771	-0.689
771	-0.693
772	-0.695
772	-0.693
773	-0.691
773	-0.683
774	-0.682
774	-0.684
775	-0.684
775	-0.679
775	-0.683
776	-0.683
776	-0.669
777	-0.678
777	-0.699
778	-0.7
778	-0.719
778	-0.703
779	-0.725
779	-0.733
780	-0.746
780	-0.746
781	-0.759
781	-0.758
781	-0.771
782	-0.772
782	-0.772
783	-0.761
783	-0.763
784	-0.746
784	-0.736
784	-0.743
785	-0.749
785	-0.733
786	-0.738
786	-0.717
787	-0.698
787	-0.7
788	-0.702
788	-0.71
788	-0.717
789	-0.718
789	-0.701
790	-0.683
790	-0.686
791	-0.688
791	-0.707
791	-0.716
792	-0.708
792	-0.686
793	-0.676
793	-0.656
794	-0.661
794	-0.654
794	-0.661
795	-0.657
795	-0.65
796	-0.631
796	-0.639
797	-0.632
797	-0.644
797	-0.65
798	-0.66
798	-0.652
799	-0.664
799	-0.651
800	-0.656
800	-0.648
801	-0.656
801	-0.639
801	-0.648
802	-0.657
802	-0.659
803	-0.66
803	-0.669
804	-0.663
804	-0.674
804	-0.66
805	-0.663
805	-0.652
806	-0.656
806	-0.64
807	-0.638
807	-0.617
807	-0.605
808	-0.597
808	-0.591
809	-0.575
809	-0.587
810	-0.588
810	-0.58
810	-0.577
811	-0.586
811	-0.576
812	-0.58
812	-0.584
813	-0.591
813	-0.59
813	-0.597
814	-0.598
814	-0.599
815	-0.603
815	-0.607
816	-0.601
816	-0.607
817	-0.614
817	-0.63
817	-0.643
818	-0.647
818	-0.649
819	-0.64
819	-0.642
820	-0.653
820	-0.649
820	-0.657
821	-0.655
821	-0.642
822	-0.612
822	-0.589
823	-0.587
823	-0.589
823	-0.588
824	-0.583
824	-0.584
825	-0.578
825	-0.558
826	-0.556
826	-0.563
826	-0.572
827	-0.567
827	-0.564
828	-0.545
828	-0.545
829	-0.536
829	-0.521
829	-0.511
830	-0.521
830	-0.514
831	-0.508
831	-0.5
832	-0.497
832	-0.491
832	-0.499
833	-0.493
833	-0.493
834	-0.492
834	-0.502
835	-0.49
835	-0.487
835	-0.481
836	-0.477
836	-0.475
837	-0.47
837	-0.458
838	-0.45
838	-0.438
839	-0.425
839	-0.413
839	-0.403
840	-0.393
840	-0.392
841	-0.381
841	-0.37
842	-0.366
842	-0.359
842	-0.355
843	-0.352
843	-0.349
844	-0.341
844	-0.335
845	-0.328
845	-0.317
845	-0.305
846	-0.296
846	-0.283
847	-0.271
847	-0.26
848	-0.248
848	-0.237
848	-0.22
849	-0.21
849	-0.2
850	-0.188
850	-0.182
851	-0.174
851	-0.164
851	-0.156
852	-0.141
852	-0.131
853	-0.122
853	-0.118
854	-0.107
854	-0.097
854	-0.086
855	-0.077
855	-0.072
856	-0.063
856	-0.056
857	-0.05
857	-0.043
857	-0.033
858	-0.022
858	-0.016
859	-0.009
859	-0
860	0.008
860	0.02
860	0.027
861	0.034
861	0.041
862	0.047
862	0.053
863	0.058
863	0.065
863	0.07
864	0.073
864	0.078
865	0.083
865	0.086
866	0.09
866	0.092
866	0.095
867	0.098
867	0.101
868	0.103
868	0.106
869	0.109
869	0.111
869	0.113
870	0.115
870	0.117
871	0.12
871	0.121
872	0.122
872	0.123
872	0.124
873	0.124
873	0.125
874	0.125
874	0.124
875	0.124
875	0.123
875	0.122
876	0.121
876	0.119
877	0.118
877	0.117
878	0.115
878	0.113
878	0.111
879	0.11
879	0.108
880	0.107
880	0.107
881	0.107
881	0.107
881	0.107
882	0.106
882	0.106
883	0.105
883	0.104
884	0.104
884	0.103
884	0.102
885	0.102
885	0.101
886	0.1
886	0.099
887	0.099
887	0.098
887	0.098
888	0.099
888	0.098
889	0.099
889	0.099
890	0.1
890	0.1
890	0.1
891	0.1
891	0.099
892	0.1
892	0.1
893	0.099
893	0.099
893	0.098
894	0.098
894	0.097
895	0.096
895	0.095
895	0.095
896	0.094
896	0.093
897	0.092
897	0.091
898	0.09
898	0.09
898	0.09
899	0.09
899	0.091
900	0.091
900	0.092
901	0.092
901	0.093
901	0.094
902	0.094
902	0.094
903	0.094
903	0.094
904	0.095
904	0.095
904	0.095
905	0.096
905	0.097
906	0.097
906	0.097
907	0.097
907	0.097
907	0.096
908	0.096
908	0.096
909	0.095
909	0.095
910	0.094
910	0.094
910	0.094
911	0.094
911	0.094
912	0.095
912	0.095
913	0.096
913	0.096
913	0.097
914	0.097
914	0.098
915	0.098
915	0.099
916	0.099
916	0.099
916	0.098
917	0.098
917	0.098
918	0.097
918	0.097
918	0.096
919	0.095
919	0.095
920	0.095
920	0.095
921	0.095
921	0.095
921	0.095
922	0.095
922	0.095
923	0.095
923	0.095
924	0.095
924	0.094
924	0.094
925	0.093
925	0.092
926	0.091
926	0.091
927	0.09
927	0.089
927	0.089
928	0.089
928	0.089
929	0.089
929	0.088
930	0.088
930	0.088
930	0.088
931	0.088
931	0.088
932	0.088
932	0.087
933	0.086
933	0.084
933	0.083
934	0.081
934	0.08
935	0.079
935	0.078
935	0.077
936	0.075
936	0.074
937	0.073
937	0.073
938	0.073
938	0.073
938	0.073
939	0.074
939	0.075
940	0.075
940	0.076
941	0.077
941	0.078
941	0.079
942	0.08
942	0.08
943	0.08
943	0.08
944	0.08
944	0.08
944	0.079
945	0.079
945	0.078
946	0.077
946	0.076
946	0.075
947	0.074
947	0.073
948	0.074
948	0.074
949	0.074
949	0.075
949	0.075
950	0.076
950	0.077
951	0.078
951	0.079
952	0.08
952	0.081
952	0.081
953	0.082
953	0.083
954	0.083
954	0.084
955	0.085
955	0.086
955	0.087
956	0.087
956	0.088
957	0.088
957	0.088
957	0.088
958	0.088
958	0.089
959	0.088
959	0.088
960	0.088
960	0.088
960	0.088
961	0.087
961	0.088
962	0.087
962	0.087
963	0.087
963	0.087
963	0.087
964	0.086
964	0.087
965	0.087
965	0.087
966	0.087
966	0.086
966	0.086
967	0.086
967	0.085
968	0.085
968	0.084
968	0.084
969	0.083
969	0.083
970	0.082
970	0.082
971	0.083
971	0.083
971	0.083
972	0.083
972	0.083
973	0.084
973	0.083
974	0.083
974	0.083
974	0.083
975	0.082
975	0.081
976	0.08
976	0.08
976	0.079
977	0.079
977	0.079
978	0.078
978	0.078
979	0.078
979	0.077
979	0.077
980	0.076
980	0.076
981	0.076
981	0.075
982	0.075
982	0.075
982	0.074
983	0.074
983	0.074
984	0.074
984	0.074
984	0.075
985	0.076
985	0.076
986	0.077
986	0.077
987	0.077
987	0.077
987	0.077
988	0.076
988	0.076
989	0.075
989	0.074
990	0.073
990	0.072
990	0.071
991	0.07
991	0.07
992	0.07
992	0.069
992	0.069
993	0.069
993	0.069
994	0.069
994	0.069
995	0.069
995	0.069
995	0.068
996	0.068
996	0.068
997	0.067
997	0.067
997	0.067
998	0.067
998	0.067
999	0.068
999	0.068
1000	0.068
1000	0.068
1000	0.068
1001	0.069
1001	0.069
1002	0.069
1002	0.069
1003	0.069
1003	0.068
1003	0.068
1004	0.067
1004	0.067
1005	0.066
1005	0.065
1005	0.064
1006	0.063
1006	0.062
1007	0.061
1007	0.06
1008	0.06
1008	0.059
1008	0.059
1009	0.059
1009	0.059
1010	0.059
1010	0.059
1010	0.059
1011	0.059
1011	0.058
1012	0.057
1012	0.057
1013	0.056
1013	0.054
1013	0.053
1014	0.052
1014	0.051
1015	0.05
1015	0.049
1016	0.048
1016	0.048
1016	0.047
1017	0.047
1017	0.046
1018	0.046
1018	0.045
1018	0.045
1019	0.044
1019	0.044
1020	0.043
1020	0.042
1021	0.042
1021	0.041
1021	0.04
1022	0.039
1022	0.038
1023	0.038
1023	0.037
1023	0.037
1024	0.037
1024	0.037
1025	0.037
1025	0.037
1026	0.038
1026	0.038
1026	0.039
1027	0.039
1027	0.04
1028	0.04
1028	0.04
1028	0.04
1029	0.04
1029	0.04
1030	0.039
1030	0.039
1031	0.038
1031	0.038
1031	0.038
1032	0.038
1032	0.038
1033	0.038
1033	0.038
1033	0.038
1034	0.038
1034	0.038
1035	0.038
1035	0.038
1036	0.038
1036	0.038
1036	0.038
1037	0.038
1037	0.038
1038	0.038
1038	0.038
1039	0.038
1039	0.039
1039	0.039
1040	0.039
1040	0.04
1041	0.04
1041	0.04
1041	0.041
1042	0.04
1042	0.04
1043	0.039
1043	0.039
1044	0.038
1044	0.038
1044	0.037
1045	0.036
1045	0.036
1046	0.036
1046	0.035
1046	0.036
1047	0.036
1047	0.037
1048	0.037
1048	0.038
1049	0.038
1049	0.038
1049	0.039
1050	0.039
1050	0.04
1051	0.04
1051	0.04
1051	0.04
1052	0.04
1052	0.04
1053	0.04
1053	0.04
1053	0.04
1054	0.04
1054	0.04
1055	0.039
1055	0.039
1056	0.038
1056	0.037
1056	0.036
1057	0.035
1057	0.035
1058	0.034
1058	0.034
1058	0.033
1059	0.032
1059	0.032
1060	0.031
1060	0.031
1061	0.031
1061	0.031
1061	0.032
1062	0.031
1062	0.031
1063	0.031
1063	0.032
1063	0.032
1064	0.032
1064	0.033
1065	0.032
1065	0.032
1066	0.031
1066	0.031
1066	0.031
1067	0.031
1067	0.03
1068	0.029
1068	0.028
1068	0.028
1069	0.027
1069	0.027
1070	0.027
1070	0.027
1071	0.026
1071	0.027
1071	0.026
1072	0.026
1072	0.026
1073	0.026
1073	0.026
1073	0.025
1074	0.026
1074	0.026
1075	0.026
1075	0.025
1076	0.024
1076	0.024
1076	0.024
1077	0.023
1077	0.022
1078	0.021
1078	0.021
1078	0.02
1079	0.019
1079	0.018
1080	0.018
1080	0.017
1080	0.016
1081	0.015
1081	0.015
1082	0.014
1082	0.014
1083	0.012
1083	0.012
1083	0.011
1084	0.01
1084	0.01
1085	0.008
1085	0.008
1085	0.008
1086	0.008
1086	0.007
1087	0.007
1087	0.007
1088	0.007
1088	0.007
1088	0.006
1089	0.005
1089	0.006
1090	0.004
1090	0.004
1090	0.003
1091	0.002
1091	0.002
1092	0.001
1092	0.001
1092	-0.001
1093	-0.001
1093	-0.001
1094	-0.002
1094	-0.002
1095	-0.003
1095	-0.003
1095	-0.003
1096	-0.003
1096	-0.004
1097	-0.004
1097	-0.004
1097	-0.004
1098	-0.005
1098	-0.007
1099	-0.007
1099	-0.009
1100	-0.01
1100	-0.011
1100	-0.013
1101	-0.015
1101	-0.017
1102	-0.019
1102	-0.022
1102	-0.022
1103	-0.023
1103	-0.025
1104	-0.026
1104	-0.028
1104	-0.03
1105	-0.032
1105	-0.035
1106	-0.038
1106	-0.039
1107	-0.043
1107	-0.047
1107	-0.052
1108	-0.054
1108	-0.056
1109	-0.06
1109	-0.064
1109	-0.066
1110	-0.064
1110	-0.068
1111	-0.075
1111	-0.076
