Data from 17C_3.4A_30min_2sec_int_Absorbance__238__00959.txt Node

Date: Mon Jun 19 16:57:47 CEST 2023
User: Marek
Spectrometer: MAYP115816
Trigger mode: 0
Integration Time (sec): 2.500000E-1
Scans to average: 10
Electric dark correction enabled: true
Nonlinearity correction enabled: true
Boxcar width: 5
XAxis mode: Wavelengths
Number of Pixels in Spectrum: 2068
>>>>>Begin Spectral Data<<<<<
199	-0.62
199	-0.635
200	-0.541
200	-0.495
201	-0.459
201	-0.447
202	-0.427
202	-0.415
203	-0.409
203	-0.404
204	-0.394
204	-0.381
205	-0.359
205	-0.354
205	-0.351
206	-0.353
206	-0.353
207	-0.343
207	-0.347
208	-0.349
208	-0.348
209	-0.343
209	-0.345
210	-0.35
210	-0.356
211	-0.357
211	-0.36
212	-0.363
212	-0.372
213	-0.369
213	-0.368
213	-0.373
214	-0.37
214	-0.368
215	-0.367
215	-0.37
216	-0.373
216	-0.379
217	-0.375
217	-0.38
218	-0.383
218	-0.384
219	-0.385
219	-0.393
220	-0.396
220	-0.404
221	-0.402
221	-0.405
221	-0.4
222	-0.398
222	-0.397
223	-0.399
223	-0.402
224	-0.41
224	-0.411
225	-0.406
225	-0.401
226	-0.407
226	-0.407
227	-0.411
227	-0.419
228	-0.42
228	-0.419
229	-0.42
229	-0.413
229	-0.408
230	-0.414
230	-0.418
231	-0.412
231	-0.403
232	-0.395
232	-0.395
233	-0.389
233	-0.389
234	-0.389
234	-0.384
235	-0.388
235	-0.392
236	-0.39
236	-0.394
236	-0.4
237	-0.408
237	-0.407
238	-0.417
238	-0.415
239	-0.413
239	-0.424
240	-0.423
240	-0.422
241	-0.428
241	-0.429
242	-0.435
242	-0.429
243	-0.424
243	-0.424
243	-0.43
244	-0.432
244	-0.431
245	-0.444
245	-0.441
246	-0.443
246	-0.445
247	-0.448
247	-0.456
248	-0.464
248	-0.462
249	-0.466
249	-0.473
250	-0.47
250	-0.464
250	-0.468
251	-0.464
251	-0.467
252	-0.466
252	-0.454
253	-0.459
253	-0.468
254	-0.466
254	-0.465
255	-0.473
255	-0.465
256	-0.461
256	-0.473
257	-0.469
257	-0.467
258	-0.487
258	-0.483
258	-0.478
259	-0.475
259	-0.482
260	-0.483
260	-0.489
261	-0.501
261	-0.492
262	-0.491
262	-0.491
263	-0.479
263	-0.476
264	-0.477
264	-0.486
265	-0.481
265	-0.488
265	-0.491
266	-0.485
266	-0.483
267	-0.493
267	-0.498
268	-0.513
268	-0.52
269	-0.517
269	-0.513
270	-0.517
270	-0.522
271	-0.524
271	-0.531
272	-0.537
272	-0.533
272	-0.528
273	-0.524
273	-0.534
274	-0.539
274	-0.542
275	-0.543
275	-0.534
276	-0.538
276	-0.53
277	-0.532
277	-0.547
278	-0.558
278	-0.555
278	-0.549
279	-0.553
279	-0.563
280	-0.561
280	-0.561
281	-0.559
281	-0.565
282	-0.559
282	-0.559
283	-0.548
283	-0.55
284	-0.543
284	-0.534
285	-0.528
285	-0.527
285	-0.524
286	-0.527
286	-0.523
287	-0.52
287	-0.506
288	-0.499
288	-0.505
289	-0.518
289	-0.528
290	-0.52
290	-0.518
291	-0.515
291	-0.508
292	-0.509
292	-0.515
292	-0.518
293	-0.525
293	-0.515
294	-0.504
294	-0.492
295	-0.488
295	-0.485
296	-0.482
296	-0.484
297	-0.479
297	-0.464
298	-0.456
298	-0.464
298	-0.452
299	-0.445
299	-0.448
300	-0.442
300	-0.439
301	-0.436
301	-0.432
302	-0.441
302	-0.449
303	-0.438
303	-0.423
304	-0.427
304	-0.426
305	-0.427
305	-0.427
305	-0.424
306	-0.408
306	-0.404
307	-0.39
307	-0.391
308	-0.405
308	-0.406
309	-0.409
309	-0.398
310	-0.387
310	-0.384
311	-0.376
311	-0.385
311	-0.382
312	-0.378
312	-0.377
313	-0.362
313	-0.362
314	-0.357
314	-0.36
315	-0.362
315	-0.36
316	-0.358
316	-0.35
317	-0.342
317	-0.339
318	-0.326
318	-0.325
318	-0.32
319	-0.312
319	-0.308
320	-0.3
320	-0.301
321	-0.306
321	-0.305
322	-0.299
322	-0.295
323	-0.296
323	-0.291
324	-0.283
324	-0.275
324	-0.266
325	-0.259
325	-0.242
326	-0.227
326	-0.211
327	-0.198
327	-0.178
328	-0.152
328	-0.133
329	-0.112
329	-0.091
330	-0.066
330	-0.036
330	-0.014
331	0.013
331	0.038
332	0.06
332	0.08
333	0.099
333	0.121
334	0.139
334	0.155
335	0.17
335	0.183
336	0.195
336	0.207
336	0.216
337	0.227
337	0.235
338	0.241
338	0.246
339	0.253
339	0.259
340	0.262
340	0.266
341	0.269
341	0.272
342	0.275
342	0.277
342	0.28
343	0.282
343	0.284
344	0.285
344	0.286
345	0.287
345	0.288
346	0.289
346	0.289
347	0.29
347	0.29
348	0.29
348	0.291
348	0.291
349	0.291
349	0.292
350	0.292
350	0.292
351	0.292
351	0.292
352	0.292
352	0.292
353	0.292
353	0.292
354	0.292
354	0.291
354	0.291
355	0.291
355	0.291
356	0.291
356	0.291
357	0.29
357	0.289
358	0.289
358	0.289
359	0.288
359	0.288
360	0.288
360	0.288
360	0.288
361	0.287
361	0.287
362	0.287
362	0.287
363	0.287
363	0.287
364	0.287
364	0.287
365	0.287
365	0.287
366	0.287
366	0.287
366	0.286
367	0.286
367	0.286
368	0.286
368	0.286
369	0.285
369	0.285
370	0.285
370	0.285
371	0.285
371	0.284
372	0.284
372	0.284
372	0.284
373	0.284
373	0.284
374	0.284
374	0.284
375	0.283
375	0.283
376	0.283
376	0.283
377	0.283
377	0.283
378	0.283
378	0.283
378	0.282
379	0.282
379	0.282
380	0.282
380	0.282
381	0.282
381	0.281
382	0.281
382	0.281
383	0.28
383	0.28
383	0.28
384	0.279
384	0.279
385	0.279
385	0.279
386	0.279
386	0.279
387	0.279
387	0.278
388	0.278
388	0.278
389	0.278
389	0.278
389	0.278
390	0.278
390	0.278
391	0.278
391	0.278
392	0.278
392	0.278
393	0.278
393	0.277
394	0.277
394	0.277
394	0.276
395	0.276
395	0.276
396	0.276
396	0.275
397	0.275
397	0.275
398	0.275
398	0.275
399	0.274
399	0.274
400	0.274
400	0.274
400	0.274
401	0.274
401	0.274
402	0.274
402	0.273
403	0.273
403	0.273
404	0.273
404	0.272
405	0.272
405	0.272
405	0.272
406	0.271
406	0.271
407	0.271
407	0.271
408	0.271
408	0.27
409	0.27
409	0.27
410	0.27
410	0.27
411	0.27
411	0.27
411	0.27
412	0.27
412	0.27
413	0.27
413	0.27
414	0.269
414	0.269
415	0.269
415	0.269
416	0.269
416	0.268
416	0.268
417	0.268
417	0.268
418	0.268
418	0.268
419	0.268
419	0.268
420	0.268
420	0.268
421	0.268
421	0.268
421	0.268
422	0.268
422	0.268
423	0.268
423	0.267
424	0.267
424	0.267
425	0.267
425	0.266
426	0.266
426	0.266
427	0.265
427	0.265
427	0.265
428	0.265
428	0.265
429	0.265
429	0.265
430	0.265
430	0.265
431	0.264
431	0.264
432	0.264
432	0.264
432	0.264
433	0.264
433	0.263
434	0.263
434	0.263
435	0.262
435	0.262
436	0.262
436	0.262
437	0.262
437	0.262
437	0.262
438	0.262
438	0.262
439	0.262
439	0.262
440	0.262
440	0.262
441	0.262
441	0.262
442	0.261
442	0.261
442	0.261
443	0.261
443	0.261
444	0.261
444	0.261
445	0.261
445	0.261
446	0.262
446	0.262
447	0.262
447	0.262
447	0.262
448	0.262
448	0.262
449	0.262
449	0.262
450	0.263
450	0.262
451	0.262
451	0.262
452	0.262
452	0.262
452	0.262
453	0.262
453	0.262
454	0.262
454	0.262
455	0.262
455	0.262
456	0.262
456	0.262
457	0.262
457	0.262
458	0.262
458	0.262
458	0.262
459	0.262
459	0.262
460	0.262
460	0.262
461	0.262
461	0.261
462	0.261
462	0.262
463	0.262
463	0.262
463	0.262
464	0.262
464	0.262
465	0.262
465	0.263
466	0.263
466	0.264
467	0.264
467	0.264
467	0.264
468	0.264
468	0.265
469	0.265
469	0.265
470	0.266
470	0.266
471	0.266
471	0.266
472	0.267
472	0.267
472	0.267
473	0.267
473	0.268
474	0.268
474	0.269
475	0.269
475	0.269
476	0.27
476	0.27
477	0.271
477	0.271
477	0.271
478	0.272
478	0.273
479	0.273
479	0.274
480	0.274
480	0.275
481	0.275
481	0.276
482	0.277
482	0.278
482	0.278
483	0.279
483	0.28
484	0.281
484	0.281
485	0.282
485	0.283
486	0.283
486	0.284
487	0.285
487	0.286
487	0.287
488	0.288
488	0.289
489	0.29
489	0.292
490	0.293
490	0.295
491	0.296
491	0.297
492	0.298
492	0.299
492	0.301
493	0.302
493	0.303
494	0.305
494	0.306
495	0.307
495	0.308
496	0.31
496	0.312
496	0.313
497	0.315
497	0.316
498	0.318
498	0.319
499	0.321
499	0.323
500	0.325
500	0.327
501	0.328
501	0.33
501	0.331
502	0.333
502	0.334
503	0.336
503	0.338
504	0.34
504	0.341
505	0.344
505	0.345
506	0.347
506	0.349
506	0.351
507	0.353
507	0.355
508	0.357
508	0.358
509	0.36
509	0.363
510	0.364
510	0.366
511	0.368
511	0.37
511	0.372
512	0.374
512	0.376
513	0.377
513	0.379
514	0.381
514	0.382
515	0.384
515	0.386
515	0.387
516	0.389
516	0.391
517	0.393
517	0.395
518	0.397
518	0.398
519	0.4
519	0.401
520	0.403
520	0.405
520	0.407
521	0.408
521	0.41
522	0.411
522	0.413
523	0.414
523	0.415
524	0.416
524	0.417
524	0.418
525	0.418
525	0.419
526	0.419
526	0.42
527	0.421
527	0.422
528	0.422
528	0.423
529	0.424
529	0.425
529	0.426
530	0.427
530	0.427
531	0.428
531	0.428
532	0.428
532	0.429
533	0.429
533	0.429
533	0.429
534	0.429
534	0.429
535	0.428
535	0.428
536	0.428
536	0.427
537	0.427
537	0.427
538	0.426
538	0.426
538	0.425
539	0.425
539	0.425
540	0.424
540	0.423
541	0.423
541	0.422
542	0.422
542	0.421
542	0.42
543	0.419
543	0.418
544	0.417
544	0.416
545	0.416
545	0.416
546	0.415
546	0.414
547	0.413
547	0.412
547	0.411
548	0.41
548	0.409
549	0.408
549	0.407
550	0.406
550	0.405
551	0.404
551	0.403
551	0.403
552	0.403
552	0.402
553	0.402
553	0.402
554	0.401
554	0.4
555	0.398
555	0.398
556	0.397
556	0.395
556	0.394
557	0.393
557	0.392
558	0.39
558	0.388
559	0.387
559	0.386
560	0.385
560	0.384
560	0.383
561	0.382
561	0.381
562	0.38
562	0.378
563	0.377
563	0.376
564	0.375
564	0.375
564	0.374
565	0.373
565	0.372
566	0.371
566	0.37
567	0.369
567	0.368
568	0.367
568	0.365
568	0.364
569	0.363
569	0.361
570	0.36
570	0.358
571	0.357
571	0.356
572	0.355
572	0.354
573	0.353
573	0.352
573	0.352
574	0.351
574	0.35
575	0.35
575	0.349
576	0.348
576	0.347
577	0.346
577	0.345
577	0.345
578	0.345
578	0.344
579	0.344
579	0.343
580	0.342
580	0.34
581	0.339
581	0.339
581	0.338
582	0.338
582	0.337
583	0.336
583	0.335
584	0.333
584	0.332
585	0.332
585	0.332
585	0.332
586	0.331
586	0.331
587	0.33
587	0.33
588	0.329
588	0.329
589	0.328
589	0.328
590	0.327
590	0.327
590	0.327
591	0.326
591	0.325
592	0.324
592	0.323
593	0.323
593	0.322
594	0.322
594	0.321
594	0.321
595	0.32
595	0.32
596	0.319
596	0.32
597	0.32
597	0.319
598	0.318
598	0.317
598	0.317
599	0.316
599	0.315
600	0.314
600	0.313
601	0.312
601	0.311
602	0.31
602	0.31
602	0.309
603	0.31
603	0.31
604	0.31
604	0.31
605	0.31
605	0.31
606	0.309
606	0.308
606	0.307
607	0.306
607	0.305
608	0.304
608	0.303
609	0.302
609	0.302
610	0.301
610	0.3
610	0.3
611	0.299
611	0.299
612	0.299
612	0.299
613	0.299
613	0.298
614	0.297
614	0.296
614	0.295
615	0.294
615	0.293
616	0.292
616	0.291
617	0.29
617	0.289
618	0.287
618	0.286
618	0.286
619	0.285
619	0.285
620	0.284
620	0.283
621	0.282
621	0.282
622	0.28
622	0.28
622	0.278
623	0.278
623	0.277
624	0.277
624	0.276
625	0.275
625	0.274
626	0.273
626	0.272
626	0.271
627	0.27
627	0.269
628	0.267
628	0.266
629	0.264
629	0.262
630	0.26
630	0.258
630	0.255
631	0.253
631	0.25
632	0.248
632	0.245
633	0.242
633	0.239
634	0.236
634	0.233
634	0.229
635	0.226
635	0.222
636	0.218
636	0.214
637	0.21
637	0.206
638	0.201
638	0.196
638	0.192
639	0.186
639	0.181
640	0.175
640	0.17
641	0.164
641	0.158
642	0.153
642	0.147
642	0.142
643	0.136
643	0.13
644	0.123
644	0.117
645	0.11
645	0.104
646	0.098
646	0.091
646	0.084
647	0.077
647	0.071
648	0.064
648	0.057
649	0.049
649	0.042
650	0.034
650	0.026
650	0.018
651	0.008
651	-0.004
652	-0.019
652	-0.034
653	-0.048
653	-0.06
653	-0.057
654	-0.036
654	-0.024
655	-0.027
655	-0.031
656	-0.036
656	-0.042
657	-0.046
657	-0.049
657	-0.054
658	-0.06
658	-0.087
659	-0.169
659	-0.269
660	-0.314
660	-0.34
661	-0.369
661	-0.4
661	-0.435
662	-0.47
662	-0.508
663	-0.55
663	-0.596
664	-0.643
664	-0.698
665	-0.752
665	-0.815
665	-0.874
666	-0.935
666	-1
667	-1.069
667	-1.137
668	-1.212
668	-1.289
669	-1.367
669	-1.447
669	-1.534
670	-1.621
670	-1.716
671	-1.955
671	-2.13
672	-2.313
672	-2.478
672	-2.591
673	-2.672
673	-2.742
674	-2.767
674	-2.782
675	-2.803
675	-2.934
676	-3.093
676	-3.041
676	-2.812
677	-2.599
677	-2.422
678	-2.215
678	-1.835
679	-1.649
679	-1.537
680	-1.45
680	-1.373
680	-1.307
681	-1.265
681	-1.208
682	-1.169
682	-1.132
683	-1.096
683	-1.078
684	-1.057
684	-1.036
684	-1.013
685	-0.988
685	-0.964
686	-0.937
686	-0.919
687	-0.892
687	-0.878
687	-0.857
688	-0.83
688	-0.807
689	-0.785
689	-0.77
690	-0.749
690	-0.734
691	-0.728
691	-0.731
691	-0.746
692	-0.736
692	-0.727
693	-0.721
693	-0.725
694	-0.72
694	-0.714
695	-0.717
695	-0.715
695	-0.698
696	-0.694
696	-0.67
697	-0.669
697	-0.682
698	-0.684
698	-0.674
698	-0.685
699	-0.687
699	-0.686
700	-0.676
700	-0.687
701	-0.684
701	-0.69
702	-0.691
702	-0.679
702	-0.672
703	-0.665
703	-0.658
704	-0.653
704	-0.652
705	-0.664
705	-0.658
705	-0.647
706	-0.65
706	-0.644
707	-0.648
707	-0.64
708	-0.639
708	-0.633
709	-0.634
709	-0.636
709	-0.626
710	-0.634
710	-0.643
711	-0.631
711	-0.632
712	-0.634
712	-0.647
713	-0.644
713	-0.649
713	-0.639
714	-0.636
714	-0.636
715	-0.626
715	-0.614
716	-0.622
716	-0.624
716	-0.614
717	-0.615
717	-0.62
718	-0.613
718	-0.615
719	-0.621
719	-0.621
720	-0.614
720	-0.623
720	-0.615
721	-0.603
721	-0.602
722	-0.588
722	-0.576
723	-0.574
723	-0.58
723	-0.565
724	-0.57
724	-0.575
725	-0.574
725	-0.583
726	-0.595
726	-0.601
727	-0.607
727	-0.621
727	-0.626
728	-0.626
728	-0.631
729	-0.629
729	-0.634
730	-0.639
730	-0.631
730	-0.621
731	-0.605
731	-0.614
732	-0.617
732	-0.62
733	-0.617
733	-0.624
734	-0.619
734	-0.619
734	-0.607
735	-0.607
735	-0.609
736	-0.618
736	-0.605
737	-0.6
737	-0.6
737	-0.608
738	-0.602
738	-0.603
739	-0.602
739	-0.612
740	-0.612
740	-0.61
741	-0.609
741	-0.607
741	-0.608
742	-0.605
742	-0.605
743	-0.612
743	-0.617
744	-0.611
744	-0.604
744	-0.602
745	-0.607
745	-0.597
746	-0.599
746	-0.596
747	-0.595
747	-0.584
748	-0.574
748	-0.581
748	-0.583
749	-0.581
749	-0.584
750	-0.577
750	-0.579
751	-0.582
751	-0.59
751	-0.594
752	-0.599
752	-0.606
753	-0.598
753	-0.596
754	-0.598
754	-0.59
754	-0.601
755	-0.618
755	-0.63
756	-0.621
756	-0.618
757	-0.615
757	-0.612
758	-0.614
758	-0.612
758	-0.616
759	-0.625
759	-0.61
760	-0.602
760	-0.598
761	-0.608
761	-0.606
761	-0.607
762	-0.612
762	-0.613
763	-0.621
763	-0.615
764	-0.614
764	-0.624
764	-0.632
765	-0.619
765	-0.606
766	-0.611
766	-0.618
767	-0.634
767	-0.626
768	-0.618
768	-0.628
768	-0.632
769	-0.645
769	-0.647
770	-0.652
770	-0.666
771	-0.665
771	-0.666
771	-0.666
772	-0.67
772	-0.668
773	-0.67
773	-0.665
774	-0.665
774	-0.664
775	-0.667
775	-0.661
775	-0.666
776	-0.666
776	-0.656
777	-0.666
777	-0.687
778	-0.682
778	-0.703
778	-0.689
779	-0.706
779	-0.715
780	-0.728
780	-0.729
781	-0.739
781	-0.735
781	-0.75
782	-0.75
782	-0.754
783	-0.742
783	-0.744
784	-0.729
784	-0.722
784	-0.732
785	-0.737
785	-0.725
786	-0.729
786	-0.707
787	-0.69
787	-0.69
788	-0.691
788	-0.698
788	-0.704
789	-0.703
789	-0.684
790	-0.665
790	-0.667
791	-0.665
791	-0.684
791	-0.691
792	-0.681
792	-0.657
793	-0.648
793	-0.63
794	-0.635
794	-0.63
794	-0.638
795	-0.634
795	-0.628
796	-0.612
796	-0.62
797	-0.615
797	-0.63
797	-0.636
798	-0.645
798	-0.637
799	-0.643
799	-0.63
800	-0.635
800	-0.628
801	-0.632
801	-0.617
801	-0.628
802	-0.635
802	-0.637
803	-0.643
803	-0.652
804	-0.649
804	-0.661
804	-0.647
805	-0.655
805	-0.644
806	-0.645
806	-0.632
807	-0.629
807	-0.61
807	-0.597
808	-0.588
808	-0.579
809	-0.565
809	-0.575
810	-0.572
810	-0.565
810	-0.565
811	-0.569
811	-0.561
812	-0.561
812	-0.561
813	-0.565
813	-0.564
813	-0.568
814	-0.569
814	-0.57
815	-0.575
815	-0.576
816	-0.569
816	-0.573
817	-0.582
817	-0.602
817	-0.612
818	-0.619
818	-0.621
819	-0.612
819	-0.619
820	-0.629
820	-0.627
820	-0.639
821	-0.637
821	-0.625
822	-0.593
822	-0.574
823	-0.571
823	-0.575
823	-0.573
824	-0.562
824	-0.566
825	-0.56
825	-0.537
826	-0.534
826	-0.542
826	-0.553
827	-0.548
827	-0.543
828	-0.524
828	-0.526
829	-0.519
829	-0.503
829	-0.493
830	-0.505
830	-0.502
831	-0.495
831	-0.487
832	-0.484
832	-0.478
832	-0.485
833	-0.477
833	-0.477
834	-0.477
834	-0.486
835	-0.473
835	-0.47
835	-0.466
836	-0.462
836	-0.459
837	-0.458
837	-0.448
838	-0.441
838	-0.431
839	-0.418
839	-0.407
839	-0.397
840	-0.382
840	-0.379
841	-0.368
841	-0.36
842	-0.354
842	-0.343
842	-0.339
843	-0.332
843	-0.329
844	-0.321
844	-0.318
845	-0.313
845	-0.301
845	-0.287
846	-0.278
846	-0.264
847	-0.257
847	-0.246
848	-0.237
848	-0.227
848	-0.214
849	-0.205
849	-0.195
850	-0.184
850	-0.18
851	-0.173
851	-0.164
851	-0.155
852	-0.142
852	-0.132
853	-0.122
853	-0.117
854	-0.105
854	-0.096
854	-0.086
855	-0.076
855	-0.071
856	-0.063
856	-0.056
857	-0.05
857	-0.043
857	-0.034
858	-0.025
858	-0.021
859	-0.014
859	-0.007
860	0
860	0.01
860	0.016
861	0.023
861	0.029
862	0.034
862	0.04
863	0.046
863	0.053
863	0.056
864	0.06
864	0.064
865	0.068
865	0.071
866	0.074
866	0.077
866	0.08
867	0.082
867	0.084
868	0.086
868	0.089
869	0.092
869	0.094
869	0.096
870	0.098
870	0.1
871	0.102
871	0.104
872	0.105
872	0.106
872	0.106
873	0.107
873	0.107
874	0.107
874	0.107
875	0.106
875	0.105
875	0.104
876	0.103
876	0.102
877	0.101
877	0.1
878	0.098
878	0.096
878	0.094
879	0.092
879	0.091
880	0.09
880	0.089
881	0.089
881	0.089
881	0.089
882	0.089
882	0.089
883	0.088
883	0.087
884	0.087
884	0.087
884	0.086
885	0.085
885	0.085
886	0.084
886	0.083
887	0.083
887	0.082
887	0.082
888	0.082
888	0.082
889	0.082
889	0.083
890	0.083
890	0.083
890	0.083
891	0.083
891	0.083
892	0.083
892	0.083
893	0.083
893	0.083
893	0.083
894	0.082
894	0.082
895	0.081
895	0.08
895	0.08
896	0.079
896	0.077
897	0.076
897	0.075
898	0.074
898	0.074
898	0.074
899	0.074
899	0.074
900	0.074
900	0.074
901	0.075
901	0.076
901	0.077
902	0.077
902	0.077
903	0.077
903	0.077
904	0.078
904	0.078
904	0.079
905	0.08
905	0.08
906	0.08
906	0.08
907	0.08
907	0.08
907	0.08
908	0.079
908	0.079
909	0.079
909	0.078
910	0.078
910	0.078
910	0.077
911	0.078
911	0.078
912	0.079
912	0.079
913	0.079
913	0.08
913	0.08
914	0.081
914	0.081
915	0.082
915	0.082
916	0.082
916	0.082
916	0.082
917	0.082
917	0.081
918	0.081
918	0.08
918	0.08
919	0.079
919	0.079
920	0.079
920	0.079
921	0.079
921	0.079
921	0.079
922	0.079
922	0.079
923	0.079
923	0.079
924	0.079
924	0.079
924	0.078
925	0.077
925	0.076
926	0.076
926	0.075
927	0.074
927	0.074
927	0.074
928	0.073
928	0.073
929	0.073
929	0.073
930	0.072
930	0.072
930	0.072
931	0.072
931	0.072
932	0.071
932	0.07
933	0.069
933	0.068
933	0.067
934	0.065
934	0.065
935	0.064
935	0.063
935	0.061
936	0.06
936	0.059
937	0.058
937	0.058
938	0.058
938	0.058
938	0.059
939	0.06
939	0.06
940	0.061
940	0.062
941	0.063
941	0.064
941	0.065
942	0.065
942	0.066
943	0.066
943	0.066
944	0.066
944	0.066
944	0.065
945	0.064
945	0.063
946	0.062
946	0.06
946	0.06
947	0.059
947	0.059
948	0.059
948	0.059
949	0.059
949	0.06
949	0.061
950	0.062
950	0.063
951	0.064
951	0.065
952	0.065
952	0.066
952	0.067
953	0.067
953	0.068
954	0.068
954	0.069
955	0.07
955	0.071
955	0.072
956	0.072
956	0.073
957	0.073
957	0.073
957	0.073
958	0.074
958	0.074
959	0.074
959	0.074
960	0.074
960	0.073
960	0.073
961	0.073
961	0.073
962	0.073
962	0.073
963	0.072
963	0.072
963	0.072
964	0.072
964	0.072
965	0.072
965	0.072
966	0.072
966	0.072
966	0.072
967	0.071
967	0.071
968	0.07
968	0.07
968	0.069
969	0.069
969	0.069
970	0.068
970	0.068
971	0.068
971	0.069
971	0.069
972	0.069
972	0.069
973	0.069
973	0.069
974	0.068
974	0.068
974	0.068
975	0.067
975	0.066
976	0.065
976	0.065
976	0.065
977	0.064
977	0.064
978	0.064
978	0.064
979	0.063
979	0.062
979	0.062
980	0.062
980	0.062
981	0.061
981	0.061
982	0.061
982	0.061
982	0.06
983	0.06
983	0.06
984	0.06
984	0.061
984	0.061
985	0.062
985	0.062
986	0.062
986	0.063
987	0.063
987	0.063
987	0.063
988	0.063
988	0.062
989	0.061
989	0.06
990	0.06
990	0.059
990	0.058
991	0.057
991	0.057
992	0.056
992	0.056
992	0.056
993	0.056
993	0.056
994	0.056
994	0.055
995	0.055
995	0.055
995	0.055
996	0.054
996	0.054
997	0.054
997	0.054
997	0.054
998	0.054
998	0.054
999	0.055
999	0.055
1000	0.055
1000	0.056
1000	0.056
1001	0.056
1001	0.056
1002	0.056
1002	0.056
1003	0.056
1003	0.055
1003	0.055
1004	0.054
1004	0.053
1005	0.053
1005	0.052
1005	0.051
1006	0.05
1006	0.049
1007	0.048
1007	0.047
1008	0.047
1008	0.046
1008	0.046
1009	0.045
1009	0.045
1010	0.046
1010	0.046
1010	0.045
1011	0.045
1011	0.044
1012	0.044
1012	0.043
1013	0.042
1013	0.041
1013	0.04
1014	0.039
1014	0.038
1015	0.037
1015	0.036
1016	0.035
1016	0.034
1016	0.034
1017	0.033
1017	0.033
1018	0.032
1018	0.032
1018	0.031
1019	0.031
1019	0.03
1020	0.029
1020	0.029
1021	0.028
1021	0.027
1021	0.026
1022	0.025
1022	0.025
1023	0.024
1023	0.024
1023	0.023
1024	0.023
1024	0.023
1025	0.023
1025	0.023
1026	0.024
1026	0.024
1026	0.025
1027	0.025
1027	0.026
1028	0.026
1028	0.026
1028	0.026
1029	0.026
1029	0.026
1030	0.026
1030	0.025
1031	0.025
1031	0.025
1031	0.025
1032	0.025
1032	0.025
1033	0.025
1033	0.025
1033	0.026
1034	0.026
1034	0.026
1035	0.026
1035	0.026
1036	0.026
1036	0.026
1036	0.026
1037	0.026
1037	0.026
1038	0.026
1038	0.026
1039	0.026
1039	0.026
1039	0.026
1040	0.027
1040	0.027
1041	0.027
1041	0.028
1041	0.028
1042	0.028
1042	0.027
1043	0.027
1043	0.027
1044	0.026
1044	0.026
1044	0.025
1045	0.025
1045	0.024
1046	0.024
1046	0.024
1046	0.024
1047	0.025
1047	0.025
1048	0.025
1048	0.026
1049	0.026
1049	0.026
1049	0.027
1050	0.027
1050	0.027
1051	0.027
1051	0.027
1051	0.027
1052	0.027
1052	0.027
1053	0.027
1053	0.027
1053	0.027
1054	0.027
1054	0.027
1055	0.026
1055	0.026
1056	0.025
1056	0.024
1056	0.023
1057	0.023
1057	0.022
1058	0.021
1058	0.021
1058	0.021
1059	0.02
1059	0.019
1060	0.019
1060	0.019
1061	0.019
1061	0.019
1061	0.02
1062	0.02
1062	0.019
1063	0.02
1063	0.02
1063	0.02
1064	0.021
1064	0.02
1065	0.02
1065	0.02
1066	0.019
1066	0.019
1066	0.018
1067	0.018
1067	0.018
1068	0.017
1068	0.016
1068	0.016
1069	0.016
1069	0.015
1070	0.015
1070	0.015
1071	0.014
1071	0.015
1071	0.014
1072	0.014
1072	0.014
1073	0.014
1073	0.014
1073	0.014
1074	0.014
1074	0.014
1075	0.014
1075	0.013
1076	0.013
1076	0.013
1076	0.012
1077	0.012
1077	0.011
1078	0.01
1078	0.01
1078	0.009
1079	0.008
1079	0.008
1080	0.007
1080	0.007
1080	0.006
1081	0.005
1081	0.005
1082	0.004
1082	0.003
1083	0.003
1083	0.002
1083	0.001
1084	0
1084	0
1085	-0.001
1085	-0.001
1085	-0.002
1086	-0.002
1086	-0.003
1087	-0.003
1087	-0.003
1088	-0.004
1088	-0.004
1088	-0.005
1089	-0.005
1089	-0.005
1090	-0.007
1090	-0.007
1090	-0.007
1091	-0.008
1091	-0.008
1092	-0.009
1092	-0.009
1092	-0.01
1093	-0.01
1093	-0.01
1094	-0.01
1094	-0.01
1095	-0.012
1095	-0.012
1095	-0.012
1096	-0.013
1096	-0.013
1097	-0.014
1097	-0.014
1097	-0.015
1098	-0.017
1098	-0.017
1099	-0.018
1099	-0.018
1100	-0.019
1100	-0.02
1100	-0.022
1101	-0.024
1101	-0.026
1102	-0.028
1102	-0.03
1102	-0.03
1103	-0.032
1103	-0.034
1104	-0.035
1104	-0.037
1104	-0.038
1105	-0.039
1105	-0.041
1106	-0.044
1106	-0.045
1107	-0.048
1107	-0.051
1107	-0.055
1108	-0.056
1108	-0.057
1109	-0.06
1109	-0.064
1109	-0.066
1110	-0.067
1110	-0.068
1111	-0.074
1111	-0.072
