Data from 17C_3.4A_30min_2sec_int_Absorbance__738__01459.txt Node

Date: Mon Jun 19 17:18:37 CEST 2023
User: Marek
Spectrometer: MAYP115816
Trigger mode: 0
Integration Time (sec): 2.500000E-1
Scans to average: 10
Electric dark correction enabled: true
Nonlinearity correction enabled: true
Boxcar width: 5
XAxis mode: Wavelengths
Number of Pixels in Spectrum: 2068
>>>>>Begin Spectral Data<<<<<
199	-0.676
199	-0.698
200	-0.607
200	-0.56
201	-0.519
201	-0.511
202	-0.492
202	-0.479
203	-0.471
203	-0.469
204	-0.459
204	-0.446
205	-0.422
205	-0.415
205	-0.412
206	-0.416
206	-0.417
207	-0.409
207	-0.412
208	-0.414
208	-0.412
209	-0.406
209	-0.407
210	-0.41
210	-0.418
211	-0.418
211	-0.42
212	-0.422
212	-0.43
213	-0.427
213	-0.428
213	-0.432
214	-0.427
214	-0.427
215	-0.429
215	-0.433
216	-0.437
216	-0.446
217	-0.44
217	-0.446
218	-0.448
218	-0.449
219	-0.452
219	-0.462
220	-0.468
220	-0.476
221	-0.474
221	-0.476
221	-0.467
222	-0.465
222	-0.464
223	-0.467
223	-0.47
224	-0.473
224	-0.475
225	-0.469
225	-0.462
226	-0.467
226	-0.467
227	-0.474
227	-0.484
228	-0.484
228	-0.485
229	-0.486
229	-0.481
229	-0.475
230	-0.48
230	-0.484
231	-0.48
231	-0.471
232	-0.465
232	-0.462
233	-0.458
233	-0.456
234	-0.455
234	-0.45
235	-0.454
235	-0.458
236	-0.457
236	-0.457
236	-0.465
237	-0.472
237	-0.472
238	-0.481
238	-0.478
239	-0.479
239	-0.488
240	-0.487
240	-0.486
241	-0.491
241	-0.49
242	-0.493
242	-0.487
243	-0.485
243	-0.486
243	-0.495
244	-0.495
244	-0.493
245	-0.506
245	-0.504
246	-0.509
246	-0.515
247	-0.517
247	-0.524
248	-0.534
248	-0.53
249	-0.532
249	-0.541
250	-0.542
250	-0.537
250	-0.54
251	-0.538
251	-0.538
252	-0.542
252	-0.53
253	-0.533
253	-0.544
254	-0.545
254	-0.541
255	-0.548
255	-0.543
256	-0.54
256	-0.551
257	-0.548
257	-0.543
258	-0.56
258	-0.557
258	-0.552
259	-0.548
259	-0.555
260	-0.553
260	-0.558
261	-0.57
261	-0.562
262	-0.559
262	-0.561
263	-0.549
263	-0.543
264	-0.544
264	-0.553
265	-0.55
265	-0.56
265	-0.562
266	-0.559
266	-0.558
267	-0.572
267	-0.58
268	-0.596
268	-0.606
269	-0.603
269	-0.598
270	-0.601
270	-0.6
271	-0.599
271	-0.603
272	-0.607
272	-0.601
272	-0.593
273	-0.589
273	-0.597
274	-0.604
274	-0.606
275	-0.61
275	-0.608
276	-0.612
276	-0.605
277	-0.605
277	-0.623
278	-0.637
278	-0.632
278	-0.627
279	-0.629
279	-0.639
280	-0.633
280	-0.631
281	-0.627
281	-0.634
282	-0.631
282	-0.628
283	-0.617
283	-0.62
284	-0.615
284	-0.606
285	-0.603
285	-0.601
285	-0.599
286	-0.609
286	-0.602
287	-0.598
287	-0.585
288	-0.579
288	-0.586
289	-0.597
289	-0.605
290	-0.592
290	-0.593
291	-0.588
291	-0.58
292	-0.584
292	-0.59
292	-0.594
293	-0.596
293	-0.587
294	-0.575
294	-0.567
295	-0.566
295	-0.562
296	-0.561
296	-0.559
297	-0.552
297	-0.537
298	-0.532
298	-0.541
298	-0.53
299	-0.525
299	-0.525
300	-0.522
300	-0.517
301	-0.515
301	-0.512
302	-0.521
302	-0.531
303	-0.518
303	-0.505
304	-0.508
304	-0.51
305	-0.513
305	-0.51
305	-0.509
306	-0.492
306	-0.487
307	-0.474
307	-0.474
308	-0.487
308	-0.484
309	-0.486
309	-0.473
310	-0.461
310	-0.458
311	-0.449
311	-0.458
311	-0.456
312	-0.451
312	-0.448
313	-0.435
313	-0.438
314	-0.436
314	-0.438
315	-0.44
315	-0.439
316	-0.435
316	-0.426
317	-0.417
317	-0.414
318	-0.404
318	-0.401
318	-0.396
319	-0.386
319	-0.383
320	-0.376
320	-0.375
321	-0.382
321	-0.381
322	-0.377
322	-0.371
323	-0.37
323	-0.364
324	-0.358
324	-0.35
324	-0.339
325	-0.329
325	-0.315
326	-0.304
326	-0.287
327	-0.273
327	-0.256
328	-0.233
328	-0.214
329	-0.194
329	-0.173
330	-0.148
330	-0.118
330	-0.092
331	-0.062
331	-0.037
332	-0.014
332	0.007
333	0.027
333	0.049
334	0.066
334	0.08
335	0.094
335	0.107
336	0.118
336	0.129
336	0.138
337	0.146
337	0.154
338	0.161
338	0.166
339	0.172
339	0.177
340	0.181
340	0.184
341	0.188
341	0.19
342	0.193
342	0.196
342	0.198
343	0.2
343	0.202
344	0.204
344	0.205
345	0.206
345	0.206
346	0.207
346	0.207
347	0.208
347	0.208
348	0.209
348	0.209
348	0.21
349	0.21
349	0.21
350	0.21
350	0.211
351	0.211
351	0.211
352	0.21
352	0.21
353	0.211
353	0.21
354	0.21
354	0.21
354	0.21
355	0.21
355	0.21
356	0.21
356	0.21
357	0.21
357	0.209
358	0.209
358	0.208
359	0.208
359	0.208
360	0.208
360	0.208
360	0.207
361	0.207
361	0.207
362	0.207
362	0.207
363	0.207
363	0.207
364	0.207
364	0.207
365	0.207
365	0.207
366	0.207
366	0.207
366	0.207
367	0.207
367	0.207
368	0.207
368	0.206
369	0.207
369	0.206
370	0.206
370	0.206
371	0.206
371	0.206
372	0.206
372	0.206
372	0.206
373	0.206
373	0.206
374	0.206
374	0.206
375	0.206
375	0.206
376	0.206
376	0.206
377	0.206
377	0.206
378	0.206
378	0.206
378	0.206
379	0.205
379	0.205
380	0.205
380	0.205
381	0.205
381	0.205
382	0.204
382	0.204
383	0.204
383	0.204
383	0.203
384	0.203
384	0.203
385	0.204
385	0.204
386	0.204
386	0.204
387	0.204
387	0.204
388	0.204
388	0.204
389	0.204
389	0.204
389	0.204
390	0.204
390	0.204
391	0.204
391	0.204
392	0.204
392	0.204
393	0.203
393	0.203
394	0.203
394	0.203
394	0.202
395	0.202
395	0.202
396	0.202
396	0.201
397	0.201
397	0.201
398	0.201
398	0.201
399	0.201
399	0.201
400	0.201
400	0.201
400	0.201
401	0.201
401	0.201
402	0.201
402	0.201
403	0.2
403	0.2
404	0.2
404	0.2
405	0.2
405	0.2
405	0.2
406	0.2
406	0.2
407	0.2
407	0.2
408	0.2
408	0.2
409	0.2
409	0.2
410	0.2
410	0.199
411	0.199
411	0.199
411	0.199
412	0.2
412	0.199
413	0.199
413	0.199
414	0.199
414	0.199
415	0.199
415	0.199
416	0.198
416	0.198
416	0.198
417	0.198
417	0.198
418	0.198
418	0.198
419	0.199
419	0.199
420	0.199
420	0.199
421	0.199
421	0.199
421	0.199
422	0.199
422	0.199
423	0.199
423	0.199
424	0.199
424	0.198
425	0.198
425	0.198
426	0.198
426	0.197
427	0.197
427	0.197
427	0.197
428	0.197
428	0.197
429	0.197
429	0.197
430	0.197
430	0.197
431	0.197
431	0.197
432	0.197
432	0.196
432	0.196
433	0.196
433	0.196
434	0.196
434	0.195
435	0.195
435	0.195
436	0.195
436	0.195
437	0.195
437	0.195
437	0.195
438	0.195
438	0.195
439	0.195
439	0.195
440	0.195
440	0.195
441	0.195
441	0.195
442	0.195
442	0.194
442	0.194
443	0.194
443	0.194
444	0.195
444	0.194
445	0.195
445	0.195
446	0.195
446	0.195
447	0.195
447	0.195
447	0.195
448	0.195
448	0.195
449	0.195
449	0.196
450	0.196
450	0.196
451	0.196
451	0.195
452	0.195
452	0.195
452	0.195
453	0.195
453	0.195
454	0.195
454	0.194
455	0.194
455	0.194
456	0.194
456	0.194
457	0.194
457	0.194
458	0.194
458	0.194
458	0.194
459	0.194
459	0.195
460	0.194
460	0.194
461	0.194
461	0.194
462	0.194
462	0.194
463	0.194
463	0.194
463	0.194
464	0.194
464	0.194
465	0.194
465	0.194
466	0.194
466	0.195
467	0.195
467	0.195
467	0.195
468	0.195
468	0.195
469	0.195
469	0.196
470	0.196
470	0.197
471	0.197
471	0.197
472	0.197
472	0.197
472	0.198
473	0.198
473	0.198
474	0.198
474	0.198
475	0.199
475	0.199
476	0.199
476	0.199
477	0.199
477	0.199
477	0.199
478	0.2
478	0.2
479	0.2
479	0.2
480	0.2
480	0.2
481	0.201
481	0.201
482	0.202
482	0.202
482	0.203
483	0.203
483	0.204
484	0.204
484	0.204
485	0.204
485	0.205
486	0.205
486	0.206
487	0.206
487	0.207
487	0.207
488	0.207
488	0.208
489	0.209
489	0.21
490	0.211
490	0.212
491	0.213
491	0.213
492	0.214
492	0.215
492	0.215
493	0.216
493	0.217
494	0.218
494	0.218
495	0.219
495	0.22
496	0.221
496	0.222
496	0.223
497	0.224
497	0.225
498	0.226
498	0.227
499	0.228
499	0.229
500	0.23
500	0.231
501	0.232
501	0.233
501	0.233
502	0.234
502	0.235
503	0.236
503	0.237
504	0.238
504	0.239
505	0.24
505	0.241
506	0.242
506	0.243
506	0.244
507	0.245
507	0.246
508	0.247
508	0.248
509	0.249
509	0.25
510	0.252
510	0.253
511	0.254
511	0.255
511	0.256
512	0.257
512	0.258
513	0.26
513	0.261
514	0.261
514	0.263
515	0.264
515	0.264
515	0.265
516	0.266
516	0.268
517	0.269
517	0.27
518	0.271
518	0.272
519	0.273
519	0.274
520	0.275
520	0.276
520	0.277
521	0.279
521	0.279
522	0.28
522	0.281
523	0.282
523	0.282
524	0.283
524	0.283
524	0.284
525	0.284
525	0.284
526	0.285
526	0.285
527	0.286
527	0.286
528	0.287
528	0.288
529	0.288
529	0.289
529	0.29
530	0.291
530	0.291
531	0.292
531	0.292
532	0.292
532	0.293
533	0.293
533	0.293
533	0.293
534	0.292
534	0.292
535	0.292
535	0.292
536	0.291
536	0.291
537	0.291
537	0.291
538	0.29
538	0.29
538	0.29
539	0.291
539	0.291
540	0.291
540	0.29
541	0.29
541	0.29
542	0.29
542	0.289
542	0.288
543	0.288
543	0.287
544	0.287
544	0.286
545	0.286
545	0.286
546	0.286
546	0.286
547	0.285
547	0.285
547	0.284
548	0.284
548	0.284
549	0.283
549	0.282
550	0.282
550	0.281
551	0.281
551	0.281
551	0.281
552	0.281
552	0.282
553	0.282
553	0.281
554	0.281
554	0.28
555	0.28
555	0.28
556	0.279
556	0.278
556	0.278
557	0.277
557	0.276
558	0.275
558	0.275
559	0.274
559	0.274
560	0.273
560	0.273
560	0.273
561	0.272
561	0.272
562	0.271
562	0.27
563	0.269
563	0.269
564	0.268
564	0.268
564	0.268
565	0.268
565	0.267
566	0.267
566	0.267
567	0.266
567	0.266
568	0.265
568	0.264
568	0.264
569	0.263
569	0.262
570	0.261
570	0.26
571	0.259
571	0.259
572	0.258
572	0.258
573	0.257
573	0.256
573	0.256
574	0.256
574	0.255
575	0.255
575	0.256
576	0.255
576	0.255
577	0.254
577	0.254
577	0.254
578	0.255
578	0.255
579	0.255
579	0.255
580	0.254
580	0.253
581	0.252
581	0.252
581	0.252
582	0.252
582	0.252
583	0.252
583	0.252
584	0.25
584	0.25
585	0.25
585	0.251
585	0.251
586	0.251
586	0.251
587	0.251
587	0.251
588	0.25
588	0.25
589	0.25
589	0.25
590	0.25
590	0.25
590	0.251
591	0.251
591	0.25
592	0.25
592	0.25
593	0.25
593	0.25
594	0.25
594	0.249
594	0.249
595	0.25
595	0.249
596	0.249
596	0.251
597	0.251
597	0.251
598	0.251
598	0.251
598	0.251
599	0.25
599	0.249
600	0.249
600	0.248
601	0.248
601	0.248
602	0.247
602	0.247
602	0.247
603	0.248
603	0.249
604	0.249
604	0.25
605	0.251
605	0.251
606	0.251
606	0.25
606	0.25
607	0.25
607	0.25
608	0.249
608	0.248
609	0.248
609	0.248
610	0.248
610	0.247
610	0.248
611	0.248
611	0.249
612	0.249
612	0.25
613	0.25
613	0.251
614	0.25
614	0.249
614	0.249
615	0.248
615	0.247
616	0.247
616	0.246
617	0.246
617	0.245
618	0.244
618	0.244
618	0.244
619	0.245
619	0.245
620	0.246
620	0.246
621	0.245
621	0.246
622	0.245
622	0.245
622	0.245
623	0.245
623	0.245
624	0.244
624	0.244
625	0.244
625	0.243
626	0.243
626	0.243
626	0.242
627	0.242
627	0.241
628	0.241
628	0.24
629	0.239
629	0.238
630	0.236
630	0.235
630	0.234
631	0.232
631	0.231
632	0.229
632	0.227
633	0.225
633	0.223
634	0.222
634	0.22
634	0.218
635	0.216
635	0.213
636	0.211
636	0.208
637	0.205
637	0.202
638	0.199
638	0.195
638	0.192
639	0.187
639	0.183
640	0.179
640	0.175
641	0.171
641	0.167
642	0.162
642	0.158
642	0.154
643	0.15
643	0.145
644	0.14
644	0.135
645	0.13
645	0.124
646	0.119
646	0.113
646	0.107
647	0.101
647	0.095
648	0.089
648	0.082
649	0.075
649	0.068
650	0.061
650	0.054
650	0.046
651	0.036
651	0.024
652	0.01
652	-0.004
653	-0.017
653	-0.029
653	-0.027
654	-0.009
654	-0.001
655	-0.005
655	-0.011
656	-0.016
656	-0.023
657	-0.028
657	-0.033
657	-0.04
658	-0.046
658	-0.073
659	-0.153
659	-0.248
660	-0.292
660	-0.318
661	-0.345
661	-0.375
661	-0.407
662	-0.438
662	-0.471
663	-0.509
663	-0.552
664	-0.595
664	-0.646
665	-0.696
665	-0.755
665	-0.81
666	-0.866
666	-0.928
667	-0.992
667	-1.058
668	-1.13
668	-1.202
669	-1.275
669	-1.348
669	-1.424
670	-1.488
670	-1.506
671	-1.6
671	-1.926
672	-2.171
672	-2.369
672	-2.504
673	-2.6
673	-2.682
674	-2.734
674	-2.755
675	-2.781
675	-2.923
676	-3.127
676	-3.08
676	-2.859
677	-2.658
677	-2.501
678	-2.336
678	-2.069
679	-1.749
679	-1.598
680	-1.498
680	-1.411
680	-1.337
681	-1.29
681	-1.229
682	-1.189
682	-1.149
683	-1.113
683	-1.095
684	-1.074
684	-1.054
684	-1.033
685	-1.007
685	-0.985
686	-0.958
686	-0.943
687	-0.916
687	-0.905
687	-0.884
688	-0.857
688	-0.836
689	-0.814
689	-0.799
690	-0.781
690	-0.768
691	-0.762
691	-0.766
691	-0.782
692	-0.773
692	-0.764
693	-0.758
693	-0.764
694	-0.759
694	-0.752
695	-0.755
695	-0.751
695	-0.735
696	-0.732
696	-0.708
697	-0.709
697	-0.723
698	-0.727
698	-0.716
698	-0.731
699	-0.733
699	-0.73
700	-0.723
700	-0.736
701	-0.733
701	-0.741
702	-0.742
702	-0.729
702	-0.722
703	-0.717
703	-0.706
704	-0.704
704	-0.704
705	-0.715
705	-0.71
705	-0.696
706	-0.696
706	-0.689
707	-0.695
707	-0.688
708	-0.686
708	-0.678
709	-0.681
709	-0.683
709	-0.674
710	-0.681
710	-0.693
711	-0.684
711	-0.686
712	-0.685
712	-0.699
713	-0.698
713	-0.704
713	-0.693
714	-0.69
714	-0.689
715	-0.678
715	-0.665
716	-0.671
716	-0.675
716	-0.667
717	-0.667
717	-0.67
718	-0.663
718	-0.664
719	-0.67
719	-0.672
720	-0.67
720	-0.679
720	-0.673
721	-0.66
721	-0.66
722	-0.647
722	-0.635
723	-0.632
723	-0.637
723	-0.625
724	-0.629
724	-0.632
725	-0.629
725	-0.639
726	-0.65
726	-0.656
727	-0.662
727	-0.679
727	-0.686
728	-0.686
728	-0.693
729	-0.689
729	-0.695
730	-0.702
730	-0.697
730	-0.688
731	-0.672
731	-0.684
732	-0.688
732	-0.689
733	-0.687
733	-0.692
734	-0.686
734	-0.686
734	-0.671
735	-0.669
735	-0.669
736	-0.677
736	-0.662
737	-0.652
737	-0.653
737	-0.664
738	-0.657
738	-0.659
739	-0.656
739	-0.671
740	-0.669
740	-0.669
741	-0.667
741	-0.666
741	-0.669
742	-0.667
742	-0.667
743	-0.676
743	-0.681
744	-0.681
744	-0.668
744	-0.67
745	-0.676
745	-0.668
746	-0.669
746	-0.666
747	-0.667
747	-0.653
748	-0.64
748	-0.645
748	-0.645
749	-0.646
749	-0.644
750	-0.633
750	-0.635
751	-0.639
751	-0.65
751	-0.652
752	-0.658
752	-0.669
753	-0.664
753	-0.66
754	-0.664
754	-0.659
754	-0.673
755	-0.689
755	-0.698
756	-0.686
756	-0.684
757	-0.68
757	-0.675
758	-0.675
758	-0.672
758	-0.675
759	-0.681
759	-0.663
760	-0.657
760	-0.655
761	-0.666
761	-0.663
761	-0.664
762	-0.673
762	-0.673
763	-0.681
763	-0.678
764	-0.679
764	-0.687
764	-0.691
765	-0.681
765	-0.665
766	-0.672
766	-0.678
767	-0.691
767	-0.686
768	-0.681
768	-0.691
768	-0.695
769	-0.713
769	-0.715
770	-0.72
770	-0.733
771	-0.731
771	-0.734
771	-0.737
772	-0.738
772	-0.736
773	-0.734
773	-0.728
774	-0.726
774	-0.727
775	-0.728
775	-0.724
775	-0.729
776	-0.728
776	-0.717
777	-0.725
777	-0.745
778	-0.74
778	-0.761
778	-0.749
779	-0.768
779	-0.776
780	-0.789
780	-0.789
781	-0.8
781	-0.797
781	-0.813
782	-0.815
782	-0.818
783	-0.807
783	-0.804
784	-0.787
784	-0.778
784	-0.786
785	-0.791
785	-0.778
786	-0.781
786	-0.76
787	-0.743
787	-0.745
788	-0.746
788	-0.755
788	-0.764
789	-0.765
789	-0.748
790	-0.728
790	-0.731
791	-0.731
791	-0.748
791	-0.755
792	-0.749
792	-0.725
793	-0.717
793	-0.697
794	-0.699
794	-0.689
794	-0.699
795	-0.692
795	-0.684
796	-0.668
796	-0.675
797	-0.669
797	-0.681
797	-0.686
798	-0.697
798	-0.691
799	-0.702
799	-0.688
800	-0.694
800	-0.689
801	-0.696
801	-0.682
801	-0.692
802	-0.701
802	-0.701
803	-0.704
803	-0.713
804	-0.709
804	-0.719
804	-0.708
805	-0.715
805	-0.703
806	-0.705
806	-0.69
807	-0.687
807	-0.67
807	-0.656
808	-0.647
808	-0.642
809	-0.628
809	-0.636
810	-0.632
810	-0.625
810	-0.623
811	-0.631
811	-0.622
812	-0.624
812	-0.628
813	-0.631
813	-0.627
813	-0.633
814	-0.637
814	-0.64
815	-0.643
815	-0.646
816	-0.638
816	-0.643
817	-0.651
817	-0.668
817	-0.684
818	-0.692
818	-0.693
819	-0.682
819	-0.682
820	-0.696
820	-0.691
820	-0.702
821	-0.701
821	-0.688
822	-0.658
822	-0.633
823	-0.628
823	-0.632
823	-0.629
824	-0.625
824	-0.623
825	-0.618
825	-0.597
826	-0.591
826	-0.597
826	-0.605
827	-0.602
827	-0.6
828	-0.58
828	-0.581
829	-0.57
829	-0.559
829	-0.551
830	-0.56
830	-0.558
831	-0.551
831	-0.541
832	-0.54
832	-0.531
832	-0.539
833	-0.533
833	-0.534
834	-0.529
834	-0.537
835	-0.525
835	-0.519
835	-0.516
836	-0.512
836	-0.508
837	-0.506
837	-0.494
838	-0.487
838	-0.476
839	-0.465
839	-0.452
839	-0.441
840	-0.43
840	-0.428
841	-0.416
841	-0.407
842	-0.4
842	-0.393
842	-0.386
843	-0.379
843	-0.372
844	-0.363
844	-0.355
845	-0.346
845	-0.335
845	-0.323
846	-0.313
846	-0.299
847	-0.287
847	-0.275
848	-0.262
848	-0.252
848	-0.238
849	-0.229
849	-0.218
850	-0.204
850	-0.198
851	-0.189
851	-0.175
851	-0.168
852	-0.153
852	-0.142
853	-0.133
853	-0.127
854	-0.115
854	-0.104
854	-0.093
855	-0.082
855	-0.076
856	-0.068
856	-0.059
857	-0.053
857	-0.045
857	-0.033
858	-0.022
858	-0.015
859	-0.007
859	0.002
860	0.011
860	0.024
860	0.033
861	0.041
861	0.05
862	0.058
862	0.064
863	0.07
863	0.079
863	0.085
864	0.09
864	0.095
865	0.101
865	0.106
866	0.11
866	0.114
866	0.117
867	0.121
867	0.125
868	0.127
868	0.131
869	0.134
869	0.137
869	0.139
870	0.141
870	0.143
871	0.145
871	0.147
872	0.147
872	0.148
872	0.149
873	0.15
873	0.15
874	0.15
874	0.149
875	0.148
875	0.147
875	0.146
876	0.145
876	0.144
877	0.142
877	0.141
878	0.139
878	0.137
878	0.135
879	0.133
879	0.132
880	0.131
880	0.131
881	0.131
881	0.131
881	0.131
882	0.131
882	0.13
883	0.129
883	0.128
884	0.128
884	0.127
884	0.126
885	0.125
885	0.125
886	0.124
886	0.123
887	0.122
887	0.122
887	0.122
888	0.122
888	0.122
889	0.122
889	0.122
890	0.122
890	0.122
890	0.122
891	0.122
891	0.122
892	0.122
892	0.122
893	0.122
893	0.122
893	0.122
894	0.122
894	0.122
895	0.121
895	0.121
895	0.121
896	0.12
896	0.119
897	0.118
897	0.117
898	0.116
898	0.115
898	0.115
899	0.115
899	0.115
900	0.116
900	0.116
901	0.117
901	0.118
901	0.118
902	0.119
902	0.12
903	0.12
903	0.121
904	0.121
904	0.122
904	0.122
905	0.123
905	0.124
906	0.124
906	0.124
907	0.124
907	0.123
907	0.123
908	0.122
908	0.122
909	0.121
909	0.12
910	0.12
910	0.119
910	0.119
911	0.119
911	0.12
912	0.12
912	0.12
913	0.121
913	0.121
913	0.122
914	0.123
914	0.123
915	0.124
915	0.124
916	0.124
916	0.124
916	0.124
917	0.124
917	0.124
918	0.124
918	0.124
918	0.124
919	0.123
919	0.123
920	0.123
920	0.123
921	0.124
921	0.124
921	0.124
922	0.124
922	0.124
923	0.124
923	0.123
924	0.123
924	0.122
924	0.122
925	0.121
925	0.12
926	0.118
926	0.117
927	0.116
927	0.116
927	0.115
928	0.115
928	0.114
929	0.114
929	0.114
930	0.113
930	0.113
930	0.112
931	0.112
931	0.112
932	0.111
932	0.11
933	0.109
933	0.108
933	0.106
934	0.105
934	0.104
935	0.103
935	0.102
935	0.101
936	0.1
936	0.099
937	0.098
937	0.098
938	0.098
938	0.098
938	0.099
939	0.099
939	0.099
940	0.1
940	0.1
941	0.101
941	0.102
941	0.103
942	0.104
942	0.104
943	0.104
943	0.104
944	0.104
944	0.104
944	0.103
945	0.102
945	0.101
946	0.1
946	0.099
946	0.098
947	0.097
947	0.097
948	0.097
948	0.098
949	0.098
949	0.099
949	0.1
950	0.1
950	0.1
951	0.102
951	0.102
952	0.103
952	0.104
952	0.104
953	0.105
953	0.106
954	0.106
954	0.106
955	0.107
955	0.108
955	0.109
956	0.11
956	0.111
957	0.111
957	0.111
957	0.111
958	0.111
958	0.112
959	0.112
959	0.112
960	0.112
960	0.111
960	0.111
961	0.111
961	0.111
962	0.11
962	0.11
963	0.11
963	0.11
963	0.11
964	0.11
964	0.11
965	0.11
965	0.11
966	0.109
966	0.109
966	0.109
967	0.109
967	0.108
968	0.107
968	0.107
968	0.106
969	0.106
969	0.105
970	0.105
970	0.105
971	0.105
971	0.105
971	0.105
972	0.105
972	0.105
973	0.105
973	0.105
974	0.105
974	0.104
974	0.104
975	0.104
975	0.103
976	0.102
976	0.101
976	0.101
977	0.101
977	0.101
978	0.101
978	0.1
979	0.1
979	0.1
979	0.099
980	0.099
980	0.099
981	0.099
981	0.098
982	0.098
982	0.098
982	0.097
983	0.097
983	0.097
984	0.097
984	0.097
984	0.097
985	0.098
985	0.098
986	0.098
986	0.097
987	0.097
987	0.097
987	0.097
988	0.097
988	0.096
989	0.095
989	0.094
990	0.093
990	0.093
990	0.092
991	0.092
991	0.092
992	0.091
992	0.091
992	0.091
993	0.091
993	0.091
994	0.091
994	0.091
995	0.091
995	0.09
995	0.09
996	0.089
996	0.089
997	0.089
997	0.088
997	0.088
998	0.088
998	0.089
999	0.089
999	0.089
1000	0.089
1000	0.089
1000	0.09
1001	0.09
1001	0.09
1002	0.091
1002	0.091
1003	0.091
1003	0.09
1003	0.09
1004	0.09
1004	0.089
1005	0.088
1005	0.088
1005	0.087
1006	0.086
1006	0.085
1007	0.084
1007	0.083
1008	0.082
1008	0.082
1008	0.081
1009	0.081
1009	0.081
1010	0.081
1010	0.081
1010	0.081
1011	0.081
1011	0.08
1012	0.08
1012	0.079
1013	0.078
1013	0.077
1013	0.076
1014	0.075
1014	0.074
1015	0.073
1015	0.073
1016	0.072
1016	0.071
1016	0.071
1017	0.07
1017	0.069
1018	0.068
1018	0.068
1018	0.067
1019	0.067
1019	0.066
1020	0.065
1020	0.064
1021	0.063
1021	0.062
1021	0.061
1022	0.06
1022	0.06
1023	0.059
1023	0.059
1023	0.058
1024	0.058
1024	0.058
1025	0.058
1025	0.058
1026	0.059
1026	0.059
1026	0.059
1027	0.06
1027	0.06
1028	0.06
1028	0.061
1028	0.06
1029	0.06
1029	0.06
1030	0.06
1030	0.059
1031	0.059
1031	0.059
1031	0.058
1032	0.058
1032	0.058
1033	0.058
1033	0.059
1033	0.059
1034	0.059
1034	0.059
1035	0.059
1035	0.059
1036	0.059
1036	0.059
1036	0.059
1037	0.059
1037	0.059
1038	0.059
1038	0.059
1039	0.059
1039	0.06
1039	0.06
1040	0.06
1040	0.061
1041	0.061
1041	0.061
1041	0.062
1042	0.062
1042	0.061
1043	0.061
1043	0.061
1044	0.06
1044	0.059
1044	0.059
1045	0.058
1045	0.057
1046	0.056
1046	0.056
1046	0.056
1047	0.056
1047	0.056
1048	0.057
1048	0.057
1049	0.057
1049	0.057
1049	0.058
1050	0.058
1050	0.059
1051	0.059
1051	0.059
1051	0.059
1052	0.059
1052	0.059
1053	0.059
1053	0.059
1053	0.059
1054	0.059
1054	0.059
1055	0.058
1055	0.058
1056	0.057
1056	0.057
1056	0.055
1057	0.054
1057	0.054
1058	0.053
1058	0.053
1058	0.052
1059	0.052
1059	0.051
1060	0.05
1060	0.05
1061	0.05
1061	0.05
1061	0.05
1062	0.05
1062	0.05
1063	0.05
1063	0.05
1063	0.05
1064	0.051
1064	0.05
1065	0.05
1065	0.05
1066	0.049
1066	0.049
1066	0.049
1067	0.048
1067	0.048
1068	0.047
1068	0.047
1068	0.046
1069	0.046
1069	0.045
1070	0.044
1070	0.045
1071	0.044
1071	0.044
1071	0.043
1072	0.043
1072	0.043
1073	0.042
1073	0.043
1073	0.042
1074	0.042
1074	0.043
1075	0.042
1075	0.041
1076	0.041
1076	0.041
1076	0.04
1077	0.04
1077	0.04
1078	0.039
1078	0.038
1078	0.037
1079	0.036
1079	0.036
1080	0.036
1080	0.035
1080	0.034
1081	0.033
1081	0.033
1082	0.032
1082	0.031
1083	0.03
1083	0.029
1083	0.028
1084	0.027
1084	0.026
1085	0.025
1085	0.025
1085	0.024
1086	0.024
1086	0.023
1087	0.023
1087	0.024
1088	0.023
1088	0.023
1088	0.023
1089	0.022
1089	0.022
1090	0.021
1090	0.02
1090	0.02
1091	0.019
1091	0.018
1092	0.016
1092	0.016
1092	0.015
1093	0.015
1093	0.015
1094	0.015
1094	0.014
1095	0.013
1095	0.012
1095	0.012
1096	0.011
1096	0.011
1097	0.011
1097	0.009
1097	0.008
1098	0.007
1098	0.006
1099	0.005
1099	0.004
1100	0.003
1100	0.001
1100	-0
1101	-0.003
1101	-0.006
1102	-0.007
1102	-0.01
1102	-0.011
1103	-0.014
1103	-0.016
1104	-0.019
1104	-0.021
1104	-0.023
1105	-0.026
1105	-0.029
1106	-0.033
1106	-0.035
1107	-0.04
1107	-0.044
1107	-0.05
1108	-0.052
1108	-0.054
1109	-0.059
1109	-0.062
1109	-0.066
1110	-0.066
1110	-0.068
1111	-0.075
1111	-0.077
