Data from 17C_3.4A_30min_2sec_int_Absorbance__708__01429.txt Node

Date: Mon Jun 19 17:17:22 CEST 2023
User: Marek
Spectrometer: MAYP115816
Trigger mode: 0
Integration Time (sec): 2.500000E-1
Scans to average: 10
Electric dark correction enabled: true
Nonlinearity correction enabled: true
Boxcar width: 5
XAxis mode: Wavelengths
Number of Pixels in Spectrum: 2068
>>>>>Begin Spectral Data<<<<<
199	-0.691
199	-0.707
200	-0.608
200	-0.555
201	-0.518
201	-0.503
202	-0.486
202	-0.472
203	-0.465
203	-0.463
204	-0.448
204	-0.436
205	-0.413
205	-0.411
205	-0.409
206	-0.412
206	-0.419
207	-0.41
207	-0.411
208	-0.413
208	-0.409
209	-0.405
209	-0.406
210	-0.409
210	-0.412
211	-0.413
211	-0.414
212	-0.414
212	-0.421
213	-0.421
213	-0.422
213	-0.428
214	-0.425
214	-0.422
215	-0.421
215	-0.429
216	-0.432
216	-0.44
217	-0.436
217	-0.44
218	-0.444
218	-0.444
219	-0.448
219	-0.46
220	-0.465
220	-0.475
221	-0.474
221	-0.477
221	-0.47
222	-0.467
222	-0.467
223	-0.471
223	-0.473
224	-0.476
224	-0.476
225	-0.47
225	-0.465
226	-0.469
226	-0.469
227	-0.476
227	-0.484
228	-0.483
228	-0.485
229	-0.487
229	-0.479
229	-0.472
230	-0.478
230	-0.48
231	-0.472
231	-0.465
232	-0.459
232	-0.459
233	-0.454
233	-0.45
234	-0.448
234	-0.446
235	-0.45
235	-0.455
236	-0.453
236	-0.456
236	-0.464
237	-0.469
237	-0.465
238	-0.476
238	-0.475
239	-0.476
239	-0.485
240	-0.484
240	-0.48
241	-0.487
241	-0.487
242	-0.491
242	-0.489
243	-0.49
243	-0.488
243	-0.498
244	-0.498
244	-0.496
245	-0.511
245	-0.511
246	-0.514
246	-0.52
247	-0.521
247	-0.524
248	-0.528
248	-0.525
249	-0.529
249	-0.536
250	-0.534
250	-0.53
250	-0.529
251	-0.526
251	-0.525
252	-0.527
252	-0.516
253	-0.521
253	-0.534
254	-0.53
254	-0.528
255	-0.534
255	-0.528
256	-0.527
256	-0.537
257	-0.536
257	-0.535
258	-0.553
258	-0.55
258	-0.545
259	-0.541
259	-0.55
260	-0.554
260	-0.56
261	-0.57
261	-0.563
262	-0.56
262	-0.56
263	-0.548
263	-0.541
264	-0.543
264	-0.553
265	-0.547
265	-0.553
265	-0.556
266	-0.554
266	-0.552
267	-0.565
267	-0.573
268	-0.588
268	-0.598
269	-0.595
269	-0.589
270	-0.594
270	-0.597
271	-0.598
271	-0.604
272	-0.607
272	-0.601
272	-0.592
273	-0.591
273	-0.599
274	-0.602
274	-0.605
275	-0.606
275	-0.598
276	-0.604
276	-0.596
277	-0.601
277	-0.62
278	-0.632
278	-0.628
278	-0.622
279	-0.627
279	-0.639
280	-0.637
280	-0.638
281	-0.633
281	-0.64
282	-0.634
282	-0.635
283	-0.625
283	-0.626
284	-0.621
284	-0.61
285	-0.603
285	-0.599
285	-0.596
286	-0.602
286	-0.596
287	-0.591
287	-0.574
288	-0.567
288	-0.578
289	-0.588
289	-0.595
290	-0.59
290	-0.59
291	-0.585
291	-0.58
292	-0.583
292	-0.589
292	-0.595
293	-0.599
293	-0.586
294	-0.575
294	-0.569
295	-0.562
295	-0.56
296	-0.56
296	-0.556
297	-0.55
297	-0.535
298	-0.526
298	-0.534
298	-0.523
299	-0.517
299	-0.52
300	-0.515
300	-0.51
301	-0.508
301	-0.507
302	-0.516
302	-0.524
303	-0.511
303	-0.498
304	-0.502
304	-0.5
305	-0.502
305	-0.501
305	-0.502
306	-0.486
306	-0.482
307	-0.468
307	-0.47
308	-0.486
308	-0.483
309	-0.486
309	-0.477
310	-0.463
310	-0.46
311	-0.448
311	-0.456
311	-0.449
312	-0.446
312	-0.446
313	-0.429
313	-0.431
314	-0.426
314	-0.431
315	-0.433
315	-0.434
316	-0.431
316	-0.424
317	-0.42
317	-0.414
318	-0.404
318	-0.403
318	-0.399
319	-0.391
319	-0.386
320	-0.381
320	-0.381
321	-0.384
321	-0.384
322	-0.377
322	-0.372
323	-0.37
323	-0.365
324	-0.357
324	-0.349
324	-0.34
325	-0.328
325	-0.309
326	-0.297
326	-0.28
327	-0.266
327	-0.247
328	-0.225
328	-0.208
329	-0.185
329	-0.163
330	-0.139
330	-0.112
330	-0.088
331	-0.061
331	-0.036
332	-0.014
332	0.006
333	0.027
333	0.05
334	0.068
334	0.082
335	0.098
335	0.111
336	0.122
336	0.132
336	0.141
337	0.151
337	0.159
338	0.165
338	0.169
339	0.175
339	0.18
340	0.184
340	0.188
341	0.192
341	0.195
342	0.198
342	0.2
342	0.202
343	0.204
343	0.207
344	0.208
344	0.209
345	0.21
345	0.21
346	0.211
346	0.212
347	0.212
347	0.213
348	0.213
348	0.213
348	0.214
349	0.214
349	0.214
350	0.214
350	0.214
351	0.214
351	0.214
352	0.214
352	0.214
353	0.215
353	0.214
354	0.214
354	0.214
354	0.214
355	0.214
355	0.214
356	0.213
356	0.213
357	0.213
357	0.213
358	0.212
358	0.212
359	0.212
359	0.212
360	0.212
360	0.211
360	0.211
361	0.211
361	0.211
362	0.211
362	0.211
363	0.211
363	0.211
364	0.211
364	0.211
365	0.211
365	0.211
366	0.211
366	0.211
366	0.211
367	0.211
367	0.211
368	0.211
368	0.21
369	0.21
369	0.21
370	0.21
370	0.21
371	0.21
371	0.21
372	0.21
372	0.21
372	0.21
373	0.21
373	0.21
374	0.21
374	0.21
375	0.209
375	0.209
376	0.209
376	0.209
377	0.209
377	0.209
378	0.209
378	0.209
378	0.209
379	0.209
379	0.209
380	0.209
380	0.209
381	0.209
381	0.209
382	0.208
382	0.208
383	0.208
383	0.208
383	0.208
384	0.208
384	0.208
385	0.208
385	0.208
386	0.208
386	0.207
387	0.207
387	0.207
388	0.207
388	0.207
389	0.207
389	0.207
389	0.207
390	0.207
390	0.207
391	0.207
391	0.207
392	0.207
392	0.207
393	0.207
393	0.207
394	0.207
394	0.206
394	0.206
395	0.206
395	0.205
396	0.205
396	0.205
397	0.205
397	0.205
398	0.205
398	0.205
399	0.205
399	0.205
400	0.205
400	0.205
400	0.205
401	0.205
401	0.204
402	0.204
402	0.204
403	0.204
403	0.204
404	0.204
404	0.204
405	0.204
405	0.204
405	0.204
406	0.204
406	0.204
407	0.203
407	0.203
408	0.203
408	0.203
409	0.203
409	0.203
410	0.203
410	0.203
411	0.203
411	0.203
411	0.203
412	0.204
412	0.203
413	0.203
413	0.203
414	0.203
414	0.203
415	0.203
415	0.203
416	0.203
416	0.203
416	0.202
417	0.202
417	0.202
418	0.202
418	0.202
419	0.202
419	0.202
420	0.202
420	0.202
421	0.202
421	0.203
421	0.203
422	0.203
422	0.203
423	0.203
423	0.203
424	0.202
424	0.202
425	0.202
425	0.201
426	0.201
426	0.201
427	0.201
427	0.2
427	0.2
428	0.2
428	0.2
429	0.2
429	0.2
430	0.2
430	0.2
431	0.2
431	0.2
432	0.2
432	0.2
432	0.199
433	0.199
433	0.199
434	0.199
434	0.199
435	0.199
435	0.199
436	0.199
436	0.199
437	0.199
437	0.198
437	0.198
438	0.198
438	0.198
439	0.198
439	0.198
440	0.198
440	0.198
441	0.198
441	0.198
442	0.198
442	0.198
442	0.198
443	0.198
443	0.198
444	0.198
444	0.198
445	0.198
445	0.198
446	0.198
446	0.198
447	0.199
447	0.199
447	0.199
448	0.199
448	0.199
449	0.199
449	0.2
450	0.2
450	0.199
451	0.199
451	0.199
452	0.199
452	0.199
452	0.199
453	0.199
453	0.198
454	0.198
454	0.198
455	0.198
455	0.198
456	0.198
456	0.198
457	0.198
457	0.198
458	0.198
458	0.198
458	0.198
459	0.198
459	0.198
460	0.198
460	0.198
461	0.198
461	0.198
462	0.197
462	0.198
463	0.198
463	0.198
463	0.198
464	0.198
464	0.198
465	0.198
465	0.198
466	0.198
466	0.199
467	0.199
467	0.199
467	0.199
468	0.199
468	0.199
469	0.199
469	0.2
470	0.2
470	0.2
471	0.2
471	0.201
472	0.201
472	0.201
472	0.201
473	0.201
473	0.202
474	0.202
474	0.202
475	0.202
475	0.202
476	0.202
476	0.202
477	0.202
477	0.203
477	0.203
478	0.203
478	0.203
479	0.203
479	0.204
480	0.204
480	0.204
481	0.204
481	0.205
482	0.205
482	0.206
482	0.206
483	0.207
483	0.207
484	0.208
484	0.207
485	0.208
485	0.208
486	0.209
486	0.209
487	0.21
487	0.21
487	0.211
488	0.211
488	0.212
489	0.213
489	0.214
490	0.215
490	0.216
491	0.217
491	0.217
492	0.218
492	0.219
492	0.22
493	0.22
493	0.221
494	0.222
494	0.223
495	0.223
495	0.224
496	0.225
496	0.226
496	0.227
497	0.228
497	0.229
498	0.23
498	0.231
499	0.232
499	0.233
500	0.234
500	0.235
501	0.236
501	0.237
501	0.238
502	0.238
502	0.239
503	0.24
503	0.241
504	0.242
504	0.243
505	0.245
505	0.246
506	0.247
506	0.248
506	0.249
507	0.25
507	0.251
508	0.252
508	0.253
509	0.255
509	0.256
510	0.257
510	0.258
511	0.259
511	0.261
511	0.262
512	0.263
512	0.264
513	0.265
513	0.266
514	0.266
514	0.268
515	0.269
515	0.269
515	0.27
516	0.272
516	0.273
517	0.274
517	0.275
518	0.276
518	0.277
519	0.278
519	0.279
520	0.28
520	0.281
520	0.283
521	0.284
521	0.285
522	0.286
522	0.287
523	0.288
523	0.288
524	0.289
524	0.289
524	0.29
525	0.29
525	0.29
526	0.291
526	0.291
527	0.292
527	0.292
528	0.292
528	0.293
529	0.294
529	0.295
529	0.296
530	0.296
530	0.297
531	0.297
531	0.297
532	0.298
532	0.298
533	0.298
533	0.299
533	0.299
534	0.298
534	0.298
535	0.298
535	0.298
536	0.297
536	0.297
537	0.297
537	0.297
538	0.297
538	0.296
538	0.296
539	0.296
539	0.296
540	0.296
540	0.296
541	0.295
541	0.295
542	0.295
542	0.294
542	0.294
543	0.293
543	0.293
544	0.292
544	0.292
545	0.292
545	0.292
546	0.292
546	0.291
547	0.29
547	0.29
547	0.289
548	0.289
548	0.289
549	0.288
549	0.288
550	0.287
550	0.287
551	0.286
551	0.286
551	0.287
552	0.287
552	0.287
553	0.287
553	0.287
554	0.286
554	0.286
555	0.285
555	0.285
556	0.284
556	0.284
556	0.283
557	0.282
557	0.281
558	0.281
558	0.28
559	0.279
559	0.279
560	0.278
560	0.278
560	0.277
561	0.277
561	0.276
562	0.275
562	0.274
563	0.274
563	0.273
564	0.273
564	0.272
564	0.272
565	0.272
565	0.272
566	0.272
566	0.271
567	0.271
567	0.27
568	0.27
568	0.269
568	0.268
569	0.268
569	0.267
570	0.265
570	0.264
571	0.264
571	0.263
572	0.262
572	0.262
573	0.262
573	0.261
573	0.26
574	0.26
574	0.26
575	0.26
575	0.26
576	0.26
576	0.259
577	0.259
577	0.259
577	0.259
578	0.259
578	0.259
579	0.259
579	0.259
580	0.259
580	0.257
581	0.257
581	0.256
581	0.257
582	0.257
582	0.256
583	0.256
583	0.256
584	0.255
584	0.254
585	0.254
585	0.255
585	0.255
586	0.255
586	0.255
587	0.255
587	0.255
588	0.254
588	0.254
589	0.254
589	0.255
590	0.254
590	0.255
590	0.255
591	0.255
591	0.255
592	0.254
592	0.254
593	0.254
593	0.254
594	0.254
594	0.253
594	0.253
595	0.253
595	0.253
596	0.253
596	0.254
597	0.255
597	0.255
598	0.255
598	0.255
598	0.255
599	0.254
599	0.253
600	0.253
600	0.252
601	0.252
601	0.251
602	0.251
602	0.251
602	0.251
603	0.251
603	0.252
604	0.253
604	0.254
605	0.254
605	0.255
606	0.255
606	0.254
606	0.254
607	0.254
607	0.254
608	0.253
608	0.252
609	0.252
609	0.252
610	0.252
610	0.251
610	0.252
611	0.252
611	0.252
612	0.253
612	0.254
613	0.254
613	0.254
614	0.253
614	0.252
614	0.252
615	0.251
615	0.251
616	0.25
616	0.25
617	0.249
617	0.248
618	0.248
618	0.247
618	0.248
619	0.248
619	0.248
620	0.249
620	0.249
621	0.248
621	0.248
622	0.248
622	0.248
622	0.247
623	0.247
623	0.248
624	0.247
624	0.247
625	0.247
625	0.247
626	0.246
626	0.246
626	0.246
627	0.245
627	0.245
628	0.244
628	0.243
629	0.242
629	0.241
630	0.239
630	0.238
630	0.237
631	0.235
631	0.233
632	0.231
632	0.23
633	0.228
633	0.226
634	0.224
634	0.222
634	0.22
635	0.218
635	0.215
636	0.213
636	0.21
637	0.207
637	0.204
638	0.201
638	0.197
638	0.193
639	0.189
639	0.185
640	0.181
640	0.176
641	0.172
641	0.168
642	0.164
642	0.16
642	0.155
643	0.151
643	0.146
644	0.141
644	0.135
645	0.13
645	0.125
646	0.12
646	0.114
646	0.108
647	0.102
647	0.096
648	0.09
648	0.083
649	0.076
649	0.07
650	0.062
650	0.055
650	0.047
651	0.037
651	0.025
652	0.01
652	-0.004
653	-0.016
653	-0.028
653	-0.026
654	-0.009
654	0
655	-0.004
655	-0.009
656	-0.016
656	-0.022
657	-0.026
657	-0.03
657	-0.037
658	-0.044
658	-0.071
659	-0.151
659	-0.246
660	-0.288
660	-0.314
661	-0.342
661	-0.37
661	-0.403
662	-0.436
662	-0.469
663	-0.507
663	-0.55
664	-0.593
664	-0.645
665	-0.696
665	-0.754
665	-0.81
666	-0.867
666	-0.928
667	-0.993
667	-1.058
668	-1.131
668	-1.203
669	-1.277
669	-1.35
669	-1.426
670	-1.49
670	-1.519
671	-1.634
671	-1.942
672	-2.181
672	-2.377
672	-2.51
673	-2.605
673	-2.686
674	-2.737
674	-2.758
675	-2.784
675	-2.925
676	-3.126
676	-3.079
676	-2.857
677	-2.656
677	-2.499
678	-2.332
678	-2.062
679	-1.747
679	-1.597
680	-1.497
680	-1.411
680	-1.337
681	-1.29
681	-1.23
682	-1.189
682	-1.151
683	-1.114
683	-1.096
684	-1.074
684	-1.055
684	-1.033
685	-1.005
685	-0.982
686	-0.956
686	-0.94
687	-0.914
687	-0.901
687	-0.88
688	-0.854
688	-0.832
689	-0.811
689	-0.798
690	-0.779
690	-0.768
691	-0.761
691	-0.766
691	-0.781
692	-0.771
692	-0.761
693	-0.757
693	-0.764
694	-0.757
694	-0.749
695	-0.752
695	-0.747
695	-0.732
696	-0.728
696	-0.707
697	-0.709
697	-0.725
698	-0.727
698	-0.72
698	-0.733
699	-0.736
699	-0.733
700	-0.724
700	-0.738
701	-0.738
701	-0.743
702	-0.744
702	-0.732
702	-0.722
703	-0.713
703	-0.703
704	-0.7
704	-0.699
705	-0.711
705	-0.706
705	-0.693
706	-0.693
706	-0.686
707	-0.69
707	-0.686
708	-0.684
708	-0.678
709	-0.679
709	-0.681
709	-0.673
710	-0.68
710	-0.69
711	-0.682
711	-0.683
712	-0.683
712	-0.695
713	-0.692
713	-0.699
713	-0.69
714	-0.688
714	-0.688
715	-0.677
715	-0.663
716	-0.67
716	-0.672
716	-0.665
717	-0.668
717	-0.674
718	-0.664
718	-0.663
719	-0.668
719	-0.67
720	-0.666
720	-0.676
720	-0.669
721	-0.658
721	-0.656
722	-0.644
722	-0.632
723	-0.631
723	-0.637
723	-0.626
724	-0.628
724	-0.634
725	-0.633
725	-0.641
726	-0.655
726	-0.662
727	-0.667
727	-0.682
727	-0.69
728	-0.69
728	-0.695
729	-0.694
729	-0.697
730	-0.702
730	-0.694
730	-0.683
731	-0.665
731	-0.673
732	-0.677
732	-0.676
733	-0.674
733	-0.679
734	-0.675
734	-0.672
734	-0.66
735	-0.658
735	-0.66
736	-0.67
736	-0.658
737	-0.648
737	-0.649
737	-0.658
738	-0.653
738	-0.652
739	-0.649
739	-0.664
740	-0.662
740	-0.659
741	-0.655
741	-0.657
741	-0.661
742	-0.659
742	-0.656
743	-0.667
743	-0.672
744	-0.671
744	-0.659
744	-0.659
745	-0.668
745	-0.66
746	-0.66
746	-0.656
747	-0.658
747	-0.648
748	-0.633
748	-0.637
748	-0.639
749	-0.638
749	-0.64
750	-0.631
750	-0.633
751	-0.635
751	-0.645
751	-0.648
752	-0.654
752	-0.664
753	-0.66
753	-0.658
754	-0.663
754	-0.658
754	-0.67
755	-0.686
755	-0.698
756	-0.687
756	-0.683
757	-0.681
757	-0.675
758	-0.676
758	-0.672
758	-0.677
759	-0.682
759	-0.667
760	-0.661
760	-0.656
761	-0.668
761	-0.667
761	-0.666
762	-0.674
762	-0.673
763	-0.682
763	-0.677
764	-0.675
764	-0.682
764	-0.685
765	-0.675
765	-0.662
766	-0.667
766	-0.673
767	-0.689
767	-0.683
768	-0.675
768	-0.685
768	-0.691
769	-0.707
769	-0.71
770	-0.714
770	-0.726
771	-0.723
771	-0.725
771	-0.724
772	-0.728
772	-0.729
773	-0.729
773	-0.724
774	-0.723
774	-0.723
775	-0.729
775	-0.722
775	-0.728
776	-0.73
776	-0.721
777	-0.729
777	-0.747
778	-0.741
778	-0.762
778	-0.748
779	-0.77
779	-0.775
780	-0.79
780	-0.791
781	-0.802
781	-0.798
781	-0.812
782	-0.814
782	-0.817
783	-0.804
783	-0.803
784	-0.783
784	-0.774
784	-0.781
785	-0.788
785	-0.774
786	-0.778
786	-0.757
787	-0.742
787	-0.743
788	-0.747
788	-0.758
788	-0.769
789	-0.769
789	-0.752
790	-0.732
790	-0.734
791	-0.733
791	-0.749
791	-0.757
792	-0.75
792	-0.727
793	-0.714
793	-0.692
794	-0.697
794	-0.688
794	-0.699
795	-0.693
795	-0.688
796	-0.672
796	-0.677
797	-0.671
797	-0.682
797	-0.688
798	-0.7
798	-0.693
799	-0.704
799	-0.687
800	-0.693
800	-0.685
801	-0.691
801	-0.678
801	-0.691
802	-0.699
802	-0.699
803	-0.701
803	-0.71
804	-0.705
804	-0.714
804	-0.701
805	-0.705
805	-0.692
806	-0.693
806	-0.678
807	-0.68
807	-0.664
807	-0.651
808	-0.644
808	-0.639
809	-0.627
809	-0.639
810	-0.638
810	-0.633
810	-0.631
811	-0.636
811	-0.624
812	-0.623
812	-0.629
813	-0.631
813	-0.626
813	-0.633
814	-0.636
814	-0.637
815	-0.641
815	-0.644
816	-0.637
816	-0.64
817	-0.646
817	-0.664
817	-0.679
818	-0.687
818	-0.689
819	-0.678
819	-0.681
820	-0.69
820	-0.687
820	-0.697
821	-0.696
821	-0.686
822	-0.652
822	-0.629
823	-0.627
823	-0.628
823	-0.625
824	-0.618
824	-0.623
825	-0.614
825	-0.595
826	-0.592
826	-0.599
826	-0.609
827	-0.604
827	-0.598
828	-0.578
828	-0.579
829	-0.571
829	-0.556
829	-0.549
830	-0.558
830	-0.553
831	-0.547
831	-0.538
832	-0.537
832	-0.531
832	-0.539
833	-0.533
833	-0.534
834	-0.531
834	-0.54
835	-0.528
835	-0.525
835	-0.518
836	-0.517
836	-0.514
837	-0.512
837	-0.499
838	-0.491
838	-0.479
839	-0.466
839	-0.454
839	-0.446
840	-0.435
840	-0.432
841	-0.418
841	-0.406
842	-0.4
842	-0.392
842	-0.387
843	-0.382
843	-0.377
844	-0.366
844	-0.359
845	-0.351
845	-0.342
845	-0.329
846	-0.321
846	-0.305
847	-0.294
847	-0.282
848	-0.269
848	-0.257
848	-0.24
849	-0.229
849	-0.216
850	-0.202
850	-0.196
851	-0.187
851	-0.178
851	-0.168
852	-0.152
852	-0.141
853	-0.132
853	-0.127
854	-0.116
854	-0.105
854	-0.094
855	-0.083
855	-0.075
856	-0.065
856	-0.057
857	-0.051
857	-0.043
857	-0.032
858	-0.022
858	-0.015
859	-0.008
859	0.002
860	0.011
860	0.023
860	0.03
861	0.04
861	0.049
862	0.056
862	0.064
863	0.071
863	0.08
863	0.086
864	0.091
864	0.097
865	0.103
865	0.107
866	0.111
866	0.114
866	0.118
867	0.121
867	0.125
868	0.127
868	0.131
869	0.134
869	0.136
869	0.138
870	0.14
870	0.143
871	0.145
871	0.147
872	0.148
872	0.148
872	0.149
873	0.149
873	0.15
874	0.15
874	0.149
875	0.148
875	0.147
875	0.146
876	0.145
876	0.143
877	0.142
877	0.141
878	0.139
878	0.137
878	0.135
879	0.133
879	0.132
880	0.131
880	0.131
881	0.131
881	0.131
881	0.13
882	0.13
882	0.129
883	0.129
883	0.128
884	0.127
884	0.126
884	0.125
885	0.125
885	0.124
886	0.124
886	0.123
887	0.122
887	0.122
887	0.121
888	0.122
888	0.121
889	0.122
889	0.122
890	0.122
890	0.122
890	0.122
891	0.121
891	0.121
892	0.122
892	0.122
893	0.122
893	0.122
893	0.122
894	0.121
894	0.12
895	0.12
895	0.12
895	0.12
896	0.119
896	0.118
897	0.117
897	0.116
898	0.115
898	0.114
898	0.114
899	0.114
899	0.115
900	0.115
900	0.115
901	0.116
901	0.117
901	0.118
902	0.119
902	0.119
903	0.12
903	0.12
904	0.12
904	0.121
904	0.121
905	0.122
905	0.123
906	0.123
906	0.123
907	0.123
907	0.123
907	0.122
908	0.122
908	0.121
909	0.121
909	0.12
910	0.119
910	0.119
910	0.118
911	0.118
911	0.119
912	0.119
912	0.12
913	0.12
913	0.121
913	0.122
914	0.122
914	0.123
915	0.123
915	0.123
916	0.124
916	0.124
916	0.124
917	0.124
917	0.124
918	0.123
918	0.123
918	0.123
919	0.122
919	0.122
920	0.122
920	0.123
921	0.123
921	0.123
921	0.123
922	0.123
922	0.123
923	0.122
923	0.122
924	0.122
924	0.122
924	0.121
925	0.12
925	0.119
926	0.118
926	0.117
927	0.116
927	0.115
927	0.115
928	0.114
928	0.114
929	0.113
929	0.113
930	0.112
930	0.112
930	0.111
931	0.111
931	0.111
932	0.111
932	0.11
933	0.109
933	0.107
933	0.106
934	0.104
934	0.103
935	0.102
935	0.101
935	0.1
936	0.099
936	0.098
937	0.097
937	0.097
938	0.097
938	0.097
938	0.098
939	0.098
939	0.099
940	0.1
940	0.1
941	0.101
941	0.102
941	0.103
942	0.104
942	0.104
943	0.105
943	0.104
944	0.104
944	0.104
944	0.103
945	0.102
945	0.101
946	0.1
946	0.099
946	0.098
947	0.097
947	0.097
948	0.097
948	0.097
949	0.097
949	0.098
949	0.099
950	0.099
950	0.1
951	0.101
951	0.102
952	0.103
952	0.103
952	0.104
953	0.105
953	0.105
954	0.105
954	0.106
955	0.107
955	0.108
955	0.109
956	0.109
956	0.11
957	0.11
957	0.11
957	0.11
958	0.11
958	0.111
959	0.111
959	0.111
960	0.111
960	0.11
960	0.111
961	0.11
961	0.11
962	0.11
962	0.11
963	0.11
963	0.109
963	0.109
964	0.109
964	0.109
965	0.109
965	0.109
966	0.109
966	0.109
966	0.108
967	0.108
967	0.107
968	0.107
968	0.106
968	0.106
969	0.105
969	0.105
970	0.105
970	0.104
971	0.105
971	0.105
971	0.104
972	0.104
972	0.105
973	0.105
973	0.105
974	0.104
974	0.104
974	0.104
975	0.103
975	0.103
976	0.102
976	0.101
976	0.101
977	0.101
977	0.101
978	0.101
978	0.1
979	0.1
979	0.099
979	0.099
980	0.099
980	0.099
981	0.099
981	0.098
982	0.098
982	0.097
982	0.097
983	0.097
983	0.097
984	0.097
984	0.097
984	0.097
985	0.097
985	0.098
986	0.097
986	0.097
987	0.097
987	0.097
987	0.097
988	0.097
988	0.096
989	0.095
989	0.095
990	0.094
990	0.093
990	0.093
991	0.092
991	0.092
992	0.091
992	0.091
992	0.091
993	0.091
993	0.091
994	0.091
994	0.091
995	0.091
995	0.09
995	0.09
996	0.089
996	0.089
997	0.088
997	0.088
997	0.088
998	0.088
998	0.088
999	0.089
999	0.089
1000	0.089
1000	0.089
1000	0.089
1001	0.09
1001	0.09
1002	0.09
1002	0.091
1003	0.09
1003	0.09
1003	0.09
1004	0.09
1004	0.089
1005	0.089
1005	0.088
1005	0.087
1006	0.085
1006	0.084
1007	0.083
1007	0.082
1008	0.082
1008	0.081
1008	0.081
1009	0.081
1009	0.08
1010	0.08
1010	0.08
1010	0.081
1011	0.08
1011	0.08
1012	0.079
1012	0.078
1013	0.078
1013	0.076
1013	0.075
1014	0.075
1014	0.074
1015	0.073
1015	0.072
1016	0.071
1016	0.07
1016	0.07
1017	0.069
1017	0.068
1018	0.068
1018	0.067
1018	0.066
1019	0.066
1019	0.065
1020	0.064
1020	0.063
1021	0.063
1021	0.062
1021	0.061
1022	0.06
1022	0.059
1023	0.059
1023	0.059
1023	0.058
1024	0.058
1024	0.057
1025	0.057
1025	0.058
1026	0.058
1026	0.059
1026	0.059
1027	0.059
1027	0.06
1028	0.06
1028	0.06
1028	0.06
1029	0.06
1029	0.06
1030	0.059
1030	0.059
1031	0.058
1031	0.058
1031	0.058
1032	0.057
1032	0.057
1033	0.057
1033	0.058
1033	0.058
1034	0.058
1034	0.059
1035	0.059
1035	0.059
1036	0.059
1036	0.059
1036	0.059
1037	0.059
1037	0.059
1038	0.059
1038	0.059
1039	0.059
1039	0.059
1039	0.06
1040	0.06
1040	0.06
1041	0.061
1041	0.061
1041	0.061
1042	0.061
1042	0.061
1043	0.06
1043	0.06
1044	0.059
1044	0.059
1044	0.058
1045	0.057
1045	0.057
1046	0.056
1046	0.056
1046	0.055
1047	0.055
1047	0.056
1048	0.056
1048	0.056
1049	0.056
1049	0.056
1049	0.057
1050	0.057
1050	0.058
1051	0.058
1051	0.058
1051	0.059
1052	0.059
1052	0.059
1053	0.059
1053	0.059
1053	0.059
1054	0.059
1054	0.059
1055	0.059
1055	0.058
1056	0.057
1056	0.056
1056	0.055
1057	0.054
1057	0.054
1058	0.053
1058	0.052
1058	0.052
1059	0.051
1059	0.051
1060	0.05
1060	0.05
1061	0.05
1061	0.05
1061	0.05
1062	0.05
1062	0.05
1063	0.05
1063	0.05
1063	0.05
1064	0.05
1064	0.05
1065	0.05
1065	0.05
1066	0.05
1066	0.05
1066	0.049
1067	0.049
1067	0.049
1068	0.048
1068	0.047
1068	0.046
1069	0.046
1069	0.045
1070	0.045
1070	0.045
1071	0.044
1071	0.044
1071	0.043
1072	0.043
1072	0.043
1073	0.042
1073	0.043
1073	0.042
1074	0.042
1074	0.042
1075	0.042
1075	0.041
1076	0.041
1076	0.041
1076	0.04
1077	0.04
1077	0.039
1078	0.038
1078	0.038
1078	0.037
1079	0.037
1079	0.036
1080	0.035
1080	0.035
1080	0.033
1081	0.033
1081	0.032
1082	0.031
1082	0.03
1083	0.029
1083	0.029
1083	0.028
1084	0.027
1084	0.026
1085	0.025
1085	0.025
1085	0.024
1086	0.024
1086	0.024
1087	0.024
1087	0.024
1088	0.023
1088	0.023
1088	0.022
1089	0.022
1089	0.022
1090	0.02
1090	0.02
1090	0.019
1091	0.018
1091	0.017
1092	0.017
1092	0.017
1092	0.016
1093	0.014
1093	0.015
1094	0.014
1094	0.014
1095	0.012
1095	0.012
1095	0.012
1096	0.011
1096	0.01
1097	0.009
1097	0.008
1097	0.008
1098	0.006
1098	0.004
1099	0.004
1099	0.003
1100	0.002
1100	0.001
1100	-0.001
1101	-0.003
1101	-0.006
1102	-0.007
1102	-0.01
1102	-0.011
1103	-0.013
1103	-0.015
1104	-0.017
1104	-0.02
1104	-0.022
1105	-0.025
1105	-0.028
1106	-0.032
1106	-0.034
1107	-0.039
1107	-0.043
1107	-0.048
1108	-0.05
1108	-0.053
1109	-0.056
1109	-0.06
1109	-0.064
1110	-0.064
1110	-0.066
1111	-0.073
1111	-0.07
