Data from 17C_3.4A_30min_2sec_int_Absorbance__230__00951.txt Node

Date: Mon Jun 19 16:57:27 CEST 2023
User: Marek
Spectrometer: MAYP115816
Trigger mode: 0
Integration Time (sec): 2.500000E-1
Scans to average: 10
Electric dark correction enabled: true
Nonlinearity correction enabled: true
Boxcar width: 5
XAxis mode: Wavelengths
Number of Pixels in Spectrum: 2068
>>>>>Begin Spectral Data<<<<<
199	-0.635
199	-0.639
200	-0.54
200	-0.489
201	-0.452
201	-0.442
202	-0.427
202	-0.416
203	-0.408
203	-0.405
204	-0.393
204	-0.376
205	-0.353
205	-0.35
205	-0.348
206	-0.352
206	-0.352
207	-0.341
207	-0.343
208	-0.346
208	-0.343
209	-0.338
209	-0.339
210	-0.345
210	-0.351
211	-0.353
211	-0.355
212	-0.359
212	-0.37
213	-0.368
213	-0.368
213	-0.373
214	-0.37
214	-0.37
215	-0.369
215	-0.373
216	-0.377
216	-0.38
217	-0.373
217	-0.378
218	-0.382
218	-0.384
219	-0.389
219	-0.397
220	-0.403
220	-0.411
221	-0.41
221	-0.411
221	-0.406
222	-0.403
222	-0.402
223	-0.404
223	-0.404
224	-0.408
224	-0.407
225	-0.398
225	-0.395
226	-0.397
226	-0.398
227	-0.405
227	-0.413
228	-0.414
228	-0.414
229	-0.415
229	-0.409
229	-0.406
230	-0.414
230	-0.414
231	-0.41
231	-0.402
232	-0.396
232	-0.399
233	-0.392
233	-0.391
234	-0.392
234	-0.39
235	-0.392
235	-0.394
236	-0.394
236	-0.399
236	-0.404
237	-0.41
237	-0.407
238	-0.415
238	-0.414
239	-0.413
239	-0.42
240	-0.423
240	-0.421
241	-0.425
241	-0.422
242	-0.428
242	-0.424
243	-0.422
243	-0.423
243	-0.429
244	-0.429
244	-0.428
245	-0.44
245	-0.438
246	-0.445
246	-0.449
247	-0.451
247	-0.455
248	-0.459
248	-0.457
249	-0.461
249	-0.468
250	-0.467
250	-0.463
250	-0.465
251	-0.46
251	-0.462
252	-0.465
252	-0.454
253	-0.458
253	-0.471
254	-0.468
254	-0.467
255	-0.475
255	-0.47
256	-0.467
256	-0.482
257	-0.477
257	-0.475
258	-0.491
258	-0.49
258	-0.484
259	-0.484
259	-0.489
260	-0.489
260	-0.492
261	-0.501
261	-0.489
262	-0.49
262	-0.49
263	-0.477
263	-0.472
264	-0.473
264	-0.481
265	-0.477
265	-0.487
265	-0.49
266	-0.49
266	-0.488
267	-0.497
267	-0.504
268	-0.52
268	-0.529
269	-0.526
269	-0.519
270	-0.524
270	-0.523
271	-0.522
271	-0.526
272	-0.526
272	-0.521
272	-0.515
273	-0.514
273	-0.52
274	-0.526
274	-0.529
275	-0.53
275	-0.522
276	-0.528
276	-0.522
277	-0.532
277	-0.552
278	-0.561
278	-0.554
278	-0.551
279	-0.554
279	-0.565
280	-0.561
280	-0.565
281	-0.561
281	-0.564
282	-0.553
282	-0.552
283	-0.543
283	-0.546
284	-0.538
284	-0.527
285	-0.521
285	-0.522
285	-0.519
286	-0.523
286	-0.522
287	-0.521
287	-0.505
288	-0.498
288	-0.506
289	-0.519
289	-0.529
290	-0.517
290	-0.514
291	-0.51
291	-0.505
292	-0.508
292	-0.511
292	-0.514
293	-0.52
293	-0.509
294	-0.5
294	-0.491
295	-0.492
295	-0.488
296	-0.483
296	-0.48
297	-0.47
297	-0.456
298	-0.449
298	-0.459
298	-0.449
299	-0.442
299	-0.444
300	-0.436
300	-0.433
301	-0.431
301	-0.43
302	-0.441
302	-0.447
303	-0.436
303	-0.42
304	-0.422
304	-0.42
305	-0.422
305	-0.422
305	-0.42
306	-0.405
306	-0.398
307	-0.385
307	-0.386
308	-0.398
308	-0.397
309	-0.401
309	-0.39
310	-0.379
310	-0.375
311	-0.367
311	-0.375
311	-0.374
312	-0.371
312	-0.372
313	-0.36
313	-0.362
314	-0.356
314	-0.359
315	-0.358
315	-0.359
316	-0.356
316	-0.347
317	-0.339
317	-0.334
318	-0.322
318	-0.318
318	-0.313
319	-0.305
319	-0.3
320	-0.295
320	-0.295
321	-0.301
321	-0.299
322	-0.297
322	-0.29
323	-0.289
323	-0.283
324	-0.276
324	-0.269
324	-0.261
325	-0.25
325	-0.231
326	-0.217
326	-0.201
327	-0.185
327	-0.168
328	-0.145
328	-0.13
329	-0.109
329	-0.088
330	-0.061
330	-0.032
330	-0.008
331	0.017
331	0.042
332	0.064
332	0.086
333	0.107
333	0.129
334	0.147
334	0.162
335	0.176
335	0.189
336	0.201
336	0.212
336	0.221
337	0.231
337	0.237
338	0.245
338	0.249
339	0.255
339	0.26
340	0.263
340	0.267
341	0.271
341	0.273
342	0.277
342	0.279
342	0.282
343	0.284
343	0.286
344	0.288
344	0.289
345	0.291
345	0.291
346	0.292
346	0.292
347	0.293
347	0.293
348	0.293
348	0.294
348	0.294
349	0.294
349	0.294
350	0.294
350	0.294
351	0.294
351	0.294
352	0.294
352	0.294
353	0.294
353	0.294
354	0.294
354	0.293
354	0.293
355	0.293
355	0.293
356	0.293
356	0.293
357	0.292
357	0.291
358	0.291
358	0.291
359	0.291
359	0.291
360	0.29
360	0.29
360	0.29
361	0.29
361	0.29
362	0.29
362	0.29
363	0.29
363	0.29
364	0.289
364	0.289
365	0.289
365	0.289
366	0.289
366	0.289
366	0.289
367	0.289
367	0.289
368	0.289
368	0.288
369	0.288
369	0.288
370	0.288
370	0.287
371	0.287
371	0.287
372	0.287
372	0.287
372	0.287
373	0.286
373	0.286
374	0.286
374	0.286
375	0.286
375	0.286
376	0.286
376	0.286
377	0.286
377	0.285
378	0.285
378	0.285
378	0.285
379	0.285
379	0.285
380	0.285
380	0.284
381	0.284
381	0.284
382	0.284
382	0.283
383	0.283
383	0.283
383	0.282
384	0.282
384	0.282
385	0.282
385	0.282
386	0.281
386	0.281
387	0.281
387	0.281
388	0.281
388	0.281
389	0.28
389	0.281
389	0.281
390	0.281
390	0.28
391	0.28
391	0.28
392	0.28
392	0.28
393	0.28
393	0.28
394	0.279
394	0.279
394	0.278
395	0.278
395	0.278
396	0.278
396	0.277
397	0.277
397	0.277
398	0.277
398	0.277
399	0.277
399	0.277
400	0.277
400	0.277
400	0.276
401	0.276
401	0.276
402	0.276
402	0.275
403	0.275
403	0.275
404	0.275
404	0.274
405	0.275
405	0.274
405	0.274
406	0.274
406	0.274
407	0.273
407	0.273
408	0.273
408	0.273
409	0.273
409	0.273
410	0.273
410	0.273
411	0.272
411	0.272
411	0.272
412	0.273
412	0.272
413	0.272
413	0.272
414	0.272
414	0.272
415	0.271
415	0.271
416	0.271
416	0.271
416	0.271
417	0.27
417	0.27
418	0.27
418	0.27
419	0.27
419	0.27
420	0.27
420	0.27
421	0.27
421	0.27
421	0.27
422	0.27
422	0.27
423	0.27
423	0.27
424	0.269
424	0.269
425	0.269
425	0.268
426	0.268
426	0.268
427	0.267
427	0.267
427	0.267
428	0.267
428	0.267
429	0.267
429	0.267
430	0.267
430	0.266
431	0.266
431	0.266
432	0.266
432	0.266
432	0.266
433	0.266
433	0.265
434	0.265
434	0.265
435	0.265
435	0.265
436	0.264
436	0.264
437	0.264
437	0.264
437	0.264
438	0.264
438	0.264
439	0.264
439	0.264
440	0.264
440	0.264
441	0.264
441	0.264
442	0.264
442	0.264
442	0.264
443	0.264
443	0.264
444	0.264
444	0.264
445	0.263
445	0.264
446	0.264
446	0.264
447	0.264
447	0.264
447	0.264
448	0.264
448	0.264
449	0.264
449	0.264
450	0.265
450	0.265
451	0.265
451	0.265
452	0.265
452	0.265
452	0.265
453	0.265
453	0.265
454	0.265
454	0.264
455	0.264
455	0.264
456	0.264
456	0.264
457	0.264
457	0.264
458	0.264
458	0.264
458	0.264
459	0.264
459	0.264
460	0.264
460	0.264
461	0.264
461	0.264
462	0.264
462	0.265
463	0.265
463	0.265
463	0.265
464	0.265
464	0.265
465	0.265
465	0.265
466	0.265
466	0.266
467	0.266
467	0.266
467	0.266
468	0.267
468	0.267
469	0.268
469	0.268
470	0.269
470	0.269
471	0.269
471	0.27
472	0.27
472	0.27
472	0.27
473	0.27
473	0.271
474	0.271
474	0.272
475	0.272
475	0.272
476	0.273
476	0.273
477	0.273
477	0.274
477	0.274
478	0.275
478	0.275
479	0.276
479	0.276
480	0.277
480	0.277
481	0.278
481	0.279
482	0.279
482	0.28
482	0.281
483	0.282
483	0.283
484	0.283
484	0.284
485	0.284
485	0.285
486	0.286
486	0.287
487	0.288
487	0.289
487	0.289
488	0.29
488	0.291
489	0.293
489	0.295
490	0.296
490	0.298
491	0.299
491	0.3
492	0.301
492	0.302
492	0.304
493	0.305
493	0.306
494	0.307
494	0.309
495	0.31
495	0.311
496	0.313
496	0.314
496	0.316
497	0.318
497	0.32
498	0.321
498	0.323
499	0.324
499	0.326
500	0.328
500	0.33
501	0.332
501	0.333
501	0.335
502	0.336
502	0.338
503	0.34
503	0.342
504	0.343
504	0.345
505	0.347
505	0.349
506	0.351
506	0.353
506	0.355
507	0.356
507	0.358
508	0.36
508	0.362
509	0.364
509	0.366
510	0.368
510	0.37
511	0.372
511	0.374
511	0.376
512	0.378
512	0.38
513	0.381
513	0.383
514	0.384
514	0.386
515	0.388
515	0.389
515	0.391
516	0.393
516	0.395
517	0.396
517	0.398
518	0.4
518	0.402
519	0.403
519	0.405
520	0.407
520	0.409
520	0.411
521	0.412
521	0.413
522	0.415
522	0.416
523	0.418
523	0.419
524	0.42
524	0.421
524	0.422
525	0.422
525	0.423
526	0.424
526	0.424
527	0.425
527	0.426
528	0.427
528	0.427
529	0.428
529	0.429
529	0.43
530	0.431
530	0.431
531	0.432
531	0.432
532	0.433
532	0.433
533	0.434
533	0.433
533	0.434
534	0.433
534	0.433
535	0.433
535	0.433
536	0.433
536	0.432
537	0.432
537	0.432
538	0.431
538	0.431
538	0.431
539	0.43
539	0.43
540	0.429
540	0.428
541	0.427
541	0.427
542	0.426
542	0.425
542	0.424
543	0.423
543	0.422
544	0.421
544	0.421
545	0.42
545	0.42
546	0.419
546	0.419
547	0.417
547	0.416
547	0.416
548	0.415
548	0.413
549	0.412
549	0.411
550	0.41
550	0.409
551	0.408
551	0.407
551	0.407
552	0.407
552	0.406
553	0.406
553	0.406
554	0.405
554	0.404
555	0.403
555	0.401
556	0.4
556	0.399
556	0.398
557	0.397
557	0.395
558	0.394
558	0.393
559	0.391
559	0.39
560	0.389
560	0.388
560	0.387
561	0.386
561	0.385
562	0.383
562	0.382
563	0.381
563	0.38
564	0.379
564	0.378
564	0.377
565	0.376
565	0.375
566	0.374
566	0.373
567	0.372
567	0.371
568	0.37
568	0.369
568	0.368
569	0.367
569	0.365
570	0.363
570	0.362
571	0.361
571	0.36
572	0.359
572	0.358
573	0.357
573	0.356
573	0.355
574	0.354
574	0.353
575	0.353
575	0.352
576	0.351
576	0.35
577	0.349
577	0.348
577	0.348
578	0.348
578	0.347
579	0.347
579	0.346
580	0.345
580	0.343
581	0.342
581	0.342
581	0.341
582	0.341
582	0.34
583	0.339
583	0.338
584	0.337
584	0.336
585	0.336
585	0.335
585	0.335
586	0.334
586	0.334
587	0.333
587	0.333
588	0.332
588	0.331
589	0.331
589	0.33
590	0.33
590	0.329
590	0.329
591	0.328
591	0.327
592	0.326
592	0.325
593	0.325
593	0.325
594	0.324
594	0.324
594	0.323
595	0.323
595	0.322
596	0.322
596	0.322
597	0.322
597	0.321
598	0.32
598	0.32
598	0.319
599	0.318
599	0.317
600	0.316
600	0.315
601	0.314
601	0.313
602	0.312
602	0.312
602	0.311
603	0.311
603	0.312
604	0.312
604	0.312
605	0.312
605	0.311
606	0.311
606	0.31
606	0.309
607	0.308
607	0.307
608	0.306
608	0.304
609	0.303
609	0.303
610	0.302
610	0.301
610	0.301
611	0.301
611	0.301
612	0.301
612	0.301
613	0.3
613	0.3
614	0.299
614	0.297
614	0.296
615	0.295
615	0.294
616	0.293
616	0.292
617	0.291
617	0.289
618	0.288
618	0.287
618	0.286
619	0.286
619	0.286
620	0.285
620	0.284
621	0.284
621	0.283
622	0.282
622	0.281
622	0.28
623	0.279
623	0.279
624	0.278
624	0.277
625	0.276
625	0.275
626	0.274
626	0.273
626	0.272
627	0.271
627	0.269
628	0.268
628	0.266
629	0.264
629	0.262
630	0.26
630	0.258
630	0.256
631	0.253
631	0.251
632	0.248
632	0.245
633	0.242
633	0.239
634	0.236
634	0.233
634	0.23
635	0.226
635	0.222
636	0.218
636	0.214
637	0.21
637	0.206
638	0.201
638	0.196
638	0.191
639	0.186
639	0.18
640	0.175
640	0.169
641	0.163
641	0.158
642	0.152
642	0.147
642	0.141
643	0.135
643	0.129
644	0.122
644	0.116
645	0.109
645	0.103
646	0.096
646	0.09
646	0.083
647	0.076
647	0.069
648	0.062
648	0.055
649	0.047
649	0.04
650	0.032
650	0.025
650	0.016
651	0.006
651	-0.006
652	-0.02
652	-0.036
653	-0.049
653	-0.061
653	-0.058
654	-0.037
654	-0.026
655	-0.028
655	-0.033
656	-0.038
656	-0.044
657	-0.048
657	-0.052
657	-0.058
658	-0.063
658	-0.09
659	-0.173
659	-0.272
660	-0.315
660	-0.341
661	-0.369
661	-0.4
661	-0.437
662	-0.471
662	-0.508
663	-0.552
663	-0.598
664	-0.647
664	-0.702
665	-0.757
665	-0.82
665	-0.879
666	-0.94
666	-1.005
667	-1.074
667	-1.143
668	-1.219
668	-1.295
669	-1.375
669	-1.455
669	-1.543
670	-1.633
670	-1.734
671	-1.964
671	-2.136
672	-2.317
672	-2.481
672	-2.594
673	-2.674
673	-2.74
674	-2.764
674	-2.779
675	-2.8
675	-2.929
676	-3.088
676	-3.034
676	-2.803
677	-2.589
677	-2.407
678	-2.191
678	-1.822
679	-1.642
679	-1.532
680	-1.446
680	-1.369
680	-1.304
681	-1.263
681	-1.206
682	-1.167
682	-1.131
683	-1.096
683	-1.078
684	-1.056
684	-1.035
684	-1.011
685	-0.986
685	-0.963
686	-0.938
686	-0.92
687	-0.894
687	-0.88
687	-0.857
688	-0.829
688	-0.808
689	-0.787
689	-0.773
690	-0.752
690	-0.738
691	-0.731
691	-0.734
691	-0.749
692	-0.74
692	-0.73
693	-0.725
693	-0.73
694	-0.723
694	-0.714
695	-0.717
695	-0.714
695	-0.695
696	-0.69
696	-0.667
697	-0.665
697	-0.68
698	-0.681
698	-0.671
698	-0.683
699	-0.686
699	-0.683
700	-0.675
700	-0.69
701	-0.689
701	-0.694
702	-0.695
702	-0.682
702	-0.675
703	-0.666
703	-0.657
704	-0.654
704	-0.652
705	-0.661
705	-0.653
705	-0.64
706	-0.639
706	-0.635
707	-0.64
707	-0.635
708	-0.633
708	-0.628
709	-0.63
709	-0.633
709	-0.622
710	-0.631
710	-0.64
711	-0.631
711	-0.632
712	-0.63
712	-0.641
713	-0.641
713	-0.647
713	-0.636
714	-0.632
714	-0.636
715	-0.627
715	-0.615
716	-0.623
716	-0.623
716	-0.616
717	-0.617
717	-0.619
718	-0.611
718	-0.612
719	-0.617
719	-0.617
720	-0.612
720	-0.62
720	-0.612
721	-0.603
721	-0.604
722	-0.589
722	-0.579
723	-0.576
723	-0.579
723	-0.566
724	-0.569
724	-0.572
725	-0.574
725	-0.583
726	-0.594
726	-0.596
727	-0.602
727	-0.615
727	-0.622
728	-0.624
728	-0.629
729	-0.629
729	-0.633
730	-0.635
730	-0.629
730	-0.619
731	-0.606
731	-0.615
732	-0.62
732	-0.621
733	-0.62
733	-0.624
734	-0.616
734	-0.616
734	-0.604
735	-0.6
735	-0.6
736	-0.609
736	-0.595
737	-0.587
737	-0.587
737	-0.595
738	-0.593
738	-0.595
739	-0.591
739	-0.605
740	-0.605
740	-0.605
741	-0.599
741	-0.601
741	-0.603
742	-0.603
742	-0.604
743	-0.608
743	-0.613
744	-0.609
744	-0.599
744	-0.604
745	-0.61
745	-0.606
746	-0.606
746	-0.603
747	-0.603
747	-0.591
748	-0.581
748	-0.585
748	-0.59
749	-0.586
749	-0.584
750	-0.575
750	-0.574
751	-0.576
751	-0.583
751	-0.586
752	-0.59
752	-0.601
753	-0.597
753	-0.592
754	-0.599
754	-0.592
754	-0.606
755	-0.624
755	-0.637
756	-0.626
756	-0.623
757	-0.62
757	-0.613
758	-0.614
758	-0.611
758	-0.616
759	-0.626
759	-0.61
760	-0.602
760	-0.598
761	-0.609
761	-0.607
761	-0.606
762	-0.612
762	-0.613
763	-0.624
763	-0.617
764	-0.614
764	-0.619
764	-0.625
765	-0.615
765	-0.601
766	-0.607
766	-0.616
767	-0.63
767	-0.621
768	-0.612
768	-0.625
768	-0.628
769	-0.645
769	-0.645
770	-0.649
770	-0.664
771	-0.662
771	-0.665
771	-0.668
772	-0.675
772	-0.674
773	-0.671
773	-0.667
774	-0.666
774	-0.666
775	-0.668
775	-0.661
775	-0.666
776	-0.666
776	-0.656
777	-0.664
777	-0.68
778	-0.678
778	-0.697
778	-0.684
779	-0.705
779	-0.715
780	-0.727
780	-0.727
781	-0.738
781	-0.732
781	-0.745
782	-0.746
782	-0.749
783	-0.737
783	-0.737
784	-0.718
784	-0.71
784	-0.721
785	-0.73
785	-0.716
786	-0.722
786	-0.701
787	-0.688
787	-0.688
788	-0.69
788	-0.7
788	-0.71
789	-0.708
789	-0.688
790	-0.667
790	-0.668
791	-0.669
791	-0.688
791	-0.694
792	-0.689
792	-0.663
793	-0.651
793	-0.629
794	-0.632
794	-0.624
794	-0.636
795	-0.63
795	-0.623
796	-0.606
796	-0.611
797	-0.605
797	-0.62
797	-0.628
798	-0.642
798	-0.635
799	-0.646
799	-0.63
800	-0.635
800	-0.627
801	-0.628
801	-0.615
801	-0.625
802	-0.634
802	-0.633
803	-0.633
803	-0.643
804	-0.637
804	-0.646
804	-0.635
805	-0.641
805	-0.632
806	-0.632
806	-0.615
807	-0.613
807	-0.594
807	-0.582
808	-0.571
808	-0.566
809	-0.552
809	-0.563
810	-0.558
810	-0.553
810	-0.556
811	-0.564
811	-0.554
812	-0.557
812	-0.56
813	-0.568
813	-0.562
813	-0.568
814	-0.571
814	-0.578
815	-0.582
815	-0.584
816	-0.577
816	-0.584
817	-0.591
817	-0.608
817	-0.619
818	-0.628
818	-0.63
819	-0.619
819	-0.619
820	-0.631
820	-0.627
820	-0.636
821	-0.633
821	-0.622
822	-0.593
822	-0.571
823	-0.569
823	-0.574
823	-0.572
824	-0.566
824	-0.565
825	-0.558
825	-0.54
826	-0.536
826	-0.54
826	-0.55
827	-0.546
827	-0.541
828	-0.52
828	-0.52
829	-0.511
829	-0.498
829	-0.49
830	-0.498
830	-0.498
831	-0.491
831	-0.481
832	-0.478
832	-0.472
832	-0.48
833	-0.476
833	-0.478
834	-0.477
834	-0.485
835	-0.474
835	-0.467
835	-0.462
836	-0.46
836	-0.457
837	-0.455
837	-0.445
838	-0.436
838	-0.424
839	-0.413
839	-0.402
839	-0.394
840	-0.385
840	-0.381
841	-0.37
841	-0.362
842	-0.356
842	-0.35
842	-0.343
843	-0.338
843	-0.333
844	-0.323
844	-0.318
845	-0.31
845	-0.303
845	-0.291
846	-0.283
846	-0.27
847	-0.259
847	-0.248
848	-0.238
848	-0.228
848	-0.216
849	-0.206
849	-0.197
850	-0.183
850	-0.178
851	-0.169
851	-0.161
851	-0.154
852	-0.142
852	-0.13
853	-0.122
853	-0.117
854	-0.106
854	-0.094
854	-0.086
855	-0.077
855	-0.074
856	-0.065
856	-0.057
857	-0.052
857	-0.045
857	-0.036
858	-0.027
858	-0.022
859	-0.016
859	-0.008
860	-0
860	0.012
860	0.017
861	0.023
861	0.031
862	0.036
862	0.041
863	0.046
863	0.053
863	0.056
864	0.059
864	0.063
865	0.066
865	0.069
866	0.073
866	0.074
866	0.077
867	0.079
867	0.082
868	0.084
868	0.087
869	0.09
869	0.092
869	0.094
870	0.096
870	0.098
871	0.1
871	0.102
872	0.103
872	0.104
872	0.105
873	0.106
873	0.106
874	0.106
874	0.106
875	0.105
875	0.104
875	0.103
876	0.102
876	0.101
877	0.1
877	0.098
878	0.097
878	0.095
878	0.093
879	0.091
879	0.09
880	0.089
880	0.088
881	0.088
881	0.088
881	0.088
882	0.088
882	0.087
883	0.087
883	0.086
884	0.086
884	0.086
884	0.085
885	0.085
885	0.084
886	0.083
886	0.083
887	0.082
887	0.082
887	0.082
888	0.082
888	0.081
889	0.082
889	0.082
890	0.083
890	0.083
890	0.082
891	0.082
891	0.082
892	0.082
892	0.082
893	0.082
893	0.081
893	0.081
894	0.08
894	0.08
895	0.079
895	0.079
895	0.079
896	0.078
896	0.077
897	0.075
897	0.074
898	0.074
898	0.073
898	0.073
899	0.073
899	0.074
900	0.074
900	0.074
901	0.075
901	0.075
901	0.076
902	0.076
902	0.077
903	0.077
903	0.077
904	0.077
904	0.077
904	0.078
905	0.079
905	0.079
906	0.079
906	0.079
907	0.079
907	0.079
907	0.079
908	0.078
908	0.078
909	0.077
909	0.077
910	0.076
910	0.076
910	0.076
911	0.076
911	0.077
912	0.077
912	0.078
913	0.078
913	0.079
913	0.079
914	0.08
914	0.08
915	0.081
915	0.081
916	0.081
916	0.081
916	0.081
917	0.081
917	0.081
918	0.08
918	0.079
918	0.079
919	0.078
919	0.078
920	0.078
920	0.078
921	0.078
921	0.078
921	0.078
922	0.078
922	0.078
923	0.078
923	0.079
924	0.079
924	0.078
924	0.078
925	0.077
925	0.076
926	0.075
926	0.075
927	0.074
927	0.074
927	0.073
928	0.073
928	0.073
929	0.072
929	0.072
930	0.072
930	0.071
930	0.071
931	0.071
931	0.071
932	0.07
932	0.069
933	0.068
933	0.067
933	0.066
934	0.065
934	0.063
935	0.062
935	0.061
935	0.061
936	0.059
936	0.058
937	0.057
937	0.057
938	0.058
938	0.058
938	0.058
939	0.059
939	0.06
940	0.06
940	0.061
941	0.062
941	0.063
941	0.064
942	0.065
942	0.065
943	0.065
943	0.066
944	0.065
944	0.065
944	0.064
945	0.064
945	0.063
946	0.062
946	0.06
946	0.059
947	0.059
947	0.058
948	0.058
948	0.059
949	0.059
949	0.06
949	0.061
950	0.062
950	0.063
951	0.064
951	0.064
952	0.065
952	0.066
952	0.066
953	0.067
953	0.068
954	0.068
954	0.069
955	0.07
955	0.071
955	0.071
956	0.072
956	0.073
957	0.073
957	0.073
957	0.073
958	0.073
958	0.073
959	0.073
959	0.073
960	0.072
960	0.072
960	0.072
961	0.072
961	0.072
962	0.072
962	0.071
963	0.071
963	0.071
963	0.071
964	0.071
964	0.071
965	0.071
965	0.071
966	0.071
966	0.071
966	0.071
967	0.071
967	0.07
968	0.07
968	0.069
968	0.068
969	0.068
969	0.067
970	0.067
970	0.067
971	0.067
971	0.067
971	0.067
972	0.068
972	0.068
973	0.068
973	0.067
974	0.067
974	0.067
974	0.067
975	0.066
975	0.065
976	0.065
976	0.064
976	0.064
977	0.063
977	0.063
978	0.063
978	0.063
979	0.063
979	0.062
979	0.062
980	0.061
980	0.061
981	0.061
981	0.061
982	0.06
982	0.06
982	0.06
983	0.059
983	0.059
984	0.06
984	0.06
984	0.06
985	0.061
985	0.062
986	0.062
986	0.062
987	0.062
987	0.062
987	0.062
988	0.061
988	0.061
989	0.06
989	0.059
990	0.059
990	0.057
990	0.057
991	0.056
991	0.056
992	0.055
992	0.055
992	0.055
993	0.055
993	0.055
994	0.055
994	0.055
995	0.055
995	0.054
995	0.054
996	0.054
996	0.053
997	0.053
997	0.053
997	0.053
998	0.054
998	0.054
999	0.054
999	0.054
1000	0.055
1000	0.055
1000	0.055
1001	0.055
1001	0.055
1002	0.055
1002	0.055
1003	0.055
1003	0.054
1003	0.054
1004	0.053
1004	0.053
1005	0.052
1005	0.051
1005	0.05
1006	0.049
1006	0.048
1007	0.047
1007	0.046
1008	0.046
1008	0.045
1008	0.045
1009	0.045
1009	0.045
1010	0.045
1010	0.045
1010	0.045
1011	0.045
1011	0.044
1012	0.043
1012	0.043
1013	0.042
1013	0.04
1013	0.039
1014	0.038
1014	0.037
1015	0.036
1015	0.036
1016	0.035
1016	0.034
1016	0.034
1017	0.033
1017	0.033
1018	0.032
1018	0.031
1018	0.031
1019	0.03
1019	0.029
1020	0.028
1020	0.028
1021	0.027
1021	0.026
1021	0.025
1022	0.024
1022	0.024
1023	0.023
1023	0.023
1023	0.023
1024	0.023
1024	0.023
1025	0.023
1025	0.023
1026	0.024
1026	0.024
1026	0.025
1027	0.025
1027	0.026
1028	0.026
1028	0.026
1028	0.026
1029	0.026
1029	0.026
1030	0.025
1030	0.024
1031	0.024
1031	0.024
1031	0.024
1032	0.024
1032	0.024
1033	0.024
1033	0.025
1033	0.025
1034	0.025
1034	0.025
1035	0.025
1035	0.026
1036	0.025
1036	0.025
1036	0.025
1037	0.025
1037	0.025
1038	0.025
1038	0.025
1039	0.025
1039	0.026
1039	0.026
1040	0.026
1040	0.027
1041	0.027
1041	0.027
1041	0.028
1042	0.028
1042	0.027
1043	0.027
1043	0.027
1044	0.026
1044	0.025
1044	0.025
1045	0.024
1045	0.024
1046	0.023
1046	0.023
1046	0.023
1047	0.024
1047	0.024
1048	0.024
1048	0.025
1049	0.025
1049	0.026
1049	0.026
1050	0.026
1050	0.027
1051	0.026
1051	0.027
1051	0.027
1052	0.027
1052	0.027
1053	0.027
1053	0.027
1053	0.027
1054	0.027
1054	0.026
1055	0.026
1055	0.025
1056	0.025
1056	0.024
1056	0.023
1057	0.022
1057	0.021
1058	0.021
1058	0.021
1058	0.021
1059	0.02
1059	0.019
1060	0.019
1060	0.019
1061	0.019
1061	0.019
1061	0.019
1062	0.019
1062	0.019
1063	0.019
1063	0.019
1063	0.019
1064	0.019
1064	0.019
1065	0.019
1065	0.019
1066	0.019
1066	0.019
1066	0.019
1067	0.018
1067	0.018
1068	0.017
1068	0.016
1068	0.016
1069	0.016
1069	0.015
1070	0.015
1070	0.014
1071	0.014
1071	0.014
1071	0.014
1072	0.014
1072	0.014
1073	0.013
1073	0.013
1073	0.013
1074	0.013
1074	0.013
1075	0.013
1075	0.012
1076	0.012
1076	0.012
1076	0.011
1077	0.011
1077	0.011
1078	0.01
1078	0.01
1078	0.009
1079	0.008
1079	0.008
1080	0.007
1080	0.006
1080	0.005
1081	0.005
1081	0.004
1082	0.003
1082	0.002
1083	0.002
1083	0.001
1083	0
1084	-0.001
1084	-0.001
1085	-0.002
1085	-0.002
1085	-0.002
1086	-0.002
1086	-0.003
1087	-0.002
1087	-0.002
1088	-0.003
1088	-0.003
1088	-0.003
1089	-0.004
1089	-0.004
1090	-0.006
1090	-0.006
1090	-0.007
1091	-0.008
1091	-0.008
1092	-0.009
1092	-0.009
1092	-0.01
1093	-0.011
1093	-0.011
1094	-0.011
1094	-0.011
1095	-0.012
1095	-0.012
1095	-0.012
1096	-0.013
1096	-0.013
1097	-0.013
1097	-0.014
1097	-0.014
1098	-0.015
1098	-0.016
1099	-0.017
1099	-0.017
1100	-0.019
1100	-0.02
1100	-0.021
1101	-0.024
1101	-0.026
1102	-0.027
1102	-0.029
1102	-0.03
1103	-0.031
1103	-0.032
1104	-0.034
1104	-0.035
1104	-0.036
1105	-0.039
1105	-0.041
1106	-0.044
1106	-0.046
1107	-0.049
1107	-0.052
1107	-0.056
1108	-0.058
1108	-0.06
1109	-0.063
1109	-0.067
1109	-0.069
1110	-0.07
1110	-0.071
1111	-0.075
1111	-0.077
