Data from 3.3A_17C_Absorbance__166__03033.txt Node

Date: Tue Jun 20 17:17:52 CEST 2023
User: Marek
Spectrometer: MAYP115816
Trigger mode: 0
Integration Time (sec): 2.200000E-1
Scans to average: 10
Electric dark correction enabled: true
Nonlinearity correction enabled: true
Boxcar width: 5
XAxis mode: Wavelengths
Number of Pixels in Spectrum: 2068
>>>>>Begin Spectral Data<<<<<
199	-0.815
199	-0.799
200	-0.761
200	-0.706
201	-0.675
201	-0.669
202	-0.651
202	-0.644
203	-0.643
203	-0.636
204	-0.614
204	-0.598
205	-0.575
205	-0.566
205	-0.575
206	-0.578
206	-0.572
207	-0.563
207	-0.569
208	-0.571
208	-0.577
209	-0.577
209	-0.584
210	-0.597
210	-0.603
211	-0.596
211	-0.599
212	-0.609
212	-0.618
213	-0.614
213	-0.609
213	-0.607
214	-0.614
214	-0.615
215	-0.61
215	-0.618
216	-0.628
216	-0.634
217	-0.631
217	-0.631
218	-0.639
218	-0.641
219	-0.646
219	-0.649
220	-0.653
220	-0.66
221	-0.659
221	-0.659
221	-0.65
222	-0.651
222	-0.65
223	-0.645
223	-0.647
224	-0.647
224	-0.645
225	-0.643
225	-0.645
226	-0.645
226	-0.645
227	-0.652
227	-0.661
228	-0.665
228	-0.675
229	-0.681
229	-0.68
229	-0.68
230	-0.674
230	-0.672
231	-0.67
231	-0.665
232	-0.668
232	-0.664
233	-0.664
233	-0.652
234	-0.652
234	-0.647
235	-0.652
235	-0.664
236	-0.67
236	-0.671
236	-0.672
237	-0.67
237	-0.671
238	-0.67
238	-0.672
239	-0.675
239	-0.684
240	-0.675
240	-0.671
241	-0.665
241	-0.667
242	-0.669
242	-0.677
243	-0.677
243	-0.678
243	-0.684
244	-0.68
244	-0.682
245	-0.685
245	-0.69
246	-0.701
246	-0.704
247	-0.712
247	-0.698
248	-0.698
248	-0.7
249	-0.704
249	-0.706
250	-0.703
250	-0.712
250	-0.708
251	-0.708
251	-0.705
252	-0.705
252	-0.719
253	-0.714
253	-0.726
254	-0.733
254	-0.734
255	-0.744
255	-0.744
256	-0.748
256	-0.76
257	-0.769
257	-0.764
258	-0.764
258	-0.773
258	-0.769
259	-0.762
259	-0.779
260	-0.778
260	-0.766
261	-0.776
261	-0.762
262	-0.768
262	-0.77
263	-0.76
263	-0.764
264	-0.774
264	-0.774
265	-0.766
265	-0.77
265	-0.78
266	-0.771
266	-0.771
267	-0.77
267	-0.785
268	-0.794
268	-0.788
269	-0.78
269	-0.794
270	-0.798
270	-0.796
271	-0.812
271	-0.822
272	-0.824
272	-0.827
272	-0.821
273	-0.831
273	-0.844
274	-0.837
274	-0.832
275	-0.83
275	-0.816
276	-0.817
276	-0.823
277	-0.825
277	-0.822
278	-0.827
278	-0.826
278	-0.815
279	-0.823
279	-0.835
280	-0.838
280	-0.849
281	-0.844
281	-0.836
282	-0.841
282	-0.836
283	-0.828
283	-0.844
284	-0.857
284	-0.866
285	-0.848
285	-0.854
285	-0.844
286	-0.851
286	-0.867
287	-0.864
287	-0.863
288	-0.864
288	-0.843
289	-0.842
289	-0.851
290	-0.86
290	-0.849
291	-0.852
291	-0.85
292	-0.831
292	-0.825
292	-0.831
293	-0.819
293	-0.816
294	-0.815
294	-0.8
295	-0.781
295	-0.793
296	-0.806
296	-0.801
297	-0.787
297	-0.792
298	-0.787
298	-0.803
298	-0.805
299	-0.788
299	-0.782
300	-0.78
300	-0.759
301	-0.74
301	-0.742
302	-0.753
302	-0.738
303	-0.731
303	-0.719
304	-0.704
304	-0.707
305	-0.698
305	-0.707
305	-0.723
306	-0.709
306	-0.708
307	-0.698
307	-0.711
308	-0.712
308	-0.708
309	-0.709
309	-0.706
310	-0.702
310	-0.697
311	-0.683
311	-0.7
311	-0.688
312	-0.686
312	-0.673
313	-0.666
313	-0.668
314	-0.673
314	-0.672
315	-0.671
315	-0.666
316	-0.659
316	-0.65
317	-0.642
317	-0.64
318	-0.632
318	-0.63
318	-0.619
319	-0.607
319	-0.598
320	-0.595
320	-0.591
321	-0.586
321	-0.586
322	-0.579
322	-0.571
323	-0.573
323	-0.563
324	-0.562
324	-0.55
324	-0.537
325	-0.521
325	-0.504
326	-0.495
326	-0.468
327	-0.454
327	-0.431
328	-0.398
328	-0.374
329	-0.344
329	-0.316
330	-0.288
330	-0.25
330	-0.212
331	-0.173
331	-0.137
332	-0.1
332	-0.063
333	-0.031
333	0.006
334	0.041
334	0.071
335	0.103
335	0.128
336	0.153
336	0.178
336	0.198
337	0.218
337	0.238
338	0.254
338	0.266
339	0.283
339	0.295
340	0.305
340	0.315
341	0.324
341	0.331
342	0.34
342	0.348
342	0.354
343	0.36
343	0.367
344	0.37
344	0.374
345	0.378
345	0.381
346	0.384
346	0.387
347	0.389
347	0.391
348	0.392
348	0.394
348	0.395
349	0.396
349	0.397
350	0.398
350	0.398
351	0.399
351	0.4
352	0.4
352	0.4
353	0.401
353	0.401
354	0.401
354	0.401
354	0.401
355	0.401
355	0.401
356	0.402
356	0.402
357	0.402
357	0.402
358	0.401
358	0.401
359	0.401
359	0.401
360	0.402
360	0.402
360	0.402
361	0.402
361	0.402
362	0.402
362	0.402
363	0.402
363	0.402
364	0.402
364	0.402
365	0.401
365	0.401
366	0.401
366	0.401
366	0.401
367	0.401
367	0.4
368	0.4
368	0.399
369	0.399
369	0.398
370	0.398
370	0.398
371	0.397
371	0.397
372	0.396
372	0.396
372	0.396
373	0.395
373	0.395
374	0.395
374	0.395
375	0.394
375	0.393
376	0.393
376	0.393
377	0.392
377	0.392
378	0.391
378	0.391
378	0.391
379	0.39
379	0.39
380	0.39
380	0.39
381	0.389
381	0.389
382	0.388
382	0.388
383	0.387
383	0.387
383	0.386
384	0.386
384	0.386
385	0.385
385	0.384
386	0.384
386	0.384
387	0.383
387	0.383
388	0.382
388	0.382
389	0.382
389	0.381
389	0.381
390	0.381
390	0.381
391	0.38
391	0.38
392	0.379
392	0.379
393	0.378
393	0.378
394	0.377
394	0.377
394	0.376
395	0.376
395	0.375
396	0.375
396	0.374
397	0.373
397	0.373
398	0.372
398	0.372
399	0.371
399	0.371
400	0.371
400	0.37
400	0.37
401	0.369
401	0.369
402	0.368
402	0.368
403	0.368
403	0.368
404	0.368
404	0.367
405	0.367
405	0.366
405	0.366
406	0.366
406	0.365
407	0.365
407	0.364
408	0.364
408	0.364
409	0.363
409	0.363
410	0.363
410	0.363
411	0.363
411	0.362
411	0.362
412	0.362
412	0.361
413	0.361
413	0.361
414	0.36
414	0.36
415	0.359
415	0.359
416	0.359
416	0.358
416	0.358
417	0.357
417	0.357
418	0.357
418	0.357
419	0.357
419	0.357
420	0.356
420	0.356
421	0.356
421	0.356
421	0.357
422	0.357
422	0.357
423	0.356
423	0.356
424	0.356
424	0.356
425	0.356
425	0.355
426	0.355
426	0.355
427	0.355
427	0.355
427	0.355
428	0.354
428	0.354
429	0.354
429	0.354
430	0.353
430	0.353
431	0.353
431	0.352
432	0.352
432	0.352
432	0.351
433	0.351
433	0.351
434	0.351
434	0.352
435	0.352
435	0.352
436	0.352
436	0.352
437	0.352
437	0.352
437	0.352
438	0.352
438	0.352
439	0.352
439	0.351
440	0.351
440	0.351
441	0.351
441	0.351
442	0.351
442	0.351
442	0.351
443	0.351
443	0.351
444	0.351
444	0.351
445	0.351
445	0.351
446	0.351
446	0.351
447	0.351
447	0.351
447	0.351
448	0.351
448	0.351
449	0.351
449	0.352
450	0.352
450	0.352
451	0.352
451	0.352
452	0.353
452	0.353
452	0.353
453	0.353
453	0.353
454	0.353
454	0.353
455	0.354
455	0.354
456	0.354
456	0.354
457	0.354
457	0.354
458	0.354
458	0.354
458	0.355
459	0.355
459	0.354
460	0.354
460	0.354
461	0.355
461	0.356
462	0.356
462	0.357
463	0.358
463	0.359
463	0.36
464	0.361
464	0.362
465	0.362
465	0.363
466	0.364
466	0.364
467	0.365
467	0.365
467	0.365
468	0.365
468	0.365
469	0.366
469	0.367
470	0.368
470	0.368
471	0.369
471	0.37
472	0.371
472	0.372
472	0.373
473	0.374
473	0.375
474	0.376
474	0.377
475	0.378
475	0.38
476	0.381
476	0.382
477	0.383
477	0.384
477	0.386
478	0.387
478	0.388
479	0.389
479	0.391
480	0.392
480	0.393
481	0.394
481	0.395
482	0.397
482	0.399
482	0.4
483	0.403
483	0.405
484	0.407
484	0.409
485	0.411
485	0.413
486	0.415
486	0.417
487	0.419
487	0.421
487	0.422
488	0.424
488	0.425
489	0.428
489	0.43
490	0.433
490	0.435
491	0.437
491	0.44
492	0.443
492	0.445
492	0.447
493	0.449
493	0.452
494	0.455
494	0.458
495	0.461
495	0.463
496	0.466
496	0.469
496	0.472
497	0.475
497	0.479
498	0.482
498	0.485
499	0.489
499	0.492
500	0.497
500	0.501
501	0.504
501	0.508
501	0.511
502	0.514
502	0.517
503	0.521
503	0.524
504	0.528
504	0.531
505	0.534
505	0.538
506	0.542
506	0.546
506	0.55
507	0.554
507	0.558
508	0.563
508	0.567
509	0.571
509	0.575
510	0.579
510	0.583
511	0.586
511	0.589
511	0.592
512	0.596
512	0.598
513	0.601
513	0.603
514	0.607
514	0.61
515	0.613
515	0.616
515	0.618
516	0.621
516	0.624
517	0.627
517	0.63
518	0.632
518	0.634
519	0.636
519	0.637
520	0.64
520	0.642
520	0.644
521	0.645
521	0.647
522	0.648
522	0.651
523	0.653
523	0.655
524	0.656
524	0.657
524	0.658
525	0.659
525	0.659
526	0.66
526	0.66
527	0.661
527	0.661
528	0.661
528	0.661
529	0.66
529	0.66
529	0.659
530	0.658
530	0.658
531	0.657
531	0.656
532	0.654
532	0.653
533	0.651
533	0.649
533	0.647
534	0.645
534	0.642
535	0.64
535	0.638
536	0.636
536	0.633
537	0.63
537	0.627
538	0.624
538	0.621
538	0.617
539	0.614
539	0.611
540	0.608
540	0.604
541	0.6
541	0.596
542	0.592
542	0.588
542	0.583
543	0.579
543	0.574
544	0.57
544	0.565
545	0.561
545	0.556
546	0.552
546	0.546
547	0.541
547	0.536
547	0.532
548	0.528
548	0.523
549	0.518
549	0.514
550	0.509
550	0.504
551	0.498
551	0.492
551	0.487
552	0.482
552	0.476
553	0.471
553	0.466
554	0.461
554	0.455
555	0.45
555	0.445
556	0.44
556	0.435
556	0.431
557	0.426
557	0.421
558	0.416
558	0.411
559	0.406
559	0.401
560	0.395
560	0.39
560	0.386
561	0.382
561	0.377
562	0.373
562	0.368
563	0.364
563	0.36
564	0.355
564	0.351
564	0.347
565	0.343
565	0.339
566	0.335
566	0.331
567	0.327
567	0.323
568	0.319
568	0.315
568	0.311
569	0.307
569	0.303
570	0.298
570	0.294
571	0.291
571	0.287
572	0.282
572	0.278
573	0.274
573	0.269
573	0.265
574	0.262
574	0.259
575	0.256
575	0.254
576	0.251
576	0.247
577	0.243
577	0.24
577	0.238
578	0.236
578	0.234
579	0.233
579	0.23
580	0.226
580	0.221
581	0.217
581	0.214
581	0.212
582	0.21
582	0.208
583	0.206
583	0.203
584	0.199
584	0.195
585	0.193
585	0.192
585	0.19
586	0.188
586	0.186
587	0.183
587	0.18
588	0.177
588	0.175
589	0.173
589	0.172
590	0.17
590	0.167
590	0.166
591	0.165
591	0.162
592	0.16
592	0.157
593	0.156
593	0.154
594	0.152
594	0.15
594	0.149
595	0.147
595	0.144
596	0.142
596	0.141
597	0.142
597	0.14
598	0.139
598	0.137
598	0.136
599	0.135
599	0.133
600	0.131
600	0.13
601	0.129
601	0.128
602	0.126
602	0.125
602	0.123
603	0.123
603	0.122
604	0.121
604	0.121
605	0.12
605	0.12
606	0.118
606	0.116
606	0.115
607	0.114
607	0.113
608	0.112
608	0.11
609	0.109
609	0.108
610	0.107
610	0.105
610	0.105
611	0.104
611	0.104
612	0.103
612	0.103
613	0.102
613	0.101
614	0.099
614	0.098
614	0.097
615	0.095
615	0.094
616	0.093
616	0.091
617	0.09
617	0.089
618	0.088
618	0.087
618	0.086
619	0.085
619	0.085
620	0.085
620	0.084
621	0.083
621	0.082
622	0.081
622	0.08
622	0.079
623	0.077
623	0.078
624	0.077
624	0.076
625	0.075
625	0.075
626	0.074
626	0.073
626	0.074
627	0.074
627	0.073
628	0.073
628	0.073
629	0.072
629	0.072
630	0.07
630	0.069
630	0.069
631	0.069
631	0.068
632	0.067
632	0.066
633	0.065
633	0.064
634	0.064
634	0.064
634	0.063
635	0.063
635	0.062
636	0.062
636	0.061
637	0.06
637	0.06
638	0.059
638	0.058
638	0.057
639	0.056
639	0.054
640	0.053
640	0.051
641	0.05
641	0.049
642	0.047
642	0.046
642	0.044
643	0.042
643	0.04
644	0.038
644	0.036
645	0.035
645	0.033
646	0.031
646	0.029
646	0.026
647	0.023
647	0.02
648	0.016
648	0.012
649	0.009
649	0.005
650	0.001
650	-0.003
650	-0.009
651	-0.014
651	-0.021
652	-0.028
652	-0.036
653	-0.043
653	-0.05
653	-0.046
654	-0.038
654	-0.042
655	-0.047
655	-0.051
656	-0.056
656	-0.062
657	-0.067
657	-0.071
657	-0.076
658	-0.081
658	-0.104
659	-0.162
659	-0.214
660	-0.24
660	-0.259
661	-0.28
661	-0.301
661	-0.323
662	-0.34
662	-0.358
663	-0.377
663	-0.398
664	-0.415
664	-0.437
665	-0.459
665	-0.481
665	-0.499
666	-0.52
666	-0.543
667	-0.566
667	-0.595
668	-0.621
668	-0.662
669	-0.699
669	-0.737
669	-0.784
670	-0.834
670	-0.929
671	-1.143
671	-1.523
672	-1.953
672	-2.256
672	-2.438
673	-2.523
673	-2.545
674	-2.562
674	-2.571
675	-2.586
675	-2.591
676	-2.591
676	-2.565
676	-2.481
677	-2.296
677	-1.962
678	-1.416
678	-1.079
679	-0.979
679	-0.929
680	-0.896
680	-0.875
680	-0.856
681	-0.853
681	-0.836
682	-0.831
682	-0.816
683	-0.799
683	-0.803
684	-0.798
684	-0.798
684	-0.794
685	-0.792
685	-0.8
686	-0.789
686	-0.788
687	-0.788
687	-0.787
687	-0.797
688	-0.789
688	-0.791
689	-0.802
689	-0.805
690	-0.798
690	-0.792
691	-0.795
691	-0.802
691	-0.808
692	-0.813
692	-0.814
693	-0.824
693	-0.839
694	-0.822
694	-0.825
695	-0.831
695	-0.828
695	-0.838
696	-0.848
696	-0.841
697	-0.838
697	-0.836
698	-0.832
698	-0.826
698	-0.842
699	-0.841
699	-0.843
700	-0.863
700	-0.859
701	-0.849
701	-0.844
702	-0.844
702	-0.844
702	-0.846
703	-0.836
703	-0.825
704	-0.835
704	-0.84
705	-0.83
705	-0.83
705	-0.825
706	-0.821
706	-0.818
707	-0.831
707	-0.836
708	-0.835
708	-0.832
709	-0.834
709	-0.83
709	-0.827
710	-0.834
710	-0.837
711	-0.835
711	-0.836
712	-0.825
712	-0.822
713	-0.826
713	-0.829
713	-0.806
714	-0.809
714	-0.813
715	-0.805
715	-0.813
716	-0.831
716	-0.842
716	-0.844
717	-0.851
717	-0.844
718	-0.84
718	-0.844
719	-0.839
719	-0.831
720	-0.825
720	-0.821
720	-0.814
721	-0.804
721	-0.809
722	-0.806
722	-0.805
723	-0.822
723	-0.835
723	-0.845
724	-0.845
724	-0.853
725	-0.846
725	-0.852
726	-0.855
726	-0.844
727	-0.848
727	-0.852
727	-0.842
728	-0.83
728	-0.826
729	-0.829
729	-0.83
730	-0.837
730	-0.829
730	-0.835
731	-0.84
731	-0.84
732	-0.845
732	-0.839
733	-0.853
733	-0.859
734	-0.867
734	-0.859
734	-0.84
735	-0.828
735	-0.824
736	-0.822
736	-0.816
737	-0.815
737	-0.805
737	-0.799
738	-0.783
738	-0.773
739	-0.777
739	-0.78
740	-0.795
740	-0.796
741	-0.808
741	-0.818
741	-0.827
742	-0.834
742	-0.85
743	-0.858
743	-0.861
744	-0.865
744	-0.872
744	-0.866
745	-0.872
745	-0.86
746	-0.855
746	-0.847
747	-0.85
747	-0.839
748	-0.84
748	-0.844
748	-0.845
749	-0.836
749	-0.844
750	-0.836
750	-0.836
751	-0.835
751	-0.832
751	-0.845
752	-0.849
752	-0.851
753	-0.85
753	-0.842
754	-0.863
754	-0.861
754	-0.869
755	-0.869
755	-0.862
756	-0.864
756	-0.849
757	-0.842
757	-0.831
758	-0.833
758	-0.834
758	-0.831
759	-0.836
759	-0.838
760	-0.836
760	-0.838
761	-0.832
761	-0.838
761	-0.838
762	-0.844
762	-0.845
763	-0.844
763	-0.847
764	-0.845
764	-0.84
764	-0.846
765	-0.845
765	-0.855
766	-0.858
766	-0.86
767	-0.874
767	-0.87
768	-0.868
768	-0.86
768	-0.857
769	-0.861
769	-0.87
770	-0.878
770	-0.881
771	-0.875
771	-0.873
771	-0.881
772	-0.885
772	-0.905
773	-0.905
773	-0.903
774	-0.9
774	-0.883
775	-0.87
775	-0.87
775	-0.873
776	-0.885
776	-0.878
777	-0.878
777	-0.863
778	-0.873
778	-0.883
778	-0.883
779	-0.892
779	-0.909
780	-0.904
780	-0.913
781	-0.901
781	-0.891
781	-0.904
782	-0.923
782	-0.923
783	-0.924
783	-0.932
784	-0.936
784	-0.929
784	-0.949
785	-0.943
785	-0.958
786	-0.964
786	-0.958
787	-0.949
787	-0.959
788	-0.952
788	-0.947
788	-0.948
789	-0.948
789	-0.937
790	-0.934
790	-0.919
791	-0.925
791	-0.921
791	-0.914
792	-0.907
792	-0.911
793	-0.912
793	-0.899
794	-0.892
794	-0.886
794	-0.894
795	-0.914
795	-0.9
796	-0.905
796	-0.902
797	-0.895
797	-0.886
797	-0.882
798	-0.903
798	-0.906
799	-0.906
799	-0.892
800	-0.887
800	-0.897
801	-0.896
801	-0.899
801	-0.897
802	-0.897
802	-0.895
803	-0.888
803	-0.881
804	-0.887
804	-0.896
804	-0.88
805	-0.859
805	-0.849
806	-0.85
806	-0.846
807	-0.847
807	-0.848
807	-0.833
808	-0.831
808	-0.823
809	-0.817
809	-0.816
810	-0.819
810	-0.816
810	-0.811
811	-0.815
811	-0.805
812	-0.798
812	-0.798
813	-0.802
813	-0.803
813	-0.799
814	-0.801
814	-0.808
815	-0.799
815	-0.796
816	-0.792
816	-0.809
817	-0.822
817	-0.826
817	-0.834
818	-0.828
818	-0.825
819	-0.835
819	-0.833
820	-0.844
820	-0.844
820	-0.842
821	-0.836
821	-0.832
822	-0.83
822	-0.818
823	-0.829
823	-0.829
823	-0.824
824	-0.821
824	-0.83
825	-0.827
825	-0.826
826	-0.821
826	-0.817
826	-0.817
827	-0.816
827	-0.806
828	-0.806
828	-0.798
829	-0.793
829	-0.781
829	-0.779
830	-0.777
830	-0.763
831	-0.757
831	-0.749
832	-0.74
832	-0.735
832	-0.727
833	-0.726
833	-0.731
834	-0.726
834	-0.721
835	-0.714
835	-0.714
835	-0.709
836	-0.703
836	-0.699
837	-0.69
837	-0.682
838	-0.671
838	-0.655
839	-0.649
839	-0.635
839	-0.626
840	-0.623
840	-0.613
841	-0.603
841	-0.595
842	-0.586
842	-0.575
842	-0.572
843	-0.567
843	-0.562
844	-0.561
844	-0.549
845	-0.536
845	-0.527
845	-0.516
846	-0.505
846	-0.494
847	-0.482
847	-0.47
848	-0.456
848	-0.44
848	-0.425
849	-0.413
849	-0.401
850	-0.39
850	-0.381
851	-0.369
851	-0.353
851	-0.343
852	-0.326
852	-0.315
853	-0.307
853	-0.297
854	-0.287
854	-0.276
854	-0.264
855	-0.252
855	-0.244
856	-0.237
856	-0.229
857	-0.222
857	-0.213
857	-0.2
858	-0.19
858	-0.183
859	-0.173
859	-0.163
860	-0.152
860	-0.138
860	-0.128
861	-0.118
861	-0.108
862	-0.101
862	-0.093
863	-0.085
863	-0.076
863	-0.069
864	-0.063
864	-0.056
865	-0.049
865	-0.044
866	-0.038
866	-0.032
866	-0.027
867	-0.021
867	-0.016
868	-0.012
868	-0.007
869	-0.003
869	0
869	0.002
870	0.005
870	0.007
871	0.009
871	0.01
872	0.011
872	0.012
872	0.013
873	0.013
873	0.012
874	0.012
874	0.012
875	0.012
875	0.011
875	0.011
876	0.011
876	0.011
877	0.011
877	0.011
878	0.01
878	0.01
878	0.01
879	0.01
879	0.01
880	0.009
880	0.008
881	0.006
881	0.005
881	0.004
882	0.002
882	0.001
883	-0.001
883	-0.002
884	-0.003
884	-0.003
884	-0.003
885	-0.003
885	-0.003
886	-0.003
886	-0.003
887	-0.003
887	-0.004
887	-0.004
888	-0.004
888	-0.005
889	-0.006
889	-0.007
890	-0.008
890	-0.009
890	-0.009
891	-0.009
891	-0.009
892	-0.008
892	-0.008
893	-0.008
893	-0.007
893	-0.007
894	-0.006
894	-0.006
895	-0.006
895	-0.006
895	-0.006
896	-0.006
896	-0.006
897	-0.006
897	-0.006
898	-0.006
898	-0.005
898	-0.005
899	-0.005
899	-0.004
900	-0.004
900	-0.004
901	-0.004
901	-0.005
901	-0.005
902	-0.005
902	-0.005
903	-0.005
903	-0.006
904	-0.006
904	-0.007
904	-0.007
905	-0.007
905	-0.007
906	-0.006
906	-0.006
907	-0.006
907	-0.005
907	-0.005
908	-0.004
908	-0.004
909	-0.003
909	-0.003
910	-0.002
910	-0.002
910	-0.001
911	-0.001
911	0
912	0.001
912	0.002
913	0.002
913	0.003
913	0.004
914	0.005
914	0.005
915	0.005
915	0.005
916	0.005
916	0.005
916	0.004
917	0.004
917	0.003
918	0.003
918	0.002
918	0.001
919	0.001
919	0.001
920	0.001
920	0.001
921	0.002
921	0.002
921	0.003
922	0.003
922	0.003
923	0.003
923	0.003
924	0.003
924	0.003
924	0.002
925	0.001
925	-0.001
926	-0.002
926	-0.003
927	-0.005
927	-0.006
927	-0.006
928	-0.007
928	-0.007
929	-0.007
929	-0.007
930	-0.006
930	-0.005
930	-0.004
931	-0.003
931	-0.002
932	-0.001
932	0
933	0.001
933	0.001
933	0.001
934	0.001
934	0.001
935	0
935	-0.001
935	-0.002
936	-0.003
936	-0.004
937	-0.005
937	-0.006
938	-0.007
938	-0.008
938	-0.008
939	-0.009
939	-0.01
940	-0.01
940	-0.011
941	-0.012
941	-0.012
941	-0.012
942	-0.012
942	-0.013
943	-0.012
943	-0.013
944	-0.013
944	-0.014
944	-0.014
945	-0.014
945	-0.014
946	-0.014
946	-0.015
946	-0.016
947	-0.016
947	-0.016
948	-0.015
948	-0.015
949	-0.014
949	-0.013
949	-0.011
950	-0.01
950	-0.008
951	-0.007
951	-0.005
952	-0.004
952	-0.003
952	-0.002
953	-0.002
953	-0.001
954	-0.001
954	-0.001
955	-0.001
955	-0.001
955	-0.002
956	-0.002
956	-0.003
957	-0.004
957	-0.005
957	-0.006
958	-0.006
958	-0.007
959	-0.008
959	-0.008
960	-0.009
960	-0.009
960	-0.009
961	-0.009
961	-0.008
962	-0.008
962	-0.008
963	-0.007
963	-0.007
963	-0.006
964	-0.006
964	-0.005
965	-0.005
965	-0.004
966	-0.004
966	-0.003
966	-0.002
967	-0.001
967	-0.001
968	-0.001
968	-0.001
968	-0.001
969	-0.001
969	-0.001
970	-0.002
970	-0.002
971	-0.002
971	-0.002
971	-0.002
972	-0.002
972	-0.002
973	-0.002
973	-0.002
974	-0.002
974	-0.002
974	-0.002
975	-0.002
975	-0.002
976	-0.002
976	-0.002
976	-0.003
977	-0.003
977	-0.004
978	-0.005
978	-0.005
979	-0.006
979	-0.006
979	-0.007
980	-0.007
980	-0.007
981	-0.008
981	-0.008
982	-0.008
982	-0.008
982	-0.008
983	-0.008
983	-0.008
984	-0.008
984	-0.008
984	-0.008
985	-0.008
985	-0.008
986	-0.009
986	-0.01
987	-0.011
987	-0.011
987	-0.012
988	-0.013
988	-0.013
989	-0.014
989	-0.015
990	-0.016
990	-0.017
990	-0.017
991	-0.018
991	-0.019
992	-0.019
992	-0.02
992	-0.021
993	-0.022
993	-0.023
994	-0.025
994	-0.026
995	-0.027
995	-0.028
995	-0.03
996	-0.031
996	-0.032
997	-0.033
997	-0.033
997	-0.034
998	-0.034
998	-0.033
999	-0.033
999	-0.033
1000	-0.033
1000	-0.032
1000	-0.031
1001	-0.03
1001	-0.029
1002	-0.028
1002	-0.028
1003	-0.027
1003	-0.027
1003	-0.026
1004	-0.026
1004	-0.026
1005	-0.026
1005	-0.026
1005	-0.026
1006	-0.027
1006	-0.028
1007	-0.028
1007	-0.029
1008	-0.03
1008	-0.031
1008	-0.031
1009	-0.031
1009	-0.031
1010	-0.03
1010	-0.03
1010	-0.029
1011	-0.029
1011	-0.028
1012	-0.027
1012	-0.026
1013	-0.025
1013	-0.024
1013	-0.023
1014	-0.023
1014	-0.022
1015	-0.021
1015	-0.021
1016	-0.021
1016	-0.021
1016	-0.021
1017	-0.021
1017	-0.021
1018	-0.021
1018	-0.022
1018	-0.022
1019	-0.022
1019	-0.022
1020	-0.022
1020	-0.023
1021	-0.023
1021	-0.024
1021	-0.024
1022	-0.024
1022	-0.025
1023	-0.025
1023	-0.025
1023	-0.025
1024	-0.025
1024	-0.025
1025	-0.025
1025	-0.025
1026	-0.025
1026	-0.025
1026	-0.025
1027	-0.025
1027	-0.025
1028	-0.024
1028	-0.024
1028	-0.023
1029	-0.024
1029	-0.023
1030	-0.023
1030	-0.024
1031	-0.023
1031	-0.023
1031	-0.023
1032	-0.023
1032	-0.023
1033	-0.023
1033	-0.024
1033	-0.024
1034	-0.025
1034	-0.025
1035	-0.026
1035	-0.026
1036	-0.027
1036	-0.028
1036	-0.029
1037	-0.029
1037	-0.029
1038	-0.029
1038	-0.029
1039	-0.029
1039	-0.029
1039	-0.028
1040	-0.028
1040	-0.028
1041	-0.028
1041	-0.028
1041	-0.028
1042	-0.029
1042	-0.029
1043	-0.029
1043	-0.03
1044	-0.03
1044	-0.031
1044	-0.032
1045	-0.032
1045	-0.032
1046	-0.033
1046	-0.033
1046	-0.033
1047	-0.033
1047	-0.033
1048	-0.033
1048	-0.033
1049	-0.033
1049	-0.033
1049	-0.033
1050	-0.034
1050	-0.035
1051	-0.036
1051	-0.037
1051	-0.038
1052	-0.039
1052	-0.039
1053	-0.04
1053	-0.04
1053	-0.04
1054	-0.041
1054	-0.041
1055	-0.041
1055	-0.04
1056	-0.04
1056	-0.04
1056	-0.04
1057	-0.04
1057	-0.04
1058	-0.04
1058	-0.041
1058	-0.04
1059	-0.04
1059	-0.041
1060	-0.041
1060	-0.041
1061	-0.042
1061	-0.042
1061	-0.042
1062	-0.042
1062	-0.042
1063	-0.042
1063	-0.043
1063	-0.043
1064	-0.043
1064	-0.043
1065	-0.042
1065	-0.043
1066	-0.043
1066	-0.043
1066	-0.044
1067	-0.044
1067	-0.045
1068	-0.046
1068	-0.046
1068	-0.048
1069	-0.049
1069	-0.05
1070	-0.05
1070	-0.051
1071	-0.051
1071	-0.051
1071	-0.052
1072	-0.052
1072	-0.052
1073	-0.052
1073	-0.052
1073	-0.052
1074	-0.052
1074	-0.053
1075	-0.053
1075	-0.053
1076	-0.054
1076	-0.055
1076	-0.056
1077	-0.056
1077	-0.057
1078	-0.058
1078	-0.058
1078	-0.058
1079	-0.059
1079	-0.059
1080	-0.06
1080	-0.061
1080	-0.062
1081	-0.064
1081	-0.064
1082	-0.065
1082	-0.066
1083	-0.068
1083	-0.069
1083	-0.071
1084	-0.072
1084	-0.073
1085	-0.074
1085	-0.075
1085	-0.076
1086	-0.077
1086	-0.078
1087	-0.079
1087	-0.079
1088	-0.08
1088	-0.081
1088	-0.081
1089	-0.082
1089	-0.083
1090	-0.084
1090	-0.084
1090	-0.085
1091	-0.086
1091	-0.086
1092	-0.087
1092	-0.087
1092	-0.087
1093	-0.088
1093	-0.088
1094	-0.089
1094	-0.09
1095	-0.092
1095	-0.092
1095	-0.093
1096	-0.095
1096	-0.097
1097	-0.098
1097	-0.1
1097	-0.102
1098	-0.104
1098	-0.107
1099	-0.108
1099	-0.11
1100	-0.112
1100	-0.114
1100	-0.117
1101	-0.12
1101	-0.122
1102	-0.124
1102	-0.126
1102	-0.127
1103	-0.13
1103	-0.133
1104	-0.137
1104	-0.14
1104	-0.141
1105	-0.143
1105	-0.146
1106	-0.15
1106	-0.152
1107	-0.158
1107	-0.163
1107	-0.168
1108	-0.17
1108	-0.171
1109	-0.175
1109	-0.18
1109	-0.184
1110	-0.186
1110	-0.193
1111	-0.203
1111	-0.2
