Data from 3.3A_17C_Absorbance__490__03357.txt Node

Date: Tue Jun 20 17:29:44 CEST 2023
User: Marek
Spectrometer: MAYP115816
Trigger mode: 0
Integration Time (sec): 2.200000E-1
Scans to average: 10
Electric dark correction enabled: true
Nonlinearity correction enabled: true
Boxcar width: 5
XAxis mode: Wavelengths
Number of Pixels in Spectrum: 2068
>>>>>Begin Spectral Data<<<<<
199	-0.791
199	-0.771
200	-0.744
200	-0.689
201	-0.661
201	-0.652
202	-0.637
202	-0.63
203	-0.63
203	-0.624
204	-0.604
204	-0.588
205	-0.566
205	-0.555
205	-0.564
206	-0.566
206	-0.563
207	-0.557
207	-0.562
208	-0.563
208	-0.568
209	-0.569
209	-0.576
210	-0.588
210	-0.595
211	-0.589
211	-0.594
212	-0.604
212	-0.611
213	-0.608
213	-0.604
213	-0.601
214	-0.609
214	-0.614
215	-0.612
215	-0.617
216	-0.624
216	-0.63
217	-0.626
217	-0.627
218	-0.636
218	-0.637
219	-0.644
219	-0.647
220	-0.648
220	-0.653
221	-0.654
221	-0.655
221	-0.645
222	-0.647
222	-0.646
223	-0.641
223	-0.642
224	-0.643
224	-0.641
225	-0.638
225	-0.64
226	-0.639
226	-0.639
227	-0.647
227	-0.656
228	-0.66
228	-0.669
229	-0.674
229	-0.671
229	-0.671
230	-0.666
230	-0.663
231	-0.66
231	-0.656
232	-0.658
232	-0.65
233	-0.649
233	-0.636
234	-0.637
234	-0.633
235	-0.637
235	-0.65
236	-0.658
236	-0.66
236	-0.659
237	-0.657
237	-0.658
238	-0.66
238	-0.662
239	-0.665
239	-0.675
240	-0.667
240	-0.663
241	-0.658
241	-0.66
242	-0.663
242	-0.671
243	-0.672
243	-0.674
243	-0.678
244	-0.672
244	-0.672
245	-0.675
245	-0.679
246	-0.69
246	-0.694
247	-0.702
247	-0.688
248	-0.689
248	-0.691
249	-0.699
249	-0.702
250	-0.702
250	-0.711
250	-0.707
251	-0.706
251	-0.702
252	-0.703
252	-0.715
253	-0.711
253	-0.722
254	-0.725
254	-0.724
255	-0.733
255	-0.731
256	-0.734
256	-0.746
257	-0.754
257	-0.752
258	-0.754
258	-0.762
258	-0.758
259	-0.753
259	-0.771
260	-0.77
260	-0.759
261	-0.769
261	-0.757
262	-0.763
262	-0.762
263	-0.751
263	-0.755
264	-0.765
264	-0.766
265	-0.757
265	-0.762
265	-0.773
266	-0.766
266	-0.764
267	-0.764
267	-0.78
268	-0.789
268	-0.781
269	-0.774
269	-0.788
270	-0.794
270	-0.792
271	-0.806
271	-0.814
272	-0.816
272	-0.819
272	-0.813
273	-0.824
273	-0.84
274	-0.831
274	-0.826
275	-0.824
275	-0.813
276	-0.815
276	-0.823
277	-0.825
277	-0.822
278	-0.827
278	-0.825
278	-0.813
279	-0.82
279	-0.834
280	-0.835
280	-0.844
281	-0.839
281	-0.828
282	-0.833
282	-0.827
283	-0.819
283	-0.833
284	-0.849
284	-0.86
285	-0.838
285	-0.844
285	-0.835
286	-0.841
286	-0.857
287	-0.855
287	-0.854
288	-0.854
288	-0.835
289	-0.835
289	-0.842
290	-0.854
290	-0.84
291	-0.846
291	-0.843
292	-0.825
292	-0.821
292	-0.826
293	-0.814
293	-0.81
294	-0.809
294	-0.795
295	-0.778
295	-0.791
296	-0.802
296	-0.796
297	-0.783
297	-0.787
298	-0.783
298	-0.799
298	-0.803
299	-0.784
299	-0.776
300	-0.772
300	-0.752
301	-0.734
301	-0.736
302	-0.747
302	-0.734
303	-0.727
303	-0.717
304	-0.701
304	-0.703
305	-0.698
305	-0.706
305	-0.723
306	-0.707
306	-0.706
307	-0.696
307	-0.707
308	-0.708
308	-0.702
309	-0.703
309	-0.699
310	-0.695
310	-0.689
311	-0.674
311	-0.693
311	-0.682
312	-0.68
312	-0.67
313	-0.663
313	-0.666
314	-0.669
314	-0.667
315	-0.662
315	-0.658
316	-0.654
316	-0.643
317	-0.634
317	-0.63
318	-0.621
318	-0.616
318	-0.607
319	-0.597
319	-0.588
320	-0.587
320	-0.583
321	-0.577
321	-0.578
322	-0.572
322	-0.566
323	-0.566
323	-0.557
324	-0.556
324	-0.544
324	-0.533
325	-0.517
325	-0.5
326	-0.492
326	-0.467
327	-0.453
327	-0.43
328	-0.398
328	-0.375
329	-0.346
329	-0.319
330	-0.292
330	-0.255
330	-0.219
331	-0.18
331	-0.145
332	-0.11
332	-0.076
333	-0.044
333	-0.01
334	0.022
334	0.05
335	0.077
335	0.099
336	0.122
336	0.143
336	0.161
337	0.18
337	0.197
338	0.211
338	0.223
339	0.237
339	0.248
340	0.257
340	0.266
341	0.273
341	0.279
342	0.288
342	0.294
342	0.299
343	0.303
343	0.309
344	0.311
344	0.315
345	0.319
345	0.321
346	0.323
346	0.325
347	0.327
347	0.328
348	0.329
348	0.332
348	0.332
349	0.333
349	0.334
350	0.334
350	0.335
351	0.336
351	0.336
352	0.336
352	0.336
353	0.337
353	0.337
354	0.337
354	0.337
354	0.337
355	0.337
355	0.337
356	0.337
356	0.337
357	0.338
357	0.339
358	0.338
358	0.339
359	0.338
359	0.338
360	0.338
360	0.338
360	0.338
361	0.338
361	0.338
362	0.337
362	0.337
363	0.337
363	0.337
364	0.337
364	0.337
365	0.337
365	0.337
366	0.337
366	0.337
366	0.337
367	0.337
367	0.336
368	0.336
368	0.336
369	0.335
369	0.335
370	0.335
370	0.335
371	0.335
371	0.335
372	0.334
372	0.334
372	0.334
373	0.334
373	0.334
374	0.334
374	0.333
375	0.333
375	0.333
376	0.332
376	0.332
377	0.332
377	0.332
378	0.331
378	0.331
378	0.331
379	0.331
379	0.33
380	0.33
380	0.33
381	0.33
381	0.33
382	0.33
382	0.329
383	0.329
383	0.329
383	0.329
384	0.328
384	0.328
385	0.327
385	0.327
386	0.327
386	0.326
387	0.326
387	0.326
388	0.326
388	0.326
389	0.325
389	0.325
389	0.325
390	0.325
390	0.325
391	0.325
391	0.324
392	0.324
392	0.324
393	0.323
393	0.323
394	0.323
394	0.322
394	0.322
395	0.321
395	0.321
396	0.32
396	0.32
397	0.32
397	0.32
398	0.319
398	0.319
399	0.319
399	0.318
400	0.318
400	0.318
400	0.318
401	0.317
401	0.317
402	0.317
402	0.317
403	0.317
403	0.316
404	0.316
404	0.316
405	0.315
405	0.315
405	0.315
406	0.315
406	0.315
407	0.314
407	0.314
408	0.314
408	0.314
409	0.313
409	0.313
410	0.313
410	0.313
411	0.313
411	0.312
411	0.312
412	0.312
412	0.312
413	0.311
413	0.311
414	0.311
414	0.311
415	0.311
415	0.31
416	0.31
416	0.31
416	0.309
417	0.309
417	0.309
418	0.309
418	0.308
419	0.308
419	0.308
420	0.308
420	0.308
421	0.308
421	0.308
421	0.308
422	0.308
422	0.308
423	0.307
423	0.307
424	0.307
424	0.307
425	0.307
425	0.307
426	0.307
426	0.307
427	0.307
427	0.307
427	0.307
428	0.307
428	0.307
429	0.306
429	0.306
430	0.306
430	0.306
431	0.305
431	0.305
432	0.305
432	0.304
432	0.304
433	0.303
433	0.304
434	0.304
434	0.304
435	0.304
435	0.304
436	0.304
436	0.304
437	0.304
437	0.304
437	0.304
438	0.304
438	0.304
439	0.304
439	0.304
440	0.303
440	0.303
441	0.303
441	0.303
442	0.303
442	0.303
442	0.302
443	0.302
443	0.302
444	0.302
444	0.302
445	0.302
445	0.302
446	0.302
446	0.302
447	0.302
447	0.302
447	0.302
448	0.302
448	0.302
449	0.302
449	0.302
450	0.302
450	0.302
451	0.302
451	0.302
452	0.302
452	0.302
452	0.303
453	0.303
453	0.303
454	0.303
454	0.303
455	0.303
455	0.303
456	0.303
456	0.303
457	0.303
457	0.303
458	0.303
458	0.303
458	0.303
459	0.303
459	0.302
460	0.302
460	0.302
461	0.302
461	0.302
462	0.303
462	0.303
463	0.304
463	0.305
463	0.305
464	0.306
464	0.306
465	0.307
465	0.307
466	0.308
466	0.308
467	0.308
467	0.308
467	0.308
468	0.308
468	0.308
469	0.308
469	0.308
470	0.309
470	0.309
471	0.31
471	0.31
472	0.31
472	0.311
472	0.312
473	0.313
473	0.314
474	0.314
474	0.315
475	0.316
475	0.317
476	0.317
476	0.318
477	0.319
477	0.32
477	0.321
478	0.321
478	0.322
479	0.323
479	0.324
480	0.324
480	0.325
481	0.326
481	0.326
482	0.328
482	0.329
482	0.33
483	0.331
483	0.333
484	0.334
484	0.335
485	0.336
485	0.337
486	0.338
486	0.34
487	0.341
487	0.342
487	0.343
488	0.344
488	0.345
489	0.347
489	0.349
490	0.35
490	0.351
491	0.353
491	0.355
492	0.356
492	0.357
492	0.359
493	0.36
493	0.362
494	0.364
494	0.366
495	0.368
495	0.37
496	0.371
496	0.373
496	0.376
497	0.378
497	0.38
498	0.382
498	0.384
499	0.386
499	0.388
500	0.391
500	0.394
501	0.397
501	0.399
501	0.401
502	0.403
502	0.405
503	0.408
503	0.41
504	0.412
504	0.415
505	0.417
505	0.42
506	0.422
506	0.425
506	0.428
507	0.431
507	0.434
508	0.437
508	0.439
509	0.442
509	0.445
510	0.448
510	0.45
511	0.452
511	0.455
511	0.457
512	0.459
512	0.461
513	0.463
513	0.465
514	0.467
514	0.469
515	0.471
515	0.473
515	0.475
516	0.478
516	0.48
517	0.483
517	0.485
518	0.486
518	0.487
519	0.489
519	0.49
520	0.492
520	0.493
520	0.495
521	0.496
521	0.497
522	0.498
522	0.5
523	0.502
523	0.504
524	0.504
524	0.505
524	0.506
525	0.508
525	0.508
526	0.509
526	0.51
527	0.511
527	0.511
528	0.511
528	0.511
529	0.511
529	0.511
529	0.511
530	0.511
530	0.511
531	0.511
531	0.511
532	0.51
532	0.51
533	0.509
533	0.509
533	0.508
534	0.507
534	0.506
535	0.505
535	0.505
536	0.504
536	0.503
537	0.502
537	0.5
538	0.499
538	0.497
538	0.496
539	0.495
539	0.493
540	0.492
540	0.49
541	0.487
541	0.486
542	0.484
542	0.482
542	0.48
543	0.477
543	0.475
544	0.473
544	0.471
545	0.469
545	0.467
546	0.465
546	0.462
547	0.459
547	0.456
547	0.454
548	0.452
548	0.45
549	0.447
549	0.445
550	0.442
550	0.439
551	0.436
551	0.434
551	0.432
552	0.429
552	0.427
553	0.424
553	0.422
554	0.42
554	0.416
555	0.414
555	0.411
556	0.409
556	0.406
556	0.403
557	0.401
557	0.399
558	0.396
558	0.394
559	0.391
559	0.389
560	0.387
560	0.384
560	0.382
561	0.38
561	0.378
562	0.376
562	0.374
563	0.372
563	0.37
564	0.367
564	0.366
564	0.364
565	0.362
565	0.361
566	0.358
566	0.357
567	0.355
567	0.354
568	0.352
568	0.35
568	0.348
569	0.346
569	0.344
570	0.341
570	0.338
571	0.337
571	0.335
572	0.333
572	0.33
573	0.328
573	0.326
573	0.323
574	0.322
574	0.32
575	0.319
575	0.319
576	0.318
576	0.316
577	0.313
577	0.312
577	0.311
578	0.311
578	0.31
579	0.31
579	0.309
580	0.306
580	0.303
581	0.3
581	0.299
581	0.298
582	0.297
582	0.296
583	0.296
583	0.294
584	0.29
584	0.288
585	0.287
585	0.287
585	0.286
586	0.285
586	0.284
587	0.282
587	0.28
588	0.278
588	0.277
589	0.276
589	0.275
590	0.274
590	0.273
590	0.274
591	0.273
591	0.271
592	0.27
592	0.268
593	0.267
593	0.266
594	0.264
594	0.263
594	0.262
595	0.261
595	0.259
596	0.257
596	0.257
597	0.258
597	0.257
598	0.256
598	0.256
598	0.255
599	0.254
599	0.253
600	0.252
600	0.251
601	0.251
601	0.25
602	0.248
602	0.247
602	0.246
603	0.246
603	0.246
604	0.245
604	0.245
605	0.245
605	0.244
606	0.243
606	0.241
606	0.24
607	0.239
607	0.239
608	0.238
608	0.236
609	0.235
609	0.235
610	0.233
610	0.232
610	0.231
611	0.231
611	0.231
612	0.23
612	0.23
613	0.229
613	0.229
614	0.227
614	0.225
614	0.224
615	0.223
615	0.221
616	0.221
616	0.219
617	0.218
617	0.217
618	0.215
618	0.214
618	0.213
619	0.212
619	0.212
620	0.213
620	0.212
621	0.21
621	0.209
622	0.208
622	0.207
622	0.205
623	0.204
623	0.204
624	0.203
624	0.201
625	0.2
625	0.199
626	0.198
626	0.197
626	0.196
627	0.196
627	0.195
628	0.194
628	0.193
629	0.192
629	0.19
630	0.188
630	0.186
630	0.185
631	0.183
631	0.181
632	0.179
632	0.177
633	0.174
633	0.172
634	0.17
634	0.169
634	0.167
635	0.165
635	0.163
636	0.16
636	0.158
637	0.155
637	0.151
638	0.149
638	0.146
638	0.142
639	0.138
639	0.133
640	0.129
640	0.125
641	0.121
641	0.117
642	0.113
642	0.109
642	0.104
643	0.099
643	0.094
644	0.089
644	0.084
645	0.079
645	0.074
646	0.068
646	0.062
646	0.055
647	0.049
647	0.042
648	0.035
648	0.028
649	0.02
649	0.013
650	0.006
650	-0.002
650	-0.01
651	-0.02
651	-0.032
652	-0.045
652	-0.06
653	-0.072
653	-0.083
653	-0.078
654	-0.058
654	-0.052
655	-0.057
655	-0.062
656	-0.068
656	-0.074
657	-0.079
657	-0.084
657	-0.09
658	-0.097
658	-0.128
659	-0.214
659	-0.304
660	-0.343
660	-0.369
661	-0.396
661	-0.426
661	-0.456
662	-0.485
662	-0.516
663	-0.55
663	-0.588
664	-0.625
664	-0.664
665	-0.709
665	-0.755
665	-0.8
666	-0.849
666	-0.904
667	-0.958
667	-1.02
668	-1.079
668	-1.148
669	-1.217
669	-1.292
669	-1.372
670	-1.457
670	-1.576
671	-1.781
671	-2.152
672	-2.364
672	-2.512
672	-2.624
673	-2.715
673	-2.791
674	-2.835
674	-2.849
675	-2.864
675	-2.866
676	-2.858
676	-2.794
676	-2.72
677	-2.628
677	-2.515
678	-2.342
678	-2.028
679	-1.704
679	-1.558
680	-1.461
680	-1.388
680	-1.325
681	-1.279
681	-1.229
682	-1.189
682	-1.147
683	-1.107
683	-1.084
684	-1.058
684	-1.04
684	-1.019
685	-0.999
685	-0.991
686	-0.969
686	-0.955
687	-0.947
687	-0.937
687	-0.937
688	-0.922
688	-0.916
689	-0.92
689	-0.919
690	-0.905
690	-0.893
691	-0.89
691	-0.895
691	-0.895
692	-0.896
692	-0.893
693	-0.9
693	-0.91
694	-0.889
694	-0.888
695	-0.891
695	-0.885
695	-0.893
696	-0.898
696	-0.89
697	-0.884
697	-0.88
698	-0.875
698	-0.866
698	-0.88
699	-0.878
699	-0.879
700	-0.9
700	-0.894
701	-0.881
701	-0.875
702	-0.877
702	-0.876
702	-0.877
703	-0.867
703	-0.857
704	-0.864
704	-0.867
705	-0.857
705	-0.856
705	-0.853
706	-0.845
706	-0.84
707	-0.851
707	-0.854
708	-0.851
708	-0.848
709	-0.849
709	-0.848
709	-0.843
710	-0.852
710	-0.853
711	-0.854
711	-0.856
712	-0.847
712	-0.846
713	-0.851
713	-0.852
713	-0.833
714	-0.833
714	-0.837
715	-0.826
715	-0.835
716	-0.851
716	-0.859
716	-0.86
717	-0.865
717	-0.857
718	-0.852
718	-0.852
719	-0.848
719	-0.839
720	-0.834
720	-0.829
720	-0.823
721	-0.813
721	-0.816
722	-0.814
722	-0.811
723	-0.829
723	-0.842
723	-0.851
724	-0.851
724	-0.856
725	-0.851
725	-0.853
726	-0.858
726	-0.849
727	-0.853
727	-0.858
727	-0.849
728	-0.835
728	-0.832
729	-0.834
729	-0.839
730	-0.842
730	-0.835
730	-0.841
731	-0.844
731	-0.844
732	-0.846
732	-0.84
733	-0.855
733	-0.861
734	-0.87
734	-0.861
734	-0.846
735	-0.837
735	-0.829
736	-0.828
736	-0.82
737	-0.82
737	-0.81
737	-0.802
738	-0.787
738	-0.773
739	-0.774
739	-0.774
740	-0.787
740	-0.788
741	-0.799
741	-0.809
741	-0.819
742	-0.826
742	-0.842
743	-0.849
743	-0.852
744	-0.856
744	-0.865
744	-0.858
745	-0.868
745	-0.857
746	-0.853
746	-0.844
747	-0.847
747	-0.837
748	-0.838
748	-0.843
748	-0.844
749	-0.836
749	-0.842
750	-0.832
750	-0.833
751	-0.832
751	-0.83
751	-0.842
752	-0.846
752	-0.85
753	-0.851
753	-0.841
754	-0.86
754	-0.859
754	-0.867
755	-0.865
755	-0.857
756	-0.858
756	-0.844
757	-0.837
757	-0.825
758	-0.826
758	-0.827
758	-0.824
759	-0.829
759	-0.83
760	-0.828
760	-0.83
761	-0.825
761	-0.827
761	-0.827
762	-0.833
762	-0.835
763	-0.835
763	-0.84
764	-0.839
764	-0.834
764	-0.841
765	-0.842
765	-0.847
766	-0.852
766	-0.853
767	-0.869
767	-0.863
768	-0.862
768	-0.853
768	-0.849
769	-0.852
769	-0.861
770	-0.871
770	-0.876
771	-0.87
771	-0.871
771	-0.875
772	-0.881
772	-0.902
773	-0.903
773	-0.905
774	-0.903
774	-0.885
775	-0.87
775	-0.87
775	-0.875
776	-0.885
776	-0.883
777	-0.882
777	-0.865
778	-0.875
778	-0.882
778	-0.881
779	-0.891
779	-0.907
780	-0.902
780	-0.91
781	-0.901
781	-0.89
781	-0.905
782	-0.925
782	-0.927
783	-0.927
783	-0.936
784	-0.94
784	-0.933
784	-0.954
785	-0.947
785	-0.959
786	-0.963
786	-0.956
787	-0.945
787	-0.953
788	-0.945
788	-0.939
788	-0.941
789	-0.942
789	-0.931
790	-0.931
790	-0.914
791	-0.921
791	-0.914
791	-0.907
792	-0.899
792	-0.903
793	-0.904
793	-0.891
794	-0.883
794	-0.876
794	-0.883
795	-0.903
795	-0.889
796	-0.895
796	-0.89
797	-0.884
797	-0.876
797	-0.869
798	-0.89
798	-0.894
799	-0.894
799	-0.88
800	-0.875
800	-0.883
801	-0.879
801	-0.884
801	-0.882
802	-0.882
802	-0.882
803	-0.877
803	-0.87
804	-0.876
804	-0.884
804	-0.866
805	-0.848
805	-0.842
806	-0.842
806	-0.837
807	-0.838
807	-0.836
807	-0.82
808	-0.816
808	-0.807
809	-0.801
809	-0.803
810	-0.806
810	-0.802
810	-0.798
811	-0.803
811	-0.794
812	-0.788
812	-0.79
813	-0.794
813	-0.796
813	-0.792
814	-0.794
814	-0.799
815	-0.79
815	-0.786
816	-0.782
816	-0.799
817	-0.812
817	-0.816
817	-0.824
818	-0.817
818	-0.814
819	-0.822
819	-0.819
820	-0.83
820	-0.829
820	-0.828
821	-0.822
821	-0.817
822	-0.816
822	-0.803
823	-0.814
823	-0.814
823	-0.807
824	-0.806
824	-0.817
825	-0.816
825	-0.812
826	-0.807
826	-0.802
826	-0.803
827	-0.805
827	-0.794
828	-0.793
828	-0.788
829	-0.782
829	-0.766
829	-0.764
830	-0.763
830	-0.75
831	-0.743
831	-0.732
832	-0.723
832	-0.72
832	-0.714
833	-0.713
833	-0.719
834	-0.716
834	-0.711
835	-0.704
835	-0.702
835	-0.698
836	-0.694
836	-0.689
837	-0.677
837	-0.667
838	-0.654
838	-0.636
839	-0.63
839	-0.616
839	-0.605
840	-0.605
840	-0.593
841	-0.582
841	-0.576
842	-0.567
842	-0.556
842	-0.552
843	-0.55
843	-0.544
844	-0.541
844	-0.528
845	-0.515
845	-0.506
845	-0.494
846	-0.483
846	-0.473
847	-0.463
847	-0.449
848	-0.432
848	-0.416
848	-0.402
849	-0.391
849	-0.378
850	-0.367
850	-0.357
851	-0.343
851	-0.326
851	-0.316
852	-0.301
852	-0.289
853	-0.281
853	-0.269
854	-0.259
854	-0.249
854	-0.236
855	-0.224
855	-0.216
856	-0.209
856	-0.2
857	-0.19
857	-0.182
857	-0.168
858	-0.156
858	-0.148
859	-0.136
859	-0.124
860	-0.114
860	-0.099
860	-0.089
861	-0.078
861	-0.069
862	-0.06
862	-0.052
863	-0.043
863	-0.033
863	-0.027
864	-0.022
864	-0.014
865	-0.007
865	-0.001
866	0.006
866	0.012
866	0.017
867	0.023
867	0.028
868	0.033
868	0.038
869	0.043
869	0.046
869	0.049
870	0.052
870	0.054
871	0.056
871	0.058
872	0.058
872	0.059
872	0.06
873	0.06
873	0.06
874	0.059
874	0.058
875	0.058
875	0.058
875	0.057
876	0.057
876	0.057
877	0.056
877	0.055
878	0.055
878	0.054
878	0.054
879	0.054
879	0.053
880	0.052
880	0.051
881	0.05
881	0.048
881	0.047
882	0.046
882	0.044
883	0.043
883	0.041
884	0.041
884	0.04
884	0.04
885	0.039
885	0.039
886	0.039
886	0.039
887	0.039
887	0.038
887	0.038
888	0.038
888	0.037
889	0.036
889	0.035
890	0.034
890	0.034
890	0.033
891	0.033
891	0.033
892	0.034
892	0.034
893	0.034
893	0.034
893	0.035
894	0.036
894	0.036
895	0.036
895	0.036
895	0.037
896	0.037
896	0.037
897	0.037
897	0.037
898	0.037
898	0.037
898	0.037
899	0.038
899	0.038
900	0.038
900	0.038
901	0.037
901	0.037
901	0.036
902	0.036
902	0.036
903	0.036
903	0.035
904	0.034
904	0.034
904	0.034
905	0.034
905	0.034
906	0.035
906	0.036
907	0.036
907	0.037
907	0.038
908	0.039
908	0.04
909	0.04
909	0.04
910	0.041
910	0.041
910	0.041
911	0.042
911	0.042
912	0.043
912	0.044
913	0.044
913	0.044
913	0.045
914	0.046
914	0.046
915	0.046
915	0.046
916	0.045
916	0.045
916	0.044
917	0.044
917	0.043
918	0.042
918	0.041
918	0.04
919	0.04
919	0.039
920	0.039
920	0.039
921	0.04
921	0.04
921	0.04
922	0.04
922	0.04
923	0.04
923	0.04
924	0.04
924	0.039
924	0.038
925	0.037
925	0.036
926	0.035
926	0.033
927	0.032
927	0.031
927	0.03
928	0.029
928	0.029
929	0.029
929	0.03
930	0.03
930	0.031
930	0.032
931	0.033
931	0.034
932	0.035
932	0.036
933	0.037
933	0.038
933	0.038
934	0.037
934	0.037
935	0.037
935	0.036
935	0.035
936	0.033
936	0.032
937	0.031
937	0.03
938	0.03
938	0.029
938	0.028
939	0.027
939	0.027
940	0.026
940	0.025
941	0.025
941	0.024
941	0.024
942	0.023
942	0.023
943	0.023
943	0.023
944	0.022
944	0.022
944	0.022
945	0.022
945	0.021
946	0.02
946	0.019
946	0.019
947	0.019
947	0.019
948	0.019
948	0.02
949	0.021
949	0.022
949	0.023
950	0.025
950	0.027
951	0.028
951	0.029
952	0.03
952	0.031
952	0.032
953	0.032
953	0.033
954	0.033
954	0.033
955	0.033
955	0.032
955	0.032
956	0.032
956	0.032
957	0.031
957	0.03
957	0.029
958	0.029
958	0.028
959	0.027
959	0.027
960	0.026
960	0.026
960	0.026
961	0.026
961	0.026
962	0.027
962	0.027
963	0.027
963	0.028
963	0.029
964	0.029
964	0.03
965	0.031
965	0.031
966	0.032
966	0.033
966	0.033
967	0.034
967	0.034
968	0.034
968	0.034
968	0.034
969	0.034
969	0.033
970	0.033
970	0.032
971	0.032
971	0.031
971	0.031
972	0.032
972	0.031
973	0.031
973	0.031
974	0.031
974	0.031
974	0.031
975	0.031
975	0.031
976	0.03
976	0.03
976	0.03
977	0.029
977	0.028
978	0.027
978	0.026
979	0.026
979	0.025
979	0.024
980	0.024
980	0.023
981	0.023
981	0.023
982	0.022
982	0.022
982	0.022
983	0.022
983	0.022
984	0.022
984	0.022
984	0.022
985	0.022
985	0.022
986	0.021
986	0.02
987	0.02
987	0.019
987	0.019
988	0.018
988	0.018
989	0.017
989	0.017
990	0.016
990	0.015
990	0.015
991	0.014
991	0.014
992	0.013
992	0.012
992	0.011
993	0.01
993	0.009
994	0.008
994	0.006
995	0.005
995	0.004
995	0.003
996	0.001
996	0
997	-0.001
997	-0.001
997	-0.002
998	-0.002
998	-0.001
999	-0.001
999	-0.001
1000	-0
1000	0
1000	0.001
1001	0.002
1001	0.002
1002	0.003
1002	0.004
1003	0.004
1003	0.004
1003	0.005
1004	0.005
1004	0.005
1005	0.005
1005	0.005
1005	0.004
1006	0.003
1006	0.002
1007	0.002
1007	0.001
1008	-0
1008	-0.001
1008	-0.002
1009	-0.002
1009	-0.002
1010	-0.002
1010	-0.002
1010	-0.001
1011	-0.001
1011	0
1012	0.001
1012	0.003
1013	0.004
1013	0.005
1013	0.006
1014	0.007
1014	0.007
1015	0.008
1015	0.009
1016	0.009
1016	0.009
1016	0.009
1017	0.009
1017	0.008
1018	0.009
1018	0.008
1018	0.008
1019	0.008
1019	0.007
1020	0.007
1020	0.006
1021	0.006
1021	0.006
1021	0.006
1022	0.005
1022	0.005
1023	0.005
1023	0.005
1023	0.005
1024	0.005
1024	0.005
1025	0.004
1025	0.004
1026	0.005
1026	0.005
1026	0.004
1027	0.004
1027	0.005
1028	0.005
1028	0.005
1028	0.005
1029	0.005
1029	0.006
1030	0.005
1030	0.005
1031	0.005
1031	0.006
1031	0.006
1032	0.006
1032	0.005
1033	0.005
1033	0.004
1033	0.004
1034	0.003
1034	0.003
1035	0.002
1035	0.001
1036	-0
1036	-0.001
1036	-0.001
1037	-0.002
1037	-0.002
1038	-0.002
1038	-0.002
1039	-0.002
1039	-0.002
1039	-0.001
1040	-0.001
1040	-0
1041	-0
1041	-0
1041	-0.001
1042	-0.001
1042	-0.002
1043	-0.002
1043	-0.003
1044	-0.004
1044	-0.005
1044	-0.005
1045	-0.006
1045	-0.006
1046	-0.007
1046	-0.007
1046	-0.007
1047	-0.007
1047	-0.007
1048	-0.007
1048	-0.007
1049	-0.007
1049	-0.008
1049	-0.008
1050	-0.009
1050	-0.01
1051	-0.011
1051	-0.012
1051	-0.012
1052	-0.013
1052	-0.014
1053	-0.015
1053	-0.015
1053	-0.016
1054	-0.016
1054	-0.016
1055	-0.016
1055	-0.015
1056	-0.015
1056	-0.015
1056	-0.015
1057	-0.016
1057	-0.016
1058	-0.016
1058	-0.016
1058	-0.016
1059	-0.016
1059	-0.016
1060	-0.017
1060	-0.017
1061	-0.018
1061	-0.018
1061	-0.017
1062	-0.018
1062	-0.018
1063	-0.018
1063	-0.018
1063	-0.018
1064	-0.018
1064	-0.018
1065	-0.018
1065	-0.018
1066	-0.019
1066	-0.019
1066	-0.02
1067	-0.02
1067	-0.021
1068	-0.022
1068	-0.023
1068	-0.023
1069	-0.024
1069	-0.026
1070	-0.026
1070	-0.027
1071	-0.027
1071	-0.027
1071	-0.027
1072	-0.027
1072	-0.027
1073	-0.027
1073	-0.027
1073	-0.028
1074	-0.028
1074	-0.028
1075	-0.029
1075	-0.029
1076	-0.03
1076	-0.031
1076	-0.032
1077	-0.033
1077	-0.033
1078	-0.034
1078	-0.035
1078	-0.035
1079	-0.036
1079	-0.036
1080	-0.037
1080	-0.038
1080	-0.039
1081	-0.04
1081	-0.041
1082	-0.042
1082	-0.043
1083	-0.045
1083	-0.046
1083	-0.047
1084	-0.049
1084	-0.05
1085	-0.051
1085	-0.052
1085	-0.053
1086	-0.054
1086	-0.055
1087	-0.056
1087	-0.056
1088	-0.057
1088	-0.058
1088	-0.059
1089	-0.06
1089	-0.06
1090	-0.061
1090	-0.062
1090	-0.063
1091	-0.064
1091	-0.063
1092	-0.064
1092	-0.063
1092	-0.064
1093	-0.065
1093	-0.065
1094	-0.065
1094	-0.066
1095	-0.068
1095	-0.068
1095	-0.068
1096	-0.07
1096	-0.072
1097	-0.074
1097	-0.076
1097	-0.078
1098	-0.08
1098	-0.082
1099	-0.084
1099	-0.085
1100	-0.087
1100	-0.09
1100	-0.093
1101	-0.096
1101	-0.099
1102	-0.101
1102	-0.103
1102	-0.105
1103	-0.107
1103	-0.11
1104	-0.113
1104	-0.116
1104	-0.118
1105	-0.119
1105	-0.123
1106	-0.128
1106	-0.13
1107	-0.136
1107	-0.141
1107	-0.146
1108	-0.148
1108	-0.15
1109	-0.154
1109	-0.159
1109	-0.164
1110	-0.165
1110	-0.169
1111	-0.179
1111	-0.173
