Data from 3.3A_17C_Absorbance__349__03216.txt Node

Date: Tue Jun 20 17:24:34 CEST 2023
User: Marek
Spectrometer: MAYP115816
Trigger mode: 0
Integration Time (sec): 2.200000E-1
Scans to average: 10
Electric dark correction enabled: true
Nonlinearity correction enabled: true
Boxcar width: 5
XAxis mode: Wavelengths
Number of Pixels in Spectrum: 2068
>>>>>Begin Spectral Data<<<<<
199	-0.813
199	-0.797
200	-0.758
200	-0.702
201	-0.669
201	-0.661
202	-0.646
202	-0.639
203	-0.637
203	-0.63
204	-0.609
204	-0.593
205	-0.569
205	-0.56
205	-0.569
206	-0.573
206	-0.567
207	-0.559
207	-0.565
208	-0.567
208	-0.574
209	-0.576
209	-0.581
210	-0.592
210	-0.599
211	-0.592
211	-0.596
212	-0.606
212	-0.613
213	-0.61
213	-0.606
213	-0.603
214	-0.608
214	-0.609
215	-0.607
215	-0.612
216	-0.621
216	-0.626
217	-0.623
217	-0.624
218	-0.632
218	-0.632
219	-0.64
219	-0.643
220	-0.648
220	-0.655
221	-0.657
221	-0.656
221	-0.649
222	-0.65
222	-0.648
223	-0.643
223	-0.645
224	-0.645
224	-0.642
225	-0.64
225	-0.64
226	-0.641
226	-0.642
227	-0.65
227	-0.658
228	-0.662
228	-0.672
229	-0.677
229	-0.676
229	-0.676
230	-0.671
230	-0.671
231	-0.668
231	-0.66
232	-0.663
232	-0.658
233	-0.657
233	-0.646
234	-0.646
234	-0.641
235	-0.645
235	-0.656
236	-0.662
236	-0.663
236	-0.663
237	-0.66
237	-0.661
238	-0.662
238	-0.664
239	-0.665
239	-0.675
240	-0.667
240	-0.664
241	-0.66
241	-0.662
242	-0.667
242	-0.674
243	-0.675
243	-0.676
243	-0.681
244	-0.677
244	-0.679
245	-0.684
245	-0.687
246	-0.697
246	-0.698
247	-0.708
247	-0.695
248	-0.696
248	-0.698
249	-0.704
249	-0.707
250	-0.704
250	-0.71
250	-0.707
251	-0.708
251	-0.706
252	-0.706
252	-0.718
253	-0.713
253	-0.724
254	-0.728
254	-0.73
255	-0.741
255	-0.741
256	-0.744
256	-0.755
257	-0.765
257	-0.761
258	-0.763
258	-0.77
258	-0.768
259	-0.76
259	-0.777
260	-0.775
260	-0.764
261	-0.775
261	-0.761
262	-0.767
262	-0.767
263	-0.756
263	-0.762
264	-0.772
264	-0.774
265	-0.764
265	-0.768
265	-0.778
266	-0.768
266	-0.768
267	-0.766
267	-0.783
268	-0.792
268	-0.786
269	-0.777
269	-0.792
270	-0.797
270	-0.794
271	-0.809
271	-0.82
272	-0.821
272	-0.824
272	-0.817
273	-0.825
273	-0.841
274	-0.834
274	-0.828
275	-0.823
275	-0.811
276	-0.812
276	-0.819
277	-0.821
277	-0.817
278	-0.822
278	-0.821
278	-0.809
279	-0.818
279	-0.831
280	-0.833
280	-0.844
281	-0.838
281	-0.83
282	-0.836
282	-0.831
283	-0.822
283	-0.838
284	-0.851
284	-0.862
285	-0.842
285	-0.849
285	-0.841
286	-0.847
286	-0.863
287	-0.859
287	-0.859
288	-0.861
288	-0.841
289	-0.84
289	-0.845
290	-0.854
290	-0.844
291	-0.848
291	-0.846
292	-0.826
292	-0.823
292	-0.826
293	-0.814
293	-0.809
294	-0.808
294	-0.795
295	-0.776
295	-0.788
296	-0.8
296	-0.792
297	-0.782
297	-0.788
298	-0.784
298	-0.802
298	-0.807
299	-0.789
299	-0.782
300	-0.778
300	-0.758
301	-0.74
301	-0.742
302	-0.75
302	-0.735
303	-0.727
303	-0.714
304	-0.697
304	-0.7
305	-0.692
305	-0.701
305	-0.717
306	-0.701
306	-0.701
307	-0.694
307	-0.705
308	-0.707
308	-0.704
309	-0.707
309	-0.703
310	-0.702
310	-0.697
311	-0.682
311	-0.702
311	-0.69
312	-0.688
312	-0.675
313	-0.668
313	-0.669
314	-0.674
314	-0.671
315	-0.667
315	-0.659
316	-0.653
316	-0.641
317	-0.635
317	-0.633
318	-0.624
318	-0.62
318	-0.609
319	-0.597
319	-0.589
320	-0.587
320	-0.586
321	-0.582
321	-0.582
322	-0.574
322	-0.565
323	-0.566
323	-0.559
324	-0.557
324	-0.545
324	-0.533
325	-0.518
325	-0.502
326	-0.493
326	-0.468
327	-0.454
327	-0.43
328	-0.398
328	-0.373
329	-0.343
329	-0.315
330	-0.287
330	-0.25
330	-0.212
331	-0.174
331	-0.138
332	-0.102
332	-0.068
333	-0.036
333	0
334	0.032
334	0.06
335	0.091
335	0.113
336	0.137
336	0.161
336	0.179
337	0.199
337	0.217
338	0.232
338	0.244
339	0.258
339	0.27
340	0.279
340	0.289
341	0.297
341	0.304
342	0.312
342	0.319
342	0.324
343	0.329
343	0.335
344	0.338
344	0.342
345	0.345
345	0.348
346	0.35
346	0.353
347	0.354
347	0.356
348	0.357
348	0.359
348	0.36
349	0.361
349	0.361
350	0.362
350	0.363
351	0.364
351	0.364
352	0.364
352	0.364
353	0.365
353	0.365
354	0.365
354	0.365
354	0.365
355	0.365
355	0.365
356	0.365
356	0.365
357	0.366
357	0.367
358	0.366
358	0.366
359	0.366
359	0.366
360	0.367
360	0.366
360	0.366
361	0.366
361	0.366
362	0.366
362	0.366
363	0.366
363	0.366
364	0.366
364	0.366
365	0.366
365	0.365
366	0.365
366	0.365
366	0.365
367	0.365
367	0.364
368	0.364
368	0.364
369	0.363
369	0.363
370	0.363
370	0.363
371	0.363
371	0.362
372	0.362
372	0.362
372	0.362
373	0.361
373	0.361
374	0.361
374	0.361
375	0.361
375	0.36
376	0.36
376	0.36
377	0.359
377	0.359
378	0.358
378	0.358
378	0.358
379	0.357
379	0.357
380	0.357
380	0.357
381	0.356
381	0.356
382	0.356
382	0.355
383	0.355
383	0.355
383	0.355
384	0.354
384	0.354
385	0.353
385	0.353
386	0.353
386	0.353
387	0.352
387	0.352
388	0.352
388	0.351
389	0.351
389	0.351
389	0.351
390	0.351
390	0.35
391	0.35
391	0.35
392	0.35
392	0.349
393	0.349
393	0.348
394	0.348
394	0.348
394	0.347
395	0.347
395	0.346
396	0.346
396	0.346
397	0.345
397	0.345
398	0.344
398	0.344
399	0.343
399	0.343
400	0.343
400	0.342
400	0.342
401	0.342
401	0.341
402	0.341
402	0.341
403	0.341
403	0.341
404	0.34
404	0.34
405	0.339
405	0.339
405	0.339
406	0.339
406	0.339
407	0.338
407	0.338
408	0.337
408	0.337
409	0.337
409	0.337
410	0.337
410	0.337
411	0.336
411	0.336
411	0.336
412	0.335
412	0.335
413	0.335
413	0.335
414	0.334
414	0.334
415	0.334
415	0.333
416	0.333
416	0.333
416	0.332
417	0.332
417	0.332
418	0.331
418	0.331
419	0.331
419	0.331
420	0.331
420	0.331
421	0.331
421	0.33
421	0.33
422	0.331
422	0.331
423	0.331
423	0.33
424	0.33
424	0.33
425	0.33
425	0.329
426	0.329
426	0.329
427	0.329
427	0.329
427	0.329
428	0.329
428	0.329
429	0.329
429	0.328
430	0.328
430	0.328
431	0.328
431	0.327
432	0.327
432	0.326
432	0.326
433	0.325
433	0.326
434	0.326
434	0.326
435	0.326
435	0.326
436	0.326
436	0.326
437	0.326
437	0.326
437	0.326
438	0.326
438	0.326
439	0.326
439	0.326
440	0.325
440	0.325
441	0.325
441	0.325
442	0.325
442	0.325
442	0.324
443	0.324
443	0.324
444	0.324
444	0.324
445	0.325
445	0.325
446	0.325
446	0.325
447	0.325
447	0.325
447	0.324
448	0.325
448	0.324
449	0.324
449	0.324
450	0.325
450	0.324
451	0.324
451	0.325
452	0.325
452	0.325
452	0.325
453	0.325
453	0.325
454	0.325
454	0.325
455	0.325
455	0.326
456	0.326
456	0.326
457	0.326
457	0.326
458	0.326
458	0.326
458	0.326
459	0.326
459	0.325
460	0.325
460	0.325
461	0.325
461	0.326
462	0.326
462	0.327
463	0.328
463	0.329
463	0.33
464	0.33
464	0.331
465	0.331
465	0.332
466	0.332
466	0.333
467	0.333
467	0.333
467	0.333
468	0.332
468	0.332
469	0.333
469	0.333
470	0.334
470	0.334
471	0.335
471	0.335
472	0.336
472	0.336
472	0.337
473	0.339
473	0.339
474	0.34
474	0.341
475	0.342
475	0.343
476	0.344
476	0.345
477	0.346
477	0.347
477	0.348
478	0.349
478	0.349
479	0.35
479	0.352
480	0.352
480	0.353
481	0.354
481	0.355
482	0.356
482	0.357
482	0.358
483	0.36
483	0.362
484	0.364
484	0.364
485	0.366
485	0.368
486	0.369
486	0.37
487	0.372
487	0.373
487	0.375
488	0.376
488	0.377
489	0.379
489	0.381
490	0.382
490	0.384
491	0.386
491	0.388
492	0.39
492	0.392
492	0.393
493	0.395
493	0.397
494	0.4
494	0.402
495	0.404
495	0.406
496	0.408
496	0.411
496	0.413
497	0.416
497	0.418
498	0.421
498	0.423
499	0.425
499	0.428
500	0.432
500	0.435
501	0.438
501	0.44
501	0.442
502	0.445
502	0.448
503	0.451
503	0.453
504	0.456
504	0.459
505	0.461
505	0.465
506	0.468
506	0.471
506	0.474
507	0.478
507	0.481
508	0.485
508	0.488
509	0.491
509	0.494
510	0.497
510	0.5
511	0.503
511	0.506
511	0.508
512	0.511
512	0.514
513	0.516
513	0.518
514	0.521
514	0.524
515	0.526
515	0.529
515	0.53
516	0.533
516	0.535
517	0.538
517	0.54
518	0.542
518	0.543
519	0.545
519	0.546
520	0.548
520	0.55
520	0.552
521	0.553
521	0.555
522	0.557
522	0.559
523	0.561
523	0.563
524	0.564
524	0.565
524	0.566
525	0.567
525	0.568
526	0.569
526	0.57
527	0.571
527	0.571
528	0.571
528	0.571
529	0.57
529	0.57
529	0.57
530	0.57
530	0.57
531	0.57
531	0.569
532	0.568
532	0.568
533	0.567
533	0.567
533	0.566
534	0.565
534	0.563
535	0.562
535	0.562
536	0.561
536	0.559
537	0.558
537	0.557
538	0.555
538	0.553
538	0.551
539	0.55
539	0.548
540	0.546
540	0.543
541	0.54
541	0.538
542	0.536
542	0.533
542	0.53
543	0.528
543	0.525
544	0.522
544	0.519
545	0.517
545	0.514
546	0.512
546	0.508
547	0.505
547	0.502
547	0.499
548	0.497
548	0.494
549	0.491
549	0.488
550	0.485
550	0.482
551	0.478
551	0.475
551	0.472
552	0.469
552	0.466
553	0.463
553	0.46
554	0.457
554	0.453
555	0.449
555	0.446
556	0.443
556	0.44
556	0.437
557	0.434
557	0.431
558	0.427
558	0.424
559	0.422
559	0.419
560	0.415
560	0.412
560	0.41
561	0.408
561	0.405
562	0.402
562	0.399
563	0.397
563	0.394
564	0.391
564	0.389
564	0.386
565	0.384
565	0.382
566	0.379
566	0.377
567	0.374
567	0.372
568	0.37
568	0.367
568	0.365
569	0.363
569	0.36
570	0.356
570	0.353
571	0.351
571	0.348
572	0.345
572	0.343
573	0.34
573	0.337
573	0.334
574	0.332
574	0.33
575	0.328
575	0.328
576	0.326
576	0.323
577	0.32
577	0.318
577	0.317
578	0.316
578	0.315
579	0.314
579	0.313
580	0.31
580	0.306
581	0.302
581	0.3
581	0.299
582	0.298
582	0.297
583	0.295
583	0.293
584	0.289
584	0.286
585	0.285
585	0.284
585	0.283
586	0.282
586	0.28
587	0.277
587	0.275
588	0.273
588	0.271
589	0.27
589	0.269
590	0.267
590	0.265
590	0.265
591	0.264
591	0.262
592	0.26
592	0.258
593	0.257
593	0.255
594	0.253
594	0.252
594	0.25
595	0.249
595	0.246
596	0.244
596	0.244
597	0.245
597	0.243
598	0.242
598	0.241
598	0.24
599	0.239
599	0.237
600	0.236
600	0.234
601	0.234
601	0.232
602	0.23
602	0.229
602	0.228
603	0.227
603	0.227
604	0.226
604	0.225
605	0.224
605	0.224
606	0.222
606	0.22
606	0.219
607	0.218
607	0.217
608	0.216
608	0.214
609	0.212
609	0.212
610	0.21
610	0.208
610	0.208
611	0.207
611	0.206
612	0.206
612	0.205
613	0.204
613	0.203
614	0.201
614	0.2
614	0.198
615	0.197
615	0.195
616	0.194
616	0.192
617	0.191
617	0.189
618	0.188
618	0.187
618	0.186
619	0.185
619	0.184
620	0.184
620	0.183
621	0.182
621	0.18
622	0.179
622	0.177
622	0.175
623	0.174
623	0.173
624	0.173
624	0.171
625	0.17
625	0.169
626	0.167
626	0.166
626	0.165
627	0.165
627	0.164
628	0.163
628	0.162
629	0.16
629	0.158
630	0.156
630	0.154
630	0.153
631	0.151
631	0.149
632	0.147
632	0.145
633	0.142
633	0.14
634	0.138
634	0.137
634	0.135
635	0.133
635	0.13
636	0.128
636	0.125
637	0.123
637	0.12
638	0.117
638	0.113
638	0.11
639	0.106
639	0.101
640	0.097
640	0.093
641	0.089
641	0.085
642	0.08
642	0.076
642	0.072
643	0.067
643	0.062
644	0.057
644	0.051
645	0.046
645	0.041
646	0.036
646	0.03
646	0.023
647	0.017
647	0.011
648	0.004
648	-0.003
649	-0.01
649	-0.017
650	-0.023
650	-0.03
650	-0.037
651	-0.046
651	-0.057
652	-0.07
652	-0.083
653	-0.094
653	-0.104
653	-0.099
654	-0.08
654	-0.074
655	-0.079
655	-0.083
656	-0.089
656	-0.095
657	-0.099
657	-0.103
657	-0.108
658	-0.114
658	-0.144
659	-0.226
659	-0.309
660	-0.346
660	-0.37
661	-0.395
661	-0.422
661	-0.452
662	-0.478
662	-0.506
663	-0.538
663	-0.572
664	-0.605
664	-0.643
665	-0.684
665	-0.728
665	-0.768
666	-0.815
666	-0.867
667	-0.918
667	-0.977
668	-1.033
668	-1.1
669	-1.165
669	-1.237
669	-1.317
670	-1.402
670	-1.533
671	-1.797
671	-2.159
672	-2.369
672	-2.516
672	-2.628
673	-2.718
673	-2.795
674	-2.831
674	-2.842
675	-2.857
675	-2.859
676	-2.846
676	-2.778
676	-2.701
677	-2.604
677	-2.482
678	-2.29
678	-1.91
679	-1.599
679	-1.466
680	-1.375
680	-1.308
680	-1.251
681	-1.211
681	-1.165
682	-1.128
682	-1.09
683	-1.052
683	-1.032
684	-1.01
684	-0.994
684	-0.975
685	-0.959
685	-0.954
686	-0.935
686	-0.925
687	-0.917
687	-0.909
687	-0.911
688	-0.897
688	-0.891
689	-0.897
689	-0.895
690	-0.882
690	-0.871
691	-0.868
691	-0.872
691	-0.873
692	-0.873
692	-0.871
693	-0.879
693	-0.893
694	-0.873
694	-0.875
695	-0.879
695	-0.874
695	-0.882
696	-0.889
696	-0.882
697	-0.877
697	-0.876
698	-0.872
698	-0.865
698	-0.878
699	-0.875
699	-0.876
700	-0.897
700	-0.891
701	-0.879
701	-0.874
702	-0.874
702	-0.872
702	-0.872
703	-0.864
703	-0.852
704	-0.859
704	-0.863
705	-0.851
705	-0.851
705	-0.845
706	-0.839
706	-0.835
707	-0.846
707	-0.848
708	-0.844
708	-0.843
709	-0.846
709	-0.843
709	-0.839
710	-0.848
710	-0.852
711	-0.852
711	-0.853
712	-0.844
712	-0.843
713	-0.849
713	-0.849
713	-0.829
714	-0.831
714	-0.835
715	-0.824
715	-0.831
716	-0.847
716	-0.856
716	-0.857
717	-0.864
717	-0.856
718	-0.851
718	-0.851
719	-0.847
719	-0.837
720	-0.834
720	-0.828
720	-0.822
721	-0.813
721	-0.817
722	-0.813
722	-0.808
723	-0.825
723	-0.839
723	-0.847
724	-0.848
724	-0.852
725	-0.846
725	-0.851
726	-0.854
726	-0.845
727	-0.848
727	-0.855
727	-0.845
728	-0.834
728	-0.831
729	-0.832
729	-0.836
730	-0.841
730	-0.832
730	-0.839
731	-0.843
731	-0.844
732	-0.847
732	-0.842
733	-0.857
733	-0.865
734	-0.873
734	-0.863
734	-0.847
735	-0.838
735	-0.834
736	-0.83
736	-0.824
737	-0.825
737	-0.813
737	-0.803
738	-0.787
738	-0.775
739	-0.778
739	-0.779
740	-0.795
740	-0.793
741	-0.805
741	-0.815
741	-0.825
742	-0.834
742	-0.85
743	-0.859
743	-0.862
744	-0.866
744	-0.874
744	-0.865
745	-0.875
745	-0.863
746	-0.857
746	-0.847
747	-0.849
747	-0.84
748	-0.841
748	-0.845
748	-0.845
749	-0.838
749	-0.846
750	-0.835
750	-0.837
751	-0.838
751	-0.836
751	-0.847
752	-0.851
752	-0.856
753	-0.857
753	-0.851
754	-0.869
754	-0.87
754	-0.879
755	-0.878
755	-0.869
756	-0.872
756	-0.858
757	-0.85
757	-0.837
758	-0.839
758	-0.838
758	-0.834
759	-0.838
759	-0.836
760	-0.836
760	-0.838
761	-0.831
761	-0.836
761	-0.837
762	-0.843
762	-0.842
763	-0.844
763	-0.847
764	-0.845
764	-0.841
764	-0.848
765	-0.847
765	-0.855
766	-0.857
766	-0.86
767	-0.874
767	-0.87
768	-0.867
768	-0.859
768	-0.855
769	-0.86
769	-0.867
770	-0.876
770	-0.879
771	-0.876
771	-0.875
771	-0.88
772	-0.885
772	-0.907
773	-0.908
773	-0.907
774	-0.903
774	-0.885
775	-0.872
775	-0.873
775	-0.877
776	-0.887
776	-0.883
777	-0.883
777	-0.865
778	-0.875
778	-0.883
778	-0.885
779	-0.893
779	-0.909
780	-0.904
780	-0.912
781	-0.901
781	-0.889
781	-0.901
782	-0.922
782	-0.923
783	-0.922
783	-0.931
784	-0.937
784	-0.931
784	-0.951
785	-0.944
785	-0.958
786	-0.963
786	-0.956
787	-0.947
787	-0.953
788	-0.946
788	-0.939
788	-0.938
789	-0.937
789	-0.927
790	-0.927
790	-0.91
791	-0.917
791	-0.913
791	-0.904
792	-0.9
792	-0.904
793	-0.907
793	-0.896
794	-0.888
794	-0.881
794	-0.887
795	-0.907
795	-0.895
796	-0.903
796	-0.9
797	-0.892
797	-0.882
797	-0.876
798	-0.896
798	-0.899
799	-0.9
799	-0.885
800	-0.88
800	-0.887
801	-0.884
801	-0.889
801	-0.886
802	-0.884
802	-0.883
803	-0.877
803	-0.87
804	-0.873
804	-0.882
804	-0.866
805	-0.849
805	-0.841
806	-0.841
806	-0.838
807	-0.841
807	-0.843
807	-0.827
808	-0.822
808	-0.816
809	-0.81
809	-0.812
810	-0.812
810	-0.808
810	-0.804
811	-0.808
811	-0.799
812	-0.79
812	-0.793
813	-0.799
813	-0.801
813	-0.796
814	-0.795
814	-0.803
815	-0.793
815	-0.79
816	-0.785
816	-0.802
817	-0.814
817	-0.817
817	-0.824
818	-0.816
818	-0.813
819	-0.824
819	-0.822
820	-0.833
820	-0.832
820	-0.831
821	-0.825
821	-0.821
822	-0.819
822	-0.808
823	-0.819
823	-0.821
823	-0.816
824	-0.814
824	-0.825
825	-0.824
825	-0.822
826	-0.818
826	-0.814
826	-0.812
827	-0.813
827	-0.804
828	-0.802
828	-0.795
829	-0.789
829	-0.775
829	-0.773
830	-0.771
830	-0.758
831	-0.752
831	-0.743
832	-0.733
832	-0.728
832	-0.722
833	-0.722
833	-0.726
834	-0.721
834	-0.715
835	-0.707
835	-0.706
835	-0.701
836	-0.696
836	-0.693
837	-0.683
837	-0.672
838	-0.659
838	-0.643
839	-0.635
839	-0.623
839	-0.615
840	-0.613
840	-0.603
841	-0.592
841	-0.584
842	-0.575
842	-0.564
842	-0.56
843	-0.556
843	-0.553
844	-0.55
844	-0.538
845	-0.523
845	-0.513
845	-0.504
846	-0.492
846	-0.482
847	-0.471
847	-0.458
848	-0.442
848	-0.426
848	-0.413
849	-0.401
849	-0.39
850	-0.379
850	-0.368
851	-0.356
851	-0.34
851	-0.329
852	-0.314
852	-0.303
853	-0.294
853	-0.282
854	-0.272
854	-0.261
854	-0.248
855	-0.238
855	-0.229
856	-0.221
856	-0.213
857	-0.206
857	-0.197
857	-0.183
858	-0.173
858	-0.164
859	-0.153
859	-0.143
860	-0.131
860	-0.117
860	-0.107
861	-0.097
861	-0.086
862	-0.078
862	-0.07
863	-0.061
863	-0.051
863	-0.045
864	-0.039
864	-0.032
865	-0.025
865	-0.019
866	-0.013
866	-0.008
866	-0.002
867	0.003
867	0.009
868	0.013
868	0.018
869	0.022
869	0.026
869	0.028
870	0.031
870	0.033
871	0.035
871	0.036
872	0.037
872	0.038
872	0.039
873	0.039
873	0.039
874	0.038
874	0.038
875	0.038
875	0.037
875	0.037
876	0.037
876	0.037
877	0.036
877	0.035
878	0.035
878	0.034
878	0.034
879	0.034
879	0.033
880	0.032
880	0.031
881	0.03
881	0.029
881	0.027
882	0.026
882	0.024
883	0.023
883	0.021
884	0.021
884	0.021
884	0.02
885	0.02
885	0.02
886	0.02
886	0.02
887	0.019
887	0.019
887	0.019
888	0.019
888	0.018
889	0.017
889	0.016
890	0.015
890	0.015
890	0.014
891	0.014
891	0.014
892	0.015
892	0.015
893	0.015
893	0.016
893	0.016
894	0.017
894	0.018
895	0.018
895	0.018
895	0.017
896	0.018
896	0.018
897	0.018
897	0.018
898	0.018
898	0.018
898	0.018
899	0.018
899	0.019
900	0.019
900	0.019
901	0.019
901	0.018
901	0.018
902	0.018
902	0.018
903	0.018
903	0.017
904	0.016
904	0.015
904	0.015
905	0.015
905	0.015
906	0.016
906	0.016
907	0.017
907	0.017
907	0.018
908	0.019
908	0.02
909	0.02
909	0.021
910	0.021
910	0.022
910	0.022
911	0.022
911	0.023
912	0.024
912	0.024
913	0.025
913	0.025
913	0.026
914	0.027
914	0.027
915	0.027
915	0.027
916	0.027
916	0.026
916	0.026
917	0.025
917	0.025
918	0.024
918	0.023
918	0.022
919	0.022
919	0.021
920	0.021
920	0.021
921	0.022
921	0.022
921	0.022
922	0.022
922	0.023
923	0.023
923	0.023
924	0.022
924	0.022
924	0.021
925	0.02
925	0.019
926	0.018
926	0.016
927	0.015
927	0.014
927	0.013
928	0.012
928	0.012
929	0.013
929	0.013
930	0.014
930	0.014
930	0.015
931	0.016
931	0.018
932	0.019
932	0.02
933	0.021
933	0.021
933	0.021
934	0.021
934	0.02
935	0.02
935	0.019
935	0.018
936	0.017
936	0.015
937	0.014
937	0.013
938	0.013
938	0.012
938	0.011
939	0.011
939	0.01
940	0.009
940	0.009
941	0.008
941	0.007
941	0.007
942	0.006
942	0.006
943	0.006
943	0.006
944	0.006
944	0.005
944	0.005
945	0.005
945	0.005
946	0.004
946	0.003
946	0.003
947	0.003
947	0.003
948	0.003
948	0.004
949	0.005
949	0.006
949	0.007
950	0.009
950	0.01
951	0.012
951	0.013
952	0.014
952	0.015
952	0.015
953	0.016
953	0.017
954	0.016
954	0.016
955	0.016
955	0.015
955	0.015
956	0.014
956	0.014
957	0.013
957	0.013
957	0.011
958	0.011
958	0.011
959	0.01
959	0.009
960	0.009
960	0.009
960	0.009
961	0.009
961	0.01
962	0.01
962	0.01
963	0.011
963	0.011
963	0.012
964	0.013
964	0.013
965	0.014
965	0.015
966	0.015
966	0.016
966	0.017
967	0.018
967	0.018
968	0.018
968	0.018
968	0.018
969	0.018
969	0.018
970	0.017
970	0.016
971	0.016
971	0.016
971	0.016
972	0.016
972	0.016
973	0.016
973	0.016
974	0.015
974	0.015
974	0.016
975	0.016
975	0.016
976	0.015
976	0.015
976	0.014
977	0.014
977	0.013
978	0.013
978	0.012
979	0.011
979	0.01
979	0.01
980	0.01
980	0.009
981	0.009
981	0.009
982	0.008
982	0.008
982	0.008
983	0.009
983	0.008
984	0.008
984	0.008
984	0.008
985	0.008
985	0.007
986	0.007
986	0.006
987	0.005
987	0.005
987	0.004
988	0.004
988	0.003
989	0.003
989	0.002
990	0.001
990	0
990	-0
991	-0.001
991	-0.002
992	-0.002
992	-0.003
992	-0.004
993	-0.005
993	-0.006
994	-0.007
994	-0.009
995	-0.01
995	-0.011
995	-0.012
996	-0.013
996	-0.015
997	-0.016
997	-0.016
997	-0.017
998	-0.017
998	-0.016
999	-0.016
999	-0.016
1000	-0.015
1000	-0.015
1000	-0.014
1001	-0.013
1001	-0.012
1002	-0.012
1002	-0.011
1003	-0.01
1003	-0.01
1003	-0.01
1004	-0.009
1004	-0.009
1005	-0.009
1005	-0.01
1005	-0.01
1006	-0.011
1006	-0.012
1007	-0.013
1007	-0.014
1008	-0.014
1008	-0.015
1008	-0.016
1009	-0.016
1009	-0.016
1010	-0.016
1010	-0.015
1010	-0.015
1011	-0.014
1011	-0.013
1012	-0.012
1012	-0.011
1013	-0.01
1013	-0.009
1013	-0.009
1014	-0.008
1014	-0.007
1015	-0.007
1015	-0.006
1016	-0.006
1016	-0.006
1016	-0.006
1017	-0.006
1017	-0.006
1018	-0.006
1018	-0.006
1018	-0.006
1019	-0.006
1019	-0.007
1020	-0.007
1020	-0.007
1021	-0.008
1021	-0.008
1021	-0.008
1022	-0.009
1022	-0.009
1023	-0.009
1023	-0.009
1023	-0.009
1024	-0.009
1024	-0.009
1025	-0.009
1025	-0.009
1026	-0.009
1026	-0.009
1026	-0.009
1027	-0.009
1027	-0.009
1028	-0.008
1028	-0.008
1028	-0.008
1029	-0.008
1029	-0.007
1030	-0.008
1030	-0.008
1031	-0.008
1031	-0.007
1031	-0.007
1032	-0.007
1032	-0.008
1033	-0.008
1033	-0.009
1033	-0.009
1034	-0.009
1034	-0.01
1035	-0.011
1035	-0.011
1036	-0.012
1036	-0.013
1036	-0.014
1037	-0.014
1037	-0.014
1038	-0.015
1038	-0.015
1039	-0.015
1039	-0.015
1039	-0.014
1040	-0.014
1040	-0.013
1041	-0.014
1041	-0.014
1041	-0.014
1042	-0.014
1042	-0.015
1043	-0.015
1043	-0.016
1044	-0.016
1044	-0.017
1044	-0.018
1045	-0.018
1045	-0.019
1046	-0.019
1046	-0.02
1046	-0.02
1047	-0.02
1047	-0.02
1048	-0.02
1048	-0.02
1049	-0.02
1049	-0.021
1049	-0.021
1050	-0.022
1050	-0.023
1051	-0.023
1051	-0.024
1051	-0.025
1052	-0.026
1052	-0.026
1053	-0.027
1053	-0.027
1053	-0.028
1054	-0.029
1054	-0.029
1055	-0.028
1055	-0.028
1056	-0.028
1056	-0.028
1056	-0.028
1057	-0.028
1057	-0.028
1058	-0.028
1058	-0.028
1058	-0.028
1059	-0.028
1059	-0.028
1060	-0.029
1060	-0.029
1061	-0.03
1061	-0.029
1061	-0.03
1062	-0.03
1062	-0.03
1063	-0.03
1063	-0.031
1063	-0.031
1064	-0.031
1064	-0.031
1065	-0.03
1065	-0.031
1066	-0.031
1066	-0.032
1066	-0.032
1067	-0.033
1067	-0.034
1068	-0.034
1068	-0.035
1068	-0.036
1069	-0.037
1069	-0.038
1070	-0.039
1070	-0.039
1071	-0.04
1071	-0.04
1071	-0.04
1072	-0.041
1072	-0.04
1073	-0.041
1073	-0.041
1073	-0.041
1074	-0.041
1074	-0.041
1075	-0.041
1075	-0.041
1076	-0.042
1076	-0.042
1076	-0.043
1077	-0.044
1077	-0.045
1078	-0.045
1078	-0.046
1078	-0.047
1079	-0.047
1079	-0.048
1080	-0.049
1080	-0.05
1080	-0.051
1081	-0.052
1081	-0.053
1082	-0.053
1082	-0.054
1083	-0.056
1083	-0.057
1083	-0.058
1084	-0.06
1084	-0.061
1085	-0.062
1085	-0.063
1085	-0.063
1086	-0.065
1086	-0.066
1087	-0.067
1087	-0.068
1088	-0.069
1088	-0.07
1088	-0.07
1089	-0.071
1089	-0.072
1090	-0.073
1090	-0.073
1090	-0.074
1091	-0.075
1091	-0.075
1092	-0.075
1092	-0.074
1092	-0.075
1093	-0.076
1093	-0.075
1094	-0.076
1094	-0.077
1095	-0.078
1095	-0.079
1095	-0.079
1096	-0.081
1096	-0.083
1097	-0.085
1097	-0.087
1097	-0.089
1098	-0.091
1098	-0.094
1099	-0.096
1099	-0.098
1100	-0.1
1100	-0.102
1100	-0.105
1101	-0.107
1101	-0.11
1102	-0.112
1102	-0.115
1102	-0.116
1103	-0.118
1103	-0.121
1104	-0.124
1104	-0.128
1104	-0.13
1105	-0.132
1105	-0.134
1106	-0.139
1106	-0.141
1107	-0.146
1107	-0.151
1107	-0.156
1108	-0.158
1108	-0.16
1109	-0.162
1109	-0.167
1109	-0.172
1110	-0.174
1110	-0.178
1111	-0.188
1111	-0.185
