Data from 3.3A_17C_Absorbance__6__02873.txt Node

Date: Tue Jun 20 17:12:00 CEST 2023
User: Marek
Spectrometer: MAYP115816
Trigger mode: 0
Integration Time (sec): 2.200000E-1
Scans to average: 10
Electric dark correction enabled: true
Nonlinearity correction enabled: true
Boxcar width: 5
XAxis mode: Wavelengths
Number of Pixels in Spectrum: 2068
>>>>>Begin Spectral Data<<<<<
199	-0.809
199	-0.795
200	-0.759
200	-0.703
201	-0.675
201	-0.666
202	-0.65
202	-0.645
203	-0.645
203	-0.639
204	-0.622
204	-0.604
205	-0.58
205	-0.571
205	-0.58
206	-0.582
206	-0.578
207	-0.571
207	-0.576
208	-0.578
208	-0.581
209	-0.58
209	-0.587
210	-0.602
210	-0.609
211	-0.603
211	-0.608
212	-0.618
212	-0.625
213	-0.622
213	-0.617
213	-0.615
214	-0.622
214	-0.624
215	-0.62
215	-0.626
216	-0.635
216	-0.639
217	-0.636
217	-0.637
218	-0.644
218	-0.646
219	-0.652
219	-0.654
220	-0.659
220	-0.665
221	-0.666
221	-0.667
221	-0.658
222	-0.657
222	-0.655
223	-0.651
223	-0.655
224	-0.656
224	-0.654
225	-0.651
225	-0.652
226	-0.652
226	-0.652
227	-0.66
227	-0.671
228	-0.674
228	-0.682
229	-0.686
229	-0.684
229	-0.683
230	-0.679
230	-0.676
231	-0.672
231	-0.667
232	-0.668
232	-0.663
233	-0.664
233	-0.652
234	-0.653
234	-0.647
235	-0.653
235	-0.662
236	-0.67
236	-0.672
236	-0.673
237	-0.672
237	-0.671
238	-0.67
238	-0.673
239	-0.674
239	-0.684
240	-0.678
240	-0.673
241	-0.669
241	-0.672
242	-0.674
242	-0.682
243	-0.683
243	-0.685
243	-0.69
244	-0.687
244	-0.688
245	-0.69
245	-0.695
246	-0.705
246	-0.707
247	-0.715
247	-0.7
248	-0.699
248	-0.702
249	-0.707
249	-0.708
250	-0.708
250	-0.716
250	-0.715
251	-0.715
251	-0.711
252	-0.712
252	-0.725
253	-0.722
253	-0.733
254	-0.739
254	-0.739
255	-0.749
255	-0.749
256	-0.75
256	-0.762
257	-0.773
257	-0.77
258	-0.771
258	-0.778
258	-0.775
259	-0.767
259	-0.786
260	-0.785
260	-0.774
261	-0.786
261	-0.772
262	-0.777
262	-0.775
263	-0.766
263	-0.772
264	-0.782
264	-0.784
265	-0.774
265	-0.775
265	-0.785
266	-0.776
266	-0.776
267	-0.776
267	-0.794
268	-0.802
268	-0.795
269	-0.788
269	-0.803
270	-0.808
270	-0.807
271	-0.821
271	-0.83
272	-0.832
272	-0.835
272	-0.827
273	-0.838
273	-0.853
274	-0.844
274	-0.838
275	-0.834
275	-0.822
276	-0.825
276	-0.828
277	-0.829
277	-0.826
278	-0.832
278	-0.83
278	-0.818
279	-0.828
279	-0.843
280	-0.846
280	-0.858
281	-0.85
281	-0.845
282	-0.851
282	-0.845
283	-0.838
283	-0.854
284	-0.867
284	-0.876
285	-0.856
285	-0.862
285	-0.852
286	-0.858
286	-0.875
287	-0.871
287	-0.871
288	-0.869
288	-0.851
289	-0.849
289	-0.857
290	-0.865
290	-0.852
291	-0.858
291	-0.856
292	-0.833
292	-0.83
292	-0.835
293	-0.823
293	-0.819
294	-0.82
294	-0.806
295	-0.789
295	-0.803
296	-0.813
296	-0.807
297	-0.797
297	-0.803
298	-0.798
298	-0.815
298	-0.817
299	-0.797
299	-0.79
300	-0.787
300	-0.767
301	-0.749
301	-0.752
302	-0.763
302	-0.747
303	-0.739
303	-0.728
304	-0.712
304	-0.715
305	-0.707
305	-0.715
305	-0.73
306	-0.715
306	-0.712
307	-0.704
307	-0.715
308	-0.719
308	-0.714
309	-0.717
309	-0.713
310	-0.711
310	-0.705
311	-0.691
311	-0.71
311	-0.699
312	-0.695
312	-0.685
313	-0.677
313	-0.678
314	-0.682
314	-0.679
315	-0.676
315	-0.671
316	-0.665
316	-0.653
317	-0.645
317	-0.642
318	-0.632
318	-0.629
318	-0.617
319	-0.607
319	-0.599
320	-0.595
320	-0.59
321	-0.587
321	-0.586
322	-0.58
322	-0.571
323	-0.571
323	-0.561
324	-0.561
324	-0.55
324	-0.538
325	-0.523
325	-0.507
326	-0.497
326	-0.473
327	-0.459
327	-0.438
328	-0.406
328	-0.383
329	-0.352
329	-0.32
330	-0.292
330	-0.254
330	-0.216
331	-0.177
331	-0.14
332	-0.101
332	-0.065
333	-0.031
333	0.005
334	0.039
334	0.067
335	0.099
335	0.123
336	0.149
336	0.174
336	0.194
337	0.214
337	0.235
338	0.252
338	0.265
339	0.281
339	0.295
340	0.304
340	0.315
341	0.324
341	0.331
342	0.339
342	0.346
342	0.352
343	0.357
343	0.364
344	0.368
344	0.371
345	0.376
345	0.379
346	0.382
346	0.384
347	0.386
347	0.388
348	0.39
348	0.392
348	0.393
349	0.394
349	0.395
350	0.396
350	0.397
351	0.397
351	0.397
352	0.398
352	0.398
353	0.399
353	0.399
354	0.399
354	0.399
354	0.399
355	0.399
355	0.399
356	0.399
356	0.399
357	0.398
357	0.398
358	0.398
358	0.398
359	0.398
359	0.398
360	0.399
360	0.399
360	0.399
361	0.399
361	0.399
362	0.399
362	0.399
363	0.399
363	0.399
364	0.399
364	0.398
365	0.398
365	0.398
366	0.398
366	0.397
366	0.397
367	0.398
367	0.397
368	0.396
368	0.396
369	0.396
369	0.395
370	0.395
370	0.395
371	0.394
371	0.394
372	0.393
372	0.392
372	0.392
373	0.392
373	0.392
374	0.391
374	0.391
375	0.391
375	0.39
376	0.39
376	0.39
377	0.389
377	0.389
378	0.388
378	0.388
378	0.387
379	0.387
379	0.387
380	0.387
380	0.386
381	0.386
381	0.385
382	0.385
382	0.385
383	0.384
383	0.384
383	0.384
384	0.383
384	0.382
385	0.382
385	0.381
386	0.381
386	0.38
387	0.38
387	0.38
388	0.379
388	0.379
389	0.379
389	0.378
389	0.378
390	0.378
390	0.377
391	0.377
391	0.377
392	0.376
392	0.376
393	0.375
393	0.375
394	0.375
394	0.374
394	0.374
395	0.373
395	0.373
396	0.372
396	0.372
397	0.371
397	0.371
398	0.37
398	0.37
399	0.369
399	0.369
400	0.368
400	0.368
400	0.368
401	0.367
401	0.366
402	0.366
402	0.366
403	0.366
403	0.365
404	0.365
404	0.364
405	0.364
405	0.363
405	0.363
406	0.363
406	0.363
407	0.363
407	0.362
408	0.362
408	0.361
409	0.361
409	0.361
410	0.361
410	0.36
411	0.36
411	0.36
411	0.359
412	0.359
412	0.358
413	0.358
413	0.357
414	0.357
414	0.357
415	0.356
415	0.356
416	0.355
416	0.355
416	0.355
417	0.354
417	0.354
418	0.354
418	0.354
419	0.354
419	0.354
420	0.353
420	0.353
421	0.353
421	0.353
421	0.353
422	0.353
422	0.353
423	0.353
423	0.353
424	0.352
424	0.352
425	0.352
425	0.352
426	0.352
426	0.352
427	0.352
427	0.352
427	0.352
428	0.352
428	0.351
429	0.351
429	0.351
430	0.35
430	0.35
431	0.35
431	0.349
432	0.349
432	0.348
432	0.348
433	0.348
433	0.348
434	0.348
434	0.348
435	0.348
435	0.348
436	0.348
436	0.348
437	0.348
437	0.348
437	0.348
438	0.348
438	0.348
439	0.348
439	0.348
440	0.348
440	0.348
441	0.347
441	0.347
442	0.347
442	0.347
442	0.347
443	0.347
443	0.347
444	0.347
444	0.347
445	0.347
445	0.347
446	0.348
446	0.348
447	0.348
447	0.348
447	0.349
448	0.349
448	0.349
449	0.349
449	0.349
450	0.35
450	0.35
451	0.35
451	0.35
452	0.35
452	0.35
452	0.35
453	0.35
453	0.35
454	0.35
454	0.35
455	0.35
455	0.35
456	0.351
456	0.351
457	0.351
457	0.351
458	0.351
458	0.352
458	0.352
459	0.353
459	0.352
460	0.352
460	0.352
461	0.353
461	0.353
462	0.354
462	0.355
463	0.356
463	0.357
463	0.358
464	0.358
464	0.359
465	0.36
465	0.36
466	0.361
466	0.362
467	0.362
467	0.362
467	0.362
468	0.362
468	0.363
469	0.364
469	0.365
470	0.366
470	0.366
471	0.367
471	0.368
472	0.368
472	0.37
472	0.371
473	0.372
473	0.373
474	0.374
474	0.375
475	0.376
475	0.377
476	0.378
476	0.38
477	0.381
477	0.382
477	0.383
478	0.384
478	0.385
479	0.387
479	0.388
480	0.389
480	0.391
481	0.392
481	0.393
482	0.395
482	0.396
482	0.398
483	0.401
483	0.403
484	0.405
484	0.407
485	0.409
485	0.411
486	0.413
486	0.414
487	0.416
487	0.418
487	0.42
488	0.422
488	0.423
489	0.425
489	0.428
490	0.431
490	0.433
491	0.436
491	0.439
492	0.441
492	0.443
492	0.446
493	0.448
493	0.451
494	0.454
494	0.457
495	0.46
495	0.463
496	0.465
496	0.468
496	0.472
497	0.475
497	0.478
498	0.481
498	0.484
499	0.488
499	0.491
500	0.495
500	0.499
501	0.502
501	0.505
501	0.508
502	0.512
502	0.515
503	0.519
503	0.522
504	0.525
504	0.529
505	0.533
505	0.536
506	0.54
506	0.544
506	0.549
507	0.553
507	0.557
508	0.561
508	0.565
509	0.569
509	0.573
510	0.577
510	0.58
511	0.584
511	0.588
511	0.59
512	0.594
512	0.597
513	0.599
513	0.602
514	0.606
514	0.609
515	0.612
515	0.615
515	0.618
516	0.621
516	0.624
517	0.627
517	0.629
518	0.631
518	0.633
519	0.635
519	0.636
520	0.639
520	0.641
520	0.642
521	0.644
521	0.645
522	0.646
522	0.648
523	0.65
523	0.652
524	0.653
524	0.654
524	0.655
525	0.656
525	0.657
526	0.657
526	0.658
527	0.659
527	0.658
528	0.658
528	0.658
529	0.657
529	0.656
529	0.655
530	0.655
530	0.654
531	0.653
531	0.651
532	0.649
532	0.648
533	0.646
533	0.645
533	0.643
534	0.641
534	0.638
535	0.636
535	0.634
536	0.632
536	0.629
537	0.626
537	0.624
538	0.62
538	0.617
538	0.613
539	0.61
539	0.607
540	0.603
540	0.599
541	0.594
541	0.591
542	0.586
542	0.582
542	0.578
543	0.573
543	0.569
544	0.564
544	0.56
545	0.556
545	0.551
546	0.547
546	0.541
547	0.536
547	0.531
547	0.526
548	0.522
548	0.516
549	0.512
549	0.507
550	0.502
550	0.496
551	0.49
551	0.485
551	0.48
552	0.474
552	0.469
553	0.464
553	0.459
554	0.454
554	0.448
555	0.443
555	0.438
556	0.432
556	0.427
556	0.422
557	0.417
557	0.412
558	0.407
558	0.401
559	0.396
559	0.391
560	0.386
560	0.38
560	0.376
561	0.372
561	0.368
562	0.363
562	0.359
563	0.355
563	0.35
564	0.346
564	0.342
564	0.338
565	0.334
565	0.33
566	0.326
566	0.322
567	0.318
567	0.314
568	0.31
568	0.305
568	0.301
569	0.297
569	0.293
570	0.288
570	0.283
571	0.28
571	0.276
572	0.272
572	0.268
573	0.263
573	0.259
573	0.255
574	0.252
574	0.249
575	0.246
575	0.244
576	0.241
576	0.237
577	0.234
577	0.231
577	0.229
578	0.227
578	0.225
579	0.224
579	0.221
580	0.216
580	0.211
581	0.207
581	0.204
581	0.203
582	0.201
582	0.199
583	0.197
583	0.194
584	0.19
584	0.186
585	0.185
585	0.184
585	0.182
586	0.18
586	0.178
587	0.174
587	0.172
588	0.169
588	0.166
589	0.164
589	0.163
590	0.16
590	0.158
590	0.158
591	0.156
591	0.153
592	0.151
592	0.149
593	0.148
593	0.146
594	0.144
594	0.142
594	0.141
595	0.139
595	0.137
596	0.135
596	0.134
597	0.135
597	0.133
598	0.132
598	0.13
598	0.129
599	0.128
599	0.127
600	0.125
600	0.124
601	0.123
601	0.122
602	0.12
602	0.12
602	0.118
603	0.117
603	0.117
604	0.116
604	0.115
605	0.115
605	0.114
606	0.113
606	0.111
606	0.109
607	0.108
607	0.108
608	0.106
608	0.104
609	0.103
609	0.102
610	0.101
610	0.099
610	0.099
611	0.098
611	0.098
612	0.097
612	0.097
613	0.096
613	0.096
614	0.094
614	0.092
614	0.091
615	0.09
615	0.088
616	0.088
616	0.086
617	0.086
617	0.084
618	0.083
618	0.082
618	0.081
619	0.081
619	0.081
620	0.081
620	0.08
621	0.078
621	0.077
622	0.076
622	0.075
622	0.073
623	0.072
623	0.072
624	0.072
624	0.071
625	0.071
625	0.071
626	0.07
626	0.069
626	0.07
627	0.07
627	0.07
628	0.07
628	0.069
629	0.069
629	0.068
630	0.067
630	0.066
630	0.066
631	0.065
631	0.064
632	0.064
632	0.063
633	0.062
633	0.061
634	0.061
634	0.06
634	0.06
635	0.059
635	0.058
636	0.058
636	0.057
637	0.056
637	0.055
638	0.054
638	0.053
638	0.053
639	0.051
639	0.05
640	0.049
640	0.048
641	0.047
641	0.046
642	0.045
642	0.044
642	0.043
643	0.041
643	0.04
644	0.039
644	0.037
645	0.035
645	0.034
646	0.032
646	0.03
646	0.027
647	0.024
647	0.021
648	0.017
648	0.014
649	0.01
649	0.007
650	0.003
650	-0.001
650	-0.005
651	-0.01
651	-0.016
652	-0.023
652	-0.031
653	-0.037
653	-0.044
653	-0.04
654	-0.034
654	-0.04
655	-0.046
655	-0.051
656	-0.057
656	-0.062
657	-0.067
657	-0.071
657	-0.077
658	-0.083
658	-0.106
659	-0.163
659	-0.214
660	-0.24
660	-0.26
661	-0.278
661	-0.3
661	-0.323
662	-0.34
662	-0.358
663	-0.378
663	-0.4
664	-0.415
664	-0.438
665	-0.46
665	-0.482
665	-0.503
666	-0.523
666	-0.545
667	-0.567
667	-0.594
668	-0.62
668	-0.659
669	-0.698
669	-0.74
669	-0.802
670	-0.913
670	-1.154
671	-1.492
671	-1.843
672	-2.16
672	-2.372
672	-2.472
673	-2.502
673	-2.513
674	-2.528
674	-2.536
675	-2.549
675	-2.547
676	-2.527
676	-2.461
676	-2.303
677	-1.985
677	-1.482
678	-1.082
678	-0.956
679	-0.905
679	-0.875
680	-0.852
680	-0.84
680	-0.829
681	-0.83
681	-0.818
682	-0.815
682	-0.801
683	-0.786
683	-0.79
684	-0.789
684	-0.79
684	-0.788
685	-0.787
685	-0.793
686	-0.783
686	-0.781
687	-0.783
687	-0.785
687	-0.797
688	-0.791
688	-0.791
689	-0.803
689	-0.807
690	-0.8
690	-0.794
691	-0.799
691	-0.807
691	-0.811
692	-0.814
692	-0.814
693	-0.825
693	-0.84
694	-0.823
694	-0.825
695	-0.833
695	-0.83
695	-0.839
696	-0.848
696	-0.844
697	-0.84
697	-0.84
698	-0.836
698	-0.829
698	-0.847
699	-0.846
699	-0.847
700	-0.867
700	-0.863
701	-0.852
701	-0.848
702	-0.849
702	-0.848
702	-0.85
703	-0.842
703	-0.828
704	-0.835
704	-0.841
705	-0.831
705	-0.832
705	-0.827
706	-0.82
706	-0.816
707	-0.829
707	-0.832
708	-0.829
708	-0.83
709	-0.832
709	-0.829
709	-0.825
710	-0.833
710	-0.836
711	-0.837
711	-0.84
712	-0.831
712	-0.829
713	-0.835
713	-0.836
713	-0.816
714	-0.818
714	-0.822
715	-0.813
715	-0.822
716	-0.839
716	-0.848
716	-0.85
717	-0.857
717	-0.851
718	-0.844
718	-0.847
719	-0.842
719	-0.835
720	-0.83
720	-0.825
720	-0.821
721	-0.811
721	-0.817
722	-0.814
722	-0.809
723	-0.827
723	-0.839
723	-0.848
724	-0.848
724	-0.854
725	-0.848
725	-0.852
726	-0.856
726	-0.846
727	-0.849
727	-0.856
727	-0.848
728	-0.837
728	-0.833
729	-0.835
729	-0.838
730	-0.844
730	-0.836
730	-0.842
731	-0.844
731	-0.844
732	-0.847
732	-0.842
733	-0.857
733	-0.865
734	-0.874
734	-0.865
734	-0.849
735	-0.837
735	-0.832
736	-0.832
736	-0.826
737	-0.826
737	-0.815
737	-0.806
738	-0.79
738	-0.776
739	-0.779
739	-0.778
740	-0.795
740	-0.796
741	-0.807
741	-0.818
741	-0.827
742	-0.833
742	-0.85
743	-0.857
743	-0.86
744	-0.862
744	-0.871
744	-0.864
745	-0.871
745	-0.86
746	-0.855
746	-0.845
747	-0.848
747	-0.84
748	-0.843
748	-0.849
748	-0.851
749	-0.845
749	-0.852
750	-0.843
750	-0.845
751	-0.844
751	-0.841
751	-0.853
752	-0.856
752	-0.858
753	-0.859
753	-0.851
754	-0.869
754	-0.869
754	-0.877
755	-0.877
755	-0.87
756	-0.873
756	-0.859
757	-0.852
757	-0.841
758	-0.842
758	-0.844
758	-0.839
759	-0.843
759	-0.843
760	-0.84
760	-0.842
761	-0.837
761	-0.843
761	-0.842
762	-0.848
762	-0.848
763	-0.847
763	-0.851
764	-0.849
764	-0.844
764	-0.851
765	-0.85
765	-0.855
766	-0.858
766	-0.86
767	-0.874
767	-0.869
768	-0.867
768	-0.86
768	-0.855
769	-0.86
769	-0.869
770	-0.878
770	-0.883
771	-0.879
771	-0.878
771	-0.884
772	-0.887
772	-0.91
773	-0.911
773	-0.912
774	-0.909
774	-0.89
775	-0.879
775	-0.877
775	-0.88
776	-0.891
776	-0.888
777	-0.889
777	-0.868
778	-0.877
778	-0.883
778	-0.884
779	-0.894
779	-0.908
780	-0.905
780	-0.916
781	-0.905
781	-0.893
781	-0.906
782	-0.926
782	-0.928
783	-0.929
783	-0.935
784	-0.937
784	-0.931
784	-0.951
785	-0.942
785	-0.955
786	-0.961
786	-0.956
787	-0.947
787	-0.956
788	-0.948
788	-0.942
788	-0.944
789	-0.944
789	-0.934
790	-0.934
790	-0.919
791	-0.927
791	-0.922
791	-0.916
792	-0.909
792	-0.916
793	-0.92
793	-0.908
794	-0.9
794	-0.892
794	-0.899
795	-0.92
795	-0.905
796	-0.911
796	-0.908
797	-0.9
797	-0.889
797	-0.882
798	-0.904
798	-0.91
799	-0.91
799	-0.896
800	-0.891
800	-0.9
801	-0.896
801	-0.9
801	-0.899
802	-0.898
802	-0.897
803	-0.893
803	-0.883
804	-0.89
804	-0.898
804	-0.881
805	-0.86
805	-0.852
806	-0.852
806	-0.848
807	-0.851
807	-0.85
807	-0.831
808	-0.828
808	-0.82
809	-0.814
809	-0.815
810	-0.82
810	-0.816
810	-0.811
811	-0.815
811	-0.806
812	-0.801
812	-0.801
813	-0.806
813	-0.808
813	-0.804
814	-0.805
814	-0.808
815	-0.8
815	-0.796
816	-0.792
816	-0.81
817	-0.821
817	-0.827
817	-0.837
818	-0.829
818	-0.827
819	-0.837
819	-0.836
820	-0.848
820	-0.849
820	-0.847
821	-0.841
821	-0.837
822	-0.836
822	-0.824
823	-0.834
823	-0.834
823	-0.829
824	-0.827
824	-0.839
825	-0.838
825	-0.835
826	-0.83
826	-0.827
826	-0.826
827	-0.825
827	-0.815
828	-0.813
828	-0.807
829	-0.802
829	-0.786
829	-0.783
830	-0.782
830	-0.768
831	-0.76
831	-0.749
832	-0.741
832	-0.738
832	-0.731
833	-0.73
833	-0.735
834	-0.729
834	-0.725
835	-0.717
835	-0.717
835	-0.713
836	-0.708
836	-0.704
837	-0.693
837	-0.686
838	-0.674
838	-0.657
839	-0.651
839	-0.639
839	-0.628
840	-0.627
840	-0.618
841	-0.607
841	-0.599
842	-0.591
842	-0.579
842	-0.576
843	-0.573
843	-0.569
844	-0.566
844	-0.555
845	-0.541
845	-0.531
845	-0.521
846	-0.511
846	-0.499
847	-0.487
847	-0.474
848	-0.459
848	-0.443
848	-0.429
849	-0.418
849	-0.405
850	-0.394
850	-0.385
851	-0.371
851	-0.355
851	-0.346
852	-0.33
852	-0.316
853	-0.306
853	-0.295
854	-0.283
854	-0.273
854	-0.261
855	-0.25
855	-0.242
856	-0.235
856	-0.226
857	-0.219
857	-0.211
857	-0.199
858	-0.189
858	-0.182
859	-0.171
859	-0.161
860	-0.15
860	-0.137
860	-0.127
861	-0.118
861	-0.108
862	-0.1
862	-0.093
863	-0.085
863	-0.076
863	-0.07
864	-0.064
864	-0.057
865	-0.051
865	-0.045
866	-0.04
866	-0.034
866	-0.029
867	-0.024
867	-0.018
868	-0.014
868	-0.009
869	-0.005
869	-0.002
869	0.001
870	0.003
870	0.005
871	0.007
871	0.009
872	0.01
872	0.011
872	0.012
873	0.011
873	0.011
874	0.01
874	0.01
875	0.01
875	0.009
875	0.009
876	0.009
876	0.008
877	0.008
877	0.007
878	0.007
878	0.006
878	0.007
879	0.006
879	0.006
880	0.006
880	0.005
881	0.004
881	0.004
881	0.003
882	0.003
882	0.001
883	0
883	-0.001
884	-0.002
884	-0.002
884	-0.002
885	-0.002
885	-0.002
886	-0.003
886	-0.003
887	-0.004
887	-0.005
887	-0.005
888	-0.005
888	-0.007
889	-0.008
889	-0.009
890	-0.01
890	-0.01
890	-0.011
891	-0.01
891	-0.01
892	-0.009
892	-0.009
893	-0.009
893	-0.008
893	-0.008
894	-0.007
894	-0.007
895	-0.007
895	-0.008
895	-0.008
896	-0.008
896	-0.008
897	-0.008
897	-0.008
898	-0.007
898	-0.007
898	-0.007
899	-0.007
899	-0.006
900	-0.006
900	-0.006
901	-0.006
901	-0.006
901	-0.007
902	-0.007
902	-0.007
903	-0.007
903	-0.008
904	-0.008
904	-0.009
904	-0.009
905	-0.008
905	-0.008
906	-0.008
906	-0.008
907	-0.008
907	-0.008
907	-0.007
908	-0.007
908	-0.007
909	-0.006
909	-0.006
910	-0.005
910	-0.004
910	-0.004
911	-0.003
911	-0.002
912	-0.001
912	0
913	0.001
913	0.002
913	0.002
914	0.003
914	0.003
915	0.003
915	0.003
916	0.003
916	0.002
916	0.002
917	0.001
917	0.001
918	0.001
918	0
918	-0
919	-0
919	-0.001
920	-0
920	0
921	0.001
921	0.001
921	0.002
922	0.002
922	0.003
923	0.003
923	0.003
924	0.003
924	0.003
924	0.002
925	0.001
925	-0
926	-0.001
926	-0.003
927	-0.003
927	-0.004
927	-0.005
928	-0.005
928	-0.005
929	-0.005
929	-0.004
930	-0.003
930	-0.002
930	-0.001
931	0
931	0.001
932	0.003
932	0.004
933	0.005
933	0.005
933	0.005
934	0.005
934	0.005
935	0.005
935	0.004
935	0.003
936	0.002
936	0.001
937	0
937	-0.001
938	-0.001
938	-0.002
938	-0.002
939	-0.002
939	-0.003
940	-0.003
940	-0.004
941	-0.004
941	-0.004
941	-0.004
942	-0.005
942	-0.005
943	-0.005
943	-0.006
944	-0.006
944	-0.007
944	-0.007
945	-0.007
945	-0.008
946	-0.008
946	-0.01
946	-0.01
947	-0.01
947	-0.011
948	-0.01
948	-0.01
949	-0.009
949	-0.008
949	-0.007
950	-0.006
950	-0.004
951	-0.002
951	-0.001
952	-0
952	0.001
952	0.002
953	0.002
953	0.003
954	0.003
954	0.003
955	0.003
955	0.003
955	0.002
956	0.001
956	0.001
957	-0
957	-0.001
957	-0.002
958	-0.003
958	-0.004
959	-0.004
959	-0.005
960	-0.005
960	-0.005
960	-0.004
961	-0.004
961	-0.003
962	-0.003
962	-0.002
963	-0.002
963	-0.001
963	-0.001
964	-0
964	0
965	0.001
965	0.001
966	0.001
966	0.001
966	0.002
967	0.002
967	0.002
968	0.002
968	0.002
968	0.002
969	0.002
969	0.001
970	0.001
970	0
971	0
971	-0
971	-0.001
972	-0
972	-0
973	-0
973	-0.001
974	-0.001
974	-0.001
974	-0.001
975	-0.001
975	-0.001
976	-0.001
976	-0.001
976	-0.001
977	-0.002
977	-0.002
978	-0.002
978	-0.002
979	-0.003
979	-0.003
979	-0.003
980	-0.003
980	-0.003
981	-0.003
981	-0.003
982	-0.003
982	-0.002
982	-0.002
983	-0.002
983	-0.002
984	-0.002
984	-0.003
984	-0.003
985	-0.003
985	-0.004
986	-0.005
986	-0.006
987	-0.007
987	-0.008
987	-0.009
988	-0.01
988	-0.012
989	-0.013
989	-0.014
990	-0.016
990	-0.018
990	-0.019
991	-0.02
991	-0.021
992	-0.021
992	-0.022
992	-0.023
993	-0.023
993	-0.024
994	-0.025
994	-0.026
995	-0.027
995	-0.028
995	-0.029
996	-0.03
996	-0.032
997	-0.033
997	-0.034
997	-0.034
998	-0.035
998	-0.035
999	-0.035
999	-0.035
1000	-0.034
1000	-0.034
1000	-0.033
1001	-0.032
1001	-0.031
1002	-0.03
1002	-0.029
1003	-0.028
1003	-0.028
1003	-0.027
1004	-0.027
1004	-0.026
1005	-0.026
1005	-0.027
1005	-0.027
1006	-0.027
1006	-0.028
1007	-0.028
1007	-0.029
1008	-0.03
1008	-0.03
1008	-0.031
1009	-0.031
1009	-0.031
1010	-0.03
1010	-0.03
1010	-0.03
1011	-0.029
1011	-0.029
1012	-0.029
1012	-0.028
1013	-0.027
1013	-0.026
1013	-0.026
1014	-0.026
1014	-0.025
1015	-0.025
1015	-0.025
1016	-0.025
1016	-0.026
1016	-0.026
1017	-0.027
1017	-0.027
1018	-0.027
1018	-0.028
1018	-0.028
1019	-0.028
1019	-0.028
1020	-0.028
1020	-0.028
1021	-0.028
1021	-0.029
1021	-0.029
1022	-0.029
1022	-0.029
1023	-0.029
1023	-0.03
1023	-0.03
1024	-0.03
1024	-0.03
1025	-0.03
1025	-0.03
1026	-0.03
1026	-0.03
1026	-0.03
1027	-0.03
1027	-0.029
1028	-0.029
1028	-0.028
1028	-0.028
1029	-0.028
1029	-0.028
1030	-0.028
1030	-0.028
1031	-0.028
1031	-0.027
1031	-0.027
1032	-0.027
1032	-0.028
1033	-0.028
1033	-0.028
1033	-0.029
1034	-0.029
1034	-0.03
1035	-0.03
1035	-0.031
1036	-0.032
1036	-0.032
1036	-0.033
1037	-0.033
1037	-0.033
1038	-0.033
1038	-0.033
1039	-0.033
1039	-0.032
1039	-0.032
1040	-0.032
1040	-0.031
1041	-0.031
1041	-0.031
1041	-0.031
1042	-0.032
1042	-0.032
1043	-0.033
1043	-0.033
1044	-0.033
1044	-0.034
1044	-0.034
1045	-0.035
1045	-0.035
1046	-0.035
1046	-0.035
1046	-0.035
1047	-0.035
1047	-0.035
1048	-0.034
1048	-0.034
1049	-0.034
1049	-0.034
1049	-0.034
1050	-0.035
1050	-0.036
1051	-0.036
1051	-0.037
1051	-0.038
1052	-0.038
1052	-0.039
1053	-0.04
1053	-0.041
1053	-0.041
1054	-0.042
1054	-0.041
1055	-0.041
1055	-0.041
1056	-0.041
1056	-0.041
1056	-0.041
1057	-0.041
1057	-0.041
1058	-0.041
1058	-0.041
1058	-0.04
1059	-0.041
1059	-0.041
1060	-0.042
1060	-0.042
1061	-0.042
1061	-0.042
1061	-0.042
1062	-0.042
1062	-0.042
1063	-0.042
1063	-0.043
1063	-0.043
1064	-0.042
1064	-0.042
1065	-0.042
1065	-0.042
1066	-0.042
1066	-0.042
1066	-0.043
1067	-0.043
1067	-0.044
1068	-0.045
1068	-0.046
1068	-0.047
1069	-0.048
1069	-0.05
1070	-0.051
1070	-0.051
1071	-0.052
1071	-0.052
1071	-0.053
1072	-0.053
1072	-0.053
1073	-0.053
1073	-0.052
1073	-0.053
1074	-0.052
1074	-0.052
1075	-0.053
1075	-0.053
1076	-0.054
1076	-0.054
1076	-0.055
1077	-0.056
1077	-0.057
1078	-0.057
1078	-0.058
1078	-0.058
1079	-0.059
1079	-0.059
1080	-0.06
1080	-0.06
1080	-0.062
1081	-0.062
1081	-0.063
1082	-0.063
1082	-0.064
1083	-0.065
1083	-0.066
1083	-0.067
1084	-0.068
1084	-0.069
1085	-0.071
1085	-0.071
1085	-0.072
1086	-0.073
1086	-0.075
1087	-0.076
1087	-0.076
1088	-0.078
1088	-0.079
1088	-0.08
1089	-0.082
1089	-0.082
1090	-0.083
1090	-0.084
1090	-0.086
1091	-0.088
1091	-0.088
1092	-0.089
1092	-0.089
1092	-0.09
1093	-0.091
1093	-0.091
1094	-0.091
1094	-0.092
1095	-0.094
1095	-0.094
1095	-0.094
1096	-0.096
1096	-0.098
1097	-0.099
1097	-0.101
1097	-0.103
1098	-0.105
1098	-0.108
1099	-0.109
1099	-0.111
1100	-0.113
1100	-0.116
1100	-0.119
1101	-0.122
1101	-0.124
1102	-0.126
1102	-0.129
1102	-0.131
1103	-0.134
1103	-0.137
1104	-0.14
1104	-0.143
1104	-0.146
1105	-0.147
1105	-0.149
1106	-0.155
1106	-0.157
1107	-0.162
1107	-0.165
1107	-0.169
1108	-0.171
1108	-0.172
1109	-0.175
1109	-0.179
1109	-0.184
1110	-0.187
1110	-0.189
1111	-0.198
1111	-0.194
