Data from 3.3A_17C_Absorbance__479__03346.txt Node

Date: Tue Jun 20 17:29:20 CEST 2023
User: Marek
Spectrometer: MAYP115816
Trigger mode: 0
Integration Time (sec): 2.200000E-1
Scans to average: 10
Electric dark correction enabled: true
Nonlinearity correction enabled: true
Boxcar width: 5
XAxis mode: Wavelengths
Number of Pixels in Spectrum: 2068
>>>>>Begin Spectral Data<<<<<
199	-0.797
199	-0.785
200	-0.748
200	-0.694
201	-0.668
201	-0.661
202	-0.645
202	-0.638
203	-0.638
203	-0.632
204	-0.611
204	-0.595
205	-0.572
205	-0.562
205	-0.57
206	-0.571
206	-0.566
207	-0.558
207	-0.565
208	-0.565
208	-0.57
209	-0.572
209	-0.578
210	-0.591
210	-0.6
211	-0.593
211	-0.597
212	-0.604
212	-0.61
213	-0.607
213	-0.6
213	-0.597
214	-0.602
214	-0.603
215	-0.6
215	-0.605
216	-0.614
216	-0.62
217	-0.619
217	-0.62
218	-0.626
218	-0.629
219	-0.637
219	-0.64
220	-0.644
220	-0.65
221	-0.649
221	-0.651
221	-0.641
222	-0.64
222	-0.639
223	-0.637
223	-0.639
224	-0.639
224	-0.637
225	-0.634
225	-0.636
226	-0.635
226	-0.634
227	-0.642
227	-0.653
228	-0.657
228	-0.665
229	-0.67
229	-0.668
229	-0.668
230	-0.665
230	-0.661
231	-0.659
231	-0.654
232	-0.656
232	-0.65
233	-0.651
233	-0.638
234	-0.638
234	-0.634
235	-0.639
235	-0.649
236	-0.656
236	-0.657
236	-0.658
237	-0.657
237	-0.659
238	-0.66
238	-0.663
239	-0.666
239	-0.674
240	-0.666
240	-0.664
241	-0.659
241	-0.662
242	-0.665
242	-0.672
243	-0.672
243	-0.673
243	-0.678
244	-0.673
244	-0.673
245	-0.677
245	-0.681
246	-0.691
246	-0.694
247	-0.701
247	-0.688
248	-0.688
248	-0.691
249	-0.696
249	-0.699
250	-0.699
250	-0.706
250	-0.704
251	-0.704
251	-0.701
252	-0.701
252	-0.712
253	-0.706
253	-0.717
254	-0.722
254	-0.724
255	-0.733
255	-0.733
256	-0.736
256	-0.748
257	-0.757
257	-0.754
258	-0.755
258	-0.763
258	-0.76
259	-0.753
259	-0.771
260	-0.771
260	-0.761
261	-0.772
261	-0.759
262	-0.765
262	-0.765
263	-0.756
263	-0.761
264	-0.77
264	-0.772
265	-0.761
265	-0.763
265	-0.771
266	-0.759
266	-0.76
267	-0.759
267	-0.775
268	-0.786
268	-0.779
269	-0.77
269	-0.784
270	-0.79
270	-0.789
271	-0.803
271	-0.814
272	-0.814
272	-0.817
272	-0.808
273	-0.817
273	-0.834
274	-0.827
274	-0.821
275	-0.817
275	-0.806
276	-0.809
276	-0.815
277	-0.818
277	-0.816
278	-0.822
278	-0.821
278	-0.807
279	-0.816
279	-0.832
280	-0.833
280	-0.844
281	-0.837
281	-0.829
282	-0.833
282	-0.827
283	-0.818
283	-0.834
284	-0.849
284	-0.858
285	-0.837
285	-0.845
285	-0.836
286	-0.842
286	-0.86
287	-0.857
287	-0.857
288	-0.858
288	-0.838
289	-0.836
289	-0.844
290	-0.853
290	-0.841
291	-0.846
291	-0.844
292	-0.825
292	-0.821
292	-0.824
293	-0.811
293	-0.808
294	-0.807
294	-0.793
295	-0.775
295	-0.787
296	-0.799
296	-0.793
297	-0.782
297	-0.786
298	-0.784
298	-0.802
298	-0.805
299	-0.786
299	-0.779
300	-0.774
300	-0.755
301	-0.737
301	-0.74
302	-0.75
302	-0.734
303	-0.726
303	-0.714
304	-0.699
304	-0.704
305	-0.695
305	-0.707
305	-0.723
306	-0.708
306	-0.705
307	-0.697
307	-0.709
308	-0.712
308	-0.708
309	-0.71
309	-0.704
310	-0.703
310	-0.697
311	-0.682
311	-0.7
311	-0.687
312	-0.683
312	-0.672
313	-0.665
313	-0.665
314	-0.672
314	-0.67
315	-0.667
315	-0.661
316	-0.655
316	-0.644
317	-0.637
317	-0.633
318	-0.625
318	-0.622
318	-0.613
319	-0.599
319	-0.592
320	-0.59
320	-0.587
321	-0.584
321	-0.585
322	-0.58
322	-0.574
323	-0.574
323	-0.564
324	-0.56
324	-0.55
324	-0.538
325	-0.524
325	-0.506
326	-0.495
326	-0.468
327	-0.452
327	-0.429
328	-0.397
328	-0.374
329	-0.345
329	-0.315
330	-0.286
330	-0.25
330	-0.215
331	-0.178
331	-0.145
332	-0.111
332	-0.075
333	-0.045
333	-0.01
334	0.02
334	0.047
335	0.076
335	0.099
336	0.122
336	0.144
336	0.161
337	0.18
337	0.197
338	0.211
338	0.222
339	0.237
339	0.249
340	0.257
340	0.266
341	0.273
341	0.28
342	0.288
342	0.294
342	0.299
343	0.303
343	0.309
344	0.312
344	0.316
345	0.319
345	0.322
346	0.324
346	0.326
347	0.328
347	0.329
348	0.331
348	0.333
348	0.334
349	0.334
349	0.335
350	0.336
350	0.336
351	0.337
351	0.338
352	0.338
352	0.338
353	0.339
353	0.339
354	0.339
354	0.339
354	0.339
355	0.339
355	0.339
356	0.339
356	0.339
357	0.339
357	0.339
358	0.339
358	0.339
359	0.339
359	0.339
360	0.339
360	0.34
360	0.34
361	0.34
361	0.34
362	0.34
362	0.34
363	0.34
363	0.34
364	0.34
364	0.34
365	0.34
365	0.339
366	0.339
366	0.339
366	0.339
367	0.339
367	0.339
368	0.338
368	0.338
369	0.338
369	0.337
370	0.337
370	0.337
371	0.337
371	0.336
372	0.336
372	0.336
372	0.336
373	0.336
373	0.336
374	0.336
374	0.336
375	0.335
375	0.335
376	0.335
376	0.335
377	0.334
377	0.334
378	0.334
378	0.333
378	0.333
379	0.332
379	0.332
380	0.332
380	0.332
381	0.332
381	0.331
382	0.331
382	0.331
383	0.331
383	0.33
383	0.33
384	0.33
384	0.329
385	0.329
385	0.329
386	0.329
386	0.328
387	0.328
387	0.328
388	0.328
388	0.327
389	0.327
389	0.327
389	0.327
390	0.327
390	0.327
391	0.326
391	0.326
392	0.326
392	0.325
393	0.325
393	0.325
394	0.324
394	0.324
394	0.324
395	0.323
395	0.323
396	0.322
396	0.322
397	0.322
397	0.322
398	0.321
398	0.321
399	0.32
399	0.32
400	0.32
400	0.319
400	0.319
401	0.319
401	0.318
402	0.318
402	0.318
403	0.318
403	0.318
404	0.317
404	0.317
405	0.317
405	0.316
405	0.316
406	0.316
406	0.316
407	0.316
407	0.316
408	0.316
408	0.315
409	0.315
409	0.315
410	0.315
410	0.315
411	0.315
411	0.314
411	0.314
412	0.314
412	0.313
413	0.313
413	0.313
414	0.312
414	0.312
415	0.312
415	0.312
416	0.312
416	0.311
416	0.311
417	0.311
417	0.311
418	0.311
418	0.311
419	0.31
419	0.31
420	0.31
420	0.31
421	0.31
421	0.31
421	0.31
422	0.31
422	0.31
423	0.31
423	0.31
424	0.309
424	0.309
425	0.309
425	0.309
426	0.309
426	0.308
427	0.308
427	0.308
427	0.308
428	0.308
428	0.308
429	0.308
429	0.308
430	0.307
430	0.307
431	0.307
431	0.307
432	0.306
432	0.306
432	0.305
433	0.305
433	0.305
434	0.305
434	0.305
435	0.305
435	0.305
436	0.305
436	0.306
437	0.305
437	0.306
437	0.306
438	0.306
438	0.306
439	0.305
439	0.305
440	0.305
440	0.305
441	0.304
441	0.304
442	0.304
442	0.304
442	0.304
443	0.304
443	0.304
444	0.304
444	0.304
445	0.304
445	0.304
446	0.304
446	0.304
447	0.304
447	0.304
447	0.304
448	0.304
448	0.304
449	0.304
449	0.303
450	0.303
450	0.303
451	0.303
451	0.303
452	0.303
452	0.303
452	0.303
453	0.303
453	0.303
454	0.304
454	0.304
455	0.304
455	0.304
456	0.304
456	0.304
457	0.304
457	0.304
458	0.304
458	0.304
458	0.304
459	0.304
459	0.304
460	0.303
460	0.303
461	0.304
461	0.304
462	0.305
462	0.305
463	0.306
463	0.307
463	0.308
464	0.308
464	0.308
465	0.309
465	0.309
466	0.31
466	0.31
467	0.31
467	0.31
467	0.31
468	0.31
468	0.31
469	0.31
469	0.311
470	0.311
470	0.312
471	0.312
471	0.312
472	0.312
472	0.313
472	0.314
473	0.314
473	0.315
474	0.316
474	0.316
475	0.317
475	0.318
476	0.319
476	0.319
477	0.32
477	0.321
477	0.322
478	0.322
478	0.323
479	0.324
479	0.325
480	0.326
480	0.327
481	0.328
481	0.328
482	0.329
482	0.33
482	0.331
483	0.333
483	0.335
484	0.336
484	0.337
485	0.338
485	0.339
486	0.34
486	0.341
487	0.343
487	0.344
487	0.345
488	0.346
488	0.347
489	0.348
489	0.35
490	0.352
490	0.353
491	0.355
491	0.357
492	0.358
492	0.36
492	0.361
493	0.363
493	0.365
494	0.367
494	0.369
495	0.37
495	0.372
496	0.374
496	0.376
496	0.378
497	0.38
497	0.382
498	0.384
498	0.387
499	0.389
499	0.391
500	0.394
500	0.397
501	0.399
501	0.401
501	0.403
502	0.406
502	0.408
503	0.411
503	0.413
504	0.415
504	0.417
505	0.42
505	0.423
506	0.425
506	0.428
506	0.432
507	0.434
507	0.438
508	0.441
508	0.444
509	0.447
509	0.449
510	0.452
510	0.454
511	0.457
511	0.459
511	0.461
512	0.463
512	0.465
513	0.467
513	0.469
514	0.471
514	0.474
515	0.476
515	0.478
515	0.48
516	0.482
516	0.484
517	0.487
517	0.488
518	0.49
518	0.491
519	0.493
519	0.493
520	0.495
520	0.497
520	0.498
521	0.499
521	0.501
522	0.502
522	0.504
523	0.506
523	0.508
524	0.509
524	0.51
524	0.511
525	0.512
525	0.513
526	0.514
526	0.515
527	0.515
527	0.516
528	0.515
528	0.516
529	0.516
529	0.516
529	0.515
530	0.515
530	0.515
531	0.515
531	0.514
532	0.514
532	0.513
533	0.513
533	0.512
533	0.512
534	0.511
534	0.51
535	0.509
535	0.508
536	0.507
536	0.506
537	0.505
537	0.504
538	0.503
538	0.501
538	0.499
539	0.498
539	0.497
540	0.495
540	0.493
541	0.491
541	0.489
542	0.487
542	0.485
542	0.483
543	0.48
543	0.478
544	0.476
544	0.473
545	0.471
545	0.469
546	0.467
546	0.464
547	0.461
547	0.459
547	0.456
548	0.455
548	0.452
549	0.45
549	0.447
550	0.445
550	0.442
551	0.439
551	0.437
551	0.434
552	0.432
552	0.429
553	0.427
553	0.425
554	0.422
554	0.419
555	0.416
555	0.414
556	0.411
556	0.409
556	0.406
557	0.404
557	0.402
558	0.399
558	0.396
559	0.394
559	0.392
560	0.389
560	0.386
560	0.384
561	0.383
561	0.381
562	0.379
562	0.376
563	0.374
563	0.372
564	0.37
564	0.368
564	0.366
565	0.365
565	0.363
566	0.361
566	0.359
567	0.357
567	0.356
568	0.354
568	0.352
568	0.35
569	0.348
569	0.346
570	0.343
570	0.34
571	0.339
571	0.336
572	0.334
572	0.332
573	0.329
573	0.327
573	0.324
574	0.323
574	0.322
575	0.32
575	0.32
576	0.319
576	0.317
577	0.314
577	0.313
577	0.312
578	0.311
578	0.311
579	0.311
579	0.31
580	0.307
580	0.304
581	0.301
581	0.299
581	0.298
582	0.298
582	0.297
583	0.296
583	0.294
584	0.291
584	0.288
585	0.288
585	0.287
585	0.287
586	0.286
586	0.284
587	0.282
587	0.28
588	0.278
588	0.277
589	0.277
589	0.276
590	0.275
590	0.273
590	0.274
591	0.273
591	0.271
592	0.27
592	0.268
593	0.267
593	0.266
594	0.264
594	0.263
594	0.262
595	0.261
595	0.258
596	0.257
596	0.257
597	0.258
597	0.257
598	0.256
598	0.256
598	0.255
599	0.254
599	0.253
600	0.252
600	0.251
601	0.251
601	0.25
602	0.248
602	0.247
602	0.246
603	0.245
603	0.245
604	0.245
604	0.244
605	0.244
605	0.244
606	0.243
606	0.241
606	0.24
607	0.239
607	0.238
608	0.237
608	0.235
609	0.234
609	0.234
610	0.232
610	0.231
610	0.23
611	0.23
611	0.229
612	0.229
612	0.229
613	0.228
613	0.227
614	0.226
614	0.224
614	0.223
615	0.222
615	0.22
616	0.22
616	0.218
617	0.217
617	0.216
618	0.214
618	0.213
618	0.212
619	0.212
619	0.212
620	0.212
620	0.211
621	0.209
621	0.209
622	0.207
622	0.206
622	0.204
623	0.203
623	0.202
624	0.202
624	0.2
625	0.199
625	0.198
626	0.197
626	0.196
626	0.195
627	0.194
627	0.193
628	0.193
628	0.191
629	0.19
629	0.188
630	0.186
630	0.184
630	0.183
631	0.181
631	0.179
632	0.177
632	0.175
633	0.173
633	0.17
634	0.169
634	0.167
634	0.165
635	0.163
635	0.161
636	0.158
636	0.156
637	0.153
637	0.15
638	0.147
638	0.144
638	0.14
639	0.136
639	0.132
640	0.128
640	0.123
641	0.119
641	0.115
642	0.111
642	0.107
642	0.102
643	0.097
643	0.092
644	0.087
644	0.082
645	0.077
645	0.072
646	0.066
646	0.06
646	0.053
647	0.047
647	0.04
648	0.033
648	0.026
649	0.018
649	0.011
650	0.004
650	-0.004
650	-0.012
651	-0.021
651	-0.033
652	-0.047
652	-0.061
653	-0.074
653	-0.085
653	-0.08
654	-0.06
654	-0.054
655	-0.059
655	-0.064
656	-0.07
656	-0.077
657	-0.082
657	-0.086
657	-0.092
658	-0.099
658	-0.13
659	-0.216
659	-0.305
660	-0.345
660	-0.37
661	-0.397
661	-0.426
661	-0.456
662	-0.485
662	-0.515
663	-0.55
663	-0.588
664	-0.625
664	-0.666
665	-0.711
665	-0.757
665	-0.802
666	-0.853
666	-0.908
667	-0.962
667	-1.024
668	-1.083
668	-1.152
669	-1.22
669	-1.294
669	-1.374
670	-1.46
670	-1.584
671	-1.807
671	-2.163
672	-2.371
672	-2.517
672	-2.629
673	-2.719
673	-2.794
674	-2.835
674	-2.848
675	-2.863
675	-2.865
676	-2.855
676	-2.789
676	-2.714
677	-2.621
677	-2.506
678	-2.328
678	-1.999
679	-1.692
679	-1.553
680	-1.457
680	-1.385
680	-1.322
681	-1.278
681	-1.228
682	-1.189
682	-1.147
683	-1.106
683	-1.084
684	-1.057
684	-1.039
684	-1.018
685	-0.998
685	-0.99
686	-0.967
686	-0.953
687	-0.943
687	-0.933
687	-0.935
688	-0.919
688	-0.911
689	-0.917
689	-0.914
690	-0.902
690	-0.893
691	-0.892
691	-0.896
691	-0.898
692	-0.896
692	-0.893
693	-0.9
693	-0.91
694	-0.891
694	-0.889
695	-0.892
695	-0.886
695	-0.893
696	-0.899
696	-0.892
697	-0.888
697	-0.885
698	-0.879
698	-0.873
698	-0.887
699	-0.885
699	-0.886
700	-0.904
700	-0.897
701	-0.885
701	-0.877
702	-0.877
702	-0.875
702	-0.877
703	-0.869
703	-0.858
704	-0.867
704	-0.869
705	-0.858
705	-0.858
705	-0.853
706	-0.846
706	-0.84
707	-0.851
707	-0.852
708	-0.848
708	-0.846
709	-0.848
709	-0.846
709	-0.841
710	-0.848
710	-0.85
711	-0.851
711	-0.853
712	-0.845
712	-0.843
713	-0.849
713	-0.848
713	-0.827
714	-0.831
714	-0.834
715	-0.825
715	-0.834
716	-0.849
716	-0.858
716	-0.859
717	-0.865
717	-0.858
718	-0.853
718	-0.852
719	-0.847
719	-0.839
720	-0.835
720	-0.83
720	-0.826
721	-0.816
721	-0.82
722	-0.819
722	-0.814
723	-0.831
723	-0.845
723	-0.853
724	-0.852
724	-0.857
725	-0.851
725	-0.853
726	-0.856
726	-0.847
727	-0.849
727	-0.856
727	-0.846
728	-0.834
728	-0.829
729	-0.831
729	-0.834
730	-0.84
730	-0.83
730	-0.837
731	-0.84
731	-0.841
732	-0.845
732	-0.84
733	-0.855
733	-0.861
734	-0.87
734	-0.862
734	-0.845
735	-0.837
735	-0.831
736	-0.83
736	-0.823
737	-0.819
737	-0.808
737	-0.801
738	-0.787
738	-0.776
739	-0.779
739	-0.781
740	-0.794
740	-0.794
741	-0.806
741	-0.816
741	-0.827
742	-0.835
742	-0.851
743	-0.858
743	-0.861
744	-0.863
744	-0.87
744	-0.865
745	-0.874
745	-0.863
746	-0.859
746	-0.848
747	-0.85
747	-0.84
748	-0.841
748	-0.844
748	-0.845
749	-0.838
749	-0.844
750	-0.833
750	-0.833
751	-0.833
751	-0.831
751	-0.841
752	-0.845
752	-0.848
753	-0.85
753	-0.842
754	-0.861
754	-0.86
754	-0.869
755	-0.869
755	-0.858
756	-0.862
756	-0.85
757	-0.84
757	-0.829
758	-0.829
758	-0.829
758	-0.826
759	-0.832
759	-0.832
760	-0.83
760	-0.835
761	-0.828
761	-0.833
761	-0.835
762	-0.843
762	-0.843
763	-0.843
763	-0.846
764	-0.844
764	-0.84
764	-0.846
765	-0.844
765	-0.852
766	-0.854
766	-0.856
767	-0.87
767	-0.866
768	-0.865
768	-0.857
768	-0.853
769	-0.856
769	-0.864
770	-0.874
770	-0.876
771	-0.873
771	-0.872
771	-0.877
772	-0.883
772	-0.905
773	-0.905
773	-0.905
774	-0.904
774	-0.885
775	-0.873
775	-0.874
775	-0.876
776	-0.887
776	-0.883
777	-0.88
777	-0.862
778	-0.869
778	-0.878
778	-0.877
779	-0.887
779	-0.901
780	-0.896
780	-0.905
781	-0.893
781	-0.884
781	-0.9
782	-0.921
782	-0.924
783	-0.922
783	-0.931
784	-0.935
784	-0.93
784	-0.95
785	-0.943
785	-0.957
786	-0.96
786	-0.952
787	-0.94
787	-0.949
788	-0.943
788	-0.936
788	-0.937
789	-0.935
789	-0.923
790	-0.923
790	-0.907
791	-0.915
791	-0.91
791	-0.904
792	-0.899
792	-0.901
793	-0.905
793	-0.892
794	-0.886
794	-0.882
794	-0.888
795	-0.908
795	-0.893
796	-0.9
796	-0.895
797	-0.888
797	-0.879
797	-0.872
798	-0.892
798	-0.895
799	-0.895
799	-0.882
800	-0.877
800	-0.886
801	-0.882
801	-0.887
801	-0.885
802	-0.886
802	-0.886
803	-0.881
803	-0.874
804	-0.879
804	-0.886
804	-0.869
805	-0.849
805	-0.842
806	-0.842
806	-0.836
807	-0.837
807	-0.837
807	-0.82
808	-0.816
808	-0.808
809	-0.803
809	-0.804
810	-0.807
810	-0.804
810	-0.801
811	-0.804
811	-0.795
812	-0.786
812	-0.787
813	-0.791
813	-0.793
813	-0.789
814	-0.789
814	-0.794
815	-0.785
815	-0.782
816	-0.778
816	-0.794
817	-0.808
817	-0.814
817	-0.822
818	-0.815
818	-0.812
819	-0.822
819	-0.822
820	-0.834
820	-0.833
820	-0.833
821	-0.829
821	-0.823
822	-0.822
822	-0.81
823	-0.82
823	-0.819
823	-0.814
824	-0.811
824	-0.821
825	-0.818
825	-0.815
826	-0.809
826	-0.805
826	-0.804
827	-0.804
827	-0.794
828	-0.794
828	-0.788
829	-0.783
829	-0.765
829	-0.763
830	-0.762
830	-0.747
831	-0.741
831	-0.73
832	-0.72
832	-0.717
832	-0.711
833	-0.709
833	-0.714
834	-0.71
834	-0.704
835	-0.697
835	-0.698
835	-0.692
836	-0.688
836	-0.686
837	-0.676
837	-0.666
838	-0.654
838	-0.637
839	-0.631
839	-0.618
839	-0.606
840	-0.604
840	-0.596
841	-0.585
841	-0.579
842	-0.569
842	-0.557
842	-0.554
843	-0.55
843	-0.545
844	-0.543
844	-0.533
845	-0.519
845	-0.509
845	-0.499
846	-0.486
846	-0.476
847	-0.464
847	-0.452
848	-0.437
848	-0.42
848	-0.406
849	-0.393
849	-0.381
850	-0.371
850	-0.359
851	-0.345
851	-0.328
851	-0.319
852	-0.304
852	-0.291
853	-0.283
853	-0.272
854	-0.26
854	-0.25
854	-0.236
855	-0.225
855	-0.217
856	-0.21
856	-0.201
857	-0.193
857	-0.184
857	-0.17
858	-0.159
858	-0.152
859	-0.14
859	-0.128
860	-0.118
860	-0.103
860	-0.092
861	-0.082
861	-0.072
862	-0.063
862	-0.054
863	-0.044
863	-0.035
863	-0.028
864	-0.022
864	-0.014
865	-0.007
865	-0.002
866	0.005
866	0.01
866	0.016
867	0.021
867	0.027
868	0.031
868	0.036
869	0.041
869	0.045
869	0.047
870	0.05
870	0.052
871	0.054
871	0.055
872	0.056
872	0.057
872	0.058
873	0.058
873	0.058
874	0.057
874	0.057
875	0.056
875	0.056
875	0.056
876	0.056
876	0.055
877	0.055
877	0.054
878	0.053
878	0.053
878	0.053
879	0.052
879	0.052
880	0.051
880	0.05
881	0.048
881	0.047
881	0.046
882	0.044
882	0.043
883	0.041
883	0.04
884	0.039
884	0.038
884	0.038
885	0.038
885	0.038
886	0.038
886	0.037
887	0.037
887	0.037
887	0.036
888	0.036
888	0.035
889	0.035
889	0.034
890	0.033
890	0.032
890	0.031
891	0.032
891	0.031
892	0.032
892	0.032
893	0.033
893	0.033
893	0.033
894	0.034
894	0.035
895	0.034
895	0.035
895	0.034
896	0.035
896	0.035
897	0.035
897	0.035
898	0.035
898	0.035
898	0.035
899	0.036
899	0.036
900	0.036
900	0.036
901	0.036
901	0.035
901	0.035
902	0.035
902	0.035
903	0.034
903	0.034
904	0.033
904	0.033
904	0.033
905	0.033
905	0.033
906	0.034
906	0.035
907	0.035
907	0.036
907	0.036
908	0.037
908	0.038
909	0.038
909	0.039
910	0.039
910	0.04
910	0.04
911	0.04
911	0.041
912	0.041
912	0.042
913	0.043
913	0.043
913	0.043
914	0.044
914	0.044
915	0.045
915	0.044
916	0.044
916	0.043
916	0.043
917	0.042
917	0.042
918	0.041
918	0.04
918	0.039
919	0.038
919	0.038
920	0.038
920	0.038
921	0.038
921	0.038
921	0.039
922	0.039
922	0.039
923	0.039
923	0.039
924	0.039
924	0.038
924	0.037
925	0.036
925	0.035
926	0.033
926	0.032
927	0.031
927	0.029
927	0.029
928	0.028
928	0.028
929	0.028
929	0.028
930	0.029
930	0.029
930	0.031
931	0.032
931	0.033
932	0.034
932	0.035
933	0.036
933	0.036
933	0.036
934	0.036
934	0.036
935	0.035
935	0.034
935	0.033
936	0.032
936	0.031
937	0.029
937	0.029
938	0.028
938	0.027
938	0.027
939	0.026
939	0.025
940	0.024
940	0.024
941	0.023
941	0.023
941	0.023
942	0.022
942	0.021
943	0.022
943	0.021
944	0.021
944	0.02
944	0.02
945	0.02
945	0.02
946	0.019
946	0.018
946	0.018
947	0.018
947	0.018
948	0.018
948	0.019
949	0.019
949	0.021
949	0.022
950	0.023
950	0.025
951	0.026
951	0.027
952	0.028
952	0.029
952	0.03
953	0.031
953	0.031
954	0.031
954	0.031
955	0.031
955	0.031
955	0.03
956	0.03
956	0.03
957	0.029
957	0.028
957	0.027
958	0.026
958	0.026
959	0.025
959	0.025
960	0.025
960	0.024
960	0.025
961	0.025
961	0.025
962	0.025
962	0.026
963	0.026
963	0.027
963	0.027
964	0.028
964	0.029
965	0.03
965	0.03
966	0.031
966	0.031
966	0.032
967	0.033
967	0.033
968	0.033
968	0.033
968	0.033
969	0.032
969	0.032
970	0.031
970	0.031
971	0.03
971	0.03
971	0.03
972	0.03
972	0.03
973	0.03
973	0.03
974	0.03
974	0.03
974	0.03
975	0.03
975	0.029
976	0.029
976	0.029
976	0.028
977	0.028
977	0.027
978	0.026
978	0.025
979	0.024
979	0.024
979	0.023
980	0.023
980	0.022
981	0.022
981	0.022
982	0.021
982	0.021
982	0.021
983	0.022
983	0.021
984	0.021
984	0.021
984	0.021
985	0.021
985	0.021
986	0.02
986	0.02
987	0.019
987	0.018
987	0.018
988	0.017
988	0.017
989	0.016
989	0.015
990	0.015
990	0.014
990	0.014
991	0.013
991	0.012
992	0.012
992	0.011
992	0.01
993	0.009
993	0.008
994	0.007
994	0.005
995	0.004
995	0.003
995	0.002
996	0.001
996	-0.001
997	-0.002
997	-0.002
997	-0.003
998	-0.003
998	-0.003
999	-0.002
999	-0.002
1000	-0.002
1000	-0.002
1000	-0.001
1001	0
1001	0.001
1002	0.002
1002	0.002
1003	0.003
1003	0.003
1003	0.004
1004	0.004
1004	0.004
1005	0.004
1005	0.003
1005	0.003
1006	0.002
1006	0.001
1007	0
1007	-0.001
1008	-0.001
1008	-0.003
1008	-0.003
1009	-0.004
1009	-0.003
1010	-0.003
1010	-0.003
1010	-0.002
1011	-0.002
1011	-0.001
1012	-0
1012	0.001
1013	0.003
1013	0.003
1013	0.004
1014	0.005
1014	0.005
1015	0.006
1015	0.006
1016	0.007
1016	0.007
1016	0.007
1017	0.007
1017	0.007
1018	0.007
1018	0.007
1018	0.007
1019	0.007
1019	0.006
1020	0.006
1020	0.005
1021	0.005
1021	0.005
1021	0.004
1022	0.004
1022	0.004
1023	0.004
1023	0.003
1023	0.003
1024	0.003
1024	0.003
1025	0.003
1025	0.003
1026	0.003
1026	0.003
1026	0.003
1027	0.002
1027	0.003
1028	0.003
1028	0.004
1028	0.004
1029	0.004
1029	0.004
1030	0.004
1030	0.004
1031	0.004
1031	0.005
1031	0.005
1032	0.005
1032	0.005
1033	0.004
1033	0.004
1033	0.003
1034	0.003
1034	0.002
1035	0.002
1035	0.001
1036	-0.001
1036	-0.001
1036	-0.002
1037	-0.002
1037	-0.002
1038	-0.003
1038	-0.003
1039	-0.003
1039	-0.002
1039	-0.002
1040	-0.002
1040	-0.001
1041	-0.001
1041	-0.001
1041	-0.002
1042	-0.002
1042	-0.003
1043	-0.003
1043	-0.004
1044	-0.005
1044	-0.006
1044	-0.006
1045	-0.006
1045	-0.007
1046	-0.007
1046	-0.007
1046	-0.008
1047	-0.008
1047	-0.008
1048	-0.007
1048	-0.008
1049	-0.008
1049	-0.009
1049	-0.009
1050	-0.01
1050	-0.011
1051	-0.012
1051	-0.013
1051	-0.014
1052	-0.015
1052	-0.016
1053	-0.016
1053	-0.017
1053	-0.017
1054	-0.018
1054	-0.018
1055	-0.017
1055	-0.017
1056	-0.017
1056	-0.017
1056	-0.017
1057	-0.017
1057	-0.017
1058	-0.017
1058	-0.017
1058	-0.016
1059	-0.017
1059	-0.017
1060	-0.018
1060	-0.018
1061	-0.018
1061	-0.018
1061	-0.018
1062	-0.018
1062	-0.018
1063	-0.018
1063	-0.019
1063	-0.019
1064	-0.019
1064	-0.019
1065	-0.019
1065	-0.02
1066	-0.02
1066	-0.021
1066	-0.021
1067	-0.022
1067	-0.023
1068	-0.023
1068	-0.025
1068	-0.025
1069	-0.026
1069	-0.027
1070	-0.027
1070	-0.028
1071	-0.028
1071	-0.028
1071	-0.028
1072	-0.029
1072	-0.029
1073	-0.029
1073	-0.029
1073	-0.029
1074	-0.029
1074	-0.029
1075	-0.03
1075	-0.03
1076	-0.032
1076	-0.032
1076	-0.032
1077	-0.033
1077	-0.034
1078	-0.035
1078	-0.036
1078	-0.037
1079	-0.037
1079	-0.037
1080	-0.039
1080	-0.04
1080	-0.041
1081	-0.042
1081	-0.043
1082	-0.044
1082	-0.046
1083	-0.047
1083	-0.048
1083	-0.05
1084	-0.051
1084	-0.052
1085	-0.053
1085	-0.054
1085	-0.055
1086	-0.056
1086	-0.057
1087	-0.058
1087	-0.058
1088	-0.059
1088	-0.06
1088	-0.06
1089	-0.061
1089	-0.061
1090	-0.062
1090	-0.063
1090	-0.064
1091	-0.065
1091	-0.064
1092	-0.065
1092	-0.065
1092	-0.065
1093	-0.066
1093	-0.066
1094	-0.067
1094	-0.068
1095	-0.069
1095	-0.069
1095	-0.07
1096	-0.072
1096	-0.074
1097	-0.075
1097	-0.077
1097	-0.079
1098	-0.081
1098	-0.083
1099	-0.085
1099	-0.087
1100	-0.09
1100	-0.092
1100	-0.096
1101	-0.098
1101	-0.101
1102	-0.103
1102	-0.106
1102	-0.107
1103	-0.11
1103	-0.113
1104	-0.116
1104	-0.119
1104	-0.122
1105	-0.124
1105	-0.127
1106	-0.132
1106	-0.133
1107	-0.14
1107	-0.145
1107	-0.149
1108	-0.152
1108	-0.153
1109	-0.158
1109	-0.161
1109	-0.165
1110	-0.168
1110	-0.173
1111	-0.184
1111	-0.179
