Data from 3.3A_17C_Absorbance__856__03723.txt Node

Date: Tue Jun 20 17:43:10 CEST 2023
User: Marek
Spectrometer: MAYP115816
Trigger mode: 0
Integration Time (sec): 2.200000E-1
Scans to average: 10
Electric dark correction enabled: true
Nonlinearity correction enabled: true
Boxcar width: 5
XAxis mode: Wavelengths
Number of Pixels in Spectrum: 2068
>>>>>Begin Spectral Data<<<<<
199	-0.787
199	-0.782
200	-0.745
200	-0.69
201	-0.663
201	-0.653
202	-0.639
202	-0.635
203	-0.634
203	-0.628
204	-0.608
204	-0.593
205	-0.569
205	-0.56
205	-0.569
206	-0.57
206	-0.566
207	-0.557
207	-0.56
208	-0.562
208	-0.565
209	-0.566
209	-0.573
210	-0.585
210	-0.593
211	-0.587
211	-0.59
212	-0.6
212	-0.606
213	-0.604
213	-0.599
213	-0.597
214	-0.604
214	-0.606
215	-0.603
215	-0.607
216	-0.616
216	-0.621
217	-0.619
217	-0.621
218	-0.629
218	-0.631
219	-0.639
219	-0.64
220	-0.644
220	-0.651
221	-0.649
221	-0.652
221	-0.644
222	-0.644
222	-0.644
223	-0.64
223	-0.641
224	-0.641
224	-0.64
225	-0.636
225	-0.636
226	-0.638
226	-0.636
227	-0.644
227	-0.653
228	-0.657
228	-0.666
229	-0.671
229	-0.668
229	-0.668
230	-0.665
230	-0.663
231	-0.66
231	-0.655
232	-0.657
232	-0.652
233	-0.65
233	-0.637
234	-0.638
234	-0.633
235	-0.636
235	-0.645
236	-0.653
236	-0.654
236	-0.654
237	-0.653
237	-0.654
238	-0.655
238	-0.657
239	-0.659
239	-0.671
240	-0.665
240	-0.661
241	-0.655
241	-0.658
242	-0.662
242	-0.67
243	-0.672
243	-0.674
243	-0.679
244	-0.677
244	-0.677
245	-0.677
245	-0.682
246	-0.694
246	-0.697
247	-0.705
247	-0.69
248	-0.688
248	-0.69
249	-0.694
249	-0.697
250	-0.695
250	-0.706
250	-0.705
251	-0.704
251	-0.7
252	-0.702
252	-0.716
253	-0.711
253	-0.724
254	-0.729
254	-0.729
255	-0.739
255	-0.736
256	-0.738
256	-0.75
257	-0.761
257	-0.758
258	-0.759
258	-0.766
258	-0.762
259	-0.756
259	-0.774
260	-0.776
260	-0.766
261	-0.776
261	-0.763
262	-0.767
262	-0.764
263	-0.756
263	-0.761
264	-0.77
264	-0.772
265	-0.761
265	-0.763
265	-0.771
266	-0.763
266	-0.764
267	-0.764
267	-0.781
268	-0.79
268	-0.783
269	-0.776
269	-0.789
270	-0.794
270	-0.794
271	-0.807
271	-0.816
272	-0.818
272	-0.821
272	-0.813
273	-0.82
273	-0.837
274	-0.829
274	-0.824
275	-0.821
275	-0.809
276	-0.813
276	-0.818
277	-0.821
277	-0.817
278	-0.824
278	-0.825
278	-0.811
279	-0.821
279	-0.836
280	-0.838
280	-0.848
281	-0.843
281	-0.836
282	-0.84
282	-0.836
283	-0.828
283	-0.841
284	-0.855
284	-0.865
285	-0.843
285	-0.85
285	-0.841
286	-0.845
286	-0.861
287	-0.858
287	-0.857
288	-0.855
288	-0.838
289	-0.838
289	-0.845
290	-0.854
290	-0.842
291	-0.846
291	-0.845
292	-0.825
292	-0.823
292	-0.827
293	-0.817
293	-0.812
294	-0.812
294	-0.799
295	-0.781
295	-0.792
296	-0.806
296	-0.801
297	-0.79
297	-0.795
298	-0.789
298	-0.805
298	-0.809
299	-0.789
299	-0.781
300	-0.777
300	-0.759
301	-0.737
301	-0.739
302	-0.751
302	-0.737
303	-0.731
303	-0.721
304	-0.705
304	-0.709
305	-0.702
305	-0.712
305	-0.728
306	-0.714
306	-0.713
307	-0.703
307	-0.713
308	-0.715
308	-0.713
309	-0.714
309	-0.709
310	-0.707
310	-0.699
311	-0.685
311	-0.704
311	-0.691
312	-0.687
312	-0.676
313	-0.668
313	-0.668
314	-0.674
314	-0.672
315	-0.669
315	-0.665
316	-0.659
316	-0.649
317	-0.641
317	-0.639
318	-0.63
318	-0.629
318	-0.616
319	-0.605
319	-0.597
320	-0.595
320	-0.591
321	-0.587
321	-0.587
322	-0.581
322	-0.574
323	-0.575
323	-0.565
324	-0.564
324	-0.555
324	-0.543
325	-0.528
325	-0.511
326	-0.503
326	-0.478
327	-0.464
327	-0.442
328	-0.412
328	-0.389
329	-0.362
329	-0.333
330	-0.307
330	-0.272
330	-0.239
331	-0.201
331	-0.169
332	-0.136
332	-0.104
333	-0.075
333	-0.044
334	-0.015
334	0.009
335	0.035
335	0.055
336	0.077
336	0.097
336	0.112
337	0.129
337	0.145
338	0.158
338	0.168
339	0.18
339	0.19
340	0.198
340	0.206
341	0.212
341	0.218
342	0.225
342	0.23
342	0.234
343	0.238
343	0.243
344	0.245
344	0.248
345	0.251
345	0.254
346	0.255
346	0.257
347	0.259
347	0.26
348	0.261
348	0.263
348	0.264
349	0.264
349	0.265
350	0.266
350	0.267
351	0.267
351	0.268
352	0.268
352	0.268
353	0.268
353	0.268
354	0.268
354	0.268
354	0.268
355	0.268
355	0.268
356	0.268
356	0.268
357	0.268
357	0.269
358	0.269
358	0.269
359	0.268
359	0.269
360	0.269
360	0.269
360	0.269
361	0.269
361	0.269
362	0.269
362	0.269
363	0.269
363	0.269
364	0.269
364	0.269
365	0.269
365	0.269
366	0.269
366	0.269
366	0.269
367	0.269
367	0.269
368	0.269
368	0.268
369	0.268
369	0.268
370	0.268
370	0.268
371	0.267
371	0.267
372	0.267
372	0.267
372	0.267
373	0.266
373	0.266
374	0.266
374	0.266
375	0.266
375	0.266
376	0.266
376	0.266
377	0.266
377	0.266
378	0.265
378	0.265
378	0.265
379	0.265
379	0.264
380	0.265
380	0.265
381	0.265
381	0.264
382	0.264
382	0.264
383	0.264
383	0.264
383	0.264
384	0.263
384	0.263
385	0.263
385	0.263
386	0.263
386	0.262
387	0.262
387	0.262
388	0.262
388	0.261
389	0.261
389	0.261
389	0.261
390	0.261
390	0.261
391	0.261
391	0.261
392	0.261
392	0.261
393	0.261
393	0.261
394	0.261
394	0.26
394	0.26
395	0.26
395	0.26
396	0.26
396	0.259
397	0.259
397	0.259
398	0.258
398	0.258
399	0.258
399	0.258
400	0.257
400	0.257
400	0.257
401	0.257
401	0.256
402	0.256
402	0.256
403	0.256
403	0.256
404	0.256
404	0.255
405	0.255
405	0.255
405	0.255
406	0.255
406	0.255
407	0.255
407	0.255
408	0.254
408	0.254
409	0.254
409	0.254
410	0.254
410	0.253
411	0.253
411	0.253
411	0.253
412	0.252
412	0.252
413	0.252
413	0.252
414	0.252
414	0.252
415	0.251
415	0.251
416	0.251
416	0.251
416	0.25
417	0.25
417	0.25
418	0.25
418	0.25
419	0.25
419	0.25
420	0.25
420	0.25
421	0.249
421	0.249
421	0.249
422	0.25
422	0.25
423	0.25
423	0.25
424	0.249
424	0.249
425	0.249
425	0.249
426	0.249
426	0.249
427	0.249
427	0.249
427	0.249
428	0.249
428	0.249
429	0.249
429	0.248
430	0.248
430	0.248
431	0.248
431	0.247
432	0.247
432	0.247
432	0.247
433	0.246
433	0.246
434	0.246
434	0.247
435	0.247
435	0.247
436	0.247
436	0.247
437	0.247
437	0.247
437	0.247
438	0.247
438	0.246
439	0.246
439	0.246
440	0.246
440	0.246
441	0.245
441	0.245
442	0.245
442	0.245
442	0.245
443	0.245
443	0.245
444	0.245
444	0.245
445	0.245
445	0.245
446	0.245
446	0.245
447	0.245
447	0.246
447	0.246
448	0.246
448	0.246
449	0.246
449	0.246
450	0.246
450	0.245
451	0.245
451	0.245
452	0.245
452	0.245
452	0.245
453	0.245
453	0.245
454	0.245
454	0.245
455	0.245
455	0.245
456	0.245
456	0.245
457	0.245
457	0.245
458	0.245
458	0.245
458	0.245
459	0.245
459	0.244
460	0.244
460	0.244
461	0.244
461	0.244
462	0.245
462	0.245
463	0.246
463	0.247
463	0.247
464	0.247
464	0.248
465	0.248
465	0.248
466	0.249
466	0.249
467	0.249
467	0.248
467	0.248
468	0.248
468	0.247
469	0.248
469	0.248
470	0.249
470	0.249
471	0.249
471	0.249
472	0.249
472	0.25
472	0.251
473	0.251
473	0.252
474	0.252
474	0.253
475	0.253
475	0.254
476	0.254
476	0.255
477	0.255
477	0.256
477	0.256
478	0.256
478	0.257
479	0.257
479	0.258
480	0.258
480	0.258
481	0.259
481	0.259
482	0.26
482	0.261
482	0.262
483	0.263
483	0.265
484	0.266
484	0.266
485	0.267
485	0.267
486	0.268
486	0.269
487	0.27
487	0.27
487	0.271
488	0.271
488	0.272
489	0.273
489	0.274
490	0.275
490	0.276
491	0.278
491	0.279
492	0.28
492	0.281
492	0.281
493	0.282
493	0.283
494	0.285
494	0.286
495	0.287
495	0.288
496	0.29
496	0.291
496	0.292
497	0.294
497	0.296
498	0.297
498	0.299
499	0.3
499	0.302
500	0.304
500	0.306
501	0.307
501	0.309
501	0.31
502	0.311
502	0.313
503	0.315
503	0.316
504	0.318
504	0.32
505	0.321
505	0.323
506	0.325
506	0.327
506	0.33
507	0.331
507	0.334
508	0.336
508	0.338
509	0.341
509	0.342
510	0.345
510	0.346
511	0.348
511	0.35
511	0.351
512	0.353
512	0.354
513	0.355
513	0.356
514	0.358
514	0.36
515	0.361
515	0.362
515	0.363
516	0.365
516	0.366
517	0.368
517	0.369
518	0.37
518	0.371
519	0.372
519	0.373
520	0.374
520	0.375
520	0.377
521	0.378
521	0.379
522	0.38
522	0.381
523	0.383
523	0.384
524	0.384
524	0.385
524	0.386
525	0.387
525	0.387
526	0.388
526	0.389
527	0.389
527	0.389
528	0.389
528	0.389
529	0.39
529	0.39
529	0.39
530	0.39
530	0.39
531	0.389
531	0.389
532	0.389
532	0.388
533	0.389
533	0.388
533	0.388
534	0.387
534	0.386
535	0.386
535	0.386
536	0.386
536	0.385
537	0.385
537	0.384
538	0.383
538	0.382
538	0.381
539	0.38
539	0.379
540	0.378
540	0.377
541	0.375
541	0.374
542	0.373
542	0.372
542	0.37
543	0.369
543	0.368
544	0.366
544	0.365
545	0.364
545	0.363
546	0.362
546	0.36
547	0.358
547	0.356
547	0.354
548	0.353
548	0.351
549	0.35
549	0.348
550	0.346
550	0.344
551	0.343
551	0.341
551	0.34
552	0.338
552	0.336
553	0.335
553	0.333
554	0.331
554	0.329
555	0.327
555	0.325
556	0.323
556	0.321
556	0.319
557	0.318
557	0.317
558	0.315
558	0.313
559	0.311
559	0.31
560	0.308
560	0.306
560	0.305
561	0.304
561	0.303
562	0.302
562	0.301
563	0.299
563	0.298
564	0.297
564	0.296
564	0.295
565	0.295
565	0.294
566	0.293
566	0.292
567	0.291
567	0.291
568	0.29
568	0.288
568	0.287
569	0.286
569	0.284
570	0.282
570	0.28
571	0.28
571	0.278
572	0.276
572	0.275
573	0.273
573	0.271
573	0.269
574	0.268
574	0.268
575	0.267
575	0.268
576	0.267
576	0.265
577	0.264
577	0.263
577	0.263
578	0.263
578	0.263
579	0.264
579	0.263
580	0.261
580	0.258
581	0.256
581	0.255
581	0.255
582	0.255
582	0.255
583	0.255
583	0.254
584	0.252
584	0.25
585	0.251
585	0.251
585	0.251
586	0.251
586	0.25
587	0.248
587	0.247
588	0.246
588	0.245
589	0.245
589	0.244
590	0.244
590	0.243
590	0.244
591	0.244
591	0.244
592	0.243
592	0.242
593	0.242
593	0.241
594	0.24
594	0.239
594	0.239
595	0.239
595	0.237
596	0.236
596	0.237
597	0.239
597	0.238
598	0.237
598	0.237
598	0.237
599	0.237
599	0.237
600	0.236
600	0.235
601	0.236
601	0.235
602	0.234
602	0.234
602	0.234
603	0.234
603	0.235
604	0.235
604	0.234
605	0.235
605	0.235
606	0.235
606	0.233
606	0.233
607	0.232
607	0.232
608	0.231
608	0.23
609	0.229
609	0.229
610	0.228
610	0.227
610	0.227
611	0.228
611	0.228
612	0.228
612	0.228
613	0.228
613	0.228
614	0.226
614	0.225
614	0.225
615	0.224
615	0.223
616	0.222
616	0.221
617	0.221
617	0.22
618	0.219
618	0.219
618	0.218
619	0.218
619	0.218
620	0.218
620	0.217
621	0.216
621	0.215
622	0.214
622	0.213
622	0.211
623	0.21
623	0.21
624	0.21
624	0.209
625	0.209
625	0.209
626	0.208
626	0.207
626	0.208
627	0.207
627	0.207
628	0.207
628	0.206
629	0.205
629	0.204
630	0.202
630	0.2
630	0.2
631	0.199
631	0.197
632	0.195
632	0.194
633	0.192
633	0.19
634	0.188
634	0.187
634	0.185
635	0.183
635	0.182
636	0.18
636	0.178
637	0.175
637	0.172
638	0.17
638	0.168
638	0.165
639	0.162
639	0.158
640	0.155
640	0.151
641	0.147
641	0.144
642	0.14
642	0.137
642	0.133
643	0.129
643	0.124
644	0.119
644	0.115
645	0.11
645	0.105
646	0.1
646	0.094
646	0.087
647	0.081
647	0.074
648	0.067
648	0.06
649	0.052
649	0.045
650	0.038
650	0.031
650	0.023
651	0.014
651	0.002
652	-0.012
652	-0.026
653	-0.039
653	-0.051
653	-0.046
654	-0.028
654	-0.023
655	-0.029
655	-0.036
656	-0.042
656	-0.049
657	-0.055
657	-0.06
657	-0.067
658	-0.074
658	-0.106
659	-0.193
659	-0.285
660	-0.327
660	-0.355
661	-0.386
661	-0.418
661	-0.449
662	-0.478
662	-0.509
663	-0.545
663	-0.585
664	-0.622
664	-0.664
665	-0.71
665	-0.758
665	-0.803
666	-0.854
666	-0.91
667	-0.966
667	-1.029
668	-1.089
668	-1.159
669	-1.227
669	-1.3
669	-1.38
670	-1.463
670	-1.58
671	-1.776
671	-2.104
672	-2.334
672	-2.49
672	-2.607
673	-2.701
673	-2.779
674	-2.851
674	-2.869
675	-2.885
675	-2.889
676	-2.883
676	-2.834
676	-2.768
677	-2.689
677	-2.595
678	-2.458
678	-2.244
679	-1.831
679	-1.64
680	-1.531
680	-1.452
680	-1.382
681	-1.332
681	-1.277
682	-1.234
682	-1.19
683	-1.146
683	-1.122
684	-1.092
684	-1.072
684	-1.049
685	-1.028
685	-1.017
686	-0.994
686	-0.98
687	-0.968
687	-0.958
687	-0.957
688	-0.94
688	-0.932
689	-0.934
689	-0.931
690	-0.916
690	-0.906
691	-0.902
691	-0.905
691	-0.906
692	-0.905
692	-0.902
693	-0.91
693	-0.92
694	-0.901
694	-0.9
695	-0.902
695	-0.895
695	-0.903
696	-0.909
696	-0.903
697	-0.897
697	-0.891
698	-0.886
698	-0.878
698	-0.891
699	-0.889
699	-0.889
700	-0.911
700	-0.904
701	-0.89
701	-0.884
702	-0.884
702	-0.882
702	-0.882
703	-0.874
703	-0.863
704	-0.871
704	-0.876
705	-0.865
705	-0.864
705	-0.859
706	-0.851
706	-0.848
707	-0.86
707	-0.862
708	-0.858
708	-0.855
709	-0.856
709	-0.851
709	-0.846
710	-0.853
710	-0.856
711	-0.855
711	-0.855
712	-0.845
712	-0.842
713	-0.848
713	-0.849
713	-0.828
714	-0.829
714	-0.833
715	-0.825
715	-0.833
716	-0.85
716	-0.858
716	-0.86
717	-0.866
717	-0.858
718	-0.851
718	-0.853
719	-0.847
719	-0.839
720	-0.834
720	-0.829
720	-0.824
721	-0.816
721	-0.819
722	-0.817
722	-0.814
723	-0.833
723	-0.845
723	-0.855
724	-0.854
724	-0.86
725	-0.854
725	-0.856
726	-0.86
726	-0.851
727	-0.854
727	-0.86
727	-0.85
728	-0.837
728	-0.834
729	-0.835
729	-0.839
730	-0.844
730	-0.835
730	-0.839
731	-0.842
731	-0.842
732	-0.843
732	-0.837
733	-0.85
733	-0.857
734	-0.867
734	-0.858
734	-0.839
735	-0.829
735	-0.826
736	-0.824
736	-0.818
737	-0.819
737	-0.809
737	-0.802
738	-0.789
738	-0.776
739	-0.779
739	-0.782
740	-0.795
740	-0.795
741	-0.806
741	-0.816
741	-0.825
742	-0.831
742	-0.847
743	-0.852
743	-0.856
744	-0.858
744	-0.866
744	-0.861
745	-0.868
745	-0.857
746	-0.852
746	-0.843
747	-0.848
747	-0.838
748	-0.84
748	-0.845
748	-0.846
749	-0.838
749	-0.845
750	-0.836
750	-0.837
751	-0.837
751	-0.835
751	-0.845
752	-0.849
752	-0.851
753	-0.853
753	-0.845
754	-0.863
754	-0.863
754	-0.871
755	-0.87
755	-0.863
756	-0.865
756	-0.851
757	-0.843
757	-0.831
758	-0.832
758	-0.833
758	-0.83
759	-0.834
759	-0.833
760	-0.833
760	-0.835
761	-0.827
761	-0.832
761	-0.832
762	-0.839
762	-0.839
763	-0.838
763	-0.841
764	-0.841
764	-0.837
764	-0.842
765	-0.841
765	-0.849
766	-0.851
766	-0.855
767	-0.869
767	-0.864
768	-0.864
768	-0.855
768	-0.851
769	-0.854
769	-0.862
770	-0.871
770	-0.877
771	-0.873
771	-0.872
771	-0.877
772	-0.881
772	-0.903
773	-0.905
773	-0.904
774	-0.902
774	-0.882
775	-0.87
775	-0.867
775	-0.871
776	-0.882
776	-0.88
777	-0.879
777	-0.859
778	-0.866
778	-0.874
778	-0.874
779	-0.884
779	-0.9
780	-0.898
780	-0.906
781	-0.896
781	-0.885
781	-0.898
782	-0.92
782	-0.922
783	-0.923
783	-0.931
784	-0.935
784	-0.928
784	-0.948
785	-0.94
785	-0.952
786	-0.955
786	-0.948
787	-0.937
787	-0.946
788	-0.938
788	-0.93
788	-0.932
789	-0.932
789	-0.92
790	-0.921
790	-0.906
791	-0.913
791	-0.908
791	-0.902
792	-0.895
792	-0.899
793	-0.901
793	-0.888
794	-0.881
794	-0.876
794	-0.883
795	-0.902
795	-0.888
796	-0.895
796	-0.891
797	-0.884
797	-0.875
797	-0.868
798	-0.891
798	-0.895
799	-0.893
799	-0.879
800	-0.874
800	-0.884
801	-0.881
801	-0.884
801	-0.882
802	-0.881
802	-0.879
803	-0.872
803	-0.865
804	-0.87
804	-0.877
804	-0.859
805	-0.839
805	-0.83
806	-0.831
806	-0.828
807	-0.831
807	-0.832
807	-0.814
808	-0.81
808	-0.803
809	-0.799
809	-0.801
810	-0.806
810	-0.803
810	-0.799
811	-0.801
811	-0.792
812	-0.785
812	-0.787
813	-0.791
813	-0.793
813	-0.787
814	-0.788
814	-0.792
815	-0.784
815	-0.781
816	-0.779
816	-0.794
817	-0.807
817	-0.811
817	-0.821
818	-0.816
818	-0.813
819	-0.824
819	-0.821
820	-0.832
820	-0.831
820	-0.829
821	-0.825
821	-0.82
822	-0.817
822	-0.805
823	-0.814
823	-0.815
823	-0.809
824	-0.807
824	-0.818
825	-0.817
825	-0.813
826	-0.81
826	-0.806
826	-0.804
827	-0.804
827	-0.794
828	-0.793
828	-0.786
829	-0.781
829	-0.765
829	-0.762
830	-0.76
830	-0.744
831	-0.736
831	-0.729
832	-0.72
832	-0.714
832	-0.707
833	-0.706
833	-0.711
834	-0.704
834	-0.697
835	-0.69
835	-0.69
835	-0.686
836	-0.681
836	-0.677
837	-0.667
837	-0.657
838	-0.645
838	-0.628
839	-0.623
839	-0.612
839	-0.601
840	-0.6
840	-0.59
841	-0.578
841	-0.572
842	-0.563
842	-0.55
842	-0.547
843	-0.543
843	-0.539
844	-0.534
844	-0.523
845	-0.509
845	-0.498
845	-0.486
846	-0.476
846	-0.465
847	-0.456
847	-0.443
848	-0.426
848	-0.409
848	-0.395
849	-0.382
849	-0.369
850	-0.359
850	-0.349
851	-0.333
851	-0.316
851	-0.306
852	-0.289
852	-0.276
853	-0.267
853	-0.255
854	-0.244
854	-0.232
854	-0.218
855	-0.206
855	-0.198
856	-0.189
856	-0.18
857	-0.172
857	-0.162
857	-0.148
858	-0.136
858	-0.127
859	-0.115
859	-0.102
860	-0.089
860	-0.073
860	-0.061
861	-0.05
861	-0.04
862	-0.029
862	-0.021
863	-0.012
863	-0.001
863	0.007
864	0.013
864	0.022
865	0.029
865	0.036
866	0.043
866	0.049
866	0.055
867	0.061
867	0.067
868	0.072
868	0.077
869	0.082
869	0.086
869	0.088
870	0.091
870	0.093
871	0.095
871	0.097
872	0.098
872	0.098
872	0.099
873	0.099
873	0.098
874	0.097
874	0.097
875	0.096
875	0.096
875	0.095
876	0.095
876	0.095
877	0.094
877	0.093
878	0.093
878	0.092
878	0.092
879	0.092
879	0.092
880	0.092
880	0.091
881	0.09
881	0.089
881	0.088
882	0.086
882	0.084
883	0.083
883	0.081
884	0.08
884	0.08
884	0.079
885	0.079
885	0.079
886	0.079
886	0.078
887	0.078
887	0.077
887	0.077
888	0.076
888	0.075
889	0.074
889	0.073
890	0.071
890	0.07
890	0.07
891	0.07
891	0.069
892	0.07
892	0.07
893	0.07
893	0.071
893	0.071
894	0.071
894	0.072
895	0.072
895	0.072
895	0.071
896	0.072
896	0.072
897	0.072
897	0.072
898	0.072
898	0.072
898	0.072
899	0.073
899	0.073
900	0.073
900	0.073
901	0.073
901	0.073
901	0.072
902	0.072
902	0.072
903	0.072
903	0.072
904	0.071
904	0.071
904	0.071
905	0.071
905	0.071
906	0.071
906	0.071
907	0.071
907	0.071
907	0.071
908	0.071
908	0.071
909	0.071
909	0.072
910	0.072
910	0.073
910	0.073
911	0.074
911	0.075
912	0.076
912	0.077
913	0.078
913	0.078
913	0.079
914	0.079
914	0.079
915	0.079
915	0.079
916	0.079
916	0.078
916	0.078
917	0.077
917	0.077
918	0.077
918	0.076
918	0.076
919	0.075
919	0.075
920	0.075
920	0.076
921	0.076
921	0.076
921	0.076
922	0.076
922	0.076
923	0.076
923	0.076
924	0.076
924	0.075
924	0.075
925	0.074
925	0.073
926	0.072
926	0.071
927	0.07
927	0.07
927	0.069
928	0.069
928	0.069
929	0.07
929	0.071
930	0.071
930	0.072
930	0.073
931	0.074
931	0.075
932	0.076
932	0.077
933	0.077
933	0.078
933	0.077
934	0.076
934	0.076
935	0.075
935	0.074
935	0.073
936	0.072
936	0.07
937	0.069
937	0.068
938	0.068
938	0.067
938	0.067
939	0.066
939	0.065
940	0.065
940	0.064
941	0.063
941	0.062
941	0.062
942	0.061
942	0.061
943	0.06
943	0.059
944	0.059
944	0.057
944	0.057
945	0.057
945	0.056
946	0.056
946	0.055
946	0.054
947	0.054
947	0.054
948	0.054
948	0.055
949	0.056
949	0.057
949	0.059
950	0.06
950	0.061
951	0.062
951	0.064
952	0.064
952	0.065
952	0.066
953	0.066
953	0.067
954	0.067
954	0.067
955	0.067
955	0.067
955	0.066
956	0.066
956	0.065
957	0.064
957	0.063
957	0.061
958	0.06
958	0.059
959	0.058
959	0.058
960	0.057
960	0.057
960	0.057
961	0.057
961	0.057
962	0.057
962	0.058
963	0.058
963	0.058
963	0.059
964	0.06
964	0.06
965	0.061
965	0.061
966	0.061
966	0.062
966	0.063
967	0.064
967	0.064
968	0.064
968	0.064
968	0.065
969	0.064
969	0.064
970	0.064
970	0.063
971	0.063
971	0.062
971	0.062
972	0.062
972	0.062
973	0.062
973	0.062
974	0.062
974	0.062
974	0.062
975	0.062
975	0.062
976	0.062
976	0.061
976	0.061
977	0.061
977	0.06
978	0.06
978	0.059
979	0.059
979	0.059
979	0.059
980	0.059
980	0.058
981	0.059
981	0.059
982	0.059
982	0.059
982	0.059
983	0.059
983	0.059
984	0.058
984	0.058
984	0.058
985	0.057
985	0.057
986	0.056
986	0.055
987	0.054
987	0.053
987	0.052
988	0.051
988	0.05
989	0.049
989	0.048
990	0.047
990	0.045
990	0.044
991	0.043
991	0.043
992	0.042
992	0.041
992	0.04
993	0.039
993	0.038
994	0.037
994	0.036
995	0.035
995	0.034
995	0.032
996	0.031
996	0.03
997	0.029
997	0.028
997	0.027
998	0.027
998	0.027
999	0.027
999	0.027
1000	0.027
1000	0.028
1000	0.028
1001	0.029
1001	0.03
1002	0.031
1002	0.031
1003	0.032
1003	0.033
1003	0.033
1004	0.033
1004	0.034
1005	0.034
1005	0.034
1005	0.033
1006	0.033
1006	0.032
1007	0.032
1007	0.031
1008	0.031
1008	0.03
1008	0.03
1009	0.03
1009	0.03
1010	0.03
1010	0.031
1010	0.031
1011	0.032
1011	0.032
1012	0.033
1012	0.034
1013	0.036
1013	0.036
1013	0.037
1014	0.037
1014	0.037
1015	0.038
1015	0.038
1016	0.038
1016	0.038
1016	0.037
1017	0.037
1017	0.036
1018	0.036
1018	0.036
1018	0.035
1019	0.035
1019	0.035
1020	0.034
1020	0.033
1021	0.033
1021	0.033
1021	0.032
1022	0.032
1022	0.031
1023	0.031
1023	0.031
1023	0.031
1024	0.031
1024	0.031
1025	0.031
1025	0.032
1026	0.032
1026	0.032
1026	0.032
1027	0.032
1027	0.033
1028	0.033
1028	0.034
1028	0.034
1029	0.034
1029	0.035
1030	0.034
1030	0.035
1031	0.035
1031	0.035
1031	0.035
1032	0.035
1032	0.035
1033	0.034
1033	0.034
1033	0.033
1034	0.033
1034	0.032
1035	0.032
1035	0.031
1036	0.03
1036	0.03
1036	0.029
1037	0.029
1037	0.029
1038	0.029
1038	0.029
1039	0.029
1039	0.029
1039	0.029
1040	0.029
1040	0.03
1041	0.029
1041	0.029
1041	0.029
1042	0.028
1042	0.027
1043	0.026
1043	0.025
1044	0.025
1044	0.024
1044	0.024
1045	0.023
1045	0.023
1046	0.022
1046	0.022
1046	0.022
1047	0.022
1047	0.023
1048	0.023
1048	0.023
1049	0.023
1049	0.023
1049	0.023
1050	0.022
1050	0.022
1051	0.021
1051	0.02
1051	0.019
1052	0.018
1052	0.017
1053	0.017
1053	0.016
1053	0.016
1054	0.015
1054	0.015
1055	0.016
1055	0.016
1056	0.015
1056	0.016
1056	0.015
1057	0.015
1057	0.015
1058	0.015
1058	0.014
1058	0.015
1059	0.015
1059	0.014
1060	0.013
1060	0.013
1061	0.012
1061	0.012
1061	0.012
1062	0.012
1062	0.012
1063	0.012
1063	0.011
1063	0.011
1064	0.011
1064	0.012
1065	0.012
1065	0.012
1066	0.011
1066	0.011
1066	0.01
1067	0.009
1067	0.008
1068	0.007
1068	0.006
1068	0.005
1069	0.004
1069	0.003
1070	0.002
1070	0.001
1071	0.001
1071	0
1071	-0.001
1072	-0
1072	-0
1073	-0
1073	-0.001
1073	-0.001
1074	-0.001
1074	-0.001
1075	-0.002
1075	-0.002
1076	-0.003
1076	-0.003
1076	-0.004
1077	-0.005
1077	-0.006
1078	-0.007
1078	-0.007
1078	-0.007
1079	-0.008
1079	-0.008
1080	-0.009
1080	-0.01
1080	-0.011
1081	-0.012
1081	-0.012
1082	-0.013
1082	-0.014
1083	-0.016
1083	-0.017
1083	-0.018
1084	-0.019
1084	-0.019
1085	-0.021
1085	-0.021
1085	-0.022
1086	-0.023
1086	-0.025
1087	-0.025
1087	-0.026
1088	-0.028
1088	-0.028
1088	-0.029
1089	-0.031
1089	-0.032
1090	-0.033
1090	-0.034
1090	-0.036
1091	-0.038
1091	-0.038
1092	-0.038
1092	-0.039
1092	-0.04
1093	-0.041
1093	-0.041
1094	-0.042
1094	-0.043
1095	-0.045
1095	-0.045
1095	-0.045
1096	-0.047
1096	-0.049
1097	-0.051
1097	-0.053
1097	-0.055
1098	-0.057
1098	-0.06
1099	-0.062
1099	-0.063
1100	-0.066
1100	-0.069
1100	-0.072
1101	-0.075
1101	-0.078
1102	-0.08
1102	-0.083
1102	-0.085
1103	-0.088
1103	-0.091
1104	-0.095
1104	-0.098
1104	-0.1
1105	-0.102
1105	-0.105
1106	-0.111
1106	-0.113
1107	-0.119
1107	-0.123
1107	-0.127
1108	-0.129
1108	-0.13
1109	-0.134
1109	-0.139
1109	-0.143
1110	-0.145
1110	-0.149
1111	-0.159
1111	-0.156
