Data from 3.3A_17C_Absorbance__192__03059.txt Node

Date: Tue Jun 20 17:18:49 CEST 2023
User: Marek
Spectrometer: MAYP115816
Trigger mode: 0
Integration Time (sec): 2.200000E-1
Scans to average: 10
Electric dark correction enabled: true
Nonlinearity correction enabled: true
Boxcar width: 5
XAxis mode: Wavelengths
Number of Pixels in Spectrum: 2068
>>>>>Begin Spectral Data<<<<<
199	-0.809
199	-0.796
200	-0.76
200	-0.704
201	-0.674
201	-0.664
202	-0.65
202	-0.643
203	-0.643
203	-0.635
204	-0.614
204	-0.597
205	-0.574
205	-0.565
205	-0.574
206	-0.576
206	-0.571
207	-0.562
207	-0.567
208	-0.568
208	-0.573
209	-0.573
209	-0.579
210	-0.591
210	-0.597
211	-0.59
211	-0.595
212	-0.605
212	-0.612
213	-0.611
213	-0.606
213	-0.604
214	-0.613
214	-0.615
215	-0.611
215	-0.616
216	-0.625
216	-0.63
217	-0.627
217	-0.628
218	-0.636
218	-0.638
219	-0.644
219	-0.645
220	-0.65
220	-0.657
221	-0.659
221	-0.66
221	-0.651
222	-0.652
222	-0.649
223	-0.644
223	-0.646
224	-0.646
224	-0.644
225	-0.64
225	-0.642
226	-0.642
226	-0.641
227	-0.649
227	-0.658
228	-0.664
228	-0.673
229	-0.678
229	-0.677
229	-0.677
230	-0.673
230	-0.671
231	-0.666
231	-0.661
232	-0.663
232	-0.658
233	-0.657
233	-0.646
234	-0.644
234	-0.637
235	-0.643
235	-0.655
236	-0.662
236	-0.665
236	-0.666
237	-0.665
237	-0.667
238	-0.667
238	-0.669
239	-0.672
239	-0.683
240	-0.677
240	-0.673
241	-0.668
241	-0.67
242	-0.671
242	-0.678
243	-0.678
243	-0.679
243	-0.685
244	-0.68
244	-0.682
245	-0.683
245	-0.686
246	-0.696
246	-0.7
247	-0.71
247	-0.696
248	-0.695
248	-0.698
249	-0.704
249	-0.706
250	-0.704
250	-0.712
250	-0.71
251	-0.711
251	-0.707
252	-0.708
252	-0.719
253	-0.714
253	-0.725
254	-0.729
254	-0.731
255	-0.739
255	-0.737
256	-0.738
256	-0.75
257	-0.759
257	-0.755
258	-0.759
258	-0.768
258	-0.767
259	-0.76
259	-0.778
260	-0.78
260	-0.772
261	-0.784
261	-0.77
262	-0.778
262	-0.776
263	-0.766
263	-0.771
264	-0.781
264	-0.783
265	-0.773
265	-0.774
265	-0.782
266	-0.771
266	-0.772
267	-0.769
267	-0.786
268	-0.795
268	-0.79
269	-0.781
269	-0.795
270	-0.798
270	-0.798
271	-0.811
271	-0.821
272	-0.822
272	-0.827
272	-0.819
273	-0.828
273	-0.842
274	-0.834
274	-0.829
275	-0.826
275	-0.813
276	-0.817
276	-0.823
277	-0.824
277	-0.821
278	-0.825
278	-0.825
278	-0.811
279	-0.821
279	-0.835
280	-0.838
280	-0.85
281	-0.842
281	-0.835
282	-0.841
282	-0.834
283	-0.827
283	-0.841
284	-0.854
284	-0.863
285	-0.843
285	-0.849
285	-0.84
286	-0.846
286	-0.863
287	-0.86
287	-0.859
288	-0.857
288	-0.839
289	-0.838
289	-0.846
290	-0.855
290	-0.844
291	-0.848
291	-0.846
292	-0.827
292	-0.825
292	-0.829
293	-0.819
293	-0.817
294	-0.816
294	-0.805
295	-0.786
295	-0.798
296	-0.809
296	-0.804
297	-0.791
297	-0.793
298	-0.788
298	-0.806
298	-0.808
299	-0.789
299	-0.779
300	-0.776
300	-0.758
301	-0.738
301	-0.74
302	-0.753
302	-0.739
303	-0.733
303	-0.719
304	-0.703
304	-0.706
305	-0.699
305	-0.709
305	-0.724
306	-0.709
306	-0.707
307	-0.697
307	-0.708
308	-0.711
308	-0.707
309	-0.709
309	-0.705
310	-0.704
310	-0.698
311	-0.684
311	-0.704
311	-0.691
312	-0.689
312	-0.678
313	-0.669
313	-0.671
314	-0.675
314	-0.673
315	-0.669
315	-0.663
316	-0.659
316	-0.647
317	-0.641
317	-0.637
318	-0.628
318	-0.625
318	-0.614
319	-0.603
319	-0.595
320	-0.593
320	-0.591
321	-0.586
321	-0.586
322	-0.578
322	-0.57
323	-0.57
323	-0.56
324	-0.558
324	-0.548
324	-0.538
325	-0.522
325	-0.502
326	-0.491
326	-0.465
327	-0.45
327	-0.428
328	-0.396
328	-0.371
329	-0.343
329	-0.311
330	-0.28
330	-0.243
330	-0.205
331	-0.166
331	-0.131
332	-0.094
332	-0.057
333	-0.023
333	0.012
334	0.045
334	0.075
335	0.105
335	0.13
336	0.155
336	0.179
336	0.199
337	0.219
337	0.239
338	0.256
338	0.268
339	0.285
339	0.297
340	0.307
340	0.318
341	0.327
341	0.335
342	0.343
342	0.351
342	0.357
343	0.362
343	0.368
344	0.371
344	0.375
345	0.379
345	0.381
346	0.384
346	0.387
347	0.389
347	0.39
348	0.392
348	0.394
348	0.395
349	0.395
349	0.397
350	0.398
350	0.399
351	0.399
351	0.399
352	0.399
352	0.399
353	0.4
353	0.4
354	0.4
354	0.4
354	0.4
355	0.4
355	0.4
356	0.4
356	0.4
357	0.401
357	0.401
358	0.401
358	0.401
359	0.401
359	0.401
360	0.402
360	0.402
360	0.402
361	0.402
361	0.402
362	0.401
362	0.4
363	0.401
363	0.4
364	0.401
364	0.4
365	0.4
365	0.4
366	0.399
366	0.399
366	0.399
367	0.399
367	0.398
368	0.398
368	0.397
369	0.397
369	0.397
370	0.396
370	0.396
371	0.395
371	0.395
372	0.395
372	0.395
372	0.395
373	0.394
373	0.394
374	0.394
374	0.393
375	0.393
375	0.392
376	0.392
376	0.392
377	0.391
377	0.39
378	0.39
378	0.39
378	0.389
379	0.389
379	0.388
380	0.388
380	0.388
381	0.388
381	0.387
382	0.387
382	0.387
383	0.386
383	0.386
383	0.385
384	0.385
384	0.384
385	0.384
385	0.383
386	0.383
386	0.382
387	0.382
387	0.382
388	0.381
388	0.381
389	0.381
389	0.381
389	0.38
390	0.38
390	0.38
391	0.379
391	0.379
392	0.378
392	0.378
393	0.378
393	0.377
394	0.377
394	0.376
394	0.376
395	0.375
395	0.374
396	0.374
396	0.373
397	0.373
397	0.372
398	0.372
398	0.371
399	0.37
399	0.37
400	0.37
400	0.369
400	0.369
401	0.368
401	0.368
402	0.367
402	0.367
403	0.367
403	0.367
404	0.367
404	0.366
405	0.366
405	0.366
405	0.365
406	0.365
406	0.365
407	0.365
407	0.364
408	0.364
408	0.364
409	0.363
409	0.363
410	0.363
410	0.362
411	0.362
411	0.361
411	0.361
412	0.361
412	0.36
413	0.36
413	0.36
414	0.359
414	0.359
415	0.359
415	0.358
416	0.358
416	0.358
416	0.357
417	0.357
417	0.357
418	0.356
418	0.356
419	0.356
419	0.356
420	0.356
420	0.355
421	0.355
421	0.355
421	0.355
422	0.355
422	0.356
423	0.355
423	0.355
424	0.355
424	0.355
425	0.355
425	0.354
426	0.354
426	0.354
427	0.354
427	0.354
427	0.354
428	0.354
428	0.354
429	0.353
429	0.353
430	0.353
430	0.353
431	0.353
431	0.352
432	0.352
432	0.351
432	0.351
433	0.351
433	0.35
434	0.351
434	0.351
435	0.351
435	0.351
436	0.351
436	0.351
437	0.35
437	0.35
437	0.351
438	0.351
438	0.351
439	0.351
439	0.351
440	0.35
440	0.35
441	0.35
441	0.35
442	0.35
442	0.35
442	0.35
443	0.35
443	0.35
444	0.35
444	0.35
445	0.35
445	0.35
446	0.35
446	0.35
447	0.35
447	0.35
447	0.35
448	0.35
448	0.35
449	0.35
449	0.351
450	0.351
450	0.351
451	0.351
451	0.351
452	0.351
452	0.351
452	0.352
453	0.352
453	0.352
454	0.352
454	0.352
455	0.352
455	0.353
456	0.353
456	0.353
457	0.353
457	0.353
458	0.353
458	0.353
458	0.353
459	0.354
459	0.353
460	0.353
460	0.353
461	0.354
461	0.354
462	0.355
462	0.356
463	0.357
463	0.358
463	0.359
464	0.359
464	0.36
465	0.361
465	0.361
466	0.362
466	0.363
467	0.363
467	0.363
467	0.363
468	0.363
468	0.364
469	0.365
469	0.366
470	0.366
470	0.367
471	0.368
471	0.368
472	0.369
472	0.37
472	0.371
473	0.372
473	0.374
474	0.375
474	0.376
475	0.377
475	0.378
476	0.379
476	0.38
477	0.381
477	0.382
477	0.384
478	0.385
478	0.386
479	0.387
479	0.389
480	0.39
480	0.391
481	0.392
481	0.394
482	0.395
482	0.397
482	0.398
483	0.401
483	0.404
484	0.405
484	0.407
485	0.409
485	0.411
486	0.412
486	0.414
487	0.416
487	0.418
487	0.42
488	0.421
488	0.423
489	0.425
489	0.428
490	0.43
490	0.432
491	0.434
491	0.437
492	0.44
492	0.442
492	0.444
493	0.446
493	0.449
494	0.453
494	0.455
495	0.458
495	0.461
496	0.464
496	0.466
496	0.47
497	0.473
497	0.476
498	0.479
498	0.482
499	0.485
499	0.489
500	0.493
500	0.497
501	0.5
501	0.504
501	0.507
502	0.51
502	0.513
503	0.517
503	0.52
504	0.524
504	0.527
505	0.531
505	0.535
506	0.539
506	0.542
506	0.547
507	0.551
507	0.555
508	0.559
508	0.563
509	0.567
509	0.571
510	0.575
510	0.578
511	0.581
511	0.585
511	0.588
512	0.591
512	0.594
513	0.597
513	0.6
514	0.603
514	0.607
515	0.609
515	0.611
515	0.614
516	0.617
516	0.62
517	0.623
517	0.625
518	0.627
518	0.628
519	0.63
519	0.632
520	0.635
520	0.637
520	0.639
521	0.64
521	0.643
522	0.644
522	0.646
523	0.649
523	0.651
524	0.652
524	0.653
524	0.654
525	0.655
525	0.655
526	0.656
526	0.656
527	0.657
527	0.657
528	0.656
528	0.656
529	0.655
529	0.655
529	0.654
530	0.654
530	0.653
531	0.652
531	0.651
532	0.65
532	0.649
533	0.648
533	0.646
533	0.644
534	0.642
534	0.64
535	0.638
535	0.636
536	0.634
536	0.631
537	0.628
537	0.626
538	0.622
538	0.619
538	0.616
539	0.613
539	0.61
540	0.606
540	0.602
541	0.598
541	0.595
542	0.591
542	0.587
542	0.583
543	0.579
543	0.574
544	0.57
544	0.565
545	0.561
545	0.557
546	0.553
546	0.547
547	0.543
547	0.538
547	0.533
548	0.529
548	0.524
549	0.52
549	0.515
550	0.511
550	0.505
551	0.5
551	0.495
551	0.49
552	0.485
552	0.48
553	0.475
553	0.471
554	0.465
554	0.46
555	0.455
555	0.45
556	0.445
556	0.44
556	0.435
557	0.431
557	0.426
558	0.421
558	0.416
559	0.411
559	0.406
560	0.401
560	0.396
560	0.392
561	0.388
561	0.384
562	0.379
562	0.375
563	0.37
563	0.366
564	0.362
564	0.358
564	0.354
565	0.35
565	0.346
566	0.342
566	0.338
567	0.334
567	0.331
568	0.327
568	0.323
568	0.319
569	0.315
569	0.311
570	0.306
570	0.302
571	0.298
571	0.295
572	0.29
572	0.286
573	0.282
573	0.278
573	0.273
574	0.27
574	0.267
575	0.264
575	0.263
576	0.259
576	0.255
577	0.251
577	0.249
577	0.246
578	0.244
578	0.243
579	0.241
579	0.238
580	0.234
580	0.229
581	0.225
581	0.222
581	0.22
582	0.219
582	0.217
583	0.215
583	0.212
584	0.207
584	0.203
585	0.202
585	0.2
585	0.198
586	0.196
586	0.194
587	0.191
587	0.188
588	0.185
588	0.183
589	0.181
589	0.18
590	0.177
590	0.175
590	0.175
591	0.173
591	0.17
592	0.168
592	0.166
593	0.164
593	0.162
594	0.16
594	0.158
594	0.156
595	0.155
595	0.152
596	0.149
596	0.149
597	0.149
597	0.148
598	0.146
598	0.145
598	0.143
599	0.142
599	0.14
600	0.139
600	0.138
601	0.137
601	0.136
602	0.133
602	0.132
602	0.13
603	0.13
603	0.129
604	0.128
604	0.128
605	0.127
605	0.127
606	0.125
606	0.123
606	0.122
607	0.12
607	0.12
608	0.118
608	0.116
609	0.115
609	0.114
610	0.113
610	0.111
610	0.111
611	0.111
611	0.11
612	0.109
612	0.109
613	0.108
613	0.107
614	0.106
614	0.104
614	0.103
615	0.101
615	0.099
616	0.098
616	0.097
617	0.096
617	0.095
618	0.093
618	0.092
618	0.091
619	0.091
619	0.091
620	0.091
620	0.09
621	0.089
621	0.088
622	0.087
622	0.086
622	0.084
623	0.083
623	0.083
624	0.083
624	0.081
625	0.08
625	0.08
626	0.079
626	0.078
626	0.078
627	0.078
627	0.078
628	0.078
628	0.077
629	0.077
629	0.076
630	0.074
630	0.073
630	0.073
631	0.073
631	0.071
632	0.07
632	0.069
633	0.068
633	0.067
634	0.067
634	0.067
634	0.066
635	0.066
635	0.065
636	0.064
636	0.064
637	0.062
637	0.061
638	0.061
638	0.06
638	0.058
639	0.056
639	0.055
640	0.053
640	0.051
641	0.05
641	0.048
642	0.046
642	0.045
642	0.043
643	0.04
643	0.038
644	0.036
644	0.034
645	0.032
645	0.03
646	0.028
646	0.025
646	0.022
647	0.019
647	0.015
648	0.012
648	0.008
649	0.004
649	-0
650	-0.004
650	-0.009
650	-0.014
651	-0.021
651	-0.028
652	-0.036
652	-0.045
653	-0.053
653	-0.059
653	-0.056
654	-0.047
654	-0.049
655	-0.054
655	-0.058
656	-0.063
656	-0.068
657	-0.073
657	-0.077
657	-0.082
658	-0.087
658	-0.111
659	-0.17
659	-0.224
660	-0.251
660	-0.27
661	-0.29
661	-0.312
661	-0.334
662	-0.352
662	-0.371
663	-0.391
663	-0.415
664	-0.434
664	-0.456
665	-0.481
665	-0.504
665	-0.525
666	-0.549
666	-0.575
667	-0.6
667	-0.632
668	-0.663
668	-0.706
669	-0.747
669	-0.792
669	-0.843
670	-0.902
670	-1.011
671	-1.224
671	-1.594
672	-2.034
672	-2.299
672	-2.468
673	-2.579
673	-2.608
674	-2.626
674	-2.635
675	-2.65
675	-2.655
676	-2.655
676	-2.628
676	-2.538
677	-2.383
677	-2.136
678	-1.586
678	-1.174
679	-1.046
679	-0.983
680	-0.94
680	-0.912
680	-0.89
681	-0.882
681	-0.862
682	-0.851
682	-0.832
683	-0.814
683	-0.815
684	-0.808
684	-0.807
684	-0.801
685	-0.799
685	-0.803
686	-0.792
686	-0.79
687	-0.792
687	-0.791
687	-0.8
688	-0.792
688	-0.793
689	-0.804
689	-0.806
690	-0.797
690	-0.792
691	-0.795
691	-0.804
691	-0.809
692	-0.813
692	-0.813
693	-0.824
693	-0.84
694	-0.823
694	-0.825
695	-0.832
695	-0.827
695	-0.838
696	-0.846
696	-0.841
697	-0.836
697	-0.835
698	-0.831
698	-0.826
698	-0.842
699	-0.842
699	-0.845
700	-0.865
700	-0.863
701	-0.851
701	-0.845
702	-0.846
702	-0.846
702	-0.849
703	-0.84
703	-0.827
704	-0.836
704	-0.842
705	-0.831
705	-0.829
705	-0.824
706	-0.819
706	-0.816
707	-0.828
707	-0.831
708	-0.826
708	-0.826
709	-0.827
709	-0.822
709	-0.819
710	-0.828
710	-0.832
711	-0.831
711	-0.833
712	-0.825
712	-0.821
713	-0.829
713	-0.83
713	-0.81
714	-0.814
714	-0.817
715	-0.809
715	-0.818
716	-0.836
716	-0.845
716	-0.848
717	-0.856
717	-0.848
718	-0.843
718	-0.845
719	-0.84
719	-0.833
720	-0.828
720	-0.823
720	-0.816
721	-0.807
721	-0.81
722	-0.807
722	-0.803
723	-0.822
723	-0.833
723	-0.842
724	-0.842
724	-0.848
725	-0.843
725	-0.848
726	-0.852
726	-0.843
727	-0.845
727	-0.852
727	-0.839
728	-0.826
728	-0.822
729	-0.825
729	-0.827
730	-0.832
730	-0.823
730	-0.83
731	-0.832
731	-0.834
732	-0.837
732	-0.834
733	-0.85
733	-0.858
734	-0.865
734	-0.857
734	-0.84
735	-0.83
735	-0.825
736	-0.824
736	-0.817
737	-0.817
737	-0.807
737	-0.8
738	-0.786
738	-0.775
739	-0.776
739	-0.778
740	-0.793
740	-0.792
741	-0.804
741	-0.815
741	-0.824
742	-0.83
742	-0.844
743	-0.849
743	-0.851
744	-0.855
744	-0.861
744	-0.855
745	-0.863
745	-0.851
746	-0.846
746	-0.838
747	-0.842
747	-0.833
748	-0.835
748	-0.84
748	-0.843
749	-0.835
749	-0.841
750	-0.834
750	-0.835
751	-0.835
751	-0.833
751	-0.843
752	-0.848
752	-0.852
753	-0.855
753	-0.847
754	-0.868
754	-0.868
754	-0.874
755	-0.873
755	-0.866
756	-0.869
756	-0.856
757	-0.847
757	-0.835
758	-0.835
758	-0.835
758	-0.829
759	-0.834
759	-0.835
760	-0.833
760	-0.835
761	-0.828
761	-0.832
761	-0.833
762	-0.838
762	-0.839
763	-0.841
763	-0.846
764	-0.843
764	-0.839
764	-0.845
765	-0.844
765	-0.852
766	-0.855
766	-0.855
767	-0.872
767	-0.866
768	-0.865
768	-0.856
768	-0.853
769	-0.857
769	-0.865
770	-0.872
770	-0.877
771	-0.872
771	-0.873
771	-0.877
772	-0.883
772	-0.903
773	-0.904
773	-0.905
774	-0.902
774	-0.884
775	-0.874
775	-0.873
775	-0.876
776	-0.886
776	-0.882
777	-0.882
777	-0.864
778	-0.873
778	-0.88
778	-0.882
779	-0.89
779	-0.906
780	-0.901
780	-0.909
781	-0.899
781	-0.889
781	-0.902
782	-0.922
782	-0.922
783	-0.921
783	-0.928
784	-0.931
784	-0.924
784	-0.944
785	-0.938
785	-0.951
786	-0.956
786	-0.952
787	-0.942
787	-0.952
788	-0.944
788	-0.94
788	-0.942
789	-0.943
789	-0.931
790	-0.931
790	-0.916
791	-0.921
791	-0.915
791	-0.909
792	-0.903
792	-0.907
793	-0.911
793	-0.9
794	-0.892
794	-0.887
794	-0.894
795	-0.912
795	-0.899
796	-0.904
796	-0.901
797	-0.894
797	-0.886
797	-0.877
798	-0.897
798	-0.9
799	-0.899
799	-0.886
800	-0.883
800	-0.891
801	-0.889
801	-0.893
801	-0.889
802	-0.888
802	-0.886
803	-0.881
803	-0.876
804	-0.883
804	-0.891
804	-0.872
805	-0.854
805	-0.847
806	-0.848
806	-0.845
807	-0.846
807	-0.846
807	-0.829
808	-0.823
808	-0.815
809	-0.81
809	-0.811
810	-0.815
810	-0.811
810	-0.805
811	-0.81
811	-0.801
812	-0.794
812	-0.796
813	-0.802
813	-0.804
813	-0.8
814	-0.801
814	-0.804
815	-0.795
815	-0.791
816	-0.788
816	-0.806
817	-0.818
817	-0.823
817	-0.831
818	-0.824
818	-0.822
819	-0.831
819	-0.831
820	-0.843
820	-0.842
820	-0.84
821	-0.834
821	-0.829
822	-0.827
822	-0.816
823	-0.828
823	-0.827
823	-0.822
824	-0.82
824	-0.829
825	-0.829
825	-0.826
826	-0.82
826	-0.816
826	-0.816
827	-0.817
827	-0.805
828	-0.806
828	-0.799
829	-0.792
829	-0.777
829	-0.774
830	-0.774
830	-0.76
831	-0.752
831	-0.742
832	-0.731
832	-0.727
832	-0.719
833	-0.719
833	-0.725
834	-0.721
834	-0.715
835	-0.706
835	-0.706
835	-0.702
836	-0.698
836	-0.695
837	-0.685
837	-0.676
838	-0.663
838	-0.647
839	-0.642
839	-0.63
839	-0.621
840	-0.62
840	-0.611
841	-0.6
841	-0.593
842	-0.584
842	-0.572
842	-0.571
843	-0.567
843	-0.56
844	-0.558
844	-0.546
845	-0.532
845	-0.523
845	-0.512
846	-0.501
846	-0.491
847	-0.479
847	-0.467
848	-0.452
848	-0.436
848	-0.423
849	-0.412
849	-0.4
850	-0.389
850	-0.379
851	-0.367
851	-0.351
851	-0.342
852	-0.327
852	-0.314
853	-0.307
853	-0.296
854	-0.286
854	-0.276
854	-0.264
855	-0.252
855	-0.244
856	-0.236
856	-0.229
857	-0.221
857	-0.213
857	-0.199
858	-0.188
858	-0.181
859	-0.17
859	-0.159
860	-0.149
860	-0.136
860	-0.126
861	-0.116
861	-0.108
862	-0.1
862	-0.092
863	-0.083
863	-0.074
863	-0.068
864	-0.062
864	-0.054
865	-0.047
865	-0.041
866	-0.036
866	-0.03
866	-0.025
867	-0.02
867	-0.015
868	-0.011
868	-0.006
869	-0.002
869	0.001
869	0.003
870	0.006
870	0.008
871	0.01
871	0.011
872	0.012
872	0.013
872	0.014
873	0.014
873	0.014
874	0.013
874	0.013
875	0.013
875	0.013
875	0.013
876	0.013
876	0.012
877	0.012
877	0.012
878	0.011
878	0.011
878	0.011
879	0.011
879	0.01
880	0.01
880	0.009
881	0.008
881	0.006
881	0.005
882	0.004
882	0.002
883	0.001
883	-0.001
884	-0.001
884	-0.001
884	-0.002
885	-0.002
885	-0.002
886	-0.002
886	-0.002
887	-0.002
887	-0.003
887	-0.003
888	-0.003
888	-0.004
889	-0.005
889	-0.006
890	-0.007
890	-0.008
890	-0.008
891	-0.008
891	-0.008
892	-0.007
892	-0.007
893	-0.006
893	-0.006
893	-0.006
894	-0.005
894	-0.005
895	-0.005
895	-0.005
895	-0.005
896	-0.005
896	-0.005
897	-0.005
897	-0.005
898	-0.005
898	-0.005
898	-0.004
899	-0.004
899	-0.004
900	-0.004
900	-0.003
901	-0.004
901	-0.004
901	-0.005
902	-0.005
902	-0.004
903	-0.005
903	-0.005
904	-0.006
904	-0.006
904	-0.006
905	-0.006
905	-0.006
906	-0.006
906	-0.005
907	-0.005
907	-0.004
907	-0.004
908	-0.003
908	-0.003
909	-0.002
909	-0.002
910	-0.001
910	-0
910	0
911	0.001
911	0.001
912	0.002
912	0.003
913	0.004
913	0.004
913	0.005
914	0.006
914	0.006
915	0.006
915	0.006
916	0.006
916	0.006
916	0.005
917	0.005
917	0.004
918	0.004
918	0.003
918	0.002
919	0.002
919	0.002
920	0.002
920	0.002
921	0.002
921	0.003
921	0.003
922	0.004
922	0.004
923	0.004
923	0.004
924	0.004
924	0.003
924	0.002
925	0.001
925	-0
926	-0.001
926	-0.003
927	-0.004
927	-0.005
927	-0.006
928	-0.006
928	-0.006
929	-0.006
929	-0.006
930	-0.005
930	-0.004
930	-0.003
931	-0.002
931	-0.001
932	0
932	0.001
933	0.002
933	0.003
933	0.003
934	0.002
934	0.002
935	0.002
935	0.001
935	-0.001
936	-0.002
936	-0.003
937	-0.004
937	-0.005
938	-0.006
938	-0.006
938	-0.006
939	-0.007
939	-0.008
940	-0.008
940	-0.009
941	-0.01
941	-0.01
941	-0.01
942	-0.011
942	-0.011
943	-0.011
943	-0.011
944	-0.011
944	-0.012
944	-0.012
945	-0.012
945	-0.012
946	-0.013
946	-0.014
946	-0.014
947	-0.014
947	-0.015
948	-0.015
948	-0.014
949	-0.013
949	-0.012
949	-0.01
950	-0.009
950	-0.008
951	-0.006
951	-0.005
952	-0.004
952	-0.003
952	-0.002
953	-0.001
953	-0.001
954	-0.001
954	-0.001
955	-0
955	-0.001
955	-0.001
956	-0.001
956	-0.002
957	-0.003
957	-0.004
957	-0.005
958	-0.005
958	-0.006
959	-0.007
959	-0.008
960	-0.008
960	-0.008
960	-0.008
961	-0.008
961	-0.008
962	-0.007
962	-0.007
963	-0.006
963	-0.006
963	-0.005
964	-0.004
964	-0.004
965	-0.003
965	-0.002
966	-0.002
966	-0.001
966	-0
967	0
967	0
968	0
968	0
968	0.001
969	0.001
969	0
970	-0
970	-0.001
971	-0.001
971	-0.001
971	-0.001
972	-0.001
972	-0.001
973	-0
973	-0.001
974	-0.001
974	-0.001
974	-0.001
975	-0.001
975	-0.001
976	-0.001
976	-0.001
976	-0.002
977	-0.002
977	-0.003
978	-0.003
978	-0.004
979	-0.005
979	-0.005
979	-0.005
980	-0.006
980	-0.006
981	-0.006
981	-0.006
982	-0.006
982	-0.006
982	-0.006
983	-0.006
983	-0.006
984	-0.006
984	-0.007
984	-0.007
985	-0.007
985	-0.007
986	-0.008
986	-0.009
987	-0.01
987	-0.01
987	-0.011
988	-0.012
988	-0.012
989	-0.013
989	-0.014
990	-0.015
990	-0.016
990	-0.016
991	-0.017
991	-0.018
992	-0.018
992	-0.019
992	-0.02
993	-0.021
993	-0.022
994	-0.023
994	-0.024
995	-0.026
995	-0.027
995	-0.028
996	-0.029
996	-0.03
997	-0.031
997	-0.032
997	-0.032
998	-0.032
998	-0.032
999	-0.032
999	-0.032
1000	-0.031
1000	-0.031
1000	-0.03
1001	-0.029
1001	-0.028
1002	-0.027
1002	-0.026
1003	-0.026
1003	-0.025
1003	-0.025
1004	-0.024
1004	-0.024
1005	-0.024
1005	-0.024
1005	-0.025
1006	-0.026
1006	-0.026
1007	-0.027
1007	-0.028
1008	-0.028
1008	-0.029
1008	-0.03
1009	-0.03
1009	-0.03
1010	-0.029
1010	-0.029
1010	-0.028
1011	-0.028
1011	-0.027
1012	-0.026
1012	-0.025
1013	-0.024
1013	-0.023
1013	-0.023
1014	-0.022
1014	-0.022
1015	-0.021
1015	-0.021
1016	-0.021
1016	-0.02
1016	-0.02
1017	-0.021
1017	-0.021
1018	-0.021
1018	-0.021
1018	-0.021
1019	-0.021
1019	-0.021
1020	-0.022
1020	-0.022
1021	-0.022
1021	-0.023
1021	-0.023
1022	-0.023
1022	-0.024
1023	-0.024
1023	-0.024
1023	-0.024
1024	-0.024
1024	-0.024
1025	-0.024
1025	-0.024
1026	-0.024
1026	-0.024
1026	-0.024
1027	-0.024
1027	-0.023
1028	-0.023
1028	-0.022
1028	-0.022
1029	-0.022
1029	-0.021
1030	-0.022
1030	-0.021
1031	-0.021
1031	-0.021
1031	-0.021
1032	-0.021
1032	-0.021
1033	-0.022
1033	-0.022
1033	-0.022
1034	-0.023
1034	-0.024
1035	-0.024
1035	-0.025
1036	-0.026
1036	-0.027
1036	-0.028
1037	-0.028
1037	-0.028
1038	-0.028
1038	-0.029
1039	-0.028
1039	-0.028
1039	-0.028
1040	-0.028
1040	-0.027
1041	-0.027
1041	-0.028
1041	-0.028
1042	-0.028
1042	-0.029
1043	-0.029
1043	-0.03
1044	-0.03
1044	-0.031
1044	-0.031
1045	-0.031
1045	-0.031
1046	-0.032
1046	-0.032
1046	-0.032
1047	-0.032
1047	-0.032
1048	-0.032
1048	-0.032
1049	-0.032
1049	-0.032
1049	-0.033
1050	-0.033
1050	-0.034
1051	-0.035
1051	-0.036
1051	-0.037
1052	-0.038
1052	-0.039
1053	-0.039
1053	-0.04
1053	-0.041
1054	-0.041
1054	-0.041
1055	-0.041
1055	-0.04
1056	-0.04
1056	-0.04
1056	-0.04
1057	-0.04
1057	-0.04
1058	-0.04
1058	-0.04
1058	-0.04
1059	-0.04
1059	-0.041
1060	-0.041
1060	-0.041
1061	-0.041
1061	-0.042
1061	-0.041
1062	-0.042
1062	-0.042
1063	-0.042
1063	-0.042
1063	-0.042
1064	-0.042
1064	-0.042
1065	-0.042
1065	-0.042
1066	-0.042
1066	-0.043
1066	-0.043
1067	-0.044
1067	-0.045
1068	-0.046
1068	-0.046
1068	-0.047
1069	-0.048
1069	-0.049
1070	-0.05
1070	-0.051
1071	-0.051
1071	-0.051
1071	-0.052
1072	-0.052
1072	-0.052
1073	-0.052
1073	-0.052
1073	-0.052
1074	-0.052
1074	-0.052
1075	-0.053
1075	-0.053
1076	-0.054
1076	-0.054
1076	-0.055
1077	-0.055
1077	-0.056
1078	-0.057
1078	-0.057
1078	-0.058
1079	-0.059
1079	-0.059
1080	-0.06
1080	-0.06
1080	-0.062
1081	-0.063
1081	-0.063
1082	-0.064
1082	-0.065
1083	-0.067
1083	-0.068
1083	-0.069
1084	-0.07
1084	-0.071
1085	-0.072
1085	-0.073
1085	-0.074
1086	-0.075
1086	-0.077
1087	-0.078
1087	-0.078
1088	-0.08
1088	-0.08
1088	-0.081
1089	-0.083
1089	-0.084
1090	-0.084
1090	-0.084
1090	-0.086
1091	-0.086
1091	-0.086
1092	-0.087
1092	-0.086
1092	-0.087
1093	-0.087
1093	-0.087
1094	-0.088
1094	-0.089
1095	-0.09
1095	-0.09
1095	-0.091
1096	-0.093
1096	-0.095
1097	-0.096
1097	-0.098
1097	-0.1
1098	-0.101
1098	-0.104
1099	-0.106
1099	-0.107
1100	-0.11
1100	-0.113
1100	-0.116
1101	-0.118
1101	-0.121
1102	-0.123
1102	-0.126
1102	-0.128
1103	-0.13
1103	-0.132
1104	-0.135
1104	-0.138
1104	-0.14
1105	-0.141
1105	-0.144
1106	-0.149
1106	-0.151
1107	-0.156
1107	-0.161
1107	-0.166
1108	-0.168
1108	-0.169
1109	-0.172
1109	-0.177
1109	-0.182
1110	-0.185
1110	-0.186
1111	-0.196
1111	-0.193
