Data from 3.3A_17C_Absorbance__169__03036.txt Node

Date: Tue Jun 20 17:17:58 CEST 2023
User: Marek
Spectrometer: MAYP115816
Trigger mode: 0
Integration Time (sec): 2.200000E-1
Scans to average: 10
Electric dark correction enabled: true
Nonlinearity correction enabled: true
Boxcar width: 5
XAxis mode: Wavelengths
Number of Pixels in Spectrum: 2068
>>>>>Begin Spectral Data<<<<<
199	-0.807
199	-0.792
200	-0.755
200	-0.698
201	-0.672
201	-0.663
202	-0.645
202	-0.64
203	-0.64
203	-0.631
204	-0.609
204	-0.593
205	-0.57
205	-0.562
205	-0.572
206	-0.574
206	-0.57
207	-0.564
207	-0.571
208	-0.572
208	-0.578
209	-0.582
209	-0.589
210	-0.6
210	-0.605
211	-0.599
211	-0.602
212	-0.611
212	-0.618
213	-0.615
213	-0.611
213	-0.607
214	-0.614
214	-0.615
215	-0.613
215	-0.621
216	-0.629
216	-0.636
217	-0.634
217	-0.634
218	-0.641
218	-0.642
219	-0.649
219	-0.65
220	-0.654
220	-0.66
221	-0.66
221	-0.66
221	-0.651
222	-0.65
222	-0.649
223	-0.645
223	-0.648
224	-0.648
224	-0.647
225	-0.643
225	-0.646
226	-0.645
226	-0.644
227	-0.652
227	-0.662
228	-0.665
228	-0.673
229	-0.677
229	-0.674
229	-0.675
230	-0.67
230	-0.669
231	-0.665
231	-0.661
232	-0.662
232	-0.656
233	-0.657
233	-0.645
234	-0.647
234	-0.642
235	-0.645
235	-0.657
236	-0.665
236	-0.668
236	-0.668
237	-0.668
237	-0.668
238	-0.669
238	-0.671
239	-0.672
239	-0.682
240	-0.675
240	-0.671
241	-0.663
241	-0.665
242	-0.668
242	-0.675
243	-0.676
243	-0.679
243	-0.683
244	-0.68
244	-0.681
245	-0.686
245	-0.69
246	-0.7
246	-0.704
247	-0.712
247	-0.697
248	-0.696
248	-0.698
249	-0.704
249	-0.705
250	-0.706
250	-0.712
250	-0.708
251	-0.708
251	-0.704
252	-0.706
252	-0.72
253	-0.716
253	-0.727
254	-0.731
254	-0.733
255	-0.742
255	-0.741
256	-0.744
256	-0.757
257	-0.767
257	-0.762
258	-0.763
258	-0.77
258	-0.769
259	-0.761
259	-0.778
260	-0.777
260	-0.766
261	-0.778
261	-0.764
262	-0.768
262	-0.767
263	-0.757
263	-0.763
264	-0.773
264	-0.776
265	-0.766
265	-0.768
265	-0.779
266	-0.77
266	-0.77
267	-0.77
267	-0.787
268	-0.796
268	-0.791
269	-0.781
269	-0.794
270	-0.798
270	-0.797
271	-0.809
271	-0.819
272	-0.821
272	-0.823
272	-0.815
273	-0.824
273	-0.837
274	-0.831
274	-0.826
275	-0.824
275	-0.813
276	-0.817
276	-0.822
277	-0.825
277	-0.823
278	-0.827
278	-0.825
278	-0.815
279	-0.822
279	-0.836
280	-0.838
280	-0.848
281	-0.84
281	-0.832
282	-0.837
282	-0.83
283	-0.823
283	-0.839
284	-0.851
284	-0.862
285	-0.842
285	-0.847
285	-0.837
286	-0.844
286	-0.861
287	-0.859
287	-0.86
288	-0.859
288	-0.84
289	-0.839
289	-0.847
290	-0.854
290	-0.844
291	-0.848
291	-0.845
292	-0.825
292	-0.821
292	-0.825
293	-0.813
293	-0.811
294	-0.811
294	-0.797
295	-0.781
295	-0.793
296	-0.805
296	-0.8
297	-0.789
297	-0.792
298	-0.789
298	-0.807
298	-0.812
299	-0.794
299	-0.787
300	-0.784
300	-0.767
301	-0.748
301	-0.75
302	-0.762
302	-0.749
303	-0.741
303	-0.728
304	-0.711
304	-0.713
305	-0.705
305	-0.712
305	-0.726
306	-0.712
306	-0.71
307	-0.699
307	-0.711
308	-0.712
308	-0.708
309	-0.71
309	-0.706
310	-0.705
310	-0.698
311	-0.683
311	-0.7
311	-0.687
312	-0.685
312	-0.672
313	-0.665
313	-0.666
314	-0.669
314	-0.667
315	-0.664
315	-0.661
316	-0.655
316	-0.646
317	-0.64
317	-0.636
318	-0.63
318	-0.629
318	-0.617
319	-0.608
319	-0.6
320	-0.597
320	-0.593
321	-0.589
321	-0.589
322	-0.583
322	-0.576
323	-0.576
323	-0.567
324	-0.564
324	-0.552
324	-0.541
325	-0.524
325	-0.506
326	-0.497
326	-0.471
327	-0.454
327	-0.43
328	-0.397
328	-0.372
329	-0.342
329	-0.314
330	-0.284
330	-0.247
330	-0.209
331	-0.169
331	-0.131
332	-0.095
332	-0.06
333	-0.028
333	0.01
334	0.043
334	0.072
335	0.103
335	0.127
336	0.152
336	0.176
336	0.196
337	0.217
337	0.237
338	0.255
338	0.267
339	0.284
339	0.298
340	0.307
340	0.318
341	0.327
341	0.334
342	0.343
342	0.35
342	0.356
343	0.36
343	0.367
344	0.37
344	0.374
345	0.377
345	0.381
346	0.383
346	0.386
347	0.388
347	0.39
348	0.392
348	0.394
348	0.395
349	0.396
349	0.397
350	0.398
350	0.399
351	0.4
351	0.4
352	0.4
352	0.4
353	0.401
353	0.401
354	0.401
354	0.401
354	0.401
355	0.401
355	0.401
356	0.401
356	0.401
357	0.401
357	0.402
358	0.401
358	0.401
359	0.401
359	0.401
360	0.401
360	0.401
360	0.401
361	0.401
361	0.401
362	0.401
362	0.401
363	0.401
363	0.401
364	0.401
364	0.401
365	0.401
365	0.401
366	0.401
366	0.4
366	0.4
367	0.4
367	0.4
368	0.399
368	0.399
369	0.398
369	0.398
370	0.398
370	0.398
371	0.397
371	0.397
372	0.396
372	0.396
372	0.396
373	0.395
373	0.395
374	0.395
374	0.395
375	0.394
375	0.394
376	0.393
376	0.393
377	0.393
377	0.392
378	0.391
378	0.391
378	0.39
379	0.39
379	0.39
380	0.389
380	0.389
381	0.389
381	0.388
382	0.388
382	0.387
383	0.387
383	0.387
383	0.386
384	0.386
384	0.385
385	0.384
385	0.384
386	0.384
386	0.383
387	0.383
387	0.382
388	0.382
388	0.382
389	0.381
389	0.381
389	0.381
390	0.38
390	0.38
391	0.38
391	0.379
392	0.379
392	0.378
393	0.378
393	0.378
394	0.377
394	0.376
394	0.376
395	0.375
395	0.375
396	0.374
396	0.374
397	0.373
397	0.372
398	0.372
398	0.371
399	0.371
399	0.37
400	0.37
400	0.37
400	0.369
401	0.369
401	0.368
402	0.368
402	0.368
403	0.368
403	0.367
404	0.367
404	0.367
405	0.366
405	0.366
405	0.366
406	0.366
406	0.366
407	0.366
407	0.365
408	0.365
408	0.364
409	0.364
409	0.364
410	0.363
410	0.363
411	0.362
411	0.362
411	0.362
412	0.361
412	0.361
413	0.36
413	0.36
414	0.36
414	0.36
415	0.36
415	0.359
416	0.359
416	0.358
416	0.358
417	0.358
417	0.358
418	0.357
418	0.357
419	0.357
419	0.357
420	0.357
420	0.357
421	0.356
421	0.356
421	0.356
422	0.356
422	0.357
423	0.356
423	0.356
424	0.356
424	0.355
425	0.355
425	0.355
426	0.355
426	0.354
427	0.354
427	0.354
427	0.354
428	0.354
428	0.354
429	0.353
429	0.353
430	0.353
430	0.353
431	0.352
431	0.352
432	0.352
432	0.352
432	0.351
433	0.351
433	0.351
434	0.351
434	0.351
435	0.352
435	0.352
436	0.351
436	0.351
437	0.351
437	0.351
437	0.351
438	0.351
438	0.351
439	0.351
439	0.351
440	0.35
440	0.35
441	0.35
441	0.35
442	0.35
442	0.35
442	0.35
443	0.35
443	0.35
444	0.35
444	0.35
445	0.35
445	0.35
446	0.351
446	0.351
447	0.351
447	0.351
447	0.351
448	0.351
448	0.351
449	0.351
449	0.351
450	0.351
450	0.352
451	0.352
451	0.352
452	0.352
452	0.352
452	0.352
453	0.352
453	0.353
454	0.353
454	0.353
455	0.353
455	0.354
456	0.354
456	0.354
457	0.354
457	0.354
458	0.354
458	0.354
458	0.355
459	0.355
459	0.355
460	0.354
460	0.354
461	0.355
461	0.355
462	0.356
462	0.357
463	0.358
463	0.359
463	0.36
464	0.361
464	0.361
465	0.362
465	0.363
466	0.364
466	0.364
467	0.365
467	0.365
467	0.365
468	0.365
468	0.365
469	0.366
469	0.367
470	0.367
470	0.368
471	0.369
471	0.37
472	0.37
472	0.371
472	0.372
473	0.374
473	0.375
474	0.376
474	0.377
475	0.378
475	0.379
476	0.38
476	0.381
477	0.383
477	0.384
477	0.385
478	0.386
478	0.388
479	0.389
479	0.391
480	0.392
480	0.393
481	0.394
481	0.396
482	0.397
482	0.399
482	0.4
483	0.403
483	0.405
484	0.407
484	0.409
485	0.41
485	0.412
486	0.414
486	0.416
487	0.418
487	0.42
487	0.422
488	0.423
488	0.425
489	0.427
489	0.43
490	0.432
490	0.435
491	0.437
491	0.44
492	0.443
492	0.445
492	0.447
493	0.449
493	0.452
494	0.455
494	0.458
495	0.461
495	0.464
496	0.466
496	0.469
496	0.472
497	0.476
497	0.479
498	0.482
498	0.485
499	0.488
499	0.492
500	0.496
500	0.5
501	0.504
501	0.507
501	0.51
502	0.513
502	0.517
503	0.52
503	0.524
504	0.527
504	0.53
505	0.534
505	0.538
506	0.542
506	0.546
506	0.551
507	0.554
507	0.559
508	0.563
508	0.567
509	0.571
509	0.575
510	0.579
510	0.583
511	0.586
511	0.589
511	0.592
512	0.595
512	0.598
513	0.601
513	0.604
514	0.607
514	0.61
515	0.613
515	0.616
515	0.619
516	0.621
516	0.624
517	0.627
517	0.629
518	0.632
518	0.634
519	0.635
519	0.637
520	0.639
520	0.642
520	0.644
521	0.645
521	0.647
522	0.649
522	0.651
523	0.653
523	0.655
524	0.656
524	0.657
524	0.658
525	0.659
525	0.66
526	0.66
526	0.661
527	0.661
527	0.661
528	0.66
528	0.66
529	0.66
529	0.659
529	0.658
530	0.657
530	0.656
531	0.655
531	0.654
532	0.653
532	0.651
533	0.65
533	0.648
533	0.646
534	0.644
534	0.642
535	0.64
535	0.638
536	0.636
536	0.633
537	0.631
537	0.628
538	0.625
538	0.621
538	0.618
539	0.615
539	0.611
540	0.608
540	0.604
541	0.599
541	0.596
542	0.592
542	0.588
542	0.583
543	0.579
543	0.574
544	0.57
544	0.565
545	0.561
545	0.556
546	0.552
546	0.546
547	0.541
547	0.536
547	0.532
548	0.527
548	0.522
549	0.518
549	0.513
550	0.508
550	0.503
551	0.497
551	0.492
551	0.488
552	0.482
552	0.477
553	0.472
553	0.468
554	0.462
554	0.457
555	0.451
555	0.446
556	0.441
556	0.436
556	0.431
557	0.426
557	0.421
558	0.416
558	0.411
559	0.406
559	0.4
560	0.395
560	0.39
560	0.386
561	0.382
561	0.378
562	0.373
562	0.369
563	0.364
563	0.36
564	0.356
564	0.352
564	0.348
565	0.344
565	0.34
566	0.335
566	0.331
567	0.327
567	0.324
568	0.32
568	0.315
568	0.311
569	0.307
569	0.303
570	0.299
570	0.294
571	0.291
571	0.287
572	0.282
572	0.278
573	0.274
573	0.27
573	0.266
574	0.263
574	0.26
575	0.256
575	0.255
576	0.252
576	0.248
577	0.244
577	0.241
577	0.239
578	0.237
578	0.235
579	0.233
579	0.231
580	0.226
580	0.221
581	0.217
581	0.214
581	0.212
582	0.21
582	0.208
583	0.206
583	0.203
584	0.199
584	0.195
585	0.193
585	0.192
585	0.19
586	0.188
586	0.186
587	0.183
587	0.18
588	0.177
588	0.175
589	0.174
589	0.172
590	0.17
590	0.167
590	0.167
591	0.165
591	0.163
592	0.16
592	0.158
593	0.156
593	0.155
594	0.152
594	0.151
594	0.149
595	0.147
595	0.145
596	0.142
596	0.142
597	0.142
597	0.141
598	0.139
598	0.138
598	0.136
599	0.135
599	0.133
600	0.132
600	0.13
601	0.13
601	0.129
602	0.127
602	0.125
602	0.124
603	0.123
603	0.123
604	0.122
604	0.121
605	0.121
605	0.12
606	0.119
606	0.117
606	0.115
607	0.114
607	0.113
608	0.112
608	0.11
609	0.109
609	0.108
610	0.107
610	0.105
610	0.105
611	0.104
611	0.104
612	0.103
612	0.103
613	0.102
613	0.101
614	0.1
614	0.098
614	0.097
615	0.095
615	0.094
616	0.093
616	0.091
617	0.09
617	0.089
618	0.088
618	0.087
618	0.086
619	0.085
619	0.085
620	0.086
620	0.085
621	0.084
621	0.083
622	0.081
622	0.08
622	0.079
623	0.078
623	0.078
624	0.078
624	0.076
625	0.076
625	0.075
626	0.074
626	0.074
626	0.074
627	0.074
627	0.074
628	0.073
628	0.073
629	0.072
629	0.071
630	0.07
630	0.069
630	0.069
631	0.068
631	0.067
632	0.066
632	0.066
633	0.065
633	0.064
634	0.064
634	0.064
634	0.064
635	0.063
635	0.063
636	0.062
636	0.061
637	0.06
637	0.059
638	0.059
638	0.058
638	0.057
639	0.055
639	0.054
640	0.053
640	0.051
641	0.05
641	0.048
642	0.047
642	0.046
642	0.044
643	0.042
643	0.04
644	0.038
644	0.036
645	0.034
645	0.032
646	0.03
646	0.028
646	0.025
647	0.022
647	0.019
648	0.015
648	0.011
649	0.007
649	0.004
650	0
650	-0.004
650	-0.009
651	-0.014
651	-0.021
652	-0.029
652	-0.037
653	-0.044
653	-0.05
653	-0.046
654	-0.038
654	-0.041
655	-0.047
655	-0.052
656	-0.056
656	-0.062
657	-0.066
657	-0.069
657	-0.075
658	-0.08
658	-0.104
659	-0.162
659	-0.214
660	-0.241
660	-0.259
661	-0.278
661	-0.298
661	-0.32
662	-0.34
662	-0.358
663	-0.378
663	-0.401
664	-0.418
664	-0.44
665	-0.461
665	-0.483
665	-0.502
666	-0.523
666	-0.547
667	-0.569
667	-0.597
668	-0.624
668	-0.662
669	-0.7
669	-0.739
669	-0.787
670	-0.839
670	-0.935
671	-1.146
671	-1.526
672	-1.96
672	-2.26
672	-2.441
673	-2.527
673	-2.55
674	-2.567
674	-2.576
675	-2.591
675	-2.596
676	-2.596
676	-2.57
676	-2.484
677	-2.302
677	-1.975
678	-1.432
678	-1.085
679	-0.98
679	-0.93
680	-0.895
680	-0.873
680	-0.855
681	-0.853
681	-0.837
682	-0.831
682	-0.813
683	-0.795
683	-0.798
684	-0.793
684	-0.793
684	-0.788
685	-0.788
685	-0.794
686	-0.783
686	-0.782
687	-0.784
687	-0.786
687	-0.796
688	-0.79
688	-0.79
689	-0.8
689	-0.804
690	-0.796
690	-0.792
691	-0.793
691	-0.801
691	-0.805
692	-0.808
692	-0.807
693	-0.819
693	-0.835
694	-0.818
694	-0.821
695	-0.827
695	-0.823
695	-0.834
696	-0.842
696	-0.836
697	-0.833
697	-0.834
698	-0.828
698	-0.822
698	-0.84
699	-0.838
699	-0.839
700	-0.861
700	-0.858
701	-0.847
701	-0.844
702	-0.845
702	-0.842
702	-0.844
703	-0.836
703	-0.824
704	-0.833
704	-0.839
705	-0.827
705	-0.826
705	-0.82
706	-0.813
706	-0.811
707	-0.824
707	-0.827
708	-0.825
708	-0.824
709	-0.826
709	-0.823
709	-0.819
710	-0.828
710	-0.833
711	-0.833
711	-0.836
712	-0.827
712	-0.827
713	-0.831
713	-0.834
713	-0.814
714	-0.816
714	-0.82
715	-0.811
715	-0.82
716	-0.837
716	-0.845
716	-0.846
717	-0.851
717	-0.843
718	-0.837
718	-0.839
719	-0.834
719	-0.826
720	-0.822
720	-0.817
720	-0.81
721	-0.802
721	-0.806
722	-0.804
722	-0.802
723	-0.819
723	-0.831
723	-0.84
724	-0.842
724	-0.847
725	-0.842
725	-0.846
726	-0.85
726	-0.841
727	-0.843
727	-0.849
727	-0.84
728	-0.827
728	-0.824
729	-0.825
729	-0.829
730	-0.835
730	-0.825
730	-0.83
731	-0.834
731	-0.837
732	-0.839
732	-0.834
733	-0.849
733	-0.855
734	-0.863
734	-0.854
734	-0.836
735	-0.827
735	-0.825
736	-0.824
736	-0.818
737	-0.818
737	-0.808
737	-0.801
738	-0.788
738	-0.776
739	-0.779
739	-0.781
740	-0.794
740	-0.791
741	-0.801
741	-0.811
741	-0.82
742	-0.828
742	-0.844
743	-0.848
743	-0.85
744	-0.853
744	-0.862
744	-0.857
745	-0.866
745	-0.856
746	-0.851
746	-0.842
747	-0.846
747	-0.836
748	-0.84
748	-0.846
748	-0.849
749	-0.841
749	-0.847
750	-0.839
750	-0.838
751	-0.839
751	-0.837
751	-0.848
752	-0.851
752	-0.852
753	-0.851
753	-0.843
754	-0.862
754	-0.862
754	-0.868
755	-0.869
755	-0.859
756	-0.862
756	-0.848
757	-0.84
757	-0.829
758	-0.833
758	-0.833
758	-0.829
759	-0.835
759	-0.836
760	-0.834
760	-0.838
761	-0.832
761	-0.836
761	-0.837
762	-0.842
762	-0.841
763	-0.842
763	-0.845
764	-0.843
764	-0.839
764	-0.845
765	-0.844
765	-0.85
766	-0.853
766	-0.857
767	-0.874
767	-0.87
768	-0.868
768	-0.86
768	-0.856
769	-0.858
769	-0.866
770	-0.877
770	-0.883
771	-0.879
771	-0.877
771	-0.883
772	-0.886
772	-0.907
773	-0.909
773	-0.907
774	-0.905
774	-0.888
775	-0.875
775	-0.872
775	-0.874
776	-0.883
776	-0.88
777	-0.881
777	-0.862
778	-0.871
778	-0.88
778	-0.88
779	-0.888
779	-0.904
780	-0.9
780	-0.91
781	-0.899
781	-0.886
781	-0.9
782	-0.921
782	-0.923
783	-0.923
783	-0.93
784	-0.935
784	-0.926
784	-0.947
785	-0.94
785	-0.953
786	-0.959
786	-0.952
787	-0.942
787	-0.949
788	-0.942
788	-0.937
788	-0.937
789	-0.94
789	-0.93
790	-0.93
790	-0.914
791	-0.924
791	-0.918
791	-0.912
792	-0.907
792	-0.912
793	-0.913
793	-0.901
794	-0.895
794	-0.886
794	-0.895
795	-0.915
795	-0.899
796	-0.904
796	-0.902
797	-0.893
797	-0.883
797	-0.876
798	-0.896
798	-0.899
799	-0.901
799	-0.884
800	-0.88
800	-0.889
801	-0.887
801	-0.89
801	-0.888
802	-0.889
802	-0.89
803	-0.885
803	-0.878
804	-0.883
804	-0.893
804	-0.874
805	-0.855
805	-0.847
806	-0.847
806	-0.844
807	-0.844
807	-0.844
807	-0.827
808	-0.821
808	-0.814
809	-0.808
809	-0.811
810	-0.815
810	-0.813
810	-0.809
811	-0.811
811	-0.803
812	-0.796
812	-0.798
813	-0.803
813	-0.804
813	-0.8
814	-0.8
814	-0.805
815	-0.798
815	-0.794
816	-0.791
816	-0.806
817	-0.818
817	-0.822
817	-0.833
818	-0.826
818	-0.821
819	-0.831
819	-0.828
820	-0.84
820	-0.84
820	-0.839
821	-0.833
821	-0.83
822	-0.827
822	-0.815
823	-0.827
823	-0.827
823	-0.823
824	-0.821
824	-0.829
825	-0.827
825	-0.823
826	-0.82
826	-0.817
826	-0.816
827	-0.816
827	-0.805
828	-0.804
828	-0.798
829	-0.793
829	-0.779
829	-0.776
830	-0.775
830	-0.76
831	-0.753
831	-0.743
832	-0.733
832	-0.729
832	-0.723
833	-0.721
833	-0.726
834	-0.722
834	-0.717
835	-0.71
835	-0.711
835	-0.706
836	-0.703
836	-0.7
837	-0.69
837	-0.681
838	-0.668
838	-0.652
839	-0.645
839	-0.633
839	-0.621
840	-0.618
840	-0.608
841	-0.597
841	-0.59
842	-0.582
842	-0.569
842	-0.568
843	-0.564
843	-0.559
844	-0.557
844	-0.547
845	-0.534
845	-0.526
845	-0.516
846	-0.503
846	-0.493
847	-0.483
847	-0.469
848	-0.455
848	-0.44
848	-0.425
849	-0.414
849	-0.402
850	-0.389
850	-0.378
851	-0.365
851	-0.349
851	-0.341
852	-0.326
852	-0.312
853	-0.303
853	-0.293
854	-0.282
854	-0.271
854	-0.261
855	-0.251
855	-0.243
856	-0.236
856	-0.227
857	-0.22
857	-0.213
857	-0.199
858	-0.189
858	-0.182
859	-0.171
859	-0.159
860	-0.149
860	-0.136
860	-0.126
861	-0.117
861	-0.107
862	-0.1
862	-0.093
863	-0.085
863	-0.075
863	-0.069
864	-0.063
864	-0.056
865	-0.049
865	-0.043
866	-0.037
866	-0.032
866	-0.026
867	-0.02
867	-0.015
868	-0.011
868	-0.006
869	-0.001
869	0.001
869	0.003
870	0.006
870	0.008
871	0.009
871	0.01
872	0.011
872	0.012
872	0.013
873	0.013
873	0.013
874	0.012
874	0.012
875	0.012
875	0.012
875	0.012
876	0.012
876	0.012
877	0.011
877	0.011
878	0.01
878	0.01
878	0.01
879	0.01
879	0.009
880	0.009
880	0.008
881	0.006
881	0.005
881	0.004
882	0.002
882	0.001
883	-0.001
883	-0.002
884	-0.002
884	-0.003
884	-0.003
885	-0.003
885	-0.003
886	-0.003
886	-0.004
887	-0.004
887	-0.004
887	-0.004
888	-0.005
888	-0.005
889	-0.006
889	-0.007
890	-0.008
890	-0.008
890	-0.009
891	-0.008
891	-0.008
892	-0.008
892	-0.008
893	-0.007
893	-0.007
893	-0.007
894	-0.007
894	-0.006
895	-0.006
895	-0.006
895	-0.006
896	-0.006
896	-0.006
897	-0.005
897	-0.005
898	-0.005
898	-0.005
898	-0.005
899	-0.005
899	-0.004
900	-0.004
900	-0.004
901	-0.005
901	-0.005
901	-0.006
902	-0.006
902	-0.006
903	-0.006
903	-0.006
904	-0.007
904	-0.007
904	-0.007
905	-0.007
905	-0.007
906	-0.007
906	-0.006
907	-0.006
907	-0.005
907	-0.005
908	-0.004
908	-0.003
909	-0.003
909	-0.003
910	-0.002
910	-0.002
910	-0.001
911	-0
911	0
912	0.001
912	0.002
913	0.003
913	0.003
913	0.004
914	0.005
914	0.005
915	0.006
915	0.006
916	0.005
916	0.005
916	0.004
917	0.004
917	0.004
918	0.003
918	0.002
918	0.002
919	0.001
919	0.001
920	0.001
920	0.001
921	0.002
921	0.002
921	0.003
922	0.003
922	0.003
923	0.003
923	0.004
924	0.003
924	0.003
924	0.002
925	0.001
925	-0
926	-0.002
926	-0.003
927	-0.004
927	-0.006
927	-0.006
928	-0.007
928	-0.007
929	-0.007
929	-0.006
930	-0.006
930	-0.005
930	-0.004
931	-0.003
931	-0.002
932	-0
932	0
933	0.001
933	0.002
933	0.002
934	0.001
934	0.001
935	0.001
935	-0
935	-0.001
936	-0.003
936	-0.004
937	-0.005
937	-0.006
938	-0.006
938	-0.007
938	-0.007
939	-0.008
939	-0.009
940	-0.009
940	-0.01
941	-0.011
941	-0.011
941	-0.012
942	-0.012
942	-0.013
943	-0.013
943	-0.013
944	-0.013
944	-0.014
944	-0.014
945	-0.014
945	-0.013
946	-0.014
946	-0.015
946	-0.015
947	-0.015
947	-0.016
948	-0.015
948	-0.015
949	-0.014
949	-0.013
949	-0.012
950	-0.01
950	-0.009
951	-0.007
951	-0.006
952	-0.005
952	-0.004
952	-0.003
953	-0.002
953	-0.002
954	-0.002
954	-0.002
955	-0.001
955	-0.002
955	-0.002
956	-0.002
956	-0.002
957	-0.004
957	-0.004
957	-0.006
958	-0.006
958	-0.007
959	-0.008
959	-0.008
960	-0.009
960	-0.009
960	-0.009
961	-0.008
961	-0.008
962	-0.008
962	-0.007
963	-0.007
963	-0.006
963	-0.006
964	-0.005
964	-0.005
965	-0.004
965	-0.003
966	-0.003
966	-0.002
966	-0.002
967	-0.001
967	-0.001
968	-0.001
968	-0.001
968	-0.001
969	-0.001
969	-0.001
970	-0.001
970	-0.002
971	-0.002
971	-0.002
971	-0.002
972	-0.002
972	-0.002
973	-0.002
973	-0.002
974	-0.002
974	-0.002
974	-0.002
975	-0.002
975	-0.002
976	-0.003
976	-0.003
976	-0.003
977	-0.004
977	-0.004
978	-0.005
978	-0.005
979	-0.006
979	-0.006
979	-0.007
980	-0.007
980	-0.007
981	-0.007
981	-0.008
982	-0.008
982	-0.008
982	-0.008
983	-0.008
983	-0.008
984	-0.008
984	-0.008
984	-0.008
985	-0.008
985	-0.009
986	-0.009
986	-0.01
987	-0.011
987	-0.011
987	-0.012
988	-0.012
988	-0.013
989	-0.014
989	-0.015
990	-0.015
990	-0.017
990	-0.017
991	-0.018
991	-0.019
992	-0.019
992	-0.02
992	-0.021
993	-0.022
993	-0.023
994	-0.024
994	-0.026
995	-0.027
995	-0.028
995	-0.029
996	-0.03
996	-0.031
997	-0.032
997	-0.033
997	-0.033
998	-0.033
998	-0.033
999	-0.033
999	-0.033
1000	-0.032
1000	-0.032
1000	-0.031
1001	-0.03
1001	-0.029
1002	-0.028
1002	-0.027
1003	-0.026
1003	-0.026
1003	-0.025
1004	-0.025
1004	-0.025
1005	-0.025
1005	-0.025
1005	-0.026
1006	-0.026
1006	-0.027
1007	-0.028
1007	-0.029
1008	-0.03
1008	-0.03
1008	-0.031
1009	-0.031
1009	-0.031
1010	-0.03
1010	-0.03
1010	-0.029
1011	-0.029
1011	-0.028
1012	-0.027
1012	-0.026
1013	-0.024
1013	-0.024
1013	-0.023
1014	-0.023
1014	-0.022
1015	-0.022
1015	-0.021
1016	-0.021
1016	-0.021
1016	-0.021
1017	-0.022
1017	-0.022
1018	-0.022
1018	-0.022
1018	-0.022
1019	-0.022
1019	-0.022
1020	-0.023
1020	-0.023
1021	-0.023
1021	-0.024
1021	-0.024
1022	-0.025
1022	-0.025
1023	-0.025
1023	-0.025
1023	-0.025
1024	-0.025
1024	-0.025
1025	-0.025
1025	-0.025
1026	-0.025
1026	-0.024
1026	-0.024
1027	-0.024
1027	-0.024
1028	-0.024
1028	-0.023
1028	-0.023
1029	-0.023
1029	-0.023
1030	-0.023
1030	-0.023
1031	-0.023
1031	-0.022
1031	-0.022
1032	-0.022
1032	-0.022
1033	-0.023
1033	-0.023
1033	-0.023
1034	-0.024
1034	-0.025
1035	-0.025
1035	-0.026
1036	-0.027
1036	-0.027
1036	-0.028
1037	-0.028
1037	-0.028
1038	-0.029
1038	-0.029
1039	-0.029
1039	-0.029
1039	-0.028
1040	-0.028
1040	-0.028
1041	-0.028
1041	-0.028
1041	-0.028
1042	-0.029
1042	-0.029
1043	-0.03
1043	-0.03
1044	-0.031
1044	-0.031
1044	-0.032
1045	-0.032
1045	-0.032
1046	-0.033
1046	-0.033
1046	-0.033
1047	-0.033
1047	-0.033
1048	-0.033
1048	-0.033
1049	-0.033
1049	-0.033
1049	-0.034
1050	-0.034
1050	-0.035
1051	-0.036
1051	-0.037
1051	-0.037
1052	-0.038
1052	-0.039
1053	-0.04
1053	-0.04
1053	-0.04
1054	-0.041
1054	-0.041
1055	-0.04
1055	-0.04
1056	-0.04
1056	-0.04
1056	-0.04
1057	-0.04
1057	-0.04
1058	-0.04
1058	-0.04
1058	-0.04
1059	-0.04
1059	-0.041
1060	-0.041
1060	-0.041
1061	-0.042
1061	-0.042
1061	-0.042
1062	-0.042
1062	-0.042
1063	-0.042
1063	-0.043
1063	-0.043
1064	-0.043
1064	-0.042
1065	-0.042
1065	-0.043
1066	-0.043
1066	-0.043
1066	-0.043
1067	-0.044
1067	-0.045
1068	-0.046
1068	-0.047
1068	-0.047
1069	-0.048
1069	-0.049
1070	-0.05
1070	-0.051
1071	-0.051
1071	-0.052
1071	-0.052
1072	-0.052
1072	-0.052
1073	-0.052
1073	-0.052
1073	-0.052
1074	-0.052
1074	-0.052
1075	-0.053
1075	-0.053
1076	-0.054
1076	-0.055
1076	-0.055
1077	-0.056
1077	-0.057
1078	-0.057
1078	-0.058
1078	-0.058
1079	-0.058
1079	-0.059
1080	-0.059
1080	-0.06
1080	-0.061
1081	-0.062
1081	-0.063
1082	-0.064
1082	-0.065
1083	-0.067
1083	-0.068
1083	-0.07
1084	-0.071
1084	-0.073
1085	-0.074
1085	-0.075
1085	-0.076
1086	-0.077
1086	-0.078
1087	-0.079
1087	-0.08
1088	-0.081
1088	-0.082
1088	-0.082
1089	-0.083
1089	-0.083
1090	-0.083
1090	-0.084
1090	-0.085
1091	-0.086
1091	-0.086
1092	-0.086
1092	-0.086
1092	-0.087
1093	-0.088
1093	-0.088
1094	-0.088
1094	-0.089
1095	-0.09
1095	-0.091
1095	-0.092
1096	-0.093
1096	-0.095
1097	-0.096
1097	-0.098
1097	-0.1
1098	-0.102
1098	-0.104
1099	-0.105
1099	-0.107
1100	-0.109
1100	-0.112
1100	-0.115
1101	-0.119
1101	-0.121
1102	-0.123
1102	-0.125
1102	-0.127
1103	-0.13
1103	-0.133
1104	-0.136
1104	-0.139
1104	-0.141
1105	-0.142
1105	-0.145
1106	-0.149
1106	-0.151
1107	-0.158
1107	-0.162
1107	-0.167
1108	-0.168
1108	-0.169
1109	-0.173
1109	-0.177
1109	-0.181
1110	-0.183
1110	-0.189
1111	-0.199
1111	-0.193
