Data from 3.3A_17C_Absorbance__629__03496.txt Node

Date: Tue Jun 20 17:34:50 CEST 2023
User: Marek
Spectrometer: MAYP115816
Trigger mode: 0
Integration Time (sec): 2.200000E-1
Scans to average: 10
Electric dark correction enabled: true
Nonlinearity correction enabled: true
Boxcar width: 5
XAxis mode: Wavelengths
Number of Pixels in Spectrum: 2068
>>>>>Begin Spectral Data<<<<<
199	-0.791
199	-0.776
200	-0.742
200	-0.686
201	-0.658
201	-0.651
202	-0.634
202	-0.629
203	-0.629
203	-0.622
204	-0.603
204	-0.587
205	-0.564
205	-0.554
205	-0.563
206	-0.565
206	-0.561
207	-0.556
207	-0.56
208	-0.56
208	-0.565
209	-0.565
209	-0.571
210	-0.584
210	-0.591
211	-0.586
211	-0.589
212	-0.597
212	-0.604
213	-0.601
213	-0.597
213	-0.594
214	-0.601
214	-0.603
215	-0.6
215	-0.605
216	-0.613
216	-0.619
217	-0.617
217	-0.619
218	-0.626
218	-0.63
219	-0.638
219	-0.64
220	-0.643
220	-0.649
221	-0.649
221	-0.65
221	-0.642
222	-0.641
222	-0.639
223	-0.635
223	-0.635
224	-0.636
224	-0.634
225	-0.632
225	-0.634
226	-0.635
226	-0.634
227	-0.641
227	-0.652
228	-0.655
228	-0.663
229	-0.668
229	-0.665
229	-0.664
230	-0.661
230	-0.658
231	-0.654
231	-0.65
232	-0.652
232	-0.646
233	-0.647
233	-0.634
234	-0.635
234	-0.631
235	-0.635
235	-0.646
236	-0.652
236	-0.653
236	-0.652
237	-0.651
237	-0.652
238	-0.653
238	-0.655
239	-0.656
239	-0.664
240	-0.659
240	-0.655
241	-0.65
241	-0.655
242	-0.657
242	-0.666
243	-0.668
243	-0.671
243	-0.674
244	-0.671
244	-0.672
245	-0.675
245	-0.679
246	-0.69
246	-0.692
247	-0.699
247	-0.686
248	-0.685
248	-0.687
249	-0.695
249	-0.696
250	-0.694
250	-0.702
250	-0.699
251	-0.7
251	-0.698
252	-0.7
252	-0.712
253	-0.705
253	-0.715
254	-0.72
254	-0.722
255	-0.734
255	-0.733
256	-0.735
256	-0.748
257	-0.756
257	-0.752
258	-0.753
258	-0.761
258	-0.759
259	-0.752
259	-0.769
260	-0.767
260	-0.756
261	-0.769
261	-0.754
262	-0.759
262	-0.757
263	-0.748
263	-0.754
264	-0.763
264	-0.765
265	-0.758
265	-0.761
265	-0.769
266	-0.76
266	-0.759
267	-0.759
267	-0.776
268	-0.786
268	-0.78
269	-0.772
269	-0.786
270	-0.788
270	-0.787
271	-0.8
271	-0.811
272	-0.813
272	-0.815
272	-0.809
273	-0.818
273	-0.832
274	-0.825
274	-0.819
275	-0.818
275	-0.805
276	-0.81
276	-0.814
277	-0.817
277	-0.814
278	-0.817
278	-0.816
278	-0.806
279	-0.814
279	-0.827
280	-0.829
280	-0.839
281	-0.833
281	-0.826
282	-0.831
282	-0.825
283	-0.818
283	-0.832
284	-0.845
284	-0.856
285	-0.836
285	-0.843
285	-0.835
286	-0.84
286	-0.856
287	-0.853
287	-0.851
288	-0.851
288	-0.834
289	-0.832
289	-0.84
290	-0.849
290	-0.838
291	-0.842
291	-0.84
292	-0.82
292	-0.818
292	-0.823
293	-0.811
293	-0.807
294	-0.807
294	-0.794
295	-0.777
295	-0.788
296	-0.8
296	-0.794
297	-0.782
297	-0.784
298	-0.781
298	-0.8
298	-0.803
299	-0.784
299	-0.776
300	-0.773
300	-0.754
301	-0.736
301	-0.739
302	-0.749
302	-0.736
303	-0.728
303	-0.715
304	-0.699
304	-0.701
305	-0.693
305	-0.7
305	-0.716
306	-0.699
306	-0.698
307	-0.689
307	-0.7
308	-0.702
308	-0.698
309	-0.699
309	-0.695
310	-0.693
310	-0.689
311	-0.674
311	-0.695
311	-0.681
312	-0.681
312	-0.67
313	-0.661
313	-0.662
314	-0.667
314	-0.664
315	-0.662
315	-0.657
316	-0.651
316	-0.639
317	-0.632
317	-0.628
318	-0.619
318	-0.617
318	-0.608
319	-0.599
319	-0.595
320	-0.592
320	-0.589
321	-0.584
321	-0.583
322	-0.578
322	-0.572
323	-0.572
323	-0.564
324	-0.56
324	-0.549
324	-0.536
325	-0.522
325	-0.503
326	-0.493
326	-0.47
327	-0.454
327	-0.431
328	-0.401
328	-0.377
329	-0.349
329	-0.321
330	-0.293
330	-0.257
330	-0.222
331	-0.187
331	-0.154
332	-0.119
332	-0.088
333	-0.058
333	-0.025
334	0.005
334	0.032
335	0.059
335	0.081
336	0.104
336	0.125
336	0.142
337	0.159
337	0.177
338	0.191
338	0.202
339	0.216
339	0.227
340	0.234
340	0.243
341	0.25
341	0.256
342	0.263
342	0.269
342	0.274
343	0.278
343	0.283
344	0.285
344	0.289
345	0.292
345	0.294
346	0.296
346	0.298
347	0.3
347	0.301
348	0.302
348	0.304
348	0.304
349	0.305
349	0.306
350	0.307
350	0.308
351	0.308
351	0.308
352	0.308
352	0.308
353	0.309
353	0.309
354	0.309
354	0.309
354	0.309
355	0.309
355	0.309
356	0.309
356	0.31
357	0.311
357	0.311
358	0.311
358	0.311
359	0.31
359	0.31
360	0.31
360	0.311
360	0.311
361	0.311
361	0.31
362	0.309
362	0.309
363	0.31
363	0.31
364	0.31
364	0.31
365	0.31
365	0.309
366	0.309
366	0.309
366	0.309
367	0.31
367	0.309
368	0.309
368	0.309
369	0.309
369	0.309
370	0.308
370	0.308
371	0.308
371	0.308
372	0.307
372	0.307
372	0.307
373	0.307
373	0.307
374	0.307
374	0.307
375	0.306
375	0.306
376	0.306
376	0.306
377	0.305
377	0.305
378	0.305
378	0.305
378	0.304
379	0.304
379	0.304
380	0.304
380	0.304
381	0.304
381	0.303
382	0.303
382	0.303
383	0.302
383	0.302
383	0.302
384	0.302
384	0.302
385	0.301
385	0.301
386	0.301
386	0.301
387	0.3
387	0.3
388	0.3
388	0.3
389	0.3
389	0.3
389	0.299
390	0.299
390	0.299
391	0.299
391	0.299
392	0.299
392	0.299
393	0.299
393	0.298
394	0.298
394	0.298
394	0.297
395	0.297
395	0.296
396	0.296
396	0.296
397	0.295
397	0.295
398	0.294
398	0.294
399	0.294
399	0.294
400	0.293
400	0.293
400	0.293
401	0.293
401	0.292
402	0.292
402	0.293
403	0.293
403	0.292
404	0.292
404	0.292
405	0.291
405	0.291
405	0.291
406	0.291
406	0.291
407	0.291
407	0.29
408	0.29
408	0.289
409	0.289
409	0.289
410	0.289
410	0.289
411	0.289
411	0.288
411	0.288
412	0.288
412	0.287
413	0.287
413	0.287
414	0.287
414	0.287
415	0.286
415	0.286
416	0.286
416	0.286
416	0.285
417	0.285
417	0.285
418	0.285
418	0.285
419	0.285
419	0.285
420	0.285
420	0.285
421	0.284
421	0.284
421	0.284
422	0.284
422	0.284
423	0.284
423	0.284
424	0.284
424	0.283
425	0.283
425	0.283
426	0.283
426	0.283
427	0.283
427	0.283
427	0.283
428	0.283
428	0.283
429	0.283
429	0.283
430	0.282
430	0.282
431	0.282
431	0.282
432	0.281
432	0.281
432	0.281
433	0.28
433	0.28
434	0.281
434	0.281
435	0.281
435	0.281
436	0.281
436	0.281
437	0.281
437	0.28
437	0.28
438	0.28
438	0.28
439	0.28
439	0.28
440	0.28
440	0.28
441	0.28
441	0.279
442	0.279
442	0.279
442	0.279
443	0.279
443	0.279
444	0.279
444	0.279
445	0.279
445	0.279
446	0.279
446	0.279
447	0.279
447	0.279
447	0.279
448	0.279
448	0.279
449	0.279
449	0.279
450	0.279
450	0.279
451	0.279
451	0.279
452	0.279
452	0.279
452	0.279
453	0.279
453	0.279
454	0.279
454	0.279
455	0.28
455	0.28
456	0.28
456	0.279
457	0.279
457	0.279
458	0.279
458	0.279
458	0.279
459	0.279
459	0.278
460	0.278
460	0.278
461	0.278
461	0.279
462	0.279
462	0.28
463	0.28
463	0.281
463	0.282
464	0.282
464	0.283
465	0.283
465	0.284
466	0.284
466	0.284
467	0.284
467	0.284
467	0.284
468	0.284
468	0.284
469	0.284
469	0.285
470	0.285
470	0.285
471	0.286
471	0.286
472	0.286
472	0.286
472	0.287
473	0.288
473	0.288
474	0.289
474	0.29
475	0.29
475	0.291
476	0.292
476	0.292
477	0.293
477	0.294
477	0.294
478	0.295
478	0.295
479	0.296
479	0.296
480	0.297
480	0.298
481	0.298
481	0.299
482	0.3
482	0.301
482	0.302
483	0.303
483	0.305
484	0.306
484	0.306
485	0.308
485	0.309
486	0.31
486	0.311
487	0.312
487	0.313
487	0.314
488	0.315
488	0.315
489	0.316
489	0.318
490	0.319
490	0.321
491	0.322
491	0.323
492	0.325
492	0.326
492	0.327
493	0.328
493	0.33
494	0.332
494	0.333
495	0.335
495	0.336
496	0.337
496	0.339
496	0.341
497	0.343
497	0.345
498	0.347
498	0.349
499	0.35
499	0.353
500	0.355
500	0.358
501	0.36
501	0.361
501	0.363
502	0.365
502	0.367
503	0.369
503	0.371
504	0.373
504	0.375
505	0.377
505	0.38
506	0.382
506	0.385
506	0.387
507	0.39
507	0.393
508	0.395
508	0.398
509	0.401
509	0.403
510	0.406
510	0.408
511	0.41
511	0.412
511	0.414
512	0.416
512	0.418
513	0.419
513	0.421
514	0.423
514	0.425
515	0.427
515	0.428
515	0.43
516	0.432
516	0.434
517	0.436
517	0.437
518	0.439
518	0.44
519	0.441
519	0.442
520	0.444
520	0.445
520	0.447
521	0.447
521	0.448
522	0.449
522	0.451
523	0.452
523	0.454
524	0.455
524	0.456
524	0.457
525	0.458
525	0.459
526	0.46
526	0.46
527	0.461
527	0.461
528	0.461
528	0.461
529	0.461
529	0.462
529	0.461
530	0.461
530	0.461
531	0.461
531	0.46
532	0.46
532	0.459
533	0.459
533	0.458
533	0.458
534	0.457
534	0.457
535	0.456
535	0.456
536	0.455
536	0.454
537	0.454
537	0.453
538	0.452
538	0.451
538	0.449
539	0.448
539	0.447
540	0.445
540	0.444
541	0.442
541	0.44
542	0.439
542	0.437
542	0.435
543	0.433
543	0.431
544	0.429
544	0.427
545	0.426
545	0.424
546	0.422
546	0.42
547	0.417
547	0.414
547	0.412
548	0.411
548	0.409
549	0.407
549	0.405
550	0.403
550	0.401
551	0.398
551	0.396
551	0.394
552	0.392
552	0.39
553	0.388
553	0.386
554	0.384
554	0.381
555	0.378
555	0.376
556	0.374
556	0.372
556	0.37
557	0.368
557	0.366
558	0.364
558	0.362
559	0.359
559	0.357
560	0.355
560	0.353
560	0.351
561	0.35
561	0.348
562	0.346
562	0.344
563	0.343
563	0.341
564	0.339
564	0.338
564	0.337
565	0.336
565	0.334
566	0.333
566	0.331
567	0.33
567	0.329
568	0.328
568	0.326
568	0.325
569	0.323
569	0.321
570	0.319
570	0.316
571	0.315
571	0.313
572	0.311
572	0.309
573	0.307
573	0.305
573	0.303
574	0.301
574	0.3
575	0.299
575	0.3
576	0.298
576	0.296
577	0.294
577	0.293
577	0.293
578	0.292
578	0.292
579	0.292
579	0.292
580	0.289
580	0.286
581	0.284
581	0.283
581	0.283
582	0.282
582	0.282
583	0.281
583	0.28
584	0.277
584	0.275
585	0.275
585	0.275
585	0.275
586	0.274
586	0.273
587	0.271
587	0.269
588	0.268
588	0.267
589	0.266
589	0.266
590	0.265
590	0.264
590	0.264
591	0.264
591	0.263
592	0.262
592	0.26
593	0.26
593	0.259
594	0.258
594	0.257
594	0.256
595	0.256
595	0.254
596	0.253
596	0.253
597	0.254
597	0.254
598	0.253
598	0.253
598	0.252
599	0.252
599	0.25
600	0.249
600	0.249
601	0.249
601	0.248
602	0.247
602	0.246
602	0.245
603	0.245
603	0.246
604	0.245
604	0.245
605	0.245
605	0.246
606	0.245
606	0.243
606	0.242
607	0.242
607	0.241
608	0.24
608	0.239
609	0.238
609	0.238
610	0.237
610	0.236
610	0.236
611	0.236
611	0.235
612	0.235
612	0.235
613	0.235
613	0.234
614	0.233
614	0.231
614	0.23
615	0.229
615	0.228
616	0.227
616	0.226
617	0.225
617	0.224
618	0.223
618	0.222
618	0.221
619	0.221
619	0.221
620	0.221
620	0.22
621	0.219
621	0.218
622	0.217
622	0.216
622	0.214
623	0.213
623	0.213
624	0.212
624	0.211
625	0.21
625	0.209
626	0.208
626	0.207
626	0.207
627	0.207
627	0.206
628	0.206
628	0.205
629	0.204
629	0.202
630	0.201
630	0.199
630	0.198
631	0.197
631	0.195
632	0.193
632	0.191
633	0.189
633	0.186
634	0.184
634	0.182
634	0.181
635	0.178
635	0.176
636	0.174
636	0.171
637	0.168
637	0.166
638	0.163
638	0.16
638	0.157
639	0.153
639	0.15
640	0.146
640	0.142
641	0.138
641	0.134
642	0.13
642	0.126
642	0.122
643	0.117
643	0.112
644	0.107
644	0.102
645	0.097
645	0.092
646	0.087
646	0.08
646	0.074
647	0.067
647	0.06
648	0.053
648	0.046
649	0.038
649	0.031
650	0.024
650	0.016
650	0.008
651	-0.001
651	-0.014
652	-0.027
652	-0.041
653	-0.054
653	-0.065
653	-0.061
654	-0.042
654	-0.037
655	-0.042
655	-0.048
656	-0.054
656	-0.061
657	-0.067
657	-0.072
657	-0.079
658	-0.087
658	-0.119
659	-0.206
659	-0.297
660	-0.338
660	-0.365
661	-0.392
661	-0.422
661	-0.453
662	-0.481
662	-0.513
663	-0.549
663	-0.588
664	-0.626
664	-0.668
665	-0.715
665	-0.761
665	-0.807
666	-0.859
666	-0.915
667	-0.97
667	-1.033
668	-1.092
668	-1.161
669	-1.23
669	-1.305
669	-1.385
670	-1.471
670	-1.601
671	-1.81
671	-2.136
672	-2.354
672	-2.505
672	-2.618
673	-2.71
673	-2.787
674	-2.837
674	-2.852
675	-2.867
675	-2.869
676	-2.86
676	-2.804
676	-2.732
677	-2.644
677	-2.536
678	-2.374
678	-2.093
679	-1.753
679	-1.601
680	-1.5
680	-1.424
680	-1.357
681	-1.31
681	-1.257
682	-1.215
682	-1.172
683	-1.129
683	-1.106
684	-1.078
684	-1.059
684	-1.035
685	-1.014
685	-1.004
686	-0.98
686	-0.966
687	-0.956
687	-0.946
687	-0.947
688	-0.93
688	-0.922
689	-0.925
689	-0.923
690	-0.91
690	-0.899
691	-0.896
691	-0.899
691	-0.899
692	-0.898
692	-0.894
693	-0.902
693	-0.912
694	-0.892
694	-0.891
695	-0.895
695	-0.889
695	-0.896
696	-0.904
696	-0.895
697	-0.889
697	-0.885
698	-0.879
698	-0.871
698	-0.884
699	-0.883
699	-0.883
700	-0.901
700	-0.895
701	-0.883
701	-0.88
702	-0.882
702	-0.88
702	-0.88
703	-0.871
703	-0.859
704	-0.867
704	-0.87
705	-0.859
705	-0.858
705	-0.852
706	-0.844
706	-0.839
707	-0.851
707	-0.854
708	-0.852
708	-0.849
709	-0.85
709	-0.848
709	-0.844
710	-0.852
710	-0.857
711	-0.855
711	-0.854
712	-0.844
712	-0.841
713	-0.847
713	-0.849
713	-0.829
714	-0.829
714	-0.833
715	-0.824
715	-0.831
716	-0.848
716	-0.858
716	-0.86
717	-0.867
717	-0.858
718	-0.852
718	-0.853
719	-0.848
719	-0.84
720	-0.835
720	-0.831
720	-0.824
721	-0.815
721	-0.819
722	-0.816
722	-0.81
723	-0.828
723	-0.84
723	-0.847
724	-0.846
724	-0.851
725	-0.844
725	-0.847
726	-0.85
726	-0.843
727	-0.845
727	-0.855
727	-0.846
728	-0.832
728	-0.83
729	-0.833
729	-0.835
730	-0.839
730	-0.831
730	-0.835
731	-0.837
731	-0.838
732	-0.838
732	-0.831
733	-0.847
733	-0.854
734	-0.862
734	-0.852
734	-0.835
735	-0.826
735	-0.822
736	-0.822
736	-0.815
737	-0.815
737	-0.805
737	-0.798
738	-0.783
738	-0.771
739	-0.775
739	-0.776
740	-0.789
740	-0.791
741	-0.8
741	-0.811
741	-0.82
742	-0.828
742	-0.843
743	-0.85
743	-0.852
744	-0.856
744	-0.864
744	-0.859
745	-0.866
745	-0.857
746	-0.852
746	-0.842
747	-0.845
747	-0.836
748	-0.837
748	-0.841
748	-0.842
749	-0.834
749	-0.841
750	-0.832
750	-0.831
751	-0.832
751	-0.83
751	-0.843
752	-0.846
752	-0.849
753	-0.853
753	-0.845
754	-0.865
754	-0.864
754	-0.871
755	-0.871
755	-0.862
756	-0.865
756	-0.85
757	-0.842
757	-0.832
758	-0.831
758	-0.832
758	-0.827
759	-0.833
759	-0.832
760	-0.83
760	-0.831
761	-0.824
761	-0.829
761	-0.828
762	-0.834
762	-0.834
763	-0.833
763	-0.837
764	-0.836
764	-0.833
764	-0.84
765	-0.839
765	-0.846
766	-0.848
766	-0.849
767	-0.865
767	-0.861
768	-0.862
768	-0.855
768	-0.85
769	-0.854
769	-0.86
770	-0.87
770	-0.874
771	-0.87
771	-0.872
771	-0.876
772	-0.879
772	-0.9
773	-0.9
773	-0.901
774	-0.9
774	-0.883
775	-0.869
775	-0.867
775	-0.87
776	-0.88
776	-0.877
777	-0.876
777	-0.858
778	-0.868
778	-0.875
778	-0.874
779	-0.884
779	-0.901
780	-0.898
780	-0.907
781	-0.898
781	-0.886
781	-0.902
782	-0.923
782	-0.923
783	-0.923
783	-0.929
784	-0.933
784	-0.926
784	-0.945
785	-0.939
785	-0.95
786	-0.954
786	-0.946
787	-0.935
787	-0.944
788	-0.937
788	-0.932
788	-0.933
789	-0.932
789	-0.921
790	-0.921
790	-0.905
791	-0.911
791	-0.907
791	-0.902
792	-0.895
792	-0.899
793	-0.903
793	-0.89
794	-0.883
794	-0.877
794	-0.883
795	-0.904
795	-0.891
796	-0.896
796	-0.89
797	-0.884
797	-0.873
797	-0.865
798	-0.885
798	-0.89
799	-0.889
799	-0.874
800	-0.87
800	-0.878
801	-0.875
801	-0.879
801	-0.875
802	-0.876
802	-0.874
803	-0.868
803	-0.861
804	-0.867
804	-0.876
804	-0.859
805	-0.841
805	-0.832
806	-0.834
806	-0.831
807	-0.833
807	-0.834
807	-0.816
808	-0.81
808	-0.804
809	-0.797
809	-0.798
810	-0.802
810	-0.8
810	-0.795
811	-0.799
811	-0.79
812	-0.783
812	-0.785
813	-0.789
813	-0.79
813	-0.785
814	-0.785
814	-0.792
815	-0.782
815	-0.779
816	-0.776
816	-0.793
817	-0.804
817	-0.808
817	-0.819
818	-0.811
818	-0.808
819	-0.817
819	-0.813
820	-0.823
820	-0.822
820	-0.821
821	-0.815
821	-0.811
822	-0.811
822	-0.798
823	-0.811
823	-0.811
823	-0.809
824	-0.807
824	-0.819
825	-0.815
825	-0.812
826	-0.808
826	-0.803
826	-0.802
827	-0.803
827	-0.791
828	-0.79
828	-0.782
829	-0.775
829	-0.76
829	-0.759
830	-0.757
830	-0.743
831	-0.736
831	-0.726
832	-0.715
832	-0.71
832	-0.702
833	-0.701
833	-0.707
834	-0.703
834	-0.698
835	-0.691
835	-0.691
835	-0.687
836	-0.682
836	-0.679
837	-0.671
837	-0.663
838	-0.65
838	-0.632
839	-0.627
839	-0.614
839	-0.604
840	-0.603
840	-0.593
841	-0.583
841	-0.574
842	-0.565
842	-0.551
842	-0.549
843	-0.546
843	-0.54
844	-0.538
844	-0.526
845	-0.512
845	-0.502
845	-0.491
846	-0.48
846	-0.471
847	-0.461
847	-0.448
848	-0.433
848	-0.415
848	-0.401
849	-0.388
849	-0.375
850	-0.364
850	-0.353
851	-0.339
851	-0.321
851	-0.312
852	-0.295
852	-0.281
853	-0.274
853	-0.262
854	-0.25
854	-0.239
854	-0.225
855	-0.214
855	-0.205
856	-0.196
856	-0.187
857	-0.18
857	-0.171
857	-0.155
858	-0.143
858	-0.135
859	-0.123
859	-0.112
860	-0.101
860	-0.087
860	-0.076
861	-0.065
861	-0.055
862	-0.046
862	-0.038
863	-0.03
863	-0.02
863	-0.013
864	-0.006
864	0.001
865	0.009
865	0.016
866	0.022
866	0.029
866	0.035
867	0.041
867	0.047
868	0.052
868	0.057
869	0.061
869	0.065
869	0.067
870	0.069
870	0.071
871	0.072
871	0.074
872	0.075
872	0.076
872	0.076
873	0.076
873	0.076
874	0.075
874	0.075
875	0.075
875	0.074
875	0.074
876	0.074
876	0.074
877	0.073
877	0.073
878	0.072
878	0.072
878	0.072
879	0.072
879	0.071
880	0.071
880	0.07
881	0.068
881	0.067
881	0.066
882	0.064
882	0.062
883	0.061
883	0.059
884	0.058
884	0.057
884	0.057
885	0.057
885	0.056
886	0.056
886	0.056
887	0.055
887	0.055
887	0.055
888	0.055
888	0.054
889	0.053
889	0.052
890	0.051
890	0.05
890	0.05
891	0.05
891	0.049
892	0.05
892	0.05
893	0.05
893	0.05
893	0.05
894	0.051
894	0.051
895	0.051
895	0.051
895	0.051
896	0.051
896	0.051
897	0.052
897	0.052
898	0.051
898	0.052
898	0.052
899	0.052
899	0.052
900	0.052
900	0.052
901	0.052
901	0.052
901	0.052
902	0.052
902	0.052
903	0.052
903	0.051
904	0.051
904	0.051
904	0.051
905	0.051
905	0.051
906	0.051
906	0.051
907	0.051
907	0.052
907	0.052
908	0.052
908	0.053
909	0.053
909	0.053
910	0.053
910	0.054
910	0.054
911	0.055
911	0.055
912	0.056
912	0.057
913	0.058
913	0.058
913	0.059
914	0.059
914	0.059
915	0.059
915	0.059
916	0.059
916	0.058
916	0.058
917	0.058
917	0.057
918	0.057
918	0.056
918	0.055
919	0.055
919	0.055
920	0.055
920	0.055
921	0.055
921	0.056
921	0.056
922	0.056
922	0.056
923	0.056
923	0.056
924	0.055
924	0.055
924	0.054
925	0.053
925	0.052
926	0.051
926	0.051
927	0.05
927	0.049
927	0.049
928	0.048
928	0.048
929	0.049
929	0.05
930	0.05
930	0.051
930	0.051
931	0.052
931	0.053
932	0.054
932	0.055
933	0.056
933	0.056
933	0.056
934	0.055
934	0.055
935	0.054
935	0.053
935	0.052
936	0.051
936	0.05
937	0.048
937	0.048
938	0.047
938	0.046
938	0.045
939	0.045
939	0.044
940	0.043
940	0.042
941	0.042
941	0.041
941	0.041
942	0.04
942	0.04
943	0.039
943	0.039
944	0.038
944	0.037
944	0.037
945	0.036
945	0.036
946	0.036
946	0.035
946	0.035
947	0.035
947	0.035
948	0.035
948	0.036
949	0.037
949	0.038
949	0.04
950	0.041
950	0.042
951	0.044
951	0.045
952	0.046
952	0.047
952	0.048
953	0.049
953	0.049
954	0.049
954	0.048
955	0.048
955	0.048
955	0.047
956	0.047
956	0.046
957	0.044
957	0.043
957	0.042
958	0.041
958	0.041
959	0.04
959	0.04
960	0.039
960	0.039
960	0.04
961	0.04
961	0.04
962	0.041
962	0.041
963	0.041
963	0.042
963	0.042
964	0.043
964	0.043
965	0.043
965	0.044
966	0.044
966	0.045
966	0.046
967	0.046
967	0.047
968	0.047
968	0.047
968	0.047
969	0.047
969	0.047
970	0.047
970	0.046
971	0.046
971	0.046
971	0.046
972	0.046
972	0.046
973	0.046
973	0.046
974	0.046
974	0.046
974	0.046
975	0.046
975	0.046
976	0.045
976	0.045
976	0.044
977	0.044
977	0.043
978	0.043
978	0.042
979	0.041
979	0.041
979	0.041
980	0.041
980	0.041
981	0.041
981	0.041
982	0.041
982	0.041
982	0.041
983	0.041
983	0.041
984	0.041
984	0.041
984	0.041
985	0.04
985	0.04
986	0.039
986	0.038
987	0.037
987	0.036
987	0.036
988	0.035
988	0.034
989	0.033
989	0.032
990	0.031
990	0.029
990	0.028
991	0.028
991	0.027
992	0.026
992	0.025
992	0.024
993	0.023
993	0.022
994	0.021
994	0.02
995	0.019
995	0.018
995	0.016
996	0.015
996	0.014
997	0.013
997	0.012
997	0.011
998	0.011
998	0.011
999	0.011
999	0.011
1000	0.012
1000	0.012
1000	0.013
1001	0.013
1001	0.014
1002	0.015
1002	0.016
1003	0.016
1003	0.016
1003	0.017
1004	0.017
1004	0.017
1005	0.017
1005	0.017
1005	0.016
1006	0.016
1006	0.015
1007	0.014
1007	0.013
1008	0.013
1008	0.012
1008	0.012
1009	0.012
1009	0.012
1010	0.012
1010	0.013
1010	0.013
1011	0.014
1011	0.015
1012	0.016
1012	0.017
1013	0.019
1013	0.019
1013	0.02
1014	0.02
1014	0.021
1015	0.021
1015	0.022
1016	0.022
1016	0.022
1016	0.021
1017	0.021
1017	0.021
1018	0.021
1018	0.021
1018	0.021
1019	0.02
1019	0.02
1020	0.019
1020	0.019
1021	0.018
1021	0.018
1021	0.018
1022	0.017
1022	0.017
1023	0.017
1023	0.017
1023	0.017
1024	0.017
1024	0.017
1025	0.017
1025	0.017
1026	0.018
1026	0.018
1026	0.018
1027	0.018
1027	0.018
1028	0.019
1028	0.02
1028	0.02
1029	0.02
1029	0.021
1030	0.021
1030	0.02
1031	0.021
1031	0.021
1031	0.021
1032	0.021
1032	0.021
1033	0.02
1033	0.02
1033	0.02
1034	0.019
1034	0.018
1035	0.018
1035	0.017
1036	0.016
1036	0.015
1036	0.015
1037	0.014
1037	0.014
1038	0.013
1038	0.013
1039	0.013
1039	0.014
1039	0.014
1040	0.014
1040	0.014
1041	0.014
1041	0.014
1041	0.014
1042	0.013
1042	0.012
1043	0.011
1043	0.011
1044	0.01
1044	0.009
1044	0.009
1045	0.008
1045	0.008
1046	0.007
1046	0.007
1046	0.008
1047	0.007
1047	0.008
1048	0.008
1048	0.008
1049	0.008
1049	0.008
1049	0.008
1050	0.007
1050	0.006
1051	0.005
1051	0.004
1051	0.004
1052	0.002
1052	0.001
1053	0.001
1053	0
1053	-0
1054	-0.001
1054	-0.001
1055	-0.001
1055	-0
1056	-0
1056	-0
1056	-0
1057	-0
1057	-0
1058	-0
1058	-0
1058	0
1059	-0
1059	-0.001
1060	-0.002
1060	-0.002
1061	-0.003
1061	-0.003
1061	-0.003
1062	-0.003
1062	-0.003
1063	-0.003
1063	-0.004
1063	-0.003
1064	-0.003
1064	-0.003
1065	-0.003
1065	-0.004
1066	-0.004
1066	-0.005
1066	-0.006
1067	-0.007
1067	-0.008
1068	-0.009
1068	-0.01
1068	-0.011
1069	-0.012
1069	-0.013
1070	-0.014
1070	-0.014
1071	-0.015
1071	-0.015
1071	-0.016
1072	-0.016
1072	-0.016
1073	-0.016
1073	-0.016
1073	-0.016
1074	-0.016
1074	-0.016
1075	-0.017
1075	-0.017
1076	-0.018
1076	-0.018
1076	-0.019
1077	-0.02
1077	-0.02
1078	-0.021
1078	-0.022
1078	-0.022
1079	-0.022
1079	-0.023
1080	-0.024
1080	-0.024
1080	-0.026
1081	-0.027
1081	-0.028
1082	-0.028
1082	-0.029
1083	-0.03
1083	-0.032
1083	-0.033
1084	-0.034
1084	-0.035
1085	-0.036
1085	-0.037
1085	-0.038
1086	-0.039
1086	-0.04
1087	-0.041
1087	-0.042
1088	-0.044
1088	-0.045
1088	-0.045
1089	-0.046
1089	-0.047
1090	-0.047
1090	-0.048
1090	-0.05
1091	-0.051
1091	-0.051
1092	-0.051
1092	-0.05
1092	-0.052
1093	-0.052
1093	-0.052
1094	-0.053
1094	-0.054
1095	-0.056
1095	-0.056
1095	-0.057
1096	-0.059
1096	-0.06
1097	-0.062
1097	-0.064
1097	-0.065
1098	-0.067
1098	-0.07
1099	-0.072
1099	-0.073
1100	-0.076
1100	-0.078
1100	-0.081
1101	-0.084
1101	-0.087
1102	-0.09
1102	-0.093
1102	-0.095
1103	-0.098
1103	-0.101
1104	-0.104
1104	-0.107
1104	-0.11
1105	-0.111
1105	-0.114
1106	-0.119
1106	-0.121
1107	-0.126
1107	-0.13
1107	-0.135
1108	-0.137
1108	-0.138
1109	-0.142
1109	-0.146
1109	-0.151
1110	-0.153
1110	-0.157
1111	-0.167
1111	-0.16
