Data from 3.3A_17C_Absorbance__122__02989.txt Node

Date: Tue Jun 20 17:16:15 CEST 2023
User: Marek
Spectrometer: MAYP115816
Trigger mode: 0
Integration Time (sec): 2.200000E-1
Scans to average: 10
Electric dark correction enabled: true
Nonlinearity correction enabled: true
Boxcar width: 5
XAxis mode: Wavelengths
Number of Pixels in Spectrum: 2068
>>>>>Begin Spectral Data<<<<<
199	-0.82
199	-0.799
200	-0.767
200	-0.709
201	-0.68
201	-0.671
202	-0.654
202	-0.645
203	-0.646
203	-0.637
204	-0.616
204	-0.6
205	-0.577
205	-0.566
205	-0.575
206	-0.576
206	-0.571
207	-0.564
207	-0.57
208	-0.571
208	-0.577
209	-0.581
209	-0.586
210	-0.599
210	-0.607
211	-0.602
211	-0.607
212	-0.616
212	-0.624
213	-0.621
213	-0.615
213	-0.613
214	-0.618
214	-0.623
215	-0.62
215	-0.624
216	-0.632
216	-0.636
217	-0.634
217	-0.634
218	-0.642
218	-0.646
219	-0.653
219	-0.654
220	-0.657
220	-0.663
221	-0.665
221	-0.667
221	-0.66
222	-0.66
222	-0.659
223	-0.655
223	-0.656
224	-0.656
224	-0.655
225	-0.653
225	-0.655
226	-0.654
226	-0.652
227	-0.66
227	-0.67
228	-0.674
228	-0.683
229	-0.687
229	-0.686
229	-0.687
230	-0.681
230	-0.678
231	-0.676
231	-0.671
232	-0.672
232	-0.666
233	-0.664
233	-0.65
234	-0.649
234	-0.643
235	-0.646
235	-0.657
236	-0.664
236	-0.665
236	-0.666
237	-0.666
237	-0.667
238	-0.668
238	-0.67
239	-0.673
239	-0.684
240	-0.677
240	-0.674
241	-0.671
241	-0.672
242	-0.675
242	-0.682
243	-0.684
243	-0.686
243	-0.692
244	-0.688
244	-0.688
245	-0.692
245	-0.695
246	-0.705
246	-0.708
247	-0.715
247	-0.701
248	-0.7
248	-0.702
249	-0.706
249	-0.709
250	-0.707
250	-0.715
250	-0.713
251	-0.712
251	-0.708
252	-0.71
252	-0.722
253	-0.719
253	-0.733
254	-0.737
254	-0.738
255	-0.749
255	-0.746
256	-0.748
256	-0.759
257	-0.77
257	-0.765
258	-0.768
258	-0.774
258	-0.77
259	-0.764
259	-0.782
260	-0.78
260	-0.771
261	-0.781
261	-0.768
262	-0.773
262	-0.773
263	-0.763
263	-0.769
264	-0.778
264	-0.779
265	-0.769
265	-0.773
265	-0.782
266	-0.772
266	-0.771
267	-0.769
267	-0.783
268	-0.791
268	-0.785
269	-0.776
269	-0.791
270	-0.794
270	-0.794
271	-0.809
271	-0.822
272	-0.824
272	-0.828
272	-0.823
273	-0.833
273	-0.848
274	-0.842
274	-0.836
275	-0.834
275	-0.822
276	-0.825
276	-0.83
277	-0.832
277	-0.828
278	-0.833
278	-0.833
278	-0.82
279	-0.828
279	-0.842
280	-0.844
280	-0.855
281	-0.847
281	-0.84
282	-0.847
282	-0.842
283	-0.834
283	-0.848
284	-0.861
284	-0.873
285	-0.853
285	-0.859
285	-0.85
286	-0.856
286	-0.874
287	-0.869
287	-0.867
288	-0.868
288	-0.849
289	-0.848
289	-0.854
290	-0.861
290	-0.851
291	-0.853
291	-0.851
292	-0.828
292	-0.827
292	-0.832
293	-0.819
293	-0.816
294	-0.816
294	-0.803
295	-0.788
295	-0.799
296	-0.81
296	-0.804
297	-0.793
297	-0.797
298	-0.794
298	-0.81
298	-0.815
299	-0.797
299	-0.789
300	-0.785
300	-0.767
301	-0.751
301	-0.755
302	-0.764
302	-0.748
303	-0.741
303	-0.729
304	-0.711
304	-0.713
305	-0.705
305	-0.714
305	-0.727
306	-0.71
306	-0.708
307	-0.699
307	-0.711
308	-0.715
308	-0.712
309	-0.714
309	-0.709
310	-0.708
310	-0.701
311	-0.688
311	-0.706
311	-0.694
312	-0.693
312	-0.68
313	-0.672
313	-0.671
314	-0.677
314	-0.675
315	-0.669
315	-0.665
316	-0.658
316	-0.649
317	-0.64
317	-0.636
318	-0.627
318	-0.623
318	-0.613
319	-0.603
319	-0.594
320	-0.592
320	-0.589
321	-0.583
321	-0.584
322	-0.58
322	-0.573
323	-0.574
323	-0.566
324	-0.563
324	-0.551
324	-0.54
325	-0.525
325	-0.507
326	-0.499
326	-0.472
327	-0.455
327	-0.433
328	-0.402
328	-0.377
329	-0.348
329	-0.318
330	-0.289
330	-0.252
330	-0.214
331	-0.175
331	-0.14
332	-0.102
332	-0.065
333	-0.031
333	0.007
334	0.04
334	0.069
335	0.1
335	0.127
336	0.153
336	0.178
336	0.197
337	0.218
337	0.237
338	0.254
338	0.267
339	0.284
339	0.297
340	0.307
340	0.318
341	0.326
341	0.334
342	0.342
342	0.35
342	0.356
343	0.361
343	0.367
344	0.371
344	0.375
345	0.379
345	0.382
346	0.384
346	0.387
347	0.389
347	0.391
348	0.393
348	0.395
348	0.396
349	0.396
349	0.398
350	0.399
350	0.399
351	0.4
351	0.401
352	0.401
352	0.401
353	0.402
353	0.402
354	0.402
354	0.402
354	0.402
355	0.402
355	0.402
356	0.402
356	0.402
357	0.402
357	0.402
358	0.402
358	0.402
359	0.402
359	0.402
360	0.403
360	0.403
360	0.403
361	0.403
361	0.403
362	0.403
362	0.403
363	0.403
363	0.403
364	0.403
364	0.403
365	0.403
365	0.402
366	0.402
366	0.402
366	0.402
367	0.402
367	0.401
368	0.401
368	0.4
369	0.4
369	0.4
370	0.399
370	0.399
371	0.399
371	0.398
372	0.398
372	0.397
372	0.397
373	0.397
373	0.396
374	0.396
374	0.396
375	0.395
375	0.394
376	0.394
376	0.394
377	0.393
377	0.393
378	0.392
378	0.392
378	0.392
379	0.391
379	0.391
380	0.391
380	0.391
381	0.39
381	0.389
382	0.389
382	0.389
383	0.388
383	0.388
383	0.387
384	0.387
384	0.386
385	0.386
385	0.385
386	0.385
386	0.385
387	0.384
387	0.384
388	0.383
388	0.383
389	0.382
389	0.382
389	0.382
390	0.381
390	0.381
391	0.38
391	0.38
392	0.38
392	0.379
393	0.379
393	0.379
394	0.378
394	0.377
394	0.377
395	0.377
395	0.376
396	0.375
396	0.375
397	0.374
397	0.374
398	0.373
398	0.373
399	0.372
399	0.372
400	0.372
400	0.371
400	0.371
401	0.37
401	0.369
402	0.369
402	0.369
403	0.369
403	0.369
404	0.368
404	0.368
405	0.367
405	0.367
405	0.367
406	0.367
406	0.366
407	0.366
407	0.366
408	0.365
408	0.365
409	0.364
409	0.364
410	0.364
410	0.364
411	0.363
411	0.363
411	0.363
412	0.362
412	0.362
413	0.361
413	0.361
414	0.361
414	0.361
415	0.36
415	0.36
416	0.359
416	0.359
416	0.359
417	0.358
417	0.358
418	0.358
418	0.358
419	0.357
419	0.357
420	0.357
420	0.357
421	0.357
421	0.357
421	0.357
422	0.357
422	0.357
423	0.357
423	0.357
424	0.356
424	0.356
425	0.356
425	0.355
426	0.355
426	0.355
427	0.355
427	0.355
427	0.355
428	0.355
428	0.354
429	0.354
429	0.353
430	0.353
430	0.353
431	0.353
431	0.353
432	0.352
432	0.352
432	0.351
433	0.351
433	0.352
434	0.352
434	0.352
435	0.352
435	0.352
436	0.352
436	0.352
437	0.352
437	0.352
437	0.352
438	0.352
438	0.352
439	0.352
439	0.352
440	0.351
440	0.351
441	0.351
441	0.351
442	0.351
442	0.351
442	0.351
443	0.351
443	0.351
444	0.351
444	0.351
445	0.351
445	0.352
446	0.352
446	0.352
447	0.352
447	0.352
447	0.352
448	0.352
448	0.352
449	0.352
449	0.352
450	0.353
450	0.353
451	0.353
451	0.353
452	0.353
452	0.353
452	0.353
453	0.354
453	0.354
454	0.354
454	0.354
455	0.355
455	0.355
456	0.355
456	0.355
457	0.355
457	0.355
458	0.355
458	0.355
458	0.355
459	0.355
459	0.355
460	0.355
460	0.355
461	0.356
461	0.356
462	0.357
462	0.358
463	0.359
463	0.36
463	0.361
464	0.362
464	0.362
465	0.363
465	0.364
466	0.364
466	0.365
467	0.365
467	0.366
467	0.366
468	0.366
468	0.366
469	0.367
469	0.368
470	0.369
470	0.37
471	0.37
471	0.371
472	0.372
472	0.373
472	0.374
473	0.375
473	0.376
474	0.377
474	0.378
475	0.38
475	0.381
476	0.382
476	0.383
477	0.384
477	0.386
477	0.387
478	0.388
478	0.389
479	0.391
479	0.392
480	0.393
480	0.395
481	0.396
481	0.397
482	0.399
482	0.4
482	0.402
483	0.405
483	0.407
484	0.409
484	0.41
485	0.412
485	0.414
486	0.416
486	0.418
487	0.42
487	0.422
487	0.424
488	0.425
488	0.427
489	0.429
489	0.432
490	0.434
490	0.436
491	0.439
491	0.441
492	0.444
492	0.446
492	0.448
493	0.451
493	0.454
494	0.457
494	0.46
495	0.463
495	0.466
496	0.469
496	0.472
496	0.475
497	0.479
497	0.482
498	0.485
498	0.488
499	0.491
499	0.495
500	0.499
500	0.503
501	0.506
501	0.509
501	0.512
502	0.516
502	0.519
503	0.523
503	0.526
504	0.53
504	0.533
505	0.536
505	0.54
506	0.544
506	0.548
506	0.553
507	0.557
507	0.561
508	0.565
508	0.57
509	0.574
509	0.578
510	0.582
510	0.585
511	0.589
511	0.592
511	0.596
512	0.599
512	0.602
513	0.604
513	0.607
514	0.61
514	0.614
515	0.616
515	0.619
515	0.621
516	0.625
516	0.628
517	0.631
517	0.633
518	0.635
518	0.637
519	0.639
519	0.64
520	0.643
520	0.645
520	0.647
521	0.648
521	0.649
522	0.651
522	0.653
523	0.655
523	0.657
524	0.658
524	0.659
524	0.66
525	0.662
525	0.662
526	0.663
526	0.663
527	0.664
527	0.663
528	0.663
528	0.663
529	0.662
529	0.662
529	0.661
530	0.66
530	0.658
531	0.657
531	0.656
532	0.655
532	0.653
533	0.652
533	0.65
533	0.648
534	0.646
534	0.643
535	0.641
535	0.64
536	0.637
536	0.635
537	0.632
537	0.629
538	0.625
538	0.622
538	0.618
539	0.615
539	0.612
540	0.609
540	0.604
541	0.6
541	0.596
542	0.592
542	0.588
542	0.583
543	0.579
543	0.575
544	0.57
544	0.565
545	0.561
545	0.556
546	0.551
546	0.546
547	0.541
547	0.536
547	0.531
548	0.527
548	0.521
549	0.517
549	0.512
550	0.507
550	0.502
551	0.496
551	0.49
551	0.485
552	0.48
552	0.475
553	0.47
553	0.465
554	0.459
554	0.454
555	0.448
555	0.443
556	0.438
556	0.433
556	0.428
557	0.423
557	0.418
558	0.413
558	0.407
559	0.402
559	0.397
560	0.391
560	0.386
560	0.382
561	0.378
561	0.373
562	0.369
562	0.364
563	0.36
563	0.355
564	0.351
564	0.347
564	0.343
565	0.339
565	0.335
566	0.331
566	0.327
567	0.323
567	0.319
568	0.315
568	0.311
568	0.307
569	0.303
569	0.299
570	0.294
570	0.289
571	0.286
571	0.282
572	0.277
572	0.273
573	0.269
573	0.265
573	0.26
574	0.257
574	0.254
575	0.251
575	0.249
576	0.246
576	0.242
577	0.238
577	0.235
577	0.233
578	0.231
578	0.229
579	0.228
579	0.225
580	0.221
580	0.216
581	0.211
581	0.208
581	0.207
582	0.205
582	0.203
583	0.201
583	0.198
584	0.194
584	0.19
585	0.188
585	0.187
585	0.185
586	0.183
586	0.181
587	0.178
587	0.175
588	0.172
588	0.17
589	0.168
589	0.167
590	0.164
590	0.162
590	0.162
591	0.16
591	0.158
592	0.155
592	0.153
593	0.151
593	0.15
594	0.148
594	0.146
594	0.144
595	0.143
595	0.14
596	0.138
596	0.137
597	0.138
597	0.136
598	0.135
598	0.133
598	0.132
599	0.131
599	0.129
600	0.128
600	0.126
601	0.126
601	0.125
602	0.123
602	0.121
602	0.12
603	0.119
603	0.119
604	0.118
604	0.117
605	0.117
605	0.117
606	0.115
606	0.113
606	0.112
607	0.111
607	0.11
608	0.109
608	0.107
609	0.106
609	0.105
610	0.103
610	0.102
610	0.101
611	0.101
611	0.101
612	0.1
612	0.1
613	0.099
613	0.098
614	0.097
614	0.095
614	0.094
615	0.092
615	0.091
616	0.09
616	0.088
617	0.087
617	0.086
618	0.084
618	0.084
618	0.083
619	0.082
619	0.082
620	0.083
620	0.082
621	0.08
621	0.08
622	0.078
622	0.077
622	0.076
623	0.075
623	0.075
624	0.075
624	0.073
625	0.073
625	0.072
626	0.072
626	0.071
626	0.071
627	0.071
627	0.071
628	0.071
628	0.071
629	0.07
629	0.069
630	0.068
630	0.067
630	0.067
631	0.066
631	0.065
632	0.064
632	0.064
633	0.063
633	0.062
634	0.062
634	0.062
634	0.062
635	0.061
635	0.061
636	0.06
636	0.06
637	0.059
637	0.058
638	0.058
638	0.057
638	0.056
639	0.055
639	0.053
640	0.052
640	0.051
641	0.05
641	0.049
642	0.047
642	0.046
642	0.044
643	0.042
643	0.041
644	0.039
644	0.037
645	0.036
645	0.034
646	0.033
646	0.03
646	0.028
647	0.025
647	0.022
648	0.019
648	0.015
649	0.012
649	0.008
650	0.004
650	-0
650	-0.005
651	-0.011
651	-0.018
652	-0.025
652	-0.033
653	-0.04
653	-0.046
653	-0.043
654	-0.036
654	-0.039
655	-0.045
655	-0.05
656	-0.055
656	-0.06
657	-0.065
657	-0.068
657	-0.075
658	-0.08
658	-0.104
659	-0.16
659	-0.212
660	-0.238
660	-0.256
661	-0.275
661	-0.296
661	-0.318
662	-0.336
662	-0.352
663	-0.371
663	-0.392
664	-0.408
664	-0.429
665	-0.45
665	-0.471
665	-0.489
666	-0.508
666	-0.531
667	-0.551
667	-0.577
668	-0.602
668	-0.638
669	-0.673
669	-0.71
669	-0.755
670	-0.808
670	-0.918
671	-1.163
671	-1.542
672	-1.939
672	-2.242
672	-2.414
673	-2.48
673	-2.498
674	-2.515
674	-2.524
675	-2.538
675	-2.543
676	-2.541
676	-2.51
676	-2.42
677	-2.209
677	-1.818
678	-1.291
678	-1.016
679	-0.934
679	-0.892
680	-0.865
680	-0.849
680	-0.835
681	-0.835
681	-0.82
682	-0.814
682	-0.799
683	-0.783
683	-0.789
684	-0.786
684	-0.787
684	-0.783
685	-0.782
685	-0.788
686	-0.778
686	-0.778
687	-0.78
687	-0.781
687	-0.792
688	-0.785
688	-0.787
689	-0.799
689	-0.802
690	-0.795
690	-0.789
691	-0.791
691	-0.799
691	-0.804
692	-0.81
692	-0.81
693	-0.822
693	-0.838
694	-0.82
694	-0.823
695	-0.828
695	-0.825
695	-0.835
696	-0.843
696	-0.837
697	-0.833
697	-0.831
698	-0.827
698	-0.822
698	-0.839
699	-0.839
699	-0.843
700	-0.866
700	-0.863
701	-0.851
701	-0.847
702	-0.848
702	-0.847
702	-0.849
703	-0.84
703	-0.831
704	-0.84
704	-0.843
705	-0.831
705	-0.829
705	-0.827
706	-0.823
706	-0.821
707	-0.834
707	-0.84
708	-0.837
708	-0.833
709	-0.836
709	-0.833
709	-0.83
710	-0.84
710	-0.841
711	-0.842
711	-0.843
712	-0.834
712	-0.83
713	-0.837
713	-0.839
713	-0.816
714	-0.818
714	-0.822
715	-0.815
715	-0.825
716	-0.839
716	-0.848
716	-0.849
717	-0.857
717	-0.848
718	-0.843
718	-0.845
719	-0.841
719	-0.835
720	-0.829
720	-0.825
720	-0.817
721	-0.808
721	-0.813
722	-0.809
722	-0.806
723	-0.825
723	-0.838
723	-0.847
724	-0.846
724	-0.852
725	-0.847
725	-0.853
726	-0.858
726	-0.849
727	-0.853
727	-0.859
727	-0.849
728	-0.836
728	-0.835
729	-0.836
729	-0.838
730	-0.842
730	-0.833
730	-0.837
731	-0.841
731	-0.841
732	-0.844
732	-0.839
733	-0.854
733	-0.86
734	-0.869
734	-0.862
734	-0.845
735	-0.835
735	-0.83
736	-0.829
736	-0.824
737	-0.823
737	-0.813
737	-0.806
738	-0.792
738	-0.779
739	-0.782
739	-0.784
740	-0.798
740	-0.8
741	-0.812
741	-0.821
741	-0.831
742	-0.838
742	-0.853
743	-0.859
743	-0.862
744	-0.865
744	-0.872
744	-0.867
745	-0.873
745	-0.861
746	-0.857
746	-0.847
747	-0.851
747	-0.841
748	-0.844
748	-0.847
748	-0.849
749	-0.84
749	-0.848
750	-0.839
750	-0.839
751	-0.838
751	-0.836
751	-0.847
752	-0.851
752	-0.855
753	-0.857
753	-0.849
754	-0.871
754	-0.87
754	-0.877
755	-0.879
755	-0.871
756	-0.874
756	-0.861
757	-0.855
757	-0.845
758	-0.844
758	-0.843
758	-0.839
759	-0.842
759	-0.843
760	-0.839
760	-0.84
761	-0.834
761	-0.838
761	-0.836
762	-0.843
762	-0.844
763	-0.845
763	-0.848
764	-0.848
764	-0.844
764	-0.852
765	-0.851
765	-0.859
766	-0.862
766	-0.864
767	-0.878
767	-0.875
768	-0.872
768	-0.865
768	-0.859
769	-0.863
769	-0.868
770	-0.877
770	-0.88
771	-0.877
771	-0.875
771	-0.88
772	-0.884
772	-0.905
773	-0.904
773	-0.906
774	-0.903
774	-0.887
775	-0.876
775	-0.874
775	-0.879
776	-0.889
776	-0.883
777	-0.883
777	-0.865
778	-0.876
778	-0.884
778	-0.884
779	-0.893
779	-0.91
780	-0.906
780	-0.912
781	-0.902
781	-0.893
781	-0.905
782	-0.928
782	-0.928
783	-0.926
783	-0.933
784	-0.936
784	-0.93
784	-0.952
785	-0.947
785	-0.959
786	-0.964
786	-0.958
787	-0.949
787	-0.959
788	-0.954
788	-0.949
788	-0.951
789	-0.95
789	-0.938
790	-0.936
790	-0.92
791	-0.928
791	-0.924
791	-0.917
792	-0.91
792	-0.913
793	-0.917
793	-0.904
794	-0.897
794	-0.889
794	-0.896
795	-0.917
795	-0.903
796	-0.906
796	-0.902
797	-0.893
797	-0.884
797	-0.878
798	-0.901
798	-0.905
799	-0.906
799	-0.893
800	-0.886
800	-0.895
801	-0.895
801	-0.898
801	-0.895
802	-0.895
802	-0.893
803	-0.887
803	-0.879
804	-0.885
804	-0.892
804	-0.879
805	-0.859
805	-0.849
806	-0.852
806	-0.849
807	-0.851
807	-0.85
807	-0.834
808	-0.83
808	-0.823
809	-0.817
809	-0.816
810	-0.821
810	-0.818
810	-0.814
811	-0.816
811	-0.806
812	-0.8
812	-0.801
813	-0.806
813	-0.806
813	-0.803
814	-0.804
814	-0.809
815	-0.799
815	-0.796
816	-0.794
816	-0.81
817	-0.821
817	-0.826
817	-0.835
818	-0.829
818	-0.827
819	-0.837
819	-0.834
820	-0.846
820	-0.846
820	-0.844
821	-0.839
821	-0.836
822	-0.835
822	-0.822
823	-0.832
823	-0.831
823	-0.826
824	-0.823
824	-0.836
825	-0.833
825	-0.83
826	-0.826
826	-0.821
826	-0.819
827	-0.819
827	-0.808
828	-0.809
828	-0.802
829	-0.797
829	-0.78
829	-0.779
830	-0.776
830	-0.763
831	-0.757
831	-0.747
832	-0.74
832	-0.736
832	-0.729
833	-0.729
833	-0.735
834	-0.731
834	-0.724
835	-0.719
835	-0.719
835	-0.714
836	-0.71
836	-0.706
837	-0.695
837	-0.685
838	-0.671
838	-0.653
839	-0.648
839	-0.636
839	-0.623
840	-0.623
840	-0.613
841	-0.601
841	-0.595
842	-0.587
842	-0.576
842	-0.574
843	-0.572
843	-0.566
844	-0.563
844	-0.554
845	-0.539
845	-0.529
845	-0.519
846	-0.508
846	-0.498
847	-0.488
847	-0.474
848	-0.459
848	-0.442
848	-0.43
849	-0.417
849	-0.407
850	-0.397
850	-0.387
851	-0.374
851	-0.358
851	-0.347
852	-0.332
852	-0.32
853	-0.312
853	-0.301
854	-0.29
854	-0.278
854	-0.266
855	-0.255
855	-0.247
856	-0.239
856	-0.23
857	-0.223
857	-0.215
857	-0.202
858	-0.192
858	-0.185
859	-0.174
859	-0.162
860	-0.153
860	-0.138
860	-0.129
861	-0.119
861	-0.11
862	-0.101
862	-0.093
863	-0.084
863	-0.075
863	-0.068
864	-0.063
864	-0.055
865	-0.049
865	-0.043
866	-0.037
866	-0.032
866	-0.027
867	-0.022
867	-0.017
868	-0.013
868	-0.008
869	-0.004
869	-0.001
869	0.002
870	0.004
870	0.006
871	0.008
871	0.01
872	0.011
872	0.012
872	0.012
873	0.012
873	0.012
874	0.012
874	0.012
875	0.011
875	0.011
875	0.011
876	0.011
876	0.011
877	0.01
877	0.01
878	0.01
878	0.01
878	0.01
879	0.009
879	0.009
880	0.008
880	0.007
881	0.006
881	0.005
881	0.004
882	0.002
882	0.001
883	-0.001
883	-0.002
884	-0.002
884	-0.003
884	-0.003
885	-0.003
885	-0.003
886	-0.003
886	-0.003
887	-0.004
887	-0.004
887	-0.004
888	-0.005
888	-0.005
889	-0.006
889	-0.007
890	-0.008
890	-0.008
890	-0.009
891	-0.009
891	-0.009
892	-0.009
892	-0.009
893	-0.008
893	-0.008
893	-0.008
894	-0.007
894	-0.007
895	-0.007
895	-0.007
895	-0.007
896	-0.007
896	-0.007
897	-0.006
897	-0.006
898	-0.006
898	-0.006
898	-0.006
899	-0.005
899	-0.005
900	-0.004
900	-0.004
901	-0.005
901	-0.005
901	-0.005
902	-0.006
902	-0.006
903	-0.006
903	-0.007
904	-0.007
904	-0.008
904	-0.008
905	-0.007
905	-0.007
906	-0.007
906	-0.006
907	-0.006
907	-0.006
907	-0.006
908	-0.005
908	-0.004
909	-0.004
909	-0.004
910	-0.003
910	-0.003
910	-0.002
911	-0.001
911	-0.001
912	0
912	0.001
913	0.002
913	0.002
913	0.003
914	0.004
914	0.005
915	0.005
915	0.005
916	0.004
916	0.004
916	0.004
917	0.004
917	0.003
918	0.003
918	0.002
918	0.001
919	0.001
919	0.001
920	0.001
920	0.001
921	0.002
921	0.002
921	0.002
922	0.003
922	0.003
923	0.003
923	0.003
924	0.003
924	0.002
924	0.002
925	0.001
925	-0.001
926	-0.002
926	-0.003
927	-0.005
927	-0.006
927	-0.006
928	-0.007
928	-0.007
929	-0.007
929	-0.006
930	-0.006
930	-0.005
930	-0.004
931	-0.003
931	-0.002
932	-0
932	0.001
933	0.002
933	0.002
933	0.002
934	0.002
934	0.001
935	0.001
935	0
935	-0.001
936	-0.002
936	-0.004
937	-0.005
937	-0.005
938	-0.006
938	-0.007
938	-0.008
939	-0.008
939	-0.009
940	-0.01
940	-0.01
941	-0.011
941	-0.011
941	-0.011
942	-0.012
942	-0.012
943	-0.011
943	-0.012
944	-0.012
944	-0.013
944	-0.013
945	-0.013
945	-0.013
946	-0.014
946	-0.015
946	-0.015
947	-0.015
947	-0.016
948	-0.015
948	-0.014
949	-0.014
949	-0.012
949	-0.011
950	-0.01
950	-0.008
951	-0.006
951	-0.005
952	-0.004
952	-0.003
952	-0.002
953	-0.001
953	-0.001
954	-0.001
954	-0.002
955	-0.001
955	-0.002
955	-0.002
956	-0.002
956	-0.003
957	-0.004
957	-0.005
957	-0.006
958	-0.007
958	-0.007
959	-0.008
959	-0.008
960	-0.009
960	-0.009
960	-0.009
961	-0.009
961	-0.008
962	-0.008
962	-0.007
963	-0.007
963	-0.006
963	-0.006
964	-0.005
964	-0.004
965	-0.004
965	-0.004
966	-0.003
966	-0.003
966	-0.002
967	-0.001
967	-0.001
968	-0.001
968	-0.001
968	-0.001
969	-0.001
969	-0.001
970	-0.001
970	-0.002
971	-0.002
971	-0.002
971	-0.002
972	-0.002
972	-0.002
973	-0.002
973	-0.002
974	-0.002
974	-0.002
974	-0.002
975	-0.002
975	-0.002
976	-0.002
976	-0.003
976	-0.003
977	-0.003
977	-0.004
978	-0.005
978	-0.005
979	-0.006
979	-0.006
979	-0.006
980	-0.006
980	-0.007
981	-0.007
981	-0.007
982	-0.007
982	-0.007
982	-0.007
983	-0.007
983	-0.007
984	-0.007
984	-0.007
984	-0.007
985	-0.008
985	-0.008
986	-0.009
986	-0.009
987	-0.01
987	-0.011
987	-0.012
988	-0.012
988	-0.013
989	-0.014
989	-0.015
990	-0.016
990	-0.017
990	-0.018
991	-0.019
991	-0.019
992	-0.02
992	-0.021
992	-0.022
993	-0.023
993	-0.024
994	-0.025
994	-0.026
995	-0.027
995	-0.029
995	-0.03
996	-0.031
996	-0.032
997	-0.033
997	-0.033
997	-0.034
998	-0.034
998	-0.034
999	-0.034
999	-0.034
1000	-0.033
1000	-0.032
1000	-0.032
1001	-0.031
1001	-0.03
1002	-0.029
1002	-0.028
1003	-0.027
1003	-0.027
1003	-0.026
1004	-0.026
1004	-0.026
1005	-0.025
1005	-0.026
1005	-0.026
1006	-0.027
1006	-0.028
1007	-0.028
1007	-0.029
1008	-0.03
1008	-0.031
1008	-0.031
1009	-0.031
1009	-0.031
1010	-0.031
1010	-0.03
1010	-0.029
1011	-0.029
1011	-0.028
1012	-0.027
1012	-0.026
1013	-0.025
1013	-0.024
1013	-0.023
1014	-0.023
1014	-0.022
1015	-0.022
1015	-0.022
1016	-0.021
1016	-0.021
1016	-0.021
1017	-0.022
1017	-0.022
1018	-0.022
1018	-0.023
1018	-0.023
1019	-0.023
1019	-0.023
1020	-0.024
1020	-0.024
1021	-0.025
1021	-0.025
1021	-0.025
1022	-0.026
1022	-0.026
1023	-0.026
1023	-0.026
1023	-0.026
1024	-0.026
1024	-0.026
1025	-0.026
1025	-0.026
1026	-0.026
1026	-0.025
1026	-0.025
1027	-0.025
1027	-0.025
1028	-0.025
1028	-0.024
1028	-0.024
1029	-0.024
1029	-0.023
1030	-0.023
1030	-0.023
1031	-0.023
1031	-0.023
1031	-0.023
1032	-0.023
1032	-0.023
1033	-0.024
1033	-0.024
1033	-0.024
1034	-0.025
1034	-0.026
1035	-0.026
1035	-0.027
1036	-0.028
1036	-0.029
1036	-0.029
1037	-0.029
1037	-0.029
1038	-0.03
1038	-0.03
1039	-0.03
1039	-0.03
1039	-0.029
1040	-0.029
1040	-0.029
1041	-0.029
1041	-0.029
1041	-0.029
1042	-0.03
1042	-0.03
1043	-0.03
1043	-0.031
1044	-0.031
1044	-0.032
1044	-0.032
1045	-0.033
1045	-0.033
1046	-0.034
1046	-0.034
1046	-0.034
1047	-0.034
1047	-0.034
1048	-0.033
1048	-0.033
1049	-0.033
1049	-0.034
1049	-0.034
1050	-0.034
1050	-0.035
1051	-0.036
1051	-0.037
1051	-0.038
1052	-0.038
1052	-0.039
1053	-0.04
1053	-0.04
1053	-0.041
1054	-0.041
1054	-0.042
1055	-0.041
1055	-0.04
1056	-0.04
1056	-0.04
1056	-0.04
1057	-0.04
1057	-0.04
1058	-0.041
1058	-0.041
1058	-0.04
1059	-0.04
1059	-0.041
1060	-0.041
1060	-0.041
1061	-0.042
1061	-0.042
1061	-0.042
1062	-0.042
1062	-0.043
1063	-0.043
1063	-0.043
1063	-0.043
1064	-0.043
1064	-0.043
1065	-0.043
1065	-0.043
1066	-0.043
1066	-0.043
1066	-0.044
1067	-0.044
1067	-0.045
1068	-0.046
1068	-0.046
1068	-0.047
1069	-0.048
1069	-0.05
1070	-0.05
1070	-0.051
1071	-0.052
1071	-0.052
1071	-0.052
1072	-0.052
1072	-0.052
1073	-0.052
1073	-0.052
1073	-0.053
1074	-0.053
1074	-0.053
1075	-0.053
1075	-0.054
1076	-0.054
1076	-0.055
1076	-0.056
1077	-0.057
1077	-0.057
1078	-0.058
1078	-0.058
1078	-0.059
1079	-0.059
1079	-0.06
1080	-0.061
1080	-0.061
1080	-0.063
1081	-0.063
1081	-0.064
1082	-0.064
1082	-0.066
1083	-0.067
1083	-0.069
1083	-0.07
1084	-0.072
1084	-0.073
1085	-0.074
1085	-0.075
1085	-0.076
1086	-0.077
1086	-0.079
1087	-0.08
1087	-0.08
1088	-0.081
1088	-0.082
1088	-0.082
1089	-0.084
1089	-0.084
1090	-0.085
1090	-0.086
1090	-0.087
1091	-0.088
1091	-0.087
1092	-0.088
1092	-0.088
1092	-0.089
1093	-0.089
1093	-0.09
1094	-0.09
1094	-0.091
1095	-0.092
1095	-0.092
1095	-0.093
1096	-0.095
1096	-0.097
1097	-0.098
1097	-0.1
1097	-0.102
1098	-0.103
1098	-0.106
1099	-0.107
1099	-0.109
1100	-0.111
1100	-0.114
1100	-0.116
1101	-0.12
1101	-0.122
1102	-0.124
1102	-0.127
1102	-0.129
1103	-0.132
1103	-0.135
1104	-0.138
1104	-0.141
1104	-0.143
1105	-0.145
1105	-0.147
1106	-0.152
1106	-0.153
1107	-0.159
1107	-0.163
1107	-0.168
1108	-0.169
1108	-0.17
1109	-0.173
1109	-0.177
1109	-0.182
1110	-0.184
1110	-0.189
1111	-0.199
1111	-0.197
