Data from 3.3A_17C_Absorbance__607__03474.txt Node

Date: Tue Jun 20 17:34:02 CEST 2023
User: Marek
Spectrometer: MAYP115816
Trigger mode: 0
Integration Time (sec): 2.200000E-1
Scans to average: 10
Electric dark correction enabled: true
Nonlinearity correction enabled: true
Boxcar width: 5
XAxis mode: Wavelengths
Number of Pixels in Spectrum: 2068
>>>>>Begin Spectral Data<<<<<
199	-0.79
199	-0.78
200	-0.743
200	-0.689
201	-0.659
201	-0.652
202	-0.636
202	-0.632
203	-0.632
203	-0.625
204	-0.604
204	-0.589
205	-0.565
205	-0.556
205	-0.565
206	-0.567
206	-0.563
207	-0.555
207	-0.561
208	-0.561
208	-0.565
209	-0.567
209	-0.573
210	-0.586
210	-0.593
211	-0.585
211	-0.59
212	-0.599
212	-0.607
213	-0.604
213	-0.601
213	-0.599
214	-0.605
214	-0.607
215	-0.603
215	-0.608
216	-0.619
216	-0.624
217	-0.621
217	-0.622
218	-0.629
218	-0.631
219	-0.638
219	-0.64
220	-0.643
220	-0.649
221	-0.65
221	-0.651
221	-0.642
222	-0.643
222	-0.64
223	-0.636
223	-0.638
224	-0.638
224	-0.635
225	-0.633
225	-0.635
226	-0.636
226	-0.635
227	-0.641
227	-0.65
228	-0.654
228	-0.661
229	-0.665
229	-0.663
229	-0.664
230	-0.66
230	-0.658
231	-0.653
231	-0.648
232	-0.653
232	-0.647
233	-0.646
233	-0.636
234	-0.637
234	-0.632
235	-0.636
235	-0.648
236	-0.654
236	-0.657
236	-0.658
237	-0.656
237	-0.659
238	-0.659
238	-0.66
239	-0.662
239	-0.673
240	-0.667
240	-0.662
241	-0.658
241	-0.661
242	-0.664
242	-0.671
243	-0.67
243	-0.672
243	-0.677
244	-0.672
244	-0.673
245	-0.676
245	-0.679
246	-0.688
246	-0.691
247	-0.698
247	-0.685
248	-0.685
248	-0.688
249	-0.695
249	-0.699
250	-0.697
250	-0.706
250	-0.703
251	-0.705
251	-0.701
252	-0.702
252	-0.714
253	-0.709
253	-0.719
254	-0.722
254	-0.722
255	-0.732
255	-0.73
256	-0.733
256	-0.743
257	-0.755
257	-0.752
258	-0.753
258	-0.761
258	-0.759
259	-0.754
259	-0.773
260	-0.772
260	-0.761
261	-0.773
261	-0.76
262	-0.766
262	-0.763
263	-0.756
263	-0.762
264	-0.773
264	-0.774
265	-0.763
265	-0.767
265	-0.779
266	-0.77
266	-0.769
267	-0.767
267	-0.785
268	-0.793
268	-0.786
269	-0.777
269	-0.791
270	-0.795
270	-0.793
271	-0.806
271	-0.816
272	-0.818
272	-0.82
272	-0.813
273	-0.822
273	-0.837
274	-0.828
274	-0.821
275	-0.818
275	-0.807
276	-0.811
276	-0.816
277	-0.818
277	-0.817
278	-0.823
278	-0.822
278	-0.809
279	-0.82
279	-0.833
280	-0.836
280	-0.848
281	-0.839
281	-0.833
282	-0.838
282	-0.833
283	-0.824
283	-0.839
284	-0.853
284	-0.864
285	-0.845
285	-0.852
285	-0.842
286	-0.849
286	-0.864
287	-0.858
287	-0.857
288	-0.856
288	-0.838
289	-0.836
289	-0.842
290	-0.85
290	-0.84
291	-0.842
291	-0.84
292	-0.82
292	-0.819
292	-0.822
293	-0.809
293	-0.805
294	-0.806
294	-0.791
295	-0.774
295	-0.786
296	-0.799
296	-0.791
297	-0.779
297	-0.784
298	-0.781
298	-0.8
298	-0.802
299	-0.783
299	-0.776
300	-0.77
300	-0.75
301	-0.731
301	-0.735
302	-0.748
302	-0.733
303	-0.726
303	-0.715
304	-0.699
304	-0.703
305	-0.696
305	-0.707
305	-0.723
306	-0.708
306	-0.705
307	-0.696
307	-0.707
308	-0.709
308	-0.703
309	-0.705
309	-0.702
310	-0.699
310	-0.693
311	-0.679
311	-0.696
311	-0.685
312	-0.682
312	-0.671
313	-0.663
313	-0.664
314	-0.669
314	-0.666
315	-0.663
315	-0.655
316	-0.651
316	-0.64
317	-0.631
317	-0.629
318	-0.62
318	-0.617
318	-0.606
319	-0.595
319	-0.586
320	-0.585
320	-0.583
321	-0.579
321	-0.581
322	-0.576
322	-0.568
323	-0.568
323	-0.559
324	-0.556
324	-0.546
324	-0.535
325	-0.519
325	-0.501
326	-0.491
326	-0.465
327	-0.449
327	-0.427
328	-0.397
328	-0.375
329	-0.348
329	-0.319
330	-0.293
330	-0.257
330	-0.223
331	-0.185
331	-0.152
332	-0.118
332	-0.085
333	-0.053
333	-0.019
334	0.011
334	0.036
335	0.063
335	0.084
336	0.107
336	0.128
336	0.145
337	0.162
337	0.179
338	0.193
338	0.204
339	0.217
339	0.228
340	0.237
340	0.246
341	0.253
341	0.26
342	0.266
342	0.273
342	0.278
343	0.282
343	0.286
344	0.289
344	0.293
345	0.296
345	0.298
346	0.3
346	0.302
347	0.303
347	0.305
348	0.306
348	0.308
348	0.309
349	0.309
349	0.31
350	0.311
350	0.312
351	0.312
351	0.313
352	0.313
352	0.313
353	0.313
353	0.313
354	0.314
354	0.314
354	0.313
355	0.313
355	0.313
356	0.313
356	0.313
357	0.313
357	0.313
358	0.313
358	0.313
359	0.313
359	0.314
360	0.314
360	0.314
360	0.315
361	0.315
361	0.315
362	0.315
362	0.315
363	0.315
363	0.315
364	0.315
364	0.315
365	0.314
365	0.314
366	0.314
366	0.314
366	0.314
367	0.314
367	0.313
368	0.313
368	0.313
369	0.313
369	0.312
370	0.312
370	0.312
371	0.312
371	0.312
372	0.311
372	0.311
372	0.311
373	0.311
373	0.311
374	0.311
374	0.311
375	0.31
375	0.31
376	0.31
376	0.31
377	0.31
377	0.309
378	0.309
378	0.309
378	0.309
379	0.308
379	0.308
380	0.308
380	0.308
381	0.308
381	0.308
382	0.307
382	0.307
383	0.307
383	0.307
383	0.307
384	0.306
384	0.306
385	0.306
385	0.305
386	0.305
386	0.305
387	0.305
387	0.305
388	0.305
388	0.305
389	0.304
389	0.304
389	0.304
390	0.304
390	0.304
391	0.303
391	0.303
392	0.303
392	0.303
393	0.303
393	0.302
394	0.302
394	0.302
394	0.301
395	0.301
395	0.301
396	0.3
396	0.3
397	0.299
397	0.299
398	0.298
398	0.298
399	0.298
399	0.297
400	0.297
400	0.297
400	0.297
401	0.296
401	0.296
402	0.296
402	0.296
403	0.296
403	0.296
404	0.296
404	0.295
405	0.295
405	0.295
405	0.295
406	0.295
406	0.295
407	0.294
407	0.294
408	0.294
408	0.293
409	0.293
409	0.293
410	0.293
410	0.293
411	0.293
411	0.292
411	0.292
412	0.292
412	0.291
413	0.291
413	0.291
414	0.291
414	0.29
415	0.29
415	0.29
416	0.289
416	0.289
416	0.289
417	0.289
417	0.289
418	0.289
418	0.289
419	0.289
419	0.289
420	0.289
420	0.289
421	0.288
421	0.288
421	0.288
422	0.288
422	0.288
423	0.288
423	0.288
424	0.287
424	0.287
425	0.287
425	0.287
426	0.287
426	0.287
427	0.287
427	0.287
427	0.287
428	0.287
428	0.287
429	0.287
429	0.286
430	0.286
430	0.286
431	0.285
431	0.285
432	0.285
432	0.285
432	0.284
433	0.284
433	0.284
434	0.284
434	0.285
435	0.285
435	0.285
436	0.284
436	0.285
437	0.284
437	0.284
437	0.284
438	0.284
438	0.284
439	0.284
439	0.284
440	0.284
440	0.283
441	0.283
441	0.283
442	0.283
442	0.283
442	0.283
443	0.283
443	0.282
444	0.282
444	0.282
445	0.282
445	0.282
446	0.282
446	0.282
447	0.282
447	0.282
447	0.282
448	0.282
448	0.282
449	0.282
449	0.282
450	0.283
450	0.283
451	0.283
451	0.283
452	0.283
452	0.283
452	0.283
453	0.283
453	0.283
454	0.283
454	0.283
455	0.283
455	0.283
456	0.283
456	0.283
457	0.283
457	0.283
458	0.283
458	0.282
458	0.283
459	0.282
459	0.282
460	0.282
460	0.282
461	0.282
461	0.282
462	0.283
462	0.283
463	0.284
463	0.285
463	0.286
464	0.286
464	0.286
465	0.287
465	0.287
466	0.288
466	0.288
467	0.288
467	0.288
467	0.288
468	0.287
468	0.287
469	0.288
469	0.288
470	0.289
470	0.289
471	0.289
471	0.29
472	0.29
472	0.29
472	0.291
473	0.292
473	0.292
474	0.293
474	0.294
475	0.294
475	0.295
476	0.295
476	0.296
477	0.297
477	0.297
477	0.298
478	0.299
478	0.299
479	0.3
479	0.301
480	0.302
480	0.302
481	0.303
481	0.303
482	0.304
482	0.305
482	0.306
483	0.308
483	0.309
484	0.31
484	0.311
485	0.312
485	0.313
486	0.314
486	0.315
487	0.316
487	0.317
487	0.318
488	0.319
488	0.32
489	0.321
489	0.323
490	0.324
490	0.325
491	0.327
491	0.328
492	0.329
492	0.331
492	0.332
493	0.333
493	0.335
494	0.337
494	0.339
495	0.34
495	0.341
496	0.343
496	0.345
496	0.347
497	0.349
497	0.351
498	0.352
498	0.354
499	0.356
499	0.358
500	0.361
500	0.363
501	0.365
501	0.367
501	0.369
502	0.371
502	0.373
503	0.375
503	0.377
504	0.379
504	0.381
505	0.383
505	0.386
506	0.388
506	0.391
506	0.394
507	0.397
507	0.399
508	0.402
508	0.405
509	0.408
509	0.41
510	0.413
510	0.415
511	0.417
511	0.419
511	0.421
512	0.423
512	0.425
513	0.426
513	0.428
514	0.43
514	0.432
515	0.434
515	0.435
515	0.437
516	0.439
516	0.441
517	0.443
517	0.444
518	0.446
518	0.447
519	0.448
519	0.449
520	0.451
520	0.452
520	0.454
521	0.455
521	0.457
522	0.458
522	0.459
523	0.461
523	0.462
524	0.463
524	0.464
524	0.465
525	0.466
525	0.467
526	0.468
526	0.468
527	0.469
527	0.469
528	0.469
528	0.469
529	0.469
529	0.469
529	0.469
530	0.469
530	0.469
531	0.468
531	0.468
532	0.467
532	0.467
533	0.467
533	0.467
533	0.467
534	0.466
534	0.465
535	0.464
535	0.464
536	0.464
536	0.463
537	0.462
537	0.461
538	0.46
538	0.459
538	0.457
539	0.456
539	0.454
540	0.453
540	0.451
541	0.449
541	0.448
542	0.446
542	0.444
542	0.442
543	0.44
543	0.438
544	0.436
544	0.434
545	0.432
545	0.431
546	0.429
546	0.426
547	0.423
547	0.421
547	0.419
548	0.418
548	0.415
549	0.413
549	0.411
550	0.409
550	0.407
551	0.405
551	0.402
551	0.4
552	0.398
552	0.396
553	0.394
553	0.392
554	0.39
554	0.387
555	0.384
555	0.382
556	0.379
556	0.377
556	0.375
557	0.373
557	0.371
558	0.369
558	0.367
559	0.364
559	0.362
560	0.36
560	0.357
560	0.356
561	0.354
561	0.353
562	0.351
562	0.349
563	0.347
563	0.345
564	0.344
564	0.342
564	0.341
565	0.34
565	0.338
566	0.337
566	0.335
567	0.334
567	0.333
568	0.332
568	0.33
568	0.329
569	0.327
569	0.325
570	0.323
570	0.32
571	0.319
571	0.317
572	0.315
572	0.313
573	0.311
573	0.308
573	0.306
574	0.305
574	0.304
575	0.303
575	0.303
576	0.302
576	0.299
577	0.297
577	0.296
577	0.296
578	0.295
578	0.295
579	0.295
579	0.294
580	0.292
580	0.289
581	0.286
581	0.285
581	0.285
582	0.285
582	0.284
583	0.284
583	0.282
584	0.279
584	0.277
585	0.277
585	0.278
585	0.277
586	0.277
586	0.275
587	0.273
587	0.272
588	0.27
588	0.269
589	0.269
589	0.268
590	0.267
590	0.266
590	0.266
591	0.266
591	0.265
592	0.264
592	0.262
593	0.262
593	0.261
594	0.26
594	0.259
594	0.258
595	0.257
595	0.255
596	0.254
596	0.255
597	0.256
597	0.255
598	0.254
598	0.254
598	0.253
599	0.253
599	0.252
600	0.251
600	0.25
601	0.25
601	0.249
602	0.248
602	0.247
602	0.246
603	0.246
603	0.246
604	0.246
604	0.246
605	0.246
605	0.246
606	0.245
606	0.244
606	0.243
607	0.242
607	0.242
608	0.241
608	0.239
609	0.239
609	0.238
610	0.237
610	0.236
610	0.236
611	0.236
611	0.236
612	0.235
612	0.235
613	0.235
613	0.234
614	0.233
614	0.231
614	0.23
615	0.228
615	0.227
616	0.226
616	0.225
617	0.225
617	0.223
618	0.222
618	0.221
618	0.221
619	0.22
619	0.22
620	0.221
620	0.22
621	0.219
621	0.218
622	0.216
622	0.215
622	0.214
623	0.212
623	0.212
624	0.212
624	0.21
625	0.209
625	0.209
626	0.207
626	0.206
626	0.206
627	0.206
627	0.205
628	0.204
628	0.204
629	0.203
629	0.201
630	0.2
630	0.198
630	0.197
631	0.195
631	0.194
632	0.191
632	0.189
633	0.187
633	0.185
634	0.183
634	0.181
634	0.179
635	0.177
635	0.174
636	0.172
636	0.17
637	0.167
637	0.164
638	0.162
638	0.159
638	0.156
639	0.152
639	0.148
640	0.144
640	0.14
641	0.136
641	0.132
642	0.128
642	0.124
642	0.12
643	0.115
643	0.11
644	0.105
644	0.1
645	0.095
645	0.09
646	0.085
646	0.079
646	0.072
647	0.065
647	0.058
648	0.051
648	0.044
649	0.036
649	0.029
650	0.022
650	0.014
650	0.006
651	-0.004
651	-0.016
652	-0.03
652	-0.044
653	-0.057
653	-0.068
653	-0.063
654	-0.044
654	-0.039
655	-0.044
655	-0.049
656	-0.055
656	-0.062
657	-0.067
657	-0.072
657	-0.08
658	-0.087
658	-0.119
659	-0.206
659	-0.296
660	-0.337
660	-0.365
661	-0.393
661	-0.424
661	-0.455
662	-0.483
662	-0.514
663	-0.549
663	-0.588
664	-0.627
664	-0.669
665	-0.716
665	-0.763
665	-0.809
666	-0.86
666	-0.916
667	-0.972
667	-1.035
668	-1.094
668	-1.164
669	-1.232
669	-1.307
669	-1.388
670	-1.475
670	-1.61
671	-1.834
671	-2.16
672	-2.369
672	-2.515
672	-2.627
673	-2.717
673	-2.793
674	-2.842
674	-2.856
675	-2.871
675	-2.873
676	-2.861
676	-2.802
676	-2.73
677	-2.641
677	-2.533
678	-2.369
678	-2.084
679	-1.745
679	-1.593
680	-1.493
680	-1.417
680	-1.352
681	-1.305
681	-1.253
682	-1.212
682	-1.168
683	-1.125
683	-1.102
684	-1.074
684	-1.055
684	-1.033
685	-1.013
685	-1.003
686	-0.98
686	-0.967
687	-0.957
687	-0.947
687	-0.947
688	-0.93
688	-0.922
689	-0.926
689	-0.923
690	-0.909
690	-0.9
691	-0.898
691	-0.901
691	-0.901
692	-0.901
692	-0.898
693	-0.905
693	-0.915
694	-0.895
694	-0.895
695	-0.898
695	-0.89
695	-0.895
696	-0.901
696	-0.894
697	-0.889
697	-0.883
698	-0.878
698	-0.87
698	-0.884
699	-0.882
699	-0.883
700	-0.904
700	-0.899
701	-0.885
701	-0.878
702	-0.878
702	-0.878
702	-0.876
703	-0.869
703	-0.859
704	-0.866
704	-0.87
705	-0.856
705	-0.856
705	-0.85
706	-0.843
706	-0.84
707	-0.851
707	-0.857
708	-0.853
708	-0.85
709	-0.849
709	-0.846
709	-0.843
710	-0.852
710	-0.854
711	-0.854
711	-0.855
712	-0.847
712	-0.843
713	-0.848
713	-0.849
713	-0.83
714	-0.83
714	-0.834
715	-0.825
715	-0.833
716	-0.849
716	-0.857
716	-0.858
717	-0.865
717	-0.857
718	-0.851
718	-0.853
719	-0.85
719	-0.842
720	-0.837
720	-0.832
720	-0.828
721	-0.819
721	-0.822
722	-0.819
722	-0.816
723	-0.833
723	-0.845
723	-0.852
724	-0.852
724	-0.859
725	-0.854
725	-0.857
726	-0.861
726	-0.853
727	-0.854
727	-0.861
727	-0.851
728	-0.836
728	-0.834
729	-0.836
729	-0.838
730	-0.842
730	-0.834
730	-0.84
731	-0.841
731	-0.843
732	-0.846
732	-0.843
733	-0.858
733	-0.864
734	-0.87
734	-0.861
734	-0.845
735	-0.835
735	-0.827
736	-0.826
736	-0.818
737	-0.818
737	-0.806
737	-0.799
738	-0.786
738	-0.775
739	-0.778
739	-0.78
740	-0.795
740	-0.795
741	-0.807
741	-0.817
741	-0.826
742	-0.833
742	-0.848
743	-0.854
743	-0.857
744	-0.861
744	-0.867
744	-0.86
745	-0.87
745	-0.859
746	-0.856
746	-0.848
747	-0.85
747	-0.842
748	-0.843
748	-0.847
748	-0.847
749	-0.84
749	-0.845
750	-0.834
750	-0.833
751	-0.831
751	-0.828
751	-0.84
752	-0.843
752	-0.847
753	-0.848
753	-0.839
754	-0.859
754	-0.86
754	-0.87
755	-0.87
755	-0.862
756	-0.867
756	-0.853
757	-0.844
757	-0.834
758	-0.835
758	-0.836
758	-0.832
759	-0.836
759	-0.836
760	-0.835
760	-0.837
761	-0.829
761	-0.834
761	-0.835
762	-0.84
762	-0.839
763	-0.839
763	-0.843
764	-0.843
764	-0.838
764	-0.843
765	-0.841
765	-0.849
766	-0.851
766	-0.853
767	-0.869
767	-0.864
768	-0.864
768	-0.856
768	-0.85
769	-0.853
769	-0.861
770	-0.873
770	-0.876
771	-0.872
771	-0.871
771	-0.876
772	-0.881
772	-0.902
773	-0.903
773	-0.904
774	-0.903
774	-0.884
775	-0.871
775	-0.87
775	-0.873
776	-0.882
776	-0.878
777	-0.878
777	-0.86
778	-0.869
778	-0.876
778	-0.877
779	-0.887
779	-0.904
780	-0.901
780	-0.909
781	-0.899
781	-0.888
781	-0.903
782	-0.923
782	-0.924
783	-0.924
783	-0.931
784	-0.934
784	-0.926
784	-0.945
785	-0.94
785	-0.951
786	-0.956
786	-0.948
787	-0.938
787	-0.947
788	-0.939
788	-0.933
788	-0.935
789	-0.934
789	-0.923
790	-0.922
790	-0.909
791	-0.917
791	-0.912
791	-0.905
792	-0.9
792	-0.903
793	-0.904
793	-0.892
794	-0.885
794	-0.88
794	-0.885
795	-0.904
795	-0.888
796	-0.894
796	-0.89
797	-0.882
797	-0.875
797	-0.868
798	-0.89
798	-0.895
799	-0.893
799	-0.88
800	-0.877
800	-0.886
801	-0.883
801	-0.887
801	-0.885
802	-0.885
802	-0.885
803	-0.878
803	-0.872
804	-0.878
804	-0.886
804	-0.868
805	-0.849
805	-0.84
806	-0.842
806	-0.837
807	-0.837
807	-0.837
807	-0.82
808	-0.815
808	-0.809
809	-0.804
809	-0.805
810	-0.808
810	-0.805
810	-0.8
811	-0.805
811	-0.798
812	-0.789
812	-0.791
813	-0.795
813	-0.796
813	-0.79
814	-0.79
814	-0.795
815	-0.785
815	-0.781
816	-0.777
816	-0.793
817	-0.806
817	-0.81
817	-0.818
818	-0.81
818	-0.81
819	-0.821
819	-0.819
820	-0.831
820	-0.83
820	-0.828
821	-0.823
821	-0.818
822	-0.817
822	-0.805
823	-0.817
823	-0.816
823	-0.81
824	-0.808
824	-0.818
825	-0.817
825	-0.814
826	-0.811
826	-0.807
826	-0.805
827	-0.808
827	-0.796
828	-0.795
828	-0.789
829	-0.784
829	-0.768
829	-0.766
830	-0.765
830	-0.75
831	-0.743
831	-0.733
832	-0.722
832	-0.718
832	-0.71
833	-0.708
833	-0.713
834	-0.709
834	-0.705
835	-0.696
835	-0.694
835	-0.688
836	-0.683
836	-0.68
837	-0.67
837	-0.662
838	-0.65
838	-0.633
839	-0.627
839	-0.613
839	-0.603
840	-0.602
840	-0.592
841	-0.58
841	-0.575
842	-0.565
842	-0.552
842	-0.547
843	-0.544
843	-0.539
844	-0.536
844	-0.525
845	-0.512
845	-0.504
845	-0.494
846	-0.481
846	-0.473
847	-0.463
847	-0.452
848	-0.436
848	-0.421
848	-0.407
849	-0.395
849	-0.381
850	-0.369
850	-0.358
851	-0.345
851	-0.327
851	-0.316
852	-0.299
852	-0.286
853	-0.275
853	-0.264
854	-0.252
854	-0.242
854	-0.229
855	-0.217
855	-0.207
856	-0.198
856	-0.189
857	-0.181
857	-0.173
857	-0.159
858	-0.148
858	-0.139
859	-0.127
859	-0.115
860	-0.104
860	-0.09
860	-0.079
861	-0.068
861	-0.058
862	-0.049
862	-0.041
863	-0.032
863	-0.022
863	-0.015
864	-0.008
864	-0.001
865	0.006
865	0.013
866	0.019
866	0.025
866	0.031
867	0.037
867	0.043
868	0.048
868	0.053
869	0.058
869	0.062
869	0.064
870	0.067
870	0.068
871	0.07
871	0.072
872	0.073
872	0.073
872	0.074
873	0.074
873	0.073
874	0.073
874	0.072
875	0.072
875	0.072
875	0.071
876	0.071
876	0.071
877	0.07
877	0.07
878	0.069
878	0.069
878	0.069
879	0.069
879	0.068
880	0.068
880	0.067
881	0.066
881	0.064
881	0.063
882	0.061
882	0.06
883	0.058
883	0.057
884	0.056
884	0.055
884	0.054
885	0.054
885	0.054
886	0.054
886	0.054
887	0.054
887	0.054
887	0.053
888	0.053
888	0.052
889	0.051
889	0.05
890	0.049
890	0.049
890	0.048
891	0.047
891	0.047
892	0.047
892	0.047
893	0.047
893	0.048
893	0.048
894	0.048
894	0.049
895	0.048
895	0.049
895	0.049
896	0.049
896	0.049
897	0.05
897	0.049
898	0.05
898	0.05
898	0.05
899	0.05
899	0.051
900	0.051
900	0.051
901	0.05
901	0.05
901	0.049
902	0.049
902	0.049
903	0.049
903	0.049
904	0.048
904	0.048
904	0.048
905	0.048
905	0.048
906	0.049
906	0.049
907	0.05
907	0.05
907	0.05
908	0.05
908	0.051
909	0.051
909	0.052
910	0.052
910	0.052
910	0.053
911	0.053
911	0.054
912	0.055
912	0.056
913	0.056
913	0.056
913	0.057
914	0.057
914	0.057
915	0.057
915	0.057
916	0.056
916	0.056
916	0.056
917	0.055
917	0.055
918	0.054
918	0.054
918	0.053
919	0.053
919	0.053
920	0.053
920	0.053
921	0.053
921	0.053
921	0.053
922	0.053
922	0.054
923	0.054
923	0.053
924	0.053
924	0.052
924	0.052
925	0.051
925	0.05
926	0.049
926	0.048
927	0.047
927	0.047
927	0.046
928	0.046
928	0.046
929	0.046
929	0.047
930	0.047
930	0.048
930	0.048
931	0.049
931	0.05
932	0.051
932	0.052
933	0.053
933	0.053
933	0.053
934	0.053
934	0.052
935	0.052
935	0.051
935	0.05
936	0.048
936	0.047
937	0.046
937	0.045
938	0.044
938	0.044
938	0.043
939	0.042
939	0.041
940	0.041
940	0.04
941	0.04
941	0.039
941	0.039
942	0.038
942	0.037
943	0.037
943	0.037
944	0.036
944	0.035
944	0.035
945	0.034
945	0.034
946	0.034
946	0.033
946	0.032
947	0.032
947	0.032
948	0.033
948	0.034
949	0.034
949	0.035
949	0.037
950	0.038
950	0.04
951	0.042
951	0.043
952	0.043
952	0.045
952	0.045
953	0.046
953	0.046
954	0.046
954	0.046
955	0.046
955	0.045
955	0.045
956	0.044
956	0.043
957	0.042
957	0.041
957	0.04
958	0.04
958	0.039
959	0.038
959	0.038
960	0.037
960	0.037
960	0.038
961	0.038
961	0.038
962	0.038
962	0.038
963	0.039
963	0.039
963	0.039
964	0.04
964	0.041
965	0.042
965	0.042
966	0.043
966	0.043
966	0.044
967	0.045
967	0.046
968	0.046
968	0.046
968	0.046
969	0.046
969	0.045
970	0.045
970	0.044
971	0.044
971	0.044
971	0.044
972	0.044
972	0.044
973	0.044
973	0.044
974	0.044
974	0.044
974	0.044
975	0.045
975	0.044
976	0.044
976	0.043
976	0.043
977	0.042
977	0.041
978	0.041
978	0.04
979	0.039
979	0.039
979	0.039
980	0.039
980	0.039
981	0.039
981	0.039
982	0.039
982	0.039
982	0.04
983	0.04
983	0.039
984	0.039
984	0.039
984	0.039
985	0.038
985	0.038
986	0.037
986	0.036
987	0.035
987	0.034
987	0.034
988	0.033
988	0.032
989	0.031
989	0.03
990	0.029
990	0.028
990	0.027
991	0.026
991	0.025
992	0.024
992	0.023
992	0.023
993	0.022
993	0.021
994	0.02
994	0.019
995	0.018
995	0.016
995	0.015
996	0.014
996	0.013
997	0.011
997	0.011
997	0.01
998	0.01
998	0.01
999	0.01
999	0.01
1000	0.01
1000	0.011
1000	0.011
1001	0.012
1001	0.013
1002	0.014
1002	0.014
1003	0.015
1003	0.015
1003	0.015
1004	0.015
1004	0.015
1005	0.015
1005	0.015
1005	0.014
1006	0.013
1006	0.013
1007	0.012
1007	0.011
1008	0.011
1008	0.01
1008	0.01
1009	0.01
1009	0.01
1010	0.011
1010	0.011
1010	0.012
1011	0.013
1011	0.013
1012	0.014
1012	0.016
1013	0.017
1013	0.018
1013	0.018
1014	0.019
1014	0.02
1015	0.02
1015	0.021
1016	0.021
1016	0.021
1016	0.02
1017	0.02
1017	0.02
1018	0.02
1018	0.019
1018	0.019
1019	0.018
1019	0.018
1020	0.017
1020	0.017
1021	0.017
1021	0.016
1021	0.016
1022	0.015
1022	0.015
1023	0.015
1023	0.015
1023	0.016
1024	0.016
1024	0.016
1025	0.016
1025	0.016
1026	0.016
1026	0.016
1026	0.016
1027	0.016
1027	0.016
1028	0.017
1028	0.018
1028	0.018
1029	0.019
1029	0.019
1030	0.019
1030	0.019
1031	0.019
1031	0.02
1031	0.02
1032	0.02
1032	0.02
1033	0.019
1033	0.019
1033	0.018
1034	0.018
1034	0.017
1035	0.017
1035	0.015
1036	0.015
1036	0.014
1036	0.013
1037	0.013
1037	0.013
1038	0.012
1038	0.013
1039	0.013
1039	0.013
1039	0.013
1040	0.013
1040	0.013
1041	0.013
1041	0.013
1041	0.012
1042	0.011
1042	0.011
1043	0.01
1043	0.009
1044	0.009
1044	0.008
1044	0.008
1045	0.007
1045	0.006
1046	0.006
1046	0.005
1046	0.005
1047	0.005
1047	0.006
1048	0.006
1048	0.006
1049	0.006
1049	0.005
1049	0.005
1050	0.005
1050	0.004
1051	0.003
1051	0.003
1051	0.002
1052	0.001
1052	-0
1053	-0.001
1053	-0.002
1053	-0.002
1054	-0.003
1054	-0.003
1055	-0.002
1055	-0.002
1056	-0.002
1056	-0.002
1056	-0.002
1057	-0.003
1057	-0.002
1058	-0.002
1058	-0.003
1058	-0.003
1059	-0.003
1059	-0.003
1060	-0.004
1060	-0.005
1061	-0.005
1061	-0.005
1061	-0.005
1062	-0.005
1062	-0.005
1063	-0.005
1063	-0.005
1063	-0.005
1064	-0.005
1064	-0.005
1065	-0.005
1065	-0.005
1066	-0.006
1066	-0.007
1066	-0.007
1067	-0.008
1067	-0.01
1068	-0.011
1068	-0.012
1068	-0.013
1069	-0.014
1069	-0.015
1070	-0.016
1070	-0.017
1071	-0.017
1071	-0.018
1071	-0.018
1072	-0.018
1072	-0.018
1073	-0.018
1073	-0.018
1073	-0.018
1074	-0.018
1074	-0.018
1075	-0.019
1075	-0.019
1076	-0.02
1076	-0.02
1076	-0.021
1077	-0.022
1077	-0.022
1078	-0.023
1078	-0.023
1078	-0.024
1079	-0.024
1079	-0.024
1080	-0.026
1080	-0.026
1080	-0.028
1081	-0.028
1081	-0.029
1082	-0.03
1082	-0.032
1083	-0.033
1083	-0.034
1083	-0.035
1084	-0.037
1084	-0.038
1085	-0.039
1085	-0.04
1085	-0.041
1086	-0.042
1086	-0.043
1087	-0.043
1087	-0.043
1088	-0.044
1088	-0.045
1088	-0.046
1089	-0.047
1089	-0.047
1090	-0.048
1090	-0.049
1090	-0.05
1091	-0.052
1091	-0.052
1092	-0.052
1092	-0.052
1092	-0.053
1093	-0.054
1093	-0.054
1094	-0.055
1094	-0.056
1095	-0.057
1095	-0.057
1095	-0.057
1096	-0.06
1096	-0.062
1097	-0.063
1097	-0.065
1097	-0.067
1098	-0.069
1098	-0.072
1099	-0.074
1099	-0.076
1100	-0.078
1100	-0.081
1100	-0.084
1101	-0.086
1101	-0.09
1102	-0.092
1102	-0.094
1102	-0.096
1103	-0.099
1103	-0.101
1104	-0.105
1104	-0.108
1104	-0.11
1105	-0.112
1105	-0.115
1106	-0.12
1106	-0.122
1107	-0.128
1107	-0.134
1107	-0.138
1108	-0.14
1108	-0.141
1109	-0.145
1109	-0.15
1109	-0.155
1110	-0.158
1110	-0.162
1111	-0.173
1111	-0.167
