Data from 3.3A_17C_Absorbance__396__03263.txt Node

Date: Tue Jun 20 17:26:18 CEST 2023
User: Marek
Spectrometer: MAYP115816
Trigger mode: 0
Integration Time (sec): 2.200000E-1
Scans to average: 10
Electric dark correction enabled: true
Nonlinearity correction enabled: true
Boxcar width: 5
XAxis mode: Wavelengths
Number of Pixels in Spectrum: 2068
>>>>>Begin Spectral Data<<<<<
199	-0.793
199	-0.787
200	-0.752
200	-0.695
201	-0.669
201	-0.659
202	-0.643
202	-0.637
203	-0.638
203	-0.63
204	-0.61
204	-0.596
205	-0.571
205	-0.561
205	-0.569
206	-0.57
206	-0.567
207	-0.559
207	-0.564
208	-0.563
208	-0.567
209	-0.569
209	-0.573
210	-0.585
210	-0.592
211	-0.586
211	-0.591
212	-0.598
212	-0.608
213	-0.605
213	-0.601
213	-0.598
214	-0.605
214	-0.608
215	-0.606
215	-0.611
216	-0.622
216	-0.626
217	-0.625
217	-0.625
218	-0.633
218	-0.634
219	-0.64
219	-0.642
220	-0.646
220	-0.651
221	-0.651
221	-0.651
221	-0.642
222	-0.641
222	-0.64
223	-0.637
223	-0.64
224	-0.641
224	-0.639
225	-0.637
225	-0.639
226	-0.639
226	-0.638
227	-0.646
227	-0.658
228	-0.661
228	-0.669
229	-0.672
229	-0.67
229	-0.67
230	-0.665
230	-0.662
231	-0.658
231	-0.653
232	-0.656
232	-0.649
233	-0.649
233	-0.636
234	-0.636
234	-0.631
235	-0.636
235	-0.647
236	-0.655
236	-0.657
236	-0.659
237	-0.656
237	-0.658
238	-0.658
238	-0.66
239	-0.663
239	-0.672
240	-0.667
240	-0.662
241	-0.657
241	-0.661
242	-0.664
242	-0.672
243	-0.671
243	-0.674
243	-0.679
244	-0.676
244	-0.677
245	-0.679
245	-0.683
246	-0.695
246	-0.697
247	-0.704
247	-0.69
248	-0.689
248	-0.691
249	-0.698
249	-0.7
250	-0.698
250	-0.707
250	-0.705
251	-0.704
251	-0.7
252	-0.703
252	-0.715
253	-0.71
253	-0.72
254	-0.722
254	-0.722
255	-0.734
255	-0.734
256	-0.736
256	-0.749
257	-0.759
257	-0.754
258	-0.757
258	-0.766
258	-0.764
259	-0.758
259	-0.776
260	-0.774
260	-0.762
261	-0.774
261	-0.76
262	-0.766
262	-0.765
263	-0.756
263	-0.759
264	-0.77
264	-0.771
265	-0.763
265	-0.767
265	-0.778
266	-0.768
266	-0.767
267	-0.764
267	-0.78
268	-0.788
268	-0.781
269	-0.774
269	-0.789
270	-0.793
270	-0.79
271	-0.804
271	-0.814
272	-0.816
272	-0.819
272	-0.812
273	-0.822
273	-0.837
274	-0.829
274	-0.823
275	-0.819
275	-0.807
276	-0.809
276	-0.815
277	-0.818
277	-0.818
278	-0.823
278	-0.822
278	-0.81
279	-0.819
279	-0.834
280	-0.836
280	-0.847
281	-0.841
281	-0.833
282	-0.837
282	-0.83
283	-0.822
283	-0.836
284	-0.851
284	-0.861
285	-0.842
285	-0.848
285	-0.839
286	-0.844
286	-0.86
287	-0.856
287	-0.856
288	-0.855
288	-0.837
289	-0.835
289	-0.841
290	-0.847
290	-0.836
291	-0.842
291	-0.84
292	-0.821
292	-0.82
292	-0.824
293	-0.813
293	-0.81
294	-0.81
294	-0.795
295	-0.78
295	-0.79
296	-0.799
296	-0.794
297	-0.781
297	-0.784
298	-0.781
298	-0.798
298	-0.802
299	-0.783
299	-0.775
300	-0.771
300	-0.753
301	-0.736
301	-0.739
302	-0.75
302	-0.735
303	-0.725
303	-0.712
304	-0.696
304	-0.699
305	-0.693
305	-0.703
305	-0.719
306	-0.703
306	-0.701
307	-0.693
307	-0.705
308	-0.707
308	-0.703
309	-0.706
309	-0.7
310	-0.698
310	-0.69
311	-0.676
311	-0.695
311	-0.682
312	-0.68
312	-0.667
313	-0.659
313	-0.66
314	-0.665
314	-0.664
315	-0.661
315	-0.655
316	-0.648
316	-0.638
317	-0.63
317	-0.626
318	-0.62
318	-0.618
318	-0.607
319	-0.596
319	-0.588
320	-0.586
320	-0.582
321	-0.578
321	-0.578
322	-0.574
322	-0.566
323	-0.567
323	-0.558
324	-0.554
324	-0.543
324	-0.533
325	-0.518
325	-0.502
326	-0.493
326	-0.466
327	-0.45
327	-0.428
328	-0.396
328	-0.371
329	-0.345
329	-0.315
330	-0.286
330	-0.249
330	-0.212
331	-0.174
331	-0.141
332	-0.104
332	-0.07
333	-0.037
333	-0.002
334	0.031
334	0.058
335	0.086
335	0.108
336	0.133
336	0.155
336	0.172
337	0.191
337	0.21
338	0.224
338	0.234
339	0.249
339	0.261
340	0.271
340	0.281
341	0.288
341	0.295
342	0.304
342	0.311
342	0.316
343	0.32
343	0.327
344	0.33
344	0.334
345	0.337
345	0.339
346	0.342
346	0.344
347	0.346
347	0.347
348	0.348
348	0.35
348	0.351
349	0.352
349	0.353
350	0.353
350	0.354
351	0.354
351	0.355
352	0.355
352	0.355
353	0.355
353	0.355
354	0.355
354	0.355
354	0.355
355	0.355
355	0.355
356	0.355
356	0.356
357	0.357
357	0.357
358	0.357
358	0.357
359	0.357
359	0.357
360	0.357
360	0.357
360	0.357
361	0.357
361	0.357
362	0.356
362	0.356
363	0.356
363	0.356
364	0.356
364	0.356
365	0.356
365	0.355
366	0.355
366	0.355
366	0.355
367	0.355
367	0.355
368	0.355
368	0.354
369	0.354
369	0.354
370	0.353
370	0.353
371	0.353
371	0.353
372	0.353
372	0.352
372	0.352
373	0.352
373	0.352
374	0.352
374	0.352
375	0.352
375	0.351
376	0.351
376	0.351
377	0.35
377	0.35
378	0.35
378	0.349
378	0.349
379	0.349
379	0.348
380	0.348
380	0.348
381	0.348
381	0.348
382	0.347
382	0.347
383	0.347
383	0.346
383	0.346
384	0.345
384	0.345
385	0.345
385	0.344
386	0.344
386	0.344
387	0.344
387	0.344
388	0.343
388	0.343
389	0.343
389	0.343
389	0.342
390	0.342
390	0.342
391	0.342
391	0.341
392	0.341
392	0.341
393	0.34
393	0.34
394	0.339
394	0.339
394	0.339
395	0.338
395	0.338
396	0.337
396	0.337
397	0.336
397	0.336
398	0.336
398	0.335
399	0.335
399	0.335
400	0.334
400	0.334
400	0.334
401	0.334
401	0.333
402	0.333
402	0.333
403	0.333
403	0.333
404	0.332
404	0.332
405	0.332
405	0.331
405	0.331
406	0.331
406	0.331
407	0.331
407	0.33
408	0.33
408	0.33
409	0.33
409	0.33
410	0.329
410	0.329
411	0.329
411	0.329
411	0.329
412	0.328
412	0.328
413	0.328
413	0.327
414	0.327
414	0.327
415	0.327
415	0.326
416	0.326
416	0.326
416	0.325
417	0.325
417	0.325
418	0.325
418	0.324
419	0.324
419	0.324
420	0.324
420	0.324
421	0.324
421	0.323
421	0.323
422	0.323
422	0.323
423	0.323
423	0.323
424	0.323
424	0.322
425	0.322
425	0.322
426	0.322
426	0.322
427	0.322
427	0.322
427	0.322
428	0.322
428	0.321
429	0.321
429	0.321
430	0.32
430	0.32
431	0.32
431	0.32
432	0.32
432	0.319
432	0.319
433	0.319
433	0.319
434	0.319
434	0.319
435	0.319
435	0.319
436	0.319
436	0.319
437	0.319
437	0.319
437	0.319
438	0.319
438	0.319
439	0.319
439	0.319
440	0.318
440	0.318
441	0.318
441	0.318
442	0.318
442	0.318
442	0.318
443	0.318
443	0.317
444	0.317
444	0.317
445	0.317
445	0.318
446	0.317
446	0.318
447	0.318
447	0.318
447	0.317
448	0.317
448	0.317
449	0.317
449	0.317
450	0.317
450	0.317
451	0.317
451	0.318
452	0.318
452	0.318
452	0.318
453	0.318
453	0.318
454	0.318
454	0.318
455	0.318
455	0.318
456	0.318
456	0.318
457	0.318
457	0.318
458	0.318
458	0.318
458	0.318
459	0.318
459	0.318
460	0.318
460	0.318
461	0.318
461	0.318
462	0.319
462	0.32
463	0.32
463	0.321
463	0.322
464	0.322
464	0.322
465	0.323
465	0.324
466	0.324
466	0.324
467	0.325
467	0.325
467	0.325
468	0.325
468	0.324
469	0.325
469	0.326
470	0.326
470	0.326
471	0.327
471	0.327
472	0.328
472	0.328
472	0.329
473	0.33
473	0.331
474	0.331
474	0.332
475	0.333
475	0.334
476	0.335
476	0.336
477	0.337
477	0.338
477	0.339
478	0.339
478	0.34
479	0.341
479	0.342
480	0.343
480	0.344
481	0.344
481	0.345
482	0.346
482	0.347
482	0.348
483	0.35
483	0.352
484	0.353
484	0.354
485	0.356
485	0.357
486	0.358
486	0.36
487	0.361
487	0.363
487	0.364
488	0.365
488	0.366
489	0.368
489	0.37
490	0.371
490	0.373
491	0.375
491	0.377
492	0.378
492	0.38
492	0.381
493	0.383
493	0.384
494	0.387
494	0.389
495	0.391
495	0.393
496	0.395
496	0.397
496	0.4
497	0.402
497	0.405
498	0.407
498	0.41
499	0.412
499	0.415
500	0.418
500	0.421
501	0.424
501	0.426
501	0.428
502	0.43
502	0.433
503	0.435
503	0.438
504	0.44
504	0.443
505	0.445
505	0.448
506	0.451
506	0.454
506	0.458
507	0.461
507	0.465
508	0.468
508	0.471
509	0.474
509	0.477
510	0.48
510	0.483
511	0.485
511	0.488
511	0.49
512	0.493
512	0.495
513	0.497
513	0.499
514	0.502
514	0.504
515	0.507
515	0.509
515	0.511
516	0.513
516	0.516
517	0.518
517	0.52
518	0.522
518	0.523
519	0.524
519	0.526
520	0.528
520	0.529
520	0.531
521	0.533
521	0.534
522	0.536
522	0.538
523	0.54
523	0.542
524	0.543
524	0.544
524	0.545
525	0.546
525	0.546
526	0.547
526	0.548
527	0.548
527	0.549
528	0.548
528	0.549
529	0.549
529	0.549
529	0.548
530	0.549
530	0.548
531	0.548
531	0.548
532	0.547
532	0.546
533	0.546
533	0.545
533	0.545
534	0.544
534	0.543
535	0.542
535	0.541
536	0.54
536	0.539
537	0.538
537	0.537
538	0.535
538	0.533
538	0.531
539	0.53
539	0.528
540	0.526
540	0.524
541	0.521
541	0.519
542	0.517
542	0.515
542	0.513
543	0.51
543	0.508
544	0.505
544	0.503
545	0.5
545	0.498
546	0.495
546	0.492
547	0.489
547	0.485
547	0.483
548	0.481
548	0.478
549	0.475
549	0.473
550	0.47
550	0.467
551	0.464
551	0.461
551	0.458
552	0.455
552	0.453
553	0.45
553	0.448
554	0.445
554	0.441
555	0.438
555	0.436
556	0.433
556	0.43
556	0.427
557	0.424
557	0.422
558	0.419
558	0.416
559	0.413
559	0.411
560	0.408
560	0.405
560	0.402
561	0.4
561	0.398
562	0.396
562	0.393
563	0.39
563	0.388
564	0.385
564	0.383
564	0.381
565	0.379
565	0.377
566	0.374
566	0.372
567	0.37
567	0.369
568	0.367
568	0.364
568	0.362
569	0.36
569	0.358
570	0.355
570	0.351
571	0.35
571	0.347
572	0.344
572	0.342
573	0.339
573	0.336
573	0.333
574	0.331
574	0.33
575	0.328
575	0.328
576	0.326
576	0.324
577	0.321
577	0.319
577	0.319
578	0.317
578	0.317
579	0.316
579	0.315
580	0.312
580	0.309
581	0.306
581	0.304
581	0.303
582	0.302
582	0.301
583	0.3
583	0.297
584	0.294
584	0.291
585	0.29
585	0.29
585	0.289
586	0.287
586	0.286
587	0.283
587	0.281
588	0.279
588	0.278
589	0.277
589	0.276
590	0.274
590	0.273
590	0.273
591	0.272
591	0.27
592	0.268
592	0.266
593	0.265
593	0.264
594	0.262
594	0.26
594	0.259
595	0.258
595	0.255
596	0.253
596	0.253
597	0.254
597	0.253
598	0.252
598	0.251
598	0.25
599	0.249
599	0.247
600	0.246
600	0.245
601	0.245
601	0.244
602	0.242
602	0.241
602	0.239
603	0.239
603	0.238
604	0.238
604	0.237
605	0.237
605	0.237
606	0.235
606	0.233
606	0.232
607	0.23
607	0.23
608	0.228
608	0.226
609	0.225
609	0.224
610	0.223
610	0.221
610	0.221
611	0.22
611	0.22
612	0.219
612	0.219
613	0.218
613	0.217
614	0.215
614	0.214
614	0.212
615	0.211
615	0.209
616	0.208
616	0.207
617	0.205
617	0.204
618	0.202
618	0.201
618	0.2
619	0.199
619	0.199
620	0.199
620	0.198
621	0.196
621	0.195
622	0.194
622	0.192
622	0.191
623	0.189
623	0.189
624	0.188
624	0.187
625	0.185
625	0.184
626	0.183
626	0.182
626	0.181
627	0.18
627	0.179
628	0.179
628	0.177
629	0.176
629	0.174
630	0.172
630	0.17
630	0.169
631	0.167
631	0.165
632	0.162
632	0.16
633	0.158
633	0.156
634	0.154
634	0.152
634	0.15
635	0.148
635	0.145
636	0.143
636	0.14
637	0.137
637	0.134
638	0.131
638	0.128
638	0.125
639	0.12
639	0.116
640	0.112
640	0.107
641	0.103
641	0.099
642	0.095
642	0.09
642	0.086
643	0.081
643	0.075
644	0.07
644	0.065
645	0.06
645	0.055
646	0.049
646	0.043
646	0.037
647	0.03
647	0.024
648	0.017
648	0.01
649	0.003
649	-0.004
650	-0.012
650	-0.019
650	-0.027
651	-0.036
651	-0.048
652	-0.061
652	-0.075
653	-0.087
653	-0.098
653	-0.093
654	-0.073
654	-0.067
655	-0.071
655	-0.076
656	-0.081
656	-0.088
657	-0.092
657	-0.095
657	-0.101
658	-0.108
658	-0.138
659	-0.222
659	-0.308
660	-0.346
660	-0.371
661	-0.397
661	-0.426
661	-0.456
662	-0.484
662	-0.513
663	-0.546
663	-0.582
664	-0.617
664	-0.656
665	-0.7
665	-0.744
665	-0.787
666	-0.836
666	-0.888
667	-0.942
667	-1.003
668	-1.061
668	-1.129
669	-1.197
669	-1.271
669	-1.352
670	-1.444
670	-1.615
671	-1.895
671	-2.206
672	-2.399
672	-2.538
672	-2.645
673	-2.733
673	-2.807
674	-2.842
674	-2.854
675	-2.868
675	-2.868
676	-2.847
676	-2.781
676	-2.704
677	-2.608
677	-2.488
678	-2.299
678	-1.933
679	-1.64
679	-1.508
680	-1.416
680	-1.347
680	-1.288
681	-1.246
681	-1.198
682	-1.161
682	-1.12
683	-1.08
683	-1.059
684	-1.033
684	-1.018
684	-0.999
685	-0.981
685	-0.974
686	-0.953
686	-0.941
687	-0.933
687	-0.923
687	-0.925
688	-0.91
688	-0.904
689	-0.907
689	-0.905
690	-0.892
690	-0.882
691	-0.88
691	-0.883
691	-0.883
692	-0.885
692	-0.882
693	-0.89
693	-0.903
694	-0.883
694	-0.881
695	-0.885
695	-0.879
695	-0.887
696	-0.895
696	-0.89
697	-0.883
697	-0.879
698	-0.874
698	-0.865
698	-0.879
699	-0.879
699	-0.88
700	-0.9
700	-0.895
701	-0.881
701	-0.876
702	-0.876
702	-0.875
702	-0.877
703	-0.869
703	-0.859
704	-0.867
704	-0.87
705	-0.859
705	-0.858
705	-0.852
706	-0.844
706	-0.841
707	-0.852
707	-0.854
708	-0.851
708	-0.847
709	-0.847
709	-0.842
709	-0.838
710	-0.846
710	-0.849
711	-0.849
711	-0.849
712	-0.841
712	-0.838
713	-0.843
713	-0.845
713	-0.825
714	-0.829
714	-0.831
715	-0.822
715	-0.831
716	-0.848
716	-0.858
716	-0.859
717	-0.866
717	-0.857
718	-0.852
718	-0.854
719	-0.849
719	-0.842
720	-0.839
720	-0.835
720	-0.828
721	-0.819
721	-0.823
722	-0.821
722	-0.817
723	-0.832
723	-0.845
723	-0.853
724	-0.851
724	-0.855
725	-0.847
725	-0.85
726	-0.853
726	-0.844
727	-0.845
727	-0.853
727	-0.844
728	-0.831
728	-0.827
729	-0.83
729	-0.832
730	-0.837
730	-0.829
730	-0.835
731	-0.839
731	-0.842
732	-0.844
732	-0.839
733	-0.853
733	-0.859
734	-0.867
734	-0.859
734	-0.843
735	-0.833
735	-0.827
736	-0.827
736	-0.818
737	-0.818
737	-0.808
737	-0.801
738	-0.787
738	-0.776
739	-0.779
739	-0.779
740	-0.794
740	-0.795
741	-0.806
741	-0.817
741	-0.826
742	-0.833
742	-0.849
743	-0.857
743	-0.859
744	-0.86
744	-0.868
744	-0.862
745	-0.869
745	-0.856
746	-0.85
746	-0.842
747	-0.845
747	-0.833
748	-0.834
748	-0.839
748	-0.842
749	-0.834
749	-0.84
750	-0.83
750	-0.832
751	-0.832
751	-0.828
751	-0.84
752	-0.844
752	-0.848
753	-0.85
753	-0.842
754	-0.862
754	-0.862
754	-0.871
755	-0.872
755	-0.863
756	-0.867
756	-0.854
757	-0.846
757	-0.835
758	-0.837
758	-0.836
758	-0.831
759	-0.838
759	-0.837
760	-0.834
760	-0.836
761	-0.829
761	-0.833
761	-0.833
762	-0.839
762	-0.84
763	-0.841
763	-0.846
764	-0.841
764	-0.837
764	-0.843
765	-0.843
765	-0.851
766	-0.852
766	-0.854
767	-0.869
767	-0.863
768	-0.861
768	-0.854
768	-0.851
769	-0.856
769	-0.863
770	-0.873
770	-0.876
771	-0.874
771	-0.871
771	-0.877
772	-0.881
772	-0.902
773	-0.904
773	-0.904
774	-0.902
774	-0.884
775	-0.872
775	-0.871
775	-0.874
776	-0.885
776	-0.881
777	-0.881
777	-0.863
778	-0.873
778	-0.88
778	-0.878
779	-0.887
779	-0.903
780	-0.899
780	-0.907
781	-0.897
781	-0.887
781	-0.902
782	-0.924
782	-0.925
783	-0.926
783	-0.935
784	-0.939
784	-0.933
784	-0.954
785	-0.947
785	-0.961
786	-0.966
786	-0.957
787	-0.946
787	-0.954
788	-0.947
788	-0.939
788	-0.941
789	-0.939
789	-0.929
790	-0.929
790	-0.912
791	-0.916
791	-0.912
791	-0.907
792	-0.9
792	-0.903
793	-0.907
793	-0.894
794	-0.887
794	-0.881
794	-0.887
795	-0.906
795	-0.893
796	-0.901
796	-0.894
797	-0.887
797	-0.879
797	-0.872
798	-0.892
798	-0.898
799	-0.898
799	-0.883
800	-0.879
800	-0.888
801	-0.883
801	-0.888
801	-0.885
802	-0.884
802	-0.884
803	-0.878
803	-0.868
804	-0.874
804	-0.883
804	-0.866
805	-0.847
805	-0.839
806	-0.84
806	-0.836
807	-0.838
807	-0.838
807	-0.822
808	-0.819
808	-0.811
809	-0.804
809	-0.806
810	-0.808
810	-0.805
810	-0.801
811	-0.805
811	-0.796
812	-0.789
812	-0.791
813	-0.794
813	-0.795
813	-0.792
814	-0.791
814	-0.796
815	-0.786
815	-0.782
816	-0.778
816	-0.795
817	-0.807
817	-0.81
817	-0.819
818	-0.814
818	-0.812
819	-0.822
819	-0.821
820	-0.834
820	-0.833
820	-0.832
821	-0.826
821	-0.821
822	-0.823
822	-0.811
823	-0.822
823	-0.819
823	-0.813
824	-0.811
824	-0.819
825	-0.819
825	-0.817
826	-0.813
826	-0.81
826	-0.807
827	-0.806
827	-0.796
828	-0.795
828	-0.789
829	-0.782
829	-0.769
829	-0.766
830	-0.764
830	-0.75
831	-0.742
831	-0.732
832	-0.725
832	-0.72
832	-0.714
833	-0.713
833	-0.718
834	-0.715
834	-0.711
835	-0.702
835	-0.703
835	-0.698
836	-0.695
836	-0.691
837	-0.68
837	-0.672
838	-0.66
838	-0.644
839	-0.637
839	-0.623
839	-0.613
840	-0.611
840	-0.601
841	-0.589
841	-0.58
842	-0.572
842	-0.56
842	-0.557
843	-0.553
843	-0.547
844	-0.546
844	-0.534
845	-0.52
845	-0.512
845	-0.501
846	-0.49
846	-0.479
847	-0.468
847	-0.456
848	-0.44
848	-0.424
848	-0.409
849	-0.397
849	-0.383
850	-0.374
850	-0.363
851	-0.35
851	-0.332
851	-0.322
852	-0.307
852	-0.295
853	-0.286
853	-0.276
854	-0.266
854	-0.256
854	-0.243
855	-0.231
855	-0.223
856	-0.216
856	-0.207
857	-0.199
857	-0.19
857	-0.176
858	-0.165
858	-0.157
859	-0.145
859	-0.133
860	-0.123
860	-0.108
860	-0.098
861	-0.088
861	-0.078
862	-0.069
862	-0.062
863	-0.053
863	-0.043
863	-0.037
864	-0.031
864	-0.024
865	-0.017
865	-0.011
866	-0.004
866	0.001
866	0.006
867	0.012
867	0.017
868	0.022
868	0.027
869	0.032
869	0.035
869	0.037
870	0.04
870	0.042
871	0.043
871	0.045
872	0.046
872	0.047
872	0.047
873	0.047
873	0.047
874	0.047
874	0.046
875	0.046
875	0.046
875	0.046
876	0.046
876	0.045
877	0.045
877	0.044
878	0.044
878	0.043
878	0.043
879	0.043
879	0.042
880	0.041
880	0.04
881	0.039
881	0.037
881	0.036
882	0.034
882	0.033
883	0.031
883	0.03
884	0.029
884	0.029
884	0.029
885	0.028
885	0.028
886	0.028
886	0.028
887	0.028
887	0.028
887	0.027
888	0.027
888	0.026
889	0.025
889	0.024
890	0.023
890	0.022
890	0.022
891	0.022
891	0.021
892	0.022
892	0.023
893	0.023
893	0.023
893	0.024
894	0.025
894	0.025
895	0.025
895	0.026
895	0.026
896	0.026
896	0.026
897	0.026
897	0.026
898	0.026
898	0.026
898	0.026
899	0.027
899	0.027
900	0.027
900	0.026
901	0.026
901	0.026
901	0.025
902	0.025
902	0.025
903	0.025
903	0.024
904	0.023
904	0.023
904	0.023
905	0.023
905	0.023
906	0.024
906	0.024
907	0.025
907	0.026
907	0.026
908	0.027
908	0.028
909	0.028
909	0.029
910	0.029
910	0.03
910	0.03
911	0.031
911	0.031
912	0.032
912	0.032
913	0.033
913	0.033
913	0.034
914	0.035
914	0.035
915	0.035
915	0.035
916	0.034
916	0.034
916	0.033
917	0.033
917	0.032
918	0.031
918	0.031
918	0.03
919	0.029
919	0.029
920	0.029
920	0.029
921	0.029
921	0.03
921	0.03
922	0.03
922	0.03
923	0.03
923	0.03
924	0.03
924	0.029
924	0.028
925	0.027
925	0.026
926	0.024
926	0.023
927	0.022
927	0.021
927	0.02
928	0.02
928	0.02
929	0.02
929	0.02
930	0.021
930	0.021
930	0.022
931	0.023
931	0.024
932	0.026
932	0.027
933	0.027
933	0.028
933	0.028
934	0.028
934	0.027
935	0.027
935	0.026
935	0.025
936	0.024
936	0.023
937	0.021
937	0.02
938	0.02
938	0.019
938	0.018
939	0.017
939	0.017
940	0.017
940	0.016
941	0.015
941	0.014
941	0.015
942	0.014
942	0.014
943	0.014
943	0.014
944	0.014
944	0.013
944	0.013
945	0.013
945	0.012
946	0.012
946	0.011
946	0.01
947	0.01
947	0.01
948	0.01
948	0.011
949	0.011
949	0.012
949	0.014
950	0.015
950	0.017
951	0.018
951	0.019
952	0.02
952	0.022
952	0.022
953	0.023
953	0.023
954	0.023
954	0.023
955	0.023
955	0.023
955	0.022
956	0.022
956	0.022
957	0.021
957	0.02
957	0.019
958	0.018
958	0.018
959	0.017
959	0.017
960	0.017
960	0.016
960	0.017
961	0.017
961	0.017
962	0.017
962	0.018
963	0.018
963	0.019
963	0.019
964	0.02
964	0.02
965	0.021
965	0.022
966	0.022
966	0.023
966	0.024
967	0.025
967	0.025
968	0.025
968	0.025
968	0.025
969	0.025
969	0.024
970	0.023
970	0.023
971	0.022
971	0.022
971	0.022
972	0.022
972	0.022
973	0.022
973	0.022
974	0.022
974	0.022
974	0.022
975	0.022
975	0.022
976	0.021
976	0.021
976	0.021
977	0.02
977	0.019
978	0.019
978	0.018
979	0.017
979	0.017
979	0.016
980	0.016
980	0.015
981	0.015
981	0.015
982	0.015
982	0.015
982	0.015
983	0.015
983	0.015
984	0.015
984	0.015
984	0.015
985	0.015
985	0.014
986	0.014
986	0.013
987	0.012
987	0.012
987	0.011
988	0.011
988	0.01
989	0.009
989	0.009
990	0.008
990	0.007
990	0.006
991	0.006
991	0.005
992	0.004
992	0.003
992	0.003
993	0.002
993	0
994	-0.001
994	-0.002
995	-0.003
995	-0.004
995	-0.006
996	-0.007
996	-0.008
997	-0.009
997	-0.009
997	-0.01
998	-0.01
998	-0.01
999	-0.01
999	-0.009
1000	-0.009
1000	-0.008
1000	-0.008
1001	-0.007
1001	-0.006
1002	-0.005
1002	-0.005
1003	-0.004
1003	-0.004
1003	-0.003
1004	-0.003
1004	-0.003
1005	-0.003
1005	-0.003
1005	-0.004
1006	-0.005
1006	-0.005
1007	-0.006
1007	-0.007
1008	-0.008
1008	-0.009
1008	-0.009
1009	-0.01
1009	-0.01
1010	-0.009
1010	-0.009
1010	-0.008
1011	-0.008
1011	-0.007
1012	-0.006
1012	-0.005
1013	-0.004
1013	-0.003
1013	-0.002
1014	-0.001
1014	-0
1015	0
1015	0.001
1016	0.001
1016	0.002
1016	0.001
1017	0.001
1017	0.001
1018	0.001
1018	0.001
1018	0.001
1019	0
1019	0
1020	-0
1020	-0.001
1021	-0.001
1021	-0.001
1021	-0.002
1022	-0.002
1022	-0.002
1023	-0.002
1023	-0.003
1023	-0.003
1024	-0.003
1024	-0.003
1025	-0.003
1025	-0.003
1026	-0.004
1026	-0.003
1026	-0.004
1027	-0.004
1027	-0.003
1028	-0.003
1028	-0.002
1028	-0.002
1029	-0.002
1029	-0.002
1030	-0.002
1030	-0.002
1031	-0.002
1031	-0.001
1031	-0.001
1032	-0.002
1032	-0.002
1033	-0.002
1033	-0.003
1033	-0.003
1034	-0.004
1034	-0.004
1035	-0.005
1035	-0.005
1036	-0.007
1036	-0.007
1036	-0.008
1037	-0.008
1037	-0.008
1038	-0.009
1038	-0.009
1039	-0.009
1039	-0.009
1039	-0.009
1040	-0.009
1040	-0.008
1041	-0.008
1041	-0.008
1041	-0.008
1042	-0.009
1042	-0.009
1043	-0.01
1043	-0.011
1044	-0.011
1044	-0.012
1044	-0.012
1045	-0.013
1045	-0.013
1046	-0.014
1046	-0.014
1046	-0.014
1047	-0.014
1047	-0.014
1048	-0.014
1048	-0.014
1049	-0.014
1049	-0.015
1049	-0.015
1050	-0.016
1050	-0.017
1051	-0.018
1051	-0.019
1051	-0.019
1052	-0.02
1052	-0.022
1053	-0.022
1053	-0.022
1053	-0.023
1054	-0.023
1054	-0.023
1055	-0.023
1055	-0.023
1056	-0.023
1056	-0.023
1056	-0.023
1057	-0.023
1057	-0.023
1058	-0.023
1058	-0.023
1058	-0.023
1059	-0.023
1059	-0.023
1060	-0.024
1060	-0.024
1061	-0.025
1061	-0.024
1061	-0.024
1062	-0.025
1062	-0.025
1063	-0.025
1063	-0.026
1063	-0.026
1064	-0.026
1064	-0.025
1065	-0.025
1065	-0.026
1066	-0.026
1066	-0.027
1066	-0.027
1067	-0.028
1067	-0.029
1068	-0.029
1068	-0.03
1068	-0.03
1069	-0.031
1069	-0.032
1070	-0.033
1070	-0.034
1071	-0.034
1071	-0.034
1071	-0.035
1072	-0.035
1072	-0.035
1073	-0.035
1073	-0.035
1073	-0.036
1074	-0.035
1074	-0.036
1075	-0.036
1075	-0.036
1076	-0.037
1076	-0.037
1076	-0.038
1077	-0.039
1077	-0.04
1078	-0.04
1078	-0.041
1078	-0.041
1079	-0.042
1079	-0.042
1080	-0.044
1080	-0.044
1080	-0.046
1081	-0.047
1081	-0.048
1082	-0.048
1082	-0.05
1083	-0.051
1083	-0.053
1083	-0.054
1084	-0.055
1084	-0.056
1085	-0.057
1085	-0.058
1085	-0.059
1086	-0.06
1086	-0.061
1087	-0.062
1087	-0.062
1088	-0.063
1088	-0.064
1088	-0.064
1089	-0.066
1089	-0.067
1090	-0.067
1090	-0.068
1090	-0.069
1091	-0.07
1091	-0.069
1092	-0.07
1092	-0.069
1092	-0.07
1093	-0.071
1093	-0.071
1094	-0.071
1094	-0.072
1095	-0.073
1095	-0.074
1095	-0.074
1096	-0.076
1096	-0.078
1097	-0.079
1097	-0.081
1097	-0.083
1098	-0.086
1098	-0.088
1099	-0.09
1099	-0.092
1100	-0.094
1100	-0.096
1100	-0.099
1101	-0.103
1101	-0.105
1102	-0.107
1102	-0.109
1102	-0.11
1103	-0.112
1103	-0.115
1104	-0.118
1104	-0.121
1104	-0.123
1105	-0.125
1105	-0.128
1106	-0.134
1106	-0.136
1107	-0.142
1107	-0.147
1107	-0.153
1108	-0.154
1108	-0.156
1109	-0.159
1109	-0.164
1109	-0.168
1110	-0.171
1110	-0.173
1111	-0.184
1111	-0.179
