Data from 3.3A_17C_Absorbance__337__03204.txt Node

Date: Tue Jun 20 17:24:08 CEST 2023
User: Marek
Spectrometer: MAYP115816
Trigger mode: 0
Integration Time (sec): 2.200000E-1
Scans to average: 10
Electric dark correction enabled: true
Nonlinearity correction enabled: true
Boxcar width: 5
XAxis mode: Wavelengths
Number of Pixels in Spectrum: 2068
>>>>>Begin Spectral Data<<<<<
199	-0.809
199	-0.797
200	-0.758
200	-0.7
201	-0.671
201	-0.662
202	-0.645
202	-0.639
203	-0.639
203	-0.63
204	-0.61
204	-0.594
205	-0.57
205	-0.559
205	-0.57
206	-0.572
206	-0.569
207	-0.562
207	-0.566
208	-0.567
208	-0.573
209	-0.573
209	-0.579
210	-0.59
210	-0.597
211	-0.59
211	-0.594
212	-0.603
212	-0.609
213	-0.607
213	-0.601
213	-0.599
214	-0.609
214	-0.611
215	-0.609
215	-0.615
216	-0.623
216	-0.629
217	-0.626
217	-0.627
218	-0.635
218	-0.638
219	-0.643
219	-0.645
220	-0.648
220	-0.653
221	-0.655
221	-0.656
221	-0.646
222	-0.646
222	-0.644
223	-0.639
223	-0.641
224	-0.642
224	-0.64
225	-0.638
225	-0.639
226	-0.638
226	-0.638
227	-0.645
227	-0.654
228	-0.657
228	-0.667
229	-0.673
229	-0.671
229	-0.671
230	-0.665
230	-0.664
231	-0.661
231	-0.655
232	-0.659
232	-0.654
233	-0.655
233	-0.643
234	-0.643
234	-0.638
235	-0.642
235	-0.655
236	-0.66
236	-0.662
236	-0.662
237	-0.661
237	-0.661
238	-0.661
238	-0.661
239	-0.66
239	-0.671
240	-0.664
240	-0.658
241	-0.655
241	-0.659
242	-0.662
242	-0.669
243	-0.67
243	-0.673
243	-0.678
244	-0.675
244	-0.675
245	-0.678
245	-0.683
246	-0.692
246	-0.696
247	-0.704
247	-0.692
248	-0.692
248	-0.694
249	-0.699
249	-0.701
250	-0.7
250	-0.708
250	-0.706
251	-0.707
251	-0.702
252	-0.701
252	-0.714
253	-0.709
253	-0.72
254	-0.725
254	-0.727
255	-0.738
255	-0.736
256	-0.74
256	-0.752
257	-0.764
257	-0.761
258	-0.76
258	-0.768
258	-0.767
259	-0.759
259	-0.776
260	-0.775
260	-0.764
261	-0.774
261	-0.76
262	-0.764
262	-0.764
263	-0.757
263	-0.761
264	-0.769
264	-0.772
265	-0.761
265	-0.763
265	-0.773
266	-0.764
266	-0.763
267	-0.763
267	-0.779
268	-0.788
268	-0.782
269	-0.775
269	-0.788
270	-0.794
270	-0.794
271	-0.808
271	-0.818
272	-0.819
272	-0.822
272	-0.814
273	-0.822
273	-0.838
274	-0.831
274	-0.826
275	-0.822
275	-0.81
276	-0.812
276	-0.817
277	-0.822
277	-0.818
278	-0.823
278	-0.824
278	-0.811
279	-0.819
279	-0.833
280	-0.835
280	-0.847
281	-0.84
281	-0.833
282	-0.837
282	-0.833
283	-0.826
283	-0.84
284	-0.852
284	-0.862
285	-0.843
285	-0.847
285	-0.838
286	-0.844
286	-0.859
287	-0.857
287	-0.853
288	-0.853
288	-0.835
289	-0.835
289	-0.844
290	-0.852
290	-0.84
291	-0.844
291	-0.843
292	-0.824
292	-0.822
292	-0.828
293	-0.816
293	-0.812
294	-0.81
294	-0.796
295	-0.779
295	-0.792
296	-0.804
296	-0.797
297	-0.784
297	-0.788
298	-0.783
298	-0.8
298	-0.803
299	-0.786
299	-0.78
300	-0.776
300	-0.757
301	-0.74
301	-0.742
302	-0.753
302	-0.74
303	-0.733
303	-0.72
304	-0.704
304	-0.706
305	-0.696
305	-0.706
305	-0.72
306	-0.704
306	-0.703
307	-0.695
307	-0.706
308	-0.709
308	-0.705
309	-0.706
309	-0.701
310	-0.701
310	-0.693
311	-0.681
311	-0.7
311	-0.688
312	-0.684
312	-0.673
313	-0.664
313	-0.667
314	-0.672
314	-0.669
315	-0.665
315	-0.66
316	-0.653
316	-0.642
317	-0.635
317	-0.632
318	-0.624
318	-0.622
318	-0.611
319	-0.6
319	-0.592
320	-0.589
320	-0.587
321	-0.583
321	-0.584
322	-0.578
322	-0.57
323	-0.57
323	-0.56
324	-0.559
324	-0.547
324	-0.535
325	-0.521
325	-0.503
326	-0.493
326	-0.467
327	-0.451
327	-0.428
328	-0.396
328	-0.373
329	-0.342
329	-0.313
330	-0.287
330	-0.25
330	-0.212
331	-0.173
331	-0.139
332	-0.104
332	-0.068
333	-0.037
333	-0
334	0.031
334	0.058
335	0.088
335	0.112
336	0.136
336	0.159
336	0.179
337	0.199
337	0.218
338	0.233
338	0.244
339	0.26
339	0.273
340	0.282
340	0.292
341	0.3
341	0.307
342	0.315
342	0.322
342	0.327
343	0.331
343	0.337
344	0.341
344	0.344
345	0.348
345	0.351
346	0.353
346	0.355
347	0.357
347	0.359
348	0.36
348	0.362
348	0.363
349	0.364
349	0.365
350	0.365
350	0.366
351	0.367
351	0.367
352	0.367
352	0.367
353	0.368
353	0.368
354	0.368
354	0.369
354	0.369
355	0.369
355	0.369
356	0.368
356	0.368
357	0.37
357	0.37
358	0.369
358	0.369
359	0.369
359	0.37
360	0.37
360	0.37
360	0.37
361	0.37
361	0.37
362	0.369
362	0.369
363	0.369
363	0.369
364	0.369
364	0.368
365	0.368
365	0.368
366	0.368
366	0.368
366	0.368
367	0.368
367	0.368
368	0.368
368	0.367
369	0.367
369	0.367
370	0.367
370	0.366
371	0.366
371	0.366
372	0.365
372	0.365
372	0.365
373	0.365
373	0.364
374	0.364
374	0.364
375	0.364
375	0.363
376	0.363
376	0.363
377	0.362
377	0.362
378	0.362
378	0.361
378	0.361
379	0.361
379	0.36
380	0.36
380	0.36
381	0.36
381	0.36
382	0.359
382	0.359
383	0.359
383	0.358
383	0.358
384	0.358
384	0.357
385	0.357
385	0.356
386	0.356
386	0.355
387	0.355
387	0.355
388	0.355
388	0.354
389	0.354
389	0.354
389	0.354
390	0.353
390	0.353
391	0.353
391	0.353
392	0.352
392	0.352
393	0.352
393	0.351
394	0.351
394	0.35
394	0.35
395	0.349
395	0.349
396	0.348
396	0.348
397	0.348
397	0.347
398	0.346
398	0.346
399	0.346
399	0.346
400	0.345
400	0.345
400	0.345
401	0.344
401	0.344
402	0.343
402	0.343
403	0.343
403	0.343
404	0.343
404	0.342
405	0.342
405	0.342
405	0.342
406	0.342
406	0.342
407	0.342
407	0.341
408	0.341
408	0.34
409	0.34
409	0.34
410	0.34
410	0.339
411	0.339
411	0.339
411	0.338
412	0.338
412	0.337
413	0.337
413	0.337
414	0.337
414	0.336
415	0.336
415	0.336
416	0.335
416	0.335
416	0.335
417	0.334
417	0.334
418	0.334
418	0.334
419	0.334
419	0.334
420	0.334
420	0.334
421	0.334
421	0.333
421	0.333
422	0.333
422	0.333
423	0.333
423	0.333
424	0.333
424	0.332
425	0.332
425	0.332
426	0.332
426	0.331
427	0.331
427	0.332
427	0.332
428	0.332
428	0.331
429	0.331
429	0.331
430	0.331
430	0.33
431	0.33
431	0.33
432	0.33
432	0.329
432	0.329
433	0.328
433	0.328
434	0.329
434	0.329
435	0.329
435	0.329
436	0.329
436	0.329
437	0.329
437	0.329
437	0.329
438	0.329
438	0.329
439	0.328
439	0.328
440	0.328
440	0.328
441	0.327
441	0.327
442	0.327
442	0.327
442	0.327
443	0.327
443	0.327
444	0.327
444	0.327
445	0.327
445	0.327
446	0.327
446	0.327
447	0.327
447	0.327
447	0.327
448	0.327
448	0.327
449	0.327
449	0.327
450	0.327
450	0.327
451	0.327
451	0.327
452	0.327
452	0.327
452	0.328
453	0.328
453	0.328
454	0.328
454	0.328
455	0.328
455	0.329
456	0.328
456	0.328
457	0.328
457	0.328
458	0.328
458	0.328
458	0.328
459	0.328
459	0.328
460	0.327
460	0.328
461	0.328
461	0.329
462	0.329
462	0.33
463	0.331
463	0.332
463	0.333
464	0.333
464	0.334
465	0.334
465	0.335
466	0.335
466	0.335
467	0.335
467	0.335
467	0.335
468	0.335
468	0.335
469	0.335
469	0.336
470	0.337
470	0.337
471	0.338
471	0.338
472	0.339
472	0.339
472	0.34
473	0.341
473	0.342
474	0.343
474	0.344
475	0.345
475	0.346
476	0.347
476	0.348
477	0.349
477	0.35
477	0.351
478	0.352
478	0.353
479	0.354
479	0.355
480	0.356
480	0.356
481	0.357
481	0.358
482	0.359
482	0.36
482	0.362
483	0.364
483	0.366
484	0.367
484	0.368
485	0.369
485	0.371
486	0.372
486	0.374
487	0.376
487	0.377
487	0.379
488	0.38
488	0.381
489	0.382
489	0.385
490	0.386
490	0.388
491	0.39
491	0.392
492	0.394
492	0.395
492	0.397
493	0.399
493	0.401
494	0.404
494	0.406
495	0.408
495	0.41
496	0.413
496	0.415
496	0.418
497	0.42
497	0.423
498	0.425
498	0.428
499	0.43
499	0.433
500	0.437
500	0.44
501	0.443
501	0.445
501	0.447
502	0.45
502	0.453
503	0.456
503	0.458
504	0.461
504	0.464
505	0.467
505	0.47
506	0.474
506	0.477
506	0.48
507	0.483
507	0.487
508	0.491
508	0.495
509	0.498
509	0.501
510	0.504
510	0.507
511	0.509
511	0.512
511	0.515
512	0.518
512	0.52
513	0.522
513	0.525
514	0.527
514	0.53
515	0.533
515	0.535
515	0.537
516	0.54
516	0.542
517	0.544
517	0.546
518	0.548
518	0.549
519	0.551
519	0.552
520	0.554
520	0.556
520	0.559
521	0.56
521	0.562
522	0.563
522	0.565
523	0.567
523	0.57
524	0.571
524	0.572
524	0.573
525	0.575
525	0.575
526	0.576
526	0.577
527	0.578
527	0.578
528	0.578
528	0.578
529	0.578
529	0.578
529	0.578
530	0.578
530	0.577
531	0.577
531	0.576
532	0.575
532	0.574
533	0.574
533	0.573
533	0.572
534	0.571
534	0.57
535	0.569
535	0.568
536	0.567
536	0.565
537	0.564
537	0.563
538	0.561
538	0.559
538	0.557
539	0.555
539	0.553
540	0.551
540	0.548
541	0.546
541	0.544
542	0.541
542	0.539
542	0.536
543	0.533
543	0.53
544	0.527
544	0.525
545	0.522
545	0.519
546	0.516
546	0.513
547	0.51
547	0.507
547	0.504
548	0.502
548	0.498
549	0.495
549	0.493
550	0.489
550	0.486
551	0.482
551	0.479
551	0.476
552	0.473
552	0.47
553	0.467
553	0.464
554	0.46
554	0.456
555	0.453
555	0.45
556	0.447
556	0.443
556	0.44
557	0.437
557	0.434
558	0.431
558	0.428
559	0.424
559	0.421
560	0.418
560	0.415
560	0.412
561	0.409
561	0.407
562	0.404
562	0.401
563	0.398
563	0.396
564	0.393
564	0.391
564	0.388
565	0.386
565	0.384
566	0.381
566	0.379
567	0.376
567	0.374
568	0.372
568	0.369
568	0.366
569	0.364
569	0.361
570	0.358
570	0.354
571	0.352
571	0.349
572	0.346
572	0.343
573	0.34
573	0.337
573	0.334
574	0.332
574	0.33
575	0.328
575	0.328
576	0.326
576	0.322
577	0.32
577	0.318
577	0.317
578	0.315
578	0.314
579	0.314
579	0.312
580	0.309
580	0.305
581	0.301
581	0.299
581	0.298
582	0.297
582	0.295
583	0.294
583	0.292
584	0.288
584	0.284
585	0.283
585	0.283
585	0.281
586	0.28
586	0.278
587	0.275
587	0.273
588	0.271
588	0.269
589	0.268
589	0.266
590	0.265
590	0.263
590	0.263
591	0.262
591	0.26
592	0.258
592	0.255
593	0.254
593	0.253
594	0.251
594	0.249
594	0.247
595	0.246
595	0.243
596	0.241
596	0.241
597	0.241
597	0.24
598	0.239
598	0.238
598	0.236
599	0.235
599	0.234
600	0.232
600	0.231
601	0.23
601	0.229
602	0.227
602	0.226
602	0.224
603	0.223
603	0.223
604	0.222
604	0.221
605	0.221
605	0.22
606	0.219
606	0.216
606	0.215
607	0.214
607	0.213
608	0.211
608	0.209
609	0.208
609	0.207
610	0.205
610	0.204
610	0.203
611	0.203
611	0.202
612	0.201
612	0.201
613	0.2
613	0.199
614	0.197
614	0.195
614	0.194
615	0.192
615	0.191
616	0.189
616	0.188
617	0.187
617	0.185
618	0.183
618	0.182
618	0.181
619	0.18
619	0.18
620	0.18
620	0.179
621	0.177
621	0.176
622	0.174
622	0.173
622	0.171
623	0.17
623	0.169
624	0.168
624	0.167
625	0.165
625	0.164
626	0.163
626	0.161
626	0.161
627	0.16
627	0.159
628	0.158
628	0.157
629	0.156
629	0.154
630	0.152
630	0.15
630	0.148
631	0.147
631	0.145
632	0.142
632	0.14
633	0.138
633	0.136
634	0.134
634	0.132
634	0.131
635	0.129
635	0.126
636	0.124
636	0.121
637	0.119
637	0.115
638	0.113
638	0.11
638	0.106
639	0.102
639	0.098
640	0.094
640	0.09
641	0.085
641	0.081
642	0.077
642	0.073
642	0.069
643	0.064
643	0.059
644	0.054
644	0.049
645	0.044
645	0.039
646	0.033
646	0.028
646	0.021
647	0.015
647	0.009
648	0.002
648	-0.005
649	-0.012
649	-0.019
650	-0.025
650	-0.032
650	-0.039
651	-0.048
651	-0.059
652	-0.071
652	-0.085
653	-0.096
653	-0.106
653	-0.1
654	-0.081
654	-0.076
655	-0.08
655	-0.084
656	-0.089
656	-0.095
657	-0.099
657	-0.103
657	-0.108
658	-0.114
658	-0.144
659	-0.224
659	-0.306
660	-0.343
660	-0.368
661	-0.392
661	-0.419
661	-0.446
662	-0.473
662	-0.501
663	-0.532
663	-0.566
664	-0.598
664	-0.636
665	-0.676
665	-0.718
665	-0.759
666	-0.805
666	-0.856
667	-0.907
667	-0.965
668	-1.021
668	-1.086
669	-1.152
669	-1.223
669	-1.302
670	-1.386
670	-1.52
671	-1.783
671	-2.152
672	-2.365
672	-2.513
672	-2.625
673	-2.716
673	-2.793
674	-2.827
674	-2.838
675	-2.853
675	-2.855
676	-2.842
676	-2.774
676	-2.696
677	-2.598
677	-2.474
678	-2.276
678	-1.876
679	-1.58
679	-1.451
680	-1.362
680	-1.297
680	-1.24
681	-1.202
681	-1.157
682	-1.123
682	-1.085
683	-1.047
683	-1.029
684	-1.005
684	-0.99
684	-0.971
685	-0.955
685	-0.948
686	-0.926
686	-0.917
687	-0.91
687	-0.902
687	-0.904
688	-0.89
688	-0.885
689	-0.891
689	-0.89
690	-0.879
690	-0.871
691	-0.871
691	-0.873
691	-0.874
692	-0.876
692	-0.875
693	-0.883
693	-0.895
694	-0.877
694	-0.876
695	-0.878
695	-0.872
695	-0.879
696	-0.887
696	-0.88
697	-0.875
697	-0.871
698	-0.868
698	-0.861
698	-0.875
699	-0.875
699	-0.877
700	-0.897
700	-0.893
701	-0.881
701	-0.876
702	-0.877
702	-0.874
702	-0.874
703	-0.864
703	-0.853
704	-0.859
704	-0.863
705	-0.851
705	-0.85
705	-0.845
706	-0.838
706	-0.833
707	-0.847
707	-0.851
708	-0.847
708	-0.844
709	-0.845
709	-0.842
709	-0.839
710	-0.847
710	-0.85
711	-0.848
711	-0.851
712	-0.841
712	-0.84
713	-0.847
713	-0.849
713	-0.831
714	-0.833
714	-0.835
715	-0.826
715	-0.833
716	-0.851
716	-0.857
716	-0.858
717	-0.863
717	-0.853
718	-0.848
718	-0.848
719	-0.842
719	-0.834
720	-0.83
720	-0.825
720	-0.82
721	-0.811
721	-0.814
722	-0.812
722	-0.808
723	-0.826
723	-0.841
723	-0.849
724	-0.85
724	-0.855
725	-0.848
725	-0.852
726	-0.856
726	-0.848
727	-0.85
727	-0.859
727	-0.849
728	-0.834
728	-0.83
729	-0.833
729	-0.836
730	-0.842
730	-0.832
730	-0.838
731	-0.841
731	-0.843
732	-0.844
732	-0.839
733	-0.857
733	-0.863
734	-0.87
734	-0.862
734	-0.843
735	-0.835
735	-0.83
736	-0.829
736	-0.824
737	-0.823
737	-0.814
737	-0.804
738	-0.791
738	-0.781
739	-0.784
739	-0.787
740	-0.799
740	-0.799
741	-0.809
741	-0.817
741	-0.826
742	-0.833
742	-0.848
743	-0.853
743	-0.855
744	-0.858
744	-0.865
744	-0.859
745	-0.867
745	-0.855
746	-0.85
746	-0.841
747	-0.844
747	-0.834
748	-0.837
748	-0.842
748	-0.844
749	-0.837
749	-0.845
750	-0.836
750	-0.836
751	-0.836
751	-0.835
751	-0.846
752	-0.849
752	-0.851
753	-0.851
753	-0.844
754	-0.864
754	-0.862
754	-0.87
755	-0.872
755	-0.864
756	-0.867
756	-0.853
757	-0.847
757	-0.837
758	-0.84
758	-0.84
758	-0.836
759	-0.839
759	-0.838
760	-0.836
760	-0.838
761	-0.832
761	-0.837
761	-0.836
762	-0.84
762	-0.841
763	-0.84
763	-0.843
764	-0.844
764	-0.84
764	-0.847
765	-0.845
765	-0.85
766	-0.853
766	-0.856
767	-0.872
767	-0.866
768	-0.866
768	-0.858
768	-0.851
769	-0.856
769	-0.864
770	-0.876
770	-0.88
771	-0.877
771	-0.874
771	-0.881
772	-0.886
772	-0.905
773	-0.906
773	-0.906
774	-0.904
774	-0.886
775	-0.872
775	-0.871
775	-0.874
776	-0.885
776	-0.88
777	-0.88
777	-0.862
778	-0.874
778	-0.882
778	-0.882
779	-0.892
779	-0.909
780	-0.905
780	-0.916
781	-0.906
781	-0.895
781	-0.909
782	-0.929
782	-0.929
783	-0.929
783	-0.936
784	-0.939
784	-0.932
784	-0.951
785	-0.943
785	-0.955
786	-0.959
786	-0.953
787	-0.944
787	-0.952
788	-0.944
788	-0.938
788	-0.94
789	-0.939
789	-0.93
790	-0.93
790	-0.913
791	-0.921
791	-0.916
791	-0.908
792	-0.903
792	-0.908
793	-0.911
793	-0.898
794	-0.892
794	-0.885
794	-0.891
795	-0.911
795	-0.896
796	-0.899
796	-0.896
797	-0.889
797	-0.879
797	-0.871
798	-0.892
798	-0.896
799	-0.896
799	-0.882
800	-0.878
800	-0.887
801	-0.887
801	-0.891
801	-0.887
802	-0.887
802	-0.888
803	-0.882
803	-0.874
804	-0.878
804	-0.886
804	-0.87
805	-0.85
805	-0.841
806	-0.842
806	-0.839
807	-0.839
807	-0.839
807	-0.822
808	-0.818
808	-0.812
809	-0.807
809	-0.807
810	-0.812
810	-0.809
810	-0.804
811	-0.809
811	-0.801
812	-0.792
812	-0.794
813	-0.798
813	-0.798
813	-0.794
814	-0.796
814	-0.801
815	-0.792
815	-0.79
816	-0.783
816	-0.798
817	-0.812
817	-0.816
817	-0.826
818	-0.82
818	-0.817
819	-0.825
819	-0.824
820	-0.836
820	-0.834
820	-0.834
821	-0.83
821	-0.824
822	-0.824
822	-0.813
823	-0.823
823	-0.821
823	-0.816
824	-0.813
824	-0.824
825	-0.824
825	-0.82
826	-0.816
826	-0.812
826	-0.813
827	-0.813
827	-0.802
828	-0.802
828	-0.796
829	-0.791
829	-0.776
829	-0.773
830	-0.771
830	-0.757
831	-0.752
831	-0.74
832	-0.731
832	-0.727
832	-0.719
833	-0.719
833	-0.724
834	-0.719
834	-0.713
835	-0.706
835	-0.705
835	-0.699
836	-0.695
836	-0.691
837	-0.682
837	-0.675
838	-0.662
838	-0.644
839	-0.638
839	-0.625
839	-0.616
840	-0.615
840	-0.605
841	-0.595
841	-0.587
842	-0.577
842	-0.564
842	-0.562
843	-0.559
843	-0.555
844	-0.552
844	-0.54
845	-0.527
845	-0.518
845	-0.507
846	-0.495
846	-0.485
847	-0.475
847	-0.461
848	-0.446
848	-0.429
848	-0.415
849	-0.404
849	-0.392
850	-0.38
850	-0.369
851	-0.356
851	-0.34
851	-0.33
852	-0.314
852	-0.302
853	-0.293
853	-0.283
854	-0.272
854	-0.261
854	-0.25
855	-0.238
855	-0.231
856	-0.223
856	-0.215
857	-0.208
857	-0.198
857	-0.185
858	-0.173
858	-0.165
859	-0.155
859	-0.143
860	-0.133
860	-0.118
860	-0.108
861	-0.097
861	-0.087
862	-0.079
862	-0.071
863	-0.063
863	-0.053
863	-0.046
864	-0.039
864	-0.032
865	-0.026
865	-0.02
866	-0.015
866	-0.009
866	-0.004
867	0.002
867	0.007
868	0.011
868	0.016
869	0.021
869	0.024
869	0.026
870	0.029
870	0.031
871	0.033
871	0.035
872	0.036
872	0.036
872	0.037
873	0.037
873	0.037
874	0.036
874	0.036
875	0.036
875	0.035
875	0.035
876	0.035
876	0.035
877	0.034
877	0.034
878	0.033
878	0.033
878	0.033
879	0.032
879	0.031
880	0.031
880	0.03
881	0.028
881	0.027
881	0.026
882	0.024
882	0.023
883	0.022
883	0.02
884	0.02
884	0.02
884	0.019
885	0.019
885	0.019
886	0.019
886	0.019
887	0.018
887	0.018
887	0.017
888	0.017
888	0.016
889	0.016
889	0.015
890	0.013
890	0.013
890	0.012
891	0.012
891	0.011
892	0.012
892	0.013
893	0.013
893	0.013
893	0.013
894	0.014
894	0.015
895	0.015
895	0.015
895	0.015
896	0.016
896	0.016
897	0.016
897	0.016
898	0.016
898	0.016
898	0.016
899	0.017
899	0.017
900	0.017
900	0.017
901	0.017
901	0.016
901	0.016
902	0.016
902	0.016
903	0.015
903	0.015
904	0.014
904	0.014
904	0.014
905	0.014
905	0.014
906	0.015
906	0.015
907	0.015
907	0.016
907	0.016
908	0.017
908	0.018
909	0.019
909	0.019
910	0.02
910	0.02
910	0.021
911	0.021
911	0.022
912	0.023
912	0.024
913	0.024
913	0.025
913	0.025
914	0.026
914	0.026
915	0.026
915	0.026
916	0.026
916	0.025
916	0.024
917	0.024
917	0.023
918	0.023
918	0.022
918	0.021
919	0.02
919	0.02
920	0.02
920	0.02
921	0.02
921	0.021
921	0.021
922	0.021
922	0.022
923	0.022
923	0.022
924	0.021
924	0.021
924	0.02
925	0.019
925	0.018
926	0.016
926	0.015
927	0.014
927	0.013
927	0.012
928	0.011
928	0.011
929	0.011
929	0.012
930	0.012
930	0.013
930	0.014
931	0.015
931	0.016
932	0.017
932	0.018
933	0.019
933	0.02
933	0.02
934	0.019
934	0.019
935	0.019
935	0.018
935	0.017
936	0.015
936	0.014
937	0.013
937	0.012
938	0.011
938	0.01
938	0.01
939	0.009
939	0.008
940	0.008
940	0.007
941	0.006
941	0.006
941	0.006
942	0.005
942	0.005
943	0.005
943	0.005
944	0.004
944	0.004
944	0.004
945	0.003
945	0.003
946	0.003
946	0.002
946	0.001
947	0.001
947	0.001
948	0.001
948	0.002
949	0.003
949	0.004
949	0.005
950	0.007
950	0.008
951	0.01
951	0.011
952	0.012
952	0.013
952	0.014
953	0.015
953	0.015
954	0.015
954	0.015
955	0.015
955	0.015
955	0.014
956	0.014
956	0.014
957	0.013
957	0.012
957	0.011
958	0.01
958	0.009
959	0.009
959	0.008
960	0.008
960	0.007
960	0.007
961	0.007
961	0.008
962	0.008
962	0.009
963	0.009
963	0.01
963	0.01
964	0.011
964	0.012
965	0.013
965	0.014
966	0.014
966	0.015
966	0.016
967	0.016
967	0.016
968	0.016
968	0.017
968	0.017
969	0.016
969	0.016
970	0.016
970	0.015
971	0.015
971	0.015
971	0.015
972	0.015
972	0.015
973	0.015
973	0.015
974	0.015
974	0.015
974	0.015
975	0.015
975	0.014
976	0.014
976	0.014
976	0.013
977	0.013
977	0.012
978	0.011
978	0.01
979	0.01
979	0.009
979	0.009
980	0.008
980	0.008
981	0.007
981	0.007
982	0.007
982	0.007
982	0.007
983	0.007
983	0.007
984	0.007
984	0.007
984	0.007
985	0.007
985	0.006
986	0.006
986	0.005
987	0.004
987	0.004
987	0.003
988	0.003
988	0.002
989	0.001
989	0.001
990	0
990	-0.001
990	-0.001
991	-0.002
991	-0.003
992	-0.003
992	-0.004
992	-0.005
993	-0.006
993	-0.007
994	-0.008
994	-0.01
995	-0.011
995	-0.012
995	-0.013
996	-0.014
996	-0.015
997	-0.016
997	-0.017
997	-0.017
998	-0.018
998	-0.017
999	-0.017
999	-0.017
1000	-0.017
1000	-0.016
1000	-0.016
1001	-0.015
1001	-0.014
1002	-0.013
1002	-0.012
1003	-0.012
1003	-0.012
1003	-0.011
1004	-0.011
1004	-0.011
1005	-0.011
1005	-0.011
1005	-0.012
1006	-0.012
1006	-0.013
1007	-0.014
1007	-0.015
1008	-0.015
1008	-0.016
1008	-0.016
1009	-0.017
1009	-0.017
1010	-0.016
1010	-0.016
1010	-0.015
1011	-0.015
1011	-0.014
1012	-0.013
1012	-0.012
1013	-0.011
1013	-0.01
1013	-0.009
1014	-0.009
1014	-0.008
1015	-0.007
1015	-0.007
1016	-0.006
1016	-0.006
1016	-0.006
1017	-0.007
1017	-0.007
1018	-0.007
1018	-0.007
1018	-0.007
1019	-0.007
1019	-0.007
1020	-0.008
1020	-0.008
1021	-0.009
1021	-0.009
1021	-0.009
1022	-0.01
1022	-0.01
1023	-0.01
1023	-0.011
1023	-0.011
1024	-0.011
1024	-0.011
1025	-0.011
1025	-0.011
1026	-0.011
1026	-0.01
1026	-0.011
1027	-0.011
1027	-0.011
1028	-0.01
1028	-0.01
1028	-0.009
1029	-0.01
1029	-0.009
1030	-0.009
1030	-0.01
1031	-0.01
1031	-0.009
1031	-0.009
1032	-0.009
1032	-0.009
1033	-0.01
1033	-0.01
1033	-0.01
1034	-0.011
1034	-0.012
1035	-0.012
1035	-0.013
1036	-0.014
1036	-0.014
1036	-0.015
1037	-0.015
1037	-0.015
1038	-0.016
1038	-0.016
1039	-0.016
1039	-0.016
1039	-0.015
1040	-0.016
1040	-0.015
1041	-0.015
1041	-0.015
1041	-0.015
1042	-0.016
1042	-0.016
1043	-0.017
1043	-0.017
1044	-0.017
1044	-0.018
1044	-0.019
1045	-0.019
1045	-0.02
1046	-0.02
1046	-0.02
1046	-0.02
1047	-0.02
1047	-0.02
1048	-0.02
1048	-0.02
1049	-0.02
1049	-0.021
1049	-0.021
1050	-0.022
1050	-0.023
1051	-0.024
1051	-0.025
1051	-0.026
1052	-0.027
1052	-0.028
1053	-0.028
1053	-0.029
1053	-0.029
1054	-0.03
1054	-0.03
1055	-0.03
1055	-0.029
1056	-0.029
1056	-0.029
1056	-0.029
1057	-0.029
1057	-0.029
1058	-0.029
1058	-0.029
1058	-0.029
1059	-0.029
1059	-0.029
1060	-0.03
1060	-0.03
1061	-0.031
1061	-0.031
1061	-0.031
1062	-0.031
1062	-0.031
1063	-0.031
1063	-0.032
1063	-0.032
1064	-0.032
1064	-0.031
1065	-0.031
1065	-0.031
1066	-0.032
1066	-0.032
1066	-0.033
1067	-0.034
1067	-0.034
1068	-0.035
1068	-0.036
1068	-0.037
1069	-0.038
1069	-0.038
1070	-0.039
1070	-0.04
1071	-0.04
1071	-0.04
1071	-0.041
1072	-0.041
1072	-0.041
1073	-0.041
1073	-0.041
1073	-0.041
1074	-0.041
1074	-0.042
1075	-0.042
1075	-0.042
1076	-0.043
1076	-0.043
1076	-0.044
1077	-0.045
1077	-0.046
1078	-0.046
1078	-0.047
1078	-0.048
1079	-0.048
1079	-0.048
1080	-0.049
1080	-0.05
1080	-0.051
1081	-0.052
1081	-0.053
1082	-0.054
1082	-0.055
1083	-0.057
1083	-0.058
1083	-0.059
1084	-0.061
1084	-0.062
1085	-0.063
1085	-0.065
1085	-0.065
1086	-0.066
1086	-0.068
1087	-0.069
1087	-0.069
1088	-0.071
1088	-0.071
1088	-0.072
1089	-0.073
1089	-0.073
1090	-0.073
1090	-0.074
1090	-0.075
1091	-0.076
1091	-0.075
1092	-0.075
1092	-0.075
1092	-0.075
1093	-0.076
1093	-0.076
1094	-0.076
1094	-0.078
1095	-0.078
1095	-0.079
1095	-0.08
1096	-0.082
1096	-0.084
1097	-0.085
1097	-0.087
1097	-0.089
1098	-0.091
1098	-0.093
1099	-0.095
1099	-0.097
1100	-0.099
1100	-0.102
1100	-0.104
1101	-0.108
1101	-0.111
1102	-0.112
1102	-0.115
1102	-0.117
1103	-0.12
1103	-0.123
1104	-0.126
1104	-0.129
1104	-0.13
1105	-0.132
1105	-0.135
1106	-0.14
1106	-0.141
1107	-0.147
1107	-0.152
1107	-0.157
1108	-0.158
1108	-0.16
1109	-0.163
1109	-0.169
1109	-0.173
1110	-0.173
1110	-0.177
1111	-0.191
1111	-0.188
