Data from 3.3A_17C_Absorbance__712__03579.txt Node

Date: Tue Jun 20 17:37:53 CEST 2023
User: Marek
Spectrometer: MAYP115816
Trigger mode: 0
Integration Time (sec): 2.200000E-1
Scans to average: 10
Electric dark correction enabled: true
Nonlinearity correction enabled: true
Boxcar width: 5
XAxis mode: Wavelengths
Number of Pixels in Spectrum: 2068
>>>>>Begin Spectral Data<<<<<
199	-0.804
199	-0.785
200	-0.75
200	-0.696
201	-0.669
201	-0.661
202	-0.646
202	-0.637
203	-0.636
203	-0.629
204	-0.61
204	-0.592
205	-0.57
205	-0.56
205	-0.568
206	-0.569
206	-0.563
207	-0.555
207	-0.561
208	-0.563
208	-0.567
209	-0.568
209	-0.575
210	-0.589
210	-0.597
211	-0.59
211	-0.595
212	-0.604
212	-0.61
213	-0.608
213	-0.602
213	-0.6
214	-0.607
214	-0.608
215	-0.602
215	-0.607
216	-0.617
216	-0.622
217	-0.62
217	-0.62
218	-0.626
218	-0.628
219	-0.635
219	-0.637
220	-0.64
220	-0.648
221	-0.648
221	-0.648
221	-0.64
222	-0.64
222	-0.639
223	-0.635
223	-0.639
224	-0.638
224	-0.636
225	-0.634
225	-0.636
226	-0.636
226	-0.637
227	-0.644
227	-0.654
228	-0.658
228	-0.669
229	-0.673
229	-0.671
229	-0.67
230	-0.665
230	-0.664
231	-0.659
231	-0.653
232	-0.654
232	-0.649
233	-0.648
233	-0.635
234	-0.637
234	-0.632
235	-0.637
235	-0.648
236	-0.655
236	-0.657
236	-0.658
237	-0.657
237	-0.657
238	-0.657
238	-0.659
239	-0.66
239	-0.67
240	-0.663
240	-0.66
241	-0.656
241	-0.658
242	-0.66
242	-0.668
243	-0.67
243	-0.671
243	-0.675
244	-0.671
244	-0.671
245	-0.673
245	-0.676
246	-0.686
246	-0.69
247	-0.7
247	-0.686
248	-0.686
248	-0.688
249	-0.694
249	-0.697
250	-0.697
250	-0.707
250	-0.705
251	-0.705
251	-0.699
252	-0.701
252	-0.713
253	-0.708
253	-0.721
254	-0.725
254	-0.724
255	-0.736
255	-0.734
256	-0.736
256	-0.747
257	-0.758
257	-0.752
258	-0.755
258	-0.763
258	-0.76
259	-0.754
259	-0.772
260	-0.771
260	-0.759
261	-0.768
261	-0.755
262	-0.76
262	-0.76
263	-0.749
263	-0.752
264	-0.762
264	-0.765
265	-0.756
265	-0.759
265	-0.77
266	-0.762
266	-0.763
267	-0.762
267	-0.779
268	-0.787
268	-0.782
269	-0.775
269	-0.788
270	-0.791
270	-0.79
271	-0.802
271	-0.813
272	-0.813
272	-0.817
272	-0.811
273	-0.822
273	-0.837
274	-0.828
274	-0.822
275	-0.819
275	-0.807
276	-0.811
276	-0.817
277	-0.82
277	-0.815
278	-0.82
278	-0.818
278	-0.807
279	-0.817
279	-0.831
280	-0.834
280	-0.843
281	-0.836
281	-0.83
282	-0.835
282	-0.832
283	-0.824
283	-0.839
284	-0.851
284	-0.86
285	-0.84
285	-0.847
285	-0.84
286	-0.846
286	-0.861
287	-0.858
287	-0.855
288	-0.854
288	-0.836
289	-0.836
289	-0.845
290	-0.854
290	-0.844
291	-0.848
291	-0.844
292	-0.825
292	-0.822
292	-0.826
293	-0.815
293	-0.812
294	-0.811
294	-0.798
295	-0.781
295	-0.793
296	-0.803
296	-0.798
297	-0.786
297	-0.792
298	-0.787
298	-0.804
298	-0.808
299	-0.789
299	-0.781
300	-0.778
300	-0.757
301	-0.741
301	-0.744
302	-0.755
302	-0.739
303	-0.733
303	-0.722
304	-0.704
304	-0.707
305	-0.7
305	-0.709
305	-0.724
306	-0.71
306	-0.706
307	-0.698
307	-0.709
308	-0.712
308	-0.706
309	-0.709
309	-0.706
310	-0.702
310	-0.697
311	-0.682
311	-0.7
311	-0.688
312	-0.686
312	-0.675
313	-0.665
313	-0.669
314	-0.673
314	-0.67
315	-0.666
315	-0.66
316	-0.655
316	-0.643
317	-0.636
317	-0.632
318	-0.623
318	-0.621
318	-0.611
319	-0.601
319	-0.594
320	-0.593
320	-0.591
321	-0.587
321	-0.588
322	-0.583
322	-0.576
323	-0.576
323	-0.567
324	-0.564
324	-0.552
324	-0.541
325	-0.526
325	-0.507
326	-0.498
326	-0.474
327	-0.458
327	-0.436
328	-0.406
328	-0.381
329	-0.354
329	-0.327
330	-0.3
330	-0.264
330	-0.229
331	-0.192
331	-0.159
332	-0.126
332	-0.092
333	-0.063
333	-0.03
334	-0.001
334	0.025
335	0.053
335	0.072
336	0.094
336	0.114
336	0.131
337	0.149
337	0.166
338	0.179
338	0.19
339	0.203
339	0.213
340	0.221
340	0.23
341	0.236
341	0.242
342	0.249
342	0.254
342	0.259
343	0.262
343	0.267
344	0.269
344	0.273
345	0.276
345	0.278
346	0.28
346	0.282
347	0.284
347	0.285
348	0.287
348	0.288
348	0.289
349	0.29
349	0.291
350	0.291
350	0.291
351	0.292
351	0.293
352	0.293
352	0.293
353	0.293
353	0.293
354	0.293
354	0.293
354	0.293
355	0.294
355	0.294
356	0.294
356	0.294
357	0.294
357	0.294
358	0.294
358	0.294
359	0.294
359	0.294
360	0.294
360	0.294
360	0.294
361	0.294
361	0.294
362	0.294
362	0.294
363	0.294
363	0.294
364	0.294
364	0.294
365	0.294
365	0.294
366	0.294
366	0.293
366	0.294
367	0.294
367	0.293
368	0.293
368	0.293
369	0.293
369	0.293
370	0.292
370	0.292
371	0.292
371	0.292
372	0.292
372	0.292
372	0.292
373	0.292
373	0.292
374	0.292
374	0.291
375	0.291
375	0.291
376	0.291
376	0.291
377	0.291
377	0.29
378	0.29
378	0.29
378	0.29
379	0.289
379	0.289
380	0.289
380	0.289
381	0.289
381	0.288
382	0.288
382	0.288
383	0.288
383	0.288
383	0.287
384	0.287
384	0.287
385	0.286
385	0.286
386	0.286
386	0.286
387	0.286
387	0.286
388	0.286
388	0.286
389	0.286
389	0.286
389	0.286
390	0.286
390	0.285
391	0.285
391	0.285
392	0.285
392	0.285
393	0.284
393	0.284
394	0.284
394	0.283
394	0.283
395	0.283
395	0.282
396	0.282
396	0.282
397	0.281
397	0.281
398	0.28
398	0.28
399	0.28
399	0.28
400	0.28
400	0.279
400	0.279
401	0.279
401	0.279
402	0.278
402	0.279
403	0.279
403	0.279
404	0.278
404	0.278
405	0.278
405	0.278
405	0.277
406	0.277
406	0.277
407	0.277
407	0.277
408	0.276
408	0.276
409	0.276
409	0.276
410	0.276
410	0.276
411	0.276
411	0.275
411	0.275
412	0.275
412	0.274
413	0.274
413	0.274
414	0.274
414	0.273
415	0.273
415	0.273
416	0.272
416	0.272
416	0.272
417	0.272
417	0.272
418	0.272
418	0.272
419	0.272
419	0.271
420	0.271
420	0.271
421	0.271
421	0.271
421	0.271
422	0.271
422	0.271
423	0.271
423	0.271
424	0.271
424	0.271
425	0.271
425	0.27
426	0.271
426	0.27
427	0.27
427	0.27
427	0.271
428	0.27
428	0.27
429	0.27
429	0.27
430	0.269
430	0.269
431	0.269
431	0.268
432	0.268
432	0.268
432	0.268
433	0.267
433	0.267
434	0.267
434	0.268
435	0.268
435	0.268
436	0.268
436	0.268
437	0.268
437	0.267
437	0.267
438	0.267
438	0.267
439	0.267
439	0.267
440	0.267
440	0.267
441	0.266
441	0.266
442	0.266
442	0.266
442	0.266
443	0.266
443	0.266
444	0.266
444	0.266
445	0.266
445	0.266
446	0.266
446	0.266
447	0.267
447	0.267
447	0.267
448	0.267
448	0.267
449	0.266
449	0.266
450	0.267
450	0.266
451	0.266
451	0.266
452	0.266
452	0.266
452	0.266
453	0.266
453	0.266
454	0.266
454	0.266
455	0.266
455	0.267
456	0.267
456	0.266
457	0.266
457	0.266
458	0.266
458	0.266
458	0.266
459	0.266
459	0.265
460	0.265
460	0.265
461	0.265
461	0.266
462	0.266
462	0.267
463	0.267
463	0.268
463	0.269
464	0.269
464	0.269
465	0.27
465	0.27
466	0.271
466	0.271
467	0.271
467	0.271
467	0.271
468	0.27
468	0.27
469	0.271
469	0.271
470	0.272
470	0.272
471	0.272
471	0.272
472	0.272
472	0.272
472	0.273
473	0.274
473	0.274
474	0.275
474	0.275
475	0.276
475	0.277
476	0.277
476	0.278
477	0.278
477	0.279
477	0.28
478	0.28
478	0.281
479	0.281
479	0.282
480	0.282
480	0.283
481	0.284
481	0.284
482	0.285
482	0.286
482	0.287
483	0.288
483	0.29
484	0.29
484	0.291
485	0.292
485	0.293
486	0.293
486	0.294
487	0.295
487	0.296
487	0.297
488	0.297
488	0.298
489	0.299
489	0.301
490	0.302
490	0.303
491	0.305
491	0.306
492	0.308
492	0.309
492	0.31
493	0.311
493	0.312
494	0.314
494	0.316
495	0.317
495	0.318
496	0.319
496	0.321
496	0.323
497	0.325
497	0.326
498	0.328
498	0.33
499	0.331
499	0.333
500	0.335
500	0.338
501	0.34
501	0.341
501	0.342
502	0.344
502	0.346
503	0.348
503	0.35
504	0.351
504	0.354
505	0.356
505	0.358
506	0.36
506	0.363
506	0.365
507	0.368
507	0.371
508	0.373
508	0.376
509	0.378
509	0.38
510	0.383
510	0.385
511	0.387
511	0.388
511	0.39
512	0.391
512	0.393
513	0.394
513	0.396
514	0.398
514	0.4
515	0.401
515	0.402
515	0.404
516	0.406
516	0.408
517	0.409
517	0.411
518	0.412
518	0.413
519	0.414
519	0.415
520	0.416
520	0.418
520	0.419
521	0.42
521	0.421
522	0.422
522	0.424
523	0.425
523	0.426
524	0.427
524	0.428
524	0.429
525	0.43
525	0.431
526	0.432
526	0.432
527	0.433
527	0.433
528	0.434
528	0.434
529	0.434
529	0.434
529	0.434
530	0.434
530	0.433
531	0.433
531	0.433
532	0.432
532	0.432
533	0.432
533	0.431
533	0.431
534	0.43
534	0.43
535	0.429
535	0.429
536	0.428
536	0.428
537	0.427
537	0.427
538	0.426
538	0.425
538	0.423
539	0.422
539	0.421
540	0.42
540	0.418
541	0.416
541	0.415
542	0.413
542	0.412
542	0.41
543	0.408
543	0.407
544	0.405
544	0.403
545	0.402
545	0.401
546	0.399
546	0.396
547	0.394
547	0.392
547	0.39
548	0.389
548	0.387
549	0.385
549	0.383
550	0.382
550	0.379
551	0.377
551	0.375
551	0.374
552	0.372
552	0.37
553	0.368
553	0.366
554	0.364
554	0.361
555	0.358
555	0.356
556	0.354
556	0.352
556	0.35
557	0.348
557	0.347
558	0.345
558	0.343
559	0.341
559	0.339
560	0.337
560	0.335
560	0.333
561	0.332
561	0.331
562	0.329
562	0.327
563	0.326
563	0.324
564	0.323
564	0.321
564	0.32
565	0.319
565	0.319
566	0.317
566	0.316
567	0.316
567	0.315
568	0.314
568	0.312
568	0.311
569	0.309
569	0.308
570	0.306
570	0.303
571	0.302
571	0.3
572	0.298
572	0.296
573	0.294
573	0.292
573	0.29
574	0.289
574	0.288
575	0.287
575	0.288
576	0.287
576	0.285
577	0.283
577	0.282
577	0.281
578	0.281
578	0.281
579	0.281
579	0.281
580	0.279
580	0.276
581	0.273
581	0.273
581	0.272
582	0.272
582	0.272
583	0.272
583	0.271
584	0.268
584	0.266
585	0.266
585	0.267
585	0.267
586	0.266
586	0.265
587	0.263
587	0.262
588	0.26
588	0.259
589	0.259
589	0.258
590	0.257
590	0.257
590	0.258
591	0.258
591	0.257
592	0.255
592	0.254
593	0.254
593	0.254
594	0.252
594	0.251
594	0.251
595	0.25
595	0.248
596	0.247
596	0.248
597	0.249
597	0.249
598	0.248
598	0.248
598	0.248
599	0.247
599	0.246
600	0.245
600	0.245
601	0.245
601	0.245
602	0.243
602	0.243
602	0.242
603	0.242
603	0.243
604	0.243
604	0.242
605	0.243
605	0.243
606	0.242
606	0.241
606	0.24
607	0.24
607	0.24
608	0.239
608	0.237
609	0.237
609	0.237
610	0.236
610	0.234
610	0.235
611	0.235
611	0.234
612	0.234
612	0.234
613	0.234
613	0.234
614	0.232
614	0.231
614	0.23
615	0.229
615	0.228
616	0.227
616	0.226
617	0.226
617	0.225
618	0.224
618	0.223
618	0.222
619	0.222
619	0.222
620	0.222
620	0.221
621	0.22
621	0.219
622	0.217
622	0.216
622	0.215
623	0.214
623	0.214
624	0.213
624	0.212
625	0.211
625	0.211
626	0.21
626	0.209
626	0.209
627	0.209
627	0.208
628	0.208
628	0.207
629	0.206
629	0.204
630	0.203
630	0.201
630	0.2
631	0.199
631	0.197
632	0.195
632	0.193
633	0.191
633	0.189
634	0.187
634	0.186
634	0.184
635	0.182
635	0.18
636	0.178
636	0.176
637	0.173
637	0.17
638	0.168
638	0.165
638	0.162
639	0.159
639	0.155
640	0.151
640	0.147
641	0.144
641	0.14
642	0.136
642	0.132
642	0.128
643	0.124
643	0.119
644	0.114
644	0.109
645	0.104
645	0.099
646	0.094
646	0.088
646	0.082
647	0.075
647	0.068
648	0.061
648	0.054
649	0.046
649	0.039
650	0.032
650	0.024
650	0.016
651	0.006
651	-0.007
652	-0.021
652	-0.035
653	-0.049
653	-0.06
653	-0.056
654	-0.037
654	-0.032
655	-0.037
655	-0.043
656	-0.049
656	-0.056
657	-0.061
657	-0.066
657	-0.073
658	-0.08
658	-0.113
659	-0.2
659	-0.293
660	-0.334
660	-0.362
661	-0.391
661	-0.421
661	-0.453
662	-0.484
662	-0.516
663	-0.551
663	-0.59
664	-0.628
664	-0.669
665	-0.716
665	-0.764
665	-0.81
666	-0.862
666	-0.918
667	-0.974
667	-1.036
668	-1.096
668	-1.165
669	-1.234
669	-1.308
669	-1.388
670	-1.47
670	-1.583
671	-1.747
671	-2.079
672	-2.319
672	-2.479
672	-2.598
673	-2.693
673	-2.773
674	-2.83
674	-2.846
675	-2.862
675	-2.865
676	-2.861
676	-2.813
676	-2.743
677	-2.657
677	-2.554
678	-2.4
678	-2.142
679	-1.778
679	-1.615
680	-1.512
680	-1.435
680	-1.368
681	-1.32
681	-1.268
682	-1.225
682	-1.182
683	-1.139
683	-1.115
684	-1.086
684	-1.066
684	-1.042
685	-1.021
685	-1.01
686	-0.987
686	-0.972
687	-0.963
687	-0.953
687	-0.952
688	-0.936
688	-0.928
689	-0.931
689	-0.929
690	-0.917
690	-0.905
691	-0.903
691	-0.905
691	-0.905
692	-0.904
692	-0.902
693	-0.909
693	-0.918
694	-0.897
694	-0.896
695	-0.897
695	-0.892
695	-0.902
696	-0.909
696	-0.902
697	-0.894
697	-0.888
698	-0.882
698	-0.876
698	-0.89
699	-0.887
699	-0.888
700	-0.908
700	-0.899
701	-0.887
701	-0.88
702	-0.882
702	-0.881
702	-0.882
703	-0.873
703	-0.86
704	-0.869
704	-0.873
705	-0.861
705	-0.862
705	-0.856
706	-0.849
706	-0.845
707	-0.858
707	-0.861
708	-0.858
708	-0.856
709	-0.855
709	-0.852
709	-0.848
710	-0.854
710	-0.857
711	-0.857
711	-0.859
712	-0.848
712	-0.845
713	-0.85
713	-0.85
713	-0.833
714	-0.835
714	-0.838
715	-0.829
715	-0.838
716	-0.853
716	-0.862
716	-0.862
717	-0.868
717	-0.86
718	-0.856
718	-0.856
719	-0.852
719	-0.845
720	-0.839
720	-0.833
720	-0.828
721	-0.816
721	-0.821
722	-0.819
722	-0.816
723	-0.833
723	-0.846
723	-0.852
724	-0.851
724	-0.857
725	-0.852
725	-0.855
726	-0.859
726	-0.848
727	-0.849
727	-0.858
727	-0.849
728	-0.835
728	-0.832
729	-0.835
729	-0.838
730	-0.842
730	-0.834
730	-0.841
731	-0.845
731	-0.846
732	-0.847
732	-0.842
733	-0.855
733	-0.863
734	-0.871
734	-0.862
734	-0.844
735	-0.835
735	-0.829
736	-0.828
736	-0.821
737	-0.819
737	-0.808
737	-0.8
738	-0.786
738	-0.774
739	-0.776
739	-0.777
740	-0.79
740	-0.791
741	-0.801
741	-0.811
741	-0.821
742	-0.829
742	-0.846
743	-0.852
743	-0.854
744	-0.859
744	-0.867
744	-0.861
745	-0.87
745	-0.859
746	-0.856
746	-0.845
747	-0.847
747	-0.836
748	-0.837
748	-0.842
748	-0.842
749	-0.835
749	-0.841
750	-0.833
750	-0.833
751	-0.831
751	-0.829
751	-0.84
752	-0.843
752	-0.847
753	-0.848
753	-0.84
754	-0.86
754	-0.859
754	-0.865
755	-0.866
755	-0.858
756	-0.863
756	-0.848
757	-0.841
757	-0.83
758	-0.831
758	-0.832
758	-0.826
759	-0.832
759	-0.831
760	-0.83
760	-0.832
761	-0.825
761	-0.83
761	-0.83
762	-0.837
762	-0.836
763	-0.836
763	-0.839
764	-0.838
764	-0.835
764	-0.839
765	-0.839
765	-0.846
766	-0.849
766	-0.851
767	-0.866
767	-0.863
768	-0.86
768	-0.854
768	-0.849
769	-0.852
769	-0.861
770	-0.87
770	-0.875
771	-0.87
771	-0.87
771	-0.875
772	-0.878
772	-0.901
773	-0.901
773	-0.9
774	-0.897
774	-0.88
775	-0.866
775	-0.865
775	-0.87
776	-0.88
776	-0.876
777	-0.877
777	-0.859
778	-0.867
778	-0.878
778	-0.879
779	-0.889
779	-0.905
780	-0.9
780	-0.907
781	-0.898
781	-0.887
781	-0.902
782	-0.924
782	-0.926
783	-0.923
783	-0.932
784	-0.935
784	-0.929
784	-0.95
785	-0.943
785	-0.956
786	-0.96
786	-0.952
787	-0.942
787	-0.95
788	-0.944
788	-0.937
788	-0.938
789	-0.938
789	-0.926
790	-0.925
790	-0.908
791	-0.915
791	-0.911
791	-0.903
792	-0.898
792	-0.903
793	-0.906
793	-0.891
794	-0.883
794	-0.877
794	-0.885
795	-0.907
795	-0.892
796	-0.897
796	-0.895
797	-0.885
797	-0.876
797	-0.867
798	-0.891
798	-0.895
799	-0.894
799	-0.88
800	-0.874
800	-0.883
801	-0.882
801	-0.884
801	-0.882
802	-0.881
802	-0.88
803	-0.873
803	-0.866
804	-0.87
804	-0.879
804	-0.862
805	-0.842
805	-0.831
806	-0.831
806	-0.827
807	-0.828
807	-0.828
807	-0.81
808	-0.807
808	-0.802
809	-0.797
809	-0.799
810	-0.803
810	-0.801
810	-0.796
811	-0.802
811	-0.794
812	-0.787
812	-0.79
813	-0.793
813	-0.794
813	-0.79
814	-0.789
814	-0.792
815	-0.783
815	-0.78
816	-0.774
816	-0.791
817	-0.803
817	-0.808
817	-0.818
818	-0.81
818	-0.808
819	-0.817
819	-0.817
820	-0.828
820	-0.829
820	-0.829
821	-0.824
821	-0.819
822	-0.817
822	-0.806
823	-0.819
823	-0.818
823	-0.813
824	-0.811
824	-0.82
825	-0.818
825	-0.815
826	-0.81
826	-0.807
826	-0.807
827	-0.807
827	-0.795
828	-0.793
828	-0.787
829	-0.781
829	-0.766
829	-0.763
830	-0.761
830	-0.746
831	-0.737
831	-0.725
832	-0.716
832	-0.712
832	-0.706
833	-0.703
833	-0.709
834	-0.703
834	-0.696
835	-0.689
835	-0.691
835	-0.687
836	-0.683
836	-0.679
837	-0.667
837	-0.658
838	-0.646
838	-0.628
839	-0.623
839	-0.612
839	-0.601
840	-0.599
840	-0.588
841	-0.577
841	-0.569
842	-0.561
842	-0.548
842	-0.545
843	-0.542
843	-0.538
844	-0.532
844	-0.521
845	-0.506
845	-0.496
845	-0.486
846	-0.475
846	-0.464
847	-0.454
847	-0.441
848	-0.425
848	-0.408
848	-0.394
849	-0.382
849	-0.371
850	-0.361
850	-0.35
851	-0.336
851	-0.318
851	-0.308
852	-0.292
852	-0.279
853	-0.269
853	-0.258
854	-0.247
854	-0.234
854	-0.221
855	-0.209
855	-0.2
856	-0.192
856	-0.183
857	-0.175
857	-0.166
857	-0.152
858	-0.139
858	-0.132
859	-0.12
859	-0.108
860	-0.096
860	-0.08
860	-0.07
861	-0.059
861	-0.048
862	-0.038
862	-0.03
863	-0.022
863	-0.011
863	-0.004
864	0.003
864	0.011
865	0.019
865	0.025
866	0.031
866	0.038
866	0.044
867	0.05
867	0.055
868	0.06
868	0.065
869	0.071
869	0.074
869	0.076
870	0.078
870	0.08
871	0.081
871	0.083
872	0.084
872	0.085
872	0.085
873	0.085
873	0.085
874	0.084
874	0.084
875	0.083
875	0.083
875	0.083
876	0.083
876	0.082
877	0.082
877	0.081
878	0.081
878	0.081
878	0.081
879	0.08
879	0.08
880	0.079
880	0.078
881	0.077
881	0.076
881	0.074
882	0.073
882	0.071
883	0.07
883	0.068
884	0.067
884	0.066
884	0.066
885	0.065
885	0.065
886	0.065
886	0.065
887	0.064
887	0.064
887	0.064
888	0.063
888	0.062
889	0.061
889	0.06
890	0.059
890	0.059
890	0.058
891	0.058
891	0.058
892	0.058
892	0.058
893	0.059
893	0.059
893	0.059
894	0.06
894	0.06
895	0.06
895	0.06
895	0.06
896	0.06
896	0.059
897	0.06
897	0.06
898	0.06
898	0.06
898	0.06
899	0.06
899	0.06
900	0.06
900	0.06
901	0.06
901	0.06
901	0.06
902	0.06
902	0.06
903	0.06
903	0.06
904	0.059
904	0.059
904	0.059
905	0.059
905	0.059
906	0.059
906	0.06
907	0.059
907	0.059
907	0.059
908	0.06
908	0.06
909	0.06
909	0.061
910	0.061
910	0.062
910	0.062
911	0.062
911	0.063
912	0.064
912	0.064
913	0.065
913	0.066
913	0.066
914	0.067
914	0.067
915	0.067
915	0.067
916	0.066
916	0.066
916	0.066
917	0.066
917	0.065
918	0.065
918	0.064
918	0.064
919	0.063
919	0.063
920	0.063
920	0.064
921	0.064
921	0.064
921	0.064
922	0.064
922	0.064
923	0.064
923	0.064
924	0.064
924	0.064
924	0.063
925	0.062
925	0.061
926	0.06
926	0.059
927	0.059
927	0.058
927	0.058
928	0.057
928	0.057
929	0.058
929	0.059
930	0.059
930	0.06
930	0.06
931	0.061
931	0.062
932	0.063
932	0.064
933	0.064
933	0.065
933	0.064
934	0.064
934	0.063
935	0.063
935	0.062
935	0.061
936	0.059
936	0.058
937	0.057
937	0.056
938	0.055
938	0.054
938	0.054
939	0.053
939	0.052
940	0.052
940	0.051
941	0.05
941	0.049
941	0.049
942	0.049
942	0.048
943	0.048
943	0.048
944	0.047
944	0.046
944	0.046
945	0.045
945	0.045
946	0.045
946	0.043
946	0.043
947	0.043
947	0.042
948	0.043
948	0.044
949	0.044
949	0.045
949	0.047
950	0.048
950	0.049
951	0.051
951	0.052
952	0.053
952	0.054
952	0.055
953	0.056
953	0.056
954	0.056
954	0.056
955	0.056
955	0.056
955	0.055
956	0.054
956	0.054
957	0.053
957	0.052
957	0.051
958	0.05
958	0.049
959	0.048
959	0.048
960	0.047
960	0.047
960	0.047
961	0.047
961	0.047
962	0.047
962	0.047
963	0.048
963	0.048
963	0.049
964	0.049
964	0.05
965	0.05
965	0.051
966	0.051
966	0.052
966	0.053
967	0.053
967	0.053
968	0.053
968	0.054
968	0.054
969	0.054
969	0.054
970	0.053
970	0.053
971	0.053
971	0.053
971	0.053
972	0.053
972	0.053
973	0.053
973	0.053
974	0.053
974	0.053
974	0.053
975	0.053
975	0.053
976	0.052
976	0.052
976	0.052
977	0.051
977	0.051
978	0.05
978	0.049
979	0.049
979	0.049
979	0.049
980	0.049
980	0.049
981	0.049
981	0.049
982	0.049
982	0.049
982	0.049
983	0.049
983	0.049
984	0.049
984	0.048
984	0.048
985	0.047
985	0.047
986	0.046
986	0.045
987	0.044
987	0.044
987	0.043
988	0.042
988	0.041
989	0.04
989	0.039
990	0.038
990	0.037
990	0.035
991	0.034
991	0.033
992	0.032
992	0.031
992	0.031
993	0.03
993	0.029
994	0.028
994	0.027
995	0.026
995	0.025
995	0.023
996	0.022
996	0.021
997	0.02
997	0.019
997	0.019
998	0.018
998	0.018
999	0.018
999	0.018
1000	0.019
1000	0.019
1000	0.02
1001	0.021
1001	0.021
1002	0.022
1002	0.022
1003	0.023
1003	0.023
1003	0.023
1004	0.023
1004	0.023
1005	0.023
1005	0.023
1005	0.023
1006	0.022
1006	0.022
1007	0.021
1007	0.02
1008	0.02
1008	0.019
1008	0.019
1009	0.019
1009	0.02
1010	0.02
1010	0.021
1010	0.021
1011	0.022
1011	0.022
1012	0.023
1012	0.024
1013	0.026
1013	0.026
1013	0.027
1014	0.027
1014	0.028
1015	0.028
1015	0.029
1016	0.029
1016	0.029
1016	0.028
1017	0.028
1017	0.027
1018	0.027
1018	0.027
1018	0.027
1019	0.026
1019	0.026
1020	0.025
1020	0.025
1021	0.025
1021	0.024
1021	0.024
1022	0.024
1022	0.024
1023	0.024
1023	0.024
1023	0.024
1024	0.024
1024	0.024
1025	0.024
1025	0.024
1026	0.024
1026	0.025
1026	0.025
1027	0.025
1027	0.025
1028	0.026
1028	0.026
1028	0.027
1029	0.027
1029	0.028
1030	0.027
1030	0.027
1031	0.028
1031	0.028
1031	0.028
1032	0.028
1032	0.028
1033	0.027
1033	0.027
1033	0.026
1034	0.025
1034	0.024
1035	0.024
1035	0.023
1036	0.022
1036	0.021
1036	0.021
1037	0.02
1037	0.02
1038	0.019
1038	0.02
1039	0.02
1039	0.02
1039	0.02
1040	0.02
1040	0.02
1041	0.02
1041	0.019
1041	0.019
1042	0.018
1042	0.017
1043	0.017
1043	0.016
1044	0.015
1044	0.015
1044	0.014
1045	0.014
1045	0.013
1046	0.013
1046	0.013
1046	0.013
1047	0.013
1047	0.014
1048	0.014
1048	0.014
1049	0.014
1049	0.014
1049	0.014
1050	0.014
1050	0.013
1051	0.012
1051	0.011
1051	0.01
1052	0.009
1052	0.008
1053	0.008
1053	0.007
1053	0.007
1054	0.006
1054	0.006
1055	0.006
1055	0.006
1056	0.007
1056	0.006
1056	0.006
1057	0.006
1057	0.006
1058	0.007
1058	0.006
1058	0.007
1059	0.006
1059	0.006
1060	0.005
1060	0.005
1061	0.004
1061	0.004
1061	0.004
1062	0.003
1062	0.003
1063	0.003
1063	0.003
1063	0.003
1064	0.003
1064	0.003
1065	0.003
1065	0.003
1066	0.002
1066	0.001
1066	0.001
1067	0
1067	-0.001
1068	-0.002
1068	-0.003
1068	-0.004
1069	-0.005
1069	-0.007
1070	-0.008
1070	-0.009
1071	-0.009
1071	-0.01
1071	-0.011
1072	-0.011
1072	-0.011
1073	-0.011
1073	-0.011
1073	-0.012
1074	-0.011
1074	-0.011
1075	-0.012
1075	-0.012
1076	-0.013
1076	-0.013
1076	-0.014
1077	-0.014
1077	-0.015
1078	-0.015
1078	-0.016
1078	-0.016
1079	-0.017
1079	-0.017
1080	-0.018
1080	-0.019
1080	-0.02
1081	-0.021
1081	-0.022
1082	-0.022
1082	-0.023
1083	-0.025
1083	-0.026
1083	-0.027
1084	-0.028
1084	-0.029
1085	-0.031
1085	-0.032
1085	-0.032
1086	-0.033
1086	-0.035
1087	-0.035
1087	-0.036
1088	-0.037
1088	-0.038
1088	-0.038
1089	-0.04
1089	-0.041
1090	-0.042
1090	-0.042
1090	-0.044
1091	-0.045
1091	-0.045
1092	-0.046
1092	-0.046
1092	-0.048
1093	-0.049
1093	-0.048
1094	-0.049
1094	-0.05
1095	-0.052
1095	-0.053
1095	-0.054
1096	-0.056
1096	-0.058
1097	-0.059
1097	-0.061
1097	-0.063
1098	-0.065
1098	-0.067
1099	-0.069
1099	-0.071
1100	-0.074
1100	-0.076
1100	-0.079
1101	-0.083
1101	-0.086
1102	-0.088
1102	-0.091
1102	-0.093
1103	-0.095
1103	-0.098
1104	-0.102
1104	-0.104
1104	-0.106
1105	-0.108
1105	-0.111
1106	-0.115
1106	-0.118
1107	-0.123
1107	-0.128
1107	-0.133
1108	-0.134
1108	-0.134
1109	-0.138
1109	-0.143
1109	-0.147
1110	-0.15
1110	-0.153
1111	-0.162
1111	-0.158
