Data from 3.3A_17C_Absorbance__221__03088.txt Node

Date: Tue Jun 20 17:19:53 CEST 2023
User: Marek
Spectrometer: MAYP115816
Trigger mode: 0
Integration Time (sec): 2.200000E-1
Scans to average: 10
Electric dark correction enabled: true
Nonlinearity correction enabled: true
Boxcar width: 5
XAxis mode: Wavelengths
Number of Pixels in Spectrum: 2068
>>>>>Begin Spectral Data<<<<<
199	-0.81
199	-0.793
200	-0.757
200	-0.7
201	-0.675
201	-0.665
202	-0.647
202	-0.638
203	-0.637
203	-0.631
204	-0.612
204	-0.595
205	-0.572
205	-0.562
205	-0.573
206	-0.573
206	-0.569
207	-0.562
207	-0.569
208	-0.572
208	-0.577
209	-0.578
209	-0.582
210	-0.595
210	-0.602
211	-0.594
211	-0.599
212	-0.608
212	-0.616
213	-0.613
213	-0.607
213	-0.605
214	-0.613
214	-0.617
215	-0.613
215	-0.618
216	-0.627
216	-0.632
217	-0.63
217	-0.631
218	-0.638
218	-0.641
219	-0.645
219	-0.647
220	-0.651
220	-0.66
221	-0.659
221	-0.66
221	-0.65
222	-0.649
222	-0.649
223	-0.645
223	-0.648
224	-0.65
224	-0.648
225	-0.645
225	-0.647
226	-0.648
226	-0.648
227	-0.656
227	-0.666
228	-0.668
228	-0.677
229	-0.681
229	-0.678
229	-0.677
230	-0.673
230	-0.67
231	-0.668
231	-0.662
232	-0.665
232	-0.659
233	-0.659
233	-0.646
234	-0.648
234	-0.643
235	-0.647
235	-0.658
236	-0.662
236	-0.663
236	-0.664
237	-0.661
237	-0.662
238	-0.662
238	-0.664
239	-0.665
239	-0.675
240	-0.668
240	-0.665
241	-0.662
241	-0.665
242	-0.668
242	-0.677
243	-0.677
243	-0.68
243	-0.686
244	-0.681
244	-0.683
245	-0.686
245	-0.689
246	-0.697
246	-0.7
247	-0.708
247	-0.695
248	-0.695
248	-0.698
249	-0.704
249	-0.706
250	-0.703
250	-0.712
250	-0.71
251	-0.71
251	-0.706
252	-0.707
252	-0.718
253	-0.713
253	-0.723
254	-0.726
254	-0.728
255	-0.74
255	-0.738
256	-0.741
256	-0.753
257	-0.763
257	-0.76
258	-0.763
258	-0.77
258	-0.769
259	-0.761
259	-0.78
260	-0.779
260	-0.768
261	-0.777
261	-0.762
262	-0.768
262	-0.767
263	-0.758
263	-0.763
264	-0.772
264	-0.774
265	-0.766
265	-0.769
265	-0.779
266	-0.773
266	-0.772
267	-0.77
267	-0.785
268	-0.794
268	-0.787
269	-0.778
269	-0.793
270	-0.796
270	-0.793
271	-0.806
271	-0.816
272	-0.818
272	-0.823
272	-0.818
273	-0.827
273	-0.842
274	-0.836
274	-0.831
275	-0.828
275	-0.817
276	-0.82
276	-0.825
277	-0.827
277	-0.822
278	-0.828
278	-0.828
278	-0.818
279	-0.824
279	-0.839
280	-0.841
280	-0.85
281	-0.845
281	-0.836
282	-0.842
282	-0.837
283	-0.829
283	-0.844
284	-0.856
284	-0.866
285	-0.846
285	-0.852
285	-0.845
286	-0.849
286	-0.865
287	-0.862
287	-0.862
288	-0.861
288	-0.841
289	-0.84
289	-0.848
290	-0.857
290	-0.847
291	-0.85
291	-0.849
292	-0.829
292	-0.826
292	-0.829
293	-0.816
293	-0.813
294	-0.813
294	-0.798
295	-0.779
295	-0.79
296	-0.802
296	-0.795
297	-0.784
297	-0.789
298	-0.786
298	-0.803
298	-0.806
299	-0.787
299	-0.781
300	-0.778
300	-0.758
301	-0.74
301	-0.743
302	-0.754
302	-0.739
303	-0.732
303	-0.72
304	-0.705
304	-0.709
305	-0.701
305	-0.711
305	-0.728
306	-0.712
306	-0.711
307	-0.702
307	-0.712
308	-0.714
308	-0.711
309	-0.713
309	-0.708
310	-0.707
310	-0.702
311	-0.688
311	-0.706
311	-0.694
312	-0.691
312	-0.679
313	-0.67
313	-0.672
314	-0.676
314	-0.675
315	-0.67
315	-0.663
316	-0.657
316	-0.645
317	-0.637
317	-0.634
318	-0.628
318	-0.624
318	-0.612
319	-0.601
319	-0.592
320	-0.592
320	-0.589
321	-0.583
321	-0.583
322	-0.577
322	-0.57
323	-0.57
323	-0.563
324	-0.561
324	-0.55
324	-0.539
325	-0.523
325	-0.506
326	-0.497
326	-0.472
327	-0.456
327	-0.433
328	-0.4
328	-0.374
329	-0.344
329	-0.314
330	-0.284
330	-0.246
330	-0.209
331	-0.17
331	-0.134
332	-0.097
332	-0.061
333	-0.028
333	0.01
334	0.044
334	0.071
335	0.101
335	0.126
336	0.152
336	0.177
336	0.197
337	0.217
337	0.236
338	0.252
338	0.264
339	0.28
339	0.294
340	0.304
340	0.313
341	0.322
341	0.328
342	0.337
342	0.344
342	0.35
343	0.355
343	0.361
344	0.365
344	0.369
345	0.373
345	0.376
346	0.378
346	0.381
347	0.383
347	0.385
348	0.387
348	0.389
348	0.39
349	0.391
349	0.391
350	0.392
350	0.393
351	0.394
351	0.395
352	0.394
352	0.395
353	0.395
353	0.396
354	0.396
354	0.396
354	0.396
355	0.396
355	0.396
356	0.396
356	0.396
357	0.396
357	0.396
358	0.396
358	0.396
359	0.396
359	0.396
360	0.396
360	0.396
360	0.396
361	0.396
361	0.396
362	0.396
362	0.396
363	0.396
363	0.396
364	0.396
364	0.396
365	0.396
365	0.395
366	0.395
366	0.394
366	0.394
367	0.394
367	0.394
368	0.393
368	0.393
369	0.392
369	0.392
370	0.392
370	0.392
371	0.391
371	0.391
372	0.391
372	0.39
372	0.39
373	0.39
373	0.39
374	0.389
374	0.389
375	0.389
375	0.388
376	0.388
376	0.387
377	0.387
377	0.387
378	0.387
378	0.386
378	0.386
379	0.385
379	0.385
380	0.385
380	0.384
381	0.384
381	0.383
382	0.383
382	0.383
383	0.382
383	0.382
383	0.381
384	0.381
384	0.381
385	0.38
385	0.38
386	0.379
386	0.379
387	0.378
387	0.378
388	0.377
388	0.377
389	0.377
389	0.376
389	0.376
390	0.376
390	0.376
391	0.375
391	0.375
392	0.374
392	0.374
393	0.374
393	0.373
394	0.373
394	0.372
394	0.372
395	0.371
395	0.371
396	0.37
396	0.37
397	0.369
397	0.369
398	0.368
398	0.368
399	0.367
399	0.367
400	0.366
400	0.366
400	0.366
401	0.365
401	0.365
402	0.364
402	0.364
403	0.364
403	0.363
404	0.363
404	0.363
405	0.362
405	0.362
405	0.362
406	0.362
406	0.362
407	0.361
407	0.361
408	0.361
408	0.36
409	0.36
409	0.36
410	0.36
410	0.359
411	0.359
411	0.359
411	0.358
412	0.358
412	0.357
413	0.357
413	0.357
414	0.357
414	0.356
415	0.356
415	0.355
416	0.355
416	0.355
416	0.354
417	0.354
417	0.354
418	0.354
418	0.353
419	0.353
419	0.353
420	0.353
420	0.353
421	0.352
421	0.352
421	0.352
422	0.352
422	0.352
423	0.352
423	0.352
424	0.351
424	0.351
425	0.351
425	0.351
426	0.351
426	0.351
427	0.35
427	0.35
427	0.351
428	0.35
428	0.35
429	0.35
429	0.349
430	0.349
430	0.349
431	0.349
431	0.348
432	0.348
432	0.348
432	0.347
433	0.347
433	0.347
434	0.348
434	0.348
435	0.348
435	0.348
436	0.348
436	0.348
437	0.348
437	0.347
437	0.347
438	0.348
438	0.347
439	0.347
439	0.347
440	0.347
440	0.347
441	0.347
441	0.347
442	0.346
442	0.346
442	0.346
443	0.346
443	0.346
444	0.346
444	0.346
445	0.346
445	0.346
446	0.346
446	0.346
447	0.347
447	0.347
447	0.347
448	0.347
448	0.347
449	0.347
449	0.347
450	0.347
450	0.347
451	0.347
451	0.347
452	0.347
452	0.348
452	0.348
453	0.348
453	0.348
454	0.348
454	0.349
455	0.349
455	0.349
456	0.349
456	0.349
457	0.349
457	0.349
458	0.349
458	0.349
458	0.35
459	0.35
459	0.349
460	0.349
460	0.349
461	0.35
461	0.35
462	0.351
462	0.352
463	0.353
463	0.354
463	0.355
464	0.356
464	0.356
465	0.357
465	0.358
466	0.358
466	0.359
467	0.359
467	0.359
467	0.359
468	0.359
468	0.36
469	0.36
469	0.361
470	0.362
470	0.363
471	0.363
471	0.364
472	0.365
472	0.365
472	0.367
473	0.368
473	0.369
474	0.37
474	0.371
475	0.372
475	0.373
476	0.374
476	0.375
477	0.377
477	0.378
477	0.379
478	0.38
478	0.381
479	0.382
479	0.384
480	0.385
480	0.386
481	0.387
481	0.388
482	0.39
482	0.391
482	0.393
483	0.396
483	0.398
484	0.4
484	0.401
485	0.403
485	0.405
486	0.406
486	0.408
487	0.41
487	0.412
487	0.413
488	0.415
488	0.416
489	0.418
489	0.421
490	0.423
490	0.425
491	0.428
491	0.43
492	0.432
492	0.435
492	0.437
493	0.439
493	0.442
494	0.445
494	0.448
495	0.45
495	0.453
496	0.456
496	0.458
496	0.462
497	0.465
497	0.468
498	0.471
498	0.474
499	0.477
499	0.481
500	0.484
500	0.488
501	0.492
501	0.495
501	0.498
502	0.501
502	0.504
503	0.508
503	0.511
504	0.514
504	0.517
505	0.521
505	0.524
506	0.528
506	0.532
506	0.537
507	0.541
507	0.545
508	0.549
508	0.553
509	0.557
509	0.561
510	0.564
510	0.568
511	0.571
511	0.574
511	0.577
512	0.58
512	0.583
513	0.586
513	0.589
514	0.592
514	0.596
515	0.599
515	0.601
515	0.603
516	0.606
516	0.61
517	0.612
517	0.615
518	0.617
518	0.619
519	0.62
519	0.622
520	0.624
520	0.626
520	0.628
521	0.63
521	0.632
522	0.633
522	0.635
523	0.637
523	0.639
524	0.641
524	0.642
524	0.643
525	0.644
525	0.644
526	0.646
526	0.646
527	0.646
527	0.646
528	0.646
528	0.646
529	0.645
529	0.645
529	0.645
530	0.644
530	0.644
531	0.643
531	0.642
532	0.641
532	0.64
533	0.639
533	0.637
533	0.636
534	0.633
534	0.632
535	0.63
535	0.628
536	0.626
536	0.624
537	0.621
537	0.619
538	0.616
538	0.613
538	0.61
539	0.608
539	0.605
540	0.602
540	0.598
541	0.594
541	0.591
542	0.587
542	0.583
542	0.579
543	0.575
543	0.571
544	0.567
544	0.563
545	0.559
545	0.556
546	0.552
546	0.547
547	0.543
547	0.538
547	0.534
548	0.53
548	0.526
549	0.521
549	0.517
550	0.512
550	0.508
551	0.502
551	0.497
551	0.493
552	0.488
552	0.484
553	0.479
553	0.475
554	0.47
554	0.465
555	0.46
555	0.455
556	0.451
556	0.446
556	0.442
557	0.437
557	0.433
558	0.428
558	0.423
559	0.419
559	0.414
560	0.409
560	0.404
560	0.4
561	0.397
561	0.393
562	0.389
562	0.385
563	0.38
563	0.376
564	0.372
564	0.369
564	0.365
565	0.361
565	0.358
566	0.354
566	0.35
567	0.347
567	0.343
568	0.34
568	0.336
568	0.332
569	0.328
569	0.324
570	0.32
570	0.315
571	0.312
571	0.308
572	0.304
572	0.3
573	0.296
573	0.292
573	0.288
574	0.285
574	0.282
575	0.279
575	0.277
576	0.274
576	0.27
577	0.267
577	0.264
577	0.262
578	0.26
578	0.258
579	0.257
579	0.254
580	0.25
580	0.245
581	0.241
581	0.238
581	0.236
582	0.234
582	0.233
583	0.231
583	0.227
584	0.223
584	0.219
585	0.217
585	0.216
585	0.214
586	0.212
586	0.21
587	0.207
587	0.204
588	0.201
588	0.199
589	0.197
589	0.195
590	0.193
590	0.191
590	0.19
591	0.188
591	0.186
592	0.183
592	0.181
593	0.179
593	0.178
594	0.176
594	0.173
594	0.172
595	0.17
595	0.167
596	0.165
596	0.165
597	0.165
597	0.163
598	0.162
598	0.16
598	0.159
599	0.158
599	0.156
600	0.154
600	0.153
601	0.152
601	0.151
602	0.148
602	0.147
602	0.145
603	0.144
603	0.144
604	0.143
604	0.142
605	0.141
605	0.141
606	0.139
606	0.137
606	0.136
607	0.134
607	0.134
608	0.132
608	0.13
609	0.129
609	0.128
610	0.126
610	0.124
610	0.124
611	0.123
611	0.122
612	0.122
612	0.121
613	0.121
613	0.12
614	0.118
614	0.116
614	0.115
615	0.113
615	0.112
616	0.111
616	0.109
617	0.108
617	0.107
618	0.106
618	0.105
618	0.104
619	0.103
619	0.103
620	0.103
620	0.102
621	0.1
621	0.1
622	0.098
622	0.097
622	0.095
623	0.094
623	0.094
624	0.093
624	0.092
625	0.091
625	0.091
626	0.089
626	0.089
626	0.089
627	0.089
627	0.088
628	0.088
628	0.087
629	0.086
629	0.085
630	0.084
630	0.082
630	0.082
631	0.081
631	0.079
632	0.078
632	0.077
633	0.076
633	0.074
634	0.074
634	0.073
634	0.073
635	0.071
635	0.07
636	0.069
636	0.068
637	0.067
637	0.065
638	0.064
638	0.063
638	0.061
639	0.058
639	0.056
640	0.054
640	0.052
641	0.049
641	0.047
642	0.045
642	0.043
642	0.04
643	0.038
643	0.035
644	0.032
644	0.029
645	0.026
645	0.024
646	0.021
646	0.017
646	0.014
647	0.01
647	0.006
648	0.001
648	-0.003
649	-0.009
649	-0.013
650	-0.018
650	-0.023
650	-0.028
651	-0.035
651	-0.043
652	-0.052
652	-0.062
653	-0.07
653	-0.078
653	-0.073
654	-0.061
654	-0.062
655	-0.067
655	-0.07
656	-0.075
656	-0.08
657	-0.084
657	-0.087
657	-0.092
658	-0.097
658	-0.122
659	-0.186
659	-0.246
660	-0.275
660	-0.295
661	-0.315
661	-0.338
661	-0.361
662	-0.381
662	-0.401
663	-0.422
663	-0.446
664	-0.466
664	-0.492
665	-0.52
665	-0.548
665	-0.574
666	-0.602
666	-0.633
667	-0.665
667	-0.705
668	-0.742
668	-0.792
669	-0.841
669	-0.894
669	-0.955
670	-1.023
670	-1.156
671	-1.413
671	-1.791
672	-2.173
672	-2.382
672	-2.527
673	-2.638
673	-2.683
674	-2.704
674	-2.713
675	-2.728
675	-2.732
676	-2.728
676	-2.691
676	-2.592
677	-2.459
677	-2.266
678	-1.864
678	-1.367
679	-1.183
679	-1.101
680	-1.043
680	-1.002
680	-0.968
681	-0.952
681	-0.925
682	-0.908
682	-0.883
683	-0.859
683	-0.855
684	-0.843
684	-0.84
684	-0.832
685	-0.828
685	-0.83
686	-0.817
686	-0.814
687	-0.814
687	-0.812
687	-0.821
688	-0.811
688	-0.811
689	-0.821
689	-0.822
690	-0.814
690	-0.808
691	-0.809
691	-0.816
691	-0.819
692	-0.823
692	-0.822
693	-0.832
693	-0.848
694	-0.83
694	-0.833
695	-0.838
695	-0.834
695	-0.844
696	-0.853
696	-0.848
697	-0.844
697	-0.842
698	-0.839
698	-0.832
698	-0.85
699	-0.848
699	-0.848
700	-0.87
700	-0.865
701	-0.853
701	-0.849
702	-0.85
702	-0.85
702	-0.851
703	-0.842
703	-0.829
704	-0.84
704	-0.845
705	-0.835
705	-0.835
705	-0.831
706	-0.825
706	-0.822
707	-0.834
707	-0.838
708	-0.836
708	-0.833
709	-0.834
709	-0.83
709	-0.826
710	-0.835
710	-0.837
711	-0.837
711	-0.837
712	-0.828
712	-0.826
713	-0.832
713	-0.833
713	-0.814
714	-0.816
714	-0.821
715	-0.812
715	-0.82
716	-0.837
716	-0.847
716	-0.849
717	-0.855
717	-0.846
718	-0.842
718	-0.84
719	-0.837
719	-0.829
720	-0.823
720	-0.82
720	-0.815
721	-0.806
721	-0.809
722	-0.807
722	-0.804
723	-0.821
723	-0.838
723	-0.847
724	-0.847
724	-0.853
725	-0.847
725	-0.849
726	-0.853
726	-0.846
727	-0.849
727	-0.856
727	-0.849
728	-0.833
728	-0.829
729	-0.831
729	-0.835
730	-0.84
730	-0.83
730	-0.836
731	-0.838
731	-0.838
732	-0.839
732	-0.832
733	-0.847
733	-0.854
734	-0.862
734	-0.852
734	-0.836
735	-0.826
735	-0.822
736	-0.821
736	-0.814
737	-0.815
737	-0.805
737	-0.799
738	-0.784
738	-0.773
739	-0.777
739	-0.779
740	-0.794
740	-0.795
741	-0.806
741	-0.817
741	-0.827
742	-0.834
742	-0.85
743	-0.857
743	-0.859
744	-0.864
744	-0.872
744	-0.866
745	-0.875
745	-0.863
746	-0.858
746	-0.85
747	-0.851
747	-0.84
748	-0.842
748	-0.846
748	-0.845
749	-0.836
749	-0.842
750	-0.832
750	-0.832
751	-0.831
751	-0.828
751	-0.842
752	-0.845
752	-0.849
753	-0.849
753	-0.843
754	-0.862
754	-0.862
754	-0.872
755	-0.872
755	-0.865
756	-0.867
756	-0.851
757	-0.843
757	-0.832
758	-0.835
758	-0.835
758	-0.83
759	-0.836
759	-0.836
760	-0.835
760	-0.838
761	-0.832
761	-0.837
761	-0.839
762	-0.845
762	-0.846
763	-0.846
763	-0.85
764	-0.848
764	-0.843
764	-0.85
765	-0.848
765	-0.856
766	-0.86
766	-0.862
767	-0.876
767	-0.871
768	-0.869
768	-0.862
768	-0.857
769	-0.86
769	-0.867
770	-0.876
770	-0.879
771	-0.875
771	-0.874
771	-0.88
772	-0.885
772	-0.905
773	-0.907
773	-0.906
774	-0.905
774	-0.888
775	-0.876
775	-0.874
775	-0.877
776	-0.886
776	-0.881
777	-0.878
777	-0.861
778	-0.869
778	-0.877
778	-0.877
779	-0.886
779	-0.903
780	-0.901
780	-0.909
781	-0.9
781	-0.89
781	-0.902
782	-0.921
782	-0.921
783	-0.92
783	-0.927
784	-0.931
784	-0.925
784	-0.942
785	-0.936
785	-0.95
786	-0.955
786	-0.951
787	-0.943
787	-0.954
788	-0.946
788	-0.942
788	-0.943
789	-0.942
789	-0.932
790	-0.932
790	-0.915
791	-0.919
791	-0.916
791	-0.909
792	-0.903
792	-0.908
793	-0.91
793	-0.897
794	-0.89
794	-0.884
794	-0.89
795	-0.911
795	-0.899
796	-0.904
796	-0.9
797	-0.894
797	-0.884
797	-0.878
798	-0.897
798	-0.902
799	-0.902
799	-0.889
800	-0.884
800	-0.894
801	-0.892
801	-0.895
801	-0.891
802	-0.89
802	-0.888
803	-0.883
803	-0.875
804	-0.879
804	-0.888
804	-0.872
805	-0.851
805	-0.841
806	-0.844
806	-0.842
807	-0.843
807	-0.843
807	-0.825
808	-0.822
808	-0.816
809	-0.81
809	-0.81
810	-0.815
810	-0.813
810	-0.808
811	-0.812
811	-0.803
812	-0.794
812	-0.798
813	-0.802
813	-0.803
813	-0.799
814	-0.799
814	-0.804
815	-0.794
815	-0.789
816	-0.784
816	-0.801
817	-0.816
817	-0.82
817	-0.829
818	-0.823
818	-0.82
819	-0.832
819	-0.83
820	-0.842
820	-0.843
820	-0.842
821	-0.837
821	-0.83
822	-0.831
822	-0.819
823	-0.83
823	-0.831
823	-0.825
824	-0.822
824	-0.833
825	-0.83
825	-0.828
826	-0.824
826	-0.821
826	-0.818
827	-0.818
827	-0.809
828	-0.807
828	-0.801
829	-0.795
829	-0.78
829	-0.779
830	-0.777
830	-0.762
831	-0.756
831	-0.747
832	-0.738
832	-0.732
832	-0.725
833	-0.724
833	-0.73
834	-0.724
834	-0.718
835	-0.71
835	-0.709
835	-0.704
836	-0.7
836	-0.697
837	-0.686
837	-0.677
838	-0.663
838	-0.646
839	-0.642
839	-0.63
839	-0.621
840	-0.619
840	-0.609
841	-0.598
841	-0.592
842	-0.584
842	-0.573
842	-0.572
843	-0.569
843	-0.563
844	-0.558
844	-0.547
845	-0.535
845	-0.526
845	-0.515
846	-0.503
846	-0.493
847	-0.484
847	-0.473
848	-0.457
848	-0.442
848	-0.429
849	-0.417
849	-0.404
850	-0.393
850	-0.382
851	-0.37
851	-0.353
851	-0.343
852	-0.326
852	-0.314
853	-0.304
853	-0.293
854	-0.282
854	-0.272
854	-0.261
855	-0.25
855	-0.242
856	-0.234
856	-0.226
857	-0.219
857	-0.212
857	-0.2
858	-0.19
858	-0.183
859	-0.171
859	-0.16
860	-0.15
860	-0.136
860	-0.126
861	-0.116
861	-0.107
862	-0.098
862	-0.09
863	-0.082
863	-0.073
863	-0.067
864	-0.06
864	-0.053
865	-0.046
865	-0.04
866	-0.035
866	-0.029
866	-0.024
867	-0.018
867	-0.013
868	-0.009
868	-0.004
869	0
869	0.003
869	0.006
870	0.008
870	0.01
871	0.012
871	0.013
872	0.014
872	0.015
872	0.016
873	0.016
873	0.015
874	0.015
874	0.015
875	0.014
875	0.014
875	0.014
876	0.014
876	0.014
877	0.014
877	0.013
878	0.013
878	0.012
878	0.012
879	0.012
879	0.012
880	0.011
880	0.01
881	0.009
881	0.007
881	0.006
882	0.005
882	0.003
883	0.002
883	0.001
884	0
884	-0
884	-0.001
885	-0.001
885	-0.001
886	-0.001
886	-0.001
887	-0.001
887	-0.002
887	-0.002
888	-0.002
888	-0.003
889	-0.004
889	-0.005
890	-0.006
890	-0.007
890	-0.007
891	-0.007
891	-0.008
892	-0.007
892	-0.007
893	-0.006
893	-0.006
893	-0.006
894	-0.005
894	-0.004
895	-0.004
895	-0.004
895	-0.004
896	-0.004
896	-0.004
897	-0.003
897	-0.003
898	-0.003
898	-0.003
898	-0.003
899	-0.003
899	-0.003
900	-0.003
900	-0.003
901	-0.003
901	-0.003
901	-0.004
902	-0.004
902	-0.004
903	-0.004
903	-0.004
904	-0.005
904	-0.005
904	-0.005
905	-0.005
905	-0.005
906	-0.004
906	-0.004
907	-0.004
907	-0.004
907	-0.003
908	-0.003
908	-0.002
909	-0.002
909	-0.001
910	-0
910	0
910	0.001
911	0.001
911	0.002
912	0.003
912	0.004
913	0.005
913	0.005
913	0.006
914	0.007
914	0.007
915	0.007
915	0.007
916	0.007
916	0.006
916	0.006
917	0.005
917	0.005
918	0.004
918	0.004
918	0.003
919	0.003
919	0.003
920	0.003
920	0.003
921	0.004
921	0.004
921	0.004
922	0.005
922	0.005
923	0.005
923	0.005
924	0.005
924	0.004
924	0.003
925	0.002
925	0.001
926	-0
926	-0.001
927	-0.002
927	-0.003
927	-0.004
928	-0.005
928	-0.005
929	-0.005
929	-0.004
930	-0.003
930	-0.003
930	-0.002
931	-0.001
931	0
932	0.002
932	0.003
933	0.004
933	0.004
933	0.004
934	0.003
934	0.003
935	0.003
935	0.001
935	0
936	-0.001
936	-0.003
937	-0.004
937	-0.004
938	-0.005
938	-0.006
938	-0.006
939	-0.007
939	-0.008
940	-0.008
940	-0.008
941	-0.009
941	-0.009
941	-0.009
942	-0.01
942	-0.01
943	-0.01
943	-0.01
944	-0.01
944	-0.011
944	-0.011
945	-0.012
945	-0.012
946	-0.012
946	-0.013
946	-0.014
947	-0.014
947	-0.014
948	-0.014
948	-0.013
949	-0.013
949	-0.011
949	-0.009
950	-0.008
950	-0.006
951	-0.005
951	-0.004
952	-0.003
952	-0.001
952	-0
953	0.001
953	0.001
954	0.001
954	0
955	0
955	0
955	-0
956	-0.001
956	-0.001
957	-0.003
957	-0.004
957	-0.005
958	-0.006
958	-0.006
959	-0.007
959	-0.008
960	-0.008
960	-0.008
960	-0.008
961	-0.008
961	-0.007
962	-0.007
962	-0.007
963	-0.006
963	-0.005
963	-0.005
964	-0.004
964	-0.003
965	-0.003
965	-0.002
966	-0.002
966	-0.001
966	-0
967	0.001
967	0.001
968	0.001
968	0.001
968	0.001
969	0.001
969	0.001
970	0
970	0
971	-0
971	-0
971	-0
972	-0
972	0
973	0
973	-0
974	-0
974	-0
974	-0
975	-0
975	-0
976	-0.001
976	-0.001
976	-0.001
977	-0.002
977	-0.002
978	-0.003
978	-0.003
979	-0.004
979	-0.004
979	-0.005
980	-0.005
980	-0.005
981	-0.005
981	-0.005
982	-0.006
982	-0.006
982	-0.005
983	-0.005
983	-0.006
984	-0.006
984	-0.006
984	-0.006
985	-0.006
985	-0.007
986	-0.007
986	-0.008
987	-0.009
987	-0.009
987	-0.01
988	-0.011
988	-0.011
989	-0.012
989	-0.013
990	-0.013
990	-0.015
990	-0.015
991	-0.016
991	-0.017
992	-0.018
992	-0.019
992	-0.019
993	-0.02
993	-0.021
994	-0.023
994	-0.024
995	-0.025
995	-0.027
995	-0.028
996	-0.029
996	-0.03
997	-0.031
997	-0.032
997	-0.032
998	-0.032
998	-0.032
999	-0.031
999	-0.031
1000	-0.031
1000	-0.03
1000	-0.029
1001	-0.028
1001	-0.027
1002	-0.026
1002	-0.026
1003	-0.025
1003	-0.025
1003	-0.024
1004	-0.024
1004	-0.023
1005	-0.024
1005	-0.024
1005	-0.024
1006	-0.025
1006	-0.026
1007	-0.026
1007	-0.027
1008	-0.028
1008	-0.029
1008	-0.029
1009	-0.029
1009	-0.029
1010	-0.029
1010	-0.028
1010	-0.028
1011	-0.027
1011	-0.026
1012	-0.025
1012	-0.024
1013	-0.023
1013	-0.022
1013	-0.021
1014	-0.021
1014	-0.02
1015	-0.02
1015	-0.019
1016	-0.019
1016	-0.019
1016	-0.019
1017	-0.02
1017	-0.02
1018	-0.02
1018	-0.02
1018	-0.02
1019	-0.02
1019	-0.021
1020	-0.021
1020	-0.022
1021	-0.022
1021	-0.022
1021	-0.023
1022	-0.023
1022	-0.024
1023	-0.024
1023	-0.024
1023	-0.024
1024	-0.024
1024	-0.024
1025	-0.023
1025	-0.023
1026	-0.023
1026	-0.023
1026	-0.023
1027	-0.022
1027	-0.022
1028	-0.022
1028	-0.021
1028	-0.021
1029	-0.021
1029	-0.02
1030	-0.021
1030	-0.021
1031	-0.021
1031	-0.02
1031	-0.02
1032	-0.02
1032	-0.02
1033	-0.021
1033	-0.021
1033	-0.022
1034	-0.023
1034	-0.024
1035	-0.024
1035	-0.025
1036	-0.026
1036	-0.026
1036	-0.027
1037	-0.027
1037	-0.027
1038	-0.028
1038	-0.028
1039	-0.028
1039	-0.027
1039	-0.027
1040	-0.027
1040	-0.026
1041	-0.026
1041	-0.026
1041	-0.027
1042	-0.027
1042	-0.027
1043	-0.028
1043	-0.028
1044	-0.029
1044	-0.03
1044	-0.03
1045	-0.03
1045	-0.031
1046	-0.031
1046	-0.032
1046	-0.032
1047	-0.032
1047	-0.032
1048	-0.031
1048	-0.031
1049	-0.032
1049	-0.032
1049	-0.033
1050	-0.033
1050	-0.034
1051	-0.035
1051	-0.035
1051	-0.036
1052	-0.037
1052	-0.038
1053	-0.038
1053	-0.039
1053	-0.039
1054	-0.04
1054	-0.04
1055	-0.039
1055	-0.039
1056	-0.039
1056	-0.039
1056	-0.039
1057	-0.039
1057	-0.039
1058	-0.039
1058	-0.039
1058	-0.039
1059	-0.039
1059	-0.04
1060	-0.04
1060	-0.041
1061	-0.041
1061	-0.041
1061	-0.041
1062	-0.041
1062	-0.041
1063	-0.041
1063	-0.042
1063	-0.042
1064	-0.042
1064	-0.042
1065	-0.042
1065	-0.042
1066	-0.042
1066	-0.043
1066	-0.043
1067	-0.044
1067	-0.045
1068	-0.045
1068	-0.046
1068	-0.047
1069	-0.048
1069	-0.049
1070	-0.05
1070	-0.05
1071	-0.051
1071	-0.051
1071	-0.052
1072	-0.052
1072	-0.052
1073	-0.052
1073	-0.052
1073	-0.052
1074	-0.051
1074	-0.051
1075	-0.052
1075	-0.052
1076	-0.053
1076	-0.053
1076	-0.054
1077	-0.054
1077	-0.055
1078	-0.056
1078	-0.056
1078	-0.056
1079	-0.057
1079	-0.058
1080	-0.059
1080	-0.059
1080	-0.061
1081	-0.061
1081	-0.062
1082	-0.063
1082	-0.064
1083	-0.066
1083	-0.067
1083	-0.069
1084	-0.07
1084	-0.071
1085	-0.072
1085	-0.073
1085	-0.074
1086	-0.075
1086	-0.077
1087	-0.077
1087	-0.077
1088	-0.079
1088	-0.079
1088	-0.08
1089	-0.081
1089	-0.082
1090	-0.083
1090	-0.083
1090	-0.084
1091	-0.085
1091	-0.085
1092	-0.086
1092	-0.085
1092	-0.086
1093	-0.087
1093	-0.087
1094	-0.087
1094	-0.088
1095	-0.089
1095	-0.09
1095	-0.09
1096	-0.092
1096	-0.093
1097	-0.095
1097	-0.098
1097	-0.099
1098	-0.101
1098	-0.103
1099	-0.105
1099	-0.106
1100	-0.108
1100	-0.111
1100	-0.114
1101	-0.117
1101	-0.12
1102	-0.122
1102	-0.124
1102	-0.126
1103	-0.129
1103	-0.133
1104	-0.136
1104	-0.14
1104	-0.141
1105	-0.143
1105	-0.145
1106	-0.15
1106	-0.152
1107	-0.158
1107	-0.163
1107	-0.168
1108	-0.169
1108	-0.171
1109	-0.173
1109	-0.178
1109	-0.181
1110	-0.185
1110	-0.19
1111	-0.199
1111	-0.194
