Data from 3.3A_17C_Absorbance__266__03133.txt Node

Date: Tue Jun 20 17:21:32 CEST 2023
User: Marek
Spectrometer: MAYP115816
Trigger mode: 0
Integration Time (sec): 2.200000E-1
Scans to average: 10
Electric dark correction enabled: true
Nonlinearity correction enabled: true
Boxcar width: 5
XAxis mode: Wavelengths
Number of Pixels in Spectrum: 2068
>>>>>Begin Spectral Data<<<<<
199	-0.808
199	-0.791
200	-0.757
200	-0.703
201	-0.676
201	-0.665
202	-0.649
202	-0.64
203	-0.64
203	-0.633
204	-0.612
204	-0.596
205	-0.573
205	-0.563
205	-0.574
206	-0.575
206	-0.571
207	-0.565
207	-0.571
208	-0.572
208	-0.577
209	-0.578
209	-0.584
210	-0.597
210	-0.605
211	-0.597
211	-0.601
212	-0.61
212	-0.616
213	-0.615
213	-0.61
213	-0.607
214	-0.614
214	-0.616
215	-0.612
215	-0.616
216	-0.626
216	-0.63
217	-0.63
217	-0.631
218	-0.637
218	-0.639
219	-0.645
219	-0.647
220	-0.651
220	-0.658
221	-0.659
221	-0.658
221	-0.651
222	-0.649
222	-0.649
223	-0.644
223	-0.646
224	-0.646
224	-0.644
225	-0.64
225	-0.641
226	-0.641
226	-0.641
227	-0.648
227	-0.659
228	-0.663
228	-0.672
229	-0.678
229	-0.675
229	-0.676
230	-0.672
230	-0.668
231	-0.666
231	-0.661
232	-0.663
232	-0.657
233	-0.658
233	-0.646
234	-0.646
234	-0.643
235	-0.647
235	-0.659
236	-0.668
236	-0.67
236	-0.67
237	-0.668
237	-0.669
238	-0.668
238	-0.668
239	-0.669
239	-0.679
240	-0.673
240	-0.668
241	-0.663
241	-0.665
242	-0.67
242	-0.677
243	-0.677
243	-0.679
243	-0.685
244	-0.682
244	-0.683
245	-0.685
245	-0.689
246	-0.7
246	-0.702
247	-0.71
247	-0.697
248	-0.697
248	-0.7
249	-0.706
249	-0.708
250	-0.706
250	-0.714
250	-0.711
251	-0.711
251	-0.706
252	-0.706
252	-0.718
253	-0.712
253	-0.724
254	-0.728
254	-0.729
255	-0.74
255	-0.741
256	-0.744
256	-0.756
257	-0.767
257	-0.765
258	-0.767
258	-0.773
258	-0.77
259	-0.763
259	-0.782
260	-0.779
260	-0.767
261	-0.777
261	-0.763
262	-0.769
262	-0.766
263	-0.755
263	-0.761
264	-0.77
264	-0.772
265	-0.762
265	-0.767
265	-0.777
266	-0.768
266	-0.769
267	-0.767
267	-0.784
268	-0.794
268	-0.789
269	-0.781
269	-0.797
270	-0.801
270	-0.797
271	-0.811
271	-0.821
272	-0.82
272	-0.824
272	-0.819
273	-0.828
273	-0.843
274	-0.833
274	-0.825
275	-0.822
275	-0.81
276	-0.812
276	-0.819
277	-0.822
277	-0.819
278	-0.823
278	-0.822
278	-0.81
279	-0.821
279	-0.836
280	-0.839
280	-0.849
281	-0.845
281	-0.836
282	-0.843
282	-0.837
283	-0.829
283	-0.844
284	-0.857
284	-0.866
285	-0.845
285	-0.852
285	-0.845
286	-0.848
286	-0.864
287	-0.86
287	-0.859
288	-0.859
288	-0.84
289	-0.839
289	-0.847
290	-0.855
290	-0.841
291	-0.845
291	-0.843
292	-0.825
292	-0.821
292	-0.827
293	-0.815
293	-0.813
294	-0.813
294	-0.797
295	-0.781
295	-0.796
296	-0.808
296	-0.801
297	-0.79
297	-0.793
298	-0.79
298	-0.808
298	-0.812
299	-0.794
299	-0.788
300	-0.784
300	-0.762
301	-0.744
301	-0.746
302	-0.756
302	-0.743
303	-0.735
303	-0.721
304	-0.704
304	-0.707
305	-0.7
305	-0.709
305	-0.726
306	-0.71
306	-0.71
307	-0.7
307	-0.711
308	-0.713
308	-0.708
309	-0.711
309	-0.706
310	-0.702
310	-0.697
311	-0.684
311	-0.704
311	-0.691
312	-0.687
312	-0.675
313	-0.667
313	-0.669
314	-0.675
314	-0.674
315	-0.671
315	-0.664
316	-0.656
316	-0.645
317	-0.636
317	-0.634
318	-0.627
318	-0.624
318	-0.612
319	-0.599
319	-0.59
320	-0.588
320	-0.587
321	-0.583
321	-0.581
322	-0.577
322	-0.569
323	-0.568
323	-0.56
324	-0.558
324	-0.546
324	-0.536
325	-0.521
325	-0.503
326	-0.494
326	-0.469
327	-0.453
327	-0.43
328	-0.398
328	-0.374
329	-0.344
329	-0.316
330	-0.287
330	-0.249
330	-0.21
331	-0.171
331	-0.136
332	-0.098
332	-0.063
333	-0.03
333	0.006
334	0.039
334	0.068
335	0.098
335	0.123
336	0.147
336	0.172
336	0.19
337	0.21
337	0.228
338	0.244
338	0.257
339	0.273
339	0.286
340	0.295
340	0.305
341	0.314
341	0.321
342	0.33
342	0.337
342	0.343
343	0.348
343	0.354
344	0.357
344	0.361
345	0.365
345	0.367
346	0.37
346	0.372
347	0.374
347	0.376
348	0.377
348	0.379
348	0.38
349	0.381
349	0.382
350	0.383
350	0.384
351	0.384
351	0.385
352	0.385
352	0.385
353	0.386
353	0.386
354	0.386
354	0.386
354	0.386
355	0.386
355	0.386
356	0.386
356	0.386
357	0.387
357	0.387
358	0.387
358	0.387
359	0.387
359	0.387
360	0.387
360	0.387
360	0.387
361	0.387
361	0.387
362	0.386
362	0.386
363	0.386
363	0.386
364	0.386
364	0.386
365	0.386
365	0.385
366	0.385
366	0.385
366	0.385
367	0.385
367	0.385
368	0.384
368	0.384
369	0.384
369	0.384
370	0.383
370	0.383
371	0.383
371	0.383
372	0.382
372	0.382
372	0.382
373	0.382
373	0.381
374	0.381
374	0.381
375	0.38
375	0.38
376	0.379
376	0.379
377	0.379
377	0.378
378	0.378
378	0.377
378	0.377
379	0.376
379	0.376
380	0.376
380	0.376
381	0.375
381	0.375
382	0.375
382	0.374
383	0.374
383	0.374
383	0.373
384	0.373
384	0.372
385	0.372
385	0.371
386	0.371
386	0.371
387	0.37
387	0.37
388	0.37
388	0.37
389	0.369
389	0.369
389	0.369
390	0.368
390	0.368
391	0.368
391	0.368
392	0.367
392	0.367
393	0.366
393	0.366
394	0.365
394	0.365
394	0.364
395	0.364
395	0.363
396	0.363
396	0.362
397	0.362
397	0.361
398	0.361
398	0.361
399	0.36
399	0.36
400	0.359
400	0.359
400	0.359
401	0.359
401	0.358
402	0.358
402	0.358
403	0.358
403	0.357
404	0.357
404	0.356
405	0.356
405	0.356
405	0.355
406	0.355
406	0.355
407	0.355
407	0.354
408	0.354
408	0.353
409	0.353
409	0.353
410	0.353
410	0.352
411	0.352
411	0.352
411	0.352
412	0.351
412	0.351
413	0.35
413	0.35
414	0.35
414	0.349
415	0.349
415	0.349
416	0.348
416	0.348
416	0.347
417	0.347
417	0.347
418	0.347
418	0.347
419	0.347
419	0.347
420	0.346
420	0.346
421	0.346
421	0.346
421	0.346
422	0.346
422	0.346
423	0.346
423	0.345
424	0.345
424	0.345
425	0.345
425	0.345
426	0.344
426	0.344
427	0.344
427	0.344
427	0.344
428	0.344
428	0.344
429	0.344
429	0.343
430	0.343
430	0.343
431	0.343
431	0.342
432	0.342
432	0.342
432	0.341
433	0.341
433	0.341
434	0.341
434	0.341
435	0.341
435	0.341
436	0.341
436	0.341
437	0.341
437	0.341
437	0.341
438	0.341
438	0.341
439	0.341
439	0.341
440	0.34
440	0.34
441	0.34
441	0.34
442	0.34
442	0.34
442	0.34
443	0.34
443	0.34
444	0.34
444	0.34
445	0.34
445	0.34
446	0.34
446	0.34
447	0.34
447	0.34
447	0.34
448	0.34
448	0.34
449	0.341
449	0.341
450	0.341
450	0.341
451	0.341
451	0.341
452	0.341
452	0.341
452	0.341
453	0.341
453	0.341
454	0.341
454	0.342
455	0.342
455	0.342
456	0.342
456	0.342
457	0.342
457	0.342
458	0.342
458	0.342
458	0.342
459	0.342
459	0.342
460	0.341
460	0.342
461	0.342
461	0.343
462	0.343
462	0.344
463	0.345
463	0.346
463	0.347
464	0.347
464	0.348
465	0.349
465	0.349
466	0.35
466	0.35
467	0.351
467	0.351
467	0.351
468	0.35
468	0.351
469	0.352
469	0.352
470	0.353
470	0.354
471	0.354
471	0.355
472	0.355
472	0.356
472	0.357
473	0.358
473	0.36
474	0.36
474	0.361
475	0.362
475	0.363
476	0.364
476	0.365
477	0.366
477	0.368
477	0.368
478	0.369
478	0.37
479	0.372
479	0.373
480	0.374
480	0.375
481	0.376
481	0.377
482	0.378
482	0.38
482	0.381
483	0.384
483	0.386
484	0.387
484	0.389
485	0.39
485	0.393
486	0.394
486	0.396
487	0.397
487	0.399
487	0.401
488	0.402
488	0.403
489	0.405
489	0.408
490	0.409
490	0.411
491	0.414
491	0.416
492	0.418
492	0.42
492	0.422
493	0.424
493	0.427
494	0.43
494	0.433
495	0.435
495	0.437
496	0.44
496	0.442
496	0.445
497	0.448
497	0.451
498	0.453
498	0.456
499	0.459
499	0.462
500	0.466
500	0.47
501	0.473
501	0.476
501	0.478
502	0.482
502	0.485
503	0.488
503	0.491
504	0.494
504	0.497
505	0.501
505	0.504
506	0.508
506	0.512
506	0.516
507	0.519
507	0.523
508	0.527
508	0.531
509	0.535
509	0.538
510	0.542
510	0.545
511	0.548
511	0.551
511	0.554
512	0.557
512	0.559
513	0.562
513	0.565
514	0.568
514	0.571
515	0.574
515	0.576
515	0.578
516	0.581
516	0.584
517	0.587
517	0.589
518	0.591
518	0.593
519	0.595
519	0.596
520	0.598
520	0.601
520	0.603
521	0.604
521	0.606
522	0.607
522	0.609
523	0.611
523	0.613
524	0.614
524	0.615
524	0.617
525	0.618
525	0.619
526	0.62
526	0.62
527	0.621
527	0.621
528	0.621
528	0.621
529	0.621
529	0.621
529	0.62
530	0.62
530	0.62
531	0.619
531	0.618
532	0.617
532	0.617
533	0.616
533	0.615
533	0.614
534	0.612
534	0.61
535	0.609
535	0.607
536	0.606
536	0.604
537	0.602
537	0.6
538	0.598
538	0.595
538	0.593
539	0.591
539	0.589
540	0.586
540	0.583
541	0.579
541	0.576
542	0.573
542	0.57
542	0.567
543	0.564
543	0.56
544	0.556
544	0.553
545	0.549
545	0.546
546	0.543
546	0.539
547	0.535
547	0.53
547	0.527
548	0.524
548	0.52
549	0.517
549	0.513
550	0.509
550	0.505
551	0.5
551	0.497
551	0.493
552	0.489
552	0.485
553	0.481
553	0.477
554	0.473
554	0.469
555	0.464
555	0.461
556	0.456
556	0.452
556	0.448
557	0.444
557	0.441
558	0.437
558	0.433
559	0.429
559	0.425
560	0.421
560	0.416
560	0.413
561	0.41
561	0.407
562	0.403
562	0.4
563	0.396
563	0.393
564	0.389
564	0.386
564	0.383
565	0.38
565	0.377
566	0.373
566	0.37
567	0.368
567	0.365
568	0.361
568	0.358
568	0.354
569	0.351
569	0.348
570	0.344
570	0.34
571	0.337
571	0.334
572	0.33
572	0.326
573	0.322
573	0.319
573	0.315
574	0.312
574	0.31
575	0.307
575	0.306
576	0.303
576	0.3
577	0.296
577	0.294
577	0.292
578	0.29
578	0.289
579	0.287
579	0.285
580	0.281
580	0.277
581	0.273
581	0.27
581	0.269
582	0.267
582	0.265
583	0.264
583	0.261
584	0.257
584	0.253
585	0.251
585	0.25
585	0.249
586	0.247
586	0.245
587	0.242
587	0.239
588	0.236
588	0.234
589	0.233
589	0.231
590	0.229
590	0.227
590	0.226
591	0.225
591	0.222
592	0.22
592	0.217
593	0.216
593	0.214
594	0.212
594	0.21
594	0.208
595	0.207
595	0.204
596	0.201
596	0.201
597	0.201
597	0.2
598	0.198
598	0.196
598	0.195
599	0.194
599	0.192
600	0.19
600	0.189
601	0.188
601	0.187
602	0.184
602	0.183
602	0.181
603	0.18
603	0.18
604	0.179
604	0.178
605	0.178
605	0.177
606	0.175
606	0.173
606	0.172
607	0.17
607	0.169
608	0.168
608	0.166
609	0.164
609	0.163
610	0.161
610	0.16
610	0.159
611	0.158
611	0.157
612	0.157
612	0.156
613	0.155
613	0.154
614	0.152
614	0.15
614	0.149
615	0.147
615	0.145
616	0.144
616	0.143
617	0.142
617	0.14
618	0.138
618	0.137
618	0.136
619	0.135
619	0.135
620	0.135
620	0.134
621	0.132
621	0.131
622	0.129
622	0.128
622	0.126
623	0.125
623	0.124
624	0.124
624	0.122
625	0.121
625	0.121
626	0.119
626	0.118
626	0.118
627	0.117
627	0.117
628	0.116
628	0.115
629	0.114
629	0.113
630	0.111
630	0.109
630	0.108
631	0.107
631	0.105
632	0.103
632	0.102
633	0.1
633	0.098
634	0.097
634	0.095
634	0.094
635	0.092
635	0.09
636	0.089
636	0.087
637	0.085
637	0.082
638	0.08
638	0.078
638	0.075
639	0.072
639	0.069
640	0.066
640	0.062
641	0.059
641	0.056
642	0.052
642	0.049
642	0.046
643	0.042
643	0.038
644	0.034
644	0.03
645	0.026
645	0.022
646	0.018
646	0.013
646	0.008
647	0.003
647	-0.003
648	-0.008
648	-0.014
649	-0.02
649	-0.026
650	-0.031
650	-0.037
650	-0.044
651	-0.052
651	-0.061
652	-0.072
652	-0.083
653	-0.093
653	-0.101
653	-0.096
654	-0.08
654	-0.077
655	-0.082
655	-0.085
656	-0.091
656	-0.096
657	-0.1
657	-0.103
657	-0.108
658	-0.113
658	-0.14
659	-0.212
659	-0.284
660	-0.316
660	-0.338
661	-0.359
661	-0.383
661	-0.408
662	-0.43
662	-0.454
663	-0.481
663	-0.51
664	-0.538
664	-0.568
665	-0.602
665	-0.637
665	-0.671
666	-0.709
666	-0.751
667	-0.794
667	-0.844
668	-0.892
668	-0.95
669	-1.009
669	-1.073
669	-1.144
670	-1.222
670	-1.358
671	-1.606
671	-1.984
672	-2.266
672	-2.444
672	-2.572
673	-2.674
673	-2.738
674	-2.761
674	-2.771
675	-2.786
675	-2.789
676	-2.781
676	-2.729
676	-2.639
677	-2.524
677	-2.367
678	-2.088
678	-1.593
679	-1.382
679	-1.279
680	-1.204
680	-1.149
680	-1.103
681	-1.075
681	-1.038
682	-1.012
682	-0.983
683	-0.951
683	-0.941
684	-0.924
684	-0.915
684	-0.902
685	-0.891
685	-0.888
686	-0.872
686	-0.864
687	-0.861
687	-0.854
687	-0.859
688	-0.847
688	-0.846
689	-0.853
689	-0.853
690	-0.844
690	-0.836
691	-0.838
691	-0.843
691	-0.843
692	-0.847
692	-0.846
693	-0.855
693	-0.868
694	-0.85
694	-0.85
695	-0.854
695	-0.852
695	-0.86
696	-0.869
696	-0.864
697	-0.859
697	-0.855
698	-0.852
698	-0.846
698	-0.861
699	-0.86
699	-0.862
700	-0.882
700	-0.877
701	-0.865
701	-0.862
702	-0.862
702	-0.861
702	-0.861
703	-0.853
703	-0.841
704	-0.851
704	-0.856
705	-0.844
705	-0.844
705	-0.839
706	-0.83
706	-0.827
707	-0.84
707	-0.843
708	-0.839
708	-0.838
709	-0.837
709	-0.831
709	-0.827
710	-0.836
710	-0.839
711	-0.84
711	-0.842
712	-0.833
712	-0.829
713	-0.836
713	-0.836
713	-0.817
714	-0.82
714	-0.825
715	-0.817
715	-0.826
716	-0.842
716	-0.852
716	-0.854
717	-0.861
717	-0.853
718	-0.848
718	-0.851
719	-0.847
719	-0.839
720	-0.833
720	-0.828
720	-0.82
721	-0.811
721	-0.816
722	-0.812
722	-0.809
723	-0.827
723	-0.838
723	-0.848
724	-0.847
724	-0.854
725	-0.848
725	-0.855
726	-0.857
726	-0.849
727	-0.853
727	-0.864
727	-0.853
728	-0.841
728	-0.835
729	-0.838
729	-0.84
730	-0.845
730	-0.835
730	-0.841
731	-0.845
731	-0.844
732	-0.843
732	-0.839
733	-0.855
733	-0.863
734	-0.872
734	-0.863
734	-0.846
735	-0.836
735	-0.83
736	-0.827
736	-0.822
737	-0.821
737	-0.809
737	-0.802
738	-0.788
738	-0.776
739	-0.778
739	-0.781
740	-0.795
740	-0.798
741	-0.81
741	-0.82
741	-0.83
742	-0.837
742	-0.851
743	-0.858
743	-0.86
744	-0.862
744	-0.869
744	-0.863
745	-0.87
745	-0.857
746	-0.852
746	-0.843
747	-0.846
747	-0.837
748	-0.838
748	-0.842
748	-0.845
749	-0.839
749	-0.845
750	-0.836
750	-0.837
751	-0.838
751	-0.835
751	-0.846
752	-0.85
752	-0.852
753	-0.854
753	-0.847
754	-0.868
754	-0.869
754	-0.879
755	-0.88
755	-0.871
756	-0.874
756	-0.859
757	-0.851
757	-0.84
758	-0.84
758	-0.839
758	-0.834
759	-0.839
759	-0.837
760	-0.834
760	-0.836
761	-0.829
761	-0.834
761	-0.835
762	-0.842
762	-0.843
763	-0.843
763	-0.846
764	-0.844
764	-0.841
764	-0.846
765	-0.845
765	-0.853
766	-0.856
766	-0.857
767	-0.873
767	-0.867
768	-0.865
768	-0.858
768	-0.853
769	-0.854
769	-0.862
770	-0.871
770	-0.875
771	-0.873
771	-0.873
771	-0.877
772	-0.883
772	-0.903
773	-0.904
773	-0.904
774	-0.903
774	-0.887
775	-0.877
775	-0.876
775	-0.877
776	-0.888
776	-0.884
777	-0.884
777	-0.867
778	-0.876
778	-0.884
778	-0.884
779	-0.892
779	-0.906
780	-0.901
780	-0.91
781	-0.898
781	-0.888
781	-0.9
782	-0.92
782	-0.922
783	-0.922
783	-0.931
784	-0.934
784	-0.929
784	-0.949
785	-0.942
785	-0.955
786	-0.961
786	-0.956
787	-0.945
787	-0.954
788	-0.944
788	-0.936
788	-0.94
789	-0.938
789	-0.927
790	-0.928
790	-0.912
791	-0.919
791	-0.915
791	-0.91
792	-0.903
792	-0.91
793	-0.913
793	-0.899
794	-0.894
794	-0.888
794	-0.896
795	-0.916
795	-0.901
796	-0.906
796	-0.902
797	-0.895
797	-0.886
797	-0.881
798	-0.902
798	-0.904
799	-0.905
799	-0.888
800	-0.884
800	-0.893
801	-0.891
801	-0.894
801	-0.892
802	-0.892
802	-0.89
803	-0.885
803	-0.878
804	-0.884
804	-0.893
804	-0.878
805	-0.859
805	-0.849
806	-0.85
806	-0.847
807	-0.847
807	-0.848
807	-0.83
808	-0.827
808	-0.819
809	-0.813
809	-0.814
810	-0.816
810	-0.813
810	-0.808
811	-0.811
811	-0.803
812	-0.796
812	-0.799
813	-0.802
813	-0.804
813	-0.8
814	-0.801
814	-0.808
815	-0.8
815	-0.795
816	-0.789
816	-0.805
817	-0.817
817	-0.821
817	-0.829
818	-0.822
818	-0.819
819	-0.828
819	-0.824
820	-0.835
820	-0.836
820	-0.836
821	-0.83
821	-0.825
822	-0.824
822	-0.812
823	-0.824
823	-0.822
823	-0.817
824	-0.817
824	-0.828
825	-0.827
825	-0.824
826	-0.82
826	-0.815
826	-0.815
827	-0.815
827	-0.804
828	-0.803
828	-0.798
829	-0.79
829	-0.774
829	-0.772
830	-0.771
830	-0.757
831	-0.752
831	-0.741
832	-0.733
832	-0.729
832	-0.722
833	-0.721
833	-0.727
834	-0.723
834	-0.718
835	-0.709
835	-0.709
835	-0.704
836	-0.7
836	-0.696
837	-0.685
837	-0.677
838	-0.664
838	-0.648
839	-0.642
839	-0.629
839	-0.619
840	-0.618
840	-0.61
841	-0.599
841	-0.592
842	-0.583
842	-0.57
842	-0.567
843	-0.563
843	-0.559
844	-0.556
844	-0.546
845	-0.531
845	-0.521
845	-0.51
846	-0.497
846	-0.487
847	-0.476
847	-0.464
848	-0.45
848	-0.432
848	-0.419
849	-0.406
849	-0.395
850	-0.385
850	-0.373
851	-0.361
851	-0.345
851	-0.336
852	-0.32
852	-0.309
853	-0.301
853	-0.291
854	-0.282
854	-0.27
854	-0.258
855	-0.248
855	-0.24
856	-0.232
856	-0.225
857	-0.217
857	-0.208
857	-0.194
858	-0.183
858	-0.176
859	-0.165
859	-0.154
860	-0.144
860	-0.13
860	-0.12
861	-0.109
861	-0.1
862	-0.092
862	-0.084
863	-0.076
863	-0.066
863	-0.06
864	-0.054
864	-0.046
865	-0.04
865	-0.034
866	-0.028
866	-0.023
866	-0.017
867	-0.012
867	-0.006
868	-0.002
868	0.003
869	0.007
869	0.01
869	0.012
870	0.015
870	0.017
871	0.019
871	0.02
872	0.021
872	0.022
872	0.023
873	0.023
873	0.023
874	0.022
874	0.022
875	0.022
875	0.021
875	0.021
876	0.021
876	0.021
877	0.02
877	0.02
878	0.02
878	0.02
878	0.02
879	0.019
879	0.019
880	0.018
880	0.017
881	0.016
881	0.014
881	0.013
882	0.011
882	0.01
883	0.008
883	0.007
884	0.006
884	0.006
884	0.006
885	0.006
885	0.006
886	0.006
886	0.006
887	0.006
887	0.005
887	0.005
888	0.005
888	0.004
889	0.003
889	0.002
890	0.001
890	0
890	-0
891	-0
891	-0.001
892	-0
892	0
893	0
893	0.001
893	0.001
894	0.002
894	0.002
895	0.002
895	0.002
895	0.002
896	0.002
896	0.002
897	0.002
897	0.002
898	0.002
898	0.002
898	0.003
899	0.003
899	0.003
900	0.004
900	0.004
901	0.004
901	0.004
901	0.003
902	0.003
902	0.003
903	0.003
903	0.002
904	0.002
904	0.001
904	0.001
905	0.001
905	0.001
906	0.002
906	0.002
907	0.003
907	0.003
907	0.003
908	0.004
908	0.005
909	0.005
909	0.006
910	0.006
910	0.007
910	0.007
911	0.008
911	0.008
912	0.009
912	0.01
913	0.011
913	0.011
913	0.012
914	0.012
914	0.013
915	0.013
915	0.013
916	0.013
916	0.013
916	0.012
917	0.012
917	0.011
918	0.011
918	0.01
918	0.009
919	0.009
919	0.009
920	0.009
920	0.009
921	0.009
921	0.01
921	0.01
922	0.01
922	0.01
923	0.011
923	0.011
924	0.01
924	0.01
924	0.009
925	0.008
925	0.007
926	0.005
926	0.004
927	0.003
927	0.002
927	0.001
928	0
928	0
929	0
929	0.001
930	0.001
930	0.002
930	0.003
931	0.004
931	0.005
932	0.007
932	0.008
933	0.009
933	0.009
933	0.009
934	0.009
934	0.009
935	0.008
935	0.007
935	0.006
936	0.005
936	0.004
937	0.002
937	0.002
938	0.001
938	0
938	-0
939	-0.001
939	-0.002
940	-0.002
940	-0.003
941	-0.003
941	-0.004
941	-0.004
942	-0.004
942	-0.005
943	-0.004
943	-0.005
944	-0.005
944	-0.006
944	-0.006
945	-0.006
945	-0.006
946	-0.007
946	-0.008
946	-0.008
947	-0.008
947	-0.008
948	-0.008
948	-0.007
949	-0.007
949	-0.005
949	-0.004
950	-0.002
950	-0.001
951	0.001
951	0.002
952	0.002
952	0.004
952	0.004
953	0.005
953	0.005
954	0.005
954	0.005
955	0.005
955	0.005
955	0.004
956	0.004
956	0.004
957	0.003
957	0.002
957	0
958	-0
958	-0.001
959	-0.001
959	-0.002
960	-0.002
960	-0.003
960	-0.003
961	-0.002
961	-0.002
962	-0.002
962	-0.001
963	-0.001
963	-0
963	0
964	0.001
964	0.002
965	0.002
965	0.003
966	0.004
966	0.004
966	0.005
967	0.005
967	0.006
968	0.006
968	0.006
968	0.006
969	0.006
969	0.006
970	0.006
970	0.005
971	0.005
971	0.005
971	0.005
972	0.005
972	0.005
973	0.005
973	0.004
974	0.004
974	0.004
974	0.004
975	0.004
975	0.004
976	0.004
976	0.003
976	0.003
977	0.003
977	0.002
978	0.001
978	0.001
979	0
979	-0
979	-0.001
980	-0.001
980	-0.001
981	-0.001
981	-0.001
982	-0.001
982	-0.001
982	-0.001
983	-0.001
983	-0.001
984	-0.001
984	-0.001
984	-0.002
985	-0.002
985	-0.002
986	-0.003
986	-0.004
987	-0.004
987	-0.005
987	-0.006
988	-0.007
988	-0.007
989	-0.008
989	-0.009
990	-0.009
990	-0.011
990	-0.011
991	-0.012
991	-0.013
992	-0.013
992	-0.014
992	-0.015
993	-0.016
993	-0.017
994	-0.018
994	-0.02
995	-0.021
995	-0.022
995	-0.023
996	-0.024
996	-0.025
997	-0.026
997	-0.026
997	-0.027
998	-0.027
998	-0.026
999	-0.026
999	-0.026
1000	-0.025
1000	-0.025
1000	-0.024
1001	-0.024
1001	-0.023
1002	-0.022
1002	-0.022
1003	-0.021
1003	-0.021
1003	-0.02
1004	-0.02
1004	-0.02
1005	-0.019
1005	-0.02
1005	-0.02
1006	-0.021
1006	-0.022
1007	-0.022
1007	-0.023
1008	-0.024
1008	-0.025
1008	-0.025
1009	-0.025
1009	-0.025
1010	-0.025
1010	-0.024
1010	-0.024
1011	-0.023
1011	-0.022
1012	-0.021
1012	-0.02
1013	-0.019
1013	-0.018
1013	-0.017
1014	-0.017
1014	-0.016
1015	-0.016
1015	-0.016
1016	-0.015
1016	-0.015
1016	-0.015
1017	-0.016
1017	-0.016
1018	-0.016
1018	-0.016
1018	-0.016
1019	-0.016
1019	-0.016
1020	-0.017
1020	-0.017
1021	-0.017
1021	-0.018
1021	-0.018
1022	-0.019
1022	-0.019
1023	-0.019
1023	-0.019
1023	-0.019
1024	-0.02
1024	-0.02
1025	-0.019
1025	-0.019
1026	-0.019
1026	-0.019
1026	-0.019
1027	-0.019
1027	-0.019
1028	-0.018
1028	-0.017
1028	-0.017
1029	-0.017
1029	-0.017
1030	-0.017
1030	-0.017
1031	-0.017
1031	-0.016
1031	-0.016
1032	-0.016
1032	-0.016
1033	-0.017
1033	-0.017
1033	-0.018
1034	-0.018
1034	-0.019
1035	-0.02
1035	-0.02
1036	-0.022
1036	-0.023
1036	-0.023
1037	-0.023
1037	-0.023
1038	-0.024
1038	-0.024
1039	-0.024
1039	-0.023
1039	-0.023
1040	-0.023
1040	-0.022
1041	-0.022
1041	-0.022
1041	-0.022
1042	-0.023
1042	-0.023
1043	-0.023
1043	-0.024
1044	-0.024
1044	-0.025
1044	-0.026
1045	-0.027
1045	-0.027
1046	-0.027
1046	-0.028
1046	-0.028
1047	-0.028
1047	-0.028
1048	-0.027
1048	-0.027
1049	-0.027
1049	-0.028
1049	-0.028
1050	-0.029
1050	-0.03
1051	-0.031
1051	-0.031
1051	-0.032
1052	-0.033
1052	-0.034
1053	-0.034
1053	-0.035
1053	-0.035
1054	-0.036
1054	-0.036
1055	-0.036
1055	-0.035
1056	-0.036
1056	-0.035
1056	-0.036
1057	-0.036
1057	-0.035
1058	-0.035
1058	-0.036
1058	-0.035
1059	-0.035
1059	-0.036
1060	-0.036
1060	-0.036
1061	-0.037
1061	-0.037
1061	-0.037
1062	-0.037
1062	-0.038
1063	-0.037
1063	-0.038
1063	-0.038
1064	-0.038
1064	-0.038
1065	-0.038
1065	-0.038
1066	-0.038
1066	-0.039
1066	-0.039
1067	-0.04
1067	-0.041
1068	-0.041
1068	-0.042
1068	-0.043
1069	-0.044
1069	-0.045
1070	-0.046
1070	-0.046
1071	-0.047
1071	-0.048
1071	-0.048
1072	-0.048
1072	-0.048
1073	-0.048
1073	-0.048
1073	-0.048
1074	-0.048
1074	-0.048
1075	-0.049
1075	-0.049
1076	-0.049
1076	-0.049
1076	-0.05
1077	-0.051
1077	-0.052
1078	-0.052
1078	-0.053
1078	-0.053
1079	-0.054
1079	-0.054
1080	-0.055
1080	-0.056
1080	-0.057
1081	-0.058
1081	-0.059
1082	-0.06
1082	-0.061
1083	-0.063
1083	-0.064
1083	-0.065
1084	-0.066
1084	-0.067
1085	-0.068
1085	-0.07
1085	-0.071
1086	-0.072
1086	-0.073
1087	-0.074
1087	-0.075
1088	-0.076
1088	-0.077
1088	-0.078
1089	-0.079
1089	-0.079
1090	-0.08
1090	-0.08
1090	-0.082
1091	-0.082
1091	-0.082
1092	-0.082
1092	-0.082
1092	-0.083
1093	-0.084
1093	-0.084
1094	-0.085
1094	-0.086
1095	-0.087
1095	-0.088
1095	-0.088
1096	-0.09
1096	-0.092
1097	-0.093
1097	-0.095
1097	-0.096
1098	-0.098
1098	-0.101
1099	-0.103
1099	-0.105
1100	-0.107
1100	-0.11
1100	-0.113
1101	-0.116
1101	-0.119
1102	-0.121
1102	-0.124
1102	-0.125
1103	-0.128
1103	-0.13
1104	-0.133
1104	-0.136
1104	-0.138
1105	-0.139
1105	-0.142
1106	-0.147
1106	-0.149
1107	-0.155
1107	-0.159
1107	-0.165
1108	-0.167
1108	-0.169
1109	-0.173
1109	-0.177
1109	-0.182
1110	-0.185
1110	-0.188
1111	-0.198
1111	-0.193
