Data from 3.3A_17C_Absorbance__416__03283.txt Node

Date: Tue Jun 20 17:27:02 CEST 2023
User: Marek
Spectrometer: MAYP115816
Trigger mode: 0
Integration Time (sec): 2.200000E-1
Scans to average: 10
Electric dark correction enabled: true
Nonlinearity correction enabled: true
Boxcar width: 5
XAxis mode: Wavelengths
Number of Pixels in Spectrum: 2068
>>>>>Begin Spectral Data<<<<<
199	-0.812
199	-0.794
200	-0.759
200	-0.706
201	-0.677
201	-0.668
202	-0.651
202	-0.64
203	-0.64
203	-0.633
204	-0.612
204	-0.596
205	-0.575
205	-0.563
205	-0.571
206	-0.573
206	-0.568
207	-0.559
207	-0.566
208	-0.566
208	-0.57
209	-0.57
209	-0.575
210	-0.587
210	-0.596
211	-0.59
211	-0.594
212	-0.604
212	-0.613
213	-0.609
213	-0.604
213	-0.602
214	-0.609
214	-0.611
215	-0.608
215	-0.611
216	-0.621
216	-0.625
217	-0.623
217	-0.624
218	-0.631
218	-0.634
219	-0.643
219	-0.645
220	-0.647
220	-0.654
221	-0.654
221	-0.654
221	-0.645
222	-0.644
222	-0.64
223	-0.637
223	-0.639
224	-0.638
224	-0.636
225	-0.636
225	-0.637
226	-0.637
226	-0.637
227	-0.646
227	-0.655
228	-0.659
228	-0.667
229	-0.672
229	-0.67
229	-0.67
230	-0.665
230	-0.663
231	-0.659
231	-0.653
232	-0.656
232	-0.651
233	-0.652
233	-0.642
234	-0.642
234	-0.637
235	-0.642
235	-0.651
236	-0.657
236	-0.659
236	-0.66
237	-0.658
237	-0.659
238	-0.659
238	-0.66
239	-0.661
239	-0.671
240	-0.665
240	-0.663
241	-0.658
241	-0.662
242	-0.664
242	-0.673
243	-0.673
243	-0.675
243	-0.681
244	-0.678
244	-0.679
245	-0.68
245	-0.684
246	-0.695
246	-0.699
247	-0.708
247	-0.693
248	-0.694
248	-0.696
249	-0.702
249	-0.704
250	-0.702
250	-0.712
250	-0.708
251	-0.708
251	-0.703
252	-0.705
252	-0.718
253	-0.713
253	-0.724
254	-0.728
254	-0.727
255	-0.738
255	-0.736
256	-0.74
256	-0.752
257	-0.762
257	-0.758
258	-0.757
258	-0.765
258	-0.762
259	-0.756
259	-0.776
260	-0.774
260	-0.763
261	-0.774
261	-0.76
262	-0.764
262	-0.762
263	-0.753
263	-0.759
264	-0.77
264	-0.769
265	-0.76
265	-0.764
265	-0.774
266	-0.764
266	-0.764
267	-0.762
267	-0.779
268	-0.788
268	-0.78
269	-0.771
269	-0.786
270	-0.789
270	-0.789
271	-0.802
271	-0.812
272	-0.814
272	-0.819
272	-0.813
273	-0.823
273	-0.839
274	-0.83
274	-0.825
275	-0.822
275	-0.81
276	-0.812
276	-0.818
277	-0.819
277	-0.816
278	-0.82
278	-0.82
278	-0.809
279	-0.817
279	-0.831
280	-0.832
280	-0.842
281	-0.837
281	-0.829
282	-0.836
282	-0.83
283	-0.823
283	-0.837
284	-0.851
284	-0.863
285	-0.842
285	-0.85
285	-0.84
286	-0.847
286	-0.863
287	-0.86
287	-0.86
288	-0.859
288	-0.84
289	-0.838
289	-0.844
290	-0.853
290	-0.841
291	-0.845
291	-0.841
292	-0.822
292	-0.819
292	-0.823
293	-0.812
293	-0.808
294	-0.807
294	-0.793
295	-0.774
295	-0.787
296	-0.8
296	-0.793
297	-0.78
297	-0.785
298	-0.78
298	-0.797
298	-0.8
299	-0.783
299	-0.777
300	-0.774
300	-0.756
301	-0.738
301	-0.741
302	-0.751
302	-0.736
303	-0.73
303	-0.72
304	-0.702
304	-0.706
305	-0.698
305	-0.706
305	-0.721
306	-0.705
306	-0.704
307	-0.697
307	-0.709
308	-0.71
308	-0.705
309	-0.709
309	-0.703
310	-0.701
310	-0.695
311	-0.682
311	-0.7
311	-0.688
312	-0.684
312	-0.672
313	-0.664
313	-0.664
314	-0.669
314	-0.667
315	-0.664
315	-0.658
316	-0.652
316	-0.643
317	-0.635
317	-0.635
318	-0.625
318	-0.623
318	-0.613
319	-0.601
319	-0.592
320	-0.589
320	-0.588
321	-0.582
321	-0.582
322	-0.576
322	-0.567
323	-0.568
323	-0.557
324	-0.555
324	-0.543
324	-0.533
325	-0.517
325	-0.501
326	-0.494
326	-0.467
327	-0.453
327	-0.43
328	-0.399
328	-0.377
329	-0.348
329	-0.321
330	-0.293
330	-0.257
330	-0.22
331	-0.181
331	-0.146
332	-0.11
332	-0.075
333	-0.043
333	-0.007
334	0.023
334	0.052
335	0.08
335	0.103
336	0.127
336	0.15
336	0.169
337	0.187
337	0.205
338	0.22
338	0.231
339	0.246
339	0.259
340	0.267
340	0.277
341	0.285
341	0.292
342	0.298
342	0.306
342	0.311
343	0.315
343	0.321
344	0.324
344	0.328
345	0.331
345	0.334
346	0.336
346	0.338
347	0.34
347	0.341
348	0.343
348	0.345
348	0.345
349	0.346
349	0.347
350	0.348
350	0.349
351	0.349
351	0.35
352	0.35
352	0.35
353	0.351
353	0.351
354	0.351
354	0.351
354	0.351
355	0.351
355	0.351
356	0.351
356	0.351
357	0.35
357	0.351
358	0.35
358	0.351
359	0.351
359	0.351
360	0.351
360	0.351
360	0.351
361	0.351
361	0.351
362	0.352
362	0.352
363	0.352
363	0.352
364	0.352
364	0.352
365	0.352
365	0.351
366	0.351
366	0.351
366	0.351
367	0.351
367	0.351
368	0.35
368	0.35
369	0.349
369	0.349
370	0.349
370	0.349
371	0.349
371	0.348
372	0.348
372	0.348
372	0.348
373	0.347
373	0.347
374	0.347
374	0.347
375	0.347
375	0.346
376	0.346
376	0.346
377	0.346
377	0.345
378	0.345
378	0.345
378	0.344
379	0.344
379	0.344
380	0.344
380	0.344
381	0.343
381	0.343
382	0.343
382	0.342
383	0.342
383	0.342
383	0.341
384	0.341
384	0.341
385	0.34
385	0.34
386	0.34
386	0.34
387	0.339
387	0.339
388	0.339
388	0.339
389	0.338
389	0.338
389	0.338
390	0.338
390	0.337
391	0.337
391	0.337
392	0.337
392	0.336
393	0.336
393	0.336
394	0.335
394	0.335
394	0.335
395	0.334
395	0.333
396	0.333
396	0.333
397	0.332
397	0.332
398	0.332
398	0.331
399	0.331
399	0.331
400	0.331
400	0.331
400	0.33
401	0.33
401	0.329
402	0.329
402	0.329
403	0.329
403	0.329
404	0.328
404	0.328
405	0.328
405	0.327
405	0.327
406	0.327
406	0.327
407	0.327
407	0.326
408	0.326
408	0.326
409	0.326
409	0.325
410	0.325
410	0.325
411	0.325
411	0.324
411	0.324
412	0.323
412	0.323
413	0.323
413	0.323
414	0.323
414	0.322
415	0.322
415	0.322
416	0.322
416	0.321
416	0.321
417	0.321
417	0.321
418	0.321
418	0.32
419	0.32
419	0.32
420	0.32
420	0.32
421	0.32
421	0.319
421	0.319
422	0.319
422	0.319
423	0.319
423	0.319
424	0.319
424	0.319
425	0.318
425	0.318
426	0.318
426	0.318
427	0.318
427	0.318
427	0.318
428	0.318
428	0.318
429	0.318
429	0.317
430	0.317
430	0.317
431	0.317
431	0.316
432	0.316
432	0.316
432	0.315
433	0.315
433	0.315
434	0.315
434	0.315
435	0.315
435	0.315
436	0.315
436	0.315
437	0.315
437	0.315
437	0.315
438	0.315
438	0.315
439	0.315
439	0.315
440	0.315
440	0.315
441	0.314
441	0.314
442	0.314
442	0.314
442	0.314
443	0.314
443	0.313
444	0.313
444	0.313
445	0.313
445	0.313
446	0.313
446	0.313
447	0.313
447	0.313
447	0.313
448	0.313
448	0.313
449	0.313
449	0.313
450	0.313
450	0.313
451	0.314
451	0.314
452	0.314
452	0.314
452	0.314
453	0.314
453	0.314
454	0.314
454	0.314
455	0.314
455	0.314
456	0.314
456	0.314
457	0.314
457	0.314
458	0.314
458	0.314
458	0.314
459	0.314
459	0.314
460	0.313
460	0.313
461	0.314
461	0.314
462	0.315
462	0.316
463	0.316
463	0.317
463	0.318
464	0.318
464	0.319
465	0.319
465	0.32
466	0.32
466	0.32
467	0.321
467	0.32
467	0.32
468	0.32
468	0.32
469	0.321
469	0.321
470	0.322
470	0.322
471	0.323
471	0.323
472	0.324
472	0.324
472	0.325
473	0.326
473	0.327
474	0.327
474	0.328
475	0.329
475	0.33
476	0.33
476	0.331
477	0.332
477	0.333
477	0.334
478	0.334
478	0.335
479	0.336
479	0.337
480	0.338
480	0.338
481	0.339
481	0.34
482	0.341
482	0.342
482	0.344
483	0.345
483	0.347
484	0.349
484	0.349
485	0.351
485	0.352
486	0.353
486	0.355
487	0.356
487	0.357
487	0.359
488	0.359
488	0.36
489	0.362
489	0.364
490	0.366
490	0.367
491	0.369
491	0.371
492	0.373
492	0.374
492	0.376
493	0.378
493	0.379
494	0.382
494	0.384
495	0.386
495	0.387
496	0.389
496	0.391
496	0.394
497	0.396
497	0.398
498	0.401
498	0.403
499	0.405
499	0.408
500	0.411
500	0.414
501	0.417
501	0.419
501	0.421
502	0.424
502	0.426
503	0.429
503	0.431
504	0.434
504	0.436
505	0.439
505	0.441
506	0.444
506	0.447
506	0.45
507	0.453
507	0.457
508	0.46
508	0.463
509	0.466
509	0.469
510	0.472
510	0.475
511	0.477
511	0.48
511	0.482
512	0.484
512	0.486
513	0.488
513	0.49
514	0.493
514	0.496
515	0.498
515	0.5
515	0.502
516	0.505
516	0.507
517	0.509
517	0.511
518	0.513
518	0.514
519	0.516
519	0.517
520	0.519
520	0.521
520	0.522
521	0.523
521	0.525
522	0.526
522	0.528
523	0.53
523	0.532
524	0.533
524	0.534
524	0.535
525	0.536
525	0.537
526	0.538
526	0.539
527	0.54
527	0.54
528	0.54
528	0.54
529	0.54
529	0.54
529	0.54
530	0.54
530	0.539
531	0.539
531	0.539
532	0.538
532	0.538
533	0.537
533	0.537
533	0.536
534	0.535
534	0.535
535	0.534
535	0.533
536	0.532
536	0.531
537	0.53
537	0.528
538	0.527
538	0.525
538	0.524
539	0.522
539	0.521
540	0.519
540	0.516
541	0.514
541	0.512
542	0.51
542	0.507
542	0.504
543	0.502
543	0.499
544	0.497
544	0.494
545	0.492
545	0.49
546	0.487
546	0.485
547	0.482
547	0.479
547	0.476
548	0.474
548	0.471
549	0.469
549	0.466
550	0.464
550	0.461
551	0.458
551	0.455
551	0.452
552	0.449
552	0.447
553	0.444
553	0.442
554	0.439
554	0.435
555	0.432
555	0.429
556	0.427
556	0.424
556	0.421
557	0.418
557	0.416
558	0.413
558	0.41
559	0.408
559	0.405
560	0.402
560	0.399
560	0.397
561	0.395
561	0.393
562	0.39
562	0.388
563	0.385
563	0.383
564	0.381
564	0.379
564	0.377
565	0.375
565	0.373
566	0.371
566	0.369
567	0.367
567	0.366
568	0.364
568	0.361
568	0.359
569	0.357
569	0.355
570	0.352
570	0.349
571	0.347
571	0.345
572	0.342
572	0.339
573	0.337
573	0.334
573	0.331
574	0.33
574	0.328
575	0.327
575	0.326
576	0.325
576	0.322
577	0.32
577	0.318
577	0.317
578	0.316
578	0.316
579	0.315
579	0.314
580	0.311
580	0.308
581	0.305
581	0.303
581	0.302
582	0.301
582	0.3
583	0.299
583	0.297
584	0.293
584	0.29
585	0.29
585	0.289
585	0.288
586	0.287
586	0.286
587	0.283
587	0.281
588	0.279
588	0.278
589	0.277
589	0.276
590	0.274
590	0.273
590	0.273
591	0.272
591	0.27
592	0.269
592	0.267
593	0.266
593	0.265
594	0.263
594	0.261
594	0.26
595	0.259
595	0.257
596	0.255
596	0.255
597	0.256
597	0.255
598	0.253
598	0.253
598	0.251
599	0.251
599	0.249
600	0.248
600	0.247
601	0.247
601	0.246
602	0.244
602	0.243
602	0.241
603	0.241
603	0.241
604	0.24
604	0.239
605	0.239
605	0.239
606	0.237
606	0.235
606	0.234
607	0.233
607	0.232
608	0.231
608	0.229
609	0.228
609	0.227
610	0.226
610	0.224
610	0.224
611	0.223
611	0.223
612	0.222
612	0.222
613	0.221
613	0.22
614	0.218
614	0.217
614	0.216
615	0.214
615	0.213
616	0.212
616	0.21
617	0.209
617	0.207
618	0.206
618	0.205
618	0.204
619	0.203
619	0.202
620	0.203
620	0.201
621	0.2
621	0.199
622	0.197
622	0.196
622	0.194
623	0.193
623	0.193
624	0.192
624	0.19
625	0.189
625	0.188
626	0.187
626	0.185
626	0.185
627	0.184
627	0.183
628	0.183
628	0.181
629	0.18
629	0.178
630	0.176
630	0.174
630	0.173
631	0.171
631	0.169
632	0.166
632	0.164
633	0.162
633	0.16
634	0.158
634	0.156
634	0.154
635	0.152
635	0.149
636	0.147
636	0.145
637	0.142
637	0.139
638	0.136
638	0.133
638	0.129
639	0.125
639	0.12
640	0.116
640	0.112
641	0.107
641	0.103
642	0.099
642	0.095
642	0.09
643	0.085
643	0.08
644	0.075
644	0.07
645	0.064
645	0.059
646	0.054
646	0.048
646	0.041
647	0.035
647	0.029
648	0.022
648	0.014
649	0.007
649	-0.001
650	-0.008
650	-0.015
650	-0.023
651	-0.033
651	-0.044
652	-0.058
652	-0.072
653	-0.084
653	-0.094
653	-0.089
654	-0.07
654	-0.064
655	-0.069
655	-0.074
656	-0.079
656	-0.085
657	-0.089
657	-0.093
657	-0.099
658	-0.106
658	-0.137
659	-0.221
659	-0.309
660	-0.348
660	-0.373
661	-0.4
661	-0.429
661	-0.46
662	-0.488
662	-0.519
663	-0.553
663	-0.59
664	-0.625
664	-0.664
665	-0.709
665	-0.753
665	-0.797
666	-0.846
666	-0.899
667	-0.953
667	-1.013
668	-1.071
668	-1.139
669	-1.208
669	-1.282
669	-1.363
670	-1.456
670	-1.624
671	-1.898
671	-2.207
672	-2.4
672	-2.539
672	-2.646
673	-2.733
673	-2.807
674	-2.844
674	-2.855
675	-2.87
675	-2.869
676	-2.849
676	-2.783
676	-2.706
677	-2.611
677	-2.492
678	-2.306
678	-1.949
679	-1.652
679	-1.52
680	-1.427
680	-1.357
680	-1.297
681	-1.254
681	-1.206
682	-1.169
682	-1.128
683	-1.089
683	-1.068
684	-1.042
684	-1.024
684	-1.004
685	-0.987
685	-0.978
686	-0.956
686	-0.944
687	-0.936
687	-0.927
687	-0.927
688	-0.912
688	-0.906
689	-0.911
689	-0.908
690	-0.896
690	-0.885
691	-0.884
691	-0.889
691	-0.89
692	-0.889
692	-0.886
693	-0.892
693	-0.902
694	-0.884
694	-0.884
695	-0.888
695	-0.883
695	-0.891
696	-0.897
696	-0.89
697	-0.884
697	-0.881
698	-0.877
698	-0.87
698	-0.884
699	-0.883
699	-0.882
700	-0.902
700	-0.897
701	-0.884
701	-0.877
702	-0.88
702	-0.877
702	-0.878
703	-0.871
703	-0.858
704	-0.865
704	-0.868
705	-0.858
705	-0.857
705	-0.85
706	-0.845
706	-0.842
707	-0.855
707	-0.857
708	-0.854
708	-0.852
709	-0.855
709	-0.851
709	-0.847
710	-0.854
710	-0.858
711	-0.855
711	-0.856
712	-0.845
712	-0.843
713	-0.849
713	-0.85
713	-0.827
714	-0.83
714	-0.833
715	-0.824
715	-0.832
716	-0.85
716	-0.858
716	-0.859
717	-0.865
717	-0.855
718	-0.849
718	-0.851
719	-0.847
719	-0.84
720	-0.836
720	-0.832
720	-0.826
721	-0.818
721	-0.823
722	-0.82
722	-0.816
723	-0.833
723	-0.847
723	-0.855
724	-0.852
724	-0.857
725	-0.853
725	-0.856
726	-0.858
726	-0.849
727	-0.852
727	-0.86
727	-0.85
728	-0.836
728	-0.832
729	-0.834
729	-0.836
730	-0.841
730	-0.831
730	-0.837
731	-0.841
731	-0.841
732	-0.843
732	-0.839
733	-0.854
733	-0.862
734	-0.87
734	-0.862
734	-0.844
735	-0.833
735	-0.828
736	-0.827
736	-0.82
737	-0.82
737	-0.809
737	-0.8
738	-0.785
738	-0.773
739	-0.777
739	-0.78
740	-0.793
740	-0.792
741	-0.802
741	-0.813
741	-0.821
742	-0.829
742	-0.846
743	-0.855
743	-0.859
744	-0.861
744	-0.868
744	-0.863
745	-0.873
745	-0.863
746	-0.859
746	-0.851
747	-0.852
747	-0.842
748	-0.842
748	-0.845
748	-0.847
749	-0.839
749	-0.844
750	-0.834
750	-0.834
751	-0.832
751	-0.828
751	-0.839
752	-0.842
752	-0.845
753	-0.848
753	-0.841
754	-0.861
754	-0.862
754	-0.868
755	-0.868
755	-0.862
756	-0.864
756	-0.85
757	-0.844
757	-0.835
758	-0.835
758	-0.833
758	-0.829
759	-0.834
759	-0.835
760	-0.835
760	-0.836
761	-0.83
761	-0.835
761	-0.836
762	-0.842
762	-0.842
763	-0.844
763	-0.849
764	-0.849
764	-0.845
764	-0.851
765	-0.851
765	-0.858
766	-0.862
766	-0.862
767	-0.877
767	-0.873
768	-0.871
768	-0.86
768	-0.854
769	-0.858
769	-0.864
770	-0.872
770	-0.877
771	-0.871
771	-0.87
771	-0.874
772	-0.877
772	-0.898
773	-0.9
773	-0.9
774	-0.897
774	-0.879
775	-0.869
775	-0.866
775	-0.872
776	-0.883
776	-0.879
777	-0.879
777	-0.861
778	-0.869
778	-0.879
778	-0.879
779	-0.889
779	-0.903
780	-0.9
780	-0.908
781	-0.896
781	-0.886
781	-0.9
782	-0.923
782	-0.924
783	-0.923
783	-0.931
784	-0.934
784	-0.928
784	-0.946
785	-0.939
785	-0.954
786	-0.96
786	-0.952
787	-0.941
787	-0.951
788	-0.942
788	-0.937
788	-0.939
789	-0.94
789	-0.929
790	-0.929
790	-0.911
791	-0.916
791	-0.911
791	-0.905
792	-0.899
792	-0.904
793	-0.905
793	-0.892
794	-0.885
794	-0.879
794	-0.886
795	-0.907
795	-0.894
796	-0.899
796	-0.895
797	-0.887
797	-0.879
797	-0.873
798	-0.894
798	-0.899
799	-0.898
799	-0.885
800	-0.879
800	-0.888
801	-0.885
801	-0.889
801	-0.888
802	-0.886
802	-0.884
803	-0.879
803	-0.87
804	-0.876
804	-0.884
804	-0.869
805	-0.849
805	-0.84
806	-0.842
806	-0.838
807	-0.841
807	-0.841
807	-0.824
808	-0.821
808	-0.814
809	-0.809
809	-0.809
810	-0.811
810	-0.808
810	-0.803
811	-0.805
811	-0.796
812	-0.788
812	-0.79
813	-0.796
813	-0.797
813	-0.791
814	-0.792
814	-0.798
815	-0.789
815	-0.785
816	-0.781
816	-0.797
817	-0.809
817	-0.814
817	-0.821
818	-0.816
818	-0.813
819	-0.823
819	-0.822
820	-0.833
820	-0.832
820	-0.832
821	-0.827
821	-0.823
822	-0.819
822	-0.808
823	-0.818
823	-0.819
823	-0.813
824	-0.81
824	-0.82
825	-0.819
825	-0.815
826	-0.811
826	-0.807
826	-0.806
827	-0.807
827	-0.795
828	-0.795
828	-0.789
829	-0.785
829	-0.77
829	-0.769
830	-0.768
830	-0.755
831	-0.749
831	-0.74
832	-0.73
832	-0.726
832	-0.717
833	-0.716
833	-0.72
834	-0.715
834	-0.709
835	-0.7
835	-0.7
835	-0.695
836	-0.69
836	-0.686
837	-0.676
837	-0.667
838	-0.655
838	-0.636
839	-0.631
839	-0.618
839	-0.608
840	-0.606
840	-0.596
841	-0.585
841	-0.58
842	-0.571
842	-0.56
842	-0.558
843	-0.555
843	-0.55
844	-0.548
844	-0.536
845	-0.523
845	-0.513
845	-0.502
846	-0.489
846	-0.478
847	-0.466
847	-0.452
848	-0.438
848	-0.422
848	-0.407
849	-0.395
849	-0.384
850	-0.374
850	-0.363
851	-0.35
851	-0.335
851	-0.325
852	-0.31
852	-0.297
853	-0.288
853	-0.278
854	-0.267
854	-0.256
854	-0.242
855	-0.231
855	-0.222
856	-0.213
856	-0.204
857	-0.196
857	-0.188
857	-0.174
858	-0.163
858	-0.156
859	-0.146
859	-0.134
860	-0.122
860	-0.108
860	-0.098
861	-0.088
861	-0.077
862	-0.069
862	-0.061
863	-0.052
863	-0.041
863	-0.034
864	-0.028
864	-0.021
865	-0.014
865	-0.008
866	-0.002
866	0.003
866	0.009
867	0.014
867	0.02
868	0.024
868	0.029
869	0.034
869	0.037
869	0.039
870	0.042
870	0.044
871	0.046
871	0.048
872	0.048
872	0.049
872	0.05
873	0.05
873	0.05
874	0.049
874	0.049
875	0.048
875	0.048
875	0.048
876	0.048
876	0.047
877	0.047
877	0.046
878	0.045
878	0.045
878	0.045
879	0.044
879	0.044
880	0.043
880	0.042
881	0.04
881	0.039
881	0.038
882	0.036
882	0.035
883	0.034
883	0.032
884	0.032
884	0.031
884	0.031
885	0.031
885	0.031
886	0.031
886	0.031
887	0.03
887	0.03
887	0.029
888	0.029
888	0.028
889	0.027
889	0.027
890	0.025
890	0.025
890	0.024
891	0.024
891	0.023
892	0.024
892	0.024
893	0.025
893	0.025
893	0.026
894	0.026
894	0.027
895	0.027
895	0.027
895	0.027
896	0.027
896	0.027
897	0.028
897	0.028
898	0.028
898	0.028
898	0.028
899	0.028
899	0.029
900	0.029
900	0.029
901	0.028
901	0.028
901	0.027
902	0.027
902	0.027
903	0.027
903	0.026
904	0.025
904	0.025
904	0.025
905	0.025
905	0.025
906	0.026
906	0.026
907	0.027
907	0.027
907	0.028
908	0.029
908	0.03
909	0.03
909	0.031
910	0.031
910	0.032
910	0.032
911	0.033
911	0.033
912	0.034
912	0.035
913	0.035
913	0.036
913	0.036
914	0.037
914	0.037
915	0.037
915	0.037
916	0.037
916	0.036
916	0.035
917	0.035
917	0.034
918	0.034
918	0.033
918	0.032
919	0.031
919	0.031
920	0.031
920	0.031
921	0.031
921	0.031
921	0.032
922	0.032
922	0.032
923	0.032
923	0.032
924	0.032
924	0.031
924	0.03
925	0.029
925	0.028
926	0.027
926	0.025
927	0.024
927	0.023
927	0.022
928	0.022
928	0.021
929	0.022
929	0.022
930	0.023
930	0.023
930	0.024
931	0.025
931	0.026
932	0.028
932	0.028
933	0.029
933	0.03
933	0.03
934	0.029
934	0.029
935	0.029
935	0.028
935	0.027
936	0.026
936	0.024
937	0.023
937	0.022
938	0.022
938	0.021
938	0.02
939	0.02
939	0.019
940	0.018
940	0.017
941	0.017
941	0.016
941	0.016
942	0.015
942	0.015
943	0.015
943	0.015
944	0.014
944	0.014
944	0.014
945	0.014
945	0.013
946	0.013
946	0.012
946	0.012
947	0.012
947	0.011
948	0.012
948	0.013
949	0.013
949	0.015
949	0.017
950	0.018
950	0.019
951	0.021
951	0.022
952	0.022
952	0.024
952	0.024
953	0.025
953	0.025
954	0.025
954	0.025
955	0.025
955	0.025
955	0.025
956	0.024
956	0.024
957	0.023
957	0.022
957	0.021
958	0.02
958	0.02
959	0.019
959	0.018
960	0.018
960	0.018
960	0.018
961	0.018
961	0.018
962	0.019
962	0.019
963	0.02
963	0.02
963	0.021
964	0.021
964	0.022
965	0.022
965	0.023
966	0.024
966	0.024
966	0.025
967	0.026
967	0.026
968	0.026
968	0.026
968	0.026
969	0.026
969	0.025
970	0.025
970	0.024
971	0.024
971	0.024
971	0.024
972	0.024
972	0.024
973	0.024
973	0.024
974	0.024
974	0.024
974	0.024
975	0.024
975	0.024
976	0.023
976	0.023
976	0.022
977	0.022
977	0.021
978	0.02
978	0.019
979	0.019
979	0.018
979	0.018
980	0.017
980	0.017
981	0.016
981	0.016
982	0.016
982	0.016
982	0.016
983	0.017
983	0.016
984	0.016
984	0.016
984	0.016
985	0.016
985	0.015
986	0.015
986	0.014
987	0.013
987	0.012
987	0.012
988	0.011
988	0.011
989	0.01
989	0.01
990	0.009
990	0.008
990	0.008
991	0.007
991	0.006
992	0.006
992	0.005
992	0.004
993	0.003
993	0.002
994	0.001
994	-0
995	-0.002
995	-0.003
995	-0.004
996	-0.005
996	-0.006
997	-0.007
997	-0.008
997	-0.008
998	-0.008
998	-0.008
999	-0.008
999	-0.008
1000	-0.007
1000	-0.007
1000	-0.006
1001	-0.005
1001	-0.005
1002	-0.004
1002	-0.003
1003	-0.003
1003	-0.002
1003	-0.002
1004	-0.002
1004	-0.002
1005	-0.002
1005	-0.002
1005	-0.003
1006	-0.003
1006	-0.004
1007	-0.005
1007	-0.006
1008	-0.007
1008	-0.007
1008	-0.008
1009	-0.008
1009	-0.008
1010	-0.008
1010	-0.008
1010	-0.007
1011	-0.006
1011	-0.006
1012	-0.005
1012	-0.004
1013	-0.002
1013	-0.002
1013	-0.001
1014	-0
1014	0
1015	0.001
1015	0.002
1016	0.002
1016	0.002
1016	0.002
1017	0.002
1017	0.002
1018	0.002
1018	0.002
1018	0.002
1019	0.001
1019	0.001
1020	0.001
1020	0
1021	-0
1021	-0.001
1021	-0.001
1022	-0.001
1022	-0.002
1023	-0.002
1023	-0.002
1023	-0.002
1024	-0.002
1024	-0.003
1025	-0.003
1025	-0.003
1026	-0.003
1026	-0.003
1026	-0.003
1027	-0.003
1027	-0.003
1028	-0.002
1028	-0.002
1028	-0.002
1029	-0.002
1029	-0.001
1030	-0.001
1030	-0.001
1031	-0.001
1031	0
1031	0
1032	0
1032	-0
1033	-0.001
1033	-0.001
1033	-0.002
1034	-0.002
1034	-0.003
1035	-0.004
1035	-0.005
1036	-0.006
1036	-0.006
1036	-0.007
1037	-0.007
1037	-0.008
1038	-0.008
1038	-0.008
1039	-0.008
1039	-0.008
1039	-0.007
1040	-0.007
1040	-0.007
1041	-0.007
1041	-0.007
1041	-0.007
1042	-0.008
1042	-0.008
1043	-0.008
1043	-0.009
1044	-0.009
1044	-0.01
1044	-0.011
1045	-0.011
1045	-0.012
1046	-0.012
1046	-0.012
1046	-0.012
1047	-0.013
1047	-0.013
1048	-0.012
1048	-0.013
1049	-0.013
1049	-0.014
1049	-0.014
1050	-0.015
1050	-0.016
1051	-0.017
1051	-0.017
1051	-0.018
1052	-0.019
1052	-0.02
1053	-0.02
1053	-0.021
1053	-0.021
1054	-0.022
1054	-0.022
1055	-0.021
1055	-0.021
1056	-0.021
1056	-0.021
1056	-0.021
1057	-0.022
1057	-0.022
1058	-0.022
1058	-0.022
1058	-0.021
1059	-0.022
1059	-0.022
1060	-0.023
1060	-0.023
1061	-0.024
1061	-0.024
1061	-0.023
1062	-0.024
1062	-0.024
1063	-0.024
1063	-0.024
1063	-0.024
1064	-0.024
1064	-0.024
1065	-0.024
1065	-0.024
1066	-0.024
1066	-0.025
1066	-0.025
1067	-0.026
1067	-0.027
1068	-0.028
1068	-0.029
1068	-0.03
1069	-0.031
1069	-0.032
1070	-0.032
1070	-0.033
1071	-0.033
1071	-0.033
1071	-0.034
1072	-0.034
1072	-0.034
1073	-0.034
1073	-0.034
1073	-0.034
1074	-0.034
1074	-0.034
1075	-0.035
1075	-0.035
1076	-0.036
1076	-0.036
1076	-0.037
1077	-0.037
1077	-0.038
1078	-0.038
1078	-0.039
1078	-0.04
1079	-0.04
1079	-0.041
1080	-0.042
1080	-0.043
1080	-0.045
1081	-0.046
1081	-0.047
1082	-0.047
1082	-0.049
1083	-0.05
1083	-0.052
1083	-0.053
1084	-0.055
1084	-0.056
1085	-0.057
1085	-0.058
1085	-0.059
1086	-0.06
1086	-0.061
1087	-0.062
1087	-0.062
1088	-0.063
1088	-0.064
1088	-0.064
1089	-0.065
1089	-0.066
1090	-0.066
1090	-0.067
1090	-0.068
1091	-0.069
1091	-0.069
1092	-0.069
1092	-0.069
1092	-0.07
1093	-0.071
1093	-0.07
1094	-0.071
1094	-0.072
1095	-0.074
1095	-0.074
1095	-0.075
1096	-0.077
1096	-0.078
1097	-0.08
1097	-0.082
1097	-0.084
1098	-0.087
1098	-0.089
1099	-0.091
1099	-0.092
1100	-0.094
1100	-0.096
1100	-0.1
1101	-0.102
1101	-0.105
1102	-0.107
1102	-0.11
1102	-0.111
1103	-0.113
1103	-0.116
1104	-0.119
1104	-0.122
1104	-0.124
1105	-0.126
1105	-0.129
1106	-0.134
1106	-0.136
1107	-0.142
1107	-0.147
1107	-0.152
1108	-0.155
1108	-0.156
1109	-0.16
1109	-0.165
1109	-0.17
1110	-0.171
1110	-0.175
1111	-0.184
1111	-0.183
