Data from 3.3A_17C_Absorbance__782__03649.txt Node

Date: Tue Jun 20 17:40:27 CEST 2023
User: Marek
Spectrometer: MAYP115816
Trigger mode: 0
Integration Time (sec): 2.200000E-1
Scans to average: 10
Electric dark correction enabled: true
Nonlinearity correction enabled: true
Boxcar width: 5
XAxis mode: Wavelengths
Number of Pixels in Spectrum: 2068
>>>>>Begin Spectral Data<<<<<
199	-0.805
199	-0.787
200	-0.751
200	-0.694
201	-0.664
201	-0.655
202	-0.64
202	-0.631
203	-0.631
203	-0.624
204	-0.605
204	-0.587
205	-0.563
205	-0.554
205	-0.563
206	-0.565
206	-0.561
207	-0.554
207	-0.562
208	-0.562
208	-0.566
209	-0.565
209	-0.572
210	-0.585
210	-0.593
211	-0.588
211	-0.59
212	-0.601
212	-0.607
213	-0.602
213	-0.596
213	-0.593
214	-0.603
214	-0.605
215	-0.602
215	-0.605
216	-0.615
216	-0.622
217	-0.618
217	-0.618
218	-0.627
218	-0.631
219	-0.639
219	-0.641
220	-0.645
220	-0.652
221	-0.653
221	-0.653
221	-0.645
222	-0.646
222	-0.644
223	-0.64
223	-0.642
224	-0.642
224	-0.639
225	-0.636
225	-0.637
226	-0.638
226	-0.637
227	-0.644
227	-0.653
228	-0.656
228	-0.663
229	-0.672
229	-0.669
229	-0.668
230	-0.664
230	-0.662
231	-0.657
231	-0.653
232	-0.656
232	-0.65
233	-0.652
233	-0.64
234	-0.638
234	-0.634
235	-0.64
235	-0.649
236	-0.656
236	-0.658
236	-0.659
237	-0.657
237	-0.658
238	-0.658
238	-0.661
239	-0.661
239	-0.671
240	-0.665
240	-0.661
241	-0.656
241	-0.659
242	-0.662
242	-0.669
243	-0.671
243	-0.672
243	-0.678
244	-0.675
244	-0.677
245	-0.68
245	-0.683
246	-0.695
246	-0.698
247	-0.704
247	-0.692
248	-0.692
248	-0.694
249	-0.698
249	-0.699
250	-0.698
250	-0.705
250	-0.704
251	-0.704
251	-0.7
252	-0.701
252	-0.713
253	-0.707
253	-0.719
254	-0.724
254	-0.725
255	-0.736
255	-0.734
256	-0.736
256	-0.748
257	-0.758
257	-0.754
258	-0.756
258	-0.764
258	-0.761
259	-0.753
259	-0.772
260	-0.771
260	-0.76
261	-0.771
261	-0.758
262	-0.763
262	-0.763
263	-0.755
263	-0.76
264	-0.77
264	-0.771
265	-0.762
265	-0.764
265	-0.774
266	-0.766
266	-0.766
267	-0.765
267	-0.78
268	-0.788
268	-0.783
269	-0.775
269	-0.79
270	-0.794
270	-0.794
271	-0.808
271	-0.818
272	-0.818
272	-0.823
272	-0.818
273	-0.829
273	-0.843
274	-0.835
274	-0.831
275	-0.827
275	-0.815
276	-0.816
276	-0.821
277	-0.823
277	-0.82
278	-0.822
278	-0.82
278	-0.809
279	-0.818
279	-0.831
280	-0.832
280	-0.842
281	-0.837
281	-0.829
282	-0.836
282	-0.829
283	-0.822
283	-0.836
284	-0.85
284	-0.86
285	-0.84
285	-0.848
285	-0.841
286	-0.847
286	-0.863
287	-0.859
287	-0.859
288	-0.86
288	-0.842
289	-0.84
289	-0.846
290	-0.854
290	-0.841
291	-0.845
291	-0.841
292	-0.822
292	-0.821
292	-0.826
293	-0.812
293	-0.807
294	-0.806
294	-0.795
295	-0.779
295	-0.792
296	-0.805
296	-0.8
297	-0.788
297	-0.791
298	-0.788
298	-0.807
298	-0.812
299	-0.795
299	-0.787
300	-0.784
300	-0.765
301	-0.745
301	-0.749
302	-0.759
302	-0.744
303	-0.735
303	-0.722
304	-0.706
304	-0.708
305	-0.7
305	-0.708
305	-0.723
306	-0.708
306	-0.705
307	-0.697
307	-0.709
308	-0.712
308	-0.708
309	-0.71
309	-0.707
310	-0.704
310	-0.7
311	-0.686
311	-0.705
311	-0.694
312	-0.692
312	-0.681
313	-0.674
313	-0.675
314	-0.678
314	-0.675
315	-0.671
315	-0.665
316	-0.66
316	-0.648
317	-0.639
317	-0.634
318	-0.624
318	-0.621
318	-0.611
319	-0.601
319	-0.593
320	-0.592
320	-0.59
321	-0.585
321	-0.586
322	-0.58
322	-0.573
323	-0.575
323	-0.565
324	-0.563
324	-0.552
324	-0.542
325	-0.528
325	-0.511
326	-0.503
326	-0.478
327	-0.463
327	-0.442
328	-0.411
328	-0.389
329	-0.36
329	-0.331
330	-0.304
330	-0.268
330	-0.232
331	-0.196
331	-0.163
332	-0.128
332	-0.097
333	-0.068
333	-0.036
334	-0.008
334	0.017
335	0.043
335	0.064
336	0.086
336	0.106
336	0.121
337	0.138
337	0.154
338	0.168
338	0.178
339	0.191
339	0.201
340	0.209
340	0.218
341	0.225
341	0.23
342	0.237
342	0.243
342	0.247
343	0.251
343	0.256
344	0.259
344	0.262
345	0.265
345	0.267
346	0.269
346	0.271
347	0.273
347	0.274
348	0.275
348	0.277
348	0.278
349	0.278
349	0.279
350	0.279
350	0.28
351	0.28
351	0.281
352	0.281
352	0.281
353	0.281
353	0.281
354	0.282
354	0.282
354	0.282
355	0.282
355	0.282
356	0.282
356	0.282
357	0.283
357	0.283
358	0.283
358	0.283
359	0.283
359	0.283
360	0.283
360	0.283
360	0.283
361	0.283
361	0.283
362	0.283
362	0.282
363	0.283
363	0.283
364	0.283
364	0.283
365	0.283
365	0.282
366	0.282
366	0.282
366	0.282
367	0.282
367	0.282
368	0.282
368	0.281
369	0.281
369	0.281
370	0.281
370	0.281
371	0.281
371	0.281
372	0.281
372	0.28
372	0.28
373	0.28
373	0.28
374	0.28
374	0.28
375	0.28
375	0.279
376	0.279
376	0.279
377	0.279
377	0.279
378	0.278
378	0.278
378	0.278
379	0.278
379	0.277
380	0.277
380	0.277
381	0.277
381	0.277
382	0.277
382	0.277
383	0.276
383	0.276
383	0.276
384	0.276
384	0.276
385	0.275
385	0.275
386	0.275
386	0.275
387	0.275
387	0.274
388	0.274
388	0.274
389	0.274
389	0.274
389	0.274
390	0.274
390	0.274
391	0.274
391	0.274
392	0.274
392	0.273
393	0.273
393	0.273
394	0.273
394	0.273
394	0.272
395	0.272
395	0.272
396	0.271
396	0.271
397	0.271
397	0.27
398	0.27
398	0.27
399	0.27
399	0.269
400	0.269
400	0.269
400	0.269
401	0.268
401	0.268
402	0.268
402	0.268
403	0.268
403	0.268
404	0.268
404	0.267
405	0.267
405	0.267
405	0.267
406	0.267
406	0.267
407	0.267
407	0.267
408	0.266
408	0.266
409	0.266
409	0.266
410	0.266
410	0.266
411	0.266
411	0.265
411	0.265
412	0.265
412	0.264
413	0.264
413	0.264
414	0.264
414	0.263
415	0.263
415	0.262
416	0.262
416	0.262
416	0.262
417	0.262
417	0.261
418	0.262
418	0.261
419	0.261
419	0.261
420	0.261
420	0.261
421	0.261
421	0.261
421	0.261
422	0.262
422	0.262
423	0.262
423	0.261
424	0.261
424	0.261
425	0.261
425	0.261
426	0.261
426	0.261
427	0.261
427	0.261
427	0.261
428	0.261
428	0.261
429	0.26
429	0.26
430	0.26
430	0.26
431	0.259
431	0.259
432	0.259
432	0.258
432	0.258
433	0.258
433	0.257
434	0.257
434	0.258
435	0.258
435	0.258
436	0.258
436	0.258
437	0.258
437	0.258
437	0.258
438	0.257
438	0.257
439	0.257
439	0.257
440	0.257
440	0.257
441	0.257
441	0.256
442	0.256
442	0.256
442	0.256
443	0.256
443	0.256
444	0.256
444	0.256
445	0.256
445	0.256
446	0.256
446	0.256
447	0.256
447	0.257
447	0.256
448	0.257
448	0.257
449	0.257
449	0.257
450	0.257
450	0.257
451	0.257
451	0.257
452	0.256
452	0.256
452	0.257
453	0.257
453	0.257
454	0.257
454	0.257
455	0.257
455	0.257
456	0.257
456	0.257
457	0.257
457	0.257
458	0.256
458	0.256
458	0.256
459	0.256
459	0.255
460	0.255
460	0.255
461	0.255
461	0.255
462	0.256
462	0.257
463	0.257
463	0.258
463	0.258
464	0.259
464	0.259
465	0.259
465	0.26
466	0.26
466	0.26
467	0.26
467	0.26
467	0.26
468	0.259
468	0.259
469	0.26
469	0.26
470	0.26
470	0.261
471	0.261
471	0.261
472	0.261
472	0.262
472	0.262
473	0.263
473	0.264
474	0.264
474	0.265
475	0.265
475	0.266
476	0.266
476	0.267
477	0.268
477	0.268
477	0.269
478	0.269
478	0.27
479	0.27
479	0.271
480	0.271
480	0.272
481	0.272
481	0.273
482	0.274
482	0.274
482	0.275
483	0.276
483	0.278
484	0.279
484	0.279
485	0.28
485	0.281
486	0.281
486	0.282
487	0.283
487	0.284
487	0.285
488	0.285
488	0.286
489	0.287
489	0.288
490	0.289
490	0.29
491	0.292
491	0.293
492	0.294
492	0.295
492	0.296
493	0.297
493	0.298
494	0.3
494	0.302
495	0.303
495	0.304
496	0.305
496	0.306
496	0.308
497	0.31
497	0.311
498	0.313
498	0.315
499	0.316
499	0.318
500	0.32
500	0.322
501	0.324
501	0.325
501	0.326
502	0.328
502	0.33
503	0.332
503	0.333
504	0.335
504	0.337
505	0.339
505	0.341
506	0.343
506	0.346
506	0.348
507	0.35
507	0.353
508	0.355
508	0.358
509	0.36
509	0.362
510	0.364
510	0.366
511	0.368
511	0.369
511	0.371
512	0.373
512	0.374
513	0.375
513	0.376
514	0.378
514	0.38
515	0.382
515	0.383
515	0.384
516	0.386
516	0.387
517	0.389
517	0.391
518	0.392
518	0.392
519	0.393
519	0.394
520	0.395
520	0.397
520	0.398
521	0.399
521	0.4
522	0.401
522	0.402
523	0.403
523	0.405
524	0.406
524	0.407
524	0.408
525	0.409
525	0.409
526	0.41
526	0.411
527	0.411
527	0.412
528	0.412
528	0.412
529	0.412
529	0.412
529	0.412
530	0.412
530	0.412
531	0.411
531	0.411
532	0.411
532	0.41
533	0.41
533	0.41
533	0.409
534	0.409
534	0.409
535	0.408
535	0.408
536	0.408
536	0.407
537	0.407
537	0.406
538	0.405
538	0.404
538	0.403
539	0.402
539	0.401
540	0.4
540	0.398
541	0.397
541	0.395
542	0.394
542	0.393
542	0.391
543	0.389
543	0.388
544	0.386
544	0.385
545	0.383
545	0.382
546	0.38
546	0.378
547	0.376
547	0.374
547	0.373
548	0.371
548	0.37
549	0.368
549	0.366
550	0.365
550	0.362
551	0.36
551	0.359
551	0.357
552	0.355
552	0.353
553	0.352
553	0.35
554	0.348
554	0.346
555	0.343
555	0.341
556	0.339
556	0.337
556	0.336
557	0.334
557	0.333
558	0.331
558	0.329
559	0.327
559	0.325
560	0.323
560	0.322
560	0.32
561	0.319
561	0.318
562	0.316
562	0.315
563	0.313
563	0.312
564	0.31
564	0.309
564	0.309
565	0.308
565	0.307
566	0.306
566	0.305
567	0.304
567	0.304
568	0.303
568	0.301
568	0.3
569	0.298
569	0.297
570	0.295
570	0.292
571	0.291
571	0.29
572	0.288
572	0.286
573	0.284
573	0.282
573	0.28
574	0.279
574	0.278
575	0.278
575	0.279
576	0.278
576	0.276
577	0.274
577	0.273
577	0.273
578	0.273
578	0.273
579	0.274
579	0.273
580	0.271
580	0.268
581	0.266
581	0.265
581	0.265
582	0.265
582	0.265
583	0.265
583	0.263
584	0.261
584	0.259
585	0.259
585	0.26
585	0.26
586	0.259
586	0.258
587	0.257
587	0.255
588	0.254
588	0.253
589	0.252
589	0.252
590	0.251
590	0.251
590	0.252
591	0.252
591	0.251
592	0.25
592	0.249
593	0.249
593	0.249
594	0.248
594	0.247
594	0.246
595	0.246
595	0.244
596	0.243
596	0.244
597	0.246
597	0.245
598	0.244
598	0.244
598	0.244
599	0.244
599	0.243
600	0.242
600	0.242
601	0.242
601	0.241
602	0.24
602	0.24
602	0.239
603	0.239
603	0.24
604	0.24
604	0.24
605	0.24
605	0.24
606	0.24
606	0.238
606	0.238
607	0.237
607	0.237
608	0.236
608	0.235
609	0.234
609	0.234
610	0.233
610	0.232
610	0.232
611	0.232
611	0.232
612	0.232
612	0.233
613	0.233
613	0.232
614	0.231
614	0.229
614	0.229
615	0.228
615	0.227
616	0.226
616	0.225
617	0.225
617	0.224
618	0.223
618	0.222
618	0.222
619	0.221
619	0.221
620	0.222
620	0.221
621	0.22
621	0.219
622	0.217
622	0.216
622	0.214
623	0.213
623	0.213
624	0.213
624	0.212
625	0.212
625	0.211
626	0.21
626	0.209
626	0.21
627	0.209
627	0.209
628	0.208
628	0.208
629	0.206
629	0.205
630	0.203
630	0.202
630	0.201
631	0.2
631	0.199
632	0.197
632	0.195
633	0.193
633	0.191
634	0.19
634	0.188
634	0.186
635	0.184
635	0.182
636	0.18
636	0.178
637	0.175
637	0.172
638	0.17
638	0.167
638	0.165
639	0.161
639	0.158
640	0.154
640	0.151
641	0.147
641	0.143
642	0.14
642	0.136
642	0.132
643	0.128
643	0.123
644	0.118
644	0.113
645	0.108
645	0.103
646	0.098
646	0.092
646	0.085
647	0.079
647	0.072
648	0.065
648	0.057
649	0.05
649	0.042
650	0.036
650	0.028
650	0.02
651	0.01
651	-0.002
652	-0.016
652	-0.03
653	-0.043
653	-0.055
653	-0.05
654	-0.031
654	-0.026
655	-0.032
655	-0.037
656	-0.044
656	-0.051
657	-0.056
657	-0.062
657	-0.069
658	-0.077
658	-0.109
659	-0.198
659	-0.289
660	-0.332
660	-0.359
661	-0.388
661	-0.42
661	-0.451
662	-0.481
662	-0.512
663	-0.547
663	-0.587
664	-0.625
664	-0.666
665	-0.711
665	-0.759
665	-0.805
666	-0.856
666	-0.912
667	-0.968
667	-1.031
668	-1.091
668	-1.16
669	-1.229
669	-1.303
669	-1.383
670	-1.466
670	-1.58
671	-1.769
671	-2.092
672	-2.326
672	-2.485
672	-2.603
673	-2.697
673	-2.776
674	-2.841
674	-2.858
675	-2.874
675	-2.877
676	-2.872
676	-2.824
676	-2.756
677	-2.674
677	-2.576
678	-2.431
678	-2.197
679	-1.807
679	-1.631
680	-1.524
680	-1.446
680	-1.377
681	-1.327
681	-1.273
682	-1.229
682	-1.185
683	-1.142
683	-1.117
684	-1.088
684	-1.067
684	-1.044
685	-1.023
685	-1.013
686	-0.989
686	-0.976
687	-0.967
687	-0.956
687	-0.956
688	-0.939
688	-0.931
689	-0.936
689	-0.933
690	-0.919
690	-0.908
691	-0.906
691	-0.908
691	-0.908
692	-0.908
692	-0.904
693	-0.911
693	-0.92
694	-0.899
694	-0.896
695	-0.898
695	-0.891
695	-0.898
696	-0.905
696	-0.898
697	-0.89
697	-0.884
698	-0.879
698	-0.873
698	-0.887
699	-0.885
699	-0.886
700	-0.905
700	-0.899
701	-0.884
701	-0.878
702	-0.88
702	-0.878
702	-0.878
703	-0.87
703	-0.856
704	-0.866
704	-0.87
705	-0.858
705	-0.858
705	-0.852
706	-0.845
706	-0.841
707	-0.855
707	-0.858
708	-0.855
708	-0.854
709	-0.856
709	-0.852
709	-0.849
710	-0.857
710	-0.86
711	-0.858
711	-0.859
712	-0.85
712	-0.846
713	-0.851
713	-0.85
713	-0.828
714	-0.83
714	-0.832
715	-0.823
715	-0.831
716	-0.848
716	-0.856
716	-0.855
717	-0.861
717	-0.853
718	-0.85
718	-0.851
719	-0.848
719	-0.841
720	-0.836
720	-0.831
720	-0.825
721	-0.815
721	-0.819
722	-0.818
722	-0.813
723	-0.831
723	-0.843
723	-0.852
724	-0.849
724	-0.857
725	-0.85
725	-0.853
726	-0.858
726	-0.851
727	-0.853
727	-0.86
727	-0.849
728	-0.835
728	-0.83
729	-0.834
729	-0.836
730	-0.842
730	-0.832
730	-0.837
731	-0.838
731	-0.838
732	-0.841
732	-0.835
733	-0.85
733	-0.859
734	-0.865
734	-0.856
734	-0.839
735	-0.831
735	-0.826
736	-0.825
736	-0.819
737	-0.819
737	-0.81
737	-0.801
738	-0.786
738	-0.775
739	-0.777
739	-0.778
740	-0.792
740	-0.794
741	-0.804
741	-0.814
741	-0.823
742	-0.829
742	-0.845
743	-0.851
743	-0.853
744	-0.858
744	-0.866
744	-0.86
745	-0.865
745	-0.854
746	-0.848
746	-0.839
747	-0.843
747	-0.834
748	-0.838
748	-0.843
748	-0.843
749	-0.835
749	-0.84
750	-0.832
750	-0.832
751	-0.833
751	-0.83
751	-0.841
752	-0.845
752	-0.848
753	-0.849
753	-0.842
754	-0.86
754	-0.861
754	-0.87
755	-0.87
755	-0.862
756	-0.865
756	-0.85
757	-0.844
757	-0.832
758	-0.832
758	-0.83
758	-0.825
759	-0.83
759	-0.829
760	-0.826
760	-0.829
761	-0.822
761	-0.826
761	-0.826
762	-0.832
762	-0.834
763	-0.836
763	-0.84
764	-0.839
764	-0.836
764	-0.843
765	-0.844
765	-0.849
766	-0.854
766	-0.856
767	-0.873
767	-0.868
768	-0.866
768	-0.859
768	-0.854
769	-0.857
769	-0.865
770	-0.875
770	-0.88
771	-0.874
771	-0.872
771	-0.876
772	-0.881
772	-0.901
773	-0.902
773	-0.902
774	-0.9
774	-0.882
775	-0.868
775	-0.867
775	-0.87
776	-0.881
776	-0.878
777	-0.879
777	-0.863
778	-0.872
778	-0.881
778	-0.88
779	-0.889
779	-0.904
780	-0.901
780	-0.91
781	-0.899
781	-0.888
781	-0.903
782	-0.923
782	-0.924
783	-0.925
783	-0.934
784	-0.938
784	-0.931
784	-0.952
785	-0.946
785	-0.957
786	-0.961
786	-0.951
787	-0.942
787	-0.949
788	-0.94
788	-0.933
788	-0.933
789	-0.934
789	-0.924
790	-0.921
790	-0.906
791	-0.912
791	-0.909
791	-0.9
792	-0.896
792	-0.901
793	-0.904
793	-0.892
794	-0.883
794	-0.876
794	-0.884
795	-0.905
795	-0.893
796	-0.898
796	-0.896
797	-0.888
797	-0.879
797	-0.873
798	-0.894
798	-0.9
799	-0.9
799	-0.887
800	-0.882
800	-0.888
801	-0.884
801	-0.887
801	-0.884
802	-0.881
802	-0.88
803	-0.874
803	-0.867
804	-0.872
804	-0.879
804	-0.862
805	-0.844
805	-0.835
806	-0.837
806	-0.834
807	-0.837
807	-0.836
807	-0.82
808	-0.815
808	-0.807
809	-0.802
809	-0.803
810	-0.805
810	-0.803
810	-0.799
811	-0.802
811	-0.792
812	-0.785
812	-0.787
813	-0.792
813	-0.793
813	-0.789
814	-0.791
814	-0.796
815	-0.788
815	-0.782
816	-0.778
816	-0.794
817	-0.806
817	-0.809
817	-0.817
818	-0.812
818	-0.809
819	-0.816
819	-0.814
820	-0.825
820	-0.824
820	-0.824
821	-0.82
821	-0.815
822	-0.816
822	-0.806
823	-0.816
823	-0.816
823	-0.812
824	-0.81
824	-0.82
825	-0.819
825	-0.817
826	-0.813
826	-0.808
826	-0.806
827	-0.806
827	-0.794
828	-0.792
828	-0.786
829	-0.78
829	-0.764
829	-0.762
830	-0.759
830	-0.743
831	-0.737
831	-0.726
832	-0.715
832	-0.71
832	-0.704
833	-0.702
833	-0.707
834	-0.702
834	-0.696
835	-0.69
835	-0.69
835	-0.686
836	-0.682
836	-0.679
837	-0.67
837	-0.66
838	-0.647
838	-0.631
839	-0.626
839	-0.614
839	-0.603
840	-0.601
840	-0.594
841	-0.582
841	-0.576
842	-0.566
842	-0.554
842	-0.551
843	-0.546
843	-0.541
844	-0.536
844	-0.524
845	-0.508
845	-0.496
845	-0.486
846	-0.474
846	-0.462
847	-0.452
847	-0.44
848	-0.426
848	-0.408
848	-0.394
849	-0.381
849	-0.369
850	-0.358
850	-0.347
851	-0.333
851	-0.316
851	-0.307
852	-0.29
852	-0.276
853	-0.267
853	-0.255
854	-0.243
854	-0.231
854	-0.217
855	-0.205
855	-0.196
856	-0.188
856	-0.178
857	-0.17
857	-0.161
857	-0.147
858	-0.135
858	-0.128
859	-0.115
859	-0.102
860	-0.091
860	-0.075
860	-0.063
861	-0.052
861	-0.042
862	-0.032
862	-0.023
863	-0.015
863	-0.004
863	0.002
864	0.008
864	0.017
865	0.024
865	0.03
866	0.038
866	0.044
866	0.051
867	0.057
867	0.063
868	0.067
868	0.073
869	0.078
869	0.081
869	0.083
870	0.085
870	0.087
871	0.089
871	0.09
872	0.092
872	0.092
872	0.093
873	0.093
873	0.092
874	0.091
874	0.091
875	0.09
875	0.09
875	0.089
876	0.089
876	0.088
877	0.088
877	0.087
878	0.086
878	0.086
878	0.086
879	0.086
879	0.086
880	0.085
880	0.085
881	0.083
881	0.082
881	0.081
882	0.08
882	0.078
883	0.076
883	0.074
884	0.073
884	0.073
884	0.072
885	0.072
885	0.072
886	0.072
886	0.072
887	0.071
887	0.071
887	0.07
888	0.07
888	0.069
889	0.068
889	0.067
890	0.066
890	0.065
890	0.065
891	0.065
891	0.064
892	0.065
892	0.065
893	0.065
893	0.065
893	0.065
894	0.065
894	0.066
895	0.065
895	0.066
895	0.065
896	0.065
896	0.065
897	0.065
897	0.065
898	0.065
898	0.065
898	0.065
899	0.066
899	0.066
900	0.066
900	0.066
901	0.066
901	0.066
901	0.066
902	0.066
902	0.067
903	0.067
903	0.066
904	0.066
904	0.066
904	0.066
905	0.066
905	0.066
906	0.066
906	0.066
907	0.066
907	0.066
907	0.066
908	0.066
908	0.066
909	0.067
909	0.067
910	0.067
910	0.068
910	0.068
911	0.068
911	0.069
912	0.07
912	0.071
913	0.072
913	0.072
913	0.072
914	0.073
914	0.073
915	0.073
915	0.073
916	0.073
916	0.073
916	0.072
917	0.072
917	0.072
918	0.071
918	0.071
918	0.07
919	0.07
919	0.07
920	0.07
920	0.07
921	0.071
921	0.071
921	0.071
922	0.071
922	0.071
923	0.071
923	0.071
924	0.071
924	0.07
924	0.07
925	0.069
925	0.068
926	0.067
926	0.066
927	0.066
927	0.065
927	0.065
928	0.064
928	0.065
929	0.065
929	0.066
930	0.066
930	0.067
930	0.068
931	0.068
931	0.069
932	0.07
932	0.071
933	0.072
933	0.072
933	0.072
934	0.071
934	0.071
935	0.07
935	0.069
935	0.068
936	0.067
936	0.066
937	0.064
937	0.063
938	0.063
938	0.062
938	0.061
939	0.061
939	0.06
940	0.059
940	0.059
941	0.058
941	0.057
941	0.057
942	0.056
942	0.056
943	0.056
943	0.055
944	0.054
944	0.053
944	0.053
945	0.053
945	0.053
946	0.052
946	0.051
946	0.05
947	0.05
947	0.05
948	0.05
948	0.051
949	0.052
949	0.053
949	0.054
950	0.055
950	0.056
951	0.058
951	0.059
952	0.06
952	0.061
952	0.062
953	0.062
953	0.063
954	0.062
954	0.062
955	0.062
955	0.061
955	0.06
956	0.06
956	0.059
957	0.058
957	0.057
957	0.056
958	0.055
958	0.055
959	0.055
959	0.054
960	0.054
960	0.054
960	0.054
961	0.054
961	0.055
962	0.055
962	0.055
963	0.055
963	0.056
963	0.056
964	0.057
964	0.057
965	0.058
965	0.058
966	0.058
966	0.059
966	0.059
967	0.06
967	0.06
968	0.06
968	0.06
968	0.061
969	0.06
969	0.06
970	0.06
970	0.059
971	0.059
971	0.059
971	0.058
972	0.059
972	0.059
973	0.059
973	0.059
974	0.059
974	0.059
974	0.059
975	0.059
975	0.059
976	0.058
976	0.058
976	0.058
977	0.057
977	0.056
978	0.056
978	0.055
979	0.055
979	0.055
979	0.055
980	0.055
980	0.055
981	0.055
981	0.056
982	0.056
982	0.056
982	0.056
983	0.056
983	0.056
984	0.056
984	0.055
984	0.055
985	0.054
985	0.054
986	0.053
986	0.052
987	0.051
987	0.05
987	0.05
988	0.049
988	0.047
989	0.046
989	0.045
990	0.044
990	0.043
990	0.041
991	0.04
991	0.039
992	0.038
992	0.037
992	0.036
993	0.036
993	0.035
994	0.034
994	0.032
995	0.031
995	0.03
995	0.028
996	0.027
996	0.026
997	0.025
997	0.024
997	0.023
998	0.023
998	0.023
999	0.023
999	0.024
1000	0.024
1000	0.024
1000	0.025
1001	0.026
1001	0.027
1002	0.027
1002	0.028
1003	0.028
1003	0.029
1003	0.029
1004	0.029
1004	0.029
1005	0.029
1005	0.029
1005	0.028
1006	0.028
1006	0.027
1007	0.027
1007	0.026
1008	0.026
1008	0.025
1008	0.025
1009	0.025
1009	0.026
1010	0.026
1010	0.027
1010	0.028
1011	0.028
1011	0.029
1012	0.03
1012	0.031
1013	0.032
1013	0.032
1013	0.033
1014	0.033
1014	0.033
1015	0.034
1015	0.034
1016	0.034
1016	0.034
1016	0.034
1017	0.033
1017	0.033
1018	0.033
1018	0.032
1018	0.032
1019	0.032
1019	0.031
1020	0.031
1020	0.03
1021	0.03
1021	0.029
1021	0.029
1022	0.029
1022	0.029
1023	0.029
1023	0.029
1023	0.029
1024	0.029
1024	0.029
1025	0.03
1025	0.03
1026	0.03
1026	0.031
1026	0.031
1027	0.031
1027	0.031
1028	0.032
1028	0.032
1028	0.032
1029	0.032
1029	0.033
1030	0.033
1030	0.033
1031	0.033
1031	0.033
1031	0.033
1032	0.033
1032	0.032
1033	0.032
1033	0.031
1033	0.031
1034	0.03
1034	0.029
1035	0.029
1035	0.028
1036	0.027
1036	0.026
1036	0.026
1037	0.025
1037	0.025
1038	0.025
1038	0.025
1039	0.025
1039	0.026
1039	0.026
1040	0.026
1040	0.026
1041	0.026
1041	0.026
1041	0.026
1042	0.025
1042	0.024
1043	0.023
1043	0.022
1044	0.022
1044	0.021
1044	0.021
1045	0.02
1045	0.02
1046	0.019
1046	0.019
1046	0.019
1047	0.019
1047	0.019
1048	0.02
1048	0.02
1049	0.02
1049	0.019
1049	0.019
1050	0.019
1050	0.018
1051	0.017
1051	0.017
1051	0.016
1052	0.015
1052	0.015
1053	0.014
1053	0.013
1053	0.013
1054	0.012
1054	0.012
1055	0.013
1055	0.013
1056	0.013
1056	0.013
1056	0.013
1057	0.012
1057	0.013
1058	0.012
1058	0.012
1058	0.012
1059	0.012
1059	0.011
1060	0.01
1060	0.01
1061	0.01
1061	0.01
1061	0.01
1062	0.01
1062	0.01
1063	0.01
1063	0.009
1063	0.009
1064	0.01
1064	0.01
1065	0.01
1065	0.009
1066	0.008
1066	0.008
1066	0.007
1067	0.006
1067	0.005
1068	0.004
1068	0.003
1068	0.001
1069	0
1069	-0.002
1070	-0.002
1070	-0.003
1071	-0.004
1071	-0.004
1071	-0.005
1072	-0.005
1072	-0.005
1073	-0.005
1073	-0.005
1073	-0.005
1074	-0.005
1074	-0.005
1075	-0.006
1075	-0.006
1076	-0.007
1076	-0.007
1076	-0.008
1077	-0.009
1077	-0.01
1078	-0.01
1078	-0.011
1078	-0.011
1079	-0.012
1079	-0.012
1080	-0.013
1080	-0.013
1080	-0.014
1081	-0.014
1081	-0.015
1082	-0.015
1082	-0.016
1083	-0.017
1083	-0.019
1083	-0.02
1084	-0.021
1084	-0.022
1085	-0.023
1085	-0.024
1085	-0.026
1086	-0.027
1086	-0.028
1087	-0.029
1087	-0.03
1088	-0.032
1088	-0.032
1088	-0.033
1089	-0.034
1089	-0.035
1090	-0.037
1090	-0.037
1090	-0.039
1091	-0.041
1091	-0.041
1092	-0.042
1092	-0.042
1092	-0.044
1093	-0.045
1093	-0.045
1094	-0.046
1094	-0.047
1095	-0.048
1095	-0.048
1095	-0.048
1096	-0.05
1096	-0.052
1097	-0.053
1097	-0.054
1097	-0.056
1098	-0.058
1098	-0.06
1099	-0.063
1099	-0.064
1100	-0.067
1100	-0.069
1100	-0.073
1101	-0.075
1101	-0.079
1102	-0.081
1102	-0.084
1102	-0.085
1103	-0.088
1103	-0.091
1104	-0.095
1104	-0.099
1104	-0.101
1105	-0.103
1105	-0.106
1106	-0.111
1106	-0.113
1107	-0.119
1107	-0.125
1107	-0.129
1108	-0.131
1108	-0.132
1109	-0.134
1109	-0.138
1109	-0.144
1110	-0.146
1110	-0.151
1111	-0.16
1111	-0.155
