Data from 3.3A_17C_Absorbance__914__03781.txt Node

Date: Tue Jun 20 17:45:17 CEST 2023
User: Marek
Spectrometer: MAYP115816
Trigger mode: 0
Integration Time (sec): 2.200000E-1
Scans to average: 10
Electric dark correction enabled: true
Nonlinearity correction enabled: true
Boxcar width: 5
XAxis mode: Wavelengths
Number of Pixels in Spectrum: 2068
>>>>>Begin Spectral Data<<<<<
199	-0.799
199	-0.787
200	-0.75
200	-0.692
201	-0.668
201	-0.662
202	-0.643
202	-0.635
203	-0.633
203	-0.626
204	-0.607
204	-0.59
205	-0.568
205	-0.559
205	-0.568
206	-0.568
206	-0.563
207	-0.557
207	-0.564
208	-0.568
208	-0.574
209	-0.574
209	-0.581
210	-0.593
210	-0.599
211	-0.593
211	-0.597
212	-0.605
212	-0.614
213	-0.61
213	-0.605
213	-0.602
214	-0.609
214	-0.612
215	-0.607
215	-0.614
216	-0.624
216	-0.63
217	-0.627
217	-0.627
218	-0.635
218	-0.636
219	-0.642
219	-0.645
220	-0.649
220	-0.657
221	-0.654
221	-0.655
221	-0.646
222	-0.645
222	-0.643
223	-0.639
223	-0.641
224	-0.642
224	-0.639
225	-0.634
225	-0.634
226	-0.634
226	-0.633
227	-0.641
227	-0.651
228	-0.656
228	-0.665
229	-0.669
229	-0.667
229	-0.667
230	-0.663
230	-0.662
231	-0.661
231	-0.656
232	-0.661
232	-0.654
233	-0.655
233	-0.642
234	-0.642
234	-0.636
235	-0.641
235	-0.653
236	-0.661
236	-0.662
236	-0.663
237	-0.659
237	-0.661
238	-0.661
238	-0.662
239	-0.664
239	-0.675
240	-0.668
240	-0.662
241	-0.657
241	-0.661
242	-0.663
242	-0.673
243	-0.675
243	-0.676
243	-0.681
244	-0.677
244	-0.68
245	-0.683
245	-0.687
246	-0.696
246	-0.697
247	-0.704
247	-0.689
248	-0.688
248	-0.692
249	-0.699
249	-0.7
250	-0.698
250	-0.707
250	-0.704
251	-0.707
251	-0.705
252	-0.706
252	-0.717
253	-0.712
253	-0.723
254	-0.726
254	-0.728
255	-0.738
255	-0.737
256	-0.738
256	-0.75
257	-0.759
257	-0.756
258	-0.759
258	-0.766
258	-0.765
259	-0.759
259	-0.776
260	-0.776
260	-0.765
261	-0.775
261	-0.76
262	-0.764
262	-0.763
263	-0.753
263	-0.76
264	-0.769
264	-0.771
265	-0.761
265	-0.763
265	-0.775
266	-0.768
266	-0.769
267	-0.768
267	-0.785
268	-0.794
268	-0.787
269	-0.778
269	-0.792
270	-0.796
270	-0.795
271	-0.809
271	-0.818
272	-0.819
272	-0.823
272	-0.815
273	-0.826
273	-0.841
274	-0.835
274	-0.828
275	-0.826
275	-0.815
276	-0.817
276	-0.822
277	-0.825
277	-0.822
278	-0.827
278	-0.825
278	-0.814
279	-0.822
279	-0.835
280	-0.839
280	-0.85
281	-0.844
281	-0.836
282	-0.841
282	-0.834
283	-0.829
283	-0.843
284	-0.855
284	-0.866
285	-0.845
285	-0.851
285	-0.842
286	-0.845
286	-0.865
287	-0.861
287	-0.86
288	-0.859
288	-0.841
289	-0.841
289	-0.849
290	-0.858
290	-0.847
291	-0.85
291	-0.849
292	-0.826
292	-0.825
292	-0.829
293	-0.817
293	-0.813
294	-0.812
294	-0.798
295	-0.781
295	-0.793
296	-0.805
296	-0.8
297	-0.789
297	-0.794
298	-0.791
298	-0.809
298	-0.815
299	-0.797
299	-0.789
300	-0.785
300	-0.765
301	-0.747
301	-0.751
302	-0.76
302	-0.744
303	-0.736
303	-0.724
304	-0.707
304	-0.71
305	-0.704
305	-0.711
305	-0.727
306	-0.712
306	-0.709
307	-0.701
307	-0.714
308	-0.717
308	-0.712
309	-0.715
309	-0.711
310	-0.707
310	-0.702
311	-0.687
311	-0.705
311	-0.693
312	-0.69
312	-0.68
313	-0.67
313	-0.671
314	-0.676
314	-0.674
315	-0.672
315	-0.667
316	-0.663
316	-0.652
317	-0.645
317	-0.642
318	-0.632
318	-0.631
318	-0.621
319	-0.611
319	-0.602
320	-0.6
320	-0.598
321	-0.593
321	-0.594
322	-0.588
322	-0.581
323	-0.582
323	-0.571
324	-0.568
324	-0.556
324	-0.546
325	-0.531
325	-0.514
326	-0.505
326	-0.48
327	-0.466
327	-0.443
328	-0.412
328	-0.389
329	-0.363
329	-0.336
330	-0.311
330	-0.276
330	-0.242
331	-0.206
331	-0.173
332	-0.14
332	-0.109
333	-0.081
333	-0.049
334	-0.02
334	0.005
335	0.032
335	0.051
336	0.071
336	0.092
336	0.108
337	0.124
337	0.139
338	0.152
338	0.161
339	0.174
339	0.183
340	0.191
340	0.2
341	0.206
341	0.211
342	0.217
342	0.223
342	0.228
343	0.231
343	0.235
344	0.238
344	0.241
345	0.244
345	0.246
346	0.248
346	0.25
347	0.251
347	0.253
348	0.254
348	0.255
348	0.256
349	0.257
349	0.257
350	0.258
350	0.258
351	0.259
351	0.259
352	0.259
352	0.259
353	0.26
353	0.26
354	0.26
354	0.26
354	0.26
355	0.26
355	0.26
356	0.26
356	0.26
357	0.261
357	0.261
358	0.26
358	0.261
359	0.26
359	0.26
360	0.261
360	0.261
360	0.261
361	0.261
361	0.261
362	0.261
362	0.261
363	0.261
363	0.261
364	0.261
364	0.261
365	0.261
365	0.26
366	0.26
366	0.26
366	0.26
367	0.26
367	0.26
368	0.26
368	0.26
369	0.26
369	0.259
370	0.259
370	0.259
371	0.259
371	0.259
372	0.259
372	0.259
372	0.259
373	0.258
373	0.258
374	0.258
374	0.258
375	0.258
375	0.258
376	0.258
376	0.258
377	0.258
377	0.257
378	0.257
378	0.257
378	0.257
379	0.257
379	0.257
380	0.256
380	0.256
381	0.256
381	0.256
382	0.256
382	0.256
383	0.256
383	0.256
383	0.255
384	0.255
384	0.255
385	0.255
385	0.255
386	0.255
386	0.255
387	0.254
387	0.254
388	0.254
388	0.254
389	0.254
389	0.254
389	0.254
390	0.254
390	0.254
391	0.254
391	0.254
392	0.253
392	0.253
393	0.253
393	0.253
394	0.253
394	0.253
394	0.252
395	0.252
395	0.252
396	0.251
396	0.251
397	0.251
397	0.251
398	0.25
398	0.25
399	0.25
399	0.25
400	0.25
400	0.249
400	0.249
401	0.249
401	0.249
402	0.249
402	0.248
403	0.248
403	0.248
404	0.248
404	0.248
405	0.248
405	0.248
405	0.248
406	0.248
406	0.248
407	0.247
407	0.247
408	0.247
408	0.247
409	0.247
409	0.247
410	0.246
410	0.246
411	0.246
411	0.246
411	0.246
412	0.246
412	0.245
413	0.245
413	0.245
414	0.245
414	0.245
415	0.244
415	0.244
416	0.244
416	0.243
416	0.243
417	0.243
417	0.243
418	0.243
418	0.243
419	0.243
419	0.243
420	0.243
420	0.243
421	0.243
421	0.242
421	0.242
422	0.242
422	0.243
423	0.242
423	0.242
424	0.242
424	0.242
425	0.242
425	0.241
426	0.242
426	0.242
427	0.242
427	0.242
427	0.242
428	0.242
428	0.242
429	0.242
429	0.241
430	0.241
430	0.241
431	0.241
431	0.24
432	0.24
432	0.24
432	0.239
433	0.239
433	0.239
434	0.239
434	0.239
435	0.24
435	0.24
436	0.239
436	0.24
437	0.24
437	0.239
437	0.239
438	0.239
438	0.239
439	0.239
439	0.239
440	0.239
440	0.238
441	0.238
441	0.238
442	0.238
442	0.238
442	0.238
443	0.238
443	0.238
444	0.238
444	0.238
445	0.238
445	0.238
446	0.238
446	0.238
447	0.238
447	0.238
447	0.238
448	0.239
448	0.238
449	0.238
449	0.238
450	0.239
450	0.238
451	0.238
451	0.238
452	0.238
452	0.238
452	0.238
453	0.238
453	0.238
454	0.238
454	0.238
455	0.238
455	0.238
456	0.238
456	0.238
457	0.238
457	0.238
458	0.238
458	0.237
458	0.238
459	0.237
459	0.237
460	0.236
460	0.236
461	0.237
461	0.237
462	0.237
462	0.238
463	0.239
463	0.239
463	0.24
464	0.24
464	0.24
465	0.241
465	0.241
466	0.241
466	0.241
467	0.241
467	0.241
467	0.241
468	0.24
468	0.24
469	0.241
469	0.241
470	0.241
470	0.242
471	0.242
471	0.242
472	0.242
472	0.242
472	0.243
473	0.243
473	0.244
474	0.244
474	0.245
475	0.245
475	0.246
476	0.246
476	0.247
477	0.247
477	0.248
477	0.248
478	0.248
478	0.248
479	0.249
479	0.25
480	0.25
480	0.25
481	0.251
481	0.251
482	0.252
482	0.253
482	0.254
483	0.255
483	0.256
484	0.257
484	0.257
485	0.258
485	0.259
486	0.259
486	0.26
487	0.261
487	0.262
487	0.262
488	0.262
488	0.263
489	0.263
489	0.265
490	0.266
490	0.267
491	0.268
491	0.269
492	0.27
492	0.271
492	0.272
493	0.273
493	0.274
494	0.275
494	0.276
495	0.277
495	0.278
496	0.279
496	0.281
496	0.282
497	0.284
497	0.285
498	0.287
498	0.288
499	0.289
499	0.291
500	0.293
500	0.295
501	0.296
501	0.298
501	0.298
502	0.3
502	0.301
503	0.303
503	0.304
504	0.306
504	0.307
505	0.309
505	0.311
506	0.313
506	0.315
506	0.317
507	0.32
507	0.322
508	0.324
508	0.326
509	0.328
509	0.33
510	0.332
510	0.333
511	0.335
511	0.336
511	0.338
512	0.339
512	0.34
513	0.341
513	0.342
514	0.344
514	0.346
515	0.347
515	0.348
515	0.349
516	0.35
516	0.352
517	0.353
517	0.354
518	0.355
518	0.356
519	0.357
519	0.358
520	0.359
520	0.36
520	0.362
521	0.362
521	0.364
522	0.364
522	0.366
523	0.367
523	0.368
524	0.369
524	0.37
524	0.371
525	0.372
525	0.372
526	0.373
526	0.374
527	0.374
527	0.375
528	0.374
528	0.374
529	0.374
529	0.374
529	0.374
530	0.375
530	0.375
531	0.375
531	0.374
532	0.374
532	0.374
533	0.374
533	0.374
533	0.374
534	0.373
534	0.372
535	0.371
535	0.371
536	0.371
536	0.37
537	0.37
537	0.369
538	0.368
538	0.367
538	0.367
539	0.366
539	0.365
540	0.364
540	0.362
541	0.361
541	0.36
542	0.359
542	0.358
542	0.357
543	0.356
543	0.354
544	0.353
544	0.352
545	0.351
545	0.35
546	0.349
546	0.347
547	0.345
547	0.343
547	0.342
548	0.341
548	0.339
549	0.337
549	0.336
550	0.335
550	0.333
551	0.331
551	0.33
551	0.328
552	0.327
552	0.325
553	0.324
553	0.322
554	0.321
554	0.318
555	0.316
555	0.315
556	0.313
556	0.311
556	0.309
557	0.308
557	0.307
558	0.305
558	0.304
559	0.302
559	0.301
560	0.299
560	0.297
560	0.296
561	0.295
561	0.294
562	0.293
562	0.291
563	0.29
563	0.289
564	0.288
564	0.287
564	0.287
565	0.286
565	0.285
566	0.284
566	0.284
567	0.283
567	0.283
568	0.282
568	0.28
568	0.279
569	0.278
569	0.277
570	0.275
570	0.273
571	0.272
571	0.271
572	0.269
572	0.267
573	0.266
573	0.264
573	0.262
574	0.261
574	0.261
575	0.26
575	0.261
576	0.26
576	0.259
577	0.257
577	0.257
577	0.257
578	0.257
578	0.257
579	0.258
579	0.257
580	0.255
580	0.252
581	0.25
581	0.249
581	0.25
582	0.25
582	0.25
583	0.25
583	0.249
584	0.246
584	0.245
585	0.245
585	0.246
585	0.246
586	0.246
586	0.245
587	0.243
587	0.242
588	0.241
588	0.24
589	0.24
589	0.24
590	0.239
590	0.238
590	0.239
591	0.24
591	0.239
592	0.238
592	0.237
593	0.237
593	0.237
594	0.236
594	0.235
594	0.235
595	0.235
595	0.233
596	0.232
596	0.233
597	0.235
597	0.234
598	0.234
598	0.234
598	0.234
599	0.234
599	0.233
600	0.232
600	0.232
601	0.232
601	0.232
602	0.231
602	0.231
602	0.23
603	0.23
603	0.231
604	0.231
604	0.231
605	0.232
605	0.232
606	0.231
606	0.23
606	0.23
607	0.229
607	0.229
608	0.228
608	0.227
609	0.226
609	0.227
610	0.226
610	0.225
610	0.225
611	0.225
611	0.225
612	0.225
612	0.225
613	0.225
613	0.225
614	0.224
614	0.223
614	0.222
615	0.221
615	0.221
616	0.22
616	0.219
617	0.219
617	0.218
618	0.217
618	0.217
618	0.216
619	0.216
619	0.216
620	0.216
620	0.215
621	0.214
621	0.214
622	0.212
622	0.211
622	0.21
623	0.209
623	0.21
624	0.21
624	0.209
625	0.208
625	0.208
626	0.207
626	0.207
626	0.207
627	0.207
627	0.206
628	0.206
628	0.205
629	0.204
629	0.203
630	0.202
630	0.2
630	0.199
631	0.198
631	0.197
632	0.195
632	0.194
633	0.192
633	0.19
634	0.188
634	0.186
634	0.185
635	0.183
635	0.181
636	0.18
636	0.178
637	0.175
637	0.173
638	0.171
638	0.168
638	0.165
639	0.162
639	0.159
640	0.156
640	0.152
641	0.149
641	0.145
642	0.142
642	0.138
642	0.134
643	0.13
643	0.126
644	0.121
644	0.116
645	0.112
645	0.107
646	0.102
646	0.096
646	0.09
647	0.083
647	0.077
648	0.07
648	0.063
649	0.055
649	0.049
650	0.042
650	0.034
650	0.026
651	0.016
651	0.004
652	-0.009
652	-0.024
653	-0.037
653	-0.049
653	-0.045
654	-0.027
654	-0.022
655	-0.028
655	-0.034
656	-0.041
656	-0.048
657	-0.054
657	-0.06
657	-0.067
658	-0.075
658	-0.108
659	-0.195
659	-0.288
660	-0.33
660	-0.359
661	-0.388
661	-0.419
661	-0.451
662	-0.48
662	-0.51
663	-0.546
663	-0.585
664	-0.623
664	-0.664
665	-0.711
665	-0.758
665	-0.803
666	-0.854
666	-0.909
667	-0.965
667	-1.028
668	-1.087
668	-1.156
669	-1.224
669	-1.298
669	-1.376
670	-1.458
670	-1.567
671	-1.73
671	-2.039
672	-2.295
672	-2.462
672	-2.585
673	-2.683
673	-2.764
674	-2.838
674	-2.857
675	-2.873
675	-2.877
676	-2.875
676	-2.835
676	-2.769
677	-2.69
677	-2.597
678	-2.46
678	-2.248
679	-1.836
679	-1.646
680	-1.536
680	-1.456
680	-1.385
681	-1.334
681	-1.279
682	-1.235
682	-1.191
683	-1.147
683	-1.122
684	-1.094
684	-1.074
684	-1.05
685	-1.029
685	-1.018
686	-0.994
686	-0.98
687	-0.97
687	-0.958
687	-0.958
688	-0.941
688	-0.933
689	-0.935
689	-0.931
690	-0.917
690	-0.906
691	-0.904
691	-0.906
691	-0.906
692	-0.906
692	-0.901
693	-0.909
693	-0.92
694	-0.901
694	-0.902
695	-0.904
695	-0.898
695	-0.903
696	-0.912
696	-0.905
697	-0.899
697	-0.896
698	-0.89
698	-0.882
698	-0.896
699	-0.895
699	-0.895
700	-0.915
700	-0.911
701	-0.896
701	-0.889
702	-0.889
702	-0.886
702	-0.887
703	-0.879
703	-0.866
704	-0.872
704	-0.876
705	-0.862
705	-0.86
705	-0.854
706	-0.848
706	-0.844
707	-0.857
707	-0.858
708	-0.853
708	-0.851
709	-0.852
709	-0.85
709	-0.847
710	-0.855
710	-0.859
711	-0.858
711	-0.86
712	-0.851
712	-0.849
713	-0.856
713	-0.856
713	-0.835
714	-0.837
714	-0.841
715	-0.831
715	-0.839
716	-0.854
716	-0.863
716	-0.864
717	-0.87
717	-0.863
718	-0.859
718	-0.86
719	-0.855
719	-0.846
720	-0.841
720	-0.837
720	-0.831
721	-0.822
721	-0.826
722	-0.822
722	-0.819
723	-0.836
723	-0.85
723	-0.859
724	-0.858
724	-0.864
725	-0.857
725	-0.862
726	-0.864
726	-0.855
727	-0.858
727	-0.864
727	-0.853
728	-0.838
728	-0.834
729	-0.838
729	-0.84
730	-0.847
730	-0.836
730	-0.841
731	-0.843
731	-0.843
732	-0.846
732	-0.842
733	-0.858
733	-0.865
734	-0.871
734	-0.862
734	-0.845
735	-0.837
735	-0.833
736	-0.832
736	-0.827
737	-0.828
737	-0.817
737	-0.808
738	-0.792
738	-0.782
739	-0.786
739	-0.786
740	-0.8
740	-0.801
741	-0.813
741	-0.821
741	-0.829
742	-0.837
742	-0.855
743	-0.861
743	-0.862
744	-0.865
744	-0.872
744	-0.865
745	-0.871
745	-0.859
746	-0.856
746	-0.847
747	-0.85
747	-0.841
748	-0.841
748	-0.846
748	-0.849
749	-0.842
749	-0.847
750	-0.837
750	-0.84
751	-0.838
751	-0.836
751	-0.847
752	-0.849
752	-0.854
753	-0.856
753	-0.846
754	-0.866
754	-0.866
754	-0.875
755	-0.875
755	-0.866
756	-0.868
756	-0.853
757	-0.845
757	-0.834
758	-0.834
758	-0.833
758	-0.829
759	-0.835
759	-0.835
760	-0.833
760	-0.837
761	-0.832
761	-0.835
761	-0.836
762	-0.841
762	-0.841
763	-0.843
763	-0.846
764	-0.845
764	-0.841
764	-0.844
765	-0.843
765	-0.849
766	-0.853
766	-0.854
767	-0.869
767	-0.864
768	-0.861
768	-0.855
768	-0.849
769	-0.852
769	-0.862
770	-0.872
770	-0.875
771	-0.873
771	-0.872
771	-0.878
772	-0.883
772	-0.904
773	-0.906
773	-0.907
774	-0.904
774	-0.886
775	-0.872
775	-0.874
775	-0.876
776	-0.886
776	-0.882
777	-0.881
777	-0.863
778	-0.871
778	-0.878
778	-0.877
779	-0.887
779	-0.906
780	-0.901
780	-0.912
781	-0.901
781	-0.892
781	-0.906
782	-0.927
782	-0.929
783	-0.93
783	-0.938
784	-0.941
784	-0.932
784	-0.952
785	-0.945
785	-0.958
786	-0.96
786	-0.954
787	-0.944
787	-0.951
788	-0.943
788	-0.938
788	-0.941
789	-0.941
789	-0.93
790	-0.929
790	-0.914
791	-0.921
791	-0.918
791	-0.911
792	-0.904
792	-0.907
793	-0.911
793	-0.896
794	-0.891
794	-0.884
794	-0.889
795	-0.911
795	-0.896
796	-0.9
796	-0.897
797	-0.89
797	-0.88
797	-0.871
798	-0.892
798	-0.895
799	-0.894
799	-0.88
800	-0.874
800	-0.882
801	-0.879
801	-0.882
801	-0.879
802	-0.879
802	-0.879
803	-0.873
803	-0.865
804	-0.873
804	-0.882
804	-0.866
805	-0.847
805	-0.84
806	-0.84
806	-0.836
807	-0.837
807	-0.837
807	-0.821
808	-0.816
808	-0.809
809	-0.802
809	-0.803
810	-0.807
810	-0.803
810	-0.799
811	-0.803
811	-0.794
812	-0.79
812	-0.791
813	-0.795
813	-0.794
813	-0.792
814	-0.79
814	-0.795
815	-0.787
815	-0.782
816	-0.778
816	-0.794
817	-0.803
817	-0.809
817	-0.82
818	-0.813
818	-0.809
819	-0.821
819	-0.819
820	-0.831
820	-0.832
820	-0.832
821	-0.827
821	-0.823
822	-0.821
822	-0.808
823	-0.821
823	-0.82
823	-0.814
824	-0.812
824	-0.821
825	-0.821
825	-0.816
826	-0.812
826	-0.811
826	-0.808
827	-0.808
827	-0.796
828	-0.795
828	-0.787
829	-0.78
829	-0.765
829	-0.761
830	-0.759
830	-0.746
831	-0.736
831	-0.726
832	-0.718
832	-0.713
832	-0.706
833	-0.707
833	-0.712
834	-0.708
834	-0.702
835	-0.694
835	-0.694
835	-0.69
836	-0.686
836	-0.681
837	-0.671
837	-0.663
838	-0.65
838	-0.632
839	-0.626
839	-0.613
839	-0.603
840	-0.602
840	-0.592
841	-0.581
841	-0.575
842	-0.567
842	-0.555
842	-0.552
843	-0.547
843	-0.542
844	-0.54
844	-0.53
845	-0.514
845	-0.503
845	-0.492
846	-0.478
846	-0.468
847	-0.456
847	-0.442
848	-0.428
848	-0.41
848	-0.396
849	-0.382
849	-0.37
850	-0.359
850	-0.348
851	-0.334
851	-0.317
851	-0.306
852	-0.289
852	-0.274
853	-0.264
853	-0.253
854	-0.241
854	-0.228
854	-0.215
855	-0.202
855	-0.194
856	-0.185
856	-0.176
857	-0.167
857	-0.158
857	-0.143
858	-0.13
858	-0.122
859	-0.109
859	-0.097
860	-0.085
860	-0.068
860	-0.057
861	-0.046
861	-0.035
862	-0.026
862	-0.017
863	-0.008
863	0.002
863	0.009
864	0.017
864	0.025
865	0.032
865	0.039
866	0.046
866	0.053
866	0.059
867	0.065
867	0.072
868	0.076
868	0.082
869	0.087
869	0.091
869	0.093
870	0.096
870	0.098
871	0.1
871	0.101
872	0.102
872	0.103
872	0.104
873	0.103
873	0.103
874	0.102
874	0.101
875	0.101
875	0.1
875	0.1
876	0.1
876	0.099
877	0.099
877	0.098
878	0.098
878	0.097
878	0.097
879	0.097
879	0.097
880	0.097
880	0.096
881	0.095
881	0.094
881	0.093
882	0.091
882	0.089
883	0.088
883	0.086
884	0.085
884	0.085
884	0.084
885	0.084
885	0.084
886	0.084
886	0.083
887	0.083
887	0.082
887	0.082
888	0.081
888	0.08
889	0.079
889	0.077
890	0.076
890	0.075
890	0.075
891	0.075
891	0.075
892	0.075
892	0.075
893	0.076
893	0.076
893	0.076
894	0.077
894	0.077
895	0.077
895	0.077
895	0.076
896	0.076
896	0.076
897	0.076
897	0.076
898	0.076
898	0.076
898	0.076
899	0.077
899	0.077
900	0.077
900	0.077
901	0.077
901	0.077
901	0.077
902	0.077
902	0.077
903	0.077
903	0.077
904	0.077
904	0.076
904	0.076
905	0.076
905	0.076
906	0.076
906	0.076
907	0.076
907	0.076
907	0.076
908	0.076
908	0.076
909	0.077
909	0.077
910	0.078
910	0.078
910	0.079
911	0.079
911	0.08
912	0.081
912	0.082
913	0.083
913	0.084
913	0.084
914	0.085
914	0.085
915	0.085
915	0.084
916	0.084
916	0.084
916	0.083
917	0.083
917	0.083
918	0.082
918	0.082
918	0.081
919	0.081
919	0.081
920	0.081
920	0.081
921	0.081
921	0.082
921	0.082
922	0.082
922	0.082
923	0.082
923	0.081
924	0.081
924	0.081
924	0.08
925	0.079
925	0.078
926	0.077
926	0.076
927	0.076
927	0.075
927	0.075
928	0.074
928	0.074
929	0.075
929	0.076
930	0.076
930	0.077
930	0.078
931	0.079
931	0.08
932	0.081
932	0.081
933	0.082
933	0.082
933	0.082
934	0.081
934	0.081
935	0.08
935	0.079
935	0.078
936	0.076
936	0.075
937	0.074
937	0.073
938	0.072
938	0.071
938	0.071
939	0.07
939	0.069
940	0.068
940	0.067
941	0.067
941	0.066
941	0.066
942	0.065
942	0.064
943	0.064
943	0.063
944	0.062
944	0.061
944	0.061
945	0.061
945	0.061
946	0.06
946	0.059
946	0.058
947	0.058
947	0.058
948	0.058
948	0.059
949	0.06
949	0.061
949	0.062
950	0.063
950	0.065
951	0.066
951	0.067
952	0.067
952	0.069
952	0.07
953	0.07
953	0.071
954	0.071
954	0.071
955	0.071
955	0.071
955	0.07
956	0.069
956	0.069
957	0.067
957	0.066
957	0.065
958	0.064
958	0.063
959	0.062
959	0.061
960	0.061
960	0.06
960	0.061
961	0.061
961	0.061
962	0.062
962	0.062
963	0.063
963	0.063
963	0.064
964	0.064
964	0.065
965	0.065
965	0.066
966	0.066
966	0.067
966	0.067
967	0.068
967	0.068
968	0.068
968	0.069
968	0.069
969	0.069
969	0.068
970	0.068
970	0.067
971	0.067
971	0.067
971	0.066
972	0.067
972	0.067
973	0.067
973	0.066
974	0.066
974	0.066
974	0.066
975	0.067
975	0.066
976	0.066
976	0.066
976	0.066
977	0.065
977	0.065
978	0.064
978	0.064
979	0.064
979	0.064
979	0.064
980	0.063
980	0.063
981	0.063
981	0.063
982	0.063
982	0.063
982	0.063
983	0.063
983	0.063
984	0.062
984	0.062
984	0.061
985	0.061
985	0.06
986	0.059
986	0.058
987	0.057
987	0.057
987	0.056
988	0.055
988	0.054
989	0.053
989	0.052
990	0.051
990	0.049
990	0.049
991	0.048
991	0.047
992	0.046
992	0.045
992	0.044
993	0.044
993	0.043
994	0.042
994	0.041
995	0.04
995	0.038
995	0.037
996	0.036
996	0.035
997	0.034
997	0.033
997	0.032
998	0.032
998	0.032
999	0.032
999	0.032
1000	0.032
1000	0.032
1000	0.033
1001	0.034
1001	0.035
1002	0.036
1002	0.036
1003	0.037
1003	0.037
1003	0.038
1004	0.038
1004	0.038
1005	0.038
1005	0.038
1005	0.038
1006	0.037
1006	0.037
1007	0.036
1007	0.035
1008	0.035
1008	0.034
1008	0.034
1009	0.034
1009	0.034
1010	0.034
1010	0.035
1010	0.036
1011	0.036
1011	0.037
1012	0.038
1012	0.039
1013	0.04
1013	0.041
1013	0.041
1014	0.042
1014	0.042
1015	0.042
1015	0.043
1016	0.043
1016	0.042
1016	0.042
1017	0.041
1017	0.04
1018	0.04
1018	0.039
1018	0.039
1019	0.039
1019	0.038
1020	0.038
1020	0.037
1021	0.037
1021	0.037
1021	0.036
1022	0.036
1022	0.036
1023	0.036
1023	0.035
1023	0.035
1024	0.035
1024	0.035
1025	0.035
1025	0.036
1026	0.036
1026	0.037
1026	0.036
1027	0.036
1027	0.037
1028	0.037
1028	0.038
1028	0.039
1029	0.038
1029	0.039
1030	0.039
1030	0.038
1031	0.038
1031	0.039
1031	0.039
1032	0.039
1032	0.038
1033	0.038
1033	0.038
1033	0.037
1034	0.037
1034	0.036
1035	0.036
1035	0.035
1036	0.034
1036	0.033
1036	0.033
1037	0.033
1037	0.033
1038	0.032
1038	0.033
1039	0.033
1039	0.033
1039	0.033
1040	0.033
1040	0.034
1041	0.033
1041	0.033
1041	0.033
1042	0.031
1042	0.031
1043	0.03
1043	0.029
1044	0.029
1044	0.028
1044	0.028
1045	0.027
1045	0.027
1046	0.027
1046	0.026
1046	0.027
1047	0.027
1047	0.027
1048	0.027
1048	0.027
1049	0.027
1049	0.027
1049	0.027
1050	0.026
1050	0.026
1051	0.025
1051	0.024
1051	0.023
1052	0.022
1052	0.021
1053	0.021
1053	0.02
1053	0.02
1054	0.019
1054	0.018
1055	0.019
1055	0.019
1056	0.019
1056	0.019
1056	0.018
1057	0.018
1057	0.018
1058	0.018
1058	0.018
1058	0.018
1059	0.018
1059	0.017
1060	0.017
1060	0.017
1061	0.016
1061	0.016
1061	0.016
1062	0.016
1062	0.016
1063	0.016
1063	0.015
1063	0.015
1064	0.015
1064	0.015
1065	0.015
1065	0.015
1066	0.015
1066	0.014
1066	0.014
1067	0.013
1067	0.012
1068	0.011
1068	0.01
1068	0.009
1069	0.008
1069	0.007
1070	0.006
1070	0.004
1071	0.004
1071	0.003
1071	0.003
1072	0.003
1072	0.003
1073	0.003
1073	0.003
1073	0.003
1074	0.003
1074	0.003
1075	0.003
1075	0.003
1076	0.001
1076	0.001
1076	0
1077	-0
1077	-0.001
1078	-0.002
1078	-0.003
1078	-0.004
1079	-0.004
1079	-0.005
1080	-0.006
1080	-0.007
1080	-0.008
1081	-0.009
1081	-0.009
1082	-0.009
1082	-0.011
1083	-0.012
1083	-0.013
1083	-0.014
1084	-0.016
1084	-0.016
1085	-0.017
1085	-0.018
1085	-0.019
1086	-0.02
1086	-0.022
1087	-0.023
1087	-0.023
1088	-0.025
1088	-0.026
1088	-0.027
1089	-0.029
1089	-0.03
1090	-0.031
1090	-0.032
1090	-0.034
1091	-0.036
1091	-0.036
1092	-0.038
1092	-0.038
1092	-0.039
1093	-0.04
1093	-0.039
1094	-0.04
1094	-0.041
1095	-0.043
1095	-0.043
1095	-0.043
1096	-0.045
1096	-0.047
1097	-0.048
1097	-0.051
1097	-0.052
1098	-0.055
1098	-0.057
1099	-0.059
1099	-0.061
1100	-0.063
1100	-0.066
1100	-0.069
1101	-0.073
1101	-0.076
1102	-0.078
1102	-0.081
1102	-0.082
1103	-0.085
1103	-0.089
1104	-0.092
1104	-0.096
1104	-0.098
1105	-0.1
1105	-0.102
1106	-0.108
1106	-0.111
1107	-0.117
1107	-0.123
1107	-0.128
1108	-0.129
1108	-0.131
1109	-0.134
1109	-0.14
1109	-0.145
1110	-0.148
1110	-0.152
1111	-0.161
1111	-0.155
