Data from 3.3A_17C_Absorbance__58__02925.txt Node

Date: Tue Jun 20 17:13:54 CEST 2023
User: Marek
Spectrometer: MAYP115816
Trigger mode: 0
Integration Time (sec): 2.200000E-1
Scans to average: 10
Electric dark correction enabled: true
Nonlinearity correction enabled: true
Boxcar width: 5
XAxis mode: Wavelengths
Number of Pixels in Spectrum: 2068
>>>>>Begin Spectral Data<<<<<
199	-0.802
199	-0.788
200	-0.753
200	-0.697
201	-0.667
201	-0.659
202	-0.645
202	-0.638
203	-0.64
203	-0.634
204	-0.615
204	-0.598
205	-0.576
205	-0.567
205	-0.577
206	-0.58
206	-0.575
207	-0.567
207	-0.575
208	-0.575
208	-0.578
209	-0.578
209	-0.586
210	-0.598
210	-0.605
211	-0.6
211	-0.603
212	-0.613
212	-0.621
213	-0.618
213	-0.613
213	-0.61
214	-0.618
214	-0.619
215	-0.617
215	-0.622
216	-0.632
216	-0.637
217	-0.636
217	-0.636
218	-0.642
218	-0.645
219	-0.652
219	-0.654
220	-0.658
220	-0.665
221	-0.664
221	-0.663
221	-0.654
222	-0.654
222	-0.654
223	-0.651
223	-0.654
224	-0.655
224	-0.652
225	-0.65
225	-0.65
226	-0.65
226	-0.65
227	-0.658
227	-0.667
228	-0.669
228	-0.678
229	-0.681
229	-0.679
229	-0.68
230	-0.676
230	-0.674
231	-0.669
231	-0.663
232	-0.666
232	-0.66
233	-0.659
233	-0.646
234	-0.647
234	-0.643
235	-0.647
235	-0.657
236	-0.664
236	-0.665
236	-0.666
237	-0.664
237	-0.665
238	-0.667
238	-0.669
239	-0.671
239	-0.679
240	-0.671
240	-0.668
241	-0.665
241	-0.669
242	-0.672
242	-0.681
243	-0.683
243	-0.683
243	-0.687
244	-0.683
244	-0.685
245	-0.687
245	-0.691
246	-0.701
246	-0.703
247	-0.712
247	-0.698
248	-0.696
248	-0.7
249	-0.707
249	-0.709
250	-0.707
250	-0.718
250	-0.715
251	-0.716
251	-0.713
252	-0.714
252	-0.726
253	-0.721
253	-0.732
254	-0.737
254	-0.738
255	-0.748
255	-0.746
256	-0.749
256	-0.761
257	-0.77
257	-0.767
258	-0.767
258	-0.776
258	-0.773
259	-0.766
259	-0.783
260	-0.782
260	-0.771
261	-0.783
261	-0.768
262	-0.774
262	-0.772
263	-0.763
263	-0.768
264	-0.779
264	-0.78
265	-0.771
265	-0.773
265	-0.784
266	-0.775
266	-0.775
267	-0.773
267	-0.79
268	-0.799
268	-0.792
269	-0.782
269	-0.795
270	-0.8
270	-0.799
271	-0.813
271	-0.821
272	-0.823
272	-0.827
272	-0.82
273	-0.83
273	-0.844
274	-0.838
274	-0.834
275	-0.831
275	-0.82
276	-0.822
276	-0.828
277	-0.829
277	-0.824
278	-0.83
278	-0.828
278	-0.816
279	-0.825
279	-0.837
280	-0.837
280	-0.847
281	-0.843
281	-0.835
282	-0.841
282	-0.836
283	-0.827
283	-0.842
284	-0.855
284	-0.865
285	-0.846
285	-0.852
285	-0.845
286	-0.848
286	-0.865
287	-0.861
287	-0.86
288	-0.859
288	-0.84
289	-0.84
289	-0.848
290	-0.858
290	-0.847
291	-0.851
291	-0.849
292	-0.828
292	-0.825
292	-0.828
293	-0.816
293	-0.813
294	-0.811
294	-0.798
295	-0.781
295	-0.794
296	-0.806
296	-0.8
297	-0.79
297	-0.794
298	-0.792
298	-0.81
298	-0.815
299	-0.798
299	-0.79
300	-0.785
300	-0.766
301	-0.747
301	-0.749
302	-0.759
302	-0.746
303	-0.739
303	-0.726
304	-0.708
304	-0.71
305	-0.701
305	-0.71
305	-0.725
306	-0.708
306	-0.707
307	-0.699
307	-0.709
308	-0.711
308	-0.709
309	-0.712
309	-0.709
310	-0.708
310	-0.703
311	-0.687
311	-0.706
311	-0.694
312	-0.693
312	-0.682
313	-0.674
313	-0.676
314	-0.68
314	-0.677
315	-0.674
315	-0.668
316	-0.663
316	-0.654
317	-0.645
317	-0.64
318	-0.631
318	-0.628
318	-0.616
319	-0.604
319	-0.596
320	-0.593
320	-0.59
321	-0.585
321	-0.585
322	-0.579
322	-0.571
323	-0.572
323	-0.563
324	-0.559
324	-0.548
324	-0.536
325	-0.521
325	-0.503
326	-0.493
326	-0.466
327	-0.451
327	-0.429
328	-0.396
328	-0.372
329	-0.341
329	-0.311
330	-0.282
330	-0.245
330	-0.207
331	-0.168
331	-0.132
332	-0.093
332	-0.058
333	-0.025
333	0.013
334	0.045
334	0.074
335	0.105
335	0.13
336	0.155
336	0.179
336	0.199
337	0.22
337	0.241
338	0.257
338	0.27
339	0.286
339	0.298
340	0.308
340	0.318
341	0.326
341	0.334
342	0.343
342	0.35
342	0.355
343	0.36
343	0.366
344	0.37
344	0.374
345	0.378
345	0.382
346	0.384
346	0.387
347	0.389
347	0.391
348	0.392
348	0.394
348	0.396
349	0.396
349	0.397
350	0.398
350	0.399
351	0.4
351	0.4
352	0.4
352	0.4
353	0.401
353	0.401
354	0.401
354	0.402
354	0.402
355	0.402
355	0.401
356	0.402
356	0.402
357	0.402
357	0.402
358	0.402
358	0.402
359	0.402
359	0.402
360	0.402
360	0.402
360	0.402
361	0.402
361	0.402
362	0.402
362	0.402
363	0.402
363	0.402
364	0.402
364	0.401
365	0.401
365	0.401
366	0.401
366	0.401
366	0.401
367	0.401
367	0.4
368	0.4
368	0.399
369	0.399
369	0.398
370	0.398
370	0.398
371	0.397
371	0.397
372	0.396
372	0.396
372	0.396
373	0.396
373	0.395
374	0.395
374	0.395
375	0.394
375	0.394
376	0.393
376	0.393
377	0.392
377	0.392
378	0.391
378	0.39
378	0.39
379	0.39
379	0.389
380	0.389
380	0.389
381	0.388
381	0.388
382	0.388
382	0.387
383	0.387
383	0.386
383	0.386
384	0.385
384	0.385
385	0.384
385	0.384
386	0.384
386	0.383
387	0.383
387	0.382
388	0.382
388	0.381
389	0.381
389	0.381
389	0.381
390	0.381
390	0.38
391	0.38
391	0.379
392	0.379
392	0.379
393	0.378
393	0.378
394	0.377
394	0.377
394	0.376
395	0.375
395	0.375
396	0.374
396	0.374
397	0.373
397	0.373
398	0.372
398	0.372
399	0.372
399	0.371
400	0.371
400	0.37
400	0.37
401	0.369
401	0.369
402	0.369
402	0.368
403	0.368
403	0.368
404	0.367
404	0.367
405	0.367
405	0.366
405	0.366
406	0.366
406	0.366
407	0.365
407	0.365
408	0.364
408	0.364
409	0.364
409	0.363
410	0.363
410	0.363
411	0.362
411	0.362
411	0.362
412	0.361
412	0.36
413	0.36
413	0.36
414	0.359
414	0.359
415	0.359
415	0.358
416	0.358
416	0.358
416	0.357
417	0.357
417	0.357
418	0.357
418	0.357
419	0.357
419	0.357
420	0.357
420	0.356
421	0.356
421	0.356
421	0.356
422	0.356
422	0.356
423	0.356
423	0.355
424	0.355
424	0.354
425	0.354
425	0.354
426	0.354
426	0.354
427	0.354
427	0.354
427	0.354
428	0.354
428	0.354
429	0.354
429	0.353
430	0.353
430	0.353
431	0.352
431	0.352
432	0.352
432	0.351
432	0.351
433	0.35
433	0.35
434	0.351
434	0.351
435	0.351
435	0.351
436	0.351
436	0.351
437	0.352
437	0.351
437	0.351
438	0.351
438	0.351
439	0.351
439	0.351
440	0.35
440	0.35
441	0.35
441	0.35
442	0.35
442	0.35
442	0.35
443	0.35
443	0.35
444	0.35
444	0.35
445	0.35
445	0.35
446	0.35
446	0.35
447	0.35
447	0.351
447	0.351
448	0.351
448	0.351
449	0.351
449	0.351
450	0.352
450	0.352
451	0.352
451	0.352
452	0.352
452	0.353
452	0.353
453	0.353
453	0.353
454	0.353
454	0.353
455	0.354
455	0.354
456	0.354
456	0.354
457	0.354
457	0.354
458	0.354
458	0.354
458	0.355
459	0.355
459	0.354
460	0.354
460	0.354
461	0.355
461	0.356
462	0.356
462	0.357
463	0.358
463	0.359
463	0.36
464	0.361
464	0.361
465	0.362
465	0.363
466	0.364
466	0.364
467	0.365
467	0.365
467	0.365
468	0.365
468	0.365
469	0.366
469	0.367
470	0.368
470	0.369
471	0.369
471	0.37
472	0.371
472	0.372
472	0.373
473	0.374
473	0.376
474	0.377
474	0.378
475	0.379
475	0.38
476	0.381
476	0.382
477	0.384
477	0.385
477	0.386
478	0.387
478	0.388
479	0.39
479	0.391
480	0.392
480	0.393
481	0.394
481	0.396
482	0.397
482	0.399
482	0.401
483	0.403
483	0.406
484	0.408
484	0.409
485	0.412
485	0.414
486	0.415
486	0.417
487	0.419
487	0.421
487	0.423
488	0.424
488	0.426
489	0.428
489	0.431
490	0.433
490	0.435
491	0.438
491	0.441
492	0.444
492	0.446
492	0.448
493	0.45
493	0.453
494	0.457
494	0.46
495	0.463
495	0.465
496	0.468
496	0.471
496	0.475
497	0.478
497	0.481
498	0.484
498	0.487
499	0.49
499	0.494
500	0.498
500	0.502
501	0.506
501	0.509
501	0.512
502	0.515
502	0.519
503	0.522
503	0.526
504	0.529
504	0.532
505	0.536
505	0.54
506	0.544
506	0.548
506	0.552
507	0.556
507	0.56
508	0.565
508	0.569
509	0.573
509	0.577
510	0.581
510	0.585
511	0.588
511	0.592
511	0.595
512	0.598
512	0.601
513	0.603
513	0.607
514	0.61
514	0.613
515	0.616
515	0.618
515	0.621
516	0.624
516	0.627
517	0.63
517	0.633
518	0.635
518	0.636
519	0.638
519	0.64
520	0.642
520	0.644
520	0.646
521	0.648
521	0.65
522	0.651
522	0.653
523	0.655
523	0.657
524	0.658
524	0.659
524	0.66
525	0.661
525	0.661
526	0.662
526	0.662
527	0.663
527	0.662
528	0.662
528	0.661
529	0.66
529	0.66
529	0.659
530	0.658
530	0.657
531	0.656
531	0.655
532	0.653
532	0.652
533	0.651
533	0.649
533	0.647
534	0.644
534	0.642
535	0.64
535	0.638
536	0.636
536	0.633
537	0.63
537	0.627
538	0.624
538	0.62
538	0.617
539	0.614
539	0.611
540	0.607
540	0.603
541	0.599
541	0.595
542	0.591
542	0.586
542	0.582
543	0.577
543	0.572
544	0.568
544	0.563
545	0.559
545	0.554
546	0.549
546	0.544
547	0.539
547	0.534
547	0.529
548	0.525
548	0.52
549	0.515
549	0.51
550	0.505
550	0.499
551	0.494
551	0.489
551	0.483
552	0.478
552	0.473
553	0.467
553	0.463
554	0.457
554	0.451
555	0.446
555	0.441
556	0.435
556	0.43
556	0.425
557	0.42
557	0.415
558	0.41
558	0.405
559	0.399
559	0.394
560	0.389
560	0.383
560	0.379
561	0.375
561	0.371
562	0.366
562	0.362
563	0.357
563	0.353
564	0.349
564	0.345
564	0.341
565	0.337
565	0.333
566	0.328
566	0.324
567	0.32
567	0.316
568	0.312
568	0.308
568	0.304
569	0.3
569	0.295
570	0.291
570	0.286
571	0.283
571	0.279
572	0.274
572	0.27
573	0.266
573	0.262
573	0.258
574	0.254
574	0.251
575	0.248
575	0.247
576	0.244
576	0.239
577	0.236
577	0.233
577	0.231
578	0.229
578	0.227
579	0.225
579	0.223
580	0.218
580	0.213
581	0.209
581	0.206
581	0.204
582	0.203
582	0.201
583	0.199
583	0.196
584	0.192
584	0.188
585	0.186
585	0.185
585	0.183
586	0.181
586	0.179
587	0.176
587	0.173
588	0.17
588	0.168
589	0.166
589	0.165
590	0.162
590	0.16
590	0.16
591	0.158
591	0.156
592	0.153
592	0.151
593	0.149
593	0.148
594	0.146
594	0.144
594	0.142
595	0.141
595	0.138
596	0.136
596	0.136
597	0.136
597	0.135
598	0.133
598	0.132
598	0.131
599	0.13
599	0.128
600	0.126
600	0.125
601	0.124
601	0.123
602	0.121
602	0.12
602	0.119
603	0.118
603	0.118
604	0.117
604	0.116
605	0.116
605	0.116
606	0.114
606	0.112
606	0.111
607	0.11
607	0.109
608	0.107
608	0.105
609	0.104
609	0.103
610	0.102
610	0.1
610	0.1
611	0.1
611	0.099
612	0.099
612	0.098
613	0.098
613	0.097
614	0.095
614	0.093
614	0.092
615	0.091
615	0.089
616	0.088
616	0.087
617	0.086
617	0.084
618	0.083
618	0.082
618	0.082
619	0.081
619	0.081
620	0.082
620	0.08
621	0.079
621	0.078
622	0.077
622	0.076
622	0.075
623	0.074
623	0.074
624	0.073
624	0.072
625	0.072
625	0.072
626	0.071
626	0.07
626	0.07
627	0.07
627	0.07
628	0.07
628	0.07
629	0.069
629	0.068
630	0.067
630	0.066
630	0.066
631	0.065
631	0.065
632	0.064
632	0.063
633	0.062
633	0.061
634	0.061
634	0.061
634	0.061
635	0.06
635	0.06
636	0.059
636	0.059
637	0.058
637	0.057
638	0.057
638	0.056
638	0.055
639	0.054
639	0.053
640	0.052
640	0.05
641	0.049
641	0.048
642	0.046
642	0.045
642	0.044
643	0.042
643	0.04
644	0.039
644	0.037
645	0.035
645	0.034
646	0.032
646	0.03
646	0.027
647	0.025
647	0.022
648	0.019
648	0.015
649	0.012
649	0.008
650	0.004
650	0
650	-0.004
651	-0.01
651	-0.016
652	-0.024
652	-0.032
653	-0.039
653	-0.046
653	-0.043
654	-0.036
654	-0.04
655	-0.047
655	-0.051
656	-0.056
656	-0.062
657	-0.066
657	-0.071
657	-0.076
658	-0.081
658	-0.104
659	-0.159
659	-0.211
660	-0.235
660	-0.254
661	-0.272
661	-0.294
661	-0.316
662	-0.332
662	-0.351
663	-0.369
663	-0.391
664	-0.408
664	-0.43
665	-0.452
665	-0.473
665	-0.491
666	-0.51
666	-0.532
667	-0.553
667	-0.579
668	-0.605
668	-0.643
669	-0.68
669	-0.717
669	-0.766
670	-0.835
670	-0.995
671	-1.285
671	-1.655
672	-2.016
672	-2.288
672	-2.435
673	-2.483
673	-2.496
674	-2.513
674	-2.521
675	-2.535
675	-2.538
676	-2.53
676	-2.488
676	-2.38
677	-2.131
677	-1.676
678	-1.174
678	-0.983
679	-0.92
679	-0.884
680	-0.859
680	-0.843
680	-0.83
681	-0.831
681	-0.818
682	-0.816
682	-0.8
683	-0.783
683	-0.787
684	-0.783
684	-0.784
684	-0.78
685	-0.778
685	-0.785
686	-0.775
686	-0.775
687	-0.777
687	-0.78
687	-0.79
688	-0.782
688	-0.784
689	-0.797
689	-0.801
690	-0.794
690	-0.791
691	-0.794
691	-0.801
691	-0.805
692	-0.81
692	-0.811
693	-0.823
693	-0.837
694	-0.818
694	-0.822
695	-0.829
695	-0.824
695	-0.834
696	-0.845
696	-0.841
697	-0.836
697	-0.834
698	-0.829
698	-0.824
698	-0.842
699	-0.841
699	-0.842
700	-0.863
700	-0.858
701	-0.844
701	-0.839
702	-0.842
702	-0.84
702	-0.842
703	-0.834
703	-0.822
704	-0.832
704	-0.838
705	-0.828
705	-0.829
705	-0.826
706	-0.819
706	-0.815
707	-0.829
707	-0.834
708	-0.832
708	-0.83
709	-0.831
709	-0.827
709	-0.824
710	-0.832
710	-0.834
711	-0.834
711	-0.835
712	-0.826
712	-0.824
713	-0.83
713	-0.831
713	-0.811
714	-0.814
714	-0.816
715	-0.81
715	-0.818
716	-0.835
716	-0.845
716	-0.846
717	-0.852
717	-0.844
718	-0.839
718	-0.84
719	-0.836
719	-0.83
720	-0.823
720	-0.82
720	-0.815
721	-0.807
721	-0.81
722	-0.808
722	-0.806
723	-0.824
723	-0.838
723	-0.848
724	-0.845
724	-0.852
725	-0.845
725	-0.849
726	-0.853
726	-0.844
727	-0.847
727	-0.853
727	-0.843
728	-0.829
728	-0.824
729	-0.828
729	-0.83
730	-0.838
730	-0.828
730	-0.835
731	-0.84
731	-0.841
732	-0.843
732	-0.838
733	-0.854
733	-0.86
734	-0.867
734	-0.86
734	-0.843
735	-0.832
735	-0.828
736	-0.827
736	-0.822
737	-0.822
737	-0.812
737	-0.806
738	-0.793
738	-0.782
739	-0.784
739	-0.784
740	-0.801
740	-0.8
741	-0.809
741	-0.819
741	-0.828
742	-0.837
742	-0.85
743	-0.856
743	-0.86
744	-0.863
744	-0.871
744	-0.862
745	-0.871
745	-0.86
746	-0.856
746	-0.847
747	-0.849
747	-0.839
748	-0.843
748	-0.847
748	-0.85
749	-0.842
749	-0.848
750	-0.838
750	-0.839
751	-0.838
751	-0.835
751	-0.847
752	-0.851
752	-0.853
753	-0.854
753	-0.845
754	-0.865
754	-0.866
754	-0.875
755	-0.875
755	-0.866
756	-0.87
756	-0.856
757	-0.849
757	-0.838
758	-0.839
758	-0.837
758	-0.834
759	-0.837
759	-0.836
760	-0.835
760	-0.837
761	-0.829
761	-0.834
761	-0.832
762	-0.84
762	-0.841
763	-0.842
763	-0.845
764	-0.846
764	-0.842
764	-0.848
765	-0.848
765	-0.854
766	-0.857
766	-0.862
767	-0.876
767	-0.871
768	-0.869
768	-0.862
768	-0.855
769	-0.859
769	-0.866
770	-0.877
770	-0.881
771	-0.877
771	-0.876
771	-0.88
772	-0.886
772	-0.908
773	-0.908
773	-0.91
774	-0.908
774	-0.89
775	-0.877
775	-0.877
775	-0.879
776	-0.889
776	-0.885
777	-0.882
777	-0.864
778	-0.872
778	-0.88
778	-0.88
779	-0.889
779	-0.904
780	-0.899
780	-0.908
781	-0.897
781	-0.887
781	-0.901
782	-0.922
782	-0.924
783	-0.922
783	-0.93
784	-0.934
784	-0.927
784	-0.947
785	-0.939
785	-0.951
786	-0.956
786	-0.949
787	-0.939
787	-0.946
788	-0.94
788	-0.935
788	-0.938
789	-0.94
789	-0.93
790	-0.931
790	-0.916
791	-0.924
791	-0.92
791	-0.915
792	-0.909
792	-0.913
793	-0.917
793	-0.903
794	-0.895
794	-0.888
794	-0.894
795	-0.913
795	-0.899
796	-0.905
796	-0.901
797	-0.896
797	-0.886
797	-0.879
798	-0.899
798	-0.904
799	-0.904
799	-0.891
800	-0.887
800	-0.898
801	-0.893
801	-0.897
801	-0.892
802	-0.893
802	-0.892
803	-0.888
803	-0.881
804	-0.888
804	-0.896
804	-0.879
805	-0.859
805	-0.851
806	-0.853
806	-0.849
807	-0.852
807	-0.852
807	-0.835
808	-0.832
808	-0.824
809	-0.818
809	-0.819
810	-0.822
810	-0.819
810	-0.813
811	-0.817
811	-0.807
812	-0.8
812	-0.801
813	-0.805
813	-0.805
813	-0.801
814	-0.801
814	-0.805
815	-0.796
815	-0.794
816	-0.792
816	-0.81
817	-0.821
817	-0.824
817	-0.832
818	-0.824
818	-0.822
819	-0.833
819	-0.832
820	-0.844
820	-0.844
820	-0.842
821	-0.834
821	-0.829
822	-0.829
822	-0.819
823	-0.832
823	-0.831
823	-0.825
824	-0.824
824	-0.835
825	-0.832
825	-0.829
826	-0.826
826	-0.821
826	-0.822
827	-0.821
827	-0.81
828	-0.809
828	-0.804
829	-0.798
829	-0.782
829	-0.779
830	-0.779
830	-0.766
831	-0.76
831	-0.749
832	-0.74
832	-0.737
832	-0.733
833	-0.731
833	-0.736
834	-0.73
834	-0.724
835	-0.715
835	-0.714
835	-0.71
836	-0.706
836	-0.702
837	-0.691
837	-0.68
838	-0.667
838	-0.65
839	-0.645
839	-0.634
839	-0.625
840	-0.623
840	-0.613
841	-0.601
841	-0.594
842	-0.586
842	-0.573
842	-0.571
843	-0.569
843	-0.565
844	-0.56
844	-0.549
845	-0.535
845	-0.525
845	-0.516
846	-0.504
846	-0.493
847	-0.482
847	-0.469
848	-0.453
848	-0.436
848	-0.423
849	-0.412
849	-0.4
850	-0.39
850	-0.378
851	-0.366
851	-0.35
851	-0.343
852	-0.328
852	-0.316
853	-0.308
853	-0.298
854	-0.287
854	-0.277
854	-0.264
855	-0.254
855	-0.246
856	-0.238
856	-0.229
857	-0.222
857	-0.215
857	-0.202
858	-0.191
858	-0.184
859	-0.173
859	-0.163
860	-0.153
860	-0.138
860	-0.129
861	-0.119
861	-0.109
862	-0.1
862	-0.092
863	-0.084
863	-0.075
863	-0.069
864	-0.063
864	-0.056
865	-0.049
865	-0.044
866	-0.039
866	-0.033
866	-0.028
867	-0.023
867	-0.017
868	-0.013
868	-0.008
869	-0.004
869	-0
869	0.002
870	0.004
870	0.006
871	0.007
871	0.009
872	0.01
872	0.011
872	0.011
873	0.011
873	0.011
874	0.011
874	0.01
875	0.01
875	0.01
875	0.01
876	0.01
876	0.01
877	0.009
877	0.009
878	0.009
878	0.009
878	0.009
879	0.009
879	0.009
880	0.008
880	0.007
881	0.006
881	0.005
881	0.004
882	0.003
882	0.002
883	0
883	-0.001
884	-0.001
884	-0.002
884	-0.002
885	-0.002
885	-0.002
886	-0.002
886	-0.002
887	-0.003
887	-0.004
887	-0.004
888	-0.005
888	-0.006
889	-0.007
889	-0.008
890	-0.009
890	-0.01
890	-0.011
891	-0.01
891	-0.01
892	-0.01
892	-0.009
893	-0.009
893	-0.008
893	-0.008
894	-0.007
894	-0.006
895	-0.006
895	-0.006
895	-0.006
896	-0.006
896	-0.006
897	-0.006
897	-0.006
898	-0.006
898	-0.005
898	-0.005
899	-0.005
899	-0.004
900	-0.004
900	-0.005
901	-0.005
901	-0.005
901	-0.006
902	-0.006
902	-0.006
903	-0.006
903	-0.007
904	-0.007
904	-0.008
904	-0.008
905	-0.008
905	-0.007
906	-0.007
906	-0.007
907	-0.007
907	-0.007
907	-0.007
908	-0.006
908	-0.006
909	-0.005
909	-0.005
910	-0.005
910	-0.004
910	-0.004
911	-0.003
911	-0.002
912	-0.001
912	0
913	0.001
913	0.002
913	0.003
914	0.003
914	0.004
915	0.004
915	0.004
916	0.004
916	0.004
916	0.004
917	0.003
917	0.003
918	0.003
918	0.002
918	0.001
919	0.001
919	0.001
920	0.001
920	0.001
921	0.002
921	0.002
921	0.002
922	0.003
922	0.003
923	0.003
923	0.003
924	0.003
924	0.003
924	0.002
925	0.001
925	-0.001
926	-0.002
926	-0.003
927	-0.004
927	-0.005
927	-0.006
928	-0.007
928	-0.007
929	-0.007
929	-0.006
930	-0.005
930	-0.005
930	-0.004
931	-0.003
931	-0.002
932	-0
932	0.001
933	0.002
933	0.002
933	0.002
934	0.002
934	0.002
935	0.002
935	0.001
935	-0.001
936	-0.002
936	-0.003
937	-0.004
937	-0.005
938	-0.005
938	-0.006
938	-0.007
939	-0.007
939	-0.008
940	-0.008
940	-0.009
941	-0.009
941	-0.01
941	-0.01
942	-0.01
942	-0.01
943	-0.01
943	-0.01
944	-0.011
944	-0.011
944	-0.011
945	-0.011
945	-0.011
946	-0.012
946	-0.013
946	-0.013
947	-0.013
947	-0.014
948	-0.013
948	-0.013
949	-0.012
949	-0.01
949	-0.009
950	-0.008
950	-0.006
951	-0.004
951	-0.003
952	-0.002
952	-0.001
952	-0
953	0
953	0.001
954	0.001
954	0
955	0
955	0
955	-0.001
956	-0.001
956	-0.002
957	-0.003
957	-0.004
957	-0.005
958	-0.005
958	-0.006
959	-0.006
959	-0.007
960	-0.008
960	-0.008
960	-0.008
961	-0.007
961	-0.007
962	-0.006
962	-0.006
963	-0.006
963	-0.005
963	-0.005
964	-0.004
964	-0.003
965	-0.003
965	-0.002
966	-0.002
966	-0.002
966	-0.001
967	-0.001
967	-0.001
968	-0.001
968	-0.001
968	-0.001
969	-0.001
969	-0.001
970	-0.002
970	-0.002
971	-0.002
971	-0.003
971	-0.002
972	-0.002
972	-0.002
973	-0.002
973	-0.002
974	-0.002
974	-0.002
974	-0.002
975	-0.001
975	-0.002
976	-0.002
976	-0.002
976	-0.003
977	-0.003
977	-0.004
978	-0.004
978	-0.005
979	-0.005
979	-0.005
979	-0.006
980	-0.006
980	-0.006
981	-0.006
981	-0.006
982	-0.006
982	-0.006
982	-0.006
983	-0.006
983	-0.006
984	-0.006
984	-0.006
984	-0.006
985	-0.007
985	-0.007
986	-0.008
986	-0.008
987	-0.009
987	-0.01
987	-0.011
988	-0.012
988	-0.013
989	-0.014
989	-0.015
990	-0.016
990	-0.018
990	-0.019
991	-0.02
991	-0.02
992	-0.021
992	-0.022
992	-0.023
993	-0.024
993	-0.025
994	-0.026
994	-0.027
995	-0.028
995	-0.029
995	-0.031
996	-0.032
996	-0.033
997	-0.034
997	-0.035
997	-0.036
998	-0.036
998	-0.036
999	-0.035
999	-0.035
1000	-0.035
1000	-0.034
1000	-0.033
1001	-0.032
1001	-0.031
1002	-0.03
1002	-0.029
1003	-0.028
1003	-0.028
1003	-0.027
1004	-0.027
1004	-0.026
1005	-0.026
1005	-0.027
1005	-0.027
1006	-0.027
1006	-0.028
1007	-0.028
1007	-0.029
1008	-0.03
1008	-0.031
1008	-0.031
1009	-0.031
1009	-0.031
1010	-0.031
1010	-0.03
1010	-0.03
1011	-0.029
1011	-0.029
1012	-0.028
1012	-0.027
1013	-0.026
1013	-0.026
1013	-0.025
1014	-0.025
1014	-0.024
1015	-0.024
1015	-0.024
1016	-0.024
1016	-0.024
1016	-0.024
1017	-0.025
1017	-0.025
1018	-0.025
1018	-0.025
1018	-0.026
1019	-0.026
1019	-0.026
1020	-0.026
1020	-0.027
1021	-0.027
1021	-0.027
1021	-0.027
1022	-0.027
1022	-0.028
1023	-0.027
1023	-0.028
1023	-0.027
1024	-0.027
1024	-0.028
1025	-0.027
1025	-0.027
1026	-0.027
1026	-0.027
1026	-0.027
1027	-0.027
1027	-0.027
1028	-0.026
1028	-0.025
1028	-0.025
1029	-0.025
1029	-0.024
1030	-0.025
1030	-0.025
1031	-0.025
1031	-0.024
1031	-0.024
1032	-0.024
1032	-0.025
1033	-0.025
1033	-0.026
1033	-0.026
1034	-0.026
1034	-0.027
1035	-0.027
1035	-0.028
1036	-0.029
1036	-0.029
1036	-0.03
1037	-0.03
1037	-0.031
1038	-0.031
1038	-0.031
1039	-0.031
1039	-0.031
1039	-0.031
1040	-0.031
1040	-0.03
1041	-0.03
1041	-0.03
1041	-0.03
1042	-0.031
1042	-0.031
1043	-0.032
1043	-0.032
1044	-0.032
1044	-0.033
1044	-0.033
1045	-0.034
1045	-0.034
1046	-0.035
1046	-0.035
1046	-0.035
1047	-0.035
1047	-0.034
1048	-0.034
1048	-0.034
1049	-0.033
1049	-0.034
1049	-0.034
1050	-0.035
1050	-0.035
1051	-0.036
1051	-0.037
1051	-0.038
1052	-0.039
1052	-0.04
1053	-0.04
1053	-0.041
1053	-0.041
1054	-0.042
1054	-0.042
1055	-0.042
1055	-0.041
1056	-0.041
1056	-0.041
1056	-0.041
1057	-0.041
1057	-0.041
1058	-0.041
1058	-0.041
1058	-0.04
1059	-0.041
1059	-0.041
1060	-0.042
1060	-0.042
1061	-0.042
1061	-0.042
1061	-0.042
1062	-0.043
1062	-0.043
1063	-0.043
1063	-0.043
1063	-0.043
1064	-0.043
1064	-0.042
1065	-0.042
1065	-0.043
1066	-0.043
1066	-0.043
1066	-0.043
1067	-0.044
1067	-0.045
1068	-0.046
1068	-0.047
1068	-0.048
1069	-0.049
1069	-0.05
1070	-0.05
1070	-0.051
1071	-0.052
1071	-0.052
1071	-0.053
1072	-0.053
1072	-0.053
1073	-0.053
1073	-0.053
1073	-0.053
1074	-0.053
1074	-0.053
1075	-0.053
1075	-0.054
1076	-0.055
1076	-0.054
1076	-0.055
1077	-0.056
1077	-0.057
1078	-0.057
1078	-0.058
1078	-0.058
1079	-0.059
1079	-0.059
1080	-0.06
1080	-0.061
1080	-0.062
1081	-0.063
1081	-0.063
1082	-0.064
1082	-0.065
1083	-0.067
1083	-0.068
1083	-0.07
1084	-0.071
1084	-0.072
1085	-0.073
1085	-0.075
1085	-0.076
1086	-0.077
1086	-0.078
1087	-0.079
1087	-0.08
1088	-0.081
1088	-0.082
1088	-0.082
1089	-0.084
1089	-0.085
1090	-0.085
1090	-0.085
1090	-0.087
1091	-0.088
1091	-0.088
1092	-0.088
1092	-0.088
1092	-0.089
1093	-0.09
1093	-0.089
1094	-0.09
1094	-0.09
1095	-0.092
1095	-0.093
1095	-0.093
1096	-0.095
1096	-0.097
1097	-0.098
1097	-0.1
1097	-0.102
1098	-0.104
1098	-0.106
1099	-0.108
1099	-0.11
1100	-0.112
1100	-0.114
1100	-0.117
1101	-0.12
1101	-0.123
1102	-0.125
1102	-0.128
1102	-0.13
1103	-0.133
1103	-0.135
1104	-0.139
1104	-0.142
1104	-0.144
1105	-0.146
1105	-0.148
1106	-0.153
1106	-0.155
1107	-0.161
1107	-0.166
1107	-0.17
1108	-0.172
1108	-0.174
1109	-0.178
1109	-0.182
1109	-0.186
1110	-0.189
1110	-0.192
1111	-0.202
1111	-0.196
