Data from 3.3A_17C_Absorbance__435__03302.txt Node

Date: Tue Jun 20 17:27:43 CEST 2023
User: Marek
Spectrometer: MAYP115816
Trigger mode: 0
Integration Time (sec): 2.200000E-1
Scans to average: 10
Electric dark correction enabled: true
Nonlinearity correction enabled: true
Boxcar width: 5
XAxis mode: Wavelengths
Number of Pixels in Spectrum: 2068
>>>>>Begin Spectral Data<<<<<
199	-0.814
199	-0.794
200	-0.759
200	-0.7
201	-0.67
201	-0.661
202	-0.645
202	-0.639
203	-0.638
203	-0.632
204	-0.613
204	-0.596
205	-0.572
205	-0.561
205	-0.57
206	-0.574
206	-0.57
207	-0.561
207	-0.567
208	-0.567
208	-0.57
209	-0.57
209	-0.578
210	-0.591
210	-0.599
211	-0.594
211	-0.598
212	-0.606
212	-0.614
213	-0.612
213	-0.608
213	-0.605
214	-0.613
214	-0.614
215	-0.611
215	-0.616
216	-0.624
216	-0.629
217	-0.627
217	-0.628
218	-0.635
218	-0.636
219	-0.643
219	-0.642
220	-0.646
220	-0.653
221	-0.653
221	-0.654
221	-0.645
222	-0.646
222	-0.644
223	-0.64
223	-0.643
224	-0.643
224	-0.642
225	-0.64
225	-0.641
226	-0.641
226	-0.64
227	-0.648
227	-0.658
228	-0.662
228	-0.67
229	-0.675
229	-0.674
229	-0.674
230	-0.668
230	-0.667
231	-0.662
231	-0.657
232	-0.658
232	-0.652
233	-0.652
233	-0.638
234	-0.638
234	-0.633
235	-0.638
235	-0.65
236	-0.657
236	-0.66
236	-0.66
237	-0.66
237	-0.66
238	-0.66
238	-0.663
239	-0.665
239	-0.676
240	-0.669
240	-0.662
241	-0.658
241	-0.66
242	-0.663
242	-0.671
243	-0.674
243	-0.675
243	-0.681
244	-0.676
244	-0.677
245	-0.679
245	-0.685
246	-0.695
246	-0.697
247	-0.706
247	-0.692
248	-0.692
248	-0.695
249	-0.7
249	-0.704
250	-0.701
250	-0.709
250	-0.707
251	-0.708
251	-0.704
252	-0.705
252	-0.717
253	-0.711
253	-0.722
254	-0.727
254	-0.726
255	-0.738
255	-0.737
256	-0.74
256	-0.751
257	-0.763
257	-0.758
258	-0.758
258	-0.766
258	-0.764
259	-0.756
259	-0.775
260	-0.776
260	-0.765
261	-0.776
261	-0.762
262	-0.767
262	-0.765
263	-0.757
263	-0.762
264	-0.773
264	-0.775
265	-0.763
265	-0.765
265	-0.774
266	-0.765
266	-0.767
267	-0.766
267	-0.784
268	-0.792
268	-0.784
269	-0.775
269	-0.788
270	-0.792
270	-0.791
271	-0.804
271	-0.814
272	-0.814
272	-0.818
272	-0.813
273	-0.82
273	-0.838
274	-0.83
274	-0.826
275	-0.824
275	-0.812
276	-0.814
276	-0.82
277	-0.821
277	-0.818
278	-0.822
278	-0.823
278	-0.809
279	-0.818
279	-0.833
280	-0.835
280	-0.847
281	-0.842
281	-0.833
282	-0.839
282	-0.832
283	-0.824
283	-0.838
284	-0.852
284	-0.861
285	-0.839
285	-0.846
285	-0.837
286	-0.842
286	-0.858
287	-0.856
287	-0.856
288	-0.855
288	-0.838
289	-0.836
289	-0.843
290	-0.853
290	-0.84
291	-0.844
291	-0.844
292	-0.823
292	-0.821
292	-0.826
293	-0.813
293	-0.808
294	-0.809
294	-0.796
295	-0.778
295	-0.792
296	-0.803
296	-0.798
297	-0.787
297	-0.789
298	-0.786
298	-0.804
298	-0.808
299	-0.789
299	-0.782
300	-0.777
300	-0.758
301	-0.738
301	-0.74
302	-0.751
302	-0.736
303	-0.729
303	-0.718
304	-0.701
304	-0.704
305	-0.697
305	-0.707
305	-0.721
306	-0.706
306	-0.705
307	-0.696
307	-0.708
308	-0.71
308	-0.706
309	-0.708
309	-0.705
310	-0.701
310	-0.696
311	-0.682
311	-0.701
311	-0.689
312	-0.685
312	-0.673
313	-0.664
313	-0.664
314	-0.669
314	-0.666
315	-0.664
315	-0.659
316	-0.654
316	-0.644
317	-0.636
317	-0.634
318	-0.625
318	-0.624
318	-0.614
319	-0.603
319	-0.596
320	-0.595
320	-0.591
321	-0.586
321	-0.585
322	-0.577
322	-0.57
323	-0.572
323	-0.562
324	-0.56
324	-0.548
324	-0.536
325	-0.52
325	-0.504
326	-0.494
326	-0.469
327	-0.455
327	-0.433
328	-0.4
328	-0.376
329	-0.347
329	-0.317
330	-0.291
330	-0.254
330	-0.218
331	-0.18
331	-0.146
332	-0.111
332	-0.075
333	-0.043
333	-0.007
334	0.024
334	0.051
335	0.081
335	0.104
336	0.127
336	0.15
336	0.168
337	0.186
337	0.203
338	0.217
338	0.228
339	0.242
339	0.254
340	0.263
340	0.272
341	0.28
341	0.287
342	0.295
342	0.301
342	0.307
343	0.311
343	0.318
344	0.321
344	0.324
345	0.328
345	0.331
346	0.333
346	0.335
347	0.336
347	0.338
348	0.339
348	0.341
348	0.342
349	0.343
349	0.344
350	0.345
350	0.345
351	0.346
351	0.346
352	0.346
352	0.346
353	0.347
353	0.347
354	0.347
354	0.347
354	0.347
355	0.348
355	0.348
356	0.348
356	0.348
357	0.348
357	0.348
358	0.348
358	0.348
359	0.348
359	0.348
360	0.348
360	0.348
360	0.348
361	0.348
361	0.348
362	0.348
362	0.348
363	0.348
363	0.348
364	0.348
364	0.348
365	0.348
365	0.347
366	0.347
366	0.347
366	0.347
367	0.347
367	0.347
368	0.347
368	0.346
369	0.346
369	0.346
370	0.346
370	0.345
371	0.345
371	0.345
372	0.344
372	0.344
372	0.344
373	0.344
373	0.344
374	0.344
374	0.344
375	0.343
375	0.343
376	0.343
376	0.343
377	0.343
377	0.342
378	0.342
378	0.342
378	0.341
379	0.341
379	0.341
380	0.341
380	0.34
381	0.34
381	0.34
382	0.339
382	0.339
383	0.339
383	0.339
383	0.338
384	0.338
384	0.338
385	0.337
385	0.337
386	0.336
386	0.336
387	0.336
387	0.336
388	0.335
388	0.335
389	0.335
389	0.335
389	0.335
390	0.335
390	0.334
391	0.334
391	0.334
392	0.333
392	0.333
393	0.333
393	0.332
394	0.332
394	0.332
394	0.331
395	0.331
395	0.33
396	0.33
396	0.33
397	0.33
397	0.329
398	0.329
398	0.328
399	0.328
399	0.328
400	0.328
400	0.327
400	0.327
401	0.327
401	0.326
402	0.326
402	0.326
403	0.326
403	0.326
404	0.325
404	0.325
405	0.325
405	0.324
405	0.324
406	0.324
406	0.324
407	0.324
407	0.323
408	0.323
408	0.323
409	0.323
409	0.323
410	0.322
410	0.322
411	0.322
411	0.322
411	0.321
412	0.321
412	0.32
413	0.32
413	0.32
414	0.32
414	0.32
415	0.319
415	0.319
416	0.318
416	0.318
416	0.318
417	0.318
417	0.317
418	0.317
418	0.317
419	0.317
419	0.317
420	0.317
420	0.317
421	0.317
421	0.317
421	0.317
422	0.317
422	0.317
423	0.317
423	0.316
424	0.316
424	0.316
425	0.316
425	0.315
426	0.315
426	0.315
427	0.315
427	0.315
427	0.315
428	0.315
428	0.315
429	0.315
429	0.314
430	0.314
430	0.314
431	0.314
431	0.313
432	0.313
432	0.313
432	0.312
433	0.312
433	0.312
434	0.312
434	0.312
435	0.313
435	0.312
436	0.312
436	0.312
437	0.312
437	0.312
437	0.312
438	0.312
438	0.312
439	0.312
439	0.312
440	0.311
440	0.311
441	0.311
441	0.311
442	0.311
442	0.311
442	0.311
443	0.311
443	0.311
444	0.31
444	0.311
445	0.311
445	0.311
446	0.311
446	0.311
447	0.311
447	0.311
447	0.311
448	0.311
448	0.311
449	0.31
449	0.31
450	0.31
450	0.31
451	0.31
451	0.31
452	0.31
452	0.311
452	0.311
453	0.311
453	0.311
454	0.311
454	0.311
455	0.311
455	0.311
456	0.312
456	0.312
457	0.312
457	0.311
458	0.311
458	0.311
458	0.311
459	0.311
459	0.311
460	0.31
460	0.31
461	0.31
461	0.311
462	0.311
462	0.312
463	0.313
463	0.314
463	0.314
464	0.315
464	0.315
465	0.316
465	0.317
466	0.317
466	0.317
467	0.318
467	0.318
467	0.317
468	0.317
468	0.317
469	0.318
469	0.318
470	0.319
470	0.319
471	0.32
471	0.32
472	0.32
472	0.321
472	0.321
473	0.322
473	0.323
474	0.324
474	0.324
475	0.325
475	0.326
476	0.327
476	0.328
477	0.328
477	0.329
477	0.33
478	0.331
478	0.332
479	0.333
479	0.334
480	0.334
480	0.335
481	0.336
481	0.337
482	0.338
482	0.339
482	0.34
483	0.342
483	0.344
484	0.345
484	0.346
485	0.347
485	0.348
486	0.349
486	0.351
487	0.352
487	0.354
487	0.355
488	0.356
488	0.357
489	0.358
489	0.36
490	0.362
490	0.364
491	0.366
491	0.367
492	0.369
492	0.37
492	0.372
493	0.373
493	0.375
494	0.377
494	0.38
495	0.381
495	0.383
496	0.385
496	0.387
496	0.389
497	0.391
497	0.394
498	0.396
498	0.398
499	0.4
499	0.403
500	0.406
500	0.409
501	0.411
501	0.414
501	0.416
502	0.418
502	0.42
503	0.423
503	0.425
504	0.428
504	0.43
505	0.433
505	0.435
506	0.438
506	0.441
506	0.445
507	0.448
507	0.451
508	0.454
508	0.457
509	0.46
509	0.463
510	0.466
510	0.469
511	0.471
511	0.473
511	0.475
512	0.478
512	0.48
513	0.482
513	0.484
514	0.487
514	0.489
515	0.491
515	0.493
515	0.495
516	0.498
516	0.5
517	0.502
517	0.504
518	0.505
518	0.507
519	0.508
519	0.509
520	0.511
520	0.513
520	0.515
521	0.516
521	0.517
522	0.519
522	0.521
523	0.523
523	0.524
524	0.526
524	0.527
524	0.528
525	0.529
525	0.53
526	0.531
526	0.531
527	0.532
527	0.532
528	0.532
528	0.533
529	0.532
529	0.533
529	0.532
530	0.532
530	0.532
531	0.532
531	0.532
532	0.531
532	0.53
533	0.53
533	0.529
533	0.529
534	0.528
534	0.526
535	0.526
535	0.526
536	0.524
536	0.523
537	0.522
537	0.52
538	0.519
538	0.517
538	0.516
539	0.515
539	0.514
540	0.511
540	0.509
541	0.507
541	0.505
542	0.503
542	0.501
542	0.499
543	0.496
543	0.494
544	0.491
544	0.489
545	0.486
545	0.484
546	0.482
546	0.479
547	0.476
547	0.473
547	0.471
548	0.469
548	0.466
549	0.463
549	0.461
550	0.459
550	0.456
551	0.453
551	0.45
551	0.447
552	0.444
552	0.442
553	0.439
553	0.437
554	0.434
554	0.431
555	0.427
555	0.425
556	0.422
556	0.419
556	0.416
557	0.414
557	0.411
558	0.409
558	0.406
559	0.403
559	0.401
560	0.398
560	0.395
560	0.393
561	0.391
561	0.389
562	0.387
562	0.385
563	0.382
563	0.38
564	0.378
564	0.376
564	0.374
565	0.372
565	0.37
566	0.368
566	0.366
567	0.364
567	0.363
568	0.361
568	0.359
568	0.356
569	0.354
569	0.352
570	0.349
570	0.346
571	0.345
571	0.342
572	0.34
572	0.337
573	0.335
573	0.332
573	0.33
574	0.328
574	0.327
575	0.325
575	0.325
576	0.323
576	0.321
577	0.318
577	0.317
577	0.316
578	0.315
578	0.315
579	0.314
579	0.313
580	0.311
580	0.307
581	0.304
581	0.302
581	0.302
582	0.301
582	0.3
583	0.299
583	0.296
584	0.293
584	0.29
585	0.289
585	0.289
585	0.288
586	0.287
586	0.286
587	0.283
587	0.281
588	0.28
588	0.278
589	0.277
589	0.276
590	0.275
590	0.274
590	0.274
591	0.273
591	0.271
592	0.269
592	0.267
593	0.267
593	0.265
594	0.264
594	0.262
594	0.261
595	0.26
595	0.258
596	0.256
596	0.256
597	0.257
597	0.256
598	0.255
598	0.254
598	0.253
599	0.252
599	0.251
600	0.25
600	0.249
601	0.248
601	0.248
602	0.246
602	0.245
602	0.243
603	0.243
603	0.243
604	0.242
604	0.241
605	0.241
605	0.241
606	0.239
606	0.238
606	0.236
607	0.235
607	0.235
608	0.234
608	0.232
609	0.231
609	0.23
610	0.228
610	0.227
610	0.226
611	0.226
611	0.225
612	0.225
612	0.225
613	0.224
613	0.223
614	0.221
614	0.22
614	0.219
615	0.217
615	0.215
616	0.214
616	0.213
617	0.212
617	0.21
618	0.209
618	0.208
618	0.207
619	0.206
619	0.206
620	0.206
620	0.205
621	0.204
621	0.203
622	0.201
622	0.2
622	0.198
623	0.196
623	0.196
624	0.195
624	0.194
625	0.192
625	0.191
626	0.19
626	0.189
626	0.188
627	0.188
627	0.187
628	0.186
628	0.185
629	0.183
629	0.182
630	0.18
630	0.178
630	0.176
631	0.175
631	0.173
632	0.17
632	0.168
633	0.166
633	0.164
634	0.162
634	0.16
634	0.158
635	0.156
635	0.153
636	0.151
636	0.148
637	0.145
637	0.142
638	0.139
638	0.136
638	0.133
639	0.128
639	0.124
640	0.12
640	0.115
641	0.111
641	0.107
642	0.103
642	0.098
642	0.094
643	0.089
643	0.084
644	0.078
644	0.073
645	0.068
645	0.063
646	0.057
646	0.051
646	0.044
647	0.038
647	0.031
648	0.024
648	0.017
649	0.009
649	0.002
650	-0.005
650	-0.012
650	-0.02
651	-0.029
651	-0.041
652	-0.055
652	-0.069
653	-0.082
653	-0.091
653	-0.087
654	-0.067
654	-0.061
655	-0.065
655	-0.07
656	-0.076
656	-0.082
657	-0.086
657	-0.091
657	-0.096
658	-0.103
658	-0.134
659	-0.219
659	-0.308
660	-0.347
660	-0.373
661	-0.4
661	-0.43
661	-0.46
662	-0.487
662	-0.517
663	-0.551
663	-0.588
664	-0.624
664	-0.664
665	-0.709
665	-0.754
665	-0.798
666	-0.847
666	-0.9
667	-0.954
667	-1.016
668	-1.073
668	-1.141
669	-1.209
669	-1.283
669	-1.363
670	-1.449
670	-1.578
671	-1.814
671	-2.167
672	-2.374
672	-2.519
672	-2.63
673	-2.72
673	-2.796
674	-2.834
674	-2.847
675	-2.861
675	-2.863
676	-2.851
676	-2.785
676	-2.709
677	-2.615
677	-2.498
678	-2.314
678	-1.969
679	-1.667
679	-1.531
680	-1.438
680	-1.367
680	-1.305
681	-1.262
681	-1.213
682	-1.174
682	-1.134
683	-1.093
683	-1.071
684	-1.045
684	-1.027
684	-1.006
685	-0.988
685	-0.979
686	-0.957
686	-0.946
687	-0.938
687	-0.929
687	-0.932
688	-0.918
688	-0.912
689	-0.917
689	-0.915
690	-0.902
690	-0.892
691	-0.891
691	-0.893
691	-0.892
692	-0.891
692	-0.887
693	-0.895
693	-0.906
694	-0.885
694	-0.886
695	-0.891
695	-0.886
695	-0.893
696	-0.9
696	-0.893
697	-0.887
697	-0.884
698	-0.876
698	-0.87
698	-0.884
699	-0.88
699	-0.88
700	-0.898
700	-0.893
701	-0.883
701	-0.878
702	-0.88
702	-0.878
702	-0.88
703	-0.871
703	-0.859
704	-0.869
704	-0.872
705	-0.861
705	-0.86
705	-0.854
706	-0.844
706	-0.839
707	-0.854
707	-0.857
708	-0.854
708	-0.851
709	-0.851
709	-0.848
709	-0.844
710	-0.851
710	-0.853
711	-0.854
711	-0.854
712	-0.845
712	-0.841
713	-0.845
713	-0.847
713	-0.828
714	-0.831
714	-0.833
715	-0.824
715	-0.834
716	-0.851
716	-0.862
716	-0.862
717	-0.87
717	-0.863
718	-0.857
718	-0.857
719	-0.852
719	-0.845
720	-0.841
720	-0.836
720	-0.831
721	-0.82
721	-0.823
722	-0.821
722	-0.815
723	-0.833
723	-0.845
723	-0.854
724	-0.853
724	-0.856
725	-0.848
725	-0.851
726	-0.855
726	-0.846
727	-0.847
727	-0.855
727	-0.843
728	-0.831
728	-0.828
729	-0.831
729	-0.835
730	-0.84
730	-0.831
730	-0.836
731	-0.84
731	-0.841
732	-0.843
732	-0.838
733	-0.853
733	-0.862
734	-0.869
734	-0.861
734	-0.843
735	-0.834
735	-0.829
736	-0.827
736	-0.822
737	-0.822
737	-0.813
737	-0.804
738	-0.787
738	-0.776
739	-0.779
739	-0.782
740	-0.795
740	-0.796
741	-0.807
741	-0.817
741	-0.826
742	-0.833
742	-0.847
743	-0.855
743	-0.858
744	-0.861
744	-0.867
744	-0.862
745	-0.869
745	-0.859
746	-0.855
746	-0.846
747	-0.849
747	-0.841
748	-0.843
748	-0.846
748	-0.848
749	-0.84
749	-0.848
750	-0.839
750	-0.839
751	-0.838
751	-0.835
751	-0.847
752	-0.85
752	-0.854
753	-0.856
753	-0.849
754	-0.869
754	-0.869
754	-0.877
755	-0.876
755	-0.867
756	-0.871
756	-0.856
757	-0.847
757	-0.835
758	-0.836
758	-0.836
758	-0.831
759	-0.836
759	-0.836
760	-0.835
760	-0.839
761	-0.832
761	-0.837
761	-0.839
762	-0.845
762	-0.845
763	-0.845
763	-0.849
764	-0.846
764	-0.842
764	-0.847
765	-0.847
765	-0.854
766	-0.858
766	-0.859
767	-0.874
767	-0.869
768	-0.869
768	-0.861
768	-0.857
769	-0.86
769	-0.867
770	-0.876
770	-0.88
771	-0.875
771	-0.875
771	-0.88
772	-0.884
772	-0.905
773	-0.905
773	-0.905
774	-0.904
774	-0.888
775	-0.875
775	-0.872
775	-0.876
776	-0.885
776	-0.881
777	-0.881
777	-0.861
778	-0.871
778	-0.879
778	-0.877
779	-0.885
779	-0.901
780	-0.899
780	-0.908
781	-0.898
781	-0.886
781	-0.9
782	-0.922
782	-0.922
783	-0.922
783	-0.933
784	-0.937
784	-0.93
784	-0.95
785	-0.942
785	-0.955
786	-0.962
786	-0.956
787	-0.945
787	-0.954
788	-0.946
788	-0.938
788	-0.94
789	-0.941
789	-0.929
790	-0.928
790	-0.911
791	-0.917
791	-0.912
791	-0.905
792	-0.9
792	-0.904
793	-0.907
793	-0.895
794	-0.887
794	-0.881
794	-0.889
795	-0.911
795	-0.897
796	-0.902
796	-0.898
797	-0.89
797	-0.88
797	-0.873
798	-0.892
798	-0.896
799	-0.894
799	-0.88
800	-0.874
800	-0.881
801	-0.878
801	-0.882
801	-0.877
802	-0.878
802	-0.877
803	-0.872
803	-0.866
804	-0.872
804	-0.881
804	-0.864
805	-0.846
805	-0.838
806	-0.841
806	-0.839
807	-0.84
807	-0.84
807	-0.822
808	-0.819
808	-0.811
809	-0.805
809	-0.804
810	-0.808
810	-0.805
810	-0.8
811	-0.803
811	-0.796
812	-0.788
812	-0.79
813	-0.795
813	-0.798
813	-0.794
814	-0.797
814	-0.803
815	-0.793
815	-0.789
816	-0.785
816	-0.8
817	-0.812
817	-0.815
817	-0.823
818	-0.815
818	-0.812
819	-0.824
819	-0.822
820	-0.835
820	-0.836
820	-0.834
821	-0.829
821	-0.826
822	-0.825
822	-0.813
823	-0.824
823	-0.824
823	-0.815
824	-0.814
824	-0.822
825	-0.82
825	-0.818
826	-0.814
826	-0.809
826	-0.808
827	-0.809
827	-0.8
828	-0.799
828	-0.795
829	-0.787
829	-0.774
829	-0.771
830	-0.769
830	-0.754
831	-0.748
831	-0.738
832	-0.727
832	-0.721
832	-0.714
833	-0.713
833	-0.719
834	-0.714
834	-0.708
835	-0.7
835	-0.7
835	-0.695
836	-0.692
836	-0.69
837	-0.679
837	-0.671
838	-0.659
838	-0.642
839	-0.636
839	-0.624
839	-0.614
840	-0.611
840	-0.602
841	-0.589
841	-0.582
842	-0.573
842	-0.56
842	-0.556
843	-0.553
843	-0.547
844	-0.544
844	-0.534
845	-0.521
845	-0.51
845	-0.5
846	-0.488
846	-0.478
847	-0.467
847	-0.455
848	-0.439
848	-0.423
848	-0.409
849	-0.395
849	-0.383
850	-0.372
850	-0.362
851	-0.348
851	-0.331
851	-0.321
852	-0.304
852	-0.291
853	-0.282
853	-0.272
854	-0.26
854	-0.249
854	-0.237
855	-0.225
855	-0.217
856	-0.21
856	-0.201
857	-0.194
857	-0.186
857	-0.172
858	-0.161
858	-0.153
859	-0.142
859	-0.13
860	-0.12
860	-0.105
860	-0.095
861	-0.084
861	-0.075
862	-0.066
862	-0.058
863	-0.049
863	-0.039
863	-0.033
864	-0.027
864	-0.02
865	-0.013
865	-0.006
866	-0.001
866	0.005
866	0.011
867	0.016
867	0.022
868	0.026
868	0.031
869	0.036
869	0.04
869	0.042
870	0.044
870	0.047
871	0.049
871	0.05
872	0.051
872	0.052
872	0.053
873	0.053
873	0.052
874	0.052
874	0.052
875	0.051
875	0.051
875	0.051
876	0.051
876	0.05
877	0.05
877	0.049
878	0.048
878	0.048
878	0.048
879	0.047
879	0.047
880	0.046
880	0.045
881	0.043
881	0.041
881	0.04
882	0.039
882	0.037
883	0.036
883	0.034
884	0.034
884	0.033
884	0.033
885	0.032
885	0.032
886	0.032
886	0.031
887	0.031
887	0.03
887	0.03
888	0.03
888	0.03
889	0.029
889	0.028
890	0.027
890	0.027
890	0.026
891	0.026
891	0.026
892	0.027
892	0.027
893	0.027
893	0.027
893	0.028
894	0.028
894	0.029
895	0.029
895	0.03
895	0.03
896	0.03
896	0.03
897	0.03
897	0.03
898	0.031
898	0.031
898	0.031
899	0.031
899	0.031
900	0.032
900	0.032
901	0.031
901	0.031
901	0.03
902	0.03
902	0.03
903	0.029
903	0.029
904	0.028
904	0.027
904	0.027
905	0.027
905	0.027
906	0.028
906	0.029
907	0.029
907	0.03
907	0.03
908	0.031
908	0.032
909	0.033
909	0.033
910	0.034
910	0.034
910	0.034
911	0.035
911	0.036
912	0.036
912	0.037
913	0.038
913	0.038
913	0.038
914	0.039
914	0.039
915	0.039
915	0.039
916	0.039
916	0.038
916	0.038
917	0.037
917	0.036
918	0.035
918	0.035
918	0.034
919	0.033
919	0.033
920	0.033
920	0.033
921	0.033
921	0.033
921	0.034
922	0.034
922	0.034
923	0.034
923	0.034
924	0.034
924	0.033
924	0.033
925	0.031
925	0.03
926	0.029
926	0.027
927	0.026
927	0.025
927	0.024
928	0.023
928	0.023
929	0.023
929	0.024
930	0.024
930	0.025
930	0.026
931	0.027
931	0.028
932	0.029
932	0.03
933	0.031
933	0.031
933	0.032
934	0.031
934	0.031
935	0.03
935	0.029
935	0.028
936	0.027
936	0.026
937	0.025
937	0.024
938	0.024
938	0.023
938	0.022
939	0.022
939	0.021
940	0.02
940	0.02
941	0.019
941	0.018
941	0.018
942	0.017
942	0.017
943	0.017
943	0.017
944	0.017
944	0.016
944	0.016
945	0.016
945	0.015
946	0.015
946	0.014
946	0.014
947	0.014
947	0.013
948	0.014
948	0.014
949	0.015
949	0.016
949	0.018
950	0.019
950	0.021
951	0.023
951	0.024
952	0.024
952	0.026
952	0.026
953	0.027
953	0.028
954	0.027
954	0.027
955	0.027
955	0.027
955	0.027
956	0.026
956	0.026
957	0.025
957	0.024
957	0.023
958	0.022
958	0.022
959	0.021
959	0.021
960	0.02
960	0.02
960	0.02
961	0.02
961	0.02
962	0.021
962	0.021
963	0.022
963	0.022
963	0.023
964	0.023
964	0.024
965	0.025
965	0.025
966	0.026
966	0.027
966	0.027
967	0.028
967	0.028
968	0.028
968	0.028
968	0.029
969	0.028
969	0.028
970	0.027
970	0.026
971	0.026
971	0.026
971	0.026
972	0.026
972	0.026
973	0.026
973	0.025
974	0.025
974	0.025
974	0.025
975	0.026
975	0.025
976	0.025
976	0.025
976	0.024
977	0.024
977	0.023
978	0.022
978	0.021
979	0.021
979	0.02
979	0.02
980	0.019
980	0.019
981	0.018
981	0.018
982	0.018
982	0.018
982	0.018
983	0.018
983	0.018
984	0.018
984	0.018
984	0.018
985	0.017
985	0.017
986	0.017
986	0.016
987	0.015
987	0.015
987	0.014
988	0.014
988	0.013
989	0.012
989	0.012
990	0.011
990	0.01
990	0.009
991	0.009
991	0.008
992	0.007
992	0.006
992	0.005
993	0.004
993	0.003
994	0.002
994	0
995	-0.001
995	-0.002
995	-0.003
996	-0.004
996	-0.005
997	-0.006
997	-0.007
997	-0.007
998	-0.007
998	-0.007
999	-0.007
999	-0.006
1000	-0.006
1000	-0.005
1000	-0.004
1001	-0.004
1001	-0.003
1002	-0.003
1002	-0.002
1003	-0.001
1003	-0.001
1003	-0.001
1004	-0
1004	-0
1005	-0
1005	-0.001
1005	-0.002
1006	-0.002
1006	-0.003
1007	-0.003
1007	-0.004
1008	-0.005
1008	-0.006
1008	-0.007
1009	-0.007
1009	-0.007
1010	-0.007
1010	-0.006
1010	-0.006
1011	-0.005
1011	-0.005
1012	-0.004
1012	-0.003
1013	-0.001
1013	-0.001
1013	0
1014	0.001
1014	0.002
1015	0.003
1015	0.003
1016	0.004
1016	0.004
1016	0.004
1017	0.003
1017	0.003
1018	0.003
1018	0.003
1018	0.003
1019	0.002
1019	0.002
1020	0.002
1020	0.001
1021	0.001
1021	0.001
1021	0
1022	-0
1022	-0.001
1023	-0.001
1023	-0.001
1023	-0.001
1024	-0.001
1024	-0.001
1025	-0.001
1025	-0.001
1026	-0.001
1026	-0
1026	-0.001
1027	-0
1027	-0
1028	0
1028	0.001
1028	0
1029	0
1029	0.001
1030	0.001
1030	0.001
1031	0.001
1031	0.001
1031	0.001
1032	0.001
1032	0.001
1033	0
1033	0
1033	-0
1034	-0.001
1034	-0.002
1035	-0.002
1035	-0.003
1036	-0.004
1036	-0.005
1036	-0.005
1037	-0.006
1037	-0.006
1038	-0.006
1038	-0.007
1039	-0.006
1039	-0.006
1039	-0.006
1040	-0.006
1040	-0.005
1041	-0.005
1041	-0.005
1041	-0.005
1042	-0.006
1042	-0.006
1043	-0.007
1043	-0.007
1044	-0.008
1044	-0.009
1044	-0.009
1045	-0.009
1045	-0.01
1046	-0.01
1046	-0.011
1046	-0.011
1047	-0.011
1047	-0.011
1048	-0.01
1048	-0.011
1049	-0.011
1049	-0.011
1049	-0.012
1050	-0.013
1050	-0.014
1051	-0.015
1051	-0.016
1051	-0.016
1052	-0.017
1052	-0.018
1053	-0.019
1053	-0.02
1053	-0.02
1054	-0.021
1054	-0.021
1055	-0.021
1055	-0.02
1056	-0.02
1056	-0.02
1056	-0.02
1057	-0.02
1057	-0.02
1058	-0.02
1058	-0.02
1058	-0.02
1059	-0.02
1059	-0.021
1060	-0.021
1060	-0.022
1061	-0.022
1061	-0.022
1061	-0.022
1062	-0.022
1062	-0.022
1063	-0.022
1063	-0.023
1063	-0.023
1064	-0.023
1064	-0.022
1065	-0.023
1065	-0.023
1066	-0.023
1066	-0.024
1066	-0.024
1067	-0.025
1067	-0.026
1068	-0.026
1068	-0.027
1068	-0.028
1069	-0.029
1069	-0.03
1070	-0.031
1070	-0.031
1071	-0.032
1071	-0.032
1071	-0.033
1072	-0.033
1072	-0.032
1073	-0.033
1073	-0.033
1073	-0.033
1074	-0.033
1074	-0.033
1075	-0.034
1075	-0.034
1076	-0.035
1076	-0.035
1076	-0.036
1077	-0.037
1077	-0.038
1078	-0.039
1078	-0.039
1078	-0.039
1079	-0.04
1079	-0.04
1080	-0.041
1080	-0.042
1080	-0.043
1081	-0.044
1081	-0.045
1082	-0.046
1082	-0.047
1083	-0.049
1083	-0.05
1083	-0.052
1084	-0.054
1084	-0.055
1085	-0.056
1085	-0.057
1085	-0.057
1086	-0.058
1086	-0.06
1087	-0.061
1087	-0.061
1088	-0.062
1088	-0.063
1088	-0.063
1089	-0.064
1089	-0.065
1090	-0.065
1090	-0.065
1090	-0.066
1091	-0.067
1091	-0.067
1092	-0.067
1092	-0.067
1092	-0.068
1093	-0.068
1093	-0.068
1094	-0.069
1094	-0.07
1095	-0.071
1095	-0.072
1095	-0.072
1096	-0.074
1096	-0.076
1097	-0.077
1097	-0.08
1097	-0.081
1098	-0.084
1098	-0.086
1099	-0.088
1099	-0.09
1100	-0.093
1100	-0.095
1100	-0.098
1101	-0.101
1101	-0.104
1102	-0.106
1102	-0.109
1102	-0.11
1103	-0.113
1103	-0.116
1104	-0.119
1104	-0.121
1104	-0.123
1105	-0.125
1105	-0.127
1106	-0.132
1106	-0.134
1107	-0.14
1107	-0.144
1107	-0.149
1108	-0.15
1108	-0.152
1109	-0.155
1109	-0.16
1109	-0.164
1110	-0.166
1110	-0.169
1111	-0.179
1111	-0.172
