Data from 3.3A_17C_Absorbance__699__03566.txt Node

Date: Tue Jun 20 17:37:24 CEST 2023
User: Marek
Spectrometer: MAYP115816
Trigger mode: 0
Integration Time (sec): 2.200000E-1
Scans to average: 10
Electric dark correction enabled: true
Nonlinearity correction enabled: true
Boxcar width: 5
XAxis mode: Wavelengths
Number of Pixels in Spectrum: 2068
>>>>>Begin Spectral Data<<<<<
199	-0.797
199	-0.784
200	-0.751
200	-0.698
201	-0.669
201	-0.66
202	-0.643
202	-0.636
203	-0.635
203	-0.627
204	-0.607
204	-0.591
205	-0.568
205	-0.558
205	-0.567
206	-0.568
206	-0.563
207	-0.554
207	-0.561
208	-0.562
208	-0.567
209	-0.568
209	-0.574
210	-0.586
210	-0.592
211	-0.585
211	-0.589
212	-0.6
212	-0.608
213	-0.603
213	-0.599
213	-0.596
214	-0.604
214	-0.606
215	-0.603
215	-0.61
216	-0.618
216	-0.623
217	-0.621
217	-0.621
218	-0.629
218	-0.63
219	-0.636
219	-0.638
220	-0.642
220	-0.648
221	-0.647
221	-0.649
221	-0.64
222	-0.639
222	-0.637
223	-0.634
223	-0.637
224	-0.638
224	-0.636
225	-0.633
225	-0.634
226	-0.633
226	-0.631
227	-0.64
227	-0.65
228	-0.655
228	-0.663
229	-0.665
229	-0.663
229	-0.663
230	-0.658
230	-0.656
231	-0.654
231	-0.65
232	-0.653
232	-0.647
233	-0.647
233	-0.636
234	-0.638
234	-0.635
235	-0.638
235	-0.651
236	-0.658
236	-0.66
236	-0.66
237	-0.658
237	-0.661
238	-0.661
238	-0.663
239	-0.665
239	-0.674
240	-0.668
240	-0.662
241	-0.656
241	-0.659
242	-0.662
242	-0.67
243	-0.67
243	-0.672
243	-0.678
244	-0.674
244	-0.674
245	-0.677
245	-0.682
246	-0.693
246	-0.695
247	-0.702
247	-0.687
248	-0.686
248	-0.688
249	-0.693
249	-0.694
250	-0.694
250	-0.703
250	-0.699
251	-0.7
251	-0.698
252	-0.7
252	-0.711
253	-0.707
253	-0.719
254	-0.724
254	-0.726
255	-0.735
255	-0.733
256	-0.736
256	-0.749
257	-0.757
257	-0.753
258	-0.754
258	-0.763
258	-0.761
259	-0.754
259	-0.771
260	-0.772
260	-0.763
261	-0.774
261	-0.759
262	-0.766
262	-0.765
263	-0.757
263	-0.761
264	-0.77
264	-0.771
265	-0.762
265	-0.766
265	-0.774
266	-0.767
266	-0.768
267	-0.765
267	-0.784
268	-0.792
268	-0.787
269	-0.778
269	-0.793
270	-0.795
270	-0.792
271	-0.805
271	-0.814
272	-0.815
272	-0.82
272	-0.812
273	-0.823
273	-0.837
274	-0.828
274	-0.823
275	-0.822
275	-0.811
276	-0.816
276	-0.82
277	-0.822
277	-0.819
278	-0.823
278	-0.821
278	-0.811
279	-0.821
279	-0.833
280	-0.835
280	-0.844
281	-0.837
281	-0.83
282	-0.837
282	-0.83
283	-0.822
283	-0.836
284	-0.85
284	-0.858
285	-0.84
285	-0.848
285	-0.841
286	-0.848
286	-0.865
287	-0.861
287	-0.861
288	-0.86
288	-0.841
289	-0.838
289	-0.847
290	-0.856
290	-0.844
291	-0.846
291	-0.841
292	-0.823
292	-0.821
292	-0.824
293	-0.812
293	-0.81
294	-0.81
294	-0.796
295	-0.778
295	-0.789
296	-0.803
296	-0.798
297	-0.787
297	-0.79
298	-0.788
298	-0.806
298	-0.809
299	-0.791
299	-0.784
300	-0.781
300	-0.764
301	-0.742
301	-0.746
302	-0.754
302	-0.738
303	-0.731
303	-0.718
304	-0.702
304	-0.705
305	-0.697
305	-0.705
305	-0.72
306	-0.706
306	-0.704
307	-0.697
307	-0.708
308	-0.71
308	-0.707
309	-0.708
309	-0.703
310	-0.701
310	-0.696
311	-0.68
311	-0.7
311	-0.688
312	-0.684
312	-0.674
313	-0.665
313	-0.665
314	-0.671
314	-0.669
315	-0.665
315	-0.659
316	-0.653
316	-0.641
317	-0.634
317	-0.631
318	-0.622
318	-0.618
318	-0.608
319	-0.596
319	-0.589
320	-0.588
320	-0.586
321	-0.581
321	-0.583
322	-0.576
322	-0.568
323	-0.568
323	-0.56
324	-0.557
324	-0.547
324	-0.535
325	-0.519
325	-0.502
326	-0.494
326	-0.468
327	-0.453
327	-0.431
328	-0.401
328	-0.379
329	-0.352
329	-0.323
330	-0.297
330	-0.263
330	-0.227
331	-0.192
331	-0.159
332	-0.125
332	-0.092
333	-0.062
333	-0.029
334	-0
334	0.024
335	0.052
335	0.073
336	0.096
336	0.117
336	0.134
337	0.151
337	0.167
338	0.181
338	0.191
339	0.205
339	0.216
340	0.224
340	0.232
341	0.239
341	0.245
342	0.251
342	0.257
342	0.262
343	0.265
343	0.27
344	0.273
344	0.275
345	0.278
345	0.281
346	0.283
346	0.285
347	0.286
347	0.288
348	0.289
348	0.291
348	0.292
349	0.293
349	0.294
350	0.294
350	0.295
351	0.296
351	0.296
352	0.296
352	0.297
353	0.297
353	0.297
354	0.297
354	0.297
354	0.297
355	0.298
355	0.297
356	0.297
356	0.297
357	0.297
357	0.297
358	0.297
358	0.297
359	0.297
359	0.297
360	0.297
360	0.297
360	0.297
361	0.297
361	0.297
362	0.297
362	0.297
363	0.297
363	0.297
364	0.297
364	0.297
365	0.297
365	0.297
366	0.297
366	0.297
366	0.297
367	0.297
367	0.297
368	0.297
368	0.296
369	0.296
369	0.296
370	0.296
370	0.296
371	0.296
371	0.295
372	0.295
372	0.295
372	0.295
373	0.295
373	0.295
374	0.295
374	0.295
375	0.294
375	0.294
376	0.294
376	0.294
377	0.293
377	0.293
378	0.293
378	0.292
378	0.292
379	0.292
379	0.292
380	0.292
380	0.292
381	0.291
381	0.291
382	0.291
382	0.291
383	0.291
383	0.29
383	0.29
384	0.29
384	0.289
385	0.289
385	0.289
386	0.289
386	0.289
387	0.288
387	0.288
388	0.288
388	0.288
389	0.288
389	0.288
389	0.287
390	0.287
390	0.287
391	0.287
391	0.287
392	0.287
392	0.287
393	0.287
393	0.287
394	0.286
394	0.286
394	0.286
395	0.286
395	0.285
396	0.285
396	0.284
397	0.284
397	0.284
398	0.283
398	0.283
399	0.283
399	0.283
400	0.282
400	0.282
400	0.282
401	0.281
401	0.281
402	0.281
402	0.281
403	0.281
403	0.281
404	0.281
404	0.281
405	0.28
405	0.28
405	0.28
406	0.28
406	0.28
407	0.28
407	0.279
408	0.279
408	0.279
409	0.279
409	0.278
410	0.278
410	0.278
411	0.278
411	0.278
411	0.277
412	0.277
412	0.277
413	0.276
413	0.276
414	0.276
414	0.276
415	0.276
415	0.275
416	0.275
416	0.275
416	0.275
417	0.275
417	0.274
418	0.274
418	0.274
419	0.274
419	0.274
420	0.274
420	0.274
421	0.274
421	0.274
421	0.274
422	0.274
422	0.274
423	0.274
423	0.274
424	0.274
424	0.273
425	0.273
425	0.273
426	0.273
426	0.273
427	0.273
427	0.273
427	0.273
428	0.273
428	0.273
429	0.273
429	0.272
430	0.272
430	0.272
431	0.272
431	0.271
432	0.271
432	0.271
432	0.27
433	0.27
433	0.27
434	0.27
434	0.27
435	0.27
435	0.27
436	0.27
436	0.27
437	0.27
437	0.27
437	0.27
438	0.27
438	0.27
439	0.269
439	0.269
440	0.269
440	0.269
441	0.269
441	0.269
442	0.269
442	0.269
442	0.268
443	0.268
443	0.268
444	0.268
444	0.268
445	0.268
445	0.268
446	0.268
446	0.268
447	0.268
447	0.269
447	0.269
448	0.269
448	0.269
449	0.269
449	0.269
450	0.269
450	0.269
451	0.269
451	0.269
452	0.269
452	0.269
452	0.269
453	0.269
453	0.269
454	0.269
454	0.269
455	0.269
455	0.269
456	0.269
456	0.269
457	0.269
457	0.269
458	0.268
458	0.268
458	0.269
459	0.268
459	0.268
460	0.267
460	0.267
461	0.267
461	0.268
462	0.268
462	0.269
463	0.27
463	0.27
463	0.271
464	0.271
464	0.271
465	0.272
465	0.272
466	0.273
466	0.273
467	0.273
467	0.273
467	0.273
468	0.272
468	0.272
469	0.273
469	0.273
470	0.274
470	0.274
471	0.274
471	0.274
472	0.275
472	0.275
472	0.276
473	0.276
473	0.277
474	0.277
474	0.278
475	0.279
475	0.279
476	0.28
476	0.28
477	0.281
477	0.282
477	0.282
478	0.282
478	0.283
479	0.284
479	0.284
480	0.285
480	0.285
481	0.286
481	0.286
482	0.287
482	0.288
482	0.289
483	0.291
483	0.292
484	0.293
484	0.294
485	0.295
485	0.296
486	0.297
486	0.298
487	0.298
487	0.3
487	0.3
488	0.301
488	0.301
489	0.303
489	0.304
490	0.305
490	0.307
491	0.308
491	0.309
492	0.311
492	0.311
492	0.312
493	0.314
493	0.315
494	0.317
494	0.318
495	0.319
495	0.321
496	0.322
496	0.323
496	0.325
497	0.327
497	0.329
498	0.331
498	0.332
499	0.334
499	0.336
500	0.339
500	0.341
501	0.343
501	0.345
501	0.346
502	0.348
502	0.35
503	0.352
503	0.354
504	0.355
504	0.357
505	0.359
505	0.361
506	0.364
506	0.366
506	0.369
507	0.371
507	0.374
508	0.377
508	0.379
509	0.382
509	0.384
510	0.386
510	0.388
511	0.39
511	0.392
511	0.393
512	0.395
512	0.397
513	0.398
513	0.4
514	0.401
514	0.403
515	0.405
515	0.407
515	0.408
516	0.41
516	0.412
517	0.414
517	0.415
518	0.416
518	0.417
519	0.418
519	0.419
520	0.421
520	0.422
520	0.423
521	0.424
521	0.425
522	0.426
522	0.428
523	0.429
523	0.431
524	0.432
524	0.433
524	0.434
525	0.435
525	0.435
526	0.436
526	0.437
527	0.437
527	0.437
528	0.437
528	0.438
529	0.437
529	0.438
529	0.437
530	0.437
530	0.437
531	0.437
531	0.437
532	0.436
532	0.436
533	0.436
533	0.436
533	0.435
534	0.435
534	0.434
535	0.434
535	0.433
536	0.433
536	0.432
537	0.432
537	0.431
538	0.43
538	0.429
538	0.428
539	0.427
539	0.426
540	0.424
540	0.422
541	0.421
541	0.419
542	0.418
542	0.416
542	0.414
543	0.413
543	0.411
544	0.409
544	0.407
545	0.406
545	0.404
546	0.403
546	0.4
547	0.398
547	0.395
547	0.394
548	0.392
548	0.39
549	0.389
549	0.387
550	0.385
550	0.383
551	0.381
551	0.379
551	0.377
552	0.375
552	0.372
553	0.371
553	0.369
554	0.366
554	0.364
555	0.361
555	0.359
556	0.357
556	0.355
556	0.353
557	0.352
557	0.35
558	0.348
558	0.346
559	0.344
559	0.342
560	0.34
560	0.338
560	0.336
561	0.335
561	0.334
562	0.332
562	0.33
563	0.328
563	0.327
564	0.325
564	0.324
564	0.323
565	0.322
565	0.321
566	0.32
566	0.319
567	0.318
567	0.317
568	0.316
568	0.314
568	0.313
569	0.312
569	0.31
570	0.307
570	0.305
571	0.304
571	0.302
572	0.3
572	0.298
573	0.296
573	0.294
573	0.292
574	0.291
574	0.29
575	0.289
575	0.29
576	0.289
576	0.287
577	0.285
577	0.284
577	0.283
578	0.283
578	0.283
579	0.284
579	0.283
580	0.281
580	0.278
581	0.275
581	0.274
581	0.274
582	0.274
582	0.274
583	0.274
583	0.272
584	0.269
584	0.267
585	0.268
585	0.268
585	0.268
586	0.268
586	0.267
587	0.265
587	0.263
588	0.261
588	0.261
589	0.26
589	0.26
590	0.259
590	0.258
590	0.259
591	0.259
591	0.258
592	0.257
592	0.255
593	0.255
593	0.255
594	0.254
594	0.252
594	0.252
595	0.251
595	0.249
596	0.248
596	0.249
597	0.25
597	0.25
598	0.249
598	0.249
598	0.249
599	0.248
599	0.247
600	0.247
600	0.246
601	0.246
601	0.245
602	0.244
602	0.244
602	0.243
603	0.243
603	0.243
604	0.243
604	0.243
605	0.243
605	0.244
606	0.243
606	0.241
606	0.241
607	0.24
607	0.24
608	0.239
608	0.238
609	0.237
609	0.237
610	0.236
610	0.235
610	0.235
611	0.235
611	0.235
612	0.235
612	0.235
613	0.235
613	0.234
614	0.233
614	0.231
614	0.231
615	0.229
615	0.228
616	0.228
616	0.227
617	0.226
617	0.225
618	0.224
618	0.223
618	0.223
619	0.222
619	0.222
620	0.223
620	0.221
621	0.22
621	0.219
622	0.218
622	0.217
622	0.215
623	0.214
623	0.214
624	0.214
624	0.212
625	0.211
625	0.211
626	0.21
626	0.209
626	0.209
627	0.208
627	0.208
628	0.207
628	0.207
629	0.206
629	0.204
630	0.203
630	0.201
630	0.2
631	0.199
631	0.197
632	0.195
632	0.194
633	0.191
633	0.189
634	0.187
634	0.185
634	0.184
635	0.182
635	0.179
636	0.177
636	0.175
637	0.172
637	0.169
638	0.167
638	0.164
638	0.161
639	0.158
639	0.154
640	0.15
640	0.146
641	0.143
641	0.139
642	0.135
642	0.131
642	0.127
643	0.123
643	0.118
644	0.113
644	0.108
645	0.103
645	0.098
646	0.093
646	0.087
646	0.08
647	0.073
647	0.067
648	0.059
648	0.052
649	0.044
649	0.037
650	0.03
650	0.022
650	0.015
651	0.005
651	-0.007
652	-0.021
652	-0.035
653	-0.048
653	-0.059
653	-0.055
654	-0.036
654	-0.031
655	-0.037
655	-0.043
656	-0.05
656	-0.057
657	-0.062
657	-0.067
657	-0.074
658	-0.081
658	-0.113
659	-0.2
659	-0.292
660	-0.333
660	-0.36
661	-0.389
661	-0.42
661	-0.453
662	-0.483
662	-0.515
663	-0.55
663	-0.589
664	-0.628
664	-0.67
665	-0.716
665	-0.764
665	-0.809
666	-0.861
666	-0.916
667	-0.971
667	-1.035
668	-1.095
668	-1.164
669	-1.233
669	-1.307
669	-1.387
670	-1.471
670	-1.59
671	-1.775
671	-2.114
672	-2.34
672	-2.494
672	-2.61
673	-2.703
673	-2.781
674	-2.835
674	-2.85
675	-2.866
675	-2.869
676	-2.863
676	-2.809
676	-2.738
677	-2.652
677	-2.547
678	-2.389
678	-2.122
679	-1.77
679	-1.611
680	-1.509
680	-1.433
680	-1.365
681	-1.317
681	-1.263
682	-1.221
682	-1.177
683	-1.134
683	-1.109
684	-1.08
684	-1.061
684	-1.038
685	-1.018
685	-1.007
686	-0.985
686	-0.972
687	-0.962
687	-0.951
687	-0.95
688	-0.934
688	-0.927
689	-0.93
689	-0.927
690	-0.915
690	-0.905
691	-0.902
691	-0.905
691	-0.906
692	-0.906
692	-0.902
693	-0.909
693	-0.918
694	-0.898
694	-0.897
695	-0.899
695	-0.891
695	-0.898
696	-0.905
696	-0.898
697	-0.893
697	-0.887
698	-0.883
698	-0.876
698	-0.89
699	-0.888
699	-0.887
700	-0.908
700	-0.903
701	-0.889
701	-0.881
702	-0.881
702	-0.88
702	-0.879
703	-0.87
703	-0.857
704	-0.866
704	-0.871
705	-0.859
705	-0.856
705	-0.852
706	-0.847
706	-0.845
707	-0.855
707	-0.858
708	-0.856
708	-0.854
709	-0.855
709	-0.851
709	-0.846
710	-0.853
710	-0.857
711	-0.856
711	-0.854
712	-0.846
712	-0.843
713	-0.848
713	-0.848
713	-0.827
714	-0.829
714	-0.835
715	-0.828
715	-0.835
716	-0.85
716	-0.862
716	-0.862
717	-0.868
717	-0.859
718	-0.855
718	-0.855
719	-0.85
719	-0.84
720	-0.833
720	-0.829
720	-0.824
721	-0.815
721	-0.819
722	-0.816
722	-0.813
723	-0.83
723	-0.844
723	-0.853
724	-0.854
724	-0.861
725	-0.854
725	-0.859
726	-0.861
726	-0.852
727	-0.853
727	-0.86
727	-0.85
728	-0.837
728	-0.834
729	-0.835
729	-0.839
730	-0.843
730	-0.833
730	-0.838
731	-0.84
731	-0.843
732	-0.846
732	-0.841
733	-0.856
733	-0.862
734	-0.872
734	-0.862
734	-0.846
735	-0.836
735	-0.829
736	-0.83
736	-0.822
737	-0.819
737	-0.809
737	-0.801
738	-0.784
738	-0.771
739	-0.774
739	-0.774
740	-0.789
740	-0.79
741	-0.801
741	-0.812
741	-0.822
742	-0.83
742	-0.846
743	-0.854
743	-0.857
744	-0.861
744	-0.868
744	-0.863
745	-0.873
745	-0.861
746	-0.856
746	-0.848
747	-0.851
747	-0.84
748	-0.84
748	-0.845
748	-0.846
749	-0.838
749	-0.843
750	-0.832
750	-0.832
751	-0.831
751	-0.828
751	-0.839
752	-0.843
752	-0.847
753	-0.848
753	-0.84
754	-0.861
754	-0.86
754	-0.869
755	-0.869
755	-0.859
756	-0.863
756	-0.848
757	-0.84
757	-0.829
758	-0.831
758	-0.829
758	-0.824
759	-0.83
759	-0.829
760	-0.829
760	-0.833
761	-0.827
761	-0.831
761	-0.831
762	-0.837
762	-0.837
763	-0.838
763	-0.843
764	-0.841
764	-0.836
764	-0.842
765	-0.842
765	-0.849
766	-0.854
766	-0.857
767	-0.873
767	-0.867
768	-0.868
768	-0.859
768	-0.854
769	-0.858
769	-0.867
770	-0.876
770	-0.879
771	-0.874
771	-0.872
771	-0.876
772	-0.881
772	-0.901
773	-0.903
773	-0.904
774	-0.9
774	-0.881
775	-0.866
775	-0.866
775	-0.869
776	-0.88
776	-0.877
777	-0.877
777	-0.858
778	-0.868
778	-0.875
778	-0.875
779	-0.885
779	-0.903
780	-0.9
780	-0.91
781	-0.901
781	-0.889
781	-0.902
782	-0.923
782	-0.924
783	-0.926
783	-0.935
784	-0.938
784	-0.931
784	-0.949
785	-0.941
785	-0.952
786	-0.957
786	-0.95
787	-0.94
787	-0.947
788	-0.937
788	-0.932
788	-0.933
789	-0.933
789	-0.923
790	-0.922
790	-0.906
791	-0.915
791	-0.912
791	-0.904
792	-0.9
792	-0.904
793	-0.905
793	-0.892
794	-0.885
794	-0.879
794	-0.885
795	-0.906
795	-0.892
796	-0.896
796	-0.893
797	-0.884
797	-0.873
797	-0.868
798	-0.888
798	-0.892
799	-0.892
799	-0.879
800	-0.873
800	-0.882
801	-0.88
801	-0.885
801	-0.881
802	-0.882
802	-0.88
803	-0.875
803	-0.869
804	-0.874
804	-0.882
804	-0.865
805	-0.846
805	-0.836
806	-0.836
806	-0.834
807	-0.835
807	-0.832
807	-0.814
808	-0.81
808	-0.803
809	-0.798
809	-0.8
810	-0.803
810	-0.801
810	-0.796
811	-0.8
811	-0.791
812	-0.786
812	-0.788
813	-0.792
813	-0.792
813	-0.788
814	-0.787
814	-0.793
815	-0.783
815	-0.78
816	-0.776
816	-0.794
817	-0.808
817	-0.812
817	-0.819
818	-0.814
818	-0.811
819	-0.821
819	-0.818
820	-0.83
820	-0.832
820	-0.83
821	-0.825
821	-0.818
822	-0.819
822	-0.808
823	-0.819
823	-0.818
823	-0.813
824	-0.812
824	-0.823
825	-0.821
825	-0.817
826	-0.812
826	-0.809
826	-0.807
827	-0.807
827	-0.797
828	-0.797
828	-0.791
829	-0.785
829	-0.77
829	-0.766
830	-0.766
830	-0.752
831	-0.744
831	-0.732
832	-0.724
832	-0.717
832	-0.71
833	-0.708
833	-0.713
834	-0.706
834	-0.701
835	-0.693
835	-0.693
835	-0.69
836	-0.685
836	-0.681
837	-0.671
837	-0.662
838	-0.649
838	-0.631
839	-0.626
839	-0.612
839	-0.601
840	-0.599
840	-0.588
841	-0.578
841	-0.571
842	-0.563
842	-0.551
842	-0.547
843	-0.544
843	-0.537
844	-0.535
844	-0.524
845	-0.509
845	-0.498
845	-0.487
846	-0.474
846	-0.463
847	-0.452
847	-0.439
848	-0.424
848	-0.407
848	-0.393
849	-0.38
849	-0.367
850	-0.358
850	-0.348
851	-0.334
851	-0.319
851	-0.308
852	-0.292
852	-0.279
853	-0.271
853	-0.259
854	-0.248
854	-0.237
854	-0.225
855	-0.211
855	-0.202
856	-0.193
856	-0.183
857	-0.175
857	-0.165
857	-0.15
858	-0.139
858	-0.13
859	-0.119
859	-0.105
860	-0.094
860	-0.08
860	-0.069
861	-0.057
861	-0.047
862	-0.038
862	-0.03
863	-0.021
863	-0.011
863	-0.004
864	0.002
864	0.009
865	0.017
865	0.023
866	0.029
866	0.035
866	0.041
867	0.047
867	0.053
868	0.058
868	0.064
869	0.068
869	0.071
869	0.074
870	0.076
870	0.078
871	0.08
871	0.082
872	0.082
872	0.083
872	0.084
873	0.084
873	0.083
874	0.082
874	0.082
875	0.082
875	0.081
875	0.081
876	0.081
876	0.081
877	0.08
877	0.079
878	0.079
878	0.079
878	0.079
879	0.079
879	0.078
880	0.078
880	0.077
881	0.075
881	0.074
881	0.073
882	0.071
882	0.07
883	0.068
883	0.066
884	0.065
884	0.065
884	0.065
885	0.065
885	0.064
886	0.064
886	0.064
887	0.063
887	0.063
887	0.062
888	0.062
888	0.062
889	0.061
889	0.059
890	0.058
890	0.058
890	0.057
891	0.057
891	0.057
892	0.057
892	0.057
893	0.057
893	0.058
893	0.058
894	0.058
894	0.059
895	0.058
895	0.058
895	0.058
896	0.058
896	0.058
897	0.058
897	0.058
898	0.058
898	0.057
898	0.058
899	0.058
899	0.058
900	0.059
900	0.059
901	0.058
901	0.058
901	0.058
902	0.058
902	0.059
903	0.059
903	0.059
904	0.058
904	0.058
904	0.058
905	0.058
905	0.058
906	0.058
906	0.058
907	0.058
907	0.058
907	0.058
908	0.058
908	0.058
909	0.059
909	0.059
910	0.059
910	0.06
910	0.06
911	0.061
911	0.061
912	0.062
912	0.063
913	0.064
913	0.064
913	0.065
914	0.065
914	0.065
915	0.065
915	0.065
916	0.065
916	0.065
916	0.064
917	0.064
917	0.064
918	0.063
918	0.063
918	0.062
919	0.062
919	0.062
920	0.062
920	0.062
921	0.062
921	0.063
921	0.063
922	0.063
922	0.063
923	0.063
923	0.063
924	0.063
924	0.062
924	0.062
925	0.061
925	0.06
926	0.059
926	0.058
927	0.057
927	0.057
927	0.056
928	0.056
928	0.056
929	0.056
929	0.057
930	0.057
930	0.058
930	0.059
931	0.059
931	0.06
932	0.061
932	0.062
933	0.063
933	0.063
933	0.063
934	0.063
934	0.062
935	0.062
935	0.061
935	0.06
936	0.058
936	0.057
937	0.056
937	0.055
938	0.055
938	0.054
938	0.053
939	0.052
939	0.051
940	0.051
940	0.05
941	0.049
941	0.049
941	0.049
942	0.048
942	0.047
943	0.047
943	0.046
944	0.046
944	0.045
944	0.045
945	0.045
945	0.044
946	0.044
946	0.042
946	0.042
947	0.042
947	0.042
948	0.043
948	0.043
949	0.044
949	0.045
949	0.047
950	0.048
950	0.049
951	0.051
951	0.052
952	0.052
952	0.054
952	0.054
953	0.055
953	0.055
954	0.055
954	0.055
955	0.054
955	0.054
955	0.053
956	0.053
956	0.052
957	0.05
957	0.049
957	0.048
958	0.048
958	0.047
959	0.047
959	0.046
960	0.045
960	0.045
960	0.046
961	0.046
961	0.046
962	0.046
962	0.047
963	0.047
963	0.047
963	0.048
964	0.048
964	0.049
965	0.049
965	0.05
966	0.05
966	0.051
966	0.052
967	0.052
967	0.052
968	0.053
968	0.053
968	0.053
969	0.053
969	0.053
970	0.052
970	0.052
971	0.052
971	0.051
971	0.051
972	0.052
972	0.052
973	0.052
973	0.052
974	0.052
974	0.052
974	0.052
975	0.052
975	0.052
976	0.052
976	0.051
976	0.051
977	0.051
977	0.05
978	0.049
978	0.048
979	0.048
979	0.047
979	0.047
980	0.047
980	0.047
981	0.047
981	0.048
982	0.048
982	0.048
982	0.048
983	0.048
983	0.048
984	0.048
984	0.047
984	0.047
985	0.047
985	0.046
986	0.045
986	0.044
987	0.043
987	0.042
987	0.042
988	0.041
988	0.039
989	0.038
989	0.037
990	0.036
990	0.035
990	0.034
991	0.033
991	0.032
992	0.031
992	0.03
992	0.029
993	0.029
993	0.028
994	0.027
994	0.026
995	0.024
995	0.023
995	0.022
996	0.021
996	0.02
997	0.019
997	0.018
997	0.017
998	0.017
998	0.017
999	0.017
999	0.017
1000	0.017
1000	0.017
1000	0.018
1001	0.019
1001	0.02
1002	0.02
1002	0.021
1003	0.021
1003	0.022
1003	0.022
1004	0.022
1004	0.022
1005	0.022
1005	0.021
1005	0.021
1006	0.02
1006	0.02
1007	0.019
1007	0.018
1008	0.018
1008	0.017
1008	0.017
1009	0.017
1009	0.018
1010	0.018
1010	0.019
1010	0.019
1011	0.02
1011	0.021
1012	0.022
1012	0.023
1013	0.024
1013	0.025
1013	0.026
1014	0.026
1014	0.027
1015	0.027
1015	0.027
1016	0.027
1016	0.028
1016	0.027
1017	0.026
1017	0.026
1018	0.026
1018	0.026
1018	0.025
1019	0.025
1019	0.025
1020	0.025
1020	0.024
1021	0.023
1021	0.023
1021	0.023
1022	0.022
1022	0.022
1023	0.022
1023	0.022
1023	0.022
1024	0.022
1024	0.022
1025	0.022
1025	0.023
1026	0.023
1026	0.024
1026	0.023
1027	0.024
1027	0.024
1028	0.025
1028	0.026
1028	0.026
1029	0.026
1029	0.026
1030	0.026
1030	0.026
1031	0.026
1031	0.027
1031	0.027
1032	0.027
1032	0.026
1033	0.026
1033	0.025
1033	0.025
1034	0.024
1034	0.023
1035	0.023
1035	0.022
1036	0.021
1036	0.02
1036	0.02
1037	0.019
1037	0.019
1038	0.019
1038	0.019
1039	0.019
1039	0.019
1039	0.019
1040	0.019
1040	0.02
1041	0.02
1041	0.019
1041	0.019
1042	0.018
1042	0.017
1043	0.017
1043	0.016
1044	0.015
1044	0.014
1044	0.014
1045	0.013
1045	0.013
1046	0.012
1046	0.012
1046	0.012
1047	0.012
1047	0.013
1048	0.013
1048	0.013
1049	0.013
1049	0.013
1049	0.013
1050	0.012
1050	0.012
1051	0.011
1051	0.01
1051	0.01
1052	0.008
1052	0.007
1053	0.007
1053	0.006
1053	0.006
1054	0.005
1054	0.005
1055	0.006
1055	0.006
1056	0.006
1056	0.006
1056	0.006
1057	0.006
1057	0.006
1058	0.006
1058	0.005
1058	0.005
1059	0.005
1059	0.004
1060	0.004
1060	0.003
1061	0.003
1061	0.003
1061	0.003
1062	0.003
1062	0.003
1063	0.003
1063	0.002
1063	0.003
1064	0.003
1064	0.003
1065	0.003
1065	0.002
1066	0.002
1066	0.001
1066	0.001
1067	-0
1067	-0.002
1068	-0.002
1068	-0.004
1068	-0.005
1069	-0.006
1069	-0.007
1070	-0.009
1070	-0.009
1071	-0.01
1071	-0.01
1071	-0.011
1072	-0.011
1072	-0.011
1073	-0.011
1073	-0.012
1073	-0.012
1074	-0.011
1074	-0.011
1075	-0.012
1075	-0.012
1076	-0.013
1076	-0.013
1076	-0.014
1077	-0.015
1077	-0.016
1078	-0.016
1078	-0.017
1078	-0.018
1079	-0.018
1079	-0.018
1080	-0.02
1080	-0.02
1080	-0.022
1081	-0.022
1081	-0.022
1082	-0.023
1082	-0.025
1083	-0.025
1083	-0.027
1083	-0.028
1084	-0.029
1084	-0.03
1085	-0.031
1085	-0.032
1085	-0.033
1086	-0.034
1086	-0.036
1087	-0.036
1087	-0.037
1088	-0.038
1088	-0.039
1088	-0.04
1089	-0.041
1089	-0.042
1090	-0.043
1090	-0.043
1090	-0.045
1091	-0.046
1091	-0.046
1092	-0.047
1092	-0.047
1092	-0.048
1093	-0.049
1093	-0.049
1094	-0.05
1094	-0.051
1095	-0.053
1095	-0.053
1095	-0.054
1096	-0.056
1096	-0.058
1097	-0.059
1097	-0.061
1097	-0.063
1098	-0.066
1098	-0.068
1099	-0.07
1099	-0.072
1100	-0.075
1100	-0.078
1100	-0.081
1101	-0.084
1101	-0.086
1102	-0.088
1102	-0.091
1102	-0.093
1103	-0.096
1103	-0.099
1104	-0.102
1104	-0.105
1104	-0.106
1105	-0.108
1105	-0.111
1106	-0.117
1106	-0.119
1107	-0.125
1107	-0.13
1107	-0.134
1108	-0.136
1108	-0.137
1109	-0.141
1109	-0.147
1109	-0.151
1110	-0.154
1110	-0.157
1111	-0.166
1111	-0.161
