Data from 3.3A_17C_Absorbance__201__03068.txt Node

Date: Tue Jun 20 17:19:09 CEST 2023
User: Marek
Spectrometer: MAYP115816
Trigger mode: 0
Integration Time (sec): 2.200000E-1
Scans to average: 10
Electric dark correction enabled: true
Nonlinearity correction enabled: true
Boxcar width: 5
XAxis mode: Wavelengths
Number of Pixels in Spectrum: 2068
>>>>>Begin Spectral Data<<<<<
199	-0.797
199	-0.782
200	-0.751
200	-0.695
201	-0.667
201	-0.659
202	-0.641
202	-0.635
203	-0.636
203	-0.628
204	-0.609
204	-0.594
205	-0.57
205	-0.561
205	-0.571
206	-0.572
206	-0.568
207	-0.563
207	-0.568
208	-0.568
208	-0.574
209	-0.574
209	-0.582
210	-0.595
210	-0.601
211	-0.594
211	-0.598
212	-0.607
212	-0.614
213	-0.612
213	-0.607
213	-0.607
214	-0.615
214	-0.615
215	-0.611
215	-0.617
216	-0.627
216	-0.633
217	-0.631
217	-0.63
218	-0.638
218	-0.64
219	-0.646
219	-0.646
220	-0.65
220	-0.657
221	-0.657
221	-0.657
221	-0.648
222	-0.648
222	-0.646
223	-0.642
223	-0.646
224	-0.645
224	-0.645
225	-0.644
225	-0.644
226	-0.644
226	-0.644
227	-0.652
227	-0.661
228	-0.666
228	-0.674
229	-0.678
229	-0.677
229	-0.675
230	-0.67
230	-0.668
231	-0.666
231	-0.662
232	-0.664
232	-0.658
233	-0.657
233	-0.647
234	-0.647
234	-0.643
235	-0.647
235	-0.658
236	-0.667
236	-0.668
236	-0.667
237	-0.665
237	-0.666
238	-0.668
238	-0.669
239	-0.671
239	-0.679
240	-0.671
240	-0.665
241	-0.66
241	-0.664
242	-0.667
242	-0.675
243	-0.674
243	-0.673
243	-0.678
244	-0.674
244	-0.676
245	-0.68
245	-0.684
246	-0.693
246	-0.695
247	-0.704
247	-0.69
248	-0.69
248	-0.694
249	-0.699
249	-0.7
250	-0.7
250	-0.707
250	-0.705
251	-0.706
251	-0.701
252	-0.702
252	-0.714
253	-0.711
253	-0.724
254	-0.729
254	-0.729
255	-0.74
255	-0.74
256	-0.743
256	-0.754
257	-0.766
257	-0.762
258	-0.766
258	-0.774
258	-0.77
259	-0.763
259	-0.782
260	-0.781
260	-0.77
261	-0.78
261	-0.766
262	-0.772
262	-0.77
263	-0.76
263	-0.764
264	-0.774
264	-0.776
265	-0.767
265	-0.769
265	-0.778
266	-0.77
266	-0.77
267	-0.768
267	-0.786
268	-0.792
268	-0.786
269	-0.777
269	-0.792
270	-0.795
270	-0.795
271	-0.81
271	-0.82
272	-0.822
272	-0.824
272	-0.815
273	-0.826
273	-0.841
274	-0.835
274	-0.829
275	-0.826
275	-0.813
276	-0.814
276	-0.821
277	-0.823
277	-0.822
278	-0.827
278	-0.826
278	-0.813
279	-0.821
279	-0.834
280	-0.837
280	-0.847
281	-0.84
281	-0.832
282	-0.837
282	-0.83
283	-0.822
283	-0.836
284	-0.85
284	-0.86
285	-0.841
285	-0.847
285	-0.839
286	-0.846
286	-0.863
287	-0.859
287	-0.858
288	-0.859
288	-0.84
289	-0.839
289	-0.847
290	-0.856
290	-0.846
291	-0.849
291	-0.846
292	-0.826
292	-0.822
292	-0.826
293	-0.813
293	-0.81
294	-0.808
294	-0.795
295	-0.775
295	-0.788
296	-0.802
296	-0.797
297	-0.785
297	-0.79
298	-0.786
298	-0.804
298	-0.808
299	-0.791
299	-0.782
300	-0.779
300	-0.758
301	-0.738
301	-0.74
302	-0.752
302	-0.738
303	-0.73
303	-0.718
304	-0.701
304	-0.705
305	-0.698
305	-0.708
305	-0.723
306	-0.707
306	-0.705
307	-0.694
307	-0.705
308	-0.707
308	-0.702
309	-0.703
309	-0.698
310	-0.696
310	-0.689
311	-0.675
311	-0.695
311	-0.683
312	-0.683
312	-0.672
313	-0.663
313	-0.667
314	-0.672
314	-0.67
315	-0.668
315	-0.661
316	-0.655
316	-0.644
317	-0.635
317	-0.633
318	-0.624
318	-0.622
318	-0.611
319	-0.6
319	-0.59
320	-0.587
320	-0.584
321	-0.58
321	-0.581
322	-0.576
322	-0.568
323	-0.571
323	-0.562
324	-0.558
324	-0.547
324	-0.537
325	-0.521
325	-0.505
326	-0.495
326	-0.468
327	-0.452
327	-0.427
328	-0.393
328	-0.37
329	-0.341
329	-0.31
330	-0.281
330	-0.243
330	-0.206
331	-0.166
331	-0.131
332	-0.094
332	-0.06
333	-0.027
333	0.01
334	0.043
334	0.071
335	0.103
335	0.127
336	0.153
336	0.178
336	0.198
337	0.219
337	0.239
338	0.255
338	0.268
339	0.284
339	0.296
340	0.306
340	0.316
341	0.324
341	0.332
342	0.341
342	0.348
342	0.354
343	0.359
343	0.365
344	0.369
344	0.373
345	0.377
345	0.38
346	0.382
346	0.385
347	0.387
347	0.389
348	0.39
348	0.392
348	0.393
349	0.394
349	0.395
350	0.396
350	0.397
351	0.398
351	0.398
352	0.398
352	0.398
353	0.398
353	0.398
354	0.398
354	0.399
354	0.399
355	0.398
355	0.398
356	0.399
356	0.399
357	0.4
357	0.4
358	0.4
358	0.4
359	0.4
359	0.4
360	0.4
360	0.401
360	0.401
361	0.4
361	0.4
362	0.399
362	0.399
363	0.399
363	0.399
364	0.399
364	0.399
365	0.399
365	0.398
366	0.398
366	0.398
366	0.398
367	0.398
367	0.397
368	0.397
368	0.397
369	0.396
369	0.396
370	0.396
370	0.396
371	0.395
371	0.395
372	0.394
372	0.394
372	0.394
373	0.393
373	0.393
374	0.393
374	0.392
375	0.392
375	0.391
376	0.391
376	0.391
377	0.39
377	0.39
378	0.389
378	0.389
378	0.389
379	0.388
379	0.388
380	0.387
380	0.387
381	0.387
381	0.386
382	0.386
382	0.385
383	0.385
383	0.384
383	0.384
384	0.383
384	0.383
385	0.383
385	0.382
386	0.382
386	0.381
387	0.381
387	0.38
388	0.38
388	0.38
389	0.379
389	0.379
389	0.379
390	0.379
390	0.378
391	0.378
391	0.378
392	0.377
392	0.377
393	0.377
393	0.376
394	0.376
394	0.375
394	0.374
395	0.374
395	0.373
396	0.373
396	0.372
397	0.372
397	0.371
398	0.371
398	0.37
399	0.37
399	0.369
400	0.369
400	0.369
400	0.368
401	0.368
401	0.367
402	0.367
402	0.367
403	0.367
403	0.367
404	0.366
404	0.366
405	0.365
405	0.365
405	0.365
406	0.365
406	0.364
407	0.364
407	0.363
408	0.363
408	0.362
409	0.362
409	0.362
410	0.362
410	0.362
411	0.362
411	0.361
411	0.361
412	0.36
412	0.359
413	0.359
413	0.359
414	0.359
414	0.359
415	0.358
415	0.357
416	0.357
416	0.357
416	0.356
417	0.356
417	0.356
418	0.356
418	0.356
419	0.356
419	0.356
420	0.355
420	0.355
421	0.355
421	0.355
421	0.355
422	0.355
422	0.355
423	0.354
423	0.354
424	0.354
424	0.353
425	0.353
425	0.353
426	0.353
426	0.353
427	0.353
427	0.353
427	0.353
428	0.353
428	0.352
429	0.352
429	0.352
430	0.352
430	0.351
431	0.351
431	0.351
432	0.351
432	0.35
432	0.35
433	0.349
433	0.35
434	0.35
434	0.35
435	0.35
435	0.35
436	0.35
436	0.35
437	0.35
437	0.35
437	0.35
438	0.35
438	0.35
439	0.35
439	0.349
440	0.349
440	0.349
441	0.349
441	0.349
442	0.349
442	0.349
442	0.349
443	0.348
443	0.349
444	0.349
444	0.349
445	0.349
445	0.349
446	0.349
446	0.349
447	0.349
447	0.349
447	0.349
448	0.35
448	0.349
449	0.35
449	0.35
450	0.35
450	0.35
451	0.35
451	0.35
452	0.35
452	0.35
452	0.351
453	0.351
453	0.351
454	0.351
454	0.351
455	0.351
455	0.351
456	0.352
456	0.351
457	0.352
457	0.352
458	0.352
458	0.352
458	0.352
459	0.352
459	0.352
460	0.352
460	0.352
461	0.352
461	0.353
462	0.354
462	0.355
463	0.356
463	0.357
463	0.358
464	0.358
464	0.359
465	0.36
465	0.361
466	0.362
466	0.362
467	0.363
467	0.363
467	0.363
468	0.363
468	0.363
469	0.364
469	0.364
470	0.365
470	0.366
471	0.367
471	0.367
472	0.368
472	0.369
472	0.37
473	0.371
473	0.373
474	0.374
474	0.375
475	0.376
475	0.377
476	0.378
476	0.379
477	0.38
477	0.381
477	0.383
478	0.384
478	0.385
479	0.386
479	0.388
480	0.389
480	0.39
481	0.391
481	0.392
482	0.394
482	0.396
482	0.397
483	0.399
483	0.402
484	0.404
484	0.405
485	0.407
485	0.409
486	0.41
486	0.412
487	0.414
487	0.416
487	0.418
488	0.42
488	0.421
489	0.423
489	0.426
490	0.428
490	0.431
491	0.433
491	0.436
492	0.438
492	0.441
492	0.443
493	0.445
493	0.447
494	0.451
494	0.454
495	0.456
495	0.459
496	0.461
496	0.464
496	0.467
497	0.471
497	0.474
498	0.477
498	0.48
499	0.483
499	0.487
500	0.491
500	0.495
501	0.499
501	0.502
501	0.505
502	0.508
502	0.511
503	0.515
503	0.518
504	0.521
504	0.525
505	0.528
505	0.532
506	0.536
506	0.54
506	0.544
507	0.548
507	0.552
508	0.556
508	0.56
509	0.564
509	0.568
510	0.572
510	0.575
511	0.579
511	0.582
511	0.585
512	0.588
512	0.591
513	0.594
513	0.597
514	0.6
514	0.604
515	0.607
515	0.609
515	0.612
516	0.614
516	0.618
517	0.621
517	0.623
518	0.625
518	0.627
519	0.629
519	0.63
520	0.633
520	0.635
520	0.637
521	0.638
521	0.64
522	0.642
522	0.644
523	0.646
523	0.648
524	0.649
524	0.65
524	0.651
525	0.652
525	0.653
526	0.654
526	0.654
527	0.655
527	0.655
528	0.654
528	0.654
529	0.653
529	0.653
529	0.652
530	0.651
530	0.651
531	0.65
531	0.649
532	0.647
532	0.646
533	0.645
533	0.643
533	0.642
534	0.64
534	0.638
535	0.636
535	0.634
536	0.632
536	0.629
537	0.627
537	0.624
538	0.621
538	0.618
538	0.614
539	0.612
539	0.609
540	0.605
540	0.601
541	0.597
541	0.594
542	0.59
542	0.586
542	0.582
543	0.578
543	0.574
544	0.569
544	0.565
545	0.561
545	0.557
546	0.552
546	0.547
547	0.543
547	0.538
547	0.533
548	0.53
548	0.525
549	0.521
549	0.516
550	0.511
550	0.506
551	0.501
551	0.496
551	0.491
552	0.486
552	0.481
553	0.477
553	0.472
554	0.467
554	0.462
555	0.457
555	0.452
556	0.447
556	0.442
556	0.437
557	0.433
557	0.428
558	0.423
558	0.418
559	0.413
559	0.408
560	0.403
560	0.399
560	0.394
561	0.39
561	0.386
562	0.382
562	0.378
563	0.374
563	0.369
564	0.365
564	0.361
564	0.357
565	0.353
565	0.35
566	0.345
566	0.341
567	0.338
567	0.334
568	0.33
568	0.326
568	0.322
569	0.318
569	0.314
570	0.31
570	0.305
571	0.302
571	0.298
572	0.294
572	0.29
573	0.286
573	0.281
573	0.277
574	0.274
574	0.271
575	0.268
575	0.266
576	0.263
576	0.259
577	0.255
577	0.253
577	0.251
578	0.248
578	0.247
579	0.245
579	0.243
580	0.238
580	0.234
581	0.229
581	0.226
581	0.224
582	0.223
582	0.221
583	0.219
583	0.216
584	0.211
584	0.207
585	0.205
585	0.204
585	0.202
586	0.2
586	0.198
587	0.195
587	0.192
588	0.189
588	0.187
589	0.186
589	0.184
590	0.182
590	0.179
590	0.179
591	0.177
591	0.174
592	0.172
592	0.169
593	0.168
593	0.166
594	0.164
594	0.162
594	0.16
595	0.159
595	0.156
596	0.153
596	0.153
597	0.153
597	0.152
598	0.15
598	0.149
598	0.148
599	0.146
599	0.144
600	0.143
600	0.141
601	0.141
601	0.139
602	0.137
602	0.136
602	0.134
603	0.133
603	0.133
604	0.132
604	0.131
605	0.131
605	0.131
606	0.129
606	0.127
606	0.125
607	0.124
607	0.123
608	0.122
608	0.12
609	0.119
609	0.118
610	0.116
610	0.114
610	0.114
611	0.114
611	0.113
612	0.112
612	0.112
613	0.111
613	0.11
614	0.108
614	0.107
614	0.106
615	0.104
615	0.102
616	0.102
616	0.1
617	0.099
617	0.098
618	0.097
618	0.096
618	0.095
619	0.094
619	0.094
620	0.094
620	0.093
621	0.092
621	0.091
622	0.089
622	0.088
622	0.087
623	0.085
623	0.085
624	0.085
624	0.084
625	0.083
625	0.083
626	0.082
626	0.081
626	0.081
627	0.081
627	0.08
628	0.08
628	0.079
629	0.079
629	0.078
630	0.077
630	0.075
630	0.075
631	0.074
631	0.073
632	0.072
632	0.071
633	0.07
633	0.069
634	0.069
634	0.068
634	0.068
635	0.067
635	0.066
636	0.065
636	0.065
637	0.063
637	0.062
638	0.062
638	0.06
638	0.059
639	0.057
639	0.055
640	0.054
640	0.052
641	0.05
641	0.048
642	0.046
642	0.044
642	0.042
643	0.04
643	0.037
644	0.035
644	0.033
645	0.03
645	0.028
646	0.026
646	0.023
646	0.019
647	0.016
647	0.012
648	0.008
648	0.004
649	-0
649	-0.004
650	-0.008
650	-0.013
650	-0.018
651	-0.024
651	-0.032
652	-0.04
652	-0.048
653	-0.056
653	-0.063
653	-0.059
654	-0.049
654	-0.051
655	-0.057
655	-0.061
656	-0.065
656	-0.07
657	-0.074
657	-0.078
657	-0.084
658	-0.089
658	-0.114
659	-0.174
659	-0.23
660	-0.257
660	-0.277
661	-0.296
661	-0.319
661	-0.341
662	-0.36
662	-0.378
663	-0.399
663	-0.422
664	-0.441
664	-0.465
665	-0.49
665	-0.515
665	-0.537
666	-0.561
666	-0.589
667	-0.616
667	-0.65
668	-0.682
668	-0.727
669	-0.771
669	-0.818
669	-0.873
670	-0.933
670	-1.034
671	-1.257
671	-1.655
672	-2.101
672	-2.338
672	-2.495
673	-2.611
673	-2.642
674	-2.66
674	-2.669
675	-2.684
675	-2.689
676	-2.689
676	-2.659
676	-2.559
677	-2.412
677	-2.188
678	-1.653
678	-1.229
679	-1.082
679	-1.012
680	-0.966
680	-0.934
680	-0.91
681	-0.899
681	-0.877
682	-0.866
682	-0.845
683	-0.824
683	-0.823
684	-0.815
684	-0.814
684	-0.807
685	-0.805
685	-0.808
686	-0.796
686	-0.794
687	-0.794
687	-0.795
687	-0.804
688	-0.797
688	-0.797
689	-0.808
689	-0.81
690	-0.801
690	-0.795
691	-0.799
691	-0.806
691	-0.813
692	-0.815
692	-0.814
693	-0.825
693	-0.84
694	-0.821
694	-0.824
695	-0.832
695	-0.829
695	-0.838
696	-0.847
696	-0.841
697	-0.837
697	-0.835
698	-0.833
698	-0.825
698	-0.842
699	-0.842
699	-0.843
700	-0.864
700	-0.861
701	-0.849
701	-0.845
702	-0.848
702	-0.848
702	-0.847
703	-0.841
703	-0.83
704	-0.838
704	-0.843
705	-0.831
705	-0.832
705	-0.828
706	-0.821
706	-0.817
707	-0.828
707	-0.834
708	-0.831
708	-0.83
709	-0.832
709	-0.829
709	-0.825
710	-0.831
710	-0.834
711	-0.834
711	-0.835
712	-0.827
712	-0.824
713	-0.831
713	-0.831
713	-0.809
714	-0.81
714	-0.815
715	-0.807
715	-0.816
716	-0.835
716	-0.844
716	-0.845
717	-0.852
717	-0.844
718	-0.839
718	-0.841
719	-0.838
719	-0.831
720	-0.826
720	-0.82
720	-0.814
721	-0.805
721	-0.812
722	-0.808
722	-0.803
723	-0.822
723	-0.836
723	-0.844
724	-0.844
724	-0.849
725	-0.843
725	-0.846
726	-0.85
726	-0.839
727	-0.841
727	-0.847
727	-0.838
728	-0.824
728	-0.819
729	-0.823
729	-0.826
730	-0.832
730	-0.825
730	-0.831
731	-0.835
731	-0.837
732	-0.841
732	-0.835
733	-0.851
733	-0.86
734	-0.867
734	-0.859
734	-0.842
735	-0.83
735	-0.824
736	-0.822
736	-0.816
737	-0.816
737	-0.807
737	-0.801
738	-0.786
738	-0.775
739	-0.778
739	-0.779
740	-0.793
740	-0.795
741	-0.805
741	-0.813
741	-0.824
742	-0.83
742	-0.845
743	-0.851
743	-0.852
744	-0.856
744	-0.863
744	-0.859
745	-0.868
745	-0.859
746	-0.855
746	-0.847
747	-0.849
747	-0.837
748	-0.841
748	-0.846
748	-0.848
749	-0.841
749	-0.847
750	-0.836
750	-0.836
751	-0.835
751	-0.831
751	-0.845
752	-0.85
752	-0.852
753	-0.854
753	-0.845
754	-0.865
754	-0.865
754	-0.875
755	-0.875
755	-0.867
756	-0.87
756	-0.856
757	-0.848
757	-0.837
758	-0.837
758	-0.836
758	-0.831
759	-0.833
759	-0.832
760	-0.832
760	-0.834
761	-0.829
761	-0.834
761	-0.834
762	-0.841
762	-0.841
763	-0.843
763	-0.846
764	-0.846
764	-0.843
764	-0.848
765	-0.847
765	-0.853
766	-0.855
766	-0.857
767	-0.871
767	-0.866
768	-0.863
768	-0.855
768	-0.849
769	-0.852
769	-0.86
770	-0.87
770	-0.874
771	-0.869
771	-0.869
771	-0.876
772	-0.88
772	-0.903
773	-0.906
773	-0.906
774	-0.905
774	-0.888
775	-0.874
775	-0.874
775	-0.877
776	-0.887
776	-0.881
777	-0.879
777	-0.859
778	-0.868
778	-0.877
778	-0.877
779	-0.886
779	-0.9
780	-0.897
780	-0.906
781	-0.896
781	-0.885
781	-0.899
782	-0.92
782	-0.921
783	-0.919
783	-0.927
784	-0.931
784	-0.927
784	-0.947
785	-0.94
785	-0.953
786	-0.958
786	-0.954
787	-0.945
787	-0.956
788	-0.948
788	-0.942
788	-0.944
789	-0.942
789	-0.931
790	-0.931
790	-0.916
791	-0.923
791	-0.916
791	-0.91
792	-0.902
792	-0.907
793	-0.909
793	-0.895
794	-0.889
794	-0.883
794	-0.891
795	-0.91
795	-0.896
796	-0.903
796	-0.899
797	-0.893
797	-0.883
797	-0.876
798	-0.898
798	-0.902
799	-0.901
799	-0.887
800	-0.881
800	-0.89
801	-0.887
801	-0.891
801	-0.886
802	-0.885
802	-0.885
803	-0.879
803	-0.872
804	-0.878
804	-0.886
804	-0.87
805	-0.851
805	-0.843
806	-0.843
806	-0.841
807	-0.843
807	-0.845
807	-0.828
808	-0.822
808	-0.815
809	-0.808
809	-0.81
810	-0.813
810	-0.81
810	-0.807
811	-0.809
811	-0.802
812	-0.794
812	-0.797
813	-0.802
813	-0.802
813	-0.797
814	-0.796
814	-0.801
815	-0.79
815	-0.788
816	-0.785
816	-0.803
817	-0.814
817	-0.819
817	-0.83
818	-0.824
818	-0.821
819	-0.833
819	-0.831
820	-0.845
820	-0.842
820	-0.84
821	-0.834
821	-0.828
822	-0.826
822	-0.813
823	-0.825
823	-0.826
823	-0.82
824	-0.819
824	-0.828
825	-0.829
825	-0.828
826	-0.823
826	-0.821
826	-0.821
827	-0.822
827	-0.81
828	-0.81
828	-0.803
829	-0.796
829	-0.781
829	-0.779
830	-0.777
830	-0.762
831	-0.755
831	-0.744
832	-0.734
832	-0.73
832	-0.724
833	-0.724
833	-0.729
834	-0.725
834	-0.718
835	-0.71
835	-0.71
835	-0.705
836	-0.702
836	-0.7
837	-0.69
837	-0.682
838	-0.668
838	-0.652
839	-0.646
839	-0.632
839	-0.623
840	-0.621
840	-0.61
841	-0.599
841	-0.592
842	-0.581
842	-0.569
842	-0.567
843	-0.564
843	-0.559
844	-0.558
844	-0.546
845	-0.533
845	-0.524
845	-0.513
846	-0.501
846	-0.492
847	-0.483
847	-0.47
848	-0.453
848	-0.438
848	-0.425
849	-0.412
849	-0.4
850	-0.389
850	-0.379
851	-0.365
851	-0.35
851	-0.34
852	-0.325
852	-0.313
853	-0.305
853	-0.294
854	-0.284
854	-0.274
854	-0.263
855	-0.252
855	-0.244
856	-0.236
856	-0.228
857	-0.221
857	-0.212
857	-0.198
858	-0.187
858	-0.18
859	-0.17
859	-0.158
860	-0.148
860	-0.135
860	-0.125
861	-0.116
861	-0.106
862	-0.098
862	-0.091
863	-0.083
863	-0.074
863	-0.067
864	-0.062
864	-0.055
865	-0.049
865	-0.043
866	-0.037
866	-0.031
866	-0.025
867	-0.02
867	-0.014
868	-0.01
868	-0.005
869	-0.001
869	0.002
869	0.005
870	0.007
870	0.009
871	0.011
871	0.012
872	0.013
872	0.014
872	0.015
873	0.015
873	0.014
874	0.014
874	0.014
875	0.013
875	0.013
875	0.013
876	0.013
876	0.013
877	0.012
877	0.012
878	0.011
878	0.011
878	0.011
879	0.011
879	0.011
880	0.01
880	0.009
881	0.007
881	0.006
881	0.005
882	0.004
882	0.002
883	0.001
883	-0.001
884	-0.001
884	-0.002
884	-0.002
885	-0.002
885	-0.002
886	-0.002
886	-0.002
887	-0.003
887	-0.003
887	-0.003
888	-0.004
888	-0.004
889	-0.005
889	-0.006
890	-0.007
890	-0.008
890	-0.008
891	-0.008
891	-0.009
892	-0.008
892	-0.007
893	-0.007
893	-0.007
893	-0.006
894	-0.006
894	-0.005
895	-0.005
895	-0.005
895	-0.005
896	-0.005
896	-0.005
897	-0.005
897	-0.005
898	-0.005
898	-0.005
898	-0.004
899	-0.004
899	-0.003
900	-0.004
900	-0.004
901	-0.004
901	-0.004
901	-0.004
902	-0.005
902	-0.005
903	-0.005
903	-0.005
904	-0.006
904	-0.006
904	-0.006
905	-0.006
905	-0.006
906	-0.005
906	-0.005
907	-0.004
907	-0.004
907	-0.003
908	-0.003
908	-0.002
909	-0.001
909	-0.001
910	-0.001
910	-0
910	0
911	0.001
911	0.002
912	0.003
912	0.003
913	0.004
913	0.005
913	0.005
914	0.006
914	0.007
915	0.007
915	0.007
916	0.006
916	0.006
916	0.005
917	0.005
917	0.004
918	0.004
918	0.003
918	0.002
919	0.002
919	0.002
920	0.002
920	0.002
921	0.002
921	0.003
921	0.003
922	0.004
922	0.004
923	0.004
923	0.004
924	0.004
924	0.003
924	0.003
925	0.002
925	0
926	-0.001
926	-0.002
927	-0.003
927	-0.004
927	-0.005
928	-0.006
928	-0.006
929	-0.006
929	-0.005
930	-0.005
930	-0.004
930	-0.003
931	-0.002
931	-0.001
932	0.001
932	0.002
933	0.002
933	0.003
933	0.003
934	0.002
934	0.002
935	0.002
935	0.001
935	-0.001
936	-0.002
936	-0.003
937	-0.004
937	-0.005
938	-0.006
938	-0.006
938	-0.007
939	-0.007
939	-0.008
940	-0.009
940	-0.009
941	-0.01
941	-0.01
941	-0.01
942	-0.011
942	-0.011
943	-0.011
943	-0.011
944	-0.011
944	-0.012
944	-0.012
945	-0.013
945	-0.012
946	-0.012
946	-0.014
946	-0.014
947	-0.014
947	-0.014
948	-0.014
948	-0.014
949	-0.013
949	-0.011
949	-0.01
950	-0.009
950	-0.007
951	-0.006
951	-0.005
952	-0.004
952	-0.002
952	-0.002
953	-0.001
953	-0.001
954	-0.001
954	-0.001
955	-0.002
955	-0.002
955	-0.002
956	-0.002
956	-0.003
957	-0.004
957	-0.005
957	-0.006
958	-0.006
958	-0.007
959	-0.007
959	-0.008
960	-0.008
960	-0.009
960	-0.008
961	-0.008
961	-0.008
962	-0.007
962	-0.007
963	-0.007
963	-0.006
963	-0.005
964	-0.005
964	-0.004
965	-0.003
965	-0.003
966	-0.002
966	-0.002
966	-0.001
967	-0
967	0
968	0
968	0
968	0.001
969	0
969	0
970	-0
970	-0.001
971	-0.001
971	-0.001
971	-0.001
972	-0
972	-0
973	-0
973	-0.001
974	-0
974	-0
974	-0
975	-0
975	-0
976	-0.001
976	-0.001
976	-0.001
977	-0.002
977	-0.002
978	-0.003
978	-0.004
979	-0.004
979	-0.005
979	-0.005
980	-0.005
980	-0.006
981	-0.006
981	-0.006
982	-0.006
982	-0.006
982	-0.006
983	-0.006
983	-0.006
984	-0.006
984	-0.006
984	-0.007
985	-0.007
985	-0.007
986	-0.008
986	-0.009
987	-0.009
987	-0.01
987	-0.011
988	-0.011
988	-0.012
989	-0.013
989	-0.013
990	-0.014
990	-0.015
990	-0.016
991	-0.017
991	-0.017
992	-0.018
992	-0.019
992	-0.02
993	-0.021
993	-0.022
994	-0.023
994	-0.024
995	-0.025
995	-0.027
995	-0.028
996	-0.029
996	-0.03
997	-0.031
997	-0.032
997	-0.032
998	-0.032
998	-0.032
999	-0.032
999	-0.031
1000	-0.031
1000	-0.03
1000	-0.029
1001	-0.028
1001	-0.027
1002	-0.026
1002	-0.026
1003	-0.025
1003	-0.024
1003	-0.024
1004	-0.023
1004	-0.023
1005	-0.023
1005	-0.024
1005	-0.024
1006	-0.025
1006	-0.026
1007	-0.026
1007	-0.027
1008	-0.028
1008	-0.029
1008	-0.03
1009	-0.03
1009	-0.03
1010	-0.03
1010	-0.029
1010	-0.029
1011	-0.028
1011	-0.027
1012	-0.026
1012	-0.025
1013	-0.024
1013	-0.023
1013	-0.022
1014	-0.022
1014	-0.021
1015	-0.02
1015	-0.02
1016	-0.02
1016	-0.02
1016	-0.02
1017	-0.02
1017	-0.02
1018	-0.02
1018	-0.02
1018	-0.02
1019	-0.021
1019	-0.021
1020	-0.021
1020	-0.022
1021	-0.022
1021	-0.023
1021	-0.023
1022	-0.024
1022	-0.024
1023	-0.024
1023	-0.024
1023	-0.024
1024	-0.024
1024	-0.024
1025	-0.024
1025	-0.024
1026	-0.024
1026	-0.024
1026	-0.024
1027	-0.023
1027	-0.023
1028	-0.022
1028	-0.022
1028	-0.021
1029	-0.021
1029	-0.021
1030	-0.021
1030	-0.021
1031	-0.021
1031	-0.02
1031	-0.02
1032	-0.02
1032	-0.02
1033	-0.021
1033	-0.021
1033	-0.021
1034	-0.022
1034	-0.023
1035	-0.023
1035	-0.024
1036	-0.025
1036	-0.026
1036	-0.026
1037	-0.027
1037	-0.027
1038	-0.027
1038	-0.027
1039	-0.028
1039	-0.027
1039	-0.027
1040	-0.027
1040	-0.026
1041	-0.026
1041	-0.027
1041	-0.027
1042	-0.028
1042	-0.028
1043	-0.028
1043	-0.029
1044	-0.029
1044	-0.03
1044	-0.031
1045	-0.031
1045	-0.031
1046	-0.032
1046	-0.032
1046	-0.032
1047	-0.033
1047	-0.032
1048	-0.032
1048	-0.032
1049	-0.032
1049	-0.033
1049	-0.033
1050	-0.034
1050	-0.035
1051	-0.036
1051	-0.036
1051	-0.037
1052	-0.038
1052	-0.039
1053	-0.039
1053	-0.04
1053	-0.04
1054	-0.041
1054	-0.041
1055	-0.04
1055	-0.04
1056	-0.04
1056	-0.04
1056	-0.04
1057	-0.04
1057	-0.04
1058	-0.04
1058	-0.04
1058	-0.04
1059	-0.04
1059	-0.04
1060	-0.041
1060	-0.041
1061	-0.041
1061	-0.041
1061	-0.041
1062	-0.041
1062	-0.041
1063	-0.041
1063	-0.042
1063	-0.042
1064	-0.042
1064	-0.042
1065	-0.042
1065	-0.042
1066	-0.042
1066	-0.043
1066	-0.043
1067	-0.044
1067	-0.044
1068	-0.045
1068	-0.046
1068	-0.047
1069	-0.048
1069	-0.049
1070	-0.05
1070	-0.051
1071	-0.051
1071	-0.051
1071	-0.051
1072	-0.052
1072	-0.051
1073	-0.051
1073	-0.051
1073	-0.052
1074	-0.051
1074	-0.051
1075	-0.052
1075	-0.053
1076	-0.054
1076	-0.053
1076	-0.054
1077	-0.055
1077	-0.055
1078	-0.056
1078	-0.056
1078	-0.057
1079	-0.057
1079	-0.057
1080	-0.058
1080	-0.059
1080	-0.06
1081	-0.061
1081	-0.062
1082	-0.063
1082	-0.065
1083	-0.066
1083	-0.067
1083	-0.069
1084	-0.07
1084	-0.071
1085	-0.073
1085	-0.074
1085	-0.075
1086	-0.076
1086	-0.077
1087	-0.077
1087	-0.078
1088	-0.079
1088	-0.08
1088	-0.08
1089	-0.081
1089	-0.082
1090	-0.082
1090	-0.082
1090	-0.084
1091	-0.084
1091	-0.084
1092	-0.085
1092	-0.085
1092	-0.086
1093	-0.087
1093	-0.087
1094	-0.088
1094	-0.09
1095	-0.091
1095	-0.092
1095	-0.093
1096	-0.094
1096	-0.096
1097	-0.097
1097	-0.099
1097	-0.101
1098	-0.102
1098	-0.104
1099	-0.106
1099	-0.108
1100	-0.11
1100	-0.112
1100	-0.115
1101	-0.118
1101	-0.12
1102	-0.122
1102	-0.125
1102	-0.128
1103	-0.13
1103	-0.133
1104	-0.135
1104	-0.139
1104	-0.14
1105	-0.141
1105	-0.145
1106	-0.149
1106	-0.151
1107	-0.156
1107	-0.161
1107	-0.166
1108	-0.168
1108	-0.169
1109	-0.172
1109	-0.177
1109	-0.181
1110	-0.182
1110	-0.187
1111	-0.197
1111	-0.194
