Data from 3.3A_17C_Absorbance__478__03345.txt Node

Date: Tue Jun 20 17:29:18 CEST 2023
User: Marek
Spectrometer: MAYP115816
Trigger mode: 0
Integration Time (sec): 2.200000E-1
Scans to average: 10
Electric dark correction enabled: true
Nonlinearity correction enabled: true
Boxcar width: 5
XAxis mode: Wavelengths
Number of Pixels in Spectrum: 2068
>>>>>Begin Spectral Data<<<<<
199	-0.791
199	-0.776
200	-0.744
200	-0.687
201	-0.663
201	-0.653
202	-0.638
202	-0.632
203	-0.632
203	-0.626
204	-0.607
204	-0.591
205	-0.568
205	-0.558
205	-0.568
206	-0.568
206	-0.566
207	-0.557
207	-0.565
208	-0.564
208	-0.569
209	-0.569
209	-0.576
210	-0.589
210	-0.595
211	-0.587
211	-0.592
212	-0.6
212	-0.607
213	-0.603
213	-0.599
213	-0.596
214	-0.603
214	-0.605
215	-0.601
215	-0.606
216	-0.615
216	-0.622
217	-0.619
217	-0.62
218	-0.627
218	-0.629
219	-0.636
219	-0.639
220	-0.642
220	-0.65
221	-0.651
221	-0.653
221	-0.643
222	-0.642
222	-0.64
223	-0.636
223	-0.638
224	-0.639
224	-0.636
225	-0.633
225	-0.633
226	-0.632
226	-0.631
227	-0.639
227	-0.65
228	-0.655
228	-0.663
229	-0.669
229	-0.667
229	-0.669
230	-0.663
230	-0.662
231	-0.66
231	-0.656
232	-0.657
232	-0.652
233	-0.651
233	-0.64
234	-0.639
234	-0.633
235	-0.637
235	-0.65
236	-0.655
236	-0.657
236	-0.657
237	-0.656
237	-0.655
238	-0.656
238	-0.657
239	-0.659
239	-0.669
240	-0.663
240	-0.66
241	-0.656
241	-0.659
242	-0.663
242	-0.67
243	-0.671
243	-0.674
243	-0.68
244	-0.676
244	-0.676
245	-0.677
245	-0.682
246	-0.693
246	-0.695
247	-0.703
247	-0.692
248	-0.691
248	-0.693
249	-0.698
249	-0.699
250	-0.696
250	-0.703
250	-0.7
251	-0.701
251	-0.698
252	-0.699
252	-0.708
253	-0.704
253	-0.715
254	-0.72
254	-0.722
255	-0.734
255	-0.733
256	-0.735
256	-0.747
257	-0.758
257	-0.755
258	-0.758
258	-0.765
258	-0.762
259	-0.754
259	-0.772
260	-0.771
260	-0.762
261	-0.772
261	-0.757
262	-0.759
262	-0.757
263	-0.747
263	-0.753
264	-0.763
264	-0.763
265	-0.754
265	-0.758
265	-0.767
266	-0.759
266	-0.759
267	-0.76
267	-0.776
268	-0.786
268	-0.779
269	-0.77
269	-0.786
270	-0.789
270	-0.789
271	-0.802
271	-0.811
272	-0.812
272	-0.819
272	-0.814
273	-0.822
273	-0.838
274	-0.83
274	-0.824
275	-0.821
275	-0.807
276	-0.81
276	-0.817
277	-0.817
277	-0.811
278	-0.816
278	-0.815
278	-0.803
279	-0.812
279	-0.827
280	-0.831
280	-0.843
281	-0.838
281	-0.828
282	-0.836
282	-0.831
283	-0.824
283	-0.838
284	-0.852
284	-0.861
285	-0.84
285	-0.845
285	-0.837
286	-0.843
286	-0.861
287	-0.858
287	-0.856
288	-0.855
288	-0.838
289	-0.836
289	-0.844
290	-0.854
290	-0.844
291	-0.846
291	-0.843
292	-0.823
292	-0.819
292	-0.825
293	-0.813
293	-0.808
294	-0.808
294	-0.793
295	-0.775
295	-0.788
296	-0.8
296	-0.794
297	-0.783
297	-0.786
298	-0.782
298	-0.8
298	-0.804
299	-0.787
299	-0.78
300	-0.775
300	-0.755
301	-0.737
301	-0.74
302	-0.751
302	-0.738
303	-0.73
303	-0.718
304	-0.703
304	-0.705
305	-0.698
305	-0.708
305	-0.724
306	-0.708
306	-0.707
307	-0.699
307	-0.708
308	-0.71
308	-0.706
309	-0.707
309	-0.702
310	-0.7
310	-0.695
311	-0.68
311	-0.699
311	-0.687
312	-0.684
312	-0.674
313	-0.665
313	-0.666
314	-0.669
314	-0.666
315	-0.662
315	-0.655
316	-0.649
316	-0.639
317	-0.632
317	-0.63
318	-0.62
318	-0.618
318	-0.608
319	-0.598
319	-0.59
320	-0.589
320	-0.587
321	-0.585
321	-0.584
322	-0.578
322	-0.571
323	-0.573
323	-0.562
324	-0.562
324	-0.55
324	-0.54
325	-0.525
325	-0.507
326	-0.496
326	-0.469
327	-0.453
327	-0.429
328	-0.397
328	-0.375
329	-0.343
329	-0.314
330	-0.287
330	-0.25
330	-0.215
331	-0.177
331	-0.143
332	-0.108
332	-0.075
333	-0.044
333	-0.008
334	0.021
334	0.048
335	0.076
335	0.098
336	0.122
336	0.143
336	0.161
337	0.18
337	0.198
338	0.213
338	0.224
339	0.239
339	0.251
340	0.259
340	0.268
341	0.276
341	0.282
342	0.29
342	0.296
342	0.302
343	0.306
343	0.312
344	0.314
344	0.317
345	0.32
345	0.323
346	0.326
346	0.328
347	0.33
347	0.331
348	0.332
348	0.334
348	0.334
349	0.335
349	0.336
350	0.337
350	0.338
351	0.338
351	0.339
352	0.339
352	0.339
353	0.339
353	0.339
354	0.339
354	0.339
354	0.339
355	0.34
355	0.339
356	0.339
356	0.339
357	0.339
357	0.339
358	0.339
358	0.339
359	0.339
359	0.34
360	0.34
360	0.34
360	0.34
361	0.34
361	0.34
362	0.34
362	0.34
363	0.34
363	0.34
364	0.34
364	0.34
365	0.34
365	0.34
366	0.34
366	0.339
366	0.34
367	0.34
367	0.339
368	0.339
368	0.338
369	0.338
369	0.338
370	0.338
370	0.338
371	0.337
371	0.337
372	0.337
372	0.337
372	0.337
373	0.337
373	0.336
374	0.336
374	0.336
375	0.336
375	0.335
376	0.335
376	0.335
377	0.335
377	0.335
378	0.334
378	0.334
378	0.334
379	0.333
379	0.333
380	0.333
380	0.333
381	0.333
381	0.332
382	0.332
382	0.332
383	0.332
383	0.331
383	0.331
384	0.331
384	0.33
385	0.33
385	0.33
386	0.329
386	0.329
387	0.329
387	0.329
388	0.329
388	0.328
389	0.328
389	0.328
389	0.328
390	0.328
390	0.327
391	0.327
391	0.327
392	0.327
392	0.326
393	0.326
393	0.326
394	0.325
394	0.325
394	0.324
395	0.324
395	0.323
396	0.323
396	0.323
397	0.323
397	0.322
398	0.322
398	0.321
399	0.321
399	0.321
400	0.321
400	0.32
400	0.32
401	0.32
401	0.319
402	0.319
402	0.319
403	0.319
403	0.319
404	0.318
404	0.318
405	0.318
405	0.317
405	0.317
406	0.317
406	0.317
407	0.317
407	0.316
408	0.316
408	0.316
409	0.315
409	0.315
410	0.315
410	0.315
411	0.315
411	0.315
411	0.315
412	0.314
412	0.314
413	0.314
413	0.314
414	0.313
414	0.313
415	0.313
415	0.313
416	0.312
416	0.312
416	0.312
417	0.311
417	0.311
418	0.311
418	0.311
419	0.311
419	0.31
420	0.31
420	0.31
421	0.31
421	0.31
421	0.31
422	0.31
422	0.31
423	0.31
423	0.31
424	0.309
424	0.309
425	0.309
425	0.309
426	0.309
426	0.309
427	0.309
427	0.309
427	0.309
428	0.309
428	0.308
429	0.308
429	0.308
430	0.308
430	0.307
431	0.307
431	0.307
432	0.307
432	0.306
432	0.306
433	0.306
433	0.306
434	0.306
434	0.306
435	0.307
435	0.307
436	0.306
436	0.306
437	0.306
437	0.306
437	0.306
438	0.306
438	0.306
439	0.306
439	0.306
440	0.305
440	0.305
441	0.305
441	0.305
442	0.305
442	0.305
442	0.304
443	0.304
443	0.304
444	0.304
444	0.304
445	0.304
445	0.304
446	0.304
446	0.304
447	0.304
447	0.304
447	0.304
448	0.304
448	0.304
449	0.304
449	0.304
450	0.304
450	0.304
451	0.304
451	0.304
452	0.304
452	0.304
452	0.305
453	0.305
453	0.305
454	0.305
454	0.305
455	0.305
455	0.305
456	0.305
456	0.305
457	0.305
457	0.305
458	0.305
458	0.305
458	0.305
459	0.305
459	0.305
460	0.304
460	0.304
461	0.304
461	0.305
462	0.305
462	0.306
463	0.307
463	0.307
463	0.308
464	0.308
464	0.309
465	0.309
465	0.31
466	0.31
466	0.31
467	0.311
467	0.311
467	0.311
468	0.31
468	0.311
469	0.311
469	0.312
470	0.312
470	0.312
471	0.313
471	0.313
472	0.313
472	0.314
472	0.314
473	0.315
473	0.316
474	0.316
474	0.317
475	0.318
475	0.319
476	0.32
476	0.321
477	0.321
477	0.322
477	0.323
478	0.324
478	0.324
479	0.325
479	0.326
480	0.326
480	0.327
481	0.328
481	0.329
482	0.33
482	0.331
482	0.332
483	0.334
483	0.336
484	0.337
484	0.337
485	0.339
485	0.34
486	0.341
486	0.342
487	0.344
487	0.345
487	0.346
488	0.347
488	0.348
489	0.349
489	0.351
490	0.353
490	0.354
491	0.356
491	0.358
492	0.359
492	0.361
492	0.362
493	0.363
493	0.365
494	0.367
494	0.369
495	0.371
495	0.373
496	0.374
496	0.376
496	0.379
497	0.381
497	0.383
498	0.385
498	0.387
499	0.39
499	0.392
500	0.395
500	0.398
501	0.4
501	0.402
501	0.404
502	0.406
502	0.408
503	0.411
503	0.413
504	0.415
504	0.417
505	0.42
505	0.423
506	0.426
506	0.429
506	0.432
507	0.435
507	0.438
508	0.442
508	0.445
509	0.447
509	0.45
510	0.453
510	0.455
511	0.457
511	0.459
511	0.461
512	0.464
512	0.466
513	0.468
513	0.47
514	0.472
514	0.475
515	0.477
515	0.479
515	0.481
516	0.483
516	0.485
517	0.487
517	0.489
518	0.49
518	0.492
519	0.493
519	0.495
520	0.496
520	0.498
520	0.5
521	0.501
521	0.503
522	0.504
522	0.506
523	0.507
523	0.509
524	0.509
524	0.511
524	0.512
525	0.513
525	0.514
526	0.515
526	0.515
527	0.516
527	0.516
528	0.516
528	0.516
529	0.516
529	0.516
529	0.516
530	0.516
530	0.515
531	0.515
531	0.515
532	0.514
532	0.514
533	0.514
533	0.513
533	0.513
534	0.512
534	0.511
535	0.51
535	0.51
536	0.509
536	0.508
537	0.507
537	0.505
538	0.504
538	0.502
538	0.501
539	0.499
539	0.498
540	0.496
540	0.494
541	0.492
541	0.49
542	0.488
542	0.486
542	0.484
543	0.482
543	0.479
544	0.477
544	0.475
545	0.473
545	0.471
546	0.469
546	0.466
547	0.463
547	0.46
547	0.458
548	0.456
548	0.453
549	0.451
549	0.449
550	0.446
550	0.443
551	0.44
551	0.438
551	0.435
552	0.432
552	0.43
553	0.428
553	0.425
554	0.423
554	0.419
555	0.417
555	0.414
556	0.411
556	0.409
556	0.406
557	0.404
557	0.402
558	0.399
558	0.397
559	0.394
559	0.392
560	0.39
560	0.387
560	0.385
561	0.383
561	0.381
562	0.379
562	0.377
563	0.374
563	0.372
564	0.37
564	0.368
564	0.366
565	0.364
565	0.363
566	0.361
566	0.359
567	0.358
567	0.357
568	0.355
568	0.353
568	0.351
569	0.349
569	0.347
570	0.344
570	0.341
571	0.339
571	0.337
572	0.335
572	0.332
573	0.33
573	0.328
573	0.325
574	0.324
574	0.322
575	0.321
575	0.321
576	0.319
576	0.317
577	0.315
577	0.313
577	0.313
578	0.312
578	0.311
579	0.311
579	0.31
580	0.308
580	0.304
581	0.301
581	0.3
581	0.299
582	0.299
582	0.298
583	0.297
583	0.295
584	0.291
584	0.289
585	0.288
585	0.288
585	0.287
586	0.286
586	0.285
587	0.283
587	0.281
588	0.279
588	0.278
589	0.277
589	0.276
590	0.275
590	0.274
590	0.274
591	0.273
591	0.272
592	0.27
592	0.268
593	0.267
593	0.266
594	0.265
594	0.263
594	0.262
595	0.261
595	0.259
596	0.257
596	0.258
597	0.258
597	0.258
598	0.256
598	0.256
598	0.255
599	0.255
599	0.253
600	0.252
600	0.251
601	0.251
601	0.25
602	0.248
602	0.248
602	0.246
603	0.246
603	0.246
604	0.245
604	0.245
605	0.244
605	0.244
606	0.243
606	0.241
606	0.24
607	0.239
607	0.239
608	0.238
608	0.236
609	0.235
609	0.234
610	0.233
610	0.231
610	0.231
611	0.231
611	0.23
612	0.23
612	0.229
613	0.229
613	0.228
614	0.226
614	0.225
614	0.224
615	0.222
615	0.221
616	0.22
616	0.219
617	0.218
617	0.216
618	0.215
618	0.214
618	0.212
619	0.212
619	0.211
620	0.212
620	0.211
621	0.21
621	0.209
622	0.207
622	0.206
622	0.204
623	0.203
623	0.202
624	0.202
624	0.2
625	0.199
625	0.198
626	0.197
626	0.195
626	0.195
627	0.195
627	0.194
628	0.193
628	0.192
629	0.19
629	0.189
630	0.187
630	0.185
630	0.183
631	0.182
631	0.18
632	0.177
632	0.175
633	0.173
633	0.171
634	0.169
634	0.167
634	0.166
635	0.163
635	0.161
636	0.159
636	0.156
637	0.153
637	0.15
638	0.148
638	0.145
638	0.141
639	0.137
639	0.132
640	0.128
640	0.124
641	0.12
641	0.116
642	0.111
642	0.107
642	0.102
643	0.098
643	0.092
644	0.087
644	0.082
645	0.077
645	0.071
646	0.066
646	0.059
646	0.053
647	0.047
647	0.04
648	0.033
648	0.025
649	0.018
649	0.011
650	0.004
650	-0.004
650	-0.012
651	-0.021
651	-0.033
652	-0.047
652	-0.061
653	-0.074
653	-0.084
653	-0.08
654	-0.06
654	-0.054
655	-0.059
655	-0.063
656	-0.069
656	-0.076
657	-0.08
657	-0.084
657	-0.091
658	-0.097
658	-0.128
659	-0.214
659	-0.304
660	-0.344
660	-0.37
661	-0.397
661	-0.426
661	-0.457
662	-0.484
662	-0.514
663	-0.549
663	-0.587
664	-0.624
664	-0.664
665	-0.71
665	-0.756
665	-0.8
666	-0.851
666	-0.905
667	-0.961
667	-1.023
668	-1.081
668	-1.15
669	-1.219
669	-1.293
669	-1.373
670	-1.459
670	-1.583
671	-1.806
671	-2.163
672	-2.371
672	-2.517
672	-2.628
673	-2.718
673	-2.794
674	-2.835
674	-2.847
675	-2.862
675	-2.864
676	-2.854
676	-2.788
676	-2.713
677	-2.62
677	-2.505
678	-2.325
678	-1.993
679	-1.689
679	-1.55
680	-1.456
680	-1.383
680	-1.32
681	-1.276
681	-1.226
682	-1.187
682	-1.145
683	-1.104
683	-1.084
684	-1.057
684	-1.039
684	-1.016
685	-0.998
685	-0.99
686	-0.968
686	-0.954
687	-0.945
687	-0.934
687	-0.936
688	-0.921
688	-0.914
689	-0.918
689	-0.917
690	-0.904
690	-0.894
691	-0.892
691	-0.897
691	-0.897
692	-0.896
692	-0.891
693	-0.898
693	-0.908
694	-0.889
694	-0.886
695	-0.89
695	-0.884
695	-0.892
696	-0.898
696	-0.891
697	-0.887
697	-0.884
698	-0.879
698	-0.871
698	-0.885
699	-0.883
699	-0.883
700	-0.902
700	-0.896
701	-0.882
701	-0.877
702	-0.878
702	-0.877
702	-0.878
703	-0.869
703	-0.857
704	-0.866
704	-0.87
705	-0.858
705	-0.857
705	-0.851
706	-0.842
706	-0.839
707	-0.85
707	-0.853
708	-0.852
708	-0.849
709	-0.85
709	-0.848
709	-0.844
710	-0.851
710	-0.855
711	-0.854
711	-0.854
712	-0.845
712	-0.842
713	-0.846
713	-0.848
713	-0.829
714	-0.829
714	-0.831
715	-0.822
715	-0.831
716	-0.848
716	-0.857
716	-0.859
717	-0.865
717	-0.858
718	-0.852
718	-0.852
719	-0.847
719	-0.839
720	-0.835
720	-0.831
720	-0.825
721	-0.816
721	-0.82
722	-0.817
722	-0.811
723	-0.828
723	-0.841
723	-0.852
724	-0.851
724	-0.855
725	-0.848
725	-0.852
726	-0.856
726	-0.847
727	-0.849
727	-0.856
727	-0.846
728	-0.833
728	-0.829
729	-0.832
729	-0.836
730	-0.842
730	-0.831
730	-0.836
731	-0.839
731	-0.842
732	-0.845
732	-0.841
733	-0.857
733	-0.864
734	-0.872
734	-0.863
734	-0.846
735	-0.836
735	-0.83
736	-0.829
736	-0.822
737	-0.821
737	-0.809
737	-0.798
738	-0.784
738	-0.773
739	-0.775
739	-0.774
740	-0.788
740	-0.789
741	-0.799
741	-0.809
741	-0.819
742	-0.828
742	-0.844
743	-0.85
743	-0.852
744	-0.857
744	-0.866
744	-0.86
745	-0.869
745	-0.86
746	-0.855
746	-0.847
747	-0.849
747	-0.84
748	-0.843
748	-0.846
748	-0.847
749	-0.839
749	-0.844
750	-0.833
750	-0.834
751	-0.833
751	-0.83
751	-0.842
752	-0.848
752	-0.849
753	-0.851
753	-0.843
754	-0.863
754	-0.864
754	-0.874
755	-0.872
755	-0.865
756	-0.867
756	-0.852
757	-0.842
757	-0.831
758	-0.833
758	-0.832
758	-0.827
759	-0.831
759	-0.831
760	-0.829
760	-0.832
761	-0.825
761	-0.83
761	-0.832
762	-0.838
762	-0.837
763	-0.837
763	-0.841
764	-0.841
764	-0.836
764	-0.841
765	-0.839
765	-0.847
766	-0.85
766	-0.853
767	-0.869
767	-0.864
768	-0.863
768	-0.856
768	-0.85
769	-0.854
769	-0.862
770	-0.871
770	-0.875
771	-0.869
771	-0.867
771	-0.871
772	-0.874
772	-0.895
773	-0.895
773	-0.895
774	-0.893
774	-0.875
775	-0.863
775	-0.862
775	-0.867
776	-0.878
776	-0.875
777	-0.875
777	-0.857
778	-0.866
778	-0.875
778	-0.875
779	-0.884
779	-0.9
780	-0.897
780	-0.906
781	-0.895
781	-0.884
781	-0.899
782	-0.922
782	-0.925
783	-0.925
783	-0.934
784	-0.937
784	-0.931
784	-0.949
785	-0.941
785	-0.952
786	-0.957
786	-0.951
787	-0.939
787	-0.945
788	-0.938
788	-0.93
788	-0.931
789	-0.93
789	-0.919
790	-0.92
790	-0.907
791	-0.913
791	-0.908
791	-0.9
792	-0.895
792	-0.898
793	-0.901
793	-0.889
794	-0.882
794	-0.875
794	-0.883
795	-0.903
795	-0.889
796	-0.895
796	-0.893
797	-0.887
797	-0.879
797	-0.873
798	-0.893
798	-0.898
799	-0.898
799	-0.883
800	-0.878
800	-0.887
801	-0.884
801	-0.887
801	-0.883
802	-0.883
802	-0.881
803	-0.875
803	-0.867
804	-0.873
804	-0.88
804	-0.863
805	-0.844
805	-0.835
806	-0.835
806	-0.832
807	-0.833
807	-0.832
807	-0.817
808	-0.812
808	-0.804
809	-0.799
809	-0.8
810	-0.803
810	-0.801
810	-0.798
811	-0.8
811	-0.792
812	-0.784
812	-0.786
813	-0.79
813	-0.793
813	-0.789
814	-0.79
814	-0.795
815	-0.786
815	-0.783
816	-0.78
816	-0.799
817	-0.813
817	-0.816
817	-0.825
818	-0.819
818	-0.815
819	-0.824
819	-0.822
820	-0.834
820	-0.833
820	-0.831
821	-0.825
821	-0.82
822	-0.819
822	-0.807
823	-0.817
823	-0.816
823	-0.812
824	-0.81
824	-0.82
825	-0.818
825	-0.816
826	-0.812
826	-0.808
826	-0.808
827	-0.807
827	-0.797
828	-0.796
828	-0.79
829	-0.785
829	-0.768
829	-0.767
830	-0.767
830	-0.754
831	-0.745
831	-0.734
832	-0.727
832	-0.722
832	-0.715
833	-0.713
833	-0.719
834	-0.715
834	-0.71
835	-0.701
835	-0.699
835	-0.696
836	-0.694
836	-0.689
837	-0.679
837	-0.67
838	-0.657
838	-0.64
839	-0.633
839	-0.62
839	-0.609
840	-0.609
840	-0.597
841	-0.584
841	-0.577
842	-0.568
842	-0.557
842	-0.554
843	-0.55
843	-0.546
844	-0.544
844	-0.531
845	-0.517
845	-0.507
845	-0.497
846	-0.485
846	-0.475
847	-0.464
847	-0.451
848	-0.435
848	-0.417
848	-0.403
849	-0.391
849	-0.379
850	-0.369
850	-0.358
851	-0.344
851	-0.328
851	-0.319
852	-0.303
852	-0.291
853	-0.283
853	-0.271
854	-0.261
854	-0.249
854	-0.237
855	-0.226
855	-0.218
856	-0.209
856	-0.199
857	-0.192
857	-0.183
857	-0.169
858	-0.158
858	-0.151
859	-0.14
859	-0.128
860	-0.116
860	-0.101
860	-0.092
861	-0.081
861	-0.071
862	-0.062
862	-0.054
863	-0.045
863	-0.034
863	-0.027
864	-0.02
864	-0.013
865	-0.006
865	-0.001
866	0.005
866	0.011
866	0.017
867	0.023
867	0.028
868	0.033
868	0.038
869	0.042
869	0.045
869	0.048
870	0.05
870	0.053
871	0.055
871	0.056
872	0.057
872	0.058
872	0.058
873	0.059
873	0.058
874	0.057
874	0.057
875	0.057
875	0.056
875	0.056
876	0.056
876	0.056
877	0.055
877	0.055
878	0.054
878	0.054
878	0.053
879	0.053
879	0.052
880	0.052
880	0.05
881	0.049
881	0.047
881	0.046
882	0.044
882	0.043
883	0.041
883	0.04
884	0.039
884	0.039
884	0.038
885	0.038
885	0.038
886	0.038
886	0.037
887	0.037
887	0.037
887	0.037
888	0.036
888	0.035
889	0.035
889	0.034
890	0.033
890	0.032
890	0.032
891	0.032
891	0.031
892	0.032
892	0.032
893	0.033
893	0.033
893	0.033
894	0.034
894	0.035
895	0.035
895	0.035
895	0.035
896	0.036
896	0.036
897	0.036
897	0.036
898	0.036
898	0.036
898	0.036
899	0.037
899	0.037
900	0.037
900	0.037
901	0.036
901	0.036
901	0.035
902	0.035
902	0.035
903	0.035
903	0.034
904	0.034
904	0.033
904	0.033
905	0.033
905	0.034
906	0.034
906	0.035
907	0.035
907	0.036
907	0.036
908	0.037
908	0.038
909	0.038
909	0.039
910	0.039
910	0.04
910	0.04
911	0.041
911	0.041
912	0.042
912	0.042
913	0.043
913	0.043
913	0.044
914	0.044
914	0.045
915	0.045
915	0.045
916	0.044
916	0.044
916	0.043
917	0.042
917	0.042
918	0.041
918	0.04
918	0.039
919	0.038
919	0.038
920	0.038
920	0.038
921	0.038
921	0.038
921	0.039
922	0.039
922	0.039
923	0.039
923	0.039
924	0.039
924	0.038
924	0.037
925	0.036
925	0.035
926	0.034
926	0.032
927	0.031
927	0.03
927	0.029
928	0.028
928	0.028
929	0.028
929	0.029
930	0.029
930	0.03
930	0.031
931	0.032
931	0.033
932	0.034
932	0.035
933	0.036
933	0.037
933	0.037
934	0.036
934	0.036
935	0.036
935	0.034
935	0.033
936	0.032
936	0.031
937	0.03
937	0.029
938	0.028
938	0.027
938	0.027
939	0.026
939	0.026
940	0.025
940	0.024
941	0.023
941	0.023
941	0.023
942	0.022
942	0.022
943	0.022
943	0.022
944	0.022
944	0.021
944	0.021
945	0.021
945	0.021
946	0.02
946	0.019
946	0.019
947	0.019
947	0.018
948	0.019
948	0.02
949	0.02
949	0.021
949	0.023
950	0.024
950	0.026
951	0.027
951	0.028
952	0.029
952	0.03
952	0.031
953	0.031
953	0.032
954	0.032
954	0.031
955	0.031
955	0.031
955	0.031
956	0.031
956	0.03
957	0.029
957	0.028
957	0.027
958	0.027
958	0.026
959	0.026
959	0.025
960	0.025
960	0.024
960	0.024
961	0.024
961	0.025
962	0.025
962	0.025
963	0.026
963	0.026
963	0.027
964	0.028
964	0.028
965	0.029
965	0.03
966	0.03
966	0.031
966	0.032
967	0.032
967	0.033
968	0.033
968	0.032
968	0.033
969	0.032
969	0.032
970	0.031
970	0.031
971	0.03
971	0.03
971	0.03
972	0.03
972	0.03
973	0.03
973	0.03
974	0.03
974	0.03
974	0.03
975	0.03
975	0.03
976	0.029
976	0.029
976	0.029
977	0.028
977	0.027
978	0.026
978	0.026
979	0.025
979	0.024
979	0.023
980	0.023
980	0.023
981	0.022
981	0.022
982	0.022
982	0.022
982	0.022
983	0.022
983	0.022
984	0.022
984	0.021
984	0.021
985	0.021
985	0.021
986	0.02
986	0.02
987	0.019
987	0.018
987	0.018
988	0.018
988	0.017
989	0.016
989	0.016
990	0.015
990	0.014
990	0.014
991	0.013
991	0.012
992	0.012
992	0.011
992	0.01
993	0.009
993	0.008
994	0.007
994	0.005
995	0.004
995	0.003
995	0.002
996	0.001
996	-0
997	-0.001
997	-0.002
997	-0.002
998	-0.002
998	-0.002
999	-0.002
999	-0.002
1000	-0.001
1000	-0.001
1000	0
1001	0.001
1001	0.001
1002	0.002
1002	0.003
1003	0.003
1003	0.004
1003	0.004
1004	0.004
1004	0.004
1005	0.004
1005	0.003
1005	0.003
1006	0.002
1006	0.002
1007	0.001
1007	-0
1008	-0.002
1008	-0.002
1008	-0.003
1009	-0.003
1009	-0.003
1010	-0.003
1010	-0.002
1010	-0.002
1011	-0.001
1011	-0.001
1012	0
1012	0.002
1013	0.003
1013	0.004
1013	0.005
1014	0.005
1014	0.006
1015	0.006
1015	0.007
1016	0.007
1016	0.007
1016	0.007
1017	0.007
1017	0.007
1018	0.007
1018	0.007
1018	0.007
1019	0.007
1019	0.006
1020	0.006
1020	0.005
1021	0.005
1021	0.005
1021	0.005
1022	0.004
1022	0.004
1023	0.004
1023	0.003
1023	0.003
1024	0.003
1024	0.003
1025	0.003
1025	0.003
1026	0.003
1026	0.004
1026	0.003
1027	0.003
1027	0.003
1028	0.004
1028	0.004
1028	0.004
1029	0.004
1029	0.004
1030	0.004
1030	0.004
1031	0.004
1031	0.005
1031	0.005
1032	0.005
1032	0.005
1033	0.005
1033	0.004
1033	0.004
1034	0.003
1034	0.002
1035	0.002
1035	0.001
1036	0
1036	-0.001
1036	-0.002
1037	-0.002
1037	-0.002
1038	-0.003
1038	-0.003
1039	-0.003
1039	-0.002
1039	-0.002
1040	-0.002
1040	-0.001
1041	-0.001
1041	-0.002
1041	-0.002
1042	-0.003
1042	-0.003
1043	-0.003
1043	-0.004
1044	-0.004
1044	-0.005
1044	-0.005
1045	-0.006
1045	-0.006
1046	-0.007
1046	-0.007
1046	-0.008
1047	-0.008
1047	-0.008
1048	-0.008
1048	-0.008
1049	-0.008
1049	-0.009
1049	-0.009
1050	-0.01
1050	-0.011
1051	-0.012
1051	-0.013
1051	-0.013
1052	-0.014
1052	-0.015
1053	-0.016
1053	-0.016
1053	-0.016
1054	-0.017
1054	-0.017
1055	-0.017
1055	-0.016
1056	-0.016
1056	-0.016
1056	-0.016
1057	-0.016
1057	-0.016
1058	-0.017
1058	-0.017
1058	-0.017
1059	-0.017
1059	-0.017
1060	-0.018
1060	-0.018
1061	-0.018
1061	-0.018
1061	-0.018
1062	-0.019
1062	-0.019
1063	-0.018
1063	-0.019
1063	-0.019
1064	-0.019
1064	-0.019
1065	-0.019
1065	-0.019
1066	-0.02
1066	-0.02
1066	-0.021
1067	-0.022
1067	-0.022
1068	-0.023
1068	-0.024
1068	-0.024
1069	-0.025
1069	-0.027
1070	-0.027
1070	-0.027
1071	-0.028
1071	-0.028
1071	-0.028
1072	-0.029
1072	-0.028
1073	-0.028
1073	-0.028
1073	-0.028
1074	-0.028
1074	-0.029
1075	-0.029
1075	-0.03
1076	-0.031
1076	-0.031
1076	-0.032
1077	-0.032
1077	-0.033
1078	-0.034
1078	-0.035
1078	-0.035
1079	-0.035
1079	-0.036
1080	-0.037
1080	-0.038
1080	-0.04
1081	-0.04
1081	-0.041
1082	-0.042
1082	-0.043
1083	-0.045
1083	-0.046
1083	-0.048
1084	-0.05
1084	-0.051
1085	-0.052
1085	-0.053
1085	-0.054
1086	-0.055
1086	-0.057
1087	-0.057
1087	-0.058
1088	-0.059
1088	-0.059
1088	-0.059
1089	-0.061
1089	-0.061
1090	-0.062
1090	-0.062
1090	-0.064
1091	-0.064
1091	-0.064
1092	-0.064
1092	-0.064
1092	-0.065
1093	-0.065
1093	-0.065
1094	-0.065
1094	-0.066
1095	-0.068
1095	-0.068
1095	-0.069
1096	-0.071
1096	-0.073
1097	-0.074
1097	-0.077
1097	-0.078
1098	-0.081
1098	-0.083
1099	-0.084
1099	-0.086
1100	-0.088
1100	-0.091
1100	-0.094
1101	-0.097
1101	-0.099
1102	-0.101
1102	-0.104
1102	-0.106
1103	-0.109
1103	-0.112
1104	-0.115
1104	-0.118
1104	-0.12
1105	-0.122
1105	-0.125
1106	-0.129
1106	-0.132
1107	-0.137
1107	-0.142
1107	-0.147
1108	-0.148
1108	-0.149
1109	-0.153
1109	-0.158
1109	-0.163
1110	-0.165
1110	-0.17
1111	-0.18
1111	-0.175
