Data from 3.3A_17C_Absorbance__483__03350.txt Node

Date: Tue Jun 20 17:29:29 CEST 2023
User: Marek
Spectrometer: MAYP115816
Trigger mode: 0
Integration Time (sec): 2.200000E-1
Scans to average: 10
Electric dark correction enabled: true
Nonlinearity correction enabled: true
Boxcar width: 5
XAxis mode: Wavelengths
Number of Pixels in Spectrum: 2068
>>>>>Begin Spectral Data<<<<<
199	-0.784
199	-0.776
200	-0.741
200	-0.688
201	-0.661
201	-0.652
202	-0.635
202	-0.628
203	-0.628
203	-0.622
204	-0.602
204	-0.588
205	-0.565
205	-0.555
205	-0.564
206	-0.565
206	-0.562
207	-0.556
207	-0.562
208	-0.564
208	-0.566
209	-0.567
209	-0.573
210	-0.585
210	-0.591
211	-0.586
211	-0.591
212	-0.599
212	-0.605
213	-0.601
213	-0.596
213	-0.596
214	-0.604
214	-0.607
215	-0.604
215	-0.609
216	-0.617
216	-0.622
217	-0.621
217	-0.622
218	-0.63
218	-0.631
219	-0.637
219	-0.638
220	-0.642
220	-0.649
221	-0.649
221	-0.651
221	-0.642
222	-0.641
222	-0.64
223	-0.637
223	-0.64
224	-0.641
224	-0.639
225	-0.636
225	-0.635
226	-0.635
226	-0.634
227	-0.643
227	-0.655
228	-0.657
228	-0.664
229	-0.669
229	-0.668
229	-0.668
230	-0.663
230	-0.661
231	-0.657
231	-0.653
232	-0.655
232	-0.648
233	-0.649
233	-0.637
234	-0.637
234	-0.632
235	-0.637
235	-0.647
236	-0.655
236	-0.658
236	-0.658
237	-0.655
237	-0.656
238	-0.656
238	-0.66
239	-0.662
239	-0.672
240	-0.666
240	-0.663
241	-0.658
241	-0.661
242	-0.664
242	-0.674
243	-0.676
243	-0.68
243	-0.682
244	-0.678
244	-0.68
245	-0.681
245	-0.684
246	-0.695
246	-0.698
247	-0.705
247	-0.69
248	-0.688
248	-0.688
249	-0.695
249	-0.698
250	-0.697
250	-0.705
250	-0.703
251	-0.701
251	-0.698
252	-0.701
252	-0.713
253	-0.708
253	-0.72
254	-0.724
254	-0.725
255	-0.735
255	-0.734
256	-0.736
256	-0.749
257	-0.761
257	-0.756
258	-0.757
258	-0.765
258	-0.763
259	-0.757
259	-0.774
260	-0.773
260	-0.761
261	-0.774
261	-0.76
262	-0.764
262	-0.762
263	-0.754
263	-0.758
264	-0.769
264	-0.771
265	-0.761
265	-0.763
265	-0.773
266	-0.761
266	-0.761
267	-0.759
267	-0.776
268	-0.784
268	-0.78
269	-0.771
269	-0.783
270	-0.787
270	-0.786
271	-0.802
271	-0.813
272	-0.815
272	-0.818
272	-0.812
273	-0.82
273	-0.833
274	-0.826
274	-0.823
275	-0.821
275	-0.808
276	-0.811
276	-0.815
277	-0.816
277	-0.813
278	-0.817
278	-0.817
278	-0.805
279	-0.812
279	-0.826
280	-0.829
280	-0.84
281	-0.833
281	-0.825
282	-0.833
282	-0.828
283	-0.821
283	-0.836
284	-0.85
284	-0.861
285	-0.84
285	-0.848
285	-0.839
286	-0.846
286	-0.862
287	-0.858
287	-0.856
288	-0.855
288	-0.836
289	-0.834
289	-0.843
290	-0.849
290	-0.837
291	-0.841
291	-0.838
292	-0.818
292	-0.816
292	-0.823
293	-0.81
293	-0.806
294	-0.808
294	-0.791
295	-0.774
295	-0.788
296	-0.801
296	-0.796
297	-0.784
297	-0.787
298	-0.785
298	-0.803
298	-0.808
299	-0.786
299	-0.78
300	-0.779
300	-0.758
301	-0.737
301	-0.739
302	-0.749
302	-0.735
303	-0.727
303	-0.716
304	-0.699
304	-0.703
305	-0.696
305	-0.703
305	-0.718
306	-0.703
306	-0.703
307	-0.695
307	-0.706
308	-0.709
308	-0.705
309	-0.707
309	-0.704
310	-0.703
310	-0.699
311	-0.684
311	-0.703
311	-0.69
312	-0.687
312	-0.675
313	-0.665
313	-0.667
314	-0.672
314	-0.668
315	-0.662
315	-0.656
316	-0.651
316	-0.641
317	-0.632
317	-0.63
318	-0.622
318	-0.62
318	-0.609
319	-0.596
319	-0.587
320	-0.585
320	-0.582
321	-0.578
321	-0.576
322	-0.569
322	-0.561
323	-0.562
323	-0.552
324	-0.55
324	-0.539
324	-0.529
325	-0.515
325	-0.5
326	-0.49
326	-0.464
327	-0.45
327	-0.428
328	-0.395
328	-0.373
329	-0.344
329	-0.316
330	-0.288
330	-0.251
330	-0.215
331	-0.179
331	-0.146
332	-0.11
332	-0.077
333	-0.047
333	-0.012
334	0.018
334	0.046
335	0.074
335	0.096
336	0.12
336	0.142
336	0.161
337	0.179
337	0.198
338	0.212
338	0.223
339	0.237
339	0.248
340	0.257
340	0.266
341	0.274
341	0.28
342	0.287
342	0.293
342	0.298
343	0.302
343	0.308
344	0.311
344	0.315
345	0.318
345	0.321
346	0.323
346	0.325
347	0.327
347	0.329
348	0.33
348	0.332
348	0.333
349	0.334
349	0.335
350	0.336
350	0.336
351	0.337
351	0.337
352	0.337
352	0.338
353	0.338
353	0.339
354	0.339
354	0.339
354	0.339
355	0.339
355	0.339
356	0.339
356	0.339
357	0.339
357	0.34
358	0.339
358	0.339
359	0.339
359	0.339
360	0.339
360	0.339
360	0.339
361	0.339
361	0.339
362	0.339
362	0.339
363	0.339
363	0.339
364	0.339
364	0.339
365	0.339
365	0.339
366	0.339
366	0.338
366	0.338
367	0.338
367	0.338
368	0.338
368	0.337
369	0.337
369	0.337
370	0.337
370	0.337
371	0.336
371	0.336
372	0.336
372	0.336
372	0.336
373	0.335
373	0.335
374	0.335
374	0.335
375	0.335
375	0.335
376	0.334
376	0.334
377	0.334
377	0.334
378	0.333
378	0.333
378	0.333
379	0.332
379	0.332
380	0.332
380	0.332
381	0.332
381	0.332
382	0.331
382	0.331
383	0.331
383	0.33
383	0.33
384	0.33
384	0.329
385	0.329
385	0.328
386	0.328
386	0.328
387	0.328
387	0.327
388	0.327
388	0.327
389	0.327
389	0.327
389	0.326
390	0.327
390	0.326
391	0.326
391	0.326
392	0.325
392	0.325
393	0.325
393	0.324
394	0.324
394	0.324
394	0.323
395	0.323
395	0.322
396	0.322
396	0.322
397	0.322
397	0.321
398	0.321
398	0.321
399	0.32
399	0.32
400	0.32
400	0.319
400	0.319
401	0.319
401	0.318
402	0.318
402	0.318
403	0.318
403	0.318
404	0.317
404	0.317
405	0.317
405	0.316
405	0.316
406	0.316
406	0.316
407	0.316
407	0.316
408	0.315
408	0.315
409	0.315
409	0.315
410	0.315
410	0.315
411	0.315
411	0.314
411	0.314
412	0.313
412	0.313
413	0.313
413	0.313
414	0.312
414	0.312
415	0.312
415	0.311
416	0.311
416	0.311
416	0.311
417	0.31
417	0.31
418	0.31
418	0.31
419	0.31
419	0.31
420	0.31
420	0.31
421	0.31
421	0.31
421	0.31
422	0.31
422	0.31
423	0.31
423	0.309
424	0.309
424	0.309
425	0.309
425	0.309
426	0.309
426	0.308
427	0.308
427	0.308
427	0.308
428	0.308
428	0.308
429	0.307
429	0.307
430	0.307
430	0.306
431	0.306
431	0.306
432	0.306
432	0.305
432	0.305
433	0.305
433	0.305
434	0.305
434	0.305
435	0.305
435	0.305
436	0.305
436	0.305
437	0.306
437	0.305
437	0.305
438	0.306
438	0.305
439	0.305
439	0.305
440	0.305
440	0.305
441	0.304
441	0.304
442	0.304
442	0.304
442	0.304
443	0.303
443	0.303
444	0.304
444	0.304
445	0.304
445	0.304
446	0.304
446	0.303
447	0.304
447	0.304
447	0.304
448	0.304
448	0.303
449	0.303
449	0.303
450	0.303
450	0.303
451	0.303
451	0.303
452	0.303
452	0.303
452	0.303
453	0.303
453	0.303
454	0.303
454	0.304
455	0.304
455	0.304
456	0.304
456	0.304
457	0.304
457	0.304
458	0.304
458	0.304
458	0.304
459	0.304
459	0.304
460	0.303
460	0.303
461	0.304
461	0.304
462	0.305
462	0.305
463	0.306
463	0.307
463	0.307
464	0.307
464	0.308
465	0.308
465	0.309
466	0.309
466	0.309
467	0.31
467	0.31
467	0.309
468	0.309
468	0.309
469	0.31
469	0.31
470	0.311
470	0.311
471	0.311
471	0.312
472	0.312
472	0.312
472	0.313
473	0.314
473	0.315
474	0.315
474	0.316
475	0.317
475	0.318
476	0.318
476	0.319
477	0.32
477	0.321
477	0.322
478	0.323
478	0.324
479	0.324
479	0.325
480	0.326
480	0.327
481	0.327
481	0.328
482	0.329
482	0.33
482	0.331
483	0.333
483	0.334
484	0.335
484	0.336
485	0.337
485	0.339
486	0.34
486	0.341
487	0.342
487	0.344
487	0.345
488	0.346
488	0.347
489	0.348
489	0.35
490	0.352
490	0.353
491	0.355
491	0.357
492	0.358
492	0.359
492	0.36
493	0.362
493	0.363
494	0.366
494	0.368
495	0.369
495	0.371
496	0.373
496	0.375
496	0.377
497	0.38
497	0.382
498	0.384
498	0.386
499	0.389
499	0.391
500	0.394
500	0.397
501	0.399
501	0.401
501	0.403
502	0.405
502	0.408
503	0.41
503	0.412
504	0.414
504	0.416
505	0.419
505	0.422
506	0.424
506	0.427
506	0.43
507	0.433
507	0.436
508	0.439
508	0.442
509	0.445
509	0.448
510	0.451
510	0.453
511	0.455
511	0.458
511	0.46
512	0.462
512	0.464
513	0.466
513	0.468
514	0.471
514	0.473
515	0.476
515	0.477
515	0.479
516	0.481
516	0.483
517	0.486
517	0.487
518	0.489
518	0.49
519	0.491
519	0.492
520	0.494
520	0.496
520	0.497
521	0.498
521	0.5
522	0.501
522	0.503
523	0.505
523	0.507
524	0.508
524	0.509
524	0.51
525	0.511
525	0.512
526	0.513
526	0.513
527	0.514
527	0.514
528	0.514
528	0.514
529	0.514
529	0.514
529	0.514
530	0.514
530	0.514
531	0.513
531	0.513
532	0.512
532	0.512
533	0.512
533	0.511
533	0.511
534	0.51
534	0.509
535	0.508
535	0.507
536	0.507
536	0.506
537	0.504
537	0.503
538	0.502
538	0.5
538	0.498
539	0.497
539	0.496
540	0.494
540	0.492
541	0.49
541	0.488
542	0.486
542	0.484
542	0.482
543	0.48
543	0.478
544	0.475
544	0.473
545	0.471
545	0.469
546	0.466
546	0.464
547	0.461
547	0.458
547	0.456
548	0.454
548	0.451
549	0.449
549	0.447
550	0.444
550	0.441
551	0.439
551	0.436
551	0.434
552	0.431
552	0.429
553	0.426
553	0.424
554	0.422
554	0.419
555	0.416
555	0.413
556	0.411
556	0.408
556	0.405
557	0.403
557	0.401
558	0.398
558	0.395
559	0.393
559	0.391
560	0.388
560	0.385
560	0.384
561	0.382
561	0.38
562	0.378
562	0.375
563	0.373
563	0.371
564	0.369
564	0.367
564	0.365
565	0.364
565	0.362
566	0.36
566	0.359
567	0.357
567	0.356
568	0.354
568	0.352
568	0.35
569	0.348
569	0.346
570	0.343
570	0.34
571	0.339
571	0.337
572	0.334
572	0.332
573	0.33
573	0.327
573	0.325
574	0.323
574	0.322
575	0.32
575	0.321
576	0.319
576	0.317
577	0.314
577	0.313
577	0.312
578	0.312
578	0.311
579	0.311
579	0.31
580	0.307
580	0.304
581	0.301
581	0.3
581	0.299
582	0.298
582	0.297
583	0.296
583	0.294
584	0.291
584	0.288
585	0.288
585	0.288
585	0.287
586	0.286
586	0.284
587	0.282
587	0.28
588	0.279
588	0.278
589	0.277
589	0.276
590	0.275
590	0.274
590	0.274
591	0.273
591	0.272
592	0.27
592	0.268
593	0.267
593	0.266
594	0.265
594	0.263
594	0.262
595	0.261
595	0.259
596	0.257
596	0.257
597	0.258
597	0.257
598	0.257
598	0.256
598	0.255
599	0.255
599	0.253
600	0.252
600	0.251
601	0.251
601	0.25
602	0.248
602	0.247
602	0.246
603	0.245
603	0.245
604	0.245
604	0.244
605	0.244
605	0.244
606	0.243
606	0.241
606	0.24
607	0.239
607	0.239
608	0.238
608	0.236
609	0.235
609	0.234
610	0.233
610	0.231
610	0.231
611	0.231
611	0.23
612	0.23
612	0.229
613	0.229
613	0.228
614	0.227
614	0.225
614	0.224
615	0.223
615	0.221
616	0.22
616	0.219
617	0.218
617	0.216
618	0.215
618	0.214
618	0.213
619	0.212
619	0.212
620	0.212
620	0.211
621	0.21
621	0.209
622	0.208
622	0.207
622	0.205
623	0.203
623	0.203
624	0.203
624	0.201
625	0.2
625	0.199
626	0.198
626	0.196
626	0.196
627	0.195
627	0.194
628	0.194
628	0.192
629	0.191
629	0.189
630	0.187
630	0.185
630	0.184
631	0.182
631	0.18
632	0.178
632	0.176
633	0.174
633	0.172
634	0.17
634	0.168
634	0.166
635	0.164
635	0.162
636	0.159
636	0.157
637	0.154
637	0.151
638	0.148
638	0.145
638	0.141
639	0.137
639	0.133
640	0.129
640	0.124
641	0.12
641	0.116
642	0.112
642	0.107
642	0.103
643	0.098
643	0.093
644	0.088
644	0.083
645	0.077
645	0.072
646	0.067
646	0.061
646	0.055
647	0.048
647	0.042
648	0.035
648	0.027
649	0.019
649	0.012
650	0.005
650	-0.003
650	-0.011
651	-0.02
651	-0.032
652	-0.046
652	-0.06
653	-0.073
653	-0.083
653	-0.078
654	-0.059
654	-0.053
655	-0.058
655	-0.063
656	-0.069
656	-0.075
657	-0.08
657	-0.085
657	-0.091
658	-0.098
658	-0.129
659	-0.215
659	-0.304
660	-0.344
660	-0.37
661	-0.397
661	-0.427
661	-0.458
662	-0.486
662	-0.516
663	-0.551
663	-0.588
664	-0.625
664	-0.665
665	-0.71
665	-0.756
665	-0.801
666	-0.851
666	-0.906
667	-0.961
667	-1.023
668	-1.082
668	-1.15
669	-1.219
669	-1.293
669	-1.373
670	-1.459
670	-1.582
671	-1.795
671	-2.158
672	-2.368
672	-2.515
672	-2.626
673	-2.717
673	-2.793
674	-2.836
674	-2.849
675	-2.864
675	-2.867
676	-2.857
676	-2.793
676	-2.718
677	-2.626
677	-2.513
678	-2.338
678	-2.021
679	-1.7
679	-1.557
680	-1.46
680	-1.388
680	-1.324
681	-1.28
681	-1.229
682	-1.19
682	-1.149
683	-1.109
683	-1.087
684	-1.06
684	-1.042
684	-1.019
685	-0.999
685	-0.99
686	-0.969
686	-0.955
687	-0.946
687	-0.935
687	-0.935
688	-0.919
688	-0.914
689	-0.917
689	-0.916
690	-0.904
690	-0.892
691	-0.89
691	-0.894
691	-0.894
692	-0.894
692	-0.89
693	-0.898
693	-0.907
694	-0.888
694	-0.886
695	-0.889
695	-0.885
695	-0.892
696	-0.899
696	-0.892
697	-0.887
697	-0.885
698	-0.879
698	-0.873
698	-0.887
699	-0.885
699	-0.886
700	-0.905
700	-0.9
701	-0.887
701	-0.882
702	-0.882
702	-0.879
702	-0.879
703	-0.87
703	-0.859
704	-0.867
704	-0.87
705	-0.859
705	-0.857
705	-0.851
706	-0.846
706	-0.841
707	-0.853
707	-0.857
708	-0.853
708	-0.851
709	-0.852
709	-0.849
709	-0.846
710	-0.853
710	-0.856
711	-0.854
711	-0.856
712	-0.846
712	-0.842
713	-0.849
713	-0.849
713	-0.829
714	-0.831
714	-0.834
715	-0.826
715	-0.834
716	-0.85
716	-0.858
716	-0.861
717	-0.866
717	-0.857
718	-0.851
718	-0.853
719	-0.848
719	-0.84
720	-0.836
720	-0.831
720	-0.824
721	-0.817
721	-0.819
722	-0.818
722	-0.814
723	-0.832
723	-0.843
723	-0.852
724	-0.851
724	-0.858
725	-0.852
725	-0.856
726	-0.859
726	-0.85
727	-0.852
727	-0.858
727	-0.848
728	-0.836
728	-0.83
729	-0.832
729	-0.834
730	-0.839
730	-0.831
730	-0.835
731	-0.838
731	-0.84
732	-0.843
732	-0.838
733	-0.855
733	-0.862
734	-0.869
734	-0.86
734	-0.842
735	-0.832
735	-0.828
736	-0.828
736	-0.819
737	-0.819
737	-0.808
737	-0.798
738	-0.785
738	-0.773
739	-0.777
739	-0.778
740	-0.789
740	-0.79
741	-0.8
741	-0.811
741	-0.819
742	-0.827
742	-0.843
743	-0.848
743	-0.851
744	-0.854
744	-0.862
744	-0.857
745	-0.862
745	-0.852
746	-0.848
746	-0.839
747	-0.842
747	-0.834
748	-0.836
748	-0.841
748	-0.842
749	-0.835
749	-0.842
750	-0.833
750	-0.835
751	-0.834
751	-0.832
751	-0.843
752	-0.846
752	-0.849
753	-0.85
753	-0.843
754	-0.864
754	-0.865
754	-0.872
755	-0.871
755	-0.863
756	-0.866
756	-0.853
757	-0.845
757	-0.836
758	-0.836
758	-0.835
758	-0.829
759	-0.834
759	-0.836
760	-0.836
760	-0.839
761	-0.832
761	-0.835
761	-0.836
762	-0.842
762	-0.843
763	-0.844
763	-0.848
764	-0.845
764	-0.842
764	-0.846
765	-0.846
765	-0.852
766	-0.857
766	-0.858
767	-0.872
767	-0.867
768	-0.865
768	-0.858
768	-0.853
769	-0.855
769	-0.864
770	-0.873
770	-0.877
771	-0.872
771	-0.872
771	-0.875
772	-0.88
772	-0.901
773	-0.902
773	-0.902
774	-0.901
774	-0.884
775	-0.87
775	-0.868
775	-0.872
776	-0.882
776	-0.878
777	-0.877
777	-0.858
778	-0.865
778	-0.874
778	-0.872
779	-0.878
779	-0.896
780	-0.893
780	-0.902
781	-0.891
781	-0.882
781	-0.896
782	-0.919
782	-0.921
783	-0.921
783	-0.93
784	-0.936
784	-0.928
784	-0.948
785	-0.942
785	-0.954
786	-0.959
786	-0.952
787	-0.942
787	-0.949
788	-0.94
788	-0.934
788	-0.935
789	-0.937
789	-0.925
790	-0.924
790	-0.908
791	-0.913
791	-0.907
791	-0.9
792	-0.897
792	-0.902
793	-0.905
793	-0.892
794	-0.883
794	-0.879
794	-0.885
795	-0.905
795	-0.893
796	-0.898
796	-0.895
797	-0.886
797	-0.877
797	-0.869
798	-0.89
798	-0.895
799	-0.894
799	-0.878
800	-0.874
800	-0.881
801	-0.879
801	-0.882
801	-0.88
802	-0.879
802	-0.88
803	-0.875
803	-0.867
804	-0.872
804	-0.882
804	-0.866
805	-0.848
805	-0.839
806	-0.84
806	-0.836
807	-0.837
807	-0.837
807	-0.82
808	-0.817
808	-0.811
809	-0.805
809	-0.805
810	-0.807
810	-0.803
810	-0.799
811	-0.803
811	-0.794
812	-0.786
812	-0.787
813	-0.79
813	-0.789
813	-0.784
814	-0.784
814	-0.791
815	-0.782
815	-0.777
816	-0.773
816	-0.791
817	-0.804
817	-0.808
817	-0.816
818	-0.811
818	-0.809
819	-0.821
819	-0.818
820	-0.829
820	-0.83
820	-0.828
821	-0.822
821	-0.816
822	-0.814
822	-0.804
823	-0.816
823	-0.815
823	-0.808
824	-0.806
824	-0.817
825	-0.816
825	-0.814
826	-0.81
826	-0.807
826	-0.808
827	-0.807
827	-0.795
828	-0.795
828	-0.79
829	-0.784
829	-0.769
829	-0.764
830	-0.762
830	-0.749
831	-0.741
831	-0.73
832	-0.721
832	-0.717
832	-0.709
833	-0.708
833	-0.714
834	-0.708
834	-0.703
835	-0.696
835	-0.698
835	-0.693
836	-0.688
836	-0.685
837	-0.674
837	-0.667
838	-0.654
838	-0.637
839	-0.633
839	-0.62
839	-0.61
840	-0.606
840	-0.596
841	-0.587
841	-0.579
842	-0.57
842	-0.559
842	-0.556
843	-0.553
843	-0.548
844	-0.545
844	-0.533
845	-0.519
845	-0.51
845	-0.497
846	-0.485
846	-0.476
847	-0.464
847	-0.451
848	-0.435
848	-0.418
848	-0.404
849	-0.392
849	-0.38
850	-0.369
850	-0.358
851	-0.344
851	-0.326
851	-0.318
852	-0.302
852	-0.289
853	-0.281
853	-0.269
854	-0.258
854	-0.246
854	-0.234
855	-0.223
855	-0.216
856	-0.208
856	-0.198
857	-0.191
857	-0.182
857	-0.168
858	-0.157
858	-0.15
859	-0.139
859	-0.128
860	-0.117
860	-0.101
860	-0.091
861	-0.081
861	-0.07
862	-0.062
862	-0.053
863	-0.044
863	-0.033
863	-0.027
864	-0.02
864	-0.012
865	-0.005
865	0.001
866	0.007
866	0.013
866	0.019
867	0.024
867	0.029
868	0.033
868	0.038
869	0.043
869	0.046
869	0.048
870	0.051
870	0.053
871	0.055
871	0.056
872	0.057
872	0.058
872	0.059
873	0.059
873	0.059
874	0.058
874	0.058
875	0.057
875	0.057
875	0.057
876	0.057
876	0.056
877	0.056
877	0.055
878	0.054
878	0.054
878	0.054
879	0.053
879	0.053
880	0.052
880	0.051
881	0.049
881	0.048
881	0.047
882	0.045
882	0.044
883	0.042
883	0.041
884	0.04
884	0.039
884	0.039
885	0.039
885	0.039
886	0.039
886	0.038
887	0.038
887	0.038
887	0.038
888	0.037
888	0.036
889	0.036
889	0.035
890	0.034
890	0.033
890	0.032
891	0.032
891	0.032
892	0.033
892	0.033
893	0.033
893	0.033
893	0.034
894	0.034
894	0.035
895	0.034
895	0.035
895	0.035
896	0.035
896	0.035
897	0.036
897	0.036
898	0.036
898	0.036
898	0.037
899	0.037
899	0.037
900	0.037
900	0.037
901	0.036
901	0.036
901	0.035
902	0.035
902	0.035
903	0.035
903	0.034
904	0.033
904	0.033
904	0.033
905	0.033
905	0.034
906	0.034
906	0.035
907	0.036
907	0.036
907	0.037
908	0.038
908	0.039
909	0.04
909	0.04
910	0.04
910	0.041
910	0.041
911	0.042
911	0.042
912	0.043
912	0.043
913	0.044
913	0.044
913	0.045
914	0.045
914	0.046
915	0.046
915	0.046
916	0.045
916	0.044
916	0.044
917	0.043
917	0.043
918	0.042
918	0.041
918	0.04
919	0.039
919	0.039
920	0.039
920	0.039
921	0.039
921	0.039
921	0.039
922	0.04
922	0.04
923	0.04
923	0.04
924	0.039
924	0.039
924	0.038
925	0.037
925	0.035
926	0.034
926	0.033
927	0.031
927	0.03
927	0.03
928	0.029
928	0.028
929	0.029
929	0.029
930	0.03
930	0.03
930	0.031
931	0.032
931	0.033
932	0.035
932	0.035
933	0.036
933	0.037
933	0.037
934	0.037
934	0.037
935	0.036
935	0.035
935	0.034
936	0.033
936	0.032
937	0.031
937	0.03
938	0.029
938	0.028
938	0.027
939	0.027
939	0.026
940	0.025
940	0.024
941	0.023
941	0.023
941	0.023
942	0.022
942	0.022
943	0.022
943	0.022
944	0.022
944	0.021
944	0.021
945	0.021
945	0.021
946	0.02
946	0.019
946	0.019
947	0.019
947	0.019
948	0.019
948	0.02
949	0.02
949	0.021
949	0.023
950	0.024
950	0.026
951	0.027
951	0.028
952	0.029
952	0.03
952	0.031
953	0.032
953	0.032
954	0.032
954	0.032
955	0.032
955	0.032
955	0.032
956	0.031
956	0.031
957	0.03
957	0.029
957	0.028
958	0.027
958	0.026
959	0.026
959	0.025
960	0.025
960	0.025
960	0.025
961	0.025
961	0.025
962	0.026
962	0.026
963	0.027
963	0.028
963	0.029
964	0.029
964	0.03
965	0.031
965	0.031
966	0.032
966	0.032
966	0.033
967	0.034
967	0.033
968	0.033
968	0.033
968	0.033
969	0.033
969	0.032
970	0.032
970	0.031
971	0.03
971	0.03
971	0.03
972	0.03
972	0.03
973	0.03
973	0.03
974	0.03
974	0.03
974	0.03
975	0.03
975	0.03
976	0.03
976	0.03
976	0.029
977	0.028
977	0.028
978	0.027
978	0.026
979	0.025
979	0.025
979	0.024
980	0.024
980	0.023
981	0.023
981	0.022
982	0.022
982	0.022
982	0.022
983	0.023
983	0.022
984	0.022
984	0.022
984	0.022
985	0.022
985	0.022
986	0.021
986	0.02
987	0.02
987	0.019
987	0.018
988	0.018
988	0.017
989	0.017
989	0.016
990	0.016
990	0.015
990	0.014
991	0.014
991	0.013
992	0.012
992	0.012
992	0.011
993	0.01
993	0.009
994	0.008
994	0.006
995	0.005
995	0.004
995	0.002
996	0.001
996	0
997	-0.001
997	-0.001
997	-0.002
998	-0.002
998	-0.002
999	-0.002
999	-0.001
1000	-0.001
1000	-0
1000	0
1001	0.001
1001	0.002
1002	0.002
1002	0.003
1003	0.004
1003	0.004
1003	0.004
1004	0.004
1004	0.004
1005	0.004
1005	0.004
1005	0.003
1006	0.003
1006	0.002
1007	0.001
1007	0
1008	-0.001
1008	-0.002
1008	-0.002
1009	-0.002
1009	-0.002
1010	-0.002
1010	-0.002
1010	-0.002
1011	-0.001
1011	-0
1012	0.001
1012	0.002
1013	0.003
1013	0.004
1013	0.005
1014	0.005
1014	0.006
1015	0.007
1015	0.007
1016	0.008
1016	0.008
1016	0.008
1017	0.008
1017	0.008
1018	0.008
1018	0.008
1018	0.008
1019	0.007
1019	0.007
1020	0.007
1020	0.006
1021	0.006
1021	0.005
1021	0.005
1022	0.005
1022	0.005
1023	0.005
1023	0.004
1023	0.004
1024	0.004
1024	0.004
1025	0.004
1025	0.004
1026	0.004
1026	0.004
1026	0.004
1027	0.004
1027	0.004
1028	0.004
1028	0.005
1028	0.005
1029	0.005
1029	0.005
1030	0.005
1030	0.005
1031	0.005
1031	0.005
1031	0.006
1032	0.006
1032	0.006
1033	0.005
1033	0.005
1033	0.004
1034	0.004
1034	0.003
1035	0.003
1035	0.002
1036	0
1036	-0
1036	-0.001
1037	-0.001
1037	-0.002
1038	-0.002
1038	-0.003
1039	-0.003
1039	-0.002
1039	-0.002
1040	-0.002
1040	-0.001
1041	-0.002
1041	-0.002
1041	-0.002
1042	-0.002
1042	-0.003
1043	-0.003
1043	-0.004
1044	-0.004
1044	-0.005
1044	-0.005
1045	-0.005
1045	-0.006
1046	-0.006
1046	-0.007
1046	-0.007
1047	-0.007
1047	-0.007
1048	-0.007
1048	-0.007
1049	-0.007
1049	-0.008
1049	-0.008
1050	-0.009
1050	-0.01
1051	-0.011
1051	-0.012
1051	-0.013
1052	-0.014
1052	-0.015
1053	-0.016
1053	-0.016
1053	-0.016
1054	-0.017
1054	-0.017
1055	-0.017
1055	-0.016
1056	-0.016
1056	-0.016
1056	-0.016
1057	-0.016
1057	-0.016
1058	-0.016
1058	-0.016
1058	-0.016
1059	-0.016
1059	-0.017
1060	-0.017
1060	-0.017
1061	-0.017
1061	-0.017
1061	-0.017
1062	-0.018
1062	-0.018
1063	-0.018
1063	-0.018
1063	-0.018
1064	-0.018
1064	-0.018
1065	-0.018
1065	-0.019
1066	-0.019
1066	-0.019
1066	-0.02
1067	-0.02
1067	-0.021
1068	-0.022
1068	-0.023
1068	-0.024
1069	-0.025
1069	-0.026
1070	-0.027
1070	-0.027
1071	-0.028
1071	-0.028
1071	-0.029
1072	-0.029
1072	-0.029
1073	-0.029
1073	-0.029
1073	-0.029
1074	-0.029
1074	-0.029
1075	-0.03
1075	-0.03
1076	-0.031
1076	-0.031
1076	-0.032
1077	-0.032
1077	-0.033
1078	-0.034
1078	-0.035
1078	-0.035
1079	-0.036
1079	-0.036
1080	-0.037
1080	-0.038
1080	-0.039
1081	-0.04
1081	-0.041
1082	-0.042
1082	-0.043
1083	-0.045
1083	-0.046
1083	-0.048
1084	-0.049
1084	-0.05
1085	-0.052
1085	-0.053
1085	-0.054
1086	-0.055
1086	-0.056
1087	-0.057
1087	-0.058
1088	-0.058
1088	-0.059
1088	-0.059
1089	-0.06
1089	-0.061
1090	-0.061
1090	-0.061
1090	-0.062
1091	-0.063
1091	-0.063
1092	-0.063
1092	-0.063
1092	-0.064
1093	-0.065
1093	-0.065
1094	-0.066
1094	-0.067
1095	-0.069
1095	-0.069
1095	-0.07
1096	-0.071
1096	-0.073
1097	-0.075
1097	-0.077
1097	-0.079
1098	-0.08
1098	-0.083
1099	-0.084
1099	-0.085
1100	-0.088
1100	-0.09
1100	-0.093
1101	-0.096
1101	-0.098
1102	-0.101
1102	-0.104
1102	-0.105
1103	-0.107
1103	-0.11
1104	-0.114
1104	-0.117
1104	-0.119
1105	-0.121
1105	-0.123
1106	-0.128
1106	-0.129
1107	-0.135
1107	-0.14
1107	-0.145
1108	-0.147
1108	-0.149
1109	-0.153
1109	-0.156
1109	-0.161
1110	-0.163
1110	-0.167
1111	-0.177
1111	-0.171
