Data from 3.3A_17C_Absorbance__15__02882.txt Node

Date: Tue Jun 20 17:12:19 CEST 2023
User: Marek
Spectrometer: MAYP115816
Trigger mode: 0
Integration Time (sec): 2.200000E-1
Scans to average: 10
Electric dark correction enabled: true
Nonlinearity correction enabled: true
Boxcar width: 5
XAxis mode: Wavelengths
Number of Pixels in Spectrum: 2068
>>>>>Begin Spectral Data<<<<<
199	-0.815
199	-0.801
200	-0.766
200	-0.711
201	-0.681
201	-0.672
202	-0.657
202	-0.65
203	-0.648
203	-0.642
204	-0.622
204	-0.606
205	-0.581
205	-0.573
205	-0.582
206	-0.584
206	-0.581
207	-0.572
207	-0.578
208	-0.579
208	-0.584
209	-0.584
209	-0.59
210	-0.603
210	-0.607
211	-0.601
211	-0.604
212	-0.613
212	-0.622
213	-0.618
213	-0.614
213	-0.611
214	-0.618
214	-0.619
215	-0.617
215	-0.624
216	-0.631
216	-0.637
217	-0.634
217	-0.633
218	-0.641
218	-0.644
219	-0.649
219	-0.651
220	-0.656
220	-0.663
221	-0.663
221	-0.665
221	-0.657
222	-0.656
222	-0.656
223	-0.651
223	-0.654
224	-0.654
224	-0.652
225	-0.649
225	-0.651
226	-0.65
226	-0.65
227	-0.658
227	-0.669
228	-0.673
228	-0.682
229	-0.686
229	-0.685
229	-0.685
230	-0.68
230	-0.678
231	-0.674
231	-0.668
232	-0.671
232	-0.664
233	-0.663
233	-0.651
234	-0.651
234	-0.647
235	-0.652
235	-0.664
236	-0.67
236	-0.671
236	-0.672
237	-0.67
237	-0.671
238	-0.671
238	-0.674
239	-0.675
239	-0.685
240	-0.678
240	-0.674
241	-0.669
241	-0.673
242	-0.674
242	-0.683
243	-0.683
243	-0.686
243	-0.691
244	-0.688
244	-0.689
245	-0.693
245	-0.697
246	-0.708
246	-0.711
247	-0.72
247	-0.706
248	-0.706
248	-0.709
249	-0.713
249	-0.713
250	-0.711
250	-0.717
250	-0.713
251	-0.712
251	-0.71
252	-0.709
252	-0.723
253	-0.72
253	-0.731
254	-0.737
254	-0.739
255	-0.749
255	-0.749
256	-0.751
256	-0.765
257	-0.772
257	-0.771
258	-0.771
258	-0.779
258	-0.776
259	-0.768
259	-0.786
260	-0.785
260	-0.773
261	-0.785
261	-0.77
262	-0.777
262	-0.773
263	-0.764
263	-0.768
264	-0.778
264	-0.78
265	-0.771
265	-0.773
265	-0.782
266	-0.772
266	-0.772
267	-0.77
267	-0.789
268	-0.798
268	-0.791
269	-0.783
269	-0.798
270	-0.802
270	-0.801
271	-0.816
271	-0.826
272	-0.827
272	-0.832
272	-0.823
273	-0.83
273	-0.845
274	-0.836
274	-0.829
275	-0.826
275	-0.812
276	-0.817
276	-0.823
277	-0.827
277	-0.823
278	-0.827
278	-0.828
278	-0.818
279	-0.827
279	-0.841
280	-0.844
280	-0.855
281	-0.847
281	-0.838
282	-0.844
282	-0.838
283	-0.833
283	-0.847
284	-0.86
284	-0.87
285	-0.85
285	-0.857
285	-0.85
286	-0.856
286	-0.874
287	-0.871
287	-0.87
288	-0.868
288	-0.85
289	-0.848
289	-0.856
290	-0.864
290	-0.853
291	-0.857
291	-0.853
292	-0.832
292	-0.829
292	-0.833
293	-0.82
293	-0.817
294	-0.815
294	-0.802
295	-0.786
295	-0.797
296	-0.809
296	-0.804
297	-0.794
297	-0.798
298	-0.794
298	-0.81
298	-0.814
299	-0.797
299	-0.79
300	-0.786
300	-0.768
301	-0.749
301	-0.751
302	-0.76
302	-0.746
303	-0.738
303	-0.728
304	-0.712
304	-0.714
305	-0.707
305	-0.714
305	-0.729
306	-0.712
306	-0.711
307	-0.703
307	-0.716
308	-0.719
308	-0.713
309	-0.715
309	-0.711
310	-0.708
310	-0.703
311	-0.689
311	-0.709
311	-0.696
312	-0.693
312	-0.681
313	-0.671
313	-0.673
314	-0.677
314	-0.675
315	-0.67
315	-0.664
316	-0.657
316	-0.648
317	-0.639
317	-0.635
318	-0.626
318	-0.624
318	-0.613
319	-0.603
319	-0.595
320	-0.594
320	-0.591
321	-0.588
321	-0.587
322	-0.582
322	-0.574
323	-0.575
323	-0.565
324	-0.563
324	-0.551
324	-0.538
325	-0.523
325	-0.507
326	-0.497
326	-0.471
327	-0.455
327	-0.432
328	-0.399
328	-0.376
329	-0.348
329	-0.32
330	-0.291
330	-0.254
330	-0.216
331	-0.177
331	-0.141
332	-0.102
332	-0.066
333	-0.033
333	0.005
334	0.038
334	0.068
335	0.098
335	0.124
336	0.15
336	0.174
336	0.194
337	0.215
337	0.235
338	0.252
338	0.264
339	0.281
339	0.294
340	0.304
340	0.314
341	0.323
341	0.332
342	0.34
342	0.347
342	0.353
343	0.358
343	0.365
344	0.368
344	0.372
345	0.376
345	0.38
346	0.382
346	0.385
347	0.387
347	0.388
348	0.39
348	0.392
348	0.393
349	0.394
349	0.395
350	0.396
350	0.397
351	0.398
351	0.398
352	0.398
352	0.399
353	0.399
353	0.399
354	0.4
354	0.4
354	0.4
355	0.4
355	0.399
356	0.4
356	0.399
357	0.399
357	0.4
358	0.399
358	0.399
359	0.399
359	0.399
360	0.399
360	0.4
360	0.4
361	0.4
361	0.399
362	0.4
362	0.399
363	0.4
363	0.399
364	0.399
364	0.399
365	0.399
365	0.399
366	0.399
366	0.398
366	0.399
367	0.398
367	0.398
368	0.398
368	0.397
369	0.397
369	0.396
370	0.396
370	0.396
371	0.395
371	0.395
372	0.394
372	0.394
372	0.394
373	0.393
373	0.392
374	0.392
374	0.392
375	0.392
375	0.391
376	0.391
376	0.391
377	0.39
377	0.389
378	0.389
378	0.389
378	0.388
379	0.388
379	0.387
380	0.387
380	0.387
381	0.387
381	0.386
382	0.386
382	0.385
383	0.385
383	0.385
383	0.384
384	0.384
384	0.383
385	0.382
385	0.382
386	0.382
386	0.382
387	0.381
387	0.381
388	0.38
388	0.38
389	0.38
389	0.379
389	0.379
390	0.379
390	0.378
391	0.378
391	0.377
392	0.377
392	0.377
393	0.376
393	0.376
394	0.375
394	0.375
394	0.374
395	0.374
395	0.373
396	0.372
396	0.372
397	0.371
397	0.371
398	0.37
398	0.37
399	0.37
399	0.369
400	0.369
400	0.368
400	0.368
401	0.368
401	0.367
402	0.367
402	0.366
403	0.366
403	0.366
404	0.365
404	0.365
405	0.364
405	0.364
405	0.364
406	0.363
406	0.363
407	0.363
407	0.363
408	0.362
408	0.362
409	0.361
409	0.361
410	0.361
410	0.361
411	0.361
411	0.36
411	0.36
412	0.359
412	0.359
413	0.358
413	0.358
414	0.358
414	0.357
415	0.357
415	0.356
416	0.356
416	0.355
416	0.355
417	0.355
417	0.355
418	0.355
418	0.354
419	0.354
419	0.354
420	0.354
420	0.354
421	0.354
421	0.354
421	0.354
422	0.354
422	0.354
423	0.353
423	0.353
424	0.353
424	0.353
425	0.353
425	0.353
426	0.352
426	0.352
427	0.352
427	0.352
427	0.352
428	0.352
428	0.352
429	0.352
429	0.351
430	0.351
430	0.35
431	0.35
431	0.35
432	0.349
432	0.349
432	0.349
433	0.348
433	0.348
434	0.348
434	0.349
435	0.349
435	0.349
436	0.349
436	0.349
437	0.349
437	0.348
437	0.348
438	0.348
438	0.348
439	0.348
439	0.348
440	0.348
440	0.348
441	0.348
441	0.348
442	0.348
442	0.348
442	0.348
443	0.348
443	0.348
444	0.348
444	0.348
445	0.348
445	0.349
446	0.348
446	0.349
447	0.349
447	0.349
447	0.349
448	0.349
448	0.35
449	0.35
449	0.35
450	0.35
450	0.35
451	0.351
451	0.351
452	0.351
452	0.351
452	0.351
453	0.351
453	0.351
454	0.351
454	0.351
455	0.351
455	0.351
456	0.351
456	0.351
457	0.351
457	0.352
458	0.352
458	0.352
458	0.352
459	0.353
459	0.353
460	0.352
460	0.353
461	0.353
461	0.354
462	0.355
462	0.356
463	0.356
463	0.358
463	0.358
464	0.359
464	0.36
465	0.36
465	0.361
466	0.362
466	0.362
467	0.363
467	0.363
467	0.363
468	0.363
468	0.364
469	0.364
469	0.365
470	0.366
470	0.367
471	0.368
471	0.368
472	0.369
472	0.37
472	0.371
473	0.372
473	0.373
474	0.374
474	0.375
475	0.376
475	0.378
476	0.379
476	0.38
477	0.381
477	0.382
477	0.383
478	0.384
478	0.386
479	0.387
479	0.389
480	0.39
480	0.391
481	0.393
481	0.394
482	0.396
482	0.397
482	0.4
483	0.402
483	0.405
484	0.406
484	0.408
485	0.41
485	0.412
486	0.413
486	0.415
487	0.417
487	0.419
487	0.421
488	0.422
488	0.423
489	0.426
489	0.428
490	0.431
490	0.434
491	0.436
491	0.439
492	0.441
492	0.443
492	0.446
493	0.448
493	0.451
494	0.455
494	0.458
495	0.46
495	0.463
496	0.466
496	0.469
496	0.472
497	0.476
497	0.479
498	0.482
498	0.485
499	0.488
499	0.492
500	0.496
500	0.5
501	0.503
501	0.507
501	0.51
502	0.513
502	0.516
503	0.52
503	0.523
504	0.526
504	0.53
505	0.533
505	0.537
506	0.541
506	0.545
506	0.549
507	0.553
507	0.558
508	0.562
508	0.566
509	0.571
509	0.574
510	0.579
510	0.582
511	0.586
511	0.589
511	0.592
512	0.596
512	0.598
513	0.601
513	0.604
514	0.607
514	0.611
515	0.613
515	0.615
515	0.618
516	0.621
516	0.624
517	0.627
517	0.629
518	0.632
518	0.633
519	0.635
519	0.637
520	0.639
520	0.642
520	0.644
521	0.645
521	0.647
522	0.648
522	0.65
523	0.652
523	0.654
524	0.655
524	0.656
524	0.656
525	0.657
525	0.658
526	0.658
526	0.659
527	0.66
527	0.659
528	0.659
528	0.658
529	0.657
529	0.657
529	0.656
530	0.655
530	0.654
531	0.653
531	0.652
532	0.65
532	0.648
533	0.647
533	0.646
533	0.644
534	0.642
534	0.64
535	0.637
535	0.636
536	0.633
536	0.63
537	0.628
537	0.625
538	0.621
538	0.618
538	0.614
539	0.611
539	0.608
540	0.604
540	0.6
541	0.596
541	0.592
542	0.588
542	0.584
542	0.579
543	0.575
543	0.57
544	0.566
544	0.561
545	0.557
545	0.552
546	0.548
546	0.543
547	0.538
547	0.532
547	0.527
548	0.523
548	0.518
549	0.513
549	0.508
550	0.504
550	0.498
551	0.492
551	0.486
551	0.481
552	0.476
552	0.471
553	0.466
553	0.461
554	0.455
554	0.45
555	0.444
555	0.439
556	0.434
556	0.428
556	0.423
557	0.418
557	0.413
558	0.408
558	0.402
559	0.397
559	0.392
560	0.386
560	0.381
560	0.377
561	0.373
561	0.369
562	0.364
562	0.36
563	0.355
563	0.351
564	0.347
564	0.343
564	0.339
565	0.335
565	0.331
566	0.327
566	0.323
567	0.319
567	0.315
568	0.311
568	0.306
568	0.302
569	0.298
569	0.294
570	0.289
570	0.284
571	0.281
571	0.277
572	0.273
572	0.269
573	0.264
573	0.26
573	0.256
574	0.253
574	0.25
575	0.247
575	0.245
576	0.242
576	0.238
577	0.234
577	0.231
577	0.229
578	0.227
578	0.226
579	0.224
579	0.222
580	0.217
580	0.212
581	0.208
581	0.205
581	0.203
582	0.202
582	0.2
583	0.198
583	0.195
584	0.191
584	0.187
585	0.186
585	0.184
585	0.183
586	0.181
586	0.178
587	0.175
587	0.172
588	0.169
588	0.167
589	0.165
589	0.164
590	0.162
590	0.159
590	0.159
591	0.157
591	0.155
592	0.152
592	0.15
593	0.149
593	0.147
594	0.145
594	0.143
594	0.142
595	0.14
595	0.138
596	0.136
596	0.135
597	0.136
597	0.134
598	0.132
598	0.131
598	0.13
599	0.129
599	0.127
600	0.126
600	0.125
601	0.124
601	0.123
602	0.121
602	0.12
602	0.118
603	0.118
603	0.118
604	0.117
604	0.116
605	0.116
605	0.115
606	0.114
606	0.112
606	0.11
607	0.109
607	0.108
608	0.107
608	0.105
609	0.103
609	0.103
610	0.101
610	0.099
610	0.099
611	0.099
611	0.098
612	0.098
612	0.098
613	0.097
613	0.096
614	0.094
614	0.093
614	0.092
615	0.09
615	0.089
616	0.088
616	0.087
617	0.086
617	0.084
618	0.083
618	0.083
618	0.082
619	0.081
619	0.081
620	0.081
620	0.08
621	0.079
621	0.078
622	0.076
622	0.075
622	0.074
623	0.073
623	0.073
624	0.073
624	0.072
625	0.071
625	0.071
626	0.071
626	0.07
626	0.07
627	0.07
627	0.07
628	0.07
628	0.07
629	0.069
629	0.068
630	0.067
630	0.066
630	0.066
631	0.066
631	0.065
632	0.064
632	0.063
633	0.062
633	0.061
634	0.061
634	0.06
634	0.06
635	0.059
635	0.059
636	0.058
636	0.057
637	0.056
637	0.055
638	0.055
638	0.054
638	0.053
639	0.052
639	0.051
640	0.05
640	0.049
641	0.048
641	0.047
642	0.046
642	0.045
642	0.043
643	0.042
643	0.04
644	0.039
644	0.037
645	0.036
645	0.034
646	0.032
646	0.03
646	0.027
647	0.024
647	0.021
648	0.017
648	0.013
649	0.01
649	0.007
650	0.004
650	0
650	-0.005
651	-0.01
651	-0.017
652	-0.024
652	-0.032
653	-0.038
653	-0.045
653	-0.042
654	-0.035
654	-0.04
655	-0.046
655	-0.051
656	-0.056
656	-0.062
657	-0.067
657	-0.071
657	-0.077
658	-0.083
658	-0.106
659	-0.162
659	-0.213
660	-0.239
660	-0.259
661	-0.278
661	-0.299
661	-0.319
662	-0.337
662	-0.354
663	-0.373
663	-0.395
664	-0.414
664	-0.436
665	-0.458
665	-0.478
665	-0.497
666	-0.518
666	-0.542
667	-0.564
667	-0.592
668	-0.619
668	-0.658
669	-0.695
669	-0.737
669	-0.797
670	-0.911
670	-1.149
671	-1.501
671	-1.845
672	-2.153
672	-2.366
672	-2.466
673	-2.495
673	-2.506
674	-2.522
674	-2.53
675	-2.543
675	-2.54
676	-2.519
676	-2.452
676	-2.298
677	-1.978
677	-1.48
678	-1.084
678	-0.953
679	-0.903
679	-0.872
680	-0.851
680	-0.838
680	-0.826
681	-0.829
681	-0.817
682	-0.815
682	-0.802
683	-0.787
683	-0.791
684	-0.788
684	-0.79
684	-0.789
685	-0.786
685	-0.793
686	-0.783
686	-0.783
687	-0.783
687	-0.784
687	-0.794
688	-0.787
688	-0.79
689	-0.8
689	-0.802
690	-0.796
690	-0.793
691	-0.795
691	-0.803
691	-0.809
692	-0.813
692	-0.814
693	-0.824
693	-0.838
694	-0.822
694	-0.825
695	-0.832
695	-0.825
695	-0.836
696	-0.846
696	-0.84
697	-0.837
697	-0.836
698	-0.833
698	-0.827
698	-0.843
699	-0.841
699	-0.842
700	-0.865
700	-0.861
701	-0.848
701	-0.844
702	-0.844
702	-0.844
702	-0.846
703	-0.837
703	-0.827
704	-0.837
704	-0.842
705	-0.833
705	-0.832
705	-0.829
706	-0.824
706	-0.822
707	-0.834
707	-0.837
708	-0.837
708	-0.834
709	-0.836
709	-0.832
709	-0.828
710	-0.837
710	-0.839
711	-0.839
711	-0.84
712	-0.83
712	-0.828
713	-0.834
713	-0.837
713	-0.817
714	-0.819
714	-0.823
715	-0.815
715	-0.823
716	-0.839
716	-0.848
716	-0.851
717	-0.856
717	-0.848
718	-0.841
718	-0.842
719	-0.838
719	-0.83
720	-0.825
720	-0.822
720	-0.816
721	-0.808
721	-0.811
722	-0.81
722	-0.806
723	-0.825
723	-0.838
723	-0.847
724	-0.846
724	-0.85
725	-0.843
725	-0.848
726	-0.852
726	-0.842
727	-0.844
727	-0.852
727	-0.843
728	-0.83
728	-0.827
729	-0.829
729	-0.832
730	-0.838
730	-0.829
730	-0.833
731	-0.837
731	-0.837
732	-0.84
732	-0.837
733	-0.853
733	-0.86
734	-0.87
734	-0.862
734	-0.844
735	-0.835
735	-0.832
736	-0.83
736	-0.824
737	-0.823
737	-0.811
737	-0.803
738	-0.79
738	-0.777
739	-0.782
739	-0.784
740	-0.798
740	-0.798
741	-0.809
741	-0.82
741	-0.83
742	-0.837
742	-0.853
743	-0.859
743	-0.863
744	-0.866
744	-0.875
744	-0.868
745	-0.877
745	-0.866
746	-0.86
746	-0.852
747	-0.854
747	-0.844
748	-0.848
748	-0.852
748	-0.853
749	-0.845
749	-0.852
750	-0.842
750	-0.842
751	-0.841
751	-0.838
751	-0.851
752	-0.854
752	-0.856
753	-0.857
753	-0.85
754	-0.869
754	-0.87
754	-0.879
755	-0.88
755	-0.873
756	-0.875
756	-0.86
757	-0.853
757	-0.842
758	-0.842
758	-0.841
758	-0.836
759	-0.839
759	-0.839
760	-0.836
760	-0.839
761	-0.835
761	-0.839
761	-0.84
762	-0.845
762	-0.844
763	-0.843
763	-0.847
764	-0.848
764	-0.843
764	-0.848
765	-0.846
765	-0.85
766	-0.854
766	-0.856
767	-0.871
767	-0.867
768	-0.866
768	-0.858
768	-0.852
769	-0.857
769	-0.865
770	-0.876
770	-0.882
771	-0.878
771	-0.877
771	-0.882
772	-0.888
772	-0.908
773	-0.91
773	-0.911
774	-0.91
774	-0.893
775	-0.88
775	-0.879
775	-0.881
776	-0.891
776	-0.887
777	-0.885
777	-0.869
778	-0.878
778	-0.884
778	-0.883
779	-0.891
779	-0.907
780	-0.904
780	-0.913
781	-0.903
781	-0.892
781	-0.906
782	-0.927
782	-0.927
783	-0.927
783	-0.936
784	-0.939
784	-0.932
784	-0.951
785	-0.944
785	-0.957
786	-0.963
786	-0.958
787	-0.946
787	-0.957
788	-0.95
788	-0.942
788	-0.946
789	-0.946
789	-0.935
790	-0.935
790	-0.919
791	-0.926
791	-0.918
791	-0.914
792	-0.907
792	-0.912
793	-0.916
793	-0.903
794	-0.895
794	-0.89
794	-0.898
795	-0.919
795	-0.905
796	-0.913
796	-0.909
797	-0.902
797	-0.894
797	-0.887
798	-0.907
798	-0.912
799	-0.912
799	-0.896
800	-0.889
800	-0.899
801	-0.897
801	-0.9
801	-0.898
802	-0.895
802	-0.895
803	-0.89
803	-0.884
804	-0.89
804	-0.897
804	-0.881
805	-0.861
805	-0.852
806	-0.852
806	-0.848
807	-0.85
807	-0.848
807	-0.83
808	-0.827
808	-0.818
809	-0.815
809	-0.817
810	-0.821
810	-0.818
810	-0.814
811	-0.817
811	-0.808
812	-0.804
812	-0.806
813	-0.808
813	-0.81
813	-0.805
814	-0.804
814	-0.808
815	-0.799
815	-0.796
816	-0.792
816	-0.809
817	-0.821
817	-0.825
817	-0.836
818	-0.829
818	-0.826
819	-0.837
819	-0.835
820	-0.844
820	-0.844
820	-0.844
821	-0.839
821	-0.834
822	-0.833
822	-0.822
823	-0.834
823	-0.834
823	-0.827
824	-0.826
824	-0.837
825	-0.834
825	-0.831
826	-0.828
826	-0.825
826	-0.825
827	-0.826
827	-0.815
828	-0.814
828	-0.809
829	-0.802
829	-0.787
829	-0.785
830	-0.783
830	-0.769
831	-0.762
831	-0.752
832	-0.741
832	-0.737
832	-0.73
833	-0.729
833	-0.736
834	-0.731
834	-0.726
835	-0.717
835	-0.716
835	-0.71
836	-0.704
836	-0.7
837	-0.689
837	-0.681
838	-0.668
838	-0.65
839	-0.645
839	-0.633
839	-0.626
840	-0.624
840	-0.615
841	-0.605
841	-0.599
842	-0.591
842	-0.579
842	-0.576
843	-0.573
843	-0.568
844	-0.563
844	-0.55
845	-0.535
845	-0.526
845	-0.515
846	-0.503
846	-0.492
847	-0.482
847	-0.471
848	-0.457
848	-0.44
848	-0.428
849	-0.416
849	-0.404
850	-0.394
850	-0.384
851	-0.37
851	-0.354
851	-0.346
852	-0.329
852	-0.317
853	-0.307
853	-0.298
854	-0.288
854	-0.278
854	-0.265
855	-0.253
855	-0.246
856	-0.239
856	-0.229
857	-0.222
857	-0.214
857	-0.202
858	-0.191
858	-0.184
859	-0.173
859	-0.162
860	-0.153
860	-0.139
860	-0.13
861	-0.12
861	-0.11
862	-0.102
862	-0.094
863	-0.086
863	-0.077
863	-0.071
864	-0.065
864	-0.058
865	-0.051
865	-0.045
866	-0.04
866	-0.035
866	-0.029
867	-0.023
867	-0.018
868	-0.014
868	-0.009
869	-0.005
869	-0.001
869	0.001
870	0.003
870	0.005
871	0.007
871	0.009
872	0.01
872	0.011
872	0.011
873	0.011
873	0.011
874	0.01
874	0.01
875	0.01
875	0.009
875	0.009
876	0.009
876	0.009
877	0.008
877	0.008
878	0.007
878	0.007
878	0.007
879	0.007
879	0.007
880	0.007
880	0.006
881	0.005
881	0.005
881	0.004
882	0.003
882	0.002
883	0.001
883	0
884	-0.001
884	-0.001
884	-0.001
885	-0.001
885	-0.001
886	-0.002
886	-0.002
887	-0.003
887	-0.004
887	-0.005
888	-0.005
888	-0.006
889	-0.008
889	-0.009
890	-0.01
890	-0.011
890	-0.011
891	-0.01
891	-0.01
892	-0.009
892	-0.009
893	-0.009
893	-0.008
893	-0.008
894	-0.007
894	-0.007
895	-0.007
895	-0.007
895	-0.007
896	-0.007
896	-0.007
897	-0.007
897	-0.007
898	-0.007
898	-0.006
898	-0.006
899	-0.005
899	-0.005
900	-0.005
900	-0.005
901	-0.005
901	-0.005
901	-0.006
902	-0.006
902	-0.006
903	-0.007
903	-0.007
904	-0.008
904	-0.008
904	-0.008
905	-0.008
905	-0.008
906	-0.008
906	-0.007
907	-0.007
907	-0.007
907	-0.007
908	-0.007
908	-0.006
909	-0.006
909	-0.005
910	-0.005
910	-0.004
910	-0.003
911	-0.002
911	-0.001
912	-0
912	0.001
913	0.002
913	0.002
913	0.003
914	0.004
914	0.004
915	0.004
915	0.004
916	0.003
916	0.003
916	0.003
917	0.002
917	0.002
918	0.002
918	0.001
918	0.001
919	0
919	0
920	0.001
920	0.001
921	0.002
921	0.002
921	0.003
922	0.003
922	0.004
923	0.004
923	0.004
924	0.004
924	0.003
924	0.003
925	0.001
925	0
926	-0.001
926	-0.002
927	-0.003
927	-0.004
927	-0.005
928	-0.005
928	-0.005
929	-0.005
929	-0.004
930	-0.003
930	-0.003
930	-0.001
931	-0
931	0.001
932	0.002
932	0.003
933	0.004
933	0.005
933	0.005
934	0.004
934	0.004
935	0.004
935	0.003
935	0.002
936	0.001
936	0
937	-0.001
937	-0.001
938	-0.001
938	-0.002
938	-0.002
939	-0.003
939	-0.003
940	-0.003
940	-0.004
941	-0.004
941	-0.005
941	-0.004
942	-0.005
942	-0.005
943	-0.005
943	-0.006
944	-0.006
944	-0.007
944	-0.007
945	-0.007
945	-0.007
946	-0.009
946	-0.01
946	-0.01
947	-0.01
947	-0.01
948	-0.01
948	-0.01
949	-0.009
949	-0.008
949	-0.007
950	-0.006
950	-0.004
951	-0.003
951	-0.002
952	-0.001
952	0.001
952	0.002
953	0.002
953	0.003
954	0.003
954	0.003
955	0.003
955	0.002
955	0.002
956	0.001
956	0.001
957	-0.001
957	-0.002
957	-0.003
958	-0.004
958	-0.004
959	-0.005
959	-0.005
960	-0.006
960	-0.006
960	-0.005
961	-0.005
961	-0.004
962	-0.003
962	-0.003
963	-0.002
963	-0.002
963	-0.001
964	-0.001
964	-0.001
965	-0
965	0
966	-0
966	0
966	0.001
967	0.001
967	0.001
968	0.001
968	0.001
968	0.001
969	0.001
969	0.001
970	0
970	-0
971	-0.001
971	-0.001
971	-0.001
972	-0.001
972	-0.001
973	-0.001
973	-0.001
974	-0.001
974	-0.001
974	-0.001
975	-0.001
975	-0.001
976	-0.001
976	-0.001
976	-0.001
977	-0.002
977	-0.002
978	-0.002
978	-0.003
979	-0.003
979	-0.003
979	-0.003
980	-0.003
980	-0.003
981	-0.003
981	-0.003
982	-0.003
982	-0.003
982	-0.003
983	-0.003
983	-0.003
984	-0.003
984	-0.003
984	-0.003
985	-0.004
985	-0.004
986	-0.005
986	-0.006
987	-0.007
987	-0.008
987	-0.009
988	-0.01
988	-0.012
989	-0.013
989	-0.014
990	-0.016
990	-0.017
990	-0.018
991	-0.019
991	-0.02
992	-0.021
992	-0.022
992	-0.023
993	-0.023
993	-0.024
994	-0.025
994	-0.026
995	-0.027
995	-0.028
995	-0.029
996	-0.03
996	-0.032
997	-0.033
997	-0.034
997	-0.034
998	-0.034
998	-0.034
999	-0.034
999	-0.034
1000	-0.034
1000	-0.033
1000	-0.032
1001	-0.031
1001	-0.03
1002	-0.029
1002	-0.028
1003	-0.027
1003	-0.027
1003	-0.026
1004	-0.026
1004	-0.026
1005	-0.025
1005	-0.026
1005	-0.026
1006	-0.026
1006	-0.027
1007	-0.027
1007	-0.028
1008	-0.029
1008	-0.03
1008	-0.03
1009	-0.03
1009	-0.03
1010	-0.029
1010	-0.029
1010	-0.029
1011	-0.029
1011	-0.029
1012	-0.028
1012	-0.027
1013	-0.026
1013	-0.026
1013	-0.025
1014	-0.025
1014	-0.025
1015	-0.025
1015	-0.025
1016	-0.025
1016	-0.025
1016	-0.025
1017	-0.026
1017	-0.026
1018	-0.026
1018	-0.027
1018	-0.027
1019	-0.027
1019	-0.027
1020	-0.028
1020	-0.028
1021	-0.028
1021	-0.028
1021	-0.029
1022	-0.029
1022	-0.029
1023	-0.029
1023	-0.029
1023	-0.029
1024	-0.029
1024	-0.029
1025	-0.029
1025	-0.029
1026	-0.029
1026	-0.029
1026	-0.029
1027	-0.029
1027	-0.029
1028	-0.028
1028	-0.027
1028	-0.027
1029	-0.027
1029	-0.027
1030	-0.027
1030	-0.027
1031	-0.027
1031	-0.026
1031	-0.026
1032	-0.026
1032	-0.027
1033	-0.027
1033	-0.028
1033	-0.028
1034	-0.028
1034	-0.029
1035	-0.029
1035	-0.03
1036	-0.031
1036	-0.031
1036	-0.031
1037	-0.032
1037	-0.031
1038	-0.032
1038	-0.032
1039	-0.032
1039	-0.031
1039	-0.031
1040	-0.031
1040	-0.03
1041	-0.03
1041	-0.03
1041	-0.03
1042	-0.031
1042	-0.031
1043	-0.032
1043	-0.033
1044	-0.033
1044	-0.034
1044	-0.034
1045	-0.035
1045	-0.035
1046	-0.035
1046	-0.036
1046	-0.035
1047	-0.035
1047	-0.035
1048	-0.034
1048	-0.034
1049	-0.034
1049	-0.034
1049	-0.034
1050	-0.035
1050	-0.035
1051	-0.036
1051	-0.037
1051	-0.037
1052	-0.038
1052	-0.039
1053	-0.039
1053	-0.04
1053	-0.04
1054	-0.041
1054	-0.041
1055	-0.04
1055	-0.04
1056	-0.04
1056	-0.04
1056	-0.04
1057	-0.04
1057	-0.04
1058	-0.04
1058	-0.04
1058	-0.04
1059	-0.04
1059	-0.04
1060	-0.041
1060	-0.041
1061	-0.041
1061	-0.041
1061	-0.041
1062	-0.042
1062	-0.042
1063	-0.042
1063	-0.042
1063	-0.042
1064	-0.042
1064	-0.042
1065	-0.042
1065	-0.042
1066	-0.042
1066	-0.042
1066	-0.042
1067	-0.043
1067	-0.043
1068	-0.044
1068	-0.045
1068	-0.046
1069	-0.047
1069	-0.048
1070	-0.049
1070	-0.05
1071	-0.051
1071	-0.051
1071	-0.052
1072	-0.052
1072	-0.052
1073	-0.052
1073	-0.052
1073	-0.052
1074	-0.052
1074	-0.052
1075	-0.053
1075	-0.053
1076	-0.054
1076	-0.054
1076	-0.055
1077	-0.056
1077	-0.057
1078	-0.057
1078	-0.057
1078	-0.058
1079	-0.059
1079	-0.059
1080	-0.06
1080	-0.06
1080	-0.062
1081	-0.062
1081	-0.063
1082	-0.063
1082	-0.065
1083	-0.066
1083	-0.067
1083	-0.068
1084	-0.069
1084	-0.07
1085	-0.071
1085	-0.072
1085	-0.073
1086	-0.074
1086	-0.076
1087	-0.076
1087	-0.077
1088	-0.079
1088	-0.079
1088	-0.08
1089	-0.082
1089	-0.083
1090	-0.083
1090	-0.084
1090	-0.085
1091	-0.087
1091	-0.087
1092	-0.088
1092	-0.088
1092	-0.09
1093	-0.09
1093	-0.09
1094	-0.091
1094	-0.092
1095	-0.094
1095	-0.094
1095	-0.094
1096	-0.096
1096	-0.098
1097	-0.099
1097	-0.101
1097	-0.103
1098	-0.105
1098	-0.107
1099	-0.109
1099	-0.11
1100	-0.113
1100	-0.115
1100	-0.119
1101	-0.121
1101	-0.124
1102	-0.126
1102	-0.128
1102	-0.13
1103	-0.133
1103	-0.136
1104	-0.139
1104	-0.142
1104	-0.143
1105	-0.145
1105	-0.148
1106	-0.152
1106	-0.155
1107	-0.161
1107	-0.167
1107	-0.171
1108	-0.173
1108	-0.174
1109	-0.177
1109	-0.182
1109	-0.186
1110	-0.188
1110	-0.193
1111	-0.202
1111	-0.195
