Data from 3.3A_17C_Absorbance__261__03128.txt Node

Date: Tue Jun 20 17:21:21 CEST 2023
User: Marek
Spectrometer: MAYP115816
Trigger mode: 0
Integration Time (sec): 2.200000E-1
Scans to average: 10
Electric dark correction enabled: true
Nonlinearity correction enabled: true
Boxcar width: 5
XAxis mode: Wavelengths
Number of Pixels in Spectrum: 2068
>>>>>Begin Spectral Data<<<<<
199	-0.813
199	-0.798
200	-0.765
200	-0.705
201	-0.678
201	-0.668
202	-0.652
202	-0.644
203	-0.644
203	-0.637
204	-0.615
204	-0.599
205	-0.575
205	-0.563
205	-0.573
206	-0.573
206	-0.569
207	-0.56
207	-0.568
208	-0.568
208	-0.573
209	-0.576
209	-0.584
210	-0.596
210	-0.604
211	-0.597
211	-0.602
212	-0.61
212	-0.618
213	-0.615
213	-0.61
213	-0.608
214	-0.615
214	-0.616
215	-0.614
215	-0.62
216	-0.629
216	-0.635
217	-0.633
217	-0.633
218	-0.641
218	-0.642
219	-0.647
219	-0.648
220	-0.651
220	-0.658
221	-0.658
221	-0.658
221	-0.649
222	-0.648
222	-0.646
223	-0.643
223	-0.645
224	-0.648
224	-0.646
225	-0.642
225	-0.643
226	-0.643
226	-0.644
227	-0.653
227	-0.663
228	-0.667
228	-0.674
229	-0.678
229	-0.674
229	-0.676
230	-0.671
230	-0.669
231	-0.665
231	-0.66
232	-0.66
232	-0.655
233	-0.656
233	-0.645
234	-0.647
234	-0.643
235	-0.646
235	-0.659
236	-0.666
236	-0.668
236	-0.668
237	-0.667
237	-0.669
238	-0.67
238	-0.669
239	-0.67
239	-0.679
240	-0.673
240	-0.669
241	-0.664
241	-0.667
242	-0.67
242	-0.677
243	-0.677
243	-0.678
243	-0.685
244	-0.682
244	-0.681
245	-0.682
245	-0.685
246	-0.696
246	-0.7
247	-0.708
247	-0.697
248	-0.695
248	-0.699
249	-0.704
249	-0.706
250	-0.706
250	-0.715
250	-0.713
251	-0.714
251	-0.71
252	-0.71
252	-0.72
253	-0.716
253	-0.727
254	-0.732
254	-0.733
255	-0.743
255	-0.742
256	-0.744
256	-0.755
257	-0.764
257	-0.762
258	-0.763
258	-0.77
258	-0.767
259	-0.759
259	-0.775
260	-0.775
260	-0.763
261	-0.775
261	-0.762
262	-0.768
262	-0.765
263	-0.758
263	-0.763
264	-0.774
264	-0.778
265	-0.77
265	-0.772
265	-0.784
266	-0.775
266	-0.775
267	-0.774
267	-0.79
268	-0.798
268	-0.791
269	-0.783
269	-0.797
270	-0.802
270	-0.802
271	-0.814
271	-0.824
272	-0.825
272	-0.829
272	-0.823
273	-0.832
273	-0.847
274	-0.837
274	-0.833
275	-0.828
275	-0.814
276	-0.818
276	-0.823
277	-0.824
277	-0.821
278	-0.824
278	-0.825
278	-0.814
279	-0.825
279	-0.838
280	-0.842
280	-0.853
281	-0.848
281	-0.839
282	-0.844
282	-0.839
283	-0.833
283	-0.846
284	-0.858
284	-0.868
285	-0.847
285	-0.853
285	-0.846
286	-0.85
286	-0.867
287	-0.865
287	-0.864
288	-0.863
288	-0.844
289	-0.843
289	-0.851
290	-0.86
290	-0.849
291	-0.851
291	-0.849
292	-0.828
292	-0.823
292	-0.829
293	-0.816
293	-0.812
294	-0.813
294	-0.798
295	-0.781
295	-0.793
296	-0.804
296	-0.798
297	-0.788
297	-0.793
298	-0.788
298	-0.807
298	-0.81
299	-0.791
299	-0.783
300	-0.778
300	-0.758
301	-0.74
301	-0.743
302	-0.751
302	-0.737
303	-0.73
303	-0.716
304	-0.7
304	-0.703
305	-0.697
305	-0.707
305	-0.722
306	-0.708
306	-0.708
307	-0.701
307	-0.712
308	-0.716
308	-0.711
309	-0.713
309	-0.709
310	-0.706
310	-0.7
311	-0.686
311	-0.704
311	-0.691
312	-0.689
312	-0.676
313	-0.667
313	-0.67
314	-0.674
314	-0.672
315	-0.669
315	-0.662
316	-0.656
316	-0.647
317	-0.64
317	-0.636
318	-0.626
318	-0.622
318	-0.61
319	-0.598
319	-0.59
320	-0.588
320	-0.585
321	-0.579
321	-0.578
322	-0.573
322	-0.567
323	-0.572
323	-0.563
324	-0.562
324	-0.551
324	-0.54
325	-0.524
325	-0.507
326	-0.498
326	-0.473
327	-0.456
327	-0.432
328	-0.399
328	-0.375
329	-0.346
329	-0.317
330	-0.287
330	-0.25
330	-0.213
331	-0.174
331	-0.138
332	-0.101
332	-0.064
333	-0.032
333	0.005
334	0.038
334	0.067
335	0.097
335	0.121
336	0.146
336	0.17
336	0.19
337	0.21
337	0.229
338	0.246
338	0.258
339	0.274
339	0.286
340	0.295
340	0.305
341	0.315
341	0.322
342	0.33
342	0.337
342	0.343
343	0.347
343	0.354
344	0.357
344	0.361
345	0.365
345	0.368
346	0.37
346	0.373
347	0.374
347	0.377
348	0.378
348	0.38
348	0.381
349	0.382
349	0.383
350	0.384
350	0.385
351	0.386
351	0.386
352	0.386
352	0.386
353	0.387
353	0.387
354	0.387
354	0.387
354	0.387
355	0.387
355	0.387
356	0.387
356	0.388
357	0.389
357	0.389
358	0.389
358	0.389
359	0.389
359	0.389
360	0.389
360	0.389
360	0.389
361	0.389
361	0.389
362	0.388
362	0.388
363	0.388
363	0.388
364	0.388
364	0.388
365	0.388
365	0.388
366	0.387
366	0.387
366	0.387
367	0.387
367	0.386
368	0.386
368	0.385
369	0.385
369	0.385
370	0.384
370	0.384
371	0.384
371	0.384
372	0.383
372	0.383
372	0.383
373	0.383
373	0.382
374	0.382
374	0.382
375	0.381
375	0.381
376	0.38
376	0.38
377	0.38
377	0.379
378	0.379
378	0.379
378	0.378
379	0.378
379	0.378
380	0.377
380	0.377
381	0.377
381	0.376
382	0.376
382	0.376
383	0.375
383	0.375
383	0.375
384	0.374
384	0.374
385	0.373
385	0.373
386	0.373
386	0.372
387	0.372
387	0.371
388	0.371
388	0.371
389	0.37
389	0.37
389	0.37
390	0.37
390	0.369
391	0.369
391	0.369
392	0.368
392	0.368
393	0.367
393	0.367
394	0.367
394	0.366
394	0.365
395	0.365
395	0.364
396	0.364
396	0.363
397	0.363
397	0.363
398	0.362
398	0.362
399	0.361
399	0.361
400	0.36
400	0.36
400	0.36
401	0.36
401	0.359
402	0.358
402	0.358
403	0.358
403	0.358
404	0.358
404	0.357
405	0.357
405	0.356
405	0.356
406	0.356
406	0.356
407	0.356
407	0.355
408	0.355
408	0.354
409	0.354
409	0.354
410	0.354
410	0.354
411	0.353
411	0.353
411	0.353
412	0.352
412	0.352
413	0.352
413	0.351
414	0.351
414	0.351
415	0.35
415	0.35
416	0.35
416	0.349
416	0.348
417	0.348
417	0.348
418	0.348
418	0.347
419	0.347
419	0.347
420	0.347
420	0.347
421	0.347
421	0.347
421	0.347
422	0.347
422	0.347
423	0.347
423	0.347
424	0.346
424	0.346
425	0.346
425	0.346
426	0.346
426	0.345
427	0.345
427	0.345
427	0.345
428	0.345
428	0.345
429	0.345
429	0.344
430	0.344
430	0.344
431	0.344
431	0.343
432	0.343
432	0.343
432	0.342
433	0.342
433	0.342
434	0.342
434	0.342
435	0.342
435	0.342
436	0.342
436	0.342
437	0.342
437	0.342
437	0.342
438	0.342
438	0.342
439	0.342
439	0.341
440	0.341
440	0.341
441	0.341
441	0.341
442	0.341
442	0.341
442	0.341
443	0.341
443	0.341
444	0.34
444	0.341
445	0.341
445	0.341
446	0.341
446	0.341
447	0.341
447	0.341
447	0.341
448	0.341
448	0.341
449	0.341
449	0.341
450	0.341
450	0.341
451	0.342
451	0.342
452	0.342
452	0.342
452	0.342
453	0.342
453	0.343
454	0.343
454	0.343
455	0.343
455	0.343
456	0.344
456	0.344
457	0.343
457	0.344
458	0.344
458	0.344
458	0.344
459	0.344
459	0.343
460	0.343
460	0.343
461	0.343
461	0.344
462	0.345
462	0.346
463	0.346
463	0.348
463	0.348
464	0.349
464	0.35
465	0.35
465	0.351
466	0.351
466	0.352
467	0.352
467	0.352
467	0.352
468	0.352
468	0.352
469	0.353
469	0.354
470	0.354
470	0.355
471	0.356
471	0.356
472	0.357
472	0.358
472	0.359
473	0.36
473	0.36
474	0.361
474	0.362
475	0.363
475	0.365
476	0.366
476	0.367
477	0.368
477	0.369
477	0.37
478	0.371
478	0.372
479	0.374
479	0.375
480	0.376
480	0.376
481	0.378
481	0.379
482	0.38
482	0.382
482	0.383
483	0.385
483	0.388
484	0.389
484	0.39
485	0.392
485	0.394
486	0.395
486	0.397
487	0.399
487	0.401
487	0.402
488	0.404
488	0.405
489	0.407
489	0.409
490	0.411
490	0.414
491	0.416
491	0.418
492	0.42
492	0.422
492	0.424
493	0.426
493	0.429
494	0.432
494	0.435
495	0.437
495	0.439
496	0.442
496	0.444
496	0.447
497	0.45
497	0.453
498	0.456
498	0.458
499	0.461
499	0.465
500	0.468
500	0.472
501	0.475
501	0.478
501	0.48
502	0.484
502	0.487
503	0.49
503	0.493
504	0.496
504	0.499
505	0.503
505	0.506
506	0.51
506	0.514
506	0.518
507	0.521
507	0.526
508	0.53
508	0.534
509	0.538
509	0.541
510	0.545
510	0.548
511	0.551
511	0.555
511	0.557
512	0.56
512	0.563
513	0.565
513	0.568
514	0.571
514	0.575
515	0.577
515	0.58
515	0.582
516	0.585
516	0.588
517	0.59
517	0.593
518	0.594
518	0.596
519	0.598
519	0.6
520	0.602
520	0.604
520	0.606
521	0.607
521	0.609
522	0.611
522	0.613
523	0.615
523	0.617
524	0.618
524	0.619
524	0.621
525	0.622
525	0.622
526	0.623
526	0.624
527	0.625
527	0.625
528	0.625
528	0.625
529	0.625
529	0.625
529	0.624
530	0.624
530	0.623
531	0.623
531	0.622
532	0.621
532	0.62
533	0.619
533	0.618
533	0.616
534	0.615
534	0.613
535	0.612
535	0.611
536	0.61
536	0.607
537	0.606
537	0.604
538	0.601
538	0.599
538	0.596
539	0.594
539	0.592
540	0.589
540	0.586
541	0.582
541	0.58
542	0.577
542	0.573
542	0.57
543	0.567
543	0.563
544	0.559
544	0.556
545	0.552
545	0.549
546	0.545
546	0.541
547	0.536
547	0.532
547	0.529
548	0.525
548	0.521
549	0.518
549	0.514
550	0.51
550	0.506
551	0.502
551	0.498
551	0.493
552	0.489
552	0.486
553	0.482
553	0.478
554	0.474
554	0.469
555	0.465
555	0.46
556	0.456
556	0.452
556	0.448
557	0.444
557	0.441
558	0.436
558	0.432
559	0.428
559	0.424
560	0.42
560	0.415
560	0.412
561	0.409
561	0.405
562	0.402
562	0.398
563	0.394
563	0.391
564	0.387
564	0.384
564	0.381
565	0.378
565	0.375
566	0.371
566	0.368
567	0.365
567	0.362
568	0.359
568	0.356
568	0.353
569	0.349
569	0.346
570	0.342
570	0.337
571	0.335
571	0.331
572	0.328
572	0.324
573	0.32
573	0.316
573	0.313
574	0.31
574	0.307
575	0.305
575	0.304
576	0.301
576	0.297
577	0.293
577	0.291
577	0.289
578	0.287
578	0.286
579	0.284
579	0.282
580	0.278
580	0.274
581	0.27
581	0.267
581	0.265
582	0.264
582	0.262
583	0.261
583	0.258
584	0.253
584	0.249
585	0.248
585	0.247
585	0.245
586	0.243
586	0.241
587	0.238
587	0.235
588	0.233
588	0.23
589	0.229
589	0.227
590	0.225
590	0.223
590	0.222
591	0.221
591	0.218
592	0.216
592	0.213
593	0.212
593	0.21
594	0.208
594	0.206
594	0.204
595	0.203
595	0.2
596	0.198
596	0.197
597	0.197
597	0.196
598	0.194
598	0.192
598	0.191
599	0.19
599	0.188
600	0.186
600	0.185
601	0.184
601	0.183
602	0.18
602	0.179
602	0.177
603	0.176
603	0.176
604	0.175
604	0.174
605	0.173
605	0.173
606	0.171
606	0.169
606	0.167
607	0.166
607	0.165
608	0.164
608	0.161
609	0.16
609	0.159
610	0.157
610	0.155
610	0.155
611	0.154
611	0.153
612	0.153
612	0.152
613	0.152
613	0.15
614	0.148
614	0.147
614	0.145
615	0.143
615	0.142
616	0.141
616	0.139
617	0.138
617	0.136
618	0.134
618	0.133
618	0.132
619	0.131
619	0.131
620	0.131
620	0.13
621	0.129
621	0.127
622	0.126
622	0.125
622	0.123
623	0.121
623	0.121
624	0.121
624	0.119
625	0.118
625	0.117
626	0.116
626	0.115
626	0.115
627	0.114
627	0.113
628	0.113
628	0.112
629	0.111
629	0.109
630	0.108
630	0.106
630	0.105
631	0.104
631	0.102
632	0.1
632	0.099
633	0.097
633	0.095
634	0.094
634	0.093
634	0.091
635	0.09
635	0.088
636	0.086
636	0.085
637	0.082
637	0.08
638	0.078
638	0.076
638	0.073
639	0.07
639	0.067
640	0.064
640	0.061
641	0.057
641	0.054
642	0.051
642	0.048
642	0.045
643	0.041
643	0.037
644	0.033
644	0.029
645	0.025
645	0.021
646	0.017
646	0.012
646	0.008
647	0.002
647	-0.003
648	-0.009
648	-0.014
649	-0.02
649	-0.025
650	-0.031
650	-0.036
650	-0.042
651	-0.049
651	-0.059
652	-0.069
652	-0.08
653	-0.09
653	-0.099
653	-0.094
654	-0.078
654	-0.076
655	-0.081
655	-0.085
656	-0.089
656	-0.094
657	-0.098
657	-0.101
657	-0.106
658	-0.112
658	-0.138
659	-0.209
659	-0.279
660	-0.311
660	-0.333
661	-0.357
661	-0.38
661	-0.405
662	-0.427
662	-0.45
663	-0.474
663	-0.504
664	-0.53
664	-0.562
665	-0.597
665	-0.631
665	-0.663
666	-0.699
666	-0.741
667	-0.783
667	-0.832
668	-0.879
668	-0.938
669	-0.995
669	-1.058
669	-1.13
670	-1.21
670	-1.365
671	-1.661
671	-2.047
672	-2.302
672	-2.468
672	-2.591
673	-2.689
673	-2.752
674	-2.776
674	-2.786
675	-2.8
675	-2.802
676	-2.79
676	-2.729
676	-2.64
677	-2.524
677	-2.368
678	-2.089
678	-1.585
679	-1.365
679	-1.263
680	-1.19
680	-1.136
680	-1.091
681	-1.064
681	-1.027
682	-1.003
682	-0.973
683	-0.942
683	-0.93
684	-0.914
684	-0.905
684	-0.891
685	-0.882
685	-0.88
686	-0.863
686	-0.857
687	-0.853
687	-0.848
687	-0.855
688	-0.844
688	-0.843
689	-0.852
689	-0.853
690	-0.842
690	-0.836
691	-0.836
691	-0.842
691	-0.846
692	-0.848
692	-0.847
693	-0.856
693	-0.868
694	-0.849
694	-0.85
695	-0.855
695	-0.85
695	-0.86
696	-0.868
696	-0.862
697	-0.857
697	-0.854
698	-0.851
698	-0.845
698	-0.861
699	-0.86
699	-0.863
700	-0.882
700	-0.878
701	-0.865
701	-0.86
702	-0.861
702	-0.859
702	-0.861
703	-0.854
703	-0.841
704	-0.849
704	-0.852
705	-0.842
705	-0.842
705	-0.838
706	-0.832
706	-0.829
707	-0.842
707	-0.846
708	-0.843
708	-0.841
709	-0.844
709	-0.84
709	-0.835
710	-0.843
710	-0.846
711	-0.846
711	-0.847
712	-0.837
712	-0.835
713	-0.84
713	-0.841
713	-0.821
714	-0.822
714	-0.826
715	-0.817
715	-0.825
716	-0.841
716	-0.851
716	-0.852
717	-0.857
717	-0.85
718	-0.844
718	-0.845
719	-0.842
719	-0.835
720	-0.831
720	-0.828
720	-0.822
721	-0.812
721	-0.817
722	-0.814
722	-0.81
723	-0.828
723	-0.84
723	-0.849
724	-0.847
724	-0.851
725	-0.845
725	-0.848
726	-0.853
726	-0.845
727	-0.848
727	-0.857
727	-0.848
728	-0.836
728	-0.833
729	-0.837
729	-0.839
730	-0.845
730	-0.835
730	-0.84
731	-0.842
731	-0.842
732	-0.843
732	-0.838
733	-0.852
733	-0.858
734	-0.868
734	-0.86
734	-0.842
735	-0.833
735	-0.829
736	-0.829
736	-0.823
737	-0.822
737	-0.811
737	-0.805
738	-0.792
738	-0.78
739	-0.783
739	-0.785
740	-0.8
740	-0.8
741	-0.811
741	-0.821
741	-0.833
742	-0.84
742	-0.854
743	-0.859
743	-0.86
744	-0.864
744	-0.871
744	-0.865
745	-0.872
745	-0.86
746	-0.855
746	-0.845
747	-0.849
747	-0.839
748	-0.841
748	-0.845
748	-0.845
749	-0.839
749	-0.844
750	-0.835
750	-0.834
751	-0.833
751	-0.832
751	-0.843
752	-0.847
752	-0.849
753	-0.852
753	-0.845
754	-0.865
754	-0.867
754	-0.875
755	-0.877
755	-0.869
756	-0.872
756	-0.859
757	-0.852
757	-0.842
758	-0.842
758	-0.844
758	-0.839
759	-0.842
759	-0.842
760	-0.839
760	-0.842
761	-0.834
761	-0.838
761	-0.839
762	-0.844
762	-0.845
763	-0.843
763	-0.845
764	-0.843
764	-0.838
764	-0.846
765	-0.846
765	-0.851
766	-0.855
766	-0.856
767	-0.87
767	-0.866
768	-0.866
768	-0.86
768	-0.856
769	-0.859
769	-0.866
770	-0.878
770	-0.884
771	-0.88
771	-0.88
771	-0.886
772	-0.89
772	-0.912
773	-0.912
773	-0.911
774	-0.91
774	-0.893
775	-0.878
775	-0.878
775	-0.881
776	-0.892
776	-0.888
777	-0.887
777	-0.868
778	-0.878
778	-0.886
778	-0.887
779	-0.896
779	-0.911
780	-0.907
780	-0.916
781	-0.904
781	-0.893
781	-0.906
782	-0.926
782	-0.926
783	-0.925
783	-0.933
784	-0.935
784	-0.928
784	-0.948
785	-0.941
785	-0.955
786	-0.96
786	-0.953
787	-0.944
787	-0.952
788	-0.947
788	-0.94
788	-0.94
789	-0.941
789	-0.931
790	-0.929
790	-0.912
791	-0.919
791	-0.915
791	-0.909
792	-0.903
792	-0.906
793	-0.911
793	-0.9
794	-0.895
794	-0.888
794	-0.895
795	-0.916
795	-0.903
796	-0.908
796	-0.904
797	-0.899
797	-0.891
797	-0.884
798	-0.903
798	-0.907
799	-0.907
799	-0.894
800	-0.891
800	-0.898
801	-0.895
801	-0.898
801	-0.895
802	-0.894
802	-0.891
803	-0.885
803	-0.879
804	-0.884
804	-0.892
804	-0.874
805	-0.856
805	-0.847
806	-0.849
806	-0.844
807	-0.846
807	-0.847
807	-0.829
808	-0.822
808	-0.814
809	-0.808
809	-0.81
810	-0.815
810	-0.812
810	-0.807
811	-0.812
811	-0.804
812	-0.797
812	-0.801
813	-0.805
813	-0.807
813	-0.803
814	-0.802
814	-0.806
815	-0.8
815	-0.797
816	-0.792
816	-0.808
817	-0.821
817	-0.824
817	-0.834
818	-0.827
818	-0.824
819	-0.834
819	-0.831
820	-0.841
820	-0.839
820	-0.839
821	-0.834
821	-0.829
822	-0.829
822	-0.816
823	-0.827
823	-0.827
823	-0.821
824	-0.819
824	-0.828
825	-0.828
825	-0.824
826	-0.82
826	-0.817
826	-0.815
827	-0.815
827	-0.806
828	-0.805
828	-0.8
829	-0.794
829	-0.78
829	-0.776
830	-0.776
830	-0.76
831	-0.753
831	-0.744
832	-0.735
832	-0.731
832	-0.725
833	-0.723
833	-0.73
834	-0.725
834	-0.72
835	-0.71
835	-0.71
835	-0.707
836	-0.701
836	-0.696
837	-0.686
837	-0.676
838	-0.664
838	-0.647
839	-0.642
839	-0.63
839	-0.62
840	-0.621
840	-0.61
841	-0.599
841	-0.592
842	-0.583
842	-0.572
842	-0.569
843	-0.566
843	-0.561
844	-0.558
844	-0.548
845	-0.532
845	-0.523
845	-0.513
846	-0.502
846	-0.49
847	-0.479
847	-0.468
848	-0.453
848	-0.437
848	-0.423
849	-0.411
849	-0.399
850	-0.388
850	-0.377
851	-0.364
851	-0.348
851	-0.339
852	-0.323
852	-0.31
853	-0.3
853	-0.29
854	-0.278
854	-0.268
854	-0.255
855	-0.246
855	-0.237
856	-0.23
856	-0.222
857	-0.214
857	-0.207
857	-0.194
858	-0.183
858	-0.176
859	-0.166
859	-0.155
860	-0.144
860	-0.13
860	-0.12
861	-0.109
861	-0.099
862	-0.09
862	-0.083
863	-0.075
863	-0.065
863	-0.059
864	-0.053
864	-0.046
865	-0.039
865	-0.034
866	-0.028
866	-0.022
866	-0.017
867	-0.012
867	-0.007
868	-0.003
868	0.002
869	0.007
869	0.01
869	0.013
870	0.015
870	0.017
871	0.018
871	0.02
872	0.021
872	0.022
872	0.023
873	0.023
873	0.022
874	0.022
874	0.022
875	0.021
875	0.021
875	0.021
876	0.021
876	0.02
877	0.02
877	0.019
878	0.019
878	0.019
878	0.019
879	0.018
879	0.018
880	0.017
880	0.016
881	0.015
881	0.013
881	0.012
882	0.011
882	0.009
883	0.008
883	0.006
884	0.006
884	0.005
884	0.005
885	0.005
885	0.005
886	0.005
886	0.005
887	0.005
887	0.004
887	0.004
888	0.004
888	0.003
889	0.002
889	0.001
890	0
890	-0.001
890	-0.001
891	-0.001
891	-0.002
892	-0.001
892	-0
893	-0
893	0
893	0.001
894	0.001
894	0.002
895	0.002
895	0.002
895	0.002
896	0.002
896	0.002
897	0.002
897	0.002
898	0.002
898	0.002
898	0.003
899	0.003
899	0.003
900	0.004
900	0.004
901	0.004
901	0.003
901	0.003
902	0.003
902	0.003
903	0.003
903	0.002
904	0.001
904	0.001
904	0.001
905	0.001
905	0.001
906	0.001
906	0.002
907	0.002
907	0.002
907	0.003
908	0.003
908	0.004
909	0.005
909	0.005
910	0.006
910	0.006
910	0.007
911	0.007
911	0.008
912	0.009
912	0.009
913	0.01
913	0.011
913	0.011
914	0.012
914	0.013
915	0.013
915	0.013
916	0.012
916	0.012
916	0.012
917	0.011
917	0.011
918	0.01
918	0.009
918	0.009
919	0.008
919	0.008
920	0.008
920	0.008
921	0.009
921	0.009
921	0.009
922	0.009
922	0.01
923	0.01
923	0.01
924	0.01
924	0.009
924	0.008
925	0.007
925	0.006
926	0.005
926	0.003
927	0.002
927	0.001
927	0
928	-0
928	-0
929	-0
929	0
930	0.001
930	0.002
930	0.003
931	0.004
931	0.005
932	0.006
932	0.007
933	0.008
933	0.009
933	0.009
934	0.008
934	0.008
935	0.007
935	0.006
935	0.005
936	0.004
936	0.002
937	0.001
937	0.001
938	0
938	-0.001
938	-0.001
939	-0.002
939	-0.002
940	-0.003
940	-0.003
941	-0.004
941	-0.004
941	-0.004
942	-0.005
942	-0.005
943	-0.005
943	-0.006
944	-0.006
944	-0.007
944	-0.007
945	-0.007
945	-0.007
946	-0.008
946	-0.009
946	-0.009
947	-0.009
947	-0.009
948	-0.009
948	-0.009
949	-0.008
949	-0.006
949	-0.005
950	-0.003
950	-0.002
951	-0
951	0.001
952	0.002
952	0.004
952	0.004
953	0.005
953	0.005
954	0.005
954	0.005
955	0.005
955	0.005
955	0.005
956	0.004
956	0.003
957	0.002
957	0.001
957	0
958	-0
958	-0.001
959	-0.002
959	-0.002
960	-0.003
960	-0.003
960	-0.003
961	-0.003
961	-0.002
962	-0.002
962	-0.001
963	-0.001
963	-0
963	0
964	0.001
964	0.001
965	0.002
965	0.002
966	0.002
966	0.003
966	0.004
967	0.005
967	0.005
968	0.005
968	0.005
968	0.005
969	0.005
969	0.005
970	0.004
970	0.004
971	0.004
971	0.004
971	0.004
972	0.004
972	0.004
973	0.004
973	0.004
974	0.004
974	0.004
974	0.004
975	0.004
975	0.004
976	0.004
976	0.004
976	0.003
977	0.003
977	0.002
978	0.001
978	0.001
979	0
979	-0
979	-0
980	-0
980	-0.001
981	-0.001
981	-0.001
982	-0.001
982	-0.001
982	-0.001
983	-0.001
983	-0.001
984	-0.001
984	-0.002
984	-0.002
985	-0.002
985	-0.002
986	-0.003
986	-0.004
987	-0.004
987	-0.005
987	-0.006
988	-0.006
988	-0.007
989	-0.008
989	-0.009
990	-0.009
990	-0.01
990	-0.011
991	-0.012
991	-0.013
992	-0.013
992	-0.014
992	-0.015
993	-0.016
993	-0.017
994	-0.018
994	-0.02
995	-0.021
995	-0.022
995	-0.024
996	-0.025
996	-0.026
997	-0.027
997	-0.028
997	-0.028
998	-0.028
998	-0.028
999	-0.028
999	-0.027
1000	-0.027
1000	-0.026
1000	-0.025
1001	-0.024
1001	-0.023
1002	-0.022
1002	-0.022
1003	-0.021
1003	-0.021
1003	-0.021
1004	-0.02
1004	-0.02
1005	-0.02
1005	-0.021
1005	-0.021
1006	-0.022
1006	-0.022
1007	-0.023
1007	-0.024
1008	-0.024
1008	-0.025
1008	-0.025
1009	-0.025
1009	-0.025
1010	-0.025
1010	-0.024
1010	-0.024
1011	-0.023
1011	-0.023
1012	-0.022
1012	-0.02
1013	-0.019
1013	-0.018
1013	-0.018
1014	-0.017
1014	-0.016
1015	-0.016
1015	-0.016
1016	-0.015
1016	-0.015
1016	-0.015
1017	-0.016
1017	-0.016
1018	-0.016
1018	-0.016
1018	-0.016
1019	-0.016
1019	-0.017
1020	-0.017
1020	-0.018
1021	-0.018
1021	-0.018
1021	-0.019
1022	-0.019
1022	-0.019
1023	-0.019
1023	-0.02
1023	-0.02
1024	-0.019
1024	-0.02
1025	-0.019
1025	-0.019
1026	-0.019
1026	-0.019
1026	-0.019
1027	-0.019
1027	-0.019
1028	-0.018
1028	-0.018
1028	-0.017
1029	-0.017
1029	-0.017
1030	-0.017
1030	-0.017
1031	-0.017
1031	-0.016
1031	-0.016
1032	-0.016
1032	-0.016
1033	-0.017
1033	-0.018
1033	-0.018
1034	-0.019
1034	-0.02
1035	-0.02
1035	-0.021
1036	-0.022
1036	-0.023
1036	-0.023
1037	-0.024
1037	-0.024
1038	-0.024
1038	-0.024
1039	-0.024
1039	-0.024
1039	-0.023
1040	-0.023
1040	-0.023
1041	-0.023
1041	-0.023
1041	-0.023
1042	-0.024
1042	-0.024
1043	-0.025
1043	-0.025
1044	-0.026
1044	-0.027
1044	-0.027
1045	-0.027
1045	-0.028
1046	-0.028
1046	-0.028
1046	-0.028
1047	-0.028
1047	-0.028
1048	-0.028
1048	-0.028
1049	-0.028
1049	-0.028
1049	-0.028
1050	-0.029
1050	-0.03
1051	-0.031
1051	-0.032
1051	-0.032
1052	-0.033
1052	-0.034
1053	-0.035
1053	-0.035
1053	-0.036
1054	-0.036
1054	-0.037
1055	-0.036
1055	-0.036
1056	-0.036
1056	-0.036
1056	-0.036
1057	-0.036
1057	-0.036
1058	-0.036
1058	-0.036
1058	-0.036
1059	-0.036
1059	-0.036
1060	-0.037
1060	-0.037
1061	-0.038
1061	-0.038
1061	-0.037
1062	-0.038
1062	-0.038
1063	-0.038
1063	-0.038
1063	-0.038
1064	-0.038
1064	-0.038
1065	-0.038
1065	-0.038
1066	-0.039
1066	-0.039
1066	-0.04
1067	-0.041
1067	-0.041
1068	-0.042
1068	-0.043
1068	-0.044
1069	-0.045
1069	-0.046
1070	-0.046
1070	-0.047
1071	-0.047
1071	-0.047
1071	-0.048
1072	-0.048
1072	-0.048
1073	-0.048
1073	-0.048
1073	-0.048
1074	-0.048
1074	-0.048
1075	-0.048
1075	-0.048
1076	-0.049
1076	-0.049
1076	-0.05
1077	-0.051
1077	-0.052
1078	-0.053
1078	-0.053
1078	-0.054
1079	-0.054
1079	-0.055
1080	-0.056
1080	-0.056
1080	-0.058
1081	-0.059
1081	-0.06
1082	-0.06
1082	-0.062
1083	-0.063
1083	-0.065
1083	-0.066
1084	-0.068
1084	-0.069
1085	-0.07
1085	-0.071
1085	-0.071
1086	-0.072
1086	-0.074
1087	-0.075
1087	-0.075
1088	-0.076
1088	-0.077
1088	-0.077
1089	-0.078
1089	-0.079
1090	-0.079
1090	-0.079
1090	-0.081
1091	-0.082
1091	-0.082
1092	-0.082
1092	-0.082
1092	-0.083
1093	-0.084
1093	-0.084
1094	-0.085
1094	-0.086
1095	-0.087
1095	-0.087
1095	-0.087
1096	-0.089
1096	-0.091
1097	-0.092
1097	-0.094
1097	-0.096
1098	-0.098
1098	-0.1
1099	-0.102
1099	-0.104
1100	-0.106
1100	-0.109
1100	-0.112
1101	-0.115
1101	-0.118
1102	-0.119
1102	-0.122
1102	-0.124
1103	-0.126
1103	-0.129
1104	-0.132
1104	-0.136
1104	-0.137
1105	-0.139
1105	-0.142
1106	-0.147
1106	-0.149
1107	-0.155
1107	-0.16
1107	-0.164
1108	-0.166
1108	-0.167
1109	-0.17
1109	-0.174
1109	-0.179
1110	-0.18
1110	-0.185
1111	-0.195
1111	-0.19
