Data from 3.3A_17C_Absorbance__916__03783.txt Node

Date: Tue Jun 20 17:45:22 CEST 2023
User: Marek
Spectrometer: MAYP115816
Trigger mode: 0
Integration Time (sec): 2.200000E-1
Scans to average: 10
Electric dark correction enabled: true
Nonlinearity correction enabled: true
Boxcar width: 5
XAxis mode: Wavelengths
Number of Pixels in Spectrum: 2068
>>>>>Begin Spectral Data<<<<<
199	-0.811
199	-0.794
200	-0.759
200	-0.703
201	-0.675
201	-0.663
202	-0.648
202	-0.641
203	-0.64
203	-0.634
204	-0.613
204	-0.596
205	-0.572
205	-0.562
205	-0.571
206	-0.573
206	-0.569
207	-0.56
207	-0.565
208	-0.566
208	-0.57
209	-0.571
209	-0.577
210	-0.591
210	-0.598
211	-0.59
211	-0.595
212	-0.606
212	-0.612
213	-0.609
213	-0.604
213	-0.603
214	-0.61
214	-0.614
215	-0.61
215	-0.614
216	-0.622
216	-0.627
217	-0.625
217	-0.625
218	-0.633
218	-0.635
219	-0.641
219	-0.642
220	-0.646
220	-0.652
221	-0.653
221	-0.656
221	-0.647
222	-0.646
222	-0.646
223	-0.642
223	-0.646
224	-0.647
224	-0.646
225	-0.641
225	-0.644
226	-0.643
226	-0.642
227	-0.649
227	-0.659
228	-0.662
228	-0.671
229	-0.675
229	-0.672
229	-0.673
230	-0.669
230	-0.667
231	-0.663
231	-0.658
232	-0.661
232	-0.654
233	-0.654
233	-0.643
234	-0.644
234	-0.637
235	-0.64
235	-0.652
236	-0.659
236	-0.662
236	-0.662
237	-0.661
237	-0.663
238	-0.663
238	-0.663
239	-0.665
239	-0.676
240	-0.67
240	-0.666
241	-0.661
241	-0.665
242	-0.668
242	-0.676
243	-0.676
243	-0.679
243	-0.684
244	-0.681
244	-0.683
245	-0.685
245	-0.688
246	-0.696
246	-0.698
247	-0.706
247	-0.693
248	-0.693
248	-0.694
249	-0.703
249	-0.704
250	-0.703
250	-0.71
250	-0.707
251	-0.71
251	-0.707
252	-0.708
252	-0.72
253	-0.713
253	-0.726
254	-0.728
254	-0.728
255	-0.738
255	-0.738
256	-0.74
256	-0.752
257	-0.762
257	-0.759
258	-0.762
258	-0.771
258	-0.769
259	-0.762
259	-0.782
260	-0.782
260	-0.77
261	-0.781
261	-0.765
262	-0.771
262	-0.768
263	-0.758
263	-0.762
264	-0.772
264	-0.775
265	-0.766
265	-0.768
265	-0.78
266	-0.772
266	-0.774
267	-0.773
267	-0.79
268	-0.798
268	-0.793
269	-0.786
269	-0.8
270	-0.802
270	-0.8
271	-0.813
271	-0.822
272	-0.822
272	-0.824
272	-0.816
273	-0.827
273	-0.842
274	-0.835
274	-0.829
275	-0.828
275	-0.816
276	-0.819
276	-0.824
277	-0.827
277	-0.826
278	-0.829
278	-0.826
278	-0.816
279	-0.822
279	-0.835
280	-0.838
280	-0.849
281	-0.843
281	-0.837
282	-0.843
282	-0.837
283	-0.831
283	-0.847
284	-0.859
284	-0.872
285	-0.853
285	-0.858
285	-0.85
286	-0.854
286	-0.869
287	-0.865
287	-0.865
288	-0.865
288	-0.847
289	-0.845
289	-0.851
290	-0.861
290	-0.851
291	-0.854
291	-0.853
292	-0.832
292	-0.83
292	-0.834
293	-0.822
293	-0.819
294	-0.818
294	-0.805
295	-0.785
295	-0.795
296	-0.808
296	-0.802
297	-0.792
297	-0.796
298	-0.793
298	-0.81
298	-0.812
299	-0.794
299	-0.786
300	-0.782
300	-0.765
301	-0.746
301	-0.749
302	-0.758
302	-0.744
303	-0.736
303	-0.723
304	-0.708
304	-0.709
305	-0.703
305	-0.711
305	-0.728
306	-0.713
306	-0.712
307	-0.704
307	-0.715
308	-0.717
308	-0.714
309	-0.717
309	-0.713
310	-0.711
310	-0.706
311	-0.691
311	-0.708
311	-0.696
312	-0.695
312	-0.683
313	-0.677
313	-0.678
314	-0.682
314	-0.681
315	-0.679
315	-0.672
316	-0.666
316	-0.656
317	-0.648
317	-0.643
318	-0.635
318	-0.631
318	-0.62
319	-0.608
319	-0.601
320	-0.598
320	-0.596
321	-0.591
321	-0.59
322	-0.585
322	-0.578
323	-0.578
323	-0.569
324	-0.567
324	-0.557
324	-0.548
325	-0.532
325	-0.516
326	-0.508
326	-0.484
327	-0.468
327	-0.447
328	-0.417
328	-0.395
329	-0.365
329	-0.339
330	-0.311
330	-0.276
330	-0.242
331	-0.206
331	-0.174
332	-0.142
332	-0.111
333	-0.082
333	-0.049
334	-0.023
334	0.003
335	0.028
335	0.049
336	0.07
336	0.09
336	0.105
337	0.122
337	0.139
338	0.151
338	0.16
339	0.173
339	0.183
340	0.191
340	0.198
341	0.205
341	0.21
342	0.217
342	0.222
342	0.226
343	0.23
343	0.235
344	0.237
344	0.24
345	0.243
345	0.245
346	0.247
346	0.249
347	0.25
347	0.251
348	0.253
348	0.254
348	0.255
349	0.255
349	0.257
350	0.257
350	0.258
351	0.259
351	0.259
352	0.259
352	0.259
353	0.259
353	0.26
354	0.26
354	0.26
354	0.26
355	0.26
355	0.26
356	0.26
356	0.26
357	0.261
357	0.261
358	0.261
358	0.261
359	0.26
359	0.26
360	0.261
360	0.261
360	0.261
361	0.261
361	0.261
362	0.26
362	0.26
363	0.26
363	0.26
364	0.26
364	0.26
365	0.26
365	0.26
366	0.26
366	0.26
366	0.26
367	0.26
367	0.26
368	0.26
368	0.259
369	0.259
369	0.259
370	0.259
370	0.259
371	0.259
371	0.259
372	0.258
372	0.258
372	0.258
373	0.258
373	0.258
374	0.258
374	0.258
375	0.258
375	0.257
376	0.257
376	0.257
377	0.257
377	0.257
378	0.256
378	0.256
378	0.256
379	0.256
379	0.256
380	0.256
380	0.256
381	0.256
381	0.256
382	0.256
382	0.256
383	0.256
383	0.256
383	0.255
384	0.255
384	0.255
385	0.255
385	0.254
386	0.254
386	0.254
387	0.254
387	0.254
388	0.254
388	0.253
389	0.253
389	0.253
389	0.253
390	0.253
390	0.253
391	0.253
391	0.253
392	0.253
392	0.253
393	0.253
393	0.253
394	0.252
394	0.252
394	0.252
395	0.252
395	0.251
396	0.251
396	0.251
397	0.251
397	0.25
398	0.25
398	0.25
399	0.25
399	0.249
400	0.249
400	0.249
400	0.249
401	0.249
401	0.248
402	0.248
402	0.248
403	0.248
403	0.248
404	0.248
404	0.248
405	0.248
405	0.247
405	0.247
406	0.247
406	0.247
407	0.247
407	0.246
408	0.246
408	0.246
409	0.246
409	0.246
410	0.246
410	0.246
411	0.245
411	0.245
411	0.245
412	0.245
412	0.245
413	0.244
413	0.244
414	0.244
414	0.244
415	0.244
415	0.243
416	0.243
416	0.243
416	0.243
417	0.243
417	0.243
418	0.243
418	0.243
419	0.243
419	0.242
420	0.242
420	0.242
421	0.242
421	0.242
421	0.242
422	0.242
422	0.242
423	0.242
423	0.241
424	0.241
424	0.241
425	0.241
425	0.241
426	0.241
426	0.241
427	0.241
427	0.241
427	0.241
428	0.241
428	0.241
429	0.241
429	0.241
430	0.24
430	0.24
431	0.24
431	0.24
432	0.239
432	0.239
432	0.239
433	0.238
433	0.238
434	0.239
434	0.239
435	0.239
435	0.239
436	0.239
436	0.239
437	0.239
437	0.239
437	0.239
438	0.239
438	0.239
439	0.238
439	0.238
440	0.238
440	0.238
441	0.238
441	0.238
442	0.238
442	0.238
442	0.238
443	0.238
443	0.238
444	0.237
444	0.237
445	0.238
445	0.238
446	0.238
446	0.238
447	0.238
447	0.238
447	0.238
448	0.238
448	0.238
449	0.238
449	0.238
450	0.238
450	0.238
451	0.238
451	0.238
452	0.238
452	0.238
452	0.238
453	0.238
453	0.238
454	0.238
454	0.238
455	0.238
455	0.238
456	0.238
456	0.238
457	0.237
457	0.237
458	0.237
458	0.237
458	0.237
459	0.237
459	0.236
460	0.236
460	0.236
461	0.236
461	0.236
462	0.237
462	0.237
463	0.238
463	0.239
463	0.239
464	0.239
464	0.24
465	0.24
465	0.24
466	0.241
466	0.241
467	0.241
467	0.241
467	0.24
468	0.24
468	0.24
469	0.24
469	0.24
470	0.241
470	0.241
471	0.241
471	0.241
472	0.241
472	0.242
472	0.243
473	0.243
473	0.244
474	0.244
474	0.245
475	0.245
475	0.246
476	0.246
476	0.246
477	0.247
477	0.247
477	0.248
478	0.248
478	0.248
479	0.249
479	0.25
480	0.25
480	0.25
481	0.251
481	0.251
482	0.252
482	0.253
482	0.253
483	0.255
483	0.256
484	0.257
484	0.257
485	0.258
485	0.259
486	0.259
486	0.26
487	0.26
487	0.261
487	0.262
488	0.262
488	0.262
489	0.263
489	0.265
490	0.266
490	0.266
491	0.268
491	0.269
492	0.27
492	0.271
492	0.271
493	0.272
493	0.273
494	0.275
494	0.276
495	0.277
495	0.278
496	0.279
496	0.28
496	0.282
497	0.283
497	0.285
498	0.286
498	0.287
499	0.289
499	0.29
500	0.292
500	0.294
501	0.296
501	0.297
501	0.298
502	0.299
502	0.301
503	0.303
503	0.304
504	0.305
504	0.307
505	0.309
505	0.31
506	0.312
506	0.314
506	0.317
507	0.319
507	0.321
508	0.323
508	0.325
509	0.327
509	0.329
510	0.331
510	0.333
511	0.334
511	0.336
511	0.337
512	0.339
512	0.34
513	0.341
513	0.342
514	0.344
514	0.345
515	0.346
515	0.347
515	0.348
516	0.349
516	0.351
517	0.353
517	0.354
518	0.355
518	0.355
519	0.356
519	0.357
520	0.358
520	0.36
520	0.361
521	0.361
521	0.362
522	0.363
522	0.364
523	0.366
523	0.367
524	0.368
524	0.369
524	0.369
525	0.37
525	0.371
526	0.372
526	0.373
527	0.373
527	0.373
528	0.373
528	0.373
529	0.373
529	0.374
529	0.373
530	0.373
530	0.373
531	0.373
531	0.373
532	0.372
532	0.372
533	0.372
533	0.372
533	0.372
534	0.371
534	0.371
535	0.371
535	0.371
536	0.37
536	0.37
537	0.37
537	0.369
538	0.368
538	0.367
538	0.366
539	0.366
539	0.365
540	0.363
540	0.361
541	0.36
541	0.359
542	0.358
542	0.357
542	0.356
543	0.355
543	0.353
544	0.352
544	0.351
545	0.351
545	0.35
546	0.348
546	0.346
547	0.344
547	0.342
547	0.341
548	0.34
548	0.338
549	0.337
549	0.335
550	0.334
550	0.332
551	0.33
551	0.329
551	0.327
552	0.326
552	0.324
553	0.323
553	0.321
554	0.32
554	0.317
555	0.315
555	0.314
556	0.312
556	0.31
556	0.308
557	0.307
557	0.306
558	0.304
558	0.303
559	0.301
559	0.3
560	0.298
560	0.296
560	0.295
561	0.295
561	0.294
562	0.292
562	0.291
563	0.29
563	0.288
564	0.287
564	0.287
564	0.286
565	0.286
565	0.285
566	0.284
566	0.283
567	0.283
567	0.282
568	0.281
568	0.28
568	0.279
569	0.278
569	0.277
570	0.275
570	0.273
571	0.272
571	0.271
572	0.269
572	0.267
573	0.266
573	0.264
573	0.262
574	0.261
574	0.26
575	0.26
575	0.261
576	0.26
576	0.259
577	0.257
577	0.256
577	0.257
578	0.257
578	0.257
579	0.258
579	0.257
580	0.255
580	0.252
581	0.25
581	0.249
581	0.249
582	0.249
582	0.249
583	0.249
583	0.248
584	0.246
584	0.244
585	0.245
585	0.246
585	0.246
586	0.246
586	0.245
587	0.243
587	0.242
588	0.241
588	0.24
589	0.24
589	0.24
590	0.239
590	0.238
590	0.239
591	0.24
591	0.239
592	0.238
592	0.237
593	0.237
593	0.237
594	0.236
594	0.235
594	0.235
595	0.234
595	0.233
596	0.232
596	0.233
597	0.235
597	0.234
598	0.234
598	0.234
598	0.234
599	0.234
599	0.233
600	0.232
600	0.232
601	0.232
601	0.232
602	0.231
602	0.231
602	0.23
603	0.23
603	0.231
604	0.231
604	0.231
605	0.232
605	0.232
606	0.231
606	0.23
606	0.23
607	0.229
607	0.229
608	0.228
608	0.227
609	0.226
609	0.227
610	0.226
610	0.225
610	0.225
611	0.225
611	0.225
612	0.225
612	0.225
613	0.225
613	0.225
614	0.224
614	0.223
614	0.222
615	0.221
615	0.22
616	0.22
616	0.219
617	0.219
617	0.218
618	0.217
618	0.217
618	0.216
619	0.216
619	0.216
620	0.216
620	0.215
621	0.214
621	0.213
622	0.212
622	0.211
622	0.21
623	0.209
623	0.209
624	0.209
624	0.208
625	0.208
625	0.208
626	0.207
626	0.206
626	0.207
627	0.206
627	0.206
628	0.206
628	0.205
629	0.204
629	0.203
630	0.202
630	0.2
630	0.199
631	0.198
631	0.196
632	0.195
632	0.194
633	0.192
633	0.19
634	0.188
634	0.186
634	0.185
635	0.183
635	0.182
636	0.18
636	0.178
637	0.176
637	0.173
638	0.171
638	0.168
638	0.166
639	0.163
639	0.159
640	0.156
640	0.152
641	0.149
641	0.145
642	0.142
642	0.138
642	0.135
643	0.13
643	0.126
644	0.121
644	0.116
645	0.112
645	0.107
646	0.101
646	0.096
646	0.089
647	0.083
647	0.076
648	0.069
648	0.062
649	0.055
649	0.048
650	0.041
650	0.034
650	0.026
651	0.016
651	0.004
652	-0.01
652	-0.024
653	-0.037
653	-0.05
653	-0.046
654	-0.027
654	-0.023
655	-0.028
655	-0.034
656	-0.041
656	-0.049
657	-0.054
657	-0.06
657	-0.067
658	-0.075
658	-0.107
659	-0.196
659	-0.288
660	-0.329
660	-0.358
661	-0.387
661	-0.417
661	-0.448
662	-0.477
662	-0.508
663	-0.544
663	-0.583
664	-0.62
664	-0.662
665	-0.709
665	-0.756
665	-0.801
666	-0.852
666	-0.907
667	-0.963
667	-1.026
668	-1.085
668	-1.154
669	-1.222
669	-1.295
669	-1.373
670	-1.454
670	-1.562
671	-1.714
671	-2.002
672	-2.274
672	-2.448
672	-2.574
673	-2.674
673	-2.756
674	-2.831
674	-2.85
675	-2.866
675	-2.871
676	-2.869
676	-2.835
676	-2.769
677	-2.689
677	-2.596
678	-2.459
678	-2.246
679	-1.836
679	-1.647
680	-1.538
680	-1.457
680	-1.387
681	-1.336
681	-1.28
682	-1.237
682	-1.193
683	-1.149
683	-1.124
684	-1.094
684	-1.074
684	-1.05
685	-1.029
685	-1.017
686	-0.994
686	-0.98
687	-0.97
687	-0.958
687	-0.959
688	-0.942
688	-0.935
689	-0.937
689	-0.934
690	-0.919
690	-0.909
691	-0.905
691	-0.908
691	-0.907
692	-0.907
692	-0.903
693	-0.91
693	-0.919
694	-0.901
694	-0.9
695	-0.905
695	-0.898
695	-0.906
696	-0.912
696	-0.906
697	-0.9
697	-0.894
698	-0.889
698	-0.882
698	-0.896
699	-0.894
699	-0.894
700	-0.914
700	-0.907
701	-0.894
701	-0.888
702	-0.888
702	-0.888
702	-0.889
703	-0.878
703	-0.866
704	-0.874
704	-0.877
705	-0.866
705	-0.865
705	-0.859
706	-0.852
706	-0.848
707	-0.86
707	-0.863
708	-0.862
708	-0.858
709	-0.861
709	-0.858
709	-0.854
710	-0.862
710	-0.866
711	-0.865
711	-0.865
712	-0.856
712	-0.852
713	-0.856
713	-0.857
713	-0.834
714	-0.836
714	-0.839
715	-0.83
715	-0.838
716	-0.854
716	-0.864
716	-0.864
717	-0.872
717	-0.866
718	-0.86
718	-0.861
719	-0.857
719	-0.849
720	-0.846
720	-0.842
720	-0.835
721	-0.825
721	-0.829
722	-0.826
722	-0.822
723	-0.841
723	-0.855
723	-0.862
724	-0.862
724	-0.865
725	-0.859
725	-0.863
726	-0.866
726	-0.858
727	-0.859
727	-0.866
727	-0.856
728	-0.842
728	-0.839
729	-0.84
729	-0.844
730	-0.849
730	-0.839
730	-0.845
731	-0.849
731	-0.85
732	-0.851
732	-0.845
733	-0.862
733	-0.869
734	-0.877
734	-0.869
734	-0.851
735	-0.842
735	-0.837
736	-0.835
736	-0.829
737	-0.83
737	-0.82
737	-0.811
738	-0.795
738	-0.784
739	-0.786
739	-0.788
740	-0.802
740	-0.802
741	-0.812
741	-0.821
741	-0.829
742	-0.836
742	-0.85
743	-0.858
743	-0.86
744	-0.862
744	-0.869
744	-0.862
745	-0.871
745	-0.86
746	-0.856
746	-0.848
747	-0.85
747	-0.841
748	-0.845
748	-0.85
748	-0.851
749	-0.843
749	-0.851
750	-0.841
750	-0.844
751	-0.842
751	-0.839
751	-0.853
752	-0.856
752	-0.857
753	-0.859
753	-0.853
754	-0.872
754	-0.872
754	-0.879
755	-0.878
755	-0.871
756	-0.875
756	-0.858
757	-0.849
757	-0.839
758	-0.837
758	-0.836
758	-0.831
759	-0.835
759	-0.836
760	-0.836
760	-0.836
761	-0.83
761	-0.836
761	-0.837
762	-0.842
762	-0.844
763	-0.843
763	-0.848
764	-0.847
764	-0.841
764	-0.845
765	-0.846
765	-0.851
766	-0.855
766	-0.856
767	-0.87
767	-0.866
768	-0.865
768	-0.856
768	-0.851
769	-0.855
769	-0.863
770	-0.871
770	-0.874
771	-0.869
771	-0.868
771	-0.875
772	-0.88
772	-0.901
773	-0.901
773	-0.901
774	-0.899
774	-0.881
775	-0.869
775	-0.87
775	-0.874
776	-0.886
776	-0.882
777	-0.882
777	-0.864
778	-0.874
778	-0.882
778	-0.882
779	-0.892
779	-0.906
780	-0.901
780	-0.911
781	-0.899
781	-0.888
781	-0.902
782	-0.923
782	-0.925
783	-0.927
783	-0.935
784	-0.939
784	-0.933
784	-0.953
785	-0.946
785	-0.958
786	-0.963
786	-0.956
787	-0.944
787	-0.952
788	-0.943
788	-0.938
788	-0.939
789	-0.94
789	-0.93
790	-0.929
790	-0.913
791	-0.922
791	-0.916
791	-0.911
792	-0.905
792	-0.909
793	-0.91
793	-0.898
794	-0.889
794	-0.882
794	-0.888
795	-0.909
795	-0.894
796	-0.9
796	-0.895
797	-0.888
797	-0.879
797	-0.873
798	-0.893
798	-0.897
799	-0.897
799	-0.882
800	-0.878
800	-0.886
801	-0.883
801	-0.887
801	-0.883
802	-0.882
802	-0.881
803	-0.875
803	-0.867
804	-0.875
804	-0.884
804	-0.867
805	-0.848
805	-0.839
806	-0.84
806	-0.839
807	-0.842
807	-0.84
807	-0.822
808	-0.818
808	-0.812
809	-0.807
809	-0.808
810	-0.811
810	-0.808
810	-0.804
811	-0.805
811	-0.794
812	-0.789
812	-0.793
813	-0.798
813	-0.797
813	-0.792
814	-0.791
814	-0.798
815	-0.79
815	-0.785
816	-0.782
816	-0.801
817	-0.814
817	-0.816
817	-0.824
818	-0.818
818	-0.814
819	-0.825
819	-0.822
820	-0.832
820	-0.833
820	-0.831
821	-0.826
821	-0.821
822	-0.821
822	-0.808
823	-0.822
823	-0.822
823	-0.817
824	-0.814
824	-0.826
825	-0.824
825	-0.822
826	-0.816
826	-0.812
826	-0.81
827	-0.81
827	-0.795
828	-0.795
828	-0.788
829	-0.782
829	-0.766
829	-0.763
830	-0.76
830	-0.745
831	-0.738
831	-0.727
832	-0.72
832	-0.716
832	-0.709
833	-0.708
833	-0.712
834	-0.708
834	-0.703
835	-0.695
835	-0.696
835	-0.69
836	-0.686
836	-0.683
837	-0.673
837	-0.665
838	-0.653
838	-0.636
839	-0.629
839	-0.616
839	-0.606
840	-0.604
840	-0.595
841	-0.584
841	-0.576
842	-0.567
842	-0.554
842	-0.55
843	-0.546
843	-0.541
844	-0.538
844	-0.527
845	-0.515
845	-0.506
845	-0.495
846	-0.482
846	-0.471
847	-0.459
847	-0.445
848	-0.428
848	-0.41
848	-0.395
849	-0.382
849	-0.367
850	-0.356
850	-0.344
851	-0.33
851	-0.313
851	-0.303
852	-0.287
852	-0.275
853	-0.266
853	-0.255
854	-0.243
854	-0.232
854	-0.217
855	-0.205
855	-0.197
856	-0.188
856	-0.179
857	-0.17
857	-0.161
857	-0.146
858	-0.133
858	-0.125
859	-0.112
859	-0.1
860	-0.088
860	-0.072
860	-0.06
861	-0.049
861	-0.038
862	-0.029
862	-0.019
863	-0.009
863	0.002
863	0.009
864	0.016
864	0.024
865	0.032
865	0.039
866	0.046
866	0.053
866	0.059
867	0.065
867	0.071
868	0.076
868	0.082
869	0.087
869	0.09
869	0.093
870	0.095
870	0.097
871	0.099
871	0.101
872	0.102
872	0.102
872	0.103
873	0.103
873	0.102
874	0.101
874	0.101
875	0.1
875	0.1
875	0.1
876	0.1
876	0.099
877	0.099
877	0.098
878	0.097
878	0.097
878	0.098
879	0.097
879	0.097
880	0.097
880	0.096
881	0.094
881	0.093
881	0.092
882	0.091
882	0.089
883	0.087
883	0.085
884	0.085
884	0.084
884	0.084
885	0.083
885	0.083
886	0.083
886	0.082
887	0.082
887	0.081
887	0.08
888	0.08
888	0.079
889	0.078
889	0.076
890	0.075
890	0.075
890	0.074
891	0.075
891	0.074
892	0.075
892	0.075
893	0.075
893	0.075
893	0.076
894	0.076
894	0.077
895	0.077
895	0.076
895	0.076
896	0.076
896	0.076
897	0.076
897	0.076
898	0.076
898	0.077
898	0.077
899	0.077
899	0.077
900	0.078
900	0.078
901	0.077
901	0.077
901	0.077
902	0.077
902	0.077
903	0.077
903	0.076
904	0.076
904	0.075
904	0.075
905	0.075
905	0.075
906	0.076
906	0.076
907	0.076
907	0.076
907	0.076
908	0.076
908	0.077
909	0.077
909	0.077
910	0.078
910	0.078
910	0.079
911	0.079
911	0.08
912	0.081
912	0.082
913	0.083
913	0.083
913	0.084
914	0.085
914	0.085
915	0.085
915	0.084
916	0.084
916	0.084
916	0.083
917	0.083
917	0.082
918	0.082
918	0.081
918	0.081
919	0.08
919	0.08
920	0.08
920	0.081
921	0.081
921	0.081
921	0.081
922	0.081
922	0.081
923	0.081
923	0.081
924	0.081
924	0.08
924	0.08
925	0.079
925	0.078
926	0.077
926	0.076
927	0.075
927	0.074
927	0.074
928	0.074
928	0.074
929	0.075
929	0.075
930	0.076
930	0.077
930	0.078
931	0.078
931	0.079
932	0.08
932	0.081
933	0.082
933	0.082
933	0.081
934	0.081
934	0.08
935	0.079
935	0.078
935	0.077
936	0.076
936	0.075
937	0.073
937	0.072
938	0.072
938	0.071
938	0.07
939	0.069
939	0.069
940	0.068
940	0.067
941	0.066
941	0.065
941	0.065
942	0.064
942	0.064
943	0.063
943	0.063
944	0.062
944	0.061
944	0.061
945	0.061
945	0.061
946	0.06
946	0.059
946	0.059
947	0.058
947	0.058
948	0.058
948	0.059
949	0.059
949	0.06
949	0.062
950	0.063
950	0.064
951	0.066
951	0.067
952	0.068
952	0.069
952	0.07
953	0.071
953	0.071
954	0.071
954	0.071
955	0.071
955	0.071
955	0.071
956	0.07
956	0.069
957	0.067
957	0.066
957	0.065
958	0.064
958	0.063
959	0.062
959	0.061
960	0.06
960	0.06
960	0.06
961	0.06
961	0.061
962	0.061
962	0.062
963	0.062
963	0.062
963	0.063
964	0.063
964	0.064
965	0.064
965	0.065
966	0.065
966	0.066
966	0.066
967	0.067
967	0.067
968	0.068
968	0.068
968	0.068
969	0.068
969	0.068
970	0.067
970	0.067
971	0.067
971	0.066
971	0.066
972	0.067
972	0.067
973	0.067
973	0.067
974	0.066
974	0.066
974	0.067
975	0.067
975	0.066
976	0.066
976	0.066
976	0.066
977	0.065
977	0.065
978	0.064
978	0.064
979	0.064
979	0.063
979	0.063
980	0.063
980	0.063
981	0.063
981	0.063
982	0.063
982	0.063
982	0.063
983	0.063
983	0.063
984	0.062
984	0.062
984	0.061
985	0.061
985	0.06
986	0.059
986	0.058
987	0.057
987	0.056
987	0.056
988	0.055
988	0.054
989	0.052
989	0.051
990	0.05
990	0.049
990	0.048
991	0.047
991	0.046
992	0.046
992	0.045
992	0.044
993	0.043
993	0.043
994	0.042
994	0.041
995	0.04
995	0.038
995	0.037
996	0.036
996	0.035
997	0.033
997	0.033
997	0.032
998	0.031
998	0.031
999	0.031
999	0.031
1000	0.032
1000	0.032
1000	0.033
1001	0.034
1001	0.035
1002	0.036
1002	0.036
1003	0.037
1003	0.037
1003	0.038
1004	0.038
1004	0.038
1005	0.038
1005	0.038
1005	0.037
1006	0.037
1006	0.036
1007	0.036
1007	0.035
1008	0.035
1008	0.034
1008	0.034
1009	0.034
1009	0.034
1010	0.035
1010	0.036
1010	0.036
1011	0.037
1011	0.037
1012	0.038
1012	0.039
1013	0.04
1013	0.041
1013	0.041
1014	0.042
1014	0.042
1015	0.042
1015	0.042
1016	0.042
1016	0.042
1016	0.041
1017	0.041
1017	0.04
1018	0.04
1018	0.039
1018	0.039
1019	0.039
1019	0.038
1020	0.038
1020	0.037
1021	0.037
1021	0.037
1021	0.037
1022	0.036
1022	0.036
1023	0.036
1023	0.035
1023	0.035
1024	0.035
1024	0.035
1025	0.035
1025	0.036
1026	0.035
1026	0.036
1026	0.036
1027	0.036
1027	0.036
1028	0.037
1028	0.038
1028	0.038
1029	0.038
1029	0.039
1030	0.038
1030	0.038
1031	0.039
1031	0.039
1031	0.039
1032	0.039
1032	0.038
1033	0.038
1033	0.038
1033	0.037
1034	0.036
1034	0.036
1035	0.035
1035	0.035
1036	0.034
1036	0.033
1036	0.032
1037	0.032
1037	0.032
1038	0.032
1038	0.032
1039	0.032
1039	0.032
1039	0.032
1040	0.033
1040	0.033
1041	0.033
1041	0.032
1041	0.032
1042	0.031
1042	0.031
1043	0.03
1043	0.03
1044	0.03
1044	0.029
1044	0.028
1045	0.027
1045	0.027
1046	0.027
1046	0.027
1046	0.027
1047	0.026
1047	0.027
1048	0.027
1048	0.027
1049	0.027
1049	0.027
1049	0.027
1050	0.026
1050	0.025
1051	0.024
1051	0.023
1051	0.023
1052	0.022
1052	0.02
1053	0.02
1053	0.019
1053	0.019
1054	0.018
1054	0.018
1055	0.018
1055	0.018
1056	0.018
1056	0.018
1056	0.018
1057	0.018
1057	0.018
1058	0.018
1058	0.018
1058	0.018
1059	0.018
1059	0.017
1060	0.016
1060	0.016
1061	0.016
1061	0.016
1061	0.016
1062	0.015
1062	0.015
1063	0.015
1063	0.014
1063	0.014
1064	0.014
1064	0.015
1065	0.015
1065	0.014
1066	0.014
1066	0.013
1066	0.013
1067	0.012
1067	0.011
1068	0.01
1068	0.009
1068	0.008
1069	0.007
1069	0.006
1070	0.005
1070	0.004
1071	0.004
1071	0.004
1071	0.003
1072	0.003
1072	0.003
1073	0.002
1073	0.002
1073	0.002
1074	0.002
1074	0.001
1075	0.001
1075	0
1076	-0.001
1076	-0.001
1076	-0.001
1077	-0.002
1077	-0.002
1078	-0.003
1078	-0.003
1078	-0.004
1079	-0.004
1079	-0.004
1080	-0.005
1080	-0.006
1080	-0.007
1081	-0.008
1081	-0.008
1082	-0.009
1082	-0.01
1083	-0.012
1083	-0.013
1083	-0.014
1084	-0.016
1084	-0.016
1085	-0.018
1085	-0.019
1085	-0.019
1086	-0.021
1086	-0.022
1087	-0.024
1087	-0.024
1088	-0.026
1088	-0.027
1088	-0.027
1089	-0.029
1089	-0.03
1090	-0.031
1090	-0.032
1090	-0.034
1091	-0.035
1091	-0.036
1092	-0.036
1092	-0.037
1092	-0.038
1093	-0.039
1093	-0.039
1094	-0.04
1094	-0.041
1095	-0.044
1095	-0.044
1095	-0.044
1096	-0.046
1096	-0.049
1097	-0.049
1097	-0.051
1097	-0.053
1098	-0.056
1098	-0.058
1099	-0.06
1099	-0.061
1100	-0.064
1100	-0.067
1100	-0.07
1101	-0.074
1101	-0.077
1102	-0.08
1102	-0.083
1102	-0.084
1103	-0.087
1103	-0.09
1104	-0.094
1104	-0.098
1104	-0.1
1105	-0.101
1105	-0.104
1106	-0.109
1106	-0.111
1107	-0.115
1107	-0.121
1107	-0.126
1108	-0.128
1108	-0.128
1109	-0.133
1109	-0.137
1109	-0.142
1110	-0.144
1110	-0.147
1111	-0.158
1111	-0.158
