Data from 3.3A_17C_Absorbance__119__02986.txt Node

Date: Tue Jun 20 17:16:08 CEST 2023
User: Marek
Spectrometer: MAYP115816
Trigger mode: 0
Integration Time (sec): 2.200000E-1
Scans to average: 10
Electric dark correction enabled: true
Nonlinearity correction enabled: true
Boxcar width: 5
XAxis mode: Wavelengths
Number of Pixels in Spectrum: 2068
>>>>>Begin Spectral Data<<<<<
199	-0.819
199	-0.8
200	-0.764
200	-0.707
201	-0.679
201	-0.671
202	-0.655
202	-0.648
203	-0.643
203	-0.636
204	-0.616
204	-0.598
205	-0.574
205	-0.564
205	-0.573
206	-0.574
206	-0.57
207	-0.563
207	-0.568
208	-0.572
208	-0.577
209	-0.577
209	-0.581
210	-0.596
210	-0.603
211	-0.596
211	-0.6
212	-0.609
212	-0.616
213	-0.613
213	-0.609
213	-0.607
214	-0.616
214	-0.62
215	-0.618
215	-0.623
216	-0.634
216	-0.64
217	-0.638
217	-0.638
218	-0.644
218	-0.646
219	-0.653
219	-0.654
220	-0.658
220	-0.663
221	-0.665
221	-0.665
221	-0.655
222	-0.655
222	-0.653
223	-0.651
223	-0.653
224	-0.655
224	-0.651
225	-0.648
225	-0.649
226	-0.648
226	-0.647
227	-0.654
227	-0.663
228	-0.666
228	-0.673
229	-0.679
229	-0.677
229	-0.678
230	-0.672
230	-0.671
231	-0.666
231	-0.662
232	-0.666
232	-0.66
233	-0.66
233	-0.649
234	-0.649
234	-0.643
235	-0.646
235	-0.66
236	-0.665
236	-0.668
236	-0.669
237	-0.669
237	-0.67
238	-0.671
238	-0.673
239	-0.674
239	-0.683
240	-0.678
240	-0.672
241	-0.669
241	-0.671
242	-0.675
242	-0.682
243	-0.685
243	-0.686
243	-0.692
244	-0.69
244	-0.691
245	-0.693
245	-0.697
246	-0.707
246	-0.71
247	-0.717
247	-0.701
248	-0.701
248	-0.703
249	-0.709
249	-0.71
250	-0.709
250	-0.716
250	-0.712
251	-0.711
251	-0.707
252	-0.708
252	-0.723
253	-0.717
253	-0.729
254	-0.733
254	-0.734
255	-0.744
255	-0.744
256	-0.747
256	-0.76
257	-0.771
257	-0.769
258	-0.769
258	-0.777
258	-0.772
259	-0.766
259	-0.784
260	-0.783
260	-0.772
261	-0.782
261	-0.768
262	-0.772
262	-0.771
263	-0.761
263	-0.765
264	-0.776
264	-0.777
265	-0.767
265	-0.768
265	-0.779
266	-0.771
266	-0.771
267	-0.77
267	-0.785
268	-0.792
268	-0.788
269	-0.781
269	-0.794
270	-0.8
270	-0.8
271	-0.813
271	-0.822
272	-0.826
272	-0.828
272	-0.822
273	-0.833
273	-0.848
274	-0.84
274	-0.835
275	-0.832
275	-0.819
276	-0.822
276	-0.828
277	-0.829
277	-0.826
278	-0.831
278	-0.83
278	-0.817
279	-0.825
279	-0.839
280	-0.842
280	-0.853
281	-0.846
281	-0.838
282	-0.843
282	-0.839
283	-0.832
283	-0.846
284	-0.859
284	-0.868
285	-0.849
285	-0.855
285	-0.847
286	-0.853
286	-0.872
287	-0.868
287	-0.867
288	-0.866
288	-0.847
289	-0.846
289	-0.853
290	-0.861
290	-0.849
291	-0.854
291	-0.851
292	-0.83
292	-0.827
292	-0.829
293	-0.817
293	-0.814
294	-0.814
294	-0.801
295	-0.783
295	-0.794
296	-0.806
296	-0.799
297	-0.788
297	-0.792
298	-0.79
298	-0.809
298	-0.812
299	-0.792
299	-0.784
300	-0.78
300	-0.762
301	-0.744
301	-0.747
302	-0.758
302	-0.745
303	-0.738
303	-0.724
304	-0.709
304	-0.712
305	-0.705
305	-0.715
305	-0.729
306	-0.714
306	-0.714
307	-0.704
307	-0.714
308	-0.716
308	-0.712
309	-0.714
309	-0.71
310	-0.708
310	-0.702
311	-0.69
311	-0.708
311	-0.695
312	-0.693
312	-0.682
313	-0.673
313	-0.674
314	-0.68
314	-0.677
315	-0.673
315	-0.668
316	-0.662
316	-0.651
317	-0.644
317	-0.641
318	-0.631
318	-0.629
318	-0.617
319	-0.607
319	-0.598
320	-0.595
320	-0.593
321	-0.588
321	-0.586
322	-0.58
322	-0.572
323	-0.574
323	-0.564
324	-0.562
324	-0.549
324	-0.538
325	-0.524
325	-0.504
326	-0.496
326	-0.471
327	-0.453
327	-0.43
328	-0.397
328	-0.373
329	-0.343
329	-0.314
330	-0.286
330	-0.246
330	-0.208
331	-0.167
331	-0.131
332	-0.094
332	-0.058
333	-0.026
333	0.013
334	0.046
334	0.075
335	0.106
335	0.13
336	0.155
336	0.179
336	0.198
337	0.219
337	0.239
338	0.256
338	0.268
339	0.284
339	0.297
340	0.307
340	0.317
341	0.326
341	0.334
342	0.342
342	0.349
342	0.355
343	0.361
343	0.368
344	0.371
344	0.375
345	0.38
345	0.383
346	0.385
346	0.388
347	0.39
347	0.392
348	0.394
348	0.396
348	0.397
349	0.397
349	0.399
350	0.399
350	0.4
351	0.401
351	0.401
352	0.401
352	0.401
353	0.401
353	0.401
354	0.401
354	0.402
354	0.402
355	0.402
355	0.402
356	0.402
356	0.402
357	0.402
357	0.402
358	0.402
358	0.402
359	0.402
359	0.402
360	0.402
360	0.403
360	0.402
361	0.402
361	0.402
362	0.402
362	0.402
363	0.402
363	0.402
364	0.402
364	0.402
365	0.402
365	0.401
366	0.401
366	0.401
366	0.401
367	0.401
367	0.4
368	0.4
368	0.399
369	0.399
369	0.399
370	0.398
370	0.398
371	0.398
371	0.398
372	0.397
372	0.397
372	0.397
373	0.396
373	0.396
374	0.396
374	0.395
375	0.395
375	0.394
376	0.394
376	0.393
377	0.393
377	0.392
378	0.392
378	0.391
378	0.391
379	0.39
379	0.39
380	0.39
380	0.39
381	0.389
381	0.389
382	0.388
382	0.388
383	0.387
383	0.387
383	0.386
384	0.386
384	0.386
385	0.385
385	0.384
386	0.384
386	0.384
387	0.383
387	0.383
388	0.382
388	0.382
389	0.382
389	0.382
389	0.381
390	0.381
390	0.381
391	0.381
391	0.38
392	0.38
392	0.379
393	0.379
393	0.378
394	0.378
394	0.377
394	0.377
395	0.376
395	0.375
396	0.375
396	0.374
397	0.374
397	0.373
398	0.373
398	0.372
399	0.372
399	0.372
400	0.371
400	0.371
400	0.371
401	0.37
401	0.369
402	0.369
402	0.369
403	0.369
403	0.369
404	0.368
404	0.367
405	0.367
405	0.367
405	0.366
406	0.366
406	0.366
407	0.366
407	0.365
408	0.365
408	0.364
409	0.364
409	0.364
410	0.364
410	0.364
411	0.363
411	0.363
411	0.362
412	0.362
412	0.361
413	0.361
413	0.361
414	0.36
414	0.36
415	0.36
415	0.359
416	0.359
416	0.359
416	0.358
417	0.358
417	0.358
418	0.358
418	0.358
419	0.357
419	0.357
420	0.357
420	0.357
421	0.356
421	0.356
421	0.356
422	0.357
422	0.356
423	0.356
423	0.356
424	0.355
424	0.355
425	0.355
425	0.355
426	0.355
426	0.355
427	0.355
427	0.355
427	0.355
428	0.355
428	0.354
429	0.354
429	0.354
430	0.353
430	0.353
431	0.353
431	0.353
432	0.352
432	0.352
432	0.352
433	0.351
433	0.352
434	0.352
434	0.352
435	0.352
435	0.352
436	0.352
436	0.352
437	0.352
437	0.352
437	0.352
438	0.352
438	0.352
439	0.352
439	0.351
440	0.351
440	0.351
441	0.351
441	0.351
442	0.351
442	0.35
442	0.35
443	0.35
443	0.35
444	0.35
444	0.35
445	0.35
445	0.351
446	0.351
446	0.351
447	0.351
447	0.351
447	0.351
448	0.352
448	0.352
449	0.352
449	0.352
450	0.352
450	0.352
451	0.353
451	0.353
452	0.353
452	0.353
452	0.353
453	0.353
453	0.353
454	0.353
454	0.353
455	0.354
455	0.354
456	0.354
456	0.354
457	0.354
457	0.354
458	0.355
458	0.355
458	0.355
459	0.356
459	0.355
460	0.355
460	0.355
461	0.356
461	0.356
462	0.357
462	0.358
463	0.359
463	0.36
463	0.361
464	0.361
464	0.362
465	0.363
465	0.363
466	0.364
466	0.365
467	0.365
467	0.365
467	0.365
468	0.365
468	0.366
469	0.367
469	0.368
470	0.369
470	0.369
471	0.37
471	0.37
472	0.371
472	0.372
472	0.373
473	0.374
473	0.376
474	0.377
474	0.378
475	0.379
475	0.38
476	0.381
476	0.383
477	0.384
477	0.385
477	0.386
478	0.388
478	0.389
479	0.39
479	0.392
480	0.393
480	0.394
481	0.395
481	0.396
482	0.398
482	0.399
482	0.401
483	0.404
483	0.407
484	0.408
484	0.41
485	0.412
485	0.414
486	0.416
486	0.418
487	0.42
487	0.422
487	0.424
488	0.425
488	0.426
489	0.429
489	0.431
490	0.434
490	0.436
491	0.439
491	0.441
492	0.444
492	0.446
492	0.448
493	0.45
493	0.453
494	0.457
494	0.46
495	0.462
495	0.465
496	0.468
496	0.471
496	0.474
497	0.478
497	0.481
498	0.484
498	0.487
499	0.49
499	0.494
500	0.498
500	0.502
501	0.505
501	0.509
501	0.512
502	0.515
502	0.518
503	0.522
503	0.526
504	0.529
504	0.532
505	0.536
505	0.54
506	0.544
506	0.548
506	0.552
507	0.557
507	0.561
508	0.565
508	0.569
509	0.574
509	0.577
510	0.581
510	0.585
511	0.589
511	0.592
511	0.595
512	0.599
512	0.601
513	0.604
513	0.607
514	0.61
514	0.614
515	0.617
515	0.619
515	0.622
516	0.625
516	0.628
517	0.63
517	0.633
518	0.635
518	0.636
519	0.638
519	0.64
520	0.642
520	0.644
520	0.646
521	0.648
521	0.65
522	0.651
522	0.653
523	0.655
523	0.657
524	0.658
524	0.66
524	0.66
525	0.661
525	0.662
526	0.663
526	0.663
527	0.664
527	0.663
528	0.663
528	0.663
529	0.662
529	0.662
529	0.661
530	0.66
530	0.659
531	0.657
531	0.656
532	0.654
532	0.653
533	0.652
533	0.649
533	0.648
534	0.645
534	0.643
535	0.64
535	0.639
536	0.636
536	0.633
537	0.631
537	0.628
538	0.624
538	0.621
538	0.617
539	0.615
539	0.612
540	0.608
540	0.604
541	0.599
541	0.595
542	0.591
542	0.587
542	0.583
543	0.578
543	0.574
544	0.569
544	0.564
545	0.56
545	0.555
546	0.55
546	0.545
547	0.54
547	0.534
547	0.53
548	0.525
548	0.52
549	0.515
549	0.51
550	0.505
550	0.5
551	0.494
551	0.489
551	0.484
552	0.479
552	0.474
553	0.469
553	0.464
554	0.459
554	0.453
555	0.448
555	0.443
556	0.437
556	0.432
556	0.427
557	0.422
557	0.417
558	0.412
558	0.407
559	0.401
559	0.396
560	0.391
560	0.386
560	0.381
561	0.377
561	0.372
562	0.368
562	0.363
563	0.359
563	0.354
564	0.35
564	0.346
564	0.342
565	0.338
565	0.334
566	0.33
566	0.326
567	0.322
567	0.318
568	0.314
568	0.31
568	0.306
569	0.302
569	0.298
570	0.293
570	0.288
571	0.285
571	0.281
572	0.276
572	0.272
573	0.268
573	0.264
573	0.259
574	0.256
574	0.253
575	0.25
575	0.248
576	0.245
576	0.241
577	0.237
577	0.235
577	0.233
578	0.23
578	0.229
579	0.227
579	0.225
580	0.22
580	0.215
581	0.211
581	0.208
581	0.206
582	0.205
582	0.203
583	0.201
583	0.198
584	0.193
584	0.189
585	0.188
585	0.186
585	0.184
586	0.182
586	0.18
587	0.177
587	0.174
588	0.171
588	0.169
589	0.167
589	0.166
590	0.164
590	0.162
590	0.161
591	0.16
591	0.157
592	0.154
592	0.152
593	0.151
593	0.149
594	0.147
594	0.145
594	0.144
595	0.142
595	0.139
596	0.137
596	0.137
597	0.137
597	0.136
598	0.134
598	0.133
598	0.132
599	0.13
599	0.129
600	0.127
600	0.126
601	0.125
601	0.124
602	0.122
602	0.121
602	0.119
603	0.118
603	0.118
604	0.117
604	0.117
605	0.116
605	0.116
606	0.114
606	0.112
606	0.111
607	0.11
607	0.109
608	0.108
608	0.106
609	0.105
609	0.104
610	0.103
610	0.101
610	0.101
611	0.1
611	0.1
612	0.099
612	0.099
613	0.098
613	0.097
614	0.096
614	0.094
614	0.093
615	0.091
615	0.09
616	0.089
616	0.088
617	0.087
617	0.085
618	0.084
618	0.083
618	0.083
619	0.082
619	0.082
620	0.082
620	0.081
621	0.08
621	0.079
622	0.078
622	0.077
622	0.075
623	0.074
623	0.074
624	0.074
624	0.073
625	0.072
625	0.072
626	0.071
626	0.07
626	0.07
627	0.07
627	0.07
628	0.07
628	0.07
629	0.069
629	0.069
630	0.068
630	0.067
630	0.066
631	0.066
631	0.065
632	0.064
632	0.063
633	0.062
633	0.062
634	0.062
634	0.061
634	0.061
635	0.061
635	0.06
636	0.06
636	0.06
637	0.059
637	0.058
638	0.058
638	0.057
638	0.056
639	0.054
639	0.053
640	0.052
640	0.051
641	0.049
641	0.048
642	0.047
642	0.045
642	0.044
643	0.042
643	0.04
644	0.039
644	0.037
645	0.035
645	0.034
646	0.032
646	0.03
646	0.027
647	0.025
647	0.022
648	0.018
648	0.015
649	0.011
649	0.008
650	0.004
650	-0
650	-0.005
651	-0.011
651	-0.017
652	-0.024
652	-0.033
653	-0.039
653	-0.046
653	-0.042
654	-0.035
654	-0.039
655	-0.045
655	-0.049
656	-0.054
656	-0.06
657	-0.064
657	-0.068
657	-0.074
658	-0.079
658	-0.101
659	-0.157
659	-0.208
660	-0.234
660	-0.252
661	-0.273
661	-0.295
661	-0.317
662	-0.334
662	-0.352
663	-0.371
663	-0.394
664	-0.41
664	-0.433
665	-0.454
665	-0.474
665	-0.492
666	-0.512
666	-0.534
667	-0.555
667	-0.582
668	-0.606
668	-0.643
669	-0.678
669	-0.713
669	-0.759
670	-0.811
670	-0.922
671	-1.175
671	-1.559
672	-1.944
672	-2.242
672	-2.414
673	-2.479
673	-2.496
674	-2.513
674	-2.522
675	-2.536
675	-2.541
676	-2.538
676	-2.505
676	-2.416
677	-2.203
677	-1.804
678	-1.271
678	-1.01
679	-0.932
679	-0.891
680	-0.863
680	-0.846
680	-0.831
681	-0.831
681	-0.816
682	-0.81
682	-0.794
683	-0.78
683	-0.784
684	-0.779
684	-0.782
684	-0.778
685	-0.779
685	-0.786
686	-0.776
686	-0.776
687	-0.778
687	-0.78
687	-0.791
688	-0.786
688	-0.788
689	-0.8
689	-0.804
690	-0.795
690	-0.791
691	-0.794
691	-0.803
691	-0.808
692	-0.812
692	-0.811
693	-0.823
693	-0.838
694	-0.819
694	-0.822
695	-0.828
695	-0.824
695	-0.835
696	-0.844
696	-0.84
697	-0.838
697	-0.836
698	-0.832
698	-0.827
698	-0.845
699	-0.842
699	-0.845
700	-0.867
700	-0.862
701	-0.85
701	-0.845
702	-0.844
702	-0.844
702	-0.845
703	-0.835
703	-0.823
704	-0.832
704	-0.838
705	-0.828
705	-0.827
705	-0.822
706	-0.816
706	-0.814
707	-0.826
707	-0.831
708	-0.828
708	-0.827
709	-0.83
709	-0.826
709	-0.821
710	-0.829
710	-0.834
711	-0.832
711	-0.833
712	-0.824
712	-0.822
713	-0.83
713	-0.831
713	-0.81
714	-0.813
714	-0.817
715	-0.812
715	-0.82
716	-0.836
716	-0.847
716	-0.848
717	-0.855
717	-0.846
718	-0.842
718	-0.845
719	-0.841
719	-0.834
720	-0.827
720	-0.824
720	-0.82
721	-0.81
721	-0.814
722	-0.812
722	-0.808
723	-0.825
723	-0.838
723	-0.847
724	-0.843
724	-0.85
725	-0.842
725	-0.846
726	-0.851
726	-0.842
727	-0.844
727	-0.851
727	-0.841
728	-0.828
728	-0.824
729	-0.829
729	-0.831
730	-0.838
730	-0.829
730	-0.834
731	-0.837
731	-0.837
732	-0.84
732	-0.838
733	-0.854
733	-0.86
734	-0.869
734	-0.862
734	-0.844
735	-0.835
735	-0.832
736	-0.83
736	-0.825
737	-0.825
737	-0.813
737	-0.806
738	-0.792
738	-0.779
739	-0.784
739	-0.786
740	-0.801
740	-0.801
741	-0.81
741	-0.821
741	-0.83
742	-0.838
742	-0.855
743	-0.861
743	-0.863
744	-0.866
744	-0.872
744	-0.864
745	-0.87
745	-0.861
746	-0.858
746	-0.846
747	-0.849
747	-0.837
748	-0.839
748	-0.845
748	-0.845
749	-0.84
749	-0.847
750	-0.838
750	-0.84
751	-0.838
751	-0.836
751	-0.848
752	-0.852
752	-0.856
753	-0.858
753	-0.851
754	-0.87
754	-0.871
754	-0.878
755	-0.878
755	-0.872
756	-0.875
756	-0.86
757	-0.853
757	-0.842
758	-0.843
758	-0.84
758	-0.835
759	-0.841
759	-0.842
760	-0.839
760	-0.84
761	-0.834
761	-0.841
761	-0.84
762	-0.845
762	-0.845
763	-0.847
763	-0.849
764	-0.847
764	-0.843
764	-0.85
765	-0.849
765	-0.856
766	-0.858
766	-0.859
767	-0.875
767	-0.87
768	-0.868
768	-0.861
768	-0.856
769	-0.86
769	-0.869
770	-0.879
770	-0.882
771	-0.878
771	-0.877
771	-0.883
772	-0.888
772	-0.908
773	-0.91
773	-0.91
774	-0.909
774	-0.891
775	-0.876
775	-0.876
775	-0.879
776	-0.889
776	-0.885
777	-0.885
777	-0.866
778	-0.877
778	-0.885
778	-0.883
779	-0.891
779	-0.907
780	-0.903
780	-0.911
781	-0.901
781	-0.888
781	-0.902
782	-0.924
782	-0.922
783	-0.921
783	-0.93
784	-0.934
784	-0.927
784	-0.947
785	-0.941
785	-0.954
786	-0.961
786	-0.955
787	-0.946
787	-0.957
788	-0.949
788	-0.943
788	-0.945
789	-0.946
789	-0.934
790	-0.934
790	-0.92
791	-0.927
791	-0.922
791	-0.916
792	-0.91
792	-0.915
793	-0.917
793	-0.905
794	-0.897
794	-0.891
794	-0.896
795	-0.916
795	-0.901
796	-0.908
796	-0.903
797	-0.896
797	-0.886
797	-0.879
798	-0.9
798	-0.905
799	-0.906
799	-0.892
800	-0.886
800	-0.894
801	-0.892
801	-0.895
801	-0.893
802	-0.892
802	-0.892
803	-0.886
803	-0.878
804	-0.884
804	-0.894
804	-0.877
805	-0.859
805	-0.849
806	-0.85
806	-0.846
807	-0.849
807	-0.847
807	-0.829
808	-0.825
808	-0.816
809	-0.812
809	-0.813
810	-0.816
810	-0.814
810	-0.81
811	-0.813
811	-0.804
812	-0.799
812	-0.803
813	-0.807
813	-0.809
813	-0.804
814	-0.805
814	-0.811
815	-0.802
815	-0.798
816	-0.795
816	-0.811
817	-0.823
817	-0.826
817	-0.836
818	-0.83
818	-0.827
819	-0.836
819	-0.835
820	-0.844
820	-0.843
820	-0.842
821	-0.839
821	-0.835
822	-0.832
822	-0.821
823	-0.831
823	-0.83
823	-0.825
824	-0.822
824	-0.834
825	-0.833
825	-0.83
826	-0.825
826	-0.82
826	-0.821
827	-0.821
827	-0.811
828	-0.81
828	-0.804
829	-0.798
829	-0.784
829	-0.782
830	-0.78
830	-0.767
831	-0.76
831	-0.749
832	-0.74
832	-0.736
832	-0.731
833	-0.731
833	-0.735
834	-0.73
834	-0.724
835	-0.717
835	-0.716
835	-0.712
836	-0.708
836	-0.704
837	-0.694
837	-0.685
838	-0.672
838	-0.658
839	-0.651
839	-0.639
839	-0.628
840	-0.627
840	-0.615
841	-0.605
841	-0.598
842	-0.591
842	-0.578
842	-0.575
843	-0.571
843	-0.566
844	-0.565
844	-0.554
845	-0.54
845	-0.533
845	-0.522
846	-0.509
846	-0.498
847	-0.487
847	-0.474
848	-0.459
848	-0.443
848	-0.429
849	-0.417
849	-0.404
850	-0.393
850	-0.382
851	-0.37
851	-0.354
851	-0.344
852	-0.329
852	-0.317
853	-0.309
853	-0.298
854	-0.288
854	-0.276
854	-0.264
855	-0.254
855	-0.245
856	-0.238
856	-0.231
857	-0.224
857	-0.215
857	-0.201
858	-0.19
858	-0.183
859	-0.173
859	-0.163
860	-0.152
860	-0.139
860	-0.129
861	-0.118
861	-0.109
862	-0.101
862	-0.093
863	-0.085
863	-0.076
863	-0.07
864	-0.063
864	-0.056
865	-0.049
865	-0.044
866	-0.038
866	-0.033
866	-0.027
867	-0.022
867	-0.017
868	-0.013
868	-0.008
869	-0.003
869	-0
869	0.002
870	0.004
870	0.006
871	0.008
871	0.009
872	0.011
872	0.011
872	0.012
873	0.012
873	0.012
874	0.011
874	0.011
875	0.011
875	0.011
875	0.011
876	0.01
876	0.01
877	0.01
877	0.009
878	0.009
878	0.009
878	0.009
879	0.009
879	0.008
880	0.008
880	0.007
881	0.005
881	0.004
881	0.003
882	0.002
882	0
883	-0.001
883	-0.002
884	-0.003
884	-0.003
884	-0.004
885	-0.004
885	-0.004
886	-0.004
886	-0.004
887	-0.004
887	-0.005
887	-0.005
888	-0.005
888	-0.006
889	-0.007
889	-0.008
890	-0.008
890	-0.01
890	-0.01
891	-0.01
891	-0.01
892	-0.009
892	-0.009
893	-0.009
893	-0.009
893	-0.008
894	-0.008
894	-0.007
895	-0.007
895	-0.007
895	-0.008
896	-0.007
896	-0.007
897	-0.007
897	-0.007
898	-0.007
898	-0.006
898	-0.006
899	-0.006
899	-0.005
900	-0.005
900	-0.005
901	-0.005
901	-0.006
901	-0.006
902	-0.006
902	-0.006
903	-0.007
903	-0.007
904	-0.008
904	-0.008
904	-0.008
905	-0.008
905	-0.008
906	-0.007
906	-0.007
907	-0.007
907	-0.007
907	-0.006
908	-0.006
908	-0.005
909	-0.005
909	-0.004
910	-0.004
910	-0.003
910	-0.003
911	-0.002
911	-0.001
912	-0
912	0.001
913	0.001
913	0.002
913	0.003
914	0.004
914	0.004
915	0.004
915	0.004
916	0.004
916	0.004
916	0.003
917	0.003
917	0.003
918	0.002
918	0.002
918	0.001
919	0
919	0
920	0
920	0.001
921	0.001
921	0.001
921	0.002
922	0.002
922	0.002
923	0.003
923	0.003
924	0.002
924	0.002
924	0.001
925	-0
925	-0.001
926	-0.003
926	-0.004
927	-0.005
927	-0.006
927	-0.007
928	-0.008
928	-0.008
929	-0.008
929	-0.007
930	-0.007
930	-0.006
930	-0.005
931	-0.004
931	-0.003
932	-0.001
932	-0
933	0.001
933	0.001
933	0.001
934	0.001
934	0
935	0
935	-0.001
935	-0.002
936	-0.003
936	-0.005
937	-0.006
937	-0.007
938	-0.007
938	-0.008
938	-0.008
939	-0.009
939	-0.01
940	-0.01
940	-0.011
941	-0.011
941	-0.012
941	-0.012
942	-0.012
942	-0.012
943	-0.012
943	-0.012
944	-0.013
944	-0.013
944	-0.013
945	-0.013
945	-0.014
946	-0.014
946	-0.015
946	-0.015
947	-0.015
947	-0.016
948	-0.015
948	-0.015
949	-0.014
949	-0.013
949	-0.011
950	-0.01
950	-0.008
951	-0.007
951	-0.006
952	-0.005
952	-0.004
952	-0.003
953	-0.002
953	-0.002
954	-0.002
954	-0.002
955	-0.002
955	-0.002
955	-0.002
956	-0.003
956	-0.003
957	-0.004
957	-0.005
957	-0.006
958	-0.007
958	-0.007
959	-0.008
959	-0.008
960	-0.009
960	-0.009
960	-0.009
961	-0.009
961	-0.009
962	-0.009
962	-0.008
963	-0.008
963	-0.008
963	-0.007
964	-0.007
964	-0.006
965	-0.005
965	-0.005
966	-0.004
966	-0.004
966	-0.003
967	-0.002
967	-0.002
968	-0.002
968	-0.002
968	-0.002
969	-0.002
969	-0.002
970	-0.002
970	-0.003
971	-0.003
971	-0.003
971	-0.003
972	-0.002
972	-0.002
973	-0.002
973	-0.002
974	-0.002
974	-0.002
974	-0.002
975	-0.002
975	-0.003
976	-0.003
976	-0.003
976	-0.004
977	-0.004
977	-0.004
978	-0.005
978	-0.006
979	-0.006
979	-0.007
979	-0.007
980	-0.007
980	-0.007
981	-0.008
981	-0.008
982	-0.008
982	-0.008
982	-0.008
983	-0.008
983	-0.008
984	-0.008
984	-0.008
984	-0.008
985	-0.008
985	-0.008
986	-0.009
986	-0.01
987	-0.011
987	-0.011
987	-0.012
988	-0.013
988	-0.014
989	-0.015
989	-0.016
990	-0.017
990	-0.018
990	-0.018
991	-0.019
991	-0.02
992	-0.021
992	-0.021
992	-0.022
993	-0.023
993	-0.024
994	-0.025
994	-0.027
995	-0.028
995	-0.029
995	-0.031
996	-0.032
996	-0.033
997	-0.034
997	-0.035
997	-0.035
998	-0.035
998	-0.035
999	-0.035
999	-0.034
1000	-0.034
1000	-0.033
1000	-0.032
1001	-0.031
1001	-0.03
1002	-0.029
1002	-0.029
1003	-0.028
1003	-0.028
1003	-0.027
1004	-0.027
1004	-0.026
1005	-0.026
1005	-0.027
1005	-0.027
1006	-0.028
1006	-0.028
1007	-0.029
1007	-0.03
1008	-0.031
1008	-0.032
1008	-0.032
1009	-0.032
1009	-0.032
1010	-0.031
1010	-0.031
1010	-0.03
1011	-0.029
1011	-0.029
1012	-0.028
1012	-0.027
1013	-0.025
1013	-0.025
1013	-0.024
1014	-0.024
1014	-0.023
1015	-0.023
1015	-0.023
1016	-0.022
1016	-0.022
1016	-0.023
1017	-0.024
1017	-0.024
1018	-0.024
1018	-0.024
1018	-0.024
1019	-0.024
1019	-0.025
1020	-0.025
1020	-0.025
1021	-0.026
1021	-0.026
1021	-0.026
1022	-0.026
1022	-0.027
1023	-0.026
1023	-0.027
1023	-0.027
1024	-0.027
1024	-0.027
1025	-0.027
1025	-0.026
1026	-0.026
1026	-0.026
1026	-0.026
1027	-0.026
1027	-0.025
1028	-0.025
1028	-0.024
1028	-0.024
1029	-0.024
1029	-0.023
1030	-0.023
1030	-0.024
1031	-0.024
1031	-0.023
1031	-0.023
1032	-0.023
1032	-0.024
1033	-0.024
1033	-0.024
1033	-0.025
1034	-0.026
1034	-0.026
1035	-0.027
1035	-0.028
1036	-0.029
1036	-0.029
1036	-0.03
1037	-0.03
1037	-0.03
1038	-0.031
1038	-0.031
1039	-0.03
1039	-0.03
1039	-0.03
1040	-0.03
1040	-0.029
1041	-0.029
1041	-0.029
1041	-0.029
1042	-0.03
1042	-0.03
1043	-0.031
1043	-0.031
1044	-0.032
1044	-0.032
1044	-0.033
1045	-0.033
1045	-0.034
1046	-0.034
1046	-0.034
1046	-0.034
1047	-0.034
1047	-0.034
1048	-0.033
1048	-0.033
1049	-0.033
1049	-0.034
1049	-0.034
1050	-0.035
1050	-0.036
1051	-0.037
1051	-0.037
1051	-0.038
1052	-0.039
1052	-0.04
1053	-0.04
1053	-0.041
1053	-0.041
1054	-0.042
1054	-0.042
1055	-0.042
1055	-0.041
1056	-0.042
1056	-0.041
1056	-0.041
1057	-0.041
1057	-0.041
1058	-0.041
1058	-0.041
1058	-0.041
1059	-0.041
1059	-0.041
1060	-0.042
1060	-0.042
1061	-0.043
1061	-0.043
1061	-0.043
1062	-0.043
1062	-0.043
1063	-0.043
1063	-0.043
1063	-0.043
1064	-0.043
1064	-0.043
1065	-0.043
1065	-0.044
1066	-0.044
1066	-0.044
1066	-0.045
1067	-0.045
1067	-0.046
1068	-0.047
1068	-0.048
1068	-0.049
1069	-0.049
1069	-0.05
1070	-0.051
1070	-0.052
1071	-0.052
1071	-0.053
1071	-0.053
1072	-0.053
1072	-0.053
1073	-0.053
1073	-0.053
1073	-0.053
1074	-0.053
1074	-0.053
1075	-0.054
1075	-0.054
1076	-0.055
1076	-0.055
1076	-0.056
1077	-0.057
1077	-0.057
1078	-0.058
1078	-0.059
1078	-0.059
1079	-0.06
1079	-0.06
1080	-0.061
1080	-0.062
1080	-0.063
1081	-0.064
1081	-0.065
1082	-0.065
1082	-0.067
1083	-0.068
1083	-0.069
1083	-0.07
1084	-0.072
1084	-0.073
1085	-0.074
1085	-0.075
1085	-0.076
1086	-0.077
1086	-0.079
1087	-0.079
1087	-0.08
1088	-0.081
1088	-0.082
1088	-0.082
1089	-0.084
1089	-0.084
1090	-0.085
1090	-0.085
1090	-0.086
1091	-0.087
1091	-0.087
1092	-0.088
1092	-0.088
1092	-0.089
1093	-0.09
1093	-0.09
1094	-0.09
1094	-0.091
1095	-0.093
1095	-0.093
1095	-0.094
1096	-0.096
1096	-0.097
1097	-0.099
1097	-0.101
1097	-0.102
1098	-0.104
1098	-0.107
1099	-0.109
1099	-0.11
1100	-0.113
1100	-0.115
1100	-0.118
1101	-0.121
1101	-0.123
1102	-0.125
1102	-0.128
1102	-0.13
1103	-0.133
1103	-0.135
1104	-0.138
1104	-0.141
1104	-0.143
1105	-0.144
1105	-0.147
1106	-0.152
1106	-0.154
1107	-0.159
1107	-0.164
1107	-0.169
1108	-0.17
1108	-0.172
1109	-0.175
1109	-0.179
1109	-0.184
1110	-0.187
1110	-0.191
1111	-0.201
1111	-0.193
