Data from 3.3A_17C_Absorbance__25__02892.txt Node

Date: Tue Jun 20 17:12:41 CEST 2023
User: Marek
Spectrometer: MAYP115816
Trigger mode: 0
Integration Time (sec): 2.200000E-1
Scans to average: 10
Electric dark correction enabled: true
Nonlinearity correction enabled: true
Boxcar width: 5
XAxis mode: Wavelengths
Number of Pixels in Spectrum: 2068
>>>>>Begin Spectral Data<<<<<
199	-0.829
199	-0.807
200	-0.766
200	-0.709
201	-0.683
201	-0.675
202	-0.658
202	-0.653
203	-0.652
203	-0.646
204	-0.625
204	-0.609
205	-0.584
205	-0.577
205	-0.585
206	-0.586
206	-0.583
207	-0.575
207	-0.579
208	-0.579
208	-0.582
209	-0.583
209	-0.588
210	-0.602
210	-0.609
211	-0.603
211	-0.605
212	-0.614
212	-0.623
213	-0.618
213	-0.613
213	-0.613
214	-0.621
214	-0.623
215	-0.62
215	-0.625
216	-0.635
216	-0.641
217	-0.637
217	-0.638
218	-0.648
218	-0.649
219	-0.657
219	-0.658
220	-0.662
220	-0.669
221	-0.669
221	-0.669
221	-0.66
222	-0.659
222	-0.658
223	-0.654
223	-0.658
224	-0.656
224	-0.654
225	-0.651
225	-0.651
226	-0.652
226	-0.652
227	-0.659
227	-0.671
228	-0.674
228	-0.682
229	-0.687
229	-0.685
229	-0.685
230	-0.68
230	-0.677
231	-0.673
231	-0.668
232	-0.67
232	-0.664
233	-0.664
233	-0.652
234	-0.652
234	-0.647
235	-0.652
235	-0.663
236	-0.67
236	-0.671
236	-0.671
237	-0.67
237	-0.671
238	-0.671
238	-0.672
239	-0.674
239	-0.684
240	-0.677
240	-0.675
241	-0.671
241	-0.673
242	-0.678
242	-0.685
243	-0.684
243	-0.686
243	-0.692
244	-0.687
244	-0.687
245	-0.69
245	-0.693
246	-0.703
246	-0.705
247	-0.712
247	-0.699
248	-0.699
248	-0.702
249	-0.707
249	-0.71
250	-0.709
250	-0.717
250	-0.713
251	-0.713
251	-0.71
252	-0.711
252	-0.723
253	-0.718
253	-0.73
254	-0.734
254	-0.735
255	-0.746
255	-0.744
256	-0.747
256	-0.761
257	-0.771
257	-0.766
258	-0.769
258	-0.777
258	-0.775
259	-0.767
259	-0.785
260	-0.783
260	-0.774
261	-0.785
261	-0.772
262	-0.777
262	-0.777
263	-0.767
263	-0.77
264	-0.779
264	-0.781
265	-0.772
265	-0.775
265	-0.783
266	-0.773
266	-0.773
267	-0.773
267	-0.789
268	-0.797
268	-0.792
269	-0.786
269	-0.801
270	-0.804
270	-0.804
271	-0.816
271	-0.828
272	-0.828
272	-0.83
272	-0.822
273	-0.832
273	-0.847
274	-0.837
274	-0.832
275	-0.829
275	-0.818
276	-0.821
276	-0.827
277	-0.831
277	-0.829
278	-0.836
278	-0.835
278	-0.823
279	-0.833
279	-0.846
280	-0.848
280	-0.86
281	-0.855
281	-0.846
282	-0.851
282	-0.844
283	-0.836
283	-0.854
284	-0.866
284	-0.875
285	-0.855
285	-0.86
285	-0.851
286	-0.855
286	-0.872
287	-0.869
287	-0.868
288	-0.868
288	-0.849
289	-0.848
289	-0.856
290	-0.866
290	-0.854
291	-0.858
291	-0.858
292	-0.837
292	-0.836
292	-0.839
293	-0.828
293	-0.823
294	-0.823
294	-0.81
295	-0.791
295	-0.803
296	-0.815
296	-0.809
297	-0.798
297	-0.801
298	-0.796
298	-0.813
298	-0.818
299	-0.798
299	-0.79
300	-0.787
300	-0.77
301	-0.749
301	-0.753
302	-0.765
302	-0.75
303	-0.743
303	-0.731
304	-0.714
304	-0.718
305	-0.711
305	-0.719
305	-0.734
306	-0.718
306	-0.717
307	-0.706
307	-0.718
308	-0.721
308	-0.715
309	-0.717
309	-0.714
310	-0.709
310	-0.704
311	-0.691
311	-0.711
311	-0.697
312	-0.695
312	-0.682
313	-0.674
313	-0.676
314	-0.68
314	-0.678
315	-0.676
315	-0.669
316	-0.661
316	-0.651
317	-0.643
317	-0.639
318	-0.63
318	-0.629
318	-0.617
319	-0.606
319	-0.597
320	-0.596
320	-0.595
321	-0.592
321	-0.592
322	-0.587
322	-0.58
323	-0.58
323	-0.571
324	-0.57
324	-0.559
324	-0.548
325	-0.532
325	-0.514
326	-0.505
326	-0.478
327	-0.462
327	-0.44
328	-0.406
328	-0.381
329	-0.352
329	-0.321
330	-0.292
330	-0.254
330	-0.216
331	-0.176
331	-0.139
332	-0.103
332	-0.066
333	-0.033
333	0.005
334	0.038
334	0.067
335	0.098
335	0.123
336	0.148
336	0.173
336	0.193
337	0.213
337	0.233
338	0.25
338	0.263
339	0.28
339	0.293
340	0.303
340	0.313
341	0.322
341	0.331
342	0.34
342	0.347
342	0.353
343	0.358
343	0.364
344	0.368
344	0.372
345	0.377
345	0.38
346	0.382
346	0.385
347	0.387
347	0.388
348	0.39
348	0.392
348	0.393
349	0.394
349	0.395
350	0.395
350	0.396
351	0.397
351	0.398
352	0.398
352	0.398
353	0.399
353	0.399
354	0.399
354	0.399
354	0.399
355	0.399
355	0.399
356	0.399
356	0.399
357	0.399
357	0.399
358	0.399
358	0.399
359	0.399
359	0.399
360	0.399
360	0.4
360	0.4
361	0.399
361	0.399
362	0.4
362	0.4
363	0.4
363	0.4
364	0.399
364	0.399
365	0.399
365	0.399
366	0.399
366	0.398
366	0.398
367	0.398
367	0.398
368	0.397
368	0.397
369	0.396
369	0.396
370	0.396
370	0.395
371	0.395
371	0.394
372	0.394
372	0.393
372	0.393
373	0.393
373	0.392
374	0.392
374	0.392
375	0.391
375	0.391
376	0.39
376	0.39
377	0.39
377	0.389
378	0.389
378	0.388
378	0.388
379	0.388
379	0.387
380	0.387
380	0.387
381	0.387
381	0.386
382	0.386
382	0.386
383	0.385
383	0.385
383	0.384
384	0.384
384	0.383
385	0.383
385	0.382
386	0.382
386	0.382
387	0.381
387	0.381
388	0.38
388	0.38
389	0.379
389	0.379
389	0.378
390	0.378
390	0.378
391	0.377
391	0.377
392	0.377
392	0.376
393	0.376
393	0.376
394	0.375
394	0.375
394	0.374
395	0.374
395	0.373
396	0.372
396	0.372
397	0.371
397	0.371
398	0.37
398	0.37
399	0.37
399	0.369
400	0.368
400	0.368
400	0.368
401	0.367
401	0.367
402	0.366
402	0.366
403	0.366
403	0.366
404	0.365
404	0.365
405	0.364
405	0.364
405	0.364
406	0.364
406	0.363
407	0.363
407	0.363
408	0.362
408	0.362
409	0.362
409	0.362
410	0.361
410	0.361
411	0.361
411	0.36
411	0.36
412	0.359
412	0.359
413	0.359
413	0.358
414	0.358
414	0.358
415	0.357
415	0.357
416	0.356
416	0.356
416	0.355
417	0.355
417	0.355
418	0.355
418	0.354
419	0.354
419	0.354
420	0.354
420	0.354
421	0.354
421	0.354
421	0.354
422	0.354
422	0.354
423	0.354
423	0.353
424	0.353
424	0.353
425	0.353
425	0.352
426	0.353
426	0.352
427	0.352
427	0.352
427	0.352
428	0.352
428	0.352
429	0.352
429	0.351
430	0.351
430	0.35
431	0.35
431	0.35
432	0.35
432	0.349
432	0.349
433	0.348
433	0.348
434	0.349
434	0.349
435	0.349
435	0.349
436	0.349
436	0.349
437	0.349
437	0.349
437	0.349
438	0.349
438	0.349
439	0.349
439	0.349
440	0.348
440	0.348
441	0.348
441	0.348
442	0.348
442	0.348
442	0.348
443	0.348
443	0.348
444	0.348
444	0.348
445	0.348
445	0.348
446	0.348
446	0.348
447	0.349
447	0.349
447	0.349
448	0.349
448	0.349
449	0.349
449	0.35
450	0.35
450	0.35
451	0.35
451	0.35
452	0.35
452	0.35
452	0.35
453	0.35
453	0.35
454	0.351
454	0.351
455	0.351
455	0.352
456	0.352
456	0.352
457	0.352
457	0.352
458	0.353
458	0.353
458	0.353
459	0.353
459	0.353
460	0.353
460	0.353
461	0.353
461	0.354
462	0.354
462	0.355
463	0.356
463	0.357
463	0.358
464	0.359
464	0.359
465	0.36
465	0.361
466	0.362
466	0.362
467	0.363
467	0.363
467	0.363
468	0.363
468	0.363
469	0.364
469	0.365
470	0.366
470	0.367
471	0.368
471	0.368
472	0.369
472	0.37
472	0.371
473	0.372
473	0.373
474	0.374
474	0.375
475	0.376
475	0.378
476	0.379
476	0.38
477	0.381
477	0.383
477	0.384
478	0.385
478	0.386
479	0.388
479	0.389
480	0.39
480	0.391
481	0.393
481	0.394
482	0.396
482	0.398
482	0.399
483	0.402
483	0.404
484	0.406
484	0.408
485	0.41
485	0.412
486	0.413
486	0.415
487	0.417
487	0.419
487	0.42
488	0.422
488	0.424
489	0.426
489	0.429
490	0.431
490	0.433
491	0.436
491	0.439
492	0.441
492	0.444
492	0.446
493	0.449
493	0.451
494	0.455
494	0.458
495	0.461
495	0.463
496	0.466
496	0.469
496	0.473
497	0.476
497	0.479
498	0.482
498	0.485
499	0.488
499	0.492
500	0.496
500	0.499
501	0.503
501	0.506
501	0.509
502	0.512
502	0.516
503	0.52
503	0.523
504	0.526
504	0.53
505	0.534
505	0.537
506	0.541
506	0.546
506	0.55
507	0.554
507	0.558
508	0.562
508	0.566
509	0.57
509	0.574
510	0.578
510	0.582
511	0.585
511	0.589
511	0.592
512	0.595
512	0.598
513	0.6
513	0.604
514	0.607
514	0.611
515	0.613
515	0.616
515	0.619
516	0.622
516	0.625
517	0.628
517	0.63
518	0.632
518	0.634
519	0.635
519	0.637
520	0.639
520	0.641
520	0.643
521	0.644
521	0.646
522	0.648
522	0.65
523	0.652
523	0.654
524	0.655
524	0.656
524	0.657
525	0.658
525	0.658
526	0.659
526	0.659
527	0.659
527	0.66
528	0.659
528	0.658
529	0.658
529	0.657
529	0.656
530	0.655
530	0.654
531	0.653
531	0.652
532	0.65
532	0.649
533	0.647
533	0.646
533	0.644
534	0.642
534	0.639
535	0.637
535	0.636
536	0.633
536	0.63
537	0.628
537	0.625
538	0.621
538	0.618
538	0.615
539	0.612
539	0.608
540	0.604
540	0.6
541	0.596
541	0.592
542	0.588
542	0.584
542	0.579
543	0.575
543	0.57
544	0.566
544	0.562
545	0.557
545	0.553
546	0.548
546	0.543
547	0.537
547	0.532
547	0.527
548	0.523
548	0.518
549	0.513
549	0.508
550	0.503
550	0.498
551	0.492
551	0.486
551	0.481
552	0.476
552	0.471
553	0.466
553	0.461
554	0.455
554	0.449
555	0.444
555	0.438
556	0.433
556	0.428
556	0.422
557	0.418
557	0.413
558	0.407
558	0.402
559	0.397
559	0.392
560	0.386
560	0.381
560	0.377
561	0.373
561	0.369
562	0.364
562	0.36
563	0.355
563	0.351
564	0.346
564	0.342
564	0.339
565	0.335
565	0.331
566	0.326
566	0.322
567	0.318
567	0.314
568	0.31
568	0.306
568	0.302
569	0.298
569	0.294
570	0.289
570	0.284
571	0.281
571	0.277
572	0.273
572	0.268
573	0.264
573	0.26
573	0.255
574	0.252
574	0.249
575	0.246
575	0.245
576	0.242
576	0.238
577	0.234
577	0.231
577	0.229
578	0.227
578	0.226
579	0.224
579	0.222
580	0.217
580	0.212
581	0.208
581	0.205
581	0.203
582	0.201
582	0.2
583	0.198
583	0.195
584	0.19
584	0.186
585	0.185
585	0.184
585	0.182
586	0.18
586	0.178
587	0.175
587	0.172
588	0.169
588	0.167
589	0.165
589	0.163
590	0.161
590	0.159
590	0.158
591	0.157
591	0.154
592	0.152
592	0.149
593	0.148
593	0.147
594	0.145
594	0.143
594	0.141
595	0.14
595	0.137
596	0.135
596	0.135
597	0.135
597	0.134
598	0.132
598	0.131
598	0.129
599	0.128
599	0.127
600	0.125
600	0.124
601	0.123
601	0.122
602	0.12
602	0.119
602	0.118
603	0.117
603	0.117
604	0.116
604	0.115
605	0.115
605	0.115
606	0.113
606	0.111
606	0.11
607	0.109
607	0.108
608	0.107
608	0.104
609	0.103
609	0.103
610	0.101
610	0.099
610	0.099
611	0.099
611	0.098
612	0.098
612	0.097
613	0.097
613	0.096
614	0.094
614	0.092
614	0.092
615	0.09
615	0.089
616	0.088
616	0.087
617	0.086
617	0.084
618	0.083
618	0.082
618	0.082
619	0.081
619	0.081
620	0.081
620	0.08
621	0.078
621	0.077
622	0.076
622	0.075
622	0.073
623	0.072
623	0.072
624	0.072
624	0.071
625	0.071
625	0.071
626	0.07
626	0.07
626	0.07
627	0.07
627	0.07
628	0.07
628	0.069
629	0.069
629	0.068
630	0.067
630	0.066
630	0.065
631	0.065
631	0.064
632	0.063
632	0.063
633	0.062
633	0.061
634	0.06
634	0.06
634	0.06
635	0.059
635	0.058
636	0.058
636	0.057
637	0.056
637	0.055
638	0.055
638	0.054
638	0.053
639	0.052
639	0.051
640	0.05
640	0.049
641	0.047
641	0.046
642	0.045
642	0.044
642	0.043
643	0.041
643	0.039
644	0.038
644	0.036
645	0.035
645	0.033
646	0.032
646	0.029
646	0.027
647	0.024
647	0.021
648	0.017
648	0.013
649	0.01
649	0.007
650	0.003
650	-0.001
650	-0.006
651	-0.011
651	-0.017
652	-0.025
652	-0.033
653	-0.04
653	-0.047
653	-0.043
654	-0.037
654	-0.041
655	-0.047
655	-0.052
656	-0.058
656	-0.063
657	-0.067
657	-0.071
657	-0.077
658	-0.083
658	-0.106
659	-0.163
659	-0.213
660	-0.239
660	-0.259
661	-0.278
661	-0.3
661	-0.323
662	-0.341
662	-0.358
663	-0.377
663	-0.398
664	-0.415
664	-0.438
665	-0.459
665	-0.479
665	-0.497
666	-0.516
666	-0.539
667	-0.56
667	-0.588
668	-0.614
668	-0.651
669	-0.688
669	-0.726
669	-0.78
670	-0.859
670	-1.039
671	-1.343
671	-1.722
672	-2.089
672	-2.331
672	-2.451
673	-2.489
673	-2.502
674	-2.518
674	-2.526
675	-2.54
675	-2.541
676	-2.531
676	-2.48
676	-2.342
677	-2.057
677	-1.588
678	-1.138
678	-0.971
679	-0.914
679	-0.88
680	-0.858
680	-0.845
680	-0.835
681	-0.837
681	-0.825
682	-0.82
682	-0.805
683	-0.789
683	-0.795
684	-0.789
684	-0.791
684	-0.788
685	-0.788
685	-0.795
686	-0.785
686	-0.783
687	-0.787
687	-0.788
687	-0.8
688	-0.792
688	-0.794
689	-0.805
689	-0.808
690	-0.8
690	-0.794
691	-0.798
691	-0.809
691	-0.812
692	-0.817
692	-0.817
693	-0.828
693	-0.843
694	-0.825
694	-0.827
695	-0.834
695	-0.83
695	-0.84
696	-0.846
696	-0.843
697	-0.838
697	-0.837
698	-0.833
698	-0.828
698	-0.846
699	-0.846
699	-0.845
700	-0.866
700	-0.862
701	-0.851
701	-0.846
702	-0.848
702	-0.846
702	-0.848
703	-0.841
703	-0.828
704	-0.838
704	-0.844
705	-0.835
705	-0.836
705	-0.832
706	-0.825
706	-0.821
707	-0.835
707	-0.84
708	-0.838
708	-0.836
709	-0.837
709	-0.835
709	-0.83
710	-0.838
710	-0.84
711	-0.84
711	-0.842
712	-0.834
712	-0.829
713	-0.836
713	-0.837
713	-0.817
714	-0.818
714	-0.821
715	-0.813
715	-0.824
716	-0.841
716	-0.852
716	-0.852
717	-0.859
717	-0.85
718	-0.845
718	-0.847
719	-0.843
719	-0.836
720	-0.832
720	-0.825
720	-0.821
721	-0.81
721	-0.815
722	-0.813
722	-0.811
723	-0.828
723	-0.842
723	-0.849
724	-0.847
724	-0.852
725	-0.848
725	-0.852
726	-0.856
726	-0.846
727	-0.848
727	-0.854
727	-0.845
728	-0.833
728	-0.83
729	-0.833
729	-0.836
730	-0.842
730	-0.83
730	-0.836
731	-0.84
731	-0.84
732	-0.844
732	-0.84
733	-0.852
733	-0.859
734	-0.866
734	-0.86
734	-0.841
735	-0.833
735	-0.829
736	-0.829
736	-0.826
737	-0.825
737	-0.815
737	-0.809
738	-0.796
738	-0.785
739	-0.786
739	-0.787
740	-0.802
740	-0.802
741	-0.812
741	-0.821
741	-0.831
742	-0.839
742	-0.856
743	-0.861
743	-0.865
744	-0.868
744	-0.876
744	-0.871
745	-0.879
745	-0.866
746	-0.861
746	-0.852
747	-0.856
747	-0.846
748	-0.848
748	-0.853
748	-0.855
749	-0.849
749	-0.853
750	-0.846
750	-0.848
751	-0.848
751	-0.845
751	-0.854
752	-0.858
752	-0.862
753	-0.863
753	-0.855
754	-0.873
754	-0.873
754	-0.881
755	-0.88
755	-0.872
756	-0.873
756	-0.86
757	-0.852
757	-0.841
758	-0.841
758	-0.842
758	-0.839
759	-0.844
759	-0.843
760	-0.843
760	-0.846
761	-0.841
761	-0.846
761	-0.847
762	-0.852
762	-0.851
763	-0.85
763	-0.852
764	-0.85
764	-0.846
764	-0.85
765	-0.849
765	-0.855
766	-0.857
766	-0.858
767	-0.873
767	-0.87
768	-0.868
768	-0.861
768	-0.857
769	-0.86
769	-0.869
770	-0.878
770	-0.884
771	-0.88
771	-0.88
771	-0.886
772	-0.891
772	-0.913
773	-0.913
773	-0.914
774	-0.913
774	-0.896
775	-0.885
775	-0.882
775	-0.885
776	-0.895
776	-0.892
777	-0.89
777	-0.871
778	-0.881
778	-0.889
778	-0.887
779	-0.897
779	-0.911
780	-0.908
780	-0.917
781	-0.906
781	-0.894
781	-0.909
782	-0.929
782	-0.93
783	-0.928
783	-0.936
784	-0.94
784	-0.935
784	-0.954
785	-0.948
785	-0.961
786	-0.967
786	-0.962
787	-0.953
787	-0.962
788	-0.955
788	-0.95
788	-0.949
789	-0.95
789	-0.938
790	-0.937
790	-0.922
791	-0.928
791	-0.923
791	-0.918
792	-0.911
792	-0.915
793	-0.917
793	-0.906
794	-0.898
794	-0.892
794	-0.899
795	-0.919
795	-0.905
796	-0.91
796	-0.906
797	-0.899
797	-0.891
797	-0.885
798	-0.904
798	-0.908
799	-0.908
799	-0.894
800	-0.89
800	-0.899
801	-0.897
801	-0.902
801	-0.898
802	-0.896
802	-0.895
803	-0.89
803	-0.885
804	-0.891
804	-0.901
804	-0.883
805	-0.864
805	-0.855
806	-0.856
806	-0.854
807	-0.857
807	-0.856
807	-0.839
808	-0.833
808	-0.826
809	-0.819
809	-0.818
810	-0.82
810	-0.818
810	-0.814
811	-0.818
811	-0.808
812	-0.802
812	-0.802
813	-0.807
813	-0.809
813	-0.804
814	-0.808
814	-0.813
815	-0.805
815	-0.8
816	-0.795
816	-0.813
817	-0.827
817	-0.834
817	-0.845
818	-0.838
818	-0.837
819	-0.846
819	-0.845
820	-0.855
820	-0.854
820	-0.854
821	-0.848
821	-0.842
822	-0.84
822	-0.827
823	-0.837
823	-0.837
823	-0.831
824	-0.827
824	-0.839
825	-0.838
825	-0.835
826	-0.83
826	-0.826
826	-0.824
827	-0.826
827	-0.815
828	-0.813
828	-0.807
829	-0.803
829	-0.786
829	-0.783
830	-0.781
830	-0.767
831	-0.76
831	-0.75
832	-0.741
832	-0.737
832	-0.73
833	-0.729
833	-0.733
834	-0.729
834	-0.725
835	-0.717
835	-0.717
835	-0.712
836	-0.707
836	-0.704
837	-0.693
837	-0.685
838	-0.673
838	-0.656
839	-0.649
839	-0.636
839	-0.625
840	-0.624
840	-0.615
841	-0.604
841	-0.597
842	-0.588
842	-0.576
842	-0.574
843	-0.571
843	-0.566
844	-0.564
844	-0.553
845	-0.54
845	-0.53
845	-0.52
846	-0.508
846	-0.498
847	-0.487
847	-0.474
848	-0.459
848	-0.442
848	-0.429
849	-0.417
849	-0.405
850	-0.395
850	-0.385
851	-0.372
851	-0.355
851	-0.347
852	-0.331
852	-0.319
853	-0.31
853	-0.3
854	-0.288
854	-0.278
854	-0.266
855	-0.255
855	-0.248
856	-0.239
856	-0.23
857	-0.222
857	-0.214
857	-0.201
858	-0.191
858	-0.183
859	-0.173
859	-0.162
860	-0.152
860	-0.138
860	-0.129
861	-0.12
861	-0.11
862	-0.102
862	-0.095
863	-0.087
863	-0.078
863	-0.072
864	-0.065
864	-0.058
865	-0.052
865	-0.047
866	-0.041
866	-0.035
866	-0.03
867	-0.025
867	-0.019
868	-0.015
868	-0.01
869	-0.005
869	-0.002
869	0.001
870	0.003
870	0.005
871	0.007
871	0.008
872	0.01
872	0.01
872	0.011
873	0.011
873	0.01
874	0.01
874	0.01
875	0.009
875	0.009
875	0.009
876	0.009
876	0.009
877	0.008
877	0.008
878	0.008
878	0.008
878	0.008
879	0.008
879	0.008
880	0.008
880	0.007
881	0.006
881	0.005
881	0.004
882	0.003
882	0.001
883	0
883	-0.001
884	-0.002
884	-0.002
884	-0.002
885	-0.002
885	-0.002
886	-0.003
886	-0.003
887	-0.003
887	-0.004
887	-0.005
888	-0.005
888	-0.006
889	-0.007
889	-0.008
890	-0.009
890	-0.01
890	-0.011
891	-0.01
891	-0.01
892	-0.01
892	-0.009
893	-0.009
893	-0.009
893	-0.009
894	-0.008
894	-0.007
895	-0.007
895	-0.007
895	-0.007
896	-0.007
896	-0.007
897	-0.007
897	-0.007
898	-0.006
898	-0.006
898	-0.006
899	-0.005
899	-0.005
900	-0.005
900	-0.005
901	-0.005
901	-0.006
901	-0.006
902	-0.007
902	-0.007
903	-0.007
903	-0.007
904	-0.008
904	-0.008
904	-0.008
905	-0.008
905	-0.008
906	-0.008
906	-0.008
907	-0.007
907	-0.008
907	-0.008
908	-0.007
908	-0.007
909	-0.006
909	-0.006
910	-0.005
910	-0.005
910	-0.004
911	-0.003
911	-0.002
912	-0.001
912	-0
913	0
913	0.001
913	0.002
914	0.003
914	0.003
915	0.003
915	0.003
916	0.003
916	0.002
916	0.002
917	0.002
917	0.002
918	0.001
918	0.001
918	0.001
919	0
919	0
920	0.001
920	0.001
921	0.002
921	0.002
921	0.003
922	0.003
922	0.003
923	0.004
923	0.004
924	0.003
924	0.003
924	0.002
925	0.001
925	-0.001
926	-0.002
926	-0.003
927	-0.004
927	-0.005
927	-0.006
928	-0.007
928	-0.006
929	-0.006
929	-0.005
930	-0.004
930	-0.004
930	-0.003
931	-0.002
931	-0.001
932	0.001
932	0.002
933	0.003
933	0.004
933	0.004
934	0.003
934	0.003
935	0.003
935	0.002
935	0.001
936	0
936	-0.001
937	-0.002
937	-0.003
938	-0.003
938	-0.004
938	-0.004
939	-0.004
939	-0.005
940	-0.005
940	-0.006
941	-0.006
941	-0.006
941	-0.006
942	-0.007
942	-0.007
943	-0.007
943	-0.008
944	-0.008
944	-0.009
944	-0.009
945	-0.009
945	-0.009
946	-0.009
946	-0.011
946	-0.011
947	-0.011
947	-0.011
948	-0.011
948	-0.01
949	-0.01
949	-0.009
949	-0.007
950	-0.006
950	-0.005
951	-0.003
951	-0.002
952	-0.001
952	-0
952	0.001
953	0.001
953	0.002
954	0.002
954	0.002
955	0.002
955	0.001
955	0.001
956	-0
956	-0.001
957	-0.002
957	-0.003
957	-0.004
958	-0.005
958	-0.005
959	-0.006
959	-0.006
960	-0.006
960	-0.006
960	-0.006
961	-0.006
961	-0.005
962	-0.004
962	-0.004
963	-0.004
963	-0.003
963	-0.003
964	-0.002
964	-0.002
965	-0.002
965	-0.002
966	-0.002
966	-0.001
966	-0.001
967	-0.001
967	-0.001
968	-0.001
968	-0.001
968	-0.001
969	-0.001
969	-0.001
970	-0.002
970	-0.002
971	-0.002
971	-0.002
971	-0.002
972	-0.002
972	-0.002
973	-0.002
973	-0.002
974	-0.002
974	-0.002
974	-0.002
975	-0.002
975	-0.002
976	-0.002
976	-0.002
976	-0.002
977	-0.002
977	-0.003
978	-0.003
978	-0.004
979	-0.004
979	-0.004
979	-0.004
980	-0.004
980	-0.005
981	-0.005
981	-0.005
982	-0.004
982	-0.004
982	-0.004
983	-0.004
983	-0.004
984	-0.004
984	-0.005
984	-0.005
985	-0.005
985	-0.005
986	-0.006
986	-0.007
987	-0.008
987	-0.009
987	-0.01
988	-0.011
988	-0.013
989	-0.014
989	-0.015
990	-0.016
990	-0.018
990	-0.019
991	-0.02
991	-0.021
992	-0.021
992	-0.022
992	-0.023
993	-0.024
993	-0.024
994	-0.025
994	-0.026
995	-0.027
995	-0.028
995	-0.03
996	-0.031
996	-0.032
997	-0.033
997	-0.034
997	-0.035
998	-0.035
998	-0.035
999	-0.035
999	-0.035
1000	-0.034
1000	-0.033
1000	-0.033
1001	-0.032
1001	-0.03
1002	-0.03
1002	-0.029
1003	-0.028
1003	-0.027
1003	-0.027
1004	-0.027
1004	-0.026
1005	-0.026
1005	-0.027
1005	-0.027
1006	-0.027
1006	-0.028
1007	-0.028
1007	-0.029
1008	-0.03
1008	-0.03
1008	-0.03
1009	-0.031
1009	-0.03
1010	-0.03
1010	-0.03
1010	-0.029
1011	-0.029
1011	-0.028
1012	-0.028
1012	-0.027
1013	-0.026
1013	-0.026
1013	-0.025
1014	-0.025
1014	-0.025
1015	-0.025
1015	-0.025
1016	-0.025
1016	-0.025
1016	-0.026
1017	-0.026
1017	-0.027
1018	-0.027
1018	-0.028
1018	-0.028
1019	-0.028
1019	-0.028
1020	-0.029
1020	-0.029
1021	-0.029
1021	-0.029
1021	-0.029
1022	-0.03
1022	-0.03
1023	-0.029
1023	-0.03
1023	-0.029
1024	-0.029
1024	-0.029
1025	-0.029
1025	-0.029
1026	-0.029
1026	-0.028
1026	-0.029
1027	-0.028
1027	-0.028
1028	-0.028
1028	-0.027
1028	-0.027
1029	-0.026
1029	-0.026
1030	-0.026
1030	-0.027
1031	-0.027
1031	-0.026
1031	-0.026
1032	-0.026
1032	-0.026
1033	-0.027
1033	-0.027
1033	-0.028
1034	-0.028
1034	-0.029
1035	-0.029
1035	-0.03
1036	-0.031
1036	-0.031
1036	-0.032
1037	-0.032
1037	-0.032
1038	-0.032
1038	-0.032
1039	-0.032
1039	-0.032
1039	-0.031
1040	-0.031
1040	-0.03
1041	-0.031
1041	-0.031
1041	-0.031
1042	-0.032
1042	-0.032
1043	-0.033
1043	-0.033
1044	-0.034
1044	-0.034
1044	-0.035
1045	-0.035
1045	-0.035
1046	-0.036
1046	-0.036
1046	-0.035
1047	-0.035
1047	-0.035
1048	-0.034
1048	-0.034
1049	-0.034
1049	-0.034
1049	-0.034
1050	-0.035
1050	-0.036
1051	-0.037
1051	-0.037
1051	-0.038
1052	-0.039
1052	-0.04
1053	-0.04
1053	-0.041
1053	-0.041
1054	-0.042
1054	-0.042
1055	-0.041
1055	-0.041
1056	-0.041
1056	-0.041
1056	-0.041
1057	-0.041
1057	-0.041
1058	-0.04
1058	-0.041
1058	-0.04
1059	-0.04
1059	-0.041
1060	-0.041
1060	-0.041
1061	-0.042
1061	-0.042
1061	-0.042
1062	-0.042
1062	-0.042
1063	-0.042
1063	-0.043
1063	-0.043
1064	-0.043
1064	-0.042
1065	-0.042
1065	-0.042
1066	-0.042
1066	-0.043
1066	-0.043
1067	-0.043
1067	-0.044
1068	-0.045
1068	-0.046
1068	-0.047
1069	-0.048
1069	-0.049
1070	-0.049
1070	-0.05
1071	-0.051
1071	-0.051
1071	-0.052
1072	-0.052
1072	-0.052
1073	-0.052
1073	-0.052
1073	-0.053
1074	-0.053
1074	-0.053
1075	-0.053
1075	-0.054
1076	-0.055
1076	-0.055
1076	-0.056
1077	-0.057
1077	-0.057
1078	-0.058
1078	-0.058
1078	-0.059
1079	-0.059
1079	-0.06
1080	-0.061
1080	-0.061
1080	-0.063
1081	-0.063
1081	-0.064
1082	-0.064
1082	-0.066
1083	-0.067
1083	-0.068
1083	-0.069
1084	-0.071
1084	-0.072
1085	-0.073
1085	-0.074
1085	-0.075
1086	-0.076
1086	-0.077
1087	-0.078
1087	-0.079
1088	-0.081
1088	-0.081
1088	-0.082
1089	-0.083
1089	-0.084
1090	-0.085
1090	-0.086
1090	-0.087
1091	-0.089
1091	-0.089
1092	-0.09
1092	-0.09
1092	-0.092
1093	-0.092
1093	-0.092
1094	-0.092
1094	-0.093
1095	-0.095
1095	-0.095
1095	-0.095
1096	-0.097
1096	-0.099
1097	-0.1
1097	-0.102
1097	-0.104
1098	-0.106
1098	-0.109
1099	-0.111
1099	-0.112
1100	-0.115
1100	-0.117
1100	-0.12
1101	-0.123
1101	-0.125
1102	-0.127
1102	-0.131
1102	-0.133
1103	-0.135
1103	-0.138
1104	-0.14
1104	-0.143
1104	-0.146
1105	-0.147
1105	-0.15
1106	-0.155
1106	-0.157
1107	-0.163
1107	-0.168
1107	-0.173
1108	-0.175
1108	-0.178
1109	-0.181
1109	-0.184
1109	-0.19
1110	-0.192
1110	-0.197
1111	-0.209
1111	-0.201
