Data from 3.3A_17C_Absorbance__594__03461.txt Node

Date: Tue Jun 20 17:33:33 CEST 2023
User: Marek
Spectrometer: MAYP115816
Trigger mode: 0
Integration Time (sec): 2.200000E-1
Scans to average: 10
Electric dark correction enabled: true
Nonlinearity correction enabled: true
Boxcar width: 5
XAxis mode: Wavelengths
Number of Pixels in Spectrum: 2068
>>>>>Begin Spectral Data<<<<<
199	-0.803
199	-0.792
200	-0.755
200	-0.699
201	-0.669
201	-0.662
202	-0.646
202	-0.637
203	-0.637
203	-0.63
204	-0.608
204	-0.592
205	-0.567
205	-0.557
205	-0.567
206	-0.57
206	-0.564
207	-0.557
207	-0.564
208	-0.564
208	-0.569
209	-0.57
209	-0.574
210	-0.588
210	-0.595
211	-0.588
211	-0.593
212	-0.602
212	-0.609
213	-0.606
213	-0.601
213	-0.599
214	-0.608
214	-0.611
215	-0.606
215	-0.611
216	-0.619
216	-0.624
217	-0.62
217	-0.621
218	-0.628
218	-0.63
219	-0.636
219	-0.637
220	-0.641
220	-0.649
221	-0.649
221	-0.65
221	-0.642
222	-0.643
222	-0.642
223	-0.638
223	-0.64
224	-0.64
224	-0.638
225	-0.636
225	-0.637
226	-0.637
226	-0.636
227	-0.643
227	-0.653
228	-0.656
228	-0.665
229	-0.67
229	-0.669
229	-0.668
230	-0.664
230	-0.664
231	-0.659
231	-0.655
232	-0.658
232	-0.652
233	-0.652
233	-0.64
234	-0.64
234	-0.634
235	-0.638
235	-0.648
236	-0.653
236	-0.656
236	-0.657
237	-0.654
237	-0.656
238	-0.658
238	-0.659
239	-0.662
239	-0.673
240	-0.668
240	-0.665
241	-0.662
241	-0.664
242	-0.667
242	-0.675
243	-0.675
243	-0.676
243	-0.681
244	-0.676
244	-0.677
245	-0.678
245	-0.681
246	-0.69
246	-0.692
247	-0.7
247	-0.687
248	-0.687
248	-0.69
249	-0.695
249	-0.697
250	-0.696
250	-0.706
250	-0.705
251	-0.705
251	-0.702
252	-0.703
252	-0.714
253	-0.71
253	-0.721
254	-0.726
254	-0.726
255	-0.735
255	-0.735
256	-0.735
256	-0.747
257	-0.757
257	-0.754
258	-0.755
258	-0.762
258	-0.759
259	-0.753
259	-0.772
260	-0.772
260	-0.76
261	-0.77
261	-0.756
262	-0.762
262	-0.76
263	-0.75
263	-0.756
264	-0.766
264	-0.766
265	-0.754
265	-0.758
265	-0.768
266	-0.761
266	-0.761
267	-0.76
267	-0.776
268	-0.787
268	-0.781
269	-0.774
269	-0.789
270	-0.794
270	-0.791
271	-0.804
271	-0.813
272	-0.814
272	-0.817
272	-0.81
273	-0.82
273	-0.835
274	-0.827
274	-0.822
275	-0.82
275	-0.809
276	-0.813
276	-0.819
277	-0.821
277	-0.817
278	-0.821
278	-0.82
278	-0.806
279	-0.814
279	-0.829
280	-0.832
280	-0.843
281	-0.838
281	-0.83
282	-0.836
282	-0.831
283	-0.823
283	-0.839
284	-0.854
284	-0.863
285	-0.84
285	-0.846
285	-0.837
286	-0.842
286	-0.859
287	-0.856
287	-0.855
288	-0.854
288	-0.834
289	-0.832
289	-0.84
290	-0.852
290	-0.839
291	-0.843
291	-0.84
292	-0.819
292	-0.816
292	-0.821
293	-0.809
293	-0.805
294	-0.804
294	-0.789
295	-0.771
295	-0.784
296	-0.797
296	-0.791
297	-0.78
297	-0.784
298	-0.781
298	-0.8
298	-0.804
299	-0.788
299	-0.781
300	-0.775
300	-0.757
301	-0.737
301	-0.74
302	-0.75
302	-0.735
303	-0.728
303	-0.715
304	-0.699
304	-0.701
305	-0.694
305	-0.705
305	-0.719
306	-0.704
306	-0.704
307	-0.696
307	-0.708
308	-0.71
308	-0.706
309	-0.706
309	-0.703
310	-0.7
310	-0.694
311	-0.68
311	-0.697
311	-0.683
312	-0.68
312	-0.668
313	-0.659
313	-0.66
314	-0.666
314	-0.664
315	-0.662
315	-0.656
316	-0.652
316	-0.643
317	-0.635
317	-0.632
318	-0.624
318	-0.623
318	-0.613
319	-0.603
319	-0.594
320	-0.592
320	-0.59
321	-0.583
321	-0.582
322	-0.575
322	-0.568
323	-0.57
323	-0.56
324	-0.557
324	-0.545
324	-0.533
325	-0.517
325	-0.499
326	-0.49
326	-0.466
327	-0.451
327	-0.429
328	-0.397
328	-0.374
329	-0.346
329	-0.317
330	-0.291
330	-0.255
330	-0.219
331	-0.183
331	-0.149
332	-0.116
332	-0.083
333	-0.053
333	-0.018
334	0.012
334	0.038
335	0.064
335	0.086
336	0.108
336	0.129
336	0.146
337	0.164
337	0.181
338	0.196
338	0.206
339	0.22
339	0.231
340	0.239
340	0.248
341	0.255
341	0.261
342	0.268
342	0.274
342	0.279
343	0.282
343	0.287
344	0.29
344	0.293
345	0.297
345	0.299
346	0.301
346	0.303
347	0.305
347	0.306
348	0.308
348	0.31
348	0.311
349	0.311
349	0.312
350	0.313
350	0.314
351	0.315
351	0.315
352	0.316
352	0.316
353	0.316
353	0.316
354	0.316
354	0.316
354	0.316
355	0.316
355	0.316
356	0.316
356	0.316
357	0.317
357	0.317
358	0.317
358	0.317
359	0.317
359	0.317
360	0.317
360	0.317
360	0.317
361	0.317
361	0.317
362	0.316
362	0.316
363	0.316
363	0.316
364	0.316
364	0.316
365	0.316
365	0.316
366	0.316
366	0.316
366	0.316
367	0.316
367	0.316
368	0.316
368	0.315
369	0.315
369	0.315
370	0.315
370	0.315
371	0.314
371	0.314
372	0.314
372	0.314
372	0.314
373	0.314
373	0.313
374	0.314
374	0.314
375	0.313
375	0.312
376	0.312
376	0.312
377	0.312
377	0.312
378	0.311
378	0.311
378	0.311
379	0.31
379	0.31
380	0.31
380	0.31
381	0.31
381	0.309
382	0.309
382	0.309
383	0.309
383	0.308
383	0.308
384	0.308
384	0.308
385	0.308
385	0.307
386	0.307
386	0.307
387	0.307
387	0.307
388	0.306
388	0.306
389	0.306
389	0.306
389	0.305
390	0.305
390	0.305
391	0.305
391	0.305
392	0.304
392	0.304
393	0.304
393	0.304
394	0.304
394	0.303
394	0.303
395	0.303
395	0.302
396	0.302
396	0.302
397	0.301
397	0.301
398	0.3
398	0.3
399	0.3
399	0.299
400	0.299
400	0.299
400	0.299
401	0.298
401	0.298
402	0.298
402	0.298
403	0.298
403	0.298
404	0.297
404	0.297
405	0.297
405	0.297
405	0.296
406	0.297
406	0.296
407	0.296
407	0.296
408	0.295
408	0.295
409	0.295
409	0.295
410	0.295
410	0.295
411	0.294
411	0.294
411	0.294
412	0.294
412	0.293
413	0.293
413	0.293
414	0.293
414	0.293
415	0.292
415	0.292
416	0.292
416	0.291
416	0.291
417	0.291
417	0.291
418	0.291
418	0.291
419	0.291
419	0.29
420	0.29
420	0.29
421	0.29
421	0.29
421	0.29
422	0.29
422	0.29
423	0.29
423	0.29
424	0.289
424	0.289
425	0.289
425	0.289
426	0.289
426	0.289
427	0.289
427	0.289
427	0.289
428	0.289
428	0.289
429	0.288
429	0.288
430	0.288
430	0.288
431	0.287
431	0.287
432	0.287
432	0.286
432	0.286
433	0.286
433	0.286
434	0.286
434	0.286
435	0.287
435	0.287
436	0.286
436	0.286
437	0.286
437	0.286
437	0.286
438	0.286
438	0.286
439	0.286
439	0.286
440	0.285
440	0.285
441	0.285
441	0.285
442	0.284
442	0.284
442	0.284
443	0.284
443	0.284
444	0.284
444	0.284
445	0.284
445	0.284
446	0.284
446	0.284
447	0.284
447	0.284
447	0.284
448	0.285
448	0.284
449	0.284
449	0.284
450	0.284
450	0.284
451	0.284
451	0.284
452	0.284
452	0.284
452	0.284
453	0.284
453	0.284
454	0.284
454	0.284
455	0.285
455	0.285
456	0.285
456	0.285
457	0.285
457	0.284
458	0.285
458	0.284
458	0.285
459	0.285
459	0.284
460	0.284
460	0.283
461	0.284
461	0.284
462	0.285
462	0.285
463	0.286
463	0.287
463	0.287
464	0.287
464	0.288
465	0.288
465	0.289
466	0.289
466	0.29
467	0.29
467	0.29
467	0.29
468	0.289
468	0.289
469	0.29
469	0.291
470	0.291
470	0.291
471	0.291
471	0.291
472	0.292
472	0.292
472	0.293
473	0.293
473	0.294
474	0.295
474	0.295
475	0.296
475	0.297
476	0.297
476	0.298
477	0.299
477	0.299
477	0.3
478	0.301
478	0.301
479	0.302
479	0.303
480	0.303
480	0.304
481	0.305
481	0.305
482	0.306
482	0.308
482	0.308
483	0.31
483	0.312
484	0.313
484	0.313
485	0.314
485	0.315
486	0.316
486	0.317
487	0.318
487	0.32
487	0.321
488	0.321
488	0.322
489	0.323
489	0.325
490	0.326
490	0.328
491	0.329
491	0.331
492	0.332
492	0.333
492	0.334
493	0.336
493	0.337
494	0.339
494	0.341
495	0.342
495	0.344
496	0.345
496	0.347
496	0.35
497	0.352
497	0.354
498	0.356
498	0.357
499	0.359
499	0.362
500	0.364
500	0.366
501	0.369
501	0.37
501	0.372
502	0.374
502	0.376
503	0.378
503	0.38
504	0.382
504	0.384
505	0.386
505	0.389
506	0.391
506	0.394
506	0.397
507	0.399
507	0.402
508	0.405
508	0.408
509	0.41
509	0.413
510	0.416
510	0.418
511	0.421
511	0.423
511	0.425
512	0.427
512	0.428
513	0.43
513	0.432
514	0.434
514	0.436
515	0.438
515	0.439
515	0.44
516	0.442
516	0.444
517	0.446
517	0.448
518	0.45
518	0.451
519	0.452
519	0.453
520	0.455
520	0.457
520	0.458
521	0.459
521	0.46
522	0.462
522	0.463
523	0.465
523	0.466
524	0.467
524	0.468
524	0.469
525	0.47
525	0.471
526	0.472
526	0.472
527	0.473
527	0.473
528	0.473
528	0.473
529	0.473
529	0.473
529	0.473
530	0.473
530	0.473
531	0.473
531	0.472
532	0.472
532	0.471
533	0.471
533	0.471
533	0.471
534	0.469
534	0.469
535	0.468
535	0.468
536	0.467
536	0.466
537	0.466
537	0.465
538	0.464
538	0.463
538	0.461
539	0.461
539	0.459
540	0.458
540	0.456
541	0.454
541	0.452
542	0.45
542	0.448
542	0.446
543	0.444
543	0.442
544	0.44
544	0.438
545	0.436
545	0.434
546	0.432
546	0.429
547	0.427
547	0.424
547	0.422
548	0.421
548	0.418
549	0.416
549	0.414
550	0.412
550	0.41
551	0.407
551	0.405
551	0.403
552	0.401
552	0.399
553	0.397
553	0.395
554	0.393
554	0.39
555	0.387
555	0.385
556	0.382
556	0.38
556	0.377
557	0.376
557	0.374
558	0.371
558	0.369
559	0.367
559	0.365
560	0.363
560	0.36
560	0.359
561	0.357
561	0.355
562	0.353
562	0.351
563	0.349
563	0.347
564	0.346
564	0.344
564	0.343
565	0.341
565	0.34
566	0.338
566	0.337
567	0.336
567	0.335
568	0.333
568	0.332
568	0.33
569	0.329
569	0.327
570	0.324
570	0.322
571	0.32
571	0.318
572	0.316
572	0.314
573	0.312
573	0.31
573	0.308
574	0.306
574	0.305
575	0.304
575	0.305
576	0.303
576	0.301
577	0.299
577	0.298
577	0.297
578	0.297
578	0.296
579	0.297
579	0.296
580	0.293
580	0.29
581	0.288
581	0.286
581	0.286
582	0.286
582	0.285
583	0.285
583	0.283
584	0.28
584	0.278
585	0.278
585	0.278
585	0.278
586	0.277
586	0.276
587	0.274
587	0.272
588	0.271
588	0.27
589	0.269
589	0.268
590	0.267
590	0.266
590	0.267
591	0.267
591	0.265
592	0.264
592	0.262
593	0.262
593	0.261
594	0.26
594	0.259
594	0.258
595	0.257
595	0.255
596	0.254
596	0.254
597	0.256
597	0.255
598	0.254
598	0.254
598	0.253
599	0.253
599	0.251
600	0.25
600	0.25
601	0.25
601	0.249
602	0.248
602	0.247
602	0.246
603	0.246
603	0.246
604	0.246
604	0.246
605	0.246
605	0.246
606	0.245
606	0.243
606	0.242
607	0.242
607	0.241
608	0.24
608	0.239
609	0.238
609	0.238
610	0.237
610	0.235
610	0.235
611	0.235
611	0.235
612	0.234
612	0.234
613	0.234
613	0.233
614	0.231
614	0.23
614	0.229
615	0.228
615	0.226
616	0.226
616	0.225
617	0.224
617	0.222
618	0.222
618	0.221
618	0.22
619	0.22
619	0.22
620	0.22
620	0.219
621	0.218
621	0.217
622	0.215
622	0.214
622	0.212
623	0.211
623	0.211
624	0.211
624	0.209
625	0.208
625	0.207
626	0.206
626	0.205
626	0.205
627	0.204
627	0.204
628	0.203
628	0.202
629	0.201
629	0.2
630	0.198
630	0.196
630	0.195
631	0.194
631	0.192
632	0.19
632	0.188
633	0.185
633	0.183
634	0.181
634	0.179
634	0.177
635	0.175
635	0.173
636	0.17
636	0.168
637	0.166
637	0.163
638	0.16
638	0.157
638	0.154
639	0.15
639	0.146
640	0.142
640	0.138
641	0.134
641	0.13
642	0.126
642	0.122
642	0.118
643	0.114
643	0.109
644	0.103
644	0.098
645	0.093
645	0.088
646	0.083
646	0.076
646	0.07
647	0.063
647	0.057
648	0.05
648	0.042
649	0.035
649	0.028
650	0.021
650	0.013
650	0.005
651	-0.004
651	-0.016
652	-0.029
652	-0.044
653	-0.057
653	-0.069
653	-0.065
654	-0.045
654	-0.04
655	-0.045
655	-0.051
656	-0.057
656	-0.064
657	-0.069
657	-0.074
657	-0.081
658	-0.088
658	-0.121
659	-0.208
659	-0.299
660	-0.339
660	-0.365
661	-0.393
661	-0.423
661	-0.454
662	-0.483
662	-0.514
663	-0.549
663	-0.587
664	-0.625
664	-0.666
665	-0.713
665	-0.76
665	-0.806
666	-0.857
666	-0.913
667	-0.968
667	-1.031
668	-1.09
668	-1.16
669	-1.228
669	-1.302
669	-1.382
670	-1.466
670	-1.581
671	-1.753
671	-2.092
672	-2.326
672	-2.485
672	-2.603
673	-2.697
673	-2.776
674	-2.822
674	-2.835
675	-2.851
675	-2.854
676	-2.849
676	-2.796
676	-2.723
677	-2.632
677	-2.521
678	-2.35
678	-2.046
679	-1.733
679	-1.588
680	-1.489
680	-1.414
680	-1.347
681	-1.301
681	-1.25
682	-1.208
682	-1.166
683	-1.124
683	-1.101
684	-1.072
684	-1.053
684	-1.029
685	-1.009
685	-1
686	-0.978
686	-0.964
687	-0.954
687	-0.942
687	-0.941
688	-0.925
688	-0.918
689	-0.921
689	-0.919
690	-0.905
690	-0.893
691	-0.891
691	-0.894
691	-0.895
692	-0.897
692	-0.894
693	-0.902
693	-0.912
694	-0.894
694	-0.893
695	-0.896
695	-0.891
695	-0.899
696	-0.906
696	-0.899
697	-0.892
697	-0.887
698	-0.882
698	-0.875
698	-0.889
699	-0.888
699	-0.888
700	-0.908
700	-0.901
701	-0.888
701	-0.881
702	-0.881
702	-0.878
702	-0.879
703	-0.869
703	-0.858
704	-0.864
704	-0.869
705	-0.859
705	-0.858
705	-0.854
706	-0.847
706	-0.844
707	-0.856
707	-0.859
708	-0.857
708	-0.852
709	-0.855
709	-0.849
709	-0.845
710	-0.852
710	-0.854
711	-0.853
711	-0.854
712	-0.844
712	-0.841
713	-0.846
713	-0.848
713	-0.827
714	-0.829
714	-0.832
715	-0.824
715	-0.832
716	-0.849
716	-0.858
716	-0.859
717	-0.866
717	-0.858
718	-0.852
718	-0.853
719	-0.848
719	-0.839
720	-0.835
720	-0.832
720	-0.825
721	-0.816
721	-0.819
722	-0.817
722	-0.813
723	-0.831
723	-0.845
723	-0.853
724	-0.853
724	-0.858
725	-0.852
725	-0.855
726	-0.859
726	-0.849
727	-0.853
727	-0.859
727	-0.848
728	-0.833
728	-0.83
729	-0.831
729	-0.834
730	-0.839
730	-0.83
730	-0.834
731	-0.838
731	-0.837
732	-0.841
732	-0.835
733	-0.85
733	-0.856
734	-0.865
734	-0.856
734	-0.838
735	-0.829
735	-0.824
736	-0.823
736	-0.818
737	-0.817
737	-0.808
737	-0.802
738	-0.788
738	-0.776
739	-0.78
739	-0.78
740	-0.795
740	-0.796
741	-0.807
741	-0.816
741	-0.826
742	-0.833
742	-0.847
743	-0.851
743	-0.855
744	-0.858
744	-0.865
744	-0.857
745	-0.866
745	-0.855
746	-0.85
746	-0.839
747	-0.841
747	-0.831
748	-0.836
748	-0.84
748	-0.841
749	-0.836
749	-0.844
750	-0.834
750	-0.834
751	-0.835
751	-0.832
751	-0.842
752	-0.846
752	-0.848
753	-0.85
753	-0.842
754	-0.86
754	-0.861
754	-0.867
755	-0.867
755	-0.859
756	-0.863
756	-0.85
757	-0.842
757	-0.83
758	-0.831
758	-0.831
758	-0.828
759	-0.831
759	-0.832
760	-0.831
760	-0.831
761	-0.826
761	-0.829
761	-0.832
762	-0.839
762	-0.839
763	-0.84
763	-0.843
764	-0.843
764	-0.838
764	-0.844
765	-0.845
765	-0.852
766	-0.857
766	-0.856
767	-0.87
767	-0.864
768	-0.862
768	-0.855
768	-0.85
769	-0.853
769	-0.861
770	-0.87
770	-0.874
771	-0.869
771	-0.869
771	-0.876
772	-0.879
772	-0.899
773	-0.9
773	-0.9
774	-0.898
774	-0.88
775	-0.867
775	-0.866
775	-0.869
776	-0.879
776	-0.875
777	-0.877
777	-0.86
778	-0.868
778	-0.875
778	-0.876
779	-0.886
779	-0.901
780	-0.897
780	-0.906
781	-0.897
781	-0.887
781	-0.9
782	-0.921
782	-0.922
783	-0.921
783	-0.929
784	-0.933
784	-0.928
784	-0.949
785	-0.942
785	-0.953
786	-0.955
786	-0.948
787	-0.938
787	-0.945
788	-0.937
788	-0.931
788	-0.931
789	-0.928
789	-0.917
790	-0.917
790	-0.9
791	-0.909
791	-0.904
791	-0.897
792	-0.891
792	-0.896
793	-0.898
793	-0.887
794	-0.882
794	-0.876
794	-0.884
795	-0.905
795	-0.891
796	-0.897
796	-0.895
797	-0.888
797	-0.88
797	-0.874
798	-0.892
798	-0.896
799	-0.895
799	-0.881
800	-0.877
800	-0.883
801	-0.88
801	-0.883
801	-0.881
802	-0.88
802	-0.879
803	-0.873
803	-0.867
804	-0.873
804	-0.88
804	-0.862
805	-0.842
805	-0.835
806	-0.835
806	-0.83
807	-0.832
807	-0.833
807	-0.816
808	-0.811
808	-0.803
809	-0.799
809	-0.8
810	-0.805
810	-0.8
810	-0.796
811	-0.799
811	-0.79
812	-0.782
812	-0.784
813	-0.787
813	-0.791
813	-0.785
814	-0.785
814	-0.79
815	-0.782
815	-0.776
816	-0.774
816	-0.789
817	-0.802
817	-0.808
817	-0.817
818	-0.811
818	-0.808
819	-0.817
819	-0.815
820	-0.827
820	-0.829
820	-0.828
821	-0.825
821	-0.819
822	-0.816
822	-0.803
823	-0.813
823	-0.813
823	-0.81
824	-0.808
824	-0.818
825	-0.816
825	-0.813
826	-0.809
826	-0.805
826	-0.806
827	-0.806
827	-0.796
828	-0.795
828	-0.788
829	-0.782
829	-0.766
829	-0.764
830	-0.763
830	-0.747
831	-0.741
831	-0.729
832	-0.72
832	-0.715
832	-0.709
833	-0.708
833	-0.713
834	-0.709
834	-0.703
835	-0.695
835	-0.694
835	-0.689
836	-0.685
836	-0.682
837	-0.672
837	-0.662
838	-0.65
838	-0.632
839	-0.626
839	-0.613
839	-0.601
840	-0.6
840	-0.59
841	-0.579
841	-0.572
842	-0.564
842	-0.552
842	-0.549
843	-0.544
843	-0.54
844	-0.537
844	-0.526
845	-0.512
845	-0.503
845	-0.491
846	-0.481
846	-0.47
847	-0.459
847	-0.446
848	-0.432
848	-0.414
848	-0.401
849	-0.389
849	-0.378
850	-0.366
850	-0.354
851	-0.34
851	-0.323
851	-0.312
852	-0.296
852	-0.283
853	-0.274
853	-0.263
854	-0.251
854	-0.238
854	-0.227
855	-0.216
855	-0.207
856	-0.2
856	-0.191
857	-0.182
857	-0.173
857	-0.159
858	-0.148
858	-0.141
859	-0.129
859	-0.117
860	-0.105
860	-0.09
860	-0.079
861	-0.069
861	-0.059
862	-0.05
862	-0.041
863	-0.033
863	-0.022
863	-0.016
864	-0.009
864	-0.001
865	0.006
865	0.012
866	0.018
866	0.024
866	0.03
867	0.036
867	0.042
868	0.047
868	0.052
869	0.057
869	0.06
869	0.063
870	0.064
870	0.066
871	0.069
871	0.07
872	0.071
872	0.072
872	0.073
873	0.072
873	0.072
874	0.071
874	0.071
875	0.071
875	0.071
875	0.07
876	0.07
876	0.07
877	0.069
877	0.069
878	0.068
878	0.068
878	0.068
879	0.068
879	0.067
880	0.067
880	0.066
881	0.064
881	0.063
881	0.061
882	0.06
882	0.058
883	0.056
883	0.055
884	0.054
884	0.053
884	0.053
885	0.052
885	0.052
886	0.052
886	0.052
887	0.052
887	0.052
887	0.051
888	0.051
888	0.05
889	0.05
889	0.049
890	0.048
890	0.047
890	0.046
891	0.046
891	0.046
892	0.047
892	0.047
893	0.046
893	0.047
893	0.047
894	0.047
894	0.047
895	0.047
895	0.047
895	0.047
896	0.047
896	0.047
897	0.047
897	0.048
898	0.047
898	0.048
898	0.048
899	0.048
899	0.049
900	0.048
900	0.049
901	0.048
901	0.048
901	0.048
902	0.048
902	0.048
903	0.048
903	0.047
904	0.047
904	0.046
904	0.046
905	0.046
905	0.046
906	0.047
906	0.047
907	0.048
907	0.048
907	0.048
908	0.048
908	0.049
909	0.049
909	0.05
910	0.05
910	0.051
910	0.051
911	0.052
911	0.052
912	0.053
912	0.054
913	0.054
913	0.055
913	0.055
914	0.055
914	0.056
915	0.055
915	0.055
916	0.055
916	0.055
916	0.054
917	0.054
917	0.053
918	0.053
918	0.052
918	0.052
919	0.051
919	0.051
920	0.051
920	0.051
921	0.051
921	0.051
921	0.052
922	0.051
922	0.052
923	0.052
923	0.051
924	0.051
924	0.05
924	0.05
925	0.049
925	0.048
926	0.047
926	0.046
927	0.045
927	0.044
927	0.044
928	0.043
928	0.043
929	0.044
929	0.044
930	0.045
930	0.045
930	0.046
931	0.047
931	0.048
932	0.049
932	0.05
933	0.051
933	0.051
933	0.051
934	0.05
934	0.05
935	0.05
935	0.049
935	0.048
936	0.046
936	0.045
937	0.044
937	0.043
938	0.043
938	0.042
938	0.041
939	0.04
939	0.039
940	0.039
940	0.038
941	0.037
941	0.037
941	0.037
942	0.036
942	0.036
943	0.036
943	0.035
944	0.035
944	0.034
944	0.034
945	0.034
945	0.033
946	0.033
946	0.032
946	0.031
947	0.031
947	0.031
948	0.031
948	0.032
949	0.033
949	0.034
949	0.036
950	0.037
950	0.038
951	0.04
951	0.041
952	0.042
952	0.043
952	0.044
953	0.044
953	0.045
954	0.045
954	0.044
955	0.044
955	0.043
955	0.043
956	0.042
956	0.041
957	0.04
957	0.039
957	0.038
958	0.038
958	0.037
959	0.037
959	0.036
960	0.036
960	0.036
960	0.036
961	0.037
961	0.037
962	0.037
962	0.038
963	0.038
963	0.038
963	0.039
964	0.039
964	0.04
965	0.04
965	0.041
966	0.041
966	0.042
966	0.043
967	0.043
967	0.043
968	0.043
968	0.043
968	0.043
969	0.044
969	0.043
970	0.043
970	0.043
971	0.042
971	0.042
971	0.042
972	0.042
972	0.042
973	0.043
973	0.043
974	0.042
974	0.043
974	0.043
975	0.043
975	0.042
976	0.042
976	0.042
976	0.041
977	0.04
977	0.04
978	0.039
978	0.038
979	0.038
979	0.037
979	0.037
980	0.037
980	0.037
981	0.037
981	0.037
982	0.037
982	0.038
982	0.038
983	0.038
983	0.038
984	0.037
984	0.037
984	0.037
985	0.036
985	0.036
986	0.035
986	0.034
987	0.033
987	0.033
987	0.032
988	0.031
988	0.03
989	0.029
989	0.028
990	0.027
990	0.026
990	0.025
991	0.024
991	0.023
992	0.023
992	0.022
992	0.021
993	0.02
993	0.019
994	0.018
994	0.017
995	0.016
995	0.015
995	0.014
996	0.013
996	0.011
997	0.01
997	0.009
997	0.009
998	0.008
998	0.008
999	0.008
999	0.008
1000	0.009
1000	0.009
1000	0.01
1001	0.011
1001	0.012
1002	0.013
1002	0.013
1003	0.013
1003	0.013
1003	0.014
1004	0.014
1004	0.014
1005	0.014
1005	0.013
1005	0.013
1006	0.012
1006	0.011
1007	0.011
1007	0.01
1008	0.009
1008	0.009
1008	0.008
1009	0.008
1009	0.009
1010	0.009
1010	0.01
1010	0.01
1011	0.011
1011	0.012
1012	0.012
1012	0.014
1013	0.015
1013	0.016
1013	0.016
1014	0.017
1014	0.017
1015	0.018
1015	0.019
1016	0.019
1016	0.019
1016	0.019
1017	0.019
1017	0.018
1018	0.018
1018	0.018
1018	0.018
1019	0.017
1019	0.017
1020	0.016
1020	0.016
1021	0.016
1021	0.015
1021	0.015
1022	0.014
1022	0.014
1023	0.015
1023	0.014
1023	0.014
1024	0.014
1024	0.015
1025	0.015
1025	0.015
1026	0.015
1026	0.015
1026	0.015
1027	0.015
1027	0.015
1028	0.016
1028	0.016
1028	0.017
1029	0.017
1029	0.017
1030	0.017
1030	0.017
1031	0.017
1031	0.018
1031	0.018
1032	0.018
1032	0.018
1033	0.018
1033	0.017
1033	0.017
1034	0.016
1034	0.015
1035	0.015
1035	0.014
1036	0.012
1036	0.012
1036	0.011
1037	0.011
1037	0.011
1038	0.01
1038	0.01
1039	0.01
1039	0.011
1039	0.011
1040	0.011
1040	0.011
1041	0.011
1041	0.011
1041	0.01
1042	0.009
1042	0.009
1043	0.008
1043	0.007
1044	0.007
1044	0.006
1044	0.006
1045	0.005
1045	0.005
1046	0.004
1046	0.004
1046	0.004
1047	0.004
1047	0.004
1048	0.005
1048	0.005
1049	0.005
1049	0.004
1049	0.004
1050	0.003
1050	0.002
1051	0.001
1051	0
1051	-0
1052	-0.001
1052	-0.002
1053	-0.002
1053	-0.003
1053	-0.003
1054	-0.004
1054	-0.005
1055	-0.004
1055	-0.004
1056	-0.004
1056	-0.004
1056	-0.004
1057	-0.004
1057	-0.004
1058	-0.004
1058	-0.004
1058	-0.004
1059	-0.004
1059	-0.005
1060	-0.006
1060	-0.006
1061	-0.006
1061	-0.006
1061	-0.006
1062	-0.006
1062	-0.007
1063	-0.007
1063	-0.007
1063	-0.007
1064	-0.007
1064	-0.007
1065	-0.007
1065	-0.007
1066	-0.008
1066	-0.009
1066	-0.009
1067	-0.01
1067	-0.011
1068	-0.012
1068	-0.013
1068	-0.014
1069	-0.015
1069	-0.017
1070	-0.017
1070	-0.018
1071	-0.019
1071	-0.019
1071	-0.019
1072	-0.019
1072	-0.019
1073	-0.019
1073	-0.019
1073	-0.019
1074	-0.019
1074	-0.019
1075	-0.02
1075	-0.02
1076	-0.022
1076	-0.021
1076	-0.022
1077	-0.023
1077	-0.024
1078	-0.024
1078	-0.025
1078	-0.026
1079	-0.026
1079	-0.026
1080	-0.028
1080	-0.028
1080	-0.03
1081	-0.031
1081	-0.032
1082	-0.032
1082	-0.033
1083	-0.035
1083	-0.036
1083	-0.037
1084	-0.039
1084	-0.039
1085	-0.041
1085	-0.042
1085	-0.042
1086	-0.043
1086	-0.045
1087	-0.046
1087	-0.046
1088	-0.047
1088	-0.048
1088	-0.048
1089	-0.049
1089	-0.05
1090	-0.051
1090	-0.051
1090	-0.053
1091	-0.054
1091	-0.054
1092	-0.054
1092	-0.054
1092	-0.056
1093	-0.056
1093	-0.056
1094	-0.057
1094	-0.058
1095	-0.059
1095	-0.06
1095	-0.06
1096	-0.062
1096	-0.063
1097	-0.065
1097	-0.067
1097	-0.069
1098	-0.072
1098	-0.074
1099	-0.075
1099	-0.077
1100	-0.079
1100	-0.082
1100	-0.085
1101	-0.088
1101	-0.09
1102	-0.092
1102	-0.095
1102	-0.096
1103	-0.099
1103	-0.101
1104	-0.104
1104	-0.108
1104	-0.11
1105	-0.112
1105	-0.114
1106	-0.12
1106	-0.122
1107	-0.128
1107	-0.133
1107	-0.138
1108	-0.14
1108	-0.141
1109	-0.144
1109	-0.15
1109	-0.154
1110	-0.157
1110	-0.16
1111	-0.171
1111	-0.165
