Data from 3.3A_17C_Absorbance__915__03782.txt Node

Date: Tue Jun 20 17:45:19 CEST 2023
User: Marek
Spectrometer: MAYP115816
Trigger mode: 0
Integration Time (sec): 2.200000E-1
Scans to average: 10
Electric dark correction enabled: true
Nonlinearity correction enabled: true
Boxcar width: 5
XAxis mode: Wavelengths
Number of Pixels in Spectrum: 2068
>>>>>Begin Spectral Data<<<<<
199	-0.796
199	-0.78
200	-0.745
200	-0.69
201	-0.664
201	-0.654
202	-0.637
202	-0.63
203	-0.632
203	-0.625
204	-0.606
204	-0.59
205	-0.568
205	-0.558
205	-0.568
206	-0.57
206	-0.566
207	-0.56
207	-0.565
208	-0.565
208	-0.57
209	-0.571
209	-0.577
210	-0.589
210	-0.596
211	-0.59
211	-0.593
212	-0.603
212	-0.61
213	-0.608
213	-0.603
213	-0.601
214	-0.608
214	-0.612
215	-0.608
215	-0.612
216	-0.622
216	-0.628
217	-0.626
217	-0.626
218	-0.633
218	-0.635
219	-0.641
219	-0.644
220	-0.646
220	-0.652
221	-0.653
221	-0.653
221	-0.645
222	-0.644
222	-0.642
223	-0.639
223	-0.641
224	-0.642
224	-0.64
225	-0.639
225	-0.642
226	-0.642
226	-0.642
227	-0.649
227	-0.659
228	-0.663
228	-0.672
229	-0.677
229	-0.674
229	-0.673
230	-0.668
230	-0.665
231	-0.661
231	-0.654
232	-0.656
232	-0.65
233	-0.649
233	-0.637
234	-0.636
234	-0.63
235	-0.636
235	-0.647
236	-0.655
236	-0.656
236	-0.658
237	-0.656
237	-0.658
238	-0.658
238	-0.66
239	-0.663
239	-0.673
240	-0.666
240	-0.663
241	-0.657
241	-0.661
242	-0.666
242	-0.674
243	-0.674
243	-0.676
243	-0.681
244	-0.677
244	-0.679
245	-0.68
245	-0.684
246	-0.695
246	-0.697
247	-0.703
247	-0.69
248	-0.69
248	-0.692
249	-0.698
249	-0.7
250	-0.698
250	-0.708
250	-0.704
251	-0.704
251	-0.7
252	-0.702
252	-0.713
253	-0.71
253	-0.722
254	-0.727
254	-0.728
255	-0.738
255	-0.736
256	-0.739
256	-0.752
257	-0.763
257	-0.759
258	-0.76
258	-0.766
258	-0.764
259	-0.757
259	-0.775
260	-0.775
260	-0.763
261	-0.775
261	-0.761
262	-0.766
262	-0.765
263	-0.757
263	-0.764
264	-0.775
264	-0.776
265	-0.768
265	-0.77
265	-0.781
266	-0.774
266	-0.771
267	-0.77
267	-0.787
268	-0.794
268	-0.785
269	-0.775
269	-0.79
270	-0.794
270	-0.793
271	-0.804
271	-0.814
272	-0.816
272	-0.82
272	-0.814
273	-0.824
273	-0.841
274	-0.835
274	-0.83
275	-0.828
275	-0.815
276	-0.819
276	-0.824
277	-0.828
277	-0.824
278	-0.827
278	-0.826
278	-0.814
279	-0.823
279	-0.835
280	-0.837
280	-0.847
281	-0.842
281	-0.835
282	-0.84
282	-0.835
283	-0.828
283	-0.842
284	-0.855
284	-0.864
285	-0.845
285	-0.852
285	-0.845
286	-0.852
286	-0.868
287	-0.864
287	-0.863
288	-0.863
288	-0.846
289	-0.845
289	-0.852
290	-0.861
290	-0.848
291	-0.851
291	-0.847
292	-0.828
292	-0.825
292	-0.83
293	-0.818
293	-0.813
294	-0.812
294	-0.8
295	-0.781
295	-0.794
296	-0.807
296	-0.801
297	-0.789
297	-0.792
298	-0.789
298	-0.807
298	-0.81
299	-0.793
299	-0.784
300	-0.781
300	-0.762
301	-0.742
301	-0.745
302	-0.756
302	-0.741
303	-0.734
303	-0.722
304	-0.705
304	-0.708
305	-0.702
305	-0.71
305	-0.726
306	-0.711
306	-0.71
307	-0.701
307	-0.713
308	-0.715
308	-0.712
309	-0.714
309	-0.71
310	-0.707
310	-0.701
311	-0.688
311	-0.706
311	-0.694
312	-0.69
312	-0.68
313	-0.672
313	-0.672
314	-0.679
314	-0.676
315	-0.672
315	-0.666
316	-0.66
316	-0.651
317	-0.643
317	-0.64
318	-0.632
318	-0.629
318	-0.62
319	-0.607
319	-0.599
320	-0.598
320	-0.596
321	-0.592
321	-0.591
322	-0.585
322	-0.578
323	-0.578
323	-0.57
324	-0.567
324	-0.557
324	-0.547
325	-0.532
325	-0.515
326	-0.506
326	-0.482
327	-0.468
327	-0.446
328	-0.415
328	-0.39
329	-0.363
329	-0.335
330	-0.308
330	-0.274
330	-0.24
331	-0.203
331	-0.171
332	-0.138
332	-0.106
333	-0.079
333	-0.048
334	-0.02
334	0.005
335	0.031
335	0.052
336	0.074
336	0.093
336	0.109
337	0.125
337	0.14
338	0.153
338	0.162
339	0.175
339	0.185
340	0.192
340	0.199
341	0.205
341	0.211
342	0.217
342	0.223
342	0.227
343	0.231
343	0.235
344	0.238
344	0.24
345	0.244
345	0.246
346	0.248
346	0.25
347	0.251
347	0.253
348	0.253
348	0.255
348	0.256
349	0.257
349	0.258
350	0.258
350	0.258
351	0.259
351	0.259
352	0.259
352	0.259
353	0.26
353	0.26
354	0.26
354	0.26
354	0.26
355	0.26
355	0.26
356	0.26
356	0.26
357	0.261
357	0.261
358	0.261
358	0.261
359	0.261
359	0.261
360	0.261
360	0.261
360	0.261
361	0.261
361	0.261
362	0.261
362	0.261
363	0.261
363	0.261
364	0.261
364	0.261
365	0.261
365	0.261
366	0.261
366	0.261
366	0.261
367	0.261
367	0.261
368	0.261
368	0.261
369	0.261
369	0.261
370	0.26
370	0.26
371	0.26
371	0.26
372	0.26
372	0.26
372	0.26
373	0.259
373	0.259
374	0.259
374	0.259
375	0.259
375	0.259
376	0.259
376	0.259
377	0.258
377	0.258
378	0.258
378	0.258
378	0.257
379	0.257
379	0.257
380	0.257
380	0.257
381	0.257
381	0.257
382	0.256
382	0.256
383	0.256
383	0.256
383	0.256
384	0.256
384	0.256
385	0.255
385	0.255
386	0.255
386	0.255
387	0.255
387	0.255
388	0.254
388	0.254
389	0.254
389	0.254
389	0.254
390	0.254
390	0.254
391	0.254
391	0.254
392	0.254
392	0.254
393	0.253
393	0.253
394	0.253
394	0.253
394	0.253
395	0.253
395	0.252
396	0.252
396	0.252
397	0.251
397	0.251
398	0.251
398	0.25
399	0.25
399	0.25
400	0.25
400	0.25
400	0.249
401	0.249
401	0.249
402	0.249
402	0.249
403	0.249
403	0.249
404	0.249
404	0.248
405	0.248
405	0.248
405	0.248
406	0.248
406	0.248
407	0.248
407	0.247
408	0.247
408	0.247
409	0.247
409	0.247
410	0.247
410	0.247
411	0.246
411	0.246
411	0.246
412	0.246
412	0.245
413	0.245
413	0.245
414	0.245
414	0.245
415	0.244
415	0.244
416	0.244
416	0.244
416	0.244
417	0.243
417	0.243
418	0.243
418	0.243
419	0.243
419	0.243
420	0.243
420	0.243
421	0.243
421	0.243
421	0.243
422	0.243
422	0.243
423	0.243
423	0.243
424	0.242
424	0.242
425	0.242
425	0.242
426	0.242
426	0.242
427	0.242
427	0.242
427	0.242
428	0.242
428	0.242
429	0.242
429	0.242
430	0.242
430	0.241
431	0.241
431	0.241
432	0.24
432	0.24
432	0.24
433	0.239
433	0.239
434	0.239
434	0.24
435	0.24
435	0.24
436	0.24
436	0.24
437	0.24
437	0.24
437	0.24
438	0.24
438	0.24
439	0.239
439	0.239
440	0.239
440	0.239
441	0.239
441	0.238
442	0.238
442	0.238
442	0.238
443	0.238
443	0.238
444	0.238
444	0.238
445	0.238
445	0.239
446	0.239
446	0.239
447	0.239
447	0.239
447	0.239
448	0.239
448	0.239
449	0.239
449	0.239
450	0.239
450	0.239
451	0.239
451	0.239
452	0.239
452	0.239
452	0.239
453	0.239
453	0.239
454	0.239
454	0.239
455	0.239
455	0.239
456	0.239
456	0.239
457	0.239
457	0.238
458	0.238
458	0.238
458	0.238
459	0.238
459	0.237
460	0.237
460	0.237
461	0.237
461	0.237
462	0.237
462	0.238
463	0.239
463	0.239
463	0.24
464	0.24
464	0.24
465	0.241
465	0.241
466	0.242
466	0.242
467	0.242
467	0.242
467	0.241
468	0.241
468	0.241
469	0.241
469	0.241
470	0.242
470	0.242
471	0.242
471	0.242
472	0.242
472	0.243
472	0.243
473	0.244
473	0.244
474	0.245
474	0.245
475	0.246
475	0.246
476	0.247
476	0.247
477	0.248
477	0.248
477	0.248
478	0.249
478	0.249
479	0.249
479	0.25
480	0.25
480	0.25
481	0.251
481	0.251
482	0.252
482	0.253
482	0.254
483	0.255
483	0.257
484	0.257
484	0.258
485	0.258
485	0.259
486	0.26
486	0.261
487	0.261
487	0.262
487	0.263
488	0.263
488	0.263
489	0.264
489	0.265
490	0.266
490	0.267
491	0.268
491	0.269
492	0.27
492	0.271
492	0.272
493	0.273
493	0.274
494	0.276
494	0.277
495	0.278
495	0.279
496	0.28
496	0.282
496	0.283
497	0.285
497	0.286
498	0.287
498	0.289
499	0.29
499	0.292
500	0.293
500	0.295
501	0.297
501	0.298
501	0.299
502	0.3
502	0.302
503	0.304
503	0.305
504	0.307
504	0.308
505	0.31
505	0.312
506	0.314
506	0.316
506	0.318
507	0.32
507	0.322
508	0.324
508	0.326
509	0.328
509	0.33
510	0.332
510	0.333
511	0.335
511	0.336
511	0.337
512	0.339
512	0.34
513	0.341
513	0.342
514	0.344
514	0.346
515	0.347
515	0.348
515	0.349
516	0.35
516	0.352
517	0.353
517	0.354
518	0.356
518	0.356
519	0.357
519	0.358
520	0.359
520	0.361
520	0.362
521	0.363
521	0.364
522	0.365
522	0.366
523	0.367
523	0.369
524	0.369
524	0.37
524	0.371
525	0.372
525	0.372
526	0.373
526	0.374
527	0.374
527	0.375
528	0.374
528	0.374
529	0.374
529	0.375
529	0.375
530	0.375
530	0.375
531	0.375
531	0.374
532	0.374
532	0.374
533	0.374
533	0.374
533	0.373
534	0.373
534	0.372
535	0.372
535	0.371
536	0.371
536	0.371
537	0.37
537	0.37
538	0.369
538	0.368
538	0.368
539	0.367
539	0.366
540	0.365
540	0.364
541	0.362
541	0.361
542	0.36
542	0.359
542	0.358
543	0.356
543	0.355
544	0.354
544	0.353
545	0.352
545	0.35
546	0.349
546	0.347
547	0.345
547	0.343
547	0.341
548	0.34
548	0.339
549	0.337
549	0.336
550	0.335
550	0.333
551	0.331
551	0.33
551	0.328
552	0.327
552	0.326
553	0.324
553	0.323
554	0.321
554	0.319
555	0.317
555	0.315
556	0.313
556	0.312
556	0.31
557	0.309
557	0.307
558	0.306
558	0.304
559	0.303
559	0.301
560	0.299
560	0.298
560	0.297
561	0.296
561	0.295
562	0.293
562	0.292
563	0.291
563	0.289
564	0.288
564	0.288
564	0.287
565	0.286
565	0.286
566	0.284
566	0.284
567	0.283
567	0.283
568	0.282
568	0.281
568	0.28
569	0.279
569	0.277
570	0.276
570	0.274
571	0.273
571	0.272
572	0.27
572	0.269
573	0.267
573	0.265
573	0.263
574	0.262
574	0.262
575	0.261
575	0.262
576	0.261
576	0.26
577	0.258
577	0.257
577	0.258
578	0.257
578	0.258
579	0.258
579	0.258
580	0.256
580	0.253
581	0.251
581	0.25
581	0.25
582	0.25
582	0.25
583	0.25
583	0.249
584	0.247
584	0.245
585	0.246
585	0.247
585	0.247
586	0.246
586	0.246
587	0.244
587	0.243
588	0.241
588	0.241
589	0.24
589	0.24
590	0.24
590	0.239
590	0.24
591	0.241
591	0.24
592	0.239
592	0.238
593	0.238
593	0.238
594	0.237
594	0.236
594	0.236
595	0.235
595	0.234
596	0.233
596	0.234
597	0.236
597	0.235
598	0.235
598	0.235
598	0.235
599	0.235
599	0.234
600	0.233
600	0.233
601	0.233
601	0.232
602	0.232
602	0.232
602	0.231
603	0.231
603	0.232
604	0.232
604	0.232
605	0.232
605	0.233
606	0.232
606	0.231
606	0.23
607	0.23
607	0.23
608	0.229
608	0.228
609	0.227
609	0.227
610	0.226
610	0.225
610	0.225
611	0.226
611	0.225
612	0.226
612	0.226
613	0.226
613	0.226
614	0.225
614	0.224
614	0.223
615	0.222
615	0.221
616	0.221
616	0.22
617	0.219
617	0.218
618	0.218
618	0.217
618	0.217
619	0.216
619	0.217
620	0.217
620	0.216
621	0.215
621	0.214
622	0.213
622	0.212
622	0.211
623	0.21
623	0.21
624	0.21
624	0.209
625	0.209
625	0.209
626	0.208
626	0.207
626	0.207
627	0.207
627	0.207
628	0.206
628	0.206
629	0.205
629	0.204
630	0.202
630	0.201
630	0.2
631	0.199
631	0.198
632	0.196
632	0.195
633	0.193
633	0.19
634	0.189
634	0.187
634	0.186
635	0.184
635	0.182
636	0.18
636	0.179
637	0.176
637	0.173
638	0.171
638	0.169
638	0.166
639	0.163
639	0.16
640	0.156
640	0.153
641	0.149
641	0.146
642	0.142
642	0.139
642	0.135
643	0.131
643	0.126
644	0.122
644	0.117
645	0.112
645	0.108
646	0.102
646	0.096
646	0.09
647	0.084
647	0.077
648	0.07
648	0.063
649	0.055
649	0.049
650	0.042
650	0.034
650	0.026
651	0.016
651	0.004
652	-0.009
652	-0.024
653	-0.037
653	-0.048
653	-0.045
654	-0.026
654	-0.021
655	-0.027
655	-0.032
656	-0.039
656	-0.046
657	-0.052
657	-0.058
657	-0.065
658	-0.073
658	-0.106
659	-0.194
659	-0.286
660	-0.328
660	-0.356
661	-0.384
661	-0.415
661	-0.446
662	-0.477
662	-0.508
663	-0.543
663	-0.582
664	-0.621
664	-0.663
665	-0.709
665	-0.756
665	-0.801
666	-0.852
666	-0.908
667	-0.963
667	-1.026
668	-1.086
668	-1.155
669	-1.222
669	-1.295
669	-1.373
670	-1.454
670	-1.563
671	-1.72
671	-2.01
672	-2.278
672	-2.451
672	-2.576
673	-2.676
673	-2.758
674	-2.832
674	-2.851
675	-2.867
675	-2.872
676	-2.87
676	-2.834
676	-2.769
677	-2.689
677	-2.596
678	-2.459
678	-2.245
679	-1.835
679	-1.646
680	-1.537
680	-1.457
680	-1.386
681	-1.335
681	-1.279
682	-1.236
682	-1.192
683	-1.149
683	-1.123
684	-1.093
684	-1.073
684	-1.048
685	-1.028
685	-1.017
686	-0.993
686	-0.98
687	-0.969
687	-0.957
687	-0.957
688	-0.941
688	-0.934
689	-0.937
689	-0.934
690	-0.919
690	-0.907
691	-0.905
691	-0.907
691	-0.909
692	-0.91
692	-0.905
693	-0.913
693	-0.922
694	-0.902
694	-0.902
695	-0.904
695	-0.899
695	-0.906
696	-0.913
696	-0.904
697	-0.896
697	-0.891
698	-0.885
698	-0.879
698	-0.893
699	-0.892
699	-0.892
700	-0.912
700	-0.906
701	-0.893
701	-0.888
702	-0.889
702	-0.889
702	-0.889
703	-0.878
703	-0.868
704	-0.875
704	-0.877
705	-0.864
705	-0.863
705	-0.858
706	-0.85
706	-0.847
707	-0.86
707	-0.862
708	-0.859
708	-0.854
709	-0.854
709	-0.852
709	-0.848
710	-0.855
710	-0.857
711	-0.856
711	-0.856
712	-0.846
712	-0.843
713	-0.849
713	-0.85
713	-0.831
714	-0.833
714	-0.838
715	-0.831
715	-0.839
716	-0.856
716	-0.865
716	-0.866
717	-0.873
717	-0.866
718	-0.86
718	-0.86
719	-0.855
719	-0.847
720	-0.841
720	-0.836
720	-0.828
721	-0.817
721	-0.821
722	-0.818
722	-0.814
723	-0.831
723	-0.844
723	-0.854
724	-0.853
724	-0.858
725	-0.852
725	-0.858
726	-0.862
726	-0.852
727	-0.854
727	-0.861
727	-0.852
728	-0.836
728	-0.831
729	-0.834
729	-0.837
730	-0.844
730	-0.833
730	-0.839
731	-0.843
731	-0.844
732	-0.846
732	-0.841
733	-0.857
733	-0.864
734	-0.872
734	-0.864
734	-0.845
735	-0.836
735	-0.832
736	-0.83
736	-0.824
737	-0.825
737	-0.815
737	-0.807
738	-0.791
738	-0.779
739	-0.782
739	-0.784
740	-0.8
740	-0.8
741	-0.81
741	-0.819
741	-0.828
742	-0.836
742	-0.852
743	-0.859
743	-0.862
744	-0.865
744	-0.872
744	-0.865
745	-0.872
745	-0.863
746	-0.858
746	-0.85
747	-0.851
747	-0.84
748	-0.841
748	-0.844
748	-0.844
749	-0.837
749	-0.842
750	-0.833
750	-0.834
751	-0.834
751	-0.832
751	-0.844
752	-0.849
752	-0.853
753	-0.854
753	-0.847
754	-0.867
754	-0.867
754	-0.874
755	-0.872
755	-0.864
756	-0.866
756	-0.85
757	-0.841
757	-0.831
758	-0.833
758	-0.833
758	-0.828
759	-0.833
759	-0.833
760	-0.832
760	-0.835
761	-0.828
761	-0.833
761	-0.835
762	-0.84
762	-0.84
763	-0.84
763	-0.844
764	-0.844
764	-0.841
764	-0.846
765	-0.844
765	-0.851
766	-0.854
766	-0.855
767	-0.87
767	-0.866
768	-0.865
768	-0.857
768	-0.851
769	-0.856
769	-0.864
770	-0.874
770	-0.877
771	-0.874
771	-0.872
771	-0.877
772	-0.88
772	-0.9
773	-0.901
773	-0.901
774	-0.898
774	-0.881
775	-0.868
775	-0.869
775	-0.874
776	-0.885
776	-0.88
777	-0.881
777	-0.865
778	-0.874
778	-0.883
778	-0.882
779	-0.891
779	-0.905
780	-0.9
780	-0.908
781	-0.897
781	-0.888
781	-0.902
782	-0.923
782	-0.925
783	-0.924
783	-0.934
784	-0.936
784	-0.93
784	-0.95
785	-0.943
785	-0.957
786	-0.96
786	-0.952
787	-0.942
787	-0.948
788	-0.942
788	-0.935
788	-0.937
789	-0.937
789	-0.926
790	-0.927
790	-0.91
791	-0.917
791	-0.913
791	-0.906
792	-0.902
792	-0.906
793	-0.907
793	-0.896
794	-0.889
794	-0.883
794	-0.889
795	-0.908
795	-0.894
796	-0.899
796	-0.895
797	-0.888
797	-0.878
797	-0.871
798	-0.891
798	-0.894
799	-0.895
799	-0.88
800	-0.877
800	-0.885
801	-0.884
801	-0.888
801	-0.884
802	-0.883
802	-0.883
803	-0.876
803	-0.869
804	-0.875
804	-0.883
804	-0.866
805	-0.847
805	-0.838
806	-0.839
806	-0.835
807	-0.837
807	-0.836
807	-0.819
808	-0.816
808	-0.807
809	-0.8
809	-0.801
810	-0.803
810	-0.799
810	-0.795
811	-0.798
811	-0.789
812	-0.781
812	-0.784
813	-0.786
813	-0.789
813	-0.786
814	-0.785
814	-0.79
815	-0.781
815	-0.777
816	-0.774
816	-0.79
817	-0.803
817	-0.806
817	-0.817
818	-0.809
818	-0.806
819	-0.818
819	-0.817
820	-0.828
820	-0.827
820	-0.826
821	-0.823
821	-0.819
822	-0.818
822	-0.806
823	-0.817
823	-0.816
823	-0.81
824	-0.808
824	-0.82
825	-0.819
825	-0.814
826	-0.809
826	-0.804
826	-0.804
827	-0.804
827	-0.793
828	-0.792
828	-0.785
829	-0.778
829	-0.762
829	-0.759
830	-0.758
830	-0.744
831	-0.738
831	-0.725
832	-0.716
832	-0.711
832	-0.704
833	-0.704
833	-0.709
834	-0.702
834	-0.697
835	-0.687
835	-0.687
835	-0.684
836	-0.681
836	-0.678
837	-0.669
837	-0.66
838	-0.647
838	-0.63
839	-0.624
839	-0.613
839	-0.605
840	-0.602
840	-0.59
841	-0.579
841	-0.571
842	-0.561
842	-0.549
842	-0.546
843	-0.542
843	-0.537
844	-0.533
844	-0.522
845	-0.508
845	-0.499
845	-0.487
846	-0.476
846	-0.464
847	-0.453
847	-0.44
848	-0.424
848	-0.406
848	-0.393
849	-0.379
849	-0.366
850	-0.354
850	-0.343
851	-0.329
851	-0.312
851	-0.303
852	-0.288
852	-0.274
853	-0.266
853	-0.254
854	-0.243
854	-0.231
854	-0.218
855	-0.205
855	-0.196
856	-0.187
856	-0.177
857	-0.169
857	-0.161
857	-0.145
858	-0.132
858	-0.122
859	-0.11
859	-0.097
860	-0.086
860	-0.071
860	-0.059
861	-0.047
861	-0.036
862	-0.025
862	-0.017
863	-0.008
863	0.002
863	0.009
864	0.016
864	0.024
865	0.032
865	0.039
866	0.046
866	0.053
866	0.059
867	0.065
867	0.071
868	0.076
868	0.082
869	0.088
869	0.091
869	0.094
870	0.096
870	0.098
871	0.1
871	0.102
872	0.103
872	0.103
872	0.104
873	0.104
873	0.103
874	0.102
874	0.102
875	0.101
875	0.101
875	0.101
876	0.1
876	0.1
877	0.099
877	0.099
878	0.098
878	0.098
878	0.098
879	0.098
879	0.097
880	0.097
880	0.096
881	0.095
881	0.094
881	0.093
882	0.091
882	0.09
883	0.088
883	0.086
884	0.085
884	0.085
884	0.084
885	0.084
885	0.084
886	0.084
886	0.083
887	0.083
887	0.082
887	0.081
888	0.081
888	0.08
889	0.079
889	0.078
890	0.077
890	0.076
890	0.075
891	0.075
891	0.075
892	0.075
892	0.075
893	0.076
893	0.076
893	0.076
894	0.077
894	0.077
895	0.077
895	0.077
895	0.077
896	0.077
896	0.077
897	0.077
897	0.077
898	0.077
898	0.077
898	0.077
899	0.078
899	0.079
900	0.079
900	0.078
901	0.078
901	0.079
901	0.078
902	0.078
902	0.078
903	0.078
903	0.077
904	0.077
904	0.076
904	0.076
905	0.076
905	0.076
906	0.076
906	0.077
907	0.077
907	0.076
907	0.076
908	0.077
908	0.077
909	0.078
909	0.078
910	0.079
910	0.079
910	0.08
911	0.08
911	0.081
912	0.082
912	0.083
913	0.084
913	0.084
913	0.085
914	0.085
914	0.086
915	0.085
915	0.085
916	0.085
916	0.084
916	0.084
917	0.084
917	0.083
918	0.083
918	0.082
918	0.082
919	0.081
919	0.081
920	0.081
920	0.081
921	0.082
921	0.082
921	0.082
922	0.082
922	0.082
923	0.082
923	0.082
924	0.081
924	0.081
924	0.08
925	0.079
925	0.078
926	0.077
926	0.077
927	0.076
927	0.075
927	0.075
928	0.074
928	0.075
929	0.075
929	0.076
930	0.077
930	0.078
930	0.078
931	0.079
931	0.08
932	0.081
932	0.082
933	0.083
933	0.083
933	0.082
934	0.082
934	0.081
935	0.081
935	0.079
935	0.078
936	0.077
936	0.075
937	0.074
937	0.073
938	0.072
938	0.072
938	0.071
939	0.07
939	0.069
940	0.068
940	0.068
941	0.067
941	0.066
941	0.066
942	0.065
942	0.065
943	0.064
943	0.063
944	0.062
944	0.061
944	0.061
945	0.061
945	0.061
946	0.06
946	0.059
946	0.059
947	0.059
947	0.058
948	0.059
948	0.06
949	0.06
949	0.061
949	0.063
950	0.064
950	0.066
951	0.068
951	0.068
952	0.069
952	0.07
952	0.071
953	0.071
953	0.072
954	0.071
954	0.071
955	0.071
955	0.071
955	0.07
956	0.069
956	0.069
957	0.067
957	0.066
957	0.065
958	0.064
958	0.064
959	0.063
959	0.062
960	0.062
960	0.061
960	0.061
961	0.061
961	0.062
962	0.062
962	0.063
963	0.063
963	0.064
963	0.064
964	0.065
964	0.065
965	0.066
965	0.066
966	0.067
966	0.067
966	0.068
967	0.069
967	0.069
968	0.068
968	0.069
968	0.069
969	0.069
969	0.068
970	0.068
970	0.068
971	0.067
971	0.067
971	0.067
972	0.067
972	0.067
973	0.067
973	0.067
974	0.067
974	0.067
974	0.067
975	0.067
975	0.067
976	0.066
976	0.066
976	0.066
977	0.065
977	0.065
978	0.064
978	0.064
979	0.064
979	0.064
979	0.064
980	0.064
980	0.063
981	0.064
981	0.064
982	0.064
982	0.064
982	0.064
983	0.063
983	0.063
984	0.063
984	0.062
984	0.062
985	0.062
985	0.061
986	0.06
986	0.059
987	0.058
987	0.057
987	0.057
988	0.056
988	0.055
989	0.054
989	0.052
990	0.051
990	0.05
990	0.049
991	0.048
991	0.047
992	0.046
992	0.045
992	0.045
993	0.044
993	0.043
994	0.042
994	0.041
995	0.04
995	0.039
995	0.038
996	0.036
996	0.035
997	0.034
997	0.033
997	0.032
998	0.032
998	0.032
999	0.032
999	0.032
1000	0.032
1000	0.033
1000	0.034
1001	0.035
1001	0.035
1002	0.036
1002	0.037
1003	0.038
1003	0.038
1003	0.039
1004	0.039
1004	0.039
1005	0.039
1005	0.039
1005	0.038
1006	0.038
1006	0.037
1007	0.037
1007	0.036
1008	0.036
1008	0.035
1008	0.035
1009	0.035
1009	0.035
1010	0.035
1010	0.036
1010	0.036
1011	0.037
1011	0.038
1012	0.039
1012	0.039
1013	0.04
1013	0.041
1013	0.042
1014	0.042
1014	0.042
1015	0.043
1015	0.043
1016	0.043
1016	0.042
1016	0.042
1017	0.041
1017	0.041
1018	0.041
1018	0.04
1018	0.04
1019	0.039
1019	0.039
1020	0.038
1020	0.038
1021	0.038
1021	0.037
1021	0.037
1022	0.036
1022	0.036
1023	0.036
1023	0.036
1023	0.036
1024	0.035
1024	0.035
1025	0.036
1025	0.036
1026	0.036
1026	0.037
1026	0.037
1027	0.037
1027	0.037
1028	0.038
1028	0.039
1028	0.039
1029	0.039
1029	0.04
1030	0.04
1030	0.04
1031	0.039
1031	0.04
1031	0.04
1032	0.04
1032	0.04
1033	0.039
1033	0.039
1033	0.038
1034	0.037
1034	0.037
1035	0.036
1035	0.036
1036	0.035
1036	0.034
1036	0.034
1037	0.033
1037	0.034
1038	0.033
1038	0.033
1039	0.033
1039	0.034
1039	0.034
1040	0.034
1040	0.034
1041	0.034
1041	0.034
1041	0.033
1042	0.032
1042	0.032
1043	0.03
1043	0.03
1044	0.029
1044	0.028
1044	0.028
1045	0.027
1045	0.026
1046	0.026
1046	0.026
1046	0.026
1047	0.026
1047	0.027
1048	0.028
1048	0.028
1049	0.028
1049	0.028
1049	0.027
1050	0.027
1050	0.026
1051	0.025
1051	0.024
1051	0.024
1052	0.023
1052	0.022
1053	0.021
1053	0.02
1053	0.02
1054	0.019
1054	0.019
1055	0.019
1055	0.019
1056	0.019
1056	0.019
1056	0.019
1057	0.019
1057	0.019
1058	0.019
1058	0.019
1058	0.019
1059	0.019
1059	0.018
1060	0.017
1060	0.017
1061	0.016
1061	0.016
1061	0.016
1062	0.016
1062	0.015
1063	0.015
1063	0.015
1063	0.015
1064	0.015
1064	0.015
1065	0.015
1065	0.015
1066	0.015
1066	0.014
1066	0.014
1067	0.013
1067	0.012
1068	0.011
1068	0.01
1068	0.009
1069	0.008
1069	0.007
1070	0.006
1070	0.005
1071	0.004
1071	0.004
1071	0.003
1072	0.003
1072	0.003
1073	0.003
1073	0.003
1073	0.003
1074	0.003
1074	0.003
1075	0.002
1075	0.002
1076	0.001
1076	0.001
1076	0
1077	-0.001
1077	-0.002
1078	-0.003
1078	-0.003
1078	-0.004
1079	-0.005
1079	-0.005
1080	-0.005
1080	-0.006
1080	-0.007
1081	-0.008
1081	-0.008
1082	-0.008
1082	-0.009
1083	-0.011
1083	-0.012
1083	-0.013
1084	-0.014
1084	-0.015
1085	-0.017
1085	-0.018
1085	-0.019
1086	-0.02
1086	-0.022
1087	-0.022
1087	-0.023
1088	-0.025
1088	-0.026
1088	-0.027
1089	-0.029
1089	-0.029
1090	-0.031
1090	-0.032
1090	-0.034
1091	-0.035
1091	-0.036
1092	-0.036
1092	-0.037
1092	-0.039
1093	-0.039
1093	-0.039
1094	-0.04
1094	-0.041
1095	-0.043
1095	-0.043
1095	-0.043
1096	-0.045
1096	-0.047
1097	-0.048
1097	-0.05
1097	-0.051
1098	-0.053
1098	-0.056
1099	-0.057
1099	-0.058
1100	-0.061
1100	-0.064
1100	-0.067
1101	-0.07
1101	-0.073
1102	-0.075
1102	-0.079
1102	-0.08
1103	-0.083
1103	-0.087
1104	-0.092
1104	-0.096
1104	-0.098
1105	-0.1
1105	-0.103
1106	-0.108
1106	-0.11
1107	-0.116
1107	-0.121
1107	-0.126
1108	-0.128
1108	-0.129
1109	-0.132
1109	-0.137
1109	-0.141
1110	-0.143
1110	-0.148
1111	-0.16
1111	-0.156
