Data from 3.3A_17C_Absorbance__80__02947.txt Node

Date: Tue Jun 20 17:14:42 CEST 2023
User: Marek
Spectrometer: MAYP115816
Trigger mode: 0
Integration Time (sec): 2.200000E-1
Scans to average: 10
Electric dark correction enabled: true
Nonlinearity correction enabled: true
Boxcar width: 5
XAxis mode: Wavelengths
Number of Pixels in Spectrum: 2068
>>>>>Begin Spectral Data<<<<<
199	-0.819
199	-0.804
200	-0.766
200	-0.709
201	-0.682
201	-0.672
202	-0.654
202	-0.646
203	-0.644
203	-0.638
204	-0.618
204	-0.601
205	-0.578
205	-0.569
205	-0.58
206	-0.582
206	-0.577
207	-0.571
207	-0.577
208	-0.578
208	-0.582
209	-0.584
209	-0.589
210	-0.6
210	-0.606
211	-0.6
211	-0.603
212	-0.616
212	-0.624
213	-0.62
213	-0.616
213	-0.614
214	-0.619
214	-0.621
215	-0.618
215	-0.625
216	-0.632
216	-0.636
217	-0.632
217	-0.632
218	-0.641
218	-0.643
219	-0.651
219	-0.653
220	-0.657
220	-0.664
221	-0.665
221	-0.667
221	-0.658
222	-0.656
222	-0.654
223	-0.65
223	-0.652
224	-0.653
224	-0.65
225	-0.649
225	-0.65
226	-0.65
226	-0.65
227	-0.657
227	-0.667
228	-0.67
228	-0.678
229	-0.684
229	-0.682
229	-0.682
230	-0.677
230	-0.676
231	-0.67
231	-0.664
232	-0.669
232	-0.664
233	-0.666
233	-0.655
234	-0.655
234	-0.649
235	-0.653
235	-0.664
236	-0.67
236	-0.672
236	-0.672
237	-0.67
237	-0.672
238	-0.672
238	-0.672
239	-0.674
239	-0.685
240	-0.68
240	-0.676
241	-0.671
241	-0.673
242	-0.677
242	-0.687
243	-0.687
243	-0.689
243	-0.693
244	-0.69
244	-0.69
245	-0.69
245	-0.694
246	-0.704
246	-0.707
247	-0.715
247	-0.699
248	-0.698
248	-0.701
249	-0.708
249	-0.71
250	-0.708
250	-0.717
250	-0.714
251	-0.716
251	-0.712
252	-0.714
252	-0.726
253	-0.721
253	-0.731
254	-0.735
254	-0.735
255	-0.746
255	-0.745
256	-0.746
256	-0.756
257	-0.767
257	-0.762
258	-0.763
258	-0.771
258	-0.769
259	-0.763
259	-0.782
260	-0.781
260	-0.769
261	-0.781
261	-0.769
262	-0.772
262	-0.771
263	-0.762
263	-0.766
264	-0.777
264	-0.776
265	-0.767
265	-0.77
265	-0.781
266	-0.771
266	-0.772
267	-0.771
267	-0.789
268	-0.798
268	-0.792
269	-0.783
269	-0.797
270	-0.801
270	-0.8
271	-0.813
271	-0.824
272	-0.826
272	-0.83
272	-0.824
273	-0.833
273	-0.848
274	-0.841
274	-0.837
275	-0.835
275	-0.822
276	-0.826
276	-0.83
277	-0.831
277	-0.829
278	-0.833
278	-0.833
278	-0.821
279	-0.828
279	-0.843
280	-0.844
280	-0.856
281	-0.847
281	-0.84
282	-0.846
282	-0.841
283	-0.834
283	-0.848
284	-0.86
284	-0.871
285	-0.85
285	-0.858
285	-0.848
286	-0.856
286	-0.873
287	-0.868
287	-0.867
288	-0.866
288	-0.849
289	-0.848
289	-0.855
290	-0.863
290	-0.851
291	-0.855
291	-0.853
292	-0.833
292	-0.831
292	-0.835
293	-0.823
293	-0.818
294	-0.819
294	-0.805
295	-0.788
295	-0.8
296	-0.812
296	-0.806
297	-0.794
297	-0.798
298	-0.794
298	-0.812
298	-0.815
299	-0.796
299	-0.788
300	-0.786
300	-0.766
301	-0.748
301	-0.751
302	-0.762
302	-0.748
303	-0.741
303	-0.727
304	-0.711
304	-0.714
305	-0.707
305	-0.715
305	-0.731
306	-0.715
306	-0.713
307	-0.705
307	-0.715
308	-0.718
308	-0.713
309	-0.717
309	-0.713
310	-0.712
310	-0.706
311	-0.691
311	-0.709
311	-0.698
312	-0.694
312	-0.684
313	-0.676
313	-0.678
314	-0.681
314	-0.676
315	-0.673
315	-0.668
316	-0.662
316	-0.65
317	-0.643
317	-0.641
318	-0.632
318	-0.629
318	-0.617
319	-0.607
319	-0.599
320	-0.595
320	-0.591
321	-0.587
321	-0.588
322	-0.58
322	-0.571
323	-0.57
323	-0.562
324	-0.56
324	-0.549
324	-0.539
325	-0.524
325	-0.507
326	-0.497
326	-0.469
327	-0.455
327	-0.434
328	-0.401
328	-0.376
329	-0.347
329	-0.317
330	-0.287
330	-0.248
330	-0.21
331	-0.17
331	-0.135
332	-0.096
332	-0.059
333	-0.027
333	0.01
334	0.043
334	0.074
335	0.104
335	0.128
336	0.153
336	0.178
336	0.198
337	0.218
337	0.237
338	0.255
338	0.267
339	0.284
339	0.297
340	0.307
340	0.318
341	0.326
341	0.333
342	0.342
342	0.35
342	0.356
343	0.36
343	0.366
344	0.37
344	0.373
345	0.378
345	0.381
346	0.383
346	0.386
347	0.388
347	0.39
348	0.392
348	0.394
348	0.396
349	0.397
349	0.398
350	0.399
350	0.4
351	0.4
351	0.401
352	0.4
352	0.401
353	0.401
353	0.401
354	0.401
354	0.401
354	0.401
355	0.401
355	0.401
356	0.401
356	0.401
357	0.401
357	0.402
358	0.401
358	0.402
359	0.402
359	0.402
360	0.402
360	0.402
360	0.402
361	0.402
361	0.402
362	0.402
362	0.402
363	0.402
363	0.402
364	0.401
364	0.401
365	0.401
365	0.401
366	0.401
366	0.4
366	0.4
367	0.4
367	0.399
368	0.399
368	0.398
369	0.398
369	0.398
370	0.397
370	0.397
371	0.397
371	0.396
372	0.395
372	0.395
372	0.395
373	0.395
373	0.394
374	0.394
374	0.394
375	0.393
375	0.393
376	0.393
376	0.392
377	0.392
377	0.392
378	0.391
378	0.391
378	0.39
379	0.39
379	0.389
380	0.389
380	0.389
381	0.389
381	0.388
382	0.387
382	0.387
383	0.387
383	0.386
383	0.386
384	0.386
384	0.385
385	0.384
385	0.384
386	0.384
386	0.384
387	0.383
387	0.383
388	0.382
388	0.382
389	0.382
389	0.381
389	0.381
390	0.38
390	0.38
391	0.38
391	0.379
392	0.379
392	0.378
393	0.378
393	0.378
394	0.377
394	0.377
394	0.376
395	0.376
395	0.375
396	0.374
396	0.374
397	0.373
397	0.373
398	0.372
398	0.372
399	0.371
399	0.371
400	0.37
400	0.37
400	0.37
401	0.369
401	0.369
402	0.368
402	0.368
403	0.368
403	0.367
404	0.367
404	0.366
405	0.366
405	0.366
405	0.366
406	0.365
406	0.365
407	0.365
407	0.365
408	0.364
408	0.364
409	0.364
409	0.364
410	0.363
410	0.363
411	0.363
411	0.362
411	0.362
412	0.361
412	0.36
413	0.36
413	0.36
414	0.36
414	0.359
415	0.359
415	0.358
416	0.358
416	0.358
416	0.357
417	0.357
417	0.357
418	0.357
418	0.356
419	0.356
419	0.356
420	0.356
420	0.356
421	0.355
421	0.356
421	0.356
422	0.356
422	0.356
423	0.355
423	0.355
424	0.355
424	0.354
425	0.355
425	0.354
426	0.354
426	0.354
427	0.354
427	0.354
427	0.354
428	0.354
428	0.354
429	0.353
429	0.353
430	0.353
430	0.352
431	0.352
431	0.352
432	0.352
432	0.351
432	0.351
433	0.35
433	0.35
434	0.351
434	0.351
435	0.351
435	0.351
436	0.351
436	0.351
437	0.351
437	0.351
437	0.351
438	0.351
438	0.351
439	0.351
439	0.351
440	0.35
440	0.35
441	0.35
441	0.35
442	0.35
442	0.35
442	0.35
443	0.35
443	0.35
444	0.35
444	0.35
445	0.35
445	0.35
446	0.35
446	0.35
447	0.35
447	0.351
447	0.351
448	0.351
448	0.351
449	0.351
449	0.351
450	0.352
450	0.352
451	0.352
451	0.352
452	0.352
452	0.352
452	0.353
453	0.353
453	0.353
454	0.353
454	0.353
455	0.354
455	0.354
456	0.354
456	0.354
457	0.354
457	0.354
458	0.354
458	0.354
458	0.355
459	0.355
459	0.354
460	0.354
460	0.354
461	0.355
461	0.355
462	0.356
462	0.357
463	0.358
463	0.359
463	0.36
464	0.361
464	0.362
465	0.362
465	0.363
466	0.364
466	0.364
467	0.365
467	0.365
467	0.365
468	0.366
468	0.366
469	0.367
469	0.367
470	0.368
470	0.369
471	0.37
471	0.37
472	0.371
472	0.372
472	0.373
473	0.374
473	0.376
474	0.376
474	0.378
475	0.379
475	0.38
476	0.381
476	0.383
477	0.384
477	0.385
477	0.386
478	0.387
478	0.389
479	0.39
479	0.391
480	0.392
480	0.394
481	0.395
481	0.396
482	0.398
482	0.4
482	0.401
483	0.404
483	0.406
484	0.408
484	0.41
485	0.412
485	0.414
486	0.415
486	0.417
487	0.419
487	0.421
487	0.423
488	0.424
488	0.426
489	0.428
489	0.431
490	0.433
490	0.436
491	0.439
491	0.441
492	0.444
492	0.446
492	0.448
493	0.451
493	0.454
494	0.457
494	0.46
495	0.463
495	0.465
496	0.468
496	0.471
496	0.474
497	0.478
497	0.481
498	0.484
498	0.487
499	0.491
499	0.494
500	0.498
500	0.502
501	0.506
501	0.509
501	0.512
502	0.515
502	0.519
503	0.522
503	0.526
504	0.529
504	0.532
505	0.536
505	0.54
506	0.544
506	0.548
506	0.552
507	0.557
507	0.561
508	0.565
508	0.569
509	0.573
509	0.577
510	0.581
510	0.584
511	0.588
511	0.591
511	0.594
512	0.598
512	0.6
513	0.603
513	0.607
514	0.61
514	0.614
515	0.617
515	0.619
515	0.622
516	0.625
516	0.628
517	0.631
517	0.633
518	0.635
518	0.637
519	0.639
519	0.64
520	0.643
520	0.645
520	0.646
521	0.647
521	0.649
522	0.651
522	0.653
523	0.655
523	0.657
524	0.658
524	0.659
524	0.66
525	0.661
525	0.662
526	0.662
526	0.663
527	0.663
527	0.663
528	0.662
528	0.662
529	0.661
529	0.66
529	0.66
530	0.659
530	0.658
531	0.657
531	0.656
532	0.654
532	0.653
533	0.652
533	0.65
533	0.648
534	0.646
534	0.644
535	0.641
535	0.639
536	0.637
536	0.634
537	0.631
537	0.628
538	0.624
538	0.62
538	0.617
539	0.614
539	0.61
540	0.606
540	0.602
541	0.598
541	0.594
542	0.59
542	0.586
542	0.582
543	0.577
543	0.573
544	0.568
544	0.563
545	0.559
545	0.555
546	0.55
546	0.545
547	0.539
547	0.534
547	0.529
548	0.525
548	0.52
549	0.515
549	0.51
550	0.505
550	0.499
551	0.494
551	0.488
551	0.483
552	0.478
552	0.473
553	0.468
553	0.463
554	0.457
554	0.452
555	0.447
555	0.441
556	0.436
556	0.431
556	0.425
557	0.42
557	0.415
558	0.41
558	0.405
559	0.399
559	0.394
560	0.389
560	0.384
560	0.379
561	0.375
561	0.371
562	0.366
562	0.362
563	0.357
563	0.353
564	0.349
564	0.345
564	0.341
565	0.337
565	0.333
566	0.328
566	0.324
567	0.32
567	0.317
568	0.312
568	0.308
568	0.304
569	0.3
569	0.296
570	0.291
570	0.286
571	0.283
571	0.279
572	0.275
572	0.271
573	0.266
573	0.262
573	0.258
574	0.255
574	0.252
575	0.249
575	0.247
576	0.244
576	0.24
577	0.236
577	0.233
577	0.231
578	0.229
578	0.227
579	0.226
579	0.223
580	0.219
580	0.214
581	0.209
581	0.206
581	0.205
582	0.203
582	0.201
583	0.199
583	0.196
584	0.192
584	0.188
585	0.186
585	0.185
585	0.183
586	0.181
586	0.179
587	0.176
587	0.173
588	0.17
588	0.168
589	0.167
589	0.165
590	0.163
590	0.16
590	0.16
591	0.158
591	0.156
592	0.154
592	0.151
593	0.15
593	0.148
594	0.146
594	0.144
594	0.143
595	0.141
595	0.139
596	0.136
596	0.136
597	0.136
597	0.135
598	0.133
598	0.132
598	0.131
599	0.13
599	0.128
600	0.126
600	0.125
601	0.124
601	0.123
602	0.121
602	0.12
602	0.118
603	0.117
603	0.117
604	0.116
604	0.116
605	0.115
605	0.115
606	0.114
606	0.111
606	0.11
607	0.109
607	0.108
608	0.107
608	0.105
609	0.104
609	0.103
610	0.102
610	0.1
610	0.1
611	0.099
611	0.099
612	0.098
612	0.098
613	0.097
613	0.097
614	0.095
614	0.093
614	0.092
615	0.091
615	0.089
616	0.088
616	0.087
617	0.086
617	0.084
618	0.083
618	0.082
618	0.082
619	0.081
619	0.081
620	0.081
620	0.08
621	0.079
621	0.078
622	0.077
622	0.076
622	0.074
623	0.073
623	0.073
624	0.073
624	0.072
625	0.071
625	0.071
626	0.07
626	0.07
626	0.07
627	0.07
627	0.07
628	0.07
628	0.069
629	0.069
629	0.068
630	0.067
630	0.066
630	0.065
631	0.065
631	0.064
632	0.063
632	0.062
633	0.062
633	0.061
634	0.061
634	0.06
634	0.06
635	0.06
635	0.059
636	0.059
636	0.058
637	0.057
637	0.057
638	0.056
638	0.056
638	0.055
639	0.053
639	0.052
640	0.051
640	0.05
641	0.049
641	0.047
642	0.046
642	0.045
642	0.043
643	0.042
643	0.04
644	0.038
644	0.037
645	0.035
645	0.034
646	0.032
646	0.03
646	0.027
647	0.025
647	0.022
648	0.018
648	0.015
649	0.011
649	0.007
650	0.004
650	-0.001
650	-0.005
651	-0.011
651	-0.017
652	-0.025
652	-0.032
653	-0.039
653	-0.046
653	-0.042
654	-0.035
654	-0.039
655	-0.046
655	-0.05
656	-0.055
656	-0.061
657	-0.066
657	-0.07
657	-0.075
658	-0.081
658	-0.105
659	-0.162
659	-0.214
660	-0.24
660	-0.259
661	-0.279
661	-0.3
661	-0.321
662	-0.338
662	-0.355
663	-0.374
663	-0.394
664	-0.409
664	-0.431
665	-0.453
665	-0.472
665	-0.491
666	-0.51
666	-0.532
667	-0.555
667	-0.581
668	-0.607
668	-0.645
669	-0.68
669	-0.716
669	-0.763
670	-0.822
670	-0.957
671	-1.242
671	-1.626
672	-1.992
672	-2.265
672	-2.418
673	-2.477
673	-2.493
674	-2.51
674	-2.519
675	-2.533
675	-2.537
676	-2.531
676	-2.49
676	-2.389
677	-2.163
677	-1.761
678	-1.251
678	-1.001
679	-0.925
679	-0.888
680	-0.861
680	-0.845
680	-0.83
681	-0.831
681	-0.817
682	-0.812
682	-0.798
683	-0.784
683	-0.789
684	-0.786
684	-0.787
684	-0.785
685	-0.785
685	-0.793
686	-0.783
686	-0.782
687	-0.785
687	-0.786
687	-0.798
688	-0.789
688	-0.79
689	-0.803
689	-0.806
690	-0.799
690	-0.794
691	-0.797
691	-0.805
691	-0.809
692	-0.813
692	-0.812
693	-0.824
693	-0.84
694	-0.822
694	-0.824
695	-0.83
695	-0.827
695	-0.837
696	-0.847
696	-0.84
697	-0.836
697	-0.835
698	-0.832
698	-0.825
698	-0.842
699	-0.841
699	-0.841
700	-0.861
700	-0.856
701	-0.843
701	-0.842
702	-0.844
702	-0.843
702	-0.843
703	-0.835
703	-0.823
704	-0.832
704	-0.837
705	-0.826
705	-0.826
705	-0.822
706	-0.815
706	-0.811
707	-0.823
707	-0.829
708	-0.827
708	-0.825
709	-0.829
709	-0.827
709	-0.824
710	-0.833
710	-0.837
711	-0.836
711	-0.839
712	-0.832
712	-0.827
713	-0.833
713	-0.835
713	-0.814
714	-0.816
714	-0.821
715	-0.813
715	-0.822
716	-0.84
716	-0.847
716	-0.848
717	-0.856
717	-0.847
718	-0.842
718	-0.843
719	-0.84
719	-0.833
720	-0.828
720	-0.823
720	-0.818
721	-0.81
721	-0.815
722	-0.813
722	-0.81
723	-0.826
723	-0.839
723	-0.847
724	-0.846
724	-0.851
725	-0.845
725	-0.849
726	-0.852
726	-0.843
727	-0.846
727	-0.854
727	-0.845
728	-0.832
728	-0.828
729	-0.831
729	-0.834
730	-0.84
730	-0.83
730	-0.836
731	-0.841
731	-0.84
732	-0.842
732	-0.837
733	-0.852
733	-0.861
734	-0.869
734	-0.861
734	-0.844
735	-0.836
735	-0.831
736	-0.83
736	-0.826
737	-0.825
737	-0.816
737	-0.81
738	-0.794
738	-0.782
739	-0.785
739	-0.785
740	-0.8
740	-0.802
741	-0.812
741	-0.822
741	-0.831
742	-0.837
742	-0.852
743	-0.859
743	-0.863
744	-0.866
744	-0.873
744	-0.867
745	-0.874
745	-0.865
746	-0.86
746	-0.851
747	-0.854
747	-0.842
748	-0.845
748	-0.848
748	-0.848
749	-0.841
749	-0.846
750	-0.836
750	-0.835
751	-0.834
751	-0.831
751	-0.844
752	-0.851
752	-0.853
753	-0.855
753	-0.848
754	-0.869
754	-0.87
754	-0.88
755	-0.881
755	-0.873
756	-0.875
756	-0.861
757	-0.85
757	-0.84
758	-0.839
758	-0.838
758	-0.833
759	-0.839
759	-0.838
760	-0.835
760	-0.839
761	-0.834
761	-0.839
761	-0.84
762	-0.846
762	-0.848
763	-0.849
763	-0.852
764	-0.85
764	-0.845
764	-0.852
765	-0.85
765	-0.855
766	-0.858
766	-0.86
767	-0.875
767	-0.869
768	-0.868
768	-0.86
768	-0.854
769	-0.858
769	-0.865
770	-0.876
770	-0.88
771	-0.877
771	-0.876
771	-0.879
772	-0.883
772	-0.906
773	-0.908
773	-0.908
774	-0.906
774	-0.888
775	-0.875
775	-0.875
775	-0.878
776	-0.888
776	-0.886
777	-0.885
777	-0.867
778	-0.876
778	-0.884
778	-0.885
779	-0.893
779	-0.909
780	-0.905
780	-0.914
781	-0.903
781	-0.891
781	-0.906
782	-0.927
782	-0.928
783	-0.927
783	-0.934
784	-0.937
784	-0.929
784	-0.95
785	-0.943
785	-0.957
786	-0.964
786	-0.957
787	-0.947
787	-0.956
788	-0.95
788	-0.945
788	-0.948
789	-0.949
789	-0.939
790	-0.939
790	-0.922
791	-0.93
791	-0.925
791	-0.919
792	-0.912
792	-0.914
793	-0.918
793	-0.906
794	-0.898
794	-0.891
794	-0.899
795	-0.919
795	-0.905
796	-0.912
796	-0.908
797	-0.901
797	-0.894
797	-0.885
798	-0.905
798	-0.91
799	-0.91
799	-0.896
800	-0.89
800	-0.899
801	-0.896
801	-0.899
801	-0.895
802	-0.893
802	-0.894
803	-0.889
803	-0.883
804	-0.888
804	-0.896
804	-0.879
805	-0.859
805	-0.85
806	-0.851
806	-0.847
807	-0.85
807	-0.85
807	-0.833
808	-0.828
808	-0.821
809	-0.815
809	-0.817
810	-0.82
810	-0.815
810	-0.812
811	-0.815
811	-0.807
812	-0.799
812	-0.8
813	-0.805
813	-0.807
813	-0.801
814	-0.8
814	-0.806
815	-0.799
815	-0.796
816	-0.792
816	-0.808
817	-0.819
817	-0.825
817	-0.833
818	-0.825
818	-0.824
819	-0.836
819	-0.833
820	-0.845
820	-0.842
820	-0.842
821	-0.837
821	-0.834
822	-0.832
822	-0.82
823	-0.831
823	-0.83
823	-0.824
824	-0.825
824	-0.835
825	-0.835
825	-0.831
826	-0.829
826	-0.824
826	-0.823
827	-0.825
827	-0.815
828	-0.815
828	-0.809
829	-0.801
829	-0.786
829	-0.784
830	-0.783
830	-0.767
831	-0.761
831	-0.75
832	-0.742
832	-0.736
832	-0.731
833	-0.73
833	-0.736
834	-0.731
834	-0.724
835	-0.717
835	-0.718
835	-0.714
836	-0.712
836	-0.706
837	-0.696
837	-0.686
838	-0.672
838	-0.654
839	-0.65
839	-0.637
839	-0.626
840	-0.624
840	-0.613
841	-0.602
841	-0.596
842	-0.588
842	-0.577
842	-0.575
843	-0.572
843	-0.567
844	-0.566
844	-0.556
845	-0.543
845	-0.533
845	-0.521
846	-0.509
846	-0.499
847	-0.488
847	-0.476
848	-0.461
848	-0.444
848	-0.43
849	-0.418
849	-0.405
850	-0.394
850	-0.384
851	-0.371
851	-0.355
851	-0.347
852	-0.331
852	-0.319
853	-0.311
853	-0.301
854	-0.289
854	-0.277
854	-0.266
855	-0.256
855	-0.248
856	-0.241
856	-0.232
857	-0.224
857	-0.215
857	-0.202
858	-0.191
858	-0.184
859	-0.174
859	-0.163
860	-0.152
860	-0.139
860	-0.129
861	-0.119
861	-0.109
862	-0.101
862	-0.094
863	-0.086
863	-0.076
863	-0.07
864	-0.064
864	-0.058
865	-0.051
865	-0.045
866	-0.04
866	-0.034
866	-0.029
867	-0.023
867	-0.018
868	-0.014
868	-0.009
869	-0.004
869	-0.001
869	0.001
870	0.003
870	0.005
871	0.007
871	0.008
872	0.009
872	0.01
872	0.011
873	0.011
873	0.011
874	0.01
874	0.01
875	0.01
875	0.01
875	0.01
876	0.01
876	0.01
877	0.009
877	0.009
878	0.009
878	0.009
878	0.009
879	0.009
879	0.008
880	0.008
880	0.007
881	0.006
881	0.004
881	0.003
882	0.002
882	0
883	-0.001
883	-0.002
884	-0.003
884	-0.003
884	-0.003
885	-0.003
885	-0.003
886	-0.003
886	-0.003
887	-0.003
887	-0.004
887	-0.005
888	-0.005
888	-0.006
889	-0.007
889	-0.008
890	-0.009
890	-0.01
890	-0.011
891	-0.011
891	-0.011
892	-0.01
892	-0.01
893	-0.009
893	-0.009
893	-0.008
894	-0.008
894	-0.007
895	-0.007
895	-0.007
895	-0.007
896	-0.007
896	-0.007
897	-0.007
897	-0.007
898	-0.007
898	-0.007
898	-0.007
899	-0.006
899	-0.006
900	-0.005
900	-0.005
901	-0.005
901	-0.006
901	-0.006
902	-0.007
902	-0.006
903	-0.007
903	-0.007
904	-0.008
904	-0.008
904	-0.008
905	-0.009
905	-0.009
906	-0.008
906	-0.008
907	-0.007
907	-0.007
907	-0.007
908	-0.007
908	-0.006
909	-0.006
909	-0.005
910	-0.005
910	-0.004
910	-0.004
911	-0.003
911	-0.002
912	-0.002
912	-0.001
913	0
913	0.001
913	0.002
914	0.003
914	0.003
915	0.003
915	0.003
916	0.003
916	0.003
916	0.003
917	0.003
917	0.003
918	0.002
918	0.001
918	0.001
919	0
919	0
920	0
920	0.001
921	0.001
921	0.002
921	0.002
922	0.002
922	0.002
923	0.003
923	0.003
924	0.002
924	0.002
924	0.001
925	-0
925	-0.001
926	-0.003
926	-0.004
927	-0.005
927	-0.006
927	-0.007
928	-0.008
928	-0.008
929	-0.008
929	-0.007
930	-0.006
930	-0.006
930	-0.004
931	-0.003
931	-0.002
932	-0.001
932	0
933	0.001
933	0.002
933	0.002
934	0.001
934	0.001
935	0.001
935	-0
935	-0.001
936	-0.003
936	-0.004
937	-0.005
937	-0.006
938	-0.007
938	-0.007
938	-0.008
939	-0.008
939	-0.009
940	-0.009
940	-0.01
941	-0.01
941	-0.011
941	-0.011
942	-0.011
942	-0.011
943	-0.011
943	-0.011
944	-0.012
944	-0.013
944	-0.013
945	-0.013
945	-0.013
946	-0.013
946	-0.014
946	-0.015
947	-0.015
947	-0.015
948	-0.015
948	-0.014
949	-0.013
949	-0.012
949	-0.011
950	-0.009
950	-0.008
951	-0.006
951	-0.005
952	-0.004
952	-0.002
952	-0.002
953	-0.001
953	-0
954	-0.001
954	-0.001
955	-0.001
955	-0.001
955	-0.001
956	-0.002
956	-0.002
957	-0.003
957	-0.004
957	-0.005
958	-0.006
958	-0.007
959	-0.008
959	-0.008
960	-0.008
960	-0.009
960	-0.009
961	-0.008
961	-0.008
962	-0.008
962	-0.007
963	-0.007
963	-0.007
963	-0.006
964	-0.006
964	-0.005
965	-0.004
965	-0.004
966	-0.004
966	-0.003
966	-0.002
967	-0.002
967	-0.002
968	-0.002
968	-0.002
968	-0.002
969	-0.002
969	-0.002
970	-0.003
970	-0.003
971	-0.003
971	-0.003
971	-0.003
972	-0.003
972	-0.003
973	-0.003
973	-0.003
974	-0.003
974	-0.003
974	-0.003
975	-0.003
975	-0.003
976	-0.004
976	-0.004
976	-0.004
977	-0.004
977	-0.005
978	-0.005
978	-0.006
979	-0.006
979	-0.006
979	-0.007
980	-0.007
980	-0.007
981	-0.007
981	-0.007
982	-0.007
982	-0.007
982	-0.007
983	-0.007
983	-0.008
984	-0.008
984	-0.008
984	-0.008
985	-0.008
985	-0.008
986	-0.009
986	-0.01
987	-0.011
987	-0.011
987	-0.012
988	-0.013
988	-0.014
989	-0.015
989	-0.016
990	-0.017
990	-0.018
990	-0.019
991	-0.02
991	-0.021
992	-0.021
992	-0.022
992	-0.023
993	-0.024
993	-0.025
994	-0.026
994	-0.028
995	-0.029
995	-0.03
995	-0.031
996	-0.033
996	-0.034
997	-0.035
997	-0.036
997	-0.036
998	-0.036
998	-0.036
999	-0.035
999	-0.035
1000	-0.034
1000	-0.034
1000	-0.033
1001	-0.032
1001	-0.031
1002	-0.03
1002	-0.029
1003	-0.028
1003	-0.028
1003	-0.027
1004	-0.027
1004	-0.026
1005	-0.026
1005	-0.027
1005	-0.027
1006	-0.027
1006	-0.028
1007	-0.029
1007	-0.029
1008	-0.03
1008	-0.031
1008	-0.031
1009	-0.031
1009	-0.031
1010	-0.031
1010	-0.03
1010	-0.03
1011	-0.029
1011	-0.029
1012	-0.028
1012	-0.027
1013	-0.026
1013	-0.025
1013	-0.025
1014	-0.024
1014	-0.024
1015	-0.024
1015	-0.023
1016	-0.023
1016	-0.023
1016	-0.024
1017	-0.024
1017	-0.024
1018	-0.024
1018	-0.025
1018	-0.025
1019	-0.025
1019	-0.025
1020	-0.026
1020	-0.026
1021	-0.027
1021	-0.027
1021	-0.027
1022	-0.028
1022	-0.028
1023	-0.028
1023	-0.028
1023	-0.028
1024	-0.028
1024	-0.028
1025	-0.028
1025	-0.028
1026	-0.028
1026	-0.027
1026	-0.027
1027	-0.027
1027	-0.027
1028	-0.027
1028	-0.026
1028	-0.026
1029	-0.026
1029	-0.025
1030	-0.025
1030	-0.025
1031	-0.025
1031	-0.025
1031	-0.025
1032	-0.025
1032	-0.025
1033	-0.025
1033	-0.026
1033	-0.026
1034	-0.026
1034	-0.027
1035	-0.028
1035	-0.028
1036	-0.029
1036	-0.03
1036	-0.031
1037	-0.031
1037	-0.031
1038	-0.031
1038	-0.031
1039	-0.031
1039	-0.031
1039	-0.03
1040	-0.03
1040	-0.03
1041	-0.03
1041	-0.03
1041	-0.03
1042	-0.031
1042	-0.031
1043	-0.032
1043	-0.032
1044	-0.032
1044	-0.033
1044	-0.034
1045	-0.034
1045	-0.034
1046	-0.035
1046	-0.035
1046	-0.034
1047	-0.034
1047	-0.034
1048	-0.034
1048	-0.034
1049	-0.034
1049	-0.034
1049	-0.035
1050	-0.035
1050	-0.036
1051	-0.037
1051	-0.038
1051	-0.039
1052	-0.039
1052	-0.04
1053	-0.041
1053	-0.041
1053	-0.042
1054	-0.042
1054	-0.042
1055	-0.042
1055	-0.041
1056	-0.042
1056	-0.041
1056	-0.041
1057	-0.041
1057	-0.041
1058	-0.041
1058	-0.041
1058	-0.041
1059	-0.041
1059	-0.042
1060	-0.042
1060	-0.042
1061	-0.043
1061	-0.043
1061	-0.043
1062	-0.043
1062	-0.044
1063	-0.044
1063	-0.044
1063	-0.044
1064	-0.044
1064	-0.043
1065	-0.044
1065	-0.044
1066	-0.044
1066	-0.044
1066	-0.044
1067	-0.045
1067	-0.046
1068	-0.047
1068	-0.048
1068	-0.049
1069	-0.05
1069	-0.051
1070	-0.051
1070	-0.052
1071	-0.052
1071	-0.052
1071	-0.053
1072	-0.053
1072	-0.053
1073	-0.053
1073	-0.053
1073	-0.053
1074	-0.053
1074	-0.053
1075	-0.054
1075	-0.054
1076	-0.055
1076	-0.055
1076	-0.056
1077	-0.057
1077	-0.058
1078	-0.058
1078	-0.059
1078	-0.06
1079	-0.06
1079	-0.061
1080	-0.062
1080	-0.062
1080	-0.063
1081	-0.064
1081	-0.065
1082	-0.066
1082	-0.067
1083	-0.068
1083	-0.069
1083	-0.071
1084	-0.072
1084	-0.073
1085	-0.075
1085	-0.076
1085	-0.077
1086	-0.077
1086	-0.079
1087	-0.08
1087	-0.081
1088	-0.082
1088	-0.083
1088	-0.083
1089	-0.085
1089	-0.086
1090	-0.086
1090	-0.087
1090	-0.088
1091	-0.089
1091	-0.089
1092	-0.089
1092	-0.089
1092	-0.09
1093	-0.091
1093	-0.091
1094	-0.091
1094	-0.092
1095	-0.094
1095	-0.094
1095	-0.095
1096	-0.097
1096	-0.099
1097	-0.1
1097	-0.102
1097	-0.104
1098	-0.105
1098	-0.108
1099	-0.11
1099	-0.111
1100	-0.113
1100	-0.115
1100	-0.119
1101	-0.121
1101	-0.124
1102	-0.126
1102	-0.128
1102	-0.13
1103	-0.133
1103	-0.135
1104	-0.139
1104	-0.142
1104	-0.144
1105	-0.145
1105	-0.148
1106	-0.154
1106	-0.155
1107	-0.161
1107	-0.166
1107	-0.171
1108	-0.174
1108	-0.175
1109	-0.179
1109	-0.184
1109	-0.189
1110	-0.191
1110	-0.194
1111	-0.205
1111	-0.202
