Data from 3.3A_17C_Absorbance__338__03205.txt Node

Date: Tue Jun 20 17:24:10 CEST 2023
User: Marek
Spectrometer: MAYP115816
Trigger mode: 0
Integration Time (sec): 2.200000E-1
Scans to average: 10
Electric dark correction enabled: true
Nonlinearity correction enabled: true
Boxcar width: 5
XAxis mode: Wavelengths
Number of Pixels in Spectrum: 2068
>>>>>Begin Spectral Data<<<<<
199	-0.8
199	-0.787
200	-0.751
200	-0.697
201	-0.669
201	-0.662
202	-0.645
202	-0.639
203	-0.638
203	-0.631
204	-0.611
204	-0.595
205	-0.571
205	-0.561
205	-0.572
206	-0.572
206	-0.567
207	-0.56
207	-0.568
208	-0.569
208	-0.574
209	-0.575
209	-0.58
210	-0.594
210	-0.602
211	-0.593
211	-0.6
212	-0.609
212	-0.616
213	-0.611
213	-0.606
213	-0.603
214	-0.612
214	-0.615
215	-0.61
215	-0.614
216	-0.624
216	-0.63
217	-0.627
217	-0.626
218	-0.635
218	-0.637
219	-0.644
219	-0.645
220	-0.648
220	-0.655
221	-0.655
221	-0.655
221	-0.645
222	-0.646
222	-0.645
223	-0.641
223	-0.643
224	-0.644
224	-0.643
225	-0.64
225	-0.643
226	-0.644
226	-0.644
227	-0.651
227	-0.661
228	-0.664
228	-0.671
229	-0.675
229	-0.671
229	-0.671
230	-0.666
230	-0.664
231	-0.66
231	-0.654
232	-0.658
232	-0.651
233	-0.652
233	-0.64
234	-0.641
234	-0.637
235	-0.641
235	-0.654
236	-0.66
236	-0.661
236	-0.662
237	-0.659
237	-0.661
238	-0.66
238	-0.664
239	-0.665
239	-0.675
240	-0.669
240	-0.664
241	-0.659
241	-0.662
242	-0.665
242	-0.674
243	-0.675
243	-0.677
243	-0.681
244	-0.677
244	-0.678
245	-0.679
245	-0.684
246	-0.694
246	-0.697
247	-0.705
247	-0.69
248	-0.689
248	-0.692
249	-0.698
249	-0.7
250	-0.699
250	-0.709
250	-0.705
251	-0.705
251	-0.701
252	-0.702
252	-0.715
253	-0.71
253	-0.722
254	-0.726
254	-0.728
255	-0.738
255	-0.735
256	-0.738
256	-0.75
257	-0.759
257	-0.754
258	-0.755
258	-0.762
258	-0.76
259	-0.754
259	-0.77
260	-0.771
260	-0.761
261	-0.772
261	-0.758
262	-0.764
262	-0.765
263	-0.757
263	-0.761
264	-0.771
264	-0.772
265	-0.763
265	-0.764
265	-0.774
266	-0.766
266	-0.764
267	-0.763
267	-0.777
268	-0.785
268	-0.782
269	-0.773
269	-0.786
270	-0.79
270	-0.789
271	-0.803
271	-0.814
272	-0.817
272	-0.82
272	-0.815
273	-0.825
273	-0.839
274	-0.833
274	-0.827
275	-0.824
275	-0.812
276	-0.816
276	-0.821
277	-0.823
277	-0.82
278	-0.823
278	-0.822
278	-0.81
279	-0.816
279	-0.831
280	-0.833
280	-0.844
281	-0.838
281	-0.829
282	-0.836
282	-0.83
283	-0.825
283	-0.838
284	-0.852
284	-0.863
285	-0.844
285	-0.85
285	-0.841
286	-0.846
286	-0.864
287	-0.86
287	-0.86
288	-0.859
288	-0.84
289	-0.838
289	-0.845
290	-0.853
290	-0.842
291	-0.846
291	-0.843
292	-0.823
292	-0.818
292	-0.824
293	-0.811
293	-0.808
294	-0.809
294	-0.796
295	-0.779
295	-0.791
296	-0.803
296	-0.798
297	-0.787
297	-0.793
298	-0.788
298	-0.806
298	-0.811
299	-0.791
299	-0.782
300	-0.779
300	-0.76
301	-0.741
301	-0.744
302	-0.754
302	-0.74
303	-0.733
303	-0.72
304	-0.703
304	-0.706
305	-0.699
305	-0.708
305	-0.724
306	-0.708
306	-0.705
307	-0.697
307	-0.707
308	-0.709
308	-0.705
309	-0.708
309	-0.704
310	-0.702
310	-0.697
311	-0.682
311	-0.701
311	-0.689
312	-0.685
312	-0.675
313	-0.668
313	-0.669
314	-0.674
314	-0.673
315	-0.669
315	-0.662
316	-0.656
316	-0.645
317	-0.638
317	-0.637
318	-0.627
318	-0.625
318	-0.612
319	-0.601
319	-0.591
320	-0.589
320	-0.587
321	-0.583
321	-0.583
322	-0.574
322	-0.565
323	-0.568
323	-0.558
324	-0.556
324	-0.544
324	-0.534
325	-0.52
325	-0.501
326	-0.491
326	-0.465
327	-0.45
327	-0.427
328	-0.393
328	-0.369
329	-0.34
329	-0.312
330	-0.284
330	-0.245
330	-0.209
331	-0.172
331	-0.136
332	-0.1
332	-0.066
333	-0.034
333	0.001
334	0.032
334	0.06
335	0.089
335	0.112
336	0.137
336	0.16
336	0.177
337	0.196
337	0.215
338	0.231
338	0.242
339	0.258
339	0.27
340	0.28
340	0.29
341	0.298
341	0.304
342	0.313
342	0.319
342	0.325
343	0.33
343	0.337
344	0.34
344	0.343
345	0.347
345	0.35
346	0.352
346	0.354
347	0.356
347	0.358
348	0.36
348	0.362
348	0.362
349	0.363
349	0.364
350	0.365
350	0.366
351	0.366
351	0.367
352	0.367
352	0.367
353	0.367
353	0.368
354	0.368
354	0.368
354	0.368
355	0.368
355	0.368
356	0.368
356	0.368
357	0.37
357	0.37
358	0.37
358	0.37
359	0.37
359	0.37
360	0.37
360	0.37
360	0.37
361	0.37
361	0.37
362	0.369
362	0.369
363	0.369
363	0.368
364	0.368
364	0.368
365	0.368
365	0.368
366	0.368
366	0.367
366	0.368
367	0.368
367	0.367
368	0.367
368	0.367
369	0.366
369	0.366
370	0.366
370	0.366
371	0.366
371	0.365
372	0.365
372	0.365
372	0.365
373	0.364
373	0.364
374	0.364
374	0.364
375	0.364
375	0.363
376	0.363
376	0.363
377	0.362
377	0.362
378	0.362
378	0.361
378	0.361
379	0.36
379	0.36
380	0.36
380	0.36
381	0.36
381	0.359
382	0.359
382	0.359
383	0.358
383	0.358
383	0.357
384	0.357
384	0.357
385	0.356
385	0.356
386	0.356
386	0.355
387	0.355
387	0.355
388	0.354
388	0.354
389	0.354
389	0.354
389	0.354
390	0.353
390	0.353
391	0.353
391	0.353
392	0.352
392	0.352
393	0.351
393	0.351
394	0.351
394	0.35
394	0.35
395	0.349
395	0.348
396	0.348
396	0.347
397	0.347
397	0.347
398	0.346
398	0.346
399	0.345
399	0.345
400	0.345
400	0.344
400	0.344
401	0.344
401	0.343
402	0.343
402	0.343
403	0.343
403	0.343
404	0.343
404	0.342
405	0.342
405	0.342
405	0.341
406	0.341
406	0.341
407	0.341
407	0.341
408	0.34
408	0.34
409	0.34
409	0.339
410	0.339
410	0.339
411	0.339
411	0.338
411	0.338
412	0.338
412	0.337
413	0.337
413	0.337
414	0.337
414	0.336
415	0.336
415	0.336
416	0.335
416	0.335
416	0.335
417	0.334
417	0.334
418	0.334
418	0.334
419	0.334
419	0.334
420	0.334
420	0.334
421	0.333
421	0.333
421	0.333
422	0.333
422	0.333
423	0.333
423	0.333
424	0.333
424	0.332
425	0.332
425	0.332
426	0.332
426	0.332
427	0.332
427	0.332
427	0.332
428	0.331
428	0.331
429	0.331
429	0.331
430	0.33
430	0.33
431	0.33
431	0.33
432	0.329
432	0.329
432	0.329
433	0.328
433	0.328
434	0.329
434	0.329
435	0.329
435	0.329
436	0.329
436	0.329
437	0.329
437	0.329
437	0.329
438	0.329
438	0.329
439	0.329
439	0.329
440	0.328
440	0.328
441	0.328
441	0.328
442	0.327
442	0.327
442	0.327
443	0.327
443	0.327
444	0.327
444	0.327
445	0.327
445	0.327
446	0.327
446	0.327
447	0.327
447	0.327
447	0.327
448	0.327
448	0.327
449	0.327
449	0.327
450	0.327
450	0.327
451	0.328
451	0.327
452	0.328
452	0.327
452	0.328
453	0.328
453	0.328
454	0.328
454	0.328
455	0.328
455	0.328
456	0.328
456	0.328
457	0.328
457	0.328
458	0.328
458	0.328
458	0.328
459	0.328
459	0.328
460	0.328
460	0.328
461	0.328
461	0.329
462	0.329
462	0.33
463	0.331
463	0.332
463	0.333
464	0.333
464	0.333
465	0.334
465	0.335
466	0.335
466	0.335
467	0.335
467	0.335
467	0.335
468	0.335
468	0.335
469	0.336
469	0.336
470	0.337
470	0.337
471	0.338
471	0.339
472	0.339
472	0.34
472	0.34
473	0.341
473	0.342
474	0.343
474	0.344
475	0.345
475	0.346
476	0.347
476	0.348
477	0.349
477	0.35
477	0.351
478	0.352
478	0.353
479	0.354
479	0.355
480	0.356
480	0.357
481	0.357
481	0.358
482	0.36
482	0.361
482	0.362
483	0.364
483	0.366
484	0.367
484	0.368
485	0.37
485	0.371
486	0.373
486	0.374
487	0.376
487	0.377
487	0.379
488	0.38
488	0.381
489	0.383
489	0.385
490	0.387
490	0.388
491	0.391
491	0.393
492	0.394
492	0.396
492	0.398
493	0.399
493	0.401
494	0.404
494	0.407
495	0.408
495	0.41
496	0.413
496	0.415
496	0.418
497	0.42
497	0.423
498	0.425
498	0.428
499	0.43
499	0.433
500	0.437
500	0.44
501	0.443
501	0.445
501	0.448
502	0.45
502	0.453
503	0.456
503	0.458
504	0.461
504	0.464
505	0.466
505	0.47
506	0.473
506	0.476
506	0.48
507	0.483
507	0.487
508	0.49
508	0.494
509	0.497
509	0.5
510	0.504
510	0.507
511	0.509
511	0.512
511	0.514
512	0.517
512	0.519
513	0.521
513	0.524
514	0.527
514	0.53
515	0.532
515	0.534
515	0.537
516	0.54
516	0.542
517	0.544
517	0.547
518	0.549
518	0.55
519	0.552
519	0.553
520	0.555
520	0.557
520	0.559
521	0.56
521	0.562
522	0.564
522	0.566
523	0.567
523	0.569
524	0.57
524	0.572
524	0.573
525	0.574
525	0.574
526	0.575
526	0.576
527	0.577
527	0.577
528	0.577
528	0.577
529	0.577
529	0.577
529	0.577
530	0.577
530	0.577
531	0.576
531	0.576
532	0.575
532	0.575
533	0.574
533	0.573
533	0.572
534	0.571
534	0.57
535	0.569
535	0.568
536	0.567
536	0.565
537	0.564
537	0.563
538	0.561
538	0.559
538	0.557
539	0.556
539	0.554
540	0.551
540	0.549
541	0.546
541	0.544
542	0.541
542	0.539
542	0.536
543	0.533
543	0.53
544	0.527
544	0.524
545	0.522
545	0.519
546	0.516
546	0.513
547	0.509
547	0.506
547	0.503
548	0.501
548	0.498
549	0.495
549	0.492
550	0.489
550	0.485
551	0.481
551	0.478
551	0.475
552	0.472
552	0.469
553	0.466
553	0.463
554	0.46
554	0.456
555	0.453
555	0.45
556	0.447
556	0.443
556	0.44
557	0.437
557	0.434
558	0.431
558	0.428
559	0.425
559	0.422
560	0.418
560	0.415
560	0.412
561	0.41
561	0.407
562	0.404
562	0.402
563	0.399
563	0.396
564	0.393
564	0.391
564	0.388
565	0.386
565	0.384
566	0.381
566	0.378
567	0.376
567	0.374
568	0.372
568	0.369
568	0.367
569	0.364
569	0.361
570	0.358
570	0.355
571	0.353
571	0.35
572	0.347
572	0.344
573	0.341
573	0.338
573	0.335
574	0.333
574	0.331
575	0.329
575	0.328
576	0.326
576	0.323
577	0.32
577	0.318
577	0.317
578	0.316
578	0.315
579	0.314
579	0.312
580	0.309
580	0.305
581	0.302
581	0.3
581	0.298
582	0.297
582	0.296
583	0.294
583	0.292
584	0.288
584	0.285
585	0.284
585	0.283
585	0.282
586	0.28
586	0.278
587	0.276
587	0.274
588	0.271
588	0.269
589	0.268
589	0.267
590	0.265
590	0.263
590	0.263
591	0.262
591	0.26
592	0.258
592	0.255
593	0.254
593	0.253
594	0.251
594	0.249
594	0.248
595	0.246
595	0.244
596	0.242
596	0.242
597	0.242
597	0.241
598	0.239
598	0.238
598	0.237
599	0.236
599	0.234
600	0.233
600	0.231
601	0.231
601	0.229
602	0.227
602	0.226
602	0.224
603	0.224
603	0.223
604	0.222
604	0.221
605	0.221
605	0.221
606	0.219
606	0.217
606	0.216
607	0.214
607	0.214
608	0.212
608	0.21
609	0.209
609	0.208
610	0.206
610	0.204
610	0.204
611	0.203
611	0.202
612	0.202
612	0.201
613	0.2
613	0.199
614	0.198
614	0.196
614	0.195
615	0.193
615	0.191
616	0.19
616	0.188
617	0.187
617	0.185
618	0.184
618	0.183
618	0.181
619	0.18
619	0.18
620	0.18
620	0.179
621	0.178
621	0.176
622	0.174
622	0.173
622	0.171
623	0.17
623	0.169
624	0.169
624	0.167
625	0.166
625	0.165
626	0.163
626	0.162
626	0.162
627	0.161
627	0.16
628	0.159
628	0.158
629	0.156
629	0.155
630	0.152
630	0.15
630	0.149
631	0.148
631	0.145
632	0.143
632	0.141
633	0.139
633	0.137
634	0.135
634	0.133
634	0.132
635	0.129
635	0.127
636	0.125
636	0.122
637	0.119
637	0.116
638	0.114
638	0.11
638	0.107
639	0.103
639	0.098
640	0.094
640	0.09
641	0.086
641	0.082
642	0.078
642	0.073
642	0.069
643	0.064
643	0.059
644	0.054
644	0.049
645	0.044
645	0.039
646	0.034
646	0.028
646	0.021
647	0.015
647	0.009
648	0.002
648	-0.005
649	-0.012
649	-0.018
650	-0.025
650	-0.032
650	-0.039
651	-0.048
651	-0.059
652	-0.072
652	-0.085
653	-0.096
653	-0.106
653	-0.101
654	-0.082
654	-0.077
655	-0.081
655	-0.086
656	-0.092
656	-0.097
657	-0.101
657	-0.104
657	-0.11
658	-0.115
658	-0.144
659	-0.225
659	-0.307
660	-0.343
660	-0.367
661	-0.391
661	-0.419
661	-0.447
662	-0.472
662	-0.5
663	-0.53
663	-0.565
664	-0.597
664	-0.633
665	-0.675
665	-0.718
665	-0.758
666	-0.804
666	-0.855
667	-0.906
667	-0.964
668	-1.019
668	-1.084
669	-1.15
669	-1.222
669	-1.299
670	-1.383
670	-1.508
671	-1.741
671	-2.128
672	-2.349
672	-2.502
672	-2.617
673	-2.709
673	-2.787
674	-2.821
674	-2.832
675	-2.847
675	-2.85
676	-2.84
676	-2.774
676	-2.696
677	-2.598
677	-2.473
678	-2.276
678	-1.876
679	-1.583
679	-1.454
680	-1.365
680	-1.299
680	-1.241
681	-1.203
681	-1.156
682	-1.121
682	-1.085
683	-1.046
683	-1.029
684	-1.005
684	-0.99
684	-0.971
685	-0.955
685	-0.949
686	-0.93
686	-0.921
687	-0.913
687	-0.904
687	-0.909
688	-0.893
688	-0.888
689	-0.893
689	-0.892
690	-0.879
690	-0.871
691	-0.869
691	-0.874
691	-0.875
692	-0.875
692	-0.871
693	-0.88
693	-0.891
694	-0.873
694	-0.873
695	-0.875
695	-0.869
695	-0.878
696	-0.884
696	-0.878
697	-0.874
697	-0.871
698	-0.868
698	-0.862
698	-0.877
699	-0.875
699	-0.878
700	-0.898
700	-0.891
701	-0.88
701	-0.874
702	-0.875
702	-0.873
702	-0.873
703	-0.864
703	-0.853
704	-0.862
704	-0.863
705	-0.853
705	-0.853
705	-0.846
706	-0.837
706	-0.833
707	-0.844
707	-0.847
708	-0.845
708	-0.841
709	-0.843
709	-0.841
709	-0.837
710	-0.845
710	-0.849
711	-0.85
711	-0.85
712	-0.842
712	-0.84
713	-0.845
713	-0.846
713	-0.825
714	-0.827
714	-0.83
715	-0.823
715	-0.83
716	-0.847
716	-0.858
716	-0.86
717	-0.865
717	-0.856
718	-0.851
718	-0.852
719	-0.847
719	-0.84
720	-0.835
720	-0.832
720	-0.825
721	-0.815
721	-0.818
722	-0.817
722	-0.812
723	-0.831
723	-0.844
723	-0.851
724	-0.849
724	-0.853
725	-0.847
725	-0.851
726	-0.855
726	-0.847
727	-0.85
727	-0.857
727	-0.847
728	-0.834
728	-0.832
729	-0.835
729	-0.838
730	-0.843
730	-0.834
730	-0.839
731	-0.843
731	-0.843
732	-0.847
732	-0.842
733	-0.859
733	-0.866
734	-0.875
734	-0.866
734	-0.849
735	-0.843
735	-0.837
736	-0.837
736	-0.829
737	-0.828
737	-0.817
737	-0.807
738	-0.793
738	-0.782
739	-0.785
739	-0.787
740	-0.798
740	-0.8
741	-0.809
741	-0.82
741	-0.829
742	-0.837
742	-0.854
743	-0.859
743	-0.86
744	-0.863
744	-0.87
744	-0.863
745	-0.87
745	-0.858
746	-0.851
746	-0.843
747	-0.844
747	-0.834
748	-0.835
748	-0.84
748	-0.842
749	-0.836
749	-0.843
750	-0.834
750	-0.835
751	-0.836
751	-0.833
751	-0.847
752	-0.849
752	-0.853
753	-0.854
753	-0.846
754	-0.864
754	-0.864
754	-0.873
755	-0.875
755	-0.867
756	-0.87
756	-0.855
757	-0.847
757	-0.837
758	-0.839
758	-0.838
758	-0.833
759	-0.836
759	-0.834
760	-0.832
760	-0.833
761	-0.828
761	-0.832
761	-0.833
762	-0.838
762	-0.837
763	-0.838
763	-0.843
764	-0.843
764	-0.839
764	-0.845
765	-0.844
765	-0.85
766	-0.855
766	-0.858
767	-0.874
767	-0.869
768	-0.867
768	-0.859
768	-0.856
769	-0.861
769	-0.867
770	-0.875
770	-0.88
771	-0.875
771	-0.875
771	-0.88
772	-0.885
772	-0.906
773	-0.908
773	-0.905
774	-0.901
774	-0.885
775	-0.873
775	-0.873
775	-0.876
776	-0.886
776	-0.881
777	-0.88
777	-0.864
778	-0.872
778	-0.882
778	-0.883
779	-0.892
779	-0.907
780	-0.902
780	-0.909
781	-0.899
781	-0.887
781	-0.903
782	-0.922
782	-0.923
783	-0.921
783	-0.93
784	-0.934
784	-0.927
784	-0.948
785	-0.942
785	-0.953
786	-0.958
786	-0.95
787	-0.94
787	-0.949
788	-0.944
788	-0.939
788	-0.938
789	-0.938
789	-0.928
790	-0.927
790	-0.913
791	-0.92
791	-0.914
791	-0.907
792	-0.901
792	-0.905
793	-0.907
793	-0.896
794	-0.888
794	-0.88
794	-0.888
795	-0.908
795	-0.895
796	-0.902
796	-0.899
797	-0.89
797	-0.881
797	-0.874
798	-0.895
798	-0.9
799	-0.902
799	-0.887
800	-0.882
800	-0.89
801	-0.884
801	-0.889
801	-0.887
802	-0.886
802	-0.885
803	-0.879
803	-0.87
804	-0.874
804	-0.881
804	-0.864
805	-0.847
805	-0.841
806	-0.841
806	-0.838
807	-0.838
807	-0.838
807	-0.821
808	-0.818
808	-0.81
809	-0.806
809	-0.807
810	-0.81
810	-0.806
810	-0.801
811	-0.804
811	-0.796
812	-0.789
812	-0.791
813	-0.796
813	-0.797
813	-0.793
814	-0.794
814	-0.798
815	-0.789
815	-0.786
816	-0.781
816	-0.798
817	-0.811
817	-0.815
817	-0.824
818	-0.817
818	-0.814
819	-0.824
819	-0.823
820	-0.836
820	-0.836
820	-0.835
821	-0.829
821	-0.825
822	-0.824
822	-0.81
823	-0.822
823	-0.822
823	-0.817
824	-0.815
824	-0.825
825	-0.822
825	-0.82
826	-0.816
826	-0.812
826	-0.812
827	-0.813
827	-0.803
828	-0.802
828	-0.797
829	-0.789
829	-0.775
829	-0.772
830	-0.771
830	-0.757
831	-0.748
831	-0.738
832	-0.729
832	-0.724
832	-0.715
833	-0.714
833	-0.721
834	-0.716
834	-0.712
835	-0.703
835	-0.704
835	-0.699
836	-0.693
836	-0.688
837	-0.678
837	-0.672
838	-0.658
838	-0.642
839	-0.636
839	-0.622
839	-0.612
840	-0.611
840	-0.6
841	-0.591
841	-0.586
842	-0.578
842	-0.564
842	-0.561
843	-0.557
843	-0.553
844	-0.55
844	-0.54
845	-0.526
845	-0.519
845	-0.507
846	-0.495
846	-0.484
847	-0.473
847	-0.461
848	-0.446
848	-0.428
848	-0.414
849	-0.404
849	-0.391
850	-0.38
850	-0.369
851	-0.356
851	-0.339
851	-0.33
852	-0.314
852	-0.302
853	-0.292
853	-0.282
854	-0.269
854	-0.258
854	-0.246
855	-0.234
855	-0.227
856	-0.22
856	-0.211
857	-0.203
857	-0.196
857	-0.182
858	-0.171
858	-0.164
859	-0.154
859	-0.142
860	-0.132
860	-0.117
860	-0.107
861	-0.097
861	-0.087
862	-0.078
862	-0.071
863	-0.062
863	-0.053
863	-0.046
864	-0.04
864	-0.033
865	-0.025
865	-0.019
866	-0.014
866	-0.009
866	-0.003
867	0.003
867	0.008
868	0.012
868	0.017
869	0.022
869	0.025
869	0.027
870	0.029
870	0.032
871	0.034
871	0.035
872	0.036
872	0.037
872	0.038
873	0.038
873	0.037
874	0.037
874	0.036
875	0.036
875	0.036
875	0.036
876	0.035
876	0.035
877	0.035
877	0.034
878	0.033
878	0.033
878	0.033
879	0.033
879	0.032
880	0.032
880	0.03
881	0.029
881	0.027
881	0.027
882	0.025
882	0.024
883	0.022
883	0.021
884	0.02
884	0.02
884	0.019
885	0.019
885	0.019
886	0.018
886	0.018
887	0.018
887	0.017
887	0.017
888	0.017
888	0.016
889	0.016
889	0.015
890	0.014
890	0.013
890	0.013
891	0.013
891	0.013
892	0.013
892	0.013
893	0.014
893	0.014
893	0.014
894	0.015
894	0.015
895	0.015
895	0.015
895	0.015
896	0.015
896	0.015
897	0.016
897	0.016
898	0.016
898	0.016
898	0.016
899	0.017
899	0.017
900	0.017
900	0.017
901	0.017
901	0.016
901	0.016
902	0.016
902	0.016
903	0.016
903	0.015
904	0.014
904	0.014
904	0.014
905	0.014
905	0.014
906	0.015
906	0.015
907	0.016
907	0.017
907	0.017
908	0.018
908	0.019
909	0.019
909	0.02
910	0.02
910	0.021
910	0.021
911	0.021
911	0.022
912	0.023
912	0.023
913	0.024
913	0.024
913	0.025
914	0.026
914	0.026
915	0.026
915	0.026
916	0.026
916	0.025
916	0.025
917	0.024
917	0.024
918	0.023
918	0.022
918	0.021
919	0.02
919	0.02
920	0.02
920	0.02
921	0.021
921	0.021
921	0.022
922	0.022
922	0.022
923	0.022
923	0.022
924	0.022
924	0.021
924	0.02
925	0.019
925	0.018
926	0.017
926	0.015
927	0.014
927	0.013
927	0.012
928	0.011
928	0.011
929	0.011
929	0.012
930	0.012
930	0.013
930	0.014
931	0.015
931	0.016
932	0.017
932	0.018
933	0.019
933	0.02
933	0.02
934	0.019
934	0.019
935	0.019
935	0.018
935	0.017
936	0.016
936	0.014
937	0.013
937	0.012
938	0.012
938	0.011
938	0.011
939	0.01
939	0.009
940	0.009
940	0.008
941	0.007
941	0.006
941	0.006
942	0.005
942	0.005
943	0.005
943	0.004
944	0.004
944	0.003
944	0.003
945	0.003
945	0.003
946	0.003
946	0.002
946	0.002
947	0.002
947	0.002
948	0.002
948	0.003
949	0.003
949	0.004
949	0.006
950	0.007
950	0.009
951	0.01
951	0.011
952	0.012
952	0.013
952	0.014
953	0.015
953	0.015
954	0.015
954	0.015
955	0.015
955	0.015
955	0.015
956	0.015
956	0.014
957	0.014
957	0.013
957	0.012
958	0.011
958	0.011
959	0.01
959	0.01
960	0.009
960	0.009
960	0.009
961	0.009
961	0.009
962	0.01
962	0.01
963	0.01
963	0.011
963	0.012
964	0.012
964	0.013
965	0.013
965	0.014
966	0.014
966	0.015
966	0.016
967	0.017
967	0.017
968	0.017
968	0.017
968	0.017
969	0.017
969	0.017
970	0.016
970	0.015
971	0.015
971	0.015
971	0.015
972	0.015
972	0.015
973	0.015
973	0.014
974	0.014
974	0.014
974	0.014
975	0.014
975	0.014
976	0.014
976	0.013
976	0.013
977	0.013
977	0.012
978	0.011
978	0.01
979	0.01
979	0.009
979	0.009
980	0.008
980	0.008
981	0.008
981	0.008
982	0.008
982	0.007
982	0.008
983	0.008
983	0.007
984	0.007
984	0.007
984	0.007
985	0.007
985	0.006
986	0.006
986	0.005
987	0.005
987	0.004
987	0.003
988	0.003
988	0.002
989	0.002
989	0.001
990	0.001
990	-0
990	-0.001
991	-0.001
991	-0.002
992	-0.003
992	-0.004
992	-0.005
993	-0.006
993	-0.007
994	-0.008
994	-0.01
995	-0.011
995	-0.012
995	-0.013
996	-0.014
996	-0.015
997	-0.016
997	-0.017
997	-0.017
998	-0.017
998	-0.017
999	-0.016
999	-0.016
1000	-0.016
1000	-0.015
1000	-0.015
1001	-0.014
1001	-0.013
1002	-0.013
1002	-0.012
1003	-0.011
1003	-0.011
1003	-0.011
1004	-0.01
1004	-0.01
1005	-0.01
1005	-0.011
1005	-0.011
1006	-0.012
1006	-0.012
1007	-0.013
1007	-0.014
1008	-0.015
1008	-0.016
1008	-0.016
1009	-0.017
1009	-0.017
1010	-0.016
1010	-0.016
1010	-0.015
1011	-0.015
1011	-0.014
1012	-0.013
1012	-0.012
1013	-0.011
1013	-0.01
1013	-0.009
1014	-0.008
1014	-0.008
1015	-0.008
1015	-0.007
1016	-0.007
1016	-0.006
1016	-0.007
1017	-0.007
1017	-0.007
1018	-0.007
1018	-0.007
1018	-0.007
1019	-0.007
1019	-0.008
1020	-0.008
1020	-0.008
1021	-0.009
1021	-0.009
1021	-0.009
1022	-0.01
1022	-0.01
1023	-0.01
1023	-0.01
1023	-0.01
1024	-0.01
1024	-0.01
1025	-0.01
1025	-0.011
1026	-0.011
1026	-0.01
1026	-0.01
1027	-0.01
1027	-0.01
1028	-0.01
1028	-0.009
1028	-0.009
1029	-0.009
1029	-0.008
1030	-0.009
1030	-0.009
1031	-0.009
1031	-0.008
1031	-0.008
1032	-0.008
1032	-0.009
1033	-0.01
1033	-0.01
1033	-0.01
1034	-0.011
1034	-0.012
1035	-0.012
1035	-0.013
1036	-0.014
1036	-0.015
1036	-0.015
1037	-0.016
1037	-0.016
1038	-0.016
1038	-0.016
1039	-0.016
1039	-0.016
1039	-0.015
1040	-0.015
1040	-0.014
1041	-0.014
1041	-0.015
1041	-0.015
1042	-0.016
1042	-0.016
1043	-0.016
1043	-0.017
1044	-0.017
1044	-0.018
1044	-0.019
1045	-0.019
1045	-0.02
1046	-0.02
1046	-0.02
1046	-0.02
1047	-0.02
1047	-0.02
1048	-0.02
1048	-0.02
1049	-0.02
1049	-0.021
1049	-0.021
1050	-0.021
1050	-0.023
1051	-0.024
1051	-0.025
1051	-0.026
1052	-0.027
1052	-0.028
1053	-0.028
1053	-0.029
1053	-0.029
1054	-0.03
1054	-0.03
1055	-0.029
1055	-0.029
1056	-0.029
1056	-0.029
1056	-0.029
1057	-0.029
1057	-0.029
1058	-0.029
1058	-0.029
1058	-0.029
1059	-0.029
1059	-0.03
1060	-0.03
1060	-0.03
1061	-0.031
1061	-0.031
1061	-0.031
1062	-0.031
1062	-0.031
1063	-0.031
1063	-0.032
1063	-0.031
1064	-0.032
1064	-0.031
1065	-0.031
1065	-0.031
1066	-0.032
1066	-0.032
1066	-0.033
1067	-0.034
1067	-0.034
1068	-0.035
1068	-0.036
1068	-0.037
1069	-0.037
1069	-0.038
1070	-0.039
1070	-0.04
1071	-0.04
1071	-0.04
1071	-0.041
1072	-0.041
1072	-0.04
1073	-0.04
1073	-0.04
1073	-0.041
1074	-0.041
1074	-0.041
1075	-0.042
1075	-0.042
1076	-0.043
1076	-0.043
1076	-0.044
1077	-0.044
1077	-0.045
1078	-0.046
1078	-0.046
1078	-0.047
1079	-0.047
1079	-0.048
1080	-0.049
1080	-0.049
1080	-0.051
1081	-0.052
1081	-0.053
1082	-0.054
1082	-0.055
1083	-0.057
1083	-0.058
1083	-0.059
1084	-0.06
1084	-0.061
1085	-0.063
1085	-0.064
1085	-0.064
1086	-0.065
1086	-0.067
1087	-0.068
1087	-0.068
1088	-0.069
1088	-0.07
1088	-0.071
1089	-0.072
1089	-0.072
1090	-0.072
1090	-0.073
1090	-0.074
1091	-0.074
1091	-0.074
1092	-0.075
1092	-0.075
1092	-0.075
1093	-0.076
1093	-0.077
1094	-0.077
1094	-0.078
1095	-0.08
1095	-0.081
1095	-0.081
1096	-0.083
1096	-0.085
1097	-0.086
1097	-0.088
1097	-0.09
1098	-0.092
1098	-0.094
1099	-0.096
1099	-0.097
1100	-0.1
1100	-0.102
1100	-0.105
1101	-0.108
1101	-0.11
1102	-0.113
1102	-0.115
1102	-0.117
1103	-0.119
1103	-0.122
1104	-0.125
1104	-0.128
1104	-0.13
1105	-0.132
1105	-0.134
1106	-0.139
1106	-0.14
1107	-0.146
1107	-0.151
1107	-0.157
1108	-0.159
1108	-0.161
1109	-0.164
1109	-0.169
1109	-0.173
1110	-0.175
1110	-0.18
1111	-0.193
1111	-0.186
