Data from 3.3A_17C_Absorbance__161__03028.txt Node

Date: Tue Jun 20 17:17:41 CEST 2023
User: Marek
Spectrometer: MAYP115816
Trigger mode: 0
Integration Time (sec): 2.200000E-1
Scans to average: 10
Electric dark correction enabled: true
Nonlinearity correction enabled: true
Boxcar width: 5
XAxis mode: Wavelengths
Number of Pixels in Spectrum: 2068
>>>>>Begin Spectral Data<<<<<
199	-0.816
199	-0.797
200	-0.763
200	-0.704
201	-0.675
201	-0.666
202	-0.65
202	-0.644
203	-0.643
203	-0.636
204	-0.616
204	-0.598
205	-0.574
205	-0.564
205	-0.573
206	-0.576
206	-0.571
207	-0.563
207	-0.569
208	-0.571
208	-0.576
209	-0.576
209	-0.582
210	-0.597
210	-0.604
211	-0.599
211	-0.603
212	-0.611
212	-0.619
213	-0.617
213	-0.612
213	-0.608
214	-0.616
214	-0.619
215	-0.615
215	-0.621
216	-0.628
216	-0.633
217	-0.632
217	-0.632
218	-0.637
218	-0.639
219	-0.647
219	-0.647
220	-0.651
220	-0.657
221	-0.656
221	-0.658
221	-0.649
222	-0.648
222	-0.647
223	-0.645
223	-0.647
224	-0.649
224	-0.647
225	-0.645
225	-0.648
226	-0.648
226	-0.647
227	-0.656
227	-0.665
228	-0.668
228	-0.676
229	-0.682
229	-0.679
229	-0.678
230	-0.672
230	-0.67
231	-0.668
231	-0.662
232	-0.664
232	-0.658
233	-0.658
233	-0.645
234	-0.645
234	-0.64
235	-0.646
235	-0.659
236	-0.665
236	-0.667
236	-0.668
237	-0.667
237	-0.667
238	-0.668
238	-0.671
239	-0.673
239	-0.683
240	-0.674
240	-0.669
241	-0.664
241	-0.666
242	-0.67
242	-0.679
243	-0.681
243	-0.683
243	-0.687
244	-0.683
244	-0.684
245	-0.689
245	-0.694
246	-0.702
246	-0.706
247	-0.714
247	-0.699
248	-0.699
248	-0.702
249	-0.709
249	-0.71
250	-0.709
250	-0.716
250	-0.713
251	-0.714
251	-0.711
252	-0.711
252	-0.722
253	-0.717
253	-0.729
254	-0.734
254	-0.735
255	-0.745
255	-0.744
256	-0.746
256	-0.758
257	-0.765
257	-0.762
258	-0.764
258	-0.77
258	-0.766
259	-0.758
259	-0.777
260	-0.776
260	-0.765
261	-0.776
261	-0.763
262	-0.77
262	-0.769
263	-0.76
263	-0.766
264	-0.778
264	-0.78
265	-0.77
265	-0.77
265	-0.78
266	-0.772
266	-0.774
267	-0.773
267	-0.788
268	-0.796
268	-0.791
269	-0.782
269	-0.795
270	-0.798
270	-0.801
271	-0.814
271	-0.822
272	-0.822
272	-0.825
272	-0.819
273	-0.827
273	-0.843
274	-0.835
274	-0.829
275	-0.828
275	-0.814
276	-0.817
276	-0.825
277	-0.826
277	-0.824
278	-0.828
278	-0.828
278	-0.812
279	-0.821
279	-0.837
280	-0.839
280	-0.85
281	-0.845
281	-0.836
282	-0.842
282	-0.836
283	-0.828
283	-0.842
284	-0.859
284	-0.869
285	-0.847
285	-0.854
285	-0.846
286	-0.852
286	-0.867
287	-0.865
287	-0.865
288	-0.864
288	-0.847
289	-0.844
289	-0.851
290	-0.861
290	-0.849
291	-0.852
291	-0.848
292	-0.829
292	-0.825
292	-0.829
293	-0.817
293	-0.814
294	-0.812
294	-0.8
295	-0.782
295	-0.795
296	-0.806
296	-0.801
297	-0.791
297	-0.795
298	-0.791
298	-0.809
298	-0.812
299	-0.796
299	-0.788
300	-0.784
300	-0.766
301	-0.746
301	-0.748
302	-0.758
302	-0.744
303	-0.738
303	-0.725
304	-0.708
304	-0.709
305	-0.702
305	-0.71
305	-0.724
306	-0.709
306	-0.707
307	-0.7
307	-0.71
308	-0.714
308	-0.71
309	-0.712
309	-0.709
310	-0.706
310	-0.702
311	-0.689
311	-0.707
311	-0.695
312	-0.692
312	-0.679
313	-0.67
313	-0.672
314	-0.677
314	-0.674
315	-0.671
315	-0.663
316	-0.656
316	-0.646
317	-0.638
317	-0.634
318	-0.626
318	-0.623
318	-0.612
319	-0.6
319	-0.592
320	-0.59
320	-0.587
321	-0.581
321	-0.581
322	-0.576
322	-0.568
323	-0.568
323	-0.558
324	-0.556
324	-0.543
324	-0.533
325	-0.518
325	-0.501
326	-0.493
326	-0.468
327	-0.453
327	-0.429
328	-0.397
328	-0.374
329	-0.345
329	-0.315
330	-0.286
330	-0.248
330	-0.212
331	-0.171
331	-0.136
332	-0.099
332	-0.063
333	-0.029
333	0.009
334	0.042
334	0.072
335	0.103
335	0.127
336	0.154
336	0.178
336	0.198
337	0.219
337	0.239
338	0.256
338	0.268
339	0.285
339	0.298
340	0.308
340	0.318
341	0.326
341	0.334
342	0.343
342	0.351
342	0.356
343	0.361
343	0.367
344	0.371
344	0.375
345	0.379
345	0.382
346	0.385
346	0.387
347	0.389
347	0.391
348	0.393
348	0.395
348	0.396
349	0.397
349	0.398
350	0.399
350	0.4
351	0.4
351	0.401
352	0.401
352	0.401
353	0.401
353	0.402
354	0.402
354	0.402
354	0.402
355	0.402
355	0.402
356	0.402
356	0.402
357	0.402
357	0.403
358	0.402
358	0.403
359	0.403
359	0.402
360	0.403
360	0.403
360	0.403
361	0.403
361	0.402
362	0.402
362	0.402
363	0.402
363	0.402
364	0.402
364	0.401
365	0.401
365	0.401
366	0.4
366	0.4
366	0.4
367	0.4
367	0.4
368	0.399
368	0.399
369	0.398
369	0.398
370	0.398
370	0.397
371	0.397
371	0.397
372	0.396
372	0.396
372	0.396
373	0.395
373	0.395
374	0.395
374	0.394
375	0.394
375	0.393
376	0.393
376	0.393
377	0.393
377	0.392
378	0.391
378	0.391
378	0.391
379	0.39
379	0.39
380	0.39
380	0.39
381	0.389
381	0.389
382	0.388
382	0.388
383	0.388
383	0.387
383	0.387
384	0.386
384	0.386
385	0.385
385	0.385
386	0.384
386	0.384
387	0.384
387	0.383
388	0.383
388	0.382
389	0.382
389	0.382
389	0.381
390	0.381
390	0.381
391	0.38
391	0.38
392	0.38
392	0.379
393	0.378
393	0.378
394	0.377
394	0.377
394	0.376
395	0.376
395	0.375
396	0.375
396	0.374
397	0.373
397	0.373
398	0.372
398	0.372
399	0.372
399	0.371
400	0.371
400	0.37
400	0.37
401	0.37
401	0.369
402	0.369
402	0.368
403	0.368
403	0.368
404	0.368
404	0.367
405	0.367
405	0.366
405	0.366
406	0.366
406	0.365
407	0.365
407	0.365
408	0.365
408	0.364
409	0.364
409	0.364
410	0.364
410	0.364
411	0.363
411	0.363
411	0.363
412	0.362
412	0.362
413	0.361
413	0.361
414	0.361
414	0.36
415	0.36
415	0.36
416	0.359
416	0.359
416	0.358
417	0.358
417	0.358
418	0.358
418	0.357
419	0.357
419	0.357
420	0.357
420	0.357
421	0.356
421	0.356
421	0.356
422	0.357
422	0.357
423	0.356
423	0.356
424	0.356
424	0.355
425	0.355
425	0.355
426	0.355
426	0.355
427	0.355
427	0.355
427	0.355
428	0.355
428	0.355
429	0.354
429	0.354
430	0.354
430	0.353
431	0.353
431	0.353
432	0.352
432	0.352
432	0.352
433	0.351
433	0.351
434	0.352
434	0.352
435	0.352
435	0.352
436	0.352
436	0.352
437	0.352
437	0.352
437	0.352
438	0.352
438	0.352
439	0.352
439	0.351
440	0.351
440	0.351
441	0.351
441	0.351
442	0.351
442	0.351
442	0.351
443	0.351
443	0.351
444	0.351
444	0.351
445	0.351
445	0.351
446	0.351
446	0.351
447	0.351
447	0.352
447	0.352
448	0.352
448	0.352
449	0.352
449	0.352
450	0.352
450	0.352
451	0.352
451	0.353
452	0.353
452	0.353
452	0.353
453	0.353
453	0.353
454	0.353
454	0.353
455	0.354
455	0.354
456	0.354
456	0.354
457	0.354
457	0.354
458	0.354
458	0.355
458	0.355
459	0.355
459	0.355
460	0.354
460	0.355
461	0.355
461	0.356
462	0.357
462	0.358
463	0.358
463	0.359
463	0.36
464	0.361
464	0.362
465	0.363
465	0.364
466	0.364
466	0.365
467	0.365
467	0.365
467	0.366
468	0.366
468	0.366
469	0.366
469	0.367
470	0.368
470	0.369
471	0.37
471	0.37
472	0.371
472	0.372
472	0.373
473	0.374
473	0.376
474	0.377
474	0.378
475	0.379
475	0.38
476	0.381
476	0.382
477	0.384
477	0.385
477	0.386
478	0.388
478	0.389
479	0.39
479	0.391
480	0.393
480	0.394
481	0.395
481	0.396
482	0.398
482	0.4
482	0.401
483	0.404
483	0.406
484	0.408
484	0.409
485	0.411
485	0.413
486	0.415
486	0.417
487	0.419
487	0.421
487	0.423
488	0.424
488	0.426
489	0.428
489	0.431
490	0.433
490	0.435
491	0.438
491	0.44
492	0.443
492	0.445
492	0.447
493	0.45
493	0.452
494	0.456
494	0.459
495	0.462
495	0.464
496	0.467
496	0.47
496	0.473
497	0.476
497	0.479
498	0.483
498	0.486
499	0.489
499	0.492
500	0.497
500	0.501
501	0.504
501	0.508
501	0.511
502	0.514
502	0.518
503	0.521
503	0.525
504	0.528
504	0.531
505	0.535
505	0.539
506	0.543
506	0.547
506	0.551
507	0.555
507	0.559
508	0.563
508	0.567
509	0.572
509	0.575
510	0.579
510	0.583
511	0.587
511	0.59
511	0.593
512	0.597
512	0.599
513	0.602
513	0.605
514	0.608
514	0.612
515	0.615
515	0.617
515	0.62
516	0.623
516	0.626
517	0.629
517	0.631
518	0.633
518	0.635
519	0.636
519	0.638
520	0.64
520	0.643
520	0.645
521	0.646
521	0.648
522	0.649
522	0.652
523	0.654
523	0.656
524	0.657
524	0.658
524	0.659
525	0.659
525	0.66
526	0.661
526	0.661
527	0.661
527	0.661
528	0.66
528	0.66
529	0.66
529	0.659
529	0.659
530	0.659
530	0.658
531	0.657
531	0.656
532	0.654
532	0.653
533	0.652
533	0.65
533	0.648
534	0.645
534	0.643
535	0.641
535	0.639
536	0.636
536	0.633
537	0.63
537	0.627
538	0.624
538	0.621
538	0.618
539	0.615
539	0.612
540	0.608
540	0.604
541	0.6
541	0.596
542	0.592
542	0.588
542	0.583
543	0.579
543	0.575
544	0.57
544	0.565
545	0.561
545	0.556
546	0.552
546	0.546
547	0.541
547	0.536
547	0.531
548	0.527
548	0.522
549	0.517
549	0.513
550	0.508
550	0.503
551	0.497
551	0.492
551	0.486
552	0.481
552	0.477
553	0.472
553	0.467
554	0.462
554	0.456
555	0.451
555	0.446
556	0.441
556	0.436
556	0.431
557	0.426
557	0.421
558	0.415
558	0.41
559	0.405
559	0.4
560	0.394
560	0.389
560	0.385
561	0.381
561	0.377
562	0.372
562	0.368
563	0.363
563	0.359
564	0.355
564	0.351
564	0.347
565	0.343
565	0.339
566	0.334
566	0.33
567	0.327
567	0.323
568	0.319
568	0.315
568	0.311
569	0.307
569	0.303
570	0.298
570	0.293
571	0.29
571	0.286
572	0.282
572	0.278
573	0.273
573	0.269
573	0.265
574	0.261
574	0.258
575	0.255
575	0.254
576	0.251
576	0.246
577	0.243
577	0.24
577	0.238
578	0.235
578	0.234
579	0.232
579	0.229
580	0.225
580	0.22
581	0.216
581	0.213
581	0.211
582	0.209
582	0.207
583	0.206
583	0.202
584	0.198
584	0.194
585	0.192
585	0.191
585	0.189
586	0.187
586	0.185
587	0.182
587	0.179
588	0.176
588	0.174
589	0.172
589	0.171
590	0.169
590	0.166
590	0.166
591	0.164
591	0.162
592	0.159
592	0.157
593	0.155
593	0.154
594	0.151
594	0.149
594	0.148
595	0.146
595	0.143
596	0.141
596	0.141
597	0.141
597	0.14
598	0.138
598	0.137
598	0.136
599	0.135
599	0.133
600	0.131
600	0.13
601	0.129
601	0.128
602	0.126
602	0.125
602	0.123
603	0.122
603	0.122
604	0.121
604	0.12
605	0.12
605	0.12
606	0.118
606	0.116
606	0.114
607	0.113
607	0.113
608	0.111
608	0.109
609	0.108
609	0.108
610	0.106
610	0.104
610	0.104
611	0.104
611	0.103
612	0.103
612	0.102
613	0.102
613	0.101
614	0.099
614	0.097
614	0.096
615	0.094
615	0.093
616	0.092
616	0.091
617	0.09
617	0.088
618	0.087
618	0.086
618	0.086
619	0.085
619	0.085
620	0.085
620	0.084
621	0.083
621	0.082
622	0.081
622	0.08
622	0.078
623	0.077
623	0.077
624	0.077
624	0.075
625	0.075
625	0.075
626	0.074
626	0.073
626	0.073
627	0.073
627	0.073
628	0.073
628	0.072
629	0.072
629	0.071
630	0.07
630	0.069
630	0.068
631	0.068
631	0.067
632	0.066
632	0.065
633	0.064
633	0.064
634	0.064
634	0.063
634	0.063
635	0.063
635	0.062
636	0.062
636	0.062
637	0.061
637	0.06
638	0.059
638	0.059
638	0.057
639	0.056
639	0.054
640	0.053
640	0.052
641	0.05
641	0.049
642	0.047
642	0.046
642	0.044
643	0.042
643	0.04
644	0.039
644	0.037
645	0.035
645	0.034
646	0.032
646	0.029
646	0.026
647	0.023
647	0.02
648	0.017
648	0.013
649	0.009
649	0.006
650	0.002
650	-0.002
650	-0.007
651	-0.013
651	-0.019
652	-0.027
652	-0.035
653	-0.042
653	-0.049
653	-0.045
654	-0.037
654	-0.042
655	-0.048
655	-0.052
656	-0.057
656	-0.063
657	-0.067
657	-0.071
657	-0.076
658	-0.082
658	-0.106
659	-0.164
659	-0.215
660	-0.241
660	-0.259
661	-0.278
661	-0.3
661	-0.322
662	-0.339
662	-0.357
663	-0.374
663	-0.396
664	-0.413
664	-0.436
665	-0.457
665	-0.478
665	-0.496
666	-0.516
666	-0.54
667	-0.562
667	-0.59
668	-0.616
668	-0.654
669	-0.689
669	-0.726
669	-0.772
670	-0.822
670	-0.919
671	-1.132
671	-1.501
672	-1.93
672	-2.244
672	-2.431
673	-2.514
673	-2.537
674	-2.555
674	-2.564
675	-2.579
675	-2.584
676	-2.584
676	-2.56
676	-2.479
677	-2.294
677	-1.956
678	-1.436
678	-1.08
679	-0.971
679	-0.921
680	-0.887
680	-0.865
680	-0.847
681	-0.846
681	-0.83
682	-0.825
682	-0.808
683	-0.791
683	-0.794
684	-0.788
684	-0.789
684	-0.787
685	-0.786
685	-0.792
686	-0.781
686	-0.78
687	-0.783
687	-0.784
687	-0.795
688	-0.788
688	-0.79
689	-0.803
689	-0.806
690	-0.798
690	-0.794
691	-0.797
691	-0.805
691	-0.808
692	-0.814
692	-0.815
693	-0.827
693	-0.841
694	-0.824
694	-0.825
695	-0.831
695	-0.825
695	-0.837
696	-0.845
696	-0.839
697	-0.833
697	-0.831
698	-0.826
698	-0.82
698	-0.835
699	-0.835
699	-0.837
700	-0.859
700	-0.853
701	-0.841
701	-0.838
702	-0.839
702	-0.84
702	-0.841
703	-0.832
703	-0.821
704	-0.832
704	-0.837
705	-0.827
705	-0.827
705	-0.822
706	-0.817
706	-0.814
707	-0.826
707	-0.829
708	-0.83
708	-0.83
709	-0.831
709	-0.828
709	-0.822
710	-0.83
710	-0.836
711	-0.835
711	-0.836
712	-0.826
712	-0.825
713	-0.83
713	-0.83
713	-0.811
714	-0.815
714	-0.82
715	-0.813
715	-0.82
716	-0.835
716	-0.845
716	-0.846
717	-0.852
717	-0.844
718	-0.839
718	-0.838
719	-0.835
719	-0.827
720	-0.823
720	-0.819
720	-0.815
721	-0.808
721	-0.813
722	-0.811
722	-0.808
723	-0.825
723	-0.84
723	-0.848
724	-0.848
724	-0.853
725	-0.848
725	-0.85
726	-0.855
726	-0.846
727	-0.847
727	-0.855
727	-0.845
728	-0.831
728	-0.827
729	-0.829
729	-0.832
730	-0.836
730	-0.828
730	-0.834
731	-0.837
731	-0.837
732	-0.839
732	-0.833
733	-0.848
733	-0.855
734	-0.863
734	-0.856
734	-0.84
735	-0.83
735	-0.825
736	-0.824
736	-0.818
737	-0.818
737	-0.809
737	-0.803
738	-0.789
738	-0.777
739	-0.779
739	-0.781
740	-0.795
740	-0.797
741	-0.809
741	-0.82
741	-0.829
742	-0.836
742	-0.849
743	-0.857
743	-0.86
744	-0.863
744	-0.871
744	-0.864
745	-0.871
745	-0.858
746	-0.854
746	-0.845
747	-0.848
747	-0.839
748	-0.841
748	-0.845
748	-0.847
749	-0.839
749	-0.846
750	-0.838
750	-0.84
751	-0.837
751	-0.833
751	-0.845
752	-0.848
752	-0.85
753	-0.853
753	-0.846
754	-0.865
754	-0.866
754	-0.873
755	-0.873
755	-0.867
756	-0.87
756	-0.856
757	-0.848
757	-0.838
758	-0.837
758	-0.835
758	-0.831
759	-0.836
759	-0.836
760	-0.834
760	-0.836
761	-0.83
761	-0.833
761	-0.834
762	-0.84
762	-0.843
763	-0.843
763	-0.847
764	-0.847
764	-0.842
764	-0.848
765	-0.848
765	-0.856
766	-0.858
766	-0.86
767	-0.876
767	-0.87
768	-0.869
768	-0.861
768	-0.854
769	-0.858
769	-0.865
770	-0.875
770	-0.879
771	-0.877
771	-0.874
771	-0.88
772	-0.883
772	-0.904
773	-0.904
773	-0.904
774	-0.904
774	-0.887
775	-0.875
775	-0.874
775	-0.877
776	-0.887
776	-0.882
777	-0.883
777	-0.864
778	-0.873
778	-0.882
778	-0.882
779	-0.889
779	-0.905
780	-0.901
780	-0.909
781	-0.899
781	-0.888
781	-0.902
782	-0.922
782	-0.923
783	-0.922
783	-0.929
784	-0.934
784	-0.924
784	-0.945
785	-0.939
785	-0.953
786	-0.958
786	-0.951
787	-0.942
787	-0.951
788	-0.945
788	-0.939
788	-0.939
789	-0.941
789	-0.928
790	-0.926
790	-0.908
791	-0.917
791	-0.912
791	-0.906
792	-0.902
792	-0.906
793	-0.911
793	-0.9
794	-0.892
794	-0.887
794	-0.896
795	-0.917
795	-0.902
796	-0.909
796	-0.904
797	-0.897
797	-0.887
797	-0.879
798	-0.9
798	-0.905
799	-0.903
799	-0.889
800	-0.883
800	-0.892
801	-0.889
801	-0.894
801	-0.888
802	-0.889
802	-0.889
803	-0.883
803	-0.877
804	-0.883
804	-0.891
804	-0.875
805	-0.856
805	-0.847
806	-0.848
806	-0.846
807	-0.847
807	-0.846
807	-0.829
808	-0.824
808	-0.817
809	-0.813
809	-0.814
810	-0.817
810	-0.814
810	-0.811
811	-0.815
811	-0.805
812	-0.798
812	-0.8
813	-0.803
813	-0.805
813	-0.801
814	-0.8
814	-0.807
815	-0.798
815	-0.793
816	-0.788
816	-0.804
817	-0.817
817	-0.821
817	-0.832
818	-0.825
818	-0.821
819	-0.831
819	-0.83
820	-0.84
820	-0.841
820	-0.839
821	-0.835
821	-0.831
822	-0.829
822	-0.816
823	-0.826
823	-0.826
823	-0.821
824	-0.819
824	-0.83
825	-0.829
825	-0.828
826	-0.824
826	-0.819
826	-0.82
827	-0.821
827	-0.812
828	-0.811
828	-0.805
829	-0.799
829	-0.785
829	-0.781
830	-0.779
830	-0.764
831	-0.759
831	-0.747
832	-0.738
832	-0.732
832	-0.725
833	-0.724
833	-0.727
834	-0.722
834	-0.717
835	-0.71
835	-0.709
835	-0.704
836	-0.7
836	-0.697
837	-0.687
837	-0.679
838	-0.666
838	-0.652
839	-0.648
839	-0.633
839	-0.623
840	-0.621
840	-0.613
841	-0.603
841	-0.596
842	-0.588
842	-0.575
842	-0.573
843	-0.567
843	-0.561
844	-0.56
844	-0.55
845	-0.537
845	-0.526
845	-0.514
846	-0.502
846	-0.492
847	-0.483
847	-0.47
848	-0.457
848	-0.442
848	-0.428
849	-0.416
849	-0.404
850	-0.394
850	-0.384
851	-0.371
851	-0.356
851	-0.346
852	-0.33
852	-0.317
853	-0.307
853	-0.296
854	-0.286
854	-0.275
854	-0.263
855	-0.253
855	-0.245
856	-0.236
856	-0.228
857	-0.221
857	-0.213
857	-0.2
858	-0.19
858	-0.183
859	-0.172
859	-0.161
860	-0.151
860	-0.137
860	-0.127
861	-0.117
861	-0.107
862	-0.099
862	-0.091
863	-0.083
863	-0.075
863	-0.068
864	-0.062
864	-0.054
865	-0.048
865	-0.043
866	-0.037
866	-0.031
866	-0.026
867	-0.021
867	-0.016
868	-0.012
868	-0.007
869	-0.003
869	0
869	0.003
870	0.005
870	0.007
871	0.009
871	0.01
872	0.011
872	0.012
872	0.013
873	0.013
873	0.013
874	0.012
874	0.012
875	0.012
875	0.012
875	0.011
876	0.011
876	0.011
877	0.011
877	0.01
878	0.01
878	0.01
878	0.01
879	0.01
879	0.01
880	0.009
880	0.008
881	0.007
881	0.005
881	0.004
882	0.003
882	0.001
883	-0
883	-0.002
884	-0.002
884	-0.002
884	-0.003
885	-0.003
885	-0.003
886	-0.003
886	-0.003
887	-0.003
887	-0.004
887	-0.004
888	-0.004
888	-0.005
889	-0.006
889	-0.007
890	-0.008
890	-0.008
890	-0.009
891	-0.009
891	-0.009
892	-0.008
892	-0.007
893	-0.007
893	-0.007
893	-0.007
894	-0.006
894	-0.005
895	-0.005
895	-0.005
895	-0.005
896	-0.005
896	-0.005
897	-0.005
897	-0.005
898	-0.005
898	-0.005
898	-0.005
899	-0.004
899	-0.004
900	-0.004
900	-0.004
901	-0.004
901	-0.004
901	-0.005
902	-0.005
902	-0.005
903	-0.005
903	-0.005
904	-0.006
904	-0.007
904	-0.007
905	-0.007
905	-0.007
906	-0.006
906	-0.006
907	-0.005
907	-0.005
907	-0.005
908	-0.004
908	-0.003
909	-0.003
909	-0.002
910	-0.002
910	-0.001
910	-0.001
911	-0
911	0.001
912	0.001
912	0.002
913	0.003
913	0.003
913	0.004
914	0.005
914	0.005
915	0.005
915	0.005
916	0.005
916	0.005
916	0.004
917	0.004
917	0.004
918	0.003
918	0.002
918	0.002
919	0.001
919	0.001
920	0.001
920	0.001
921	0.002
921	0.002
921	0.003
922	0.003
922	0.003
923	0.004
923	0.004
924	0.003
924	0.003
924	0.002
925	0.001
925	-0
926	-0.002
926	-0.003
927	-0.004
927	-0.005
927	-0.006
928	-0.007
928	-0.007
929	-0.007
929	-0.006
930	-0.006
930	-0.005
930	-0.004
931	-0.003
931	-0.002
932	-0
932	0.001
933	0.002
933	0.002
933	0.002
934	0.002
934	0.001
935	0.001
935	-0
935	-0.001
936	-0.003
936	-0.004
937	-0.005
937	-0.006
938	-0.006
938	-0.007
938	-0.008
939	-0.009
939	-0.009
940	-0.01
940	-0.01
941	-0.011
941	-0.011
941	-0.011
942	-0.012
942	-0.012
943	-0.012
943	-0.012
944	-0.012
944	-0.013
944	-0.013
945	-0.013
945	-0.013
946	-0.014
946	-0.015
946	-0.015
947	-0.014
947	-0.015
948	-0.014
948	-0.014
949	-0.013
949	-0.012
949	-0.01
950	-0.009
950	-0.008
951	-0.006
951	-0.005
952	-0.005
952	-0.003
952	-0.002
953	-0.001
953	-0.001
954	-0.001
954	-0.001
955	-0.001
955	-0.001
955	-0.001
956	-0.002
956	-0.002
957	-0.004
957	-0.004
957	-0.006
958	-0.006
958	-0.007
959	-0.008
959	-0.008
960	-0.009
960	-0.009
960	-0.009
961	-0.009
961	-0.008
962	-0.008
962	-0.007
963	-0.007
963	-0.007
963	-0.006
964	-0.005
964	-0.004
965	-0.004
965	-0.003
966	-0.003
966	-0.002
966	-0.002
967	-0.001
967	-0.001
968	-0.001
968	-0.001
968	-0
969	-0.001
969	-0.001
970	-0.001
970	-0.002
971	-0.002
971	-0.002
971	-0.002
972	-0.001
972	-0.001
973	-0.001
973	-0.002
974	-0.002
974	-0.002
974	-0.002
975	-0.001
975	-0.002
976	-0.002
976	-0.002
976	-0.003
977	-0.003
977	-0.004
978	-0.004
978	-0.005
979	-0.006
979	-0.006
979	-0.006
980	-0.006
980	-0.007
981	-0.007
981	-0.007
982	-0.007
982	-0.007
982	-0.007
983	-0.007
983	-0.007
984	-0.007
984	-0.007
984	-0.007
985	-0.008
985	-0.008
986	-0.009
986	-0.009
987	-0.01
987	-0.011
987	-0.011
988	-0.012
988	-0.013
989	-0.014
989	-0.015
990	-0.015
990	-0.016
990	-0.017
991	-0.018
991	-0.018
992	-0.019
992	-0.02
992	-0.021
993	-0.022
993	-0.023
994	-0.024
994	-0.025
995	-0.027
995	-0.028
995	-0.029
996	-0.03
996	-0.032
997	-0.033
997	-0.033
997	-0.034
998	-0.034
998	-0.033
999	-0.033
999	-0.033
1000	-0.033
1000	-0.032
1000	-0.031
1001	-0.03
1001	-0.029
1002	-0.028
1002	-0.028
1003	-0.027
1003	-0.027
1003	-0.026
1004	-0.026
1004	-0.025
1005	-0.025
1005	-0.026
1005	-0.026
1006	-0.027
1006	-0.027
1007	-0.028
1007	-0.029
1008	-0.029
1008	-0.03
1008	-0.03
1009	-0.031
1009	-0.03
1010	-0.03
1010	-0.029
1010	-0.029
1011	-0.028
1011	-0.028
1012	-0.027
1012	-0.025
1013	-0.024
1013	-0.024
1013	-0.023
1014	-0.022
1014	-0.022
1015	-0.021
1015	-0.021
1016	-0.021
1016	-0.021
1016	-0.021
1017	-0.022
1017	-0.022
1018	-0.022
1018	-0.022
1018	-0.022
1019	-0.022
1019	-0.022
1020	-0.023
1020	-0.023
1021	-0.023
1021	-0.023
1021	-0.024
1022	-0.024
1022	-0.024
1023	-0.024
1023	-0.025
1023	-0.025
1024	-0.025
1024	-0.025
1025	-0.025
1025	-0.025
1026	-0.024
1026	-0.024
1026	-0.024
1027	-0.024
1027	-0.024
1028	-0.024
1028	-0.023
1028	-0.023
1029	-0.023
1029	-0.022
1030	-0.023
1030	-0.023
1031	-0.023
1031	-0.022
1031	-0.022
1032	-0.022
1032	-0.022
1033	-0.023
1033	-0.023
1033	-0.024
1034	-0.024
1034	-0.025
1035	-0.025
1035	-0.026
1036	-0.027
1036	-0.028
1036	-0.028
1037	-0.029
1037	-0.029
1038	-0.029
1038	-0.029
1039	-0.029
1039	-0.029
1039	-0.029
1040	-0.029
1040	-0.028
1041	-0.028
1041	-0.028
1041	-0.028
1042	-0.029
1042	-0.029
1043	-0.03
1043	-0.03
1044	-0.031
1044	-0.031
1044	-0.031
1045	-0.032
1045	-0.032
1046	-0.033
1046	-0.033
1046	-0.033
1047	-0.033
1047	-0.033
1048	-0.032
1048	-0.033
1049	-0.032
1049	-0.033
1049	-0.033
1050	-0.034
1050	-0.035
1051	-0.036
1051	-0.037
1051	-0.037
1052	-0.038
1052	-0.039
1053	-0.04
1053	-0.04
1053	-0.04
1054	-0.041
1054	-0.041
1055	-0.04
1055	-0.04
1056	-0.04
1056	-0.04
1056	-0.04
1057	-0.04
1057	-0.04
1058	-0.04
1058	-0.04
1058	-0.04
1059	-0.04
1059	-0.04
1060	-0.04
1060	-0.041
1061	-0.041
1061	-0.041
1061	-0.041
1062	-0.042
1062	-0.042
1063	-0.042
1063	-0.042
1063	-0.042
1064	-0.042
1064	-0.042
1065	-0.042
1065	-0.042
1066	-0.042
1066	-0.042
1066	-0.043
1067	-0.044
1067	-0.044
1068	-0.045
1068	-0.046
1068	-0.047
1069	-0.048
1069	-0.05
1070	-0.05
1070	-0.051
1071	-0.052
1071	-0.052
1071	-0.053
1072	-0.052
1072	-0.052
1073	-0.052
1073	-0.052
1073	-0.052
1074	-0.052
1074	-0.052
1075	-0.053
1075	-0.053
1076	-0.054
1076	-0.054
1076	-0.055
1077	-0.056
1077	-0.057
1078	-0.057
1078	-0.058
1078	-0.058
1079	-0.059
1079	-0.059
1080	-0.06
1080	-0.061
1080	-0.062
1081	-0.063
1081	-0.063
1082	-0.064
1082	-0.066
1083	-0.067
1083	-0.068
1083	-0.07
1084	-0.071
1084	-0.072
1085	-0.073
1085	-0.074
1085	-0.075
1086	-0.076
1086	-0.078
1087	-0.078
1087	-0.079
1088	-0.08
1088	-0.081
1088	-0.082
1089	-0.083
1089	-0.083
1090	-0.084
1090	-0.085
1090	-0.086
1091	-0.087
1091	-0.086
1092	-0.087
1092	-0.086
1092	-0.087
1093	-0.088
1093	-0.088
1094	-0.088
1094	-0.089
1095	-0.09
1095	-0.09
1095	-0.091
1096	-0.093
1096	-0.095
1097	-0.096
1097	-0.099
1097	-0.101
1098	-0.103
1098	-0.105
1099	-0.107
1099	-0.109
1100	-0.111
1100	-0.114
1100	-0.117
1101	-0.12
1101	-0.123
1102	-0.124
1102	-0.127
1102	-0.129
1103	-0.131
1103	-0.135
1104	-0.138
1104	-0.141
1104	-0.142
1105	-0.143
1105	-0.146
1106	-0.15
1106	-0.152
1107	-0.157
1107	-0.162
1107	-0.167
1108	-0.168
1108	-0.17
1109	-0.173
1109	-0.178
1109	-0.184
1110	-0.184
1110	-0.189
1111	-0.198
1111	-0.195
