Data from 3.3A_17C_Absorbance__43__02910.txt Node

Date: Tue Jun 20 17:13:21 CEST 2023
User: Marek
Spectrometer: MAYP115816
Trigger mode: 0
Integration Time (sec): 2.200000E-1
Scans to average: 10
Electric dark correction enabled: true
Nonlinearity correction enabled: true
Boxcar width: 5
XAxis mode: Wavelengths
Number of Pixels in Spectrum: 2068
>>>>>Begin Spectral Data<<<<<
199	-0.821
199	-0.801
200	-0.764
200	-0.707
201	-0.679
201	-0.671
202	-0.656
202	-0.648
203	-0.647
203	-0.641
204	-0.62
204	-0.602
205	-0.58
205	-0.571
205	-0.58
206	-0.583
206	-0.578
207	-0.569
207	-0.575
208	-0.578
208	-0.582
209	-0.583
209	-0.591
210	-0.605
210	-0.612
211	-0.605
211	-0.608
212	-0.617
212	-0.626
213	-0.622
213	-0.616
213	-0.613
214	-0.62
214	-0.62
215	-0.617
215	-0.62
216	-0.63
216	-0.636
217	-0.633
217	-0.634
218	-0.643
218	-0.646
219	-0.653
219	-0.655
220	-0.659
220	-0.663
221	-0.665
221	-0.665
221	-0.656
222	-0.656
222	-0.654
223	-0.649
223	-0.65
224	-0.651
224	-0.649
225	-0.647
225	-0.649
226	-0.649
226	-0.647
227	-0.654
227	-0.664
228	-0.667
228	-0.676
229	-0.68
229	-0.677
229	-0.678
230	-0.673
230	-0.67
231	-0.666
231	-0.663
232	-0.666
232	-0.661
233	-0.661
233	-0.65
234	-0.651
234	-0.644
235	-0.649
235	-0.661
236	-0.668
236	-0.67
236	-0.669
237	-0.668
237	-0.669
238	-0.67
238	-0.67
239	-0.672
239	-0.684
240	-0.676
240	-0.674
241	-0.67
241	-0.673
242	-0.678
242	-0.685
243	-0.686
243	-0.689
243	-0.695
244	-0.69
244	-0.69
245	-0.693
245	-0.695
246	-0.704
246	-0.706
247	-0.714
247	-0.7
248	-0.7
248	-0.701
249	-0.708
249	-0.711
250	-0.711
250	-0.719
250	-0.718
251	-0.718
251	-0.716
252	-0.717
252	-0.728
253	-0.721
253	-0.731
254	-0.736
254	-0.736
255	-0.745
255	-0.742
256	-0.745
256	-0.756
257	-0.764
257	-0.76
258	-0.762
258	-0.771
258	-0.77
259	-0.762
259	-0.78
260	-0.78
260	-0.77
261	-0.78
261	-0.766
262	-0.772
262	-0.771
263	-0.764
263	-0.769
264	-0.778
264	-0.781
265	-0.77
265	-0.772
265	-0.784
266	-0.775
266	-0.775
267	-0.774
267	-0.792
268	-0.797
268	-0.792
269	-0.784
269	-0.797
270	-0.802
270	-0.803
271	-0.816
271	-0.826
272	-0.828
272	-0.832
272	-0.825
273	-0.835
273	-0.85
274	-0.842
274	-0.836
275	-0.834
275	-0.821
276	-0.825
276	-0.829
277	-0.831
277	-0.827
278	-0.832
278	-0.832
278	-0.821
279	-0.831
279	-0.844
280	-0.846
280	-0.856
281	-0.851
281	-0.845
282	-0.85
282	-0.844
283	-0.837
283	-0.851
284	-0.864
284	-0.873
285	-0.853
285	-0.858
285	-0.851
286	-0.856
286	-0.871
287	-0.868
287	-0.868
288	-0.865
288	-0.846
289	-0.843
289	-0.851
290	-0.861
290	-0.851
291	-0.854
291	-0.85
292	-0.83
292	-0.828
292	-0.833
293	-0.824
293	-0.82
294	-0.82
294	-0.806
295	-0.788
295	-0.801
296	-0.812
296	-0.807
297	-0.796
297	-0.8
298	-0.795
298	-0.811
298	-0.815
299	-0.798
299	-0.792
300	-0.788
300	-0.767
301	-0.749
301	-0.751
302	-0.762
302	-0.748
303	-0.741
303	-0.728
304	-0.712
304	-0.715
305	-0.707
305	-0.715
305	-0.73
306	-0.715
306	-0.714
307	-0.706
307	-0.716
308	-0.719
308	-0.713
309	-0.715
309	-0.711
310	-0.709
310	-0.705
311	-0.691
311	-0.709
311	-0.697
312	-0.694
312	-0.684
313	-0.673
313	-0.675
314	-0.68
314	-0.678
315	-0.675
315	-0.668
316	-0.663
316	-0.652
317	-0.644
317	-0.64
318	-0.63
318	-0.628
318	-0.616
319	-0.604
319	-0.596
320	-0.594
320	-0.593
321	-0.588
321	-0.59
322	-0.582
322	-0.574
323	-0.577
323	-0.568
324	-0.568
324	-0.558
324	-0.545
325	-0.529
325	-0.51
326	-0.501
326	-0.473
327	-0.458
327	-0.436
328	-0.404
328	-0.379
329	-0.347
329	-0.315
330	-0.287
330	-0.248
330	-0.21
331	-0.171
331	-0.135
332	-0.097
332	-0.06
333	-0.027
333	0.01
334	0.041
334	0.071
335	0.102
335	0.126
336	0.152
336	0.175
336	0.195
337	0.216
337	0.236
338	0.253
338	0.266
339	0.283
339	0.296
340	0.306
340	0.317
341	0.326
341	0.333
342	0.342
342	0.349
342	0.355
343	0.36
343	0.367
344	0.37
344	0.374
345	0.378
345	0.381
346	0.384
346	0.387
347	0.389
347	0.391
348	0.392
348	0.395
348	0.395
349	0.397
349	0.397
350	0.398
350	0.399
351	0.399
351	0.4
352	0.4
352	0.4
353	0.401
353	0.401
354	0.401
354	0.401
354	0.401
355	0.401
355	0.401
356	0.401
356	0.401
357	0.402
357	0.402
358	0.402
358	0.402
359	0.402
359	0.402
360	0.402
360	0.402
360	0.402
361	0.402
361	0.402
362	0.401
362	0.401
363	0.401
363	0.401
364	0.401
364	0.401
365	0.401
365	0.4
366	0.4
366	0.4
366	0.4
367	0.4
367	0.399
368	0.399
368	0.398
369	0.398
369	0.398
370	0.397
370	0.397
371	0.396
371	0.396
372	0.396
372	0.395
372	0.395
373	0.395
373	0.394
374	0.394
374	0.394
375	0.393
375	0.392
376	0.392
376	0.392
377	0.391
377	0.391
378	0.39
378	0.39
378	0.389
379	0.389
379	0.389
380	0.389
380	0.388
381	0.388
381	0.387
382	0.387
382	0.387
383	0.386
383	0.386
383	0.385
384	0.385
384	0.384
385	0.384
385	0.383
386	0.383
386	0.383
387	0.382
387	0.382
388	0.381
388	0.381
389	0.381
389	0.38
389	0.38
390	0.38
390	0.38
391	0.379
391	0.379
392	0.378
392	0.378
393	0.378
393	0.377
394	0.377
394	0.376
394	0.376
395	0.375
395	0.374
396	0.374
396	0.373
397	0.373
397	0.372
398	0.371
398	0.371
399	0.371
399	0.37
400	0.37
400	0.369
400	0.369
401	0.368
401	0.368
402	0.367
402	0.367
403	0.367
403	0.367
404	0.367
404	0.366
405	0.366
405	0.365
405	0.365
406	0.365
406	0.365
407	0.365
407	0.364
408	0.364
408	0.363
409	0.363
409	0.363
410	0.363
410	0.362
411	0.362
411	0.362
411	0.362
412	0.361
412	0.36
413	0.36
413	0.36
414	0.359
414	0.359
415	0.359
415	0.358
416	0.358
416	0.357
416	0.357
417	0.357
417	0.357
418	0.356
418	0.356
419	0.356
419	0.356
420	0.355
420	0.355
421	0.355
421	0.355
421	0.355
422	0.355
422	0.355
423	0.355
423	0.354
424	0.354
424	0.354
425	0.354
425	0.353
426	0.353
426	0.353
427	0.353
427	0.353
427	0.353
428	0.353
428	0.353
429	0.353
429	0.352
430	0.352
430	0.352
431	0.351
431	0.351
432	0.351
432	0.35
432	0.35
433	0.35
433	0.35
434	0.35
434	0.35
435	0.35
435	0.35
436	0.351
436	0.351
437	0.351
437	0.35
437	0.351
438	0.351
438	0.351
439	0.35
439	0.35
440	0.35
440	0.35
441	0.35
441	0.35
442	0.35
442	0.35
442	0.35
443	0.349
443	0.349
444	0.349
444	0.349
445	0.349
445	0.35
446	0.349
446	0.35
447	0.35
447	0.35
447	0.35
448	0.35
448	0.35
449	0.35
449	0.351
450	0.351
450	0.351
451	0.351
451	0.351
452	0.351
452	0.351
452	0.352
453	0.352
453	0.352
454	0.352
454	0.353
455	0.353
455	0.353
456	0.353
456	0.353
457	0.353
457	0.353
458	0.353
458	0.353
458	0.354
459	0.354
459	0.354
460	0.353
460	0.354
461	0.354
461	0.355
462	0.356
462	0.357
463	0.357
463	0.359
463	0.359
464	0.36
464	0.361
465	0.362
465	0.362
466	0.363
466	0.364
467	0.364
467	0.364
467	0.364
468	0.365
468	0.365
469	0.366
469	0.367
470	0.368
470	0.368
471	0.369
471	0.37
472	0.371
472	0.372
472	0.373
473	0.374
473	0.375
474	0.376
474	0.377
475	0.378
475	0.379
476	0.38
476	0.381
477	0.383
477	0.384
477	0.385
478	0.386
478	0.387
479	0.389
479	0.39
480	0.391
480	0.393
481	0.394
481	0.395
482	0.397
482	0.399
482	0.401
483	0.403
483	0.406
484	0.408
484	0.409
485	0.411
485	0.413
486	0.415
486	0.417
487	0.418
487	0.42
487	0.422
488	0.424
488	0.425
489	0.428
489	0.43
490	0.433
490	0.435
491	0.438
491	0.44
492	0.443
492	0.445
492	0.447
493	0.45
493	0.453
494	0.456
494	0.459
495	0.462
495	0.464
496	0.467
496	0.471
496	0.474
497	0.477
497	0.48
498	0.483
498	0.487
499	0.49
499	0.493
500	0.497
500	0.501
501	0.505
501	0.508
501	0.511
502	0.514
502	0.518
503	0.521
503	0.525
504	0.528
504	0.531
505	0.535
505	0.539
506	0.543
506	0.547
506	0.551
507	0.555
507	0.559
508	0.563
508	0.568
509	0.572
509	0.576
510	0.58
510	0.584
511	0.587
511	0.591
511	0.594
512	0.597
512	0.6
513	0.603
513	0.606
514	0.609
514	0.612
515	0.615
515	0.617
515	0.62
516	0.623
516	0.626
517	0.629
517	0.631
518	0.633
518	0.635
519	0.637
519	0.639
520	0.641
520	0.643
520	0.645
521	0.647
521	0.648
522	0.65
522	0.652
523	0.654
523	0.656
524	0.657
524	0.658
524	0.659
525	0.66
525	0.66
526	0.661
526	0.661
527	0.661
527	0.661
528	0.661
528	0.66
529	0.66
529	0.659
529	0.658
530	0.657
530	0.657
531	0.656
531	0.655
532	0.652
532	0.651
533	0.65
533	0.648
533	0.646
534	0.644
534	0.642
535	0.639
535	0.637
536	0.635
536	0.632
537	0.629
537	0.626
538	0.623
538	0.619
538	0.616
539	0.613
539	0.609
540	0.606
540	0.602
541	0.597
541	0.593
542	0.59
542	0.586
542	0.581
543	0.577
543	0.572
544	0.567
544	0.563
545	0.558
545	0.554
546	0.549
546	0.544
547	0.539
547	0.533
547	0.528
548	0.524
548	0.519
549	0.514
549	0.509
550	0.504
550	0.499
551	0.493
551	0.488
551	0.483
552	0.477
552	0.472
553	0.467
553	0.462
554	0.457
554	0.451
555	0.446
555	0.441
556	0.435
556	0.43
556	0.425
557	0.42
557	0.415
558	0.409
558	0.404
559	0.398
559	0.393
560	0.388
560	0.382
560	0.378
561	0.374
561	0.37
562	0.365
562	0.361
563	0.356
563	0.352
564	0.348
564	0.344
564	0.34
565	0.336
565	0.332
566	0.327
566	0.323
567	0.32
567	0.316
568	0.312
568	0.308
568	0.303
569	0.299
569	0.295
570	0.291
570	0.286
571	0.283
571	0.279
572	0.274
572	0.27
573	0.266
573	0.261
573	0.257
574	0.254
574	0.251
575	0.248
575	0.246
576	0.243
576	0.239
577	0.235
577	0.233
577	0.231
578	0.229
578	0.227
579	0.226
579	0.223
580	0.218
580	0.213
581	0.209
581	0.206
581	0.204
582	0.203
582	0.201
583	0.199
583	0.196
584	0.191
584	0.187
585	0.186
585	0.185
585	0.183
586	0.181
586	0.178
587	0.176
587	0.173
588	0.17
588	0.168
589	0.166
589	0.164
590	0.162
590	0.16
590	0.159
591	0.158
591	0.155
592	0.153
592	0.15
593	0.149
593	0.147
594	0.145
594	0.143
594	0.142
595	0.141
595	0.138
596	0.136
596	0.136
597	0.136
597	0.134
598	0.133
598	0.131
598	0.13
599	0.129
599	0.128
600	0.126
600	0.125
601	0.124
601	0.123
602	0.121
602	0.12
602	0.118
603	0.118
603	0.117
604	0.117
604	0.116
605	0.116
605	0.116
606	0.114
606	0.112
606	0.111
607	0.109
607	0.109
608	0.107
608	0.105
609	0.104
609	0.104
610	0.102
610	0.1
610	0.1
611	0.1
611	0.099
612	0.099
612	0.098
613	0.098
613	0.097
614	0.095
614	0.093
614	0.092
615	0.091
615	0.089
616	0.088
616	0.087
617	0.086
617	0.085
618	0.084
618	0.083
618	0.082
619	0.081
619	0.081
620	0.082
620	0.08
621	0.079
621	0.078
622	0.077
622	0.076
622	0.074
623	0.073
623	0.073
624	0.073
624	0.072
625	0.072
625	0.072
626	0.071
626	0.07
626	0.07
627	0.07
627	0.07
628	0.07
628	0.07
629	0.069
629	0.069
630	0.067
630	0.066
630	0.066
631	0.065
631	0.064
632	0.064
632	0.063
633	0.062
633	0.061
634	0.061
634	0.061
634	0.061
635	0.06
635	0.059
636	0.059
636	0.059
637	0.058
637	0.057
638	0.057
638	0.056
638	0.055
639	0.054
639	0.052
640	0.051
640	0.05
641	0.049
641	0.048
642	0.046
642	0.045
642	0.044
643	0.042
643	0.04
644	0.039
644	0.037
645	0.035
645	0.034
646	0.032
646	0.03
646	0.027
647	0.024
647	0.021
648	0.018
648	0.014
649	0.01
649	0.007
650	0.004
650	-0
650	-0.005
651	-0.01
651	-0.017
652	-0.024
652	-0.033
653	-0.04
653	-0.046
653	-0.042
654	-0.036
654	-0.04
655	-0.047
655	-0.051
656	-0.057
656	-0.062
657	-0.066
657	-0.07
657	-0.076
658	-0.081
658	-0.105
659	-0.161
659	-0.212
660	-0.237
660	-0.257
661	-0.276
661	-0.298
661	-0.319
662	-0.338
662	-0.356
663	-0.373
663	-0.395
664	-0.411
664	-0.433
665	-0.454
665	-0.475
665	-0.495
666	-0.515
666	-0.538
667	-0.56
667	-0.588
668	-0.616
668	-0.654
669	-0.69
669	-0.729
669	-0.782
670	-0.871
670	-1.098
671	-1.413
671	-1.745
672	-2.076
672	-2.322
672	-2.451
673	-2.495
673	-2.508
674	-2.524
674	-2.533
675	-2.546
675	-2.545
676	-2.531
676	-2.483
676	-2.362
677	-2.098
677	-1.65
678	-1.169
678	-0.981
679	-0.92
679	-0.886
680	-0.863
680	-0.846
680	-0.834
681	-0.835
681	-0.822
682	-0.816
682	-0.8
683	-0.784
683	-0.79
684	-0.785
684	-0.787
684	-0.783
685	-0.785
685	-0.789
686	-0.779
686	-0.778
687	-0.781
687	-0.783
687	-0.795
688	-0.787
688	-0.789
689	-0.801
689	-0.804
690	-0.795
690	-0.792
691	-0.795
691	-0.804
691	-0.81
692	-0.814
692	-0.814
693	-0.826
693	-0.841
694	-0.822
694	-0.825
695	-0.831
695	-0.827
695	-0.837
696	-0.846
696	-0.841
697	-0.836
697	-0.834
698	-0.829
698	-0.824
698	-0.842
699	-0.842
699	-0.844
700	-0.864
700	-0.86
701	-0.848
701	-0.845
702	-0.847
702	-0.847
702	-0.849
703	-0.84
703	-0.829
704	-0.837
704	-0.841
705	-0.832
705	-0.832
705	-0.827
706	-0.819
706	-0.817
707	-0.829
707	-0.835
708	-0.833
708	-0.83
709	-0.832
709	-0.829
709	-0.825
710	-0.834
710	-0.839
711	-0.837
711	-0.838
712	-0.831
712	-0.828
713	-0.835
713	-0.839
713	-0.82
714	-0.822
714	-0.826
715	-0.817
715	-0.826
716	-0.844
716	-0.853
716	-0.854
717	-0.86
717	-0.851
718	-0.847
718	-0.847
719	-0.843
719	-0.836
720	-0.832
720	-0.827
720	-0.822
721	-0.812
721	-0.815
722	-0.812
722	-0.809
723	-0.825
723	-0.838
723	-0.848
724	-0.847
724	-0.851
725	-0.846
725	-0.849
726	-0.854
726	-0.845
727	-0.849
727	-0.857
727	-0.846
728	-0.835
728	-0.831
729	-0.833
729	-0.836
730	-0.842
730	-0.834
730	-0.84
731	-0.844
731	-0.843
732	-0.845
732	-0.842
733	-0.856
733	-0.863
734	-0.872
734	-0.864
734	-0.846
735	-0.836
735	-0.83
736	-0.828
736	-0.824
737	-0.823
737	-0.81
737	-0.804
738	-0.79
738	-0.778
739	-0.78
739	-0.782
740	-0.797
740	-0.797
741	-0.807
741	-0.818
741	-0.83
742	-0.837
742	-0.851
743	-0.856
743	-0.862
744	-0.868
744	-0.875
744	-0.868
745	-0.875
745	-0.864
746	-0.857
746	-0.846
747	-0.85
747	-0.842
748	-0.845
748	-0.848
748	-0.849
749	-0.842
749	-0.85
750	-0.842
750	-0.844
751	-0.844
751	-0.841
751	-0.853
752	-0.856
752	-0.858
753	-0.859
753	-0.851
754	-0.87
754	-0.87
754	-0.878
755	-0.879
755	-0.871
756	-0.876
756	-0.859
757	-0.853
757	-0.843
758	-0.843
758	-0.843
758	-0.838
759	-0.843
759	-0.841
760	-0.84
760	-0.842
761	-0.834
761	-0.839
761	-0.838
762	-0.846
762	-0.847
763	-0.848
763	-0.852
764	-0.851
764	-0.848
764	-0.852
765	-0.852
765	-0.858
766	-0.862
766	-0.864
767	-0.878
767	-0.873
768	-0.872
768	-0.862
768	-0.856
769	-0.859
769	-0.867
770	-0.876
770	-0.881
771	-0.877
771	-0.876
771	-0.88
772	-0.884
772	-0.905
773	-0.907
773	-0.908
774	-0.908
774	-0.891
775	-0.877
775	-0.877
775	-0.881
776	-0.891
776	-0.887
777	-0.886
777	-0.869
778	-0.878
778	-0.886
778	-0.884
779	-0.892
779	-0.909
780	-0.907
780	-0.914
781	-0.904
781	-0.892
781	-0.907
782	-0.927
782	-0.927
783	-0.925
783	-0.933
784	-0.937
784	-0.929
784	-0.948
785	-0.942
785	-0.953
786	-0.96
786	-0.953
787	-0.944
787	-0.955
788	-0.948
788	-0.943
788	-0.946
789	-0.947
789	-0.936
790	-0.936
790	-0.922
791	-0.929
791	-0.925
791	-0.918
792	-0.913
792	-0.919
793	-0.921
793	-0.908
794	-0.901
794	-0.896
794	-0.902
795	-0.924
795	-0.909
796	-0.914
796	-0.911
797	-0.903
797	-0.893
797	-0.887
798	-0.909
798	-0.913
799	-0.909
799	-0.895
800	-0.889
800	-0.899
801	-0.898
801	-0.902
801	-0.898
802	-0.898
802	-0.897
803	-0.89
803	-0.883
804	-0.889
804	-0.898
804	-0.88
805	-0.86
805	-0.851
806	-0.852
806	-0.848
807	-0.85
807	-0.849
807	-0.832
808	-0.827
808	-0.82
809	-0.814
809	-0.816
810	-0.821
810	-0.819
810	-0.813
811	-0.817
811	-0.807
812	-0.801
812	-0.803
813	-0.807
813	-0.809
813	-0.806
814	-0.805
814	-0.809
815	-0.798
815	-0.795
816	-0.791
816	-0.81
817	-0.823
817	-0.828
817	-0.838
818	-0.831
818	-0.828
819	-0.84
819	-0.84
820	-0.851
820	-0.849
820	-0.848
821	-0.841
821	-0.836
822	-0.835
822	-0.823
823	-0.834
823	-0.834
823	-0.829
824	-0.826
824	-0.837
825	-0.836
825	-0.833
826	-0.829
826	-0.824
826	-0.822
827	-0.823
827	-0.812
828	-0.811
828	-0.805
829	-0.798
829	-0.784
829	-0.781
830	-0.78
830	-0.767
831	-0.761
831	-0.752
832	-0.743
832	-0.738
832	-0.731
833	-0.729
833	-0.734
834	-0.729
834	-0.724
835	-0.717
835	-0.715
835	-0.711
836	-0.706
836	-0.701
837	-0.691
837	-0.68
838	-0.669
838	-0.654
839	-0.649
839	-0.636
839	-0.625
840	-0.624
840	-0.613
841	-0.603
841	-0.596
842	-0.588
842	-0.578
842	-0.575
843	-0.571
843	-0.566
844	-0.564
844	-0.553
845	-0.539
845	-0.531
845	-0.52
846	-0.509
846	-0.498
847	-0.486
847	-0.473
848	-0.459
848	-0.442
848	-0.429
849	-0.416
849	-0.404
850	-0.394
850	-0.384
851	-0.37
851	-0.355
851	-0.347
852	-0.331
852	-0.319
853	-0.31
853	-0.298
854	-0.287
854	-0.276
854	-0.264
855	-0.253
855	-0.245
856	-0.238
856	-0.228
857	-0.221
857	-0.212
857	-0.198
858	-0.188
858	-0.182
859	-0.172
859	-0.161
860	-0.15
860	-0.137
860	-0.127
861	-0.118
861	-0.109
862	-0.101
862	-0.093
863	-0.085
863	-0.077
863	-0.071
864	-0.064
864	-0.058
865	-0.051
865	-0.045
866	-0.04
866	-0.034
866	-0.028
867	-0.023
867	-0.018
868	-0.013
868	-0.008
869	-0.004
869	-0.001
869	0.002
870	0.004
870	0.006
871	0.007
871	0.009
872	0.01
872	0.011
872	0.011
873	0.011
873	0.011
874	0.01
874	0.01
875	0.01
875	0.01
875	0.01
876	0.01
876	0.01
877	0.009
877	0.009
878	0.009
878	0.009
878	0.009
879	0.009
879	0.009
880	0.008
880	0.008
881	0.006
881	0.005
881	0.005
882	0.003
882	0.002
883	0.001
883	-0.001
884	-0.001
884	-0.001
884	-0.002
885	-0.002
885	-0.002
886	-0.002
886	-0.003
887	-0.003
887	-0.004
887	-0.004
888	-0.005
888	-0.006
889	-0.007
889	-0.008
890	-0.009
890	-0.01
890	-0.01
891	-0.01
891	-0.01
892	-0.01
892	-0.009
893	-0.009
893	-0.009
893	-0.009
894	-0.008
894	-0.008
895	-0.008
895	-0.008
895	-0.007
896	-0.007
896	-0.007
897	-0.007
897	-0.007
898	-0.006
898	-0.006
898	-0.006
899	-0.005
899	-0.005
900	-0.005
900	-0.005
901	-0.005
901	-0.006
901	-0.006
902	-0.006
902	-0.006
903	-0.007
903	-0.007
904	-0.008
904	-0.008
904	-0.008
905	-0.008
905	-0.008
906	-0.007
906	-0.007
907	-0.007
907	-0.007
907	-0.007
908	-0.006
908	-0.006
909	-0.005
909	-0.005
910	-0.005
910	-0.004
910	-0.003
911	-0.003
911	-0.002
912	-0.001
912	0
913	0.001
913	0.002
913	0.003
914	0.003
914	0.004
915	0.004
915	0.004
916	0.004
916	0.004
916	0.003
917	0.003
917	0.003
918	0.002
918	0.002
918	0.001
919	0.001
919	0.001
920	0.001
920	0.001
921	0.002
921	0.002
921	0.003
922	0.003
922	0.003
923	0.004
923	0.004
924	0.003
924	0.003
924	0.002
925	0.001
925	-0
926	-0.002
926	-0.003
927	-0.004
927	-0.005
927	-0.006
928	-0.006
928	-0.006
929	-0.006
929	-0.005
930	-0.004
930	-0.004
930	-0.003
931	-0.002
931	-0.001
932	0.001
932	0.002
933	0.003
933	0.003
933	0.003
934	0.003
934	0.002
935	0.002
935	0.001
935	0.001
936	-0.001
936	-0.002
937	-0.003
937	-0.004
938	-0.004
938	-0.004
938	-0.005
939	-0.005
939	-0.006
940	-0.006
940	-0.007
941	-0.007
941	-0.008
941	-0.008
942	-0.008
942	-0.008
943	-0.008
943	-0.009
944	-0.009
944	-0.01
944	-0.01
945	-0.01
945	-0.01
946	-0.011
946	-0.012
946	-0.013
947	-0.013
947	-0.013
948	-0.012
948	-0.012
949	-0.011
949	-0.01
949	-0.008
950	-0.007
950	-0.005
951	-0.004
951	-0.003
952	-0.002
952	-0.001
952	-0
953	0.001
953	0.001
954	0.002
954	0.001
955	0.001
955	0.001
955	0.001
956	0
956	-0.001
957	-0.002
957	-0.002
957	-0.003
958	-0.004
958	-0.005
959	-0.005
959	-0.006
960	-0.006
960	-0.007
960	-0.006
961	-0.006
961	-0.005
962	-0.005
962	-0.005
963	-0.004
963	-0.004
963	-0.003
964	-0.003
964	-0.002
965	-0.002
965	-0.002
966	-0.001
966	-0.001
966	-0.001
967	0
967	-0
968	-0
968	-0
968	-0
969	-0
969	-0.001
970	-0.001
970	-0.001
971	-0.002
971	-0.002
971	-0.002
972	-0.001
972	-0.001
973	-0.001
973	-0.001
974	-0.001
974	-0.001
974	-0.001
975	-0.001
975	-0.001
976	-0.002
976	-0.002
976	-0.002
977	-0.002
977	-0.003
978	-0.003
978	-0.004
979	-0.004
979	-0.005
979	-0.005
980	-0.005
980	-0.005
981	-0.005
981	-0.005
982	-0.005
982	-0.005
982	-0.005
983	-0.004
983	-0.005
984	-0.005
984	-0.005
984	-0.005
985	-0.005
985	-0.005
986	-0.006
986	-0.007
987	-0.008
987	-0.009
987	-0.01
988	-0.011
988	-0.012
989	-0.013
989	-0.014
990	-0.015
990	-0.017
990	-0.018
991	-0.019
991	-0.02
992	-0.021
992	-0.021
992	-0.022
993	-0.023
993	-0.024
994	-0.025
994	-0.026
995	-0.028
995	-0.029
995	-0.03
996	-0.031
996	-0.033
997	-0.034
997	-0.035
997	-0.035
998	-0.036
998	-0.035
999	-0.035
999	-0.035
1000	-0.034
1000	-0.033
1000	-0.033
1001	-0.032
1001	-0.03
1002	-0.029
1002	-0.029
1003	-0.028
1003	-0.027
1003	-0.027
1004	-0.027
1004	-0.026
1005	-0.026
1005	-0.027
1005	-0.027
1006	-0.027
1006	-0.028
1007	-0.028
1007	-0.029
1008	-0.03
1008	-0.03
1008	-0.031
1009	-0.031
1009	-0.031
1010	-0.031
1010	-0.03
1010	-0.03
1011	-0.029
1011	-0.029
1012	-0.028
1012	-0.027
1013	-0.026
1013	-0.026
1013	-0.025
1014	-0.024
1014	-0.024
1015	-0.024
1015	-0.024
1016	-0.024
1016	-0.024
1016	-0.024
1017	-0.025
1017	-0.025
1018	-0.025
1018	-0.026
1018	-0.026
1019	-0.026
1019	-0.027
1020	-0.027
1020	-0.027
1021	-0.027
1021	-0.028
1021	-0.028
1022	-0.028
1022	-0.028
1023	-0.028
1023	-0.029
1023	-0.029
1024	-0.029
1024	-0.029
1025	-0.029
1025	-0.029
1026	-0.028
1026	-0.028
1026	-0.028
1027	-0.028
1027	-0.027
1028	-0.027
1028	-0.026
1028	-0.026
1029	-0.026
1029	-0.025
1030	-0.025
1030	-0.025
1031	-0.025
1031	-0.025
1031	-0.025
1032	-0.025
1032	-0.025
1033	-0.026
1033	-0.026
1033	-0.026
1034	-0.027
1034	-0.028
1035	-0.028
1035	-0.029
1036	-0.03
1036	-0.031
1036	-0.031
1037	-0.031
1037	-0.031
1038	-0.032
1038	-0.032
1039	-0.031
1039	-0.031
1039	-0.031
1040	-0.03
1040	-0.03
1041	-0.03
1041	-0.03
1041	-0.031
1042	-0.031
1042	-0.031
1043	-0.032
1043	-0.032
1044	-0.033
1044	-0.034
1044	-0.034
1045	-0.034
1045	-0.034
1046	-0.035
1046	-0.035
1046	-0.035
1047	-0.035
1047	-0.034
1048	-0.034
1048	-0.034
1049	-0.034
1049	-0.034
1049	-0.034
1050	-0.035
1050	-0.036
1051	-0.037
1051	-0.038
1051	-0.038
1052	-0.038
1052	-0.039
1053	-0.04
1053	-0.041
1053	-0.041
1054	-0.041
1054	-0.041
1055	-0.041
1055	-0.04
1056	-0.04
1056	-0.04
1056	-0.04
1057	-0.04
1057	-0.04
1058	-0.04
1058	-0.04
1058	-0.039
1059	-0.04
1059	-0.04
1060	-0.041
1060	-0.041
1061	-0.042
1061	-0.041
1061	-0.041
1062	-0.042
1062	-0.042
1063	-0.042
1063	-0.042
1063	-0.042
1064	-0.042
1064	-0.042
1065	-0.042
1065	-0.042
1066	-0.042
1066	-0.042
1066	-0.043
1067	-0.043
1067	-0.044
1068	-0.045
1068	-0.046
1068	-0.047
1069	-0.048
1069	-0.049
1070	-0.05
1070	-0.051
1071	-0.051
1071	-0.052
1071	-0.053
1072	-0.053
1072	-0.053
1073	-0.053
1073	-0.052
1073	-0.053
1074	-0.053
1074	-0.053
1075	-0.054
1075	-0.054
1076	-0.055
1076	-0.055
1076	-0.056
1077	-0.056
1077	-0.057
1078	-0.058
1078	-0.059
1078	-0.059
1079	-0.06
1079	-0.06
1080	-0.061
1080	-0.061
1080	-0.063
1081	-0.064
1081	-0.064
1082	-0.064
1082	-0.066
1083	-0.067
1083	-0.068
1083	-0.069
1084	-0.07
1084	-0.071
1085	-0.072
1085	-0.073
1085	-0.073
1086	-0.075
1086	-0.076
1087	-0.077
1087	-0.078
1088	-0.079
1088	-0.08
1088	-0.081
1089	-0.082
1089	-0.083
1090	-0.084
1090	-0.085
1090	-0.087
1091	-0.088
1091	-0.088
1092	-0.089
1092	-0.089
1092	-0.09
1093	-0.091
1093	-0.09
1094	-0.091
1094	-0.092
1095	-0.093
1095	-0.093
1095	-0.093
1096	-0.095
1096	-0.097
1097	-0.098
1097	-0.1
1097	-0.102
1098	-0.104
1098	-0.107
1099	-0.109
1099	-0.11
1100	-0.113
1100	-0.115
1100	-0.118
1101	-0.12
1101	-0.123
1102	-0.126
1102	-0.128
1102	-0.13
1103	-0.132
1103	-0.135
1104	-0.138
1104	-0.142
1104	-0.144
1105	-0.145
1105	-0.148
1106	-0.154
1106	-0.155
1107	-0.161
1107	-0.166
1107	-0.171
1108	-0.172
1108	-0.173
1109	-0.176
1109	-0.181
1109	-0.186
1110	-0.187
1110	-0.189
1111	-0.2
1111	-0.195
