Data from 3.3A_17C_Absorbance__303__03170.txt Node

Date: Tue Jun 20 17:22:53 CEST 2023
User: Marek
Spectrometer: MAYP115816
Trigger mode: 0
Integration Time (sec): 2.200000E-1
Scans to average: 10
Electric dark correction enabled: true
Nonlinearity correction enabled: true
Boxcar width: 5
XAxis mode: Wavelengths
Number of Pixels in Spectrum: 2068
>>>>>Begin Spectral Data<<<<<
199	-0.805
199	-0.789
200	-0.755
200	-0.695
201	-0.667
201	-0.658
202	-0.644
202	-0.639
203	-0.639
203	-0.633
204	-0.612
204	-0.593
205	-0.57
205	-0.561
205	-0.571
206	-0.573
206	-0.57
207	-0.562
207	-0.567
208	-0.568
208	-0.571
209	-0.573
209	-0.581
210	-0.594
210	-0.6
211	-0.595
211	-0.6
212	-0.609
212	-0.616
213	-0.614
213	-0.608
213	-0.606
214	-0.613
214	-0.615
215	-0.611
215	-0.617
216	-0.625
216	-0.629
217	-0.626
217	-0.627
218	-0.635
218	-0.637
219	-0.644
219	-0.647
220	-0.649
220	-0.657
221	-0.657
221	-0.657
221	-0.648
222	-0.649
222	-0.647
223	-0.642
223	-0.645
224	-0.645
224	-0.643
225	-0.641
225	-0.643
226	-0.644
226	-0.644
227	-0.652
227	-0.662
228	-0.666
228	-0.675
229	-0.68
229	-0.677
229	-0.678
230	-0.671
230	-0.669
231	-0.665
231	-0.658
232	-0.66
232	-0.654
233	-0.654
233	-0.644
234	-0.643
234	-0.64
235	-0.643
235	-0.656
236	-0.663
236	-0.664
236	-0.666
237	-0.663
237	-0.664
238	-0.664
238	-0.662
239	-0.663
239	-0.671
240	-0.665
240	-0.661
241	-0.657
241	-0.659
242	-0.664
242	-0.673
243	-0.673
243	-0.676
243	-0.681
244	-0.678
244	-0.68
245	-0.682
245	-0.685
246	-0.694
246	-0.698
247	-0.705
247	-0.691
248	-0.69
248	-0.692
249	-0.699
249	-0.7
250	-0.699
250	-0.708
250	-0.706
251	-0.706
251	-0.702
252	-0.703
252	-0.715
253	-0.71
253	-0.721
254	-0.725
254	-0.727
255	-0.738
255	-0.736
256	-0.74
256	-0.752
257	-0.762
257	-0.758
258	-0.76
258	-0.768
258	-0.766
259	-0.758
259	-0.777
260	-0.776
260	-0.767
261	-0.776
261	-0.762
262	-0.765
262	-0.764
263	-0.755
263	-0.761
264	-0.769
264	-0.772
265	-0.762
265	-0.765
265	-0.773
266	-0.766
266	-0.768
267	-0.767
267	-0.781
268	-0.791
268	-0.783
269	-0.775
269	-0.789
270	-0.791
270	-0.789
271	-0.802
271	-0.81
272	-0.81
272	-0.816
272	-0.811
273	-0.818
273	-0.834
274	-0.827
274	-0.822
275	-0.821
275	-0.809
276	-0.814
276	-0.82
277	-0.822
277	-0.818
278	-0.822
278	-0.822
278	-0.81
279	-0.818
279	-0.832
280	-0.835
280	-0.848
281	-0.842
281	-0.834
282	-0.839
282	-0.835
283	-0.828
283	-0.843
284	-0.857
284	-0.867
285	-0.846
285	-0.853
285	-0.844
286	-0.85
286	-0.867
287	-0.863
287	-0.862
288	-0.86
288	-0.841
289	-0.84
289	-0.847
290	-0.856
290	-0.842
291	-0.844
291	-0.842
292	-0.822
292	-0.82
292	-0.824
293	-0.814
293	-0.812
294	-0.811
294	-0.797
295	-0.78
295	-0.792
296	-0.804
296	-0.799
297	-0.787
297	-0.791
298	-0.787
298	-0.804
298	-0.807
299	-0.788
299	-0.782
300	-0.778
300	-0.759
301	-0.741
301	-0.742
302	-0.754
302	-0.74
303	-0.732
303	-0.72
304	-0.704
304	-0.706
305	-0.699
305	-0.708
305	-0.723
306	-0.707
306	-0.706
307	-0.696
307	-0.705
308	-0.708
308	-0.703
309	-0.705
309	-0.7
310	-0.698
310	-0.694
311	-0.68
311	-0.698
311	-0.687
312	-0.685
312	-0.675
313	-0.667
313	-0.668
314	-0.673
314	-0.67
315	-0.669
315	-0.662
316	-0.657
316	-0.645
317	-0.636
317	-0.634
318	-0.622
318	-0.619
318	-0.609
319	-0.599
319	-0.59
320	-0.586
320	-0.584
321	-0.577
321	-0.578
322	-0.571
322	-0.563
323	-0.564
323	-0.555
324	-0.552
324	-0.539
324	-0.528
325	-0.512
325	-0.494
326	-0.486
326	-0.461
327	-0.446
327	-0.425
328	-0.393
328	-0.369
329	-0.34
329	-0.311
330	-0.284
330	-0.247
330	-0.21
331	-0.172
331	-0.136
332	-0.099
332	-0.064
333	-0.033
333	0.002
334	0.035
334	0.063
335	0.093
335	0.116
336	0.14
336	0.164
336	0.182
337	0.202
337	0.221
338	0.238
338	0.25
339	0.266
339	0.278
340	0.288
340	0.297
341	0.306
341	0.314
342	0.322
342	0.329
342	0.334
343	0.338
343	0.345
344	0.348
344	0.351
345	0.356
345	0.358
346	0.361
346	0.363
347	0.365
347	0.367
348	0.368
348	0.37
348	0.371
349	0.371
349	0.372
350	0.373
350	0.373
351	0.374
351	0.374
352	0.374
352	0.375
353	0.376
353	0.376
354	0.376
354	0.376
354	0.376
355	0.376
355	0.376
356	0.376
356	0.376
357	0.376
357	0.376
358	0.376
358	0.376
359	0.376
359	0.376
360	0.376
360	0.376
360	0.377
361	0.377
361	0.377
362	0.377
362	0.377
363	0.377
363	0.377
364	0.377
364	0.376
365	0.376
365	0.376
366	0.376
366	0.376
366	0.376
367	0.375
367	0.375
368	0.375
368	0.374
369	0.374
369	0.374
370	0.373
370	0.373
371	0.373
371	0.373
372	0.372
372	0.372
372	0.372
373	0.372
373	0.372
374	0.372
374	0.372
375	0.371
375	0.37
376	0.37
376	0.37
377	0.37
377	0.369
378	0.369
378	0.368
378	0.368
379	0.368
379	0.367
380	0.367
380	0.367
381	0.367
381	0.366
382	0.366
382	0.366
383	0.366
383	0.365
383	0.365
384	0.364
384	0.364
385	0.363
385	0.363
386	0.363
386	0.362
387	0.362
387	0.362
388	0.361
388	0.361
389	0.361
389	0.361
389	0.361
390	0.36
390	0.36
391	0.36
391	0.359
392	0.359
392	0.359
393	0.358
393	0.358
394	0.357
394	0.357
394	0.356
395	0.356
395	0.355
396	0.355
396	0.354
397	0.354
397	0.353
398	0.353
398	0.353
399	0.352
399	0.352
400	0.351
400	0.351
400	0.351
401	0.35
401	0.35
402	0.35
402	0.35
403	0.35
403	0.349
404	0.349
404	0.349
405	0.348
405	0.348
405	0.348
406	0.348
406	0.348
407	0.347
407	0.347
408	0.347
408	0.346
409	0.346
409	0.346
410	0.346
410	0.345
411	0.345
411	0.345
411	0.344
412	0.344
412	0.344
413	0.343
413	0.343
414	0.343
414	0.343
415	0.342
415	0.342
416	0.341
416	0.341
416	0.341
417	0.34
417	0.34
418	0.34
418	0.34
419	0.34
419	0.34
420	0.339
420	0.339
421	0.339
421	0.339
421	0.339
422	0.339
422	0.339
423	0.339
423	0.339
424	0.338
424	0.338
425	0.338
425	0.338
426	0.338
426	0.337
427	0.337
427	0.337
427	0.337
428	0.337
428	0.337
429	0.337
429	0.336
430	0.336
430	0.336
431	0.336
431	0.335
432	0.335
432	0.335
432	0.334
433	0.334
433	0.334
434	0.334
434	0.335
435	0.335
435	0.335
436	0.335
436	0.335
437	0.334
437	0.334
437	0.334
438	0.335
438	0.335
439	0.334
439	0.334
440	0.334
440	0.333
441	0.333
441	0.333
442	0.333
442	0.333
442	0.333
443	0.333
443	0.333
444	0.333
444	0.333
445	0.333
445	0.333
446	0.333
446	0.333
447	0.333
447	0.333
447	0.333
448	0.333
448	0.333
449	0.333
449	0.333
450	0.333
450	0.333
451	0.333
451	0.333
452	0.333
452	0.333
452	0.333
453	0.333
453	0.333
454	0.334
454	0.334
455	0.334
455	0.334
456	0.335
456	0.335
457	0.335
457	0.335
458	0.335
458	0.335
458	0.335
459	0.335
459	0.335
460	0.334
460	0.334
461	0.334
461	0.335
462	0.336
462	0.336
463	0.337
463	0.338
463	0.339
464	0.339
464	0.34
465	0.341
465	0.341
466	0.342
466	0.342
467	0.342
467	0.342
467	0.342
468	0.342
468	0.342
469	0.343
469	0.344
470	0.344
470	0.345
471	0.345
471	0.346
472	0.346
472	0.347
472	0.348
473	0.349
473	0.349
474	0.35
474	0.351
475	0.352
475	0.353
476	0.354
476	0.355
477	0.356
477	0.357
477	0.358
478	0.359
478	0.36
479	0.361
479	0.362
480	0.363
480	0.364
481	0.365
481	0.366
482	0.367
482	0.369
482	0.37
483	0.372
483	0.375
484	0.376
484	0.377
485	0.379
485	0.381
486	0.382
486	0.384
487	0.385
487	0.387
487	0.388
488	0.389
488	0.39
489	0.392
489	0.395
490	0.397
490	0.398
491	0.401
491	0.403
492	0.405
492	0.407
492	0.408
493	0.41
493	0.413
494	0.415
494	0.418
495	0.42
495	0.422
496	0.424
496	0.426
496	0.429
497	0.432
497	0.435
498	0.437
498	0.44
499	0.443
499	0.446
500	0.449
500	0.453
501	0.456
501	0.459
501	0.461
502	0.464
502	0.467
503	0.47
503	0.473
504	0.475
504	0.478
505	0.481
505	0.485
506	0.488
506	0.492
506	0.495
507	0.499
507	0.502
508	0.506
508	0.51
509	0.513
509	0.517
510	0.52
510	0.523
511	0.526
511	0.529
511	0.531
512	0.534
512	0.537
513	0.539
513	0.542
514	0.545
514	0.548
515	0.55
515	0.552
515	0.555
516	0.558
516	0.56
517	0.563
517	0.565
518	0.567
518	0.569
519	0.57
519	0.572
520	0.573
520	0.576
520	0.577
521	0.579
521	0.581
522	0.582
522	0.584
523	0.586
523	0.588
524	0.59
524	0.591
524	0.592
525	0.593
525	0.594
526	0.596
526	0.596
527	0.598
527	0.598
528	0.598
528	0.598
529	0.598
529	0.597
529	0.597
530	0.596
530	0.596
531	0.595
531	0.595
532	0.593
532	0.593
533	0.592
533	0.591
533	0.59
534	0.589
534	0.588
535	0.586
535	0.585
536	0.584
536	0.583
537	0.581
537	0.58
538	0.578
538	0.576
538	0.574
539	0.572
539	0.57
540	0.568
540	0.565
541	0.562
541	0.559
542	0.557
542	0.554
542	0.551
543	0.548
543	0.544
544	0.541
544	0.538
545	0.535
545	0.532
546	0.529
546	0.526
547	0.522
547	0.519
547	0.515
548	0.513
548	0.509
549	0.506
549	0.503
550	0.5
550	0.496
551	0.492
551	0.489
551	0.485
552	0.481
552	0.478
553	0.475
553	0.472
554	0.468
554	0.464
555	0.46
555	0.457
556	0.453
556	0.449
556	0.446
557	0.443
557	0.439
558	0.435
558	0.432
559	0.428
559	0.425
560	0.421
560	0.417
560	0.414
561	0.412
561	0.409
562	0.406
562	0.403
563	0.4
563	0.397
564	0.394
564	0.391
564	0.388
565	0.386
565	0.383
566	0.38
566	0.377
567	0.375
567	0.373
568	0.37
568	0.366
568	0.364
569	0.361
569	0.358
570	0.354
570	0.35
571	0.348
571	0.345
572	0.341
572	0.338
573	0.335
573	0.331
573	0.328
574	0.326
574	0.324
575	0.321
575	0.321
576	0.318
576	0.315
577	0.312
577	0.31
577	0.309
578	0.307
578	0.306
579	0.305
579	0.303
580	0.3
580	0.296
581	0.292
581	0.29
581	0.288
582	0.287
582	0.285
583	0.284
583	0.281
584	0.277
584	0.273
585	0.272
585	0.271
585	0.27
586	0.268
586	0.266
587	0.263
587	0.261
588	0.258
588	0.257
589	0.255
589	0.254
590	0.252
590	0.25
590	0.249
591	0.248
591	0.246
592	0.243
592	0.241
593	0.24
593	0.238
594	0.236
594	0.234
594	0.233
595	0.231
595	0.228
596	0.226
596	0.226
597	0.226
597	0.225
598	0.223
598	0.222
598	0.221
599	0.22
599	0.218
600	0.216
600	0.215
601	0.214
601	0.213
602	0.211
602	0.209
602	0.207
603	0.206
603	0.206
604	0.205
604	0.204
605	0.204
605	0.203
606	0.201
606	0.199
606	0.198
607	0.196
607	0.196
608	0.194
608	0.192
609	0.191
609	0.19
610	0.188
610	0.186
610	0.186
611	0.185
611	0.184
612	0.184
612	0.183
613	0.182
613	0.181
614	0.179
614	0.177
614	0.176
615	0.174
615	0.172
616	0.171
616	0.17
617	0.168
617	0.166
618	0.165
618	0.164
618	0.162
619	0.162
619	0.161
620	0.161
620	0.16
621	0.158
621	0.157
622	0.156
622	0.154
622	0.152
623	0.151
623	0.15
624	0.15
624	0.148
625	0.146
625	0.146
626	0.144
626	0.143
626	0.142
627	0.142
627	0.141
628	0.14
628	0.139
629	0.137
629	0.136
630	0.134
630	0.132
630	0.131
631	0.129
631	0.127
632	0.125
632	0.123
633	0.121
633	0.119
634	0.117
634	0.116
634	0.114
635	0.112
635	0.11
636	0.108
636	0.106
637	0.103
637	0.101
638	0.098
638	0.095
638	0.092
639	0.088
639	0.084
640	0.08
640	0.076
641	0.072
641	0.068
642	0.064
642	0.06
642	0.056
643	0.052
643	0.047
644	0.042
644	0.038
645	0.033
645	0.028
646	0.023
646	0.018
646	0.012
647	0.006
647	0
648	-0.006
648	-0.012
649	-0.019
649	-0.025
650	-0.031
650	-0.038
650	-0.045
651	-0.054
651	-0.064
652	-0.076
652	-0.089
653	-0.101
653	-0.11
653	-0.104
654	-0.086
654	-0.081
655	-0.085
655	-0.089
656	-0.093
656	-0.099
657	-0.102
657	-0.105
657	-0.11
658	-0.116
658	-0.145
659	-0.222
659	-0.3
660	-0.335
660	-0.359
661	-0.382
661	-0.408
661	-0.436
662	-0.46
662	-0.485
663	-0.514
663	-0.546
664	-0.578
664	-0.612
665	-0.65
665	-0.69
665	-0.729
666	-0.772
666	-0.82
667	-0.867
667	-0.923
668	-0.976
668	-1.04
669	-1.102
669	-1.171
669	-1.247
670	-1.329
670	-1.453
671	-1.693
671	-2.117
672	-2.343
672	-2.497
672	-2.613
673	-2.707
673	-2.785
674	-2.812
674	-2.823
675	-2.837
675	-2.84
676	-2.832
676	-2.762
676	-2.681
677	-2.578
677	-2.446
678	-2.23
678	-1.746
679	-1.502
679	-1.388
680	-1.304
680	-1.242
680	-1.189
681	-1.154
681	-1.112
682	-1.081
682	-1.046
683	-1.011
683	-0.995
684	-0.973
684	-0.961
684	-0.943
685	-0.929
685	-0.925
686	-0.907
686	-0.898
687	-0.892
687	-0.884
687	-0.887
688	-0.874
688	-0.87
689	-0.877
689	-0.876
690	-0.865
690	-0.856
691	-0.857
691	-0.862
691	-0.865
692	-0.866
692	-0.864
693	-0.873
693	-0.887
694	-0.868
694	-0.869
695	-0.874
695	-0.868
695	-0.875
696	-0.883
696	-0.875
697	-0.869
697	-0.866
698	-0.861
698	-0.854
698	-0.868
699	-0.866
699	-0.868
700	-0.889
700	-0.884
701	-0.869
701	-0.866
702	-0.868
702	-0.866
702	-0.867
703	-0.858
703	-0.847
704	-0.856
704	-0.858
705	-0.847
705	-0.846
705	-0.843
706	-0.835
706	-0.831
707	-0.842
707	-0.848
708	-0.845
708	-0.843
709	-0.844
709	-0.841
709	-0.838
710	-0.845
710	-0.848
711	-0.848
711	-0.849
712	-0.84
712	-0.835
713	-0.841
713	-0.842
713	-0.822
714	-0.824
714	-0.827
715	-0.819
715	-0.827
716	-0.844
716	-0.854
716	-0.856
717	-0.863
717	-0.854
718	-0.85
718	-0.849
719	-0.846
719	-0.839
720	-0.837
720	-0.832
720	-0.825
721	-0.816
721	-0.819
722	-0.816
722	-0.814
723	-0.83
723	-0.845
723	-0.853
724	-0.851
724	-0.855
725	-0.849
725	-0.853
726	-0.857
726	-0.85
727	-0.851
727	-0.859
727	-0.849
728	-0.835
728	-0.832
729	-0.836
729	-0.838
730	-0.844
730	-0.836
730	-0.84
731	-0.844
731	-0.845
732	-0.847
732	-0.843
733	-0.859
733	-0.865
734	-0.871
734	-0.863
734	-0.845
735	-0.835
735	-0.831
736	-0.828
736	-0.822
737	-0.821
737	-0.81
737	-0.802
738	-0.787
738	-0.777
739	-0.779
739	-0.779
740	-0.793
740	-0.793
741	-0.803
741	-0.813
741	-0.823
742	-0.829
742	-0.845
743	-0.85
743	-0.852
744	-0.855
744	-0.865
744	-0.857
745	-0.866
745	-0.854
746	-0.849
746	-0.839
747	-0.841
747	-0.831
748	-0.833
748	-0.838
748	-0.84
749	-0.832
749	-0.838
750	-0.828
750	-0.829
751	-0.83
751	-0.829
751	-0.84
752	-0.843
752	-0.847
753	-0.847
753	-0.841
754	-0.86
754	-0.862
754	-0.871
755	-0.871
755	-0.862
756	-0.864
756	-0.85
757	-0.844
757	-0.833
758	-0.837
758	-0.836
758	-0.831
759	-0.835
759	-0.835
760	-0.835
760	-0.84
761	-0.833
761	-0.839
761	-0.84
762	-0.845
762	-0.844
763	-0.844
763	-0.849
764	-0.848
764	-0.845
764	-0.85
765	-0.848
765	-0.856
766	-0.858
766	-0.859
767	-0.874
767	-0.87
768	-0.869
768	-0.861
768	-0.855
769	-0.859
769	-0.868
770	-0.876
770	-0.88
771	-0.876
771	-0.874
771	-0.879
772	-0.883
772	-0.904
773	-0.904
773	-0.904
774	-0.902
774	-0.883
775	-0.871
775	-0.871
775	-0.874
776	-0.886
776	-0.883
777	-0.883
777	-0.866
778	-0.875
778	-0.884
778	-0.882
779	-0.891
779	-0.906
780	-0.903
780	-0.912
781	-0.902
781	-0.891
781	-0.906
782	-0.925
782	-0.926
783	-0.928
783	-0.936
784	-0.939
784	-0.932
784	-0.951
785	-0.944
785	-0.956
786	-0.961
786	-0.953
787	-0.943
787	-0.953
788	-0.945
788	-0.938
788	-0.938
789	-0.94
789	-0.93
790	-0.93
790	-0.913
791	-0.918
791	-0.913
791	-0.908
792	-0.9
792	-0.906
793	-0.908
793	-0.898
794	-0.89
794	-0.884
794	-0.89
795	-0.911
795	-0.898
796	-0.904
796	-0.901
797	-0.895
797	-0.883
797	-0.877
798	-0.897
798	-0.901
799	-0.9
799	-0.885
800	-0.882
800	-0.889
801	-0.885
801	-0.888
801	-0.886
802	-0.884
802	-0.883
803	-0.877
803	-0.869
804	-0.876
804	-0.885
804	-0.868
805	-0.849
805	-0.841
806	-0.842
806	-0.839
807	-0.843
807	-0.842
807	-0.827
808	-0.824
808	-0.815
809	-0.81
809	-0.811
810	-0.813
810	-0.812
810	-0.809
811	-0.809
811	-0.8
812	-0.793
812	-0.794
813	-0.798
813	-0.8
813	-0.794
814	-0.794
814	-0.8
815	-0.789
815	-0.784
816	-0.78
816	-0.796
817	-0.81
817	-0.814
817	-0.822
818	-0.814
818	-0.813
819	-0.824
819	-0.824
820	-0.836
820	-0.837
820	-0.836
821	-0.831
821	-0.826
822	-0.824
822	-0.813
823	-0.825
823	-0.824
823	-0.816
824	-0.813
824	-0.822
825	-0.82
825	-0.819
826	-0.815
826	-0.811
826	-0.812
827	-0.812
827	-0.8
828	-0.801
828	-0.797
829	-0.792
829	-0.778
829	-0.774
830	-0.772
830	-0.756
831	-0.749
831	-0.738
832	-0.728
832	-0.724
832	-0.717
833	-0.715
833	-0.72
834	-0.714
834	-0.711
835	-0.704
835	-0.705
835	-0.701
836	-0.697
836	-0.695
837	-0.684
837	-0.675
838	-0.661
838	-0.645
839	-0.64
839	-0.627
839	-0.617
840	-0.615
840	-0.606
841	-0.596
841	-0.589
842	-0.58
842	-0.569
842	-0.566
843	-0.564
843	-0.558
844	-0.555
844	-0.542
845	-0.53
845	-0.519
845	-0.509
846	-0.496
846	-0.486
847	-0.476
847	-0.464
848	-0.448
848	-0.433
848	-0.42
849	-0.409
849	-0.395
850	-0.384
850	-0.373
851	-0.361
851	-0.344
851	-0.334
852	-0.318
852	-0.305
853	-0.295
853	-0.285
854	-0.273
854	-0.262
854	-0.251
855	-0.24
855	-0.232
856	-0.224
856	-0.216
857	-0.208
857	-0.2
857	-0.187
858	-0.176
858	-0.168
859	-0.158
859	-0.146
860	-0.136
860	-0.121
860	-0.112
861	-0.102
861	-0.092
862	-0.084
862	-0.077
863	-0.068
863	-0.059
863	-0.053
864	-0.047
864	-0.039
865	-0.033
865	-0.027
866	-0.021
866	-0.016
866	-0.01
867	-0.005
867	0
868	0.005
868	0.01
869	0.014
869	0.018
869	0.02
870	0.022
870	0.025
871	0.027
871	0.028
872	0.029
872	0.03
872	0.031
873	0.031
873	0.03
874	0.03
874	0.029
875	0.029
875	0.029
875	0.029
876	0.028
876	0.028
877	0.028
877	0.027
878	0.026
878	0.026
878	0.026
879	0.026
879	0.025
880	0.025
880	0.023
881	0.022
881	0.02
881	0.019
882	0.018
882	0.016
883	0.015
883	0.014
884	0.013
884	0.012
884	0.012
885	0.012
885	0.012
886	0.013
886	0.012
887	0.012
887	0.012
887	0.011
888	0.011
888	0.01
889	0.01
889	0.009
890	0.007
890	0.007
890	0.006
891	0.006
891	0.006
892	0.007
892	0.007
893	0.007
893	0.008
893	0.008
894	0.009
894	0.009
895	0.009
895	0.009
895	0.009
896	0.01
896	0.01
897	0.01
897	0.01
898	0.01
898	0.01
898	0.01
899	0.011
899	0.011
900	0.011
900	0.011
901	0.01
901	0.01
901	0.009
902	0.009
902	0.009
903	0.009
903	0.008
904	0.007
904	0.007
904	0.007
905	0.007
905	0.008
906	0.008
906	0.009
907	0.01
907	0.01
907	0.01
908	0.011
908	0.012
909	0.013
909	0.013
910	0.014
910	0.014
910	0.015
911	0.015
911	0.016
912	0.017
912	0.017
913	0.018
913	0.018
913	0.019
914	0.02
914	0.02
915	0.02
915	0.02
916	0.02
916	0.019
916	0.019
917	0.018
917	0.018
918	0.017
918	0.016
918	0.015
919	0.014
919	0.014
920	0.014
920	0.014
921	0.015
921	0.015
921	0.015
922	0.016
922	0.016
923	0.016
923	0.016
924	0.016
924	0.015
924	0.014
925	0.013
925	0.012
926	0.011
926	0.009
927	0.008
927	0.007
927	0.006
928	0.005
928	0.005
929	0.005
929	0.006
930	0.006
930	0.007
930	0.008
931	0.009
931	0.01
932	0.012
932	0.012
933	0.013
933	0.014
933	0.014
934	0.014
934	0.013
935	0.013
935	0.012
935	0.011
936	0.01
936	0.009
937	0.007
937	0.007
938	0.006
938	0.005
938	0.005
939	0.004
939	0.003
940	0.003
940	0.002
941	0.001
941	0.001
941	0.001
942	0
942	-0
943	0
943	-0.001
944	-0.001
944	-0.002
944	-0.002
945	-0.002
945	-0.002
946	-0.003
946	-0.004
946	-0.004
947	-0.004
947	-0.004
948	-0.004
948	-0.003
949	-0.002
949	-0.001
949	0.001
950	0.002
950	0.003
951	0.005
951	0.006
952	0.007
952	0.008
952	0.009
953	0.01
953	0.01
954	0.01
954	0.01
955	0.01
955	0.01
955	0.009
956	0.009
956	0.009
957	0.008
957	0.007
957	0.006
958	0.005
958	0.005
959	0.004
959	0.003
960	0.003
960	0.003
960	0.003
961	0.003
961	0.003
962	0.004
962	0.004
963	0.004
963	0.005
963	0.006
964	0.006
964	0.007
965	0.008
965	0.008
966	0.009
966	0.009
966	0.01
967	0.011
967	0.011
968	0.011
968	0.011
968	0.011
969	0.011
969	0.011
970	0.01
970	0.01
971	0.01
971	0.01
971	0.009
972	0.01
972	0.01
973	0.01
973	0.01
974	0.009
974	0.01
974	0.01
975	0.01
975	0.009
976	0.009
976	0.008
976	0.008
977	0.008
977	0.007
978	0.006
978	0.005
979	0.005
979	0.004
979	0.004
980	0.003
980	0.003
981	0.003
981	0.003
982	0.002
982	0.002
982	0.003
983	0.003
983	0.003
984	0.002
984	0.002
984	0.002
985	0.002
985	0.002
986	0.001
986	0
987	-0
987	-0.001
987	-0.002
988	-0.002
988	-0.003
989	-0.004
989	-0.004
990	-0.005
990	-0.006
990	-0.007
991	-0.007
991	-0.008
992	-0.008
992	-0.009
992	-0.01
993	-0.011
993	-0.012
994	-0.014
994	-0.015
995	-0.016
995	-0.017
995	-0.018
996	-0.02
996	-0.021
997	-0.022
997	-0.022
997	-0.023
998	-0.023
998	-0.022
999	-0.022
999	-0.022
1000	-0.021
1000	-0.021
1000	-0.02
1001	-0.019
1001	-0.018
1002	-0.018
1002	-0.017
1003	-0.016
1003	-0.016
1003	-0.016
1004	-0.015
1004	-0.015
1005	-0.015
1005	-0.015
1005	-0.016
1006	-0.017
1006	-0.017
1007	-0.018
1007	-0.019
1008	-0.02
1008	-0.021
1008	-0.021
1009	-0.021
1009	-0.021
1010	-0.021
1010	-0.021
1010	-0.02
1011	-0.019
1011	-0.019
1012	-0.018
1012	-0.017
1013	-0.015
1013	-0.015
1013	-0.014
1014	-0.013
1014	-0.013
1015	-0.012
1015	-0.012
1016	-0.011
1016	-0.011
1016	-0.011
1017	-0.011
1017	-0.012
1018	-0.011
1018	-0.012
1018	-0.012
1019	-0.012
1019	-0.012
1020	-0.012
1020	-0.013
1021	-0.013
1021	-0.014
1021	-0.014
1022	-0.015
1022	-0.015
1023	-0.015
1023	-0.015
1023	-0.015
1024	-0.015
1024	-0.015
1025	-0.015
1025	-0.015
1026	-0.015
1026	-0.015
1026	-0.015
1027	-0.015
1027	-0.015
1028	-0.014
1028	-0.013
1028	-0.014
1029	-0.013
1029	-0.013
1030	-0.013
1030	-0.014
1031	-0.013
1031	-0.012
1031	-0.012
1032	-0.012
1032	-0.013
1033	-0.014
1033	-0.014
1033	-0.014
1034	-0.015
1034	-0.015
1035	-0.016
1035	-0.017
1036	-0.018
1036	-0.019
1036	-0.019
1037	-0.02
1037	-0.019
1038	-0.02
1038	-0.02
1039	-0.02
1039	-0.02
1039	-0.019
1040	-0.019
1040	-0.019
1041	-0.019
1041	-0.019
1041	-0.019
1042	-0.02
1042	-0.02
1043	-0.021
1043	-0.021
1044	-0.022
1044	-0.022
1044	-0.023
1045	-0.023
1045	-0.024
1046	-0.024
1046	-0.024
1046	-0.024
1047	-0.025
1047	-0.024
1048	-0.024
1048	-0.024
1049	-0.025
1049	-0.025
1049	-0.025
1050	-0.026
1050	-0.027
1051	-0.028
1051	-0.029
1051	-0.029
1052	-0.03
1052	-0.032
1053	-0.032
1053	-0.033
1053	-0.033
1054	-0.034
1054	-0.034
1055	-0.033
1055	-0.033
1056	-0.033
1056	-0.033
1056	-0.033
1057	-0.033
1057	-0.032
1058	-0.033
1058	-0.033
1058	-0.033
1059	-0.033
1059	-0.033
1060	-0.034
1060	-0.034
1061	-0.034
1061	-0.034
1061	-0.034
1062	-0.034
1062	-0.034
1063	-0.034
1063	-0.035
1063	-0.034
1064	-0.034
1064	-0.034
1065	-0.034
1065	-0.035
1066	-0.036
1066	-0.036
1066	-0.036
1067	-0.037
1067	-0.038
1068	-0.039
1068	-0.04
1068	-0.04
1069	-0.041
1069	-0.043
1070	-0.043
1070	-0.044
1071	-0.044
1071	-0.044
1071	-0.045
1072	-0.045
1072	-0.045
1073	-0.045
1073	-0.045
1073	-0.045
1074	-0.045
1074	-0.045
1075	-0.045
1075	-0.046
1076	-0.047
1076	-0.047
1076	-0.047
1077	-0.048
1077	-0.048
1078	-0.049
1078	-0.05
1078	-0.05
1079	-0.051
1079	-0.051
1080	-0.052
1080	-0.053
1080	-0.055
1081	-0.056
1081	-0.057
1082	-0.058
1082	-0.06
1083	-0.061
1083	-0.062
1083	-0.064
1084	-0.065
1084	-0.066
1085	-0.067
1085	-0.068
1085	-0.069
1086	-0.07
1086	-0.071
1087	-0.072
1087	-0.073
1088	-0.074
1088	-0.075
1088	-0.075
1089	-0.076
1089	-0.077
1090	-0.077
1090	-0.077
1090	-0.079
1091	-0.079
1091	-0.079
1092	-0.08
1092	-0.079
1092	-0.08
1093	-0.081
1093	-0.08
1094	-0.081
1094	-0.082
1095	-0.084
1095	-0.084
1095	-0.084
1096	-0.085
1096	-0.088
1097	-0.089
1097	-0.091
1097	-0.092
1098	-0.095
1098	-0.097
1099	-0.098
1099	-0.099
1100	-0.102
1100	-0.104
1100	-0.108
1101	-0.111
1101	-0.113
1102	-0.116
1102	-0.119
1102	-0.12
1103	-0.123
1103	-0.126
1104	-0.129
1104	-0.132
1104	-0.134
1105	-0.136
1105	-0.138
1106	-0.143
1106	-0.144
1107	-0.15
1107	-0.155
1107	-0.16
1108	-0.162
1108	-0.163
1109	-0.166
1109	-0.17
1109	-0.174
1110	-0.177
1110	-0.182
1111	-0.193
1111	-0.191
