Data from 3.3A_17C_Absorbance__623__03490.txt Node

Date: Tue Jun 20 17:34:37 CEST 2023
User: Marek
Spectrometer: MAYP115816
Trigger mode: 0
Integration Time (sec): 2.200000E-1
Scans to average: 10
Electric dark correction enabled: true
Nonlinearity correction enabled: true
Boxcar width: 5
XAxis mode: Wavelengths
Number of Pixels in Spectrum: 2068
>>>>>Begin Spectral Data<<<<<
199	-0.795
199	-0.778
200	-0.74
200	-0.686
201	-0.656
201	-0.647
202	-0.631
202	-0.625
203	-0.626
203	-0.62
204	-0.601
204	-0.585
205	-0.562
205	-0.552
205	-0.561
206	-0.563
206	-0.56
207	-0.552
207	-0.556
208	-0.557
208	-0.559
209	-0.56
209	-0.566
210	-0.579
210	-0.587
211	-0.58
211	-0.584
212	-0.592
212	-0.602
213	-0.601
213	-0.595
213	-0.594
214	-0.601
214	-0.603
215	-0.599
215	-0.604
216	-0.613
216	-0.619
217	-0.619
217	-0.618
218	-0.625
218	-0.627
219	-0.633
219	-0.635
220	-0.64
220	-0.648
221	-0.649
221	-0.65
221	-0.641
222	-0.64
222	-0.638
223	-0.635
223	-0.637
224	-0.637
224	-0.635
225	-0.63
225	-0.63
226	-0.63
226	-0.63
227	-0.638
227	-0.647
228	-0.651
228	-0.659
229	-0.664
229	-0.662
229	-0.661
230	-0.659
230	-0.657
231	-0.654
231	-0.648
232	-0.65
232	-0.644
233	-0.644
233	-0.632
234	-0.633
234	-0.628
235	-0.633
235	-0.643
236	-0.649
236	-0.651
236	-0.652
237	-0.649
237	-0.651
238	-0.652
238	-0.653
239	-0.654
239	-0.665
240	-0.66
240	-0.655
241	-0.65
241	-0.653
242	-0.657
242	-0.666
243	-0.666
243	-0.668
243	-0.675
244	-0.672
244	-0.673
245	-0.674
245	-0.678
246	-0.689
246	-0.694
247	-0.701
247	-0.687
248	-0.687
248	-0.688
249	-0.693
249	-0.694
250	-0.691
250	-0.699
250	-0.697
251	-0.699
251	-0.694
252	-0.696
252	-0.708
253	-0.704
253	-0.715
254	-0.72
254	-0.722
255	-0.733
255	-0.733
256	-0.733
256	-0.745
257	-0.756
257	-0.752
258	-0.754
258	-0.761
258	-0.758
259	-0.752
259	-0.768
260	-0.767
260	-0.755
261	-0.768
261	-0.752
262	-0.756
262	-0.756
263	-0.746
263	-0.75
264	-0.76
264	-0.762
265	-0.754
265	-0.756
265	-0.767
266	-0.758
266	-0.758
267	-0.756
267	-0.772
268	-0.78
268	-0.774
269	-0.767
269	-0.781
270	-0.785
270	-0.785
271	-0.799
271	-0.811
272	-0.811
272	-0.816
272	-0.809
273	-0.817
273	-0.833
274	-0.825
274	-0.82
275	-0.816
275	-0.805
276	-0.806
276	-0.811
277	-0.814
277	-0.811
278	-0.815
278	-0.816
278	-0.806
279	-0.814
279	-0.827
280	-0.83
280	-0.839
281	-0.833
281	-0.824
282	-0.829
282	-0.823
283	-0.816
283	-0.831
284	-0.844
284	-0.854
285	-0.834
285	-0.841
285	-0.834
286	-0.84
286	-0.856
287	-0.854
287	-0.853
288	-0.853
288	-0.834
289	-0.832
289	-0.84
290	-0.849
290	-0.837
291	-0.842
291	-0.84
292	-0.82
292	-0.815
292	-0.819
293	-0.806
293	-0.802
294	-0.802
294	-0.788
295	-0.771
295	-0.783
296	-0.794
296	-0.789
297	-0.779
297	-0.783
298	-0.781
298	-0.799
298	-0.804
299	-0.785
299	-0.779
300	-0.775
300	-0.757
301	-0.738
301	-0.741
302	-0.749
302	-0.736
303	-0.729
303	-0.717
304	-0.7
304	-0.703
305	-0.695
305	-0.702
305	-0.717
306	-0.702
306	-0.7
307	-0.693
307	-0.703
308	-0.705
308	-0.701
309	-0.702
309	-0.699
310	-0.696
310	-0.692
311	-0.678
311	-0.695
311	-0.681
312	-0.679
312	-0.668
313	-0.66
313	-0.661
314	-0.667
314	-0.665
315	-0.662
315	-0.657
316	-0.649
316	-0.642
317	-0.635
317	-0.632
318	-0.622
318	-0.62
318	-0.609
319	-0.598
319	-0.59
320	-0.587
320	-0.584
321	-0.581
321	-0.581
322	-0.576
322	-0.57
323	-0.571
323	-0.562
324	-0.56
324	-0.549
324	-0.537
325	-0.523
325	-0.505
326	-0.496
326	-0.47
327	-0.456
327	-0.433
328	-0.401
328	-0.378
329	-0.351
329	-0.321
330	-0.295
330	-0.259
330	-0.225
331	-0.187
331	-0.153
332	-0.118
332	-0.084
333	-0.055
333	-0.021
334	0.009
334	0.035
335	0.063
335	0.085
336	0.108
336	0.128
336	0.144
337	0.162
337	0.179
338	0.193
338	0.203
339	0.217
339	0.228
340	0.236
340	0.245
341	0.251
341	0.258
342	0.264
342	0.27
342	0.274
343	0.279
343	0.284
344	0.286
344	0.289
345	0.292
345	0.295
346	0.297
346	0.299
347	0.301
347	0.302
348	0.304
348	0.305
348	0.306
349	0.306
349	0.308
350	0.308
350	0.309
351	0.309
351	0.31
352	0.309
352	0.31
353	0.31
353	0.311
354	0.311
354	0.311
354	0.311
355	0.311
355	0.311
356	0.311
356	0.311
357	0.31
357	0.311
358	0.31
358	0.31
359	0.31
359	0.31
360	0.311
360	0.311
360	0.311
361	0.311
361	0.311
362	0.311
362	0.311
363	0.311
363	0.311
364	0.311
364	0.311
365	0.311
365	0.311
366	0.311
366	0.311
366	0.311
367	0.311
367	0.311
368	0.31
368	0.31
369	0.31
369	0.31
370	0.309
370	0.309
371	0.309
371	0.309
372	0.308
372	0.308
372	0.308
373	0.308
373	0.308
374	0.308
374	0.308
375	0.307
375	0.307
376	0.307
376	0.307
377	0.307
377	0.306
378	0.306
378	0.306
378	0.305
379	0.305
379	0.305
380	0.305
380	0.305
381	0.305
381	0.304
382	0.304
382	0.304
383	0.304
383	0.303
383	0.303
384	0.303
384	0.303
385	0.302
385	0.302
386	0.302
386	0.302
387	0.302
387	0.302
388	0.301
388	0.301
389	0.301
389	0.301
389	0.301
390	0.301
390	0.301
391	0.3
391	0.3
392	0.3
392	0.3
393	0.3
393	0.299
394	0.299
394	0.299
394	0.298
395	0.298
395	0.297
396	0.297
396	0.297
397	0.296
397	0.296
398	0.295
398	0.295
399	0.295
399	0.295
400	0.295
400	0.294
400	0.294
401	0.294
401	0.293
402	0.293
402	0.293
403	0.294
403	0.293
404	0.293
404	0.293
405	0.292
405	0.292
405	0.292
406	0.292
406	0.292
407	0.292
407	0.291
408	0.291
408	0.29
409	0.29
409	0.29
410	0.29
410	0.29
411	0.29
411	0.29
411	0.289
412	0.289
412	0.289
413	0.288
413	0.288
414	0.288
414	0.288
415	0.288
415	0.287
416	0.287
416	0.287
416	0.286
417	0.286
417	0.286
418	0.286
418	0.286
419	0.286
419	0.286
420	0.286
420	0.286
421	0.286
421	0.286
421	0.286
422	0.286
422	0.286
423	0.285
423	0.285
424	0.285
424	0.285
425	0.285
425	0.285
426	0.285
426	0.284
427	0.285
427	0.284
427	0.284
428	0.284
428	0.284
429	0.284
429	0.284
430	0.283
430	0.283
431	0.283
431	0.283
432	0.282
432	0.282
432	0.282
433	0.281
433	0.281
434	0.282
434	0.282
435	0.282
435	0.282
436	0.282
436	0.282
437	0.282
437	0.282
437	0.282
438	0.282
438	0.282
439	0.281
439	0.281
440	0.281
440	0.281
441	0.28
441	0.28
442	0.28
442	0.28
442	0.28
443	0.28
443	0.28
444	0.28
444	0.28
445	0.28
445	0.28
446	0.28
446	0.28
447	0.28
447	0.28
447	0.28
448	0.28
448	0.28
449	0.28
449	0.28
450	0.28
450	0.28
451	0.28
451	0.28
452	0.28
452	0.28
452	0.28
453	0.28
453	0.28
454	0.28
454	0.28
455	0.281
455	0.281
456	0.281
456	0.281
457	0.28
457	0.28
458	0.28
458	0.28
458	0.28
459	0.28
459	0.28
460	0.279
460	0.279
461	0.279
461	0.28
462	0.28
462	0.281
463	0.281
463	0.282
463	0.283
464	0.283
464	0.283
465	0.284
465	0.284
466	0.285
466	0.285
467	0.285
467	0.285
467	0.285
468	0.285
468	0.285
469	0.285
469	0.286
470	0.286
470	0.286
471	0.287
471	0.287
472	0.287
472	0.288
472	0.288
473	0.289
473	0.289
474	0.29
474	0.29
475	0.291
475	0.292
476	0.292
476	0.293
477	0.294
477	0.295
477	0.295
478	0.296
478	0.297
479	0.297
479	0.298
480	0.298
480	0.299
481	0.3
481	0.3
482	0.301
482	0.302
482	0.303
483	0.305
483	0.306
484	0.307
484	0.308
485	0.309
485	0.31
486	0.311
486	0.312
487	0.313
487	0.314
487	0.315
488	0.316
488	0.316
489	0.318
489	0.319
490	0.321
490	0.322
491	0.323
491	0.325
492	0.326
492	0.327
492	0.328
493	0.329
493	0.331
494	0.333
494	0.335
495	0.336
495	0.337
496	0.339
496	0.341
496	0.343
497	0.345
497	0.347
498	0.348
498	0.35
499	0.352
499	0.354
500	0.357
500	0.359
501	0.361
501	0.363
501	0.365
502	0.367
502	0.368
503	0.371
503	0.372
504	0.374
504	0.377
505	0.379
505	0.381
506	0.384
506	0.386
506	0.389
507	0.391
507	0.394
508	0.397
508	0.4
509	0.403
509	0.405
510	0.408
510	0.41
511	0.412
511	0.414
511	0.416
512	0.418
512	0.419
513	0.421
513	0.423
514	0.424
514	0.427
515	0.429
515	0.43
515	0.432
516	0.433
516	0.436
517	0.437
517	0.439
518	0.44
518	0.441
519	0.442
519	0.443
520	0.445
520	0.447
520	0.448
521	0.449
521	0.45
522	0.452
522	0.453
523	0.455
523	0.456
524	0.457
524	0.459
524	0.46
525	0.461
525	0.462
526	0.463
526	0.463
527	0.464
527	0.464
528	0.464
528	0.464
529	0.464
529	0.464
529	0.463
530	0.463
530	0.463
531	0.463
531	0.463
532	0.462
532	0.462
533	0.462
533	0.461
533	0.461
534	0.46
534	0.459
535	0.459
535	0.458
536	0.458
536	0.457
537	0.456
537	0.455
538	0.454
538	0.453
538	0.452
539	0.451
539	0.449
540	0.448
540	0.446
541	0.444
541	0.442
542	0.441
542	0.439
542	0.437
543	0.435
543	0.433
544	0.431
544	0.429
545	0.427
545	0.426
546	0.424
546	0.421
547	0.418
547	0.416
547	0.414
548	0.413
548	0.41
549	0.408
549	0.406
550	0.405
550	0.402
551	0.4
551	0.398
551	0.396
552	0.394
552	0.392
553	0.39
553	0.387
554	0.385
554	0.382
555	0.38
555	0.377
556	0.375
556	0.373
556	0.371
557	0.369
557	0.367
558	0.365
558	0.363
559	0.361
559	0.359
560	0.356
560	0.354
560	0.352
561	0.351
561	0.349
562	0.347
562	0.345
563	0.343
563	0.341
564	0.34
564	0.338
564	0.337
565	0.336
565	0.335
566	0.333
566	0.332
567	0.331
567	0.33
568	0.329
568	0.327
568	0.325
569	0.324
569	0.322
570	0.32
570	0.317
571	0.316
571	0.314
572	0.312
572	0.31
573	0.308
573	0.306
573	0.303
574	0.302
574	0.301
575	0.3
575	0.3
576	0.299
576	0.297
577	0.295
577	0.294
577	0.293
578	0.293
578	0.293
579	0.293
579	0.292
580	0.29
580	0.287
581	0.284
581	0.283
581	0.283
582	0.283
582	0.282
583	0.282
583	0.28
584	0.278
584	0.275
585	0.276
585	0.276
585	0.275
586	0.275
586	0.273
587	0.271
587	0.27
588	0.268
588	0.267
589	0.267
589	0.266
590	0.265
590	0.264
590	0.265
591	0.265
591	0.263
592	0.262
592	0.261
593	0.26
593	0.26
594	0.258
594	0.257
594	0.257
595	0.256
595	0.254
596	0.253
596	0.254
597	0.255
597	0.254
598	0.253
598	0.253
598	0.253
599	0.252
599	0.251
600	0.25
600	0.249
601	0.249
601	0.249
602	0.247
602	0.247
602	0.246
603	0.246
603	0.246
604	0.246
604	0.245
605	0.246
605	0.246
606	0.245
606	0.243
606	0.242
607	0.242
607	0.242
608	0.241
608	0.239
609	0.239
609	0.238
610	0.237
610	0.236
610	0.236
611	0.236
611	0.235
612	0.235
612	0.235
613	0.235
613	0.234
614	0.233
614	0.231
614	0.23
615	0.229
615	0.228
616	0.227
616	0.226
617	0.225
617	0.224
618	0.223
618	0.222
618	0.222
619	0.221
619	0.221
620	0.221
620	0.22
621	0.219
621	0.218
622	0.217
622	0.215
622	0.214
623	0.213
623	0.213
624	0.212
624	0.211
625	0.21
625	0.209
626	0.208
626	0.207
626	0.207
627	0.207
627	0.206
628	0.205
628	0.204
629	0.203
629	0.202
630	0.2
630	0.198
630	0.197
631	0.196
631	0.194
632	0.192
632	0.19
633	0.188
633	0.186
634	0.184
634	0.182
634	0.18
635	0.178
635	0.176
636	0.173
636	0.171
637	0.168
637	0.165
638	0.163
638	0.16
638	0.157
639	0.153
639	0.149
640	0.145
640	0.141
641	0.137
641	0.133
642	0.129
642	0.125
642	0.121
643	0.116
643	0.111
644	0.106
644	0.101
645	0.096
645	0.091
646	0.086
646	0.08
646	0.073
647	0.066
647	0.06
648	0.053
648	0.045
649	0.038
649	0.031
650	0.024
650	0.016
650	0.008
651	-0.002
651	-0.013
652	-0.027
652	-0.042
653	-0.055
653	-0.066
653	-0.062
654	-0.042
654	-0.036
655	-0.041
655	-0.047
656	-0.053
656	-0.06
657	-0.066
657	-0.071
657	-0.078
658	-0.085
658	-0.117
659	-0.205
659	-0.295
660	-0.336
660	-0.363
661	-0.392
661	-0.423
661	-0.454
662	-0.483
662	-0.514
663	-0.55
663	-0.59
664	-0.628
664	-0.671
665	-0.718
665	-0.765
665	-0.81
666	-0.862
666	-0.918
667	-0.974
667	-1.036
668	-1.096
668	-1.165
669	-1.234
669	-1.309
669	-1.39
670	-1.482
670	-1.658
671	-1.93
671	-2.217
672	-2.407
672	-2.544
672	-2.649
673	-2.736
673	-2.809
674	-2.858
674	-2.872
675	-2.887
675	-2.886
676	-2.866
676	-2.805
676	-2.733
677	-2.645
677	-2.538
678	-2.376
678	-2.098
679	-1.753
679	-1.598
680	-1.497
680	-1.421
680	-1.355
681	-1.307
681	-1.255
682	-1.214
682	-1.171
683	-1.129
683	-1.105
684	-1.077
684	-1.059
684	-1.034
685	-1.014
685	-1.005
686	-0.981
686	-0.968
687	-0.957
687	-0.945
687	-0.946
688	-0.929
688	-0.921
689	-0.924
689	-0.922
690	-0.908
690	-0.897
691	-0.895
691	-0.898
691	-0.898
692	-0.898
692	-0.893
693	-0.901
693	-0.913
694	-0.893
694	-0.891
695	-0.894
695	-0.889
695	-0.896
696	-0.903
696	-0.896
697	-0.89
697	-0.887
698	-0.881
698	-0.873
698	-0.886
699	-0.885
699	-0.885
700	-0.903
700	-0.897
701	-0.885
701	-0.878
702	-0.879
702	-0.877
702	-0.878
703	-0.87
703	-0.859
704	-0.868
704	-0.871
705	-0.86
705	-0.86
705	-0.851
706	-0.845
706	-0.839
707	-0.851
707	-0.853
708	-0.849
708	-0.847
709	-0.847
709	-0.843
709	-0.838
710	-0.845
710	-0.849
711	-0.848
711	-0.851
712	-0.842
712	-0.84
713	-0.845
713	-0.845
713	-0.826
714	-0.828
714	-0.832
715	-0.824
715	-0.832
716	-0.85
716	-0.858
716	-0.858
717	-0.865
717	-0.856
718	-0.851
718	-0.851
719	-0.848
719	-0.841
720	-0.835
720	-0.831
720	-0.823
721	-0.815
721	-0.821
722	-0.816
722	-0.813
723	-0.831
723	-0.844
723	-0.852
724	-0.851
724	-0.857
725	-0.85
725	-0.854
726	-0.856
726	-0.846
727	-0.849
727	-0.855
727	-0.846
728	-0.833
728	-0.829
729	-0.831
729	-0.833
730	-0.839
730	-0.829
730	-0.836
731	-0.839
731	-0.84
732	-0.843
732	-0.838
733	-0.853
733	-0.86
734	-0.869
734	-0.86
734	-0.842
735	-0.832
735	-0.828
736	-0.827
736	-0.82
737	-0.82
737	-0.809
737	-0.8
738	-0.785
738	-0.773
739	-0.775
739	-0.776
740	-0.79
740	-0.789
741	-0.798
741	-0.807
741	-0.817
742	-0.823
742	-0.839
743	-0.846
743	-0.848
744	-0.853
744	-0.862
744	-0.856
745	-0.864
745	-0.854
746	-0.849
746	-0.84
747	-0.842
747	-0.833
748	-0.835
748	-0.839
748	-0.838
749	-0.831
749	-0.837
750	-0.826
750	-0.828
751	-0.828
751	-0.826
751	-0.838
752	-0.841
752	-0.844
753	-0.846
753	-0.84
754	-0.859
754	-0.859
754	-0.869
755	-0.87
755	-0.861
756	-0.864
756	-0.85
757	-0.843
757	-0.831
758	-0.832
758	-0.832
758	-0.828
759	-0.832
759	-0.832
760	-0.829
760	-0.832
761	-0.826
761	-0.831
761	-0.832
762	-0.837
762	-0.837
763	-0.838
763	-0.84
764	-0.84
764	-0.833
764	-0.839
765	-0.838
765	-0.845
766	-0.848
766	-0.849
767	-0.865
767	-0.86
768	-0.857
768	-0.85
768	-0.846
769	-0.85
769	-0.858
770	-0.87
770	-0.875
771	-0.871
771	-0.87
771	-0.875
772	-0.88
772	-0.902
773	-0.903
773	-0.903
774	-0.902
774	-0.885
775	-0.871
775	-0.869
775	-0.872
776	-0.882
776	-0.877
777	-0.877
777	-0.859
778	-0.869
778	-0.877
778	-0.878
779	-0.886
779	-0.901
780	-0.897
780	-0.907
781	-0.897
781	-0.887
781	-0.901
782	-0.921
782	-0.921
783	-0.92
783	-0.928
784	-0.932
784	-0.926
784	-0.945
785	-0.938
785	-0.949
786	-0.954
786	-0.947
787	-0.937
787	-0.947
788	-0.939
788	-0.93
788	-0.933
789	-0.932
789	-0.922
790	-0.921
790	-0.906
791	-0.912
791	-0.907
791	-0.901
792	-0.894
792	-0.898
793	-0.902
793	-0.888
794	-0.883
794	-0.875
794	-0.882
795	-0.903
795	-0.889
796	-0.895
796	-0.891
797	-0.884
797	-0.874
797	-0.868
798	-0.89
798	-0.893
799	-0.894
799	-0.879
800	-0.875
800	-0.884
801	-0.882
801	-0.887
801	-0.883
802	-0.883
802	-0.882
803	-0.875
803	-0.868
804	-0.873
804	-0.881
804	-0.864
805	-0.844
805	-0.833
806	-0.833
806	-0.83
807	-0.831
807	-0.83
807	-0.813
808	-0.808
808	-0.802
809	-0.796
809	-0.797
810	-0.799
810	-0.796
810	-0.79
811	-0.795
811	-0.787
812	-0.78
812	-0.784
813	-0.789
813	-0.789
813	-0.785
814	-0.784
814	-0.791
815	-0.782
815	-0.779
816	-0.776
816	-0.792
817	-0.804
817	-0.807
817	-0.816
818	-0.81
818	-0.807
819	-0.816
819	-0.813
820	-0.826
820	-0.826
820	-0.824
821	-0.819
821	-0.815
822	-0.812
822	-0.8
823	-0.812
823	-0.812
823	-0.808
824	-0.807
824	-0.817
825	-0.817
825	-0.814
826	-0.81
826	-0.805
826	-0.806
827	-0.805
827	-0.793
828	-0.791
828	-0.784
829	-0.78
829	-0.764
829	-0.759
830	-0.761
830	-0.745
831	-0.739
831	-0.728
832	-0.719
832	-0.716
832	-0.709
833	-0.708
833	-0.714
834	-0.708
834	-0.702
835	-0.691
835	-0.691
835	-0.686
836	-0.682
836	-0.678
837	-0.668
837	-0.659
838	-0.645
838	-0.626
839	-0.622
839	-0.609
839	-0.598
840	-0.598
840	-0.589
841	-0.578
841	-0.571
842	-0.561
842	-0.55
842	-0.548
843	-0.543
843	-0.538
844	-0.536
844	-0.525
845	-0.51
845	-0.5
845	-0.489
846	-0.478
846	-0.468
847	-0.457
847	-0.443
848	-0.428
848	-0.411
848	-0.396
849	-0.384
849	-0.372
850	-0.362
850	-0.351
851	-0.336
851	-0.319
851	-0.309
852	-0.294
852	-0.281
853	-0.272
853	-0.261
854	-0.25
854	-0.236
854	-0.223
855	-0.211
855	-0.204
856	-0.196
856	-0.187
857	-0.178
857	-0.17
857	-0.156
858	-0.144
858	-0.136
859	-0.125
859	-0.112
860	-0.101
860	-0.085
860	-0.075
861	-0.064
861	-0.053
862	-0.045
862	-0.036
863	-0.028
863	-0.018
863	-0.012
864	-0.006
864	0.002
865	0.01
865	0.016
866	0.023
866	0.029
866	0.035
867	0.041
867	0.047
868	0.051
868	0.056
869	0.061
869	0.064
869	0.066
870	0.068
870	0.07
871	0.072
871	0.073
872	0.075
872	0.075
872	0.076
873	0.076
873	0.075
874	0.074
874	0.074
875	0.074
875	0.074
875	0.074
876	0.073
876	0.073
877	0.072
877	0.072
878	0.072
878	0.071
878	0.071
879	0.071
879	0.071
880	0.07
880	0.069
881	0.067
881	0.066
881	0.065
882	0.063
882	0.061
883	0.06
883	0.058
884	0.057
884	0.057
884	0.056
885	0.056
885	0.056
886	0.056
886	0.056
887	0.056
887	0.055
887	0.055
888	0.055
888	0.054
889	0.053
889	0.052
890	0.051
890	0.05
890	0.05
891	0.05
891	0.049
892	0.05
892	0.05
893	0.05
893	0.049
893	0.05
894	0.05
894	0.051
895	0.05
895	0.05
895	0.05
896	0.05
896	0.05
897	0.05
897	0.05
898	0.051
898	0.051
898	0.051
899	0.051
899	0.051
900	0.052
900	0.051
901	0.051
901	0.051
901	0.051
902	0.051
902	0.051
903	0.051
903	0.051
904	0.05
904	0.05
904	0.05
905	0.05
905	0.05
906	0.05
906	0.051
907	0.051
907	0.051
907	0.051
908	0.051
908	0.052
909	0.052
909	0.052
910	0.053
910	0.053
910	0.053
911	0.054
911	0.054
912	0.055
912	0.056
913	0.057
913	0.057
913	0.058
914	0.058
914	0.058
915	0.058
915	0.058
916	0.058
916	0.058
916	0.057
917	0.057
917	0.056
918	0.056
918	0.055
918	0.055
919	0.054
919	0.054
920	0.054
920	0.054
921	0.055
921	0.055
921	0.055
922	0.055
922	0.056
923	0.056
923	0.055
924	0.055
924	0.055
924	0.054
925	0.053
925	0.052
926	0.051
926	0.05
927	0.05
927	0.049
927	0.048
928	0.048
928	0.048
929	0.048
929	0.049
930	0.05
930	0.05
930	0.051
931	0.052
931	0.052
932	0.054
932	0.054
933	0.055
933	0.055
933	0.055
934	0.055
934	0.054
935	0.054
935	0.053
935	0.051
936	0.05
936	0.049
937	0.048
937	0.047
938	0.046
938	0.045
938	0.045
939	0.044
939	0.043
940	0.043
940	0.042
941	0.041
941	0.041
941	0.041
942	0.04
942	0.04
943	0.039
943	0.039
944	0.038
944	0.037
944	0.037
945	0.037
945	0.037
946	0.036
946	0.035
946	0.035
947	0.034
947	0.034
948	0.035
948	0.035
949	0.036
949	0.037
949	0.039
950	0.04
950	0.042
951	0.043
951	0.044
952	0.045
952	0.046
952	0.047
953	0.048
953	0.048
954	0.048
954	0.048
955	0.047
955	0.047
955	0.046
956	0.046
956	0.045
957	0.044
957	0.042
957	0.041
958	0.041
958	0.04
959	0.039
959	0.039
960	0.038
960	0.038
960	0.039
961	0.039
961	0.039
962	0.04
962	0.04
963	0.04
963	0.041
963	0.041
964	0.042
964	0.043
965	0.043
965	0.043
966	0.044
966	0.044
966	0.045
967	0.046
967	0.046
968	0.046
968	0.046
968	0.047
969	0.047
969	0.046
970	0.046
970	0.046
971	0.045
971	0.045
971	0.045
972	0.046
972	0.046
973	0.046
973	0.046
974	0.046
974	0.046
974	0.046
975	0.046
975	0.046
976	0.045
976	0.045
976	0.044
977	0.044
977	0.043
978	0.042
978	0.042
979	0.041
979	0.04
979	0.04
980	0.04
980	0.04
981	0.04
981	0.041
982	0.041
982	0.041
982	0.041
983	0.041
983	0.041
984	0.041
984	0.04
984	0.04
985	0.04
985	0.039
986	0.038
986	0.038
987	0.037
987	0.036
987	0.035
988	0.035
988	0.033
989	0.032
989	0.031
990	0.03
990	0.029
990	0.028
991	0.027
991	0.026
992	0.025
992	0.024
992	0.023
993	0.023
993	0.022
994	0.021
994	0.019
995	0.018
995	0.017
995	0.016
996	0.015
996	0.013
997	0.012
997	0.012
997	0.011
998	0.011
998	0.011
999	0.011
999	0.011
1000	0.011
1000	0.012
1000	0.012
1001	0.013
1001	0.014
1002	0.015
1002	0.015
1003	0.016
1003	0.016
1003	0.016
1004	0.016
1004	0.016
1005	0.016
1005	0.015
1005	0.015
1006	0.014
1006	0.013
1007	0.013
1007	0.012
1008	0.012
1008	0.011
1008	0.011
1009	0.011
1009	0.011
1010	0.012
1010	0.013
1010	0.013
1011	0.014
1011	0.015
1012	0.016
1012	0.017
1013	0.018
1013	0.019
1013	0.019
1014	0.02
1014	0.021
1015	0.021
1015	0.021
1016	0.022
1016	0.022
1016	0.021
1017	0.021
1017	0.021
1018	0.021
1018	0.02
1018	0.02
1019	0.02
1019	0.019
1020	0.019
1020	0.018
1021	0.018
1021	0.018
1021	0.017
1022	0.017
1022	0.017
1023	0.017
1023	0.017
1023	0.017
1024	0.017
1024	0.017
1025	0.017
1025	0.017
1026	0.017
1026	0.018
1026	0.018
1027	0.018
1027	0.018
1028	0.019
1028	0.019
1028	0.02
1029	0.02
1029	0.021
1030	0.02
1030	0.02
1031	0.02
1031	0.021
1031	0.021
1032	0.02
1032	0.02
1033	0.02
1033	0.019
1033	0.019
1034	0.018
1034	0.017
1035	0.017
1035	0.016
1036	0.015
1036	0.015
1036	0.014
1037	0.014
1037	0.014
1038	0.013
1038	0.013
1039	0.013
1039	0.013
1039	0.014
1040	0.014
1040	0.014
1041	0.014
1041	0.013
1041	0.013
1042	0.012
1042	0.012
1043	0.011
1043	0.01
1044	0.01
1044	0.009
1044	0.008
1045	0.008
1045	0.008
1046	0.007
1046	0.007
1046	0.007
1047	0.007
1047	0.007
1048	0.007
1048	0.007
1049	0.007
1049	0.007
1049	0.007
1050	0.006
1050	0.005
1051	0.004
1051	0.004
1051	0.003
1052	0.002
1052	0.001
1053	0.001
1053	0
1053	-0
1054	-0.001
1054	-0.001
1055	-0
1055	-0
1056	-0.001
1056	-0
1056	-0
1057	-0.001
1057	-0.001
1058	-0.001
1058	-0.001
1058	-0.001
1059	-0.001
1059	-0.002
1060	-0.003
1060	-0.003
1061	-0.003
1061	-0.003
1061	-0.003
1062	-0.003
1062	-0.003
1063	-0.003
1063	-0.004
1063	-0.004
1064	-0.004
1064	-0.004
1065	-0.004
1065	-0.004
1066	-0.005
1066	-0.006
1066	-0.006
1067	-0.007
1067	-0.008
1068	-0.009
1068	-0.01
1068	-0.011
1069	-0.012
1069	-0.013
1070	-0.014
1070	-0.015
1071	-0.015
1071	-0.015
1071	-0.016
1072	-0.016
1072	-0.016
1073	-0.016
1073	-0.017
1073	-0.017
1074	-0.017
1074	-0.017
1075	-0.017
1075	-0.018
1076	-0.019
1076	-0.019
1076	-0.02
1077	-0.021
1077	-0.022
1078	-0.023
1078	-0.023
1078	-0.024
1079	-0.024
1079	-0.024
1080	-0.026
1080	-0.026
1080	-0.028
1081	-0.028
1081	-0.029
1082	-0.029
1082	-0.03
1083	-0.032
1083	-0.033
1083	-0.034
1084	-0.035
1084	-0.036
1085	-0.037
1085	-0.038
1085	-0.039
1086	-0.04
1086	-0.041
1087	-0.042
1087	-0.042
1088	-0.044
1088	-0.044
1088	-0.045
1089	-0.046
1089	-0.047
1090	-0.048
1090	-0.048
1090	-0.05
1091	-0.051
1091	-0.051
1092	-0.052
1092	-0.052
1092	-0.053
1093	-0.054
1093	-0.054
1094	-0.055
1094	-0.056
1095	-0.057
1095	-0.057
1095	-0.058
1096	-0.059
1096	-0.061
1097	-0.062
1097	-0.065
1097	-0.066
1098	-0.068
1098	-0.071
1099	-0.073
1099	-0.074
1100	-0.077
1100	-0.079
1100	-0.082
1101	-0.086
1101	-0.088
1102	-0.09
1102	-0.093
1102	-0.095
1103	-0.098
1103	-0.1
1104	-0.103
1104	-0.107
1104	-0.109
1105	-0.111
1105	-0.113
1106	-0.118
1106	-0.121
1107	-0.126
1107	-0.131
1107	-0.135
1108	-0.138
1108	-0.14
1109	-0.142
1109	-0.147
1109	-0.152
1110	-0.154
1110	-0.159
1111	-0.167
1111	-0.157
