Data from 3.3A_17C_Absorbance__541__03408.txt Node

Date: Tue Jun 20 17:31:37 CEST 2023
User: Marek
Spectrometer: MAYP115816
Trigger mode: 0
Integration Time (sec): 2.200000E-1
Scans to average: 10
Electric dark correction enabled: true
Nonlinearity correction enabled: true
Boxcar width: 5
XAxis mode: Wavelengths
Number of Pixels in Spectrum: 2068
>>>>>Begin Spectral Data<<<<<
199	-0.806
199	-0.791
200	-0.752
200	-0.697
201	-0.668
201	-0.659
202	-0.643
202	-0.635
203	-0.635
203	-0.627
204	-0.607
204	-0.591
205	-0.566
205	-0.558
205	-0.566
206	-0.57
206	-0.564
207	-0.556
207	-0.561
208	-0.563
208	-0.568
209	-0.569
209	-0.575
210	-0.59
210	-0.597
211	-0.591
211	-0.595
212	-0.604
212	-0.611
213	-0.61
213	-0.603
213	-0.6
214	-0.607
214	-0.609
215	-0.604
215	-0.61
216	-0.618
216	-0.621
217	-0.62
217	-0.62
218	-0.625
218	-0.628
219	-0.635
219	-0.636
220	-0.64
220	-0.647
221	-0.648
221	-0.647
221	-0.64
222	-0.64
222	-0.639
223	-0.635
223	-0.637
224	-0.638
224	-0.636
225	-0.633
225	-0.633
226	-0.632
226	-0.632
227	-0.64
227	-0.65
228	-0.654
228	-0.663
229	-0.668
229	-0.666
229	-0.667
230	-0.662
230	-0.66
231	-0.658
231	-0.655
232	-0.657
232	-0.651
233	-0.651
233	-0.641
234	-0.641
234	-0.636
235	-0.639
235	-0.65
236	-0.657
236	-0.657
236	-0.657
237	-0.656
237	-0.657
238	-0.657
238	-0.658
239	-0.659
239	-0.667
240	-0.66
240	-0.658
241	-0.653
241	-0.655
242	-0.659
242	-0.666
243	-0.667
243	-0.667
243	-0.673
244	-0.671
244	-0.673
245	-0.677
245	-0.68
246	-0.69
246	-0.694
247	-0.701
247	-0.688
248	-0.687
248	-0.691
249	-0.695
249	-0.697
250	-0.696
250	-0.703
250	-0.7
251	-0.699
251	-0.695
252	-0.697
252	-0.707
253	-0.704
253	-0.717
254	-0.721
254	-0.721
255	-0.732
255	-0.731
256	-0.733
256	-0.746
257	-0.756
257	-0.751
258	-0.754
258	-0.758
258	-0.754
259	-0.748
259	-0.767
260	-0.767
260	-0.756
261	-0.767
261	-0.754
262	-0.76
262	-0.76
263	-0.75
263	-0.758
264	-0.769
264	-0.771
265	-0.762
265	-0.764
265	-0.774
266	-0.765
266	-0.766
267	-0.764
267	-0.78
268	-0.789
268	-0.782
269	-0.772
269	-0.786
270	-0.789
270	-0.789
271	-0.804
271	-0.815
272	-0.815
272	-0.817
272	-0.81
273	-0.819
273	-0.835
274	-0.828
274	-0.822
275	-0.82
275	-0.807
276	-0.809
276	-0.814
277	-0.816
277	-0.814
278	-0.82
278	-0.821
278	-0.807
279	-0.817
279	-0.829
280	-0.83
280	-0.841
281	-0.834
281	-0.825
282	-0.834
282	-0.829
283	-0.821
283	-0.835
284	-0.85
284	-0.86
285	-0.842
285	-0.849
285	-0.841
286	-0.846
286	-0.862
287	-0.856
287	-0.856
288	-0.853
288	-0.835
289	-0.833
289	-0.841
290	-0.85
290	-0.838
291	-0.841
291	-0.839
292	-0.821
292	-0.818
292	-0.821
293	-0.811
293	-0.807
294	-0.805
294	-0.79
295	-0.773
295	-0.786
296	-0.797
296	-0.791
297	-0.779
297	-0.783
298	-0.78
298	-0.797
298	-0.802
299	-0.783
299	-0.777
300	-0.773
300	-0.753
301	-0.734
301	-0.737
302	-0.748
302	-0.733
303	-0.726
303	-0.715
304	-0.697
304	-0.701
305	-0.694
305	-0.704
305	-0.719
306	-0.704
306	-0.703
307	-0.695
307	-0.705
308	-0.707
308	-0.702
309	-0.704
309	-0.7
310	-0.698
310	-0.691
311	-0.679
311	-0.699
311	-0.686
312	-0.683
312	-0.674
313	-0.666
313	-0.667
314	-0.673
314	-0.669
315	-0.667
315	-0.661
316	-0.652
316	-0.642
317	-0.634
317	-0.631
318	-0.623
318	-0.621
318	-0.61
319	-0.599
319	-0.591
320	-0.589
320	-0.587
321	-0.583
321	-0.583
322	-0.577
322	-0.569
323	-0.569
323	-0.558
324	-0.556
324	-0.544
324	-0.534
325	-0.519
325	-0.502
326	-0.493
326	-0.466
327	-0.451
327	-0.428
328	-0.397
328	-0.375
329	-0.346
329	-0.317
330	-0.289
330	-0.252
330	-0.216
331	-0.179
331	-0.147
332	-0.113
332	-0.078
333	-0.047
333	-0.012
334	0.017
334	0.043
335	0.07
335	0.093
336	0.115
336	0.137
336	0.155
337	0.174
337	0.191
338	0.205
338	0.215
339	0.23
339	0.242
340	0.25
340	0.259
341	0.267
341	0.272
342	0.28
342	0.286
342	0.29
343	0.294
343	0.3
344	0.302
344	0.305
345	0.309
345	0.311
346	0.313
346	0.315
347	0.317
347	0.318
348	0.32
348	0.322
348	0.323
349	0.324
349	0.325
350	0.325
350	0.326
351	0.326
351	0.326
352	0.326
352	0.327
353	0.327
353	0.327
354	0.327
354	0.327
354	0.327
355	0.327
355	0.327
356	0.327
356	0.328
357	0.328
357	0.328
358	0.328
358	0.328
359	0.328
359	0.328
360	0.328
360	0.329
360	0.329
361	0.329
361	0.329
362	0.328
362	0.328
363	0.328
363	0.328
364	0.328
364	0.328
365	0.328
365	0.327
366	0.327
366	0.327
366	0.327
367	0.327
367	0.327
368	0.327
368	0.326
369	0.326
369	0.326
370	0.326
370	0.325
371	0.325
371	0.325
372	0.325
372	0.325
372	0.325
373	0.325
373	0.325
374	0.325
374	0.325
375	0.325
375	0.324
376	0.324
376	0.324
377	0.323
377	0.323
378	0.323
378	0.322
378	0.322
379	0.322
379	0.322
380	0.322
380	0.322
381	0.321
381	0.321
382	0.321
382	0.321
383	0.32
383	0.32
383	0.32
384	0.319
384	0.319
385	0.318
385	0.318
386	0.318
386	0.318
387	0.317
387	0.317
388	0.317
388	0.317
389	0.317
389	0.317
389	0.317
390	0.317
390	0.316
391	0.316
391	0.316
392	0.315
392	0.315
393	0.315
393	0.315
394	0.314
394	0.314
394	0.313
395	0.313
395	0.312
396	0.312
396	0.312
397	0.312
397	0.311
398	0.311
398	0.311
399	0.31
399	0.31
400	0.31
400	0.31
400	0.31
401	0.309
401	0.309
402	0.308
402	0.308
403	0.308
403	0.308
404	0.308
404	0.308
405	0.307
405	0.307
405	0.307
406	0.307
406	0.306
407	0.306
407	0.306
408	0.306
408	0.306
409	0.305
409	0.305
410	0.305
410	0.305
411	0.305
411	0.305
411	0.304
412	0.304
412	0.303
413	0.303
413	0.303
414	0.303
414	0.303
415	0.302
415	0.302
416	0.302
416	0.302
416	0.301
417	0.301
417	0.301
418	0.301
418	0.301
419	0.301
419	0.301
420	0.301
420	0.3
421	0.3
421	0.3
421	0.3
422	0.3
422	0.3
423	0.3
423	0.3
424	0.3
424	0.3
425	0.299
425	0.299
426	0.299
426	0.299
427	0.299
427	0.299
427	0.299
428	0.299
428	0.299
429	0.298
429	0.298
430	0.298
430	0.297
431	0.297
431	0.297
432	0.297
432	0.296
432	0.296
433	0.296
433	0.296
434	0.296
434	0.297
435	0.297
435	0.297
436	0.297
436	0.297
437	0.296
437	0.296
437	0.296
438	0.296
438	0.296
439	0.296
439	0.296
440	0.295
440	0.296
441	0.295
441	0.295
442	0.295
442	0.295
442	0.295
443	0.295
443	0.295
444	0.295
444	0.295
445	0.295
445	0.295
446	0.294
446	0.294
447	0.294
447	0.294
447	0.294
448	0.294
448	0.294
449	0.294
449	0.294
450	0.294
450	0.294
451	0.294
451	0.294
452	0.294
452	0.294
452	0.295
453	0.295
453	0.295
454	0.295
454	0.295
455	0.295
455	0.295
456	0.295
456	0.295
457	0.295
457	0.295
458	0.295
458	0.295
458	0.295
459	0.295
459	0.295
460	0.294
460	0.294
461	0.294
461	0.295
462	0.295
462	0.296
463	0.297
463	0.297
463	0.298
464	0.298
464	0.298
465	0.299
465	0.299
466	0.299
466	0.3
467	0.3
467	0.3
467	0.3
468	0.299
468	0.299
469	0.3
469	0.301
470	0.301
470	0.301
471	0.302
471	0.302
472	0.302
472	0.303
472	0.303
473	0.304
473	0.305
474	0.306
474	0.306
475	0.307
475	0.308
476	0.309
476	0.31
477	0.31
477	0.311
477	0.312
478	0.312
478	0.313
479	0.314
479	0.315
480	0.315
480	0.316
481	0.316
481	0.317
482	0.318
482	0.319
482	0.32
483	0.321
483	0.323
484	0.324
484	0.325
485	0.326
485	0.327
486	0.328
486	0.33
487	0.331
487	0.332
487	0.333
488	0.334
488	0.335
489	0.336
489	0.338
490	0.339
490	0.341
491	0.343
491	0.344
492	0.346
492	0.347
492	0.348
493	0.349
493	0.351
494	0.353
494	0.355
495	0.356
495	0.358
496	0.359
496	0.361
496	0.363
497	0.365
497	0.367
498	0.369
498	0.371
499	0.373
499	0.376
500	0.379
500	0.381
501	0.384
501	0.386
501	0.388
502	0.39
502	0.392
503	0.394
503	0.396
504	0.398
504	0.401
505	0.403
505	0.405
506	0.408
506	0.411
506	0.414
507	0.416
507	0.419
508	0.423
508	0.425
509	0.428
509	0.431
510	0.433
510	0.436
511	0.438
511	0.44
511	0.442
512	0.444
512	0.446
513	0.447
513	0.449
514	0.452
514	0.454
515	0.456
515	0.458
515	0.459
516	0.461
516	0.464
517	0.466
517	0.467
518	0.469
518	0.47
519	0.471
519	0.473
520	0.474
520	0.476
520	0.478
521	0.479
521	0.48
522	0.481
522	0.483
523	0.485
523	0.486
524	0.487
524	0.488
524	0.489
525	0.489
525	0.49
526	0.491
526	0.491
527	0.492
527	0.493
528	0.493
528	0.493
529	0.493
529	0.493
529	0.493
530	0.493
530	0.493
531	0.493
531	0.492
532	0.492
532	0.492
533	0.491
533	0.491
533	0.49
534	0.489
534	0.488
535	0.488
535	0.487
536	0.486
536	0.485
537	0.484
537	0.483
538	0.482
538	0.48
538	0.478
539	0.477
539	0.476
540	0.474
540	0.472
541	0.471
541	0.469
542	0.467
542	0.465
542	0.463
543	0.461
543	0.459
544	0.456
544	0.454
545	0.452
545	0.451
546	0.448
546	0.445
547	0.443
547	0.44
547	0.438
548	0.437
548	0.434
549	0.432
549	0.43
550	0.428
550	0.425
551	0.422
551	0.42
551	0.417
552	0.415
552	0.413
553	0.411
553	0.408
554	0.406
554	0.403
555	0.4
555	0.398
556	0.395
556	0.393
556	0.391
557	0.389
557	0.387
558	0.384
558	0.382
559	0.38
559	0.378
560	0.375
560	0.373
560	0.371
561	0.37
561	0.368
562	0.366
562	0.364
563	0.362
563	0.36
564	0.358
564	0.356
564	0.354
565	0.353
565	0.351
566	0.349
566	0.348
567	0.347
567	0.346
568	0.344
568	0.342
568	0.34
569	0.339
569	0.337
570	0.334
570	0.331
571	0.33
571	0.328
572	0.326
572	0.324
573	0.322
573	0.319
573	0.317
574	0.315
574	0.314
575	0.313
575	0.313
576	0.312
576	0.31
577	0.308
577	0.306
577	0.306
578	0.305
578	0.305
579	0.305
579	0.304
580	0.302
580	0.298
581	0.296
581	0.294
581	0.294
582	0.293
582	0.293
583	0.292
583	0.29
584	0.287
584	0.284
585	0.284
585	0.284
585	0.283
586	0.282
586	0.281
587	0.279
587	0.277
588	0.275
588	0.274
589	0.274
589	0.273
590	0.272
590	0.271
590	0.271
591	0.271
591	0.269
592	0.268
592	0.266
593	0.265
593	0.264
594	0.263
594	0.261
594	0.26
595	0.259
595	0.258
596	0.256
596	0.257
597	0.258
597	0.257
598	0.256
598	0.256
598	0.255
599	0.254
599	0.253
600	0.252
600	0.251
601	0.251
601	0.25
602	0.249
602	0.248
602	0.247
603	0.246
603	0.247
604	0.246
604	0.246
605	0.246
605	0.246
606	0.244
606	0.243
606	0.242
607	0.241
607	0.241
608	0.24
608	0.238
609	0.237
609	0.237
610	0.235
610	0.234
610	0.233
611	0.233
611	0.233
612	0.232
612	0.232
613	0.232
613	0.231
614	0.23
614	0.228
614	0.227
615	0.226
615	0.224
616	0.224
616	0.222
617	0.221
617	0.22
618	0.219
618	0.218
618	0.217
619	0.216
619	0.216
620	0.217
620	0.216
621	0.215
621	0.214
622	0.212
622	0.211
622	0.21
623	0.208
623	0.208
624	0.208
624	0.206
625	0.205
625	0.204
626	0.203
626	0.202
626	0.202
627	0.201
627	0.2
628	0.199
628	0.198
629	0.197
629	0.196
630	0.194
630	0.192
630	0.19
631	0.189
631	0.187
632	0.184
632	0.182
633	0.18
633	0.178
634	0.176
634	0.174
634	0.173
635	0.171
635	0.169
636	0.166
636	0.164
637	0.161
637	0.158
638	0.155
638	0.152
638	0.149
639	0.145
639	0.14
640	0.136
640	0.132
641	0.128
641	0.124
642	0.12
642	0.116
642	0.111
643	0.106
643	0.101
644	0.096
644	0.091
645	0.086
645	0.081
646	0.076
646	0.069
646	0.063
647	0.056
647	0.049
648	0.042
648	0.035
649	0.027
649	0.02
650	0.013
650	0.005
650	-0.003
651	-0.012
651	-0.024
652	-0.038
652	-0.052
653	-0.065
653	-0.076
653	-0.071
654	-0.051
654	-0.046
655	-0.051
655	-0.056
656	-0.062
656	-0.068
657	-0.073
657	-0.078
657	-0.085
658	-0.092
658	-0.124
659	-0.211
659	-0.301
660	-0.341
660	-0.368
661	-0.396
661	-0.426
661	-0.458
662	-0.487
662	-0.518
663	-0.552
663	-0.59
664	-0.628
664	-0.67
665	-0.716
665	-0.763
665	-0.807
666	-0.858
666	-0.913
667	-0.967
667	-1.031
668	-1.09
668	-1.159
669	-1.227
669	-1.301
669	-1.382
670	-1.467
670	-1.592
671	-1.8
671	-2.154
672	-2.365
672	-2.513
672	-2.625
673	-2.715
673	-2.792
674	-2.835
674	-2.848
675	-2.863
675	-2.866
676	-2.857
676	-2.794
676	-2.72
677	-2.628
677	-2.516
678	-2.342
678	-2.029
679	-1.716
679	-1.572
680	-1.475
680	-1.402
680	-1.338
681	-1.292
681	-1.24
682	-1.2
682	-1.158
683	-1.117
683	-1.095
684	-1.068
684	-1.05
684	-1.027
685	-1.009
685	-0.998
686	-0.976
686	-0.963
687	-0.954
687	-0.943
687	-0.943
688	-0.926
688	-0.917
689	-0.92
689	-0.918
690	-0.905
690	-0.895
691	-0.894
691	-0.896
691	-0.896
692	-0.897
692	-0.894
693	-0.903
693	-0.914
694	-0.895
694	-0.894
695	-0.896
695	-0.891
695	-0.899
696	-0.906
696	-0.898
697	-0.891
697	-0.886
698	-0.88
698	-0.873
698	-0.886
699	-0.884
699	-0.885
700	-0.904
700	-0.898
701	-0.883
701	-0.877
702	-0.878
702	-0.877
702	-0.878
703	-0.867
703	-0.855
704	-0.864
704	-0.866
705	-0.854
705	-0.852
705	-0.849
706	-0.841
706	-0.837
707	-0.85
707	-0.853
708	-0.85
708	-0.849
709	-0.85
709	-0.846
709	-0.842
710	-0.85
710	-0.851
711	-0.851
711	-0.852
712	-0.842
712	-0.839
713	-0.846
713	-0.847
713	-0.826
714	-0.829
714	-0.833
715	-0.825
715	-0.834
716	-0.849
716	-0.858
716	-0.859
717	-0.865
717	-0.857
718	-0.85
718	-0.851
719	-0.845
719	-0.837
720	-0.832
720	-0.828
720	-0.824
721	-0.815
721	-0.82
722	-0.818
722	-0.813
723	-0.831
723	-0.843
723	-0.854
724	-0.852
724	-0.856
725	-0.849
725	-0.853
726	-0.856
726	-0.846
727	-0.847
727	-0.855
727	-0.845
728	-0.832
728	-0.827
729	-0.831
729	-0.835
730	-0.841
730	-0.831
730	-0.836
731	-0.839
731	-0.839
732	-0.84
732	-0.836
733	-0.851
733	-0.858
734	-0.867
734	-0.859
734	-0.842
735	-0.833
735	-0.829
736	-0.827
736	-0.823
737	-0.823
737	-0.812
737	-0.805
738	-0.789
738	-0.777
739	-0.777
739	-0.779
740	-0.792
740	-0.791
741	-0.803
741	-0.813
741	-0.821
742	-0.828
742	-0.843
743	-0.851
743	-0.852
744	-0.855
744	-0.863
744	-0.856
745	-0.865
745	-0.855
746	-0.849
746	-0.842
747	-0.846
747	-0.836
748	-0.839
748	-0.845
748	-0.846
749	-0.837
749	-0.844
750	-0.835
750	-0.835
751	-0.834
751	-0.831
751	-0.843
752	-0.846
752	-0.849
753	-0.851
753	-0.844
754	-0.866
754	-0.865
754	-0.875
755	-0.875
755	-0.867
756	-0.871
756	-0.855
757	-0.847
757	-0.835
758	-0.835
758	-0.835
758	-0.829
759	-0.834
759	-0.834
760	-0.831
760	-0.834
761	-0.826
761	-0.831
761	-0.832
762	-0.839
762	-0.839
763	-0.839
763	-0.843
764	-0.84
764	-0.835
764	-0.841
765	-0.839
765	-0.847
766	-0.85
766	-0.852
767	-0.867
767	-0.863
768	-0.861
768	-0.855
768	-0.85
769	-0.853
769	-0.861
770	-0.872
770	-0.876
771	-0.873
771	-0.871
771	-0.876
772	-0.88
772	-0.9
773	-0.9
773	-0.903
774	-0.901
774	-0.883
775	-0.869
775	-0.869
775	-0.87
776	-0.88
776	-0.878
777	-0.879
777	-0.862
778	-0.871
778	-0.878
778	-0.878
779	-0.888
779	-0.905
780	-0.9
780	-0.912
781	-0.902
781	-0.891
781	-0.903
782	-0.923
782	-0.926
783	-0.926
783	-0.933
784	-0.935
784	-0.926
784	-0.947
785	-0.939
785	-0.951
786	-0.955
786	-0.949
787	-0.938
787	-0.945
788	-0.937
788	-0.93
788	-0.933
789	-0.933
789	-0.921
790	-0.92
790	-0.904
791	-0.91
791	-0.906
791	-0.9
792	-0.894
792	-0.9
793	-0.903
793	-0.891
794	-0.886
794	-0.881
794	-0.887
795	-0.907
795	-0.893
796	-0.898
796	-0.893
797	-0.885
797	-0.875
797	-0.868
798	-0.888
798	-0.892
799	-0.89
799	-0.878
800	-0.872
800	-0.881
801	-0.878
801	-0.883
801	-0.88
802	-0.879
802	-0.878
803	-0.873
803	-0.864
804	-0.871
804	-0.877
804	-0.862
805	-0.843
805	-0.835
806	-0.837
806	-0.833
807	-0.834
807	-0.834
807	-0.817
808	-0.813
808	-0.807
809	-0.803
809	-0.804
810	-0.806
810	-0.804
810	-0.8
811	-0.804
811	-0.795
812	-0.788
812	-0.79
813	-0.794
813	-0.795
813	-0.79
814	-0.79
814	-0.795
815	-0.784
815	-0.779
816	-0.776
816	-0.793
817	-0.805
817	-0.81
817	-0.818
818	-0.811
818	-0.806
819	-0.818
819	-0.816
820	-0.827
820	-0.828
820	-0.827
821	-0.823
821	-0.818
822	-0.816
822	-0.804
823	-0.815
823	-0.816
823	-0.809
824	-0.807
824	-0.818
825	-0.814
825	-0.81
826	-0.805
826	-0.802
826	-0.803
827	-0.803
827	-0.792
828	-0.79
828	-0.785
829	-0.778
829	-0.764
829	-0.763
830	-0.763
830	-0.748
831	-0.741
831	-0.73
832	-0.721
832	-0.718
832	-0.712
833	-0.71
833	-0.717
834	-0.712
834	-0.705
835	-0.697
835	-0.696
835	-0.693
836	-0.689
836	-0.684
837	-0.675
837	-0.666
838	-0.654
838	-0.636
839	-0.631
839	-0.619
839	-0.609
840	-0.607
840	-0.595
841	-0.584
841	-0.578
842	-0.568
842	-0.556
842	-0.553
843	-0.549
843	-0.543
844	-0.54
844	-0.528
845	-0.516
845	-0.507
845	-0.495
846	-0.482
846	-0.472
847	-0.461
847	-0.448
848	-0.432
848	-0.414
848	-0.401
849	-0.388
849	-0.375
850	-0.366
850	-0.355
851	-0.342
851	-0.326
851	-0.317
852	-0.301
852	-0.288
853	-0.279
853	-0.267
854	-0.257
854	-0.245
854	-0.23
855	-0.219
855	-0.21
856	-0.203
856	-0.195
857	-0.188
857	-0.179
857	-0.164
858	-0.154
858	-0.145
859	-0.133
859	-0.122
860	-0.111
860	-0.095
860	-0.084
861	-0.073
861	-0.062
862	-0.055
862	-0.047
863	-0.037
863	-0.027
863	-0.02
864	-0.015
864	-0.007
865	-0
865	0.006
866	0.012
866	0.017
866	0.023
867	0.029
867	0.034
868	0.039
868	0.044
869	0.049
869	0.052
869	0.055
870	0.057
870	0.059
871	0.062
871	0.063
872	0.064
872	0.065
872	0.066
873	0.066
873	0.065
874	0.065
874	0.064
875	0.064
875	0.063
875	0.063
876	0.063
876	0.062
877	0.062
877	0.061
878	0.06
878	0.06
878	0.06
879	0.059
879	0.059
880	0.058
880	0.057
881	0.056
881	0.054
881	0.053
882	0.052
882	0.05
883	0.049
883	0.048
884	0.047
884	0.046
884	0.046
885	0.045
885	0.045
886	0.045
886	0.045
887	0.045
887	0.044
887	0.044
888	0.044
888	0.043
889	0.042
889	0.041
890	0.04
890	0.039
890	0.038
891	0.038
891	0.038
892	0.038
892	0.039
893	0.039
893	0.039
893	0.039
894	0.04
894	0.041
895	0.041
895	0.041
895	0.041
896	0.042
896	0.042
897	0.042
897	0.042
898	0.042
898	0.043
898	0.043
899	0.043
899	0.043
900	0.044
900	0.043
901	0.043
901	0.043
901	0.042
902	0.042
902	0.042
903	0.041
903	0.041
904	0.04
904	0.039
904	0.039
905	0.04
905	0.04
906	0.041
906	0.042
907	0.042
907	0.043
907	0.043
908	0.044
908	0.045
909	0.046
909	0.046
910	0.046
910	0.047
910	0.047
911	0.048
911	0.048
912	0.049
912	0.049
913	0.05
913	0.05
913	0.051
914	0.051
914	0.051
915	0.051
915	0.051
916	0.051
916	0.05
916	0.05
917	0.049
917	0.048
918	0.047
918	0.046
918	0.045
919	0.045
919	0.044
920	0.044
920	0.044
921	0.045
921	0.045
921	0.045
922	0.045
922	0.045
923	0.045
923	0.045
924	0.045
924	0.044
924	0.043
925	0.042
925	0.041
926	0.04
926	0.038
927	0.037
927	0.036
927	0.036
928	0.035
928	0.035
929	0.035
929	0.035
930	0.036
930	0.036
930	0.037
931	0.038
931	0.039
932	0.041
932	0.042
933	0.043
933	0.043
933	0.043
934	0.043
934	0.042
935	0.042
935	0.041
935	0.04
936	0.039
936	0.038
937	0.037
937	0.036
938	0.035
938	0.034
938	0.034
939	0.033
939	0.032
940	0.031
940	0.031
941	0.03
941	0.029
941	0.029
942	0.028
942	0.028
943	0.028
943	0.028
944	0.028
944	0.027
944	0.027
945	0.027
945	0.027
946	0.026
946	0.025
946	0.025
947	0.025
947	0.024
948	0.025
948	0.025
949	0.026
949	0.027
949	0.029
950	0.03
950	0.031
951	0.033
951	0.034
952	0.035
952	0.036
952	0.036
953	0.037
953	0.038
954	0.037
954	0.037
955	0.037
955	0.037
955	0.037
956	0.036
956	0.036
957	0.035
957	0.034
957	0.033
958	0.032
958	0.032
959	0.031
959	0.031
960	0.031
960	0.031
960	0.031
961	0.031
961	0.032
962	0.032
962	0.032
963	0.033
963	0.033
963	0.034
964	0.034
964	0.035
965	0.035
965	0.036
966	0.036
966	0.037
966	0.038
967	0.038
967	0.038
968	0.038
968	0.038
968	0.038
969	0.038
969	0.038
970	0.037
970	0.037
971	0.036
971	0.036
971	0.036
972	0.037
972	0.036
973	0.036
973	0.036
974	0.036
974	0.036
974	0.036
975	0.036
975	0.036
976	0.035
976	0.035
976	0.034
977	0.034
977	0.033
978	0.032
978	0.031
979	0.031
979	0.03
979	0.029
980	0.029
980	0.028
981	0.028
981	0.028
982	0.028
982	0.028
982	0.028
983	0.028
983	0.027
984	0.027
984	0.027
984	0.027
985	0.027
985	0.027
986	0.026
986	0.025
987	0.025
987	0.024
987	0.024
988	0.023
988	0.023
989	0.022
989	0.022
990	0.021
990	0.02
990	0.02
991	0.019
991	0.018
992	0.018
992	0.017
992	0.016
993	0.015
993	0.014
994	0.013
994	0.011
995	0.01
995	0.009
995	0.008
996	0.007
996	0.005
997	0.004
997	0.004
997	0.003
998	0.003
998	0.004
999	0.004
999	0.004
1000	0.005
1000	0.005
1000	0.005
1001	0.006
1001	0.007
1002	0.008
1002	0.009
1003	0.009
1003	0.009
1003	0.01
1004	0.01
1004	0.01
1005	0.01
1005	0.009
1005	0.009
1006	0.008
1006	0.007
1007	0.006
1007	0.006
1008	0.005
1008	0.004
1008	0.003
1009	0.003
1009	0.003
1010	0.003
1010	0.004
1010	0.004
1011	0.005
1011	0.005
1012	0.006
1012	0.007
1013	0.008
1013	0.009
1013	0.01
1014	0.011
1014	0.011
1015	0.012
1015	0.012
1016	0.013
1016	0.013
1016	0.013
1017	0.013
1017	0.013
1018	0.013
1018	0.013
1018	0.013
1019	0.013
1019	0.012
1020	0.012
1020	0.011
1021	0.011
1021	0.011
1021	0.01
1022	0.01
1022	0.01
1023	0.01
1023	0.009
1023	0.009
1024	0.009
1024	0.009
1025	0.009
1025	0.009
1026	0.009
1026	0.009
1026	0.009
1027	0.009
1027	0.009
1028	0.009
1028	0.009
1028	0.01
1029	0.01
1029	0.01
1030	0.01
1030	0.009
1031	0.01
1031	0.01
1031	0.01
1032	0.01
1032	0.01
1033	0.009
1033	0.009
1033	0.009
1034	0.008
1034	0.007
1035	0.007
1035	0.006
1036	0.005
1036	0.004
1036	0.003
1037	0.003
1037	0.003
1038	0.003
1038	0.002
1039	0.003
1039	0.003
1039	0.003
1040	0.003
1040	0.004
1041	0.004
1041	0.004
1041	0.004
1042	0.003
1042	0.003
1043	0.002
1043	0.002
1044	0.001
1044	0
1044	0
1045	-0.001
1045	-0.001
1046	-0.002
1046	-0.002
1046	-0.002
1047	-0.002
1047	-0.002
1048	-0.002
1048	-0.002
1049	-0.003
1049	-0.003
1049	-0.004
1050	-0.005
1050	-0.006
1051	-0.007
1051	-0.008
1051	-0.008
1052	-0.009
1052	-0.01
1053	-0.011
1053	-0.012
1053	-0.012
1054	-0.012
1054	-0.012
1055	-0.012
1055	-0.012
1056	-0.012
1056	-0.012
1056	-0.012
1057	-0.012
1057	-0.012
1058	-0.012
1058	-0.012
1058	-0.012
1059	-0.012
1059	-0.012
1060	-0.013
1060	-0.013
1061	-0.013
1061	-0.013
1061	-0.013
1062	-0.014
1062	-0.014
1063	-0.014
1063	-0.015
1063	-0.015
1064	-0.015
1064	-0.015
1065	-0.015
1065	-0.015
1066	-0.015
1066	-0.016
1066	-0.016
1067	-0.017
1067	-0.018
1068	-0.018
1068	-0.019
1068	-0.02
1069	-0.021
1069	-0.022
1070	-0.023
1070	-0.023
1071	-0.024
1071	-0.024
1071	-0.024
1072	-0.025
1072	-0.024
1073	-0.024
1073	-0.024
1073	-0.025
1074	-0.025
1074	-0.025
1075	-0.025
1075	-0.026
1076	-0.027
1076	-0.027
1076	-0.028
1077	-0.028
1077	-0.029
1078	-0.03
1078	-0.031
1078	-0.031
1079	-0.032
1079	-0.032
1080	-0.034
1080	-0.034
1080	-0.036
1081	-0.037
1081	-0.038
1082	-0.038
1082	-0.04
1083	-0.041
1083	-0.042
1083	-0.044
1084	-0.045
1084	-0.046
1085	-0.047
1085	-0.048
1085	-0.048
1086	-0.05
1086	-0.051
1087	-0.052
1087	-0.052
1088	-0.054
1088	-0.054
1088	-0.054
1089	-0.056
1089	-0.057
1090	-0.057
1090	-0.058
1090	-0.059
1091	-0.059
1091	-0.059
1092	-0.059
1092	-0.059
1092	-0.061
1093	-0.062
1093	-0.061
1094	-0.061
1094	-0.062
1095	-0.063
1095	-0.065
1095	-0.065
1096	-0.067
1096	-0.069
1097	-0.07
1097	-0.072
1097	-0.073
1098	-0.075
1098	-0.078
1099	-0.08
1099	-0.081
1100	-0.083
1100	-0.086
1100	-0.09
1101	-0.093
1101	-0.096
1102	-0.098
1102	-0.101
1102	-0.103
1103	-0.105
1103	-0.108
1104	-0.112
1104	-0.114
1104	-0.116
1105	-0.117
1105	-0.12
1106	-0.124
1106	-0.126
1107	-0.132
1107	-0.136
1107	-0.142
1108	-0.144
1108	-0.145
1109	-0.149
1109	-0.153
1109	-0.158
1110	-0.16
1110	-0.165
1111	-0.177
1111	-0.173
