Data from 3.3A_17C_Absorbance__290__03157.txt Node

Date: Tue Jun 20 17:22:24 CEST 2023
User: Marek
Spectrometer: MAYP115816
Trigger mode: 0
Integration Time (sec): 2.200000E-1
Scans to average: 10
Electric dark correction enabled: true
Nonlinearity correction enabled: true
Boxcar width: 5
XAxis mode: Wavelengths
Number of Pixels in Spectrum: 2068
>>>>>Begin Spectral Data<<<<<
199	-0.807
199	-0.787
200	-0.757
200	-0.7
201	-0.671
201	-0.663
202	-0.645
202	-0.638
203	-0.636
203	-0.63
204	-0.609
204	-0.592
205	-0.57
205	-0.559
205	-0.569
206	-0.569
206	-0.565
207	-0.56
207	-0.567
208	-0.569
208	-0.573
209	-0.574
209	-0.581
210	-0.593
210	-0.6
211	-0.593
211	-0.599
212	-0.607
212	-0.615
213	-0.611
213	-0.607
213	-0.605
214	-0.614
214	-0.616
215	-0.612
215	-0.617
216	-0.627
216	-0.632
217	-0.627
217	-0.628
218	-0.635
218	-0.637
219	-0.643
219	-0.643
220	-0.645
220	-0.652
221	-0.653
221	-0.654
221	-0.645
222	-0.646
222	-0.644
223	-0.64
223	-0.644
224	-0.644
224	-0.641
225	-0.639
225	-0.64
226	-0.641
226	-0.64
227	-0.65
227	-0.658
228	-0.662
228	-0.671
229	-0.675
229	-0.674
229	-0.676
230	-0.671
230	-0.67
231	-0.667
231	-0.661
232	-0.662
232	-0.656
233	-0.656
233	-0.643
234	-0.644
234	-0.639
235	-0.643
235	-0.655
236	-0.661
236	-0.661
236	-0.662
237	-0.66
237	-0.663
238	-0.663
238	-0.665
239	-0.666
239	-0.675
240	-0.669
240	-0.666
241	-0.661
241	-0.664
242	-0.67
242	-0.678
243	-0.677
243	-0.681
243	-0.685
244	-0.681
244	-0.682
245	-0.684
245	-0.686
246	-0.699
246	-0.702
247	-0.708
247	-0.694
248	-0.695
248	-0.697
249	-0.704
249	-0.706
250	-0.705
250	-0.713
250	-0.711
251	-0.709
251	-0.703
252	-0.705
252	-0.717
253	-0.712
253	-0.724
254	-0.728
254	-0.73
255	-0.739
255	-0.739
256	-0.739
256	-0.751
257	-0.763
257	-0.76
258	-0.762
258	-0.769
258	-0.766
259	-0.758
259	-0.778
260	-0.777
260	-0.763
261	-0.776
261	-0.764
262	-0.768
262	-0.766
263	-0.756
263	-0.761
264	-0.77
264	-0.772
265	-0.761
265	-0.763
265	-0.773
266	-0.764
266	-0.764
267	-0.763
267	-0.779
268	-0.786
268	-0.781
269	-0.775
269	-0.789
270	-0.793
270	-0.792
271	-0.807
271	-0.818
272	-0.818
272	-0.821
272	-0.815
273	-0.825
273	-0.839
274	-0.831
274	-0.826
275	-0.824
275	-0.811
276	-0.815
276	-0.82
277	-0.822
277	-0.821
278	-0.824
278	-0.823
278	-0.812
279	-0.819
279	-0.833
280	-0.833
280	-0.843
281	-0.836
281	-0.829
282	-0.835
282	-0.828
283	-0.822
283	-0.838
284	-0.851
284	-0.861
285	-0.841
285	-0.849
285	-0.841
286	-0.845
286	-0.861
287	-0.858
287	-0.856
288	-0.856
288	-0.837
289	-0.835
289	-0.843
290	-0.851
290	-0.839
291	-0.843
291	-0.841
292	-0.821
292	-0.818
292	-0.823
293	-0.811
293	-0.807
294	-0.806
294	-0.793
295	-0.777
295	-0.791
296	-0.802
296	-0.797
297	-0.785
297	-0.789
298	-0.786
298	-0.803
298	-0.808
299	-0.789
299	-0.781
300	-0.775
300	-0.755
301	-0.736
301	-0.74
302	-0.752
302	-0.737
303	-0.73
303	-0.718
304	-0.7
304	-0.704
305	-0.698
305	-0.708
305	-0.724
306	-0.709
306	-0.705
307	-0.695
307	-0.706
308	-0.709
308	-0.704
309	-0.706
309	-0.702
310	-0.699
310	-0.694
311	-0.678
311	-0.698
311	-0.688
312	-0.687
312	-0.676
313	-0.668
313	-0.67
314	-0.674
314	-0.67
315	-0.668
315	-0.663
316	-0.658
316	-0.646
317	-0.638
317	-0.635
318	-0.626
318	-0.622
318	-0.61
319	-0.6
319	-0.591
320	-0.587
320	-0.582
321	-0.577
321	-0.577
322	-0.571
322	-0.563
323	-0.564
323	-0.555
324	-0.554
324	-0.544
324	-0.533
325	-0.519
325	-0.504
326	-0.494
326	-0.467
327	-0.451
327	-0.43
328	-0.398
328	-0.373
329	-0.345
329	-0.314
330	-0.287
330	-0.249
330	-0.211
331	-0.172
331	-0.138
332	-0.103
332	-0.066
333	-0.033
333	0.002
334	0.035
334	0.064
335	0.094
335	0.118
336	0.143
336	0.166
336	0.186
337	0.206
337	0.226
338	0.242
338	0.254
339	0.27
339	0.282
340	0.292
340	0.303
341	0.311
341	0.318
342	0.326
342	0.333
342	0.339
343	0.343
343	0.348
344	0.352
344	0.355
345	0.359
345	0.362
346	0.365
346	0.367
347	0.369
347	0.371
348	0.372
348	0.375
348	0.376
349	0.377
349	0.378
350	0.378
350	0.379
351	0.379
351	0.38
352	0.379
352	0.38
353	0.38
353	0.38
354	0.38
354	0.38
354	0.38
355	0.38
355	0.38
356	0.381
356	0.381
357	0.382
357	0.382
358	0.381
358	0.381
359	0.382
359	0.382
360	0.382
360	0.382
360	0.382
361	0.382
361	0.382
362	0.381
362	0.381
363	0.381
363	0.381
364	0.381
364	0.381
365	0.381
365	0.38
366	0.38
366	0.38
366	0.38
367	0.38
367	0.379
368	0.379
368	0.379
369	0.378
369	0.378
370	0.378
370	0.378
371	0.377
371	0.377
372	0.377
372	0.377
372	0.377
373	0.376
373	0.376
374	0.376
374	0.376
375	0.375
375	0.375
376	0.374
376	0.374
377	0.374
377	0.373
378	0.373
378	0.372
378	0.372
379	0.372
379	0.371
380	0.371
380	0.371
381	0.371
381	0.37
382	0.37
382	0.37
383	0.369
383	0.369
383	0.368
384	0.368
384	0.368
385	0.367
385	0.366
386	0.366
386	0.366
387	0.366
387	0.365
388	0.365
388	0.364
389	0.364
389	0.364
389	0.364
390	0.364
390	0.364
391	0.363
391	0.363
392	0.362
392	0.362
393	0.362
393	0.361
394	0.361
394	0.36
394	0.36
395	0.359
395	0.359
396	0.358
396	0.358
397	0.357
397	0.357
398	0.357
398	0.356
399	0.356
399	0.355
400	0.355
400	0.355
400	0.355
401	0.354
401	0.353
402	0.353
402	0.353
403	0.353
403	0.353
404	0.352
404	0.352
405	0.352
405	0.351
405	0.351
406	0.351
406	0.351
407	0.351
407	0.35
408	0.35
408	0.35
409	0.349
409	0.349
410	0.349
410	0.349
411	0.348
411	0.348
411	0.348
412	0.347
412	0.347
413	0.347
413	0.346
414	0.346
414	0.346
415	0.345
415	0.345
416	0.345
416	0.344
416	0.344
417	0.344
417	0.343
418	0.343
418	0.343
419	0.343
419	0.343
420	0.343
420	0.343
421	0.342
421	0.342
421	0.342
422	0.342
422	0.342
423	0.342
423	0.342
424	0.341
424	0.341
425	0.341
425	0.341
426	0.341
426	0.341
427	0.341
427	0.341
427	0.341
428	0.34
428	0.34
429	0.34
429	0.34
430	0.339
430	0.339
431	0.339
431	0.338
432	0.338
432	0.338
432	0.337
433	0.337
433	0.337
434	0.337
434	0.337
435	0.338
435	0.338
436	0.338
436	0.338
437	0.338
437	0.338
437	0.338
438	0.338
438	0.338
439	0.338
439	0.337
440	0.337
440	0.337
441	0.337
441	0.336
442	0.336
442	0.336
442	0.336
443	0.336
443	0.336
444	0.336
444	0.336
445	0.336
445	0.336
446	0.336
446	0.336
447	0.336
447	0.336
447	0.336
448	0.337
448	0.337
449	0.336
449	0.337
450	0.337
450	0.337
451	0.337
451	0.337
452	0.337
452	0.337
452	0.337
453	0.337
453	0.337
454	0.338
454	0.338
455	0.338
455	0.338
456	0.338
456	0.338
457	0.338
457	0.338
458	0.338
458	0.338
458	0.338
459	0.338
459	0.338
460	0.337
460	0.337
461	0.338
461	0.338
462	0.339
462	0.34
463	0.341
463	0.342
463	0.342
464	0.343
464	0.344
465	0.344
465	0.345
466	0.346
466	0.346
467	0.346
467	0.346
467	0.346
468	0.346
468	0.346
469	0.347
469	0.348
470	0.349
470	0.349
471	0.35
471	0.35
472	0.351
472	0.351
472	0.352
473	0.354
473	0.354
474	0.355
474	0.356
475	0.357
475	0.358
476	0.359
476	0.36
477	0.361
477	0.362
477	0.363
478	0.364
478	0.365
479	0.366
479	0.367
480	0.368
480	0.369
481	0.37
481	0.371
482	0.372
482	0.374
482	0.375
483	0.377
483	0.379
484	0.381
484	0.382
485	0.384
485	0.385
486	0.387
486	0.389
487	0.39
487	0.392
487	0.393
488	0.395
488	0.396
489	0.398
489	0.401
490	0.402
490	0.404
491	0.406
491	0.409
492	0.41
492	0.412
492	0.414
493	0.416
493	0.418
494	0.421
494	0.424
495	0.426
495	0.428
496	0.431
496	0.433
496	0.436
497	0.439
497	0.441
498	0.444
498	0.447
499	0.449
499	0.453
500	0.456
500	0.46
501	0.463
501	0.466
501	0.468
502	0.471
502	0.474
503	0.477
503	0.48
504	0.483
504	0.486
505	0.489
505	0.492
506	0.496
506	0.499
506	0.503
507	0.507
507	0.51
508	0.514
508	0.518
509	0.521
509	0.525
510	0.528
510	0.531
511	0.534
511	0.537
511	0.539
512	0.542
512	0.545
513	0.547
513	0.55
514	0.553
514	0.556
515	0.559
515	0.561
515	0.564
516	0.566
516	0.569
517	0.572
517	0.573
518	0.575
518	0.577
519	0.579
519	0.58
520	0.582
520	0.584
520	0.586
521	0.588
521	0.59
522	0.591
522	0.594
523	0.595
523	0.597
524	0.598
524	0.6
524	0.601
525	0.603
525	0.604
526	0.605
526	0.605
527	0.606
527	0.606
528	0.606
528	0.607
529	0.607
529	0.607
529	0.606
530	0.606
530	0.606
531	0.605
531	0.605
532	0.604
532	0.603
533	0.602
533	0.601
533	0.6
534	0.598
534	0.597
535	0.596
535	0.594
536	0.593
536	0.592
537	0.59
537	0.588
538	0.586
538	0.584
538	0.582
539	0.58
539	0.578
540	0.575
540	0.572
541	0.57
541	0.567
542	0.564
542	0.561
542	0.558
543	0.555
543	0.551
544	0.548
544	0.544
545	0.541
545	0.538
546	0.535
546	0.531
547	0.527
547	0.524
547	0.52
548	0.518
548	0.514
549	0.511
549	0.508
550	0.504
550	0.5
551	0.496
551	0.493
551	0.489
552	0.485
552	0.482
553	0.478
553	0.475
554	0.471
554	0.467
555	0.463
555	0.459
556	0.455
556	0.451
556	0.448
557	0.444
557	0.441
558	0.437
558	0.434
559	0.43
559	0.426
560	0.422
560	0.419
560	0.416
561	0.413
561	0.41
562	0.407
562	0.403
563	0.4
563	0.397
564	0.394
564	0.391
564	0.388
565	0.385
565	0.383
566	0.379
566	0.376
567	0.374
567	0.371
568	0.368
568	0.365
568	0.362
569	0.359
569	0.356
570	0.352
570	0.348
571	0.346
571	0.343
572	0.339
572	0.336
573	0.333
573	0.329
573	0.326
574	0.323
574	0.321
575	0.318
575	0.317
576	0.315
576	0.311
577	0.308
577	0.306
577	0.305
578	0.303
578	0.302
579	0.301
579	0.299
580	0.295
580	0.291
581	0.287
581	0.285
581	0.283
582	0.282
582	0.28
583	0.278
583	0.276
584	0.272
584	0.268
585	0.267
585	0.266
585	0.264
586	0.263
586	0.261
587	0.258
587	0.255
588	0.253
588	0.251
589	0.249
589	0.248
590	0.246
590	0.244
590	0.243
591	0.242
591	0.239
592	0.237
592	0.235
593	0.233
593	0.232
594	0.229
594	0.227
594	0.226
595	0.224
595	0.221
596	0.219
596	0.219
597	0.219
597	0.217
598	0.216
598	0.214
598	0.213
599	0.212
599	0.21
600	0.209
600	0.207
601	0.207
601	0.205
602	0.203
602	0.202
602	0.2
603	0.199
603	0.199
604	0.197
604	0.197
605	0.196
605	0.196
606	0.194
606	0.192
606	0.19
607	0.189
607	0.188
608	0.187
608	0.184
609	0.183
609	0.182
610	0.18
610	0.178
610	0.178
611	0.177
611	0.176
612	0.176
612	0.175
613	0.174
613	0.173
614	0.171
614	0.169
614	0.168
615	0.166
615	0.164
616	0.163
616	0.162
617	0.16
617	0.159
618	0.157
618	0.156
618	0.155
619	0.154
619	0.153
620	0.153
620	0.152
621	0.15
621	0.149
622	0.148
622	0.146
622	0.144
623	0.143
623	0.143
624	0.142
624	0.14
625	0.139
625	0.138
626	0.137
626	0.136
626	0.135
627	0.134
627	0.134
628	0.133
628	0.132
629	0.13
629	0.129
630	0.127
630	0.125
630	0.124
631	0.122
631	0.121
632	0.118
632	0.117
633	0.115
633	0.113
634	0.111
634	0.11
634	0.108
635	0.106
635	0.104
636	0.102
636	0.1
637	0.098
637	0.095
638	0.093
638	0.09
638	0.087
639	0.083
639	0.079
640	0.076
640	0.072
641	0.068
641	0.065
642	0.061
642	0.057
642	0.053
643	0.048
643	0.044
644	0.039
644	0.034
645	0.03
645	0.026
646	0.021
646	0.015
646	0.01
647	0.004
647	-0.002
648	-0.008
648	-0.014
649	-0.02
649	-0.026
650	-0.032
650	-0.038
650	-0.045
651	-0.053
651	-0.063
652	-0.075
652	-0.087
653	-0.098
653	-0.107
653	-0.101
654	-0.085
654	-0.081
655	-0.085
655	-0.089
656	-0.093
656	-0.098
657	-0.102
657	-0.105
657	-0.11
658	-0.116
658	-0.143
659	-0.219
659	-0.295
660	-0.329
660	-0.35
661	-0.373
661	-0.398
661	-0.424
662	-0.448
662	-0.473
663	-0.502
663	-0.532
664	-0.561
664	-0.594
665	-0.632
665	-0.671
665	-0.708
666	-0.749
666	-0.796
667	-0.842
667	-0.896
668	-0.947
668	-1.009
669	-1.072
669	-1.139
669	-1.214
670	-1.294
670	-1.414
671	-1.642
671	-2.066
672	-2.312
672	-2.476
672	-2.596
673	-2.693
673	-2.771
674	-2.797
674	-2.807
675	-2.822
675	-2.825
676	-2.819
676	-2.755
676	-2.672
677	-2.567
677	-2.43
678	-2.203
678	-1.698
679	-1.464
679	-1.353
680	-1.272
680	-1.212
680	-1.16
681	-1.128
681	-1.087
682	-1.056
682	-1.023
683	-0.989
683	-0.975
684	-0.955
684	-0.942
684	-0.927
685	-0.914
685	-0.91
686	-0.891
686	-0.883
687	-0.878
687	-0.871
687	-0.875
688	-0.865
688	-0.861
689	-0.868
689	-0.867
690	-0.855
690	-0.847
691	-0.848
691	-0.852
691	-0.855
692	-0.857
692	-0.855
693	-0.862
693	-0.875
694	-0.854
694	-0.857
695	-0.862
695	-0.857
695	-0.866
696	-0.875
696	-0.868
697	-0.862
697	-0.86
698	-0.856
698	-0.849
698	-0.867
699	-0.865
699	-0.867
700	-0.887
700	-0.882
701	-0.87
701	-0.866
702	-0.867
702	-0.866
702	-0.866
703	-0.856
703	-0.842
704	-0.851
704	-0.853
705	-0.841
705	-0.84
705	-0.835
706	-0.829
706	-0.826
707	-0.836
707	-0.84
708	-0.838
708	-0.837
709	-0.838
709	-0.835
709	-0.832
710	-0.84
710	-0.842
711	-0.842
711	-0.844
712	-0.839
712	-0.834
713	-0.84
713	-0.841
713	-0.821
714	-0.824
714	-0.827
715	-0.819
715	-0.828
716	-0.843
716	-0.851
716	-0.85
717	-0.858
717	-0.851
718	-0.845
718	-0.847
719	-0.843
719	-0.838
720	-0.834
720	-0.83
720	-0.827
721	-0.819
721	-0.823
722	-0.821
722	-0.817
723	-0.835
723	-0.847
723	-0.855
724	-0.852
724	-0.855
725	-0.849
725	-0.85
726	-0.852
726	-0.844
727	-0.845
727	-0.851
727	-0.841
728	-0.83
728	-0.826
729	-0.83
729	-0.834
730	-0.839
730	-0.831
730	-0.838
731	-0.842
731	-0.845
732	-0.848
732	-0.843
733	-0.858
733	-0.865
734	-0.873
734	-0.864
734	-0.846
735	-0.837
735	-0.832
736	-0.83
736	-0.823
737	-0.823
737	-0.813
737	-0.804
738	-0.791
738	-0.777
739	-0.78
739	-0.781
740	-0.795
740	-0.795
741	-0.807
741	-0.815
741	-0.823
742	-0.83
742	-0.847
743	-0.854
743	-0.859
744	-0.862
744	-0.87
744	-0.864
745	-0.871
745	-0.859
746	-0.855
746	-0.848
747	-0.849
747	-0.839
748	-0.839
748	-0.842
748	-0.845
749	-0.838
749	-0.846
750	-0.837
750	-0.837
751	-0.839
751	-0.835
751	-0.848
752	-0.852
752	-0.856
753	-0.858
753	-0.848
754	-0.866
754	-0.865
754	-0.874
755	-0.874
755	-0.865
756	-0.868
756	-0.854
757	-0.846
757	-0.833
758	-0.834
758	-0.835
758	-0.831
759	-0.836
759	-0.835
760	-0.834
760	-0.835
761	-0.828
761	-0.832
761	-0.832
762	-0.839
762	-0.84
763	-0.841
763	-0.844
764	-0.843
764	-0.84
764	-0.845
765	-0.844
765	-0.852
766	-0.856
766	-0.86
767	-0.874
767	-0.868
768	-0.865
768	-0.857
768	-0.851
769	-0.854
769	-0.864
770	-0.874
770	-0.877
771	-0.871
771	-0.87
771	-0.878
772	-0.883
772	-0.904
773	-0.907
773	-0.907
774	-0.906
774	-0.887
775	-0.875
775	-0.875
775	-0.879
776	-0.889
776	-0.884
777	-0.885
777	-0.868
778	-0.876
778	-0.883
778	-0.884
779	-0.893
779	-0.907
780	-0.902
780	-0.911
781	-0.899
781	-0.888
781	-0.9
782	-0.919
782	-0.921
783	-0.921
783	-0.93
784	-0.933
784	-0.928
784	-0.948
785	-0.941
785	-0.956
786	-0.96
786	-0.953
787	-0.943
787	-0.952
788	-0.943
788	-0.936
788	-0.938
789	-0.939
789	-0.931
790	-0.93
790	-0.912
791	-0.92
791	-0.915
791	-0.909
792	-0.902
792	-0.907
793	-0.909
793	-0.896
794	-0.886
794	-0.879
794	-0.886
795	-0.907
795	-0.895
796	-0.902
796	-0.898
797	-0.892
797	-0.882
797	-0.877
798	-0.898
798	-0.903
799	-0.901
799	-0.886
800	-0.88
800	-0.887
801	-0.884
801	-0.889
801	-0.885
802	-0.884
802	-0.883
803	-0.878
803	-0.871
804	-0.877
804	-0.886
804	-0.869
805	-0.849
805	-0.842
806	-0.843
806	-0.839
807	-0.84
807	-0.839
807	-0.822
808	-0.819
808	-0.81
809	-0.805
809	-0.807
810	-0.81
810	-0.805
810	-0.8
811	-0.804
811	-0.796
812	-0.788
812	-0.79
813	-0.795
813	-0.797
813	-0.793
814	-0.794
814	-0.799
815	-0.79
815	-0.787
816	-0.782
816	-0.8
817	-0.813
817	-0.817
817	-0.826
818	-0.819
818	-0.816
819	-0.825
819	-0.824
820	-0.837
820	-0.836
820	-0.835
821	-0.829
821	-0.825
822	-0.823
822	-0.812
823	-0.824
823	-0.825
823	-0.82
824	-0.819
824	-0.828
825	-0.827
825	-0.824
826	-0.82
826	-0.816
826	-0.816
827	-0.815
827	-0.803
828	-0.802
828	-0.797
829	-0.79
829	-0.775
829	-0.772
830	-0.771
830	-0.758
831	-0.752
831	-0.74
832	-0.731
832	-0.727
832	-0.719
833	-0.718
833	-0.723
834	-0.718
834	-0.712
835	-0.704
835	-0.702
835	-0.696
836	-0.694
836	-0.69
837	-0.681
837	-0.673
838	-0.661
838	-0.644
839	-0.637
839	-0.626
839	-0.616
840	-0.615
840	-0.606
841	-0.596
841	-0.589
842	-0.581
842	-0.569
842	-0.565
843	-0.562
843	-0.557
844	-0.554
844	-0.544
845	-0.53
845	-0.52
845	-0.511
846	-0.499
846	-0.487
847	-0.477
847	-0.464
848	-0.447
848	-0.431
848	-0.418
849	-0.406
849	-0.394
850	-0.383
850	-0.372
851	-0.358
851	-0.341
851	-0.331
852	-0.317
852	-0.305
853	-0.298
853	-0.287
854	-0.275
854	-0.265
854	-0.252
855	-0.239
855	-0.232
856	-0.224
856	-0.217
857	-0.21
857	-0.201
857	-0.188
858	-0.177
858	-0.17
859	-0.159
859	-0.149
860	-0.14
860	-0.126
860	-0.117
861	-0.106
861	-0.096
862	-0.088
862	-0.081
863	-0.072
863	-0.062
863	-0.055
864	-0.049
864	-0.042
865	-0.035
865	-0.029
866	-0.023
866	-0.017
866	-0.012
867	-0.006
867	-0.001
868	0.003
868	0.008
869	0.012
869	0.015
869	0.018
870	0.02
870	0.022
871	0.024
871	0.026
872	0.027
872	0.027
872	0.028
873	0.028
873	0.028
874	0.028
874	0.027
875	0.027
875	0.027
875	0.027
876	0.026
876	0.026
877	0.026
877	0.025
878	0.025
878	0.024
878	0.024
879	0.024
879	0.024
880	0.023
880	0.022
881	0.021
881	0.019
881	0.018
882	0.017
882	0.015
883	0.014
883	0.013
884	0.012
884	0.011
884	0.011
885	0.011
885	0.011
886	0.011
886	0.011
887	0.01
887	0.01
887	0.01
888	0.009
888	0.008
889	0.007
889	0.006
890	0.005
890	0.005
890	0.004
891	0.004
891	0.004
892	0.005
892	0.005
893	0.005
893	0.006
893	0.006
894	0.007
894	0.008
895	0.008
895	0.008
895	0.008
896	0.008
896	0.008
897	0.008
897	0.008
898	0.008
898	0.008
898	0.008
899	0.009
899	0.009
900	0.009
900	0.009
901	0.009
901	0.008
901	0.008
902	0.008
902	0.008
903	0.007
903	0.007
904	0.006
904	0.006
904	0.006
905	0.006
905	0.006
906	0.007
906	0.007
907	0.007
907	0.008
907	0.008
908	0.009
908	0.01
909	0.01
909	0.011
910	0.011
910	0.012
910	0.012
911	0.013
911	0.014
912	0.015
912	0.015
913	0.016
913	0.016
913	0.017
914	0.018
914	0.018
915	0.018
915	0.018
916	0.018
916	0.017
916	0.017
917	0.017
917	0.016
918	0.015
918	0.015
918	0.014
919	0.013
919	0.013
920	0.013
920	0.013
921	0.014
921	0.014
921	0.014
922	0.015
922	0.015
923	0.015
923	0.015
924	0.015
924	0.014
924	0.013
925	0.012
925	0.011
926	0.009
926	0.008
927	0.007
927	0.006
927	0.005
928	0.004
928	0.004
929	0.004
929	0.005
930	0.005
930	0.006
930	0.007
931	0.008
931	0.009
932	0.011
932	0.012
933	0.012
933	0.013
933	0.013
934	0.013
934	0.012
935	0.012
935	0.011
935	0.01
936	0.009
936	0.007
937	0.006
937	0.005
938	0.005
938	0.004
938	0.003
939	0.002
939	0.002
940	0.001
940	0.001
941	0
941	-0
941	-0
942	-0.001
942	-0.001
943	-0.001
943	-0.001
944	-0.002
944	-0.003
944	-0.003
945	-0.003
945	-0.003
946	-0.003
946	-0.004
946	-0.005
947	-0.005
947	-0.005
948	-0.004
948	-0.004
949	-0.003
949	-0.002
949	0
950	0.001
950	0.003
951	0.005
951	0.005
952	0.006
952	0.007
952	0.008
953	0.009
953	0.01
954	0.009
954	0.009
955	0.009
955	0.009
955	0.009
956	0.009
956	0.008
957	0.007
957	0.006
957	0.005
958	0.004
958	0.004
959	0.003
959	0.002
960	0.002
960	0.001
960	0.002
961	0.002
961	0.002
962	0.002
962	0.003
963	0.003
963	0.004
963	0.004
964	0.005
964	0.006
965	0.007
965	0.007
966	0.008
966	0.008
966	0.009
967	0.01
967	0.01
968	0.01
968	0.01
968	0.01
969	0.01
969	0.009
970	0.009
970	0.008
971	0.008
971	0.008
971	0.008
972	0.008
972	0.008
973	0.008
973	0.008
974	0.008
974	0.008
974	0.008
975	0.008
975	0.008
976	0.008
976	0.008
976	0.007
977	0.007
977	0.006
978	0.005
978	0.004
979	0.004
979	0.004
979	0.003
980	0.003
980	0.002
981	0.002
981	0.002
982	0.002
982	0.002
982	0.002
983	0.002
983	0.002
984	0.002
984	0.001
984	0.001
985	0.001
985	0.001
986	-0
986	-0.001
987	-0.002
987	-0.002
987	-0.003
988	-0.003
988	-0.004
989	-0.005
989	-0.005
990	-0.006
990	-0.007
990	-0.007
991	-0.008
991	-0.009
992	-0.009
992	-0.01
992	-0.011
993	-0.012
993	-0.013
994	-0.014
994	-0.016
995	-0.017
995	-0.018
995	-0.019
996	-0.02
996	-0.021
997	-0.023
997	-0.023
997	-0.024
998	-0.024
998	-0.023
999	-0.023
999	-0.023
1000	-0.023
1000	-0.022
1000	-0.021
1001	-0.021
1001	-0.02
1002	-0.019
1002	-0.018
1003	-0.017
1003	-0.017
1003	-0.017
1004	-0.016
1004	-0.016
1005	-0.016
1005	-0.016
1005	-0.017
1006	-0.017
1006	-0.018
1007	-0.019
1007	-0.02
1008	-0.02
1008	-0.021
1008	-0.021
1009	-0.022
1009	-0.022
1010	-0.021
1010	-0.021
1010	-0.021
1011	-0.02
1011	-0.019
1012	-0.018
1012	-0.017
1013	-0.016
1013	-0.015
1013	-0.014
1014	-0.014
1014	-0.013
1015	-0.013
1015	-0.012
1016	-0.012
1016	-0.012
1016	-0.012
1017	-0.013
1017	-0.013
1018	-0.013
1018	-0.013
1018	-0.013
1019	-0.013
1019	-0.013
1020	-0.014
1020	-0.014
1021	-0.014
1021	-0.015
1021	-0.015
1022	-0.015
1022	-0.015
1023	-0.015
1023	-0.015
1023	-0.015
1024	-0.015
1024	-0.015
1025	-0.015
1025	-0.015
1026	-0.015
1026	-0.015
1026	-0.015
1027	-0.015
1027	-0.015
1028	-0.015
1028	-0.014
1028	-0.014
1029	-0.014
1029	-0.014
1030	-0.014
1030	-0.014
1031	-0.014
1031	-0.014
1031	-0.013
1032	-0.014
1032	-0.014
1033	-0.014
1033	-0.014
1033	-0.015
1034	-0.015
1034	-0.016
1035	-0.016
1035	-0.017
1036	-0.018
1036	-0.019
1036	-0.02
1037	-0.02
1037	-0.02
1038	-0.021
1038	-0.021
1039	-0.021
1039	-0.021
1039	-0.02
1040	-0.02
1040	-0.02
1041	-0.02
1041	-0.02
1041	-0.02
1042	-0.021
1042	-0.021
1043	-0.021
1043	-0.022
1044	-0.022
1044	-0.023
1044	-0.023
1045	-0.024
1045	-0.024
1046	-0.025
1046	-0.025
1046	-0.025
1047	-0.025
1047	-0.025
1048	-0.025
1048	-0.025
1049	-0.025
1049	-0.025
1049	-0.026
1050	-0.026
1050	-0.027
1051	-0.028
1051	-0.029
1051	-0.029
1052	-0.031
1052	-0.032
1053	-0.032
1053	-0.032
1053	-0.033
1054	-0.034
1054	-0.034
1055	-0.033
1055	-0.033
1056	-0.033
1056	-0.033
1056	-0.033
1057	-0.032
1057	-0.033
1058	-0.033
1058	-0.033
1058	-0.033
1059	-0.033
1059	-0.033
1060	-0.034
1060	-0.034
1061	-0.034
1061	-0.034
1061	-0.034
1062	-0.034
1062	-0.034
1063	-0.035
1063	-0.035
1063	-0.035
1064	-0.035
1064	-0.035
1065	-0.035
1065	-0.036
1066	-0.036
1066	-0.036
1066	-0.036
1067	-0.037
1067	-0.038
1068	-0.038
1068	-0.039
1068	-0.04
1069	-0.041
1069	-0.042
1070	-0.043
1070	-0.043
1071	-0.044
1071	-0.044
1071	-0.045
1072	-0.045
1072	-0.045
1073	-0.045
1073	-0.045
1073	-0.046
1074	-0.046
1074	-0.046
1075	-0.046
1075	-0.047
1076	-0.048
1076	-0.047
1076	-0.048
1077	-0.049
1077	-0.05
1078	-0.05
1078	-0.051
1078	-0.051
1079	-0.052
1079	-0.052
1080	-0.053
1080	-0.054
1080	-0.055
1081	-0.056
1081	-0.057
1082	-0.057
1082	-0.059
1083	-0.06
1083	-0.061
1083	-0.063
1084	-0.064
1084	-0.065
1085	-0.066
1085	-0.067
1085	-0.068
1086	-0.069
1086	-0.07
1087	-0.071
1087	-0.072
1088	-0.073
1088	-0.074
1088	-0.074
1089	-0.075
1089	-0.076
1090	-0.077
1090	-0.078
1090	-0.079
1091	-0.081
1091	-0.08
1092	-0.081
1092	-0.08
1092	-0.081
1093	-0.082
1093	-0.082
1094	-0.082
1094	-0.083
1095	-0.084
1095	-0.084
1095	-0.084
1096	-0.086
1096	-0.089
1097	-0.09
1097	-0.091
1097	-0.093
1098	-0.095
1098	-0.098
1099	-0.1
1099	-0.101
1100	-0.104
1100	-0.107
1100	-0.11
1101	-0.113
1101	-0.115
1102	-0.117
1102	-0.12
1102	-0.121
1103	-0.124
1103	-0.127
1104	-0.13
1104	-0.133
1104	-0.135
1105	-0.136
1105	-0.139
1106	-0.145
1106	-0.147
1107	-0.152
1107	-0.158
1107	-0.162
1108	-0.164
1108	-0.165
1109	-0.168
1109	-0.171
1109	-0.176
1110	-0.178
1110	-0.179
1111	-0.188
1111	-0.184
