Data from 3.3A_17C_Absorbance__279__03146.txt Node

Date: Tue Jun 20 17:22:00 CEST 2023
User: Marek
Spectrometer: MAYP115816
Trigger mode: 0
Integration Time (sec): 2.200000E-1
Scans to average: 10
Electric dark correction enabled: true
Nonlinearity correction enabled: true
Boxcar width: 5
XAxis mode: Wavelengths
Number of Pixels in Spectrum: 2068
>>>>>Begin Spectral Data<<<<<
199	-0.806
199	-0.787
200	-0.754
200	-0.699
201	-0.673
201	-0.666
202	-0.65
202	-0.643
203	-0.641
203	-0.633
204	-0.613
204	-0.597
205	-0.577
205	-0.567
205	-0.577
206	-0.578
206	-0.572
207	-0.565
207	-0.571
208	-0.573
208	-0.577
209	-0.577
209	-0.585
210	-0.597
210	-0.605
211	-0.598
211	-0.603
212	-0.611
212	-0.617
213	-0.614
213	-0.608
213	-0.607
214	-0.615
214	-0.616
215	-0.612
215	-0.615
216	-0.623
216	-0.628
217	-0.626
217	-0.629
218	-0.637
218	-0.638
219	-0.644
219	-0.645
220	-0.649
220	-0.656
221	-0.656
221	-0.656
221	-0.646
222	-0.646
222	-0.644
223	-0.641
223	-0.644
224	-0.645
224	-0.644
225	-0.641
225	-0.643
226	-0.644
226	-0.643
227	-0.652
227	-0.664
228	-0.666
228	-0.673
229	-0.678
229	-0.674
229	-0.674
230	-0.671
230	-0.668
231	-0.665
231	-0.661
232	-0.663
232	-0.655
233	-0.656
233	-0.644
234	-0.643
234	-0.639
235	-0.642
235	-0.653
236	-0.661
236	-0.662
236	-0.661
237	-0.659
237	-0.661
238	-0.661
238	-0.664
239	-0.666
239	-0.677
240	-0.671
240	-0.666
241	-0.66
241	-0.663
242	-0.668
242	-0.675
243	-0.675
243	-0.678
243	-0.683
244	-0.68
244	-0.68
245	-0.682
245	-0.687
246	-0.698
246	-0.701
247	-0.708
247	-0.696
248	-0.695
248	-0.699
249	-0.703
249	-0.706
250	-0.705
250	-0.714
250	-0.712
251	-0.711
251	-0.708
252	-0.71
252	-0.722
253	-0.718
253	-0.73
254	-0.734
254	-0.733
255	-0.744
255	-0.743
256	-0.746
256	-0.757
257	-0.767
257	-0.763
258	-0.764
258	-0.772
258	-0.768
259	-0.761
259	-0.78
260	-0.779
260	-0.766
261	-0.776
261	-0.763
262	-0.767
262	-0.766
263	-0.758
263	-0.762
264	-0.772
264	-0.775
265	-0.765
265	-0.767
265	-0.779
266	-0.771
266	-0.772
267	-0.772
267	-0.788
268	-0.796
268	-0.788
269	-0.779
269	-0.793
270	-0.797
270	-0.798
271	-0.81
271	-0.819
272	-0.82
272	-0.821
272	-0.815
273	-0.825
273	-0.842
274	-0.834
274	-0.829
275	-0.825
275	-0.812
276	-0.816
276	-0.823
277	-0.825
277	-0.824
278	-0.827
278	-0.826
278	-0.814
279	-0.823
279	-0.837
280	-0.839
280	-0.849
281	-0.843
281	-0.836
282	-0.84
282	-0.834
283	-0.827
283	-0.841
284	-0.855
284	-0.865
285	-0.845
285	-0.852
285	-0.845
286	-0.85
286	-0.864
287	-0.861
287	-0.861
288	-0.861
288	-0.843
289	-0.842
289	-0.85
290	-0.857
290	-0.846
291	-0.85
291	-0.846
292	-0.828
292	-0.826
292	-0.829
293	-0.818
293	-0.814
294	-0.813
294	-0.799
295	-0.782
295	-0.794
296	-0.805
296	-0.8
297	-0.789
297	-0.793
298	-0.79
298	-0.808
298	-0.813
299	-0.796
299	-0.787
300	-0.783
300	-0.764
301	-0.745
301	-0.748
302	-0.756
302	-0.74
303	-0.733
303	-0.72
304	-0.703
304	-0.706
305	-0.699
305	-0.708
305	-0.723
306	-0.709
306	-0.708
307	-0.701
307	-0.713
308	-0.714
308	-0.71
309	-0.712
309	-0.707
310	-0.704
310	-0.699
311	-0.684
311	-0.7
311	-0.688
312	-0.685
312	-0.673
313	-0.664
313	-0.665
314	-0.672
314	-0.67
315	-0.668
315	-0.66
316	-0.656
316	-0.648
317	-0.639
317	-0.635
318	-0.628
318	-0.625
318	-0.613
319	-0.601
319	-0.593
320	-0.589
320	-0.587
321	-0.582
321	-0.583
322	-0.577
322	-0.569
323	-0.57
323	-0.561
324	-0.56
324	-0.548
324	-0.538
325	-0.522
325	-0.505
326	-0.496
326	-0.469
327	-0.453
327	-0.43
328	-0.398
328	-0.372
329	-0.344
329	-0.314
330	-0.287
330	-0.25
330	-0.216
331	-0.176
331	-0.14
332	-0.105
332	-0.069
333	-0.036
333	-0
334	0.032
334	0.061
335	0.092
335	0.116
336	0.144
336	0.166
336	0.186
337	0.206
337	0.225
338	0.241
338	0.254
339	0.27
339	0.282
340	0.292
340	0.302
341	0.31
341	0.317
342	0.325
342	0.333
342	0.339
343	0.343
343	0.349
344	0.353
344	0.356
345	0.36
345	0.363
346	0.366
346	0.368
347	0.37
347	0.372
348	0.374
348	0.376
348	0.377
349	0.378
349	0.379
350	0.38
350	0.381
351	0.382
351	0.382
352	0.382
352	0.382
353	0.383
353	0.383
354	0.383
354	0.384
354	0.384
355	0.383
355	0.383
356	0.384
356	0.384
357	0.384
357	0.385
358	0.384
358	0.385
359	0.384
359	0.384
360	0.384
360	0.384
360	0.384
361	0.384
361	0.384
362	0.384
362	0.383
363	0.384
363	0.383
364	0.384
364	0.383
365	0.383
365	0.383
366	0.383
366	0.382
366	0.382
367	0.383
367	0.382
368	0.382
368	0.381
369	0.381
369	0.381
370	0.38
370	0.38
371	0.38
371	0.379
372	0.379
372	0.379
372	0.379
373	0.378
373	0.378
374	0.378
374	0.377
375	0.377
375	0.377
376	0.376
376	0.376
377	0.376
377	0.376
378	0.375
378	0.375
378	0.374
379	0.374
379	0.374
380	0.374
380	0.373
381	0.373
381	0.372
382	0.372
382	0.371
383	0.371
383	0.371
383	0.37
384	0.37
384	0.37
385	0.369
385	0.369
386	0.369
386	0.368
387	0.368
387	0.368
388	0.367
388	0.367
389	0.367
389	0.367
389	0.366
390	0.366
390	0.366
391	0.366
391	0.365
392	0.365
392	0.365
393	0.364
393	0.364
394	0.364
394	0.363
394	0.363
395	0.362
395	0.361
396	0.361
396	0.36
397	0.36
397	0.359
398	0.359
398	0.359
399	0.358
399	0.358
400	0.357
400	0.357
400	0.357
401	0.356
401	0.356
402	0.355
402	0.355
403	0.355
403	0.355
404	0.354
404	0.354
405	0.354
405	0.353
405	0.353
406	0.353
406	0.353
407	0.353
407	0.352
408	0.352
408	0.351
409	0.351
409	0.351
410	0.351
410	0.351
411	0.351
411	0.35
411	0.35
412	0.35
412	0.349
413	0.349
413	0.349
414	0.348
414	0.348
415	0.347
415	0.347
416	0.346
416	0.346
416	0.346
417	0.345
417	0.345
418	0.345
418	0.345
419	0.345
419	0.345
420	0.345
420	0.344
421	0.344
421	0.344
421	0.344
422	0.344
422	0.344
423	0.344
423	0.344
424	0.343
424	0.343
425	0.343
425	0.343
426	0.343
426	0.343
427	0.343
427	0.342
427	0.342
428	0.342
428	0.342
429	0.342
429	0.342
430	0.341
430	0.341
431	0.341
431	0.34
432	0.34
432	0.34
432	0.339
433	0.339
433	0.339
434	0.339
434	0.339
435	0.339
435	0.339
436	0.339
436	0.339
437	0.339
437	0.339
437	0.339
438	0.339
438	0.339
439	0.339
439	0.339
440	0.339
440	0.339
441	0.339
441	0.338
442	0.338
442	0.338
442	0.338
443	0.338
443	0.338
444	0.338
444	0.338
445	0.338
445	0.338
446	0.338
446	0.338
447	0.338
447	0.338
447	0.338
448	0.338
448	0.338
449	0.338
449	0.339
450	0.339
450	0.339
451	0.339
451	0.339
452	0.339
452	0.339
452	0.339
453	0.34
453	0.339
454	0.34
454	0.34
455	0.34
455	0.34
456	0.34
456	0.34
457	0.34
457	0.34
458	0.34
458	0.34
458	0.341
459	0.341
459	0.341
460	0.34
460	0.34
461	0.341
461	0.341
462	0.342
462	0.343
463	0.343
463	0.344
463	0.345
464	0.345
464	0.346
465	0.347
465	0.347
466	0.348
466	0.348
467	0.349
467	0.349
467	0.349
468	0.349
468	0.349
469	0.349
469	0.35
470	0.351
470	0.351
471	0.352
471	0.352
472	0.353
472	0.354
472	0.355
473	0.356
473	0.357
474	0.358
474	0.359
475	0.36
475	0.361
476	0.362
476	0.363
477	0.364
477	0.365
477	0.366
478	0.367
478	0.368
479	0.369
479	0.37
480	0.371
480	0.372
481	0.374
481	0.375
482	0.376
482	0.377
482	0.379
483	0.381
483	0.383
484	0.384
484	0.385
485	0.387
485	0.389
486	0.39
486	0.392
487	0.393
487	0.395
487	0.397
488	0.398
488	0.399
489	0.401
489	0.404
490	0.406
490	0.408
491	0.41
491	0.412
492	0.415
492	0.416
492	0.418
493	0.42
493	0.422
494	0.425
494	0.428
495	0.43
495	0.432
496	0.435
496	0.438
496	0.44
497	0.443
497	0.446
498	0.449
498	0.451
499	0.454
499	0.458
500	0.461
500	0.465
501	0.467
501	0.47
501	0.473
502	0.476
502	0.479
503	0.482
503	0.485
504	0.488
504	0.491
505	0.494
505	0.497
506	0.501
506	0.504
506	0.508
507	0.512
507	0.516
508	0.52
508	0.523
509	0.527
509	0.531
510	0.534
510	0.537
511	0.541
511	0.544
511	0.547
512	0.55
512	0.552
513	0.554
513	0.557
514	0.56
514	0.563
515	0.566
515	0.568
515	0.57
516	0.572
516	0.575
517	0.578
517	0.58
518	0.582
518	0.584
519	0.586
519	0.587
520	0.59
520	0.592
520	0.594
521	0.595
521	0.597
522	0.599
522	0.601
523	0.603
523	0.605
524	0.606
524	0.608
524	0.609
525	0.61
525	0.611
526	0.612
526	0.613
527	0.614
527	0.614
528	0.613
528	0.613
529	0.613
529	0.613
529	0.613
530	0.612
530	0.612
531	0.611
531	0.611
532	0.609
532	0.609
533	0.608
533	0.607
533	0.606
534	0.604
534	0.603
535	0.602
535	0.601
536	0.6
536	0.598
537	0.596
537	0.594
538	0.592
538	0.59
538	0.588
539	0.586
539	0.584
540	0.581
540	0.578
541	0.575
541	0.572
542	0.569
542	0.566
542	0.563
543	0.559
543	0.556
544	0.553
544	0.549
545	0.546
545	0.543
546	0.54
546	0.536
547	0.532
547	0.528
547	0.524
548	0.522
548	0.518
549	0.514
549	0.511
550	0.508
550	0.503
551	0.499
551	0.495
551	0.491
552	0.487
552	0.484
553	0.48
553	0.476
554	0.472
554	0.468
555	0.464
555	0.46
556	0.456
556	0.452
556	0.448
557	0.445
557	0.442
558	0.438
558	0.434
559	0.43
559	0.427
560	0.423
560	0.419
560	0.415
561	0.412
561	0.409
562	0.406
562	0.402
563	0.399
563	0.395
564	0.392
564	0.389
564	0.386
565	0.383
565	0.381
566	0.377
566	0.374
567	0.372
567	0.369
568	0.366
568	0.363
568	0.36
569	0.357
569	0.353
570	0.349
570	0.345
571	0.343
571	0.339
572	0.336
572	0.332
573	0.329
573	0.325
573	0.321
574	0.319
574	0.316
575	0.314
575	0.313
576	0.31
576	0.307
577	0.303
577	0.301
577	0.3
578	0.298
578	0.296
579	0.295
579	0.293
580	0.29
580	0.285
581	0.282
581	0.279
581	0.278
582	0.276
582	0.274
583	0.273
583	0.27
584	0.266
584	0.262
585	0.261
585	0.26
585	0.258
586	0.256
586	0.254
587	0.251
587	0.249
588	0.246
588	0.244
589	0.243
589	0.241
590	0.239
590	0.237
590	0.236
591	0.235
591	0.232
592	0.23
592	0.227
593	0.226
593	0.224
594	0.222
594	0.22
594	0.218
595	0.217
595	0.214
596	0.212
596	0.211
597	0.212
597	0.21
598	0.208
598	0.207
598	0.206
599	0.204
599	0.203
600	0.201
600	0.2
601	0.199
601	0.198
602	0.195
602	0.194
602	0.192
603	0.191
603	0.191
604	0.19
604	0.189
605	0.188
605	0.188
606	0.186
606	0.184
606	0.182
607	0.181
607	0.18
608	0.179
608	0.177
609	0.175
609	0.174
610	0.172
610	0.17
610	0.17
611	0.169
611	0.168
612	0.168
612	0.167
613	0.166
613	0.165
614	0.163
614	0.161
614	0.16
615	0.158
615	0.156
616	0.155
616	0.154
617	0.152
617	0.15
618	0.149
618	0.148
618	0.147
619	0.146
619	0.145
620	0.146
620	0.144
621	0.143
621	0.141
622	0.14
622	0.138
622	0.136
623	0.135
623	0.135
624	0.134
624	0.132
625	0.131
625	0.13
626	0.129
626	0.128
626	0.128
627	0.127
627	0.126
628	0.126
628	0.124
629	0.123
629	0.122
630	0.12
630	0.118
630	0.117
631	0.116
631	0.114
632	0.112
632	0.11
633	0.108
633	0.106
634	0.105
634	0.103
634	0.102
635	0.1
635	0.098
636	0.096
636	0.094
637	0.091
637	0.089
638	0.087
638	0.084
638	0.081
639	0.078
639	0.074
640	0.071
640	0.067
641	0.064
641	0.06
642	0.057
642	0.053
642	0.049
643	0.045
643	0.041
644	0.037
644	0.032
645	0.028
645	0.024
646	0.019
646	0.014
646	0.009
647	0.003
647	-0.002
648	-0.008
648	-0.014
649	-0.021
649	-0.027
650	-0.033
650	-0.039
650	-0.046
651	-0.054
651	-0.064
652	-0.075
652	-0.087
653	-0.097
653	-0.105
653	-0.1
654	-0.083
654	-0.078
655	-0.083
655	-0.087
656	-0.092
656	-0.097
657	-0.101
657	-0.104
657	-0.11
658	-0.115
658	-0.142
659	-0.216
659	-0.292
660	-0.324
660	-0.345
661	-0.368
661	-0.393
661	-0.42
662	-0.443
662	-0.467
663	-0.494
663	-0.525
664	-0.553
664	-0.586
665	-0.623
665	-0.66
665	-0.694
666	-0.735
666	-0.779
667	-0.823
667	-0.876
668	-0.924
668	-0.985
669	-1.045
669	-1.111
669	-1.184
670	-1.264
670	-1.392
671	-1.635
671	-2.053
672	-2.304
672	-2.47
672	-2.592
673	-2.69
673	-2.764
674	-2.79
674	-2.801
675	-2.815
675	-2.818
676	-2.811
676	-2.749
676	-2.665
677	-2.557
677	-2.416
678	-2.178
678	-1.68
679	-1.435
679	-1.323
680	-1.245
680	-1.186
680	-1.136
681	-1.106
681	-1.068
682	-1.039
682	-1.006
683	-0.973
683	-0.961
684	-0.942
684	-0.931
684	-0.917
685	-0.906
685	-0.904
686	-0.887
686	-0.879
687	-0.874
687	-0.867
687	-0.872
688	-0.86
688	-0.858
689	-0.865
689	-0.864
690	-0.853
690	-0.845
691	-0.845
691	-0.851
691	-0.853
692	-0.857
692	-0.854
693	-0.863
693	-0.876
694	-0.858
694	-0.86
695	-0.864
695	-0.859
695	-0.869
696	-0.876
696	-0.871
697	-0.866
697	-0.865
698	-0.861
698	-0.853
698	-0.869
699	-0.868
699	-0.869
700	-0.89
700	-0.884
701	-0.873
701	-0.867
702	-0.867
702	-0.867
702	-0.866
703	-0.858
703	-0.845
704	-0.853
704	-0.857
705	-0.847
705	-0.846
705	-0.839
706	-0.832
706	-0.829
707	-0.84
707	-0.844
708	-0.843
708	-0.841
709	-0.844
709	-0.841
709	-0.836
710	-0.842
710	-0.848
711	-0.849
711	-0.851
712	-0.841
712	-0.84
713	-0.845
713	-0.845
713	-0.824
714	-0.826
714	-0.83
715	-0.823
715	-0.83
716	-0.845
716	-0.852
716	-0.855
717	-0.86
717	-0.853
718	-0.848
718	-0.849
719	-0.846
719	-0.837
720	-0.833
720	-0.828
720	-0.823
721	-0.815
721	-0.819
722	-0.816
722	-0.812
723	-0.831
723	-0.844
723	-0.852
724	-0.851
724	-0.857
725	-0.85
725	-0.855
726	-0.858
726	-0.849
727	-0.852
727	-0.858
727	-0.849
728	-0.835
728	-0.831
729	-0.835
729	-0.838
730	-0.845
730	-0.836
730	-0.842
731	-0.844
731	-0.845
732	-0.848
732	-0.842
733	-0.859
733	-0.866
734	-0.874
734	-0.864
734	-0.846
735	-0.836
735	-0.831
736	-0.83
736	-0.823
737	-0.823
737	-0.811
737	-0.802
738	-0.788
738	-0.776
739	-0.779
739	-0.78
740	-0.795
740	-0.796
741	-0.808
741	-0.818
741	-0.827
742	-0.834
742	-0.85
743	-0.857
743	-0.86
744	-0.864
744	-0.872
744	-0.865
745	-0.872
745	-0.861
746	-0.857
746	-0.847
747	-0.851
747	-0.842
748	-0.844
748	-0.848
748	-0.849
749	-0.842
749	-0.849
750	-0.841
750	-0.842
751	-0.842
751	-0.84
751	-0.851
752	-0.854
752	-0.857
753	-0.858
753	-0.852
754	-0.872
754	-0.871
754	-0.88
755	-0.879
755	-0.872
756	-0.873
756	-0.858
757	-0.85
757	-0.839
758	-0.84
758	-0.839
758	-0.832
759	-0.837
759	-0.835
760	-0.834
760	-0.836
761	-0.831
761	-0.834
761	-0.836
762	-0.843
762	-0.844
763	-0.844
763	-0.848
764	-0.847
764	-0.843
764	-0.848
765	-0.845
765	-0.851
766	-0.856
766	-0.857
767	-0.872
767	-0.866
768	-0.864
768	-0.859
768	-0.855
769	-0.858
769	-0.867
770	-0.878
770	-0.882
771	-0.88
771	-0.881
771	-0.886
772	-0.891
772	-0.912
773	-0.912
773	-0.912
774	-0.911
774	-0.891
775	-0.878
775	-0.878
775	-0.88
776	-0.889
776	-0.886
777	-0.885
777	-0.866
778	-0.875
778	-0.884
778	-0.885
779	-0.895
779	-0.911
780	-0.905
780	-0.915
781	-0.904
781	-0.892
781	-0.906
782	-0.927
782	-0.928
783	-0.926
783	-0.934
784	-0.936
784	-0.93
784	-0.951
785	-0.945
785	-0.956
786	-0.962
786	-0.957
787	-0.947
787	-0.956
788	-0.948
788	-0.941
788	-0.942
789	-0.942
789	-0.932
790	-0.931
790	-0.916
791	-0.92
791	-0.915
791	-0.91
792	-0.904
792	-0.909
793	-0.912
793	-0.899
794	-0.892
794	-0.885
794	-0.892
795	-0.912
795	-0.9
796	-0.906
796	-0.9
797	-0.893
797	-0.884
797	-0.878
798	-0.899
798	-0.905
799	-0.903
799	-0.89
800	-0.884
800	-0.893
801	-0.89
801	-0.896
801	-0.892
802	-0.89
802	-0.889
803	-0.884
803	-0.876
804	-0.884
804	-0.89
804	-0.873
805	-0.853
805	-0.845
806	-0.845
806	-0.842
807	-0.843
807	-0.843
807	-0.826
808	-0.823
808	-0.815
809	-0.811
809	-0.813
810	-0.818
810	-0.815
810	-0.811
811	-0.813
811	-0.805
812	-0.798
812	-0.799
813	-0.802
813	-0.802
813	-0.797
814	-0.797
814	-0.802
815	-0.793
815	-0.789
816	-0.787
816	-0.803
817	-0.816
817	-0.821
817	-0.831
818	-0.825
818	-0.821
819	-0.832
819	-0.832
820	-0.844
820	-0.845
820	-0.843
821	-0.838
821	-0.835
822	-0.833
822	-0.819
823	-0.83
823	-0.832
823	-0.824
824	-0.822
824	-0.831
825	-0.829
825	-0.826
826	-0.822
826	-0.816
826	-0.816
827	-0.817
827	-0.807
828	-0.805
828	-0.801
829	-0.795
829	-0.779
829	-0.778
830	-0.777
830	-0.763
831	-0.759
831	-0.748
832	-0.739
832	-0.735
832	-0.728
833	-0.727
833	-0.731
834	-0.728
834	-0.721
835	-0.711
835	-0.71
835	-0.705
836	-0.701
836	-0.697
837	-0.687
837	-0.678
838	-0.666
838	-0.648
839	-0.642
839	-0.629
839	-0.621
840	-0.621
840	-0.609
841	-0.598
841	-0.592
842	-0.582
842	-0.57
842	-0.565
843	-0.561
843	-0.557
844	-0.555
844	-0.543
845	-0.531
845	-0.521
845	-0.511
846	-0.499
846	-0.488
847	-0.478
847	-0.466
848	-0.453
848	-0.436
848	-0.422
849	-0.41
849	-0.397
850	-0.388
850	-0.378
851	-0.364
851	-0.348
851	-0.339
852	-0.323
852	-0.311
853	-0.302
853	-0.291
854	-0.28
854	-0.269
854	-0.255
855	-0.244
855	-0.236
856	-0.23
856	-0.221
857	-0.213
857	-0.205
857	-0.191
858	-0.181
858	-0.174
859	-0.163
859	-0.152
860	-0.141
860	-0.127
860	-0.117
861	-0.107
861	-0.097
862	-0.089
862	-0.081
863	-0.072
863	-0.062
863	-0.056
864	-0.05
864	-0.043
865	-0.036
865	-0.03
866	-0.025
866	-0.019
866	-0.014
867	-0.008
867	-0.003
868	0.001
868	0.006
869	0.011
869	0.013
869	0.016
870	0.018
870	0.02
871	0.022
871	0.023
872	0.024
872	0.025
872	0.026
873	0.026
873	0.026
874	0.025
874	0.025
875	0.025
875	0.025
875	0.024
876	0.024
876	0.024
877	0.024
877	0.023
878	0.023
878	0.022
878	0.022
879	0.022
879	0.022
880	0.021
880	0.02
881	0.019
881	0.017
881	0.016
882	0.014
882	0.013
883	0.011
883	0.01
884	0.009
884	0.009
884	0.009
885	0.009
885	0.009
886	0.009
886	0.009
887	0.008
887	0.008
887	0.007
888	0.007
888	0.006
889	0.006
889	0.004
890	0.003
890	0.002
890	0.002
891	0.002
891	0.001
892	0.002
892	0.002
893	0.003
893	0.003
893	0.003
894	0.004
894	0.004
895	0.005
895	0.005
895	0.005
896	0.005
896	0.005
897	0.006
897	0.006
898	0.006
898	0.006
898	0.007
899	0.007
899	0.007
900	0.007
900	0.007
901	0.007
901	0.007
901	0.006
902	0.006
902	0.006
903	0.006
903	0.005
904	0.005
904	0.004
904	0.004
905	0.004
905	0.004
906	0.005
906	0.005
907	0.006
907	0.006
907	0.006
908	0.007
908	0.008
909	0.008
909	0.009
910	0.009
910	0.01
910	0.01
911	0.011
911	0.011
912	0.012
912	0.013
913	0.013
913	0.014
913	0.015
914	0.015
914	0.016
915	0.016
915	0.016
916	0.015
916	0.015
916	0.015
917	0.014
917	0.014
918	0.013
918	0.012
918	0.012
919	0.011
919	0.011
920	0.011
920	0.011
921	0.012
921	0.012
921	0.012
922	0.013
922	0.013
923	0.013
923	0.013
924	0.013
924	0.012
924	0.011
925	0.01
925	0.009
926	0.008
926	0.006
927	0.005
927	0.004
927	0.003
928	0.003
928	0.002
929	0.003
929	0.003
930	0.004
930	0.004
930	0.005
931	0.006
931	0.007
932	0.009
932	0.01
933	0.011
933	0.011
933	0.011
934	0.011
934	0.011
935	0.01
935	0.009
935	0.008
936	0.007
936	0.005
937	0.004
937	0.004
938	0.003
938	0.002
938	0.002
939	0.001
939	0.001
940	0
940	-0
941	-0.001
941	-0.002
941	-0.001
942	-0.002
942	-0.003
943	-0.002
943	-0.003
944	-0.003
944	-0.004
944	-0.004
945	-0.005
945	-0.005
946	-0.005
946	-0.006
946	-0.006
947	-0.006
947	-0.006
948	-0.006
948	-0.005
949	-0.005
949	-0.003
949	-0.002
950	-0
950	0.001
951	0.002
951	0.003
952	0.004
952	0.005
952	0.006
953	0.007
953	0.008
954	0.008
954	0.007
955	0.007
955	0.007
955	0.007
956	0.007
956	0.006
957	0.005
957	0.004
957	0.003
958	0.002
958	0.002
959	0.001
959	0
960	-0
960	-0
960	-0
961	0
961	0
962	0.001
962	0.001
963	0.001
963	0.002
963	0.002
964	0.003
964	0.004
965	0.004
965	0.005
966	0.005
966	0.006
966	0.007
967	0.007
967	0.008
968	0.008
968	0.008
968	0.008
969	0.008
969	0.008
970	0.007
970	0.007
971	0.007
971	0.007
971	0.007
972	0.007
972	0.007
973	0.007
973	0.007
974	0.007
974	0.007
974	0.007
975	0.007
975	0.007
976	0.006
976	0.006
976	0.005
977	0.005
977	0.004
978	0.004
978	0.003
979	0.003
979	0.002
979	0.002
980	0.001
980	0.001
981	0.001
981	0.001
982	0.001
982	0.001
982	0.001
983	0.001
983	0.001
984	0.001
984	0.001
984	0
985	0
985	0
986	-0.001
986	-0.002
987	-0.002
987	-0.003
987	-0.004
988	-0.005
988	-0.005
989	-0.006
989	-0.007
990	-0.008
990	-0.009
990	-0.009
991	-0.01
991	-0.011
992	-0.011
992	-0.012
992	-0.013
993	-0.014
993	-0.015
994	-0.016
994	-0.017
995	-0.019
995	-0.02
995	-0.021
996	-0.022
996	-0.023
997	-0.024
997	-0.025
997	-0.026
998	-0.026
998	-0.025
999	-0.025
999	-0.025
1000	-0.024
1000	-0.024
1000	-0.023
1001	-0.022
1001	-0.021
1002	-0.02
1002	-0.02
1003	-0.019
1003	-0.019
1003	-0.018
1004	-0.018
1004	-0.018
1005	-0.018
1005	-0.018
1005	-0.018
1006	-0.019
1006	-0.02
1007	-0.02
1007	-0.021
1008	-0.022
1008	-0.023
1008	-0.023
1009	-0.023
1009	-0.023
1010	-0.023
1010	-0.022
1010	-0.021
1011	-0.021
1011	-0.02
1012	-0.019
1012	-0.018
1013	-0.017
1013	-0.016
1013	-0.015
1014	-0.015
1014	-0.014
1015	-0.014
1015	-0.013
1016	-0.013
1016	-0.013
1016	-0.013
1017	-0.014
1017	-0.014
1018	-0.014
1018	-0.014
1018	-0.015
1019	-0.015
1019	-0.015
1020	-0.015
1020	-0.016
1021	-0.016
1021	-0.016
1021	-0.017
1022	-0.017
1022	-0.017
1023	-0.017
1023	-0.018
1023	-0.018
1024	-0.017
1024	-0.017
1025	-0.017
1025	-0.017
1026	-0.017
1026	-0.017
1026	-0.017
1027	-0.017
1027	-0.017
1028	-0.016
1028	-0.015
1028	-0.015
1029	-0.015
1029	-0.015
1030	-0.015
1030	-0.015
1031	-0.015
1031	-0.014
1031	-0.014
1032	-0.014
1032	-0.014
1033	-0.015
1033	-0.016
1033	-0.016
1034	-0.017
1034	-0.018
1035	-0.018
1035	-0.019
1036	-0.02
1036	-0.021
1036	-0.021
1037	-0.021
1037	-0.022
1038	-0.022
1038	-0.022
1039	-0.022
1039	-0.021
1039	-0.021
1040	-0.021
1040	-0.02
1041	-0.02
1041	-0.021
1041	-0.021
1042	-0.021
1042	-0.022
1043	-0.022
1043	-0.023
1044	-0.023
1044	-0.024
1044	-0.024
1045	-0.025
1045	-0.025
1046	-0.026
1046	-0.026
1046	-0.026
1047	-0.026
1047	-0.026
1048	-0.025
1048	-0.025
1049	-0.026
1049	-0.026
1049	-0.027
1050	-0.027
1050	-0.028
1051	-0.029
1051	-0.03
1051	-0.03
1052	-0.032
1052	-0.033
1053	-0.033
1053	-0.034
1053	-0.034
1054	-0.035
1054	-0.035
1055	-0.034
1055	-0.034
1056	-0.034
1056	-0.034
1056	-0.034
1057	-0.034
1057	-0.034
1058	-0.034
1058	-0.034
1058	-0.034
1059	-0.034
1059	-0.034
1060	-0.035
1060	-0.035
1061	-0.036
1061	-0.036
1061	-0.035
1062	-0.036
1062	-0.036
1063	-0.036
1063	-0.037
1063	-0.036
1064	-0.036
1064	-0.036
1065	-0.036
1065	-0.036
1066	-0.037
1066	-0.037
1066	-0.038
1067	-0.038
1067	-0.039
1068	-0.04
1068	-0.041
1068	-0.042
1069	-0.043
1069	-0.044
1070	-0.044
1070	-0.045
1071	-0.045
1071	-0.046
1071	-0.046
1072	-0.046
1072	-0.046
1073	-0.046
1073	-0.046
1073	-0.046
1074	-0.046
1074	-0.047
1075	-0.047
1075	-0.048
1076	-0.049
1076	-0.049
1076	-0.049
1077	-0.05
1077	-0.051
1078	-0.052
1078	-0.052
1078	-0.052
1079	-0.053
1079	-0.053
1080	-0.054
1080	-0.055
1080	-0.056
1081	-0.057
1081	-0.058
1082	-0.059
1082	-0.06
1083	-0.061
1083	-0.063
1083	-0.064
1084	-0.066
1084	-0.067
1085	-0.068
1085	-0.069
1085	-0.07
1086	-0.071
1086	-0.072
1087	-0.073
1087	-0.074
1088	-0.075
1088	-0.075
1088	-0.075
1089	-0.077
1089	-0.077
1090	-0.078
1090	-0.078
1090	-0.08
1091	-0.08
1091	-0.08
1092	-0.08
1092	-0.079
1092	-0.081
1093	-0.082
1093	-0.081
1094	-0.082
1094	-0.083
1095	-0.084
1095	-0.085
1095	-0.086
1096	-0.087
1096	-0.09
1097	-0.091
1097	-0.093
1097	-0.095
1098	-0.098
1098	-0.1
1099	-0.101
1099	-0.103
1100	-0.105
1100	-0.108
1100	-0.111
1101	-0.114
1101	-0.116
1102	-0.118
1102	-0.121
1102	-0.122
1103	-0.125
1103	-0.128
1104	-0.132
1104	-0.135
1104	-0.136
1105	-0.139
1105	-0.141
1106	-0.147
1106	-0.149
1107	-0.155
1107	-0.159
1107	-0.164
1108	-0.165
1108	-0.167
1109	-0.17
1109	-0.174
1109	-0.179
1110	-0.182
1110	-0.185
1111	-0.195
1111	-0.19
