Data from 3.3A_17C_Absorbance__294__03161.txt Node

Date: Tue Jun 20 17:22:33 CEST 2023
User: Marek
Spectrometer: MAYP115816
Trigger mode: 0
Integration Time (sec): 2.200000E-1
Scans to average: 10
Electric dark correction enabled: true
Nonlinearity correction enabled: true
Boxcar width: 5
XAxis mode: Wavelengths
Number of Pixels in Spectrum: 2068
>>>>>Begin Spectral Data<<<<<
199	-0.803
199	-0.786
200	-0.752
200	-0.696
201	-0.667
201	-0.661
202	-0.645
202	-0.639
203	-0.638
203	-0.632
204	-0.612
204	-0.595
205	-0.572
205	-0.562
205	-0.571
206	-0.574
206	-0.569
207	-0.561
207	-0.567
208	-0.569
208	-0.572
209	-0.574
209	-0.582
210	-0.593
210	-0.599
211	-0.594
211	-0.599
212	-0.607
212	-0.615
213	-0.612
213	-0.607
213	-0.604
214	-0.611
214	-0.613
215	-0.61
215	-0.617
216	-0.625
216	-0.631
217	-0.63
217	-0.632
218	-0.639
218	-0.641
219	-0.648
219	-0.649
220	-0.652
220	-0.661
221	-0.66
221	-0.66
221	-0.651
222	-0.65
222	-0.647
223	-0.644
223	-0.646
224	-0.647
224	-0.646
225	-0.642
225	-0.641
226	-0.64
226	-0.64
227	-0.649
227	-0.66
228	-0.662
228	-0.67
229	-0.676
229	-0.674
229	-0.673
230	-0.669
230	-0.668
231	-0.664
231	-0.658
232	-0.66
232	-0.653
233	-0.653
233	-0.639
234	-0.638
234	-0.633
235	-0.64
235	-0.651
236	-0.658
236	-0.661
236	-0.662
237	-0.661
237	-0.662
238	-0.664
238	-0.667
239	-0.67
239	-0.679
240	-0.67
240	-0.666
241	-0.663
241	-0.665
242	-0.668
242	-0.676
243	-0.676
243	-0.678
243	-0.683
244	-0.678
244	-0.681
245	-0.684
245	-0.689
246	-0.698
246	-0.701
247	-0.708
247	-0.695
248	-0.694
248	-0.696
249	-0.701
249	-0.703
250	-0.701
250	-0.71
250	-0.707
251	-0.709
251	-0.706
252	-0.708
252	-0.72
253	-0.715
253	-0.726
254	-0.732
254	-0.732
255	-0.742
255	-0.74
256	-0.742
256	-0.752
257	-0.76
257	-0.757
258	-0.759
258	-0.766
258	-0.765
259	-0.757
259	-0.775
260	-0.775
260	-0.764
261	-0.775
261	-0.76
262	-0.765
262	-0.764
263	-0.754
263	-0.759
264	-0.768
264	-0.77
265	-0.761
265	-0.765
265	-0.774
266	-0.763
266	-0.763
267	-0.765
267	-0.78
268	-0.79
268	-0.783
269	-0.774
269	-0.789
270	-0.792
270	-0.789
271	-0.804
271	-0.816
272	-0.818
272	-0.82
272	-0.815
273	-0.824
273	-0.839
274	-0.832
274	-0.828
275	-0.826
275	-0.813
276	-0.816
276	-0.823
277	-0.825
277	-0.822
278	-0.826
278	-0.825
278	-0.814
279	-0.822
279	-0.834
280	-0.837
280	-0.848
281	-0.842
281	-0.833
282	-0.838
282	-0.831
283	-0.824
283	-0.839
284	-0.853
284	-0.864
285	-0.845
285	-0.851
285	-0.842
286	-0.848
286	-0.864
287	-0.86
287	-0.859
288	-0.859
288	-0.841
289	-0.839
289	-0.846
290	-0.855
290	-0.844
291	-0.849
291	-0.846
292	-0.826
292	-0.824
292	-0.83
293	-0.817
293	-0.813
294	-0.811
294	-0.798
295	-0.778
295	-0.79
296	-0.799
296	-0.795
297	-0.782
297	-0.785
298	-0.781
298	-0.798
298	-0.803
299	-0.785
299	-0.778
300	-0.776
300	-0.757
301	-0.74
301	-0.742
302	-0.754
302	-0.74
303	-0.733
303	-0.721
304	-0.704
304	-0.705
305	-0.697
305	-0.707
305	-0.72
306	-0.705
306	-0.703
307	-0.695
307	-0.704
308	-0.706
308	-0.702
309	-0.703
309	-0.7
310	-0.698
310	-0.691
311	-0.677
311	-0.695
311	-0.682
312	-0.678
312	-0.667
313	-0.66
313	-0.661
314	-0.667
314	-0.666
315	-0.663
315	-0.658
316	-0.653
316	-0.643
317	-0.636
317	-0.634
318	-0.627
318	-0.623
318	-0.613
319	-0.603
319	-0.593
320	-0.59
320	-0.589
321	-0.584
321	-0.582
322	-0.578
322	-0.57
323	-0.571
323	-0.561
324	-0.559
324	-0.547
324	-0.536
325	-0.52
325	-0.501
326	-0.492
326	-0.467
327	-0.449
327	-0.426
328	-0.393
328	-0.37
329	-0.34
329	-0.31
330	-0.282
330	-0.246
330	-0.208
331	-0.168
331	-0.134
332	-0.097
332	-0.062
333	-0.03
333	0.006
334	0.038
334	0.066
335	0.095
335	0.119
336	0.143
336	0.167
336	0.186
337	0.205
337	0.225
338	0.241
338	0.253
339	0.269
339	0.281
340	0.291
340	0.301
341	0.309
341	0.316
342	0.324
342	0.331
342	0.336
343	0.341
343	0.347
344	0.35
344	0.354
345	0.358
345	0.361
346	0.363
346	0.366
347	0.368
347	0.369
348	0.37
348	0.373
348	0.374
349	0.375
349	0.376
350	0.377
350	0.377
351	0.378
351	0.378
352	0.379
352	0.379
353	0.38
353	0.38
354	0.38
354	0.38
354	0.38
355	0.38
355	0.38
356	0.381
356	0.38
357	0.381
357	0.381
358	0.381
358	0.381
359	0.381
359	0.381
360	0.381
360	0.381
360	0.381
361	0.381
361	0.381
362	0.38
362	0.38
363	0.38
363	0.38
364	0.38
364	0.38
365	0.38
365	0.38
366	0.379
366	0.379
366	0.379
367	0.379
367	0.378
368	0.378
368	0.377
369	0.377
369	0.377
370	0.377
370	0.377
371	0.376
371	0.376
372	0.376
372	0.376
372	0.375
373	0.375
373	0.375
374	0.375
374	0.375
375	0.374
375	0.374
376	0.373
376	0.373
377	0.373
377	0.372
378	0.372
378	0.371
378	0.371
379	0.371
379	0.371
380	0.371
380	0.37
381	0.37
381	0.37
382	0.369
382	0.369
383	0.368
383	0.368
383	0.368
384	0.367
384	0.367
385	0.366
385	0.366
386	0.366
386	0.365
387	0.365
387	0.365
388	0.364
388	0.364
389	0.364
389	0.364
389	0.364
390	0.364
390	0.363
391	0.363
391	0.363
392	0.362
392	0.362
393	0.361
393	0.361
394	0.361
394	0.36
394	0.359
395	0.359
395	0.358
396	0.358
396	0.357
397	0.357
397	0.356
398	0.356
398	0.356
399	0.355
399	0.355
400	0.355
400	0.354
400	0.354
401	0.353
401	0.353
402	0.352
402	0.352
403	0.352
403	0.352
404	0.352
404	0.351
405	0.351
405	0.351
405	0.35
406	0.35
406	0.35
407	0.35
407	0.35
408	0.349
408	0.349
409	0.349
409	0.348
410	0.348
410	0.348
411	0.348
411	0.347
411	0.347
412	0.347
412	0.346
413	0.346
413	0.346
414	0.346
414	0.346
415	0.345
415	0.345
416	0.344
416	0.344
416	0.344
417	0.343
417	0.343
418	0.343
418	0.343
419	0.343
419	0.342
420	0.342
420	0.342
421	0.342
421	0.341
421	0.341
422	0.341
422	0.342
423	0.341
423	0.341
424	0.34
424	0.34
425	0.34
425	0.34
426	0.34
426	0.34
427	0.34
427	0.34
427	0.34
428	0.34
428	0.339
429	0.339
429	0.339
430	0.339
430	0.339
431	0.338
431	0.338
432	0.338
432	0.337
432	0.337
433	0.337
433	0.337
434	0.337
434	0.337
435	0.337
435	0.337
436	0.337
436	0.337
437	0.337
437	0.337
437	0.337
438	0.337
438	0.337
439	0.337
439	0.337
440	0.337
440	0.336
441	0.336
441	0.336
442	0.336
442	0.336
442	0.336
443	0.336
443	0.336
444	0.336
444	0.335
445	0.336
445	0.336
446	0.336
446	0.336
447	0.336
447	0.336
447	0.336
448	0.336
448	0.336
449	0.336
449	0.336
450	0.336
450	0.336
451	0.336
451	0.336
452	0.336
452	0.336
452	0.337
453	0.337
453	0.337
454	0.337
454	0.337
455	0.337
455	0.337
456	0.337
456	0.337
457	0.337
457	0.337
458	0.337
458	0.337
458	0.338
459	0.338
459	0.337
460	0.337
460	0.337
461	0.337
461	0.338
462	0.339
462	0.339
463	0.34
463	0.341
463	0.342
464	0.342
464	0.343
465	0.343
465	0.344
466	0.345
466	0.345
467	0.345
467	0.345
467	0.345
468	0.345
468	0.346
469	0.346
469	0.347
470	0.348
470	0.348
471	0.349
471	0.349
472	0.35
472	0.351
472	0.352
473	0.353
473	0.353
474	0.354
474	0.355
475	0.356
475	0.357
476	0.357
476	0.358
477	0.36
477	0.36
477	0.361
478	0.362
478	0.363
479	0.365
479	0.366
480	0.367
480	0.368
481	0.369
481	0.37
482	0.371
482	0.373
482	0.374
483	0.376
483	0.378
484	0.38
484	0.381
485	0.383
485	0.384
486	0.386
486	0.387
487	0.389
487	0.391
487	0.392
488	0.394
488	0.395
489	0.396
489	0.399
490	0.401
490	0.403
491	0.405
491	0.407
492	0.409
492	0.411
492	0.413
493	0.415
493	0.417
494	0.42
494	0.423
495	0.425
495	0.427
496	0.429
496	0.432
496	0.435
497	0.437
497	0.44
498	0.443
498	0.446
499	0.448
499	0.451
500	0.455
500	0.458
501	0.461
501	0.464
501	0.467
502	0.469
502	0.472
503	0.475
503	0.478
504	0.481
504	0.484
505	0.487
505	0.49
506	0.494
506	0.497
506	0.501
507	0.504
507	0.508
508	0.512
508	0.516
509	0.52
509	0.523
510	0.526
510	0.529
511	0.531
511	0.534
511	0.537
512	0.54
512	0.542
513	0.544
513	0.547
514	0.55
514	0.554
515	0.556
515	0.559
515	0.562
516	0.564
516	0.567
517	0.57
517	0.572
518	0.574
518	0.576
519	0.577
519	0.579
520	0.581
520	0.583
520	0.585
521	0.586
521	0.588
522	0.59
522	0.592
523	0.594
523	0.596
524	0.597
524	0.598
524	0.599
525	0.6
525	0.601
526	0.602
526	0.603
527	0.603
527	0.604
528	0.604
528	0.603
529	0.603
529	0.603
529	0.603
530	0.603
530	0.602
531	0.602
531	0.601
532	0.6
532	0.6
533	0.599
533	0.598
533	0.597
534	0.596
534	0.594
535	0.593
535	0.592
536	0.591
536	0.589
537	0.587
537	0.585
538	0.583
538	0.581
538	0.579
539	0.577
539	0.575
540	0.572
540	0.57
541	0.567
541	0.565
542	0.562
542	0.559
542	0.556
543	0.553
543	0.55
544	0.547
544	0.543
545	0.541
545	0.538
546	0.534
546	0.531
547	0.527
547	0.523
547	0.52
548	0.517
548	0.513
549	0.51
549	0.507
550	0.504
550	0.5
551	0.496
551	0.492
551	0.488
552	0.485
552	0.481
553	0.478
553	0.475
554	0.471
554	0.467
555	0.463
555	0.459
556	0.455
556	0.452
556	0.448
557	0.445
557	0.442
558	0.438
558	0.434
559	0.43
559	0.427
560	0.423
560	0.419
560	0.416
561	0.413
561	0.41
562	0.407
562	0.404
563	0.4
563	0.397
564	0.394
564	0.391
564	0.389
565	0.386
565	0.384
566	0.38
566	0.378
567	0.375
567	0.372
568	0.37
568	0.366
568	0.363
569	0.36
569	0.357
570	0.353
570	0.35
571	0.347
571	0.344
572	0.341
572	0.338
573	0.334
573	0.33
573	0.327
574	0.325
574	0.322
575	0.32
575	0.319
576	0.317
576	0.313
577	0.31
577	0.308
577	0.306
578	0.305
578	0.303
579	0.303
579	0.301
580	0.297
580	0.293
581	0.289
581	0.287
581	0.285
582	0.284
582	0.282
583	0.281
583	0.278
584	0.274
584	0.27
585	0.269
585	0.268
585	0.267
586	0.265
586	0.263
587	0.26
587	0.258
588	0.255
588	0.253
589	0.252
589	0.25
590	0.248
590	0.246
590	0.246
591	0.244
591	0.242
592	0.239
592	0.237
593	0.236
593	0.234
594	0.232
594	0.23
594	0.229
595	0.227
595	0.224
596	0.222
596	0.222
597	0.222
597	0.22
598	0.219
598	0.218
598	0.216
599	0.215
599	0.213
600	0.212
600	0.21
601	0.209
601	0.208
602	0.206
602	0.205
602	0.203
603	0.202
603	0.201
604	0.2
604	0.199
605	0.199
605	0.198
606	0.197
606	0.195
606	0.193
607	0.192
607	0.191
608	0.19
608	0.187
609	0.186
609	0.185
610	0.183
610	0.181
610	0.181
611	0.18
611	0.179
612	0.179
612	0.178
613	0.177
613	0.176
614	0.174
614	0.172
614	0.171
615	0.169
615	0.167
616	0.166
616	0.165
617	0.163
617	0.162
618	0.16
618	0.159
618	0.158
619	0.157
619	0.156
620	0.156
620	0.155
621	0.153
621	0.152
622	0.151
622	0.149
622	0.147
623	0.146
623	0.145
624	0.145
624	0.143
625	0.142
625	0.141
626	0.139
626	0.138
626	0.138
627	0.137
627	0.136
628	0.136
628	0.134
629	0.133
629	0.131
630	0.129
630	0.128
630	0.127
631	0.125
631	0.123
632	0.121
632	0.119
633	0.117
633	0.115
634	0.114
634	0.112
634	0.111
635	0.109
635	0.106
636	0.104
636	0.102
637	0.1
637	0.097
638	0.094
638	0.092
638	0.088
639	0.085
639	0.081
640	0.077
640	0.073
641	0.07
641	0.066
642	0.062
642	0.058
642	0.054
643	0.05
643	0.045
644	0.041
644	0.036
645	0.032
645	0.027
646	0.022
646	0.017
646	0.011
647	0.005
647	-0.001
648	-0.007
648	-0.013
649	-0.02
649	-0.026
650	-0.033
650	-0.039
650	-0.045
651	-0.054
651	-0.064
652	-0.075
652	-0.088
653	-0.098
653	-0.108
653	-0.102
654	-0.084
654	-0.08
655	-0.084
655	-0.088
656	-0.092
656	-0.098
657	-0.102
657	-0.106
657	-0.11
658	-0.115
658	-0.143
659	-0.219
659	-0.296
660	-0.331
660	-0.352
661	-0.375
661	-0.401
661	-0.428
662	-0.451
662	-0.477
663	-0.506
663	-0.537
664	-0.569
664	-0.603
665	-0.642
665	-0.682
665	-0.718
666	-0.76
666	-0.806
667	-0.853
667	-0.907
668	-0.959
668	-1.021
669	-1.083
669	-1.151
669	-1.226
670	-1.307
670	-1.432
671	-1.687
671	-2.112
672	-2.34
672	-2.495
672	-2.612
673	-2.705
673	-2.784
674	-2.81
674	-2.821
675	-2.835
675	-2.839
676	-2.829
676	-2.76
676	-2.678
677	-2.574
677	-2.441
678	-2.221
678	-1.719
679	-1.479
679	-1.366
680	-1.285
680	-1.224
680	-1.172
681	-1.137
681	-1.096
682	-1.066
682	-1.031
683	-0.996
683	-0.982
684	-0.961
684	-0.95
684	-0.934
685	-0.92
685	-0.916
686	-0.898
686	-0.89
687	-0.884
687	-0.878
687	-0.882
688	-0.868
688	-0.864
689	-0.87
689	-0.869
690	-0.859
690	-0.85
691	-0.85
691	-0.857
691	-0.859
692	-0.86
692	-0.858
693	-0.868
693	-0.879
694	-0.86
694	-0.859
695	-0.862
695	-0.857
695	-0.864
696	-0.87
696	-0.864
697	-0.86
697	-0.858
698	-0.854
698	-0.848
698	-0.864
699	-0.863
699	-0.865
700	-0.886
700	-0.882
701	-0.869
701	-0.862
702	-0.863
702	-0.861
702	-0.861
703	-0.853
703	-0.842
704	-0.851
704	-0.855
705	-0.845
705	-0.844
705	-0.84
706	-0.833
706	-0.83
707	-0.841
707	-0.843
708	-0.839
708	-0.835
709	-0.838
709	-0.835
709	-0.83
710	-0.838
710	-0.841
711	-0.84
711	-0.842
712	-0.833
712	-0.832
713	-0.84
713	-0.84
713	-0.82
714	-0.822
714	-0.827
715	-0.819
715	-0.829
716	-0.846
716	-0.856
716	-0.859
717	-0.865
717	-0.857
718	-0.851
718	-0.852
719	-0.849
719	-0.841
720	-0.836
720	-0.831
720	-0.826
721	-0.815
721	-0.818
722	-0.816
722	-0.811
723	-0.83
723	-0.842
723	-0.85
724	-0.848
724	-0.852
725	-0.847
725	-0.852
726	-0.856
726	-0.848
727	-0.85
727	-0.857
727	-0.847
728	-0.836
728	-0.831
729	-0.834
729	-0.838
730	-0.843
730	-0.834
730	-0.839
731	-0.842
731	-0.844
732	-0.846
732	-0.84
733	-0.854
733	-0.861
734	-0.868
734	-0.858
734	-0.839
735	-0.828
735	-0.824
736	-0.823
736	-0.816
737	-0.816
737	-0.807
737	-0.799
738	-0.786
738	-0.776
739	-0.779
739	-0.782
740	-0.796
740	-0.795
741	-0.806
741	-0.818
741	-0.828
742	-0.835
742	-0.851
743	-0.856
743	-0.86
744	-0.862
744	-0.869
744	-0.862
745	-0.872
745	-0.862
746	-0.856
746	-0.847
747	-0.85
747	-0.841
748	-0.842
748	-0.846
748	-0.848
749	-0.842
749	-0.849
750	-0.839
750	-0.838
751	-0.838
751	-0.836
751	-0.848
752	-0.849
752	-0.852
753	-0.853
753	-0.847
754	-0.867
754	-0.867
754	-0.876
755	-0.876
755	-0.867
756	-0.87
756	-0.856
757	-0.85
757	-0.839
758	-0.841
758	-0.837
758	-0.83
759	-0.835
759	-0.834
760	-0.832
760	-0.836
761	-0.828
761	-0.832
761	-0.833
762	-0.838
762	-0.839
763	-0.841
763	-0.847
764	-0.846
764	-0.844
764	-0.85
765	-0.849
765	-0.856
766	-0.858
766	-0.861
767	-0.877
767	-0.872
768	-0.87
768	-0.861
768	-0.855
769	-0.856
769	-0.863
770	-0.871
770	-0.876
771	-0.872
771	-0.871
771	-0.876
772	-0.881
772	-0.903
773	-0.906
773	-0.908
774	-0.907
774	-0.889
775	-0.878
775	-0.877
775	-0.881
776	-0.891
776	-0.888
777	-0.887
777	-0.869
778	-0.877
778	-0.885
778	-0.884
779	-0.893
779	-0.909
780	-0.905
780	-0.913
781	-0.904
781	-0.891
781	-0.905
782	-0.924
782	-0.926
783	-0.925
783	-0.934
784	-0.936
784	-0.929
784	-0.949
785	-0.942
785	-0.955
786	-0.959
786	-0.953
787	-0.944
787	-0.953
788	-0.946
788	-0.94
788	-0.943
789	-0.942
789	-0.93
790	-0.931
790	-0.915
791	-0.922
791	-0.917
791	-0.911
792	-0.904
792	-0.908
793	-0.909
793	-0.897
794	-0.89
794	-0.884
794	-0.89
795	-0.91
795	-0.896
796	-0.903
796	-0.898
797	-0.893
797	-0.884
797	-0.877
798	-0.9
798	-0.904
799	-0.906
799	-0.892
800	-0.886
800	-0.895
801	-0.891
801	-0.896
801	-0.894
802	-0.893
802	-0.892
803	-0.886
803	-0.879
804	-0.883
804	-0.891
804	-0.875
805	-0.857
805	-0.849
806	-0.847
806	-0.842
807	-0.844
807	-0.845
807	-0.827
808	-0.822
808	-0.814
809	-0.81
809	-0.811
810	-0.813
810	-0.809
810	-0.805
811	-0.807
811	-0.798
812	-0.791
812	-0.793
813	-0.797
813	-0.799
813	-0.793
814	-0.794
814	-0.799
815	-0.791
815	-0.788
816	-0.784
816	-0.801
817	-0.812
817	-0.816
817	-0.827
818	-0.82
818	-0.818
819	-0.828
819	-0.826
820	-0.838
820	-0.837
820	-0.837
821	-0.832
821	-0.828
822	-0.826
822	-0.813
823	-0.824
823	-0.823
823	-0.818
824	-0.817
824	-0.826
825	-0.825
825	-0.822
826	-0.817
826	-0.812
826	-0.812
827	-0.813
827	-0.802
828	-0.802
828	-0.795
829	-0.788
829	-0.772
829	-0.769
830	-0.768
830	-0.755
831	-0.749
831	-0.739
832	-0.729
832	-0.726
832	-0.721
833	-0.719
833	-0.724
834	-0.721
834	-0.715
835	-0.706
835	-0.707
835	-0.701
836	-0.696
836	-0.692
837	-0.683
837	-0.674
838	-0.661
838	-0.645
839	-0.64
839	-0.628
839	-0.619
840	-0.617
840	-0.607
841	-0.596
841	-0.588
842	-0.578
842	-0.566
842	-0.562
843	-0.559
843	-0.554
844	-0.551
844	-0.54
845	-0.526
845	-0.516
845	-0.506
846	-0.494
846	-0.485
847	-0.473
847	-0.462
848	-0.447
848	-0.429
848	-0.417
849	-0.405
849	-0.392
850	-0.382
850	-0.372
851	-0.359
851	-0.343
851	-0.334
852	-0.318
852	-0.305
853	-0.296
853	-0.285
854	-0.274
854	-0.264
854	-0.251
855	-0.241
855	-0.234
856	-0.226
856	-0.217
857	-0.21
857	-0.203
857	-0.189
858	-0.178
858	-0.171
859	-0.16
859	-0.149
860	-0.138
860	-0.124
860	-0.114
861	-0.104
861	-0.093
862	-0.085
862	-0.077
863	-0.069
863	-0.06
863	-0.054
864	-0.047
864	-0.04
865	-0.033
865	-0.027
866	-0.021
866	-0.016
866	-0.011
867	-0.006
867	-0
868	0.004
868	0.009
869	0.014
869	0.017
869	0.019
870	0.021
870	0.023
871	0.025
871	0.027
872	0.028
872	0.029
872	0.029
873	0.029
873	0.029
874	0.029
874	0.028
875	0.028
875	0.028
875	0.028
876	0.028
876	0.027
877	0.027
877	0.026
878	0.026
878	0.026
878	0.025
879	0.025
879	0.025
880	0.024
880	0.023
881	0.021
881	0.02
881	0.018
882	0.017
882	0.015
883	0.014
883	0.013
884	0.012
884	0.011
884	0.011
885	0.011
885	0.011
886	0.011
886	0.011
887	0.011
887	0.01
887	0.01
888	0.01
888	0.01
889	0.009
889	0.008
890	0.007
890	0.006
890	0.005
891	0.006
891	0.005
892	0.006
892	0.006
893	0.007
893	0.007
893	0.007
894	0.008
894	0.008
895	0.008
895	0.009
895	0.009
896	0.009
896	0.009
897	0.009
897	0.009
898	0.009
898	0.009
898	0.009
899	0.01
899	0.01
900	0.01
900	0.01
901	0.01
901	0.01
901	0.009
902	0.009
902	0.009
903	0.009
903	0.008
904	0.007
904	0.007
904	0.007
905	0.007
905	0.007
906	0.007
906	0.008
907	0.008
907	0.009
907	0.009
908	0.01
908	0.011
909	0.011
909	0.012
910	0.012
910	0.013
910	0.013
911	0.014
911	0.015
912	0.015
912	0.016
913	0.017
913	0.017
913	0.018
914	0.018
914	0.019
915	0.019
915	0.019
916	0.019
916	0.018
916	0.018
917	0.017
917	0.017
918	0.016
918	0.015
918	0.015
919	0.014
919	0.014
920	0.014
920	0.014
921	0.015
921	0.015
921	0.015
922	0.015
922	0.016
923	0.016
923	0.016
924	0.016
924	0.015
924	0.014
925	0.013
925	0.012
926	0.01
926	0.009
927	0.008
927	0.007
927	0.006
928	0.005
928	0.005
929	0.005
929	0.006
930	0.006
930	0.007
930	0.008
931	0.009
931	0.01
932	0.011
932	0.012
933	0.013
933	0.014
933	0.014
934	0.013
934	0.013
935	0.013
935	0.012
935	0.011
936	0.009
936	0.008
937	0.007
937	0.006
938	0.006
938	0.005
938	0.004
939	0.004
939	0.003
940	0.002
940	0.002
941	0.001
941	0
941	-0
942	-0
942	-0.001
943	-0.001
943	-0.001
944	-0.001
944	-0.002
944	-0.002
945	-0.002
945	-0.002
946	-0.003
946	-0.004
946	-0.004
947	-0.004
947	-0.004
948	-0.004
948	-0.004
949	-0.003
949	-0.001
949	0
950	0.002
950	0.003
951	0.005
951	0.006
952	0.007
952	0.008
952	0.009
953	0.01
953	0.01
954	0.01
954	0.01
955	0.01
955	0.01
955	0.01
956	0.009
956	0.008
957	0.007
957	0.006
957	0.005
958	0.005
958	0.004
959	0.004
959	0.003
960	0.002
960	0.002
960	0.003
961	0.003
961	0.003
962	0.004
962	0.004
963	0.005
963	0.005
963	0.006
964	0.006
964	0.007
965	0.008
965	0.008
966	0.009
966	0.009
966	0.01
967	0.01
967	0.01
968	0.01
968	0.01
968	0.01
969	0.01
969	0.01
970	0.009
970	0.009
971	0.008
971	0.008
971	0.008
972	0.009
972	0.009
973	0.009
973	0.009
974	0.009
974	0.008
974	0.009
975	0.009
975	0.009
976	0.008
976	0.008
976	0.008
977	0.007
977	0.007
978	0.006
978	0.005
979	0.005
979	0.004
979	0.004
980	0.003
980	0.003
981	0.003
981	0.002
982	0.002
982	0.002
982	0.002
983	0.002
983	0.002
984	0.002
984	0.002
984	0.002
985	0.002
985	0.001
986	0.001
986	0
987	-0.001
987	-0.001
987	-0.002
988	-0.002
988	-0.003
989	-0.004
989	-0.004
990	-0.005
990	-0.006
990	-0.007
991	-0.007
991	-0.008
992	-0.009
992	-0.01
992	-0.01
993	-0.011
993	-0.012
994	-0.014
994	-0.015
995	-0.016
995	-0.017
995	-0.019
996	-0.02
996	-0.021
997	-0.022
997	-0.023
997	-0.023
998	-0.023
998	-0.023
999	-0.023
999	-0.022
1000	-0.022
1000	-0.021
1000	-0.02
1001	-0.02
1001	-0.019
1002	-0.018
1002	-0.017
1003	-0.016
1003	-0.016
1003	-0.016
1004	-0.015
1004	-0.015
1005	-0.015
1005	-0.016
1005	-0.016
1006	-0.017
1006	-0.018
1007	-0.018
1007	-0.019
1008	-0.02
1008	-0.021
1008	-0.021
1009	-0.022
1009	-0.021
1010	-0.021
1010	-0.02
1010	-0.02
1011	-0.019
1011	-0.019
1012	-0.018
1012	-0.016
1013	-0.015
1013	-0.015
1013	-0.014
1014	-0.013
1014	-0.013
1015	-0.012
1015	-0.011
1016	-0.011
1016	-0.011
1016	-0.011
1017	-0.012
1017	-0.012
1018	-0.011
1018	-0.012
1018	-0.012
1019	-0.012
1019	-0.013
1020	-0.013
1020	-0.014
1021	-0.014
1021	-0.014
1021	-0.014
1022	-0.015
1022	-0.015
1023	-0.015
1023	-0.015
1023	-0.015
1024	-0.015
1024	-0.015
1025	-0.015
1025	-0.015
1026	-0.015
1026	-0.015
1026	-0.015
1027	-0.015
1027	-0.015
1028	-0.014
1028	-0.013
1028	-0.013
1029	-0.014
1029	-0.013
1030	-0.013
1030	-0.014
1031	-0.014
1031	-0.013
1031	-0.013
1032	-0.013
1032	-0.013
1033	-0.014
1033	-0.014
1033	-0.014
1034	-0.015
1034	-0.016
1035	-0.016
1035	-0.017
1036	-0.018
1036	-0.019
1036	-0.019
1037	-0.02
1037	-0.02
1038	-0.02
1038	-0.02
1039	-0.02
1039	-0.02
1039	-0.02
1040	-0.02
1040	-0.019
1041	-0.019
1041	-0.019
1041	-0.02
1042	-0.02
1042	-0.021
1043	-0.021
1043	-0.022
1044	-0.022
1044	-0.023
1044	-0.023
1045	-0.024
1045	-0.024
1046	-0.024
1046	-0.024
1046	-0.024
1047	-0.024
1047	-0.024
1048	-0.024
1048	-0.024
1049	-0.024
1049	-0.025
1049	-0.025
1050	-0.026
1050	-0.027
1051	-0.028
1051	-0.029
1051	-0.029
1052	-0.03
1052	-0.031
1053	-0.032
1053	-0.032
1053	-0.032
1054	-0.033
1054	-0.033
1055	-0.032
1055	-0.032
1056	-0.032
1056	-0.032
1056	-0.032
1057	-0.032
1057	-0.032
1058	-0.032
1058	-0.032
1058	-0.032
1059	-0.032
1059	-0.033
1060	-0.033
1060	-0.033
1061	-0.034
1061	-0.034
1061	-0.034
1062	-0.034
1062	-0.034
1063	-0.034
1063	-0.035
1063	-0.035
1064	-0.035
1064	-0.034
1065	-0.034
1065	-0.035
1066	-0.035
1066	-0.036
1066	-0.036
1067	-0.037
1067	-0.038
1068	-0.039
1068	-0.04
1068	-0.04
1069	-0.041
1069	-0.043
1070	-0.043
1070	-0.044
1071	-0.044
1071	-0.045
1071	-0.045
1072	-0.045
1072	-0.045
1073	-0.045
1073	-0.045
1073	-0.045
1074	-0.045
1074	-0.045
1075	-0.045
1075	-0.045
1076	-0.046
1076	-0.046
1076	-0.047
1077	-0.048
1077	-0.049
1078	-0.049
1078	-0.05
1078	-0.05
1079	-0.051
1079	-0.051
1080	-0.052
1080	-0.053
1080	-0.055
1081	-0.056
1081	-0.056
1082	-0.057
1082	-0.059
1083	-0.06
1083	-0.061
1083	-0.062
1084	-0.064
1084	-0.064
1085	-0.066
1085	-0.067
1085	-0.067
1086	-0.068
1086	-0.07
1087	-0.071
1087	-0.071
1088	-0.073
1088	-0.073
1088	-0.074
1089	-0.075
1089	-0.076
1090	-0.076
1090	-0.077
1090	-0.078
1091	-0.079
1091	-0.079
1092	-0.079
1092	-0.08
1092	-0.081
1093	-0.081
1093	-0.081
1094	-0.081
1094	-0.083
1095	-0.084
1095	-0.085
1095	-0.085
1096	-0.088
1096	-0.089
1097	-0.09
1097	-0.092
1097	-0.094
1098	-0.096
1098	-0.099
1099	-0.1
1099	-0.102
1100	-0.104
1100	-0.106
1100	-0.109
1101	-0.111
1101	-0.114
1102	-0.117
1102	-0.119
1102	-0.121
1103	-0.123
1103	-0.126
1104	-0.129
1104	-0.132
1104	-0.134
1105	-0.135
1105	-0.138
1106	-0.143
1106	-0.145
1107	-0.15
1107	-0.155
1107	-0.161
1108	-0.163
1108	-0.164
1109	-0.168
1109	-0.171
1109	-0.176
1110	-0.179
1110	-0.181
1111	-0.19
1111	-0.186
