Data from 3.3A_17C_Absorbance__875__03742.txt Node

Date: Tue Jun 20 17:43:51 CEST 2023
User: Marek
Spectrometer: MAYP115816
Trigger mode: 0
Integration Time (sec): 2.200000E-1
Scans to average: 10
Electric dark correction enabled: true
Nonlinearity correction enabled: true
Boxcar width: 5
XAxis mode: Wavelengths
Number of Pixels in Spectrum: 2068
>>>>>Begin Spectral Data<<<<<
199	-0.807
199	-0.791
200	-0.757
200	-0.704
201	-0.676
201	-0.667
202	-0.651
202	-0.644
203	-0.642
203	-0.635
204	-0.615
204	-0.598
205	-0.574
205	-0.563
205	-0.569
206	-0.57
206	-0.565
207	-0.556
207	-0.561
208	-0.561
208	-0.565
209	-0.566
209	-0.57
210	-0.583
210	-0.59
211	-0.585
211	-0.59
212	-0.599
212	-0.608
213	-0.605
213	-0.602
213	-0.6
214	-0.607
214	-0.61
215	-0.608
215	-0.612
216	-0.621
216	-0.625
217	-0.624
217	-0.622
218	-0.629
218	-0.631
219	-0.638
219	-0.641
220	-0.645
220	-0.651
221	-0.651
221	-0.652
221	-0.643
222	-0.642
222	-0.641
223	-0.638
223	-0.64
224	-0.64
224	-0.637
225	-0.634
225	-0.636
226	-0.637
226	-0.636
227	-0.644
227	-0.654
228	-0.656
228	-0.664
229	-0.669
229	-0.667
229	-0.668
230	-0.663
230	-0.662
231	-0.659
231	-0.653
232	-0.655
232	-0.65
233	-0.653
233	-0.642
234	-0.64
234	-0.635
235	-0.638
235	-0.65
236	-0.655
236	-0.657
236	-0.658
237	-0.657
237	-0.659
238	-0.657
238	-0.66
239	-0.662
239	-0.672
240	-0.665
240	-0.659
241	-0.655
241	-0.657
242	-0.661
242	-0.671
243	-0.672
243	-0.674
243	-0.677
244	-0.676
244	-0.678
245	-0.68
245	-0.685
246	-0.695
246	-0.7
247	-0.707
247	-0.693
248	-0.691
248	-0.695
249	-0.7
249	-0.7
250	-0.698
250	-0.708
250	-0.706
251	-0.706
251	-0.701
252	-0.702
252	-0.713
253	-0.709
253	-0.72
254	-0.725
254	-0.726
255	-0.736
255	-0.735
256	-0.738
256	-0.751
257	-0.762
257	-0.758
258	-0.761
258	-0.769
258	-0.767
259	-0.759
259	-0.778
260	-0.777
260	-0.766
261	-0.774
261	-0.759
262	-0.765
262	-0.764
263	-0.752
263	-0.756
264	-0.767
264	-0.77
265	-0.76
265	-0.763
265	-0.773
266	-0.766
266	-0.767
267	-0.766
267	-0.784
268	-0.793
268	-0.787
269	-0.78
269	-0.795
270	-0.799
270	-0.799
271	-0.812
271	-0.823
272	-0.823
272	-0.827
272	-0.818
273	-0.827
273	-0.842
274	-0.833
274	-0.828
275	-0.825
275	-0.813
276	-0.816
276	-0.82
277	-0.822
277	-0.82
278	-0.825
278	-0.825
278	-0.812
279	-0.821
279	-0.832
280	-0.834
280	-0.846
281	-0.84
281	-0.832
282	-0.84
282	-0.833
283	-0.827
283	-0.842
284	-0.858
284	-0.868
285	-0.85
285	-0.856
285	-0.847
286	-0.853
286	-0.869
287	-0.865
287	-0.864
288	-0.864
288	-0.844
289	-0.842
289	-0.851
290	-0.859
290	-0.848
291	-0.849
291	-0.845
292	-0.825
292	-0.821
292	-0.825
293	-0.813
293	-0.809
294	-0.809
294	-0.793
295	-0.775
295	-0.788
296	-0.803
296	-0.798
297	-0.788
297	-0.793
298	-0.789
298	-0.806
298	-0.809
299	-0.791
299	-0.783
300	-0.779
300	-0.76
301	-0.74
301	-0.742
302	-0.752
302	-0.738
303	-0.731
303	-0.721
304	-0.704
304	-0.706
305	-0.701
305	-0.71
305	-0.726
306	-0.712
306	-0.71
307	-0.7
307	-0.711
308	-0.714
308	-0.708
309	-0.709
309	-0.706
310	-0.703
310	-0.697
311	-0.683
311	-0.701
311	-0.69
312	-0.688
312	-0.676
313	-0.668
313	-0.67
314	-0.674
314	-0.672
315	-0.67
315	-0.665
316	-0.66
316	-0.649
317	-0.64
317	-0.638
318	-0.63
318	-0.627
318	-0.615
319	-0.606
319	-0.599
320	-0.597
320	-0.594
321	-0.588
321	-0.589
322	-0.584
322	-0.577
323	-0.578
323	-0.568
324	-0.566
324	-0.555
324	-0.545
325	-0.528
325	-0.511
326	-0.505
326	-0.479
327	-0.464
327	-0.442
328	-0.411
328	-0.388
329	-0.36
329	-0.332
330	-0.305
330	-0.27
330	-0.237
331	-0.2
331	-0.167
332	-0.135
332	-0.103
333	-0.075
333	-0.043
334	-0.015
334	0.009
335	0.035
335	0.056
336	0.078
336	0.097
336	0.112
337	0.129
337	0.144
338	0.157
338	0.166
339	0.179
339	0.188
340	0.196
340	0.204
341	0.21
341	0.216
342	0.223
342	0.228
342	0.233
343	0.236
343	0.241
344	0.244
344	0.247
345	0.25
345	0.252
346	0.254
346	0.256
347	0.258
347	0.259
348	0.26
348	0.261
348	0.262
349	0.263
349	0.264
350	0.264
350	0.265
351	0.265
351	0.265
352	0.265
352	0.265
353	0.266
353	0.266
354	0.266
354	0.266
354	0.266
355	0.266
355	0.266
356	0.266
356	0.266
357	0.266
357	0.266
358	0.265
358	0.266
359	0.266
359	0.266
360	0.266
360	0.267
360	0.267
361	0.267
361	0.267
362	0.267
362	0.267
363	0.267
363	0.267
364	0.267
364	0.267
365	0.267
365	0.267
366	0.267
366	0.267
366	0.267
367	0.267
367	0.267
368	0.266
368	0.266
369	0.266
369	0.266
370	0.266
370	0.266
371	0.265
371	0.266
372	0.265
372	0.265
372	0.265
373	0.265
373	0.265
374	0.265
374	0.265
375	0.265
375	0.265
376	0.265
376	0.264
377	0.264
377	0.264
378	0.263
378	0.263
378	0.263
379	0.262
379	0.262
380	0.262
380	0.262
381	0.262
381	0.262
382	0.262
382	0.262
383	0.262
383	0.262
383	0.261
384	0.261
384	0.261
385	0.261
385	0.261
386	0.261
386	0.261
387	0.261
387	0.26
388	0.26
388	0.26
389	0.26
389	0.26
389	0.26
390	0.26
390	0.26
391	0.26
391	0.259
392	0.259
392	0.259
393	0.259
393	0.259
394	0.259
394	0.258
394	0.258
395	0.258
395	0.257
396	0.257
396	0.257
397	0.256
397	0.256
398	0.256
398	0.256
399	0.255
399	0.255
400	0.255
400	0.255
400	0.255
401	0.255
401	0.254
402	0.254
402	0.254
403	0.254
403	0.254
404	0.254
404	0.254
405	0.253
405	0.253
405	0.253
406	0.253
406	0.253
407	0.253
407	0.253
408	0.253
408	0.252
409	0.252
409	0.252
410	0.252
410	0.252
411	0.252
411	0.252
411	0.251
412	0.251
412	0.251
413	0.25
413	0.25
414	0.25
414	0.25
415	0.249
415	0.249
416	0.249
416	0.249
416	0.248
417	0.248
417	0.248
418	0.248
418	0.248
419	0.248
419	0.248
420	0.248
420	0.248
421	0.248
421	0.248
421	0.248
422	0.248
422	0.249
423	0.248
423	0.248
424	0.248
424	0.247
425	0.247
425	0.247
426	0.247
426	0.247
427	0.247
427	0.247
427	0.247
428	0.247
428	0.247
429	0.247
429	0.247
430	0.247
430	0.246
431	0.246
431	0.246
432	0.245
432	0.245
432	0.245
433	0.244
433	0.244
434	0.244
434	0.245
435	0.245
435	0.245
436	0.245
436	0.245
437	0.245
437	0.245
437	0.245
438	0.245
438	0.245
439	0.244
439	0.244
440	0.244
440	0.244
441	0.244
441	0.244
442	0.244
442	0.244
442	0.244
443	0.244
443	0.243
444	0.243
444	0.244
445	0.244
445	0.244
446	0.243
446	0.243
447	0.244
447	0.244
447	0.244
448	0.244
448	0.244
449	0.244
449	0.244
450	0.244
450	0.244
451	0.244
451	0.244
452	0.244
452	0.243
452	0.243
453	0.243
453	0.243
454	0.243
454	0.243
455	0.243
455	0.243
456	0.243
456	0.243
457	0.243
457	0.243
458	0.243
458	0.243
458	0.243
459	0.243
459	0.242
460	0.242
460	0.242
461	0.242
461	0.243
462	0.243
462	0.244
463	0.244
463	0.245
463	0.245
464	0.245
464	0.246
465	0.246
465	0.247
466	0.247
466	0.247
467	0.247
467	0.247
467	0.247
468	0.246
468	0.246
469	0.246
469	0.247
470	0.247
470	0.247
471	0.248
471	0.248
472	0.248
472	0.248
472	0.249
473	0.25
473	0.25
474	0.25
474	0.251
475	0.251
475	0.252
476	0.252
476	0.253
477	0.254
477	0.254
477	0.254
478	0.254
478	0.255
479	0.255
479	0.256
480	0.256
480	0.257
481	0.257
481	0.257
482	0.258
482	0.259
482	0.26
483	0.262
483	0.263
484	0.264
484	0.264
485	0.265
485	0.265
486	0.266
486	0.267
487	0.268
487	0.268
487	0.269
488	0.269
488	0.269
489	0.27
489	0.272
490	0.273
490	0.274
491	0.275
491	0.276
492	0.277
492	0.278
492	0.279
493	0.28
493	0.281
494	0.283
494	0.284
495	0.285
495	0.286
496	0.287
496	0.288
496	0.29
497	0.292
497	0.293
498	0.295
498	0.296
499	0.297
499	0.299
500	0.301
500	0.303
501	0.304
501	0.305
501	0.307
502	0.308
502	0.31
503	0.311
503	0.313
504	0.314
504	0.316
505	0.318
505	0.32
506	0.322
506	0.324
506	0.327
507	0.329
507	0.331
508	0.333
508	0.335
509	0.337
509	0.339
510	0.341
510	0.342
511	0.344
511	0.346
511	0.347
512	0.348
512	0.349
513	0.35
513	0.352
514	0.353
514	0.355
515	0.356
515	0.358
515	0.359
516	0.36
516	0.362
517	0.363
517	0.364
518	0.366
518	0.366
519	0.367
519	0.368
520	0.369
520	0.371
520	0.372
521	0.373
521	0.374
522	0.374
522	0.376
523	0.377
523	0.378
524	0.379
524	0.38
524	0.381
525	0.382
525	0.382
526	0.383
526	0.384
527	0.385
527	0.385
528	0.385
528	0.385
529	0.385
529	0.385
529	0.385
530	0.385
530	0.385
531	0.385
531	0.384
532	0.384
532	0.384
533	0.384
533	0.383
533	0.383
534	0.383
534	0.382
535	0.382
535	0.381
536	0.381
536	0.381
537	0.38
537	0.38
538	0.379
538	0.378
538	0.377
539	0.377
539	0.376
540	0.374
540	0.373
541	0.371
541	0.37
542	0.369
542	0.368
542	0.367
543	0.366
543	0.364
544	0.363
544	0.362
545	0.361
545	0.36
546	0.359
546	0.357
547	0.355
547	0.353
547	0.351
548	0.35
548	0.348
549	0.346
549	0.345
550	0.343
550	0.341
551	0.339
551	0.338
551	0.336
552	0.335
552	0.333
553	0.332
553	0.33
554	0.328
554	0.326
555	0.324
555	0.322
556	0.321
556	0.319
556	0.317
557	0.315
557	0.314
558	0.312
558	0.311
559	0.309
559	0.308
560	0.306
560	0.304
560	0.303
561	0.302
561	0.301
562	0.3
562	0.298
563	0.297
563	0.296
564	0.295
564	0.294
564	0.293
565	0.293
565	0.292
566	0.291
566	0.29
567	0.289
567	0.289
568	0.288
568	0.286
568	0.285
569	0.284
569	0.283
570	0.281
570	0.278
571	0.278
571	0.276
572	0.275
572	0.273
573	0.271
573	0.27
573	0.268
574	0.267
574	0.266
575	0.266
575	0.266
576	0.266
576	0.264
577	0.262
577	0.261
577	0.261
578	0.261
578	0.261
579	0.262
579	0.262
580	0.26
580	0.257
581	0.254
581	0.254
581	0.254
582	0.254
582	0.254
583	0.254
583	0.253
584	0.25
584	0.248
585	0.249
585	0.25
585	0.25
586	0.25
586	0.249
587	0.248
587	0.246
588	0.245
588	0.244
589	0.244
589	0.244
590	0.243
590	0.242
590	0.243
591	0.244
591	0.243
592	0.242
592	0.241
593	0.241
593	0.241
594	0.24
594	0.239
594	0.238
595	0.238
595	0.237
596	0.236
596	0.237
597	0.238
597	0.238
598	0.237
598	0.237
598	0.237
599	0.237
599	0.236
600	0.236
600	0.235
601	0.235
601	0.235
602	0.234
602	0.234
602	0.233
603	0.233
603	0.234
604	0.234
604	0.234
605	0.235
605	0.235
606	0.234
606	0.233
606	0.232
607	0.232
607	0.232
608	0.231
608	0.23
609	0.229
609	0.229
610	0.228
610	0.227
610	0.227
611	0.228
611	0.228
612	0.228
612	0.228
613	0.228
613	0.228
614	0.227
614	0.225
614	0.225
615	0.224
615	0.223
616	0.222
616	0.221
617	0.221
617	0.22
618	0.219
618	0.219
618	0.218
619	0.218
619	0.218
620	0.218
620	0.217
621	0.216
621	0.215
622	0.214
622	0.213
622	0.211
623	0.21
623	0.211
624	0.21
624	0.21
625	0.209
625	0.209
626	0.208
626	0.207
626	0.208
627	0.207
627	0.207
628	0.207
628	0.206
629	0.205
629	0.204
630	0.202
630	0.201
630	0.2
631	0.199
631	0.198
632	0.196
632	0.194
633	0.192
633	0.19
634	0.189
634	0.187
634	0.185
635	0.184
635	0.182
636	0.18
636	0.178
637	0.175
637	0.173
638	0.171
638	0.168
638	0.165
639	0.162
639	0.159
640	0.155
640	0.152
641	0.148
641	0.145
642	0.141
642	0.138
642	0.134
643	0.13
643	0.125
644	0.12
644	0.116
645	0.111
645	0.106
646	0.101
646	0.095
646	0.089
647	0.082
647	0.075
648	0.069
648	0.061
649	0.054
649	0.047
650	0.04
650	0.033
650	0.025
651	0.015
651	0.003
652	-0.011
652	-0.025
653	-0.039
653	-0.05
653	-0.046
654	-0.028
654	-0.023
655	-0.029
655	-0.035
656	-0.041
656	-0.049
657	-0.054
657	-0.06
657	-0.068
658	-0.076
658	-0.108
659	-0.196
659	-0.289
660	-0.33
660	-0.359
661	-0.388
661	-0.419
661	-0.451
662	-0.48
662	-0.512
663	-0.547
663	-0.585
664	-0.624
664	-0.667
665	-0.714
665	-0.761
665	-0.806
666	-0.857
666	-0.913
667	-0.969
667	-1.032
668	-1.091
668	-1.16
669	-1.228
669	-1.302
669	-1.381
670	-1.465
670	-1.589
671	-1.788
671	-2.105
672	-2.334
672	-2.49
672	-2.607
673	-2.701
673	-2.779
674	-2.85
674	-2.868
675	-2.884
675	-2.887
676	-2.881
676	-2.833
676	-2.767
677	-2.687
677	-2.593
678	-2.455
678	-2.239
679	-1.828
679	-1.64
680	-1.532
680	-1.452
680	-1.382
681	-1.331
681	-1.276
682	-1.234
682	-1.19
683	-1.147
683	-1.122
684	-1.092
684	-1.072
684	-1.049
685	-1.027
685	-1.016
686	-0.993
686	-0.978
687	-0.968
687	-0.956
687	-0.956
688	-0.941
688	-0.933
689	-0.936
689	-0.934
690	-0.92
690	-0.91
691	-0.906
691	-0.91
691	-0.909
692	-0.91
692	-0.905
693	-0.911
693	-0.922
694	-0.899
694	-0.898
695	-0.901
695	-0.894
695	-0.902
696	-0.908
696	-0.901
697	-0.893
697	-0.889
698	-0.883
698	-0.876
698	-0.893
699	-0.891
699	-0.892
700	-0.911
700	-0.905
701	-0.891
701	-0.885
702	-0.887
702	-0.886
702	-0.887
703	-0.876
703	-0.862
704	-0.869
704	-0.872
705	-0.86
705	-0.859
705	-0.855
706	-0.846
706	-0.842
707	-0.854
707	-0.858
708	-0.856
708	-0.854
709	-0.855
709	-0.852
709	-0.847
710	-0.854
710	-0.856
711	-0.856
711	-0.855
712	-0.847
712	-0.843
713	-0.847
713	-0.848
713	-0.829
714	-0.831
714	-0.836
715	-0.827
715	-0.835
716	-0.853
716	-0.863
716	-0.864
717	-0.87
717	-0.862
718	-0.857
718	-0.858
719	-0.854
719	-0.845
720	-0.842
720	-0.837
720	-0.831
721	-0.823
721	-0.826
722	-0.824
722	-0.819
723	-0.837
723	-0.848
723	-0.857
724	-0.856
724	-0.861
725	-0.855
725	-0.858
726	-0.86
726	-0.851
727	-0.853
727	-0.863
727	-0.852
728	-0.84
728	-0.835
729	-0.837
729	-0.839
730	-0.844
730	-0.834
730	-0.841
731	-0.844
731	-0.845
732	-0.844
732	-0.84
733	-0.855
733	-0.863
734	-0.871
734	-0.863
734	-0.845
735	-0.835
735	-0.829
736	-0.828
736	-0.822
737	-0.823
737	-0.812
737	-0.804
738	-0.79
738	-0.778
739	-0.78
739	-0.782
740	-0.796
740	-0.798
741	-0.809
741	-0.819
741	-0.827
742	-0.834
742	-0.849
743	-0.856
743	-0.858
744	-0.862
744	-0.869
744	-0.863
745	-0.872
745	-0.86
746	-0.854
746	-0.846
747	-0.85
747	-0.84
748	-0.842
748	-0.847
748	-0.849
749	-0.841
749	-0.847
750	-0.836
750	-0.836
751	-0.834
751	-0.83
751	-0.841
752	-0.846
752	-0.849
753	-0.852
753	-0.845
754	-0.865
754	-0.866
754	-0.874
755	-0.876
755	-0.87
756	-0.874
756	-0.86
757	-0.851
757	-0.839
758	-0.838
758	-0.837
758	-0.832
759	-0.838
759	-0.838
760	-0.837
760	-0.838
761	-0.829
761	-0.833
761	-0.835
762	-0.84
762	-0.841
763	-0.84
763	-0.844
764	-0.841
764	-0.837
764	-0.842
765	-0.842
765	-0.848
766	-0.851
766	-0.853
767	-0.87
767	-0.863
768	-0.862
768	-0.854
768	-0.85
769	-0.852
769	-0.86
770	-0.871
770	-0.875
771	-0.873
771	-0.871
771	-0.876
772	-0.882
772	-0.903
773	-0.905
773	-0.905
774	-0.904
774	-0.887
775	-0.873
775	-0.874
775	-0.874
776	-0.885
776	-0.882
777	-0.881
777	-0.864
778	-0.872
778	-0.88
778	-0.879
779	-0.887
779	-0.903
780	-0.9
780	-0.91
781	-0.9
781	-0.888
781	-0.902
782	-0.923
782	-0.924
783	-0.924
783	-0.932
784	-0.937
784	-0.932
784	-0.951
785	-0.945
785	-0.958
786	-0.962
786	-0.955
787	-0.944
787	-0.951
788	-0.943
788	-0.937
788	-0.937
789	-0.936
789	-0.926
790	-0.925
790	-0.909
791	-0.916
791	-0.912
791	-0.905
792	-0.9
792	-0.905
793	-0.907
793	-0.896
794	-0.889
794	-0.88
794	-0.887
795	-0.908
795	-0.894
796	-0.899
796	-0.895
797	-0.887
797	-0.876
797	-0.869
798	-0.89
798	-0.894
799	-0.894
799	-0.878
800	-0.873
800	-0.883
801	-0.88
801	-0.885
801	-0.882
802	-0.882
802	-0.88
803	-0.876
803	-0.866
804	-0.874
804	-0.883
804	-0.865
805	-0.845
805	-0.837
806	-0.837
806	-0.834
807	-0.837
807	-0.838
807	-0.82
808	-0.818
808	-0.81
809	-0.804
809	-0.804
810	-0.807
810	-0.804
810	-0.8
811	-0.802
811	-0.792
812	-0.785
812	-0.787
813	-0.791
813	-0.793
813	-0.789
814	-0.79
814	-0.795
815	-0.785
815	-0.782
816	-0.778
816	-0.795
817	-0.807
817	-0.809
817	-0.819
818	-0.812
818	-0.81
819	-0.819
819	-0.817
820	-0.829
820	-0.829
820	-0.827
821	-0.822
821	-0.817
822	-0.818
822	-0.806
823	-0.816
823	-0.814
823	-0.809
824	-0.808
824	-0.82
825	-0.819
825	-0.817
826	-0.813
826	-0.808
826	-0.807
827	-0.807
827	-0.798
828	-0.798
828	-0.793
829	-0.785
829	-0.77
829	-0.766
830	-0.764
830	-0.749
831	-0.742
831	-0.731
832	-0.722
832	-0.715
832	-0.708
833	-0.707
833	-0.713
834	-0.707
834	-0.702
835	-0.695
835	-0.695
835	-0.691
836	-0.687
836	-0.684
837	-0.675
837	-0.665
838	-0.653
838	-0.636
839	-0.63
839	-0.616
839	-0.605
840	-0.602
840	-0.59
841	-0.578
841	-0.571
842	-0.561
842	-0.548
842	-0.543
843	-0.539
843	-0.532
844	-0.531
844	-0.519
845	-0.507
845	-0.499
845	-0.487
846	-0.475
846	-0.465
847	-0.454
847	-0.44
848	-0.426
848	-0.41
848	-0.396
849	-0.383
849	-0.37
850	-0.358
850	-0.347
851	-0.331
851	-0.312
851	-0.303
852	-0.286
852	-0.271
853	-0.262
853	-0.249
854	-0.236
854	-0.224
854	-0.211
855	-0.199
855	-0.192
856	-0.184
856	-0.175
857	-0.167
857	-0.158
857	-0.143
858	-0.132
858	-0.123
859	-0.111
859	-0.098
860	-0.086
860	-0.07
860	-0.059
861	-0.047
861	-0.036
862	-0.027
862	-0.019
863	-0.009
863	0
863	0.007
864	0.013
864	0.021
865	0.029
865	0.036
866	0.043
866	0.05
866	0.056
867	0.062
867	0.069
868	0.074
868	0.079
869	0.085
869	0.088
869	0.091
870	0.093
870	0.095
871	0.097
871	0.099
872	0.1
872	0.1
872	0.101
873	0.101
873	0.1
874	0.099
874	0.099
875	0.098
875	0.098
875	0.097
876	0.097
876	0.096
877	0.096
877	0.095
878	0.094
878	0.094
878	0.094
879	0.094
879	0.094
880	0.094
880	0.093
881	0.092
881	0.091
881	0.09
882	0.089
882	0.087
883	0.086
883	0.084
884	0.082
884	0.081
884	0.081
885	0.081
885	0.081
886	0.081
886	0.08
887	0.08
887	0.079
887	0.078
888	0.078
888	0.077
889	0.076
889	0.075
890	0.074
890	0.073
890	0.072
891	0.072
891	0.072
892	0.072
892	0.072
893	0.073
893	0.073
893	0.073
894	0.074
894	0.074
895	0.074
895	0.074
895	0.074
896	0.074
896	0.073
897	0.074
897	0.074
898	0.074
898	0.074
898	0.074
899	0.074
899	0.074
900	0.075
900	0.075
901	0.075
901	0.075
901	0.074
902	0.075
902	0.075
903	0.075
903	0.074
904	0.074
904	0.074
904	0.073
905	0.073
905	0.073
906	0.074
906	0.074
907	0.073
907	0.073
907	0.073
908	0.073
908	0.073
909	0.074
909	0.074
910	0.075
910	0.076
910	0.076
911	0.077
911	0.078
912	0.079
912	0.08
913	0.081
913	0.081
913	0.082
914	0.082
914	0.082
915	0.082
915	0.082
916	0.081
916	0.081
916	0.081
917	0.08
917	0.08
918	0.08
918	0.079
918	0.079
919	0.078
919	0.078
920	0.078
920	0.079
921	0.079
921	0.079
921	0.079
922	0.079
922	0.079
923	0.079
923	0.079
924	0.079
924	0.078
924	0.077
925	0.076
925	0.076
926	0.075
926	0.074
927	0.073
927	0.073
927	0.072
928	0.072
928	0.072
929	0.073
929	0.073
930	0.074
930	0.075
930	0.076
931	0.076
931	0.077
932	0.078
932	0.079
933	0.08
933	0.08
933	0.08
934	0.079
934	0.078
935	0.078
935	0.077
935	0.075
936	0.074
936	0.073
937	0.072
937	0.071
938	0.07
938	0.069
938	0.069
939	0.068
939	0.067
940	0.067
940	0.066
941	0.065
941	0.064
941	0.064
942	0.063
942	0.062
943	0.062
943	0.061
944	0.061
944	0.06
944	0.06
945	0.059
945	0.059
946	0.058
946	0.058
946	0.057
947	0.057
947	0.057
948	0.057
948	0.058
949	0.058
949	0.06
949	0.061
950	0.062
950	0.063
951	0.065
951	0.066
952	0.067
952	0.068
952	0.068
953	0.069
953	0.07
954	0.07
954	0.07
955	0.07
955	0.069
955	0.069
956	0.067
956	0.067
957	0.066
957	0.064
957	0.063
958	0.062
958	0.061
959	0.06
959	0.059
960	0.059
960	0.058
960	0.059
961	0.059
961	0.06
962	0.06
962	0.06
963	0.061
963	0.061
963	0.062
964	0.062
964	0.063
965	0.063
965	0.063
966	0.064
966	0.064
966	0.065
967	0.066
967	0.066
968	0.066
968	0.066
968	0.066
969	0.066
969	0.066
970	0.065
970	0.065
971	0.065
971	0.064
971	0.064
972	0.064
972	0.064
973	0.065
973	0.064
974	0.064
974	0.064
974	0.064
975	0.064
975	0.064
976	0.064
976	0.064
976	0.064
977	0.063
977	0.063
978	0.062
978	0.062
979	0.062
979	0.062
979	0.061
980	0.061
980	0.061
981	0.061
981	0.061
982	0.061
982	0.061
982	0.061
983	0.061
983	0.061
984	0.061
984	0.06
984	0.06
985	0.059
985	0.059
986	0.058
986	0.057
987	0.056
987	0.055
987	0.054
988	0.053
988	0.052
989	0.051
989	0.05
990	0.049
990	0.047
990	0.046
991	0.046
991	0.045
992	0.044
992	0.043
992	0.042
993	0.041
993	0.04
994	0.039
994	0.038
995	0.037
995	0.036
995	0.034
996	0.033
996	0.032
997	0.031
997	0.03
997	0.029
998	0.029
998	0.029
999	0.029
999	0.029
1000	0.03
1000	0.03
1000	0.031
1001	0.032
1001	0.033
1002	0.033
1002	0.034
1003	0.035
1003	0.035
1003	0.036
1004	0.036
1004	0.036
1005	0.036
1005	0.036
1005	0.035
1006	0.035
1006	0.034
1007	0.034
1007	0.033
1008	0.033
1008	0.032
1008	0.032
1009	0.032
1009	0.033
1010	0.033
1010	0.034
1010	0.034
1011	0.035
1011	0.035
1012	0.036
1012	0.037
1013	0.038
1013	0.039
1013	0.039
1014	0.039
1014	0.039
1015	0.04
1015	0.04
1016	0.04
1016	0.04
1016	0.039
1017	0.039
1017	0.038
1018	0.038
1018	0.037
1018	0.037
1019	0.037
1019	0.036
1020	0.036
1020	0.035
1021	0.035
1021	0.035
1021	0.034
1022	0.034
1022	0.034
1023	0.034
1023	0.034
1023	0.034
1024	0.033
1024	0.033
1025	0.034
1025	0.034
1026	0.034
1026	0.035
1026	0.034
1027	0.035
1027	0.035
1028	0.036
1028	0.037
1028	0.037
1029	0.037
1029	0.037
1030	0.037
1030	0.037
1031	0.037
1031	0.038
1031	0.037
1032	0.037
1032	0.037
1033	0.036
1033	0.036
1033	0.036
1034	0.035
1034	0.035
1035	0.034
1035	0.033
1036	0.032
1036	0.032
1036	0.031
1037	0.031
1037	0.031
1038	0.03
1038	0.03
1039	0.03
1039	0.031
1039	0.031
1040	0.031
1040	0.031
1041	0.031
1041	0.031
1041	0.03
1042	0.029
1042	0.029
1043	0.028
1043	0.027
1044	0.027
1044	0.026
1044	0.026
1045	0.025
1045	0.025
1046	0.024
1046	0.024
1046	0.024
1047	0.024
1047	0.024
1048	0.025
1048	0.025
1049	0.025
1049	0.025
1049	0.025
1050	0.025
1050	0.024
1051	0.023
1051	0.022
1051	0.022
1052	0.021
1052	0.02
1053	0.019
1053	0.018
1053	0.018
1054	0.017
1054	0.017
1055	0.018
1055	0.018
1056	0.018
1056	0.018
1056	0.018
1057	0.017
1057	0.018
1058	0.017
1058	0.017
1058	0.017
1059	0.016
1059	0.015
1060	0.015
1060	0.015
1061	0.014
1061	0.014
1061	0.014
1062	0.014
1062	0.014
1063	0.014
1063	0.013
1063	0.013
1064	0.013
1064	0.014
1065	0.014
1065	0.014
1066	0.013
1066	0.013
1066	0.013
1067	0.012
1067	0.01
1068	0.009
1068	0.008
1068	0.007
1069	0.006
1069	0.005
1070	0.004
1070	0.003
1071	0.002
1071	0.002
1071	0.001
1072	0
1072	0.001
1073	0.001
1073	0.001
1073	0
1074	0
1074	0
1075	-0
1075	-0.001
1076	-0.002
1076	-0.002
1076	-0.002
1077	-0.003
1077	-0.004
1078	-0.005
1078	-0.005
1078	-0.006
1079	-0.006
1079	-0.007
1080	-0.007
1080	-0.008
1080	-0.009
1081	-0.01
1081	-0.011
1082	-0.011
1082	-0.012
1083	-0.013
1083	-0.014
1083	-0.015
1084	-0.017
1084	-0.017
1085	-0.019
1085	-0.02
1085	-0.021
1086	-0.022
1086	-0.023
1087	-0.024
1087	-0.025
1088	-0.026
1088	-0.027
1088	-0.028
1089	-0.03
1089	-0.031
1090	-0.032
1090	-0.033
1090	-0.035
1091	-0.037
1091	-0.037
1092	-0.038
1092	-0.039
1092	-0.04
1093	-0.041
1093	-0.041
1094	-0.041
1094	-0.042
1095	-0.044
1095	-0.044
1095	-0.044
1096	-0.046
1096	-0.048
1097	-0.049
1097	-0.051
1097	-0.053
1098	-0.055
1098	-0.058
1099	-0.06
1099	-0.062
1100	-0.065
1100	-0.067
1100	-0.071
1101	-0.074
1101	-0.077
1102	-0.079
1102	-0.082
1102	-0.084
1103	-0.086
1103	-0.089
1104	-0.092
1104	-0.095
1104	-0.098
1105	-0.099
1105	-0.102
1106	-0.108
1106	-0.11
1107	-0.115
1107	-0.121
1107	-0.126
1108	-0.128
1108	-0.13
1109	-0.134
1109	-0.137
1109	-0.143
1110	-0.145
1110	-0.146
1111	-0.157
1111	-0.155
