Data from 3.3A_17C_Absorbance__356__03223.txt Node

Date: Tue Jun 20 17:24:50 CEST 2023
User: Marek
Spectrometer: MAYP115816
Trigger mode: 0
Integration Time (sec): 2.200000E-1
Scans to average: 10
Electric dark correction enabled: true
Nonlinearity correction enabled: true
Boxcar width: 5
XAxis mode: Wavelengths
Number of Pixels in Spectrum: 2068
>>>>>Begin Spectral Data<<<<<
199	-0.801
199	-0.787
200	-0.753
200	-0.699
201	-0.672
201	-0.662
202	-0.649
202	-0.641
203	-0.641
203	-0.633
204	-0.612
204	-0.594
205	-0.571
205	-0.561
205	-0.57
206	-0.571
206	-0.568
207	-0.56
207	-0.565
208	-0.565
208	-0.572
209	-0.575
209	-0.583
210	-0.594
210	-0.601
211	-0.593
211	-0.597
212	-0.604
212	-0.612
213	-0.609
213	-0.605
213	-0.602
214	-0.607
214	-0.61
215	-0.608
215	-0.613
216	-0.622
216	-0.629
217	-0.627
217	-0.627
218	-0.635
218	-0.638
219	-0.643
219	-0.645
220	-0.649
220	-0.657
221	-0.656
221	-0.657
221	-0.648
222	-0.646
222	-0.643
223	-0.639
223	-0.642
224	-0.644
224	-0.642
225	-0.638
225	-0.638
226	-0.639
226	-0.638
227	-0.646
227	-0.656
228	-0.661
228	-0.671
229	-0.674
229	-0.671
229	-0.67
230	-0.666
230	-0.665
231	-0.662
231	-0.657
232	-0.659
232	-0.653
233	-0.654
233	-0.641
234	-0.641
234	-0.638
235	-0.642
235	-0.653
236	-0.66
236	-0.662
236	-0.664
237	-0.663
237	-0.663
238	-0.664
238	-0.666
239	-0.668
239	-0.677
240	-0.67
240	-0.666
241	-0.661
241	-0.664
242	-0.667
242	-0.676
243	-0.676
243	-0.679
243	-0.683
244	-0.68
244	-0.682
245	-0.684
245	-0.689
246	-0.698
246	-0.7
247	-0.707
247	-0.693
248	-0.691
248	-0.693
249	-0.699
249	-0.7
250	-0.699
250	-0.708
250	-0.703
251	-0.704
251	-0.7
252	-0.702
252	-0.714
253	-0.711
253	-0.723
254	-0.726
254	-0.729
255	-0.738
255	-0.737
256	-0.742
256	-0.755
257	-0.767
257	-0.763
258	-0.764
258	-0.771
258	-0.769
259	-0.763
259	-0.78
260	-0.778
260	-0.768
261	-0.778
261	-0.763
262	-0.767
262	-0.766
263	-0.758
263	-0.762
264	-0.771
264	-0.772
265	-0.764
265	-0.768
265	-0.778
266	-0.769
266	-0.769
267	-0.768
267	-0.784
268	-0.792
268	-0.789
269	-0.78
269	-0.795
270	-0.798
270	-0.797
271	-0.81
271	-0.821
272	-0.822
272	-0.826
272	-0.819
273	-0.827
273	-0.84
274	-0.832
274	-0.827
275	-0.824
275	-0.811
276	-0.814
276	-0.819
277	-0.821
277	-0.817
278	-0.823
278	-0.823
278	-0.812
279	-0.819
279	-0.832
280	-0.835
280	-0.845
281	-0.84
281	-0.832
282	-0.837
282	-0.831
283	-0.824
283	-0.84
284	-0.853
284	-0.864
285	-0.844
285	-0.851
285	-0.842
286	-0.847
286	-0.863
287	-0.859
287	-0.859
288	-0.858
288	-0.838
289	-0.835
289	-0.842
290	-0.851
290	-0.839
291	-0.844
291	-0.84
292	-0.822
292	-0.82
292	-0.824
293	-0.812
293	-0.81
294	-0.81
294	-0.795
295	-0.778
295	-0.79
296	-0.803
296	-0.799
297	-0.787
297	-0.791
298	-0.788
298	-0.804
298	-0.808
299	-0.789
299	-0.782
300	-0.78
300	-0.76
301	-0.74
301	-0.742
302	-0.754
302	-0.741
303	-0.732
303	-0.721
304	-0.705
304	-0.709
305	-0.703
305	-0.712
305	-0.728
306	-0.713
306	-0.711
307	-0.7
307	-0.709
308	-0.712
308	-0.707
309	-0.708
309	-0.703
310	-0.701
310	-0.694
311	-0.68
311	-0.698
311	-0.686
312	-0.683
312	-0.672
313	-0.665
313	-0.667
314	-0.672
314	-0.669
315	-0.665
315	-0.658
316	-0.653
316	-0.643
317	-0.635
317	-0.632
318	-0.624
318	-0.622
318	-0.609
319	-0.599
319	-0.592
320	-0.589
320	-0.587
321	-0.581
321	-0.58
322	-0.574
322	-0.566
323	-0.565
323	-0.555
324	-0.554
324	-0.542
324	-0.531
325	-0.515
325	-0.498
326	-0.491
326	-0.466
327	-0.451
327	-0.43
328	-0.399
328	-0.375
329	-0.346
329	-0.317
330	-0.288
330	-0.252
330	-0.215
331	-0.174
331	-0.139
332	-0.103
332	-0.067
333	-0.035
333	0.001
334	0.032
334	0.061
335	0.09
335	0.113
336	0.137
336	0.159
336	0.178
337	0.197
337	0.215
338	0.23
338	0.241
339	0.256
339	0.268
340	0.278
340	0.288
341	0.295
341	0.302
342	0.31
342	0.316
342	0.322
343	0.326
343	0.332
344	0.336
344	0.339
345	0.343
345	0.345
346	0.348
346	0.35
347	0.352
347	0.354
348	0.355
348	0.357
348	0.358
349	0.359
349	0.36
350	0.361
350	0.361
351	0.362
351	0.363
352	0.363
352	0.363
353	0.363
353	0.363
354	0.363
354	0.363
354	0.363
355	0.363
355	0.363
356	0.364
356	0.364
357	0.365
357	0.365
358	0.365
358	0.365
359	0.365
359	0.365
360	0.365
360	0.366
360	0.366
361	0.365
361	0.365
362	0.364
362	0.364
363	0.364
363	0.364
364	0.364
364	0.364
365	0.364
365	0.364
366	0.364
366	0.364
366	0.364
367	0.364
367	0.364
368	0.363
368	0.363
369	0.362
369	0.362
370	0.362
370	0.362
371	0.361
371	0.361
372	0.36
372	0.36
372	0.36
373	0.36
373	0.36
374	0.36
374	0.36
375	0.359
375	0.359
376	0.359
376	0.358
377	0.358
377	0.358
378	0.357
378	0.357
378	0.357
379	0.356
379	0.356
380	0.356
380	0.356
381	0.355
381	0.355
382	0.355
382	0.354
383	0.354
383	0.353
383	0.353
384	0.353
384	0.352
385	0.352
385	0.352
386	0.351
386	0.351
387	0.351
387	0.35
388	0.35
388	0.35
389	0.35
389	0.35
389	0.349
390	0.349
390	0.349
391	0.349
391	0.348
392	0.348
392	0.348
393	0.347
393	0.347
394	0.347
394	0.346
394	0.346
395	0.345
395	0.345
396	0.344
396	0.344
397	0.343
397	0.343
398	0.342
398	0.342
399	0.342
399	0.342
400	0.341
400	0.341
400	0.341
401	0.34
401	0.34
402	0.34
402	0.34
403	0.34
403	0.34
404	0.339
404	0.339
405	0.338
405	0.338
405	0.338
406	0.338
406	0.337
407	0.337
407	0.337
408	0.336
408	0.336
409	0.336
409	0.336
410	0.335
410	0.335
411	0.335
411	0.335
411	0.335
412	0.334
412	0.334
413	0.333
413	0.333
414	0.333
414	0.333
415	0.333
415	0.332
416	0.332
416	0.331
416	0.331
417	0.331
417	0.331
418	0.331
418	0.33
419	0.33
419	0.33
420	0.33
420	0.33
421	0.329
421	0.329
421	0.329
422	0.329
422	0.33
423	0.329
423	0.329
424	0.329
424	0.328
425	0.328
425	0.328
426	0.328
426	0.328
427	0.328
427	0.328
427	0.328
428	0.328
428	0.328
429	0.327
429	0.327
430	0.327
430	0.327
431	0.326
431	0.326
432	0.326
432	0.325
432	0.325
433	0.325
433	0.324
434	0.325
434	0.325
435	0.325
435	0.325
436	0.325
436	0.325
437	0.325
437	0.325
437	0.325
438	0.325
438	0.325
439	0.325
439	0.325
440	0.324
440	0.324
441	0.324
441	0.324
442	0.324
442	0.324
442	0.323
443	0.323
443	0.323
444	0.323
444	0.323
445	0.323
445	0.323
446	0.323
446	0.323
447	0.323
447	0.323
447	0.323
448	0.323
448	0.323
449	0.323
449	0.323
450	0.323
450	0.323
451	0.323
451	0.323
452	0.323
452	0.323
452	0.324
453	0.324
453	0.324
454	0.324
454	0.324
455	0.324
455	0.324
456	0.324
456	0.324
457	0.324
457	0.324
458	0.324
458	0.324
458	0.324
459	0.324
459	0.324
460	0.324
460	0.324
461	0.324
461	0.325
462	0.325
462	0.326
463	0.327
463	0.328
463	0.328
464	0.329
464	0.329
465	0.33
465	0.33
466	0.331
466	0.331
467	0.331
467	0.331
467	0.331
468	0.331
468	0.331
469	0.332
469	0.332
470	0.333
470	0.334
471	0.334
471	0.334
472	0.335
472	0.335
472	0.336
473	0.337
473	0.338
474	0.339
474	0.339
475	0.34
475	0.341
476	0.342
476	0.343
477	0.344
477	0.345
477	0.346
478	0.347
478	0.348
479	0.349
479	0.35
480	0.35
480	0.351
481	0.352
481	0.353
482	0.354
482	0.355
482	0.357
483	0.359
483	0.361
484	0.362
484	0.363
485	0.364
485	0.366
486	0.367
486	0.369
487	0.37
487	0.372
487	0.373
488	0.374
488	0.375
489	0.377
489	0.379
490	0.381
490	0.382
491	0.384
491	0.386
492	0.388
492	0.39
492	0.391
493	0.393
493	0.395
494	0.398
494	0.4
495	0.402
495	0.404
496	0.406
496	0.409
496	0.411
497	0.414
497	0.416
498	0.419
498	0.421
499	0.424
499	0.426
500	0.43
500	0.433
501	0.436
501	0.438
501	0.44
502	0.443
502	0.446
503	0.449
503	0.451
504	0.453
504	0.456
505	0.459
505	0.462
506	0.465
506	0.468
506	0.472
507	0.475
507	0.478
508	0.482
508	0.485
509	0.489
509	0.492
510	0.495
510	0.498
511	0.5
511	0.503
511	0.505
512	0.508
512	0.51
513	0.512
513	0.515
514	0.518
514	0.521
515	0.523
515	0.525
515	0.527
516	0.53
516	0.532
517	0.535
517	0.537
518	0.539
518	0.54
519	0.542
519	0.543
520	0.545
520	0.547
520	0.549
521	0.551
521	0.553
522	0.554
522	0.556
523	0.558
523	0.559
524	0.561
524	0.562
524	0.563
525	0.564
525	0.564
526	0.565
526	0.566
527	0.566
527	0.567
528	0.567
528	0.567
529	0.567
529	0.567
529	0.567
530	0.567
530	0.567
531	0.566
531	0.566
532	0.565
532	0.564
533	0.564
533	0.563
533	0.562
534	0.561
534	0.56
535	0.559
535	0.558
536	0.557
536	0.556
537	0.554
537	0.554
538	0.552
538	0.55
538	0.548
539	0.547
539	0.545
540	0.543
540	0.54
541	0.538
541	0.536
542	0.533
542	0.531
542	0.528
543	0.525
543	0.523
544	0.52
544	0.517
545	0.514
545	0.512
546	0.509
546	0.506
547	0.503
547	0.499
547	0.497
548	0.494
548	0.491
549	0.488
549	0.485
550	0.483
550	0.479
551	0.476
551	0.473
551	0.469
552	0.466
552	0.464
553	0.461
553	0.458
554	0.455
554	0.451
555	0.448
555	0.445
556	0.441
556	0.438
556	0.435
557	0.433
557	0.43
558	0.427
558	0.424
559	0.421
559	0.418
560	0.415
560	0.411
560	0.409
561	0.407
561	0.404
562	0.402
562	0.399
563	0.396
563	0.394
564	0.391
564	0.388
564	0.386
565	0.384
565	0.382
566	0.379
566	0.377
567	0.374
567	0.372
568	0.37
568	0.367
568	0.365
569	0.362
569	0.36
570	0.357
570	0.353
571	0.351
571	0.349
572	0.346
572	0.343
573	0.34
573	0.337
573	0.334
574	0.332
574	0.331
575	0.329
575	0.328
576	0.326
576	0.323
577	0.321
577	0.319
577	0.318
578	0.317
578	0.316
579	0.315
579	0.314
580	0.31
580	0.307
581	0.303
581	0.301
581	0.3
582	0.299
582	0.298
583	0.296
583	0.294
584	0.29
584	0.287
585	0.286
585	0.286
585	0.284
586	0.283
586	0.281
587	0.279
587	0.276
588	0.274
588	0.273
589	0.271
589	0.27
590	0.269
590	0.267
590	0.267
591	0.266
591	0.264
592	0.262
592	0.26
593	0.259
593	0.257
594	0.255
594	0.254
594	0.252
595	0.251
595	0.248
596	0.246
596	0.246
597	0.247
597	0.245
598	0.244
598	0.243
598	0.242
599	0.241
599	0.239
600	0.238
600	0.237
601	0.236
601	0.235
602	0.233
602	0.232
602	0.23
603	0.229
603	0.229
604	0.228
604	0.227
605	0.227
605	0.226
606	0.225
606	0.223
606	0.221
607	0.22
607	0.219
608	0.218
608	0.216
609	0.215
609	0.214
610	0.212
610	0.21
610	0.21
611	0.209
611	0.208
612	0.208
612	0.207
613	0.206
613	0.206
614	0.204
614	0.202
614	0.201
615	0.199
615	0.198
616	0.197
616	0.195
617	0.194
617	0.192
618	0.191
618	0.189
618	0.188
619	0.187
619	0.187
620	0.187
620	0.185
621	0.184
621	0.183
622	0.181
622	0.179
622	0.178
623	0.176
623	0.176
624	0.175
624	0.174
625	0.172
625	0.171
626	0.17
626	0.168
626	0.168
627	0.167
627	0.166
628	0.165
628	0.164
629	0.163
629	0.161
630	0.159
630	0.157
630	0.156
631	0.154
631	0.152
632	0.15
632	0.148
633	0.145
633	0.143
634	0.141
634	0.139
634	0.138
635	0.135
635	0.133
636	0.131
636	0.128
637	0.125
637	0.122
638	0.119
638	0.116
638	0.112
639	0.108
639	0.104
640	0.1
640	0.096
641	0.091
641	0.087
642	0.083
642	0.079
642	0.074
643	0.069
643	0.064
644	0.059
644	0.054
645	0.049
645	0.044
646	0.038
646	0.032
646	0.026
647	0.019
647	0.013
648	0.006
648	-0.001
649	-0.008
649	-0.015
650	-0.021
650	-0.029
650	-0.036
651	-0.045
651	-0.056
652	-0.069
652	-0.083
653	-0.094
653	-0.104
653	-0.099
654	-0.08
654	-0.074
655	-0.079
655	-0.083
656	-0.088
656	-0.093
657	-0.098
657	-0.102
657	-0.108
658	-0.113
658	-0.143
659	-0.225
659	-0.31
660	-0.347
660	-0.373
661	-0.398
661	-0.426
661	-0.454
662	-0.481
662	-0.509
663	-0.541
663	-0.575
664	-0.61
664	-0.647
665	-0.69
665	-0.733
665	-0.775
666	-0.823
666	-0.874
667	-0.926
667	-0.985
668	-1.042
668	-1.108
669	-1.175
669	-1.247
669	-1.326
670	-1.411
670	-1.545
671	-1.817
671	-2.168
672	-2.375
672	-2.52
672	-2.631
673	-2.721
673	-2.797
674	-2.831
674	-2.843
675	-2.857
675	-2.859
676	-2.844
676	-2.776
676	-2.699
677	-2.601
677	-2.478
678	-2.284
678	-1.896
679	-1.602
679	-1.473
680	-1.385
680	-1.318
680	-1.26
681	-1.22
681	-1.174
682	-1.138
682	-1.099
683	-1.061
683	-1.043
684	-1.018
684	-1.004
684	-0.983
685	-0.967
685	-0.961
686	-0.941
686	-0.93
687	-0.922
687	-0.913
687	-0.916
688	-0.9
688	-0.895
689	-0.899
689	-0.898
690	-0.884
690	-0.874
691	-0.873
691	-0.877
691	-0.878
692	-0.878
692	-0.875
693	-0.884
693	-0.895
694	-0.877
694	-0.877
695	-0.881
695	-0.877
695	-0.883
696	-0.891
696	-0.885
697	-0.88
697	-0.876
698	-0.871
698	-0.864
698	-0.877
699	-0.876
699	-0.876
700	-0.896
700	-0.893
701	-0.88
701	-0.875
702	-0.877
702	-0.876
702	-0.877
703	-0.868
703	-0.856
704	-0.865
704	-0.869
705	-0.856
705	-0.854
705	-0.849
706	-0.842
706	-0.837
707	-0.851
707	-0.855
708	-0.853
708	-0.852
709	-0.852
709	-0.849
709	-0.846
710	-0.854
710	-0.857
711	-0.857
711	-0.857
712	-0.846
712	-0.841
713	-0.845
713	-0.846
713	-0.826
714	-0.828
714	-0.83
715	-0.823
715	-0.83
716	-0.845
716	-0.855
716	-0.855
717	-0.863
717	-0.855
718	-0.849
718	-0.85
719	-0.845
719	-0.838
720	-0.833
720	-0.829
720	-0.824
721	-0.813
721	-0.816
722	-0.815
722	-0.811
723	-0.829
723	-0.842
723	-0.851
724	-0.85
724	-0.855
725	-0.849
725	-0.852
726	-0.858
726	-0.851
727	-0.852
727	-0.86
727	-0.851
728	-0.838
728	-0.834
729	-0.837
729	-0.84
730	-0.846
730	-0.837
730	-0.841
731	-0.844
731	-0.844
732	-0.845
732	-0.84
733	-0.855
733	-0.862
734	-0.872
734	-0.863
734	-0.846
735	-0.835
735	-0.831
736	-0.831
736	-0.825
737	-0.825
737	-0.816
737	-0.808
738	-0.795
738	-0.781
739	-0.784
739	-0.784
740	-0.799
740	-0.8
741	-0.809
741	-0.819
741	-0.828
742	-0.835
742	-0.852
743	-0.857
743	-0.861
744	-0.864
744	-0.872
744	-0.866
745	-0.873
745	-0.862
746	-0.857
746	-0.848
747	-0.851
747	-0.841
748	-0.841
748	-0.847
748	-0.848
749	-0.841
749	-0.848
750	-0.84
750	-0.841
751	-0.84
751	-0.838
751	-0.849
752	-0.851
752	-0.856
753	-0.855
753	-0.847
754	-0.865
754	-0.865
754	-0.874
755	-0.874
755	-0.867
756	-0.868
756	-0.854
757	-0.845
757	-0.833
758	-0.836
758	-0.836
758	-0.83
759	-0.835
759	-0.834
760	-0.83
760	-0.832
761	-0.828
761	-0.832
761	-0.834
762	-0.841
762	-0.84
763	-0.84
763	-0.846
764	-0.845
764	-0.842
764	-0.848
765	-0.848
765	-0.854
766	-0.856
766	-0.856
767	-0.869
767	-0.863
768	-0.862
768	-0.854
768	-0.849
769	-0.852
769	-0.86
770	-0.869
770	-0.872
771	-0.869
771	-0.869
771	-0.875
772	-0.881
772	-0.901
773	-0.901
773	-0.9
774	-0.898
774	-0.88
775	-0.869
775	-0.87
775	-0.873
776	-0.881
776	-0.877
777	-0.878
777	-0.861
778	-0.873
778	-0.881
778	-0.883
779	-0.891
779	-0.905
780	-0.9
780	-0.911
781	-0.902
781	-0.892
781	-0.905
782	-0.927
782	-0.926
783	-0.927
783	-0.934
784	-0.938
784	-0.932
784	-0.951
785	-0.942
785	-0.956
786	-0.961
786	-0.954
787	-0.943
787	-0.953
788	-0.944
788	-0.938
788	-0.94
789	-0.939
789	-0.929
790	-0.929
790	-0.912
791	-0.918
791	-0.915
791	-0.908
792	-0.901
792	-0.906
793	-0.908
793	-0.895
794	-0.889
794	-0.884
794	-0.891
795	-0.911
795	-0.898
796	-0.902
796	-0.898
797	-0.892
797	-0.882
797	-0.875
798	-0.896
798	-0.899
799	-0.898
799	-0.883
800	-0.88
800	-0.888
801	-0.885
801	-0.889
801	-0.886
802	-0.885
802	-0.886
803	-0.88
803	-0.872
804	-0.879
804	-0.887
804	-0.869
805	-0.851
805	-0.844
806	-0.844
806	-0.841
807	-0.841
807	-0.839
807	-0.822
808	-0.818
808	-0.809
809	-0.804
809	-0.806
810	-0.808
810	-0.804
810	-0.8
811	-0.805
811	-0.798
812	-0.792
812	-0.794
813	-0.798
813	-0.799
813	-0.796
814	-0.796
814	-0.801
815	-0.791
815	-0.788
816	-0.783
816	-0.798
817	-0.81
817	-0.814
817	-0.822
818	-0.817
818	-0.813
819	-0.824
819	-0.821
820	-0.833
820	-0.833
820	-0.831
821	-0.828
821	-0.825
822	-0.825
822	-0.814
823	-0.826
823	-0.826
823	-0.82
824	-0.819
824	-0.831
825	-0.829
825	-0.826
826	-0.82
826	-0.816
826	-0.814
827	-0.815
827	-0.804
828	-0.803
828	-0.798
829	-0.791
829	-0.774
829	-0.771
830	-0.768
830	-0.755
831	-0.748
831	-0.736
832	-0.728
832	-0.723
832	-0.716
833	-0.715
833	-0.721
834	-0.716
834	-0.712
835	-0.704
835	-0.703
835	-0.697
836	-0.694
836	-0.69
837	-0.68
837	-0.673
838	-0.659
838	-0.641
839	-0.636
839	-0.623
839	-0.614
840	-0.612
840	-0.603
841	-0.593
841	-0.585
842	-0.577
842	-0.564
842	-0.561
843	-0.558
843	-0.553
844	-0.549
844	-0.538
845	-0.523
845	-0.514
845	-0.502
846	-0.492
846	-0.481
847	-0.47
847	-0.457
848	-0.443
848	-0.426
848	-0.413
849	-0.401
849	-0.39
850	-0.381
850	-0.371
851	-0.355
851	-0.339
851	-0.328
852	-0.312
852	-0.299
853	-0.29
853	-0.279
854	-0.268
854	-0.257
854	-0.244
855	-0.232
855	-0.226
856	-0.217
856	-0.21
857	-0.203
857	-0.195
857	-0.182
858	-0.17
858	-0.163
859	-0.153
859	-0.141
860	-0.131
860	-0.116
860	-0.106
861	-0.096
861	-0.086
862	-0.077
862	-0.069
863	-0.06
863	-0.051
863	-0.044
864	-0.039
864	-0.031
865	-0.024
865	-0.018
866	-0.012
866	-0.006
866	-0.001
867	0.004
867	0.01
868	0.014
868	0.019
869	0.024
869	0.027
869	0.03
870	0.032
870	0.034
871	0.036
871	0.038
872	0.039
872	0.039
872	0.04
873	0.04
873	0.04
874	0.04
874	0.039
875	0.039
875	0.039
875	0.038
876	0.038
876	0.038
877	0.037
877	0.037
878	0.036
878	0.036
878	0.036
879	0.035
879	0.035
880	0.034
880	0.033
881	0.032
881	0.031
881	0.029
882	0.028
882	0.026
883	0.025
883	0.023
884	0.023
884	0.022
884	0.022
885	0.022
885	0.022
886	0.022
886	0.021
887	0.021
887	0.02
887	0.02
888	0.02
888	0.019
889	0.019
889	0.018
890	0.017
890	0.016
890	0.015
891	0.016
891	0.015
892	0.016
892	0.016
893	0.016
893	0.017
893	0.017
894	0.018
894	0.018
895	0.018
895	0.018
895	0.018
896	0.018
896	0.018
897	0.018
897	0.018
898	0.018
898	0.019
898	0.019
899	0.019
899	0.019
900	0.019
900	0.019
901	0.019
901	0.018
901	0.018
902	0.018
902	0.018
903	0.018
903	0.017
904	0.017
904	0.016
904	0.016
905	0.016
905	0.016
906	0.017
906	0.018
907	0.018
907	0.019
907	0.019
908	0.02
908	0.021
909	0.022
909	0.022
910	0.022
910	0.023
910	0.023
911	0.024
911	0.025
912	0.025
912	0.026
913	0.027
913	0.027
913	0.028
914	0.028
914	0.029
915	0.029
915	0.029
916	0.028
916	0.028
916	0.027
917	0.026
917	0.026
918	0.025
918	0.024
918	0.023
919	0.023
919	0.023
920	0.022
920	0.023
921	0.023
921	0.023
921	0.024
922	0.024
922	0.024
923	0.024
923	0.024
924	0.024
924	0.023
924	0.022
925	0.021
925	0.02
926	0.019
926	0.017
927	0.016
927	0.015
927	0.014
928	0.014
928	0.013
929	0.014
929	0.014
930	0.015
930	0.015
930	0.016
931	0.017
931	0.019
932	0.02
932	0.021
933	0.022
933	0.022
933	0.022
934	0.022
934	0.022
935	0.021
935	0.02
935	0.019
936	0.018
936	0.016
937	0.015
937	0.014
938	0.014
938	0.013
938	0.012
939	0.012
939	0.011
940	0.011
940	0.01
941	0.009
941	0.008
941	0.008
942	0.008
942	0.007
943	0.008
943	0.007
944	0.007
944	0.006
944	0.006
945	0.006
945	0.005
946	0.005
946	0.004
946	0.004
947	0.004
947	0.003
948	0.004
948	0.005
949	0.005
949	0.006
949	0.008
950	0.009
950	0.011
951	0.012
951	0.013
952	0.014
952	0.015
952	0.016
953	0.017
953	0.017
954	0.017
954	0.017
955	0.017
955	0.017
955	0.017
956	0.016
956	0.016
957	0.015
957	0.014
957	0.013
958	0.013
958	0.012
959	0.011
959	0.011
960	0.011
960	0.01
960	0.011
961	0.011
961	0.011
962	0.011
962	0.012
963	0.013
963	0.013
963	0.014
964	0.014
964	0.015
965	0.015
965	0.016
966	0.016
966	0.017
966	0.018
967	0.018
967	0.018
968	0.018
968	0.018
968	0.019
969	0.018
969	0.018
970	0.017
970	0.017
971	0.016
971	0.016
971	0.016
972	0.016
972	0.017
973	0.017
973	0.016
974	0.016
974	0.017
974	0.017
975	0.017
975	0.017
976	0.016
976	0.016
976	0.015
977	0.015
977	0.014
978	0.013
978	0.013
979	0.012
979	0.011
979	0.011
980	0.011
980	0.01
981	0.01
981	0.009
982	0.009
982	0.009
982	0.009
983	0.009
983	0.009
984	0.009
984	0.009
984	0.009
985	0.008
985	0.008
986	0.007
986	0.007
987	0.006
987	0.006
987	0.005
988	0.005
988	0.004
989	0.004
989	0.003
990	0.002
990	0.001
990	0.001
991	0
991	-0.001
992	-0.001
992	-0.002
992	-0.003
993	-0.004
993	-0.005
994	-0.006
994	-0.008
995	-0.009
995	-0.01
995	-0.011
996	-0.012
996	-0.014
997	-0.015
997	-0.015
997	-0.015
998	-0.016
998	-0.015
999	-0.015
999	-0.015
1000	-0.014
1000	-0.014
1000	-0.013
1001	-0.012
1001	-0.011
1002	-0.01
1002	-0.01
1003	-0.009
1003	-0.009
1003	-0.009
1004	-0.008
1004	-0.008
1005	-0.008
1005	-0.009
1005	-0.009
1006	-0.01
1006	-0.011
1007	-0.012
1007	-0.013
1008	-0.014
1008	-0.015
1008	-0.015
1009	-0.015
1009	-0.015
1010	-0.015
1010	-0.014
1010	-0.013
1011	-0.013
1011	-0.012
1012	-0.011
1012	-0.01
1013	-0.008
1013	-0.008
1013	-0.007
1014	-0.006
1014	-0.006
1015	-0.005
1015	-0.005
1016	-0.004
1016	-0.004
1016	-0.004
1017	-0.004
1017	-0.005
1018	-0.004
1018	-0.005
1018	-0.005
1019	-0.005
1019	-0.005
1020	-0.006
1020	-0.006
1021	-0.007
1021	-0.007
1021	-0.007
1022	-0.008
1022	-0.008
1023	-0.008
1023	-0.008
1023	-0.008
1024	-0.008
1024	-0.009
1025	-0.008
1025	-0.008
1026	-0.009
1026	-0.008
1026	-0.008
1027	-0.008
1027	-0.008
1028	-0.008
1028	-0.007
1028	-0.007
1029	-0.007
1029	-0.007
1030	-0.007
1030	-0.007
1031	-0.007
1031	-0.006
1031	-0.006
1032	-0.007
1032	-0.007
1033	-0.007
1033	-0.008
1033	-0.008
1034	-0.009
1034	-0.01
1035	-0.01
1035	-0.011
1036	-0.012
1036	-0.013
1036	-0.013
1037	-0.014
1037	-0.014
1038	-0.014
1038	-0.014
1039	-0.014
1039	-0.014
1039	-0.014
1040	-0.014
1040	-0.013
1041	-0.013
1041	-0.013
1041	-0.014
1042	-0.014
1042	-0.014
1043	-0.015
1043	-0.015
1044	-0.016
1044	-0.016
1044	-0.017
1045	-0.017
1045	-0.017
1046	-0.018
1046	-0.018
1046	-0.019
1047	-0.019
1047	-0.019
1048	-0.018
1048	-0.019
1049	-0.019
1049	-0.019
1049	-0.02
1050	-0.021
1050	-0.022
1051	-0.023
1051	-0.024
1051	-0.024
1052	-0.025
1052	-0.026
1053	-0.027
1053	-0.027
1053	-0.028
1054	-0.028
1054	-0.028
1055	-0.028
1055	-0.027
1056	-0.027
1056	-0.027
1056	-0.027
1057	-0.027
1057	-0.027
1058	-0.027
1058	-0.027
1058	-0.027
1059	-0.027
1059	-0.028
1060	-0.028
1060	-0.028
1061	-0.029
1061	-0.029
1061	-0.029
1062	-0.029
1062	-0.029
1063	-0.029
1063	-0.03
1063	-0.03
1064	-0.03
1064	-0.029
1065	-0.029
1065	-0.03
1066	-0.03
1066	-0.03
1066	-0.031
1067	-0.032
1067	-0.033
1068	-0.033
1068	-0.034
1068	-0.035
1069	-0.036
1069	-0.037
1070	-0.038
1070	-0.039
1071	-0.039
1071	-0.039
1071	-0.04
1072	-0.04
1072	-0.039
1073	-0.04
1073	-0.04
1073	-0.04
1074	-0.039
1074	-0.039
1075	-0.04
1075	-0.04
1076	-0.041
1076	-0.041
1076	-0.042
1077	-0.043
1077	-0.044
1078	-0.044
1078	-0.045
1078	-0.046
1079	-0.046
1079	-0.046
1080	-0.047
1080	-0.048
1080	-0.049
1081	-0.05
1081	-0.05
1082	-0.051
1082	-0.053
1083	-0.055
1083	-0.056
1083	-0.057
1084	-0.059
1084	-0.06
1085	-0.062
1085	-0.063
1085	-0.063
1086	-0.065
1086	-0.066
1087	-0.067
1087	-0.067
1088	-0.068
1088	-0.069
1088	-0.069
1089	-0.071
1089	-0.071
1090	-0.072
1090	-0.073
1090	-0.074
1091	-0.074
1091	-0.074
1092	-0.074
1092	-0.074
1092	-0.075
1093	-0.076
1093	-0.076
1094	-0.076
1094	-0.077
1095	-0.078
1095	-0.079
1095	-0.079
1096	-0.08
1096	-0.082
1097	-0.083
1097	-0.086
1097	-0.088
1098	-0.09
1098	-0.092
1099	-0.094
1099	-0.095
1100	-0.097
1100	-0.1
1100	-0.103
1101	-0.106
1101	-0.109
1102	-0.111
1102	-0.114
1102	-0.116
1103	-0.118
1103	-0.122
1104	-0.124
1104	-0.128
1104	-0.13
1105	-0.132
1105	-0.135
1106	-0.139
1106	-0.142
1107	-0.146
1107	-0.151
1107	-0.156
1108	-0.158
1108	-0.159
1109	-0.162
1109	-0.167
1109	-0.171
1110	-0.173
1110	-0.177
1111	-0.187
1111	-0.186
