Data from 3.3A_17C_Absorbance__485__03352.txt Node

Date: Tue Jun 20 17:29:33 CEST 2023
User: Marek
Spectrometer: MAYP115816
Trigger mode: 0
Integration Time (sec): 2.200000E-1
Scans to average: 10
Electric dark correction enabled: true
Nonlinearity correction enabled: true
Boxcar width: 5
XAxis mode: Wavelengths
Number of Pixels in Spectrum: 2068
>>>>>Begin Spectral Data<<<<<
199	-0.807
199	-0.795
200	-0.757
200	-0.701
201	-0.67
201	-0.66
202	-0.642
202	-0.635
203	-0.634
203	-0.627
204	-0.607
204	-0.591
205	-0.564
205	-0.555
205	-0.563
206	-0.566
206	-0.564
207	-0.557
207	-0.562
208	-0.563
208	-0.568
209	-0.568
209	-0.575
210	-0.589
210	-0.595
211	-0.591
211	-0.594
212	-0.601
212	-0.609
213	-0.606
213	-0.601
213	-0.598
214	-0.606
214	-0.607
215	-0.603
215	-0.609
216	-0.617
216	-0.622
217	-0.621
217	-0.621
218	-0.628
218	-0.63
219	-0.638
219	-0.64
220	-0.644
220	-0.652
221	-0.651
221	-0.652
221	-0.642
222	-0.641
222	-0.641
223	-0.637
223	-0.64
224	-0.641
224	-0.639
225	-0.637
225	-0.638
226	-0.64
226	-0.639
227	-0.647
227	-0.657
228	-0.661
228	-0.67
229	-0.676
229	-0.674
229	-0.673
230	-0.669
230	-0.668
231	-0.664
231	-0.66
232	-0.661
232	-0.656
233	-0.657
233	-0.644
234	-0.644
234	-0.639
235	-0.642
235	-0.653
236	-0.659
236	-0.66
236	-0.66
237	-0.658
237	-0.658
238	-0.658
238	-0.661
239	-0.663
239	-0.674
240	-0.669
240	-0.664
241	-0.659
241	-0.663
242	-0.666
242	-0.676
243	-0.677
243	-0.68
243	-0.685
244	-0.681
244	-0.681
245	-0.682
245	-0.685
246	-0.695
246	-0.698
247	-0.708
247	-0.693
248	-0.692
248	-0.694
249	-0.698
249	-0.7
250	-0.699
250	-0.708
250	-0.706
251	-0.707
251	-0.702
252	-0.702
252	-0.715
253	-0.709
253	-0.72
254	-0.726
254	-0.727
255	-0.737
255	-0.736
256	-0.738
256	-0.75
257	-0.76
257	-0.757
258	-0.757
258	-0.765
258	-0.762
259	-0.754
259	-0.772
260	-0.771
260	-0.76
261	-0.772
261	-0.758
262	-0.764
262	-0.762
263	-0.753
263	-0.759
264	-0.769
264	-0.771
265	-0.763
265	-0.765
265	-0.777
266	-0.768
266	-0.769
267	-0.767
267	-0.784
268	-0.793
268	-0.787
269	-0.778
269	-0.793
270	-0.794
270	-0.793
271	-0.806
271	-0.817
272	-0.817
272	-0.819
272	-0.814
273	-0.822
273	-0.837
274	-0.83
274	-0.824
275	-0.822
275	-0.81
276	-0.813
276	-0.818
277	-0.821
277	-0.818
278	-0.821
278	-0.821
278	-0.809
279	-0.818
279	-0.831
280	-0.833
280	-0.843
281	-0.836
281	-0.828
282	-0.833
282	-0.828
283	-0.82
283	-0.835
284	-0.849
284	-0.859
285	-0.84
285	-0.846
285	-0.839
286	-0.844
286	-0.86
287	-0.855
287	-0.855
288	-0.855
288	-0.835
289	-0.835
289	-0.842
290	-0.85
290	-0.839
291	-0.844
291	-0.841
292	-0.822
292	-0.819
292	-0.823
293	-0.812
293	-0.808
294	-0.807
294	-0.794
295	-0.778
295	-0.79
296	-0.8
296	-0.795
297	-0.783
297	-0.788
298	-0.784
298	-0.801
298	-0.805
299	-0.786
299	-0.779
300	-0.775
300	-0.757
301	-0.739
301	-0.742
302	-0.752
302	-0.737
303	-0.73
303	-0.718
304	-0.701
304	-0.705
305	-0.697
305	-0.706
305	-0.719
306	-0.704
306	-0.702
307	-0.694
307	-0.705
308	-0.707
308	-0.701
309	-0.705
309	-0.7
310	-0.698
310	-0.693
311	-0.68
311	-0.698
311	-0.687
312	-0.683
312	-0.671
313	-0.663
313	-0.666
314	-0.669
314	-0.666
315	-0.662
315	-0.656
316	-0.65
316	-0.641
317	-0.633
317	-0.632
318	-0.623
318	-0.622
318	-0.61
319	-0.6
319	-0.592
320	-0.591
320	-0.588
321	-0.584
321	-0.582
322	-0.577
322	-0.569
323	-0.571
323	-0.56
324	-0.559
324	-0.548
324	-0.538
325	-0.523
325	-0.504
326	-0.496
326	-0.471
327	-0.456
327	-0.435
328	-0.402
328	-0.379
329	-0.349
329	-0.32
330	-0.292
330	-0.255
330	-0.219
331	-0.181
331	-0.148
332	-0.113
332	-0.078
333	-0.047
333	-0.011
334	0.019
334	0.046
335	0.074
335	0.097
336	0.12
336	0.143
336	0.161
337	0.18
337	0.198
338	0.213
338	0.223
339	0.238
339	0.249
340	0.257
340	0.266
341	0.273
341	0.28
342	0.288
342	0.294
342	0.3
343	0.304
343	0.31
344	0.313
344	0.316
345	0.319
345	0.322
346	0.324
346	0.325
347	0.327
347	0.329
348	0.329
348	0.331
348	0.332
349	0.333
349	0.334
350	0.334
350	0.335
351	0.336
351	0.337
352	0.337
352	0.337
353	0.337
353	0.337
354	0.338
354	0.338
354	0.338
355	0.338
355	0.338
356	0.338
356	0.338
357	0.338
357	0.338
358	0.338
358	0.338
359	0.338
359	0.338
360	0.338
360	0.339
360	0.339
361	0.339
361	0.338
362	0.338
362	0.338
363	0.338
363	0.338
364	0.338
364	0.338
365	0.338
365	0.338
366	0.338
366	0.338
366	0.338
367	0.338
367	0.337
368	0.337
368	0.337
369	0.336
369	0.336
370	0.336
370	0.336
371	0.335
371	0.335
372	0.335
372	0.335
372	0.335
373	0.335
373	0.335
374	0.335
374	0.334
375	0.334
375	0.334
376	0.333
376	0.333
377	0.333
377	0.333
378	0.332
378	0.332
378	0.332
379	0.331
379	0.331
380	0.331
380	0.331
381	0.331
381	0.331
382	0.33
382	0.33
383	0.33
383	0.33
383	0.329
384	0.329
384	0.329
385	0.328
385	0.328
386	0.327
386	0.327
387	0.327
387	0.327
388	0.327
388	0.326
389	0.326
389	0.326
389	0.326
390	0.326
390	0.325
391	0.325
391	0.325
392	0.325
392	0.324
393	0.324
393	0.324
394	0.323
394	0.323
394	0.323
395	0.322
395	0.322
396	0.322
396	0.321
397	0.321
397	0.32
398	0.32
398	0.32
399	0.32
399	0.319
400	0.319
400	0.319
400	0.318
401	0.318
401	0.317
402	0.317
402	0.317
403	0.317
403	0.317
404	0.317
404	0.317
405	0.316
405	0.316
405	0.316
406	0.316
406	0.316
407	0.316
407	0.315
408	0.315
408	0.315
409	0.314
409	0.314
410	0.314
410	0.314
411	0.314
411	0.313
411	0.313
412	0.313
412	0.312
413	0.312
413	0.312
414	0.312
414	0.311
415	0.311
415	0.311
416	0.311
416	0.31
416	0.31
417	0.31
417	0.309
418	0.309
418	0.309
419	0.309
419	0.309
420	0.309
420	0.309
421	0.308
421	0.308
421	0.308
422	0.309
422	0.309
423	0.309
423	0.308
424	0.308
424	0.308
425	0.308
425	0.308
426	0.308
426	0.307
427	0.307
427	0.307
427	0.307
428	0.307
428	0.307
429	0.307
429	0.306
430	0.306
430	0.306
431	0.306
431	0.306
432	0.305
432	0.305
432	0.304
433	0.304
433	0.304
434	0.304
434	0.305
435	0.305
435	0.304
436	0.304
436	0.304
437	0.304
437	0.304
437	0.304
438	0.304
438	0.304
439	0.304
439	0.304
440	0.303
440	0.303
441	0.303
441	0.303
442	0.303
442	0.303
442	0.303
443	0.302
443	0.302
444	0.302
444	0.302
445	0.303
445	0.303
446	0.303
446	0.303
447	0.303
447	0.303
447	0.303
448	0.303
448	0.303
449	0.303
449	0.303
450	0.303
450	0.303
451	0.303
451	0.303
452	0.303
452	0.303
452	0.303
453	0.303
453	0.303
454	0.303
454	0.303
455	0.303
455	0.303
456	0.304
456	0.303
457	0.303
457	0.303
458	0.303
458	0.303
458	0.303
459	0.303
459	0.303
460	0.302
460	0.302
461	0.303
461	0.303
462	0.304
462	0.305
463	0.305
463	0.306
463	0.307
464	0.307
464	0.307
465	0.308
465	0.308
466	0.309
466	0.309
467	0.309
467	0.309
467	0.309
468	0.308
468	0.308
469	0.309
469	0.31
470	0.31
470	0.31
471	0.311
471	0.311
472	0.311
472	0.312
472	0.312
473	0.313
473	0.314
474	0.315
474	0.316
475	0.316
475	0.317
476	0.318
476	0.319
477	0.32
477	0.321
477	0.322
478	0.322
478	0.323
479	0.324
479	0.325
480	0.325
480	0.326
481	0.327
481	0.327
482	0.328
482	0.329
482	0.331
483	0.332
483	0.334
484	0.335
484	0.335
485	0.337
485	0.338
486	0.339
486	0.34
487	0.342
487	0.343
487	0.344
488	0.345
488	0.346
489	0.347
489	0.349
490	0.351
490	0.353
491	0.354
491	0.356
492	0.358
492	0.359
492	0.36
493	0.362
493	0.363
494	0.366
494	0.368
495	0.369
495	0.371
496	0.373
496	0.375
496	0.377
497	0.379
497	0.381
498	0.383
498	0.385
499	0.387
499	0.39
500	0.393
500	0.395
501	0.398
501	0.4
501	0.402
502	0.404
502	0.406
503	0.409
503	0.411
504	0.413
504	0.415
505	0.418
505	0.42
506	0.423
506	0.426
506	0.429
507	0.432
507	0.435
508	0.438
508	0.441
509	0.444
509	0.447
510	0.449
510	0.452
511	0.454
511	0.456
511	0.458
512	0.461
512	0.463
513	0.465
513	0.467
514	0.469
514	0.472
515	0.474
515	0.476
515	0.478
516	0.48
516	0.483
517	0.485
517	0.487
518	0.488
518	0.489
519	0.491
519	0.492
520	0.493
520	0.495
520	0.497
521	0.498
521	0.5
522	0.501
522	0.503
523	0.504
523	0.506
524	0.507
524	0.508
524	0.509
525	0.51
525	0.511
526	0.512
526	0.512
527	0.513
527	0.513
528	0.513
528	0.513
529	0.513
529	0.513
529	0.513
530	0.513
530	0.513
531	0.512
531	0.512
532	0.512
532	0.511
533	0.511
533	0.511
533	0.51
534	0.509
534	0.508
535	0.507
535	0.507
536	0.506
536	0.505
537	0.503
537	0.502
538	0.501
538	0.499
538	0.498
539	0.496
539	0.495
540	0.493
540	0.491
541	0.489
541	0.488
542	0.486
542	0.483
542	0.481
543	0.479
543	0.476
544	0.474
544	0.472
545	0.47
545	0.468
546	0.465
546	0.462
547	0.46
547	0.457
547	0.455
548	0.453
548	0.451
549	0.448
549	0.446
550	0.444
550	0.441
551	0.438
551	0.435
551	0.433
552	0.43
552	0.428
553	0.425
553	0.423
554	0.421
554	0.417
555	0.414
555	0.412
556	0.409
556	0.407
556	0.405
557	0.402
557	0.4
558	0.397
558	0.395
559	0.392
559	0.39
560	0.388
560	0.385
560	0.383
561	0.381
561	0.379
562	0.377
562	0.375
563	0.373
563	0.37
564	0.368
564	0.366
564	0.365
565	0.363
565	0.362
566	0.359
566	0.357
567	0.356
567	0.354
568	0.353
568	0.35
568	0.349
569	0.347
569	0.345
570	0.342
570	0.339
571	0.338
571	0.336
572	0.333
572	0.331
573	0.328
573	0.326
573	0.324
574	0.322
574	0.321
575	0.319
575	0.32
576	0.318
576	0.316
577	0.314
577	0.312
577	0.312
578	0.311
578	0.311
579	0.31
579	0.309
580	0.307
580	0.303
581	0.301
581	0.299
581	0.298
582	0.298
582	0.297
583	0.296
583	0.294
584	0.291
584	0.288
585	0.288
585	0.287
585	0.287
586	0.286
586	0.284
587	0.282
587	0.28
588	0.278
588	0.277
589	0.277
589	0.276
590	0.274
590	0.273
590	0.273
591	0.273
591	0.271
592	0.27
592	0.268
593	0.267
593	0.266
594	0.264
594	0.263
594	0.262
595	0.261
595	0.259
596	0.257
596	0.257
597	0.258
597	0.257
598	0.256
598	0.256
598	0.255
599	0.254
599	0.253
600	0.252
600	0.251
601	0.25
601	0.25
602	0.248
602	0.247
602	0.246
603	0.245
603	0.245
604	0.245
604	0.244
605	0.244
605	0.244
606	0.243
606	0.241
606	0.24
607	0.239
607	0.239
608	0.237
608	0.236
609	0.235
609	0.234
610	0.233
610	0.231
610	0.231
611	0.231
611	0.23
612	0.23
612	0.229
613	0.229
613	0.228
614	0.226
614	0.225
614	0.224
615	0.222
615	0.221
616	0.22
616	0.218
617	0.217
617	0.216
618	0.214
618	0.213
618	0.212
619	0.212
619	0.211
620	0.212
620	0.211
621	0.21
621	0.209
622	0.207
622	0.206
622	0.204
623	0.203
623	0.203
624	0.202
624	0.201
625	0.199
625	0.199
626	0.197
626	0.196
626	0.196
627	0.195
627	0.194
628	0.193
628	0.192
629	0.191
629	0.189
630	0.187
630	0.185
630	0.184
631	0.182
631	0.18
632	0.178
632	0.176
633	0.173
633	0.171
634	0.17
634	0.168
634	0.166
635	0.164
635	0.162
636	0.159
636	0.157
637	0.154
637	0.151
638	0.148
638	0.145
638	0.141
639	0.137
639	0.133
640	0.129
640	0.124
641	0.12
641	0.116
642	0.112
642	0.108
642	0.103
643	0.098
643	0.093
644	0.088
644	0.082
645	0.077
645	0.072
646	0.066
646	0.06
646	0.054
647	0.047
647	0.04
648	0.034
648	0.026
649	0.019
649	0.011
650	0.004
650	-0.003
650	-0.011
651	-0.021
651	-0.033
652	-0.046
652	-0.06
653	-0.073
653	-0.084
653	-0.079
654	-0.059
654	-0.053
655	-0.058
655	-0.063
656	-0.069
656	-0.075
657	-0.08
657	-0.084
657	-0.09
658	-0.097
658	-0.129
659	-0.215
659	-0.304
660	-0.344
660	-0.37
661	-0.398
661	-0.428
661	-0.459
662	-0.488
662	-0.518
663	-0.553
663	-0.591
664	-0.628
664	-0.667
665	-0.712
665	-0.758
665	-0.802
666	-0.852
666	-0.907
667	-0.962
667	-1.025
668	-1.084
668	-1.152
669	-1.22
669	-1.295
669	-1.375
670	-1.46
670	-1.583
671	-1.797
671	-2.159
672	-2.368
672	-2.515
672	-2.627
673	-2.717
673	-2.793
674	-2.835
674	-2.848
675	-2.863
675	-2.865
676	-2.856
676	-2.791
676	-2.716
677	-2.624
677	-2.509
678	-2.332
678	-2.009
679	-1.696
679	-1.555
680	-1.46
680	-1.388
680	-1.325
681	-1.281
681	-1.231
682	-1.191
682	-1.151
683	-1.11
683	-1.088
684	-1.061
684	-1.042
684	-1.02
685	-1.002
685	-0.994
686	-0.971
686	-0.959
687	-0.95
687	-0.938
687	-0.939
688	-0.923
688	-0.916
689	-0.923
689	-0.92
690	-0.907
690	-0.895
691	-0.895
691	-0.898
691	-0.897
692	-0.897
692	-0.894
693	-0.902
693	-0.912
694	-0.891
694	-0.89
695	-0.891
695	-0.887
695	-0.892
696	-0.899
696	-0.893
697	-0.887
697	-0.882
698	-0.876
698	-0.868
698	-0.881
699	-0.88
699	-0.881
700	-0.9
700	-0.894
701	-0.881
701	-0.876
702	-0.878
702	-0.876
702	-0.875
703	-0.866
703	-0.855
704	-0.863
704	-0.867
705	-0.857
705	-0.857
705	-0.852
706	-0.843
706	-0.838
707	-0.851
707	-0.855
708	-0.853
708	-0.85
709	-0.851
709	-0.847
709	-0.842
710	-0.85
710	-0.852
711	-0.853
711	-0.854
712	-0.846
712	-0.843
713	-0.848
713	-0.848
713	-0.829
714	-0.831
714	-0.835
715	-0.827
715	-0.835
716	-0.851
716	-0.86
716	-0.861
717	-0.868
717	-0.859
718	-0.853
718	-0.854
719	-0.849
719	-0.84
720	-0.836
720	-0.831
720	-0.824
721	-0.814
721	-0.819
722	-0.816
722	-0.813
723	-0.832
723	-0.846
723	-0.856
724	-0.854
724	-0.857
725	-0.852
725	-0.856
726	-0.858
726	-0.85
727	-0.852
727	-0.857
727	-0.846
728	-0.831
728	-0.826
729	-0.829
729	-0.833
730	-0.838
730	-0.831
730	-0.837
731	-0.84
731	-0.842
732	-0.845
732	-0.842
733	-0.858
733	-0.865
734	-0.872
734	-0.864
734	-0.848
735	-0.836
735	-0.831
736	-0.828
736	-0.82
737	-0.82
737	-0.809
737	-0.8
738	-0.785
738	-0.774
739	-0.778
739	-0.779
740	-0.793
740	-0.795
741	-0.808
741	-0.818
741	-0.827
742	-0.834
742	-0.851
743	-0.858
743	-0.861
744	-0.863
744	-0.87
744	-0.864
745	-0.871
745	-0.859
746	-0.855
746	-0.846
747	-0.849
747	-0.839
748	-0.84
748	-0.844
748	-0.845
749	-0.838
749	-0.845
750	-0.835
750	-0.836
751	-0.834
751	-0.832
751	-0.843
752	-0.848
752	-0.851
753	-0.853
753	-0.845
754	-0.865
754	-0.863
754	-0.871
755	-0.87
755	-0.863
756	-0.865
756	-0.85
757	-0.841
757	-0.83
758	-0.831
758	-0.832
758	-0.826
759	-0.832
759	-0.833
760	-0.832
760	-0.834
761	-0.828
761	-0.833
761	-0.833
762	-0.84
762	-0.84
763	-0.84
763	-0.843
764	-0.841
764	-0.836
764	-0.841
765	-0.841
765	-0.848
766	-0.852
766	-0.854
767	-0.87
767	-0.865
768	-0.863
768	-0.858
768	-0.854
769	-0.857
769	-0.866
770	-0.876
770	-0.88
771	-0.876
771	-0.874
771	-0.878
772	-0.881
772	-0.902
773	-0.902
773	-0.901
774	-0.9
774	-0.88
775	-0.867
775	-0.867
775	-0.871
776	-0.881
776	-0.878
777	-0.88
777	-0.862
778	-0.872
778	-0.881
778	-0.879
779	-0.891
779	-0.906
780	-0.901
780	-0.909
781	-0.901
781	-0.891
781	-0.902
782	-0.922
782	-0.923
783	-0.921
783	-0.931
784	-0.934
784	-0.927
784	-0.947
785	-0.941
785	-0.952
786	-0.955
786	-0.951
787	-0.941
787	-0.948
788	-0.942
788	-0.935
788	-0.935
789	-0.936
789	-0.926
790	-0.926
790	-0.909
791	-0.916
791	-0.909
791	-0.903
792	-0.898
792	-0.903
793	-0.907
793	-0.895
794	-0.886
794	-0.878
794	-0.885
795	-0.906
795	-0.894
796	-0.901
796	-0.896
797	-0.888
797	-0.878
797	-0.87
798	-0.891
798	-0.896
799	-0.896
799	-0.882
800	-0.877
800	-0.885
801	-0.882
801	-0.888
801	-0.884
802	-0.884
802	-0.884
803	-0.879
803	-0.872
804	-0.879
804	-0.888
804	-0.871
805	-0.852
805	-0.844
806	-0.846
806	-0.843
807	-0.845
807	-0.844
807	-0.825
808	-0.82
808	-0.81
809	-0.803
809	-0.805
810	-0.809
810	-0.805
810	-0.8
811	-0.802
811	-0.791
812	-0.785
812	-0.788
813	-0.792
813	-0.796
813	-0.792
814	-0.791
814	-0.796
815	-0.787
815	-0.784
816	-0.781
816	-0.8
817	-0.812
817	-0.817
817	-0.826
818	-0.818
818	-0.815
819	-0.827
819	-0.823
820	-0.834
820	-0.833
820	-0.829
821	-0.823
821	-0.819
822	-0.817
822	-0.805
823	-0.818
823	-0.815
823	-0.809
824	-0.808
824	-0.82
825	-0.818
825	-0.815
826	-0.811
826	-0.806
826	-0.808
827	-0.807
827	-0.797
828	-0.797
828	-0.792
829	-0.786
829	-0.768
829	-0.765
830	-0.763
830	-0.749
831	-0.741
831	-0.729
832	-0.72
832	-0.715
832	-0.708
833	-0.707
833	-0.712
834	-0.709
834	-0.704
835	-0.698
835	-0.697
835	-0.693
836	-0.69
836	-0.687
837	-0.677
837	-0.669
838	-0.656
838	-0.639
839	-0.635
839	-0.623
839	-0.612
840	-0.612
840	-0.601
841	-0.591
841	-0.584
842	-0.574
842	-0.561
842	-0.558
843	-0.555
843	-0.548
844	-0.544
844	-0.532
845	-0.516
845	-0.507
845	-0.495
846	-0.483
846	-0.473
847	-0.462
847	-0.449
848	-0.434
848	-0.418
848	-0.404
849	-0.394
849	-0.383
850	-0.373
850	-0.362
851	-0.349
851	-0.333
851	-0.325
852	-0.307
852	-0.293
853	-0.284
853	-0.273
854	-0.261
854	-0.249
854	-0.236
855	-0.225
855	-0.216
856	-0.206
856	-0.198
857	-0.192
857	-0.184
857	-0.171
858	-0.16
858	-0.151
859	-0.14
859	-0.128
860	-0.117
860	-0.102
860	-0.092
861	-0.08
861	-0.069
862	-0.061
862	-0.052
863	-0.043
863	-0.033
863	-0.027
864	-0.021
864	-0.014
865	-0.007
865	-0.001
866	0.005
866	0.011
866	0.016
867	0.022
867	0.028
868	0.032
868	0.037
869	0.042
869	0.046
869	0.048
870	0.051
870	0.053
871	0.055
871	0.057
872	0.057
872	0.058
872	0.059
873	0.059
873	0.058
874	0.058
874	0.058
875	0.057
875	0.057
875	0.056
876	0.056
876	0.056
877	0.055
877	0.054
878	0.054
878	0.053
878	0.053
879	0.052
879	0.052
880	0.051
880	0.05
881	0.049
881	0.047
881	0.046
882	0.045
882	0.043
883	0.042
883	0.041
884	0.04
884	0.04
884	0.039
885	0.039
885	0.039
886	0.038
886	0.038
887	0.038
887	0.038
887	0.037
888	0.037
888	0.036
889	0.035
889	0.034
890	0.033
890	0.032
890	0.032
891	0.032
891	0.031
892	0.032
892	0.033
893	0.033
893	0.033
893	0.034
894	0.035
894	0.035
895	0.035
895	0.035
895	0.035
896	0.036
896	0.036
897	0.036
897	0.036
898	0.036
898	0.036
898	0.036
899	0.036
899	0.037
900	0.037
900	0.037
901	0.037
901	0.036
901	0.036
902	0.035
902	0.035
903	0.035
903	0.034
904	0.034
904	0.033
904	0.033
905	0.033
905	0.033
906	0.034
906	0.035
907	0.035
907	0.036
907	0.036
908	0.037
908	0.038
909	0.039
909	0.039
910	0.04
910	0.04
910	0.041
911	0.041
911	0.042
912	0.042
912	0.043
913	0.044
913	0.044
913	0.044
914	0.045
914	0.045
915	0.045
915	0.045
916	0.045
916	0.044
916	0.043
917	0.043
917	0.042
918	0.041
918	0.041
918	0.04
919	0.039
919	0.039
920	0.039
920	0.039
921	0.039
921	0.039
921	0.04
922	0.04
922	0.04
923	0.04
923	0.04
924	0.039
924	0.039
924	0.038
925	0.037
925	0.035
926	0.034
926	0.032
927	0.031
927	0.03
927	0.029
928	0.029
928	0.028
929	0.028
929	0.029
930	0.029
930	0.03
930	0.031
931	0.032
931	0.033
932	0.035
932	0.036
933	0.037
933	0.037
933	0.037
934	0.037
934	0.037
935	0.037
935	0.035
935	0.034
936	0.033
936	0.032
937	0.03
937	0.029
938	0.029
938	0.028
938	0.027
939	0.026
939	0.025
940	0.025
940	0.024
941	0.024
941	0.023
941	0.023
942	0.022
942	0.022
943	0.023
943	0.022
944	0.022
944	0.021
944	0.021
945	0.021
945	0.021
946	0.02
946	0.019
946	0.019
947	0.019
947	0.019
948	0.019
948	0.02
949	0.021
949	0.022
949	0.023
950	0.025
950	0.026
951	0.028
951	0.028
952	0.029
952	0.031
952	0.031
953	0.031
953	0.032
954	0.032
954	0.032
955	0.032
955	0.031
955	0.031
956	0.031
956	0.03
957	0.029
957	0.028
957	0.028
958	0.027
958	0.026
959	0.026
959	0.025
960	0.025
960	0.025
960	0.025
961	0.025
961	0.026
962	0.026
962	0.027
963	0.027
963	0.027
963	0.028
964	0.028
964	0.029
965	0.03
965	0.03
966	0.031
966	0.032
966	0.032
967	0.033
967	0.033
968	0.033
968	0.033
968	0.033
969	0.033
969	0.033
970	0.032
970	0.031
971	0.031
971	0.031
971	0.031
972	0.031
972	0.031
973	0.031
973	0.03
974	0.03
974	0.03
974	0.03
975	0.031
975	0.03
976	0.03
976	0.029
976	0.029
977	0.028
977	0.028
978	0.027
978	0.026
979	0.025
979	0.024
979	0.024
980	0.023
980	0.023
981	0.022
981	0.022
982	0.022
982	0.022
982	0.022
983	0.022
983	0.022
984	0.022
984	0.022
984	0.022
985	0.022
985	0.021
986	0.021
986	0.02
987	0.02
987	0.019
987	0.019
988	0.018
988	0.017
989	0.017
989	0.016
990	0.016
990	0.015
990	0.014
991	0.014
991	0.013
992	0.012
992	0.012
992	0.011
993	0.01
993	0.009
994	0.008
994	0.006
995	0.005
995	0.004
995	0.002
996	0.001
996	-0
997	-0.001
997	-0.002
997	-0.002
998	-0.003
998	-0.002
999	-0.002
999	-0.002
1000	-0.001
1000	-0.001
1000	-0
1001	0.001
1001	0.002
1002	0.002
1002	0.003
1003	0.004
1003	0.004
1003	0.004
1004	0.005
1004	0.005
1005	0.005
1005	0.004
1005	0.004
1006	0.003
1006	0.002
1007	0.001
1007	0
1008	-0.001
1008	-0.002
1008	-0.002
1009	-0.003
1009	-0.003
1010	-0.002
1010	-0.002
1010	-0.001
1011	-0.001
1011	-0
1012	0.001
1012	0.002
1013	0.003
1013	0.004
1013	0.005
1014	0.005
1014	0.006
1015	0.006
1015	0.007
1016	0.008
1016	0.008
1016	0.008
1017	0.007
1017	0.007
1018	0.008
1018	0.007
1018	0.008
1019	0.007
1019	0.007
1020	0.007
1020	0.006
1021	0.006
1021	0.005
1021	0.005
1022	0.005
1022	0.004
1023	0.004
1023	0.004
1023	0.004
1024	0.004
1024	0.003
1025	0.003
1025	0.004
1026	0.004
1026	0.004
1026	0.004
1027	0.003
1027	0.004
1028	0.004
1028	0.005
1028	0.005
1029	0.005
1029	0.005
1030	0.005
1030	0.005
1031	0.005
1031	0.006
1031	0.006
1032	0.005
1032	0.005
1033	0.004
1033	0.004
1033	0.004
1034	0.003
1034	0.002
1035	0.002
1035	0.001
1036	-0.001
1036	-0.001
1036	-0.002
1037	-0.002
1037	-0.002
1038	-0.002
1038	-0.003
1039	-0.002
1039	-0.002
1039	-0.002
1040	-0.002
1040	-0.001
1041	-0.001
1041	-0.001
1041	-0.001
1042	-0.002
1042	-0.003
1043	-0.003
1043	-0.004
1044	-0.004
1044	-0.005
1044	-0.005
1045	-0.006
1045	-0.006
1046	-0.007
1046	-0.007
1046	-0.007
1047	-0.007
1047	-0.007
1048	-0.006
1048	-0.007
1049	-0.007
1049	-0.008
1049	-0.008
1050	-0.009
1050	-0.01
1051	-0.011
1051	-0.012
1051	-0.013
1052	-0.014
1052	-0.015
1053	-0.016
1053	-0.016
1053	-0.016
1054	-0.017
1054	-0.017
1055	-0.016
1055	-0.016
1056	-0.016
1056	-0.016
1056	-0.016
1057	-0.016
1057	-0.016
1058	-0.016
1058	-0.016
1058	-0.016
1059	-0.016
1059	-0.017
1060	-0.017
1060	-0.017
1061	-0.018
1061	-0.017
1061	-0.017
1062	-0.018
1062	-0.018
1063	-0.018
1063	-0.018
1063	-0.018
1064	-0.018
1064	-0.018
1065	-0.018
1065	-0.019
1066	-0.019
1066	-0.02
1066	-0.02
1067	-0.021
1067	-0.022
1068	-0.022
1068	-0.023
1068	-0.024
1069	-0.025
1069	-0.026
1070	-0.027
1070	-0.027
1071	-0.028
1071	-0.028
1071	-0.029
1072	-0.029
1072	-0.028
1073	-0.029
1073	-0.029
1073	-0.029
1074	-0.029
1074	-0.029
1075	-0.029
1075	-0.03
1076	-0.031
1076	-0.031
1076	-0.032
1077	-0.033
1077	-0.033
1078	-0.034
1078	-0.035
1078	-0.036
1079	-0.036
1079	-0.036
1080	-0.037
1080	-0.037
1080	-0.039
1081	-0.04
1081	-0.04
1082	-0.041
1082	-0.043
1083	-0.044
1083	-0.046
1083	-0.047
1084	-0.049
1084	-0.05
1085	-0.051
1085	-0.052
1085	-0.053
1086	-0.054
1086	-0.055
1087	-0.056
1087	-0.056
1088	-0.057
1088	-0.058
1088	-0.059
1089	-0.06
1089	-0.061
1090	-0.061
1090	-0.062
1090	-0.064
1091	-0.064
1091	-0.064
1092	-0.064
1092	-0.064
1092	-0.065
1093	-0.066
1093	-0.066
1094	-0.066
1094	-0.067
1095	-0.069
1095	-0.069
1095	-0.069
1096	-0.072
1096	-0.074
1097	-0.076
1097	-0.078
1097	-0.079
1098	-0.082
1098	-0.084
1099	-0.085
1099	-0.087
1100	-0.089
1100	-0.092
1100	-0.095
1101	-0.098
1101	-0.1
1102	-0.102
1102	-0.105
1102	-0.107
1103	-0.109
1103	-0.112
1104	-0.115
1104	-0.118
1104	-0.12
1105	-0.121
1105	-0.124
1106	-0.129
1106	-0.131
1107	-0.137
1107	-0.142
1107	-0.148
1108	-0.149
1108	-0.151
1109	-0.155
1109	-0.159
1109	-0.164
1110	-0.167
1110	-0.171
1111	-0.181
1111	-0.178
