Data from 3.3A_17C_Absorbance__462__03329.txt Node

Date: Tue Jun 20 17:28:43 CEST 2023
User: Marek
Spectrometer: MAYP115816
Trigger mode: 0
Integration Time (sec): 2.200000E-1
Scans to average: 10
Electric dark correction enabled: true
Nonlinearity correction enabled: true
Boxcar width: 5
XAxis mode: Wavelengths
Number of Pixels in Spectrum: 2068
>>>>>Begin Spectral Data<<<<<
199	-0.804
199	-0.789
200	-0.753
200	-0.697
201	-0.668
201	-0.656
202	-0.639
202	-0.631
203	-0.631
203	-0.625
204	-0.606
204	-0.591
205	-0.567
205	-0.558
205	-0.568
206	-0.569
206	-0.567
207	-0.561
207	-0.568
208	-0.57
208	-0.574
209	-0.574
209	-0.58
210	-0.593
210	-0.599
211	-0.592
211	-0.596
212	-0.604
212	-0.612
213	-0.609
213	-0.605
213	-0.603
214	-0.61
214	-0.611
215	-0.607
215	-0.612
216	-0.62
216	-0.625
217	-0.623
217	-0.624
218	-0.63
218	-0.631
219	-0.636
219	-0.638
220	-0.642
220	-0.649
221	-0.649
221	-0.65
221	-0.641
222	-0.641
222	-0.638
223	-0.635
223	-0.64
224	-0.641
224	-0.639
225	-0.636
225	-0.638
226	-0.639
226	-0.638
227	-0.646
227	-0.657
228	-0.661
228	-0.67
229	-0.673
229	-0.671
229	-0.67
230	-0.665
230	-0.662
231	-0.658
231	-0.653
232	-0.656
232	-0.649
233	-0.649
233	-0.635
234	-0.635
234	-0.631
235	-0.636
235	-0.647
236	-0.655
236	-0.657
236	-0.658
237	-0.656
237	-0.658
238	-0.659
238	-0.662
239	-0.664
239	-0.674
240	-0.668
240	-0.664
241	-0.659
241	-0.664
242	-0.665
242	-0.674
243	-0.674
243	-0.677
243	-0.681
244	-0.677
244	-0.677
245	-0.68
245	-0.686
246	-0.694
246	-0.695
247	-0.704
247	-0.69
248	-0.689
248	-0.69
249	-0.694
249	-0.697
250	-0.696
250	-0.706
250	-0.702
251	-0.704
251	-0.701
252	-0.703
252	-0.715
253	-0.711
253	-0.723
254	-0.729
254	-0.729
255	-0.74
255	-0.737
256	-0.739
256	-0.75
257	-0.76
257	-0.757
258	-0.759
258	-0.766
258	-0.764
259	-0.757
259	-0.774
260	-0.772
260	-0.762
261	-0.772
261	-0.758
262	-0.763
262	-0.761
263	-0.75
263	-0.756
264	-0.768
264	-0.771
265	-0.762
265	-0.765
265	-0.775
266	-0.768
266	-0.768
267	-0.767
267	-0.784
268	-0.794
268	-0.788
269	-0.779
269	-0.792
270	-0.797
270	-0.795
271	-0.809
271	-0.818
272	-0.819
272	-0.822
272	-0.815
273	-0.824
273	-0.839
274	-0.829
274	-0.825
275	-0.821
275	-0.808
276	-0.812
276	-0.819
277	-0.821
277	-0.818
278	-0.823
278	-0.822
278	-0.808
279	-0.816
279	-0.829
280	-0.831
280	-0.841
281	-0.834
281	-0.825
282	-0.831
282	-0.826
283	-0.819
283	-0.833
284	-0.847
284	-0.86
285	-0.842
285	-0.849
285	-0.841
286	-0.847
286	-0.864
287	-0.862
287	-0.858
288	-0.857
288	-0.84
289	-0.837
289	-0.844
290	-0.852
290	-0.839
291	-0.844
291	-0.84
292	-0.82
292	-0.816
292	-0.82
293	-0.809
293	-0.805
294	-0.806
294	-0.792
295	-0.775
295	-0.79
296	-0.8
296	-0.795
297	-0.785
297	-0.789
298	-0.786
298	-0.802
298	-0.806
299	-0.788
299	-0.78
300	-0.776
300	-0.756
301	-0.738
301	-0.74
302	-0.751
302	-0.738
303	-0.731
303	-0.72
304	-0.704
304	-0.706
305	-0.701
305	-0.707
305	-0.722
306	-0.706
306	-0.705
307	-0.697
307	-0.706
308	-0.709
308	-0.704
309	-0.706
309	-0.702
310	-0.698
310	-0.693
311	-0.678
311	-0.698
311	-0.687
312	-0.682
312	-0.671
313	-0.663
313	-0.664
314	-0.671
314	-0.668
315	-0.665
315	-0.66
316	-0.654
316	-0.642
317	-0.634
317	-0.631
318	-0.625
318	-0.622
318	-0.612
319	-0.599
319	-0.591
320	-0.59
320	-0.586
321	-0.582
321	-0.583
322	-0.576
322	-0.568
323	-0.568
323	-0.559
324	-0.555
324	-0.544
324	-0.532
325	-0.517
325	-0.5
326	-0.492
326	-0.466
327	-0.453
327	-0.431
328	-0.399
328	-0.375
329	-0.347
329	-0.318
330	-0.291
330	-0.255
330	-0.219
331	-0.182
331	-0.147
332	-0.111
332	-0.077
333	-0.045
333	-0.01
334	0.02
334	0.048
335	0.075
335	0.099
336	0.123
336	0.146
336	0.164
337	0.182
337	0.2
338	0.214
338	0.226
339	0.241
339	0.252
340	0.262
340	0.27
341	0.278
341	0.284
342	0.292
342	0.298
342	0.304
343	0.308
343	0.313
344	0.316
344	0.319
345	0.323
345	0.325
346	0.327
346	0.329
347	0.331
347	0.333
348	0.334
348	0.336
348	0.337
349	0.338
349	0.339
350	0.339
350	0.34
351	0.341
351	0.341
352	0.341
352	0.341
353	0.342
353	0.342
354	0.342
354	0.343
354	0.343
355	0.343
355	0.343
356	0.343
356	0.343
357	0.343
357	0.343
358	0.343
358	0.343
359	0.343
359	0.343
360	0.343
360	0.343
360	0.344
361	0.344
361	0.343
362	0.343
362	0.343
363	0.343
363	0.343
364	0.343
364	0.343
365	0.343
365	0.343
366	0.343
366	0.342
366	0.342
367	0.343
367	0.342
368	0.342
368	0.342
369	0.341
369	0.341
370	0.341
370	0.341
371	0.341
371	0.341
372	0.34
372	0.34
372	0.34
373	0.339
373	0.339
374	0.339
374	0.339
375	0.338
375	0.338
376	0.337
376	0.337
377	0.337
377	0.337
378	0.337
378	0.336
378	0.336
379	0.336
379	0.336
380	0.336
380	0.336
381	0.335
381	0.335
382	0.335
382	0.335
383	0.334
383	0.334
383	0.334
384	0.333
384	0.333
385	0.333
385	0.332
386	0.332
386	0.332
387	0.331
387	0.331
388	0.331
388	0.331
389	0.33
389	0.33
389	0.33
390	0.33
390	0.329
391	0.329
391	0.329
392	0.329
392	0.328
393	0.328
393	0.328
394	0.328
394	0.327
394	0.327
395	0.327
395	0.326
396	0.326
396	0.325
397	0.325
397	0.325
398	0.324
398	0.324
399	0.323
399	0.323
400	0.323
400	0.323
400	0.322
401	0.322
401	0.322
402	0.321
402	0.321
403	0.321
403	0.321
404	0.321
404	0.321
405	0.32
405	0.32
405	0.32
406	0.32
406	0.32
407	0.319
407	0.319
408	0.319
408	0.318
409	0.318
409	0.318
410	0.318
410	0.318
411	0.318
411	0.317
411	0.317
412	0.317
412	0.316
413	0.316
413	0.316
414	0.316
414	0.316
415	0.315
415	0.315
416	0.315
416	0.314
416	0.314
417	0.314
417	0.314
418	0.313
418	0.313
419	0.313
419	0.313
420	0.313
420	0.313
421	0.313
421	0.312
421	0.313
422	0.313
422	0.313
423	0.313
423	0.312
424	0.312
424	0.312
425	0.312
425	0.312
426	0.311
426	0.311
427	0.311
427	0.311
427	0.311
428	0.311
428	0.311
429	0.31
429	0.31
430	0.31
430	0.31
431	0.31
431	0.309
432	0.309
432	0.308
432	0.308
433	0.308
433	0.308
434	0.308
434	0.309
435	0.309
435	0.308
436	0.308
436	0.308
437	0.308
437	0.308
437	0.308
438	0.308
438	0.308
439	0.308
439	0.308
440	0.308
440	0.308
441	0.307
441	0.307
442	0.307
442	0.307
442	0.307
443	0.306
443	0.306
444	0.306
444	0.306
445	0.306
445	0.307
446	0.307
446	0.307
447	0.307
447	0.307
447	0.307
448	0.307
448	0.307
449	0.307
449	0.307
450	0.307
450	0.307
451	0.307
451	0.307
452	0.307
452	0.307
452	0.307
453	0.307
453	0.307
454	0.307
454	0.307
455	0.307
455	0.307
456	0.307
456	0.307
457	0.307
457	0.307
458	0.307
458	0.307
458	0.307
459	0.307
459	0.306
460	0.306
460	0.306
461	0.306
461	0.307
462	0.307
462	0.308
463	0.309
463	0.31
463	0.31
464	0.311
464	0.311
465	0.311
465	0.312
466	0.312
466	0.312
467	0.313
467	0.313
467	0.313
468	0.312
468	0.312
469	0.313
469	0.313
470	0.314
470	0.314
471	0.315
471	0.315
472	0.315
472	0.316
472	0.317
473	0.317
473	0.318
474	0.319
474	0.32
475	0.32
475	0.321
476	0.322
476	0.323
477	0.324
477	0.325
477	0.326
478	0.326
478	0.327
479	0.328
479	0.329
480	0.33
480	0.33
481	0.331
481	0.332
482	0.333
482	0.334
482	0.335
483	0.336
483	0.338
484	0.339
484	0.34
485	0.342
485	0.343
486	0.344
486	0.345
487	0.347
487	0.348
487	0.349
488	0.35
488	0.351
489	0.353
489	0.355
490	0.356
490	0.358
491	0.36
491	0.361
492	0.363
492	0.364
492	0.365
493	0.367
493	0.369
494	0.371
494	0.373
495	0.375
495	0.376
496	0.378
496	0.38
496	0.383
497	0.385
497	0.387
498	0.389
498	0.391
499	0.393
499	0.396
500	0.399
500	0.402
501	0.404
501	0.406
501	0.408
502	0.411
502	0.413
503	0.416
503	0.418
504	0.42
504	0.422
505	0.425
505	0.428
506	0.431
506	0.434
506	0.437
507	0.44
507	0.443
508	0.446
508	0.449
509	0.452
509	0.455
510	0.458
510	0.46
511	0.462
511	0.465
511	0.467
512	0.469
512	0.471
513	0.473
513	0.475
514	0.478
514	0.48
515	0.482
515	0.484
515	0.486
516	0.488
516	0.49
517	0.493
517	0.495
518	0.496
518	0.497
519	0.499
519	0.5
520	0.502
520	0.503
520	0.505
521	0.507
521	0.508
522	0.509
522	0.511
523	0.513
523	0.515
524	0.515
524	0.517
524	0.518
525	0.519
525	0.519
526	0.52
526	0.52
527	0.521
527	0.522
528	0.522
528	0.522
529	0.522
529	0.522
529	0.522
530	0.522
530	0.521
531	0.521
531	0.521
532	0.52
532	0.52
533	0.519
533	0.519
533	0.518
534	0.517
534	0.516
535	0.515
535	0.515
536	0.514
536	0.513
537	0.512
537	0.511
538	0.509
538	0.507
538	0.506
539	0.505
539	0.504
540	0.502
540	0.499
541	0.497
541	0.495
542	0.493
542	0.491
542	0.489
543	0.487
543	0.484
544	0.482
544	0.48
545	0.477
545	0.475
546	0.473
546	0.47
547	0.467
547	0.464
547	0.462
548	0.46
548	0.458
549	0.455
549	0.452
550	0.45
550	0.447
551	0.444
551	0.442
551	0.439
552	0.437
552	0.434
553	0.432
553	0.429
554	0.427
554	0.423
555	0.42
555	0.418
556	0.415
556	0.412
556	0.41
557	0.408
557	0.405
558	0.403
558	0.4
559	0.398
559	0.395
560	0.393
560	0.39
560	0.388
561	0.386
561	0.384
562	0.382
562	0.38
563	0.377
563	0.375
564	0.373
564	0.371
564	0.369
565	0.368
565	0.366
566	0.364
566	0.362
567	0.36
567	0.359
568	0.357
568	0.355
568	0.353
569	0.351
569	0.349
570	0.346
570	0.343
571	0.341
571	0.339
572	0.336
572	0.334
573	0.332
573	0.329
573	0.327
574	0.325
574	0.324
575	0.322
575	0.322
576	0.321
576	0.319
577	0.316
577	0.315
577	0.314
578	0.313
578	0.313
579	0.313
579	0.312
580	0.309
580	0.305
581	0.302
581	0.301
581	0.3
582	0.299
582	0.299
583	0.298
583	0.296
584	0.292
584	0.29
585	0.289
585	0.289
585	0.288
586	0.287
586	0.286
587	0.283
587	0.281
588	0.279
588	0.278
589	0.277
589	0.276
590	0.275
590	0.274
590	0.274
591	0.273
591	0.272
592	0.27
592	0.268
593	0.267
593	0.266
594	0.265
594	0.263
594	0.262
595	0.261
595	0.259
596	0.257
596	0.257
597	0.258
597	0.257
598	0.256
598	0.255
598	0.255
599	0.254
599	0.253
600	0.251
600	0.25
601	0.25
601	0.249
602	0.247
602	0.247
602	0.245
603	0.245
603	0.245
604	0.244
604	0.244
605	0.243
605	0.243
606	0.242
606	0.24
606	0.239
607	0.238
607	0.237
608	0.236
608	0.235
609	0.233
609	0.233
610	0.231
610	0.23
610	0.229
611	0.229
611	0.228
612	0.228
612	0.228
613	0.227
613	0.226
614	0.224
614	0.223
614	0.222
615	0.22
615	0.219
616	0.218
616	0.217
617	0.215
617	0.214
618	0.212
618	0.211
618	0.21
619	0.209
619	0.209
620	0.21
620	0.209
621	0.207
621	0.206
622	0.205
622	0.204
622	0.202
623	0.201
623	0.2
624	0.2
624	0.198
625	0.197
625	0.196
626	0.195
626	0.193
626	0.193
627	0.192
627	0.191
628	0.191
628	0.189
629	0.188
629	0.187
630	0.184
630	0.183
630	0.181
631	0.18
631	0.178
632	0.175
632	0.173
633	0.171
633	0.168
634	0.167
634	0.165
634	0.163
635	0.161
635	0.158
636	0.156
636	0.154
637	0.151
637	0.147
638	0.145
638	0.141
638	0.138
639	0.133
639	0.129
640	0.125
640	0.12
641	0.116
641	0.112
642	0.108
642	0.104
642	0.099
643	0.094
643	0.089
644	0.084
644	0.079
645	0.074
645	0.069
646	0.063
646	0.057
646	0.051
647	0.044
647	0.038
648	0.03
648	0.023
649	0.015
649	0.008
650	0.001
650	-0.007
650	-0.014
651	-0.024
651	-0.036
652	-0.049
652	-0.064
653	-0.077
653	-0.087
653	-0.082
654	-0.062
654	-0.056
655	-0.061
655	-0.066
656	-0.072
656	-0.079
657	-0.083
657	-0.088
657	-0.094
658	-0.101
658	-0.132
659	-0.219
659	-0.308
660	-0.347
660	-0.373
661	-0.4
661	-0.429
661	-0.461
662	-0.489
662	-0.52
663	-0.554
663	-0.59
664	-0.627
664	-0.667
665	-0.713
665	-0.76
665	-0.804
666	-0.854
666	-0.907
667	-0.961
667	-1.022
668	-1.081
668	-1.15
669	-1.218
669	-1.292
669	-1.372
670	-1.458
670	-1.587
671	-1.816
671	-2.167
672	-2.374
672	-2.519
672	-2.63
673	-2.72
673	-2.796
674	-2.835
674	-2.847
675	-2.862
675	-2.864
676	-2.852
676	-2.787
676	-2.711
677	-2.618
677	-2.501
678	-2.32
678	-1.981
679	-1.681
679	-1.544
680	-1.45
680	-1.379
680	-1.316
681	-1.273
681	-1.223
682	-1.184
682	-1.144
683	-1.104
683	-1.082
684	-1.056
684	-1.038
684	-1.016
685	-0.996
685	-0.988
686	-0.966
686	-0.953
687	-0.944
687	-0.933
687	-0.933
688	-0.919
688	-0.911
689	-0.915
689	-0.913
690	-0.901
690	-0.891
691	-0.889
691	-0.892
691	-0.892
692	-0.893
692	-0.889
693	-0.896
693	-0.906
694	-0.887
694	-0.887
695	-0.889
695	-0.884
695	-0.891
696	-0.899
696	-0.892
697	-0.885
697	-0.882
698	-0.877
698	-0.869
698	-0.885
699	-0.884
699	-0.883
700	-0.903
700	-0.897
701	-0.884
701	-0.879
702	-0.879
702	-0.877
702	-0.877
703	-0.869
703	-0.857
704	-0.865
704	-0.869
705	-0.856
705	-0.858
705	-0.853
706	-0.845
706	-0.843
707	-0.855
707	-0.859
708	-0.856
708	-0.852
709	-0.852
709	-0.849
709	-0.846
710	-0.852
710	-0.854
711	-0.853
711	-0.855
712	-0.845
712	-0.84
713	-0.846
713	-0.848
713	-0.829
714	-0.831
714	-0.833
715	-0.826
715	-0.834
716	-0.853
716	-0.862
716	-0.864
717	-0.871
717	-0.862
718	-0.857
718	-0.858
719	-0.854
719	-0.849
720	-0.842
720	-0.837
720	-0.829
721	-0.82
721	-0.821
722	-0.82
722	-0.817
723	-0.834
723	-0.846
723	-0.855
724	-0.853
724	-0.859
725	-0.853
725	-0.857
726	-0.861
726	-0.854
727	-0.855
727	-0.862
727	-0.851
728	-0.838
728	-0.833
729	-0.834
729	-0.838
730	-0.845
730	-0.834
730	-0.839
731	-0.842
731	-0.844
732	-0.846
732	-0.841
733	-0.857
733	-0.864
734	-0.872
734	-0.863
734	-0.845
735	-0.836
735	-0.831
736	-0.829
736	-0.821
737	-0.821
737	-0.812
737	-0.803
738	-0.791
738	-0.78
739	-0.782
739	-0.782
740	-0.797
740	-0.799
741	-0.81
741	-0.819
741	-0.827
742	-0.833
742	-0.848
743	-0.853
743	-0.855
744	-0.857
744	-0.867
744	-0.86
745	-0.867
745	-0.856
746	-0.851
746	-0.843
747	-0.847
747	-0.836
748	-0.839
748	-0.845
748	-0.848
749	-0.84
749	-0.846
750	-0.836
750	-0.837
751	-0.837
751	-0.833
751	-0.844
752	-0.849
752	-0.851
753	-0.851
753	-0.844
754	-0.863
754	-0.863
754	-0.872
755	-0.872
755	-0.865
756	-0.867
756	-0.853
757	-0.846
757	-0.836
758	-0.838
758	-0.836
758	-0.833
759	-0.837
759	-0.835
760	-0.833
760	-0.836
761	-0.831
761	-0.834
761	-0.833
762	-0.84
762	-0.84
763	-0.84
763	-0.842
764	-0.843
764	-0.84
764	-0.849
765	-0.846
765	-0.852
766	-0.855
766	-0.858
767	-0.873
767	-0.869
768	-0.869
768	-0.861
768	-0.854
769	-0.858
769	-0.863
770	-0.874
770	-0.878
771	-0.874
771	-0.872
771	-0.878
772	-0.883
772	-0.902
773	-0.904
773	-0.904
774	-0.902
774	-0.885
775	-0.872
775	-0.871
775	-0.875
776	-0.884
776	-0.88
777	-0.879
777	-0.863
778	-0.873
778	-0.881
778	-0.88
779	-0.889
779	-0.905
780	-0.9
780	-0.908
781	-0.898
781	-0.888
781	-0.901
782	-0.92
782	-0.922
783	-0.923
783	-0.932
784	-0.936
784	-0.928
784	-0.946
785	-0.94
785	-0.953
786	-0.957
786	-0.951
787	-0.94
787	-0.948
788	-0.94
788	-0.933
788	-0.934
789	-0.935
789	-0.928
790	-0.928
790	-0.913
791	-0.919
791	-0.914
791	-0.907
792	-0.9
792	-0.903
793	-0.906
793	-0.895
794	-0.888
794	-0.879
794	-0.886
795	-0.906
795	-0.893
796	-0.899
796	-0.897
797	-0.889
797	-0.88
797	-0.872
798	-0.893
798	-0.898
799	-0.898
799	-0.884
800	-0.877
800	-0.886
801	-0.883
801	-0.887
801	-0.886
802	-0.885
802	-0.887
803	-0.881
803	-0.872
804	-0.878
804	-0.886
804	-0.869
805	-0.849
805	-0.84
806	-0.84
806	-0.836
807	-0.838
807	-0.839
807	-0.821
808	-0.819
808	-0.811
809	-0.807
809	-0.808
810	-0.812
810	-0.81
810	-0.805
811	-0.808
811	-0.8
812	-0.79
812	-0.792
813	-0.794
813	-0.795
813	-0.792
814	-0.792
814	-0.797
815	-0.788
815	-0.785
816	-0.779
816	-0.795
817	-0.81
817	-0.813
817	-0.823
818	-0.815
818	-0.812
819	-0.821
819	-0.82
820	-0.831
820	-0.83
820	-0.83
821	-0.824
821	-0.819
822	-0.818
822	-0.806
823	-0.819
823	-0.819
823	-0.812
824	-0.812
824	-0.822
825	-0.819
825	-0.817
826	-0.813
826	-0.81
826	-0.808
827	-0.809
827	-0.798
828	-0.796
828	-0.791
829	-0.784
829	-0.77
829	-0.771
830	-0.769
830	-0.757
831	-0.749
831	-0.74
832	-0.729
832	-0.725
832	-0.718
833	-0.717
833	-0.723
834	-0.719
834	-0.713
835	-0.705
835	-0.703
835	-0.7
836	-0.694
836	-0.692
837	-0.682
837	-0.673
838	-0.66
838	-0.641
839	-0.634
839	-0.621
839	-0.612
840	-0.609
840	-0.599
841	-0.588
841	-0.58
842	-0.571
842	-0.558
842	-0.556
843	-0.552
843	-0.547
844	-0.545
844	-0.533
845	-0.52
845	-0.511
845	-0.5
846	-0.488
846	-0.477
847	-0.467
847	-0.454
848	-0.44
848	-0.422
848	-0.408
849	-0.395
849	-0.383
850	-0.372
850	-0.362
851	-0.349
851	-0.332
851	-0.322
852	-0.306
852	-0.294
853	-0.284
853	-0.273
854	-0.262
854	-0.25
854	-0.237
855	-0.226
855	-0.218
856	-0.21
856	-0.201
857	-0.193
857	-0.185
857	-0.171
858	-0.159
858	-0.152
859	-0.141
859	-0.129
860	-0.118
860	-0.102
860	-0.092
861	-0.082
861	-0.071
862	-0.062
862	-0.054
863	-0.045
863	-0.035
863	-0.028
864	-0.023
864	-0.015
865	-0.009
865	-0.003
866	0.003
866	0.009
866	0.014
867	0.02
867	0.025
868	0.03
868	0.035
869	0.04
869	0.043
869	0.046
870	0.048
870	0.051
871	0.053
871	0.054
872	0.055
872	0.056
872	0.056
873	0.056
873	0.056
874	0.055
874	0.055
875	0.055
875	0.054
875	0.054
876	0.054
876	0.053
877	0.053
877	0.052
878	0.051
878	0.051
878	0.051
879	0.05
879	0.05
880	0.049
880	0.048
881	0.046
881	0.045
881	0.044
882	0.042
882	0.04
883	0.039
883	0.038
884	0.037
884	0.037
884	0.036
885	0.036
885	0.036
886	0.036
886	0.036
887	0.035
887	0.035
887	0.035
888	0.034
888	0.034
889	0.033
889	0.032
890	0.032
890	0.03
890	0.029
891	0.029
891	0.029
892	0.03
892	0.03
893	0.03
893	0.03
893	0.031
894	0.031
894	0.032
895	0.032
895	0.032
895	0.032
896	0.033
896	0.032
897	0.033
897	0.033
898	0.033
898	0.033
898	0.033
899	0.034
899	0.034
900	0.034
900	0.035
901	0.034
901	0.034
901	0.033
902	0.033
902	0.033
903	0.032
903	0.032
904	0.031
904	0.03
904	0.03
905	0.03
905	0.031
906	0.032
906	0.032
907	0.033
907	0.033
907	0.034
908	0.035
908	0.036
909	0.036
909	0.037
910	0.037
910	0.038
910	0.038
911	0.039
911	0.039
912	0.04
912	0.041
913	0.041
913	0.041
913	0.042
914	0.043
914	0.043
915	0.043
915	0.043
916	0.042
916	0.042
916	0.041
917	0.04
917	0.04
918	0.039
918	0.038
918	0.037
919	0.036
919	0.036
920	0.036
920	0.036
921	0.036
921	0.037
921	0.037
922	0.037
922	0.037
923	0.037
923	0.037
924	0.037
924	0.036
924	0.035
925	0.034
925	0.033
926	0.032
926	0.03
927	0.029
927	0.028
927	0.027
928	0.026
928	0.026
929	0.026
929	0.027
930	0.027
930	0.028
930	0.029
931	0.03
931	0.031
932	0.032
932	0.033
933	0.034
933	0.035
933	0.035
934	0.035
934	0.034
935	0.034
935	0.033
935	0.032
936	0.031
936	0.029
937	0.028
937	0.027
938	0.027
938	0.026
938	0.025
939	0.024
939	0.023
940	0.023
940	0.022
941	0.021
941	0.021
941	0.021
942	0.02
942	0.02
943	0.021
943	0.02
944	0.02
944	0.019
944	0.019
945	0.019
945	0.019
946	0.018
946	0.017
946	0.017
947	0.017
947	0.016
948	0.017
948	0.018
949	0.018
949	0.02
949	0.021
950	0.022
950	0.024
951	0.025
951	0.026
952	0.027
952	0.028
952	0.029
953	0.029
953	0.03
954	0.03
954	0.029
955	0.03
955	0.029
955	0.029
956	0.029
956	0.028
957	0.027
957	0.027
957	0.026
958	0.025
958	0.025
959	0.024
959	0.023
960	0.023
960	0.023
960	0.023
961	0.024
961	0.024
962	0.024
962	0.025
963	0.025
963	0.026
963	0.026
964	0.027
964	0.028
965	0.029
965	0.029
966	0.03
966	0.03
966	0.031
967	0.032
967	0.032
968	0.032
968	0.032
968	0.032
969	0.031
969	0.031
970	0.03
970	0.029
971	0.029
971	0.029
971	0.029
972	0.029
972	0.028
973	0.028
973	0.028
974	0.028
974	0.028
974	0.028
975	0.029
975	0.028
976	0.028
976	0.028
976	0.027
977	0.027
977	0.026
978	0.025
978	0.024
979	0.023
979	0.023
979	0.022
980	0.022
980	0.021
981	0.021
981	0.02
982	0.02
982	0.02
982	0.02
983	0.02
983	0.02
984	0.02
984	0.02
984	0.02
985	0.02
985	0.02
986	0.019
986	0.019
987	0.018
987	0.017
987	0.017
988	0.016
988	0.016
989	0.015
989	0.015
990	0.014
990	0.013
990	0.012
991	0.012
991	0.011
992	0.011
992	0.01
992	0.009
993	0.008
993	0.007
994	0.005
994	0.004
995	0.003
995	0.001
995	0
996	-0.001
996	-0.002
997	-0.003
997	-0.003
997	-0.004
998	-0.004
998	-0.004
999	-0.003
999	-0.003
1000	-0.003
1000	-0.003
1000	-0.002
1001	-0.001
1001	-0
1002	0.001
1002	0.001
1003	0.002
1003	0.002
1003	0.002
1004	0.003
1004	0.003
1005	0.003
1005	0.002
1005	0.001
1006	0.001
1006	-0
1007	-0.001
1007	-0.002
1008	-0.003
1008	-0.004
1008	-0.004
1009	-0.004
1009	-0.004
1010	-0.004
1010	-0.003
1010	-0.003
1011	-0.002
1011	-0.002
1012	-0.001
1012	0
1013	0.002
1013	0.003
1013	0.004
1014	0.004
1014	0.005
1015	0.006
1015	0.006
1016	0.007
1016	0.007
1016	0.007
1017	0.007
1017	0.007
1018	0.007
1018	0.006
1018	0.006
1019	0.006
1019	0.005
1020	0.005
1020	0.004
1021	0.004
1021	0.004
1021	0.004
1022	0.003
1022	0.003
1023	0.003
1023	0.003
1023	0.003
1024	0.002
1024	0.002
1025	0.002
1025	0.002
1026	0.002
1026	0.002
1026	0.002
1027	0.002
1027	0.002
1028	0.002
1028	0.003
1028	0.003
1029	0.003
1029	0.003
1030	0.003
1030	0.003
1031	0.003
1031	0.003
1031	0.004
1032	0.003
1032	0.003
1033	0.002
1033	0.002
1033	0.002
1034	0.001
1034	0
1035	-0
1035	-0.001
1036	-0.002
1036	-0.003
1036	-0.003
1037	-0.004
1037	-0.003
1038	-0.004
1038	-0.004
1039	-0.004
1039	-0.004
1039	-0.003
1040	-0.003
1040	-0.003
1041	-0.003
1041	-0.003
1041	-0.003
1042	-0.004
1042	-0.004
1043	-0.005
1043	-0.005
1044	-0.005
1044	-0.006
1044	-0.007
1045	-0.007
1045	-0.008
1046	-0.008
1046	-0.009
1046	-0.009
1047	-0.009
1047	-0.009
1048	-0.009
1048	-0.009
1049	-0.009
1049	-0.01
1049	-0.011
1050	-0.011
1050	-0.013
1051	-0.013
1051	-0.014
1051	-0.015
1052	-0.016
1052	-0.017
1053	-0.017
1053	-0.018
1053	-0.018
1054	-0.019
1054	-0.019
1055	-0.018
1055	-0.018
1056	-0.018
1056	-0.018
1056	-0.017
1057	-0.017
1057	-0.017
1058	-0.017
1058	-0.018
1058	-0.018
1059	-0.018
1059	-0.018
1060	-0.019
1060	-0.019
1061	-0.019
1061	-0.02
1061	-0.02
1062	-0.02
1062	-0.02
1063	-0.02
1063	-0.021
1063	-0.021
1064	-0.021
1064	-0.02
1065	-0.02
1065	-0.021
1066	-0.021
1066	-0.022
1066	-0.022
1067	-0.023
1067	-0.024
1068	-0.025
1068	-0.025
1068	-0.026
1069	-0.027
1069	-0.028
1070	-0.028
1070	-0.029
1071	-0.029
1071	-0.029
1071	-0.03
1072	-0.03
1072	-0.03
1073	-0.03
1073	-0.03
1073	-0.031
1074	-0.03
1074	-0.031
1075	-0.031
1075	-0.031
1076	-0.032
1076	-0.033
1076	-0.033
1077	-0.034
1077	-0.035
1078	-0.035
1078	-0.036
1078	-0.036
1079	-0.037
1079	-0.037
1080	-0.039
1080	-0.039
1080	-0.041
1081	-0.042
1081	-0.043
1082	-0.044
1082	-0.045
1083	-0.047
1083	-0.048
1083	-0.049
1084	-0.051
1084	-0.052
1085	-0.053
1085	-0.054
1085	-0.055
1086	-0.056
1086	-0.057
1087	-0.058
1087	-0.058
1088	-0.06
1088	-0.061
1088	-0.061
1089	-0.062
1089	-0.063
1090	-0.064
1090	-0.064
1090	-0.065
1091	-0.066
1091	-0.066
1092	-0.066
1092	-0.066
1092	-0.066
1093	-0.068
1093	-0.067
1094	-0.068
1094	-0.068
1095	-0.07
1095	-0.07
1095	-0.071
1096	-0.073
1096	-0.075
1097	-0.076
1097	-0.078
1097	-0.08
1098	-0.082
1098	-0.084
1099	-0.086
1099	-0.088
1100	-0.09
1100	-0.093
1100	-0.096
1101	-0.099
1101	-0.101
1102	-0.103
1102	-0.106
1102	-0.107
1103	-0.11
1103	-0.112
1104	-0.115
1104	-0.118
1104	-0.119
1105	-0.121
1105	-0.124
1106	-0.13
1106	-0.132
1107	-0.138
1107	-0.144
1107	-0.148
1108	-0.151
1108	-0.153
1109	-0.157
1109	-0.162
1109	-0.166
1110	-0.168
1110	-0.173
1111	-0.184
1111	-0.179
