Data from 3.3A_17C_Absorbance__445__03312.txt Node

Date: Tue Jun 20 17:28:05 CEST 2023
User: Marek
Spectrometer: MAYP115816
Trigger mode: 0
Integration Time (sec): 2.200000E-1
Scans to average: 10
Electric dark correction enabled: true
Nonlinearity correction enabled: true
Boxcar width: 5
XAxis mode: Wavelengths
Number of Pixels in Spectrum: 2068
>>>>>Begin Spectral Data<<<<<
199	-0.802
199	-0.781
200	-0.749
200	-0.696
201	-0.668
201	-0.657
202	-0.642
202	-0.634
203	-0.634
203	-0.628
204	-0.608
204	-0.59
205	-0.567
205	-0.557
205	-0.566
206	-0.567
206	-0.564
207	-0.557
207	-0.565
208	-0.566
208	-0.569
209	-0.571
209	-0.578
210	-0.589
210	-0.596
211	-0.589
211	-0.593
212	-0.602
212	-0.608
213	-0.603
213	-0.598
213	-0.595
214	-0.602
214	-0.604
215	-0.601
215	-0.607
216	-0.615
216	-0.621
217	-0.62
217	-0.621
218	-0.628
218	-0.631
219	-0.64
219	-0.641
220	-0.644
220	-0.652
221	-0.652
221	-0.652
221	-0.643
222	-0.64
222	-0.639
223	-0.635
223	-0.637
224	-0.637
224	-0.635
225	-0.633
225	-0.633
226	-0.633
226	-0.632
227	-0.641
227	-0.654
228	-0.658
228	-0.665
229	-0.668
229	-0.665
229	-0.666
230	-0.661
230	-0.659
231	-0.657
231	-0.652
232	-0.655
232	-0.648
233	-0.648
233	-0.637
234	-0.64
234	-0.637
235	-0.641
235	-0.652
236	-0.657
236	-0.659
236	-0.659
237	-0.656
237	-0.656
238	-0.657
238	-0.658
239	-0.66
239	-0.668
240	-0.663
240	-0.659
241	-0.655
241	-0.658
242	-0.662
242	-0.672
243	-0.674
243	-0.675
243	-0.68
244	-0.674
244	-0.676
245	-0.679
245	-0.682
246	-0.692
246	-0.693
247	-0.701
247	-0.687
248	-0.687
248	-0.689
249	-0.696
249	-0.697
250	-0.697
250	-0.704
250	-0.703
251	-0.704
251	-0.701
252	-0.702
252	-0.713
253	-0.708
253	-0.721
254	-0.724
254	-0.726
255	-0.737
255	-0.736
256	-0.739
256	-0.751
257	-0.762
257	-0.76
258	-0.761
258	-0.768
258	-0.766
259	-0.758
259	-0.777
260	-0.775
260	-0.763
261	-0.775
261	-0.76
262	-0.763
262	-0.761
263	-0.752
263	-0.757
264	-0.766
264	-0.768
265	-0.759
265	-0.761
265	-0.772
266	-0.761
266	-0.762
267	-0.762
267	-0.78
268	-0.789
268	-0.782
269	-0.773
269	-0.788
270	-0.79
270	-0.789
271	-0.803
271	-0.813
272	-0.813
272	-0.816
272	-0.808
273	-0.819
273	-0.835
274	-0.827
274	-0.822
275	-0.821
275	-0.808
276	-0.812
276	-0.817
277	-0.821
277	-0.818
278	-0.822
278	-0.821
278	-0.808
279	-0.817
279	-0.83
280	-0.832
280	-0.843
281	-0.836
281	-0.829
282	-0.834
282	-0.829
283	-0.821
283	-0.836
284	-0.851
284	-0.86
285	-0.84
285	-0.848
285	-0.839
286	-0.844
286	-0.86
287	-0.859
287	-0.857
288	-0.857
288	-0.838
289	-0.835
289	-0.845
290	-0.852
290	-0.84
291	-0.846
291	-0.843
292	-0.825
292	-0.821
292	-0.825
293	-0.815
293	-0.811
294	-0.81
294	-0.794
295	-0.778
295	-0.789
296	-0.802
296	-0.796
297	-0.785
297	-0.787
298	-0.782
298	-0.799
298	-0.802
299	-0.784
299	-0.779
300	-0.774
300	-0.754
301	-0.732
301	-0.734
302	-0.744
302	-0.73
303	-0.723
303	-0.709
304	-0.692
304	-0.695
305	-0.686
305	-0.697
305	-0.712
306	-0.698
306	-0.697
307	-0.688
307	-0.701
308	-0.705
308	-0.701
309	-0.703
309	-0.699
310	-0.695
310	-0.689
311	-0.676
311	-0.695
311	-0.683
312	-0.682
312	-0.67
313	-0.66
313	-0.662
314	-0.668
314	-0.667
315	-0.665
315	-0.659
316	-0.654
316	-0.641
317	-0.634
317	-0.63
318	-0.622
318	-0.62
318	-0.61
319	-0.599
319	-0.59
320	-0.588
320	-0.585
321	-0.579
321	-0.58
322	-0.573
322	-0.567
323	-0.567
323	-0.557
324	-0.554
324	-0.542
324	-0.53
325	-0.515
325	-0.5
326	-0.492
326	-0.468
327	-0.452
327	-0.429
328	-0.397
328	-0.373
329	-0.345
329	-0.316
330	-0.289
330	-0.253
330	-0.215
331	-0.177
331	-0.141
332	-0.107
332	-0.073
333	-0.042
333	-0.008
334	0.023
334	0.049
335	0.078
335	0.101
336	0.124
336	0.146
336	0.164
337	0.183
337	0.202
338	0.217
338	0.228
339	0.243
339	0.255
340	0.263
340	0.273
341	0.281
341	0.287
342	0.294
342	0.3
342	0.305
343	0.31
343	0.315
344	0.319
344	0.322
345	0.326
345	0.328
346	0.331
346	0.334
347	0.335
347	0.337
348	0.338
348	0.34
348	0.341
349	0.341
349	0.343
350	0.343
350	0.344
351	0.344
351	0.344
352	0.344
352	0.345
353	0.345
353	0.345
354	0.345
354	0.345
354	0.345
355	0.345
355	0.345
356	0.345
356	0.345
357	0.345
357	0.345
358	0.345
358	0.345
359	0.345
359	0.345
360	0.345
360	0.346
360	0.346
361	0.346
361	0.346
362	0.346
362	0.346
363	0.346
363	0.346
364	0.346
364	0.345
365	0.345
365	0.345
366	0.345
366	0.345
366	0.345
367	0.345
367	0.344
368	0.344
368	0.344
369	0.343
369	0.343
370	0.343
370	0.343
371	0.343
371	0.343
372	0.342
372	0.342
372	0.342
373	0.342
373	0.341
374	0.341
374	0.341
375	0.341
375	0.341
376	0.34
376	0.34
377	0.34
377	0.339
378	0.339
378	0.339
378	0.339
379	0.338
379	0.338
380	0.338
380	0.338
381	0.338
381	0.337
382	0.337
382	0.337
383	0.337
383	0.336
383	0.336
384	0.336
384	0.335
385	0.335
385	0.334
386	0.334
386	0.334
387	0.334
387	0.333
388	0.333
388	0.333
389	0.333
389	0.333
389	0.332
390	0.332
390	0.332
391	0.332
391	0.332
392	0.331
392	0.331
393	0.331
393	0.33
394	0.33
394	0.33
394	0.329
395	0.329
395	0.328
396	0.328
396	0.328
397	0.327
397	0.327
398	0.327
398	0.326
399	0.326
399	0.325
400	0.325
400	0.325
400	0.325
401	0.324
401	0.324
402	0.323
402	0.323
403	0.323
403	0.323
404	0.323
404	0.323
405	0.322
405	0.322
405	0.322
406	0.322
406	0.322
407	0.322
407	0.321
408	0.321
408	0.321
409	0.321
409	0.32
410	0.32
410	0.32
411	0.32
411	0.319
411	0.319
412	0.319
412	0.318
413	0.318
413	0.318
414	0.317
414	0.317
415	0.317
415	0.317
416	0.316
416	0.316
416	0.316
417	0.315
417	0.315
418	0.315
418	0.315
419	0.315
419	0.315
420	0.315
420	0.315
421	0.315
421	0.315
421	0.314
422	0.315
422	0.315
423	0.315
423	0.314
424	0.314
424	0.314
425	0.314
425	0.313
426	0.313
426	0.313
427	0.313
427	0.313
427	0.313
428	0.313
428	0.313
429	0.313
429	0.312
430	0.312
430	0.312
431	0.311
431	0.311
432	0.311
432	0.31
432	0.31
433	0.31
433	0.31
434	0.31
434	0.31
435	0.31
435	0.31
436	0.31
436	0.311
437	0.311
437	0.31
437	0.31
438	0.311
438	0.311
439	0.31
439	0.31
440	0.31
440	0.309
441	0.309
441	0.309
442	0.309
442	0.309
442	0.308
443	0.308
443	0.308
444	0.308
444	0.308
445	0.308
445	0.309
446	0.308
446	0.309
447	0.309
447	0.309
447	0.309
448	0.309
448	0.309
449	0.309
449	0.309
450	0.309
450	0.309
451	0.309
451	0.309
452	0.309
452	0.309
452	0.309
453	0.309
453	0.309
454	0.309
454	0.309
455	0.309
455	0.309
456	0.309
456	0.309
457	0.309
457	0.309
458	0.309
458	0.309
458	0.309
459	0.309
459	0.309
460	0.308
460	0.308
461	0.309
461	0.309
462	0.309
462	0.31
463	0.311
463	0.312
463	0.312
464	0.313
464	0.313
465	0.314
465	0.314
466	0.314
466	0.315
467	0.315
467	0.315
467	0.315
468	0.315
468	0.315
469	0.315
469	0.316
470	0.317
470	0.317
471	0.317
471	0.317
472	0.318
472	0.318
472	0.319
473	0.32
473	0.321
474	0.321
474	0.322
475	0.323
475	0.324
476	0.325
476	0.326
477	0.326
477	0.327
477	0.328
478	0.329
478	0.33
479	0.331
479	0.331
480	0.332
480	0.333
481	0.334
481	0.334
482	0.335
482	0.336
482	0.337
483	0.339
483	0.341
484	0.342
484	0.343
485	0.344
485	0.346
486	0.347
486	0.348
487	0.35
487	0.351
487	0.352
488	0.353
488	0.354
489	0.355
489	0.358
490	0.359
490	0.361
491	0.363
491	0.364
492	0.366
492	0.367
492	0.369
493	0.37
493	0.372
494	0.374
494	0.377
495	0.378
495	0.38
496	0.382
496	0.384
496	0.386
497	0.388
497	0.39
498	0.393
498	0.395
499	0.397
499	0.4
500	0.403
500	0.406
501	0.408
501	0.41
501	0.412
502	0.415
502	0.417
503	0.42
503	0.422
504	0.424
504	0.427
505	0.429
505	0.432
506	0.435
506	0.438
506	0.441
507	0.444
507	0.447
508	0.451
508	0.454
509	0.457
509	0.46
510	0.463
510	0.465
511	0.467
511	0.47
511	0.472
512	0.474
512	0.476
513	0.478
513	0.48
514	0.483
514	0.485
515	0.488
515	0.49
515	0.492
516	0.494
516	0.496
517	0.499
517	0.5
518	0.502
518	0.503
519	0.505
519	0.506
520	0.508
520	0.51
520	0.511
521	0.512
521	0.514
522	0.515
522	0.517
523	0.519
523	0.521
524	0.522
524	0.523
524	0.524
525	0.525
525	0.525
526	0.526
526	0.527
527	0.528
527	0.528
528	0.528
528	0.528
529	0.528
529	0.528
529	0.528
530	0.528
530	0.527
531	0.527
531	0.527
532	0.526
532	0.525
533	0.525
533	0.525
533	0.524
534	0.523
534	0.522
535	0.521
535	0.521
536	0.52
536	0.519
537	0.518
537	0.516
538	0.515
538	0.514
538	0.512
539	0.511
539	0.51
540	0.508
540	0.506
541	0.503
541	0.502
542	0.5
542	0.497
542	0.495
543	0.492
543	0.49
544	0.487
544	0.485
545	0.482
545	0.48
546	0.478
546	0.475
547	0.472
547	0.469
547	0.466
548	0.465
548	0.462
549	0.459
549	0.457
550	0.454
550	0.451
551	0.448
551	0.446
551	0.443
552	0.441
552	0.439
553	0.436
553	0.434
554	0.431
554	0.428
555	0.425
555	0.422
556	0.419
556	0.417
556	0.414
557	0.412
557	0.409
558	0.406
558	0.404
559	0.401
559	0.399
560	0.396
560	0.393
560	0.391
561	0.389
561	0.387
562	0.385
562	0.382
563	0.38
563	0.378
564	0.375
564	0.373
564	0.372
565	0.37
565	0.368
566	0.366
566	0.364
567	0.362
567	0.361
568	0.359
568	0.356
568	0.354
569	0.352
569	0.35
570	0.347
570	0.344
571	0.343
571	0.341
572	0.338
572	0.336
573	0.333
573	0.331
573	0.328
574	0.327
574	0.325
575	0.324
575	0.324
576	0.322
576	0.32
577	0.317
577	0.316
577	0.315
578	0.314
578	0.313
579	0.313
579	0.312
580	0.309
580	0.306
581	0.303
581	0.301
581	0.301
582	0.3
582	0.299
583	0.298
583	0.295
584	0.292
584	0.289
585	0.289
585	0.288
585	0.287
586	0.286
586	0.285
587	0.283
587	0.281
588	0.279
588	0.278
589	0.277
589	0.276
590	0.275
590	0.273
590	0.273
591	0.273
591	0.271
592	0.269
592	0.267
593	0.266
593	0.265
594	0.263
594	0.262
594	0.261
595	0.26
595	0.258
596	0.256
596	0.256
597	0.257
597	0.256
598	0.255
598	0.254
598	0.253
599	0.252
599	0.251
600	0.25
600	0.249
601	0.248
601	0.247
602	0.245
602	0.245
602	0.243
603	0.243
603	0.243
604	0.242
604	0.241
605	0.241
605	0.241
606	0.24
606	0.238
606	0.237
607	0.235
607	0.235
608	0.234
608	0.232
609	0.231
609	0.23
610	0.228
610	0.227
610	0.226
611	0.226
611	0.226
612	0.225
612	0.225
613	0.224
613	0.224
614	0.222
614	0.22
614	0.219
615	0.218
615	0.216
616	0.215
616	0.214
617	0.213
617	0.211
618	0.21
618	0.208
618	0.207
619	0.206
619	0.206
620	0.207
620	0.205
621	0.204
621	0.203
622	0.202
622	0.2
622	0.198
623	0.197
623	0.197
624	0.196
624	0.195
625	0.193
625	0.193
626	0.191
626	0.19
626	0.189
627	0.189
627	0.188
628	0.187
628	0.186
629	0.184
629	0.183
630	0.181
630	0.179
630	0.177
631	0.176
631	0.174
632	0.172
632	0.169
633	0.167
633	0.165
634	0.163
634	0.161
634	0.159
635	0.157
635	0.155
636	0.152
636	0.15
637	0.147
637	0.144
638	0.141
638	0.138
638	0.134
639	0.13
639	0.126
640	0.121
640	0.117
641	0.113
641	0.109
642	0.105
642	0.1
642	0.096
643	0.091
643	0.086
644	0.08
644	0.075
645	0.07
645	0.065
646	0.059
646	0.053
646	0.046
647	0.04
647	0.033
648	0.026
648	0.019
649	0.011
649	0.004
650	-0.003
650	-0.01
650	-0.018
651	-0.027
651	-0.039
652	-0.052
652	-0.066
653	-0.078
653	-0.089
653	-0.085
654	-0.065
654	-0.06
655	-0.064
655	-0.069
656	-0.074
656	-0.08
657	-0.085
657	-0.089
657	-0.096
658	-0.102
658	-0.132
659	-0.216
659	-0.304
660	-0.343
660	-0.37
661	-0.396
661	-0.425
661	-0.456
662	-0.485
662	-0.514
663	-0.549
663	-0.588
664	-0.623
664	-0.663
665	-0.708
665	-0.755
665	-0.798
666	-0.848
666	-0.902
667	-0.956
667	-1.019
668	-1.077
668	-1.146
669	-1.215
669	-1.289
669	-1.37
670	-1.457
670	-1.594
671	-1.85
671	-2.183
672	-2.384
672	-2.527
672	-2.636
673	-2.725
673	-2.8
674	-2.838
674	-2.85
675	-2.865
675	-2.866
676	-2.851
676	-2.785
676	-2.709
677	-2.615
677	-2.497
678	-2.313
678	-1.967
679	-1.669
679	-1.534
680	-1.441
680	-1.369
680	-1.308
681	-1.265
681	-1.215
682	-1.176
682	-1.136
683	-1.095
683	-1.073
684	-1.048
684	-1.031
684	-1.008
685	-0.99
685	-0.983
686	-0.962
686	-0.95
687	-0.941
687	-0.931
687	-0.933
688	-0.918
688	-0.911
689	-0.915
689	-0.913
690	-0.9
690	-0.889
691	-0.886
691	-0.89
691	-0.891
692	-0.892
692	-0.889
693	-0.896
693	-0.908
694	-0.887
694	-0.888
695	-0.891
695	-0.885
695	-0.893
696	-0.898
696	-0.892
697	-0.886
697	-0.881
698	-0.875
698	-0.868
698	-0.882
699	-0.881
699	-0.882
700	-0.903
700	-0.897
701	-0.886
701	-0.879
702	-0.879
702	-0.878
702	-0.879
703	-0.871
703	-0.861
704	-0.867
704	-0.87
705	-0.857
705	-0.856
705	-0.849
706	-0.842
706	-0.839
707	-0.851
707	-0.854
708	-0.85
708	-0.846
709	-0.848
709	-0.846
709	-0.842
710	-0.849
710	-0.855
711	-0.853
711	-0.854
712	-0.843
712	-0.841
713	-0.847
713	-0.847
713	-0.826
714	-0.825
714	-0.827
715	-0.82
715	-0.828
716	-0.845
716	-0.853
716	-0.857
717	-0.862
717	-0.854
718	-0.85
718	-0.851
719	-0.849
719	-0.844
720	-0.838
720	-0.832
720	-0.828
721	-0.82
721	-0.823
722	-0.819
722	-0.816
723	-0.832
723	-0.845
723	-0.855
724	-0.853
724	-0.859
725	-0.853
725	-0.856
726	-0.861
726	-0.85
727	-0.854
727	-0.86
727	-0.85
728	-0.837
728	-0.833
729	-0.835
729	-0.837
730	-0.841
730	-0.83
730	-0.836
731	-0.84
731	-0.84
732	-0.842
732	-0.837
733	-0.852
733	-0.857
734	-0.864
734	-0.857
734	-0.84
735	-0.831
735	-0.826
736	-0.827
736	-0.82
737	-0.819
737	-0.811
737	-0.802
738	-0.789
738	-0.779
739	-0.782
739	-0.784
740	-0.797
740	-0.798
741	-0.806
741	-0.817
741	-0.827
742	-0.834
742	-0.851
743	-0.858
743	-0.86
744	-0.863
744	-0.869
744	-0.864
745	-0.87
745	-0.861
746	-0.856
746	-0.846
747	-0.847
747	-0.836
748	-0.837
748	-0.842
748	-0.843
749	-0.835
749	-0.842
750	-0.834
750	-0.835
751	-0.834
751	-0.832
751	-0.844
752	-0.848
752	-0.85
753	-0.851
753	-0.844
754	-0.864
754	-0.863
754	-0.869
755	-0.869
755	-0.861
756	-0.865
756	-0.852
757	-0.845
757	-0.833
758	-0.834
758	-0.833
758	-0.83
759	-0.836
759	-0.836
760	-0.834
760	-0.836
761	-0.828
761	-0.832
761	-0.832
762	-0.839
762	-0.839
763	-0.839
763	-0.842
764	-0.84
764	-0.837
764	-0.843
765	-0.843
765	-0.851
766	-0.855
766	-0.856
767	-0.873
767	-0.867
768	-0.865
768	-0.857
768	-0.851
769	-0.855
769	-0.863
770	-0.872
770	-0.876
771	-0.871
771	-0.871
771	-0.876
772	-0.882
772	-0.902
773	-0.902
773	-0.903
774	-0.902
774	-0.884
775	-0.872
775	-0.871
775	-0.874
776	-0.884
776	-0.879
777	-0.879
777	-0.863
778	-0.873
778	-0.88
778	-0.88
779	-0.888
779	-0.905
780	-0.899
780	-0.908
781	-0.896
781	-0.885
781	-0.899
782	-0.917
782	-0.919
783	-0.92
783	-0.927
784	-0.932
784	-0.926
784	-0.946
785	-0.939
785	-0.952
786	-0.958
786	-0.951
787	-0.942
787	-0.95
788	-0.941
788	-0.934
788	-0.935
789	-0.933
789	-0.921
790	-0.921
790	-0.906
791	-0.913
791	-0.909
791	-0.903
792	-0.897
792	-0.903
793	-0.908
793	-0.896
794	-0.89
794	-0.885
794	-0.893
795	-0.912
795	-0.898
796	-0.903
796	-0.898
797	-0.891
797	-0.881
797	-0.873
798	-0.893
798	-0.895
799	-0.894
799	-0.877
800	-0.872
800	-0.88
801	-0.876
801	-0.88
801	-0.876
802	-0.876
802	-0.874
803	-0.869
803	-0.863
804	-0.871
804	-0.881
804	-0.865
805	-0.847
805	-0.84
806	-0.841
806	-0.837
807	-0.839
807	-0.841
807	-0.824
808	-0.821
808	-0.813
809	-0.807
809	-0.808
810	-0.81
810	-0.806
810	-0.802
811	-0.805
811	-0.795
812	-0.788
812	-0.79
813	-0.793
813	-0.795
813	-0.792
814	-0.792
814	-0.797
815	-0.789
815	-0.785
816	-0.781
816	-0.798
817	-0.811
817	-0.814
817	-0.823
818	-0.816
818	-0.813
819	-0.823
819	-0.823
820	-0.833
820	-0.833
820	-0.831
821	-0.826
821	-0.819
822	-0.819
822	-0.806
823	-0.818
823	-0.816
823	-0.809
824	-0.806
824	-0.817
825	-0.817
825	-0.815
826	-0.812
826	-0.808
826	-0.807
827	-0.808
827	-0.796
828	-0.797
828	-0.791
829	-0.787
829	-0.771
829	-0.768
830	-0.765
830	-0.751
831	-0.745
831	-0.733
832	-0.724
832	-0.721
832	-0.715
833	-0.714
833	-0.719
834	-0.714
834	-0.708
835	-0.701
835	-0.7
835	-0.694
836	-0.69
836	-0.685
837	-0.674
837	-0.664
838	-0.653
838	-0.634
839	-0.627
839	-0.615
839	-0.605
840	-0.603
840	-0.592
841	-0.581
841	-0.574
842	-0.566
842	-0.555
842	-0.551
843	-0.548
843	-0.542
844	-0.54
844	-0.529
845	-0.515
845	-0.507
845	-0.497
846	-0.485
846	-0.474
847	-0.462
847	-0.448
848	-0.434
848	-0.418
848	-0.405
849	-0.393
849	-0.382
850	-0.372
850	-0.361
851	-0.349
851	-0.332
851	-0.322
852	-0.308
852	-0.295
853	-0.286
853	-0.274
854	-0.263
854	-0.251
854	-0.237
855	-0.225
855	-0.215
856	-0.209
856	-0.2
857	-0.192
857	-0.183
857	-0.17
858	-0.16
858	-0.153
859	-0.142
859	-0.131
860	-0.12
860	-0.106
860	-0.095
861	-0.084
861	-0.074
862	-0.065
862	-0.057
863	-0.048
863	-0.037
863	-0.031
864	-0.025
864	-0.018
865	-0.011
865	-0.005
866	0.001
866	0.007
866	0.012
867	0.018
867	0.023
868	0.027
868	0.032
869	0.037
869	0.04
869	0.042
870	0.045
870	0.047
871	0.049
871	0.051
872	0.052
872	0.052
872	0.053
873	0.053
873	0.053
874	0.052
874	0.052
875	0.052
875	0.051
875	0.051
876	0.051
876	0.051
877	0.05
877	0.049
878	0.049
878	0.048
878	0.048
879	0.048
879	0.047
880	0.047
880	0.045
881	0.044
881	0.042
881	0.041
882	0.04
882	0.038
883	0.037
883	0.035
884	0.035
884	0.034
884	0.034
885	0.033
885	0.033
886	0.033
886	0.033
887	0.032
887	0.032
887	0.032
888	0.032
888	0.031
889	0.03
889	0.029
890	0.028
890	0.028
890	0.027
891	0.027
891	0.026
892	0.027
892	0.027
893	0.028
893	0.028
893	0.028
894	0.029
894	0.03
895	0.03
895	0.03
895	0.03
896	0.031
896	0.03
897	0.031
897	0.031
898	0.031
898	0.031
898	0.031
899	0.032
899	0.032
900	0.032
900	0.032
901	0.032
901	0.031
901	0.031
902	0.03
902	0.03
903	0.03
903	0.029
904	0.028
904	0.028
904	0.028
905	0.028
905	0.028
906	0.029
906	0.03
907	0.03
907	0.031
907	0.031
908	0.032
908	0.033
909	0.033
909	0.034
910	0.034
910	0.035
910	0.035
911	0.036
911	0.036
912	0.037
912	0.038
913	0.038
913	0.038
913	0.039
914	0.04
914	0.04
915	0.04
915	0.04
916	0.04
916	0.039
916	0.038
917	0.038
917	0.037
918	0.036
918	0.035
918	0.035
919	0.034
919	0.034
920	0.033
920	0.034
921	0.034
921	0.034
921	0.034
922	0.035
922	0.035
923	0.035
923	0.035
924	0.034
924	0.034
924	0.033
925	0.032
925	0.03
926	0.029
926	0.027
927	0.026
927	0.025
927	0.025
928	0.024
928	0.024
929	0.024
929	0.024
930	0.025
930	0.025
930	0.026
931	0.027
931	0.029
932	0.03
932	0.031
933	0.032
933	0.032
933	0.032
934	0.032
934	0.031
935	0.031
935	0.03
935	0.029
936	0.028
936	0.027
937	0.026
937	0.025
938	0.024
938	0.023
938	0.023
939	0.022
939	0.021
940	0.021
940	0.02
941	0.019
941	0.018
941	0.018
942	0.018
942	0.018
943	0.018
943	0.018
944	0.018
944	0.017
944	0.017
945	0.017
945	0.017
946	0.016
946	0.015
946	0.014
947	0.014
947	0.014
948	0.014
948	0.015
949	0.016
949	0.017
949	0.018
950	0.019
950	0.021
951	0.023
951	0.024
952	0.025
952	0.026
952	0.026
953	0.027
953	0.027
954	0.027
954	0.027
955	0.027
955	0.027
955	0.027
956	0.026
956	0.026
957	0.025
957	0.024
957	0.024
958	0.023
958	0.023
959	0.022
959	0.022
960	0.021
960	0.021
960	0.021
961	0.021
961	0.022
962	0.022
962	0.022
963	0.022
963	0.023
963	0.024
964	0.024
964	0.025
965	0.026
965	0.026
966	0.027
966	0.027
966	0.028
967	0.029
967	0.029
968	0.029
968	0.029
968	0.029
969	0.029
969	0.028
970	0.028
970	0.027
971	0.026
971	0.026
971	0.026
972	0.026
972	0.026
973	0.026
973	0.026
974	0.026
974	0.026
974	0.026
975	0.026
975	0.026
976	0.026
976	0.025
976	0.025
977	0.024
977	0.023
978	0.023
978	0.022
979	0.021
979	0.02
979	0.02
980	0.019
980	0.019
981	0.018
981	0.018
982	0.018
982	0.018
982	0.018
983	0.018
983	0.018
984	0.018
984	0.018
984	0.018
985	0.018
985	0.018
986	0.017
986	0.016
987	0.016
987	0.015
987	0.015
988	0.014
988	0.013
989	0.013
989	0.012
990	0.012
990	0.011
990	0.01
991	0.01
991	0.009
992	0.008
992	0.007
992	0.006
993	0.005
993	0.004
994	0.003
994	0.001
995	0
995	-0.001
995	-0.002
996	-0.003
996	-0.004
997	-0.005
997	-0.006
997	-0.006
998	-0.007
998	-0.006
999	-0.006
999	-0.006
1000	-0.005
1000	-0.005
1000	-0.004
1001	-0.003
1001	-0.002
1002	-0.002
1002	-0.001
1003	-0
1003	-0
1003	0
1004	0
1004	0
1005	0
1005	-0
1005	-0.001
1006	-0.001
1006	-0.002
1007	-0.003
1007	-0.004
1008	-0.005
1008	-0.005
1008	-0.006
1009	-0.006
1009	-0.006
1010	-0.006
1010	-0.005
1010	-0.005
1011	-0.004
1011	-0.004
1012	-0.003
1012	-0.001
1013	-0
1013	0
1013	0.001
1014	0.002
1014	0.002
1015	0.003
1015	0.003
1016	0.004
1016	0.004
1016	0.004
1017	0.003
1017	0.003
1018	0.003
1018	0.003
1018	0.003
1019	0.003
1019	0.003
1020	0.003
1020	0.002
1021	0.002
1021	0.001
1021	0.001
1022	0.001
1022	0
1023	0
1023	0
1023	-0
1024	-0
1024	-0
1025	-0
1025	-0
1026	-0
1026	-0
1026	-0.001
1027	-0.001
1027	-0.001
1028	-0
1028	0
1028	0.001
1029	0
1029	0.001
1030	0.001
1030	0
1031	0.001
1031	0.002
1031	0.002
1032	0.002
1032	0.001
1033	0.001
1033	0
1033	0
1034	-0.001
1034	-0.001
1035	-0.002
1035	-0.003
1036	-0.004
1036	-0.005
1036	-0.005
1037	-0.005
1037	-0.006
1038	-0.006
1038	-0.006
1039	-0.006
1039	-0.006
1039	-0.005
1040	-0.005
1040	-0.005
1041	-0.005
1041	-0.005
1041	-0.005
1042	-0.006
1042	-0.006
1043	-0.006
1043	-0.007
1044	-0.007
1044	-0.008
1044	-0.008
1045	-0.009
1045	-0.01
1046	-0.01
1046	-0.011
1046	-0.011
1047	-0.011
1047	-0.011
1048	-0.011
1048	-0.011
1049	-0.012
1049	-0.012
1049	-0.013
1050	-0.013
1050	-0.014
1051	-0.015
1051	-0.016
1051	-0.017
1052	-0.018
1052	-0.019
1053	-0.019
1053	-0.02
1053	-0.02
1054	-0.021
1054	-0.021
1055	-0.02
1055	-0.02
1056	-0.02
1056	-0.02
1056	-0.02
1057	-0.02
1057	-0.02
1058	-0.02
1058	-0.02
1058	-0.02
1059	-0.021
1059	-0.021
1060	-0.022
1060	-0.022
1061	-0.022
1061	-0.022
1061	-0.022
1062	-0.022
1062	-0.022
1063	-0.022
1063	-0.023
1063	-0.023
1064	-0.023
1064	-0.022
1065	-0.022
1065	-0.022
1066	-0.023
1066	-0.023
1066	-0.024
1067	-0.025
1067	-0.026
1068	-0.026
1068	-0.027
1068	-0.028
1069	-0.029
1069	-0.03
1070	-0.031
1070	-0.032
1071	-0.032
1071	-0.032
1071	-0.033
1072	-0.033
1072	-0.033
1073	-0.033
1073	-0.033
1073	-0.034
1074	-0.033
1074	-0.034
1075	-0.034
1075	-0.034
1076	-0.035
1076	-0.035
1076	-0.036
1077	-0.036
1077	-0.037
1078	-0.038
1078	-0.038
1078	-0.039
1079	-0.04
1079	-0.04
1080	-0.041
1080	-0.042
1080	-0.043
1081	-0.044
1081	-0.045
1082	-0.045
1082	-0.047
1083	-0.048
1083	-0.049
1083	-0.051
1084	-0.052
1084	-0.053
1085	-0.055
1085	-0.055
1085	-0.056
1086	-0.057
1086	-0.059
1087	-0.06
1087	-0.061
1088	-0.062
1088	-0.062
1088	-0.063
1089	-0.064
1089	-0.064
1090	-0.065
1090	-0.065
1090	-0.067
1091	-0.067
1091	-0.067
1092	-0.067
1092	-0.067
1092	-0.068
1093	-0.069
1093	-0.068
1094	-0.069
1094	-0.07
1095	-0.071
1095	-0.071
1095	-0.072
1096	-0.074
1096	-0.076
1097	-0.077
1097	-0.079
1097	-0.08
1098	-0.082
1098	-0.085
1099	-0.087
1099	-0.088
1100	-0.091
1100	-0.094
1100	-0.097
1101	-0.1
1101	-0.103
1102	-0.105
1102	-0.109
1102	-0.11
1103	-0.112
1103	-0.115
1104	-0.118
1104	-0.121
1104	-0.122
1105	-0.124
1105	-0.127
1106	-0.133
1106	-0.134
1107	-0.139
1107	-0.143
1107	-0.148
1108	-0.15
1108	-0.152
1109	-0.156
1109	-0.161
1109	-0.164
1110	-0.166
1110	-0.168
1111	-0.179
1111	-0.177
