Data from 3.3A_17C_Absorbance__563__03430.txt Node

Date: Tue Jun 20 17:32:25 CEST 2023
User: Marek
Spectrometer: MAYP115816
Trigger mode: 0
Integration Time (sec): 2.200000E-1
Scans to average: 10
Electric dark correction enabled: true
Nonlinearity correction enabled: true
Boxcar width: 5
XAxis mode: Wavelengths
Number of Pixels in Spectrum: 2068
>>>>>Begin Spectral Data<<<<<
199	-0.787
199	-0.774
200	-0.74
200	-0.687
201	-0.656
201	-0.648
202	-0.634
202	-0.626
203	-0.626
203	-0.619
204	-0.599
204	-0.585
205	-0.562
205	-0.552
205	-0.562
206	-0.565
206	-0.561
207	-0.553
207	-0.559
208	-0.56
208	-0.565
209	-0.566
209	-0.571
210	-0.585
210	-0.59
211	-0.581
211	-0.585
212	-0.593
212	-0.601
213	-0.598
213	-0.593
213	-0.591
214	-0.598
214	-0.6
215	-0.596
215	-0.602
216	-0.611
216	-0.616
217	-0.616
217	-0.618
218	-0.625
218	-0.628
219	-0.633
219	-0.636
220	-0.639
220	-0.646
221	-0.647
221	-0.648
221	-0.641
222	-0.64
222	-0.637
223	-0.633
223	-0.635
224	-0.637
224	-0.635
225	-0.632
225	-0.633
226	-0.634
226	-0.633
227	-0.64
227	-0.65
228	-0.654
228	-0.664
229	-0.668
229	-0.665
229	-0.665
230	-0.66
230	-0.658
231	-0.655
231	-0.649
232	-0.652
232	-0.645
233	-0.644
233	-0.63
234	-0.63
234	-0.624
235	-0.63
235	-0.641
236	-0.648
236	-0.649
236	-0.65
237	-0.648
237	-0.648
238	-0.651
238	-0.654
239	-0.656
239	-0.666
240	-0.66
240	-0.656
241	-0.651
241	-0.653
242	-0.658
242	-0.665
243	-0.665
243	-0.667
243	-0.672
244	-0.669
244	-0.668
245	-0.671
245	-0.675
246	-0.685
246	-0.69
247	-0.697
247	-0.684
248	-0.684
248	-0.685
249	-0.69
249	-0.692
250	-0.693
250	-0.7
250	-0.698
251	-0.698
251	-0.694
252	-0.695
252	-0.708
253	-0.705
253	-0.716
254	-0.721
254	-0.723
255	-0.732
255	-0.733
256	-0.734
256	-0.746
257	-0.757
257	-0.751
258	-0.754
258	-0.759
258	-0.758
259	-0.749
259	-0.767
260	-0.766
260	-0.753
261	-0.764
261	-0.751
262	-0.756
262	-0.754
263	-0.744
263	-0.751
264	-0.761
264	-0.763
265	-0.754
265	-0.758
265	-0.769
266	-0.76
266	-0.76
267	-0.757
267	-0.774
268	-0.781
268	-0.776
269	-0.767
269	-0.782
270	-0.786
270	-0.783
271	-0.797
271	-0.808
272	-0.808
272	-0.811
272	-0.806
273	-0.815
273	-0.829
274	-0.822
274	-0.815
275	-0.813
275	-0.801
276	-0.803
276	-0.807
277	-0.81
277	-0.809
278	-0.813
278	-0.813
278	-0.802
279	-0.812
279	-0.825
280	-0.827
280	-0.839
281	-0.835
281	-0.828
282	-0.833
282	-0.828
283	-0.819
283	-0.833
284	-0.847
284	-0.856
285	-0.835
285	-0.843
285	-0.836
286	-0.839
286	-0.857
287	-0.855
287	-0.852
288	-0.852
288	-0.835
289	-0.834
289	-0.842
290	-0.851
290	-0.838
291	-0.841
291	-0.839
292	-0.818
292	-0.816
292	-0.822
293	-0.81
293	-0.806
294	-0.803
294	-0.789
295	-0.773
295	-0.786
296	-0.798
296	-0.792
297	-0.78
297	-0.785
298	-0.782
298	-0.8
298	-0.805
299	-0.787
299	-0.78
300	-0.775
300	-0.756
301	-0.737
301	-0.74
302	-0.751
302	-0.734
303	-0.727
303	-0.713
304	-0.696
304	-0.699
305	-0.691
305	-0.7
305	-0.716
306	-0.7
306	-0.697
307	-0.688
307	-0.701
308	-0.703
308	-0.701
309	-0.703
309	-0.7
310	-0.698
310	-0.691
311	-0.677
311	-0.696
311	-0.684
312	-0.681
312	-0.668
313	-0.659
313	-0.658
314	-0.662
314	-0.66
315	-0.657
315	-0.652
316	-0.647
316	-0.637
317	-0.628
317	-0.625
318	-0.617
318	-0.616
318	-0.606
319	-0.595
319	-0.587
320	-0.585
320	-0.581
321	-0.577
321	-0.577
322	-0.572
322	-0.564
323	-0.566
323	-0.556
324	-0.553
324	-0.543
324	-0.534
325	-0.518
325	-0.502
326	-0.493
326	-0.467
327	-0.453
327	-0.43
328	-0.398
328	-0.373
329	-0.346
329	-0.317
330	-0.289
330	-0.253
330	-0.216
331	-0.179
331	-0.145
332	-0.112
332	-0.078
333	-0.048
333	-0.014
334	0.014
334	0.041
335	0.068
335	0.089
336	0.112
336	0.134
336	0.15
337	0.168
337	0.186
338	0.2
338	0.21
339	0.224
339	0.236
340	0.244
340	0.253
341	0.26
341	0.267
342	0.274
342	0.28
342	0.285
343	0.289
343	0.295
344	0.298
344	0.301
345	0.304
345	0.307
346	0.309
346	0.311
347	0.312
347	0.313
348	0.315
348	0.316
348	0.317
349	0.318
349	0.319
350	0.319
350	0.32
351	0.321
351	0.321
352	0.321
352	0.321
353	0.322
353	0.322
354	0.322
354	0.322
354	0.322
355	0.322
355	0.322
356	0.322
356	0.322
357	0.323
357	0.323
358	0.323
358	0.323
359	0.323
359	0.323
360	0.323
360	0.324
360	0.324
361	0.324
361	0.323
362	0.323
362	0.323
363	0.323
363	0.323
364	0.323
364	0.323
365	0.323
365	0.323
366	0.322
366	0.322
366	0.322
367	0.322
367	0.322
368	0.322
368	0.321
369	0.321
369	0.321
370	0.321
370	0.321
371	0.321
371	0.32
372	0.32
372	0.32
372	0.32
373	0.32
373	0.319
374	0.319
374	0.319
375	0.319
375	0.318
376	0.318
376	0.318
377	0.318
377	0.317
378	0.317
378	0.317
378	0.316
379	0.316
379	0.316
380	0.316
380	0.316
381	0.316
381	0.315
382	0.315
382	0.315
383	0.314
383	0.314
383	0.314
384	0.313
384	0.313
385	0.313
385	0.313
386	0.313
386	0.312
387	0.312
387	0.312
388	0.312
388	0.312
389	0.312
389	0.312
389	0.311
390	0.311
390	0.311
391	0.311
391	0.31
392	0.31
392	0.31
393	0.31
393	0.309
394	0.309
394	0.308
394	0.308
395	0.308
395	0.307
396	0.307
396	0.307
397	0.306
397	0.306
398	0.306
398	0.305
399	0.305
399	0.305
400	0.304
400	0.304
400	0.304
401	0.304
401	0.303
402	0.303
402	0.303
403	0.303
403	0.303
404	0.303
404	0.303
405	0.302
405	0.302
405	0.302
406	0.302
406	0.302
407	0.301
407	0.301
408	0.301
408	0.3
409	0.3
409	0.3
410	0.3
410	0.3
411	0.3
411	0.299
411	0.299
412	0.299
412	0.299
413	0.298
413	0.298
414	0.298
414	0.298
415	0.297
415	0.297
416	0.297
416	0.296
416	0.296
417	0.296
417	0.296
418	0.296
418	0.295
419	0.295
419	0.295
420	0.295
420	0.295
421	0.295
421	0.295
421	0.295
422	0.296
422	0.296
423	0.296
423	0.295
424	0.295
424	0.295
425	0.295
425	0.295
426	0.295
426	0.294
427	0.294
427	0.294
427	0.294
428	0.294
428	0.294
429	0.294
429	0.293
430	0.293
430	0.293
431	0.293
431	0.292
432	0.292
432	0.292
432	0.291
433	0.291
433	0.291
434	0.291
434	0.292
435	0.292
435	0.292
436	0.291
436	0.291
437	0.291
437	0.291
437	0.291
438	0.291
438	0.291
439	0.291
439	0.291
440	0.29
440	0.29
441	0.29
441	0.29
442	0.29
442	0.29
442	0.29
443	0.29
443	0.289
444	0.289
444	0.289
445	0.289
445	0.29
446	0.289
446	0.289
447	0.29
447	0.29
447	0.29
448	0.29
448	0.29
449	0.29
449	0.29
450	0.29
450	0.29
451	0.29
451	0.29
452	0.29
452	0.29
452	0.29
453	0.29
453	0.29
454	0.29
454	0.29
455	0.29
455	0.29
456	0.29
456	0.29
457	0.29
457	0.29
458	0.29
458	0.29
458	0.29
459	0.29
459	0.289
460	0.289
460	0.289
461	0.289
461	0.29
462	0.29
462	0.291
463	0.292
463	0.292
463	0.293
464	0.293
464	0.294
465	0.294
465	0.295
466	0.295
466	0.295
467	0.296
467	0.295
467	0.295
468	0.295
468	0.295
469	0.295
469	0.296
470	0.296
470	0.296
471	0.297
471	0.297
472	0.297
472	0.298
472	0.298
473	0.299
473	0.3
474	0.3
474	0.301
475	0.302
475	0.303
476	0.303
476	0.304
477	0.304
477	0.305
477	0.306
478	0.306
478	0.307
479	0.308
479	0.309
480	0.309
480	0.31
481	0.311
481	0.312
482	0.313
482	0.314
482	0.315
483	0.316
483	0.318
484	0.319
484	0.319
485	0.321
485	0.322
486	0.323
486	0.324
487	0.325
487	0.326
487	0.327
488	0.328
488	0.329
489	0.33
489	0.332
490	0.333
490	0.335
491	0.336
491	0.338
492	0.339
492	0.34
492	0.342
493	0.343
493	0.344
494	0.346
494	0.348
495	0.35
495	0.351
496	0.353
496	0.355
496	0.357
497	0.359
497	0.361
498	0.363
498	0.365
499	0.367
499	0.369
500	0.372
500	0.374
501	0.377
501	0.379
501	0.38
502	0.382
502	0.385
503	0.387
503	0.389
504	0.391
504	0.393
505	0.395
505	0.398
506	0.4
506	0.403
506	0.406
507	0.408
507	0.411
508	0.414
508	0.417
509	0.42
509	0.422
510	0.425
510	0.428
511	0.43
511	0.432
511	0.434
512	0.436
512	0.438
513	0.439
513	0.441
514	0.444
514	0.446
515	0.448
515	0.449
515	0.451
516	0.453
516	0.455
517	0.457
517	0.459
518	0.46
518	0.461
519	0.463
519	0.464
520	0.466
520	0.467
520	0.469
521	0.47
521	0.471
522	0.472
522	0.474
523	0.475
523	0.477
524	0.478
524	0.479
524	0.48
525	0.481
525	0.481
526	0.483
526	0.483
527	0.484
527	0.484
528	0.484
528	0.484
529	0.484
529	0.484
529	0.484
530	0.484
530	0.484
531	0.484
531	0.483
532	0.482
532	0.482
533	0.481
533	0.481
533	0.481
534	0.48
534	0.479
535	0.478
535	0.477
536	0.477
536	0.476
537	0.475
537	0.475
538	0.474
538	0.472
538	0.471
539	0.47
539	0.469
540	0.467
540	0.465
541	0.463
541	0.462
542	0.46
542	0.458
542	0.456
543	0.453
543	0.451
544	0.449
544	0.447
545	0.445
545	0.443
546	0.441
546	0.438
547	0.436
547	0.433
547	0.431
548	0.429
548	0.427
549	0.425
549	0.423
550	0.421
550	0.418
551	0.416
551	0.413
551	0.411
552	0.409
552	0.407
553	0.405
553	0.403
554	0.4
554	0.397
555	0.394
555	0.392
556	0.389
556	0.387
556	0.385
557	0.383
557	0.381
558	0.378
558	0.376
559	0.374
559	0.372
560	0.37
560	0.367
560	0.365
561	0.363
561	0.362
562	0.36
562	0.358
563	0.355
563	0.353
564	0.352
564	0.35
564	0.348
565	0.347
565	0.346
566	0.344
566	0.343
567	0.341
567	0.34
568	0.339
568	0.337
568	0.336
569	0.334
569	0.332
570	0.329
570	0.326
571	0.325
571	0.323
572	0.321
572	0.319
573	0.316
573	0.314
573	0.312
574	0.31
574	0.309
575	0.308
575	0.308
576	0.307
576	0.305
577	0.303
577	0.302
577	0.301
578	0.3
578	0.3
579	0.3
579	0.299
580	0.297
580	0.294
581	0.291
581	0.29
581	0.289
582	0.289
582	0.288
583	0.288
583	0.286
584	0.283
584	0.28
585	0.28
585	0.281
585	0.28
586	0.279
586	0.278
587	0.276
587	0.274
588	0.272
588	0.271
589	0.271
589	0.27
590	0.269
590	0.268
590	0.269
591	0.268
591	0.267
592	0.266
592	0.264
593	0.263
593	0.263
594	0.261
594	0.26
594	0.259
595	0.258
595	0.256
596	0.255
596	0.255
597	0.256
597	0.256
598	0.255
598	0.254
598	0.254
599	0.253
599	0.252
600	0.251
600	0.25
601	0.25
601	0.25
602	0.248
602	0.248
602	0.246
603	0.246
603	0.246
604	0.246
604	0.245
605	0.246
605	0.246
606	0.244
606	0.242
606	0.242
607	0.241
607	0.24
608	0.239
608	0.238
609	0.237
609	0.237
610	0.235
610	0.234
610	0.234
611	0.234
611	0.233
612	0.233
612	0.233
613	0.232
613	0.232
614	0.23
614	0.229
614	0.228
615	0.226
615	0.225
616	0.224
616	0.223
617	0.222
617	0.221
618	0.22
618	0.219
618	0.218
619	0.217
619	0.217
620	0.218
620	0.217
621	0.215
621	0.215
622	0.213
622	0.212
622	0.21
623	0.209
623	0.209
624	0.208
624	0.207
625	0.205
625	0.205
626	0.203
626	0.202
626	0.202
627	0.202
627	0.201
628	0.2
628	0.199
629	0.198
629	0.197
630	0.195
630	0.193
630	0.192
631	0.19
631	0.188
632	0.186
632	0.184
633	0.182
633	0.179
634	0.178
634	0.176
634	0.174
635	0.172
635	0.17
636	0.168
636	0.165
637	0.162
637	0.159
638	0.157
638	0.154
638	0.151
639	0.147
639	0.142
640	0.138
640	0.134
641	0.13
641	0.126
642	0.122
642	0.118
642	0.114
643	0.109
643	0.104
644	0.099
644	0.094
645	0.089
645	0.084
646	0.078
646	0.072
646	0.066
647	0.059
647	0.052
648	0.045
648	0.038
649	0.03
649	0.023
650	0.016
650	0.008
650	0.001
651	-0.009
651	-0.021
652	-0.035
652	-0.049
653	-0.061
653	-0.072
653	-0.067
654	-0.048
654	-0.042
655	-0.047
655	-0.052
656	-0.058
656	-0.065
657	-0.07
657	-0.075
657	-0.082
658	-0.089
658	-0.12
659	-0.208
659	-0.299
660	-0.338
660	-0.365
661	-0.391
661	-0.423
661	-0.454
662	-0.483
662	-0.512
663	-0.547
663	-0.585
664	-0.622
664	-0.663
665	-0.71
665	-0.757
665	-0.803
666	-0.853
666	-0.908
667	-0.965
667	-1.028
668	-1.087
668	-1.157
669	-1.225
669	-1.299
669	-1.379
670	-1.464
670	-1.591
671	-1.792
671	-2.106
672	-2.335
672	-2.491
672	-2.607
673	-2.701
673	-2.78
674	-2.83
674	-2.844
675	-2.859
675	-2.862
676	-2.853
676	-2.802
676	-2.73
677	-2.641
677	-2.533
678	-2.368
678	-2.082
679	-1.74
679	-1.585
680	-1.484
680	-1.41
680	-1.344
681	-1.298
681	-1.245
682	-1.205
682	-1.163
683	-1.121
683	-1.098
684	-1.069
684	-1.05
684	-1.028
685	-1.007
685	-0.998
686	-0.975
686	-0.961
687	-0.951
687	-0.938
687	-0.938
688	-0.923
688	-0.917
689	-0.92
689	-0.917
690	-0.904
690	-0.894
691	-0.893
691	-0.897
691	-0.896
692	-0.898
692	-0.893
693	-0.898
693	-0.908
694	-0.89
694	-0.888
695	-0.891
695	-0.884
695	-0.891
696	-0.897
696	-0.89
697	-0.884
697	-0.88
698	-0.875
698	-0.867
698	-0.88
699	-0.879
699	-0.879
700	-0.898
700	-0.892
701	-0.878
701	-0.872
702	-0.873
702	-0.871
702	-0.871
703	-0.862
703	-0.851
704	-0.858
704	-0.863
705	-0.852
705	-0.851
705	-0.846
706	-0.838
706	-0.835
707	-0.846
707	-0.851
708	-0.848
708	-0.846
709	-0.847
709	-0.843
709	-0.838
710	-0.847
710	-0.85
711	-0.851
711	-0.851
712	-0.843
712	-0.84
713	-0.846
713	-0.848
713	-0.827
714	-0.828
714	-0.831
715	-0.825
715	-0.832
716	-0.848
716	-0.857
716	-0.855
717	-0.861
717	-0.851
718	-0.845
718	-0.846
719	-0.843
719	-0.836
720	-0.831
720	-0.827
720	-0.822
721	-0.813
721	-0.817
722	-0.816
722	-0.813
723	-0.83
723	-0.843
723	-0.852
724	-0.849
724	-0.853
725	-0.845
725	-0.848
726	-0.852
726	-0.843
727	-0.843
727	-0.851
727	-0.841
728	-0.827
728	-0.822
729	-0.826
729	-0.83
730	-0.836
730	-0.826
730	-0.83
731	-0.834
731	-0.836
732	-0.838
732	-0.833
733	-0.85
733	-0.856
734	-0.864
734	-0.858
734	-0.84
735	-0.832
735	-0.829
736	-0.827
736	-0.821
737	-0.82
737	-0.811
737	-0.8
738	-0.787
738	-0.774
739	-0.774
739	-0.775
740	-0.789
740	-0.79
741	-0.801
741	-0.81
741	-0.819
742	-0.826
742	-0.843
743	-0.849
743	-0.852
744	-0.857
744	-0.865
744	-0.859
745	-0.867
745	-0.855
746	-0.851
746	-0.842
747	-0.843
747	-0.834
748	-0.837
748	-0.841
748	-0.842
749	-0.835
749	-0.84
750	-0.831
750	-0.832
751	-0.83
751	-0.828
751	-0.841
752	-0.844
752	-0.845
753	-0.847
753	-0.839
754	-0.858
754	-0.857
754	-0.864
755	-0.865
755	-0.857
756	-0.86
756	-0.844
757	-0.837
757	-0.827
758	-0.827
758	-0.826
758	-0.822
759	-0.827
759	-0.826
760	-0.823
760	-0.827
761	-0.82
761	-0.825
761	-0.826
762	-0.833
762	-0.833
763	-0.834
763	-0.837
764	-0.836
764	-0.833
764	-0.838
765	-0.836
765	-0.844
766	-0.846
766	-0.848
767	-0.863
767	-0.858
768	-0.857
768	-0.851
768	-0.846
769	-0.85
769	-0.858
770	-0.868
770	-0.871
771	-0.868
771	-0.866
771	-0.872
772	-0.875
772	-0.896
773	-0.896
773	-0.897
774	-0.895
774	-0.88
775	-0.865
775	-0.866
775	-0.868
776	-0.88
776	-0.876
777	-0.877
777	-0.859
778	-0.869
778	-0.878
778	-0.878
779	-0.886
779	-0.902
780	-0.899
780	-0.907
781	-0.897
781	-0.887
781	-0.901
782	-0.923
782	-0.925
783	-0.924
783	-0.932
784	-0.936
784	-0.928
784	-0.948
785	-0.942
785	-0.954
786	-0.956
786	-0.95
787	-0.938
787	-0.944
788	-0.936
788	-0.928
788	-0.929
789	-0.93
789	-0.918
790	-0.918
790	-0.902
791	-0.91
791	-0.904
791	-0.898
792	-0.892
792	-0.896
793	-0.901
793	-0.889
794	-0.882
794	-0.875
794	-0.881
795	-0.902
795	-0.886
796	-0.892
796	-0.889
797	-0.884
797	-0.875
797	-0.866
798	-0.886
798	-0.891
799	-0.891
799	-0.876
800	-0.87
800	-0.88
801	-0.878
801	-0.881
801	-0.877
802	-0.876
802	-0.876
803	-0.871
803	-0.863
804	-0.869
804	-0.879
804	-0.864
805	-0.846
805	-0.836
806	-0.836
806	-0.832
807	-0.833
807	-0.833
807	-0.815
808	-0.812
808	-0.804
809	-0.798
809	-0.797
810	-0.798
810	-0.795
810	-0.79
811	-0.794
811	-0.785
812	-0.779
812	-0.781
813	-0.784
813	-0.785
813	-0.78
814	-0.78
814	-0.787
815	-0.78
815	-0.777
816	-0.773
816	-0.789
817	-0.803
817	-0.807
817	-0.816
818	-0.809
818	-0.806
819	-0.816
819	-0.813
820	-0.824
820	-0.824
820	-0.822
821	-0.819
821	-0.813
822	-0.811
822	-0.801
823	-0.813
823	-0.813
823	-0.809
824	-0.807
824	-0.817
825	-0.815
825	-0.812
826	-0.808
826	-0.804
826	-0.803
827	-0.803
827	-0.791
828	-0.79
828	-0.784
829	-0.777
829	-0.762
829	-0.761
830	-0.761
830	-0.746
831	-0.739
831	-0.73
832	-0.72
832	-0.717
832	-0.711
833	-0.708
833	-0.714
834	-0.709
834	-0.705
835	-0.696
835	-0.694
835	-0.689
836	-0.683
836	-0.682
837	-0.671
837	-0.663
838	-0.651
838	-0.634
839	-0.629
839	-0.614
839	-0.604
840	-0.603
840	-0.593
841	-0.583
841	-0.575
842	-0.568
842	-0.554
842	-0.551
843	-0.547
843	-0.543
844	-0.539
844	-0.527
845	-0.513
845	-0.503
845	-0.491
846	-0.48
846	-0.467
847	-0.457
847	-0.444
848	-0.428
848	-0.409
848	-0.396
849	-0.385
849	-0.374
850	-0.363
850	-0.352
851	-0.338
851	-0.321
851	-0.311
852	-0.294
852	-0.282
853	-0.274
853	-0.264
854	-0.252
854	-0.239
854	-0.226
855	-0.215
855	-0.207
856	-0.2
856	-0.193
857	-0.186
857	-0.177
857	-0.163
858	-0.151
858	-0.143
859	-0.133
859	-0.121
860	-0.11
860	-0.094
860	-0.084
861	-0.072
861	-0.061
862	-0.053
862	-0.044
863	-0.036
863	-0.026
863	-0.019
864	-0.013
864	-0.005
865	0.002
865	0.008
866	0.015
866	0.021
866	0.026
867	0.032
867	0.038
868	0.042
868	0.047
869	0.052
869	0.055
869	0.057
870	0.059
870	0.061
871	0.063
871	0.065
872	0.066
872	0.067
872	0.067
873	0.067
873	0.067
874	0.067
874	0.066
875	0.066
875	0.066
875	0.066
876	0.065
876	0.065
877	0.064
877	0.064
878	0.063
878	0.063
878	0.063
879	0.063
879	0.062
880	0.062
880	0.061
881	0.059
881	0.058
881	0.056
882	0.055
882	0.053
883	0.052
883	0.05
884	0.05
884	0.049
884	0.049
885	0.048
885	0.048
886	0.048
886	0.048
887	0.047
887	0.047
887	0.046
888	0.046
888	0.045
889	0.044
889	0.043
890	0.042
890	0.042
890	0.041
891	0.041
891	0.041
892	0.041
892	0.041
893	0.041
893	0.042
893	0.042
894	0.043
894	0.043
895	0.044
895	0.043
895	0.043
896	0.043
896	0.043
897	0.044
897	0.044
898	0.044
898	0.044
898	0.044
899	0.044
899	0.044
900	0.044
900	0.044
901	0.044
901	0.044
901	0.043
902	0.043
902	0.043
903	0.043
903	0.042
904	0.042
904	0.041
904	0.041
905	0.042
905	0.042
906	0.042
906	0.043
907	0.043
907	0.043
907	0.044
908	0.044
908	0.045
909	0.045
909	0.045
910	0.046
910	0.047
910	0.047
911	0.047
911	0.048
912	0.049
912	0.049
913	0.05
913	0.05
913	0.051
914	0.051
914	0.052
915	0.052
915	0.051
916	0.051
916	0.051
916	0.05
917	0.05
917	0.049
918	0.048
918	0.047
918	0.047
919	0.046
919	0.046
920	0.046
920	0.046
921	0.046
921	0.046
921	0.046
922	0.047
922	0.047
923	0.047
923	0.047
924	0.046
924	0.046
924	0.045
925	0.044
925	0.043
926	0.042
926	0.041
927	0.04
927	0.039
927	0.038
928	0.038
928	0.038
929	0.038
929	0.039
930	0.039
930	0.04
930	0.041
931	0.042
931	0.043
932	0.044
932	0.045
933	0.046
933	0.046
933	0.046
934	0.045
934	0.045
935	0.044
935	0.043
935	0.042
936	0.041
936	0.039
937	0.038
937	0.037
938	0.037
938	0.036
938	0.036
939	0.035
939	0.034
940	0.033
940	0.033
941	0.032
941	0.032
941	0.032
942	0.031
942	0.031
943	0.031
943	0.03
944	0.029
944	0.029
944	0.029
945	0.029
945	0.029
946	0.028
946	0.027
946	0.027
947	0.027
947	0.027
948	0.028
948	0.029
949	0.029
949	0.03
949	0.032
950	0.033
950	0.035
951	0.036
951	0.037
952	0.038
952	0.039
952	0.04
953	0.04
953	0.04
954	0.04
954	0.04
955	0.04
955	0.039
955	0.039
956	0.038
956	0.038
957	0.036
957	0.035
957	0.035
958	0.034
958	0.033
959	0.033
959	0.032
960	0.032
960	0.032
960	0.032
961	0.032
961	0.032
962	0.033
962	0.033
963	0.033
963	0.034
963	0.034
964	0.035
964	0.036
965	0.036
965	0.037
966	0.038
966	0.038
966	0.039
967	0.04
967	0.04
968	0.04
968	0.04
968	0.04
969	0.04
969	0.04
970	0.039
970	0.039
971	0.038
971	0.038
971	0.038
972	0.039
972	0.039
973	0.039
973	0.039
974	0.038
974	0.039
974	0.039
975	0.039
975	0.039
976	0.038
976	0.038
976	0.037
977	0.036
977	0.035
978	0.035
978	0.034
979	0.033
979	0.033
979	0.032
980	0.032
980	0.032
981	0.031
981	0.032
982	0.032
982	0.032
982	0.032
983	0.032
983	0.032
984	0.032
984	0.031
984	0.031
985	0.031
985	0.03
986	0.03
986	0.029
987	0.028
987	0.027
987	0.027
988	0.026
988	0.025
989	0.025
989	0.024
990	0.023
990	0.022
990	0.021
991	0.02
991	0.019
992	0.019
992	0.018
992	0.017
993	0.016
993	0.015
994	0.014
994	0.012
995	0.011
995	0.01
995	0.009
996	0.008
996	0.007
997	0.006
997	0.005
997	0.004
998	0.004
998	0.004
999	0.005
999	0.005
1000	0.005
1000	0.006
1000	0.006
1001	0.007
1001	0.008
1002	0.008
1002	0.009
1003	0.01
1003	0.01
1003	0.01
1004	0.01
1004	0.01
1005	0.01
1005	0.01
1005	0.009
1006	0.009
1006	0.008
1007	0.007
1007	0.006
1008	0.006
1008	0.005
1008	0.005
1009	0.005
1009	0.005
1010	0.005
1010	0.005
1010	0.006
1011	0.007
1011	0.007
1012	0.009
1012	0.01
1013	0.011
1013	0.012
1013	0.012
1014	0.013
1014	0.014
1015	0.014
1015	0.015
1016	0.015
1016	0.015
1016	0.015
1017	0.014
1017	0.014
1018	0.014
1018	0.014
1018	0.014
1019	0.014
1019	0.013
1020	0.013
1020	0.012
1021	0.012
1021	0.011
1021	0.011
1022	0.011
1022	0.01
1023	0.01
1023	0.01
1023	0.01
1024	0.01
1024	0.01
1025	0.01
1025	0.01
1026	0.011
1026	0.011
1026	0.011
1027	0.011
1027	0.011
1028	0.012
1028	0.012
1028	0.013
1029	0.013
1029	0.013
1030	0.013
1030	0.013
1031	0.013
1031	0.013
1031	0.013
1032	0.013
1032	0.013
1033	0.012
1033	0.012
1033	0.012
1034	0.011
1034	0.011
1035	0.01
1035	0.009
1036	0.008
1036	0.008
1036	0.007
1037	0.006
1037	0.006
1038	0.006
1038	0.006
1039	0.006
1039	0.006
1039	0.006
1040	0.006
1040	0.006
1041	0.007
1041	0.007
1041	0.006
1042	0.005
1042	0.005
1043	0.004
1043	0.004
1044	0.003
1044	0.002
1044	0.002
1045	0.001
1045	0.001
1046	-0
1046	-0
1046	-0
1047	-0
1047	-0
1048	0
1048	0
1049	-0
1049	-0.001
1049	-0.001
1050	-0.002
1050	-0.003
1051	-0.004
1051	-0.004
1051	-0.005
1052	-0.006
1052	-0.007
1053	-0.008
1053	-0.008
1053	-0.008
1054	-0.009
1054	-0.009
1055	-0.009
1055	-0.009
1056	-0.009
1056	-0.009
1056	-0.009
1057	-0.009
1057	-0.009
1058	-0.009
1058	-0.009
1058	-0.009
1059	-0.009
1059	-0.009
1060	-0.01
1060	-0.011
1061	-0.011
1061	-0.011
1061	-0.011
1062	-0.011
1062	-0.012
1063	-0.012
1063	-0.012
1063	-0.012
1064	-0.012
1064	-0.012
1065	-0.012
1065	-0.012
1066	-0.013
1066	-0.013
1066	-0.014
1067	-0.015
1067	-0.016
1068	-0.016
1068	-0.017
1068	-0.018
1069	-0.019
1069	-0.02
1070	-0.021
1070	-0.021
1071	-0.022
1071	-0.022
1071	-0.023
1072	-0.023
1072	-0.023
1073	-0.024
1073	-0.024
1073	-0.024
1074	-0.024
1074	-0.024
1075	-0.024
1075	-0.025
1076	-0.025
1076	-0.025
1076	-0.026
1077	-0.027
1077	-0.028
1078	-0.029
1078	-0.029
1078	-0.03
1079	-0.03
1079	-0.031
1080	-0.032
1080	-0.032
1080	-0.034
1081	-0.034
1081	-0.035
1082	-0.036
1082	-0.037
1083	-0.039
1083	-0.04
1083	-0.041
1084	-0.043
1084	-0.044
1085	-0.045
1085	-0.046
1085	-0.047
1086	-0.048
1086	-0.049
1087	-0.049
1087	-0.05
1088	-0.051
1088	-0.052
1088	-0.052
1089	-0.053
1089	-0.053
1090	-0.054
1090	-0.055
1090	-0.056
1091	-0.057
1091	-0.057
1092	-0.058
1092	-0.058
1092	-0.06
1093	-0.06
1093	-0.061
1094	-0.061
1094	-0.062
1095	-0.064
1095	-0.064
1095	-0.064
1096	-0.066
1096	-0.068
1097	-0.069
1097	-0.071
1097	-0.072
1098	-0.075
1098	-0.078
1099	-0.08
1099	-0.081
1100	-0.084
1100	-0.086
1100	-0.089
1101	-0.092
1101	-0.095
1102	-0.097
1102	-0.099
1102	-0.1
1103	-0.102
1103	-0.104
1104	-0.107
1104	-0.111
1104	-0.112
1105	-0.114
1105	-0.116
1106	-0.121
1106	-0.124
1107	-0.13
1107	-0.136
1107	-0.141
1108	-0.143
1108	-0.146
1109	-0.149
1109	-0.154
1109	-0.159
1110	-0.162
1110	-0.167
1111	-0.176
1111	-0.171
