Data from 3.3A_17C_Absorbance__714__03581.txt Node

Date: Tue Jun 20 17:37:57 CEST 2023
User: Marek
Spectrometer: MAYP115816
Trigger mode: 0
Integration Time (sec): 2.200000E-1
Scans to average: 10
Electric dark correction enabled: true
Nonlinearity correction enabled: true
Boxcar width: 5
XAxis mode: Wavelengths
Number of Pixels in Spectrum: 2068
>>>>>Begin Spectral Data<<<<<
199	-0.795
199	-0.78
200	-0.752
200	-0.698
201	-0.671
201	-0.661
202	-0.646
202	-0.638
203	-0.635
203	-0.628
204	-0.608
204	-0.591
205	-0.567
205	-0.554
205	-0.562
206	-0.562
206	-0.558
207	-0.55
207	-0.556
208	-0.559
208	-0.564
209	-0.567
209	-0.573
210	-0.586
210	-0.594
211	-0.587
211	-0.593
212	-0.602
212	-0.609
213	-0.605
213	-0.6
213	-0.598
214	-0.605
214	-0.607
215	-0.605
215	-0.61
216	-0.619
216	-0.623
217	-0.62
217	-0.62
218	-0.629
218	-0.631
219	-0.636
219	-0.638
220	-0.641
220	-0.648
221	-0.648
221	-0.649
221	-0.641
222	-0.64
222	-0.639
223	-0.634
223	-0.637
224	-0.638
224	-0.635
225	-0.634
225	-0.635
226	-0.636
226	-0.635
227	-0.641
227	-0.653
228	-0.656
228	-0.666
229	-0.67
229	-0.668
229	-0.668
230	-0.663
230	-0.66
231	-0.657
231	-0.653
232	-0.657
232	-0.652
233	-0.653
233	-0.64
234	-0.64
234	-0.636
235	-0.64
235	-0.651
236	-0.66
236	-0.66
236	-0.661
237	-0.658
237	-0.658
238	-0.659
238	-0.66
239	-0.664
239	-0.671
240	-0.666
240	-0.662
241	-0.656
241	-0.66
242	-0.662
242	-0.671
243	-0.67
243	-0.671
243	-0.676
244	-0.673
244	-0.674
245	-0.676
245	-0.681
246	-0.691
246	-0.693
247	-0.701
247	-0.687
248	-0.688
248	-0.691
249	-0.698
249	-0.7
250	-0.698
250	-0.706
250	-0.704
251	-0.704
251	-0.699
252	-0.7
252	-0.711
253	-0.707
253	-0.72
254	-0.725
254	-0.726
255	-0.738
255	-0.738
256	-0.74
256	-0.753
257	-0.764
257	-0.762
258	-0.765
258	-0.772
258	-0.768
259	-0.76
259	-0.778
260	-0.776
260	-0.765
261	-0.776
261	-0.762
262	-0.766
262	-0.764
263	-0.755
263	-0.76
264	-0.769
264	-0.77
265	-0.76
265	-0.764
265	-0.775
266	-0.767
266	-0.767
267	-0.766
267	-0.783
268	-0.791
268	-0.785
269	-0.778
269	-0.793
270	-0.797
270	-0.794
271	-0.806
271	-0.814
272	-0.814
272	-0.818
272	-0.812
273	-0.823
273	-0.836
274	-0.83
274	-0.825
275	-0.821
275	-0.809
276	-0.812
276	-0.817
277	-0.821
277	-0.819
278	-0.823
278	-0.822
278	-0.809
279	-0.817
279	-0.829
280	-0.831
280	-0.841
281	-0.836
281	-0.829
282	-0.835
282	-0.829
283	-0.82
283	-0.835
284	-0.851
284	-0.859
285	-0.841
285	-0.848
285	-0.84
286	-0.846
286	-0.863
287	-0.858
287	-0.856
288	-0.855
288	-0.836
289	-0.834
289	-0.844
290	-0.853
290	-0.842
291	-0.846
291	-0.843
292	-0.822
292	-0.82
292	-0.826
293	-0.817
293	-0.812
294	-0.811
294	-0.796
295	-0.778
295	-0.788
296	-0.8
296	-0.795
297	-0.784
297	-0.789
298	-0.784
298	-0.801
298	-0.805
299	-0.787
299	-0.78
300	-0.778
300	-0.759
301	-0.739
301	-0.742
302	-0.751
302	-0.735
303	-0.728
303	-0.716
304	-0.7
304	-0.703
305	-0.695
305	-0.705
305	-0.72
306	-0.708
306	-0.705
307	-0.698
307	-0.71
308	-0.712
308	-0.708
309	-0.709
309	-0.705
310	-0.703
310	-0.694
311	-0.68
311	-0.698
311	-0.687
312	-0.683
312	-0.673
313	-0.665
313	-0.667
314	-0.672
314	-0.67
315	-0.669
315	-0.664
316	-0.657
316	-0.648
317	-0.64
317	-0.637
318	-0.628
318	-0.625
318	-0.613
319	-0.604
319	-0.596
320	-0.594
320	-0.593
321	-0.588
321	-0.588
322	-0.581
322	-0.573
323	-0.573
323	-0.564
324	-0.562
324	-0.551
324	-0.539
325	-0.524
325	-0.507
326	-0.499
326	-0.475
327	-0.46
327	-0.439
328	-0.409
328	-0.387
329	-0.359
329	-0.33
330	-0.304
330	-0.269
330	-0.232
331	-0.195
331	-0.162
332	-0.127
332	-0.093
333	-0.063
333	-0.03
334	-0
334	0.025
335	0.052
335	0.074
336	0.095
336	0.114
336	0.131
337	0.147
337	0.164
338	0.177
338	0.187
339	0.201
339	0.211
340	0.219
340	0.227
341	0.234
341	0.241
342	0.247
342	0.253
342	0.257
343	0.261
343	0.266
344	0.269
344	0.272
345	0.275
345	0.277
346	0.279
346	0.281
347	0.283
347	0.284
348	0.286
348	0.287
348	0.288
349	0.289
349	0.29
350	0.291
350	0.292
351	0.292
351	0.293
352	0.293
352	0.293
353	0.293
353	0.293
354	0.293
354	0.293
354	0.293
355	0.293
355	0.293
356	0.293
356	0.293
357	0.294
357	0.294
358	0.294
358	0.294
359	0.294
359	0.295
360	0.295
360	0.295
360	0.295
361	0.295
361	0.295
362	0.294
362	0.294
363	0.294
363	0.294
364	0.294
364	0.294
365	0.294
365	0.294
366	0.293
366	0.293
366	0.293
367	0.294
367	0.293
368	0.293
368	0.293
369	0.293
369	0.293
370	0.293
370	0.292
371	0.292
371	0.292
372	0.292
372	0.292
372	0.292
373	0.292
373	0.291
374	0.291
374	0.291
375	0.291
375	0.291
376	0.29
376	0.29
377	0.29
377	0.29
378	0.289
378	0.289
378	0.289
379	0.289
379	0.289
380	0.288
380	0.289
381	0.288
381	0.288
382	0.288
382	0.287
383	0.287
383	0.287
383	0.287
384	0.286
384	0.286
385	0.286
385	0.286
386	0.285
386	0.285
387	0.285
387	0.285
388	0.285
388	0.285
389	0.285
389	0.285
389	0.285
390	0.285
390	0.285
391	0.285
391	0.285
392	0.284
392	0.284
393	0.284
393	0.284
394	0.284
394	0.283
394	0.283
395	0.283
395	0.282
396	0.282
396	0.281
397	0.281
397	0.281
398	0.28
398	0.28
399	0.279
399	0.279
400	0.279
400	0.279
400	0.279
401	0.278
401	0.278
402	0.278
402	0.278
403	0.278
403	0.278
404	0.278
404	0.278
405	0.278
405	0.277
405	0.277
406	0.277
406	0.277
407	0.277
407	0.277
408	0.276
408	0.276
409	0.276
409	0.276
410	0.276
410	0.276
411	0.276
411	0.275
411	0.275
412	0.274
412	0.274
413	0.274
413	0.274
414	0.273
414	0.273
415	0.273
415	0.273
416	0.272
416	0.272
416	0.272
417	0.272
417	0.272
418	0.272
418	0.271
419	0.272
419	0.271
420	0.271
420	0.271
421	0.271
421	0.271
421	0.271
422	0.271
422	0.271
423	0.271
423	0.271
424	0.271
424	0.27
425	0.27
425	0.27
426	0.27
426	0.27
427	0.27
427	0.27
427	0.27
428	0.27
428	0.27
429	0.27
429	0.269
430	0.269
430	0.269
431	0.269
431	0.268
432	0.268
432	0.268
432	0.267
433	0.267
433	0.267
434	0.267
434	0.267
435	0.267
435	0.267
436	0.267
436	0.267
437	0.267
437	0.267
437	0.267
438	0.267
438	0.267
439	0.267
439	0.267
440	0.267
440	0.267
441	0.266
441	0.266
442	0.266
442	0.266
442	0.266
443	0.266
443	0.266
444	0.266
444	0.266
445	0.265
445	0.266
446	0.266
446	0.266
447	0.266
447	0.266
447	0.266
448	0.266
448	0.266
449	0.266
449	0.267
450	0.267
450	0.267
451	0.267
451	0.267
452	0.267
452	0.267
452	0.267
453	0.267
453	0.266
454	0.267
454	0.267
455	0.267
455	0.267
456	0.267
456	0.266
457	0.266
457	0.266
458	0.266
458	0.266
458	0.266
459	0.266
459	0.265
460	0.265
460	0.265
461	0.265
461	0.265
462	0.266
462	0.266
463	0.267
463	0.268
463	0.268
464	0.268
464	0.269
465	0.269
465	0.27
466	0.27
466	0.27
467	0.27
467	0.27
467	0.27
468	0.269
468	0.269
469	0.27
469	0.27
470	0.271
470	0.271
471	0.271
471	0.272
472	0.272
472	0.273
472	0.273
473	0.274
473	0.275
474	0.275
474	0.275
475	0.276
475	0.277
476	0.277
476	0.278
477	0.278
477	0.279
477	0.279
478	0.28
478	0.28
479	0.281
479	0.282
480	0.282
480	0.282
481	0.283
481	0.283
482	0.284
482	0.285
482	0.286
483	0.288
483	0.29
484	0.29
484	0.29
485	0.292
485	0.292
486	0.293
486	0.294
487	0.295
487	0.296
487	0.297
488	0.297
488	0.298
489	0.299
489	0.301
490	0.302
490	0.303
491	0.304
491	0.306
492	0.307
492	0.308
492	0.309
493	0.31
493	0.311
494	0.313
494	0.315
495	0.316
495	0.317
496	0.319
496	0.32
496	0.322
497	0.324
497	0.326
498	0.327
498	0.329
499	0.33
499	0.333
500	0.335
500	0.337
501	0.339
501	0.341
501	0.342
502	0.344
502	0.345
503	0.347
503	0.349
504	0.351
504	0.353
505	0.355
505	0.357
506	0.36
506	0.362
506	0.365
507	0.367
507	0.37
508	0.372
508	0.375
509	0.377
509	0.38
510	0.382
510	0.384
511	0.385
511	0.387
511	0.389
512	0.391
512	0.392
513	0.393
513	0.395
514	0.397
514	0.399
515	0.401
515	0.402
515	0.403
516	0.405
516	0.407
517	0.408
517	0.41
518	0.411
518	0.412
519	0.413
519	0.414
520	0.415
520	0.417
520	0.418
521	0.419
521	0.42
522	0.422
522	0.423
523	0.424
523	0.426
524	0.426
524	0.427
524	0.428
525	0.429
525	0.43
526	0.431
526	0.431
527	0.432
527	0.432
528	0.432
528	0.433
529	0.433
529	0.433
529	0.433
530	0.433
530	0.433
531	0.433
531	0.432
532	0.431
532	0.431
533	0.431
533	0.431
533	0.43
534	0.43
534	0.429
535	0.428
535	0.428
536	0.428
536	0.427
537	0.426
537	0.426
538	0.425
538	0.424
538	0.423
539	0.422
539	0.421
540	0.42
540	0.418
541	0.416
541	0.414
542	0.413
542	0.411
542	0.41
543	0.408
543	0.406
544	0.404
544	0.402
545	0.401
545	0.4
546	0.398
546	0.396
547	0.394
547	0.391
547	0.389
548	0.388
548	0.386
549	0.384
549	0.383
550	0.381
550	0.379
551	0.376
551	0.374
551	0.372
552	0.371
552	0.369
553	0.367
553	0.365
554	0.363
554	0.36
555	0.358
555	0.356
556	0.354
556	0.352
556	0.35
557	0.348
557	0.347
558	0.344
558	0.342
559	0.341
559	0.339
560	0.337
560	0.335
560	0.333
561	0.332
561	0.331
562	0.329
562	0.327
563	0.326
563	0.324
564	0.323
564	0.321
564	0.32
565	0.32
565	0.318
566	0.317
566	0.316
567	0.315
567	0.314
568	0.313
568	0.311
568	0.31
569	0.309
569	0.307
570	0.305
570	0.302
571	0.301
571	0.3
572	0.298
572	0.296
573	0.294
573	0.292
573	0.29
574	0.289
574	0.288
575	0.287
575	0.287
576	0.286
576	0.284
577	0.283
577	0.282
577	0.281
578	0.281
578	0.281
579	0.281
579	0.281
580	0.279
580	0.276
581	0.273
581	0.272
581	0.272
582	0.272
582	0.272
583	0.272
583	0.27
584	0.268
584	0.265
585	0.266
585	0.267
585	0.267
586	0.266
586	0.265
587	0.263
587	0.262
588	0.26
588	0.259
589	0.259
589	0.259
590	0.258
590	0.257
590	0.258
591	0.257
591	0.256
592	0.255
592	0.254
593	0.254
593	0.254
594	0.253
594	0.252
594	0.251
595	0.251
595	0.249
596	0.248
596	0.248
597	0.25
597	0.249
598	0.249
598	0.248
598	0.248
599	0.248
599	0.247
600	0.246
600	0.245
601	0.245
601	0.245
602	0.244
602	0.243
602	0.242
603	0.242
603	0.243
604	0.243
604	0.242
605	0.243
605	0.243
606	0.242
606	0.241
606	0.24
607	0.239
607	0.239
608	0.239
608	0.237
609	0.237
609	0.237
610	0.235
610	0.234
610	0.234
611	0.234
611	0.234
612	0.234
612	0.234
613	0.234
613	0.234
614	0.232
614	0.231
614	0.23
615	0.229
615	0.228
616	0.227
616	0.226
617	0.225
617	0.224
618	0.223
618	0.222
618	0.222
619	0.221
619	0.221
620	0.222
620	0.221
621	0.22
621	0.219
622	0.217
622	0.216
622	0.215
623	0.214
623	0.214
624	0.214
624	0.212
625	0.212
625	0.211
626	0.21
626	0.209
626	0.209
627	0.209
627	0.208
628	0.208
628	0.207
629	0.206
629	0.205
630	0.203
630	0.201
630	0.2
631	0.199
631	0.197
632	0.195
632	0.194
633	0.192
633	0.189
634	0.188
634	0.186
634	0.184
635	0.182
635	0.18
636	0.178
636	0.176
637	0.173
637	0.17
638	0.168
638	0.165
638	0.162
639	0.159
639	0.155
640	0.151
640	0.148
641	0.144
641	0.14
642	0.136
642	0.133
642	0.129
643	0.124
643	0.119
644	0.114
644	0.11
645	0.105
645	0.1
646	0.094
646	0.088
646	0.082
647	0.075
647	0.068
648	0.061
648	0.054
649	0.046
649	0.039
650	0.032
650	0.024
650	0.016
651	0.006
651	-0.006
652	-0.02
652	-0.035
653	-0.047
653	-0.059
653	-0.054
654	-0.035
654	-0.03
655	-0.036
655	-0.042
656	-0.048
656	-0.054
657	-0.06
657	-0.065
657	-0.073
658	-0.08
658	-0.112
659	-0.201
659	-0.292
660	-0.333
660	-0.361
661	-0.389
661	-0.42
661	-0.453
662	-0.482
662	-0.513
663	-0.549
663	-0.588
664	-0.627
664	-0.669
665	-0.716
665	-0.762
665	-0.808
666	-0.86
666	-0.915
667	-0.971
667	-1.034
668	-1.094
668	-1.164
669	-1.232
669	-1.306
669	-1.385
670	-1.468
670	-1.579
671	-1.736
671	-2.064
672	-2.31
672	-2.473
672	-2.593
673	-2.689
673	-2.77
674	-2.825
674	-2.84
675	-2.856
675	-2.86
676	-2.856
676	-2.81
676	-2.739
677	-2.652
677	-2.548
678	-2.39
678	-2.125
679	-1.773
679	-1.613
680	-1.51
680	-1.434
680	-1.366
681	-1.318
681	-1.265
682	-1.223
682	-1.18
683	-1.136
683	-1.112
684	-1.084
684	-1.065
684	-1.043
685	-1.021
685	-1.011
686	-0.987
686	-0.972
687	-0.963
687	-0.951
687	-0.952
688	-0.936
688	-0.928
689	-0.931
689	-0.929
690	-0.916
690	-0.906
691	-0.903
691	-0.907
691	-0.907
692	-0.906
692	-0.903
693	-0.909
693	-0.92
694	-0.9
694	-0.899
695	-0.901
695	-0.894
695	-0.902
696	-0.909
696	-0.902
697	-0.895
697	-0.89
698	-0.884
698	-0.875
698	-0.888
699	-0.888
699	-0.889
700	-0.909
700	-0.901
701	-0.888
701	-0.881
702	-0.884
702	-0.883
702	-0.884
703	-0.875
703	-0.862
704	-0.868
704	-0.871
705	-0.86
705	-0.861
705	-0.855
706	-0.848
706	-0.842
707	-0.853
707	-0.856
708	-0.852
708	-0.849
709	-0.852
709	-0.847
709	-0.843
710	-0.85
710	-0.853
711	-0.853
711	-0.853
712	-0.845
712	-0.842
713	-0.848
713	-0.85
713	-0.829
714	-0.83
714	-0.835
715	-0.827
715	-0.835
716	-0.851
716	-0.861
716	-0.86
717	-0.867
717	-0.859
718	-0.854
718	-0.856
719	-0.851
719	-0.842
720	-0.837
720	-0.833
720	-0.827
721	-0.819
721	-0.823
722	-0.822
722	-0.818
723	-0.836
723	-0.848
723	-0.858
724	-0.857
724	-0.862
725	-0.854
725	-0.858
726	-0.861
726	-0.852
727	-0.852
727	-0.859
727	-0.848
728	-0.834
728	-0.83
729	-0.833
729	-0.836
730	-0.841
730	-0.833
730	-0.838
731	-0.842
731	-0.843
732	-0.846
732	-0.842
733	-0.857
733	-0.865
734	-0.874
734	-0.866
734	-0.848
735	-0.837
735	-0.832
736	-0.829
736	-0.825
737	-0.823
737	-0.814
737	-0.806
738	-0.79
738	-0.779
739	-0.781
739	-0.781
740	-0.796
740	-0.798
741	-0.808
741	-0.816
741	-0.827
742	-0.832
742	-0.848
743	-0.854
743	-0.856
744	-0.861
744	-0.87
744	-0.864
745	-0.871
745	-0.862
746	-0.859
746	-0.849
747	-0.852
747	-0.842
748	-0.844
748	-0.848
748	-0.848
749	-0.839
749	-0.845
750	-0.834
750	-0.834
751	-0.834
751	-0.831
751	-0.843
752	-0.846
752	-0.849
753	-0.85
753	-0.843
754	-0.863
754	-0.863
754	-0.873
755	-0.872
755	-0.863
756	-0.867
756	-0.853
757	-0.844
757	-0.834
758	-0.835
758	-0.833
758	-0.829
759	-0.834
759	-0.833
760	-0.832
760	-0.834
761	-0.826
761	-0.829
761	-0.831
762	-0.836
762	-0.837
763	-0.838
763	-0.841
764	-0.841
764	-0.837
764	-0.843
765	-0.842
765	-0.85
766	-0.853
766	-0.854
767	-0.871
767	-0.865
768	-0.863
768	-0.855
768	-0.849
769	-0.854
769	-0.862
770	-0.871
770	-0.875
771	-0.871
771	-0.871
771	-0.875
772	-0.881
772	-0.902
773	-0.903
773	-0.903
774	-0.902
774	-0.882
775	-0.87
775	-0.868
775	-0.872
776	-0.882
776	-0.878
777	-0.877
777	-0.861
778	-0.87
778	-0.879
778	-0.879
779	-0.889
779	-0.906
780	-0.904
780	-0.912
781	-0.903
781	-0.892
781	-0.905
782	-0.925
782	-0.926
783	-0.925
783	-0.933
784	-0.937
784	-0.93
784	-0.948
785	-0.943
785	-0.953
786	-0.959
786	-0.952
787	-0.942
787	-0.95
788	-0.943
788	-0.936
788	-0.936
789	-0.936
789	-0.926
790	-0.925
790	-0.908
791	-0.913
791	-0.908
791	-0.901
792	-0.895
792	-0.898
793	-0.901
793	-0.888
794	-0.881
794	-0.874
794	-0.879
795	-0.901
795	-0.887
796	-0.893
796	-0.886
797	-0.881
797	-0.87
797	-0.864
798	-0.884
798	-0.889
799	-0.888
799	-0.875
800	-0.872
800	-0.881
801	-0.878
801	-0.886
801	-0.882
802	-0.883
802	-0.882
803	-0.876
803	-0.868
804	-0.874
804	-0.88
804	-0.862
805	-0.841
805	-0.833
806	-0.832
806	-0.828
807	-0.831
807	-0.83
807	-0.813
808	-0.809
808	-0.801
809	-0.797
809	-0.798
810	-0.804
810	-0.8
810	-0.795
811	-0.8
811	-0.788
812	-0.783
812	-0.786
813	-0.79
813	-0.792
813	-0.79
814	-0.791
814	-0.796
815	-0.786
815	-0.781
816	-0.776
816	-0.793
817	-0.806
817	-0.808
817	-0.817
818	-0.809
818	-0.805
819	-0.815
819	-0.812
820	-0.824
820	-0.826
820	-0.825
821	-0.821
821	-0.815
822	-0.814
822	-0.802
823	-0.814
823	-0.812
823	-0.807
824	-0.805
824	-0.816
825	-0.813
825	-0.811
826	-0.805
826	-0.801
826	-0.801
827	-0.803
827	-0.791
828	-0.792
828	-0.786
829	-0.781
829	-0.766
829	-0.763
830	-0.762
830	-0.749
831	-0.742
831	-0.732
832	-0.722
832	-0.717
832	-0.707
833	-0.706
833	-0.712
834	-0.706
834	-0.701
835	-0.693
835	-0.693
835	-0.689
836	-0.686
836	-0.68
837	-0.669
837	-0.662
838	-0.649
838	-0.631
839	-0.624
839	-0.611
839	-0.6
840	-0.599
840	-0.588
841	-0.576
841	-0.57
842	-0.561
842	-0.548
842	-0.545
843	-0.543
843	-0.538
844	-0.535
844	-0.526
845	-0.511
845	-0.501
845	-0.49
846	-0.478
846	-0.469
847	-0.458
847	-0.443
848	-0.427
848	-0.41
848	-0.395
849	-0.381
849	-0.369
850	-0.359
850	-0.348
851	-0.335
851	-0.318
851	-0.307
852	-0.293
852	-0.279
853	-0.271
853	-0.26
854	-0.249
854	-0.238
854	-0.223
855	-0.211
855	-0.202
856	-0.193
856	-0.184
857	-0.175
857	-0.165
857	-0.15
858	-0.138
858	-0.13
859	-0.118
859	-0.105
860	-0.095
860	-0.079
860	-0.068
861	-0.058
861	-0.047
862	-0.039
862	-0.03
863	-0.021
863	-0.011
863	-0.003
864	0.003
864	0.011
865	0.018
865	0.025
866	0.031
866	0.038
866	0.044
867	0.05
867	0.056
868	0.061
868	0.066
869	0.071
869	0.074
869	0.077
870	0.079
870	0.08
871	0.082
871	0.084
872	0.085
872	0.085
872	0.086
873	0.086
873	0.085
874	0.085
874	0.084
875	0.084
875	0.083
875	0.083
876	0.083
876	0.083
877	0.082
877	0.081
878	0.081
878	0.081
878	0.081
879	0.08
879	0.08
880	0.08
880	0.079
881	0.077
881	0.076
881	0.075
882	0.073
882	0.071
883	0.07
883	0.068
884	0.067
884	0.066
884	0.066
885	0.065
885	0.065
886	0.065
886	0.065
887	0.065
887	0.064
887	0.064
888	0.064
888	0.063
889	0.062
889	0.061
890	0.06
890	0.059
890	0.059
891	0.059
891	0.058
892	0.059
892	0.059
893	0.059
893	0.059
893	0.059
894	0.06
894	0.06
895	0.06
895	0.06
895	0.059
896	0.06
896	0.059
897	0.06
897	0.06
898	0.06
898	0.06
898	0.06
899	0.06
899	0.06
900	0.06
900	0.06
901	0.06
901	0.06
901	0.06
902	0.06
902	0.06
903	0.06
903	0.06
904	0.059
904	0.059
904	0.059
905	0.059
905	0.059
906	0.06
906	0.06
907	0.06
907	0.059
907	0.06
908	0.06
908	0.06
909	0.061
909	0.061
910	0.061
910	0.062
910	0.062
911	0.062
911	0.063
912	0.064
912	0.065
913	0.066
913	0.066
913	0.067
914	0.067
914	0.067
915	0.067
915	0.067
916	0.067
916	0.067
916	0.066
917	0.066
917	0.065
918	0.065
918	0.064
918	0.064
919	0.064
919	0.064
920	0.064
920	0.064
921	0.064
921	0.064
921	0.065
922	0.065
922	0.065
923	0.065
923	0.065
924	0.064
924	0.064
924	0.063
925	0.062
925	0.061
926	0.06
926	0.06
927	0.059
927	0.058
927	0.058
928	0.057
928	0.057
929	0.058
929	0.058
930	0.059
930	0.059
930	0.06
931	0.061
931	0.062
932	0.063
932	0.064
933	0.065
933	0.065
933	0.065
934	0.064
934	0.064
935	0.063
935	0.062
935	0.061
936	0.06
936	0.059
937	0.058
937	0.057
938	0.056
938	0.055
938	0.054
939	0.054
939	0.053
940	0.052
940	0.051
941	0.05
941	0.05
941	0.05
942	0.049
942	0.049
943	0.049
943	0.048
944	0.047
944	0.046
944	0.046
945	0.046
945	0.046
946	0.045
946	0.044
946	0.043
947	0.043
947	0.043
948	0.043
948	0.044
949	0.044
949	0.046
949	0.047
950	0.048
950	0.05
951	0.051
951	0.053
952	0.053
952	0.054
952	0.055
953	0.056
953	0.056
954	0.056
954	0.056
955	0.056
955	0.055
955	0.054
956	0.054
956	0.053
957	0.052
957	0.051
957	0.05
958	0.049
958	0.048
959	0.048
959	0.047
960	0.047
960	0.047
960	0.047
961	0.047
961	0.047
962	0.048
962	0.048
963	0.048
963	0.049
963	0.049
964	0.05
964	0.05
965	0.051
965	0.051
966	0.052
966	0.052
966	0.053
967	0.054
967	0.054
968	0.054
968	0.054
968	0.054
969	0.054
969	0.054
970	0.053
970	0.053
971	0.053
971	0.052
971	0.052
972	0.053
972	0.053
973	0.053
973	0.053
974	0.053
974	0.053
974	0.054
975	0.054
975	0.053
976	0.053
976	0.052
976	0.052
977	0.051
977	0.051
978	0.05
978	0.049
979	0.049
979	0.049
979	0.049
980	0.049
980	0.049
981	0.049
981	0.049
982	0.049
982	0.049
982	0.049
983	0.05
983	0.049
984	0.049
984	0.048
984	0.048
985	0.048
985	0.047
986	0.046
986	0.046
987	0.045
987	0.044
987	0.043
988	0.042
988	0.041
989	0.04
989	0.039
990	0.038
990	0.037
990	0.036
991	0.035
991	0.034
992	0.033
992	0.032
992	0.031
993	0.031
993	0.03
994	0.029
994	0.027
995	0.026
995	0.025
995	0.024
996	0.023
996	0.021
997	0.02
997	0.019
997	0.018
998	0.018
998	0.018
999	0.018
999	0.018
1000	0.018
1000	0.019
1000	0.019
1001	0.02
1001	0.021
1002	0.022
1002	0.022
1003	0.023
1003	0.023
1003	0.023
1004	0.024
1004	0.024
1005	0.023
1005	0.023
1005	0.023
1006	0.022
1006	0.022
1007	0.021
1007	0.021
1008	0.02
1008	0.02
1008	0.02
1009	0.02
1009	0.02
1010	0.02
1010	0.021
1010	0.021
1011	0.022
1011	0.023
1012	0.024
1012	0.025
1013	0.026
1013	0.026
1013	0.027
1014	0.028
1014	0.028
1015	0.029
1015	0.029
1016	0.029
1016	0.029
1016	0.029
1017	0.028
1017	0.028
1018	0.028
1018	0.028
1018	0.027
1019	0.027
1019	0.027
1020	0.026
1020	0.025
1021	0.025
1021	0.025
1021	0.024
1022	0.024
1022	0.023
1023	0.024
1023	0.023
1023	0.023
1024	0.023
1024	0.023
1025	0.024
1025	0.024
1026	0.024
1026	0.024
1026	0.024
1027	0.025
1027	0.025
1028	0.026
1028	0.026
1028	0.027
1029	0.027
1029	0.027
1030	0.027
1030	0.027
1031	0.027
1031	0.028
1031	0.028
1032	0.028
1032	0.027
1033	0.027
1033	0.026
1033	0.026
1034	0.025
1034	0.025
1035	0.024
1035	0.024
1036	0.022
1036	0.022
1036	0.021
1037	0.021
1037	0.021
1038	0.02
1038	0.02
1039	0.02
1039	0.021
1039	0.021
1040	0.021
1040	0.021
1041	0.021
1041	0.021
1041	0.02
1042	0.019
1042	0.019
1043	0.018
1043	0.017
1044	0.017
1044	0.016
1044	0.015
1045	0.014
1045	0.014
1046	0.014
1046	0.013
1046	0.014
1047	0.014
1047	0.014
1048	0.014
1048	0.014
1049	0.015
1049	0.014
1049	0.014
1050	0.013
1050	0.013
1051	0.012
1051	0.011
1051	0.011
1052	0.01
1052	0.009
1053	0.008
1053	0.007
1053	0.007
1054	0.006
1054	0.006
1055	0.007
1055	0.007
1056	0.007
1056	0.007
1056	0.007
1057	0.007
1057	0.007
1058	0.007
1058	0.007
1058	0.007
1059	0.006
1059	0.006
1060	0.005
1060	0.005
1061	0.004
1061	0.004
1061	0.004
1062	0.004
1062	0.004
1063	0.004
1063	0.003
1063	0.004
1064	0.003
1064	0.004
1065	0.004
1065	0.003
1066	0.003
1066	0.002
1066	0.001
1067	0
1067	-0.001
1068	-0.002
1068	-0.003
1068	-0.004
1069	-0.005
1069	-0.006
1070	-0.007
1070	-0.008
1071	-0.009
1071	-0.009
1071	-0.01
1072	-0.01
1072	-0.01
1073	-0.01
1073	-0.011
1073	-0.011
1074	-0.011
1074	-0.011
1075	-0.012
1075	-0.012
1076	-0.013
1076	-0.013
1076	-0.014
1077	-0.015
1077	-0.015
1078	-0.016
1078	-0.017
1078	-0.017
1079	-0.018
1079	-0.018
1080	-0.019
1080	-0.019
1080	-0.02
1081	-0.021
1081	-0.021
1082	-0.021
1082	-0.023
1083	-0.024
1083	-0.025
1083	-0.026
1084	-0.028
1084	-0.028
1085	-0.03
1085	-0.031
1085	-0.031
1086	-0.032
1086	-0.034
1087	-0.035
1087	-0.035
1088	-0.036
1088	-0.037
1088	-0.038
1089	-0.04
1089	-0.041
1090	-0.042
1090	-0.043
1090	-0.045
1091	-0.046
1091	-0.046
1092	-0.047
1092	-0.047
1092	-0.048
1093	-0.049
1093	-0.049
1094	-0.05
1094	-0.051
1095	-0.052
1095	-0.053
1095	-0.053
1096	-0.055
1096	-0.057
1097	-0.059
1097	-0.061
1097	-0.062
1098	-0.064
1098	-0.066
1099	-0.068
1099	-0.069
1100	-0.072
1100	-0.075
1100	-0.078
1101	-0.081
1101	-0.084
1102	-0.086
1102	-0.089
1102	-0.091
1103	-0.093
1103	-0.097
1104	-0.1
1104	-0.104
1104	-0.106
1105	-0.108
1105	-0.111
1106	-0.116
1106	-0.118
1107	-0.124
1107	-0.13
1107	-0.135
1108	-0.137
1108	-0.138
1109	-0.142
1109	-0.146
1109	-0.151
1110	-0.153
1110	-0.158
1111	-0.172
1111	-0.171
