Data from 3.3A_17C_Absorbance__388__03255.txt Node

Date: Tue Jun 20 17:26:00 CEST 2023
User: Marek
Spectrometer: MAYP115816
Trigger mode: 0
Integration Time (sec): 2.200000E-1
Scans to average: 10
Electric dark correction enabled: true
Nonlinearity correction enabled: true
Boxcar width: 5
XAxis mode: Wavelengths
Number of Pixels in Spectrum: 2068
>>>>>Begin Spectral Data<<<<<
199	-0.805
199	-0.788
200	-0.754
200	-0.697
201	-0.668
201	-0.659
202	-0.645
202	-0.636
203	-0.636
203	-0.628
204	-0.606
204	-0.589
205	-0.565
205	-0.554
205	-0.563
206	-0.564
206	-0.56
207	-0.551
207	-0.558
208	-0.557
208	-0.563
209	-0.565
209	-0.574
210	-0.587
210	-0.593
211	-0.587
211	-0.591
212	-0.599
212	-0.607
213	-0.605
213	-0.601
213	-0.599
214	-0.607
214	-0.607
215	-0.603
215	-0.609
216	-0.618
216	-0.625
217	-0.622
217	-0.622
218	-0.629
218	-0.629
219	-0.637
219	-0.638
220	-0.642
220	-0.65
221	-0.651
221	-0.652
221	-0.642
222	-0.644
222	-0.643
223	-0.64
223	-0.643
224	-0.643
224	-0.641
225	-0.637
225	-0.638
226	-0.638
226	-0.637
227	-0.645
227	-0.654
228	-0.657
228	-0.665
229	-0.671
229	-0.667
229	-0.669
230	-0.666
230	-0.664
231	-0.659
231	-0.654
232	-0.657
232	-0.651
233	-0.652
233	-0.641
234	-0.641
234	-0.636
235	-0.639
235	-0.65
236	-0.657
236	-0.658
236	-0.658
237	-0.657
237	-0.657
238	-0.655
238	-0.657
239	-0.66
239	-0.671
240	-0.665
240	-0.661
241	-0.655
241	-0.659
242	-0.664
242	-0.67
243	-0.671
243	-0.676
243	-0.681
244	-0.676
244	-0.676
245	-0.679
245	-0.684
246	-0.693
246	-0.695
247	-0.703
247	-0.691
248	-0.691
248	-0.693
249	-0.699
249	-0.701
250	-0.699
250	-0.707
250	-0.703
251	-0.703
251	-0.7
252	-0.702
252	-0.714
253	-0.708
253	-0.719
254	-0.723
254	-0.724
255	-0.736
255	-0.734
256	-0.737
256	-0.75
257	-0.759
257	-0.756
258	-0.757
258	-0.765
258	-0.763
259	-0.757
259	-0.776
260	-0.774
260	-0.763
261	-0.774
261	-0.76
262	-0.766
262	-0.764
263	-0.755
263	-0.76
264	-0.769
264	-0.768
265	-0.759
265	-0.762
265	-0.772
266	-0.763
266	-0.762
267	-0.761
267	-0.779
268	-0.787
268	-0.781
269	-0.771
269	-0.787
270	-0.79
270	-0.79
271	-0.803
271	-0.814
272	-0.818
272	-0.822
272	-0.815
273	-0.824
273	-0.838
274	-0.831
274	-0.825
275	-0.824
275	-0.811
276	-0.815
276	-0.82
277	-0.82
277	-0.817
278	-0.823
278	-0.823
278	-0.81
279	-0.819
279	-0.835
280	-0.835
280	-0.846
281	-0.839
281	-0.833
282	-0.839
282	-0.831
283	-0.823
283	-0.838
284	-0.852
284	-0.864
285	-0.842
285	-0.848
285	-0.839
286	-0.845
286	-0.859
287	-0.856
287	-0.856
288	-0.856
288	-0.838
289	-0.837
289	-0.844
290	-0.853
290	-0.842
291	-0.846
291	-0.844
292	-0.824
292	-0.822
292	-0.826
293	-0.814
293	-0.81
294	-0.81
294	-0.797
295	-0.78
295	-0.791
296	-0.803
296	-0.797
297	-0.785
297	-0.789
298	-0.785
298	-0.802
298	-0.803
299	-0.783
299	-0.774
300	-0.771
300	-0.751
301	-0.733
301	-0.733
302	-0.745
302	-0.733
303	-0.725
303	-0.714
304	-0.699
304	-0.702
305	-0.694
305	-0.704
305	-0.719
306	-0.703
306	-0.704
307	-0.694
307	-0.703
308	-0.705
308	-0.7
309	-0.703
309	-0.697
310	-0.697
310	-0.692
311	-0.679
311	-0.698
311	-0.686
312	-0.684
312	-0.673
313	-0.665
313	-0.667
314	-0.671
314	-0.671
315	-0.667
315	-0.659
316	-0.654
316	-0.643
317	-0.635
317	-0.63
318	-0.622
318	-0.62
318	-0.606
319	-0.595
319	-0.586
320	-0.583
320	-0.582
321	-0.576
321	-0.576
322	-0.572
322	-0.564
323	-0.565
323	-0.554
324	-0.555
324	-0.543
324	-0.532
325	-0.519
325	-0.498
326	-0.49
326	-0.466
327	-0.45
327	-0.429
328	-0.397
328	-0.373
329	-0.343
329	-0.315
330	-0.287
330	-0.249
330	-0.214
331	-0.176
331	-0.14
332	-0.104
332	-0.07
333	-0.038
333	-0.002
334	0.028
334	0.056
335	0.084
335	0.107
336	0.131
336	0.154
336	0.173
337	0.192
337	0.21
338	0.225
338	0.236
339	0.251
339	0.264
340	0.273
340	0.282
341	0.29
341	0.296
342	0.304
342	0.311
342	0.316
343	0.321
343	0.326
344	0.33
344	0.333
345	0.337
345	0.339
346	0.341
346	0.344
347	0.345
347	0.347
348	0.348
348	0.351
348	0.352
349	0.352
349	0.353
350	0.354
350	0.355
351	0.355
351	0.356
352	0.356
352	0.356
353	0.357
353	0.357
354	0.357
354	0.357
354	0.357
355	0.356
355	0.356
356	0.357
356	0.357
357	0.358
357	0.358
358	0.357
358	0.358
359	0.358
359	0.358
360	0.358
360	0.359
360	0.359
361	0.359
361	0.358
362	0.357
362	0.357
363	0.358
363	0.358
364	0.358
364	0.357
365	0.357
365	0.357
366	0.357
366	0.357
366	0.357
367	0.357
367	0.357
368	0.356
368	0.356
369	0.355
369	0.355
370	0.355
370	0.355
371	0.354
371	0.354
372	0.354
372	0.354
372	0.353
373	0.353
373	0.353
374	0.353
374	0.352
375	0.352
375	0.352
376	0.352
376	0.351
377	0.351
377	0.351
378	0.35
378	0.35
378	0.35
379	0.35
379	0.349
380	0.349
380	0.349
381	0.349
381	0.349
382	0.348
382	0.348
383	0.348
383	0.348
383	0.347
384	0.347
384	0.346
385	0.346
385	0.345
386	0.345
386	0.345
387	0.345
387	0.344
388	0.344
388	0.344
389	0.344
389	0.344
389	0.343
390	0.344
390	0.343
391	0.343
391	0.343
392	0.342
392	0.342
393	0.341
393	0.341
394	0.341
394	0.34
394	0.34
395	0.339
395	0.339
396	0.338
396	0.338
397	0.338
397	0.337
398	0.337
398	0.336
399	0.336
399	0.335
400	0.335
400	0.335
400	0.334
401	0.334
401	0.334
402	0.333
402	0.333
403	0.333
403	0.333
404	0.333
404	0.333
405	0.333
405	0.332
405	0.332
406	0.332
406	0.332
407	0.332
407	0.331
408	0.331
408	0.331
409	0.331
409	0.33
410	0.33
410	0.33
411	0.33
411	0.33
411	0.329
412	0.329
412	0.328
413	0.328
413	0.328
414	0.328
414	0.328
415	0.327
415	0.327
416	0.326
416	0.326
416	0.326
417	0.326
417	0.325
418	0.325
418	0.325
419	0.325
419	0.325
420	0.325
420	0.325
421	0.324
421	0.324
421	0.324
422	0.324
422	0.324
423	0.324
423	0.324
424	0.324
424	0.324
425	0.323
425	0.323
426	0.323
426	0.323
427	0.323
427	0.323
427	0.322
428	0.323
428	0.322
429	0.322
429	0.322
430	0.321
430	0.321
431	0.321
431	0.321
432	0.32
432	0.32
432	0.319
433	0.319
433	0.319
434	0.319
434	0.319
435	0.32
435	0.32
436	0.32
436	0.32
437	0.319
437	0.32
437	0.32
438	0.32
438	0.32
439	0.32
439	0.319
440	0.319
440	0.319
441	0.319
441	0.318
442	0.318
442	0.318
442	0.318
443	0.318
443	0.317
444	0.317
444	0.317
445	0.318
445	0.318
446	0.318
446	0.318
447	0.318
447	0.318
447	0.318
448	0.318
448	0.318
449	0.318
449	0.318
450	0.318
450	0.318
451	0.318
451	0.318
452	0.318
452	0.318
452	0.318
453	0.318
453	0.318
454	0.318
454	0.318
455	0.319
455	0.319
456	0.319
456	0.319
457	0.319
457	0.319
458	0.319
458	0.319
458	0.319
459	0.319
459	0.319
460	0.318
460	0.318
461	0.319
461	0.319
462	0.32
462	0.321
463	0.321
463	0.322
463	0.322
464	0.323
464	0.323
465	0.324
465	0.324
466	0.325
466	0.325
467	0.325
467	0.325
467	0.325
468	0.325
468	0.325
469	0.326
469	0.326
470	0.327
470	0.327
471	0.328
471	0.328
472	0.328
472	0.329
472	0.33
473	0.331
473	0.332
474	0.332
474	0.333
475	0.334
475	0.335
476	0.336
476	0.337
477	0.338
477	0.339
477	0.339
478	0.34
478	0.341
479	0.342
479	0.343
480	0.343
480	0.344
481	0.345
481	0.346
482	0.347
482	0.348
482	0.349
483	0.351
483	0.353
484	0.354
484	0.355
485	0.357
485	0.358
486	0.359
486	0.361
487	0.362
487	0.364
487	0.365
488	0.366
488	0.367
489	0.369
489	0.371
490	0.373
490	0.374
491	0.377
491	0.378
492	0.38
492	0.381
492	0.383
493	0.384
493	0.386
494	0.389
494	0.391
495	0.392
495	0.394
496	0.396
496	0.399
496	0.401
497	0.404
497	0.406
498	0.408
498	0.411
499	0.413
499	0.416
500	0.419
500	0.423
501	0.425
501	0.428
501	0.43
502	0.432
502	0.434
503	0.437
503	0.44
504	0.442
504	0.444
505	0.447
505	0.45
506	0.453
506	0.456
506	0.46
507	0.463
507	0.466
508	0.47
508	0.473
509	0.476
509	0.479
510	0.482
510	0.485
511	0.488
511	0.49
511	0.493
512	0.495
512	0.498
513	0.5
513	0.502
514	0.505
514	0.508
515	0.51
515	0.512
515	0.514
516	0.516
516	0.519
517	0.521
517	0.523
518	0.524
518	0.526
519	0.527
519	0.528
520	0.53
520	0.532
520	0.534
521	0.535
521	0.537
522	0.538
522	0.54
523	0.542
523	0.544
524	0.545
524	0.546
524	0.548
525	0.549
525	0.549
526	0.55
526	0.551
527	0.552
527	0.552
528	0.552
528	0.552
529	0.552
529	0.552
529	0.551
530	0.552
530	0.551
531	0.551
531	0.551
532	0.55
532	0.55
533	0.549
533	0.549
533	0.548
534	0.547
534	0.546
535	0.545
535	0.545
536	0.544
536	0.542
537	0.541
537	0.539
538	0.538
538	0.536
538	0.534
539	0.533
539	0.531
540	0.529
540	0.526
541	0.524
541	0.522
542	0.52
542	0.517
542	0.515
543	0.512
543	0.51
544	0.507
544	0.505
545	0.503
545	0.5
546	0.498
546	0.495
547	0.491
547	0.488
547	0.486
548	0.484
548	0.481
549	0.478
549	0.476
550	0.473
550	0.469
551	0.466
551	0.463
551	0.46
552	0.457
552	0.454
553	0.452
553	0.449
554	0.446
554	0.443
555	0.439
555	0.437
556	0.433
556	0.43
556	0.428
557	0.425
557	0.422
558	0.419
558	0.416
559	0.413
559	0.411
560	0.408
560	0.405
560	0.402
561	0.4
561	0.398
562	0.396
562	0.393
563	0.391
563	0.388
564	0.386
564	0.384
564	0.382
565	0.38
565	0.378
566	0.375
566	0.373
567	0.372
567	0.37
568	0.368
568	0.365
568	0.363
569	0.361
569	0.358
570	0.355
570	0.352
571	0.35
571	0.347
572	0.344
572	0.341
573	0.339
573	0.336
573	0.333
574	0.331
574	0.33
575	0.328
575	0.328
576	0.327
576	0.324
577	0.321
577	0.32
577	0.319
578	0.317
578	0.317
579	0.316
579	0.315
580	0.312
580	0.308
581	0.305
581	0.303
581	0.302
582	0.301
582	0.3
583	0.299
583	0.297
584	0.293
584	0.29
585	0.289
585	0.289
585	0.288
586	0.286
586	0.285
587	0.282
587	0.28
588	0.278
588	0.276
589	0.275
589	0.274
590	0.273
590	0.271
590	0.271
591	0.27
591	0.268
592	0.266
592	0.264
593	0.263
593	0.262
594	0.26
594	0.258
594	0.257
595	0.256
595	0.253
596	0.251
596	0.252
597	0.252
597	0.251
598	0.25
598	0.249
598	0.248
599	0.247
599	0.246
600	0.244
600	0.243
601	0.243
601	0.242
602	0.24
602	0.239
602	0.237
603	0.236
603	0.236
604	0.235
604	0.235
605	0.235
605	0.234
606	0.233
606	0.231
606	0.23
607	0.228
607	0.228
608	0.226
608	0.224
609	0.223
609	0.222
610	0.221
610	0.219
610	0.218
611	0.218
611	0.217
612	0.217
612	0.216
613	0.216
613	0.215
614	0.213
614	0.211
614	0.21
615	0.208
615	0.207
616	0.206
616	0.204
617	0.203
617	0.201
618	0.2
618	0.198
618	0.197
619	0.196
619	0.196
620	0.197
620	0.195
621	0.194
621	0.193
622	0.191
622	0.19
622	0.188
623	0.187
623	0.186
624	0.186
624	0.184
625	0.183
625	0.182
626	0.18
626	0.179
626	0.179
627	0.178
627	0.177
628	0.176
628	0.175
629	0.173
629	0.172
630	0.169
630	0.167
630	0.166
631	0.165
631	0.162
632	0.16
632	0.158
633	0.156
633	0.153
634	0.152
634	0.15
634	0.148
635	0.145
635	0.143
636	0.141
636	0.138
637	0.135
637	0.132
638	0.129
638	0.126
638	0.122
639	0.118
639	0.113
640	0.109
640	0.105
641	0.101
641	0.097
642	0.092
642	0.088
642	0.084
643	0.079
643	0.074
644	0.068
644	0.063
645	0.058
645	0.053
646	0.047
646	0.041
646	0.035
647	0.028
647	0.022
648	0.015
648	0.008
649	0
649	-0.006
650	-0.013
650	-0.021
650	-0.028
651	-0.038
651	-0.049
652	-0.062
652	-0.076
653	-0.088
653	-0.099
653	-0.094
654	-0.074
654	-0.068
655	-0.073
655	-0.078
656	-0.083
656	-0.088
657	-0.093
657	-0.096
657	-0.103
658	-0.109
658	-0.14
659	-0.223
659	-0.309
660	-0.346
660	-0.371
661	-0.397
661	-0.426
661	-0.455
662	-0.483
662	-0.511
663	-0.544
663	-0.579
664	-0.614
664	-0.654
665	-0.699
665	-0.743
665	-0.786
666	-0.835
666	-0.888
667	-0.941
667	-1.001
668	-1.059
668	-1.126
669	-1.195
669	-1.269
669	-1.35
670	-1.444
670	-1.63
671	-1.938
671	-2.228
672	-2.414
672	-2.55
672	-2.654
673	-2.74
673	-2.813
674	-2.848
674	-2.86
675	-2.874
675	-2.872
676	-2.847
676	-2.78
676	-2.703
677	-2.607
677	-2.486
678	-2.296
678	-1.925
679	-1.631
679	-1.5
680	-1.41
680	-1.341
680	-1.281
681	-1.24
681	-1.193
682	-1.156
682	-1.116
683	-1.078
683	-1.058
684	-1.031
684	-1.015
684	-0.993
685	-0.976
685	-0.969
686	-0.947
686	-0.935
687	-0.927
687	-0.917
687	-0.919
688	-0.905
688	-0.901
689	-0.905
689	-0.904
690	-0.892
690	-0.882
691	-0.88
691	-0.882
691	-0.882
692	-0.884
692	-0.88
693	-0.888
693	-0.898
694	-0.878
694	-0.878
695	-0.88
695	-0.874
695	-0.883
696	-0.89
696	-0.883
697	-0.877
697	-0.873
698	-0.87
698	-0.863
698	-0.878
699	-0.876
699	-0.877
700	-0.899
700	-0.893
701	-0.881
701	-0.877
702	-0.879
702	-0.876
702	-0.875
703	-0.865
703	-0.853
704	-0.862
704	-0.867
705	-0.854
705	-0.855
705	-0.848
706	-0.84
706	-0.836
707	-0.849
707	-0.852
708	-0.85
708	-0.848
709	-0.848
709	-0.846
709	-0.842
710	-0.848
710	-0.853
711	-0.852
711	-0.853
712	-0.845
712	-0.843
713	-0.848
713	-0.849
713	-0.83
714	-0.831
714	-0.835
715	-0.826
715	-0.833
716	-0.85
716	-0.859
716	-0.859
717	-0.866
717	-0.858
718	-0.851
718	-0.851
719	-0.846
719	-0.838
720	-0.834
720	-0.83
720	-0.825
721	-0.816
721	-0.82
722	-0.816
722	-0.812
723	-0.829
723	-0.842
723	-0.85
724	-0.849
724	-0.854
725	-0.848
725	-0.85
726	-0.852
726	-0.844
727	-0.846
727	-0.853
727	-0.844
728	-0.832
728	-0.829
729	-0.831
729	-0.834
730	-0.839
730	-0.83
730	-0.837
731	-0.84
731	-0.84
732	-0.844
732	-0.839
733	-0.853
733	-0.859
734	-0.867
734	-0.858
734	-0.841
735	-0.833
735	-0.826
736	-0.824
736	-0.819
737	-0.819
737	-0.81
737	-0.801
738	-0.787
738	-0.776
739	-0.778
739	-0.779
740	-0.792
740	-0.793
741	-0.805
741	-0.815
741	-0.824
742	-0.831
742	-0.848
743	-0.854
743	-0.856
744	-0.86
744	-0.868
744	-0.863
745	-0.87
745	-0.859
746	-0.852
746	-0.844
747	-0.845
747	-0.835
748	-0.838
748	-0.843
748	-0.844
749	-0.837
749	-0.843
750	-0.835
750	-0.835
751	-0.835
751	-0.831
751	-0.844
752	-0.848
752	-0.851
753	-0.854
753	-0.844
754	-0.864
754	-0.865
754	-0.87
755	-0.87
755	-0.863
756	-0.864
756	-0.85
757	-0.841
757	-0.829
758	-0.829
758	-0.831
758	-0.825
759	-0.831
759	-0.831
760	-0.83
760	-0.834
761	-0.829
761	-0.834
761	-0.835
762	-0.84
762	-0.842
763	-0.841
763	-0.846
764	-0.844
764	-0.84
764	-0.847
765	-0.845
765	-0.852
766	-0.854
766	-0.855
767	-0.872
767	-0.867
768	-0.865
768	-0.858
768	-0.853
769	-0.857
769	-0.864
770	-0.873
770	-0.878
771	-0.875
771	-0.874
771	-0.878
772	-0.882
772	-0.903
773	-0.905
773	-0.906
774	-0.902
774	-0.885
775	-0.873
775	-0.871
775	-0.874
776	-0.883
776	-0.88
777	-0.879
777	-0.861
778	-0.869
778	-0.878
778	-0.878
779	-0.887
779	-0.902
780	-0.899
780	-0.907
781	-0.896
781	-0.885
781	-0.901
782	-0.922
782	-0.924
783	-0.923
783	-0.932
784	-0.935
784	-0.928
784	-0.948
785	-0.941
785	-0.954
786	-0.959
786	-0.952
787	-0.942
787	-0.949
788	-0.942
788	-0.936
788	-0.938
789	-0.939
789	-0.929
790	-0.929
790	-0.914
791	-0.92
791	-0.916
791	-0.908
792	-0.903
792	-0.907
793	-0.91
793	-0.897
794	-0.89
794	-0.881
794	-0.888
795	-0.908
795	-0.892
796	-0.899
796	-0.895
797	-0.888
797	-0.877
797	-0.87
798	-0.889
798	-0.895
799	-0.895
799	-0.88
800	-0.875
800	-0.885
801	-0.881
801	-0.884
801	-0.881
802	-0.881
802	-0.879
803	-0.875
803	-0.866
804	-0.871
804	-0.879
804	-0.863
805	-0.846
805	-0.838
806	-0.838
806	-0.835
807	-0.837
807	-0.838
807	-0.82
808	-0.817
808	-0.811
809	-0.806
809	-0.806
810	-0.808
810	-0.806
810	-0.803
811	-0.806
811	-0.796
812	-0.79
812	-0.791
813	-0.795
813	-0.795
813	-0.79
814	-0.792
814	-0.794
815	-0.785
815	-0.78
816	-0.777
816	-0.795
817	-0.807
817	-0.811
817	-0.822
818	-0.815
818	-0.813
819	-0.823
819	-0.821
820	-0.832
820	-0.832
820	-0.831
821	-0.823
821	-0.82
822	-0.819
822	-0.805
823	-0.817
823	-0.816
823	-0.812
824	-0.812
824	-0.821
825	-0.821
825	-0.818
826	-0.815
826	-0.81
826	-0.809
827	-0.809
827	-0.799
828	-0.798
828	-0.793
829	-0.785
829	-0.771
829	-0.767
830	-0.764
830	-0.75
831	-0.744
831	-0.734
832	-0.726
832	-0.72
832	-0.713
833	-0.711
833	-0.716
834	-0.711
834	-0.706
835	-0.7
835	-0.699
835	-0.695
836	-0.69
836	-0.687
837	-0.679
837	-0.67
838	-0.657
838	-0.639
839	-0.634
839	-0.622
839	-0.611
840	-0.609
840	-0.599
841	-0.589
841	-0.581
842	-0.571
842	-0.558
842	-0.555
843	-0.553
843	-0.549
844	-0.547
844	-0.535
845	-0.521
845	-0.511
845	-0.498
846	-0.485
846	-0.476
847	-0.466
847	-0.452
848	-0.437
848	-0.42
848	-0.404
849	-0.393
849	-0.379
850	-0.37
850	-0.36
851	-0.348
851	-0.331
851	-0.321
852	-0.306
852	-0.294
853	-0.286
853	-0.276
854	-0.264
854	-0.253
854	-0.239
855	-0.228
855	-0.222
856	-0.214
856	-0.205
857	-0.197
857	-0.189
857	-0.175
858	-0.164
858	-0.156
859	-0.145
859	-0.134
860	-0.124
860	-0.109
860	-0.099
861	-0.088
861	-0.079
862	-0.07
862	-0.062
863	-0.054
863	-0.045
863	-0.039
864	-0.034
864	-0.026
865	-0.019
865	-0.013
866	-0.008
866	-0.002
866	0.004
867	0.009
867	0.015
868	0.02
868	0.025
869	0.03
869	0.033
869	0.035
870	0.037
870	0.04
871	0.042
871	0.044
872	0.044
872	0.045
872	0.046
873	0.046
873	0.046
874	0.045
874	0.045
875	0.044
875	0.044
875	0.044
876	0.044
876	0.043
877	0.043
877	0.042
878	0.041
878	0.041
878	0.041
879	0.04
879	0.04
880	0.039
880	0.038
881	0.036
881	0.035
881	0.034
882	0.032
882	0.031
883	0.03
883	0.028
884	0.028
884	0.028
884	0.027
885	0.027
885	0.027
886	0.027
886	0.027
887	0.026
887	0.026
887	0.026
888	0.026
888	0.025
889	0.024
889	0.023
890	0.022
890	0.021
890	0.021
891	0.02
891	0.02
892	0.02
892	0.02
893	0.021
893	0.021
893	0.021
894	0.022
894	0.023
895	0.023
895	0.023
895	0.023
896	0.023
896	0.023
897	0.024
897	0.024
898	0.024
898	0.024
898	0.024
899	0.024
899	0.025
900	0.025
900	0.025
901	0.024
901	0.024
901	0.023
902	0.023
902	0.023
903	0.023
903	0.022
904	0.021
904	0.021
904	0.021
905	0.021
905	0.021
906	0.022
906	0.023
907	0.023
907	0.024
907	0.024
908	0.025
908	0.026
909	0.027
909	0.027
910	0.028
910	0.028
910	0.029
911	0.029
911	0.03
912	0.03
912	0.031
913	0.031
913	0.032
913	0.032
914	0.033
914	0.033
915	0.033
915	0.033
916	0.033
916	0.032
916	0.032
917	0.031
917	0.03
918	0.03
918	0.029
918	0.028
919	0.027
919	0.027
920	0.027
920	0.027
921	0.027
921	0.028
921	0.028
922	0.028
922	0.028
923	0.028
923	0.028
924	0.028
924	0.027
924	0.026
925	0.025
925	0.024
926	0.023
926	0.021
927	0.02
927	0.019
927	0.018
928	0.018
928	0.017
929	0.018
929	0.018
930	0.019
930	0.019
930	0.02
931	0.021
931	0.022
932	0.024
932	0.025
933	0.026
933	0.026
933	0.026
934	0.026
934	0.026
935	0.025
935	0.024
935	0.023
936	0.022
936	0.021
937	0.02
937	0.019
938	0.018
938	0.017
938	0.016
939	0.016
939	0.015
940	0.015
940	0.014
941	0.013
941	0.013
941	0.013
942	0.012
942	0.012
943	0.013
943	0.012
944	0.012
944	0.011
944	0.011
945	0.011
945	0.011
946	0.01
946	0.009
946	0.008
947	0.008
947	0.008
948	0.009
948	0.009
949	0.01
949	0.011
949	0.013
950	0.014
950	0.016
951	0.017
951	0.018
952	0.019
952	0.02
952	0.021
953	0.021
953	0.022
954	0.022
954	0.021
955	0.021
955	0.021
955	0.021
956	0.021
956	0.02
957	0.019
957	0.019
957	0.018
958	0.017
958	0.017
959	0.016
959	0.015
960	0.015
960	0.014
960	0.015
961	0.015
961	0.015
962	0.016
962	0.016
963	0.017
963	0.017
963	0.018
964	0.018
964	0.019
965	0.02
965	0.02
966	0.021
966	0.021
966	0.022
967	0.023
967	0.023
968	0.023
968	0.023
968	0.023
969	0.023
969	0.023
970	0.022
970	0.021
971	0.021
971	0.021
971	0.02
972	0.021
972	0.021
973	0.021
973	0.02
974	0.02
974	0.021
974	0.021
975	0.021
975	0.021
976	0.02
976	0.02
976	0.019
977	0.019
977	0.018
978	0.017
978	0.016
979	0.016
979	0.015
979	0.014
980	0.014
980	0.013
981	0.013
981	0.013
982	0.013
982	0.013
982	0.013
983	0.013
983	0.013
984	0.013
984	0.013
984	0.013
985	0.013
985	0.012
986	0.012
986	0.011
987	0.01
987	0.01
987	0.009
988	0.009
988	0.008
989	0.008
989	0.007
990	0.006
990	0.006
990	0.005
991	0.004
991	0.004
992	0.003
992	0.002
992	0.001
993	0
993	-0.001
994	-0.002
994	-0.003
995	-0.005
995	-0.006
995	-0.007
996	-0.008
996	-0.009
997	-0.01
997	-0.011
997	-0.011
998	-0.012
998	-0.011
999	-0.011
999	-0.011
1000	-0.01
1000	-0.01
1000	-0.009
1001	-0.008
1001	-0.007
1002	-0.007
1002	-0.006
1003	-0.006
1003	-0.005
1003	-0.005
1004	-0.005
1004	-0.005
1005	-0.005
1005	-0.005
1005	-0.006
1006	-0.006
1006	-0.007
1007	-0.008
1007	-0.009
1008	-0.01
1008	-0.011
1008	-0.011
1009	-0.011
1009	-0.011
1010	-0.011
1010	-0.011
1010	-0.01
1011	-0.01
1011	-0.009
1012	-0.008
1012	-0.007
1013	-0.005
1013	-0.005
1013	-0.004
1014	-0.003
1014	-0.002
1015	-0.002
1015	-0.001
1016	-0.001
1016	-0.001
1016	-0.001
1017	-0.001
1017	-0.001
1018	-0.001
1018	-0.001
1018	-0.001
1019	-0.002
1019	-0.002
1020	-0.002
1020	-0.003
1021	-0.003
1021	-0.003
1021	-0.004
1022	-0.004
1022	-0.004
1023	-0.004
1023	-0.004
1023	-0.005
1024	-0.004
1024	-0.005
1025	-0.005
1025	-0.005
1026	-0.005
1026	-0.004
1026	-0.005
1027	-0.005
1027	-0.005
1028	-0.004
1028	-0.004
1028	-0.004
1029	-0.004
1029	-0.004
1030	-0.004
1030	-0.004
1031	-0.004
1031	-0.003
1031	-0.003
1032	-0.003
1032	-0.003
1033	-0.004
1033	-0.004
1033	-0.004
1034	-0.005
1034	-0.006
1035	-0.006
1035	-0.007
1036	-0.008
1036	-0.009
1036	-0.009
1037	-0.01
1037	-0.01
1038	-0.011
1038	-0.011
1039	-0.011
1039	-0.01
1039	-0.01
1040	-0.01
1040	-0.009
1041	-0.01
1041	-0.01
1041	-0.01
1042	-0.01
1042	-0.011
1043	-0.011
1043	-0.012
1044	-0.012
1044	-0.013
1044	-0.013
1045	-0.014
1045	-0.014
1046	-0.015
1046	-0.015
1046	-0.015
1047	-0.016
1047	-0.016
1048	-0.015
1048	-0.015
1049	-0.016
1049	-0.017
1049	-0.017
1050	-0.018
1050	-0.019
1051	-0.02
1051	-0.021
1051	-0.021
1052	-0.022
1052	-0.023
1053	-0.024
1053	-0.024
1053	-0.024
1054	-0.025
1054	-0.025
1055	-0.025
1055	-0.024
1056	-0.024
1056	-0.024
1056	-0.024
1057	-0.024
1057	-0.024
1058	-0.024
1058	-0.025
1058	-0.024
1059	-0.025
1059	-0.025
1060	-0.025
1060	-0.026
1061	-0.026
1061	-0.026
1061	-0.026
1062	-0.026
1062	-0.026
1063	-0.026
1063	-0.027
1063	-0.027
1064	-0.027
1064	-0.026
1065	-0.026
1065	-0.027
1066	-0.027
1066	-0.028
1066	-0.028
1067	-0.029
1067	-0.029
1068	-0.03
1068	-0.031
1068	-0.032
1069	-0.033
1069	-0.034
1070	-0.035
1070	-0.035
1071	-0.036
1071	-0.036
1071	-0.037
1072	-0.037
1072	-0.037
1073	-0.037
1073	-0.037
1073	-0.037
1074	-0.037
1074	-0.037
1075	-0.037
1075	-0.038
1076	-0.039
1076	-0.038
1076	-0.039
1077	-0.04
1077	-0.041
1078	-0.041
1078	-0.042
1078	-0.043
1079	-0.043
1079	-0.044
1080	-0.045
1080	-0.046
1080	-0.047
1081	-0.048
1081	-0.049
1082	-0.05
1082	-0.051
1083	-0.053
1083	-0.054
1083	-0.055
1084	-0.057
1084	-0.057
1085	-0.059
1085	-0.059
1085	-0.06
1086	-0.061
1086	-0.063
1087	-0.063
1087	-0.064
1088	-0.065
1088	-0.066
1088	-0.066
1089	-0.067
1089	-0.068
1090	-0.069
1090	-0.069
1090	-0.07
1091	-0.071
1091	-0.071
1092	-0.071
1092	-0.071
1092	-0.072
1093	-0.073
1093	-0.072
1094	-0.072
1094	-0.073
1095	-0.074
1095	-0.075
1095	-0.075
1096	-0.077
1096	-0.079
1097	-0.08
1097	-0.082
1097	-0.084
1098	-0.087
1098	-0.09
1099	-0.091
1099	-0.092
1100	-0.095
1100	-0.098
1100	-0.1
1101	-0.103
1101	-0.106
1102	-0.108
1102	-0.111
1102	-0.112
1103	-0.115
1103	-0.118
1104	-0.122
1104	-0.125
1104	-0.126
1105	-0.128
1105	-0.13
1106	-0.136
1106	-0.137
1107	-0.142
1107	-0.148
1107	-0.152
1108	-0.154
1108	-0.156
1109	-0.159
1109	-0.164
1109	-0.169
1110	-0.173
1110	-0.175
1111	-0.189
1111	-0.186
