Data from 3.3A_17C_Absorbance__839__03706.txt Node

Date: Tue Jun 20 17:42:32 CEST 2023
User: Marek
Spectrometer: MAYP115816
Trigger mode: 0
Integration Time (sec): 2.200000E-1
Scans to average: 10
Electric dark correction enabled: true
Nonlinearity correction enabled: true
Boxcar width: 5
XAxis mode: Wavelengths
Number of Pixels in Spectrum: 2068
>>>>>Begin Spectral Data<<<<<
199	-0.789
199	-0.78
200	-0.744
200	-0.687
201	-0.66
201	-0.653
202	-0.639
202	-0.633
203	-0.632
203	-0.625
204	-0.605
204	-0.589
205	-0.565
205	-0.556
205	-0.566
206	-0.566
206	-0.562
207	-0.554
207	-0.559
208	-0.562
208	-0.569
209	-0.569
209	-0.574
210	-0.586
210	-0.593
211	-0.587
211	-0.594
212	-0.602
212	-0.61
213	-0.607
213	-0.6
213	-0.597
214	-0.607
214	-0.61
215	-0.608
215	-0.612
216	-0.622
216	-0.627
217	-0.625
217	-0.626
218	-0.633
218	-0.636
219	-0.643
219	-0.644
220	-0.647
220	-0.653
221	-0.653
221	-0.653
221	-0.644
222	-0.644
222	-0.641
223	-0.638
223	-0.638
224	-0.637
224	-0.635
225	-0.633
225	-0.634
226	-0.634
226	-0.633
227	-0.641
227	-0.651
228	-0.656
228	-0.665
229	-0.669
229	-0.668
229	-0.67
230	-0.665
230	-0.664
231	-0.659
231	-0.654
232	-0.657
232	-0.65
233	-0.649
233	-0.636
234	-0.638
234	-0.632
235	-0.635
235	-0.646
236	-0.653
236	-0.655
236	-0.656
237	-0.653
237	-0.654
238	-0.654
238	-0.657
239	-0.657
239	-0.669
240	-0.663
240	-0.659
241	-0.655
241	-0.658
242	-0.662
242	-0.67
243	-0.67
243	-0.672
243	-0.677
244	-0.674
244	-0.673
245	-0.675
245	-0.679
246	-0.688
246	-0.691
247	-0.699
247	-0.686
248	-0.684
248	-0.687
249	-0.692
249	-0.693
250	-0.693
250	-0.7
250	-0.699
251	-0.701
251	-0.699
252	-0.7
252	-0.712
253	-0.709
253	-0.722
254	-0.727
254	-0.728
255	-0.738
255	-0.737
256	-0.737
256	-0.75
257	-0.759
257	-0.755
258	-0.757
258	-0.764
258	-0.762
259	-0.754
259	-0.772
260	-0.772
260	-0.762
261	-0.774
261	-0.759
262	-0.763
262	-0.763
263	-0.754
263	-0.759
264	-0.768
264	-0.77
265	-0.76
265	-0.764
265	-0.773
266	-0.764
266	-0.762
267	-0.763
267	-0.779
268	-0.789
268	-0.782
269	-0.775
269	-0.79
270	-0.796
270	-0.794
271	-0.808
271	-0.817
272	-0.819
272	-0.823
272	-0.816
273	-0.823
273	-0.839
274	-0.831
274	-0.825
275	-0.821
275	-0.807
276	-0.811
276	-0.819
277	-0.821
277	-0.818
278	-0.822
278	-0.822
278	-0.81
279	-0.818
279	-0.831
280	-0.834
280	-0.848
281	-0.842
281	-0.836
282	-0.842
282	-0.837
283	-0.829
283	-0.843
284	-0.857
284	-0.866
285	-0.847
285	-0.853
285	-0.844
286	-0.848
286	-0.863
287	-0.858
287	-0.857
288	-0.858
288	-0.84
289	-0.839
289	-0.85
290	-0.857
290	-0.846
291	-0.849
291	-0.845
292	-0.826
292	-0.825
292	-0.828
293	-0.816
293	-0.812
294	-0.809
294	-0.794
295	-0.776
295	-0.787
296	-0.8
296	-0.797
297	-0.786
297	-0.79
298	-0.787
298	-0.802
298	-0.806
299	-0.788
299	-0.782
300	-0.778
300	-0.76
301	-0.741
301	-0.742
302	-0.751
302	-0.737
303	-0.73
303	-0.719
304	-0.703
304	-0.706
305	-0.698
305	-0.706
305	-0.721
306	-0.705
306	-0.705
307	-0.697
307	-0.709
308	-0.711
308	-0.708
309	-0.71
309	-0.707
310	-0.705
310	-0.7
311	-0.685
311	-0.706
311	-0.694
312	-0.691
312	-0.68
313	-0.671
313	-0.672
314	-0.677
314	-0.674
315	-0.67
315	-0.665
316	-0.659
316	-0.647
317	-0.638
317	-0.636
318	-0.627
318	-0.625
318	-0.615
319	-0.605
319	-0.598
320	-0.596
320	-0.593
321	-0.588
321	-0.588
322	-0.582
322	-0.575
323	-0.575
323	-0.565
324	-0.562
324	-0.55
324	-0.539
325	-0.524
325	-0.508
326	-0.499
326	-0.474
327	-0.459
327	-0.438
328	-0.409
328	-0.385
329	-0.358
329	-0.332
330	-0.305
330	-0.271
330	-0.235
331	-0.199
331	-0.166
332	-0.133
332	-0.101
333	-0.071
333	-0.039
334	-0.011
334	0.014
335	0.04
335	0.06
336	0.081
336	0.1
336	0.116
337	0.133
337	0.148
338	0.161
338	0.171
339	0.183
339	0.194
340	0.202
340	0.21
341	0.217
341	0.223
342	0.229
342	0.235
342	0.239
343	0.243
343	0.248
344	0.25
344	0.253
345	0.256
345	0.258
346	0.26
346	0.261
347	0.263
347	0.264
348	0.265
348	0.267
348	0.268
349	0.268
349	0.27
350	0.27
350	0.271
351	0.271
351	0.272
352	0.271
352	0.272
353	0.272
353	0.272
354	0.272
354	0.272
354	0.272
355	0.273
355	0.272
356	0.272
356	0.273
357	0.274
357	0.274
358	0.274
358	0.274
359	0.274
359	0.274
360	0.274
360	0.274
360	0.274
361	0.274
361	0.274
362	0.273
362	0.273
363	0.273
363	0.273
364	0.273
364	0.273
365	0.273
365	0.273
366	0.273
366	0.273
366	0.273
367	0.273
367	0.273
368	0.272
368	0.272
369	0.272
369	0.272
370	0.272
370	0.271
371	0.271
371	0.271
372	0.271
372	0.271
372	0.271
373	0.271
373	0.27
374	0.271
374	0.271
375	0.271
375	0.27
376	0.27
376	0.27
377	0.27
377	0.27
378	0.269
378	0.269
378	0.269
379	0.269
379	0.268
380	0.268
380	0.268
381	0.268
381	0.268
382	0.268
382	0.268
383	0.268
383	0.267
383	0.267
384	0.267
384	0.267
385	0.267
385	0.266
386	0.266
386	0.266
387	0.266
387	0.266
388	0.266
388	0.266
389	0.265
389	0.265
389	0.265
390	0.265
390	0.265
391	0.265
391	0.265
392	0.265
392	0.264
393	0.264
393	0.264
394	0.264
394	0.264
394	0.263
395	0.263
395	0.263
396	0.262
396	0.262
397	0.262
397	0.262
398	0.262
398	0.262
399	0.261
399	0.261
400	0.261
400	0.261
400	0.261
401	0.26
401	0.26
402	0.26
402	0.26
403	0.26
403	0.26
404	0.259
404	0.259
405	0.259
405	0.259
405	0.259
406	0.259
406	0.258
407	0.258
407	0.258
408	0.258
408	0.257
409	0.257
409	0.257
410	0.257
410	0.257
411	0.257
411	0.257
411	0.257
412	0.256
412	0.256
413	0.256
413	0.255
414	0.255
414	0.255
415	0.254
415	0.254
416	0.254
416	0.254
416	0.253
417	0.253
417	0.253
418	0.253
418	0.253
419	0.253
419	0.253
420	0.253
420	0.253
421	0.253
421	0.253
421	0.253
422	0.253
422	0.253
423	0.253
423	0.253
424	0.252
424	0.252
425	0.252
425	0.252
426	0.252
426	0.252
427	0.253
427	0.253
427	0.253
428	0.253
428	0.252
429	0.252
429	0.252
430	0.252
430	0.251
431	0.251
431	0.251
432	0.251
432	0.25
432	0.25
433	0.25
433	0.25
434	0.25
434	0.25
435	0.25
435	0.25
436	0.25
436	0.25
437	0.25
437	0.25
437	0.25
438	0.25
438	0.25
439	0.249
439	0.249
440	0.249
440	0.249
441	0.249
441	0.249
442	0.249
442	0.249
442	0.249
443	0.249
443	0.249
444	0.249
444	0.249
445	0.249
445	0.249
446	0.248
446	0.249
447	0.249
447	0.249
447	0.249
448	0.249
448	0.249
449	0.249
449	0.249
450	0.249
450	0.249
451	0.249
451	0.249
452	0.249
452	0.249
452	0.249
453	0.249
453	0.248
454	0.249
454	0.249
455	0.249
455	0.249
456	0.249
456	0.249
457	0.249
457	0.248
458	0.248
458	0.248
458	0.248
459	0.248
459	0.247
460	0.247
460	0.247
461	0.247
461	0.247
462	0.248
462	0.248
463	0.249
463	0.25
463	0.25
464	0.251
464	0.251
465	0.252
465	0.252
466	0.252
466	0.252
467	0.252
467	0.252
467	0.252
468	0.251
468	0.251
469	0.251
469	0.252
470	0.252
470	0.253
471	0.253
471	0.253
472	0.253
472	0.254
472	0.254
473	0.255
473	0.255
474	0.256
474	0.256
475	0.257
475	0.257
476	0.257
476	0.258
477	0.259
477	0.259
477	0.259
478	0.26
478	0.26
479	0.261
479	0.261
480	0.262
480	0.262
481	0.263
481	0.263
482	0.264
482	0.265
482	0.266
483	0.267
483	0.269
484	0.27
484	0.27
485	0.271
485	0.272
486	0.272
486	0.273
487	0.274
487	0.274
487	0.275
488	0.275
488	0.276
489	0.277
489	0.278
490	0.279
490	0.28
491	0.282
491	0.283
492	0.284
492	0.285
492	0.286
493	0.287
493	0.288
494	0.29
494	0.291
495	0.292
495	0.293
496	0.294
496	0.296
496	0.297
497	0.299
497	0.301
498	0.302
498	0.303
499	0.305
499	0.306
500	0.308
500	0.31
501	0.312
501	0.313
501	0.314
502	0.315
502	0.317
503	0.319
503	0.321
504	0.322
504	0.324
505	0.326
505	0.328
506	0.33
506	0.332
506	0.335
507	0.337
507	0.339
508	0.341
508	0.344
509	0.346
509	0.348
510	0.35
510	0.352
511	0.353
511	0.355
511	0.356
512	0.358
512	0.359
513	0.36
513	0.362
514	0.363
514	0.365
515	0.367
515	0.368
515	0.369
516	0.37
516	0.372
517	0.374
517	0.375
518	0.376
518	0.377
519	0.378
519	0.378
520	0.38
520	0.381
520	0.382
521	0.383
521	0.384
522	0.385
522	0.386
523	0.388
523	0.389
524	0.39
524	0.39
524	0.391
525	0.392
525	0.393
526	0.394
526	0.395
527	0.395
527	0.395
528	0.395
528	0.396
529	0.396
529	0.396
529	0.396
530	0.396
530	0.396
531	0.395
531	0.395
532	0.394
532	0.394
533	0.394
533	0.394
533	0.393
534	0.393
534	0.392
535	0.392
535	0.391
536	0.391
536	0.391
537	0.39
537	0.39
538	0.389
538	0.388
538	0.387
539	0.386
539	0.385
540	0.384
540	0.382
541	0.38
541	0.379
542	0.378
542	0.377
542	0.375
543	0.374
543	0.373
544	0.371
544	0.37
545	0.369
545	0.368
546	0.367
546	0.365
547	0.363
547	0.361
547	0.359
548	0.358
548	0.356
549	0.355
549	0.353
550	0.352
550	0.35
551	0.348
551	0.346
551	0.345
552	0.343
552	0.341
553	0.339
553	0.338
554	0.336
554	0.334
555	0.331
555	0.33
556	0.328
556	0.326
556	0.324
557	0.323
557	0.321
558	0.32
558	0.318
559	0.316
559	0.314
560	0.313
560	0.311
560	0.31
561	0.309
561	0.308
562	0.306
562	0.305
563	0.304
563	0.302
564	0.301
564	0.3
564	0.299
565	0.299
565	0.298
566	0.296
566	0.295
567	0.295
567	0.294
568	0.293
568	0.291
568	0.29
569	0.289
569	0.288
570	0.286
570	0.284
571	0.283
571	0.281
572	0.28
572	0.278
573	0.276
573	0.274
573	0.272
574	0.271
574	0.271
575	0.27
575	0.271
576	0.27
576	0.268
577	0.267
577	0.266
577	0.266
578	0.266
578	0.266
579	0.267
579	0.266
580	0.264
580	0.261
581	0.259
581	0.258
581	0.258
582	0.258
582	0.258
583	0.258
583	0.257
584	0.255
584	0.253
585	0.254
585	0.254
585	0.254
586	0.254
586	0.253
587	0.251
587	0.25
588	0.249
588	0.248
589	0.247
589	0.247
590	0.246
590	0.246
590	0.247
591	0.247
591	0.246
592	0.245
592	0.244
593	0.244
593	0.244
594	0.243
594	0.242
594	0.242
595	0.241
595	0.24
596	0.239
596	0.24
597	0.241
597	0.241
598	0.24
598	0.24
598	0.24
599	0.24
599	0.239
600	0.239
600	0.238
601	0.239
601	0.238
602	0.237
602	0.237
602	0.236
603	0.237
603	0.237
604	0.237
604	0.237
605	0.237
605	0.238
606	0.237
606	0.235
606	0.235
607	0.234
607	0.234
608	0.233
608	0.232
609	0.231
609	0.231
610	0.23
610	0.229
610	0.229
611	0.229
611	0.229
612	0.229
612	0.23
613	0.23
613	0.23
614	0.228
614	0.227
614	0.227
615	0.226
615	0.225
616	0.224
616	0.223
617	0.223
617	0.222
618	0.221
618	0.22
618	0.22
619	0.219
619	0.22
620	0.22
620	0.219
621	0.218
621	0.217
622	0.215
622	0.214
622	0.213
623	0.212
623	0.212
624	0.212
624	0.211
625	0.21
625	0.21
626	0.209
626	0.209
626	0.209
627	0.209
627	0.208
628	0.208
628	0.207
629	0.206
629	0.205
630	0.203
630	0.202
630	0.201
631	0.2
631	0.198
632	0.196
632	0.195
633	0.193
633	0.191
634	0.189
634	0.188
634	0.186
635	0.184
635	0.182
636	0.18
636	0.178
637	0.176
637	0.173
638	0.171
638	0.168
638	0.165
639	0.162
639	0.159
640	0.155
640	0.152
641	0.148
641	0.145
642	0.141
642	0.138
642	0.134
643	0.13
643	0.125
644	0.12
644	0.116
645	0.111
645	0.106
646	0.1
646	0.094
646	0.088
647	0.081
647	0.074
648	0.068
648	0.061
649	0.053
649	0.046
650	0.039
650	0.032
650	0.024
651	0.014
651	0.002
652	-0.011
652	-0.026
653	-0.039
653	-0.05
653	-0.046
654	-0.027
654	-0.022
655	-0.028
655	-0.034
656	-0.041
656	-0.048
657	-0.054
657	-0.059
657	-0.067
658	-0.075
658	-0.108
659	-0.197
659	-0.289
660	-0.33
660	-0.358
661	-0.386
661	-0.416
661	-0.448
662	-0.478
662	-0.509
663	-0.545
663	-0.585
664	-0.622
664	-0.664
665	-0.712
665	-0.759
665	-0.804
666	-0.856
666	-0.911
667	-0.967
667	-1.03
668	-1.089
668	-1.158
669	-1.225
669	-1.299
669	-1.378
670	-1.46
670	-1.574
671	-1.743
671	-2.042
672	-2.297
672	-2.463
672	-2.586
673	-2.684
673	-2.765
674	-2.838
674	-2.856
675	-2.873
675	-2.877
676	-2.873
676	-2.834
676	-2.768
677	-2.688
677	-2.594
678	-2.457
678	-2.243
679	-1.836
679	-1.642
680	-1.532
680	-1.453
680	-1.382
681	-1.331
681	-1.276
682	-1.233
682	-1.19
683	-1.145
683	-1.12
684	-1.09
684	-1.069
684	-1.046
685	-1.024
685	-1.014
686	-0.992
686	-0.978
687	-0.969
687	-0.957
687	-0.958
688	-0.941
688	-0.933
689	-0.936
689	-0.933
690	-0.919
690	-0.909
691	-0.905
691	-0.909
691	-0.908
692	-0.908
692	-0.905
693	-0.911
693	-0.922
694	-0.902
694	-0.9
695	-0.902
695	-0.895
695	-0.902
696	-0.907
696	-0.899
697	-0.892
697	-0.887
698	-0.882
698	-0.874
698	-0.886
699	-0.884
699	-0.885
700	-0.905
700	-0.899
701	-0.885
701	-0.881
702	-0.881
702	-0.878
702	-0.878
703	-0.869
703	-0.858
704	-0.866
704	-0.871
705	-0.859
705	-0.86
705	-0.855
706	-0.849
706	-0.845
707	-0.858
707	-0.862
708	-0.86
708	-0.858
709	-0.86
709	-0.856
709	-0.852
710	-0.859
710	-0.862
711	-0.859
711	-0.86
712	-0.849
712	-0.847
713	-0.853
713	-0.853
713	-0.832
714	-0.834
714	-0.837
715	-0.828
715	-0.837
716	-0.855
716	-0.863
716	-0.864
717	-0.869
717	-0.86
718	-0.855
718	-0.856
719	-0.851
719	-0.843
720	-0.838
720	-0.832
720	-0.826
721	-0.817
721	-0.821
722	-0.818
722	-0.815
723	-0.831
723	-0.843
723	-0.852
724	-0.851
724	-0.856
725	-0.851
725	-0.854
726	-0.858
726	-0.849
727	-0.85
727	-0.857
727	-0.848
728	-0.834
728	-0.83
729	-0.832
729	-0.834
730	-0.837
730	-0.828
730	-0.834
731	-0.838
731	-0.839
732	-0.841
732	-0.836
733	-0.852
733	-0.857
734	-0.866
734	-0.857
734	-0.84
735	-0.831
735	-0.824
736	-0.822
736	-0.816
737	-0.817
737	-0.807
737	-0.801
738	-0.788
738	-0.777
739	-0.778
739	-0.779
740	-0.792
740	-0.794
741	-0.806
741	-0.816
741	-0.824
742	-0.831
742	-0.845
743	-0.85
743	-0.852
744	-0.857
744	-0.864
744	-0.86
745	-0.867
745	-0.855
746	-0.851
746	-0.842
747	-0.845
747	-0.836
748	-0.841
748	-0.845
748	-0.845
749	-0.838
749	-0.843
750	-0.834
750	-0.835
751	-0.833
751	-0.829
751	-0.84
752	-0.844
752	-0.846
753	-0.847
753	-0.84
754	-0.857
754	-0.858
754	-0.865
755	-0.865
755	-0.857
756	-0.86
756	-0.847
757	-0.838
757	-0.828
758	-0.831
758	-0.831
758	-0.828
759	-0.834
759	-0.834
760	-0.832
760	-0.834
761	-0.828
761	-0.832
761	-0.83
762	-0.835
762	-0.835
763	-0.835
763	-0.839
764	-0.838
764	-0.835
764	-0.841
765	-0.84
765	-0.847
766	-0.85
766	-0.854
767	-0.871
767	-0.866
768	-0.864
768	-0.855
768	-0.85
769	-0.854
769	-0.862
770	-0.872
770	-0.877
771	-0.872
771	-0.872
771	-0.876
772	-0.88
772	-0.901
773	-0.904
773	-0.904
774	-0.9
774	-0.882
775	-0.869
775	-0.869
775	-0.873
776	-0.882
776	-0.879
777	-0.879
777	-0.861
778	-0.869
778	-0.877
778	-0.877
779	-0.886
779	-0.901
780	-0.897
780	-0.904
781	-0.895
781	-0.884
781	-0.897
782	-0.918
782	-0.919
783	-0.921
783	-0.928
784	-0.932
784	-0.926
784	-0.948
785	-0.942
785	-0.954
786	-0.958
786	-0.95
787	-0.94
787	-0.949
788	-0.94
788	-0.933
788	-0.935
789	-0.935
789	-0.924
790	-0.925
790	-0.908
791	-0.915
791	-0.912
791	-0.905
792	-0.899
792	-0.903
793	-0.907
793	-0.894
794	-0.886
794	-0.88
794	-0.886
795	-0.908
795	-0.892
796	-0.896
796	-0.893
797	-0.886
797	-0.875
797	-0.868
798	-0.888
798	-0.893
799	-0.89
799	-0.875
800	-0.869
800	-0.881
801	-0.879
801	-0.882
801	-0.879
802	-0.88
802	-0.88
803	-0.875
803	-0.867
804	-0.873
804	-0.881
804	-0.866
805	-0.844
805	-0.835
806	-0.837
806	-0.831
807	-0.833
807	-0.832
807	-0.815
808	-0.81
808	-0.803
809	-0.799
809	-0.798
810	-0.803
810	-0.8
810	-0.795
811	-0.801
811	-0.791
812	-0.783
812	-0.785
813	-0.791
813	-0.792
813	-0.787
814	-0.788
814	-0.793
815	-0.784
815	-0.781
816	-0.776
816	-0.793
817	-0.805
817	-0.809
817	-0.816
818	-0.81
818	-0.809
819	-0.818
819	-0.814
820	-0.827
820	-0.825
820	-0.824
821	-0.82
821	-0.815
822	-0.813
822	-0.802
823	-0.814
823	-0.811
823	-0.805
824	-0.805
824	-0.816
825	-0.815
825	-0.814
826	-0.808
826	-0.803
826	-0.802
827	-0.803
827	-0.792
828	-0.793
828	-0.787
829	-0.781
829	-0.766
829	-0.763
830	-0.76
830	-0.745
831	-0.738
831	-0.729
832	-0.719
832	-0.714
832	-0.707
833	-0.707
833	-0.711
834	-0.706
834	-0.701
835	-0.693
835	-0.693
835	-0.69
836	-0.685
836	-0.683
837	-0.671
837	-0.663
838	-0.649
838	-0.631
839	-0.626
839	-0.612
839	-0.601
840	-0.6
840	-0.589
841	-0.577
841	-0.569
842	-0.561
842	-0.546
842	-0.546
843	-0.542
843	-0.535
844	-0.533
844	-0.522
845	-0.508
845	-0.497
845	-0.487
846	-0.475
846	-0.465
847	-0.455
847	-0.441
848	-0.426
848	-0.409
848	-0.395
849	-0.383
849	-0.37
850	-0.358
850	-0.347
851	-0.333
851	-0.315
851	-0.304
852	-0.287
852	-0.273
853	-0.264
853	-0.252
854	-0.239
854	-0.227
854	-0.215
855	-0.202
855	-0.193
856	-0.185
856	-0.176
857	-0.168
857	-0.159
857	-0.144
858	-0.133
858	-0.124
859	-0.112
859	-0.1
860	-0.089
860	-0.073
860	-0.062
861	-0.05
861	-0.039
862	-0.029
862	-0.021
863	-0.012
863	-0.001
863	0.006
864	0.014
864	0.022
865	0.03
865	0.036
866	0.043
866	0.049
866	0.055
867	0.061
867	0.068
868	0.072
868	0.078
869	0.083
869	0.086
869	0.088
870	0.091
870	0.093
871	0.095
871	0.096
872	0.097
872	0.098
872	0.098
873	0.098
873	0.097
874	0.096
874	0.096
875	0.095
875	0.095
875	0.094
876	0.094
876	0.093
877	0.093
877	0.092
878	0.092
878	0.091
878	0.091
879	0.091
879	0.091
880	0.091
880	0.09
881	0.089
881	0.088
881	0.087
882	0.085
882	0.083
883	0.082
883	0.08
884	0.079
884	0.078
884	0.078
885	0.077
885	0.077
886	0.077
886	0.077
887	0.077
887	0.076
887	0.076
888	0.075
888	0.074
889	0.074
889	0.072
890	0.071
890	0.07
890	0.069
891	0.069
891	0.068
892	0.069
892	0.07
893	0.07
893	0.07
893	0.07
894	0.071
894	0.071
895	0.071
895	0.071
895	0.071
896	0.071
896	0.07
897	0.071
897	0.071
898	0.071
898	0.071
898	0.071
899	0.071
899	0.071
900	0.071
900	0.071
901	0.071
901	0.071
901	0.071
902	0.071
902	0.072
903	0.071
903	0.071
904	0.071
904	0.071
904	0.071
905	0.07
905	0.07
906	0.071
906	0.071
907	0.071
907	0.07
907	0.07
908	0.07
908	0.071
909	0.071
909	0.071
910	0.072
910	0.072
910	0.073
911	0.073
911	0.074
912	0.075
912	0.076
913	0.077
913	0.077
913	0.078
914	0.078
914	0.078
915	0.078
915	0.078
916	0.078
916	0.078
916	0.077
917	0.077
917	0.076
918	0.076
918	0.076
918	0.075
919	0.075
919	0.075
920	0.075
920	0.075
921	0.075
921	0.076
921	0.076
922	0.076
922	0.076
923	0.076
923	0.076
924	0.075
924	0.075
924	0.074
925	0.073
925	0.072
926	0.071
926	0.071
927	0.07
927	0.069
927	0.069
928	0.069
928	0.069
929	0.07
929	0.071
930	0.071
930	0.072
930	0.073
931	0.074
931	0.075
932	0.076
932	0.077
933	0.077
933	0.077
933	0.077
934	0.076
934	0.076
935	0.076
935	0.074
935	0.073
936	0.072
936	0.071
937	0.07
937	0.069
938	0.068
938	0.067
938	0.067
939	0.066
939	0.065
940	0.064
940	0.063
941	0.063
941	0.062
941	0.062
942	0.061
942	0.06
943	0.06
943	0.059
944	0.058
944	0.057
944	0.057
945	0.057
945	0.057
946	0.057
946	0.056
946	0.055
947	0.055
947	0.055
948	0.055
948	0.055
949	0.056
949	0.057
949	0.058
950	0.059
950	0.06
951	0.062
951	0.063
952	0.064
952	0.065
952	0.066
953	0.066
953	0.067
954	0.067
954	0.067
955	0.067
955	0.066
955	0.066
956	0.065
956	0.064
957	0.063
957	0.062
957	0.061
958	0.06
958	0.059
959	0.058
959	0.058
960	0.058
960	0.057
960	0.057
961	0.057
961	0.058
962	0.058
962	0.059
963	0.059
963	0.059
963	0.06
964	0.06
964	0.061
965	0.061
965	0.062
966	0.062
966	0.063
966	0.063
967	0.064
967	0.064
968	0.064
968	0.064
968	0.064
969	0.064
969	0.064
970	0.063
970	0.063
971	0.063
971	0.062
971	0.062
972	0.062
972	0.062
973	0.062
973	0.062
974	0.062
974	0.062
974	0.062
975	0.062
975	0.062
976	0.061
976	0.061
976	0.061
977	0.061
977	0.06
978	0.06
978	0.059
979	0.059
979	0.059
979	0.059
980	0.059
980	0.059
981	0.059
981	0.06
982	0.06
982	0.06
982	0.06
983	0.06
983	0.06
984	0.059
984	0.059
984	0.058
985	0.058
985	0.057
986	0.056
986	0.055
987	0.054
987	0.053
987	0.053
988	0.052
988	0.05
989	0.049
989	0.048
990	0.047
990	0.045
990	0.044
991	0.043
991	0.042
992	0.041
992	0.04
992	0.04
993	0.039
993	0.038
994	0.037
994	0.036
995	0.035
995	0.034
995	0.033
996	0.032
996	0.03
997	0.029
997	0.028
997	0.027
998	0.027
998	0.027
999	0.027
999	0.027
1000	0.027
1000	0.028
1000	0.028
1001	0.029
1001	0.03
1002	0.031
1002	0.032
1003	0.032
1003	0.033
1003	0.033
1004	0.033
1004	0.033
1005	0.033
1005	0.033
1005	0.033
1006	0.032
1006	0.032
1007	0.032
1007	0.031
1008	0.03
1008	0.03
1008	0.03
1009	0.03
1009	0.03
1010	0.03
1010	0.031
1010	0.031
1011	0.032
1011	0.032
1012	0.033
1012	0.034
1013	0.035
1013	0.036
1013	0.036
1014	0.037
1014	0.037
1015	0.037
1015	0.037
1016	0.037
1016	0.037
1016	0.037
1017	0.036
1017	0.036
1018	0.035
1018	0.035
1018	0.034
1019	0.034
1019	0.034
1020	0.033
1020	0.033
1021	0.033
1021	0.032
1021	0.032
1022	0.031
1022	0.031
1023	0.032
1023	0.032
1023	0.032
1024	0.032
1024	0.032
1025	0.032
1025	0.032
1026	0.032
1026	0.032
1026	0.032
1027	0.032
1027	0.033
1028	0.033
1028	0.034
1028	0.034
1029	0.034
1029	0.035
1030	0.035
1030	0.035
1031	0.035
1031	0.035
1031	0.035
1032	0.035
1032	0.035
1033	0.034
1033	0.034
1033	0.033
1034	0.033
1034	0.032
1035	0.031
1035	0.031
1036	0.03
1036	0.029
1036	0.029
1037	0.029
1037	0.029
1038	0.029
1038	0.029
1039	0.029
1039	0.029
1039	0.03
1040	0.03
1040	0.03
1041	0.03
1041	0.029
1041	0.029
1042	0.028
1042	0.028
1043	0.027
1043	0.026
1044	0.026
1044	0.025
1044	0.024
1045	0.024
1045	0.023
1046	0.023
1046	0.022
1046	0.022
1047	0.022
1047	0.023
1048	0.023
1048	0.024
1049	0.023
1049	0.023
1049	0.023
1050	0.022
1050	0.022
1051	0.021
1051	0.02
1051	0.02
1052	0.018
1052	0.017
1053	0.017
1053	0.016
1053	0.016
1054	0.016
1054	0.015
1055	0.016
1055	0.016
1056	0.016
1056	0.016
1056	0.016
1057	0.015
1057	0.015
1058	0.015
1058	0.014
1058	0.015
1059	0.014
1059	0.014
1060	0.013
1060	0.013
1061	0.012
1061	0.012
1061	0.012
1062	0.012
1062	0.012
1063	0.012
1063	0.012
1063	0.011
1064	0.011
1064	0.012
1065	0.012
1065	0.012
1066	0.011
1066	0.011
1066	0.01
1067	0.01
1067	0.009
1068	0.008
1068	0.007
1068	0.006
1069	0.005
1069	0.004
1070	0.003
1070	0.002
1071	0.001
1071	0
1071	-0.001
1072	-0.001
1072	-0.001
1073	-0.001
1073	-0.001
1073	-0.002
1074	-0.002
1074	-0.002
1075	-0.002
1075	-0.002
1076	-0.003
1076	-0.003
1076	-0.004
1077	-0.005
1077	-0.006
1078	-0.006
1078	-0.007
1078	-0.007
1079	-0.008
1079	-0.008
1080	-0.009
1080	-0.009
1080	-0.011
1081	-0.011
1081	-0.012
1082	-0.012
1082	-0.013
1083	-0.014
1083	-0.016
1083	-0.017
1084	-0.018
1084	-0.019
1085	-0.02
1085	-0.02
1085	-0.021
1086	-0.023
1086	-0.024
1087	-0.025
1087	-0.026
1088	-0.027
1088	-0.028
1088	-0.029
1089	-0.03
1089	-0.032
1090	-0.033
1090	-0.034
1090	-0.036
1091	-0.037
1091	-0.038
1092	-0.039
1092	-0.039
1092	-0.04
1093	-0.041
1093	-0.042
1094	-0.043
1094	-0.043
1095	-0.045
1095	-0.046
1095	-0.046
1096	-0.048
1096	-0.05
1097	-0.051
1097	-0.053
1097	-0.055
1098	-0.057
1098	-0.06
1099	-0.062
1099	-0.062
1100	-0.066
1100	-0.069
1100	-0.072
1101	-0.076
1101	-0.079
1102	-0.081
1102	-0.084
1102	-0.086
1103	-0.089
1103	-0.092
1104	-0.096
1104	-0.099
1104	-0.101
1105	-0.103
1105	-0.105
1106	-0.111
1106	-0.113
1107	-0.119
1107	-0.123
1107	-0.128
1108	-0.131
1108	-0.132
1109	-0.136
1109	-0.14
1109	-0.145
1110	-0.148
1110	-0.152
1111	-0.163
1111	-0.158
