Data from 17C_3.2A_35min_2sec_int_Absorbance__748__02310.txt Node

Date: Mon Jun 19 18:02:17 CEST 2023
User: Marek
Spectrometer: MAYP115816
Trigger mode: 0
Integration Time (sec): 2.500000E-1
Scans to average: 10
Electric dark correction enabled: true
Nonlinearity correction enabled: true
Boxcar width: 5
XAxis mode: Wavelengths
Number of Pixels in Spectrum: 2068
>>>>>Begin Spectral Data<<<<<
199	-0.738
199	-0.75
200	-0.653
200	-0.601
201	-0.566
201	-0.552
202	-0.538
202	-0.526
203	-0.519
203	-0.514
204	-0.499
204	-0.484
205	-0.46
205	-0.455
205	-0.451
206	-0.454
206	-0.458
207	-0.447
207	-0.447
208	-0.45
208	-0.45
209	-0.445
209	-0.447
210	-0.453
210	-0.457
211	-0.461
211	-0.461
212	-0.463
212	-0.473
213	-0.474
213	-0.47
213	-0.474
214	-0.471
214	-0.471
215	-0.47
215	-0.475
216	-0.479
216	-0.486
217	-0.481
217	-0.483
218	-0.484
218	-0.485
219	-0.489
219	-0.5
220	-0.503
220	-0.513
221	-0.513
221	-0.515
221	-0.508
222	-0.506
222	-0.509
223	-0.512
223	-0.518
224	-0.522
224	-0.52
225	-0.518
225	-0.51
226	-0.514
226	-0.514
227	-0.521
227	-0.53
228	-0.529
228	-0.531
229	-0.531
229	-0.524
229	-0.518
230	-0.521
230	-0.524
231	-0.518
231	-0.512
232	-0.504
232	-0.502
233	-0.496
233	-0.493
234	-0.493
234	-0.49
235	-0.495
235	-0.501
236	-0.5
236	-0.504
236	-0.51
237	-0.517
237	-0.515
238	-0.525
238	-0.523
239	-0.521
239	-0.53
240	-0.527
240	-0.523
241	-0.528
241	-0.526
242	-0.53
242	-0.526
243	-0.525
243	-0.526
243	-0.534
244	-0.536
244	-0.536
245	-0.548
245	-0.547
246	-0.552
246	-0.558
247	-0.561
247	-0.565
248	-0.571
248	-0.567
249	-0.572
249	-0.579
250	-0.577
250	-0.576
250	-0.579
251	-0.575
251	-0.576
252	-0.579
252	-0.569
253	-0.574
253	-0.587
254	-0.585
254	-0.585
255	-0.592
255	-0.584
256	-0.583
256	-0.593
257	-0.591
257	-0.587
258	-0.605
258	-0.602
258	-0.596
259	-0.594
259	-0.6
260	-0.602
260	-0.607
261	-0.62
261	-0.613
262	-0.612
262	-0.613
263	-0.6
263	-0.595
264	-0.594
264	-0.603
265	-0.6
265	-0.608
265	-0.61
266	-0.604
266	-0.602
267	-0.611
267	-0.619
268	-0.636
268	-0.646
269	-0.645
269	-0.639
270	-0.644
270	-0.646
271	-0.647
271	-0.65
272	-0.654
272	-0.65
272	-0.641
273	-0.638
273	-0.647
274	-0.651
274	-0.655
275	-0.656
275	-0.649
276	-0.654
276	-0.648
277	-0.652
277	-0.671
278	-0.684
278	-0.679
278	-0.671
279	-0.676
279	-0.685
280	-0.683
280	-0.681
281	-0.675
281	-0.682
282	-0.674
282	-0.672
283	-0.661
283	-0.663
284	-0.659
284	-0.648
285	-0.644
285	-0.641
285	-0.641
286	-0.65
286	-0.645
287	-0.645
287	-0.63
288	-0.623
288	-0.632
289	-0.645
289	-0.655
290	-0.644
290	-0.644
291	-0.641
291	-0.634
292	-0.636
292	-0.639
292	-0.643
293	-0.649
293	-0.641
294	-0.63
294	-0.619
295	-0.616
295	-0.612
296	-0.608
296	-0.606
297	-0.6
297	-0.585
298	-0.578
298	-0.587
298	-0.573
299	-0.566
299	-0.569
300	-0.564
300	-0.562
301	-0.559
301	-0.559
302	-0.567
302	-0.576
303	-0.564
303	-0.548
304	-0.55
304	-0.551
305	-0.551
305	-0.551
305	-0.547
306	-0.53
306	-0.524
307	-0.511
307	-0.513
308	-0.526
308	-0.526
309	-0.528
309	-0.516
310	-0.507
310	-0.503
311	-0.495
311	-0.505
311	-0.503
312	-0.498
312	-0.496
313	-0.482
313	-0.484
314	-0.481
314	-0.484
315	-0.484
315	-0.483
316	-0.48
316	-0.47
317	-0.462
317	-0.457
318	-0.446
318	-0.445
318	-0.441
319	-0.431
319	-0.427
320	-0.42
320	-0.421
321	-0.425
321	-0.426
322	-0.422
322	-0.417
323	-0.416
323	-0.41
324	-0.402
324	-0.393
324	-0.383
325	-0.374
325	-0.356
326	-0.343
326	-0.325
327	-0.308
327	-0.289
328	-0.264
328	-0.245
329	-0.222
329	-0.201
330	-0.173
330	-0.144
330	-0.118
331	-0.091
331	-0.065
332	-0.042
332	-0.021
333	-0
333	0.022
334	0.04
334	0.056
335	0.07
335	0.083
336	0.096
336	0.108
336	0.118
337	0.128
337	0.135
338	0.143
338	0.148
339	0.155
339	0.16
340	0.164
340	0.168
341	0.172
341	0.175
342	0.178
342	0.181
342	0.184
343	0.186
343	0.188
344	0.189
344	0.191
345	0.192
345	0.192
346	0.193
346	0.193
347	0.194
347	0.195
348	0.195
348	0.196
348	0.196
349	0.196
349	0.197
350	0.197
350	0.197
351	0.197
351	0.197
352	0.197
352	0.197
353	0.197
353	0.197
354	0.197
354	0.197
354	0.196
355	0.196
355	0.196
356	0.196
356	0.196
357	0.195
357	0.195
358	0.195
358	0.195
359	0.194
359	0.194
360	0.194
360	0.194
360	0.194
361	0.194
361	0.194
362	0.195
362	0.195
363	0.195
363	0.195
364	0.195
364	0.195
365	0.194
365	0.194
366	0.194
366	0.194
366	0.194
367	0.195
367	0.194
368	0.194
368	0.194
369	0.194
369	0.194
370	0.194
370	0.194
371	0.194
371	0.194
372	0.194
372	0.194
372	0.194
373	0.194
373	0.194
374	0.194
374	0.194
375	0.194
375	0.194
376	0.194
376	0.194
377	0.194
377	0.194
378	0.194
378	0.194
378	0.194
379	0.194
379	0.194
380	0.194
380	0.193
381	0.193
381	0.193
382	0.193
382	0.193
383	0.193
383	0.193
383	0.193
384	0.193
384	0.193
385	0.193
385	0.193
386	0.193
386	0.193
387	0.192
387	0.192
388	0.192
388	0.192
389	0.192
389	0.192
389	0.193
390	0.193
390	0.193
391	0.193
391	0.193
392	0.193
392	0.193
393	0.193
393	0.193
394	0.192
394	0.192
394	0.192
395	0.192
395	0.191
396	0.191
396	0.191
397	0.191
397	0.191
398	0.191
398	0.191
399	0.191
399	0.191
400	0.191
400	0.191
400	0.191
401	0.191
401	0.191
402	0.191
402	0.191
403	0.19
403	0.19
404	0.19
404	0.19
405	0.19
405	0.19
405	0.19
406	0.19
406	0.19
407	0.19
407	0.19
408	0.19
408	0.189
409	0.189
409	0.189
410	0.19
410	0.19
411	0.19
411	0.19
411	0.19
412	0.19
412	0.19
413	0.19
413	0.19
414	0.19
414	0.19
415	0.189
415	0.189
416	0.189
416	0.189
416	0.189
417	0.189
417	0.189
418	0.189
418	0.189
419	0.189
419	0.189
420	0.189
420	0.189
421	0.189
421	0.19
421	0.19
422	0.19
422	0.19
423	0.189
423	0.189
424	0.189
424	0.188
425	0.188
425	0.188
426	0.188
426	0.187
427	0.187
427	0.187
427	0.187
428	0.187
428	0.187
429	0.187
429	0.187
430	0.187
430	0.187
431	0.187
431	0.187
432	0.187
432	0.186
432	0.186
433	0.186
433	0.186
434	0.186
434	0.186
435	0.186
435	0.186
436	0.186
436	0.186
437	0.186
437	0.186
437	0.186
438	0.186
438	0.186
439	0.186
439	0.186
440	0.186
440	0.186
441	0.185
441	0.185
442	0.185
442	0.185
442	0.185
443	0.185
443	0.185
444	0.185
444	0.185
445	0.185
445	0.185
446	0.185
446	0.185
447	0.185
447	0.185
447	0.185
448	0.186
448	0.185
449	0.185
449	0.185
450	0.186
450	0.185
451	0.185
451	0.185
452	0.185
452	0.185
452	0.185
453	0.185
453	0.185
454	0.185
454	0.184
455	0.184
455	0.184
456	0.184
456	0.184
457	0.184
457	0.184
458	0.184
458	0.184
458	0.184
459	0.184
459	0.184
460	0.183
460	0.183
461	0.183
461	0.183
462	0.183
462	0.183
463	0.183
463	0.183
463	0.184
464	0.183
464	0.183
465	0.183
465	0.183
466	0.184
466	0.184
467	0.184
467	0.184
467	0.184
468	0.184
468	0.184
469	0.184
469	0.184
470	0.185
470	0.185
471	0.185
471	0.185
472	0.185
472	0.185
472	0.185
473	0.185
473	0.185
474	0.185
474	0.185
475	0.186
475	0.186
476	0.186
476	0.186
477	0.186
477	0.186
477	0.186
478	0.186
478	0.186
479	0.187
479	0.187
480	0.187
480	0.187
481	0.187
481	0.188
482	0.188
482	0.188
482	0.188
483	0.189
483	0.189
484	0.189
484	0.188
485	0.189
485	0.189
486	0.189
486	0.189
487	0.19
487	0.19
487	0.191
488	0.191
488	0.191
489	0.192
489	0.194
490	0.194
490	0.195
491	0.196
491	0.196
492	0.197
492	0.197
492	0.198
493	0.199
493	0.199
494	0.2
494	0.2
495	0.201
495	0.201
496	0.202
496	0.203
496	0.204
497	0.204
497	0.205
498	0.206
498	0.207
499	0.207
499	0.208
500	0.209
500	0.21
501	0.211
501	0.211
501	0.212
502	0.212
502	0.212
503	0.213
503	0.214
504	0.215
504	0.216
505	0.217
505	0.217
506	0.218
506	0.219
506	0.22
507	0.221
507	0.222
508	0.222
508	0.223
509	0.224
509	0.225
510	0.226
510	0.227
511	0.228
511	0.228
511	0.229
512	0.23
512	0.231
513	0.232
513	0.233
514	0.233
514	0.234
515	0.235
515	0.236
515	0.237
516	0.238
516	0.239
517	0.24
517	0.241
518	0.241
518	0.242
519	0.243
519	0.244
520	0.245
520	0.246
520	0.247
521	0.248
521	0.249
522	0.25
522	0.251
523	0.252
523	0.252
524	0.253
524	0.253
524	0.254
525	0.254
525	0.255
526	0.255
526	0.256
527	0.257
527	0.257
528	0.258
528	0.259
529	0.259
529	0.26
529	0.261
530	0.262
530	0.262
531	0.263
531	0.263
532	0.264
532	0.265
533	0.265
533	0.265
533	0.266
534	0.266
534	0.266
535	0.266
535	0.266
536	0.266
536	0.266
537	0.266
537	0.267
538	0.267
538	0.267
538	0.268
539	0.268
539	0.269
540	0.269
540	0.269
541	0.269
541	0.27
542	0.27
542	0.27
542	0.27
543	0.27
543	0.269
544	0.269
544	0.269
545	0.269
545	0.269
546	0.27
546	0.269
547	0.269
547	0.269
547	0.269
548	0.269
548	0.269
549	0.27
549	0.27
550	0.27
550	0.27
551	0.27
551	0.271
551	0.272
552	0.272
552	0.273
553	0.273
553	0.274
554	0.274
554	0.273
555	0.273
555	0.273
556	0.274
556	0.273
556	0.273
557	0.273
557	0.273
558	0.272
558	0.272
559	0.272
559	0.272
560	0.272
560	0.271
560	0.271
561	0.271
561	0.271
562	0.271
562	0.27
563	0.27
563	0.27
564	0.27
564	0.27
564	0.271
565	0.271
565	0.271
566	0.272
566	0.272
567	0.272
567	0.272
568	0.272
568	0.271
568	0.271
569	0.271
569	0.27
570	0.269
570	0.268
571	0.268
571	0.268
572	0.267
572	0.267
573	0.267
573	0.267
573	0.267
574	0.267
574	0.267
575	0.267
575	0.268
576	0.268
576	0.267
577	0.267
577	0.267
577	0.268
578	0.268
578	0.269
579	0.269
579	0.27
580	0.269
580	0.268
581	0.267
581	0.268
581	0.268
582	0.268
582	0.268
583	0.269
583	0.268
584	0.267
584	0.267
585	0.268
585	0.269
585	0.269
586	0.269
586	0.269
587	0.269
587	0.268
588	0.268
588	0.268
589	0.269
589	0.269
590	0.269
590	0.269
590	0.27
591	0.271
591	0.27
592	0.27
592	0.27
593	0.27
593	0.27
594	0.27
594	0.27
594	0.27
595	0.27
595	0.27
596	0.27
596	0.271
597	0.273
597	0.273
598	0.272
598	0.273
598	0.273
599	0.272
599	0.272
600	0.271
600	0.27
601	0.27
601	0.27
602	0.269
602	0.269
602	0.269
603	0.27
603	0.271
604	0.271
604	0.272
605	0.273
605	0.274
606	0.273
606	0.273
606	0.273
607	0.273
607	0.273
608	0.272
608	0.271
609	0.271
609	0.271
610	0.271
610	0.27
610	0.271
611	0.272
611	0.272
612	0.273
612	0.274
613	0.275
613	0.275
614	0.274
614	0.274
614	0.273
615	0.273
615	0.273
616	0.272
616	0.271
617	0.271
617	0.27
618	0.269
618	0.269
618	0.269
619	0.269
619	0.27
620	0.27
620	0.27
621	0.27
621	0.27
622	0.27
622	0.269
622	0.269
623	0.269
623	0.269
624	0.269
624	0.268
625	0.268
625	0.268
626	0.267
626	0.267
626	0.267
627	0.266
627	0.265
628	0.265
628	0.264
629	0.262
629	0.261
630	0.259
630	0.258
630	0.257
631	0.255
631	0.253
632	0.251
632	0.249
633	0.247
633	0.245
634	0.243
634	0.241
634	0.239
635	0.237
635	0.234
636	0.231
636	0.228
637	0.225
637	0.222
638	0.218
638	0.214
638	0.21
639	0.205
639	0.201
640	0.196
640	0.191
641	0.187
641	0.182
642	0.178
642	0.173
642	0.168
643	0.163
643	0.158
644	0.152
644	0.146
645	0.14
645	0.134
646	0.129
646	0.122
646	0.115
647	0.109
647	0.102
648	0.095
648	0.088
649	0.08
649	0.072
650	0.065
650	0.056
650	0.048
651	0.037
651	0.025
652	0.01
652	-0.006
653	-0.02
653	-0.032
653	-0.029
654	-0.01
654	-0.001
655	-0.005
655	-0.01
656	-0.017
656	-0.024
657	-0.029
657	-0.033
657	-0.039
658	-0.045
658	-0.074
659	-0.158
659	-0.256
660	-0.301
660	-0.329
661	-0.356
661	-0.387
661	-0.42
662	-0.453
662	-0.486
663	-0.525
663	-0.567
664	-0.61
664	-0.66
665	-0.71
665	-0.767
665	-0.822
666	-0.877
666	-0.937
667	-1.001
667	-1.065
668	-1.137
668	-1.209
669	-1.281
669	-1.353
669	-1.427
670	-1.489
670	-1.505
671	-1.592
671	-1.915
672	-2.163
672	-2.364
672	-2.5
673	-2.596
673	-2.679
674	-2.733
674	-2.754
675	-2.78
675	-2.922
676	-3.127
676	-3.082
676	-2.861
677	-2.661
677	-2.505
678	-2.342
678	-2.079
679	-1.755
679	-1.602
680	-1.503
680	-1.417
680	-1.343
681	-1.296
681	-1.236
682	-1.195
682	-1.157
683	-1.122
683	-1.105
684	-1.084
684	-1.065
684	-1.042
685	-1.019
685	-0.997
686	-0.973
686	-0.958
687	-0.934
687	-0.923
687	-0.903
688	-0.877
688	-0.857
689	-0.838
689	-0.825
690	-0.804
690	-0.792
691	-0.786
691	-0.789
691	-0.803
692	-0.795
692	-0.787
693	-0.785
693	-0.792
694	-0.785
694	-0.779
695	-0.785
695	-0.783
695	-0.769
696	-0.767
696	-0.746
697	-0.745
697	-0.76
698	-0.76
698	-0.751
698	-0.767
699	-0.77
699	-0.768
700	-0.757
700	-0.772
701	-0.771
701	-0.778
702	-0.779
702	-0.766
702	-0.758
703	-0.75
703	-0.738
704	-0.736
704	-0.737
705	-0.751
705	-0.744
705	-0.732
706	-0.734
706	-0.727
707	-0.733
707	-0.73
708	-0.73
708	-0.722
709	-0.724
709	-0.726
709	-0.716
710	-0.723
710	-0.733
711	-0.723
711	-0.726
712	-0.725
712	-0.737
713	-0.736
713	-0.744
713	-0.735
714	-0.731
714	-0.732
715	-0.723
715	-0.709
716	-0.714
716	-0.716
716	-0.708
717	-0.71
717	-0.712
718	-0.704
718	-0.704
719	-0.71
719	-0.711
720	-0.705
720	-0.717
720	-0.712
721	-0.7
721	-0.701
722	-0.689
722	-0.68
723	-0.678
723	-0.683
723	-0.671
724	-0.674
724	-0.679
725	-0.677
725	-0.687
726	-0.7
726	-0.705
727	-0.711
727	-0.724
727	-0.731
728	-0.73
728	-0.736
729	-0.736
729	-0.74
730	-0.745
730	-0.738
730	-0.728
731	-0.709
731	-0.717
732	-0.722
732	-0.722
733	-0.719
733	-0.725
734	-0.718
734	-0.719
734	-0.706
735	-0.705
735	-0.705
736	-0.715
736	-0.701
737	-0.691
737	-0.693
737	-0.705
738	-0.7
738	-0.704
739	-0.702
739	-0.713
740	-0.711
740	-0.712
741	-0.707
741	-0.708
741	-0.713
742	-0.71
742	-0.71
743	-0.718
743	-0.72
744	-0.716
744	-0.708
744	-0.71
745	-0.716
745	-0.712
746	-0.712
746	-0.709
747	-0.711
747	-0.699
748	-0.686
748	-0.693
748	-0.696
749	-0.694
749	-0.696
750	-0.685
750	-0.685
751	-0.689
751	-0.697
751	-0.698
752	-0.702
752	-0.712
753	-0.706
753	-0.703
754	-0.707
754	-0.699
754	-0.713
755	-0.729
755	-0.741
756	-0.73
756	-0.726
757	-0.724
757	-0.719
758	-0.722
758	-0.72
758	-0.723
759	-0.731
759	-0.716
760	-0.708
760	-0.7
761	-0.712
761	-0.711
761	-0.711
762	-0.717
762	-0.714
763	-0.723
763	-0.721
764	-0.717
764	-0.723
764	-0.727
765	-0.719
765	-0.703
766	-0.711
766	-0.716
767	-0.731
767	-0.726
768	-0.717
768	-0.725
768	-0.731
769	-0.749
769	-0.752
770	-0.757
770	-0.771
771	-0.768
771	-0.773
771	-0.773
772	-0.776
772	-0.777
773	-0.779
773	-0.773
774	-0.77
774	-0.772
775	-0.775
775	-0.77
775	-0.778
776	-0.778
776	-0.77
777	-0.776
777	-0.795
778	-0.79
778	-0.812
778	-0.8
779	-0.822
779	-0.829
780	-0.845
780	-0.842
781	-0.852
781	-0.848
781	-0.866
782	-0.865
782	-0.868
783	-0.854
783	-0.852
784	-0.832
784	-0.82
784	-0.827
785	-0.834
785	-0.821
786	-0.827
786	-0.802
787	-0.786
787	-0.786
788	-0.788
788	-0.798
788	-0.81
789	-0.811
789	-0.795
790	-0.777
790	-0.781
791	-0.78
791	-0.801
791	-0.809
792	-0.803
792	-0.781
793	-0.768
793	-0.745
794	-0.751
794	-0.743
794	-0.751
795	-0.745
795	-0.736
796	-0.718
796	-0.725
797	-0.721
797	-0.736
797	-0.742
798	-0.753
798	-0.746
799	-0.754
799	-0.74
800	-0.747
800	-0.74
801	-0.746
801	-0.731
801	-0.74
802	-0.744
802	-0.746
803	-0.748
803	-0.759
804	-0.753
804	-0.764
804	-0.753
805	-0.758
805	-0.745
806	-0.748
806	-0.734
807	-0.733
807	-0.715
807	-0.704
808	-0.694
808	-0.689
809	-0.672
809	-0.678
810	-0.676
810	-0.669
810	-0.666
811	-0.671
811	-0.662
812	-0.664
812	-0.667
813	-0.67
813	-0.666
813	-0.674
814	-0.678
814	-0.683
815	-0.687
815	-0.692
816	-0.684
816	-0.689
817	-0.696
817	-0.712
817	-0.729
818	-0.737
818	-0.739
819	-0.73
819	-0.73
820	-0.742
820	-0.738
820	-0.75
821	-0.748
821	-0.736
822	-0.703
822	-0.677
823	-0.675
823	-0.679
823	-0.675
824	-0.668
824	-0.668
825	-0.66
825	-0.642
826	-0.638
826	-0.644
826	-0.654
827	-0.65
827	-0.647
828	-0.623
828	-0.624
829	-0.615
829	-0.601
829	-0.592
830	-0.601
830	-0.598
831	-0.591
831	-0.582
832	-0.58
832	-0.572
832	-0.582
833	-0.576
833	-0.577
834	-0.576
834	-0.584
835	-0.569
835	-0.563
835	-0.56
836	-0.558
836	-0.555
837	-0.551
837	-0.541
838	-0.533
838	-0.519
839	-0.506
839	-0.493
839	-0.485
840	-0.474
840	-0.467
841	-0.454
841	-0.444
842	-0.438
842	-0.426
842	-0.418
843	-0.414
843	-0.409
844	-0.4
844	-0.392
845	-0.385
845	-0.376
845	-0.362
846	-0.352
846	-0.336
847	-0.325
847	-0.314
848	-0.301
848	-0.289
848	-0.272
849	-0.261
849	-0.248
850	-0.232
850	-0.227
851	-0.216
851	-0.205
851	-0.195
852	-0.179
852	-0.165
853	-0.154
853	-0.148
854	-0.137
854	-0.124
854	-0.113
855	-0.102
855	-0.094
856	-0.084
856	-0.076
857	-0.068
857	-0.06
857	-0.048
858	-0.037
858	-0.029
859	-0.02
859	-0.009
860	0.001
860	0.015
860	0.024
861	0.033
861	0.043
862	0.052
862	0.059
863	0.067
863	0.076
863	0.083
864	0.088
864	0.095
865	0.101
865	0.107
866	0.112
866	0.116
866	0.12
867	0.124
867	0.128
868	0.131
868	0.135
869	0.138
869	0.141
869	0.143
870	0.145
870	0.148
871	0.15
871	0.152
872	0.153
872	0.154
872	0.154
873	0.155
873	0.155
874	0.155
874	0.154
875	0.153
875	0.152
875	0.151
876	0.15
876	0.148
877	0.147
877	0.146
878	0.144
878	0.142
878	0.14
879	0.139
879	0.138
880	0.137
880	0.137
881	0.137
881	0.137
881	0.136
882	0.136
882	0.135
883	0.134
883	0.133
884	0.132
884	0.132
884	0.13
885	0.13
885	0.129
886	0.128
886	0.127
887	0.127
887	0.127
887	0.126
888	0.126
888	0.126
889	0.126
889	0.126
890	0.126
890	0.126
890	0.125
891	0.125
891	0.125
892	0.125
892	0.125
893	0.125
893	0.125
893	0.125
894	0.124
894	0.124
895	0.124
895	0.124
895	0.124
896	0.123
896	0.122
897	0.121
897	0.12
898	0.119
898	0.118
898	0.118
899	0.118
899	0.118
900	0.119
900	0.119
901	0.12
901	0.121
901	0.121
902	0.122
902	0.123
903	0.124
903	0.124
904	0.125
904	0.126
904	0.126
905	0.127
905	0.127
906	0.128
906	0.128
907	0.128
907	0.127
907	0.127
908	0.126
908	0.125
909	0.125
909	0.124
910	0.124
910	0.123
910	0.123
911	0.123
911	0.123
912	0.124
912	0.124
913	0.125
913	0.125
913	0.126
914	0.127
914	0.127
915	0.128
915	0.129
916	0.129
916	0.129
916	0.13
917	0.13
917	0.13
918	0.13
918	0.13
918	0.129
919	0.129
919	0.129
920	0.129
920	0.129
921	0.129
921	0.129
921	0.129
922	0.129
922	0.128
923	0.128
923	0.128
924	0.128
924	0.127
924	0.126
925	0.125
925	0.124
926	0.123
926	0.122
927	0.121
927	0.12
927	0.119
928	0.119
928	0.118
929	0.118
929	0.117
930	0.116
930	0.116
930	0.115
931	0.114
931	0.114
932	0.114
932	0.112
933	0.112
933	0.11
933	0.109
934	0.107
934	0.106
935	0.106
935	0.105
935	0.104
936	0.102
936	0.101
937	0.1
937	0.1
938	0.1
938	0.1
938	0.1
939	0.101
939	0.101
940	0.102
940	0.102
941	0.103
941	0.103
941	0.105
942	0.105
942	0.105
943	0.105
943	0.105
944	0.105
944	0.104
944	0.103
945	0.102
945	0.101
946	0.1
946	0.098
946	0.097
947	0.097
947	0.096
948	0.096
948	0.096
949	0.097
949	0.097
949	0.098
950	0.099
950	0.099
951	0.101
951	0.101
952	0.102
952	0.103
952	0.104
953	0.104
953	0.106
954	0.106
954	0.106
955	0.107
955	0.108
955	0.109
956	0.109
956	0.11
957	0.11
957	0.11
957	0.11
958	0.11
958	0.111
959	0.111
959	0.111
960	0.111
960	0.111
960	0.112
961	0.111
961	0.112
962	0.111
962	0.112
963	0.112
963	0.112
963	0.111
964	0.111
964	0.111
965	0.112
965	0.111
966	0.111
966	0.111
966	0.111
967	0.11
967	0.109
968	0.109
968	0.108
968	0.108
969	0.107
969	0.107
970	0.106
970	0.106
971	0.106
971	0.107
971	0.106
972	0.107
972	0.107
973	0.107
973	0.107
974	0.107
974	0.106
974	0.106
975	0.106
975	0.105
976	0.104
976	0.104
976	0.103
977	0.103
977	0.103
978	0.103
978	0.103
979	0.103
979	0.102
979	0.102
980	0.102
980	0.102
981	0.102
981	0.101
982	0.101
982	0.101
982	0.1
983	0.1
983	0.099
984	0.099
984	0.1
984	0.1
985	0.1
985	0.1
986	0.1
986	0.1
987	0.099
987	0.099
987	0.099
988	0.098
988	0.097
989	0.096
989	0.096
990	0.095
990	0.094
990	0.093
991	0.093
991	0.092
992	0.092
992	0.092
992	0.092
993	0.091
993	0.091
994	0.091
994	0.091
995	0.091
995	0.091
995	0.09
996	0.09
996	0.089
997	0.089
997	0.088
997	0.088
998	0.088
998	0.088
999	0.088
999	0.088
1000	0.089
1000	0.089
1000	0.089
1001	0.09
1001	0.09
1002	0.091
1002	0.091
1003	0.091
1003	0.091
1003	0.091
1004	0.092
1004	0.091
1005	0.09
1005	0.09
1005	0.089
1006	0.087
1006	0.086
1007	0.085
1007	0.084
1008	0.083
1008	0.083
1008	0.082
1009	0.082
1009	0.081
1010	0.082
1010	0.082
1010	0.082
1011	0.081
1011	0.081
1012	0.08
1012	0.08
1013	0.079
1013	0.078
1013	0.077
1014	0.077
1014	0.076
1015	0.075
1015	0.075
1016	0.074
1016	0.073
1016	0.073
1017	0.072
1017	0.071
1018	0.07
1018	0.07
1018	0.069
1019	0.068
1019	0.067
1020	0.066
1020	0.066
1021	0.065
1021	0.064
1021	0.063
1022	0.062
1022	0.062
1023	0.061
1023	0.061
1023	0.06
1024	0.06
1024	0.06
1025	0.06
1025	0.06
1026	0.06
1026	0.061
1026	0.061
1027	0.061
1027	0.062
1028	0.062
1028	0.062
1028	0.062
1029	0.062
1029	0.062
1030	0.062
1030	0.061
1031	0.06
1031	0.06
1031	0.06
1032	0.059
1032	0.059
1033	0.059
1033	0.059
1033	0.059
1034	0.059
1034	0.059
1035	0.059
1035	0.059
1036	0.059
1036	0.06
1036	0.06
1037	0.06
1037	0.06
1038	0.06
1038	0.06
1039	0.06
1039	0.06
1039	0.061
1040	0.062
1040	0.062
1041	0.062
1041	0.062
1041	0.062
1042	0.062
1042	0.061
1043	0.061
1043	0.06
1044	0.06
1044	0.059
1044	0.058
1045	0.057
1045	0.056
1046	0.056
1046	0.055
1046	0.055
1047	0.055
1047	0.055
1048	0.055
1048	0.056
1049	0.056
1049	0.056
1049	0.057
1050	0.057
1050	0.057
1051	0.057
1051	0.057
1051	0.058
1052	0.058
1052	0.058
1053	0.058
1053	0.058
1053	0.058
1054	0.058
1054	0.058
1055	0.058
1055	0.058
1056	0.057
1056	0.057
1056	0.056
1057	0.055
1057	0.054
1058	0.054
1058	0.053
1058	0.053
1059	0.052
1059	0.051
1060	0.05
1060	0.049
1061	0.049
1061	0.049
1061	0.049
1062	0.048
1062	0.048
1063	0.048
1063	0.048
1063	0.049
1064	0.049
1064	0.049
1065	0.049
1065	0.049
1066	0.049
1066	0.049
1066	0.049
1067	0.049
1067	0.048
1068	0.048
1068	0.047
1068	0.046
1069	0.046
1069	0.045
1070	0.045
1070	0.045
1071	0.044
1071	0.044
1071	0.044
1072	0.043
1072	0.043
1073	0.043
1073	0.043
1073	0.042
1074	0.043
1074	0.043
1075	0.042
1075	0.042
1076	0.041
1076	0.041
1076	0.04
1077	0.039
1077	0.039
1078	0.037
1078	0.037
1078	0.036
1079	0.035
1079	0.034
1080	0.033
1080	0.033
1080	0.032
1081	0.031
1081	0.03
1082	0.03
1082	0.029
1083	0.029
1083	0.027
1083	0.027
1084	0.026
1084	0.026
1085	0.025
1085	0.024
1085	0.024
1086	0.023
1086	0.022
1087	0.022
1087	0.022
1088	0.021
1088	0.021
1088	0.02
1089	0.019
1089	0.018
1090	0.016
1090	0.016
1090	0.014
1091	0.013
1091	0.012
1092	0.011
1092	0.01
1092	0.009
1093	0.009
1093	0.009
1094	0.008
1094	0.008
1095	0.006
1095	0.006
1095	0.006
1096	0.004
1096	0.004
1097	0.004
1097	0.003
1097	0.002
1098	0
1098	-0.001
1099	-0.003
1099	-0.003
1100	-0.005
1100	-0.007
1100	-0.009
1101	-0.011
1101	-0.014
1102	-0.016
1102	-0.018
1102	-0.019
1103	-0.021
1103	-0.024
1104	-0.027
1104	-0.029
1104	-0.032
1105	-0.034
1105	-0.038
1106	-0.042
1106	-0.045
1107	-0.05
1107	-0.055
1107	-0.06
1108	-0.061
1108	-0.063
1109	-0.066
1109	-0.07
1109	-0.073
1110	-0.073
1110	-0.076
1111	-0.084
1111	-0.082
