Data from 17C_3.2A_35min_2sec_int_Absorbance__649__02211.txt Node

Date: Mon Jun 19 17:58:10 CEST 2023
User: Marek
Spectrometer: MAYP115816
Trigger mode: 0
Integration Time (sec): 2.500000E-1
Scans to average: 10
Electric dark correction enabled: true
Nonlinearity correction enabled: true
Boxcar width: 5
XAxis mode: Wavelengths
Number of Pixels in Spectrum: 2068
>>>>>Begin Spectral Data<<<<<
199	-0.735
199	-0.753
200	-0.663
200	-0.61
201	-0.573
201	-0.556
202	-0.539
202	-0.527
203	-0.52
203	-0.514
204	-0.499
204	-0.483
205	-0.46
205	-0.453
205	-0.452
206	-0.454
206	-0.457
207	-0.447
207	-0.447
208	-0.448
208	-0.446
209	-0.442
209	-0.442
210	-0.445
210	-0.45
211	-0.451
211	-0.453
212	-0.458
212	-0.466
213	-0.466
213	-0.468
213	-0.475
214	-0.472
214	-0.474
215	-0.474
215	-0.482
216	-0.485
216	-0.494
217	-0.488
217	-0.492
218	-0.496
218	-0.495
219	-0.498
219	-0.505
220	-0.511
220	-0.519
221	-0.514
221	-0.517
221	-0.508
222	-0.505
222	-0.506
223	-0.507
223	-0.51
224	-0.517
224	-0.519
225	-0.511
225	-0.508
226	-0.511
226	-0.511
227	-0.516
227	-0.526
228	-0.528
228	-0.527
229	-0.528
229	-0.519
229	-0.512
230	-0.518
230	-0.521
231	-0.519
231	-0.51
232	-0.504
232	-0.502
233	-0.496
233	-0.497
234	-0.496
234	-0.494
235	-0.497
235	-0.502
236	-0.5
236	-0.501
236	-0.508
237	-0.515
237	-0.515
238	-0.524
238	-0.522
239	-0.523
239	-0.532
240	-0.533
240	-0.531
241	-0.538
241	-0.538
242	-0.546
242	-0.541
243	-0.538
243	-0.539
243	-0.547
244	-0.546
244	-0.545
245	-0.559
245	-0.559
246	-0.563
246	-0.569
247	-0.57
247	-0.572
248	-0.579
248	-0.577
249	-0.581
249	-0.59
250	-0.589
250	-0.583
250	-0.583
251	-0.579
251	-0.578
252	-0.58
252	-0.573
253	-0.577
253	-0.589
254	-0.586
254	-0.583
255	-0.591
255	-0.584
256	-0.584
256	-0.596
257	-0.591
257	-0.589
258	-0.605
258	-0.601
258	-0.594
259	-0.592
259	-0.6
260	-0.6
260	-0.605
261	-0.615
261	-0.605
262	-0.604
262	-0.603
263	-0.59
263	-0.585
264	-0.585
264	-0.593
265	-0.587
265	-0.592
265	-0.595
266	-0.591
266	-0.589
267	-0.602
267	-0.613
268	-0.628
268	-0.638
269	-0.637
269	-0.631
270	-0.639
270	-0.643
271	-0.643
271	-0.649
272	-0.654
272	-0.648
272	-0.639
273	-0.639
273	-0.648
274	-0.653
274	-0.657
275	-0.657
275	-0.651
276	-0.658
276	-0.652
277	-0.656
277	-0.677
278	-0.689
278	-0.682
278	-0.676
279	-0.68
279	-0.691
280	-0.687
280	-0.69
281	-0.684
281	-0.688
282	-0.681
282	-0.678
283	-0.668
283	-0.67
284	-0.664
284	-0.652
285	-0.644
285	-0.644
285	-0.639
286	-0.646
286	-0.64
287	-0.639
287	-0.623
288	-0.615
288	-0.623
289	-0.637
289	-0.647
290	-0.637
290	-0.635
291	-0.631
291	-0.622
292	-0.628
292	-0.631
292	-0.636
293	-0.642
293	-0.63
294	-0.618
294	-0.608
295	-0.607
295	-0.605
296	-0.605
296	-0.604
297	-0.597
297	-0.582
298	-0.575
298	-0.584
298	-0.574
299	-0.567
299	-0.57
300	-0.566
300	-0.558
301	-0.554
301	-0.553
302	-0.56
302	-0.569
303	-0.556
303	-0.541
304	-0.543
304	-0.543
305	-0.543
305	-0.542
305	-0.543
306	-0.527
306	-0.524
307	-0.511
307	-0.513
308	-0.528
308	-0.525
309	-0.526
309	-0.516
310	-0.506
310	-0.502
311	-0.492
311	-0.499
311	-0.495
312	-0.491
312	-0.49
313	-0.473
313	-0.474
314	-0.472
314	-0.475
315	-0.475
315	-0.475
316	-0.474
316	-0.467
317	-0.46
317	-0.456
318	-0.445
318	-0.446
318	-0.442
319	-0.433
319	-0.429
320	-0.423
320	-0.424
321	-0.426
321	-0.424
322	-0.419
322	-0.414
323	-0.413
323	-0.408
324	-0.4
324	-0.392
324	-0.382
325	-0.372
325	-0.356
326	-0.343
326	-0.327
327	-0.311
327	-0.291
328	-0.266
328	-0.244
329	-0.222
329	-0.2
330	-0.173
330	-0.144
330	-0.118
331	-0.091
331	-0.065
332	-0.041
332	-0.02
333	0.002
333	0.025
334	0.043
334	0.059
335	0.075
335	0.089
336	0.103
336	0.116
336	0.125
337	0.135
337	0.144
338	0.151
338	0.156
339	0.163
339	0.168
340	0.172
340	0.176
341	0.18
341	0.183
342	0.186
342	0.189
342	0.192
343	0.194
343	0.196
344	0.198
344	0.199
345	0.2
345	0.201
346	0.202
346	0.203
347	0.203
347	0.204
348	0.205
348	0.205
348	0.205
349	0.205
349	0.206
350	0.206
350	0.206
351	0.206
351	0.206
352	0.206
352	0.206
353	0.206
353	0.206
354	0.206
354	0.206
354	0.205
355	0.205
355	0.205
356	0.205
356	0.205
357	0.204
357	0.204
358	0.204
358	0.204
359	0.204
359	0.204
360	0.203
360	0.203
360	0.203
361	0.203
361	0.203
362	0.203
362	0.203
363	0.203
363	0.203
364	0.203
364	0.203
365	0.203
365	0.203
366	0.203
366	0.203
366	0.203
367	0.204
367	0.203
368	0.203
368	0.203
369	0.203
369	0.203
370	0.203
370	0.203
371	0.203
371	0.203
372	0.202
372	0.202
372	0.202
373	0.202
373	0.202
374	0.202
374	0.202
375	0.202
375	0.203
376	0.202
376	0.202
377	0.202
377	0.202
378	0.202
378	0.202
378	0.202
379	0.202
379	0.202
380	0.202
380	0.202
381	0.202
381	0.201
382	0.201
382	0.201
383	0.201
383	0.201
383	0.201
384	0.201
384	0.201
385	0.201
385	0.201
386	0.201
386	0.201
387	0.201
387	0.201
388	0.201
388	0.201
389	0.201
389	0.201
389	0.201
390	0.201
390	0.201
391	0.201
391	0.201
392	0.201
392	0.201
393	0.201
393	0.201
394	0.201
394	0.2
394	0.2
395	0.2
395	0.2
396	0.2
396	0.2
397	0.199
397	0.199
398	0.2
398	0.2
399	0.2
399	0.2
400	0.2
400	0.199
400	0.199
401	0.199
401	0.199
402	0.199
402	0.199
403	0.199
403	0.199
404	0.199
404	0.198
405	0.198
405	0.198
405	0.198
406	0.198
406	0.198
407	0.198
407	0.198
408	0.198
408	0.198
409	0.198
409	0.198
410	0.198
410	0.198
411	0.198
411	0.198
411	0.198
412	0.198
412	0.198
413	0.198
413	0.198
414	0.198
414	0.198
415	0.198
415	0.197
416	0.197
416	0.197
416	0.197
417	0.197
417	0.197
418	0.197
418	0.197
419	0.197
419	0.197
420	0.197
420	0.197
421	0.198
421	0.197
421	0.197
422	0.197
422	0.198
423	0.197
423	0.197
424	0.197
424	0.196
425	0.196
425	0.196
426	0.195
426	0.195
427	0.195
427	0.195
427	0.195
428	0.195
428	0.195
429	0.195
429	0.195
430	0.195
430	0.195
431	0.195
431	0.194
432	0.194
432	0.194
432	0.194
433	0.194
433	0.194
434	0.194
434	0.194
435	0.194
435	0.194
436	0.193
436	0.193
437	0.193
437	0.193
437	0.193
438	0.193
438	0.193
439	0.193
439	0.193
440	0.193
440	0.193
441	0.193
441	0.193
442	0.192
442	0.192
442	0.192
443	0.192
443	0.192
444	0.192
444	0.192
445	0.192
445	0.192
446	0.193
446	0.193
447	0.193
447	0.193
447	0.193
448	0.193
448	0.193
449	0.193
449	0.193
450	0.194
450	0.193
451	0.193
451	0.193
452	0.193
452	0.193
452	0.193
453	0.193
453	0.192
454	0.192
454	0.192
455	0.192
455	0.192
456	0.192
456	0.191
457	0.191
457	0.191
458	0.191
458	0.191
458	0.191
459	0.191
459	0.191
460	0.191
460	0.191
461	0.191
461	0.191
462	0.191
462	0.191
463	0.191
463	0.191
463	0.191
464	0.191
464	0.191
465	0.191
465	0.191
466	0.192
466	0.192
467	0.192
467	0.192
467	0.192
468	0.192
468	0.192
469	0.192
469	0.192
470	0.193
470	0.193
471	0.193
471	0.193
472	0.193
472	0.193
472	0.193
473	0.193
473	0.193
474	0.193
474	0.193
475	0.194
475	0.194
476	0.194
476	0.194
477	0.194
477	0.194
477	0.194
478	0.194
478	0.194
479	0.195
479	0.195
480	0.195
480	0.195
481	0.195
481	0.195
482	0.196
482	0.196
482	0.196
483	0.197
483	0.197
484	0.197
484	0.197
485	0.197
485	0.197
486	0.198
486	0.198
487	0.199
487	0.199
487	0.199
488	0.2
488	0.2
489	0.201
489	0.203
490	0.204
490	0.204
491	0.205
491	0.205
492	0.206
492	0.207
492	0.207
493	0.208
493	0.208
494	0.209
494	0.21
495	0.21
495	0.21
496	0.211
496	0.212
496	0.213
497	0.214
497	0.214
498	0.215
498	0.216
499	0.216
499	0.217
500	0.219
500	0.22
501	0.22
501	0.221
501	0.221
502	0.222
502	0.223
503	0.224
503	0.225
504	0.225
504	0.226
505	0.227
505	0.228
506	0.229
506	0.23
506	0.231
507	0.232
507	0.232
508	0.233
508	0.234
509	0.235
509	0.236
510	0.237
510	0.238
511	0.239
511	0.24
511	0.241
512	0.242
512	0.243
513	0.244
513	0.245
514	0.246
514	0.247
515	0.248
515	0.248
515	0.249
516	0.25
516	0.251
517	0.252
517	0.253
518	0.254
518	0.255
519	0.256
519	0.257
520	0.258
520	0.259
520	0.26
521	0.261
521	0.262
522	0.263
522	0.264
523	0.265
523	0.266
524	0.267
524	0.267
524	0.267
525	0.268
525	0.268
526	0.269
526	0.27
527	0.27
527	0.271
528	0.272
528	0.273
529	0.273
529	0.274
529	0.275
530	0.276
530	0.277
531	0.278
531	0.278
532	0.279
532	0.279
533	0.28
533	0.28
533	0.28
534	0.281
534	0.281
535	0.281
535	0.281
536	0.281
536	0.281
537	0.28
537	0.28
538	0.281
538	0.281
538	0.282
539	0.282
539	0.283
540	0.283
540	0.283
541	0.283
541	0.283
542	0.284
542	0.284
542	0.284
543	0.284
543	0.283
544	0.283
544	0.283
545	0.283
545	0.283
546	0.284
546	0.283
547	0.283
547	0.283
547	0.283
548	0.283
548	0.283
549	0.283
549	0.283
550	0.283
550	0.283
551	0.283
551	0.284
551	0.285
552	0.285
552	0.286
553	0.286
553	0.287
554	0.287
554	0.286
555	0.286
555	0.287
556	0.287
556	0.286
556	0.286
557	0.286
557	0.285
558	0.285
558	0.285
559	0.284
559	0.284
560	0.284
560	0.284
560	0.284
561	0.284
561	0.284
562	0.284
562	0.283
563	0.283
563	0.283
564	0.283
564	0.283
564	0.283
565	0.283
565	0.283
566	0.283
566	0.284
567	0.284
567	0.284
568	0.284
568	0.283
568	0.283
569	0.283
569	0.283
570	0.282
570	0.281
571	0.281
571	0.28
572	0.28
572	0.279
573	0.279
573	0.279
573	0.279
574	0.279
574	0.279
575	0.279
575	0.28
576	0.28
576	0.279
577	0.279
577	0.279
577	0.28
578	0.28
578	0.28
579	0.281
579	0.282
580	0.281
580	0.28
581	0.279
581	0.279
581	0.279
582	0.28
582	0.28
583	0.28
583	0.28
584	0.279
584	0.278
585	0.279
585	0.28
585	0.28
586	0.28
586	0.281
587	0.28
587	0.28
588	0.279
588	0.28
589	0.28
589	0.28
590	0.28
590	0.281
590	0.282
591	0.282
591	0.281
592	0.281
592	0.28
593	0.281
593	0.281
594	0.28
594	0.28
594	0.28
595	0.281
595	0.28
596	0.281
596	0.282
597	0.283
597	0.283
598	0.283
598	0.283
598	0.283
599	0.283
599	0.282
600	0.281
600	0.281
601	0.28
601	0.28
602	0.279
602	0.279
602	0.279
603	0.28
603	0.281
604	0.282
604	0.282
605	0.283
605	0.284
606	0.283
606	0.283
606	0.283
607	0.282
607	0.282
608	0.282
608	0.281
609	0.28
609	0.281
610	0.28
610	0.28
610	0.281
611	0.281
611	0.282
612	0.283
612	0.284
613	0.284
613	0.284
614	0.283
614	0.282
614	0.282
615	0.281
615	0.281
616	0.28
616	0.28
617	0.279
617	0.278
618	0.277
618	0.277
618	0.277
619	0.277
619	0.278
620	0.278
620	0.278
621	0.278
621	0.278
622	0.277
622	0.277
622	0.277
623	0.276
623	0.277
624	0.276
624	0.275
625	0.275
625	0.275
626	0.274
626	0.274
626	0.274
627	0.273
627	0.272
628	0.271
628	0.27
629	0.269
629	0.268
630	0.266
630	0.264
630	0.263
631	0.261
631	0.259
632	0.257
632	0.255
633	0.253
633	0.251
634	0.248
634	0.246
634	0.244
635	0.241
635	0.238
636	0.235
636	0.232
637	0.229
637	0.225
638	0.221
638	0.217
638	0.213
639	0.208
639	0.204
640	0.199
640	0.194
641	0.189
641	0.184
642	0.179
642	0.175
642	0.17
643	0.165
643	0.159
644	0.153
644	0.147
645	0.141
645	0.135
646	0.129
646	0.122
646	0.115
647	0.108
647	0.101
648	0.094
648	0.086
649	0.079
649	0.071
650	0.063
650	0.056
650	0.047
651	0.036
651	0.024
652	0.009
652	-0.007
653	-0.021
653	-0.034
653	-0.031
654	-0.011
654	-0.002
655	-0.006
655	-0.012
656	-0.018
656	-0.026
657	-0.031
657	-0.035
657	-0.042
658	-0.048
658	-0.078
659	-0.164
659	-0.263
660	-0.308
660	-0.334
661	-0.363
661	-0.393
661	-0.426
662	-0.457
662	-0.491
663	-0.529
663	-0.57
664	-0.613
664	-0.664
665	-0.714
665	-0.771
665	-0.826
666	-0.881
666	-0.942
667	-1.006
667	-1.07
668	-1.141
668	-1.213
669	-1.285
669	-1.356
669	-1.431
670	-1.492
670	-1.504
671	-1.569
671	-1.881
672	-2.142
672	-2.348
672	-2.487
673	-2.586
673	-2.67
674	-2.725
674	-2.747
675	-2.773
675	-2.916
676	-3.123
676	-3.084
676	-2.863
677	-2.664
677	-2.509
678	-2.347
678	-2.088
679	-1.765
679	-1.612
680	-1.511
680	-1.425
680	-1.351
681	-1.304
681	-1.243
682	-1.202
682	-1.165
683	-1.128
683	-1.111
684	-1.089
684	-1.07
684	-1.048
685	-1.025
685	-1.003
686	-0.978
686	-0.963
687	-0.937
687	-0.925
687	-0.905
688	-0.879
688	-0.859
689	-0.838
689	-0.824
690	-0.805
690	-0.793
691	-0.787
691	-0.792
691	-0.807
692	-0.8
692	-0.791
693	-0.788
693	-0.794
694	-0.789
694	-0.782
695	-0.787
695	-0.785
695	-0.767
696	-0.762
696	-0.742
697	-0.742
697	-0.756
698	-0.758
698	-0.749
698	-0.764
699	-0.765
699	-0.763
700	-0.755
700	-0.77
701	-0.771
701	-0.777
702	-0.776
702	-0.766
702	-0.758
703	-0.752
703	-0.742
704	-0.74
704	-0.739
705	-0.75
705	-0.744
705	-0.731
706	-0.73
706	-0.726
707	-0.73
707	-0.725
708	-0.725
708	-0.718
709	-0.721
709	-0.721
709	-0.713
710	-0.721
710	-0.731
711	-0.722
711	-0.723
712	-0.722
712	-0.736
713	-0.733
713	-0.74
713	-0.731
714	-0.729
714	-0.73
715	-0.719
715	-0.707
716	-0.715
716	-0.717
716	-0.71
717	-0.711
717	-0.713
718	-0.704
718	-0.704
719	-0.712
719	-0.714
720	-0.71
720	-0.717
720	-0.712
721	-0.701
721	-0.701
722	-0.687
722	-0.678
723	-0.676
723	-0.681
723	-0.666
724	-0.67
724	-0.674
725	-0.674
725	-0.682
726	-0.695
726	-0.7
727	-0.707
727	-0.721
727	-0.729
728	-0.729
728	-0.736
729	-0.736
729	-0.74
730	-0.748
730	-0.74
730	-0.73
731	-0.711
731	-0.721
732	-0.725
732	-0.725
733	-0.723
733	-0.728
734	-0.722
734	-0.721
734	-0.707
735	-0.705
735	-0.708
736	-0.719
736	-0.705
737	-0.698
737	-0.698
737	-0.709
738	-0.705
738	-0.706
739	-0.704
739	-0.717
740	-0.717
740	-0.714
741	-0.712
741	-0.711
741	-0.713
742	-0.713
742	-0.712
743	-0.718
743	-0.721
744	-0.717
744	-0.706
744	-0.707
745	-0.713
745	-0.705
746	-0.704
746	-0.701
747	-0.703
747	-0.69
748	-0.678
748	-0.684
748	-0.687
749	-0.685
749	-0.687
750	-0.676
750	-0.678
751	-0.683
751	-0.692
751	-0.691
752	-0.697
752	-0.707
753	-0.702
753	-0.699
754	-0.704
754	-0.697
754	-0.712
755	-0.729
755	-0.741
756	-0.73
756	-0.728
757	-0.725
757	-0.72
758	-0.722
758	-0.717
758	-0.72
759	-0.727
759	-0.709
760	-0.7
760	-0.696
761	-0.705
761	-0.703
761	-0.7
762	-0.709
762	-0.708
763	-0.721
763	-0.72
764	-0.718
764	-0.727
764	-0.733
765	-0.723
765	-0.71
766	-0.715
766	-0.721
767	-0.736
767	-0.731
768	-0.72
768	-0.727
768	-0.733
769	-0.749
769	-0.752
770	-0.755
770	-0.767
771	-0.766
771	-0.771
771	-0.772
772	-0.775
772	-0.776
773	-0.776
773	-0.772
774	-0.773
774	-0.774
775	-0.778
775	-0.775
775	-0.783
776	-0.781
776	-0.769
777	-0.778
777	-0.797
778	-0.792
778	-0.81
778	-0.794
779	-0.815
779	-0.821
780	-0.834
780	-0.834
781	-0.848
781	-0.844
781	-0.859
782	-0.86
782	-0.863
783	-0.851
783	-0.85
784	-0.831
784	-0.822
784	-0.831
785	-0.836
785	-0.819
786	-0.825
786	-0.803
787	-0.788
787	-0.792
788	-0.793
788	-0.805
788	-0.816
789	-0.817
789	-0.799
790	-0.78
790	-0.784
791	-0.784
791	-0.802
791	-0.811
792	-0.803
792	-0.78
793	-0.768
793	-0.746
794	-0.75
794	-0.742
794	-0.754
795	-0.748
795	-0.741
796	-0.724
796	-0.731
797	-0.725
797	-0.738
797	-0.747
798	-0.757
798	-0.752
799	-0.761
799	-0.746
800	-0.752
800	-0.744
801	-0.749
801	-0.734
801	-0.742
802	-0.747
802	-0.745
803	-0.747
803	-0.755
804	-0.751
804	-0.761
804	-0.747
805	-0.753
805	-0.742
806	-0.745
806	-0.73
807	-0.732
807	-0.714
807	-0.701
808	-0.692
808	-0.684
809	-0.671
809	-0.68
810	-0.676
810	-0.668
810	-0.666
811	-0.672
811	-0.663
812	-0.664
812	-0.669
813	-0.675
813	-0.673
813	-0.675
814	-0.678
814	-0.682
815	-0.687
815	-0.69
816	-0.684
816	-0.69
817	-0.697
817	-0.715
817	-0.727
818	-0.734
818	-0.738
819	-0.73
819	-0.731
820	-0.741
820	-0.737
820	-0.747
821	-0.744
821	-0.731
822	-0.698
822	-0.674
823	-0.67
823	-0.672
823	-0.67
824	-0.665
824	-0.665
825	-0.658
825	-0.638
826	-0.634
826	-0.642
826	-0.652
827	-0.648
827	-0.643
828	-0.624
828	-0.625
829	-0.616
829	-0.603
829	-0.594
830	-0.603
830	-0.6
831	-0.589
831	-0.58
832	-0.578
832	-0.57
832	-0.576
833	-0.569
833	-0.569
834	-0.566
834	-0.573
835	-0.562
835	-0.555
835	-0.552
836	-0.551
836	-0.548
837	-0.548
837	-0.539
838	-0.532
838	-0.519
839	-0.506
839	-0.496
839	-0.486
840	-0.475
840	-0.472
841	-0.459
841	-0.449
842	-0.442
842	-0.432
842	-0.424
843	-0.419
843	-0.415
844	-0.403
844	-0.395
845	-0.385
845	-0.375
845	-0.362
846	-0.351
846	-0.336
847	-0.322
847	-0.312
848	-0.3
848	-0.288
848	-0.273
849	-0.262
849	-0.251
850	-0.235
850	-0.228
851	-0.219
851	-0.207
851	-0.199
852	-0.182
852	-0.168
853	-0.158
853	-0.152
854	-0.139
854	-0.127
854	-0.116
855	-0.104
855	-0.096
856	-0.086
856	-0.077
857	-0.07
857	-0.061
857	-0.05
858	-0.038
858	-0.033
859	-0.024
859	-0.013
860	-0.003
860	0.01
860	0.019
861	0.029
861	0.04
862	0.047
862	0.055
863	0.063
863	0.073
863	0.081
864	0.086
864	0.093
865	0.099
865	0.105
866	0.11
866	0.112
866	0.116
867	0.12
867	0.125
868	0.127
868	0.131
869	0.135
869	0.137
869	0.14
870	0.142
870	0.145
871	0.148
871	0.149
872	0.15
872	0.151
872	0.151
873	0.152
873	0.152
874	0.152
874	0.151
875	0.15
875	0.149
875	0.148
876	0.147
876	0.146
877	0.144
877	0.143
878	0.141
878	0.139
878	0.137
879	0.136
879	0.135
880	0.134
880	0.133
881	0.133
881	0.133
881	0.132
882	0.131
882	0.13
883	0.129
883	0.128
884	0.127
884	0.126
884	0.125
885	0.124
885	0.124
886	0.123
886	0.122
887	0.122
887	0.122
887	0.122
888	0.122
888	0.121
889	0.122
889	0.122
890	0.122
890	0.122
890	0.121
891	0.121
891	0.121
892	0.122
892	0.122
893	0.122
893	0.122
893	0.122
894	0.121
894	0.121
895	0.121
895	0.121
895	0.121
896	0.12
896	0.119
897	0.118
897	0.117
898	0.116
898	0.115
898	0.115
899	0.115
899	0.115
900	0.116
900	0.116
901	0.117
901	0.118
901	0.118
902	0.119
902	0.12
903	0.12
903	0.121
904	0.121
904	0.122
904	0.122
905	0.123
905	0.123
906	0.124
906	0.124
907	0.124
907	0.123
907	0.123
908	0.122
908	0.122
909	0.121
909	0.12
910	0.12
910	0.119
910	0.119
911	0.119
911	0.119
912	0.12
912	0.12
913	0.12
913	0.121
913	0.122
914	0.123
914	0.123
915	0.124
915	0.125
916	0.125
916	0.125
916	0.125
917	0.126
917	0.126
918	0.125
918	0.125
918	0.125
919	0.124
919	0.124
920	0.124
920	0.124
921	0.125
921	0.124
921	0.125
922	0.124
922	0.124
923	0.124
923	0.124
924	0.124
924	0.123
924	0.123
925	0.122
925	0.12
926	0.119
926	0.118
927	0.117
927	0.116
927	0.116
928	0.115
928	0.114
929	0.114
929	0.113
930	0.112
930	0.112
930	0.111
931	0.111
931	0.111
932	0.11
932	0.109
933	0.109
933	0.107
933	0.106
934	0.105
934	0.104
935	0.103
935	0.102
935	0.101
936	0.1
936	0.099
937	0.098
937	0.097
938	0.097
938	0.097
938	0.097
939	0.098
939	0.098
940	0.098
940	0.099
941	0.099
941	0.1
941	0.101
942	0.101
942	0.101
943	0.102
943	0.101
944	0.101
944	0.1
944	0.099
945	0.099
945	0.098
946	0.097
946	0.095
946	0.094
947	0.093
947	0.093
948	0.093
948	0.093
949	0.093
949	0.094
949	0.094
950	0.095
950	0.096
951	0.097
951	0.098
952	0.099
952	0.1
952	0.1
953	0.101
953	0.102
954	0.102
954	0.103
955	0.103
955	0.105
955	0.105
956	0.106
956	0.107
957	0.107
957	0.107
957	0.108
958	0.108
958	0.109
959	0.109
959	0.109
960	0.109
960	0.108
960	0.109
961	0.108
961	0.109
962	0.109
962	0.108
963	0.108
963	0.108
963	0.108
964	0.108
964	0.108
965	0.108
965	0.108
966	0.108
966	0.108
966	0.108
967	0.108
967	0.107
968	0.106
968	0.105
968	0.105
969	0.104
969	0.104
970	0.103
970	0.103
971	0.103
971	0.103
971	0.103
972	0.103
972	0.103
973	0.104
973	0.103
974	0.103
974	0.103
974	0.103
975	0.103
975	0.102
976	0.101
976	0.101
976	0.101
977	0.1
977	0.1
978	0.1
978	0.1
979	0.1
979	0.099
979	0.099
980	0.099
980	0.099
981	0.099
981	0.098
982	0.098
982	0.098
982	0.097
983	0.097
983	0.097
984	0.097
984	0.097
984	0.097
985	0.097
985	0.097
986	0.097
986	0.097
987	0.097
987	0.097
987	0.096
988	0.095
988	0.095
989	0.094
989	0.093
990	0.092
990	0.091
990	0.09
991	0.089
991	0.089
992	0.089
992	0.088
992	0.088
993	0.088
993	0.088
994	0.088
994	0.088
995	0.088
995	0.087
995	0.087
996	0.086
996	0.086
997	0.085
997	0.085
997	0.085
998	0.085
998	0.085
999	0.085
999	0.085
1000	0.085
1000	0.086
1000	0.086
1001	0.087
1001	0.087
1002	0.087
1002	0.088
1003	0.088
1003	0.088
1003	0.088
1004	0.088
1004	0.087
1005	0.087
1005	0.086
1005	0.085
1006	0.084
1006	0.083
1007	0.081
1007	0.081
1008	0.08
1008	0.079
1008	0.078
1009	0.078
1009	0.078
1010	0.078
1010	0.078
1010	0.077
1011	0.078
1011	0.077
1012	0.077
1012	0.076
1013	0.076
1013	0.075
1013	0.074
1014	0.073
1014	0.072
1015	0.071
1015	0.071
1016	0.07
1016	0.07
1016	0.069
1017	0.068
1017	0.067
1018	0.067
1018	0.066
1018	0.066
1019	0.065
1019	0.064
1020	0.064
1020	0.063
1021	0.062
1021	0.061
1021	0.06
1022	0.059
1022	0.058
1023	0.058
1023	0.057
1023	0.057
1024	0.057
1024	0.057
1025	0.057
1025	0.057
1026	0.058
1026	0.058
1026	0.058
1027	0.059
1027	0.059
1028	0.059
1028	0.059
1028	0.058
1029	0.058
1029	0.058
1030	0.057
1030	0.056
1031	0.056
1031	0.056
1031	0.055
1032	0.055
1032	0.055
1033	0.056
1033	0.056
1033	0.056
1034	0.056
1034	0.056
1035	0.056
1035	0.056
1036	0.056
1036	0.056
1036	0.055
1037	0.055
1037	0.055
1038	0.056
1038	0.056
1039	0.056
1039	0.056
1039	0.056
1040	0.057
1040	0.057
1041	0.058
1041	0.058
1041	0.058
1042	0.058
1042	0.058
1043	0.057
1043	0.057
1044	0.056
1044	0.056
1044	0.055
1045	0.054
1045	0.054
1046	0.053
1046	0.052
1046	0.052
1047	0.052
1047	0.053
1048	0.053
1048	0.053
1049	0.053
1049	0.053
1049	0.053
1050	0.054
1050	0.054
1051	0.054
1051	0.054
1051	0.055
1052	0.055
1052	0.055
1053	0.055
1053	0.055
1053	0.055
1054	0.055
1054	0.055
1055	0.054
1055	0.054
1056	0.053
1056	0.052
1056	0.051
1057	0.05
1057	0.05
1058	0.049
1058	0.049
1058	0.048
1059	0.048
1059	0.047
1060	0.046
1060	0.046
1061	0.046
1061	0.046
1061	0.046
1062	0.046
1062	0.045
1063	0.045
1063	0.046
1063	0.046
1064	0.046
1064	0.046
1065	0.046
1065	0.046
1066	0.046
1066	0.046
1066	0.045
1067	0.045
1067	0.045
1068	0.044
1068	0.043
1068	0.043
1069	0.043
1069	0.042
1070	0.042
1070	0.042
1071	0.041
1071	0.041
1071	0.04
1072	0.04
1072	0.04
1073	0.039
1073	0.039
1073	0.039
1074	0.039
1074	0.039
1075	0.039
1075	0.039
1076	0.038
1076	0.038
1076	0.038
1077	0.037
1077	0.037
1078	0.036
1078	0.035
1078	0.034
1079	0.033
1079	0.033
1080	0.031
1080	0.031
1080	0.03
1081	0.029
1081	0.029
1082	0.028
1082	0.027
1083	0.026
1083	0.025
1083	0.024
1084	0.022
1084	0.022
1085	0.02
1085	0.02
1085	0.019
1086	0.019
1086	0.018
1087	0.018
1087	0.018
1088	0.017
1088	0.017
1088	0.017
1089	0.015
1089	0.015
1090	0.013
1090	0.013
1090	0.011
1091	0.01
1091	0.009
1092	0.008
1092	0.008
1092	0.007
1093	0.006
1093	0.006
1094	0.006
1094	0.005
1095	0.004
1095	0.004
1095	0.004
1096	0.003
1096	0.001
1097	0.001
1097	-0
1097	-0.001
1098	-0.003
1098	-0.005
1099	-0.005
1099	-0.007
1100	-0.009
1100	-0.011
1100	-0.012
1101	-0.015
1101	-0.018
1102	-0.02
1102	-0.022
1102	-0.023
1103	-0.026
1103	-0.029
1104	-0.031
1104	-0.034
1104	-0.036
1105	-0.039
1105	-0.041
1106	-0.046
1106	-0.048
1107	-0.053
1107	-0.058
1107	-0.063
1108	-0.065
1108	-0.066
1109	-0.07
1109	-0.074
1109	-0.077
1110	-0.079
1110	-0.082
1111	-0.087
1111	-0.085
