Data from 17C_3.2A_35min_2sec_int_Absorbance__27__01589.txt Node

Date: Mon Jun 19 17:32:15 CEST 2023
User: Marek
Spectrometer: MAYP115816
Trigger mode: 0
Integration Time (sec): 2.500000E-1
Scans to average: 10
Electric dark correction enabled: true
Nonlinearity correction enabled: true
Boxcar width: 5
XAxis mode: Wavelengths
Number of Pixels in Spectrum: 2068
>>>>>Begin Spectral Data<<<<<
199	-0.737
199	-0.748
200	-0.65
200	-0.592
201	-0.554
201	-0.539
202	-0.52
202	-0.506
203	-0.496
203	-0.491
204	-0.476
204	-0.461
205	-0.436
205	-0.432
205	-0.431
206	-0.435
206	-0.437
207	-0.429
207	-0.431
208	-0.432
208	-0.431
209	-0.423
209	-0.425
210	-0.429
210	-0.433
211	-0.434
211	-0.436
212	-0.438
212	-0.446
213	-0.442
213	-0.444
213	-0.451
214	-0.45
214	-0.449
215	-0.449
215	-0.455
216	-0.457
216	-0.463
217	-0.46
217	-0.465
218	-0.469
218	-0.469
219	-0.469
219	-0.48
220	-0.484
220	-0.493
221	-0.492
221	-0.496
221	-0.489
222	-0.485
222	-0.485
223	-0.488
223	-0.494
224	-0.497
224	-0.497
225	-0.493
225	-0.486
226	-0.49
226	-0.49
227	-0.496
227	-0.504
228	-0.504
228	-0.505
229	-0.504
229	-0.498
229	-0.494
230	-0.496
230	-0.499
231	-0.493
231	-0.484
232	-0.478
232	-0.479
233	-0.474
233	-0.474
234	-0.473
234	-0.47
235	-0.472
235	-0.478
236	-0.477
236	-0.481
236	-0.488
237	-0.494
237	-0.495
238	-0.503
238	-0.499
239	-0.499
239	-0.507
240	-0.506
240	-0.504
241	-0.51
241	-0.508
242	-0.513
242	-0.51
243	-0.505
243	-0.506
243	-0.514
244	-0.515
244	-0.515
245	-0.53
245	-0.529
246	-0.531
246	-0.537
247	-0.538
247	-0.542
248	-0.547
248	-0.543
249	-0.546
249	-0.552
250	-0.549
250	-0.543
250	-0.544
251	-0.541
251	-0.539
252	-0.541
252	-0.532
253	-0.537
253	-0.549
254	-0.549
254	-0.548
255	-0.555
255	-0.548
256	-0.545
256	-0.56
257	-0.557
257	-0.554
258	-0.572
258	-0.565
258	-0.561
259	-0.557
259	-0.565
260	-0.566
260	-0.57
261	-0.582
261	-0.569
262	-0.567
262	-0.568
263	-0.554
263	-0.552
264	-0.554
264	-0.562
265	-0.556
265	-0.563
265	-0.57
266	-0.565
266	-0.563
267	-0.577
267	-0.585
268	-0.602
268	-0.61
269	-0.606
269	-0.601
270	-0.605
270	-0.608
271	-0.608
271	-0.615
272	-0.621
272	-0.615
272	-0.608
273	-0.606
273	-0.616
274	-0.621
274	-0.626
275	-0.628
275	-0.621
276	-0.625
276	-0.614
277	-0.619
277	-0.635
278	-0.645
278	-0.639
278	-0.633
279	-0.636
279	-0.646
280	-0.643
280	-0.642
281	-0.637
281	-0.645
282	-0.637
282	-0.638
283	-0.629
283	-0.63
284	-0.625
284	-0.612
285	-0.61
285	-0.607
285	-0.605
286	-0.612
286	-0.607
287	-0.603
287	-0.587
288	-0.578
288	-0.586
289	-0.598
289	-0.608
290	-0.595
290	-0.593
291	-0.588
291	-0.582
292	-0.586
292	-0.592
292	-0.597
293	-0.605
293	-0.594
294	-0.58
294	-0.57
295	-0.567
295	-0.567
296	-0.568
296	-0.566
297	-0.558
297	-0.542
298	-0.534
298	-0.54
298	-0.529
299	-0.525
299	-0.528
300	-0.524
300	-0.519
301	-0.511
301	-0.513
302	-0.52
302	-0.529
303	-0.517
303	-0.502
304	-0.503
304	-0.502
305	-0.502
305	-0.5
305	-0.499
306	-0.485
306	-0.478
307	-0.466
307	-0.465
308	-0.479
308	-0.479
309	-0.482
309	-0.471
310	-0.461
310	-0.457
311	-0.448
311	-0.457
311	-0.454
312	-0.449
312	-0.449
313	-0.437
313	-0.438
314	-0.433
314	-0.435
315	-0.437
315	-0.436
316	-0.434
316	-0.427
317	-0.418
317	-0.412
318	-0.4
318	-0.394
318	-0.39
319	-0.382
319	-0.378
320	-0.368
320	-0.37
321	-0.372
321	-0.37
322	-0.364
322	-0.357
323	-0.357
323	-0.353
324	-0.345
324	-0.334
324	-0.322
325	-0.314
325	-0.296
326	-0.281
326	-0.261
327	-0.245
327	-0.223
328	-0.195
328	-0.173
329	-0.148
329	-0.122
330	-0.093
330	-0.057
330	-0.027
331	0.006
331	0.037
332	0.064
332	0.09
333	0.116
333	0.145
334	0.169
334	0.189
335	0.209
335	0.227
336	0.244
336	0.26
336	0.273
337	0.287
337	0.299
338	0.309
338	0.315
339	0.326
339	0.333
340	0.339
340	0.345
341	0.349
341	0.353
342	0.358
342	0.362
342	0.366
343	0.368
343	0.372
344	0.374
344	0.376
345	0.377
345	0.378
346	0.379
346	0.38
347	0.382
347	0.382
348	0.382
348	0.383
348	0.383
349	0.383
349	0.383
350	0.384
350	0.384
351	0.384
351	0.384
352	0.384
352	0.384
353	0.384
353	0.384
354	0.384
354	0.383
354	0.383
355	0.383
355	0.383
356	0.383
356	0.383
357	0.382
357	0.382
358	0.381
358	0.381
359	0.381
359	0.38
360	0.38
360	0.38
360	0.379
361	0.379
361	0.378
362	0.378
362	0.378
363	0.378
363	0.377
364	0.377
364	0.377
365	0.376
365	0.376
366	0.376
366	0.375
366	0.375
367	0.375
367	0.374
368	0.374
368	0.373
369	0.373
369	0.373
370	0.372
370	0.372
371	0.371
371	0.371
372	0.371
372	0.37
372	0.37
373	0.37
373	0.37
374	0.369
374	0.369
375	0.369
375	0.368
376	0.368
376	0.367
377	0.367
377	0.367
378	0.366
378	0.366
378	0.365
379	0.365
379	0.364
380	0.364
380	0.363
381	0.363
381	0.363
382	0.362
382	0.361
383	0.361
383	0.36
383	0.36
384	0.359
384	0.359
385	0.358
385	0.358
386	0.358
386	0.357
387	0.357
387	0.356
388	0.356
388	0.356
389	0.356
389	0.356
389	0.355
390	0.355
390	0.354
391	0.354
391	0.354
392	0.353
392	0.353
393	0.353
393	0.352
394	0.351
394	0.351
394	0.35
395	0.349
395	0.349
396	0.348
396	0.348
397	0.347
397	0.347
398	0.346
398	0.346
399	0.346
399	0.345
400	0.345
400	0.345
400	0.344
401	0.344
401	0.344
402	0.343
402	0.343
403	0.343
403	0.342
404	0.342
404	0.342
405	0.342
405	0.341
405	0.341
406	0.34
406	0.34
407	0.34
407	0.339
408	0.339
408	0.339
409	0.338
409	0.338
410	0.338
410	0.338
411	0.338
411	0.337
411	0.337
412	0.337
412	0.337
413	0.337
413	0.337
414	0.336
414	0.336
415	0.336
415	0.335
416	0.335
416	0.335
416	0.334
417	0.334
417	0.334
418	0.333
418	0.333
419	0.333
419	0.333
420	0.333
420	0.333
421	0.333
421	0.333
421	0.333
422	0.333
422	0.333
423	0.332
423	0.332
424	0.332
424	0.331
425	0.331
425	0.33
426	0.33
426	0.33
427	0.33
427	0.329
427	0.329
428	0.329
428	0.329
429	0.329
429	0.329
430	0.329
430	0.328
431	0.328
431	0.328
432	0.328
432	0.328
432	0.328
433	0.327
433	0.327
434	0.327
434	0.327
435	0.327
435	0.327
436	0.327
436	0.327
437	0.327
437	0.327
437	0.327
438	0.327
438	0.327
439	0.327
439	0.327
440	0.327
440	0.327
441	0.327
441	0.327
442	0.327
442	0.327
442	0.327
443	0.327
443	0.327
444	0.327
444	0.327
445	0.327
445	0.328
446	0.328
446	0.328
447	0.328
447	0.329
447	0.329
448	0.329
448	0.329
449	0.329
449	0.33
450	0.33
450	0.33
451	0.33
451	0.33
452	0.33
452	0.331
452	0.331
453	0.331
453	0.331
454	0.33
454	0.331
455	0.331
455	0.331
456	0.331
456	0.331
457	0.332
457	0.332
458	0.332
458	0.333
458	0.333
459	0.334
459	0.334
460	0.334
460	0.334
461	0.335
461	0.335
462	0.336
462	0.336
463	0.337
463	0.337
463	0.338
464	0.338
464	0.338
465	0.339
465	0.34
466	0.34
466	0.341
467	0.342
467	0.342
467	0.343
468	0.343
468	0.344
469	0.345
469	0.346
470	0.347
470	0.348
471	0.349
471	0.35
472	0.351
472	0.352
472	0.353
473	0.353
473	0.355
474	0.355
474	0.356
475	0.357
475	0.359
476	0.36
476	0.361
477	0.362
477	0.363
477	0.364
478	0.366
478	0.367
479	0.368
479	0.37
480	0.371
480	0.372
481	0.374
481	0.375
482	0.377
482	0.379
482	0.38
483	0.382
483	0.384
484	0.386
484	0.387
485	0.389
485	0.391
486	0.393
486	0.395
487	0.397
487	0.399
487	0.401
488	0.403
488	0.405
489	0.408
489	0.411
490	0.414
490	0.416
491	0.419
491	0.422
492	0.424
492	0.427
492	0.43
493	0.433
493	0.436
494	0.439
494	0.442
495	0.444
495	0.447
496	0.45
496	0.454
496	0.457
497	0.46
497	0.464
498	0.467
498	0.47
499	0.473
499	0.477
500	0.481
500	0.484
501	0.488
501	0.491
501	0.494
502	0.498
502	0.501
503	0.505
503	0.508
504	0.512
504	0.515
505	0.519
505	0.523
506	0.527
506	0.53
506	0.534
507	0.538
507	0.541
508	0.545
508	0.549
509	0.553
509	0.557
510	0.56
510	0.564
511	0.568
511	0.572
511	0.575
512	0.579
512	0.582
513	0.586
513	0.589
514	0.592
514	0.596
515	0.599
515	0.602
515	0.604
516	0.608
516	0.611
517	0.614
517	0.616
518	0.619
518	0.621
519	0.623
519	0.626
520	0.628
520	0.63
520	0.633
521	0.635
521	0.637
522	0.638
522	0.64
523	0.642
523	0.644
524	0.645
524	0.645
524	0.646
525	0.646
525	0.647
526	0.647
526	0.647
527	0.648
527	0.648
528	0.648
528	0.647
529	0.647
529	0.646
529	0.646
530	0.646
530	0.645
531	0.644
531	0.643
532	0.641
532	0.64
533	0.639
533	0.637
533	0.635
534	0.633
534	0.63
535	0.628
535	0.626
536	0.622
536	0.619
537	0.615
537	0.612
538	0.609
538	0.605
538	0.602
539	0.599
539	0.595
540	0.592
540	0.588
541	0.584
541	0.58
542	0.576
542	0.572
542	0.567
543	0.563
543	0.558
544	0.553
544	0.549
545	0.544
545	0.54
546	0.535
546	0.53
547	0.525
547	0.52
547	0.515
548	0.511
548	0.506
549	0.501
549	0.496
550	0.491
550	0.486
551	0.481
551	0.476
551	0.471
552	0.467
552	0.462
553	0.457
553	0.452
554	0.447
554	0.442
555	0.437
555	0.432
556	0.427
556	0.422
556	0.417
557	0.412
557	0.406
558	0.401
558	0.395
559	0.39
559	0.385
560	0.379
560	0.375
560	0.37
561	0.365
561	0.36
562	0.355
562	0.351
563	0.346
563	0.342
564	0.337
564	0.332
564	0.328
565	0.324
565	0.32
566	0.315
566	0.31
567	0.306
567	0.301
568	0.297
568	0.292
568	0.288
569	0.283
569	0.279
570	0.274
570	0.27
571	0.266
571	0.263
572	0.259
572	0.255
573	0.251
573	0.248
573	0.244
574	0.241
574	0.238
575	0.235
575	0.232
576	0.229
576	0.225
577	0.221
577	0.219
577	0.216
578	0.214
578	0.211
579	0.209
579	0.206
580	0.202
580	0.198
581	0.195
581	0.192
581	0.19
582	0.188
582	0.186
583	0.184
583	0.181
584	0.178
584	0.174
585	0.173
585	0.171
585	0.169
586	0.167
586	0.165
587	0.163
587	0.161
588	0.159
588	0.157
589	0.155
589	0.153
590	0.151
590	0.149
590	0.148
591	0.146
591	0.143
592	0.141
592	0.139
593	0.137
593	0.136
594	0.134
594	0.133
594	0.131
595	0.13
595	0.128
596	0.127
596	0.126
597	0.125
597	0.124
598	0.122
598	0.12
598	0.119
599	0.117
599	0.115
600	0.114
600	0.112
601	0.111
601	0.109
602	0.107
602	0.106
602	0.105
603	0.105
603	0.105
604	0.104
604	0.104
605	0.103
605	0.103
606	0.101
606	0.1
606	0.099
607	0.098
607	0.097
608	0.095
608	0.093
609	0.092
609	0.092
610	0.091
610	0.09
610	0.089
611	0.089
611	0.089
612	0.089
612	0.089
613	0.088
613	0.088
614	0.086
614	0.084
614	0.083
615	0.082
615	0.081
616	0.08
616	0.079
617	0.078
617	0.077
618	0.076
618	0.075
618	0.075
619	0.075
619	0.075
620	0.075
620	0.075
621	0.074
621	0.074
622	0.073
622	0.073
622	0.072
623	0.072
623	0.072
624	0.072
624	0.071
625	0.07
625	0.07
626	0.07
626	0.07
626	0.07
627	0.07
627	0.069
628	0.069
628	0.068
629	0.067
629	0.067
630	0.066
630	0.065
630	0.065
631	0.064
631	0.063
632	0.062
632	0.062
633	0.062
633	0.061
634	0.061
634	0.061
634	0.06
635	0.059
635	0.059
636	0.058
636	0.057
637	0.057
637	0.056
638	0.055
638	0.053
638	0.052
639	0.051
639	0.05
640	0.049
640	0.048
641	0.046
641	0.045
642	0.045
642	0.043
642	0.042
643	0.041
643	0.04
644	0.039
644	0.038
645	0.036
645	0.035
646	0.034
646	0.032
646	0.03
647	0.029
647	0.027
648	0.025
648	0.024
649	0.021
649	0.018
650	0.015
650	0.012
650	0.008
651	0.004
651	-0.001
652	-0.006
652	-0.012
653	-0.016
653	-0.022
653	-0.021
654	-0.02
654	-0.023
655	-0.028
655	-0.032
656	-0.035
656	-0.04
657	-0.043
657	-0.045
657	-0.05
658	-0.053
658	-0.068
659	-0.102
659	-0.137
660	-0.156
660	-0.17
661	-0.186
661	-0.201
661	-0.218
662	-0.233
662	-0.248
663	-0.262
663	-0.279
664	-0.294
664	-0.318
665	-0.334
665	-0.357
665	-0.376
666	-0.395
666	-0.419
667	-0.444
667	-0.469
668	-0.503
668	-0.541
669	-0.579
669	-0.612
669	-0.642
670	-0.629
670	-0.546
671	-0.701
671	-1.225
672	-1.748
672	-2.109
672	-2.318
673	-2.396
673	-2.421
674	-2.438
674	-2.453
675	-2.479
675	-2.625
676	-2.837
676	-2.82
676	-2.574
677	-2.263
677	-1.827
678	-1.253
678	-0.917
679	-0.802
679	-0.748
680	-0.716
680	-0.687
680	-0.664
681	-0.662
681	-0.641
682	-0.64
682	-0.634
683	-0.626
683	-0.641
684	-0.647
684	-0.655
684	-0.656
685	-0.655
685	-0.655
686	-0.648
686	-0.652
687	-0.639
687	-0.644
687	-0.64
688	-0.626
688	-0.618
689	-0.608
689	-0.601
690	-0.589
690	-0.585
691	-0.587
691	-0.597
691	-0.62
692	-0.62
692	-0.616
693	-0.616
693	-0.629
694	-0.626
694	-0.625
695	-0.635
695	-0.636
695	-0.623
696	-0.624
696	-0.605
697	-0.609
697	-0.627
698	-0.633
698	-0.626
698	-0.643
699	-0.648
699	-0.65
700	-0.643
700	-0.658
701	-0.659
701	-0.666
702	-0.666
702	-0.657
702	-0.651
703	-0.644
703	-0.637
704	-0.637
704	-0.636
705	-0.649
705	-0.645
705	-0.634
706	-0.638
706	-0.636
707	-0.641
707	-0.638
708	-0.639
708	-0.632
709	-0.636
709	-0.64
709	-0.632
710	-0.641
710	-0.652
711	-0.644
711	-0.646
712	-0.648
712	-0.662
713	-0.662
713	-0.67
713	-0.661
714	-0.659
714	-0.662
715	-0.652
715	-0.639
716	-0.645
716	-0.648
716	-0.641
717	-0.643
717	-0.646
718	-0.639
718	-0.642
719	-0.649
719	-0.65
720	-0.648
720	-0.656
720	-0.652
721	-0.642
721	-0.643
722	-0.631
722	-0.621
723	-0.62
723	-0.621
723	-0.609
724	-0.614
724	-0.617
725	-0.619
725	-0.625
726	-0.635
726	-0.64
727	-0.645
727	-0.661
727	-0.667
728	-0.669
728	-0.677
729	-0.676
729	-0.681
730	-0.689
730	-0.683
730	-0.674
731	-0.658
731	-0.669
732	-0.674
732	-0.676
733	-0.674
733	-0.679
734	-0.674
734	-0.675
734	-0.662
735	-0.662
735	-0.663
736	-0.676
736	-0.662
737	-0.654
737	-0.657
737	-0.667
738	-0.664
738	-0.665
739	-0.665
739	-0.676
740	-0.674
740	-0.676
741	-0.669
741	-0.67
741	-0.675
742	-0.67
742	-0.672
743	-0.679
743	-0.685
744	-0.68
744	-0.672
744	-0.674
745	-0.682
745	-0.677
746	-0.676
746	-0.671
747	-0.674
747	-0.663
748	-0.647
748	-0.651
748	-0.653
749	-0.651
749	-0.653
750	-0.64
750	-0.641
751	-0.645
751	-0.655
751	-0.659
752	-0.662
752	-0.674
753	-0.668
753	-0.665
754	-0.67
754	-0.66
754	-0.677
755	-0.692
755	-0.704
756	-0.693
756	-0.687
757	-0.686
757	-0.682
758	-0.685
758	-0.681
758	-0.687
759	-0.698
759	-0.683
760	-0.675
760	-0.671
761	-0.681
761	-0.681
761	-0.678
762	-0.686
762	-0.687
763	-0.695
763	-0.69
764	-0.687
764	-0.693
764	-0.698
765	-0.69
765	-0.676
766	-0.681
766	-0.687
767	-0.7
767	-0.692
768	-0.685
768	-0.695
768	-0.698
769	-0.717
769	-0.718
770	-0.723
770	-0.733
771	-0.732
771	-0.736
771	-0.738
772	-0.742
772	-0.743
773	-0.742
773	-0.739
774	-0.735
774	-0.736
775	-0.738
775	-0.737
775	-0.744
776	-0.74
776	-0.727
777	-0.733
777	-0.75
778	-0.748
778	-0.767
778	-0.753
779	-0.773
779	-0.78
780	-0.793
780	-0.792
781	-0.807
781	-0.801
781	-0.818
782	-0.817
782	-0.819
783	-0.804
783	-0.803
784	-0.784
784	-0.773
784	-0.781
785	-0.787
785	-0.772
786	-0.782
786	-0.761
787	-0.748
787	-0.753
788	-0.757
788	-0.77
788	-0.784
789	-0.784
789	-0.767
790	-0.75
790	-0.754
791	-0.752
791	-0.77
791	-0.778
792	-0.77
792	-0.748
793	-0.737
793	-0.714
794	-0.718
794	-0.71
794	-0.721
795	-0.715
795	-0.71
796	-0.694
796	-0.699
797	-0.695
797	-0.708
797	-0.715
798	-0.725
798	-0.722
799	-0.732
799	-0.717
800	-0.724
800	-0.717
801	-0.723
801	-0.71
801	-0.717
802	-0.725
802	-0.726
803	-0.73
803	-0.738
804	-0.734
804	-0.745
804	-0.734
805	-0.737
805	-0.726
806	-0.729
806	-0.715
807	-0.71
807	-0.692
807	-0.679
808	-0.671
808	-0.666
809	-0.652
809	-0.658
810	-0.657
810	-0.651
810	-0.646
811	-0.656
811	-0.649
812	-0.65
812	-0.653
813	-0.659
813	-0.653
813	-0.66
814	-0.664
814	-0.669
815	-0.674
815	-0.678
816	-0.668
816	-0.675
817	-0.68
817	-0.698
817	-0.71
818	-0.717
818	-0.719
819	-0.709
819	-0.71
820	-0.719
820	-0.718
820	-0.731
821	-0.729
821	-0.718
822	-0.686
822	-0.666
823	-0.664
823	-0.668
823	-0.666
824	-0.661
824	-0.663
825	-0.653
825	-0.632
826	-0.627
826	-0.635
826	-0.646
827	-0.638
827	-0.633
828	-0.613
828	-0.613
829	-0.604
829	-0.59
829	-0.582
830	-0.591
830	-0.587
831	-0.581
831	-0.571
832	-0.571
832	-0.563
832	-0.573
833	-0.569
833	-0.568
834	-0.568
834	-0.575
835	-0.565
835	-0.561
835	-0.556
836	-0.553
836	-0.551
837	-0.551
837	-0.539
838	-0.533
838	-0.523
839	-0.511
839	-0.502
839	-0.494
840	-0.484
840	-0.483
841	-0.473
841	-0.464
842	-0.457
842	-0.449
842	-0.443
843	-0.437
843	-0.432
844	-0.421
844	-0.414
845	-0.407
845	-0.396
845	-0.385
846	-0.376
846	-0.362
847	-0.352
847	-0.34
848	-0.33
848	-0.32
848	-0.308
849	-0.298
849	-0.288
850	-0.276
850	-0.271
851	-0.264
851	-0.254
851	-0.247
852	-0.232
852	-0.222
853	-0.215
853	-0.21
854	-0.199
854	-0.188
854	-0.179
855	-0.169
855	-0.164
856	-0.155
856	-0.147
857	-0.143
857	-0.135
857	-0.126
858	-0.117
858	-0.112
859	-0.107
859	-0.099
860	-0.093
860	-0.082
860	-0.076
861	-0.07
861	-0.063
862	-0.057
862	-0.052
863	-0.046
863	-0.039
863	-0.034
864	-0.031
864	-0.026
865	-0.022
865	-0.019
866	-0.016
866	-0.013
866	-0.011
867	-0.008
867	-0.005
868	-0.003
868	0.001
869	0.003
869	0.005
869	0.007
870	0.01
870	0.012
871	0.015
871	0.016
872	0.018
872	0.018
872	0.019
873	0.02
873	0.02
874	0.02
874	0.02
875	0.019
875	0.018
875	0.017
876	0.016
876	0.015
877	0.013
877	0.012
878	0.01
878	0.008
878	0.006
879	0.004
879	0.003
880	0.002
880	0.002
881	0.001
881	0.001
881	0.001
882	0.001
882	0.001
883	0
883	-0
884	-0.001
884	-0.001
884	-0.002
885	-0.003
885	-0.003
886	-0.003
886	-0.004
887	-0.004
887	-0.004
887	-0.004
888	-0.004
888	-0.004
889	-0.003
889	-0.003
890	-0.002
890	-0.002
890	-0.002
891	-0.002
891	-0.001
892	-0.001
892	-0.001
893	-0.001
893	-0.001
893	-0.001
894	-0.001
894	-0.001
895	-0.002
895	-0.002
895	-0.002
896	-0.003
896	-0.004
897	-0.005
897	-0.006
898	-0.007
898	-0.008
898	-0.008
899	-0.007
899	-0.007
900	-0.006
900	-0.006
901	-0.005
901	-0.005
901	-0.004
902	-0.003
902	-0.002
903	-0.001
903	-0.001
904	-0
904	0
904	0.001
905	0.002
905	0.003
906	0.003
906	0.003
907	0.003
907	0.003
907	0.003
908	0.003
908	0.002
909	0.002
909	0.001
910	0.001
910	0
910	-0
911	0
911	0.001
912	0.001
912	0.002
913	0.002
913	0.003
913	0.004
914	0.005
914	0.006
915	0.007
915	0.008
916	0.008
916	0.008
916	0.009
917	0.009
917	0.009
918	0.009
918	0.009
918	0.009
919	0.009
919	0.009
920	0.009
920	0.01
921	0.01
921	0.01
921	0.01
922	0.01
922	0.01
923	0.01
923	0.01
924	0.01
924	0.009
924	0.009
925	0.008
925	0.007
926	0.006
926	0.005
927	0.004
927	0.003
927	0.002
928	0.002
928	0.001
929	0.001
929	0
930	-0
930	-0
930	-0.001
931	-0.001
931	-0.001
932	-0.001
932	-0.002
933	-0.003
933	-0.004
933	-0.006
934	-0.007
934	-0.008
935	-0.009
935	-0.01
935	-0.011
936	-0.011
936	-0.012
937	-0.013
937	-0.013
938	-0.013
938	-0.013
938	-0.012
939	-0.011
939	-0.01
940	-0.009
940	-0.009
941	-0.008
941	-0.007
941	-0.006
942	-0.005
942	-0.005
943	-0.004
943	-0.004
944	-0.004
944	-0.005
944	-0.005
945	-0.005
945	-0.006
946	-0.007
946	-0.008
946	-0.008
947	-0.009
947	-0.009
948	-0.009
948	-0.009
949	-0.008
949	-0.008
949	-0.007
950	-0.006
950	-0.006
951	-0.005
951	-0.004
952	-0.003
952	-0.002
952	-0.001
953	0
953	0.001
954	0.001
954	0.002
955	0.003
955	0.005
955	0.006
956	0.007
956	0.008
957	0.008
957	0.008
957	0.008
958	0.008
958	0.009
959	0.009
959	0.008
960	0.008
960	0.007
960	0.007
961	0.007
961	0.007
962	0.007
962	0.007
963	0.007
963	0.007
963	0.007
964	0.007
964	0.008
965	0.008
965	0.008
966	0.008
966	0.008
966	0.008
967	0.008
967	0.007
968	0.006
968	0.006
968	0.006
969	0.005
969	0.005
970	0.004
970	0.004
971	0.004
971	0.005
971	0.005
972	0.005
972	0.005
973	0.005
973	0.005
974	0.004
974	0.004
974	0.004
975	0.004
975	0.003
976	0.002
976	0.002
976	0.001
977	0.001
977	0.001
978	0.001
978	0.001
979	0.001
979	0
979	0
980	0
980	-0
981	-0
981	-0
982	-0
982	-0.001
982	-0.001
983	-0.001
983	-0.001
984	-0.001
984	-0.001
984	-0.001
985	-0.001
985	-0.001
986	-0.001
986	-0.001
987	-0.001
987	-0.001
987	-0.001
988	-0.002
988	-0.002
989	-0.003
989	-0.004
990	-0.004
990	-0.005
990	-0.005
991	-0.006
991	-0.006
992	-0.006
992	-0.007
992	-0.007
993	-0.007
993	-0.007
994	-0.007
994	-0.007
995	-0.007
995	-0.008
995	-0.008
996	-0.008
996	-0.009
997	-0.009
997	-0.009
997	-0.009
998	-0.009
998	-0.009
999	-0.009
999	-0.008
1000	-0.008
1000	-0.008
1000	-0.007
1001	-0.007
1001	-0.007
1002	-0.006
1002	-0.006
1003	-0.006
1003	-0.006
1003	-0.006
1004	-0.006
1004	-0.006
1005	-0.007
1005	-0.008
1005	-0.009
1006	-0.01
1006	-0.011
1007	-0.012
1007	-0.013
1008	-0.013
1008	-0.014
1008	-0.014
1009	-0.014
1009	-0.015
1010	-0.014
1010	-0.014
1010	-0.014
1011	-0.014
1011	-0.015
1012	-0.015
1012	-0.016
1013	-0.017
1013	-0.018
1013	-0.018
1014	-0.019
1014	-0.02
1015	-0.021
1015	-0.021
1016	-0.022
1016	-0.023
1016	-0.023
1017	-0.024
1017	-0.025
1018	-0.025
1018	-0.026
1018	-0.026
1019	-0.026
1019	-0.027
1020	-0.028
1020	-0.028
1021	-0.029
1021	-0.03
1021	-0.031
1022	-0.031
1022	-0.032
1023	-0.032
1023	-0.033
1023	-0.033
1024	-0.033
1024	-0.034
1025	-0.034
1025	-0.033
1026	-0.033
1026	-0.032
1026	-0.032
1027	-0.031
1027	-0.031
1028	-0.03
1028	-0.03
1028	-0.03
1029	-0.03
1029	-0.03
1030	-0.031
1030	-0.031
1031	-0.032
1031	-0.032
1031	-0.032
1032	-0.033
1032	-0.033
1033	-0.033
1033	-0.032
1033	-0.032
1034	-0.032
1034	-0.032
1035	-0.032
1035	-0.032
1036	-0.032
1036	-0.031
1036	-0.031
1037	-0.031
1037	-0.031
1038	-0.031
1038	-0.031
1039	-0.03
1039	-0.03
1039	-0.03
1040	-0.029
1040	-0.029
1041	-0.028
1041	-0.028
1041	-0.028
1042	-0.028
1042	-0.028
1043	-0.028
1043	-0.029
1044	-0.029
1044	-0.03
1044	-0.03
1045	-0.031
1045	-0.032
1046	-0.032
1046	-0.033
1046	-0.033
1047	-0.033
1047	-0.033
1048	-0.033
1048	-0.033
1049	-0.032
1049	-0.032
1049	-0.032
1050	-0.031
1050	-0.031
1051	-0.031
1051	-0.03
1051	-0.029
1052	-0.029
1052	-0.029
1053	-0.028
1053	-0.028
1053	-0.028
1054	-0.028
1054	-0.028
1055	-0.028
1055	-0.028
1056	-0.029
1056	-0.03
1056	-0.031
1057	-0.031
1057	-0.032
1058	-0.033
1058	-0.033
1058	-0.034
1059	-0.034
1059	-0.035
1060	-0.035
1060	-0.035
1061	-0.036
1061	-0.035
1061	-0.035
1062	-0.036
1062	-0.036
1063	-0.036
1063	-0.036
1063	-0.035
1064	-0.035
1064	-0.035
1065	-0.035
1065	-0.035
1066	-0.035
1066	-0.035
1066	-0.036
1067	-0.036
1067	-0.036
1068	-0.037
1068	-0.037
1068	-0.038
1069	-0.038
1069	-0.038
1070	-0.039
1070	-0.039
1071	-0.039
1071	-0.039
1071	-0.04
1072	-0.04
1072	-0.04
1073	-0.04
1073	-0.04
1073	-0.04
1074	-0.04
1074	-0.04
1075	-0.04
1075	-0.04
1076	-0.041
1076	-0.04
1076	-0.041
1077	-0.041
1077	-0.041
1078	-0.042
1078	-0.043
1078	-0.044
1079	-0.044
1079	-0.045
1080	-0.046
1080	-0.046
1080	-0.047
1081	-0.048
1081	-0.048
1082	-0.049
1082	-0.05
1083	-0.05
1083	-0.051
1083	-0.052
1084	-0.052
1084	-0.053
1085	-0.054
1085	-0.054
1085	-0.055
1086	-0.055
1086	-0.056
1087	-0.055
1087	-0.056
1088	-0.056
1088	-0.056
1088	-0.056
1089	-0.056
1089	-0.056
1090	-0.057
1090	-0.057
1090	-0.058
1091	-0.059
1091	-0.059
1092	-0.06
1092	-0.059
1092	-0.061
1093	-0.061
1093	-0.061
1094	-0.061
1094	-0.062
1095	-0.063
1095	-0.063
1095	-0.063
1096	-0.064
1096	-0.065
1097	-0.065
1097	-0.066
1097	-0.067
1098	-0.069
1098	-0.07
1099	-0.071
1099	-0.071
1100	-0.072
1100	-0.074
1100	-0.075
1101	-0.078
1101	-0.08
1102	-0.082
1102	-0.084
1102	-0.085
1103	-0.086
1103	-0.088
1104	-0.09
1104	-0.092
1104	-0.095
1105	-0.097
1105	-0.099
1106	-0.103
1106	-0.104
1107	-0.108
1107	-0.111
1107	-0.116
1108	-0.118
1108	-0.12
1109	-0.122
1109	-0.125
1109	-0.128
1110	-0.128
1110	-0.131
1111	-0.138
1111	-0.137
