Data from 17C_3.2A_35min_2sec_int_Absorbance__530__02092.txt Node

Date: Mon Jun 19 17:53:12 CEST 2023
User: Marek
Spectrometer: MAYP115816
Trigger mode: 0
Integration Time (sec): 2.500000E-1
Scans to average: 10
Electric dark correction enabled: true
Nonlinearity correction enabled: true
Boxcar width: 5
XAxis mode: Wavelengths
Number of Pixels in Spectrum: 2068
>>>>>Begin Spectral Data<<<<<
199	-0.733
199	-0.739
200	-0.641
200	-0.591
201	-0.558
201	-0.545
202	-0.526
202	-0.514
203	-0.505
203	-0.502
204	-0.491
204	-0.477
205	-0.453
205	-0.449
205	-0.447
206	-0.447
206	-0.451
207	-0.443
207	-0.447
208	-0.449
208	-0.446
209	-0.441
209	-0.441
210	-0.447
210	-0.452
211	-0.455
211	-0.457
212	-0.458
212	-0.467
213	-0.464
213	-0.463
213	-0.469
214	-0.465
214	-0.465
215	-0.464
215	-0.47
216	-0.473
216	-0.48
217	-0.476
217	-0.48
218	-0.482
218	-0.484
219	-0.487
219	-0.497
220	-0.502
220	-0.509
221	-0.507
221	-0.51
221	-0.502
222	-0.498
222	-0.499
223	-0.502
223	-0.505
224	-0.509
224	-0.509
225	-0.504
225	-0.499
226	-0.504
226	-0.502
227	-0.51
227	-0.52
228	-0.52
228	-0.521
229	-0.522
229	-0.517
229	-0.51
230	-0.516
230	-0.519
231	-0.514
231	-0.507
232	-0.5
232	-0.498
233	-0.492
233	-0.491
234	-0.491
234	-0.488
235	-0.493
235	-0.497
236	-0.497
236	-0.501
236	-0.507
237	-0.514
237	-0.514
238	-0.524
238	-0.522
239	-0.521
239	-0.53
240	-0.528
240	-0.527
241	-0.533
241	-0.532
242	-0.536
242	-0.53
243	-0.529
243	-0.529
243	-0.538
244	-0.537
244	-0.534
245	-0.548
245	-0.547
246	-0.55
246	-0.554
247	-0.557
247	-0.562
248	-0.567
248	-0.566
249	-0.569
249	-0.578
250	-0.577
250	-0.571
250	-0.571
251	-0.569
251	-0.57
252	-0.573
252	-0.564
253	-0.569
253	-0.576
254	-0.573
254	-0.57
255	-0.579
255	-0.575
256	-0.572
256	-0.582
257	-0.579
257	-0.576
258	-0.593
258	-0.589
258	-0.588
259	-0.586
259	-0.595
260	-0.594
260	-0.6
261	-0.614
261	-0.607
262	-0.605
262	-0.605
263	-0.593
263	-0.589
264	-0.587
264	-0.596
265	-0.593
265	-0.602
265	-0.602
266	-0.597
266	-0.593
267	-0.606
267	-0.615
268	-0.63
268	-0.639
269	-0.638
269	-0.634
270	-0.638
270	-0.639
271	-0.64
271	-0.644
272	-0.651
272	-0.644
272	-0.637
273	-0.635
273	-0.643
274	-0.647
274	-0.65
275	-0.65
275	-0.643
276	-0.648
276	-0.642
277	-0.646
277	-0.666
278	-0.677
278	-0.672
278	-0.665
279	-0.669
279	-0.68
280	-0.679
280	-0.678
281	-0.671
281	-0.678
282	-0.669
282	-0.668
283	-0.658
283	-0.661
284	-0.658
284	-0.647
285	-0.642
285	-0.638
285	-0.635
286	-0.643
286	-0.638
287	-0.635
287	-0.62
288	-0.612
288	-0.618
289	-0.63
289	-0.641
290	-0.63
290	-0.629
291	-0.626
291	-0.618
292	-0.621
292	-0.628
292	-0.632
293	-0.638
293	-0.627
294	-0.615
294	-0.604
295	-0.603
295	-0.601
296	-0.6
296	-0.6
297	-0.595
297	-0.58
298	-0.573
298	-0.581
298	-0.57
299	-0.566
299	-0.569
300	-0.563
300	-0.558
301	-0.554
301	-0.554
302	-0.559
302	-0.567
303	-0.555
303	-0.54
304	-0.544
304	-0.539
305	-0.54
305	-0.54
305	-0.539
306	-0.523
306	-0.515
307	-0.504
307	-0.506
308	-0.518
308	-0.516
309	-0.518
309	-0.51
310	-0.499
310	-0.494
311	-0.486
311	-0.495
311	-0.493
312	-0.486
312	-0.484
313	-0.47
313	-0.473
314	-0.468
314	-0.469
315	-0.469
315	-0.469
316	-0.465
316	-0.456
317	-0.45
317	-0.447
318	-0.434
318	-0.433
318	-0.427
319	-0.418
319	-0.414
320	-0.409
320	-0.409
321	-0.413
321	-0.413
322	-0.408
322	-0.403
323	-0.405
323	-0.399
324	-0.392
324	-0.384
324	-0.375
325	-0.365
325	-0.349
326	-0.335
326	-0.316
327	-0.301
327	-0.282
328	-0.257
328	-0.237
329	-0.216
329	-0.192
330	-0.167
330	-0.136
330	-0.109
331	-0.08
331	-0.055
332	-0.031
332	-0.009
333	0.012
333	0.035
334	0.055
334	0.071
335	0.088
335	0.102
336	0.115
336	0.127
336	0.137
337	0.148
337	0.156
338	0.164
338	0.169
339	0.177
339	0.183
340	0.187
340	0.191
341	0.195
341	0.198
342	0.202
342	0.205
342	0.208
343	0.21
343	0.213
344	0.214
344	0.215
345	0.216
345	0.217
346	0.218
346	0.218
347	0.219
347	0.22
348	0.22
348	0.22
348	0.221
349	0.221
349	0.221
350	0.222
350	0.222
351	0.222
351	0.222
352	0.222
352	0.222
353	0.222
353	0.222
354	0.222
354	0.221
354	0.221
355	0.221
355	0.221
356	0.221
356	0.221
357	0.221
357	0.22
358	0.22
358	0.22
359	0.22
359	0.22
360	0.22
360	0.22
360	0.219
361	0.219
361	0.219
362	0.219
362	0.219
363	0.219
363	0.219
364	0.219
364	0.219
365	0.219
365	0.219
366	0.219
366	0.219
366	0.219
367	0.219
367	0.219
368	0.219
368	0.219
369	0.218
369	0.218
370	0.218
370	0.218
371	0.218
371	0.218
372	0.218
372	0.218
372	0.218
373	0.218
373	0.218
374	0.218
374	0.218
375	0.218
375	0.218
376	0.218
376	0.218
377	0.218
377	0.218
378	0.218
378	0.218
378	0.218
379	0.218
379	0.217
380	0.217
380	0.217
381	0.217
381	0.217
382	0.217
382	0.217
383	0.216
383	0.216
383	0.216
384	0.216
384	0.216
385	0.216
385	0.216
386	0.216
386	0.216
387	0.215
387	0.215
388	0.215
388	0.216
389	0.216
389	0.216
389	0.216
390	0.216
390	0.216
391	0.216
391	0.216
392	0.216
392	0.216
393	0.216
393	0.216
394	0.215
394	0.215
394	0.215
395	0.215
395	0.214
396	0.214
396	0.214
397	0.214
397	0.214
398	0.214
398	0.214
399	0.214
399	0.214
400	0.214
400	0.214
400	0.214
401	0.214
401	0.213
402	0.213
402	0.213
403	0.213
403	0.213
404	0.213
404	0.213
405	0.213
405	0.213
405	0.212
406	0.212
406	0.212
407	0.212
407	0.212
408	0.212
408	0.212
409	0.212
409	0.212
410	0.212
410	0.212
411	0.212
411	0.212
411	0.212
412	0.212
412	0.212
413	0.212
413	0.212
414	0.212
414	0.212
415	0.211
415	0.211
416	0.211
416	0.211
416	0.211
417	0.211
417	0.211
418	0.211
418	0.211
419	0.211
419	0.211
420	0.211
420	0.211
421	0.211
421	0.211
421	0.211
422	0.211
422	0.211
423	0.211
423	0.211
424	0.21
424	0.21
425	0.21
425	0.209
426	0.209
426	0.209
427	0.209
427	0.209
427	0.208
428	0.208
428	0.209
429	0.209
429	0.209
430	0.209
430	0.209
431	0.208
431	0.208
432	0.208
432	0.208
432	0.208
433	0.208
433	0.207
434	0.207
434	0.207
435	0.207
435	0.207
436	0.207
436	0.207
437	0.206
437	0.206
437	0.206
438	0.206
438	0.206
439	0.206
439	0.206
440	0.206
440	0.206
441	0.206
441	0.206
442	0.206
442	0.206
442	0.206
443	0.206
443	0.206
444	0.206
444	0.206
445	0.206
445	0.206
446	0.206
446	0.206
447	0.206
447	0.206
447	0.206
448	0.206
448	0.206
449	0.206
449	0.206
450	0.207
450	0.207
451	0.206
451	0.206
452	0.206
452	0.206
452	0.206
453	0.206
453	0.206
454	0.205
454	0.205
455	0.205
455	0.205
456	0.205
456	0.205
457	0.205
457	0.205
458	0.205
458	0.205
458	0.205
459	0.205
459	0.205
460	0.205
460	0.205
461	0.205
461	0.204
462	0.205
462	0.205
463	0.205
463	0.205
463	0.205
464	0.205
464	0.205
465	0.205
465	0.205
466	0.205
466	0.205
467	0.205
467	0.205
467	0.205
468	0.205
468	0.205
469	0.206
469	0.206
470	0.206
470	0.206
471	0.206
471	0.206
472	0.207
472	0.207
472	0.207
473	0.207
473	0.207
474	0.207
474	0.207
475	0.207
475	0.208
476	0.208
476	0.208
477	0.208
477	0.208
477	0.208
478	0.208
478	0.209
479	0.209
479	0.209
480	0.209
480	0.209
481	0.209
481	0.21
482	0.21
482	0.21
482	0.211
483	0.211
483	0.212
484	0.212
484	0.211
485	0.212
485	0.212
486	0.212
486	0.213
487	0.213
487	0.214
487	0.214
488	0.215
488	0.215
489	0.216
489	0.218
490	0.219
490	0.219
491	0.22
491	0.221
492	0.221
492	0.222
492	0.223
493	0.223
493	0.224
494	0.225
494	0.226
495	0.226
495	0.227
496	0.228
496	0.229
496	0.23
497	0.231
497	0.232
498	0.233
498	0.234
499	0.235
499	0.236
500	0.237
500	0.238
501	0.239
501	0.239
501	0.24
502	0.241
502	0.241
503	0.242
503	0.243
504	0.244
504	0.245
505	0.246
505	0.247
506	0.248
506	0.249
506	0.25
507	0.251
507	0.252
508	0.253
508	0.254
509	0.256
509	0.257
510	0.258
510	0.259
511	0.26
511	0.261
511	0.262
512	0.264
512	0.264
513	0.266
513	0.267
514	0.268
514	0.269
515	0.27
515	0.271
515	0.272
516	0.273
516	0.274
517	0.275
517	0.276
518	0.277
518	0.278
519	0.279
519	0.28
520	0.281
520	0.282
520	0.283
521	0.285
521	0.285
522	0.286
522	0.287
523	0.289
523	0.289
524	0.29
524	0.291
524	0.291
525	0.292
525	0.292
526	0.293
526	0.294
527	0.295
527	0.295
528	0.296
528	0.297
529	0.298
529	0.299
529	0.3
530	0.301
530	0.302
531	0.302
531	0.303
532	0.303
532	0.304
533	0.305
533	0.305
533	0.305
534	0.305
534	0.305
535	0.305
535	0.306
536	0.306
536	0.305
537	0.306
537	0.306
538	0.306
538	0.306
538	0.306
539	0.307
539	0.308
540	0.308
540	0.308
541	0.308
541	0.308
542	0.308
542	0.308
542	0.308
543	0.308
543	0.308
544	0.307
544	0.307
545	0.307
545	0.308
546	0.308
546	0.307
547	0.307
547	0.307
547	0.307
548	0.307
548	0.307
549	0.307
549	0.307
550	0.307
550	0.307
551	0.307
551	0.308
551	0.309
552	0.31
552	0.31
553	0.311
553	0.311
554	0.311
554	0.31
555	0.31
555	0.31
556	0.31
556	0.31
556	0.309
557	0.309
557	0.309
558	0.308
558	0.308
559	0.308
559	0.307
560	0.307
560	0.307
560	0.307
561	0.307
561	0.307
562	0.306
562	0.306
563	0.305
563	0.305
564	0.305
564	0.305
564	0.305
565	0.306
565	0.306
566	0.306
566	0.306
567	0.307
567	0.307
568	0.306
568	0.306
568	0.306
569	0.305
569	0.305
570	0.303
570	0.302
571	0.302
571	0.302
572	0.301
572	0.301
573	0.3
573	0.3
573	0.3
574	0.3
574	0.3
575	0.3
575	0.301
576	0.301
576	0.3
577	0.3
577	0.3
577	0.301
578	0.301
578	0.302
579	0.302
579	0.302
580	0.302
580	0.301
581	0.3
581	0.3
581	0.3
582	0.301
582	0.301
583	0.301
583	0.3
584	0.299
584	0.299
585	0.3
585	0.3
585	0.301
586	0.301
586	0.301
587	0.3
587	0.3
588	0.3
588	0.3
589	0.3
589	0.301
590	0.3
590	0.301
590	0.302
591	0.302
591	0.301
592	0.301
592	0.3
593	0.3
593	0.3
594	0.3
594	0.3
594	0.3
595	0.3
595	0.3
596	0.3
596	0.301
597	0.302
597	0.302
598	0.302
598	0.302
598	0.301
599	0.301
599	0.3
600	0.299
600	0.299
601	0.298
601	0.298
602	0.297
602	0.297
602	0.297
603	0.298
603	0.299
604	0.299
604	0.3
605	0.301
605	0.301
606	0.301
606	0.3
606	0.3
607	0.3
607	0.299
608	0.299
608	0.297
609	0.297
609	0.297
610	0.297
610	0.296
610	0.297
611	0.297
611	0.298
612	0.299
612	0.299
613	0.3
613	0.3
614	0.299
614	0.298
614	0.297
615	0.296
615	0.296
616	0.295
616	0.294
617	0.294
617	0.293
618	0.292
618	0.291
618	0.291
619	0.291
619	0.292
620	0.292
620	0.292
621	0.291
621	0.291
622	0.29
622	0.29
622	0.29
623	0.289
623	0.289
624	0.289
624	0.288
625	0.288
625	0.287
626	0.286
626	0.286
626	0.285
627	0.285
627	0.283
628	0.282
628	0.281
629	0.279
629	0.278
630	0.276
630	0.274
630	0.273
631	0.271
631	0.269
632	0.267
632	0.264
633	0.262
633	0.259
634	0.257
634	0.254
634	0.252
635	0.249
635	0.246
636	0.242
636	0.239
637	0.235
637	0.231
638	0.227
638	0.223
638	0.218
639	0.213
639	0.208
640	0.202
640	0.197
641	0.192
641	0.187
642	0.182
642	0.177
642	0.172
643	0.166
643	0.16
644	0.154
644	0.148
645	0.141
645	0.135
646	0.128
646	0.121
646	0.114
647	0.107
647	0.099
648	0.092
648	0.084
649	0.076
649	0.067
650	0.059
650	0.051
650	0.041
651	0.03
651	0.016
652	0.001
652	-0.016
653	-0.03
653	-0.042
653	-0.039
654	-0.019
654	-0.008
655	-0.011
655	-0.016
656	-0.022
656	-0.028
657	-0.032
657	-0.036
657	-0.043
658	-0.05
658	-0.079
659	-0.165
659	-0.266
660	-0.31
660	-0.337
661	-0.365
661	-0.397
661	-0.431
662	-0.463
662	-0.496
663	-0.535
663	-0.579
664	-0.623
664	-0.675
665	-0.726
665	-0.784
665	-0.839
666	-0.895
666	-0.955
667	-1.02
667	-1.084
668	-1.156
668	-1.228
669	-1.301
669	-1.373
669	-1.448
670	-1.511
670	-1.526
671	-1.606
671	-1.929
672	-2.172
672	-2.37
672	-2.505
673	-2.6
673	-2.682
674	-2.736
674	-2.757
675	-2.783
675	-2.925
676	-3.131
676	-3.084
676	-2.864
677	-2.664
677	-2.509
678	-2.348
678	-2.09
679	-1.769
679	-1.618
680	-1.519
680	-1.433
680	-1.36
681	-1.313
681	-1.252
682	-1.211
682	-1.173
683	-1.137
683	-1.119
684	-1.098
684	-1.078
684	-1.056
685	-1.031
685	-1.008
686	-0.982
686	-0.967
687	-0.94
687	-0.929
687	-0.909
688	-0.882
688	-0.86
689	-0.84
689	-0.826
690	-0.806
690	-0.793
691	-0.787
691	-0.79
691	-0.807
692	-0.798
692	-0.789
693	-0.786
693	-0.793
694	-0.789
694	-0.781
695	-0.786
695	-0.785
695	-0.769
696	-0.768
696	-0.745
697	-0.747
697	-0.762
698	-0.765
698	-0.755
698	-0.768
699	-0.772
699	-0.771
700	-0.762
700	-0.776
701	-0.772
701	-0.777
702	-0.776
702	-0.766
702	-0.757
703	-0.75
703	-0.74
704	-0.737
704	-0.734
705	-0.745
705	-0.736
705	-0.727
706	-0.729
706	-0.723
707	-0.727
707	-0.723
708	-0.722
708	-0.717
709	-0.719
709	-0.722
709	-0.711
710	-0.723
710	-0.732
711	-0.723
711	-0.726
712	-0.725
712	-0.735
713	-0.734
713	-0.741
713	-0.733
714	-0.73
714	-0.732
715	-0.722
715	-0.707
716	-0.714
716	-0.715
716	-0.709
717	-0.714
717	-0.715
718	-0.705
718	-0.706
719	-0.712
719	-0.714
720	-0.709
720	-0.72
720	-0.713
721	-0.703
721	-0.701
722	-0.688
722	-0.678
723	-0.676
723	-0.678
723	-0.664
724	-0.666
724	-0.671
725	-0.671
725	-0.679
726	-0.693
726	-0.696
727	-0.701
727	-0.715
727	-0.721
728	-0.723
728	-0.731
729	-0.73
729	-0.734
730	-0.741
730	-0.735
730	-0.724
731	-0.709
731	-0.718
732	-0.723
732	-0.726
733	-0.724
733	-0.728
734	-0.723
734	-0.724
734	-0.711
735	-0.709
735	-0.711
736	-0.72
736	-0.705
737	-0.698
737	-0.699
737	-0.709
738	-0.703
738	-0.704
739	-0.699
739	-0.711
740	-0.71
740	-0.708
741	-0.705
741	-0.705
741	-0.708
742	-0.704
742	-0.704
743	-0.712
743	-0.717
744	-0.714
744	-0.704
744	-0.706
745	-0.712
745	-0.705
746	-0.704
746	-0.7
747	-0.703
747	-0.693
748	-0.68
748	-0.683
748	-0.687
749	-0.685
749	-0.686
750	-0.677
750	-0.679
751	-0.682
751	-0.694
751	-0.694
752	-0.698
752	-0.708
753	-0.702
753	-0.698
754	-0.705
754	-0.699
754	-0.711
755	-0.726
755	-0.737
756	-0.725
756	-0.723
757	-0.719
757	-0.715
758	-0.718
758	-0.715
758	-0.717
759	-0.723
759	-0.706
760	-0.701
760	-0.697
761	-0.706
761	-0.704
761	-0.705
762	-0.711
762	-0.71
763	-0.718
763	-0.714
764	-0.711
764	-0.718
764	-0.722
765	-0.712
765	-0.701
766	-0.709
766	-0.713
767	-0.729
767	-0.721
768	-0.716
768	-0.726
768	-0.73
769	-0.746
769	-0.748
770	-0.753
770	-0.765
771	-0.761
771	-0.764
771	-0.765
772	-0.768
772	-0.767
773	-0.766
773	-0.763
774	-0.763
774	-0.765
775	-0.767
775	-0.762
775	-0.77
776	-0.768
776	-0.756
777	-0.765
777	-0.784
778	-0.782
778	-0.802
778	-0.787
779	-0.811
779	-0.819
780	-0.834
780	-0.835
781	-0.848
781	-0.846
781	-0.861
782	-0.862
782	-0.865
783	-0.851
783	-0.85
784	-0.827
784	-0.815
784	-0.822
785	-0.827
785	-0.811
786	-0.818
786	-0.796
787	-0.78
787	-0.782
788	-0.785
788	-0.796
788	-0.808
789	-0.811
789	-0.794
790	-0.775
790	-0.778
791	-0.776
791	-0.793
791	-0.8
792	-0.794
792	-0.77
793	-0.758
793	-0.736
794	-0.74
794	-0.731
794	-0.741
795	-0.736
795	-0.729
796	-0.716
796	-0.723
797	-0.716
797	-0.729
797	-0.737
798	-0.747
798	-0.74
799	-0.751
799	-0.738
800	-0.745
800	-0.739
801	-0.743
801	-0.727
801	-0.737
802	-0.745
802	-0.744
803	-0.747
803	-0.757
804	-0.753
804	-0.763
804	-0.75
805	-0.755
805	-0.744
806	-0.748
806	-0.734
807	-0.729
807	-0.711
807	-0.699
808	-0.689
808	-0.684
809	-0.668
809	-0.677
810	-0.675
810	-0.668
810	-0.664
811	-0.671
811	-0.663
812	-0.666
812	-0.67
813	-0.674
813	-0.669
813	-0.675
814	-0.675
814	-0.68
815	-0.684
815	-0.688
816	-0.68
816	-0.685
817	-0.691
817	-0.707
817	-0.721
818	-0.729
818	-0.731
819	-0.723
819	-0.724
820	-0.734
820	-0.731
820	-0.742
821	-0.741
821	-0.726
822	-0.695
822	-0.673
823	-0.668
823	-0.67
823	-0.67
824	-0.664
824	-0.666
825	-0.658
825	-0.639
826	-0.633
826	-0.643
826	-0.653
827	-0.645
827	-0.643
828	-0.622
828	-0.619
829	-0.609
829	-0.594
829	-0.587
830	-0.595
830	-0.593
831	-0.585
831	-0.576
832	-0.577
832	-0.569
832	-0.577
833	-0.574
833	-0.575
834	-0.574
834	-0.58
835	-0.566
835	-0.56
835	-0.557
836	-0.555
836	-0.552
837	-0.548
837	-0.539
838	-0.53
838	-0.517
839	-0.502
839	-0.49
839	-0.481
840	-0.47
840	-0.465
841	-0.451
841	-0.441
842	-0.435
842	-0.423
842	-0.416
843	-0.409
843	-0.405
844	-0.397
844	-0.389
845	-0.381
845	-0.37
845	-0.357
846	-0.347
846	-0.332
847	-0.323
847	-0.312
848	-0.3
848	-0.29
848	-0.274
849	-0.262
849	-0.25
850	-0.237
850	-0.231
851	-0.22
851	-0.211
851	-0.201
852	-0.184
852	-0.171
853	-0.159
853	-0.154
854	-0.142
854	-0.129
854	-0.116
855	-0.104
855	-0.097
856	-0.085
856	-0.076
857	-0.07
857	-0.062
857	-0.05
858	-0.04
858	-0.032
859	-0.023
859	-0.013
860	-0.003
860	0.01
860	0.018
861	0.027
861	0.036
862	0.044
862	0.052
863	0.06
863	0.069
863	0.074
864	0.079
864	0.085
865	0.092
865	0.096
866	0.101
866	0.106
866	0.11
867	0.113
867	0.117
868	0.12
868	0.124
869	0.128
869	0.131
869	0.133
870	0.136
870	0.138
871	0.14
871	0.142
872	0.143
872	0.143
872	0.144
873	0.145
873	0.145
874	0.144
874	0.144
875	0.143
875	0.142
875	0.141
876	0.14
876	0.138
877	0.137
877	0.136
878	0.134
878	0.132
878	0.13
879	0.128
879	0.127
880	0.126
880	0.126
881	0.126
881	0.126
881	0.125
882	0.124
882	0.124
883	0.122
883	0.121
884	0.121
884	0.12
884	0.119
885	0.118
885	0.117
886	0.116
886	0.116
887	0.115
887	0.115
887	0.115
888	0.115
888	0.115
889	0.115
889	0.116
890	0.115
890	0.116
890	0.115
891	0.115
891	0.115
892	0.115
892	0.116
893	0.115
893	0.115
893	0.115
894	0.115
894	0.114
895	0.114
895	0.114
895	0.113
896	0.112
896	0.112
897	0.11
897	0.109
898	0.108
898	0.108
898	0.108
899	0.108
899	0.108
900	0.108
900	0.108
901	0.109
901	0.109
901	0.11
902	0.111
902	0.112
903	0.112
903	0.113
904	0.113
904	0.114
904	0.114
905	0.115
905	0.116
906	0.116
906	0.117
907	0.116
907	0.116
907	0.115
908	0.115
908	0.114
909	0.114
909	0.113
910	0.112
910	0.112
910	0.111
911	0.111
911	0.112
912	0.112
912	0.113
913	0.113
913	0.114
913	0.115
914	0.115
914	0.116
915	0.117
915	0.117
916	0.118
916	0.118
916	0.119
917	0.119
917	0.119
918	0.118
918	0.118
918	0.118
919	0.117
919	0.117
920	0.117
920	0.117
921	0.117
921	0.117
921	0.117
922	0.117
922	0.117
923	0.117
923	0.117
924	0.117
924	0.116
924	0.115
925	0.114
925	0.113
926	0.112
926	0.111
927	0.11
927	0.11
927	0.109
928	0.108
928	0.108
929	0.107
929	0.107
930	0.106
930	0.105
930	0.105
931	0.104
931	0.104
932	0.103
932	0.102
933	0.102
933	0.1
933	0.099
934	0.098
934	0.097
935	0.096
935	0.095
935	0.094
936	0.093
936	0.092
937	0.091
937	0.091
938	0.091
938	0.091
938	0.091
939	0.091
939	0.092
940	0.092
940	0.092
941	0.093
941	0.093
941	0.094
942	0.095
942	0.095
943	0.095
943	0.095
944	0.094
944	0.094
944	0.093
945	0.092
945	0.091
946	0.09
946	0.089
946	0.088
947	0.087
947	0.087
948	0.086
948	0.087
949	0.086
949	0.087
949	0.088
950	0.088
950	0.089
951	0.09
951	0.09
952	0.091
952	0.092
952	0.093
953	0.093
953	0.094
954	0.094
954	0.095
955	0.096
955	0.097
955	0.098
956	0.099
956	0.1
957	0.1
957	0.1
957	0.1
958	0.101
958	0.102
959	0.101
959	0.102
960	0.101
960	0.101
960	0.102
961	0.102
961	0.102
962	0.102
962	0.102
963	0.102
963	0.102
963	0.102
964	0.102
964	0.102
965	0.102
965	0.102
966	0.102
966	0.101
966	0.101
967	0.1
967	0.099
968	0.099
968	0.098
968	0.097
969	0.097
969	0.096
970	0.096
970	0.096
971	0.096
971	0.096
971	0.096
972	0.097
972	0.097
973	0.097
973	0.097
974	0.096
974	0.097
974	0.097
975	0.096
975	0.096
976	0.095
976	0.095
976	0.094
977	0.094
977	0.094
978	0.094
978	0.094
979	0.093
979	0.093
979	0.093
980	0.092
980	0.092
981	0.092
981	0.092
982	0.091
982	0.091
982	0.091
983	0.09
983	0.09
984	0.09
984	0.09
984	0.09
985	0.09
985	0.09
986	0.09
986	0.09
987	0.089
987	0.089
987	0.089
988	0.088
988	0.087
989	0.086
989	0.085
990	0.085
990	0.084
990	0.083
991	0.083
991	0.082
992	0.082
992	0.082
992	0.081
993	0.082
993	0.082
994	0.082
994	0.081
995	0.081
995	0.081
995	0.08
996	0.08
996	0.079
997	0.079
997	0.079
997	0.078
998	0.078
998	0.078
999	0.079
999	0.079
1000	0.079
1000	0.079
1000	0.08
1001	0.08
1001	0.081
1002	0.081
1002	0.081
1003	0.081
1003	0.081
1003	0.081
1004	0.081
1004	0.081
1005	0.08
1005	0.079
1005	0.078
1006	0.077
1006	0.076
1007	0.075
1007	0.074
1008	0.073
1008	0.073
1008	0.072
1009	0.072
1009	0.072
1010	0.072
1010	0.072
1010	0.071
1011	0.071
1011	0.071
1012	0.07
1012	0.07
1013	0.069
1013	0.068
1013	0.067
1014	0.066
1014	0.065
1015	0.064
1015	0.064
1016	0.063
1016	0.062
1016	0.061
1017	0.06
1017	0.06
1018	0.059
1018	0.058
1018	0.058
1019	0.057
1019	0.056
1020	0.056
1020	0.055
1021	0.055
1021	0.054
1021	0.053
1022	0.052
1022	0.051
1023	0.051
1023	0.051
1023	0.05
1024	0.05
1024	0.05
1025	0.05
1025	0.05
1026	0.051
1026	0.051
1026	0.051
1027	0.052
1027	0.052
1028	0.052
1028	0.052
1028	0.052
1029	0.052
1029	0.052
1030	0.051
1030	0.05
1031	0.05
1031	0.05
1031	0.049
1032	0.049
1032	0.049
1033	0.049
1033	0.049
1033	0.049
1034	0.049
1034	0.049
1035	0.05
1035	0.05
1036	0.05
1036	0.05
1036	0.05
1037	0.049
1037	0.049
1038	0.049
1038	0.049
1039	0.05
1039	0.05
1039	0.05
1040	0.051
1040	0.051
1041	0.052
1041	0.052
1041	0.052
1042	0.052
1042	0.052
1043	0.051
1043	0.051
1044	0.05
1044	0.05
1044	0.049
1045	0.048
1045	0.047
1046	0.046
1046	0.046
1046	0.046
1047	0.046
1047	0.046
1048	0.046
1048	0.046
1049	0.046
1049	0.047
1049	0.047
1050	0.047
1050	0.047
1051	0.048
1051	0.048
1051	0.048
1052	0.049
1052	0.049
1053	0.049
1053	0.049
1053	0.049
1054	0.048
1054	0.048
1055	0.048
1055	0.047
1056	0.047
1056	0.046
1056	0.045
1057	0.044
1057	0.044
1058	0.043
1058	0.043
1058	0.042
1059	0.042
1059	0.041
1060	0.041
1060	0.041
1061	0.04
1061	0.04
1061	0.04
1062	0.04
1062	0.04
1063	0.04
1063	0.04
1063	0.04
1064	0.041
1064	0.04
1065	0.04
1065	0.04
1066	0.04
1066	0.04
1066	0.039
1067	0.039
1067	0.039
1068	0.038
1068	0.038
1068	0.037
1069	0.037
1069	0.036
1070	0.036
1070	0.036
1071	0.035
1071	0.035
1071	0.035
1072	0.034
1072	0.034
1073	0.034
1073	0.034
1073	0.034
1074	0.034
1074	0.034
1075	0.033
1075	0.033
1076	0.032
1076	0.032
1076	0.031
1077	0.031
1077	0.03
1078	0.029
1078	0.029
1078	0.028
1079	0.027
1079	0.027
1080	0.026
1080	0.026
1080	0.025
1081	0.024
1081	0.024
1082	0.023
1082	0.022
1083	0.021
1083	0.02
1083	0.019
1084	0.018
1084	0.017
1085	0.016
1085	0.015
1085	0.015
1086	0.014
1086	0.013
1087	0.012
1087	0.013
1088	0.012
1088	0.011
1088	0.011
1089	0.01
1089	0.009
1090	0.007
1090	0.007
1090	0.005
1091	0.004
1091	0.004
1092	0.002
1092	0.003
1092	0.002
1093	0.001
1093	0.001
1094	0.001
1094	0.001
1095	-0.001
1095	-0.001
1095	-0.001
1096	-0.003
1096	-0.003
1097	-0.003
1097	-0.005
1097	-0.006
1098	-0.007
1098	-0.009
1099	-0.01
1099	-0.01
1100	-0.012
1100	-0.014
1100	-0.016
1101	-0.019
1101	-0.022
1102	-0.024
1102	-0.027
1102	-0.028
1103	-0.03
1103	-0.033
1104	-0.035
1104	-0.037
1104	-0.039
1105	-0.042
1105	-0.045
1106	-0.049
1106	-0.051
1107	-0.056
1107	-0.059
1107	-0.065
1108	-0.067
1108	-0.07
1109	-0.073
1109	-0.079
1109	-0.081
1110	-0.081
1110	-0.084
1111	-0.091
1111	-0.09
