Data from 17C_3.2A_35min_2sec_int_Absorbance__470__02032.txt Node

Date: Mon Jun 19 17:50:42 CEST 2023
User: Marek
Spectrometer: MAYP115816
Trigger mode: 0
Integration Time (sec): 2.500000E-1
Scans to average: 10
Electric dark correction enabled: true
Nonlinearity correction enabled: true
Boxcar width: 5
XAxis mode: Wavelengths
Number of Pixels in Spectrum: 2068
>>>>>Begin Spectral Data<<<<<
199	-0.729
199	-0.743
200	-0.646
200	-0.593
201	-0.556
201	-0.542
202	-0.525
202	-0.511
203	-0.504
203	-0.501
204	-0.487
204	-0.475
205	-0.452
205	-0.448
205	-0.447
206	-0.45
206	-0.452
207	-0.442
207	-0.443
208	-0.445
208	-0.442
209	-0.436
209	-0.435
210	-0.438
210	-0.442
211	-0.443
211	-0.443
212	-0.446
212	-0.454
213	-0.455
213	-0.455
213	-0.461
214	-0.459
214	-0.46
215	-0.461
215	-0.467
216	-0.471
216	-0.479
217	-0.476
217	-0.48
218	-0.485
218	-0.484
219	-0.489
219	-0.499
220	-0.504
220	-0.513
221	-0.513
221	-0.515
221	-0.509
222	-0.505
222	-0.508
223	-0.51
223	-0.514
224	-0.516
224	-0.517
225	-0.511
225	-0.505
226	-0.508
226	-0.508
227	-0.513
227	-0.522
228	-0.522
228	-0.523
229	-0.525
229	-0.519
229	-0.513
230	-0.517
230	-0.522
231	-0.518
231	-0.511
232	-0.505
232	-0.503
233	-0.497
233	-0.496
234	-0.495
234	-0.49
235	-0.494
235	-0.499
236	-0.498
236	-0.501
236	-0.506
237	-0.513
237	-0.512
238	-0.52
238	-0.519
239	-0.517
239	-0.528
240	-0.526
240	-0.524
241	-0.528
241	-0.526
242	-0.531
242	-0.528
243	-0.526
243	-0.528
243	-0.535
244	-0.537
244	-0.536
245	-0.55
245	-0.548
246	-0.552
246	-0.558
247	-0.559
247	-0.56
248	-0.566
248	-0.563
249	-0.566
249	-0.574
250	-0.571
250	-0.567
250	-0.569
251	-0.567
251	-0.567
252	-0.57
252	-0.561
253	-0.567
253	-0.579
254	-0.576
254	-0.573
255	-0.58
255	-0.574
256	-0.571
256	-0.583
257	-0.58
257	-0.579
258	-0.595
258	-0.591
258	-0.586
259	-0.583
259	-0.592
260	-0.594
260	-0.597
261	-0.609
261	-0.601
262	-0.597
262	-0.598
263	-0.587
263	-0.582
264	-0.584
264	-0.591
265	-0.585
265	-0.591
265	-0.595
266	-0.591
266	-0.588
267	-0.602
267	-0.609
268	-0.626
268	-0.634
269	-0.63
269	-0.625
270	-0.631
270	-0.633
271	-0.634
271	-0.641
272	-0.644
272	-0.637
272	-0.628
273	-0.625
273	-0.635
274	-0.641
274	-0.644
275	-0.646
275	-0.642
276	-0.649
276	-0.639
277	-0.644
277	-0.665
278	-0.678
278	-0.673
278	-0.667
279	-0.67
279	-0.683
280	-0.678
280	-0.678
281	-0.672
281	-0.682
282	-0.673
282	-0.671
283	-0.662
283	-0.664
284	-0.658
284	-0.646
285	-0.639
285	-0.64
285	-0.635
286	-0.641
286	-0.633
287	-0.633
287	-0.615
288	-0.607
288	-0.617
289	-0.629
289	-0.641
290	-0.632
290	-0.629
291	-0.627
291	-0.62
292	-0.625
292	-0.63
292	-0.636
293	-0.641
293	-0.627
294	-0.616
294	-0.605
295	-0.603
295	-0.601
296	-0.599
296	-0.597
297	-0.589
297	-0.573
298	-0.565
298	-0.572
298	-0.564
299	-0.56
299	-0.562
300	-0.554
300	-0.549
301	-0.545
301	-0.545
302	-0.554
302	-0.561
303	-0.55
303	-0.537
304	-0.537
304	-0.535
305	-0.536
305	-0.535
305	-0.533
306	-0.517
306	-0.511
307	-0.5
307	-0.503
308	-0.516
308	-0.514
309	-0.516
309	-0.506
310	-0.495
310	-0.493
311	-0.483
311	-0.489
311	-0.487
312	-0.481
312	-0.478
313	-0.464
313	-0.467
314	-0.466
314	-0.469
315	-0.469
315	-0.466
316	-0.463
316	-0.457
317	-0.448
317	-0.444
318	-0.436
318	-0.434
318	-0.426
319	-0.416
319	-0.412
320	-0.403
320	-0.405
321	-0.41
321	-0.409
322	-0.404
322	-0.399
323	-0.398
323	-0.392
324	-0.388
324	-0.379
324	-0.37
325	-0.362
325	-0.346
326	-0.331
326	-0.315
327	-0.301
327	-0.281
328	-0.256
328	-0.235
329	-0.212
329	-0.188
330	-0.161
330	-0.129
330	-0.102
331	-0.076
331	-0.047
332	-0.022
332	-0.001
333	0.019
333	0.043
334	0.063
334	0.078
335	0.095
335	0.109
336	0.122
336	0.135
336	0.145
337	0.156
337	0.166
338	0.174
338	0.178
339	0.186
339	0.193
340	0.197
340	0.201
341	0.205
341	0.208
342	0.212
342	0.214
342	0.217
343	0.219
343	0.222
344	0.224
344	0.225
345	0.226
345	0.227
346	0.228
346	0.229
347	0.229
347	0.23
348	0.23
348	0.231
348	0.231
349	0.232
349	0.232
350	0.232
350	0.232
351	0.232
351	0.232
352	0.232
352	0.233
353	0.233
353	0.232
354	0.232
354	0.232
354	0.232
355	0.232
355	0.232
356	0.231
356	0.231
357	0.231
357	0.231
358	0.23
358	0.23
359	0.23
359	0.23
360	0.23
360	0.23
360	0.23
361	0.23
361	0.229
362	0.229
362	0.229
363	0.229
363	0.229
364	0.229
364	0.229
365	0.229
365	0.229
366	0.229
366	0.229
366	0.229
367	0.229
367	0.229
368	0.229
368	0.229
369	0.228
369	0.228
370	0.228
370	0.228
371	0.228
371	0.228
372	0.228
372	0.228
372	0.228
373	0.228
373	0.228
374	0.228
374	0.228
375	0.228
375	0.228
376	0.228
376	0.228
377	0.228
377	0.228
378	0.228
378	0.228
378	0.228
379	0.228
379	0.227
380	0.228
380	0.227
381	0.227
381	0.227
382	0.227
382	0.227
383	0.226
383	0.226
383	0.226
384	0.226
384	0.226
385	0.226
385	0.226
386	0.226
386	0.226
387	0.226
387	0.225
388	0.225
388	0.225
389	0.226
389	0.226
389	0.226
390	0.226
390	0.226
391	0.226
391	0.226
392	0.226
392	0.225
393	0.225
393	0.225
394	0.225
394	0.225
394	0.224
395	0.224
395	0.224
396	0.224
396	0.223
397	0.223
397	0.223
398	0.223
398	0.223
399	0.223
399	0.223
400	0.223
400	0.223
400	0.223
401	0.223
401	0.223
402	0.223
402	0.222
403	0.222
403	0.222
404	0.222
404	0.222
405	0.222
405	0.222
405	0.222
406	0.222
406	0.222
407	0.221
407	0.221
408	0.221
408	0.221
409	0.221
409	0.221
410	0.221
410	0.221
411	0.221
411	0.221
411	0.221
412	0.221
412	0.221
413	0.221
413	0.221
414	0.221
414	0.221
415	0.221
415	0.22
416	0.22
416	0.22
416	0.22
417	0.22
417	0.22
418	0.22
418	0.22
419	0.22
419	0.22
420	0.22
420	0.22
421	0.22
421	0.22
421	0.22
422	0.22
422	0.22
423	0.22
423	0.22
424	0.219
424	0.219
425	0.219
425	0.218
426	0.218
426	0.218
427	0.218
427	0.218
427	0.217
428	0.217
428	0.217
429	0.218
429	0.217
430	0.217
430	0.217
431	0.217
431	0.217
432	0.217
432	0.217
432	0.217
433	0.216
433	0.216
434	0.216
434	0.216
435	0.216
435	0.216
436	0.216
436	0.215
437	0.215
437	0.215
437	0.215
438	0.215
438	0.215
439	0.215
439	0.215
440	0.215
440	0.215
441	0.215
441	0.215
442	0.215
442	0.215
442	0.215
443	0.215
443	0.215
444	0.215
444	0.215
445	0.215
445	0.215
446	0.215
446	0.215
447	0.215
447	0.215
447	0.215
448	0.215
448	0.215
449	0.215
449	0.215
450	0.215
450	0.215
451	0.215
451	0.215
452	0.215
452	0.215
452	0.215
453	0.215
453	0.214
454	0.214
454	0.214
455	0.214
455	0.214
456	0.214
456	0.214
457	0.213
457	0.213
458	0.214
458	0.213
458	0.213
459	0.214
459	0.214
460	0.213
460	0.213
461	0.213
461	0.213
462	0.213
462	0.213
463	0.213
463	0.213
463	0.213
464	0.213
464	0.213
465	0.213
465	0.213
466	0.213
466	0.214
467	0.214
467	0.214
467	0.214
468	0.214
468	0.214
469	0.214
469	0.215
470	0.215
470	0.215
471	0.216
471	0.215
472	0.216
472	0.216
472	0.216
473	0.216
473	0.217
474	0.217
474	0.217
475	0.217
475	0.217
476	0.217
476	0.217
477	0.217
477	0.217
477	0.217
478	0.218
478	0.218
479	0.218
479	0.218
480	0.218
480	0.218
481	0.219
481	0.219
482	0.22
482	0.22
482	0.221
483	0.221
483	0.222
484	0.222
484	0.221
485	0.222
485	0.222
486	0.222
486	0.223
487	0.223
487	0.224
487	0.224
488	0.225
488	0.225
489	0.227
489	0.228
490	0.229
490	0.23
491	0.231
491	0.232
492	0.232
492	0.233
492	0.234
493	0.234
493	0.235
494	0.236
494	0.237
495	0.237
495	0.238
496	0.239
496	0.24
496	0.241
497	0.242
497	0.243
498	0.244
498	0.245
499	0.246
499	0.247
500	0.249
500	0.25
501	0.25
501	0.251
501	0.252
502	0.253
502	0.253
503	0.255
503	0.256
504	0.256
504	0.258
505	0.259
505	0.26
506	0.261
506	0.262
506	0.263
507	0.264
507	0.265
508	0.266
508	0.267
509	0.269
509	0.27
510	0.271
510	0.273
511	0.274
511	0.275
511	0.276
512	0.277
512	0.279
513	0.28
513	0.281
514	0.282
514	0.283
515	0.284
515	0.285
515	0.286
516	0.287
516	0.289
517	0.29
517	0.291
518	0.292
518	0.293
519	0.294
519	0.295
520	0.296
520	0.298
520	0.299
521	0.3
521	0.301
522	0.302
522	0.304
523	0.305
523	0.306
524	0.306
524	0.307
524	0.308
525	0.308
525	0.309
526	0.31
526	0.31
527	0.311
527	0.312
528	0.312
528	0.313
529	0.314
529	0.315
529	0.316
530	0.317
530	0.318
531	0.319
531	0.319
532	0.32
532	0.32
533	0.321
533	0.321
533	0.321
534	0.321
534	0.322
535	0.322
535	0.322
536	0.322
536	0.321
537	0.321
537	0.322
538	0.322
538	0.322
538	0.323
539	0.323
539	0.324
540	0.324
540	0.324
541	0.324
541	0.325
542	0.325
542	0.325
542	0.325
543	0.325
543	0.324
544	0.324
544	0.324
545	0.324
545	0.325
546	0.325
546	0.324
547	0.324
547	0.324
547	0.324
548	0.324
548	0.324
549	0.324
549	0.324
550	0.324
550	0.324
551	0.323
551	0.324
551	0.325
552	0.326
552	0.326
553	0.326
553	0.327
554	0.326
554	0.326
555	0.326
555	0.326
556	0.326
556	0.326
556	0.325
557	0.325
557	0.324
558	0.324
558	0.324
559	0.323
559	0.323
560	0.323
560	0.323
560	0.322
561	0.322
561	0.322
562	0.322
562	0.321
563	0.321
563	0.32
564	0.32
564	0.321
564	0.321
565	0.321
565	0.322
566	0.322
566	0.321
567	0.322
567	0.322
568	0.322
568	0.321
568	0.321
569	0.32
569	0.319
570	0.318
570	0.317
571	0.317
571	0.317
572	0.316
572	0.315
573	0.315
573	0.315
573	0.314
574	0.314
574	0.314
575	0.314
575	0.315
576	0.315
576	0.315
577	0.315
577	0.315
577	0.315
578	0.316
578	0.316
579	0.317
579	0.317
580	0.316
580	0.315
581	0.314
581	0.314
581	0.315
582	0.315
582	0.315
583	0.315
583	0.314
584	0.313
584	0.313
585	0.313
585	0.314
585	0.314
586	0.314
586	0.315
587	0.314
587	0.314
588	0.313
588	0.313
589	0.314
589	0.314
590	0.314
590	0.314
590	0.315
591	0.315
591	0.314
592	0.314
592	0.313
593	0.313
593	0.313
594	0.313
594	0.312
594	0.313
595	0.313
595	0.312
596	0.312
596	0.313
597	0.315
597	0.314
598	0.314
598	0.314
598	0.314
599	0.313
599	0.312
600	0.311
600	0.311
601	0.31
601	0.31
602	0.309
602	0.309
602	0.308
603	0.309
603	0.31
604	0.31
604	0.311
605	0.311
605	0.312
606	0.311
606	0.311
606	0.311
607	0.31
607	0.31
608	0.309
608	0.308
609	0.307
609	0.308
610	0.307
610	0.307
610	0.307
611	0.307
611	0.308
612	0.309
612	0.309
613	0.309
613	0.309
614	0.308
614	0.307
614	0.307
615	0.306
615	0.305
616	0.305
616	0.304
617	0.303
617	0.301
618	0.301
618	0.3
618	0.3
619	0.3
619	0.3
620	0.301
620	0.3
621	0.3
621	0.299
622	0.299
622	0.298
622	0.298
623	0.297
623	0.297
624	0.297
624	0.296
625	0.295
625	0.294
626	0.293
626	0.293
626	0.292
627	0.291
627	0.29
628	0.289
628	0.287
629	0.286
629	0.284
630	0.282
630	0.28
630	0.279
631	0.277
631	0.274
632	0.272
632	0.269
633	0.267
633	0.264
634	0.261
634	0.258
634	0.256
635	0.253
635	0.249
636	0.246
636	0.242
637	0.238
637	0.234
638	0.23
638	0.225
638	0.22
639	0.215
639	0.209
640	0.204
640	0.199
641	0.193
641	0.188
642	0.183
642	0.177
642	0.172
643	0.166
643	0.16
644	0.153
644	0.147
645	0.14
645	0.133
646	0.126
646	0.119
646	0.111
647	0.104
647	0.096
648	0.089
648	0.081
649	0.073
649	0.065
650	0.057
650	0.048
650	0.039
651	0.028
651	0.015
652	-0
652	-0.017
653	-0.032
653	-0.044
653	-0.041
654	-0.02
654	-0.009
655	-0.013
655	-0.018
656	-0.024
656	-0.031
657	-0.035
657	-0.038
657	-0.045
658	-0.052
658	-0.082
659	-0.168
659	-0.27
660	-0.316
660	-0.343
661	-0.372
661	-0.403
661	-0.437
662	-0.469
662	-0.503
663	-0.542
663	-0.584
664	-0.628
664	-0.679
665	-0.73
665	-0.788
665	-0.842
666	-0.899
666	-0.961
667	-1.026
667	-1.091
668	-1.163
668	-1.236
669	-1.308
669	-1.381
669	-1.457
670	-1.52
670	-1.541
671	-1.639
671	-1.944
672	-2.182
672	-2.377
672	-2.51
673	-2.604
673	-2.686
674	-2.739
674	-2.76
675	-2.786
675	-2.928
676	-3.13
676	-3.084
676	-2.863
677	-2.664
677	-2.508
678	-2.347
678	-2.088
679	-1.772
679	-1.623
680	-1.523
680	-1.437
680	-1.363
681	-1.317
681	-1.256
682	-1.215
682	-1.177
683	-1.141
683	-1.123
684	-1.101
684	-1.081
684	-1.059
685	-1.034
685	-1.011
686	-0.985
686	-0.969
687	-0.944
687	-0.932
687	-0.912
688	-0.885
688	-0.864
689	-0.843
689	-0.828
690	-0.81
690	-0.797
691	-0.791
691	-0.793
691	-0.808
692	-0.8
692	-0.792
693	-0.787
693	-0.795
694	-0.79
694	-0.785
695	-0.788
695	-0.787
695	-0.771
696	-0.769
696	-0.747
697	-0.746
697	-0.761
698	-0.764
698	-0.754
698	-0.766
699	-0.767
699	-0.765
700	-0.756
700	-0.77
701	-0.768
701	-0.776
702	-0.776
702	-0.764
702	-0.757
703	-0.751
703	-0.743
704	-0.74
704	-0.74
705	-0.75
705	-0.744
705	-0.735
706	-0.734
706	-0.728
707	-0.732
707	-0.726
708	-0.725
708	-0.715
709	-0.717
709	-0.72
709	-0.712
710	-0.72
710	-0.729
711	-0.719
711	-0.72
712	-0.721
712	-0.736
713	-0.733
713	-0.742
713	-0.734
714	-0.729
714	-0.73
715	-0.72
715	-0.706
716	-0.715
716	-0.716
716	-0.708
717	-0.708
717	-0.714
718	-0.704
718	-0.703
719	-0.711
719	-0.712
720	-0.708
720	-0.717
720	-0.708
721	-0.698
721	-0.698
722	-0.684
722	-0.671
723	-0.669
723	-0.674
723	-0.659
724	-0.664
724	-0.667
725	-0.67
725	-0.68
726	-0.693
726	-0.697
727	-0.702
727	-0.718
727	-0.725
728	-0.727
728	-0.733
729	-0.731
729	-0.737
730	-0.741
730	-0.734
730	-0.723
731	-0.708
731	-0.719
732	-0.722
732	-0.723
733	-0.722
733	-0.727
734	-0.722
734	-0.72
734	-0.707
735	-0.705
735	-0.706
736	-0.715
736	-0.7
737	-0.693
737	-0.696
737	-0.704
738	-0.697
738	-0.697
739	-0.694
739	-0.708
740	-0.708
740	-0.706
741	-0.703
741	-0.705
741	-0.707
742	-0.703
742	-0.704
743	-0.713
743	-0.718
744	-0.717
744	-0.706
744	-0.705
745	-0.714
745	-0.706
746	-0.705
746	-0.703
747	-0.706
747	-0.692
748	-0.681
748	-0.686
748	-0.688
749	-0.687
749	-0.688
750	-0.677
750	-0.678
751	-0.682
751	-0.69
751	-0.691
752	-0.696
752	-0.704
753	-0.698
753	-0.694
754	-0.697
754	-0.691
754	-0.705
755	-0.72
755	-0.733
756	-0.722
756	-0.72
757	-0.717
757	-0.714
758	-0.717
758	-0.714
758	-0.719
759	-0.726
759	-0.709
760	-0.702
760	-0.696
761	-0.705
761	-0.702
761	-0.703
762	-0.709
762	-0.708
763	-0.716
763	-0.714
764	-0.712
764	-0.721
764	-0.725
765	-0.716
765	-0.705
766	-0.713
766	-0.716
767	-0.731
767	-0.723
768	-0.714
768	-0.722
768	-0.727
769	-0.744
769	-0.745
770	-0.751
770	-0.762
771	-0.761
771	-0.767
771	-0.768
772	-0.773
772	-0.772
773	-0.772
773	-0.768
774	-0.766
774	-0.769
775	-0.77
775	-0.767
775	-0.773
776	-0.771
776	-0.76
777	-0.767
777	-0.786
778	-0.784
778	-0.804
778	-0.791
779	-0.812
779	-0.822
780	-0.835
780	-0.835
781	-0.849
781	-0.846
781	-0.861
782	-0.862
782	-0.865
783	-0.852
783	-0.85
784	-0.829
784	-0.819
784	-0.826
785	-0.832
785	-0.818
786	-0.824
786	-0.804
787	-0.789
787	-0.79
788	-0.792
788	-0.804
788	-0.817
789	-0.816
789	-0.799
790	-0.779
790	-0.778
791	-0.78
791	-0.798
791	-0.806
792	-0.799
792	-0.777
793	-0.767
793	-0.741
794	-0.745
794	-0.735
794	-0.745
795	-0.741
795	-0.73
796	-0.713
796	-0.719
797	-0.712
797	-0.725
797	-0.729
798	-0.743
798	-0.739
799	-0.75
799	-0.734
800	-0.742
800	-0.738
801	-0.745
801	-0.732
801	-0.743
802	-0.75
802	-0.751
803	-0.751
803	-0.758
804	-0.753
804	-0.766
804	-0.752
805	-0.757
805	-0.743
806	-0.745
806	-0.729
807	-0.726
807	-0.709
807	-0.697
808	-0.688
808	-0.68
809	-0.665
809	-0.673
810	-0.67
810	-0.664
810	-0.661
811	-0.667
811	-0.66
812	-0.661
812	-0.666
813	-0.672
813	-0.668
813	-0.674
814	-0.676
814	-0.68
815	-0.684
815	-0.687
816	-0.681
816	-0.685
817	-0.69
817	-0.707
817	-0.718
818	-0.729
818	-0.73
819	-0.721
819	-0.723
820	-0.732
820	-0.728
820	-0.737
821	-0.736
821	-0.725
822	-0.693
822	-0.672
823	-0.669
823	-0.676
823	-0.674
824	-0.668
824	-0.672
825	-0.665
825	-0.646
826	-0.642
826	-0.651
826	-0.662
827	-0.654
827	-0.649
828	-0.626
828	-0.627
829	-0.615
829	-0.6
829	-0.593
830	-0.604
830	-0.598
831	-0.587
831	-0.578
832	-0.575
832	-0.569
832	-0.576
833	-0.57
833	-0.572
834	-0.573
834	-0.579
835	-0.566
835	-0.561
835	-0.557
836	-0.552
836	-0.55
837	-0.546
837	-0.536
838	-0.528
838	-0.516
839	-0.503
839	-0.49
839	-0.481
840	-0.471
840	-0.467
841	-0.456
841	-0.448
842	-0.443
842	-0.433
842	-0.426
843	-0.42
843	-0.413
844	-0.403
844	-0.395
845	-0.387
845	-0.378
845	-0.365
846	-0.353
846	-0.337
847	-0.326
847	-0.314
848	-0.302
848	-0.29
848	-0.275
849	-0.264
849	-0.251
850	-0.235
850	-0.228
851	-0.219
851	-0.209
851	-0.2
852	-0.183
852	-0.17
853	-0.162
853	-0.155
854	-0.143
854	-0.131
854	-0.12
855	-0.109
855	-0.102
856	-0.091
856	-0.083
857	-0.076
857	-0.068
857	-0.055
858	-0.044
858	-0.038
859	-0.029
859	-0.017
860	-0.008
860	0.006
860	0.014
861	0.023
861	0.032
862	0.039
862	0.047
863	0.054
863	0.063
863	0.068
864	0.073
864	0.079
865	0.085
865	0.091
866	0.096
866	0.1
866	0.104
867	0.108
867	0.113
868	0.116
868	0.12
869	0.124
869	0.126
869	0.128
870	0.131
870	0.133
871	0.136
871	0.138
872	0.139
872	0.139
872	0.14
873	0.14
873	0.141
874	0.14
874	0.14
875	0.139
875	0.138
875	0.137
876	0.135
876	0.134
877	0.133
877	0.131
878	0.13
878	0.128
878	0.126
879	0.124
879	0.123
880	0.122
880	0.122
881	0.122
881	0.122
881	0.122
882	0.121
882	0.12
883	0.119
883	0.118
884	0.117
884	0.116
884	0.115
885	0.114
885	0.113
886	0.113
886	0.112
887	0.111
887	0.111
887	0.111
888	0.111
888	0.111
889	0.111
889	0.111
890	0.111
890	0.111
890	0.11
891	0.11
891	0.11
892	0.11
892	0.11
893	0.11
893	0.11
893	0.11
894	0.109
894	0.109
895	0.108
895	0.108
895	0.107
896	0.107
896	0.106
897	0.105
897	0.104
898	0.103
898	0.102
898	0.102
899	0.102
899	0.103
900	0.103
900	0.104
901	0.105
901	0.105
901	0.106
902	0.107
902	0.108
903	0.108
903	0.108
904	0.109
904	0.109
904	0.11
905	0.111
905	0.111
906	0.111
906	0.111
907	0.111
907	0.111
907	0.111
908	0.11
908	0.11
909	0.109
909	0.108
910	0.107
910	0.107
910	0.106
911	0.107
911	0.107
912	0.107
912	0.108
913	0.108
913	0.109
913	0.11
914	0.111
914	0.111
915	0.112
915	0.113
916	0.113
916	0.113
916	0.113
917	0.114
917	0.114
918	0.114
918	0.113
918	0.113
919	0.113
919	0.113
920	0.113
920	0.113
921	0.113
921	0.113
921	0.113
922	0.113
922	0.112
923	0.112
923	0.112
924	0.112
924	0.111
924	0.111
925	0.11
925	0.109
926	0.107
926	0.106
927	0.105
927	0.105
927	0.104
928	0.103
928	0.103
929	0.102
929	0.101
930	0.101
930	0.1
930	0.1
931	0.099
931	0.099
932	0.098
932	0.097
933	0.097
933	0.095
933	0.094
934	0.092
934	0.091
935	0.09
935	0.089
935	0.088
936	0.087
936	0.086
937	0.085
937	0.085
938	0.085
938	0.085
938	0.085
939	0.086
939	0.086
940	0.087
940	0.087
941	0.088
941	0.088
941	0.089
942	0.089
942	0.09
943	0.09
943	0.09
944	0.089
944	0.089
944	0.088
945	0.087
945	0.086
946	0.085
946	0.083
946	0.082
947	0.082
947	0.081
948	0.081
948	0.081
949	0.081
949	0.082
949	0.082
950	0.083
950	0.084
951	0.085
951	0.086
952	0.086
952	0.088
952	0.088
953	0.089
953	0.09
954	0.09
954	0.091
955	0.092
955	0.093
955	0.093
956	0.094
956	0.095
957	0.095
957	0.095
957	0.095
958	0.095
958	0.096
959	0.096
959	0.096
960	0.096
960	0.096
960	0.097
961	0.097
961	0.097
962	0.097
962	0.097
963	0.097
963	0.097
963	0.096
964	0.097
964	0.097
965	0.097
965	0.096
966	0.096
966	0.096
966	0.096
967	0.096
967	0.095
968	0.094
968	0.094
968	0.093
969	0.093
969	0.092
970	0.092
970	0.092
971	0.092
971	0.092
971	0.092
972	0.092
972	0.092
973	0.092
973	0.092
974	0.092
974	0.092
974	0.092
975	0.091
975	0.09
976	0.09
976	0.089
976	0.089
977	0.088
977	0.088
978	0.088
978	0.088
979	0.088
979	0.087
979	0.087
980	0.087
980	0.086
981	0.086
981	0.086
982	0.086
982	0.086
982	0.085
983	0.085
983	0.085
984	0.085
984	0.085
984	0.085
985	0.086
985	0.086
986	0.085
986	0.085
987	0.085
987	0.085
987	0.085
988	0.084
988	0.083
989	0.083
989	0.081
990	0.08
990	0.08
990	0.079
991	0.079
991	0.078
992	0.078
992	0.077
992	0.077
993	0.077
993	0.077
994	0.077
994	0.077
995	0.077
995	0.076
995	0.076
996	0.075
996	0.075
997	0.074
997	0.074
997	0.074
998	0.074
998	0.074
999	0.074
999	0.074
1000	0.074
1000	0.075
1000	0.075
1001	0.076
1001	0.076
1002	0.076
1002	0.077
1003	0.077
1003	0.077
1003	0.077
1004	0.076
1004	0.076
1005	0.076
1005	0.075
1005	0.074
1006	0.072
1006	0.071
1007	0.07
1007	0.07
1008	0.069
1008	0.068
1008	0.068
1009	0.067
1009	0.067
1010	0.067
1010	0.067
1010	0.067
1011	0.067
1011	0.067
1012	0.066
1012	0.065
1013	0.064
1013	0.064
1013	0.063
1014	0.062
1014	0.061
1015	0.06
1015	0.06
1016	0.059
1016	0.058
1016	0.057
1017	0.056
1017	0.056
1018	0.055
1018	0.054
1018	0.053
1019	0.053
1019	0.052
1020	0.051
1020	0.051
1021	0.05
1021	0.049
1021	0.048
1022	0.047
1022	0.047
1023	0.047
1023	0.046
1023	0.046
1024	0.046
1024	0.046
1025	0.046
1025	0.047
1026	0.047
1026	0.047
1026	0.048
1027	0.048
1027	0.048
1028	0.048
1028	0.048
1028	0.048
1029	0.048
1029	0.047
1030	0.047
1030	0.046
1031	0.046
1031	0.046
1031	0.045
1032	0.045
1032	0.045
1033	0.045
1033	0.045
1033	0.045
1034	0.045
1034	0.046
1035	0.046
1035	0.046
1036	0.046
1036	0.046
1036	0.046
1037	0.045
1037	0.046
1038	0.045
1038	0.046
1039	0.046
1039	0.046
1039	0.046
1040	0.046
1040	0.047
1041	0.048
1041	0.048
1041	0.048
1042	0.048
1042	0.047
1043	0.047
1043	0.046
1044	0.046
1044	0.045
1044	0.044
1045	0.043
1045	0.042
1046	0.042
1046	0.041
1046	0.041
1047	0.041
1047	0.041
1048	0.042
1048	0.042
1049	0.042
1049	0.042
1049	0.043
1050	0.043
1050	0.043
1051	0.043
1051	0.044
1051	0.044
1052	0.044
1052	0.044
1053	0.045
1053	0.045
1053	0.045
1054	0.044
1054	0.044
1055	0.044
1055	0.044
1056	0.043
1056	0.042
1056	0.041
1057	0.04
1057	0.04
1058	0.039
1058	0.038
1058	0.038
1059	0.037
1059	0.036
1060	0.036
1060	0.036
1061	0.035
1061	0.036
1061	0.036
1062	0.035
1062	0.035
1063	0.035
1063	0.035
1063	0.036
1064	0.036
1064	0.036
1065	0.036
1065	0.036
1066	0.035
1066	0.035
1066	0.035
1067	0.035
1067	0.034
1068	0.034
1068	0.033
1068	0.032
1069	0.032
1069	0.032
1070	0.031
1070	0.031
1071	0.031
1071	0.031
1071	0.03
1072	0.03
1072	0.03
1073	0.029
1073	0.029
1073	0.029
1074	0.029
1074	0.029
1075	0.029
1075	0.028
1076	0.027
1076	0.027
1076	0.026
1077	0.026
1077	0.025
1078	0.024
1078	0.023
1078	0.023
1079	0.022
1079	0.022
1080	0.021
1080	0.021
1080	0.019
1081	0.019
1081	0.019
1082	0.018
1082	0.017
1083	0.016
1083	0.015
1083	0.014
1084	0.013
1084	0.012
1085	0.011
1085	0.011
1085	0.01
1086	0.01
1086	0.009
1087	0.009
1087	0.009
1088	0.008
1088	0.007
1088	0.007
1089	0.006
1089	0.006
1090	0.004
1090	0.004
1090	0.002
1091	0.001
1091	0.001
1092	0
1092	0
1092	-0.001
1093	-0.002
1093	-0.002
1094	-0.003
1094	-0.003
1095	-0.005
1095	-0.005
1095	-0.005
1096	-0.006
1096	-0.007
1097	-0.008
1097	-0.009
1097	-0.01
1098	-0.011
1098	-0.013
1099	-0.013
1099	-0.014
1100	-0.016
1100	-0.017
1100	-0.02
1101	-0.022
1101	-0.025
1102	-0.027
1102	-0.03
1102	-0.031
1103	-0.033
1103	-0.035
1104	-0.038
1104	-0.039
1104	-0.042
1105	-0.044
1105	-0.047
1106	-0.051
1106	-0.053
1107	-0.058
1107	-0.062
1107	-0.068
1108	-0.07
1108	-0.072
1109	-0.075
1109	-0.08
1109	-0.084
1110	-0.085
1110	-0.088
1111	-0.094
1111	-0.095
