Data from 17C_3.2A_35min_2sec_int_Absorbance__696__02258.txt Node

Date: Mon Jun 19 18:00:07 CEST 2023
User: Marek
Spectrometer: MAYP115816
Trigger mode: 0
Integration Time (sec): 2.500000E-1
Scans to average: 10
Electric dark correction enabled: true
Nonlinearity correction enabled: true
Boxcar width: 5
XAxis mode: Wavelengths
Number of Pixels in Spectrum: 2068
>>>>>Begin Spectral Data<<<<<
199	-0.725
199	-0.738
200	-0.649
200	-0.595
201	-0.557
201	-0.542
202	-0.526
202	-0.513
203	-0.505
203	-0.503
204	-0.491
204	-0.479
205	-0.457
205	-0.45
205	-0.45
206	-0.454
206	-0.458
207	-0.448
207	-0.45
208	-0.453
208	-0.453
209	-0.447
209	-0.445
210	-0.448
210	-0.454
211	-0.453
211	-0.455
212	-0.46
212	-0.468
213	-0.466
213	-0.465
213	-0.468
214	-0.465
214	-0.466
215	-0.465
215	-0.471
216	-0.475
216	-0.483
217	-0.478
217	-0.483
218	-0.485
218	-0.486
219	-0.49
219	-0.5
220	-0.505
220	-0.516
221	-0.511
221	-0.515
221	-0.506
222	-0.502
222	-0.503
223	-0.507
223	-0.51
224	-0.513
224	-0.512
225	-0.506
225	-0.499
226	-0.507
226	-0.508
227	-0.513
227	-0.523
228	-0.523
228	-0.524
229	-0.526
229	-0.521
229	-0.514
230	-0.519
230	-0.523
231	-0.517
231	-0.508
232	-0.503
232	-0.502
233	-0.498
233	-0.498
234	-0.496
234	-0.492
235	-0.499
235	-0.506
236	-0.504
236	-0.506
236	-0.513
237	-0.521
237	-0.519
238	-0.525
238	-0.522
239	-0.521
239	-0.531
240	-0.525
240	-0.523
241	-0.53
241	-0.528
242	-0.534
242	-0.527
243	-0.521
243	-0.524
243	-0.533
244	-0.534
244	-0.534
245	-0.55
245	-0.551
246	-0.553
246	-0.561
247	-0.562
247	-0.567
248	-0.575
248	-0.572
249	-0.574
249	-0.582
250	-0.579
250	-0.573
250	-0.573
251	-0.571
251	-0.57
252	-0.575
252	-0.566
253	-0.571
253	-0.581
254	-0.582
254	-0.582
255	-0.59
255	-0.584
256	-0.582
256	-0.593
257	-0.59
257	-0.585
258	-0.601
258	-0.597
258	-0.595
259	-0.589
259	-0.595
260	-0.594
260	-0.6
261	-0.612
261	-0.603
262	-0.601
262	-0.602
263	-0.591
263	-0.587
264	-0.586
264	-0.595
265	-0.589
265	-0.596
265	-0.598
266	-0.595
266	-0.591
267	-0.606
267	-0.612
268	-0.627
268	-0.636
269	-0.634
269	-0.629
270	-0.637
270	-0.642
271	-0.642
271	-0.649
272	-0.652
272	-0.645
272	-0.639
273	-0.638
273	-0.648
274	-0.653
274	-0.657
275	-0.657
275	-0.651
276	-0.657
276	-0.649
277	-0.655
277	-0.673
278	-0.684
278	-0.679
278	-0.673
279	-0.676
279	-0.688
280	-0.685
280	-0.686
281	-0.68
281	-0.688
282	-0.681
282	-0.682
283	-0.672
283	-0.674
284	-0.667
284	-0.656
285	-0.651
285	-0.648
285	-0.642
286	-0.651
286	-0.644
287	-0.64
287	-0.625
288	-0.617
288	-0.624
289	-0.637
289	-0.644
290	-0.633
290	-0.633
291	-0.633
291	-0.627
292	-0.631
292	-0.639
292	-0.643
293	-0.648
293	-0.639
294	-0.628
294	-0.618
295	-0.615
295	-0.611
296	-0.609
296	-0.604
297	-0.597
297	-0.579
298	-0.572
298	-0.582
298	-0.571
299	-0.565
299	-0.571
300	-0.567
300	-0.565
301	-0.559
301	-0.557
302	-0.564
302	-0.573
303	-0.559
303	-0.542
304	-0.543
304	-0.542
305	-0.541
305	-0.542
305	-0.538
306	-0.524
306	-0.519
307	-0.505
307	-0.507
308	-0.522
308	-0.522
309	-0.526
309	-0.514
310	-0.504
310	-0.501
311	-0.493
311	-0.501
311	-0.497
312	-0.495
312	-0.492
313	-0.48
313	-0.482
314	-0.478
314	-0.482
315	-0.482
315	-0.478
316	-0.473
316	-0.466
317	-0.459
317	-0.455
318	-0.446
318	-0.443
318	-0.437
319	-0.428
319	-0.424
320	-0.416
320	-0.419
321	-0.425
321	-0.424
322	-0.419
322	-0.412
323	-0.412
323	-0.406
324	-0.399
324	-0.394
324	-0.384
325	-0.375
325	-0.358
326	-0.345
326	-0.328
327	-0.312
327	-0.294
328	-0.267
328	-0.249
329	-0.226
329	-0.202
330	-0.175
330	-0.145
330	-0.119
331	-0.09
331	-0.064
332	-0.04
332	-0.02
333	0
333	0.024
334	0.043
334	0.059
335	0.075
335	0.088
336	0.1
336	0.113
336	0.121
337	0.131
337	0.14
338	0.148
338	0.153
339	0.159
339	0.165
340	0.169
340	0.173
341	0.176
341	0.179
342	0.183
342	0.185
342	0.188
343	0.19
343	0.193
344	0.194
344	0.195
345	0.196
345	0.197
346	0.198
346	0.199
347	0.2
347	0.2
348	0.201
348	0.201
348	0.201
349	0.201
349	0.202
350	0.202
350	0.202
351	0.202
351	0.202
352	0.202
352	0.202
353	0.202
353	0.202
354	0.202
354	0.202
354	0.201
355	0.201
355	0.201
356	0.201
356	0.201
357	0.2
357	0.2
358	0.199
358	0.199
359	0.199
359	0.199
360	0.199
360	0.199
360	0.199
361	0.199
361	0.199
362	0.199
362	0.199
363	0.199
363	0.199
364	0.199
364	0.199
365	0.199
365	0.199
366	0.199
366	0.199
366	0.199
367	0.199
367	0.199
368	0.199
368	0.199
369	0.199
369	0.199
370	0.199
370	0.198
371	0.198
371	0.198
372	0.198
372	0.198
372	0.199
373	0.199
373	0.199
374	0.199
374	0.199
375	0.199
375	0.199
376	0.199
376	0.199
377	0.199
377	0.198
378	0.198
378	0.198
378	0.198
379	0.198
379	0.198
380	0.198
380	0.198
381	0.198
381	0.198
382	0.197
382	0.197
383	0.197
383	0.197
383	0.197
384	0.197
384	0.197
385	0.197
385	0.197
386	0.197
386	0.197
387	0.197
387	0.197
388	0.197
388	0.197
389	0.197
389	0.197
389	0.197
390	0.197
390	0.197
391	0.197
391	0.197
392	0.197
392	0.197
393	0.197
393	0.197
394	0.196
394	0.196
394	0.196
395	0.196
395	0.196
396	0.196
396	0.196
397	0.196
397	0.196
398	0.196
398	0.196
399	0.196
399	0.195
400	0.195
400	0.195
400	0.195
401	0.195
401	0.195
402	0.195
402	0.195
403	0.195
403	0.194
404	0.194
404	0.194
405	0.195
405	0.194
405	0.194
406	0.194
406	0.194
407	0.194
407	0.194
408	0.194
408	0.194
409	0.194
409	0.194
410	0.194
410	0.194
411	0.194
411	0.194
411	0.194
412	0.194
412	0.194
413	0.194
413	0.194
414	0.194
414	0.194
415	0.194
415	0.193
416	0.193
416	0.193
416	0.193
417	0.193
417	0.193
418	0.193
418	0.193
419	0.193
419	0.193
420	0.193
420	0.194
421	0.194
421	0.194
421	0.194
422	0.194
422	0.194
423	0.193
423	0.193
424	0.193
424	0.192
425	0.192
425	0.192
426	0.191
426	0.191
427	0.191
427	0.191
427	0.191
428	0.191
428	0.191
429	0.191
429	0.191
430	0.191
430	0.191
431	0.191
431	0.191
432	0.191
432	0.191
432	0.19
433	0.19
433	0.19
434	0.19
434	0.19
435	0.19
435	0.19
436	0.19
436	0.189
437	0.189
437	0.189
437	0.189
438	0.189
438	0.189
439	0.189
439	0.189
440	0.189
440	0.189
441	0.189
441	0.189
442	0.189
442	0.189
442	0.189
443	0.189
443	0.189
444	0.189
444	0.189
445	0.188
445	0.188
446	0.189
446	0.189
447	0.189
447	0.189
447	0.189
448	0.189
448	0.189
449	0.189
449	0.189
450	0.189
450	0.189
451	0.189
451	0.189
452	0.189
452	0.189
452	0.189
453	0.189
453	0.189
454	0.189
454	0.188
455	0.188
455	0.188
456	0.188
456	0.188
457	0.188
457	0.188
458	0.188
458	0.188
458	0.188
459	0.188
459	0.188
460	0.188
460	0.188
461	0.187
461	0.187
462	0.187
462	0.187
463	0.187
463	0.188
463	0.188
464	0.187
464	0.187
465	0.187
465	0.187
466	0.188
466	0.188
467	0.188
467	0.188
467	0.188
468	0.188
468	0.188
469	0.188
469	0.188
470	0.189
470	0.189
471	0.189
471	0.189
472	0.189
472	0.189
472	0.189
473	0.189
473	0.189
474	0.19
474	0.19
475	0.19
475	0.19
476	0.19
476	0.19
477	0.19
477	0.19
477	0.19
478	0.191
478	0.191
479	0.191
479	0.191
480	0.191
480	0.191
481	0.191
481	0.192
482	0.192
482	0.192
482	0.193
483	0.193
483	0.193
484	0.193
484	0.193
485	0.193
485	0.193
486	0.194
486	0.194
487	0.195
487	0.195
487	0.195
488	0.196
488	0.196
489	0.197
489	0.199
490	0.2
490	0.2
491	0.201
491	0.201
492	0.202
492	0.202
492	0.203
493	0.203
493	0.204
494	0.204
494	0.205
495	0.205
495	0.206
496	0.207
496	0.207
496	0.208
497	0.209
497	0.21
498	0.211
498	0.211
499	0.212
499	0.213
500	0.214
500	0.215
501	0.216
501	0.216
501	0.217
502	0.218
502	0.218
503	0.219
503	0.22
504	0.221
504	0.221
505	0.222
505	0.223
506	0.224
506	0.225
506	0.226
507	0.226
507	0.227
508	0.228
508	0.229
509	0.23
509	0.231
510	0.232
510	0.233
511	0.233
511	0.235
511	0.236
512	0.237
512	0.238
513	0.239
513	0.239
514	0.24
514	0.241
515	0.242
515	0.243
515	0.244
516	0.245
516	0.246
517	0.247
517	0.248
518	0.249
518	0.249
519	0.25
519	0.251
520	0.252
520	0.253
520	0.254
521	0.255
521	0.256
522	0.257
522	0.258
523	0.258
523	0.259
524	0.26
524	0.26
524	0.261
525	0.261
525	0.262
526	0.262
526	0.263
527	0.263
527	0.264
528	0.265
528	0.266
529	0.267
529	0.267
529	0.268
530	0.269
530	0.27
531	0.27
531	0.271
532	0.271
532	0.272
533	0.273
533	0.273
533	0.273
534	0.273
534	0.274
535	0.274
535	0.274
536	0.274
536	0.274
537	0.274
537	0.274
538	0.274
538	0.274
538	0.275
539	0.276
539	0.276
540	0.276
540	0.276
541	0.277
541	0.277
542	0.277
542	0.277
542	0.277
543	0.277
543	0.277
544	0.277
544	0.277
545	0.277
545	0.277
546	0.277
546	0.277
547	0.276
547	0.276
547	0.276
548	0.276
548	0.276
549	0.277
549	0.277
550	0.277
550	0.277
551	0.277
551	0.278
551	0.279
552	0.279
552	0.28
553	0.28
553	0.281
554	0.281
554	0.28
555	0.28
555	0.281
556	0.281
556	0.28
556	0.28
557	0.28
557	0.28
558	0.279
558	0.279
559	0.279
559	0.279
560	0.278
560	0.278
560	0.278
561	0.278
561	0.278
562	0.277
562	0.277
563	0.277
563	0.276
564	0.276
564	0.277
564	0.277
565	0.277
565	0.278
566	0.278
566	0.278
567	0.278
567	0.278
568	0.278
568	0.278
568	0.278
569	0.277
569	0.276
570	0.275
570	0.274
571	0.274
571	0.274
572	0.274
572	0.273
573	0.273
573	0.273
573	0.273
574	0.273
574	0.273
575	0.273
575	0.274
576	0.274
576	0.273
577	0.273
577	0.273
577	0.274
578	0.274
578	0.275
579	0.276
579	0.276
580	0.275
580	0.274
581	0.273
581	0.274
581	0.274
582	0.274
582	0.274
583	0.275
583	0.274
584	0.273
584	0.273
585	0.274
585	0.274
585	0.275
586	0.275
586	0.275
587	0.275
587	0.274
588	0.274
588	0.274
589	0.275
589	0.275
590	0.275
590	0.275
590	0.276
591	0.276
591	0.276
592	0.276
592	0.275
593	0.275
593	0.275
594	0.275
594	0.275
594	0.275
595	0.276
595	0.275
596	0.276
596	0.277
597	0.278
597	0.278
598	0.278
598	0.278
598	0.278
599	0.278
599	0.277
600	0.276
600	0.276
601	0.276
601	0.275
602	0.274
602	0.274
602	0.274
603	0.275
603	0.276
604	0.277
604	0.277
605	0.278
605	0.279
606	0.279
606	0.278
606	0.278
607	0.278
607	0.278
608	0.277
608	0.276
609	0.276
609	0.276
610	0.276
610	0.276
610	0.276
611	0.277
611	0.278
612	0.279
612	0.279
613	0.28
613	0.28
614	0.279
614	0.278
614	0.278
615	0.277
615	0.277
616	0.277
616	0.276
617	0.275
617	0.274
618	0.274
618	0.273
618	0.273
619	0.273
619	0.274
620	0.275
620	0.274
621	0.274
621	0.274
622	0.274
622	0.274
622	0.273
623	0.273
623	0.273
624	0.273
624	0.272
625	0.272
625	0.272
626	0.271
626	0.271
626	0.271
627	0.27
627	0.269
628	0.268
628	0.267
629	0.266
629	0.265
630	0.263
630	0.261
630	0.26
631	0.258
631	0.256
632	0.254
632	0.252
633	0.25
633	0.248
634	0.246
634	0.244
634	0.242
635	0.239
635	0.237
636	0.234
636	0.23
637	0.227
637	0.224
638	0.22
638	0.216
638	0.212
639	0.207
639	0.202
640	0.197
640	0.193
641	0.188
641	0.184
642	0.179
642	0.174
642	0.169
643	0.164
643	0.159
644	0.153
644	0.147
645	0.141
645	0.135
646	0.129
646	0.122
646	0.115
647	0.108
647	0.101
648	0.094
648	0.087
649	0.079
649	0.071
650	0.063
650	0.055
650	0.046
651	0.036
651	0.023
652	0.008
652	-0.008
653	-0.021
653	-0.034
653	-0.031
654	-0.011
654	-0.001
655	-0.005
655	-0.011
656	-0.017
656	-0.023
657	-0.028
657	-0.033
657	-0.039
658	-0.045
658	-0.075
659	-0.16
659	-0.259
660	-0.304
660	-0.33
661	-0.358
661	-0.388
661	-0.421
662	-0.453
662	-0.486
663	-0.524
663	-0.566
664	-0.609
664	-0.66
665	-0.71
665	-0.768
665	-0.822
666	-0.879
666	-0.939
667	-1.003
667	-1.068
668	-1.14
668	-1.211
669	-1.284
669	-1.356
669	-1.431
670	-1.494
670	-1.523
671	-1.64
671	-1.945
672	-2.183
672	-2.379
672	-2.511
673	-2.605
673	-2.687
674	-2.747
674	-2.768
675	-2.795
675	-2.936
676	-3.137
676	-3.092
676	-2.873
677	-2.675
677	-2.523
678	-2.368
678	-2.125
679	-1.773
679	-1.609
680	-1.507
680	-1.421
680	-1.348
681	-1.3
681	-1.239
682	-1.199
682	-1.161
683	-1.126
683	-1.108
684	-1.088
684	-1.069
684	-1.046
685	-1.022
685	-0.998
686	-0.974
686	-0.959
687	-0.933
687	-0.922
687	-0.903
688	-0.878
688	-0.858
689	-0.836
689	-0.823
690	-0.804
690	-0.793
691	-0.787
691	-0.791
691	-0.806
692	-0.798
692	-0.79
693	-0.785
693	-0.792
694	-0.789
694	-0.784
695	-0.788
695	-0.786
695	-0.769
696	-0.768
696	-0.746
697	-0.746
697	-0.762
698	-0.764
698	-0.754
698	-0.767
699	-0.769
699	-0.766
700	-0.758
700	-0.772
701	-0.771
701	-0.776
702	-0.775
702	-0.762
702	-0.753
703	-0.748
703	-0.739
704	-0.737
704	-0.737
705	-0.749
705	-0.742
705	-0.73
706	-0.732
706	-0.728
707	-0.733
707	-0.729
708	-0.728
708	-0.72
709	-0.722
709	-0.724
709	-0.713
710	-0.724
710	-0.733
711	-0.722
711	-0.724
712	-0.724
712	-0.736
713	-0.736
713	-0.743
713	-0.732
714	-0.728
714	-0.73
715	-0.718
715	-0.705
716	-0.714
716	-0.715
716	-0.707
717	-0.708
717	-0.709
718	-0.701
718	-0.703
719	-0.709
719	-0.712
720	-0.707
720	-0.719
720	-0.709
721	-0.699
721	-0.7
722	-0.688
722	-0.678
723	-0.675
723	-0.679
723	-0.666
724	-0.667
724	-0.673
725	-0.67
725	-0.679
726	-0.69
726	-0.695
727	-0.7
727	-0.715
727	-0.724
728	-0.724
728	-0.731
729	-0.731
729	-0.735
730	-0.742
730	-0.737
730	-0.729
731	-0.711
731	-0.721
732	-0.725
732	-0.725
733	-0.721
733	-0.726
734	-0.718
734	-0.72
734	-0.707
735	-0.704
735	-0.703
736	-0.712
736	-0.7
737	-0.694
737	-0.697
737	-0.708
738	-0.703
738	-0.707
739	-0.706
739	-0.717
740	-0.717
740	-0.717
741	-0.716
741	-0.715
741	-0.716
742	-0.713
742	-0.715
743	-0.722
743	-0.723
744	-0.718
744	-0.706
744	-0.707
745	-0.715
745	-0.708
746	-0.707
746	-0.705
747	-0.705
747	-0.692
748	-0.68
748	-0.686
748	-0.688
749	-0.687
749	-0.687
750	-0.675
750	-0.674
751	-0.679
751	-0.688
751	-0.692
752	-0.696
752	-0.705
753	-0.698
753	-0.695
754	-0.701
754	-0.695
754	-0.709
755	-0.724
755	-0.734
756	-0.722
756	-0.718
757	-0.718
757	-0.715
758	-0.717
758	-0.714
758	-0.716
759	-0.724
759	-0.709
760	-0.703
760	-0.7
761	-0.71
761	-0.706
761	-0.705
762	-0.712
762	-0.712
763	-0.722
763	-0.718
764	-0.717
764	-0.724
764	-0.73
765	-0.719
765	-0.708
766	-0.716
766	-0.722
767	-0.737
767	-0.732
768	-0.722
768	-0.731
768	-0.734
769	-0.752
769	-0.756
770	-0.761
770	-0.774
771	-0.77
771	-0.772
771	-0.769
772	-0.773
772	-0.774
773	-0.774
773	-0.77
774	-0.767
774	-0.765
775	-0.768
775	-0.763
775	-0.77
776	-0.769
776	-0.761
777	-0.767
777	-0.786
778	-0.783
778	-0.802
778	-0.791
779	-0.812
779	-0.821
780	-0.834
780	-0.835
781	-0.85
781	-0.845
781	-0.862
782	-0.863
782	-0.866
783	-0.854
783	-0.851
784	-0.833
784	-0.822
784	-0.832
785	-0.839
785	-0.821
786	-0.827
786	-0.805
787	-0.79
787	-0.79
788	-0.794
788	-0.805
788	-0.814
789	-0.815
789	-0.795
790	-0.774
790	-0.778
791	-0.779
791	-0.796
791	-0.803
792	-0.797
792	-0.772
793	-0.763
793	-0.741
794	-0.746
794	-0.739
794	-0.752
795	-0.747
795	-0.74
796	-0.723
796	-0.731
797	-0.724
797	-0.735
797	-0.74
798	-0.752
798	-0.745
799	-0.756
799	-0.738
800	-0.744
800	-0.738
801	-0.745
801	-0.728
801	-0.741
802	-0.75
802	-0.751
803	-0.752
803	-0.763
804	-0.758
804	-0.768
804	-0.754
805	-0.757
805	-0.745
806	-0.749
806	-0.733
807	-0.731
807	-0.711
807	-0.7
808	-0.69
808	-0.682
809	-0.669
809	-0.68
810	-0.678
810	-0.67
810	-0.666
811	-0.672
811	-0.662
812	-0.664
812	-0.667
813	-0.67
813	-0.669
813	-0.673
814	-0.674
814	-0.678
815	-0.682
815	-0.689
816	-0.683
816	-0.689
817	-0.697
817	-0.714
817	-0.729
818	-0.735
818	-0.74
819	-0.732
819	-0.733
820	-0.744
820	-0.738
820	-0.749
821	-0.745
821	-0.735
822	-0.705
822	-0.682
823	-0.68
823	-0.682
823	-0.679
824	-0.673
824	-0.675
825	-0.668
825	-0.646
826	-0.641
826	-0.646
826	-0.656
827	-0.649
827	-0.645
828	-0.622
828	-0.622
829	-0.614
829	-0.598
829	-0.591
830	-0.603
830	-0.6
831	-0.593
831	-0.584
832	-0.584
832	-0.576
832	-0.585
833	-0.58
833	-0.58
834	-0.578
834	-0.584
835	-0.572
835	-0.567
835	-0.562
836	-0.558
836	-0.553
837	-0.551
837	-0.54
838	-0.532
838	-0.52
839	-0.506
839	-0.494
839	-0.484
840	-0.472
840	-0.47
841	-0.458
841	-0.449
842	-0.442
842	-0.431
842	-0.424
843	-0.417
843	-0.411
844	-0.404
844	-0.396
845	-0.386
845	-0.374
845	-0.359
846	-0.348
846	-0.333
847	-0.323
847	-0.311
848	-0.298
848	-0.288
848	-0.271
849	-0.26
849	-0.248
850	-0.234
850	-0.228
851	-0.22
851	-0.208
851	-0.198
852	-0.18
852	-0.168
853	-0.159
853	-0.152
854	-0.139
854	-0.126
854	-0.115
855	-0.104
855	-0.095
856	-0.084
856	-0.074
857	-0.067
857	-0.059
857	-0.046
858	-0.035
858	-0.028
859	-0.02
859	-0.009
860	0.001
860	0.014
860	0.024
861	0.032
861	0.04
862	0.049
862	0.057
863	0.065
863	0.075
863	0.081
864	0.087
864	0.094
865	0.1
865	0.104
866	0.11
866	0.114
866	0.118
867	0.122
867	0.126
868	0.129
868	0.133
869	0.137
869	0.139
869	0.141
870	0.144
870	0.146
871	0.149
871	0.15
872	0.152
872	0.152
872	0.153
873	0.153
873	0.153
874	0.153
874	0.152
875	0.151
875	0.15
875	0.149
876	0.148
876	0.146
877	0.145
877	0.144
878	0.142
878	0.14
878	0.138
879	0.137
879	0.136
880	0.135
880	0.135
881	0.134
881	0.134
881	0.134
882	0.133
882	0.132
883	0.131
883	0.13
884	0.129
884	0.128
884	0.128
885	0.126
885	0.126
886	0.125
886	0.125
887	0.124
887	0.124
887	0.123
888	0.124
888	0.123
889	0.124
889	0.124
890	0.124
890	0.124
890	0.123
891	0.123
891	0.123
892	0.124
892	0.124
893	0.123
893	0.124
893	0.123
894	0.123
894	0.123
895	0.123
895	0.122
895	0.122
896	0.121
896	0.12
897	0.12
897	0.119
898	0.117
898	0.117
898	0.116
899	0.116
899	0.117
900	0.117
900	0.118
901	0.118
901	0.119
901	0.119
902	0.12
902	0.121
903	0.121
903	0.122
904	0.122
904	0.123
904	0.124
905	0.124
905	0.125
906	0.125
906	0.125
907	0.125
907	0.125
907	0.125
908	0.124
908	0.124
909	0.123
909	0.122
910	0.122
910	0.121
910	0.121
911	0.121
911	0.121
912	0.121
912	0.122
913	0.122
913	0.123
913	0.124
914	0.124
914	0.125
915	0.126
915	0.126
916	0.127
916	0.127
916	0.127
917	0.127
917	0.128
918	0.127
918	0.127
918	0.127
919	0.127
919	0.127
920	0.127
920	0.127
921	0.127
921	0.127
921	0.127
922	0.126
922	0.126
923	0.126
923	0.126
924	0.126
924	0.125
924	0.124
925	0.123
925	0.122
926	0.121
926	0.12
927	0.119
927	0.118
927	0.117
928	0.117
928	0.116
929	0.115
929	0.114
930	0.114
930	0.113
930	0.112
931	0.112
931	0.112
932	0.111
932	0.11
933	0.109
933	0.108
933	0.107
934	0.105
934	0.104
935	0.104
935	0.103
935	0.102
936	0.101
936	0.099
937	0.099
937	0.098
938	0.098
938	0.098
938	0.099
939	0.099
939	0.1
940	0.1
940	0.101
941	0.101
941	0.102
941	0.102
942	0.103
942	0.103
943	0.103
943	0.103
944	0.102
944	0.101
944	0.101
945	0.1
945	0.099
946	0.098
946	0.096
946	0.096
947	0.095
947	0.094
948	0.095
948	0.095
949	0.095
949	0.096
949	0.096
950	0.097
950	0.097
951	0.098
951	0.099
952	0.099
952	0.101
952	0.101
953	0.102
953	0.103
954	0.103
954	0.104
955	0.105
955	0.106
955	0.107
956	0.108
956	0.108
957	0.108
957	0.109
957	0.109
958	0.109
958	0.11
959	0.11
959	0.11
960	0.11
960	0.11
960	0.11
961	0.11
961	0.11
962	0.11
962	0.11
963	0.11
963	0.11
963	0.109
964	0.109
964	0.11
965	0.11
965	0.109
966	0.109
966	0.109
966	0.109
967	0.109
967	0.108
968	0.107
968	0.106
968	0.106
969	0.105
969	0.105
970	0.104
970	0.104
971	0.105
971	0.105
971	0.105
972	0.105
972	0.105
973	0.105
973	0.105
974	0.105
974	0.105
974	0.105
975	0.104
975	0.104
976	0.103
976	0.102
976	0.102
977	0.101
977	0.101
978	0.101
978	0.101
979	0.1
979	0.1
979	0.1
980	0.1
980	0.099
981	0.099
981	0.099
982	0.099
982	0.098
982	0.098
983	0.097
983	0.097
984	0.097
984	0.097
984	0.097
985	0.098
985	0.098
986	0.098
986	0.097
987	0.097
987	0.097
987	0.096
988	0.096
988	0.095
989	0.094
989	0.093
990	0.092
990	0.091
990	0.091
991	0.09
991	0.09
992	0.09
992	0.09
992	0.089
993	0.089
993	0.089
994	0.089
994	0.089
995	0.089
995	0.088
995	0.088
996	0.087
996	0.086
997	0.086
997	0.086
997	0.086
998	0.086
998	0.086
999	0.086
999	0.086
1000	0.087
1000	0.087
1000	0.087
1001	0.088
1001	0.088
1002	0.089
1002	0.089
1003	0.089
1003	0.089
1003	0.089
1004	0.089
1004	0.088
1005	0.088
1005	0.087
1005	0.086
1006	0.085
1006	0.084
1007	0.083
1007	0.082
1008	0.081
1008	0.081
1008	0.08
1009	0.08
1009	0.08
1010	0.08
1010	0.08
1010	0.08
1011	0.08
1011	0.079
1012	0.079
1012	0.078
1013	0.077
1013	0.076
1013	0.075
1014	0.075
1014	0.073
1015	0.073
1015	0.072
1016	0.071
1016	0.071
1016	0.07
1017	0.069
1017	0.069
1018	0.068
1018	0.067
1018	0.066
1019	0.066
1019	0.065
1020	0.064
1020	0.064
1021	0.063
1021	0.062
1021	0.061
1022	0.061
1022	0.06
1023	0.06
1023	0.06
1023	0.059
1024	0.059
1024	0.058
1025	0.058
1025	0.058
1026	0.059
1026	0.06
1026	0.06
1027	0.06
1027	0.06
1028	0.06
1028	0.06
1028	0.06
1029	0.06
1029	0.06
1030	0.059
1030	0.059
1031	0.058
1031	0.058
1031	0.058
1032	0.057
1032	0.057
1033	0.057
1033	0.057
1033	0.057
1034	0.058
1034	0.057
1035	0.057
1035	0.057
1036	0.057
1036	0.058
1036	0.058
1037	0.058
1037	0.058
1038	0.057
1038	0.058
1039	0.058
1039	0.058
1039	0.059
1040	0.059
1040	0.06
1041	0.06
1041	0.06
1041	0.061
1042	0.061
1042	0.06
1043	0.06
1043	0.059
1044	0.058
1044	0.057
1044	0.057
1045	0.056
1045	0.055
1046	0.054
1046	0.053
1046	0.053
1047	0.053
1047	0.053
1048	0.053
1048	0.053
1049	0.054
1049	0.054
1049	0.054
1050	0.054
1050	0.055
1051	0.055
1051	0.055
1051	0.056
1052	0.056
1052	0.056
1053	0.056
1053	0.056
1053	0.056
1054	0.056
1054	0.056
1055	0.056
1055	0.056
1056	0.055
1056	0.054
1056	0.053
1057	0.052
1057	0.052
1058	0.052
1058	0.051
1058	0.05
1059	0.05
1059	0.049
1060	0.048
1060	0.048
1061	0.048
1061	0.047
1061	0.047
1062	0.047
1062	0.047
1063	0.047
1063	0.047
1063	0.047
1064	0.047
1064	0.047
1065	0.047
1065	0.047
1066	0.046
1066	0.046
1066	0.046
1067	0.046
1067	0.045
1068	0.045
1068	0.044
1068	0.044
1069	0.044
1069	0.043
1070	0.043
1070	0.043
1071	0.042
1071	0.042
1071	0.042
1072	0.041
1072	0.041
1073	0.041
1073	0.04
1073	0.04
1074	0.04
1074	0.04
1075	0.039
1075	0.039
1076	0.038
1076	0.038
1076	0.037
1077	0.037
1077	0.037
1078	0.036
1078	0.035
1078	0.034
1079	0.033
1079	0.033
1080	0.033
1080	0.032
1080	0.031
1081	0.03
1081	0.03
1082	0.029
1082	0.027
1083	0.027
1083	0.026
1083	0.025
1084	0.023
1084	0.023
1085	0.022
1085	0.021
1085	0.021
1086	0.02
1086	0.02
1087	0.02
1087	0.02
1088	0.019
1088	0.019
1088	0.018
1089	0.017
1089	0.016
1090	0.015
1090	0.014
1090	0.013
1091	0.012
1091	0.012
1092	0.01
1092	0.01
1092	0.009
1093	0.008
1093	0.008
1094	0.008
1094	0.007
1095	0.006
1095	0.006
1095	0.005
1096	0.004
1096	0.002
1097	0.002
1097	0.001
1097	0
1098	-0.002
1098	-0.003
1099	-0.004
1099	-0.006
1100	-0.007
1100	-0.009
1100	-0.011
1101	-0.013
1101	-0.016
1102	-0.018
1102	-0.021
1102	-0.022
1103	-0.024
1103	-0.026
1104	-0.028
1104	-0.031
1104	-0.033
1105	-0.035
1105	-0.039
1106	-0.043
1106	-0.045
1107	-0.05
1107	-0.054
1107	-0.06
1108	-0.063
1108	-0.065
1109	-0.069
1109	-0.074
1109	-0.076
1110	-0.076
1110	-0.08
1111	-0.089
1111	-0.09
