Data from 17C_3.2A_35min_2sec_int_Absorbance__808__02370.txt Node

Date: Mon Jun 19 18:04:47 CEST 2023
User: Marek
Spectrometer: MAYP115816
Trigger mode: 0
Integration Time (sec): 2.500000E-1
Scans to average: 10
Electric dark correction enabled: true
Nonlinearity correction enabled: true
Boxcar width: 5
XAxis mode: Wavelengths
Number of Pixels in Spectrum: 2068
>>>>>Begin Spectral Data<<<<<
199	-0.735
199	-0.752
200	-0.655
200	-0.604
201	-0.569
201	-0.556
202	-0.541
202	-0.527
203	-0.519
203	-0.516
204	-0.503
204	-0.491
205	-0.468
205	-0.463
205	-0.46
206	-0.46
206	-0.463
207	-0.453
207	-0.454
208	-0.456
208	-0.452
209	-0.447
209	-0.445
210	-0.449
210	-0.456
211	-0.459
211	-0.461
212	-0.462
212	-0.47
213	-0.469
213	-0.469
213	-0.475
214	-0.472
214	-0.47
215	-0.469
215	-0.473
216	-0.474
216	-0.484
217	-0.481
217	-0.488
218	-0.49
218	-0.492
219	-0.495
219	-0.504
220	-0.511
220	-0.522
221	-0.519
221	-0.52
221	-0.513
222	-0.508
222	-0.508
223	-0.512
223	-0.514
224	-0.518
224	-0.518
225	-0.512
225	-0.509
226	-0.514
226	-0.515
227	-0.52
227	-0.53
228	-0.531
228	-0.533
229	-0.534
229	-0.527
229	-0.523
230	-0.528
230	-0.53
231	-0.524
231	-0.518
232	-0.513
232	-0.513
233	-0.506
233	-0.503
234	-0.501
234	-0.499
235	-0.501
235	-0.506
236	-0.504
236	-0.508
236	-0.513
237	-0.519
237	-0.518
238	-0.526
238	-0.525
239	-0.526
239	-0.534
240	-0.534
240	-0.533
241	-0.539
241	-0.538
242	-0.544
242	-0.54
243	-0.538
243	-0.539
243	-0.548
244	-0.547
244	-0.546
245	-0.559
245	-0.558
246	-0.563
246	-0.566
247	-0.568
247	-0.569
248	-0.575
248	-0.574
249	-0.577
249	-0.586
250	-0.584
250	-0.581
250	-0.582
251	-0.579
251	-0.58
252	-0.584
252	-0.576
253	-0.582
253	-0.593
254	-0.589
254	-0.587
255	-0.595
255	-0.587
256	-0.582
256	-0.593
257	-0.589
257	-0.585
258	-0.602
258	-0.597
258	-0.591
259	-0.588
259	-0.596
260	-0.597
260	-0.603
261	-0.614
261	-0.605
262	-0.604
262	-0.604
263	-0.59
263	-0.585
264	-0.586
264	-0.595
265	-0.592
265	-0.599
265	-0.602
266	-0.601
266	-0.6
267	-0.613
267	-0.62
268	-0.637
268	-0.648
269	-0.649
269	-0.643
270	-0.646
270	-0.648
271	-0.65
271	-0.655
272	-0.658
272	-0.652
272	-0.648
273	-0.645
273	-0.656
274	-0.66
274	-0.665
275	-0.666
275	-0.662
276	-0.665
276	-0.657
277	-0.66
277	-0.678
278	-0.689
278	-0.684
278	-0.677
279	-0.679
279	-0.689
280	-0.684
280	-0.685
281	-0.682
281	-0.69
282	-0.684
282	-0.684
283	-0.673
283	-0.675
284	-0.669
284	-0.658
285	-0.654
285	-0.654
285	-0.649
286	-0.656
286	-0.65
287	-0.649
287	-0.634
288	-0.625
288	-0.633
289	-0.646
289	-0.658
290	-0.647
290	-0.646
291	-0.645
291	-0.638
292	-0.642
292	-0.647
292	-0.649
293	-0.653
293	-0.644
294	-0.632
294	-0.621
295	-0.617
295	-0.616
296	-0.612
296	-0.609
297	-0.604
297	-0.589
298	-0.584
298	-0.592
298	-0.581
299	-0.575
299	-0.577
300	-0.572
300	-0.567
301	-0.563
301	-0.564
302	-0.569
302	-0.577
303	-0.564
303	-0.553
304	-0.555
304	-0.554
305	-0.554
305	-0.555
305	-0.553
306	-0.538
306	-0.532
307	-0.519
307	-0.521
308	-0.534
308	-0.532
309	-0.534
309	-0.523
310	-0.514
310	-0.511
311	-0.502
311	-0.511
311	-0.507
312	-0.502
312	-0.5
313	-0.487
313	-0.49
314	-0.486
314	-0.488
315	-0.486
315	-0.485
316	-0.481
316	-0.473
317	-0.467
317	-0.464
318	-0.453
318	-0.451
318	-0.447
319	-0.437
319	-0.434
320	-0.428
320	-0.428
321	-0.432
321	-0.43
322	-0.426
322	-0.421
323	-0.421
323	-0.414
324	-0.406
324	-0.396
324	-0.388
325	-0.377
325	-0.361
326	-0.347
326	-0.331
327	-0.314
327	-0.294
328	-0.269
328	-0.248
329	-0.227
329	-0.207
330	-0.181
330	-0.152
330	-0.127
331	-0.101
331	-0.075
332	-0.052
332	-0.031
333	-0.01
333	0.011
334	0.03
334	0.047
335	0.063
335	0.076
336	0.089
336	0.102
336	0.11
337	0.122
337	0.13
338	0.138
338	0.143
339	0.15
339	0.155
340	0.159
340	0.163
341	0.167
341	0.17
342	0.173
342	0.176
342	0.179
343	0.181
343	0.183
344	0.185
344	0.186
345	0.187
345	0.188
346	0.188
346	0.189
347	0.19
347	0.19
348	0.19
348	0.191
348	0.191
349	0.192
349	0.192
350	0.192
350	0.192
351	0.192
351	0.193
352	0.193
352	0.193
353	0.193
353	0.193
354	0.192
354	0.192
354	0.192
355	0.192
355	0.192
356	0.192
356	0.191
357	0.19
357	0.19
358	0.19
358	0.19
359	0.189
359	0.189
360	0.189
360	0.189
360	0.189
361	0.189
361	0.189
362	0.189
362	0.189
363	0.189
363	0.189
364	0.19
364	0.19
365	0.19
365	0.19
366	0.19
366	0.19
366	0.19
367	0.19
367	0.19
368	0.19
368	0.19
369	0.189
369	0.189
370	0.189
370	0.189
371	0.189
371	0.189
372	0.189
372	0.189
372	0.189
373	0.189
373	0.189
374	0.189
374	0.189
375	0.189
375	0.189
376	0.189
376	0.189
377	0.189
377	0.189
378	0.189
378	0.189
378	0.189
379	0.189
379	0.189
380	0.189
380	0.188
381	0.188
381	0.188
382	0.188
382	0.188
383	0.188
383	0.188
383	0.188
384	0.188
384	0.188
385	0.188
385	0.188
386	0.188
386	0.188
387	0.188
387	0.188
388	0.188
388	0.188
389	0.188
389	0.188
389	0.188
390	0.188
390	0.188
391	0.188
391	0.188
392	0.188
392	0.188
393	0.188
393	0.188
394	0.188
394	0.187
394	0.187
395	0.187
395	0.187
396	0.187
396	0.187
397	0.186
397	0.187
398	0.187
398	0.187
399	0.187
399	0.187
400	0.186
400	0.186
400	0.186
401	0.186
401	0.186
402	0.186
402	0.186
403	0.186
403	0.186
404	0.186
404	0.186
405	0.186
405	0.186
405	0.186
406	0.185
406	0.185
407	0.185
407	0.185
408	0.185
408	0.185
409	0.185
409	0.185
410	0.185
410	0.185
411	0.186
411	0.186
411	0.186
412	0.186
412	0.186
413	0.186
413	0.185
414	0.185
414	0.185
415	0.185
415	0.185
416	0.185
416	0.185
416	0.184
417	0.184
417	0.184
418	0.184
418	0.184
419	0.185
419	0.185
420	0.185
420	0.185
421	0.185
421	0.185
421	0.185
422	0.185
422	0.185
423	0.185
423	0.185
424	0.184
424	0.184
425	0.184
425	0.183
426	0.183
426	0.183
427	0.183
427	0.183
427	0.183
428	0.183
428	0.183
429	0.183
429	0.183
430	0.183
430	0.183
431	0.183
431	0.182
432	0.182
432	0.182
432	0.182
433	0.182
433	0.182
434	0.181
434	0.181
435	0.181
435	0.181
436	0.181
436	0.181
437	0.181
437	0.181
437	0.181
438	0.181
438	0.181
439	0.181
439	0.181
440	0.181
440	0.181
441	0.181
441	0.181
442	0.181
442	0.18
442	0.18
443	0.18
443	0.18
444	0.18
444	0.18
445	0.18
445	0.18
446	0.181
446	0.181
447	0.181
447	0.181
447	0.181
448	0.181
448	0.181
449	0.181
449	0.181
450	0.181
450	0.181
451	0.181
451	0.181
452	0.181
452	0.181
452	0.181
453	0.181
453	0.18
454	0.18
454	0.18
455	0.18
455	0.18
456	0.18
456	0.18
457	0.179
457	0.179
458	0.179
458	0.179
458	0.18
459	0.18
459	0.18
460	0.179
460	0.179
461	0.179
461	0.179
462	0.179
462	0.179
463	0.179
463	0.179
463	0.179
464	0.179
464	0.179
465	0.179
465	0.18
466	0.18
466	0.18
467	0.18
467	0.18
467	0.18
468	0.18
468	0.18
469	0.18
469	0.18
470	0.181
470	0.181
471	0.181
471	0.181
472	0.181
472	0.181
472	0.181
473	0.181
473	0.181
474	0.181
474	0.181
475	0.181
475	0.182
476	0.182
476	0.182
477	0.182
477	0.182
477	0.182
478	0.182
478	0.182
479	0.182
479	0.182
480	0.182
480	0.182
481	0.183
481	0.183
482	0.183
482	0.184
482	0.184
483	0.184
483	0.185
484	0.184
484	0.184
485	0.184
485	0.185
486	0.185
486	0.185
487	0.185
487	0.186
487	0.186
488	0.186
488	0.187
489	0.188
489	0.189
490	0.19
490	0.19
491	0.191
491	0.191
492	0.192
492	0.192
492	0.193
493	0.193
493	0.194
494	0.195
494	0.195
495	0.195
495	0.196
496	0.196
496	0.197
496	0.198
497	0.199
497	0.199
498	0.2
498	0.201
499	0.202
499	0.203
500	0.204
500	0.205
501	0.205
501	0.206
501	0.206
502	0.207
502	0.207
503	0.208
503	0.209
504	0.209
504	0.21
505	0.211
505	0.212
506	0.213
506	0.213
506	0.214
507	0.215
507	0.215
508	0.216
508	0.217
509	0.217
509	0.218
510	0.219
510	0.22
511	0.221
511	0.222
511	0.223
512	0.224
512	0.224
513	0.225
513	0.226
514	0.227
514	0.228
515	0.229
515	0.23
515	0.23
516	0.231
516	0.232
517	0.233
517	0.234
518	0.235
518	0.235
519	0.236
519	0.237
520	0.238
520	0.239
520	0.24
521	0.241
521	0.242
522	0.243
522	0.244
523	0.245
523	0.246
524	0.246
524	0.246
524	0.247
525	0.247
525	0.248
526	0.249
526	0.249
527	0.25
527	0.25
528	0.251
528	0.252
529	0.252
529	0.253
529	0.254
530	0.255
530	0.256
531	0.256
531	0.257
532	0.257
532	0.258
533	0.258
533	0.259
533	0.259
534	0.259
534	0.259
535	0.259
535	0.259
536	0.259
536	0.259
537	0.259
537	0.259
538	0.259
538	0.259
538	0.26
539	0.261
539	0.261
540	0.261
540	0.261
541	0.261
541	0.262
542	0.262
542	0.262
542	0.262
543	0.262
543	0.262
544	0.262
544	0.262
545	0.262
545	0.262
546	0.262
546	0.262
547	0.262
547	0.262
547	0.262
548	0.262
548	0.262
549	0.262
549	0.263
550	0.263
550	0.263
551	0.263
551	0.264
551	0.265
552	0.266
552	0.266
553	0.267
553	0.267
554	0.267
554	0.267
555	0.267
555	0.267
556	0.267
556	0.267
556	0.266
557	0.266
557	0.266
558	0.265
558	0.265
559	0.265
559	0.265
560	0.265
560	0.265
560	0.265
561	0.265
561	0.265
562	0.264
562	0.264
563	0.264
563	0.264
564	0.264
564	0.264
564	0.264
565	0.265
565	0.265
566	0.265
566	0.265
567	0.265
567	0.265
568	0.265
568	0.265
568	0.265
569	0.265
569	0.264
570	0.263
570	0.262
571	0.262
571	0.262
572	0.261
572	0.261
573	0.261
573	0.26
573	0.26
574	0.26
574	0.261
575	0.261
575	0.262
576	0.262
576	0.261
577	0.261
577	0.261
577	0.262
578	0.263
578	0.263
579	0.264
579	0.264
580	0.263
580	0.262
581	0.262
581	0.262
581	0.262
582	0.263
582	0.263
583	0.263
583	0.263
584	0.262
584	0.261
585	0.262
585	0.263
585	0.264
586	0.264
586	0.264
587	0.263
587	0.263
588	0.263
588	0.263
589	0.263
589	0.264
590	0.264
590	0.264
590	0.265
591	0.265
591	0.265
592	0.264
592	0.264
593	0.264
593	0.265
594	0.264
594	0.264
594	0.264
595	0.265
595	0.264
596	0.265
596	0.266
597	0.267
597	0.267
598	0.267
598	0.267
598	0.267
599	0.267
599	0.266
600	0.266
600	0.265
601	0.265
601	0.264
602	0.264
602	0.264
602	0.264
603	0.264
603	0.266
604	0.266
604	0.267
605	0.268
605	0.269
606	0.269
606	0.268
606	0.268
607	0.268
607	0.268
608	0.267
608	0.266
609	0.266
609	0.266
610	0.266
610	0.266
610	0.266
611	0.267
611	0.268
612	0.269
612	0.27
613	0.271
613	0.271
614	0.271
614	0.27
614	0.269
615	0.269
615	0.268
616	0.268
616	0.267
617	0.266
617	0.265
618	0.265
618	0.265
618	0.265
619	0.265
619	0.266
620	0.266
620	0.266
621	0.266
621	0.266
622	0.266
622	0.265
622	0.265
623	0.264
623	0.265
624	0.264
624	0.264
625	0.264
625	0.264
626	0.263
626	0.263
626	0.263
627	0.263
627	0.262
628	0.261
628	0.26
629	0.259
629	0.258
630	0.256
630	0.255
630	0.253
631	0.252
631	0.25
632	0.248
632	0.246
633	0.244
633	0.242
634	0.24
634	0.238
634	0.237
635	0.234
635	0.232
636	0.229
636	0.226
637	0.223
637	0.22
638	0.216
638	0.212
638	0.208
639	0.204
639	0.199
640	0.194
640	0.19
641	0.185
641	0.181
642	0.177
642	0.172
642	0.168
643	0.163
643	0.157
644	0.152
644	0.146
645	0.14
645	0.134
646	0.129
646	0.122
646	0.115
647	0.108
647	0.101
648	0.094
648	0.087
649	0.079
649	0.072
650	0.064
650	0.056
650	0.047
651	0.037
651	0.024
652	0.009
652	-0.006
653	-0.02
653	-0.032
653	-0.029
654	-0.011
654	-0.002
655	-0.006
655	-0.012
656	-0.017
656	-0.025
657	-0.029
657	-0.034
657	-0.04
658	-0.047
658	-0.076
659	-0.16
659	-0.258
660	-0.303
660	-0.329
661	-0.358
661	-0.388
661	-0.421
662	-0.453
662	-0.486
663	-0.524
663	-0.565
664	-0.607
664	-0.657
665	-0.706
665	-0.762
665	-0.816
666	-0.871
666	-0.931
667	-0.994
667	-1.059
668	-1.131
668	-1.202
669	-1.275
669	-1.346
669	-1.421
670	-1.483
670	-1.507
671	-1.641
671	-1.945
672	-2.183
672	-2.379
672	-2.511
673	-2.606
673	-2.687
674	-2.747
674	-2.769
675	-2.795
675	-2.937
676	-3.137
676	-3.092
676	-2.872
677	-2.675
677	-2.523
678	-2.367
678	-2.124
679	-1.77
679	-1.607
680	-1.505
680	-1.418
680	-1.344
681	-1.297
681	-1.236
682	-1.197
682	-1.159
683	-1.124
683	-1.107
684	-1.086
684	-1.067
684	-1.046
685	-1.022
685	-1
686	-0.975
686	-0.96
687	-0.933
687	-0.921
687	-0.9
688	-0.874
688	-0.855
689	-0.834
689	-0.82
690	-0.802
690	-0.79
691	-0.785
691	-0.79
691	-0.808
692	-0.801
692	-0.793
693	-0.789
693	-0.797
694	-0.793
694	-0.784
695	-0.79
695	-0.788
695	-0.772
696	-0.768
696	-0.745
697	-0.747
697	-0.762
698	-0.764
698	-0.754
698	-0.767
699	-0.772
699	-0.769
700	-0.761
700	-0.776
701	-0.775
701	-0.783
702	-0.779
702	-0.768
702	-0.761
703	-0.756
703	-0.747
704	-0.743
704	-0.743
705	-0.753
705	-0.746
705	-0.734
706	-0.732
706	-0.728
707	-0.732
707	-0.727
708	-0.723
708	-0.715
709	-0.718
709	-0.722
709	-0.713
710	-0.724
710	-0.734
711	-0.726
711	-0.727
712	-0.726
712	-0.738
713	-0.739
713	-0.747
713	-0.737
714	-0.732
714	-0.734
715	-0.724
715	-0.711
716	-0.719
716	-0.722
716	-0.714
717	-0.717
717	-0.718
718	-0.708
718	-0.71
719	-0.717
719	-0.719
720	-0.714
720	-0.724
720	-0.715
721	-0.705
721	-0.706
722	-0.693
722	-0.685
723	-0.685
723	-0.689
723	-0.676
724	-0.676
724	-0.681
725	-0.679
725	-0.689
726	-0.701
726	-0.706
727	-0.71
727	-0.724
727	-0.73
728	-0.729
728	-0.736
729	-0.735
729	-0.738
730	-0.745
730	-0.736
730	-0.727
731	-0.711
731	-0.721
732	-0.726
732	-0.725
733	-0.724
733	-0.728
734	-0.723
734	-0.725
734	-0.713
735	-0.711
735	-0.711
736	-0.721
736	-0.707
737	-0.697
737	-0.698
737	-0.709
738	-0.703
738	-0.703
739	-0.7
739	-0.712
740	-0.713
740	-0.713
741	-0.71
741	-0.712
741	-0.717
742	-0.715
742	-0.715
743	-0.725
743	-0.729
744	-0.726
744	-0.715
744	-0.717
745	-0.724
745	-0.715
746	-0.714
746	-0.711
747	-0.712
747	-0.698
748	-0.683
748	-0.69
748	-0.691
749	-0.69
749	-0.691
750	-0.678
750	-0.681
751	-0.684
751	-0.694
751	-0.696
752	-0.7
752	-0.712
753	-0.706
753	-0.703
754	-0.707
754	-0.702
754	-0.716
755	-0.731
755	-0.742
756	-0.731
756	-0.729
757	-0.728
757	-0.724
758	-0.724
758	-0.722
758	-0.726
759	-0.732
759	-0.715
760	-0.71
760	-0.705
761	-0.717
761	-0.713
761	-0.714
762	-0.72
762	-0.72
763	-0.73
763	-0.727
764	-0.725
764	-0.732
764	-0.738
765	-0.729
765	-0.713
766	-0.721
766	-0.725
767	-0.741
767	-0.735
768	-0.726
768	-0.735
768	-0.739
769	-0.755
769	-0.757
770	-0.763
770	-0.777
771	-0.776
771	-0.782
771	-0.781
772	-0.787
772	-0.785
773	-0.785
773	-0.781
774	-0.782
774	-0.78
775	-0.781
775	-0.774
775	-0.781
776	-0.779
776	-0.769
777	-0.775
777	-0.795
778	-0.793
778	-0.811
778	-0.796
779	-0.819
779	-0.827
780	-0.843
780	-0.84
781	-0.853
781	-0.848
781	-0.866
782	-0.865
782	-0.866
783	-0.853
783	-0.853
784	-0.833
784	-0.823
784	-0.829
785	-0.836
785	-0.821
786	-0.827
786	-0.805
787	-0.792
787	-0.795
788	-0.797
788	-0.807
788	-0.817
789	-0.817
789	-0.801
790	-0.783
790	-0.784
791	-0.783
791	-0.8
791	-0.806
792	-0.798
792	-0.776
793	-0.768
793	-0.747
794	-0.752
794	-0.745
794	-0.754
795	-0.749
795	-0.742
796	-0.726
796	-0.733
797	-0.724
797	-0.737
797	-0.742
798	-0.754
798	-0.748
799	-0.757
799	-0.741
800	-0.748
800	-0.741
801	-0.745
801	-0.731
801	-0.742
802	-0.75
802	-0.748
803	-0.748
803	-0.757
804	-0.752
804	-0.764
804	-0.751
805	-0.755
805	-0.744
806	-0.748
806	-0.732
807	-0.73
807	-0.714
807	-0.703
808	-0.695
808	-0.689
809	-0.673
809	-0.683
810	-0.68
810	-0.672
810	-0.669
811	-0.679
811	-0.671
812	-0.673
812	-0.675
813	-0.679
813	-0.674
813	-0.68
814	-0.682
814	-0.689
815	-0.693
815	-0.697
816	-0.688
816	-0.693
817	-0.7
817	-0.719
817	-0.734
818	-0.744
818	-0.748
819	-0.74
819	-0.74
820	-0.75
820	-0.747
820	-0.758
821	-0.754
821	-0.74
822	-0.707
822	-0.683
823	-0.678
823	-0.679
823	-0.674
824	-0.668
824	-0.672
825	-0.665
825	-0.646
826	-0.643
826	-0.65
826	-0.66
827	-0.655
827	-0.652
828	-0.631
828	-0.632
829	-0.622
829	-0.606
829	-0.596
830	-0.604
830	-0.601
831	-0.594
831	-0.584
832	-0.581
832	-0.572
832	-0.579
833	-0.572
833	-0.573
834	-0.571
834	-0.579
835	-0.566
835	-0.561
835	-0.558
836	-0.556
836	-0.553
837	-0.552
837	-0.542
838	-0.535
838	-0.521
839	-0.508
839	-0.497
839	-0.487
840	-0.476
840	-0.471
841	-0.46
841	-0.451
842	-0.444
842	-0.434
842	-0.427
843	-0.42
843	-0.416
844	-0.405
844	-0.399
845	-0.39
845	-0.379
845	-0.365
846	-0.353
846	-0.338
847	-0.326
847	-0.315
848	-0.303
848	-0.29
848	-0.274
849	-0.261
849	-0.25
850	-0.235
850	-0.23
851	-0.221
851	-0.21
851	-0.199
852	-0.182
852	-0.17
853	-0.16
853	-0.156
854	-0.143
854	-0.129
854	-0.119
855	-0.107
855	-0.099
856	-0.088
856	-0.08
857	-0.072
857	-0.063
857	-0.051
858	-0.039
858	-0.031
859	-0.022
859	-0.01
860	0.001
860	0.015
860	0.024
861	0.033
861	0.043
862	0.051
862	0.059
863	0.067
863	0.077
863	0.083
864	0.088
864	0.095
865	0.101
865	0.105
866	0.111
866	0.115
866	0.119
867	0.122
867	0.127
868	0.13
868	0.134
869	0.138
869	0.141
869	0.143
870	0.145
870	0.148
871	0.15
871	0.152
872	0.153
872	0.153
872	0.154
873	0.154
873	0.154
874	0.154
874	0.153
875	0.152
875	0.151
875	0.15
876	0.149
876	0.148
877	0.147
877	0.145
878	0.144
878	0.142
878	0.141
879	0.139
879	0.138
880	0.138
880	0.137
881	0.137
881	0.137
881	0.137
882	0.136
882	0.135
883	0.134
883	0.132
884	0.132
884	0.13
884	0.129
885	0.128
885	0.128
886	0.127
886	0.127
887	0.126
887	0.126
887	0.126
888	0.126
888	0.126
889	0.126
889	0.126
890	0.126
890	0.126
890	0.126
891	0.126
891	0.126
892	0.126
892	0.126
893	0.126
893	0.126
893	0.126
894	0.126
894	0.126
895	0.126
895	0.125
895	0.125
896	0.124
896	0.123
897	0.122
897	0.121
898	0.12
898	0.119
898	0.119
899	0.119
899	0.119
900	0.119
900	0.12
901	0.12
901	0.121
901	0.122
902	0.123
902	0.123
903	0.124
903	0.124
904	0.125
904	0.125
904	0.126
905	0.127
905	0.128
906	0.128
906	0.128
907	0.128
907	0.128
907	0.127
908	0.127
908	0.126
909	0.125
909	0.124
910	0.124
910	0.123
910	0.123
911	0.123
911	0.124
912	0.124
912	0.125
913	0.125
913	0.126
913	0.127
914	0.128
914	0.128
915	0.129
915	0.129
916	0.13
916	0.13
916	0.13
917	0.131
917	0.131
918	0.13
918	0.13
918	0.13
919	0.13
919	0.129
920	0.129
920	0.129
921	0.129
921	0.129
921	0.129
922	0.129
922	0.129
923	0.128
923	0.128
924	0.128
924	0.127
924	0.127
925	0.126
925	0.125
926	0.123
926	0.122
927	0.121
927	0.121
927	0.12
928	0.119
928	0.119
929	0.118
929	0.118
930	0.117
930	0.116
930	0.116
931	0.115
931	0.114
932	0.114
932	0.113
933	0.112
933	0.111
933	0.11
934	0.108
934	0.107
935	0.107
935	0.106
935	0.105
936	0.104
936	0.103
937	0.102
937	0.101
938	0.101
938	0.101
938	0.102
939	0.102
939	0.102
940	0.103
940	0.103
941	0.104
941	0.104
941	0.105
942	0.105
942	0.106
943	0.106
943	0.106
944	0.105
944	0.104
944	0.104
945	0.103
945	0.102
946	0.101
946	0.099
946	0.099
947	0.098
947	0.097
948	0.097
948	0.097
949	0.097
949	0.098
949	0.098
950	0.099
950	0.099
951	0.1
951	0.101
952	0.101
952	0.102
952	0.103
953	0.104
953	0.105
954	0.105
954	0.106
955	0.106
955	0.108
955	0.108
956	0.109
956	0.11
957	0.11
957	0.11
957	0.111
958	0.111
958	0.112
959	0.112
959	0.112
960	0.112
960	0.112
960	0.112
961	0.112
961	0.113
962	0.113
962	0.113
963	0.112
963	0.112
963	0.112
964	0.112
964	0.112
965	0.112
965	0.112
966	0.112
966	0.111
966	0.111
967	0.111
967	0.11
968	0.109
968	0.109
968	0.108
969	0.108
969	0.107
970	0.107
970	0.106
971	0.106
971	0.107
971	0.106
972	0.107
972	0.107
973	0.107
973	0.106
974	0.106
974	0.106
974	0.107
975	0.106
975	0.106
976	0.105
976	0.105
976	0.105
977	0.104
977	0.104
978	0.105
978	0.104
979	0.104
979	0.104
979	0.103
980	0.103
980	0.103
981	0.103
981	0.103
982	0.102
982	0.102
982	0.101
983	0.101
983	0.101
984	0.101
984	0.101
984	0.101
985	0.101
985	0.101
986	0.1
986	0.1
987	0.1
987	0.099
987	0.099
988	0.098
988	0.097
989	0.097
989	0.096
990	0.095
990	0.094
990	0.094
991	0.093
991	0.093
992	0.093
992	0.093
992	0.092
993	0.092
993	0.092
994	0.092
994	0.092
995	0.091
995	0.091
995	0.091
996	0.09
996	0.089
997	0.089
997	0.089
997	0.089
998	0.088
998	0.089
999	0.089
999	0.089
1000	0.089
1000	0.089
1000	0.09
1001	0.09
1001	0.091
1002	0.091
1002	0.091
1003	0.092
1003	0.092
1003	0.092
1004	0.091
1004	0.091
1005	0.09
1005	0.09
1005	0.089
1006	0.087
1006	0.086
1007	0.085
1007	0.084
1008	0.083
1008	0.083
1008	0.082
1009	0.082
1009	0.082
1010	0.082
1010	0.082
1010	0.082
1011	0.082
1011	0.082
1012	0.082
1012	0.081
1013	0.081
1013	0.08
1013	0.079
1014	0.079
1014	0.078
1015	0.077
1015	0.076
1016	0.075
1016	0.074
1016	0.073
1017	0.073
1017	0.072
1018	0.071
1018	0.07
1018	0.069
1019	0.068
1019	0.067
1020	0.067
1020	0.066
1021	0.065
1021	0.064
1021	0.063
1022	0.062
1022	0.062
1023	0.062
1023	0.061
1023	0.061
1024	0.061
1024	0.061
1025	0.061
1025	0.061
1026	0.062
1026	0.062
1026	0.062
1027	0.062
1027	0.063
1028	0.063
1028	0.063
1028	0.063
1029	0.063
1029	0.062
1030	0.062
1030	0.061
1031	0.061
1031	0.061
1031	0.06
1032	0.06
1032	0.06
1033	0.06
1033	0.06
1033	0.06
1034	0.06
1034	0.06
1035	0.06
1035	0.06
1036	0.06
1036	0.06
1036	0.06
1037	0.06
1037	0.06
1038	0.06
1038	0.06
1039	0.06
1039	0.061
1039	0.061
1040	0.061
1040	0.062
1041	0.062
1041	0.062
1041	0.063
1042	0.063
1042	0.062
1043	0.062
1043	0.061
1044	0.061
1044	0.06
1044	0.059
1045	0.058
1045	0.057
1046	0.057
1046	0.056
1046	0.056
1047	0.056
1047	0.056
1048	0.056
1048	0.056
1049	0.056
1049	0.057
1049	0.057
1050	0.058
1050	0.058
1051	0.058
1051	0.059
1051	0.059
1052	0.059
1052	0.059
1053	0.06
1053	0.059
1053	0.06
1054	0.059
1054	0.059
1055	0.059
1055	0.059
1056	0.058
1056	0.057
1056	0.056
1057	0.055
1057	0.054
1058	0.054
1058	0.053
1058	0.053
1059	0.052
1059	0.051
1060	0.051
1060	0.051
1061	0.05
1061	0.05
1061	0.05
1062	0.05
1062	0.049
1063	0.049
1063	0.049
1063	0.05
1064	0.05
1064	0.05
1065	0.05
1065	0.049
1066	0.049
1066	0.049
1066	0.049
1067	0.049
1067	0.048
1068	0.048
1068	0.047
1068	0.047
1069	0.046
1069	0.046
1070	0.046
1070	0.046
1071	0.045
1071	0.045
1071	0.045
1072	0.044
1072	0.044
1073	0.044
1073	0.043
1073	0.043
1074	0.043
1074	0.043
1075	0.043
1075	0.042
1076	0.041
1076	0.042
1076	0.041
1077	0.041
1077	0.04
1078	0.039
1078	0.038
1078	0.037
1079	0.036
1079	0.036
1080	0.035
1080	0.034
1080	0.033
1081	0.032
1081	0.032
1082	0.031
1082	0.03
1083	0.029
1083	0.028
1083	0.027
1084	0.026
1084	0.025
1085	0.024
1085	0.023
1085	0.022
1086	0.022
1086	0.021
1087	0.021
1087	0.021
1088	0.02
1088	0.019
1088	0.018
1089	0.017
1089	0.017
1090	0.016
1090	0.015
1090	0.014
1091	0.013
1091	0.013
1092	0.012
1092	0.012
1092	0.01
1093	0.01
1093	0.01
1094	0.009
1094	0.008
1095	0.007
1095	0.007
1095	0.006
1096	0.004
1096	0.003
1097	0.002
1097	0.001
1097	0
1098	-0.001
1098	-0.003
1099	-0.004
1099	-0.005
1100	-0.006
1100	-0.008
1100	-0.01
1101	-0.013
1101	-0.017
1102	-0.018
1102	-0.021
1102	-0.022
1103	-0.024
1103	-0.027
1104	-0.029
1104	-0.032
1104	-0.034
1105	-0.036
1105	-0.038
1106	-0.042
1106	-0.045
1107	-0.049
1107	-0.054
1107	-0.06
1108	-0.061
1108	-0.064
1109	-0.068
1109	-0.073
1109	-0.076
1110	-0.077
1110	-0.08
1111	-0.088
1111	-0.088
