Data from 17C_3.2A_35min_2sec_int_Absorbance__132__01694.txt Node

Date: Mon Jun 19 17:36:37 CEST 2023
User: Marek
Spectrometer: MAYP115816
Trigger mode: 0
Integration Time (sec): 2.500000E-1
Scans to average: 10
Electric dark correction enabled: true
Nonlinearity correction enabled: true
Boxcar width: 5
XAxis mode: Wavelengths
Number of Pixels in Spectrum: 2068
>>>>>Begin Spectral Data<<<<<
199	-0.726
199	-0.74
200	-0.644
200	-0.591
201	-0.551
201	-0.536
202	-0.521
202	-0.507
203	-0.499
203	-0.495
204	-0.482
204	-0.468
205	-0.443
205	-0.438
205	-0.437
206	-0.441
206	-0.445
207	-0.436
207	-0.436
208	-0.436
208	-0.434
209	-0.429
209	-0.429
210	-0.432
210	-0.438
211	-0.437
211	-0.437
212	-0.439
212	-0.446
213	-0.446
213	-0.447
213	-0.454
214	-0.45
214	-0.45
215	-0.45
215	-0.453
216	-0.459
216	-0.465
217	-0.461
217	-0.465
218	-0.468
218	-0.469
219	-0.471
219	-0.481
220	-0.485
220	-0.494
221	-0.494
221	-0.496
221	-0.491
222	-0.487
222	-0.489
223	-0.491
223	-0.492
224	-0.498
224	-0.499
225	-0.493
225	-0.489
226	-0.493
226	-0.494
227	-0.499
227	-0.508
228	-0.508
228	-0.511
229	-0.514
229	-0.505
229	-0.5
230	-0.505
230	-0.509
231	-0.504
231	-0.493
232	-0.487
232	-0.487
233	-0.482
233	-0.478
234	-0.477
234	-0.474
235	-0.477
235	-0.481
236	-0.479
236	-0.483
236	-0.489
237	-0.495
237	-0.495
238	-0.503
238	-0.501
239	-0.501
239	-0.509
240	-0.509
240	-0.507
241	-0.513
241	-0.509
242	-0.515
242	-0.511
243	-0.508
243	-0.506
243	-0.517
244	-0.517
244	-0.516
245	-0.531
245	-0.53
246	-0.534
246	-0.541
247	-0.542
247	-0.546
248	-0.552
248	-0.55
249	-0.551
249	-0.559
250	-0.558
250	-0.553
250	-0.554
251	-0.551
251	-0.552
252	-0.556
252	-0.547
253	-0.55
253	-0.561
254	-0.559
254	-0.556
255	-0.566
255	-0.557
256	-0.555
256	-0.566
257	-0.563
257	-0.56
258	-0.575
258	-0.573
258	-0.57
259	-0.568
259	-0.577
260	-0.574
260	-0.581
261	-0.591
261	-0.581
262	-0.578
262	-0.58
263	-0.569
263	-0.564
264	-0.564
264	-0.572
265	-0.567
265	-0.576
265	-0.578
266	-0.574
266	-0.572
267	-0.584
267	-0.593
268	-0.609
268	-0.617
269	-0.615
269	-0.607
270	-0.613
270	-0.615
271	-0.614
271	-0.621
272	-0.624
272	-0.618
272	-0.608
273	-0.604
273	-0.613
274	-0.617
274	-0.62
275	-0.62
275	-0.613
276	-0.619
276	-0.612
277	-0.619
277	-0.637
278	-0.647
278	-0.642
278	-0.638
279	-0.641
279	-0.653
280	-0.649
280	-0.65
281	-0.646
281	-0.65
282	-0.642
282	-0.643
283	-0.634
283	-0.637
284	-0.632
284	-0.622
285	-0.618
285	-0.617
285	-0.613
286	-0.618
286	-0.614
287	-0.612
287	-0.592
288	-0.586
288	-0.593
289	-0.604
289	-0.612
290	-0.602
290	-0.602
291	-0.598
291	-0.591
292	-0.593
292	-0.599
292	-0.604
293	-0.608
293	-0.599
294	-0.591
294	-0.582
295	-0.58
295	-0.576
296	-0.575
296	-0.574
297	-0.568
297	-0.551
298	-0.544
298	-0.554
298	-0.543
299	-0.536
299	-0.536
300	-0.531
300	-0.527
301	-0.524
301	-0.522
302	-0.53
302	-0.538
303	-0.527
303	-0.511
304	-0.512
304	-0.51
305	-0.514
305	-0.512
305	-0.511
306	-0.493
306	-0.489
307	-0.474
307	-0.476
308	-0.488
308	-0.485
309	-0.489
309	-0.482
310	-0.469
310	-0.465
311	-0.456
311	-0.464
311	-0.459
312	-0.458
312	-0.455
313	-0.44
313	-0.442
314	-0.437
314	-0.437
315	-0.439
315	-0.437
316	-0.433
316	-0.425
317	-0.418
317	-0.412
318	-0.404
318	-0.401
318	-0.395
319	-0.385
319	-0.382
320	-0.373
320	-0.374
321	-0.378
321	-0.377
322	-0.373
322	-0.367
323	-0.366
323	-0.362
324	-0.355
324	-0.345
324	-0.336
325	-0.327
325	-0.312
326	-0.297
326	-0.278
327	-0.261
327	-0.238
328	-0.21
328	-0.187
329	-0.163
329	-0.139
330	-0.108
330	-0.074
330	-0.043
331	-0.011
331	0.017
332	0.047
332	0.07
333	0.095
333	0.121
334	0.143
334	0.162
335	0.181
335	0.197
336	0.213
336	0.228
336	0.238
337	0.251
337	0.262
338	0.271
338	0.278
339	0.287
339	0.294
340	0.299
340	0.305
341	0.31
341	0.314
342	0.318
342	0.321
342	0.325
343	0.327
343	0.33
344	0.332
344	0.334
345	0.335
345	0.336
346	0.338
346	0.338
347	0.339
347	0.34
348	0.341
348	0.342
348	0.342
349	0.342
349	0.343
350	0.343
350	0.343
351	0.343
351	0.343
352	0.343
352	0.343
353	0.343
353	0.342
354	0.342
354	0.342
354	0.341
355	0.341
355	0.341
356	0.341
356	0.341
357	0.34
357	0.339
358	0.339
358	0.339
359	0.339
359	0.339
360	0.338
360	0.338
360	0.338
361	0.338
361	0.338
362	0.338
362	0.338
363	0.338
363	0.338
364	0.338
364	0.337
365	0.337
365	0.337
366	0.337
366	0.337
366	0.337
367	0.337
367	0.336
368	0.336
368	0.336
369	0.336
369	0.336
370	0.335
370	0.335
371	0.335
371	0.335
372	0.334
372	0.334
372	0.334
373	0.334
373	0.334
374	0.333
374	0.333
375	0.333
375	0.333
376	0.333
376	0.333
377	0.333
377	0.332
378	0.332
378	0.332
378	0.332
379	0.332
379	0.331
380	0.331
380	0.33
381	0.33
381	0.33
382	0.33
382	0.329
383	0.329
383	0.329
383	0.328
384	0.328
384	0.328
385	0.328
385	0.328
386	0.327
386	0.327
387	0.327
387	0.326
388	0.326
388	0.326
389	0.326
389	0.326
389	0.326
390	0.326
390	0.325
391	0.325
391	0.325
392	0.325
392	0.324
393	0.324
393	0.324
394	0.324
394	0.323
394	0.323
395	0.322
395	0.322
396	0.322
396	0.321
397	0.321
397	0.321
398	0.321
398	0.321
399	0.32
399	0.32
400	0.32
400	0.32
400	0.319
401	0.319
401	0.319
402	0.318
402	0.318
403	0.318
403	0.317
404	0.317
404	0.317
405	0.317
405	0.316
405	0.316
406	0.316
406	0.316
407	0.315
407	0.315
408	0.315
408	0.315
409	0.315
409	0.315
410	0.314
410	0.314
411	0.314
411	0.314
411	0.314
412	0.314
412	0.314
413	0.314
413	0.313
414	0.313
414	0.313
415	0.312
415	0.312
416	0.312
416	0.311
416	0.311
417	0.311
417	0.311
418	0.311
418	0.311
419	0.311
419	0.311
420	0.311
420	0.311
421	0.311
421	0.311
421	0.31
422	0.31
422	0.31
423	0.31
423	0.31
424	0.309
424	0.309
425	0.309
425	0.308
426	0.308
426	0.308
427	0.307
427	0.307
427	0.307
428	0.307
428	0.307
429	0.307
429	0.307
430	0.306
430	0.306
431	0.306
431	0.306
432	0.306
432	0.306
432	0.306
433	0.305
433	0.305
434	0.305
434	0.305
435	0.304
435	0.304
436	0.304
436	0.304
437	0.304
437	0.304
437	0.304
438	0.304
438	0.304
439	0.304
439	0.304
440	0.304
440	0.304
441	0.303
441	0.303
442	0.303
442	0.303
442	0.303
443	0.303
443	0.303
444	0.303
444	0.303
445	0.303
445	0.303
446	0.303
446	0.303
447	0.303
447	0.303
447	0.303
448	0.303
448	0.304
449	0.304
449	0.304
450	0.304
450	0.304
451	0.304
451	0.304
452	0.304
452	0.303
452	0.304
453	0.303
453	0.303
454	0.303
454	0.303
455	0.303
455	0.303
456	0.303
456	0.303
457	0.303
457	0.303
458	0.303
458	0.303
458	0.303
459	0.303
459	0.304
460	0.303
460	0.303
461	0.303
461	0.304
462	0.304
462	0.304
463	0.304
463	0.305
463	0.305
464	0.305
464	0.305
465	0.305
465	0.306
466	0.306
466	0.307
467	0.307
467	0.307
467	0.307
468	0.307
468	0.308
469	0.308
469	0.309
470	0.31
470	0.31
471	0.31
471	0.311
472	0.311
472	0.312
472	0.312
473	0.313
473	0.313
474	0.314
474	0.314
475	0.315
475	0.315
476	0.316
476	0.317
477	0.317
477	0.318
477	0.318
478	0.319
478	0.32
479	0.32
479	0.321
480	0.321
480	0.322
481	0.323
481	0.324
482	0.325
482	0.326
482	0.327
483	0.328
483	0.329
484	0.33
484	0.33
485	0.331
485	0.332
486	0.333
486	0.334
487	0.336
487	0.337
487	0.338
488	0.339
488	0.34
489	0.342
489	0.345
490	0.347
490	0.348
491	0.35
491	0.352
492	0.353
492	0.355
492	0.357
493	0.358
493	0.361
494	0.362
494	0.364
495	0.366
495	0.368
496	0.37
496	0.372
496	0.374
497	0.376
497	0.378
498	0.38
498	0.382
499	0.384
499	0.387
500	0.389
500	0.392
501	0.394
501	0.396
501	0.398
502	0.4
502	0.402
503	0.405
503	0.407
504	0.409
504	0.412
505	0.415
505	0.417
506	0.42
506	0.422
506	0.424
507	0.427
507	0.429
508	0.432
508	0.434
509	0.437
509	0.439
510	0.442
510	0.445
511	0.447
511	0.45
511	0.452
512	0.455
512	0.457
513	0.46
513	0.462
514	0.464
514	0.467
515	0.47
515	0.472
515	0.474
516	0.477
516	0.48
517	0.482
517	0.484
518	0.486
518	0.489
519	0.491
519	0.493
520	0.495
520	0.497
520	0.5
521	0.502
521	0.504
522	0.506
522	0.508
523	0.51
523	0.512
524	0.513
524	0.514
524	0.516
525	0.517
525	0.518
526	0.519
526	0.52
527	0.522
527	0.523
528	0.524
528	0.525
529	0.527
529	0.528
529	0.529
530	0.531
530	0.531
531	0.532
531	0.532
532	0.533
532	0.534
533	0.534
533	0.534
533	0.535
534	0.535
534	0.535
535	0.535
535	0.535
536	0.534
536	0.534
537	0.534
537	0.533
538	0.534
538	0.533
538	0.533
539	0.533
539	0.533
540	0.533
540	0.532
541	0.531
541	0.531
542	0.53
542	0.529
542	0.528
543	0.528
543	0.526
544	0.525
544	0.524
545	0.523
545	0.523
546	0.522
546	0.521
547	0.519
547	0.518
547	0.517
548	0.516
548	0.515
549	0.514
549	0.513
550	0.512
550	0.51
551	0.509
551	0.509
551	0.508
552	0.508
552	0.507
553	0.506
553	0.505
554	0.504
554	0.502
555	0.5
555	0.499
556	0.498
556	0.496
556	0.494
557	0.493
557	0.491
558	0.489
558	0.487
559	0.485
559	0.484
560	0.482
560	0.481
560	0.479
561	0.478
561	0.476
562	0.474
562	0.473
563	0.471
563	0.47
564	0.468
564	0.467
564	0.466
565	0.464
565	0.463
566	0.462
566	0.461
567	0.459
567	0.457
568	0.456
568	0.453
568	0.452
569	0.45
569	0.447
570	0.445
570	0.442
571	0.441
571	0.439
572	0.437
572	0.435
573	0.433
573	0.432
573	0.43
574	0.429
574	0.427
575	0.426
575	0.425
576	0.423
576	0.421
577	0.42
577	0.419
577	0.418
578	0.417
578	0.416
579	0.415
579	0.413
580	0.411
580	0.408
581	0.406
581	0.404
581	0.403
582	0.402
582	0.401
583	0.399
583	0.397
584	0.395
584	0.393
585	0.392
585	0.391
585	0.389
586	0.388
586	0.386
587	0.384
587	0.383
588	0.381
588	0.38
589	0.378
589	0.377
590	0.375
590	0.374
590	0.372
591	0.37
591	0.368
592	0.366
592	0.364
593	0.363
593	0.361
594	0.36
594	0.358
594	0.357
595	0.356
595	0.354
596	0.352
596	0.352
597	0.351
597	0.349
598	0.347
598	0.346
598	0.344
599	0.342
599	0.34
600	0.338
600	0.336
601	0.335
601	0.333
602	0.33
602	0.329
602	0.327
603	0.326
603	0.325
604	0.324
604	0.323
605	0.322
605	0.321
606	0.319
606	0.317
606	0.316
607	0.314
607	0.313
608	0.311
608	0.308
609	0.306
609	0.305
610	0.303
610	0.302
610	0.3
611	0.299
611	0.299
612	0.298
612	0.297
613	0.296
613	0.295
614	0.293
614	0.291
614	0.289
615	0.287
615	0.285
616	0.284
616	0.282
617	0.28
617	0.277
618	0.275
618	0.274
618	0.272
619	0.271
619	0.27
620	0.269
620	0.268
621	0.266
621	0.265
622	0.263
622	0.262
622	0.26
623	0.259
623	0.258
624	0.256
624	0.254
625	0.253
625	0.251
626	0.249
626	0.247
626	0.246
627	0.244
627	0.241
628	0.239
628	0.236
629	0.234
629	0.231
630	0.228
630	0.225
630	0.222
631	0.219
631	0.216
632	0.212
632	0.208
633	0.204
633	0.2
634	0.196
634	0.192
634	0.188
635	0.184
635	0.179
636	0.175
636	0.17
637	0.165
637	0.159
638	0.154
638	0.148
638	0.142
639	0.135
639	0.128
640	0.121
640	0.114
641	0.108
641	0.101
642	0.094
642	0.088
642	0.081
643	0.074
643	0.066
644	0.059
644	0.051
645	0.043
645	0.036
646	0.028
646	0.02
646	0.012
647	0.004
647	-0.004
648	-0.012
648	-0.02
649	-0.028
649	-0.036
650	-0.044
650	-0.052
650	-0.06
651	-0.071
651	-0.083
652	-0.098
652	-0.114
653	-0.127
653	-0.138
653	-0.133
654	-0.11
654	-0.098
655	-0.099
655	-0.103
656	-0.108
656	-0.112
657	-0.115
657	-0.118
657	-0.122
658	-0.127
658	-0.155
659	-0.237
659	-0.335
660	-0.377
660	-0.402
661	-0.427
661	-0.455
661	-0.486
662	-0.517
662	-0.549
663	-0.586
663	-0.626
664	-0.667
664	-0.718
665	-0.767
665	-0.824
665	-0.878
666	-0.933
666	-0.994
667	-1.057
667	-1.122
668	-1.194
668	-1.266
669	-1.34
669	-1.413
669	-1.491
670	-1.559
670	-1.598
671	-1.776
671	-2.018
672	-2.232
672	-2.415
672	-2.54
673	-2.629
673	-2.707
674	-2.748
674	-2.766
675	-2.791
675	-2.93
676	-3.116
676	-3.068
676	-2.844
677	-2.64
677	-2.477
678	-2.3
678	-2
679	-1.723
679	-1.588
680	-1.494
680	-1.412
680	-1.343
681	-1.299
681	-1.241
682	-1.202
682	-1.165
683	-1.131
683	-1.114
684	-1.093
684	-1.073
684	-1.05
685	-1.026
685	-1.004
686	-0.979
686	-0.962
687	-0.937
687	-0.925
687	-0.904
688	-0.877
688	-0.856
689	-0.836
689	-0.822
690	-0.803
690	-0.79
691	-0.783
691	-0.787
691	-0.801
692	-0.792
692	-0.782
693	-0.777
693	-0.783
694	-0.779
694	-0.773
695	-0.777
695	-0.775
695	-0.759
696	-0.755
696	-0.733
697	-0.733
697	-0.75
698	-0.752
698	-0.744
698	-0.757
699	-0.76
699	-0.757
700	-0.749
700	-0.763
701	-0.76
701	-0.768
702	-0.767
702	-0.753
702	-0.745
703	-0.737
703	-0.728
704	-0.724
704	-0.723
705	-0.734
705	-0.725
705	-0.715
706	-0.714
706	-0.71
707	-0.715
707	-0.711
708	-0.709
708	-0.701
709	-0.704
709	-0.707
709	-0.697
710	-0.707
710	-0.715
711	-0.707
711	-0.708
712	-0.706
712	-0.718
713	-0.717
713	-0.725
713	-0.714
714	-0.711
714	-0.712
715	-0.704
715	-0.691
716	-0.699
716	-0.7
716	-0.695
717	-0.696
717	-0.698
718	-0.689
718	-0.692
719	-0.7
719	-0.701
720	-0.694
720	-0.706
720	-0.698
721	-0.687
721	-0.686
722	-0.674
722	-0.664
723	-0.66
723	-0.662
723	-0.647
724	-0.651
724	-0.656
725	-0.654
725	-0.662
726	-0.676
726	-0.679
727	-0.685
727	-0.698
727	-0.706
728	-0.708
728	-0.715
729	-0.713
729	-0.718
730	-0.725
730	-0.719
730	-0.707
731	-0.692
731	-0.701
732	-0.709
732	-0.708
733	-0.706
733	-0.712
734	-0.708
734	-0.708
734	-0.694
735	-0.691
735	-0.692
736	-0.703
736	-0.691
737	-0.681
737	-0.683
737	-0.693
738	-0.687
738	-0.687
739	-0.684
739	-0.698
740	-0.698
740	-0.698
741	-0.695
741	-0.695
741	-0.701
742	-0.698
742	-0.697
743	-0.704
743	-0.709
744	-0.707
744	-0.695
744	-0.696
745	-0.703
745	-0.694
746	-0.692
746	-0.687
747	-0.688
747	-0.678
748	-0.666
748	-0.67
748	-0.671
749	-0.672
749	-0.673
750	-0.661
750	-0.663
751	-0.669
751	-0.679
751	-0.681
752	-0.685
752	-0.695
753	-0.689
753	-0.686
754	-0.691
754	-0.685
754	-0.699
755	-0.714
755	-0.725
756	-0.713
756	-0.711
757	-0.707
757	-0.703
758	-0.704
758	-0.7
758	-0.701
759	-0.708
759	-0.691
760	-0.683
760	-0.679
761	-0.688
761	-0.686
761	-0.685
762	-0.693
762	-0.694
763	-0.704
763	-0.704
764	-0.703
764	-0.713
764	-0.72
765	-0.71
765	-0.698
766	-0.706
766	-0.714
767	-0.73
767	-0.724
768	-0.716
768	-0.724
768	-0.727
769	-0.742
769	-0.744
770	-0.747
770	-0.758
771	-0.754
771	-0.756
771	-0.755
772	-0.758
772	-0.756
773	-0.756
773	-0.752
774	-0.751
774	-0.751
775	-0.754
775	-0.75
775	-0.757
776	-0.759
776	-0.749
777	-0.758
777	-0.779
778	-0.774
778	-0.792
778	-0.779
779	-0.801
779	-0.811
780	-0.826
780	-0.826
781	-0.837
781	-0.833
781	-0.849
782	-0.849
782	-0.853
783	-0.842
783	-0.841
784	-0.821
784	-0.809
784	-0.818
785	-0.824
785	-0.807
786	-0.813
786	-0.788
787	-0.772
787	-0.772
788	-0.773
788	-0.784
788	-0.793
789	-0.794
789	-0.774
790	-0.755
790	-0.758
791	-0.758
791	-0.776
791	-0.784
792	-0.779
792	-0.754
793	-0.743
793	-0.72
794	-0.724
794	-0.716
794	-0.727
795	-0.722
795	-0.714
796	-0.697
796	-0.704
797	-0.699
797	-0.713
797	-0.718
798	-0.733
798	-0.727
799	-0.739
799	-0.723
800	-0.731
800	-0.724
801	-0.732
801	-0.716
801	-0.724
802	-0.729
802	-0.733
803	-0.735
803	-0.744
804	-0.738
804	-0.75
804	-0.736
805	-0.741
805	-0.728
806	-0.731
806	-0.717
807	-0.719
807	-0.699
807	-0.685
808	-0.677
808	-0.67
809	-0.654
809	-0.664
810	-0.663
810	-0.657
810	-0.656
811	-0.664
811	-0.654
812	-0.655
812	-0.657
813	-0.662
813	-0.658
813	-0.664
814	-0.667
814	-0.671
815	-0.675
815	-0.676
816	-0.67
816	-0.674
817	-0.684
817	-0.701
817	-0.714
818	-0.725
818	-0.727
819	-0.717
819	-0.719
820	-0.726
820	-0.724
820	-0.734
821	-0.733
821	-0.72
822	-0.689
822	-0.665
823	-0.661
823	-0.664
823	-0.662
824	-0.656
824	-0.659
825	-0.652
825	-0.634
826	-0.627
826	-0.634
826	-0.642
827	-0.638
827	-0.634
828	-0.615
828	-0.615
829	-0.606
829	-0.591
829	-0.583
830	-0.592
830	-0.591
831	-0.585
831	-0.577
832	-0.573
832	-0.566
832	-0.571
833	-0.566
833	-0.568
834	-0.567
834	-0.577
835	-0.565
835	-0.559
835	-0.555
836	-0.552
836	-0.55
837	-0.547
837	-0.537
838	-0.528
838	-0.517
839	-0.504
839	-0.492
839	-0.482
840	-0.468
840	-0.465
841	-0.455
841	-0.447
842	-0.441
842	-0.434
842	-0.429
843	-0.422
843	-0.419
844	-0.409
844	-0.403
845	-0.397
845	-0.386
845	-0.373
846	-0.363
846	-0.35
847	-0.338
847	-0.327
848	-0.315
848	-0.305
848	-0.29
849	-0.28
849	-0.268
850	-0.254
850	-0.25
851	-0.242
851	-0.233
851	-0.225
852	-0.21
852	-0.198
853	-0.19
853	-0.185
854	-0.174
854	-0.164
854	-0.154
855	-0.143
855	-0.137
856	-0.127
856	-0.12
857	-0.114
857	-0.107
857	-0.098
858	-0.089
858	-0.085
859	-0.078
859	-0.07
860	-0.062
860	-0.051
860	-0.044
861	-0.036
861	-0.029
862	-0.023
862	-0.016
863	-0.01
863	-0.002
863	0.003
864	0.007
864	0.012
865	0.017
865	0.02
866	0.024
866	0.027
866	0.03
867	0.033
867	0.036
868	0.039
868	0.042
869	0.045
869	0.047
869	0.049
870	0.051
870	0.054
871	0.056
871	0.057
872	0.059
872	0.059
872	0.06
873	0.061
873	0.061
874	0.061
874	0.06
875	0.059
875	0.058
875	0.057
876	0.056
876	0.055
877	0.054
877	0.052
878	0.05
878	0.049
878	0.047
879	0.045
879	0.044
880	0.043
880	0.043
881	0.042
881	0.042
881	0.042
882	0.042
882	0.041
883	0.04
883	0.039
884	0.039
884	0.038
884	0.037
885	0.036
885	0.036
886	0.035
886	0.035
887	0.034
887	0.034
887	0.034
888	0.035
888	0.035
889	0.035
889	0.035
890	0.036
890	0.036
890	0.035
891	0.035
891	0.035
892	0.035
892	0.035
893	0.035
893	0.035
893	0.035
894	0.035
894	0.034
895	0.033
895	0.033
895	0.033
896	0.032
896	0.031
897	0.03
897	0.029
898	0.028
898	0.027
898	0.027
899	0.027
899	0.028
900	0.029
900	0.029
901	0.03
901	0.031
901	0.031
902	0.032
902	0.033
903	0.033
903	0.034
904	0.035
904	0.035
904	0.036
905	0.037
905	0.037
906	0.037
906	0.038
907	0.038
907	0.037
907	0.037
908	0.037
908	0.036
909	0.035
909	0.035
910	0.034
910	0.034
910	0.034
911	0.034
911	0.034
912	0.035
912	0.036
913	0.036
913	0.037
913	0.038
914	0.039
914	0.04
915	0.04
915	0.041
916	0.041
916	0.042
916	0.042
917	0.042
917	0.043
918	0.043
918	0.042
918	0.042
919	0.042
919	0.042
920	0.042
920	0.042
921	0.042
921	0.042
921	0.043
922	0.043
922	0.043
923	0.042
923	0.042
924	0.042
924	0.042
924	0.041
925	0.04
925	0.039
926	0.038
926	0.037
927	0.036
927	0.035
927	0.035
928	0.034
928	0.033
929	0.032
929	0.032
930	0.031
930	0.03
930	0.03
931	0.03
931	0.029
932	0.029
932	0.028
933	0.027
933	0.026
933	0.024
934	0.023
934	0.022
935	0.021
935	0.02
935	0.019
936	0.018
936	0.017
937	0.016
937	0.016
938	0.016
938	0.016
938	0.017
939	0.018
939	0.019
940	0.02
940	0.021
941	0.021
941	0.022
941	0.023
942	0.024
942	0.025
943	0.025
943	0.025
944	0.025
944	0.024
944	0.023
945	0.023
945	0.022
946	0.021
946	0.019
946	0.018
947	0.018
947	0.017
948	0.017
948	0.017
949	0.017
949	0.018
949	0.019
950	0.019
950	0.02
951	0.021
951	0.022
952	0.023
952	0.024
952	0.024
953	0.025
953	0.026
954	0.026
954	0.027
955	0.028
955	0.029
955	0.03
956	0.031
956	0.031
957	0.031
957	0.031
957	0.032
958	0.032
958	0.033
959	0.033
959	0.033
960	0.033
960	0.033
960	0.033
961	0.033
961	0.033
962	0.033
962	0.033
963	0.033
963	0.033
963	0.033
964	0.033
964	0.033
965	0.033
965	0.033
966	0.033
966	0.032
966	0.032
967	0.032
967	0.031
968	0.031
968	0.03
968	0.03
969	0.029
969	0.029
970	0.029
970	0.029
971	0.029
971	0.029
971	0.029
972	0.03
972	0.03
973	0.03
973	0.03
974	0.029
974	0.029
974	0.029
975	0.029
975	0.028
976	0.027
976	0.027
976	0.026
977	0.026
977	0.026
978	0.026
978	0.026
979	0.026
979	0.025
979	0.025
980	0.025
980	0.025
981	0.025
981	0.025
982	0.024
982	0.024
982	0.023
983	0.023
983	0.023
984	0.023
984	0.023
984	0.023
985	0.024
985	0.024
986	0.024
986	0.024
987	0.024
987	0.023
987	0.023
988	0.023
988	0.022
989	0.022
989	0.021
990	0.02
990	0.019
990	0.018
991	0.018
991	0.018
992	0.017
992	0.017
992	0.017
993	0.017
993	0.017
994	0.017
994	0.017
995	0.017
995	0.017
995	0.017
996	0.016
996	0.016
997	0.015
997	0.016
997	0.015
998	0.016
998	0.016
999	0.016
999	0.016
1000	0.016
1000	0.016
1000	0.017
1001	0.017
1001	0.018
1002	0.018
1002	0.019
1003	0.019
1003	0.019
1003	0.018
1004	0.018
1004	0.018
1005	0.018
1005	0.017
1005	0.016
1006	0.015
1006	0.014
1007	0.013
1007	0.012
1008	0.011
1008	0.011
1008	0.011
1009	0.01
1009	0.01
1010	0.01
1010	0.01
1010	0.01
1011	0.01
1011	0.009
1012	0.009
1012	0.008
1013	0.007
1013	0.006
1013	0.005
1014	0.004
1014	0.004
1015	0.003
1015	0.002
1016	0.001
1016	0.001
1016	-0
1017	-0.001
1017	-0.001
1018	-0.002
1018	-0.003
1018	-0.003
1019	-0.003
1019	-0.004
1020	-0.005
1020	-0.005
1021	-0.006
1021	-0.007
1021	-0.007
1022	-0.008
1022	-0.009
1023	-0.009
1023	-0.009
1023	-0.01
1024	-0.01
1024	-0.01
1025	-0.01
1025	-0.01
1026	-0.009
1026	-0.009
1026	-0.008
1027	-0.008
1027	-0.007
1028	-0.007
1028	-0.007
1028	-0.007
1029	-0.007
1029	-0.007
1030	-0.008
1030	-0.009
1031	-0.009
1031	-0.009
1031	-0.01
1032	-0.01
1032	-0.01
1033	-0.01
1033	-0.01
1033	-0.009
1034	-0.009
1034	-0.009
1035	-0.009
1035	-0.008
1036	-0.008
1036	-0.008
1036	-0.008
1037	-0.009
1037	-0.009
1038	-0.008
1038	-0.008
1039	-0.008
1039	-0.008
1039	-0.007
1040	-0.007
1040	-0.006
1041	-0.006
1041	-0.006
1041	-0.006
1042	-0.006
1042	-0.006
1043	-0.007
1043	-0.007
1044	-0.007
1044	-0.008
1044	-0.009
1045	-0.01
1045	-0.01
1046	-0.011
1046	-0.012
1046	-0.012
1047	-0.011
1047	-0.011
1048	-0.011
1048	-0.011
1049	-0.011
1049	-0.011
1049	-0.011
1050	-0.01
1050	-0.01
1051	-0.009
1051	-0.009
1051	-0.009
1052	-0.008
1052	-0.008
1053	-0.008
1053	-0.007
1053	-0.007
1054	-0.007
1054	-0.007
1055	-0.007
1055	-0.008
1056	-0.008
1056	-0.009
1056	-0.01
1057	-0.011
1057	-0.012
1058	-0.012
1058	-0.013
1058	-0.013
1059	-0.014
1059	-0.014
1060	-0.015
1060	-0.016
1061	-0.015
1061	-0.015
1061	-0.015
1062	-0.016
1062	-0.016
1063	-0.016
1063	-0.016
1063	-0.016
1064	-0.015
1064	-0.015
1065	-0.015
1065	-0.015
1066	-0.015
1066	-0.015
1066	-0.015
1067	-0.016
1067	-0.016
1068	-0.016
1068	-0.017
1068	-0.018
1069	-0.018
1069	-0.018
1070	-0.019
1070	-0.019
1071	-0.019
1071	-0.019
1071	-0.02
1072	-0.02
1072	-0.02
1073	-0.02
1073	-0.02
1073	-0.02
1074	-0.02
1074	-0.019
1075	-0.02
1075	-0.02
1076	-0.021
1076	-0.021
1076	-0.021
1077	-0.021
1077	-0.022
1078	-0.023
1078	-0.024
1078	-0.025
1079	-0.026
1079	-0.026
1080	-0.027
1080	-0.028
1080	-0.029
1081	-0.029
1081	-0.03
1082	-0.031
1082	-0.032
1083	-0.032
1083	-0.032
1083	-0.033
1084	-0.034
1084	-0.035
1085	-0.036
1085	-0.036
1085	-0.037
1086	-0.037
1086	-0.038
1087	-0.038
1087	-0.038
1088	-0.039
1088	-0.039
1088	-0.039
1089	-0.04
1089	-0.041
1090	-0.042
1090	-0.042
1090	-0.043
1091	-0.043
1091	-0.043
1092	-0.044
1092	-0.043
1092	-0.045
1093	-0.045
1093	-0.045
1094	-0.045
1094	-0.046
1095	-0.046
1095	-0.046
1095	-0.047
1096	-0.049
1096	-0.05
1097	-0.051
1097	-0.052
1097	-0.052
1098	-0.053
1098	-0.055
1099	-0.055
1099	-0.057
1100	-0.058
1100	-0.059
1100	-0.061
1101	-0.063
1101	-0.065
1102	-0.066
1102	-0.069
1102	-0.069
1103	-0.071
1103	-0.074
1104	-0.075
1104	-0.076
1104	-0.079
1105	-0.081
1105	-0.084
1106	-0.088
1106	-0.089
1107	-0.094
1107	-0.098
1107	-0.103
1108	-0.104
1108	-0.106
1109	-0.109
1109	-0.113
1109	-0.116
1110	-0.117
1110	-0.121
1111	-0.127
1111	-0.124
