Data from 17C_3.2A_35min_2sec_int_Absorbance__162__01724.txt Node

Date: Mon Jun 19 17:37:52 CEST 2023
User: Marek
Spectrometer: MAYP115816
Trigger mode: 0
Integration Time (sec): 2.500000E-1
Scans to average: 10
Electric dark correction enabled: true
Nonlinearity correction enabled: true
Boxcar width: 5
XAxis mode: Wavelengths
Number of Pixels in Spectrum: 2068
>>>>>Begin Spectral Data<<<<<
199	-0.713
199	-0.727
200	-0.64
200	-0.588
201	-0.551
201	-0.541
202	-0.522
202	-0.507
203	-0.498
203	-0.493
204	-0.479
204	-0.465
205	-0.443
205	-0.435
205	-0.432
206	-0.434
206	-0.433
207	-0.424
207	-0.426
208	-0.429
208	-0.428
209	-0.423
209	-0.424
210	-0.43
210	-0.434
211	-0.435
211	-0.438
212	-0.442
212	-0.45
213	-0.447
213	-0.446
213	-0.453
214	-0.45
214	-0.45
215	-0.449
215	-0.455
216	-0.458
216	-0.464
217	-0.458
217	-0.464
218	-0.47
218	-0.471
219	-0.471
219	-0.481
220	-0.486
220	-0.497
221	-0.497
221	-0.499
221	-0.493
222	-0.488
222	-0.489
223	-0.489
223	-0.493
224	-0.496
224	-0.496
225	-0.49
225	-0.483
226	-0.487
226	-0.487
227	-0.494
227	-0.507
228	-0.507
228	-0.508
229	-0.508
229	-0.504
229	-0.498
230	-0.504
230	-0.505
231	-0.501
231	-0.492
232	-0.485
232	-0.482
233	-0.476
233	-0.474
234	-0.473
234	-0.471
235	-0.476
235	-0.479
236	-0.478
236	-0.481
236	-0.487
237	-0.495
237	-0.495
238	-0.504
238	-0.504
239	-0.504
239	-0.511
240	-0.51
240	-0.509
241	-0.516
241	-0.514
242	-0.518
242	-0.514
243	-0.512
243	-0.511
243	-0.518
244	-0.516
244	-0.515
245	-0.528
245	-0.528
246	-0.532
246	-0.538
247	-0.541
247	-0.545
248	-0.55
248	-0.549
249	-0.553
249	-0.561
250	-0.559
250	-0.557
250	-0.557
251	-0.554
251	-0.553
252	-0.556
252	-0.545
253	-0.551
253	-0.562
254	-0.559
254	-0.559
255	-0.569
255	-0.562
256	-0.559
256	-0.57
257	-0.568
257	-0.564
258	-0.581
258	-0.575
258	-0.571
259	-0.569
259	-0.577
260	-0.576
260	-0.58
261	-0.59
261	-0.582
262	-0.578
262	-0.58
263	-0.57
263	-0.566
264	-0.566
264	-0.571
265	-0.566
265	-0.572
265	-0.575
266	-0.572
266	-0.57
267	-0.582
267	-0.59
268	-0.604
268	-0.613
269	-0.609
269	-0.607
270	-0.612
270	-0.617
271	-0.618
271	-0.622
272	-0.626
272	-0.621
272	-0.612
273	-0.61
273	-0.619
274	-0.626
274	-0.627
275	-0.629
275	-0.621
276	-0.625
276	-0.62
277	-0.622
277	-0.641
278	-0.654
278	-0.649
278	-0.643
279	-0.645
279	-0.657
280	-0.654
280	-0.655
281	-0.649
281	-0.656
282	-0.65
282	-0.649
283	-0.637
283	-0.638
284	-0.633
284	-0.625
285	-0.621
285	-0.618
285	-0.614
286	-0.622
286	-0.613
287	-0.609
287	-0.594
288	-0.588
288	-0.597
289	-0.609
289	-0.618
290	-0.607
290	-0.606
291	-0.604
291	-0.599
292	-0.604
292	-0.611
292	-0.617
293	-0.623
293	-0.611
294	-0.599
294	-0.587
295	-0.587
295	-0.582
296	-0.579
296	-0.576
297	-0.569
297	-0.553
298	-0.545
298	-0.552
298	-0.542
299	-0.534
299	-0.538
300	-0.532
300	-0.529
301	-0.527
301	-0.528
302	-0.537
302	-0.547
303	-0.535
303	-0.52
304	-0.521
304	-0.521
305	-0.519
305	-0.519
305	-0.515
306	-0.498
306	-0.49
307	-0.476
307	-0.478
308	-0.493
308	-0.49
309	-0.493
309	-0.483
310	-0.474
310	-0.472
311	-0.465
311	-0.472
311	-0.469
312	-0.463
312	-0.459
313	-0.445
313	-0.449
314	-0.446
314	-0.448
315	-0.446
315	-0.444
316	-0.44
316	-0.433
317	-0.425
317	-0.421
318	-0.41
318	-0.407
318	-0.401
319	-0.391
319	-0.385
320	-0.379
320	-0.378
321	-0.383
321	-0.384
322	-0.378
322	-0.372
323	-0.373
323	-0.366
324	-0.359
324	-0.349
324	-0.34
325	-0.331
325	-0.314
326	-0.298
326	-0.278
327	-0.264
327	-0.242
328	-0.217
328	-0.194
329	-0.17
329	-0.145
330	-0.118
330	-0.084
330	-0.056
331	-0.025
331	0.003
332	0.033
332	0.056
333	0.08
333	0.106
334	0.128
334	0.146
335	0.165
335	0.181
336	0.197
336	0.212
336	0.223
337	0.235
337	0.246
338	0.255
338	0.261
339	0.27
339	0.277
340	0.283
340	0.287
341	0.291
341	0.296
342	0.3
342	0.303
342	0.306
343	0.309
343	0.312
344	0.314
344	0.315
345	0.317
345	0.318
346	0.319
346	0.32
347	0.321
347	0.321
348	0.322
348	0.322
348	0.323
349	0.323
349	0.323
350	0.323
350	0.324
351	0.323
351	0.323
352	0.323
352	0.323
353	0.323
353	0.323
354	0.323
354	0.323
354	0.323
355	0.323
355	0.322
356	0.323
356	0.323
357	0.322
357	0.322
358	0.321
358	0.321
359	0.321
359	0.321
360	0.32
360	0.32
360	0.32
361	0.319
361	0.319
362	0.319
362	0.319
363	0.319
363	0.319
364	0.319
364	0.318
365	0.318
365	0.318
366	0.318
366	0.318
366	0.318
367	0.318
367	0.318
368	0.318
368	0.318
369	0.318
369	0.317
370	0.317
370	0.317
371	0.317
371	0.316
372	0.316
372	0.316
372	0.316
373	0.316
373	0.316
374	0.316
374	0.316
375	0.315
375	0.315
376	0.315
376	0.315
377	0.315
377	0.315
378	0.315
378	0.314
378	0.314
379	0.314
379	0.314
380	0.313
380	0.313
381	0.313
381	0.313
382	0.312
382	0.312
383	0.312
383	0.311
383	0.311
384	0.311
384	0.31
385	0.31
385	0.31
386	0.31
386	0.31
387	0.31
387	0.31
388	0.31
388	0.31
389	0.309
389	0.31
389	0.31
390	0.31
390	0.309
391	0.309
391	0.309
392	0.309
392	0.309
393	0.308
393	0.308
394	0.308
394	0.307
394	0.307
395	0.306
395	0.306
396	0.306
396	0.306
397	0.305
397	0.305
398	0.305
398	0.305
399	0.305
399	0.304
400	0.304
400	0.304
400	0.304
401	0.303
401	0.303
402	0.303
402	0.303
403	0.302
403	0.302
404	0.302
404	0.301
405	0.301
405	0.301
405	0.301
406	0.301
406	0.301
407	0.3
407	0.3
408	0.3
408	0.3
409	0.3
409	0.299
410	0.299
410	0.299
411	0.299
411	0.299
411	0.299
412	0.299
412	0.299
413	0.299
413	0.299
414	0.298
414	0.298
415	0.298
415	0.298
416	0.297
416	0.297
416	0.297
417	0.297
417	0.296
418	0.296
418	0.296
419	0.296
419	0.296
420	0.296
420	0.296
421	0.296
421	0.296
421	0.296
422	0.296
422	0.296
423	0.296
423	0.296
424	0.295
424	0.295
425	0.294
425	0.294
426	0.294
426	0.293
427	0.293
427	0.293
427	0.292
428	0.292
428	0.292
429	0.292
429	0.292
430	0.292
430	0.292
431	0.292
431	0.291
432	0.291
432	0.291
432	0.291
433	0.291
433	0.291
434	0.29
434	0.29
435	0.29
435	0.29
436	0.29
436	0.29
437	0.29
437	0.29
437	0.29
438	0.29
438	0.29
439	0.29
439	0.29
440	0.289
440	0.289
441	0.289
441	0.289
442	0.289
442	0.289
442	0.289
443	0.289
443	0.289
444	0.289
444	0.289
445	0.288
445	0.288
446	0.289
446	0.289
447	0.289
447	0.289
447	0.289
448	0.289
448	0.289
449	0.289
449	0.289
450	0.289
450	0.289
451	0.289
451	0.289
452	0.289
452	0.289
452	0.289
453	0.288
453	0.288
454	0.288
454	0.288
455	0.288
455	0.288
456	0.288
456	0.288
457	0.288
457	0.288
458	0.288
458	0.288
458	0.288
459	0.288
459	0.288
460	0.288
460	0.288
461	0.288
461	0.288
462	0.288
462	0.289
463	0.289
463	0.289
463	0.289
464	0.289
464	0.289
465	0.289
465	0.29
466	0.29
466	0.29
467	0.291
467	0.291
467	0.291
468	0.291
468	0.291
469	0.292
469	0.292
470	0.293
470	0.293
471	0.294
471	0.294
472	0.294
472	0.295
472	0.295
473	0.296
473	0.296
474	0.296
474	0.296
475	0.297
475	0.297
476	0.298
476	0.298
477	0.299
477	0.299
477	0.299
478	0.3
478	0.3
479	0.301
479	0.302
480	0.302
480	0.303
481	0.303
481	0.304
482	0.305
482	0.306
482	0.306
483	0.307
483	0.308
484	0.309
484	0.309
485	0.31
485	0.311
486	0.312
486	0.313
487	0.314
487	0.315
487	0.316
488	0.317
488	0.318
489	0.32
489	0.322
490	0.323
490	0.325
491	0.326
491	0.328
492	0.329
492	0.33
492	0.332
493	0.333
493	0.335
494	0.336
494	0.338
495	0.34
495	0.341
496	0.343
496	0.344
496	0.346
497	0.348
497	0.35
498	0.352
498	0.354
499	0.356
499	0.358
500	0.36
500	0.362
501	0.364
501	0.366
501	0.368
502	0.369
502	0.371
503	0.373
503	0.375
504	0.377
504	0.379
505	0.381
505	0.383
506	0.386
506	0.388
506	0.39
507	0.392
507	0.394
508	0.396
508	0.398
509	0.401
509	0.403
510	0.405
510	0.407
511	0.41
511	0.412
511	0.414
512	0.417
512	0.419
513	0.421
513	0.423
514	0.425
514	0.428
515	0.43
515	0.431
515	0.433
516	0.436
516	0.438
517	0.44
517	0.442
518	0.444
518	0.446
519	0.448
519	0.449
520	0.451
520	0.454
520	0.456
521	0.458
521	0.46
522	0.461
522	0.463
523	0.465
523	0.467
524	0.469
524	0.47
524	0.471
525	0.472
525	0.473
526	0.474
526	0.475
527	0.476
527	0.478
528	0.479
528	0.48
529	0.481
529	0.482
529	0.484
530	0.485
530	0.486
531	0.487
531	0.487
532	0.488
532	0.489
533	0.49
533	0.491
533	0.491
534	0.491
534	0.491
535	0.491
535	0.492
536	0.492
536	0.492
537	0.492
537	0.492
538	0.493
538	0.492
538	0.493
539	0.493
539	0.493
540	0.493
540	0.493
541	0.492
541	0.492
542	0.492
542	0.492
542	0.491
543	0.49
543	0.489
544	0.489
544	0.488
545	0.488
545	0.488
546	0.488
546	0.487
547	0.486
547	0.485
547	0.485
548	0.485
548	0.484
549	0.483
549	0.483
550	0.482
550	0.481
551	0.481
551	0.481
551	0.481
552	0.48
552	0.48
553	0.48
553	0.479
554	0.479
554	0.477
555	0.477
555	0.476
556	0.475
556	0.474
556	0.473
557	0.472
557	0.471
558	0.47
558	0.468
559	0.467
559	0.466
560	0.465
560	0.464
560	0.463
561	0.463
561	0.461
562	0.46
562	0.459
563	0.458
563	0.457
564	0.456
564	0.455
564	0.455
565	0.454
565	0.454
566	0.453
566	0.452
567	0.451
567	0.45
568	0.449
568	0.448
568	0.447
569	0.445
569	0.444
570	0.441
570	0.439
571	0.438
571	0.437
572	0.436
572	0.434
573	0.433
573	0.432
573	0.431
574	0.43
574	0.429
575	0.429
575	0.429
576	0.427
576	0.426
577	0.425
577	0.424
577	0.424
578	0.423
578	0.423
579	0.422
579	0.421
580	0.419
580	0.417
581	0.416
581	0.415
581	0.414
582	0.413
582	0.412
583	0.411
583	0.41
584	0.408
584	0.406
585	0.406
585	0.405
585	0.404
586	0.403
586	0.402
587	0.401
587	0.4
588	0.398
588	0.397
589	0.397
589	0.396
590	0.394
590	0.394
590	0.393
591	0.391
591	0.389
592	0.388
592	0.386
593	0.386
593	0.385
594	0.383
594	0.382
594	0.381
595	0.381
595	0.379
596	0.378
596	0.378
597	0.377
597	0.376
598	0.374
598	0.373
598	0.371
599	0.37
599	0.368
600	0.366
600	0.365
601	0.363
601	0.362
602	0.36
602	0.358
602	0.357
603	0.356
603	0.356
604	0.355
604	0.354
605	0.354
605	0.353
606	0.352
606	0.35
606	0.349
607	0.347
607	0.346
608	0.344
608	0.342
609	0.341
609	0.34
610	0.338
610	0.336
610	0.336
611	0.335
611	0.334
612	0.334
612	0.333
613	0.332
613	0.331
614	0.329
614	0.327
614	0.326
615	0.324
615	0.322
616	0.321
616	0.319
617	0.317
617	0.315
618	0.313
618	0.312
618	0.31
619	0.309
619	0.309
620	0.308
620	0.306
621	0.305
621	0.303
622	0.302
622	0.3
622	0.298
623	0.297
623	0.296
624	0.294
624	0.292
625	0.291
625	0.289
626	0.287
626	0.285
626	0.283
627	0.281
627	0.279
628	0.277
628	0.274
629	0.271
629	0.268
630	0.265
630	0.262
630	0.259
631	0.256
631	0.252
632	0.248
632	0.244
633	0.24
633	0.236
634	0.232
634	0.228
634	0.224
635	0.219
635	0.215
636	0.21
636	0.204
637	0.199
637	0.193
638	0.187
638	0.181
638	0.174
639	0.168
639	0.16
640	0.153
640	0.146
641	0.139
641	0.132
642	0.125
642	0.118
642	0.111
643	0.104
643	0.096
644	0.088
644	0.08
645	0.071
645	0.063
646	0.055
646	0.047
646	0.038
647	0.03
647	0.022
648	0.013
648	0.005
649	-0.004
649	-0.013
650	-0.021
650	-0.03
650	-0.039
651	-0.05
651	-0.064
652	-0.08
652	-0.097
653	-0.111
653	-0.124
653	-0.119
654	-0.095
654	-0.081
655	-0.083
655	-0.087
656	-0.092
656	-0.097
657	-0.1
657	-0.103
657	-0.108
658	-0.114
658	-0.143
659	-0.231
659	-0.335
660	-0.379
660	-0.405
661	-0.433
661	-0.463
661	-0.497
662	-0.529
662	-0.562
663	-0.602
663	-0.643
664	-0.688
664	-0.739
665	-0.791
665	-0.85
665	-0.906
666	-0.964
666	-1.027
667	-1.093
667	-1.16
668	-1.233
668	-1.307
669	-1.382
669	-1.458
669	-1.539
670	-1.617
670	-1.706
671	-1.949
671	-2.126
672	-2.31
672	-2.475
672	-2.589
673	-2.67
673	-2.742
674	-2.778
674	-2.795
675	-2.818
675	-2.951
676	-3.114
676	-3.065
676	-2.841
677	-2.636
677	-2.472
678	-2.294
678	-1.988
679	-1.744
679	-1.617
680	-1.524
680	-1.442
680	-1.373
681	-1.328
681	-1.269
682	-1.229
682	-1.191
683	-1.155
683	-1.135
684	-1.113
684	-1.093
684	-1.07
685	-1.045
685	-1.022
686	-0.996
686	-0.98
687	-0.953
687	-0.94
687	-0.919
688	-0.894
688	-0.872
689	-0.851
689	-0.838
690	-0.817
690	-0.804
691	-0.795
691	-0.799
691	-0.814
692	-0.806
692	-0.795
693	-0.789
693	-0.797
694	-0.792
694	-0.784
695	-0.789
695	-0.786
695	-0.771
696	-0.767
696	-0.745
697	-0.744
697	-0.759
698	-0.764
698	-0.753
698	-0.765
699	-0.766
699	-0.765
700	-0.756
700	-0.77
701	-0.767
701	-0.774
702	-0.773
702	-0.759
702	-0.75
703	-0.743
703	-0.736
704	-0.732
704	-0.73
705	-0.74
705	-0.733
705	-0.723
706	-0.723
706	-0.718
707	-0.723
707	-0.719
708	-0.718
708	-0.708
709	-0.712
709	-0.716
709	-0.708
710	-0.717
710	-0.726
711	-0.718
711	-0.721
712	-0.721
712	-0.733
713	-0.73
713	-0.738
713	-0.73
714	-0.726
714	-0.726
715	-0.716
715	-0.701
716	-0.707
716	-0.708
716	-0.7
717	-0.701
717	-0.705
718	-0.696
718	-0.695
719	-0.702
719	-0.702
720	-0.698
720	-0.707
720	-0.7
721	-0.688
721	-0.69
722	-0.678
722	-0.666
723	-0.664
723	-0.666
723	-0.651
724	-0.656
724	-0.661
725	-0.662
725	-0.672
726	-0.685
726	-0.689
727	-0.693
727	-0.708
727	-0.715
728	-0.716
728	-0.723
729	-0.722
729	-0.727
730	-0.732
730	-0.725
730	-0.714
731	-0.697
731	-0.711
732	-0.716
732	-0.717
733	-0.715
733	-0.72
734	-0.713
734	-0.711
734	-0.699
735	-0.697
735	-0.698
736	-0.708
736	-0.692
737	-0.684
737	-0.687
737	-0.695
738	-0.69
738	-0.687
739	-0.686
739	-0.699
740	-0.697
740	-0.696
741	-0.692
741	-0.692
741	-0.693
742	-0.691
742	-0.695
743	-0.704
743	-0.709
744	-0.705
744	-0.695
744	-0.696
745	-0.703
745	-0.696
746	-0.696
746	-0.695
747	-0.695
747	-0.681
748	-0.667
748	-0.673
748	-0.677
749	-0.675
749	-0.674
750	-0.663
750	-0.665
751	-0.67
751	-0.679
751	-0.68
752	-0.686
752	-0.697
753	-0.691
753	-0.686
754	-0.69
754	-0.687
754	-0.701
755	-0.717
755	-0.727
756	-0.716
756	-0.715
757	-0.714
757	-0.709
758	-0.712
758	-0.71
758	-0.713
759	-0.721
759	-0.706
760	-0.698
760	-0.692
761	-0.702
761	-0.7
761	-0.698
762	-0.705
762	-0.703
763	-0.711
763	-0.707
764	-0.704
764	-0.711
764	-0.715
765	-0.704
765	-0.693
766	-0.698
766	-0.707
767	-0.72
767	-0.717
768	-0.708
768	-0.719
768	-0.723
769	-0.739
769	-0.742
770	-0.746
770	-0.757
771	-0.757
771	-0.757
771	-0.759
772	-0.761
772	-0.762
773	-0.761
773	-0.758
774	-0.757
774	-0.759
775	-0.762
775	-0.758
775	-0.764
776	-0.765
776	-0.755
777	-0.765
777	-0.783
778	-0.782
778	-0.801
778	-0.787
779	-0.807
779	-0.816
780	-0.828
780	-0.828
781	-0.838
781	-0.834
781	-0.848
782	-0.849
782	-0.851
783	-0.836
783	-0.837
784	-0.818
784	-0.808
784	-0.818
785	-0.824
785	-0.809
786	-0.815
786	-0.793
787	-0.779
787	-0.78
788	-0.784
788	-0.793
788	-0.804
789	-0.802
789	-0.783
790	-0.764
790	-0.766
791	-0.765
791	-0.782
791	-0.788
792	-0.781
792	-0.757
793	-0.745
793	-0.721
794	-0.725
794	-0.718
794	-0.726
795	-0.721
795	-0.714
796	-0.7
796	-0.707
797	-0.703
797	-0.714
797	-0.723
798	-0.734
798	-0.73
799	-0.74
799	-0.726
800	-0.734
800	-0.728
801	-0.733
801	-0.72
801	-0.728
802	-0.737
802	-0.737
803	-0.738
803	-0.745
804	-0.74
804	-0.752
804	-0.739
805	-0.744
805	-0.732
806	-0.731
806	-0.717
807	-0.715
807	-0.698
807	-0.688
808	-0.68
808	-0.675
809	-0.661
809	-0.669
810	-0.667
810	-0.661
810	-0.659
811	-0.663
811	-0.654
812	-0.655
812	-0.66
813	-0.665
813	-0.661
813	-0.666
814	-0.668
814	-0.669
815	-0.671
815	-0.675
816	-0.671
816	-0.676
817	-0.683
817	-0.7
817	-0.715
818	-0.724
818	-0.726
819	-0.717
819	-0.718
820	-0.729
820	-0.725
820	-0.736
821	-0.733
821	-0.722
822	-0.687
822	-0.663
823	-0.661
823	-0.663
823	-0.661
824	-0.657
824	-0.657
825	-0.653
825	-0.634
826	-0.63
826	-0.637
826	-0.648
827	-0.643
827	-0.64
828	-0.62
828	-0.619
829	-0.61
829	-0.598
829	-0.586
830	-0.597
830	-0.594
831	-0.585
831	-0.575
832	-0.574
832	-0.565
832	-0.573
833	-0.57
833	-0.571
834	-0.57
834	-0.58
835	-0.565
835	-0.559
835	-0.555
836	-0.554
836	-0.55
837	-0.547
837	-0.537
838	-0.528
838	-0.516
839	-0.503
839	-0.491
839	-0.482
840	-0.471
840	-0.47
841	-0.457
841	-0.448
842	-0.444
842	-0.436
842	-0.43
843	-0.425
843	-0.42
844	-0.411
844	-0.403
845	-0.393
845	-0.382
845	-0.369
846	-0.36
846	-0.346
847	-0.334
847	-0.323
848	-0.312
848	-0.301
848	-0.286
849	-0.277
849	-0.267
850	-0.255
850	-0.249
851	-0.241
851	-0.229
851	-0.221
852	-0.207
852	-0.195
853	-0.187
853	-0.181
854	-0.17
854	-0.159
854	-0.148
855	-0.138
855	-0.132
856	-0.122
856	-0.114
857	-0.108
857	-0.1
857	-0.089
858	-0.08
858	-0.075
859	-0.067
859	-0.058
860	-0.049
860	-0.038
860	-0.03
861	-0.022
861	-0.015
862	-0.008
862	-0.002
863	0.004
863	0.012
863	0.017
864	0.021
864	0.026
865	0.03
865	0.034
866	0.038
866	0.041
866	0.045
867	0.048
867	0.051
868	0.054
868	0.058
869	0.061
869	0.063
869	0.065
870	0.068
870	0.07
871	0.072
871	0.074
872	0.075
872	0.076
872	0.077
873	0.077
873	0.078
874	0.078
874	0.077
875	0.076
875	0.075
875	0.074
876	0.073
876	0.072
877	0.071
877	0.069
878	0.067
878	0.065
878	0.063
879	0.062
879	0.06
880	0.06
880	0.059
881	0.059
881	0.059
881	0.059
882	0.058
882	0.058
883	0.057
883	0.056
884	0.055
884	0.055
884	0.054
885	0.053
885	0.052
886	0.052
886	0.051
887	0.05
887	0.05
887	0.05
888	0.05
888	0.05
889	0.051
889	0.051
890	0.051
890	0.051
890	0.051
891	0.051
891	0.051
892	0.051
892	0.051
893	0.051
893	0.051
893	0.05
894	0.05
894	0.049
895	0.049
895	0.048
895	0.048
896	0.047
896	0.046
897	0.045
897	0.044
898	0.043
898	0.042
898	0.042
899	0.043
899	0.043
900	0.043
900	0.044
901	0.044
901	0.045
901	0.046
902	0.047
902	0.048
903	0.048
903	0.048
904	0.049
904	0.05
904	0.05
905	0.051
905	0.052
906	0.052
906	0.052
907	0.052
907	0.051
907	0.051
908	0.051
908	0.05
909	0.05
909	0.049
910	0.049
910	0.048
910	0.048
911	0.048
911	0.049
912	0.049
912	0.05
913	0.05
913	0.051
913	0.052
914	0.053
914	0.054
915	0.054
915	0.055
916	0.056
916	0.056
916	0.056
917	0.056
917	0.057
918	0.057
918	0.056
918	0.056
919	0.056
919	0.055
920	0.055
920	0.056
921	0.056
921	0.056
921	0.056
922	0.056
922	0.056
923	0.056
923	0.055
924	0.055
924	0.055
924	0.054
925	0.053
925	0.052
926	0.051
926	0.05
927	0.049
927	0.048
927	0.048
928	0.047
928	0.046
929	0.045
929	0.045
930	0.044
930	0.043
930	0.043
931	0.043
931	0.042
932	0.042
932	0.041
933	0.04
933	0.039
933	0.037
934	0.036
934	0.035
935	0.034
935	0.033
935	0.032
936	0.031
936	0.03
937	0.029
937	0.029
938	0.029
938	0.029
938	0.03
939	0.031
939	0.031
940	0.032
940	0.033
941	0.034
941	0.034
941	0.035
942	0.036
942	0.037
943	0.037
943	0.036
944	0.036
944	0.036
944	0.035
945	0.035
945	0.033
946	0.033
946	0.031
946	0.03
947	0.03
947	0.029
948	0.029
948	0.03
949	0.03
949	0.031
949	0.031
950	0.032
950	0.032
951	0.033
951	0.034
952	0.035
952	0.036
952	0.037
953	0.038
953	0.039
954	0.039
954	0.04
955	0.041
955	0.042
955	0.042
956	0.043
956	0.043
957	0.043
957	0.043
957	0.043
958	0.044
958	0.044
959	0.044
959	0.044
960	0.044
960	0.044
960	0.044
961	0.044
961	0.045
962	0.045
962	0.045
963	0.045
963	0.045
963	0.045
964	0.045
964	0.045
965	0.045
965	0.045
966	0.045
966	0.045
966	0.045
967	0.045
967	0.044
968	0.044
968	0.043
968	0.043
969	0.042
969	0.042
970	0.041
970	0.041
971	0.042
971	0.042
971	0.042
972	0.042
972	0.042
973	0.042
973	0.042
974	0.041
974	0.041
974	0.041
975	0.04
975	0.04
976	0.039
976	0.038
976	0.038
977	0.037
977	0.037
978	0.037
978	0.037
979	0.037
979	0.036
979	0.036
980	0.036
980	0.036
981	0.036
981	0.036
982	0.035
982	0.035
982	0.034
983	0.034
983	0.034
984	0.034
984	0.034
984	0.035
985	0.035
985	0.035
986	0.036
986	0.035
987	0.035
987	0.035
987	0.035
988	0.034
988	0.034
989	0.033
989	0.032
990	0.031
990	0.03
990	0.029
991	0.029
991	0.029
992	0.029
992	0.028
992	0.028
993	0.028
993	0.028
994	0.028
994	0.028
995	0.028
995	0.028
995	0.027
996	0.027
996	0.026
997	0.026
997	0.026
997	0.026
998	0.026
998	0.026
999	0.027
999	0.027
1000	0.027
1000	0.027
1000	0.028
1001	0.028
1001	0.029
1002	0.029
1002	0.029
1003	0.029
1003	0.029
1003	0.029
1004	0.029
1004	0.028
1005	0.028
1005	0.027
1005	0.026
1006	0.025
1006	0.024
1007	0.023
1007	0.022
1008	0.021
1008	0.02
1008	0.02
1009	0.02
1009	0.019
1010	0.019
1010	0.019
1010	0.019
1011	0.019
1011	0.019
1012	0.018
1012	0.018
1013	0.017
1013	0.016
1013	0.015
1014	0.014
1014	0.013
1015	0.012
1015	0.012
1016	0.011
1016	0.01
1016	0.01
1017	0.009
1017	0.009
1018	0.008
1018	0.008
1018	0.007
1019	0.007
1019	0.006
1020	0.005
1020	0.005
1021	0.004
1021	0.003
1021	0.002
1022	0.001
1022	0.001
1023	0
1023	0
1023	-0
1024	-0
1024	-0.001
1025	-0
1025	-0
1026	0.001
1026	0.001
1026	0.002
1027	0.002
1027	0.002
1028	0.003
1028	0.003
1028	0.003
1029	0.003
1029	0.003
1030	0.002
1030	0.002
1031	0.001
1031	0.001
1031	0.001
1032	0
1032	0
1033	0
1033	0
1033	0.001
1034	0.001
1034	0.001
1035	0.001
1035	0.001
1036	0.001
1036	0.001
1036	0.001
1037	0.001
1037	0.001
1038	0.001
1038	0.001
1039	0.001
1039	0.002
1039	0.002
1040	0.002
1040	0.003
1041	0.003
1041	0.003
1041	0.003
1042	0.003
1042	0.003
1043	0.002
1043	0.002
1044	0.001
1044	0.001
1044	0
1045	-0.001
1045	-0.001
1046	-0.002
1046	-0.002
1046	-0.002
1047	-0.002
1047	-0.002
1048	-0.002
1048	-0.002
1049	-0.002
1049	-0.002
1049	-0.001
1050	-0.001
1050	-0
1051	-0.001
1051	-0
1051	0
1052	0.001
1052	0.001
1053	0.001
1053	0.001
1053	0.001
1054	0.001
1054	0.001
1055	0.001
1055	0.001
1056	0
1056	-0.001
1056	-0.002
1057	-0.003
1057	-0.003
1058	-0.004
1058	-0.005
1058	-0.005
1059	-0.006
1059	-0.007
1060	-0.007
1060	-0.007
1061	-0.007
1061	-0.008
1061	-0.008
1062	-0.008
1062	-0.008
1063	-0.008
1063	-0.008
1063	-0.007
1064	-0.007
1064	-0.007
1065	-0.007
1065	-0.007
1066	-0.007
1066	-0.007
1066	-0.007
1067	-0.007
1067	-0.008
1068	-0.009
1068	-0.009
1068	-0.01
1069	-0.01
1069	-0.01
1070	-0.01
1070	-0.01
1071	-0.011
1071	-0.01
1071	-0.011
1072	-0.011
1072	-0.011
1073	-0.012
1073	-0.012
1073	-0.012
1074	-0.012
1074	-0.012
1075	-0.013
1075	-0.013
1076	-0.014
1076	-0.013
1076	-0.014
1077	-0.015
1077	-0.015
1078	-0.016
1078	-0.017
1078	-0.018
1079	-0.019
1079	-0.019
1080	-0.02
1080	-0.02
1080	-0.021
1081	-0.021
1081	-0.022
1082	-0.022
1082	-0.023
1083	-0.024
1083	-0.024
1083	-0.025
1084	-0.026
1084	-0.027
1085	-0.028
1085	-0.028
1085	-0.029
1086	-0.029
1086	-0.03
1087	-0.03
1087	-0.03
1088	-0.03
1088	-0.031
1088	-0.031
1089	-0.032
1089	-0.032
1090	-0.034
1090	-0.034
1090	-0.036
1091	-0.037
1091	-0.037
1092	-0.038
1092	-0.038
1092	-0.039
1093	-0.039
1093	-0.039
1094	-0.039
1094	-0.039
1095	-0.04
1095	-0.041
1095	-0.041
1096	-0.042
1096	-0.042
1097	-0.043
1097	-0.043
1097	-0.044
1098	-0.045
1098	-0.047
1099	-0.047
1099	-0.047
1100	-0.048
1100	-0.05
1100	-0.052
1101	-0.055
1101	-0.058
1102	-0.06
1102	-0.063
1102	-0.064
1103	-0.067
1103	-0.069
1104	-0.072
1104	-0.074
1104	-0.076
1105	-0.077
1105	-0.079
1106	-0.083
1106	-0.084
1107	-0.088
1107	-0.092
1107	-0.096
1108	-0.098
1108	-0.1
1109	-0.103
1109	-0.108
1109	-0.111
1110	-0.113
1110	-0.114
1111	-0.12
1111	-0.119
