Data from 17C_3.2A_35min_2sec_int_Absorbance__495__02057.txt Node

Date: Mon Jun 19 17:51:45 CEST 2023
User: Marek
Spectrometer: MAYP115816
Trigger mode: 0
Integration Time (sec): 2.500000E-1
Scans to average: 10
Electric dark correction enabled: true
Nonlinearity correction enabled: true
Boxcar width: 5
XAxis mode: Wavelengths
Number of Pixels in Spectrum: 2068
>>>>>Begin Spectral Data<<<<<
199	-0.739
199	-0.749
200	-0.652
200	-0.598
201	-0.562
201	-0.544
202	-0.529
202	-0.515
203	-0.506
203	-0.501
204	-0.489
204	-0.474
205	-0.451
205	-0.446
205	-0.444
206	-0.447
206	-0.45
207	-0.44
207	-0.444
208	-0.446
208	-0.446
209	-0.44
209	-0.442
210	-0.447
210	-0.453
211	-0.455
211	-0.456
212	-0.459
212	-0.467
213	-0.464
213	-0.466
213	-0.47
214	-0.465
214	-0.463
215	-0.462
215	-0.468
216	-0.471
216	-0.478
217	-0.473
217	-0.477
218	-0.481
218	-0.481
219	-0.483
219	-0.493
220	-0.499
220	-0.508
221	-0.506
221	-0.508
221	-0.501
222	-0.499
222	-0.5
223	-0.502
223	-0.506
224	-0.51
224	-0.51
225	-0.505
225	-0.499
226	-0.502
226	-0.505
227	-0.51
227	-0.518
228	-0.519
228	-0.521
229	-0.523
229	-0.516
229	-0.511
230	-0.516
230	-0.519
231	-0.514
231	-0.504
232	-0.5
232	-0.5
233	-0.494
233	-0.491
234	-0.489
234	-0.486
235	-0.489
235	-0.495
236	-0.494
236	-0.496
236	-0.504
237	-0.511
237	-0.51
238	-0.519
238	-0.519
239	-0.52
239	-0.529
240	-0.529
240	-0.525
241	-0.531
241	-0.531
242	-0.534
242	-0.53
243	-0.526
243	-0.526
243	-0.534
244	-0.534
244	-0.534
245	-0.547
245	-0.548
246	-0.553
246	-0.557
247	-0.559
247	-0.563
248	-0.57
248	-0.568
249	-0.57
249	-0.58
250	-0.578
250	-0.575
250	-0.573
251	-0.57
251	-0.57
252	-0.574
252	-0.564
253	-0.57
253	-0.58
254	-0.579
254	-0.574
255	-0.582
255	-0.575
256	-0.574
256	-0.586
257	-0.582
257	-0.578
258	-0.593
258	-0.59
258	-0.586
259	-0.583
259	-0.592
260	-0.593
260	-0.599
261	-0.609
261	-0.601
262	-0.598
262	-0.599
263	-0.588
263	-0.58
264	-0.581
264	-0.589
265	-0.584
265	-0.589
265	-0.593
266	-0.593
266	-0.591
267	-0.606
267	-0.615
268	-0.631
268	-0.644
269	-0.641
269	-0.635
270	-0.641
270	-0.644
271	-0.64
271	-0.645
272	-0.647
272	-0.639
272	-0.633
273	-0.63
273	-0.638
274	-0.643
274	-0.647
275	-0.649
275	-0.644
276	-0.652
276	-0.643
277	-0.648
277	-0.668
278	-0.677
278	-0.671
278	-0.664
279	-0.666
279	-0.676
280	-0.671
280	-0.67
281	-0.662
281	-0.67
282	-0.662
282	-0.664
283	-0.653
283	-0.657
284	-0.651
284	-0.641
285	-0.637
285	-0.637
285	-0.634
286	-0.644
286	-0.64
287	-0.637
287	-0.619
288	-0.613
288	-0.623
289	-0.636
289	-0.644
290	-0.634
290	-0.633
291	-0.63
291	-0.624
292	-0.626
292	-0.634
292	-0.638
293	-0.641
293	-0.629
294	-0.617
294	-0.609
295	-0.607
295	-0.602
296	-0.599
296	-0.596
297	-0.59
297	-0.572
298	-0.565
298	-0.573
298	-0.562
299	-0.556
299	-0.557
300	-0.55
300	-0.546
301	-0.542
301	-0.541
302	-0.547
302	-0.556
303	-0.544
303	-0.531
304	-0.533
304	-0.532
305	-0.534
305	-0.537
305	-0.535
306	-0.519
306	-0.514
307	-0.501
307	-0.502
308	-0.516
308	-0.515
309	-0.516
309	-0.507
310	-0.494
310	-0.489
311	-0.482
311	-0.491
311	-0.486
312	-0.482
312	-0.481
313	-0.467
313	-0.467
314	-0.466
314	-0.468
315	-0.47
315	-0.467
316	-0.462
316	-0.453
317	-0.446
317	-0.444
318	-0.433
318	-0.431
318	-0.425
319	-0.414
319	-0.41
320	-0.404
320	-0.407
321	-0.413
321	-0.413
322	-0.408
322	-0.403
323	-0.401
323	-0.397
324	-0.392
324	-0.383
324	-0.374
325	-0.364
325	-0.346
326	-0.332
326	-0.315
327	-0.3
327	-0.28
328	-0.255
328	-0.235
329	-0.21
329	-0.188
330	-0.162
330	-0.129
330	-0.104
331	-0.076
331	-0.049
332	-0.024
332	-0.002
333	0.02
333	0.044
334	0.062
334	0.078
335	0.094
335	0.107
336	0.12
336	0.133
336	0.142
337	0.154
337	0.162
338	0.17
338	0.175
339	0.182
339	0.188
340	0.193
340	0.197
341	0.201
341	0.204
342	0.208
342	0.21
342	0.214
343	0.215
343	0.219
344	0.22
344	0.221
345	0.223
345	0.223
346	0.224
346	0.225
347	0.226
347	0.226
348	0.226
348	0.227
348	0.227
349	0.227
349	0.228
350	0.228
350	0.228
351	0.228
351	0.229
352	0.229
352	0.229
353	0.229
353	0.228
354	0.228
354	0.228
354	0.228
355	0.228
355	0.227
356	0.227
356	0.227
357	0.227
357	0.227
358	0.226
358	0.226
359	0.226
359	0.226
360	0.226
360	0.226
360	0.225
361	0.225
361	0.225
362	0.225
362	0.225
363	0.225
363	0.225
364	0.225
364	0.225
365	0.225
365	0.225
366	0.225
366	0.225
366	0.225
367	0.225
367	0.225
368	0.225
368	0.225
369	0.225
369	0.225
370	0.224
370	0.224
371	0.224
371	0.224
372	0.224
372	0.224
372	0.224
373	0.224
373	0.224
374	0.224
374	0.224
375	0.224
375	0.224
376	0.224
376	0.224
377	0.224
377	0.224
378	0.224
378	0.224
378	0.224
379	0.224
379	0.223
380	0.223
380	0.223
381	0.223
381	0.223
382	0.222
382	0.222
383	0.222
383	0.222
383	0.222
384	0.222
384	0.222
385	0.222
385	0.222
386	0.222
386	0.222
387	0.222
387	0.222
388	0.222
388	0.221
389	0.221
389	0.222
389	0.222
390	0.222
390	0.222
391	0.222
391	0.222
392	0.222
392	0.222
393	0.222
393	0.221
394	0.221
394	0.221
394	0.221
395	0.22
395	0.22
396	0.22
396	0.22
397	0.22
397	0.22
398	0.22
398	0.22
399	0.22
399	0.22
400	0.22
400	0.22
400	0.219
401	0.219
401	0.219
402	0.219
402	0.219
403	0.219
403	0.218
404	0.218
404	0.218
405	0.218
405	0.218
405	0.218
406	0.218
406	0.218
407	0.218
407	0.217
408	0.217
408	0.217
409	0.217
409	0.217
410	0.217
410	0.218
411	0.218
411	0.218
411	0.218
412	0.218
412	0.218
413	0.218
413	0.218
414	0.217
414	0.217
415	0.217
415	0.217
416	0.217
416	0.217
416	0.216
417	0.216
417	0.216
418	0.216
418	0.216
419	0.216
419	0.216
420	0.216
420	0.217
421	0.217
421	0.217
421	0.217
422	0.217
422	0.217
423	0.217
423	0.216
424	0.216
424	0.216
425	0.215
425	0.215
426	0.215
426	0.214
427	0.214
427	0.214
427	0.214
428	0.214
428	0.214
429	0.214
429	0.214
430	0.214
430	0.214
431	0.214
431	0.214
432	0.214
432	0.213
432	0.213
433	0.213
433	0.213
434	0.213
434	0.213
435	0.213
435	0.213
436	0.212
436	0.212
437	0.212
437	0.212
437	0.212
438	0.212
438	0.212
439	0.212
439	0.212
440	0.212
440	0.212
441	0.211
441	0.211
442	0.211
442	0.211
442	0.211
443	0.211
443	0.211
444	0.211
444	0.211
445	0.211
445	0.211
446	0.211
446	0.211
447	0.211
447	0.212
447	0.212
448	0.212
448	0.212
449	0.212
449	0.212
450	0.212
450	0.212
451	0.212
451	0.212
452	0.212
452	0.212
452	0.211
453	0.211
453	0.211
454	0.211
454	0.21
455	0.21
455	0.21
456	0.21
456	0.21
457	0.21
457	0.21
458	0.21
458	0.21
458	0.21
459	0.21
459	0.21
460	0.21
460	0.21
461	0.21
461	0.21
462	0.21
462	0.21
463	0.21
463	0.21
463	0.21
464	0.21
464	0.21
465	0.21
465	0.21
466	0.21
466	0.211
467	0.211
467	0.211
467	0.211
468	0.211
468	0.211
469	0.211
469	0.211
470	0.212
470	0.212
471	0.212
471	0.212
472	0.212
472	0.212
472	0.212
473	0.212
473	0.213
474	0.213
474	0.213
475	0.213
475	0.213
476	0.214
476	0.214
477	0.214
477	0.214
477	0.214
478	0.214
478	0.214
479	0.215
479	0.215
480	0.215
480	0.215
481	0.215
481	0.216
482	0.216
482	0.216
482	0.217
483	0.217
483	0.218
484	0.218
484	0.217
485	0.218
485	0.218
486	0.219
486	0.219
487	0.22
487	0.22
487	0.221
488	0.221
488	0.222
489	0.223
489	0.224
490	0.225
490	0.226
491	0.227
491	0.227
492	0.228
492	0.228
492	0.229
493	0.23
493	0.231
494	0.232
494	0.232
495	0.233
495	0.233
496	0.234
496	0.235
496	0.236
497	0.237
497	0.238
498	0.239
498	0.24
499	0.241
499	0.242
500	0.243
500	0.244
501	0.245
501	0.246
501	0.247
502	0.247
502	0.248
503	0.249
503	0.25
504	0.251
504	0.253
505	0.254
505	0.255
506	0.256
506	0.257
506	0.258
507	0.259
507	0.26
508	0.261
508	0.262
509	0.264
509	0.265
510	0.266
510	0.267
511	0.268
511	0.269
511	0.27
512	0.272
512	0.273
513	0.274
513	0.275
514	0.276
514	0.277
515	0.278
515	0.279
515	0.28
516	0.281
516	0.282
517	0.284
517	0.285
518	0.285
518	0.287
519	0.288
519	0.289
520	0.29
520	0.291
520	0.293
521	0.294
521	0.295
522	0.296
522	0.297
523	0.299
523	0.299
524	0.3
524	0.301
524	0.301
525	0.301
525	0.302
526	0.303
526	0.303
527	0.304
527	0.305
528	0.305
528	0.306
529	0.307
529	0.308
529	0.309
530	0.311
530	0.311
531	0.312
531	0.312
532	0.313
532	0.314
533	0.314
533	0.314
533	0.315
534	0.315
534	0.315
535	0.315
535	0.315
536	0.315
536	0.314
537	0.314
537	0.315
538	0.315
538	0.315
538	0.316
539	0.316
539	0.317
540	0.317
540	0.317
541	0.317
541	0.318
542	0.318
542	0.318
542	0.318
543	0.318
543	0.317
544	0.317
544	0.317
545	0.317
545	0.317
546	0.318
546	0.317
547	0.317
547	0.317
547	0.317
548	0.317
548	0.317
549	0.317
549	0.316
550	0.316
550	0.316
551	0.316
551	0.317
551	0.318
552	0.319
552	0.319
553	0.319
553	0.32
554	0.32
554	0.319
555	0.319
555	0.319
556	0.319
556	0.319
556	0.319
557	0.318
557	0.318
558	0.318
558	0.317
559	0.317
559	0.317
560	0.317
560	0.317
560	0.317
561	0.316
561	0.316
562	0.315
562	0.315
563	0.314
563	0.314
564	0.314
564	0.314
564	0.314
565	0.314
565	0.315
566	0.315
566	0.315
567	0.315
567	0.315
568	0.315
568	0.314
568	0.314
569	0.314
569	0.313
570	0.312
570	0.311
571	0.311
571	0.31
572	0.31
572	0.309
573	0.309
573	0.309
573	0.308
574	0.308
574	0.308
575	0.308
575	0.309
576	0.309
576	0.308
577	0.308
577	0.308
577	0.309
578	0.309
578	0.31
579	0.311
579	0.311
580	0.31
580	0.309
581	0.308
581	0.309
581	0.309
582	0.309
582	0.309
583	0.309
583	0.309
584	0.307
584	0.307
585	0.308
585	0.308
585	0.308
586	0.309
586	0.309
587	0.308
587	0.308
588	0.308
588	0.308
589	0.308
589	0.308
590	0.308
590	0.308
590	0.309
591	0.309
591	0.309
592	0.308
592	0.307
593	0.308
593	0.308
594	0.307
594	0.307
594	0.307
595	0.308
595	0.307
596	0.307
596	0.309
597	0.31
597	0.31
598	0.309
598	0.309
598	0.309
599	0.309
599	0.308
600	0.307
600	0.306
601	0.306
601	0.305
602	0.304
602	0.304
602	0.304
603	0.305
603	0.305
604	0.306
604	0.306
605	0.307
605	0.307
606	0.307
606	0.306
606	0.306
607	0.306
607	0.306
608	0.305
608	0.304
609	0.304
609	0.304
610	0.303
610	0.303
610	0.303
611	0.304
611	0.304
612	0.305
612	0.305
613	0.306
613	0.306
614	0.304
614	0.303
614	0.303
615	0.302
615	0.301
616	0.301
616	0.3
617	0.299
617	0.298
618	0.297
618	0.296
618	0.296
619	0.296
619	0.297
620	0.297
620	0.297
621	0.296
621	0.296
622	0.295
622	0.295
622	0.294
623	0.294
623	0.294
624	0.293
624	0.292
625	0.292
625	0.291
626	0.291
626	0.29
626	0.289
627	0.289
627	0.287
628	0.286
628	0.285
629	0.284
629	0.282
630	0.28
630	0.278
630	0.277
631	0.275
631	0.272
632	0.27
632	0.267
633	0.265
633	0.262
634	0.259
634	0.257
634	0.254
635	0.251
635	0.248
636	0.244
636	0.241
637	0.237
637	0.233
638	0.229
638	0.224
638	0.22
639	0.215
639	0.209
640	0.204
640	0.199
641	0.193
641	0.188
642	0.183
642	0.178
642	0.172
643	0.167
643	0.16
644	0.154
644	0.147
645	0.141
645	0.134
646	0.128
646	0.121
646	0.113
647	0.106
647	0.098
648	0.091
648	0.083
649	0.075
649	0.067
650	0.059
650	0.05
650	0.041
651	0.03
651	0.017
652	0.002
652	-0.014
653	-0.028
653	-0.041
653	-0.038
654	-0.017
654	-0.006
655	-0.01
655	-0.016
656	-0.021
656	-0.028
657	-0.033
657	-0.037
657	-0.044
658	-0.05
658	-0.08
659	-0.167
659	-0.268
660	-0.314
660	-0.341
661	-0.37
661	-0.401
661	-0.434
662	-0.467
662	-0.501
663	-0.539
663	-0.58
664	-0.624
664	-0.676
665	-0.726
665	-0.784
665	-0.838
666	-0.895
666	-0.956
667	-1.02
667	-1.085
668	-1.157
668	-1.23
669	-1.302
669	-1.374
669	-1.449
670	-1.511
670	-1.524
671	-1.594
671	-1.898
672	-2.152
672	-2.356
672	-2.493
673	-2.59
673	-2.674
674	-2.733
674	-2.755
675	-2.781
675	-2.924
676	-3.13
676	-3.091
676	-2.871
677	-2.674
677	-2.521
678	-2.366
678	-2.121
679	-1.785
679	-1.627
680	-1.526
680	-1.44
680	-1.365
681	-1.317
681	-1.256
682	-1.216
682	-1.178
683	-1.142
683	-1.124
684	-1.102
684	-1.082
684	-1.058
685	-1.033
685	-1.01
686	-0.984
686	-0.968
687	-0.942
687	-0.931
687	-0.91
688	-0.883
688	-0.862
689	-0.842
689	-0.829
690	-0.808
690	-0.796
691	-0.79
691	-0.796
691	-0.81
692	-0.801
692	-0.793
693	-0.789
693	-0.795
694	-0.789
694	-0.783
695	-0.79
695	-0.786
695	-0.771
696	-0.766
696	-0.746
697	-0.745
697	-0.761
698	-0.762
698	-0.752
698	-0.766
699	-0.767
699	-0.764
700	-0.756
700	-0.769
701	-0.768
701	-0.771
702	-0.772
702	-0.76
702	-0.753
703	-0.746
703	-0.736
704	-0.734
704	-0.733
705	-0.746
705	-0.739
705	-0.727
706	-0.73
706	-0.727
707	-0.732
707	-0.727
708	-0.727
708	-0.721
709	-0.722
709	-0.725
709	-0.715
710	-0.724
710	-0.733
711	-0.724
711	-0.723
712	-0.723
712	-0.736
713	-0.734
713	-0.74
713	-0.733
714	-0.73
714	-0.73
715	-0.72
715	-0.707
716	-0.713
716	-0.716
716	-0.705
717	-0.705
717	-0.706
718	-0.697
718	-0.698
719	-0.703
719	-0.705
720	-0.701
720	-0.71
720	-0.702
721	-0.692
721	-0.694
722	-0.682
722	-0.671
723	-0.668
723	-0.672
723	-0.658
724	-0.661
724	-0.665
725	-0.666
725	-0.677
726	-0.688
726	-0.694
727	-0.699
727	-0.715
727	-0.723
728	-0.723
728	-0.73
729	-0.73
729	-0.734
730	-0.74
730	-0.731
730	-0.722
731	-0.706
731	-0.717
732	-0.725
732	-0.723
733	-0.722
733	-0.727
734	-0.721
734	-0.723
734	-0.708
735	-0.705
735	-0.705
736	-0.716
736	-0.701
737	-0.69
737	-0.693
737	-0.703
738	-0.699
738	-0.7
739	-0.696
739	-0.709
740	-0.711
740	-0.711
741	-0.704
741	-0.704
741	-0.706
742	-0.703
742	-0.702
743	-0.71
743	-0.714
744	-0.712
744	-0.702
744	-0.703
745	-0.709
745	-0.7
746	-0.699
746	-0.698
747	-0.7
747	-0.69
748	-0.678
748	-0.682
748	-0.683
749	-0.681
749	-0.682
750	-0.67
750	-0.674
751	-0.68
751	-0.69
751	-0.69
752	-0.694
752	-0.702
753	-0.698
753	-0.694
754	-0.698
754	-0.691
754	-0.705
755	-0.721
755	-0.732
756	-0.719
756	-0.719
757	-0.717
757	-0.711
758	-0.714
758	-0.712
758	-0.717
759	-0.724
759	-0.706
760	-0.701
760	-0.695
761	-0.705
761	-0.701
761	-0.7
762	-0.708
762	-0.708
763	-0.717
763	-0.714
764	-0.713
764	-0.724
764	-0.728
765	-0.719
765	-0.706
766	-0.712
766	-0.719
767	-0.733
767	-0.725
768	-0.718
768	-0.724
768	-0.729
769	-0.747
769	-0.745
770	-0.751
770	-0.765
771	-0.761
771	-0.764
771	-0.766
772	-0.77
772	-0.768
773	-0.769
773	-0.763
774	-0.76
774	-0.763
775	-0.765
775	-0.76
775	-0.769
776	-0.766
776	-0.754
777	-0.763
777	-0.782
778	-0.779
778	-0.799
778	-0.784
779	-0.807
779	-0.817
780	-0.831
780	-0.829
781	-0.845
781	-0.845
781	-0.859
782	-0.862
782	-0.864
783	-0.85
783	-0.85
784	-0.829
784	-0.817
784	-0.825
785	-0.833
785	-0.818
786	-0.819
786	-0.799
787	-0.784
787	-0.786
788	-0.79
788	-0.8
788	-0.811
789	-0.814
789	-0.795
790	-0.775
790	-0.774
791	-0.774
791	-0.792
791	-0.797
792	-0.791
792	-0.766
793	-0.755
793	-0.731
794	-0.735
794	-0.728
794	-0.738
795	-0.735
795	-0.728
796	-0.71
796	-0.716
797	-0.709
797	-0.724
797	-0.732
798	-0.744
798	-0.739
799	-0.75
799	-0.733
800	-0.741
800	-0.735
801	-0.741
801	-0.726
801	-0.738
802	-0.744
802	-0.744
803	-0.747
803	-0.754
804	-0.747
804	-0.76
804	-0.746
805	-0.751
805	-0.741
806	-0.745
806	-0.731
807	-0.729
807	-0.713
807	-0.699
808	-0.69
808	-0.684
809	-0.668
809	-0.678
810	-0.675
810	-0.667
810	-0.664
811	-0.669
811	-0.659
812	-0.659
812	-0.664
813	-0.668
813	-0.665
813	-0.671
814	-0.673
814	-0.676
815	-0.68
815	-0.683
816	-0.674
816	-0.679
817	-0.687
817	-0.705
817	-0.719
818	-0.727
818	-0.727
819	-0.721
819	-0.72
820	-0.731
820	-0.727
820	-0.741
821	-0.741
821	-0.728
822	-0.695
822	-0.671
823	-0.668
823	-0.672
823	-0.666
824	-0.663
824	-0.664
825	-0.657
825	-0.637
826	-0.632
826	-0.64
826	-0.651
827	-0.647
827	-0.643
828	-0.622
828	-0.623
829	-0.613
829	-0.599
829	-0.591
830	-0.599
830	-0.595
831	-0.587
831	-0.574
832	-0.573
832	-0.563
832	-0.573
833	-0.568
833	-0.57
834	-0.567
834	-0.573
835	-0.562
835	-0.556
835	-0.553
836	-0.551
836	-0.546
837	-0.545
837	-0.534
838	-0.525
838	-0.511
839	-0.497
839	-0.487
839	-0.478
840	-0.466
840	-0.461
841	-0.45
841	-0.442
842	-0.436
842	-0.426
842	-0.421
843	-0.416
843	-0.411
844	-0.4
844	-0.391
845	-0.385
845	-0.374
845	-0.358
846	-0.348
846	-0.332
847	-0.32
847	-0.309
848	-0.296
848	-0.283
848	-0.268
849	-0.257
849	-0.243
850	-0.231
850	-0.225
851	-0.216
851	-0.206
851	-0.198
852	-0.18
852	-0.166
853	-0.159
853	-0.153
854	-0.14
854	-0.128
854	-0.117
855	-0.103
855	-0.095
856	-0.084
856	-0.075
857	-0.07
857	-0.062
857	-0.05
858	-0.038
858	-0.033
859	-0.025
859	-0.014
860	-0.006
860	0.008
860	0.016
861	0.025
861	0.034
862	0.042
862	0.05
863	0.057
863	0.067
863	0.073
864	0.078
864	0.085
865	0.09
865	0.095
866	0.1
866	0.104
866	0.108
867	0.112
867	0.115
868	0.119
868	0.123
869	0.126
869	0.128
869	0.131
870	0.133
870	0.136
871	0.138
871	0.14
872	0.141
872	0.141
872	0.142
873	0.143
873	0.143
874	0.142
874	0.142
875	0.141
875	0.14
875	0.139
876	0.138
876	0.136
877	0.135
877	0.133
878	0.132
878	0.13
878	0.128
879	0.127
879	0.125
880	0.125
880	0.124
881	0.124
881	0.124
881	0.124
882	0.123
882	0.122
883	0.121
883	0.12
884	0.119
884	0.118
884	0.117
885	0.116
885	0.115
886	0.115
886	0.114
887	0.113
887	0.113
887	0.112
888	0.113
888	0.112
889	0.113
889	0.113
890	0.113
890	0.113
890	0.113
891	0.113
891	0.112
892	0.113
892	0.113
893	0.112
893	0.112
893	0.112
894	0.112
894	0.111
895	0.111
895	0.111
895	0.111
896	0.11
896	0.109
897	0.108
897	0.107
898	0.106
898	0.105
898	0.105
899	0.105
899	0.105
900	0.105
900	0.106
901	0.106
901	0.107
901	0.108
902	0.109
902	0.11
903	0.11
903	0.111
904	0.111
904	0.112
904	0.113
905	0.113
905	0.114
906	0.114
906	0.114
907	0.114
907	0.114
907	0.113
908	0.113
908	0.112
909	0.111
909	0.111
910	0.11
910	0.11
910	0.109
911	0.109
911	0.11
912	0.11
912	0.11
913	0.111
913	0.112
913	0.112
914	0.113
914	0.114
915	0.114
915	0.115
916	0.115
916	0.115
916	0.116
917	0.116
917	0.116
918	0.116
918	0.116
918	0.115
919	0.115
919	0.115
920	0.115
920	0.115
921	0.115
921	0.114
921	0.115
922	0.115
922	0.114
923	0.114
923	0.114
924	0.114
924	0.114
924	0.113
925	0.112
925	0.111
926	0.11
926	0.109
927	0.108
927	0.107
927	0.107
928	0.106
928	0.105
929	0.105
929	0.104
930	0.104
930	0.103
930	0.102
931	0.102
931	0.101
932	0.101
932	0.1
933	0.099
933	0.098
933	0.096
934	0.095
934	0.094
935	0.093
935	0.091
935	0.09
936	0.089
936	0.088
937	0.087
937	0.087
938	0.087
938	0.087
938	0.088
939	0.088
939	0.089
940	0.09
940	0.09
941	0.091
941	0.091
941	0.092
942	0.093
942	0.093
943	0.093
943	0.092
944	0.092
944	0.091
944	0.09
945	0.09
945	0.089
946	0.088
946	0.086
946	0.085
947	0.085
947	0.084
948	0.084
948	0.085
949	0.084
949	0.085
949	0.086
950	0.086
950	0.086
951	0.088
951	0.088
952	0.089
952	0.09
952	0.09
953	0.091
953	0.092
954	0.092
954	0.092
955	0.093
955	0.095
955	0.095
956	0.096
956	0.097
957	0.097
957	0.098
957	0.098
958	0.098
958	0.099
959	0.099
959	0.099
960	0.099
960	0.099
960	0.099
961	0.099
961	0.099
962	0.099
962	0.099
963	0.099
963	0.099
963	0.099
964	0.099
964	0.099
965	0.1
965	0.099
966	0.099
966	0.099
966	0.098
967	0.098
967	0.097
968	0.097
968	0.096
968	0.095
969	0.095
969	0.094
970	0.094
970	0.093
971	0.094
971	0.094
971	0.094
972	0.094
972	0.094
973	0.094
973	0.094
974	0.094
974	0.094
974	0.094
975	0.094
975	0.093
976	0.092
976	0.092
976	0.091
977	0.091
977	0.091
978	0.091
978	0.091
979	0.091
979	0.09
979	0.09
980	0.089
980	0.089
981	0.089
981	0.089
982	0.089
982	0.088
982	0.088
983	0.087
983	0.087
984	0.087
984	0.088
984	0.088
985	0.088
985	0.088
986	0.088
986	0.088
987	0.088
987	0.088
987	0.087
988	0.087
988	0.086
989	0.085
989	0.084
990	0.083
990	0.082
990	0.081
991	0.081
991	0.08
992	0.08
992	0.08
992	0.08
993	0.079
993	0.079
994	0.079
994	0.079
995	0.079
995	0.079
995	0.078
996	0.078
996	0.077
997	0.077
997	0.077
997	0.076
998	0.076
998	0.076
999	0.077
999	0.077
1000	0.077
1000	0.077
1000	0.078
1001	0.078
1001	0.079
1002	0.079
1002	0.08
1003	0.08
1003	0.08
1003	0.08
1004	0.079
1004	0.079
1005	0.078
1005	0.077
1005	0.076
1006	0.075
1006	0.074
1007	0.073
1007	0.072
1008	0.071
1008	0.071
1008	0.07
1009	0.07
1009	0.07
1010	0.07
1010	0.07
1010	0.07
1011	0.07
1011	0.069
1012	0.069
1012	0.068
1013	0.067
1013	0.066
1013	0.065
1014	0.064
1014	0.063
1015	0.062
1015	0.062
1016	0.061
1016	0.06
1016	0.059
1017	0.058
1017	0.058
1018	0.057
1018	0.056
1018	0.056
1019	0.055
1019	0.054
1020	0.054
1020	0.053
1021	0.053
1021	0.052
1021	0.051
1022	0.05
1022	0.05
1023	0.049
1023	0.049
1023	0.048
1024	0.048
1024	0.048
1025	0.048
1025	0.048
1026	0.048
1026	0.049
1026	0.049
1027	0.049
1027	0.05
1028	0.05
1028	0.05
1028	0.05
1029	0.05
1029	0.05
1030	0.049
1030	0.049
1031	0.048
1031	0.048
1031	0.048
1032	0.047
1032	0.047
1033	0.047
1033	0.047
1033	0.047
1034	0.047
1034	0.048
1035	0.048
1035	0.048
1036	0.048
1036	0.048
1036	0.048
1037	0.047
1037	0.047
1038	0.047
1038	0.047
1039	0.048
1039	0.048
1039	0.048
1040	0.049
1040	0.049
1041	0.05
1041	0.05
1041	0.05
1042	0.05
1042	0.05
1043	0.049
1043	0.049
1044	0.048
1044	0.048
1044	0.047
1045	0.046
1045	0.045
1046	0.044
1046	0.044
1046	0.044
1047	0.044
1047	0.044
1048	0.044
1048	0.044
1049	0.045
1049	0.045
1049	0.045
1050	0.046
1050	0.046
1051	0.046
1051	0.046
1051	0.047
1052	0.047
1052	0.047
1053	0.047
1053	0.047
1053	0.047
1054	0.047
1054	0.047
1055	0.046
1055	0.046
1056	0.045
1056	0.045
1056	0.043
1057	0.043
1057	0.042
1058	0.042
1058	0.041
1058	0.041
1059	0.04
1059	0.039
1060	0.038
1060	0.038
1061	0.038
1061	0.038
1061	0.038
1062	0.038
1062	0.038
1063	0.037
1063	0.037
1063	0.038
1064	0.038
1064	0.038
1065	0.038
1065	0.038
1066	0.038
1066	0.038
1066	0.037
1067	0.037
1067	0.037
1068	0.036
1068	0.036
1068	0.035
1069	0.035
1069	0.034
1070	0.033
1070	0.034
1071	0.033
1071	0.033
1071	0.032
1072	0.032
1072	0.031
1073	0.031
1073	0.031
1073	0.031
1074	0.032
1074	0.032
1075	0.031
1075	0.031
1076	0.03
1076	0.031
1076	0.03
1077	0.03
1077	0.029
1078	0.028
1078	0.027
1078	0.026
1079	0.025
1079	0.025
1080	0.024
1080	0.024
1080	0.023
1081	0.022
1081	0.022
1082	0.021
1082	0.02
1083	0.019
1083	0.018
1083	0.017
1084	0.016
1084	0.016
1085	0.014
1085	0.013
1085	0.013
1086	0.012
1086	0.011
1087	0.011
1087	0.011
1088	0.01
1088	0.009
1088	0.009
1089	0.008
1089	0.007
1090	0.006
1090	0.005
1090	0.004
1091	0.003
1091	0.002
1092	0.001
1092	0.001
1092	0.001
1093	0
1093	0.001
1094	0.001
1094	-0
1095	-0.002
1095	-0.002
1095	-0.002
1096	-0.003
1096	-0.005
1097	-0.005
1097	-0.007
1097	-0.008
1098	-0.01
1098	-0.012
1099	-0.013
1099	-0.013
1100	-0.015
1100	-0.017
1100	-0.02
1101	-0.022
1101	-0.024
1102	-0.026
1102	-0.029
1102	-0.029
1103	-0.032
1103	-0.034
1104	-0.037
1104	-0.038
1104	-0.041
1105	-0.043
1105	-0.046
1106	-0.051
1106	-0.053
1107	-0.057
1107	-0.062
1107	-0.068
1108	-0.069
1108	-0.072
1109	-0.075
1109	-0.08
1109	-0.084
1110	-0.086
1110	-0.088
1111	-0.096
1111	-0.098
