Data from 17C_3.2A_35min_2sec_int_Absorbance__314__01876.txt Node

Date: Mon Jun 19 17:44:12 CEST 2023
User: Marek
Spectrometer: MAYP115816
Trigger mode: 0
Integration Time (sec): 2.500000E-1
Scans to average: 10
Electric dark correction enabled: true
Nonlinearity correction enabled: true
Boxcar width: 5
XAxis mode: Wavelengths
Number of Pixels in Spectrum: 2068
>>>>>Begin Spectral Data<<<<<
199	-0.726
199	-0.736
200	-0.64
200	-0.589
201	-0.552
201	-0.541
202	-0.524
202	-0.51
203	-0.503
203	-0.5
204	-0.485
204	-0.473
205	-0.449
205	-0.444
205	-0.442
206	-0.444
206	-0.447
207	-0.436
207	-0.438
208	-0.44
208	-0.436
209	-0.431
209	-0.431
210	-0.436
210	-0.444
211	-0.445
211	-0.446
212	-0.45
212	-0.458
213	-0.458
213	-0.459
213	-0.467
214	-0.464
214	-0.463
215	-0.462
215	-0.466
216	-0.469
216	-0.478
217	-0.471
217	-0.477
218	-0.48
218	-0.479
219	-0.482
219	-0.491
220	-0.497
220	-0.506
221	-0.503
221	-0.506
221	-0.499
222	-0.496
222	-0.497
223	-0.498
223	-0.501
224	-0.505
224	-0.506
225	-0.502
225	-0.498
226	-0.504
226	-0.505
227	-0.51
227	-0.52
228	-0.52
228	-0.522
229	-0.523
229	-0.516
229	-0.511
230	-0.514
230	-0.517
231	-0.509
231	-0.5
232	-0.494
232	-0.492
233	-0.486
233	-0.483
234	-0.482
234	-0.479
235	-0.482
235	-0.487
236	-0.485
236	-0.491
236	-0.499
237	-0.505
237	-0.504
238	-0.514
238	-0.513
239	-0.514
239	-0.523
240	-0.521
240	-0.52
241	-0.525
241	-0.522
242	-0.525
242	-0.521
243	-0.518
243	-0.518
243	-0.528
244	-0.527
244	-0.527
245	-0.541
245	-0.539
246	-0.545
246	-0.55
247	-0.554
247	-0.558
248	-0.564
248	-0.561
249	-0.563
249	-0.573
250	-0.569
250	-0.566
250	-0.565
251	-0.56
251	-0.561
252	-0.564
252	-0.555
253	-0.559
253	-0.572
254	-0.569
254	-0.567
255	-0.576
255	-0.568
256	-0.568
256	-0.579
257	-0.576
257	-0.57
258	-0.587
258	-0.582
258	-0.578
259	-0.577
259	-0.586
260	-0.586
260	-0.59
261	-0.602
261	-0.593
262	-0.592
262	-0.595
263	-0.583
263	-0.58
264	-0.579
264	-0.586
265	-0.58
265	-0.585
265	-0.59
266	-0.586
266	-0.586
267	-0.598
267	-0.606
268	-0.623
268	-0.632
269	-0.63
269	-0.625
270	-0.631
270	-0.636
271	-0.637
271	-0.642
272	-0.644
272	-0.636
272	-0.627
273	-0.623
273	-0.631
274	-0.637
274	-0.64
275	-0.64
275	-0.632
276	-0.634
276	-0.628
277	-0.631
277	-0.651
278	-0.663
278	-0.657
278	-0.651
279	-0.654
279	-0.663
280	-0.659
280	-0.66
281	-0.656
281	-0.662
282	-0.657
282	-0.657
283	-0.646
283	-0.649
284	-0.642
284	-0.632
285	-0.629
285	-0.626
285	-0.624
286	-0.631
286	-0.627
287	-0.624
287	-0.609
288	-0.605
288	-0.615
289	-0.63
289	-0.638
290	-0.629
290	-0.628
291	-0.624
291	-0.616
292	-0.618
292	-0.624
292	-0.627
293	-0.63
293	-0.616
294	-0.602
294	-0.592
295	-0.586
295	-0.586
296	-0.586
296	-0.584
297	-0.578
297	-0.563
298	-0.556
298	-0.565
298	-0.555
299	-0.551
299	-0.554
300	-0.551
300	-0.547
301	-0.541
301	-0.541
302	-0.549
302	-0.556
303	-0.544
303	-0.529
304	-0.532
304	-0.53
305	-0.531
305	-0.529
305	-0.527
306	-0.51
306	-0.505
307	-0.491
307	-0.493
308	-0.507
308	-0.505
309	-0.505
309	-0.496
310	-0.483
310	-0.482
311	-0.473
311	-0.483
311	-0.477
312	-0.473
312	-0.471
313	-0.456
313	-0.461
314	-0.459
314	-0.46
315	-0.463
315	-0.461
316	-0.457
316	-0.449
317	-0.442
317	-0.437
318	-0.428
318	-0.423
318	-0.417
319	-0.407
319	-0.403
320	-0.395
320	-0.397
321	-0.402
321	-0.398
322	-0.395
322	-0.39
323	-0.389
323	-0.384
324	-0.375
324	-0.366
324	-0.356
325	-0.347
325	-0.328
326	-0.313
326	-0.296
327	-0.278
327	-0.258
328	-0.232
328	-0.214
329	-0.192
329	-0.172
330	-0.145
330	-0.113
330	-0.085
331	-0.054
331	-0.028
332	-0.002
332	0.021
333	0.044
333	0.069
334	0.089
334	0.109
335	0.126
335	0.142
336	0.155
336	0.167
336	0.177
337	0.188
337	0.198
338	0.206
338	0.212
339	0.22
339	0.226
340	0.23
340	0.235
341	0.239
341	0.243
342	0.247
342	0.25
342	0.253
343	0.255
343	0.258
344	0.26
344	0.261
345	0.263
345	0.263
346	0.264
346	0.265
347	0.265
347	0.266
348	0.266
348	0.267
348	0.267
349	0.267
349	0.267
350	0.268
350	0.268
351	0.268
351	0.268
352	0.268
352	0.268
353	0.268
353	0.268
354	0.268
354	0.268
354	0.267
355	0.267
355	0.267
356	0.267
356	0.267
357	0.266
357	0.266
358	0.265
358	0.265
359	0.265
359	0.265
360	0.265
360	0.265
360	0.265
361	0.264
361	0.264
362	0.265
362	0.264
363	0.265
363	0.264
364	0.265
364	0.264
365	0.264
365	0.264
366	0.264
366	0.264
366	0.264
367	0.265
367	0.264
368	0.264
368	0.264
369	0.264
369	0.264
370	0.263
370	0.263
371	0.263
371	0.263
372	0.263
372	0.262
372	0.262
373	0.262
373	0.262
374	0.262
374	0.262
375	0.262
375	0.262
376	0.262
376	0.262
377	0.262
377	0.262
378	0.262
378	0.262
378	0.262
379	0.262
379	0.262
380	0.261
380	0.261
381	0.261
381	0.261
382	0.26
382	0.26
383	0.26
383	0.26
383	0.259
384	0.259
384	0.259
385	0.259
385	0.259
386	0.259
386	0.259
387	0.259
387	0.259
388	0.259
388	0.259
389	0.259
389	0.259
389	0.259
390	0.259
390	0.259
391	0.259
391	0.259
392	0.259
392	0.258
393	0.258
393	0.258
394	0.258
394	0.257
394	0.257
395	0.257
395	0.257
396	0.256
396	0.256
397	0.256
397	0.256
398	0.256
398	0.256
399	0.256
399	0.256
400	0.256
400	0.256
400	0.255
401	0.255
401	0.255
402	0.255
402	0.255
403	0.255
403	0.254
404	0.254
404	0.254
405	0.254
405	0.254
405	0.254
406	0.253
406	0.253
407	0.253
407	0.253
408	0.253
408	0.253
409	0.252
409	0.253
410	0.253
410	0.252
411	0.253
411	0.253
411	0.253
412	0.253
412	0.252
413	0.252
413	0.252
414	0.252
414	0.252
415	0.252
415	0.251
416	0.251
416	0.251
416	0.251
417	0.251
417	0.251
418	0.251
418	0.251
419	0.251
419	0.251
420	0.251
420	0.251
421	0.251
421	0.251
421	0.251
422	0.251
422	0.251
423	0.251
423	0.25
424	0.25
424	0.25
425	0.249
425	0.249
426	0.249
426	0.248
427	0.248
427	0.248
427	0.248
428	0.248
428	0.248
429	0.248
429	0.248
430	0.247
430	0.247
431	0.247
431	0.247
432	0.247
432	0.247
432	0.247
433	0.246
433	0.246
434	0.246
434	0.246
435	0.246
435	0.246
436	0.246
436	0.246
437	0.245
437	0.245
437	0.245
438	0.245
438	0.245
439	0.245
439	0.245
440	0.245
440	0.245
441	0.245
441	0.245
442	0.245
442	0.244
442	0.244
443	0.244
443	0.244
444	0.244
444	0.244
445	0.244
445	0.244
446	0.244
446	0.244
447	0.244
447	0.245
447	0.245
448	0.245
448	0.245
449	0.245
449	0.245
450	0.245
450	0.245
451	0.245
451	0.245
452	0.245
452	0.244
452	0.244
453	0.244
453	0.244
454	0.244
454	0.243
455	0.243
455	0.243
456	0.243
456	0.243
457	0.243
457	0.243
458	0.243
458	0.243
458	0.243
459	0.243
459	0.243
460	0.243
460	0.243
461	0.243
461	0.243
462	0.243
462	0.243
463	0.243
463	0.243
463	0.243
464	0.243
464	0.243
465	0.243
465	0.243
466	0.244
466	0.244
467	0.244
467	0.244
467	0.244
468	0.244
468	0.245
469	0.245
469	0.245
470	0.246
470	0.246
471	0.246
471	0.246
472	0.246
472	0.246
472	0.247
473	0.247
473	0.247
474	0.247
474	0.247
475	0.248
475	0.248
476	0.248
476	0.248
477	0.249
477	0.249
477	0.249
478	0.249
478	0.25
479	0.25
479	0.25
480	0.251
480	0.251
481	0.251
481	0.252
482	0.252
482	0.253
482	0.253
483	0.254
483	0.255
484	0.255
484	0.255
485	0.255
485	0.256
486	0.256
486	0.257
487	0.258
487	0.258
487	0.259
488	0.26
488	0.261
489	0.262
489	0.264
490	0.265
490	0.266
491	0.267
491	0.268
492	0.269
492	0.269
492	0.27
493	0.271
493	0.272
494	0.274
494	0.275
495	0.276
495	0.276
496	0.278
496	0.279
496	0.28
497	0.282
497	0.283
498	0.284
498	0.285
499	0.287
499	0.288
500	0.29
500	0.291
501	0.292
501	0.294
501	0.295
502	0.295
502	0.297
503	0.298
503	0.299
504	0.301
504	0.302
505	0.304
505	0.305
506	0.307
506	0.308
506	0.309
507	0.311
507	0.312
508	0.314
508	0.316
509	0.317
509	0.319
510	0.32
510	0.322
511	0.323
511	0.325
511	0.326
512	0.328
512	0.329
513	0.331
513	0.332
514	0.333
514	0.335
515	0.336
515	0.338
515	0.339
516	0.341
516	0.342
517	0.344
517	0.345
518	0.346
518	0.347
519	0.349
519	0.35
520	0.351
520	0.353
520	0.355
521	0.356
521	0.358
522	0.359
522	0.361
523	0.362
523	0.364
524	0.364
524	0.365
524	0.366
525	0.367
525	0.367
526	0.368
526	0.369
527	0.37
527	0.371
528	0.372
528	0.373
529	0.374
529	0.375
529	0.376
530	0.377
530	0.378
531	0.379
531	0.379
532	0.38
532	0.381
533	0.382
533	0.382
533	0.382
534	0.383
534	0.383
535	0.383
535	0.384
536	0.383
536	0.383
537	0.383
537	0.383
538	0.384
538	0.384
538	0.384
539	0.385
539	0.385
540	0.385
540	0.385
541	0.385
541	0.386
542	0.386
542	0.386
542	0.385
543	0.385
543	0.384
544	0.384
544	0.384
545	0.384
545	0.384
546	0.384
546	0.384
547	0.383
547	0.383
547	0.383
548	0.383
548	0.383
549	0.383
549	0.383
550	0.382
550	0.382
551	0.382
551	0.383
551	0.383
552	0.384
552	0.384
553	0.384
553	0.385
554	0.384
554	0.384
555	0.384
555	0.384
556	0.383
556	0.382
556	0.382
557	0.381
557	0.381
558	0.38
558	0.379
559	0.379
559	0.379
560	0.378
560	0.378
560	0.378
561	0.378
561	0.377
562	0.376
562	0.376
563	0.375
563	0.375
564	0.375
564	0.375
564	0.375
565	0.375
565	0.375
566	0.374
566	0.374
567	0.374
567	0.374
568	0.373
568	0.373
568	0.372
569	0.371
569	0.37
570	0.369
570	0.368
571	0.368
571	0.367
572	0.367
572	0.366
573	0.366
573	0.365
573	0.365
574	0.364
574	0.365
575	0.365
575	0.365
576	0.365
576	0.364
577	0.364
577	0.364
577	0.364
578	0.364
578	0.364
579	0.365
579	0.365
580	0.364
580	0.362
581	0.361
581	0.361
581	0.361
582	0.361
582	0.361
583	0.361
583	0.36
584	0.359
584	0.358
585	0.359
585	0.359
585	0.359
586	0.359
586	0.358
587	0.358
587	0.357
588	0.357
588	0.357
589	0.357
589	0.357
590	0.357
590	0.356
590	0.357
591	0.357
591	0.356
592	0.355
592	0.354
593	0.354
593	0.354
594	0.353
594	0.353
594	0.352
595	0.352
595	0.352
596	0.351
596	0.352
597	0.353
597	0.352
598	0.352
598	0.352
598	0.351
599	0.35
599	0.349
600	0.348
600	0.347
601	0.347
601	0.346
602	0.345
602	0.344
602	0.344
603	0.344
603	0.345
604	0.345
604	0.345
605	0.345
605	0.345
606	0.344
606	0.344
606	0.343
607	0.342
607	0.342
608	0.34
608	0.339
609	0.338
609	0.338
610	0.337
610	0.336
610	0.336
611	0.336
611	0.336
612	0.337
612	0.337
613	0.337
613	0.337
614	0.336
614	0.334
614	0.333
615	0.332
615	0.331
616	0.331
616	0.329
617	0.328
617	0.326
618	0.325
618	0.325
618	0.324
619	0.324
619	0.324
620	0.323
620	0.322
621	0.322
621	0.321
622	0.321
622	0.32
622	0.318
623	0.317
623	0.317
624	0.316
624	0.315
625	0.314
625	0.313
626	0.311
626	0.31
626	0.309
627	0.308
627	0.306
628	0.304
628	0.302
629	0.3
629	0.298
630	0.296
630	0.293
630	0.291
631	0.288
631	0.285
632	0.282
632	0.279
633	0.276
633	0.272
634	0.269
634	0.266
634	0.262
635	0.259
635	0.255
636	0.25
636	0.246
637	0.242
637	0.236
638	0.231
638	0.226
638	0.22
639	0.214
639	0.208
640	0.201
640	0.195
641	0.189
641	0.183
642	0.176
642	0.17
642	0.164
643	0.157
643	0.15
644	0.143
644	0.135
645	0.128
645	0.121
646	0.113
646	0.105
646	0.097
647	0.089
647	0.081
648	0.073
648	0.065
649	0.056
649	0.048
650	0.04
650	0.031
650	0.021
651	0.01
651	-0.003
652	-0.02
652	-0.037
653	-0.051
653	-0.065
653	-0.062
654	-0.039
654	-0.027
655	-0.03
655	-0.035
656	-0.041
656	-0.047
657	-0.052
657	-0.055
657	-0.061
658	-0.067
658	-0.097
659	-0.186
659	-0.291
660	-0.337
660	-0.364
661	-0.393
661	-0.424
661	-0.457
662	-0.489
662	-0.525
663	-0.565
663	-0.609
664	-0.654
664	-0.706
665	-0.757
665	-0.816
665	-0.872
666	-0.929
666	-0.991
667	-1.056
667	-1.122
668	-1.195
668	-1.267
669	-1.34
669	-1.414
669	-1.49
670	-1.555
670	-1.576
671	-1.666
671	-1.958
672	-2.191
672	-2.384
672	-2.515
673	-2.608
673	-2.689
674	-2.74
674	-2.76
675	-2.786
675	-2.927
676	-3.129
676	-3.083
676	-2.862
677	-2.663
677	-2.507
678	-2.346
678	-2.087
679	-1.786
679	-1.641
680	-1.543
680	-1.457
680	-1.384
681	-1.337
681	-1.276
682	-1.235
682	-1.197
683	-1.16
683	-1.142
684	-1.12
684	-1.099
684	-1.074
685	-1.049
685	-1.026
686	-1.001
686	-0.983
687	-0.956
687	-0.943
687	-0.923
688	-0.896
688	-0.874
689	-0.852
689	-0.839
690	-0.818
690	-0.803
691	-0.796
691	-0.802
691	-0.818
692	-0.808
692	-0.799
693	-0.793
693	-0.8
694	-0.795
694	-0.788
695	-0.794
695	-0.792
695	-0.774
696	-0.769
696	-0.747
697	-0.745
697	-0.761
698	-0.764
698	-0.755
698	-0.768
699	-0.769
699	-0.767
700	-0.758
700	-0.773
701	-0.771
701	-0.777
702	-0.78
702	-0.768
702	-0.759
703	-0.751
703	-0.741
704	-0.739
704	-0.739
705	-0.751
705	-0.743
705	-0.732
706	-0.733
706	-0.726
707	-0.731
707	-0.726
708	-0.725
708	-0.716
709	-0.718
709	-0.72
709	-0.709
710	-0.719
710	-0.729
711	-0.721
711	-0.721
712	-0.72
712	-0.735
713	-0.733
713	-0.74
713	-0.731
714	-0.728
714	-0.729
715	-0.717
715	-0.704
716	-0.708
716	-0.711
716	-0.703
717	-0.703
717	-0.707
718	-0.7
718	-0.701
719	-0.705
719	-0.707
720	-0.705
720	-0.714
720	-0.708
721	-0.697
721	-0.698
722	-0.686
722	-0.675
723	-0.672
723	-0.677
723	-0.665
724	-0.666
724	-0.67
725	-0.668
725	-0.679
726	-0.692
726	-0.697
727	-0.701
727	-0.715
727	-0.72
728	-0.719
728	-0.725
729	-0.727
729	-0.732
730	-0.74
730	-0.731
730	-0.72
731	-0.701
731	-0.712
732	-0.717
732	-0.719
733	-0.715
733	-0.722
734	-0.714
734	-0.715
734	-0.7
735	-0.699
735	-0.7
736	-0.713
736	-0.699
737	-0.69
737	-0.692
737	-0.703
738	-0.694
738	-0.697
739	-0.692
739	-0.705
740	-0.704
740	-0.706
741	-0.7
741	-0.7
741	-0.704
742	-0.701
742	-0.701
743	-0.711
743	-0.714
744	-0.712
744	-0.702
744	-0.702
745	-0.707
745	-0.701
746	-0.701
746	-0.697
747	-0.697
747	-0.685
748	-0.673
748	-0.678
748	-0.679
749	-0.678
749	-0.68
750	-0.669
750	-0.669
751	-0.674
751	-0.685
751	-0.687
752	-0.693
752	-0.703
753	-0.696
753	-0.693
754	-0.697
754	-0.689
754	-0.704
755	-0.721
755	-0.731
756	-0.719
756	-0.716
757	-0.712
757	-0.708
758	-0.712
758	-0.708
758	-0.712
759	-0.721
759	-0.706
760	-0.698
760	-0.696
761	-0.706
761	-0.703
761	-0.702
762	-0.71
762	-0.708
763	-0.72
763	-0.714
764	-0.712
764	-0.718
764	-0.724
765	-0.713
765	-0.699
766	-0.706
766	-0.715
767	-0.727
767	-0.722
768	-0.713
768	-0.724
768	-0.729
769	-0.744
769	-0.746
770	-0.75
770	-0.763
771	-0.76
771	-0.761
771	-0.763
772	-0.767
772	-0.766
773	-0.765
773	-0.758
774	-0.759
774	-0.76
775	-0.76
775	-0.755
775	-0.763
776	-0.763
776	-0.755
777	-0.762
777	-0.781
778	-0.779
778	-0.799
778	-0.787
779	-0.808
779	-0.816
780	-0.83
780	-0.83
781	-0.843
781	-0.838
781	-0.855
782	-0.857
782	-0.859
783	-0.847
783	-0.844
784	-0.825
784	-0.815
784	-0.822
785	-0.827
785	-0.812
786	-0.816
786	-0.791
787	-0.775
787	-0.772
788	-0.774
788	-0.786
788	-0.794
789	-0.795
789	-0.778
790	-0.76
790	-0.761
791	-0.762
791	-0.782
791	-0.789
792	-0.784
792	-0.763
793	-0.749
793	-0.728
794	-0.733
794	-0.725
794	-0.734
795	-0.729
795	-0.723
796	-0.706
796	-0.713
797	-0.709
797	-0.721
797	-0.728
798	-0.742
798	-0.737
799	-0.748
799	-0.734
800	-0.741
800	-0.733
801	-0.737
801	-0.723
801	-0.733
802	-0.742
802	-0.745
803	-0.745
803	-0.751
804	-0.746
804	-0.758
804	-0.747
805	-0.752
805	-0.742
806	-0.746
806	-0.73
807	-0.727
807	-0.706
807	-0.694
808	-0.686
808	-0.679
809	-0.664
809	-0.672
810	-0.67
810	-0.661
810	-0.655
811	-0.662
811	-0.652
812	-0.656
812	-0.657
813	-0.661
813	-0.657
813	-0.663
814	-0.664
814	-0.669
815	-0.674
815	-0.679
816	-0.672
816	-0.676
817	-0.682
817	-0.701
817	-0.714
818	-0.723
818	-0.726
819	-0.716
819	-0.718
820	-0.729
820	-0.726
820	-0.736
821	-0.737
821	-0.724
822	-0.692
822	-0.67
823	-0.665
823	-0.667
823	-0.665
824	-0.66
824	-0.661
825	-0.653
825	-0.634
826	-0.629
826	-0.638
826	-0.647
827	-0.641
827	-0.637
828	-0.618
828	-0.617
829	-0.605
829	-0.591
829	-0.583
830	-0.592
830	-0.587
831	-0.579
831	-0.57
832	-0.569
832	-0.562
832	-0.57
833	-0.565
833	-0.566
834	-0.566
834	-0.574
835	-0.562
835	-0.558
835	-0.555
836	-0.553
836	-0.551
837	-0.549
837	-0.54
838	-0.531
838	-0.521
839	-0.507
839	-0.495
839	-0.487
840	-0.475
840	-0.468
841	-0.455
841	-0.446
842	-0.438
842	-0.428
842	-0.424
843	-0.418
843	-0.41
844	-0.4
844	-0.391
845	-0.385
845	-0.375
845	-0.361
846	-0.351
846	-0.338
847	-0.324
847	-0.312
848	-0.299
848	-0.289
848	-0.273
849	-0.262
849	-0.249
850	-0.236
850	-0.231
851	-0.221
851	-0.211
851	-0.202
852	-0.185
852	-0.173
853	-0.164
853	-0.161
854	-0.15
854	-0.138
854	-0.128
855	-0.115
855	-0.11
856	-0.099
856	-0.092
857	-0.087
857	-0.079
857	-0.067
858	-0.056
858	-0.049
859	-0.042
859	-0.031
860	-0.023
860	-0.01
860	-0.002
861	0.006
861	0.015
862	0.023
862	0.03
863	0.037
863	0.046
863	0.052
864	0.056
864	0.063
865	0.069
865	0.074
866	0.078
866	0.082
866	0.085
867	0.089
867	0.093
868	0.096
868	0.1
869	0.103
869	0.105
869	0.107
870	0.11
870	0.112
871	0.115
871	0.116
872	0.117
872	0.118
872	0.119
873	0.119
873	0.119
874	0.119
874	0.119
875	0.118
875	0.117
875	0.116
876	0.114
876	0.113
877	0.112
877	0.111
878	0.109
878	0.107
878	0.105
879	0.103
879	0.102
880	0.101
880	0.101
881	0.101
881	0.1
881	0.1
882	0.099
882	0.099
883	0.097
883	0.097
884	0.096
884	0.095
884	0.094
885	0.093
885	0.092
886	0.092
886	0.092
887	0.091
887	0.091
887	0.091
888	0.091
888	0.091
889	0.091
889	0.091
890	0.091
890	0.091
890	0.09
891	0.09
891	0.09
892	0.09
892	0.09
893	0.09
893	0.09
893	0.09
894	0.089
894	0.089
895	0.089
895	0.089
895	0.089
896	0.088
896	0.087
897	0.086
897	0.085
898	0.084
898	0.083
898	0.083
899	0.083
899	0.084
900	0.084
900	0.084
901	0.085
901	0.086
901	0.086
902	0.087
902	0.088
903	0.088
903	0.089
904	0.089
904	0.09
904	0.09
905	0.091
905	0.091
906	0.091
906	0.092
907	0.091
907	0.091
907	0.091
908	0.091
908	0.09
909	0.089
909	0.088
910	0.088
910	0.087
910	0.087
911	0.087
911	0.088
912	0.088
912	0.088
913	0.089
913	0.09
913	0.09
914	0.091
914	0.092
915	0.092
915	0.093
916	0.093
916	0.094
916	0.094
917	0.094
917	0.095
918	0.094
918	0.094
918	0.094
919	0.093
919	0.093
920	0.093
920	0.093
921	0.093
921	0.093
921	0.093
922	0.093
922	0.093
923	0.093
923	0.093
924	0.092
924	0.092
924	0.091
925	0.09
925	0.089
926	0.088
926	0.087
927	0.086
927	0.085
927	0.084
928	0.083
928	0.083
929	0.082
929	0.081
930	0.081
930	0.08
930	0.08
931	0.079
931	0.079
932	0.079
932	0.077
933	0.077
933	0.075
933	0.074
934	0.073
934	0.072
935	0.071
935	0.07
935	0.069
936	0.068
936	0.066
937	0.066
937	0.065
938	0.065
938	0.065
938	0.065
939	0.066
939	0.066
940	0.067
940	0.068
941	0.068
941	0.069
941	0.07
942	0.07
942	0.071
943	0.071
943	0.071
944	0.07
944	0.07
944	0.069
945	0.068
945	0.067
946	0.067
946	0.065
946	0.064
947	0.064
947	0.063
948	0.063
948	0.063
949	0.064
949	0.064
949	0.065
950	0.066
950	0.066
951	0.067
951	0.068
952	0.068
952	0.069
952	0.07
953	0.071
953	0.072
954	0.072
954	0.073
955	0.074
955	0.075
955	0.076
956	0.077
956	0.077
957	0.077
957	0.077
957	0.077
958	0.078
958	0.078
959	0.078
959	0.078
960	0.078
960	0.078
960	0.078
961	0.078
961	0.078
962	0.078
962	0.078
963	0.078
963	0.078
963	0.078
964	0.078
964	0.078
965	0.078
965	0.078
966	0.078
966	0.078
966	0.078
967	0.078
967	0.077
968	0.077
968	0.076
968	0.075
969	0.075
969	0.074
970	0.074
970	0.074
971	0.074
971	0.074
971	0.074
972	0.074
972	0.074
973	0.074
973	0.074
974	0.074
974	0.074
974	0.074
975	0.073
975	0.072
976	0.071
976	0.071
976	0.07
977	0.07
977	0.07
978	0.07
978	0.07
979	0.069
979	0.069
979	0.069
980	0.068
980	0.068
981	0.068
981	0.068
982	0.067
982	0.067
982	0.067
983	0.066
983	0.066
984	0.066
984	0.066
984	0.067
985	0.067
985	0.067
986	0.067
986	0.067
987	0.066
987	0.066
987	0.066
988	0.065
988	0.065
989	0.064
989	0.063
990	0.062
990	0.061
990	0.061
991	0.06
991	0.06
992	0.06
992	0.059
992	0.059
993	0.059
993	0.059
994	0.059
994	0.059
995	0.059
995	0.058
995	0.058
996	0.057
996	0.057
997	0.056
997	0.056
997	0.056
998	0.056
998	0.056
999	0.057
999	0.057
1000	0.057
1000	0.057
1000	0.057
1001	0.058
1001	0.059
1002	0.059
1002	0.059
1003	0.059
1003	0.059
1003	0.059
1004	0.059
1004	0.058
1005	0.058
1005	0.057
1005	0.056
1006	0.055
1006	0.054
1007	0.052
1007	0.051
1008	0.051
1008	0.05
1008	0.05
1009	0.049
1009	0.049
1010	0.049
1010	0.049
1010	0.049
1011	0.049
1011	0.048
1012	0.048
1012	0.047
1013	0.046
1013	0.045
1013	0.044
1014	0.044
1014	0.043
1015	0.042
1015	0.042
1016	0.041
1016	0.04
1016	0.039
1017	0.038
1017	0.038
1018	0.037
1018	0.037
1018	0.036
1019	0.036
1019	0.035
1020	0.034
1020	0.033
1021	0.033
1021	0.032
1021	0.031
1022	0.03
1022	0.03
1023	0.029
1023	0.029
1023	0.028
1024	0.028
1024	0.028
1025	0.028
1025	0.029
1026	0.029
1026	0.03
1026	0.03
1027	0.03
1027	0.031
1028	0.031
1028	0.031
1028	0.031
1029	0.031
1029	0.03
1030	0.03
1030	0.029
1031	0.029
1031	0.029
1031	0.028
1032	0.028
1032	0.028
1033	0.028
1033	0.028
1033	0.028
1034	0.028
1034	0.028
1035	0.028
1035	0.028
1036	0.029
1036	0.029
1036	0.029
1037	0.029
1037	0.029
1038	0.029
1038	0.029
1039	0.03
1039	0.03
1039	0.03
1040	0.03
1040	0.031
1041	0.031
1041	0.031
1041	0.031
1042	0.031
1042	0.031
1043	0.03
1043	0.03
1044	0.029
1044	0.028
1044	0.028
1045	0.027
1045	0.026
1046	0.026
1046	0.025
1046	0.025
1047	0.025
1047	0.025
1048	0.025
1048	0.025
1049	0.026
1049	0.025
1049	0.026
1050	0.026
1050	0.026
1051	0.026
1051	0.026
1051	0.027
1052	0.027
1052	0.027
1053	0.027
1053	0.027
1053	0.028
1054	0.027
1054	0.028
1055	0.028
1055	0.027
1056	0.027
1056	0.026
1056	0.025
1057	0.024
1057	0.024
1058	0.023
1058	0.023
1058	0.022
1059	0.022
1059	0.021
1060	0.02
1060	0.02
1061	0.019
1061	0.019
1061	0.019
1062	0.019
1062	0.018
1063	0.018
1063	0.019
1063	0.019
1064	0.019
1064	0.019
1065	0.019
1065	0.019
1066	0.019
1066	0.019
1066	0.019
1067	0.019
1067	0.018
1068	0.018
1068	0.017
1068	0.017
1069	0.016
1069	0.015
1070	0.015
1070	0.015
1071	0.015
1071	0.015
1071	0.014
1072	0.014
1072	0.013
1073	0.013
1073	0.013
1073	0.013
1074	0.013
1074	0.013
1075	0.013
1075	0.012
1076	0.012
1076	0.012
1076	0.011
1077	0.011
1077	0.01
1078	0.009
1078	0.008
1078	0.007
1079	0.006
1079	0.006
1080	0.005
1080	0.004
1080	0.004
1081	0.003
1081	0.002
1082	0.002
1082	0.001
1083	-0
1083	-0.001
1083	-0.002
1084	-0.003
1084	-0.003
1085	-0.004
1085	-0.005
1085	-0.005
1086	-0.006
1086	-0.006
1087	-0.006
1087	-0.006
1088	-0.007
1088	-0.007
1088	-0.007
1089	-0.008
1089	-0.008
1090	-0.01
1090	-0.01
1090	-0.011
1091	-0.011
1091	-0.012
1092	-0.013
1092	-0.013
1092	-0.014
1093	-0.014
1093	-0.014
1094	-0.014
1094	-0.015
1095	-0.016
1095	-0.017
1095	-0.017
1096	-0.018
1096	-0.019
1097	-0.02
1097	-0.02
1097	-0.021
1098	-0.023
1098	-0.025
1099	-0.025
1099	-0.026
1100	-0.028
1100	-0.03
1100	-0.032
1101	-0.035
1101	-0.038
1102	-0.04
1102	-0.043
1102	-0.043
1103	-0.046
1103	-0.049
1104	-0.051
1104	-0.053
1104	-0.055
1105	-0.057
1105	-0.059
1106	-0.063
1106	-0.065
1107	-0.069
1107	-0.074
1107	-0.079
1108	-0.081
1108	-0.083
1109	-0.087
1109	-0.091
1109	-0.094
1110	-0.096
1110	-0.097
1111	-0.104
1111	-0.108
