Data from 17C_3.2A_35min_2sec_int_Absorbance__585__02147.txt Node

Date: Mon Jun 19 17:55:30 CEST 2023
User: Marek
Spectrometer: MAYP115816
Trigger mode: 0
Integration Time (sec): 2.500000E-1
Scans to average: 10
Electric dark correction enabled: true
Nonlinearity correction enabled: true
Boxcar width: 5
XAxis mode: Wavelengths
Number of Pixels in Spectrum: 2068
>>>>>Begin Spectral Data<<<<<
199	-0.73
199	-0.744
200	-0.647
200	-0.598
201	-0.563
201	-0.551
202	-0.535
202	-0.52
203	-0.511
203	-0.508
204	-0.494
204	-0.481
205	-0.458
205	-0.453
205	-0.451
206	-0.451
206	-0.452
207	-0.441
207	-0.444
208	-0.447
208	-0.446
209	-0.441
209	-0.439
210	-0.446
210	-0.451
211	-0.45
211	-0.453
212	-0.458
212	-0.467
213	-0.466
213	-0.465
213	-0.47
214	-0.47
214	-0.472
215	-0.469
215	-0.473
216	-0.478
216	-0.485
217	-0.479
217	-0.483
218	-0.487
218	-0.489
219	-0.491
219	-0.498
220	-0.503
220	-0.513
221	-0.512
221	-0.513
221	-0.507
222	-0.505
222	-0.505
223	-0.504
223	-0.509
224	-0.512
224	-0.513
225	-0.508
225	-0.503
226	-0.508
226	-0.51
227	-0.516
227	-0.523
228	-0.523
228	-0.528
229	-0.527
229	-0.523
229	-0.518
230	-0.52
230	-0.524
231	-0.519
231	-0.511
232	-0.504
232	-0.503
233	-0.496
233	-0.493
234	-0.493
234	-0.489
235	-0.492
235	-0.498
236	-0.495
236	-0.499
236	-0.506
237	-0.514
237	-0.512
238	-0.522
238	-0.521
239	-0.52
239	-0.529
240	-0.527
240	-0.523
241	-0.529
241	-0.527
242	-0.531
242	-0.526
243	-0.525
243	-0.524
243	-0.533
244	-0.533
244	-0.531
245	-0.545
245	-0.546
246	-0.551
246	-0.555
247	-0.558
247	-0.563
248	-0.57
248	-0.569
249	-0.575
249	-0.583
250	-0.582
250	-0.577
250	-0.577
251	-0.573
251	-0.574
252	-0.576
252	-0.566
253	-0.568
253	-0.58
254	-0.578
254	-0.577
255	-0.585
255	-0.579
256	-0.576
256	-0.589
257	-0.585
257	-0.582
258	-0.6
258	-0.596
258	-0.591
259	-0.586
259	-0.595
260	-0.594
260	-0.601
261	-0.613
261	-0.603
262	-0.602
262	-0.604
263	-0.592
263	-0.588
264	-0.589
264	-0.598
265	-0.594
265	-0.604
265	-0.605
266	-0.602
266	-0.602
267	-0.613
267	-0.621
268	-0.635
268	-0.643
269	-0.64
269	-0.635
270	-0.637
270	-0.639
271	-0.641
271	-0.647
272	-0.65
272	-0.645
272	-0.637
273	-0.637
273	-0.647
274	-0.652
274	-0.657
275	-0.659
275	-0.652
276	-0.657
276	-0.651
277	-0.654
277	-0.674
278	-0.686
278	-0.68
278	-0.675
279	-0.678
279	-0.685
280	-0.682
280	-0.684
281	-0.679
281	-0.685
282	-0.676
282	-0.674
283	-0.664
283	-0.668
284	-0.662
284	-0.651
285	-0.647
285	-0.645
285	-0.642
286	-0.647
286	-0.641
287	-0.642
287	-0.627
288	-0.62
288	-0.627
289	-0.64
289	-0.651
290	-0.643
290	-0.642
291	-0.638
291	-0.631
292	-0.633
292	-0.639
292	-0.645
293	-0.649
293	-0.638
294	-0.625
294	-0.614
295	-0.61
295	-0.608
296	-0.605
296	-0.602
297	-0.597
297	-0.58
298	-0.571
298	-0.579
298	-0.567
299	-0.562
299	-0.563
300	-0.559
300	-0.553
301	-0.55
301	-0.551
302	-0.559
302	-0.569
303	-0.557
303	-0.543
304	-0.548
304	-0.546
305	-0.548
305	-0.548
305	-0.547
306	-0.531
306	-0.526
307	-0.514
307	-0.513
308	-0.528
308	-0.525
309	-0.528
309	-0.518
310	-0.508
310	-0.503
311	-0.494
311	-0.503
311	-0.497
312	-0.493
312	-0.49
313	-0.476
313	-0.478
314	-0.473
314	-0.475
315	-0.475
315	-0.473
316	-0.469
316	-0.461
317	-0.454
317	-0.45
318	-0.44
318	-0.437
318	-0.435
319	-0.425
319	-0.423
320	-0.416
320	-0.42
321	-0.426
321	-0.426
322	-0.421
322	-0.414
323	-0.413
323	-0.409
324	-0.401
324	-0.393
324	-0.383
325	-0.374
325	-0.357
326	-0.341
326	-0.325
327	-0.308
327	-0.29
328	-0.265
328	-0.244
329	-0.22
329	-0.199
330	-0.172
330	-0.141
330	-0.116
331	-0.087
331	-0.06
332	-0.037
332	-0.015
333	0.007
333	0.029
334	0.047
334	0.064
335	0.08
335	0.094
336	0.108
336	0.12
336	0.129
337	0.139
337	0.148
338	0.156
338	0.161
339	0.169
339	0.174
340	0.179
340	0.184
341	0.187
341	0.19
342	0.194
342	0.197
342	0.2
343	0.202
343	0.205
344	0.206
344	0.207
345	0.209
345	0.209
346	0.21
346	0.211
347	0.211
347	0.212
348	0.212
348	0.212
348	0.213
349	0.213
349	0.213
350	0.213
350	0.214
351	0.213
351	0.214
352	0.214
352	0.214
353	0.214
353	0.214
354	0.214
354	0.214
354	0.214
355	0.213
355	0.213
356	0.213
356	0.213
357	0.213
357	0.213
358	0.212
358	0.212
359	0.212
359	0.212
360	0.212
360	0.212
360	0.211
361	0.211
361	0.211
362	0.211
362	0.211
363	0.211
363	0.211
364	0.211
364	0.211
365	0.211
365	0.211
366	0.211
366	0.211
366	0.211
367	0.211
367	0.211
368	0.211
368	0.211
369	0.21
369	0.21
370	0.21
370	0.21
371	0.21
371	0.21
372	0.209
372	0.21
372	0.21
373	0.21
373	0.21
374	0.21
374	0.21
375	0.21
375	0.21
376	0.21
376	0.21
377	0.21
377	0.21
378	0.21
378	0.21
378	0.21
379	0.21
379	0.21
380	0.21
380	0.21
381	0.21
381	0.209
382	0.209
382	0.209
383	0.209
383	0.209
383	0.208
384	0.208
384	0.208
385	0.208
385	0.208
386	0.208
386	0.208
387	0.208
387	0.208
388	0.208
388	0.208
389	0.208
389	0.208
389	0.208
390	0.209
390	0.209
391	0.209
391	0.209
392	0.209
392	0.208
393	0.208
393	0.208
394	0.208
394	0.207
394	0.207
395	0.207
395	0.207
396	0.207
396	0.207
397	0.206
397	0.206
398	0.207
398	0.207
399	0.207
399	0.207
400	0.207
400	0.206
400	0.206
401	0.206
401	0.206
402	0.206
402	0.206
403	0.206
403	0.206
404	0.206
404	0.205
405	0.206
405	0.205
405	0.205
406	0.205
406	0.205
407	0.205
407	0.205
408	0.205
408	0.205
409	0.205
409	0.205
410	0.205
410	0.205
411	0.205
411	0.205
411	0.205
412	0.205
412	0.205
413	0.205
413	0.205
414	0.205
414	0.204
415	0.204
415	0.204
416	0.204
416	0.204
416	0.204
417	0.204
417	0.204
418	0.204
418	0.204
419	0.204
419	0.204
420	0.204
420	0.204
421	0.204
421	0.204
421	0.204
422	0.204
422	0.204
423	0.204
423	0.204
424	0.203
424	0.203
425	0.203
425	0.202
426	0.202
426	0.202
427	0.202
427	0.201
427	0.201
428	0.201
428	0.201
429	0.202
429	0.201
430	0.201
430	0.201
431	0.201
431	0.201
432	0.201
432	0.201
432	0.201
433	0.2
433	0.2
434	0.2
434	0.2
435	0.2
435	0.2
436	0.2
436	0.2
437	0.2
437	0.2
437	0.2
438	0.2
438	0.2
439	0.2
439	0.2
440	0.2
440	0.2
441	0.199
441	0.199
442	0.199
442	0.199
442	0.199
443	0.199
443	0.199
444	0.199
444	0.199
445	0.199
445	0.199
446	0.199
446	0.199
447	0.199
447	0.199
447	0.199
448	0.199
448	0.199
449	0.199
449	0.199
450	0.2
450	0.2
451	0.2
451	0.199
452	0.199
452	0.199
452	0.199
453	0.199
453	0.199
454	0.199
454	0.198
455	0.198
455	0.198
456	0.198
456	0.198
457	0.198
457	0.198
458	0.198
458	0.198
458	0.198
459	0.198
459	0.198
460	0.198
460	0.197
461	0.197
461	0.197
462	0.197
462	0.198
463	0.198
463	0.198
463	0.198
464	0.198
464	0.198
465	0.198
465	0.198
466	0.198
466	0.199
467	0.199
467	0.199
467	0.199
468	0.199
468	0.199
469	0.199
469	0.199
470	0.199
470	0.2
471	0.2
471	0.2
472	0.2
472	0.2
472	0.2
473	0.2
473	0.2
474	0.2
474	0.2
475	0.201
475	0.201
476	0.201
476	0.201
477	0.201
477	0.201
477	0.202
478	0.202
478	0.202
479	0.202
479	0.202
480	0.202
480	0.202
481	0.202
481	0.202
482	0.203
482	0.203
482	0.204
483	0.204
483	0.204
484	0.205
484	0.204
485	0.204
485	0.205
486	0.205
486	0.205
487	0.206
487	0.206
487	0.207
488	0.207
488	0.208
489	0.209
489	0.21
490	0.211
490	0.212
491	0.213
491	0.213
492	0.214
492	0.214
492	0.215
493	0.216
493	0.216
494	0.217
494	0.218
495	0.218
495	0.219
496	0.22
496	0.22
496	0.221
497	0.222
497	0.223
498	0.224
498	0.225
499	0.226
499	0.227
500	0.228
500	0.229
501	0.229
501	0.23
501	0.231
502	0.231
502	0.232
503	0.233
503	0.234
504	0.235
504	0.236
505	0.237
505	0.238
506	0.239
506	0.24
506	0.241
507	0.241
507	0.242
508	0.243
508	0.244
509	0.245
509	0.246
510	0.247
510	0.248
511	0.249
511	0.25
511	0.251
512	0.253
512	0.254
513	0.255
513	0.256
514	0.257
514	0.258
515	0.259
515	0.259
515	0.26
516	0.261
516	0.262
517	0.264
517	0.265
518	0.266
518	0.266
519	0.267
519	0.268
520	0.269
520	0.271
520	0.272
521	0.273
521	0.274
522	0.275
522	0.276
523	0.277
523	0.278
524	0.278
524	0.279
524	0.279
525	0.28
525	0.28
526	0.281
526	0.281
527	0.282
527	0.283
528	0.283
528	0.284
529	0.285
529	0.286
529	0.287
530	0.288
530	0.289
531	0.29
531	0.29
532	0.291
532	0.291
533	0.292
533	0.292
533	0.293
534	0.293
534	0.293
535	0.293
535	0.293
536	0.293
536	0.292
537	0.292
537	0.292
538	0.293
538	0.293
538	0.293
539	0.294
539	0.294
540	0.294
540	0.294
541	0.295
541	0.295
542	0.295
542	0.296
542	0.295
543	0.295
543	0.295
544	0.295
544	0.295
545	0.295
545	0.295
546	0.295
546	0.295
547	0.295
547	0.294
547	0.295
548	0.295
548	0.295
549	0.295
549	0.295
550	0.295
550	0.294
551	0.295
551	0.296
551	0.296
552	0.297
552	0.298
553	0.298
553	0.299
554	0.299
554	0.298
555	0.298
555	0.299
556	0.298
556	0.298
556	0.298
557	0.298
557	0.297
558	0.297
558	0.296
559	0.296
559	0.296
560	0.296
560	0.295
560	0.295
561	0.295
561	0.295
562	0.294
562	0.294
563	0.293
563	0.293
564	0.293
564	0.293
564	0.294
565	0.294
565	0.294
566	0.294
566	0.294
567	0.295
567	0.294
568	0.294
568	0.294
568	0.294
569	0.294
569	0.293
570	0.292
570	0.291
571	0.291
571	0.291
572	0.29
572	0.29
573	0.29
573	0.289
573	0.289
574	0.289
574	0.289
575	0.289
575	0.29
576	0.29
576	0.29
577	0.289
577	0.29
577	0.29
578	0.29
578	0.291
579	0.292
579	0.292
580	0.291
580	0.29
581	0.289
581	0.29
581	0.29
582	0.29
582	0.29
583	0.29
583	0.29
584	0.289
584	0.288
585	0.289
585	0.29
585	0.29
586	0.291
586	0.291
587	0.29
587	0.29
588	0.29
588	0.29
589	0.29
589	0.29
590	0.29
590	0.29
590	0.291
591	0.291
591	0.291
592	0.29
592	0.29
593	0.29
593	0.29
594	0.29
594	0.29
594	0.29
595	0.29
595	0.29
596	0.29
596	0.291
597	0.293
597	0.293
598	0.292
598	0.293
598	0.292
599	0.292
599	0.291
600	0.29
600	0.29
601	0.29
601	0.289
602	0.288
602	0.288
602	0.288
603	0.288
603	0.289
604	0.29
604	0.291
605	0.291
605	0.292
606	0.292
606	0.291
606	0.291
607	0.291
607	0.29
608	0.29
608	0.289
609	0.288
609	0.289
610	0.288
610	0.288
610	0.288
611	0.289
611	0.29
612	0.291
612	0.291
613	0.292
613	0.292
614	0.291
614	0.29
614	0.29
615	0.289
615	0.288
616	0.288
616	0.287
617	0.286
617	0.285
618	0.284
618	0.284
618	0.284
619	0.284
619	0.284
620	0.285
620	0.284
621	0.284
621	0.284
622	0.284
622	0.283
622	0.283
623	0.283
623	0.283
624	0.283
624	0.282
625	0.281
625	0.281
626	0.28
626	0.28
626	0.279
627	0.279
627	0.278
628	0.277
628	0.276
629	0.275
629	0.273
630	0.271
630	0.27
630	0.268
631	0.266
631	0.264
632	0.262
632	0.259
633	0.257
633	0.255
634	0.252
634	0.25
634	0.248
635	0.245
635	0.242
636	0.239
636	0.235
637	0.232
637	0.228
638	0.224
638	0.22
638	0.216
639	0.211
639	0.206
640	0.201
640	0.196
641	0.191
641	0.186
642	0.181
642	0.176
642	0.171
643	0.166
643	0.16
644	0.154
644	0.148
645	0.141
645	0.135
646	0.128
646	0.122
646	0.114
647	0.107
647	0.1
648	0.093
648	0.086
649	0.077
649	0.069
650	0.061
650	0.053
650	0.044
651	0.033
651	0.02
652	0.005
652	-0.011
653	-0.025
653	-0.037
653	-0.034
654	-0.015
654	-0.004
655	-0.008
655	-0.014
656	-0.021
656	-0.028
657	-0.032
657	-0.037
657	-0.043
658	-0.05
658	-0.08
659	-0.165
659	-0.265
660	-0.31
660	-0.337
661	-0.365
661	-0.396
661	-0.43
662	-0.461
662	-0.495
663	-0.533
663	-0.575
664	-0.618
664	-0.669
665	-0.72
665	-0.779
665	-0.833
666	-0.888
666	-0.949
667	-1.013
667	-1.078
668	-1.15
668	-1.222
669	-1.295
669	-1.366
669	-1.441
670	-1.503
670	-1.517
671	-1.595
671	-1.916
672	-2.164
672	-2.364
672	-2.5
673	-2.596
673	-2.679
674	-2.732
674	-2.753
675	-2.78
675	-2.922
676	-3.128
676	-3.083
676	-2.862
677	-2.662
677	-2.507
678	-2.344
678	-2.084
679	-1.765
679	-1.614
680	-1.514
680	-1.428
680	-1.355
681	-1.308
681	-1.247
682	-1.207
682	-1.169
683	-1.134
683	-1.117
684	-1.095
684	-1.076
684	-1.055
685	-1.029
685	-1.006
686	-0.982
686	-0.967
687	-0.941
687	-0.93
687	-0.909
688	-0.883
688	-0.863
689	-0.842
689	-0.829
690	-0.811
690	-0.8
691	-0.793
691	-0.798
691	-0.812
692	-0.803
692	-0.798
693	-0.792
693	-0.798
694	-0.793
694	-0.787
695	-0.79
695	-0.788
695	-0.771
696	-0.767
696	-0.746
697	-0.746
697	-0.759
698	-0.761
698	-0.753
698	-0.767
699	-0.769
699	-0.766
700	-0.757
700	-0.772
701	-0.77
701	-0.776
702	-0.777
702	-0.765
702	-0.758
703	-0.752
703	-0.742
704	-0.738
704	-0.739
705	-0.751
705	-0.745
705	-0.735
706	-0.736
706	-0.731
707	-0.734
707	-0.73
708	-0.729
708	-0.722
709	-0.726
709	-0.728
709	-0.716
710	-0.725
710	-0.732
711	-0.722
711	-0.724
712	-0.724
712	-0.735
713	-0.733
713	-0.738
713	-0.729
714	-0.725
714	-0.728
715	-0.718
715	-0.706
716	-0.715
716	-0.716
716	-0.708
717	-0.711
717	-0.714
718	-0.708
718	-0.707
719	-0.713
719	-0.715
720	-0.71
720	-0.72
720	-0.716
721	-0.705
721	-0.708
722	-0.693
722	-0.683
723	-0.681
723	-0.686
723	-0.672
724	-0.676
724	-0.679
725	-0.677
725	-0.683
726	-0.697
726	-0.7
727	-0.708
727	-0.721
727	-0.728
728	-0.728
728	-0.734
729	-0.731
729	-0.736
730	-0.743
730	-0.735
730	-0.723
731	-0.704
731	-0.713
732	-0.72
732	-0.718
733	-0.718
733	-0.721
734	-0.717
734	-0.717
734	-0.701
735	-0.701
735	-0.704
736	-0.716
736	-0.701
737	-0.693
737	-0.696
737	-0.707
738	-0.703
738	-0.703
739	-0.701
739	-0.717
740	-0.716
740	-0.716
741	-0.711
741	-0.713
741	-0.716
742	-0.713
742	-0.713
743	-0.721
743	-0.724
744	-0.72
744	-0.708
744	-0.711
745	-0.717
745	-0.711
746	-0.709
746	-0.705
747	-0.705
747	-0.693
748	-0.68
748	-0.686
748	-0.688
749	-0.687
749	-0.687
750	-0.677
750	-0.679
751	-0.681
751	-0.692
751	-0.692
752	-0.698
752	-0.707
753	-0.702
753	-0.698
754	-0.702
754	-0.697
754	-0.711
755	-0.726
755	-0.741
756	-0.731
756	-0.729
757	-0.726
757	-0.722
758	-0.725
758	-0.723
758	-0.725
759	-0.731
759	-0.714
760	-0.708
760	-0.7
761	-0.707
761	-0.705
761	-0.704
762	-0.712
762	-0.711
763	-0.72
763	-0.718
764	-0.718
764	-0.726
764	-0.731
765	-0.722
765	-0.707
766	-0.715
766	-0.722
767	-0.738
767	-0.73
768	-0.723
768	-0.73
768	-0.735
769	-0.751
769	-0.753
770	-0.759
770	-0.775
771	-0.772
771	-0.774
771	-0.775
772	-0.779
772	-0.78
773	-0.78
773	-0.773
774	-0.774
774	-0.775
775	-0.778
775	-0.772
775	-0.782
776	-0.782
776	-0.77
777	-0.779
777	-0.796
778	-0.793
778	-0.813
778	-0.798
779	-0.818
779	-0.825
780	-0.839
780	-0.839
781	-0.851
781	-0.848
781	-0.864
782	-0.868
782	-0.868
783	-0.855
783	-0.853
784	-0.832
784	-0.822
784	-0.831
785	-0.835
785	-0.819
786	-0.825
786	-0.802
787	-0.783
787	-0.789
788	-0.793
788	-0.805
788	-0.817
789	-0.819
789	-0.799
790	-0.78
790	-0.784
791	-0.782
791	-0.798
791	-0.805
792	-0.797
792	-0.771
793	-0.76
793	-0.735
794	-0.739
794	-0.731
794	-0.741
795	-0.735
795	-0.73
796	-0.716
796	-0.723
797	-0.717
797	-0.729
797	-0.736
798	-0.75
798	-0.744
799	-0.753
799	-0.737
800	-0.743
800	-0.736
801	-0.742
801	-0.726
801	-0.737
802	-0.748
802	-0.746
803	-0.746
803	-0.759
804	-0.754
804	-0.765
804	-0.753
805	-0.756
805	-0.744
806	-0.748
806	-0.733
807	-0.73
807	-0.713
807	-0.702
808	-0.689
808	-0.684
809	-0.671
809	-0.679
810	-0.678
810	-0.669
810	-0.668
811	-0.672
811	-0.663
812	-0.664
812	-0.666
813	-0.671
813	-0.666
813	-0.671
814	-0.675
814	-0.678
815	-0.683
815	-0.687
816	-0.682
816	-0.689
817	-0.697
817	-0.713
817	-0.728
818	-0.738
818	-0.739
819	-0.73
819	-0.731
820	-0.743
820	-0.738
820	-0.749
821	-0.745
821	-0.733
822	-0.701
822	-0.677
823	-0.674
823	-0.677
823	-0.676
824	-0.669
824	-0.669
825	-0.66
825	-0.641
826	-0.638
826	-0.646
826	-0.657
827	-0.651
827	-0.647
828	-0.627
828	-0.627
829	-0.617
829	-0.605
829	-0.596
830	-0.605
830	-0.601
831	-0.594
831	-0.584
832	-0.583
832	-0.574
832	-0.585
833	-0.578
833	-0.579
834	-0.578
834	-0.587
835	-0.574
835	-0.569
835	-0.563
836	-0.56
836	-0.557
837	-0.553
837	-0.541
838	-0.532
838	-0.52
839	-0.505
839	-0.494
839	-0.485
840	-0.473
840	-0.47
841	-0.46
841	-0.448
842	-0.441
842	-0.43
842	-0.425
843	-0.419
843	-0.414
844	-0.403
844	-0.394
845	-0.385
845	-0.373
845	-0.358
846	-0.35
846	-0.339
847	-0.327
847	-0.314
848	-0.3
848	-0.289
848	-0.273
849	-0.262
849	-0.252
850	-0.237
850	-0.23
851	-0.22
851	-0.207
851	-0.197
852	-0.18
852	-0.168
853	-0.157
853	-0.151
854	-0.139
854	-0.126
854	-0.116
855	-0.103
855	-0.096
856	-0.086
856	-0.076
857	-0.07
857	-0.062
857	-0.05
858	-0.038
858	-0.03
859	-0.022
859	-0.011
860	-0.002
860	0.012
860	0.021
861	0.028
861	0.037
862	0.045
862	0.053
863	0.06
863	0.069
863	0.076
864	0.081
864	0.088
865	0.094
865	0.099
866	0.105
866	0.108
866	0.113
867	0.117
867	0.121
868	0.124
868	0.128
869	0.132
869	0.134
869	0.136
870	0.139
870	0.141
871	0.144
871	0.146
872	0.147
872	0.147
872	0.148
873	0.149
873	0.149
874	0.148
874	0.148
875	0.147
875	0.146
875	0.145
876	0.143
876	0.142
877	0.141
877	0.14
878	0.138
878	0.136
878	0.134
879	0.132
879	0.131
880	0.13
880	0.129
881	0.129
881	0.129
881	0.129
882	0.128
882	0.127
883	0.126
883	0.125
884	0.124
884	0.123
884	0.122
885	0.121
885	0.121
886	0.12
886	0.119
887	0.119
887	0.118
887	0.118
888	0.118
888	0.118
889	0.118
889	0.119
890	0.118
890	0.119
890	0.119
891	0.119
891	0.118
892	0.119
892	0.119
893	0.119
893	0.119
893	0.119
894	0.118
894	0.118
895	0.118
895	0.117
895	0.117
896	0.116
896	0.115
897	0.114
897	0.113
898	0.112
898	0.111
898	0.111
899	0.111
899	0.112
900	0.112
900	0.113
901	0.113
901	0.114
901	0.115
902	0.115
902	0.116
903	0.116
903	0.117
904	0.117
904	0.118
904	0.118
905	0.119
905	0.12
906	0.12
906	0.12
907	0.12
907	0.12
907	0.119
908	0.119
908	0.118
909	0.118
909	0.117
910	0.116
910	0.116
910	0.115
911	0.115
911	0.116
912	0.116
912	0.116
913	0.117
913	0.118
913	0.118
914	0.119
914	0.12
915	0.12
915	0.121
916	0.121
916	0.122
916	0.122
917	0.122
917	0.122
918	0.122
918	0.122
918	0.121
919	0.121
919	0.121
920	0.121
920	0.121
921	0.121
921	0.121
921	0.121
922	0.121
922	0.121
923	0.121
923	0.12
924	0.12
924	0.12
924	0.119
925	0.118
925	0.117
926	0.116
926	0.115
927	0.114
927	0.113
927	0.112
928	0.112
928	0.111
929	0.11
929	0.11
930	0.109
930	0.109
930	0.108
931	0.108
931	0.108
932	0.107
932	0.106
933	0.106
933	0.104
933	0.103
934	0.102
934	0.101
935	0.1
935	0.099
935	0.097
936	0.096
936	0.095
937	0.094
937	0.094
938	0.094
938	0.094
938	0.094
939	0.094
939	0.095
940	0.095
940	0.095
941	0.096
941	0.097
941	0.097
942	0.098
942	0.098
943	0.098
943	0.098
944	0.098
944	0.097
944	0.096
945	0.096
945	0.094
946	0.093
946	0.092
946	0.091
947	0.09
947	0.089
948	0.09
948	0.09
949	0.09
949	0.091
949	0.091
950	0.092
950	0.092
951	0.093
951	0.094
952	0.095
952	0.096
952	0.096
953	0.097
953	0.098
954	0.098
954	0.099
955	0.1
955	0.101
955	0.102
956	0.104
956	0.104
957	0.104
957	0.104
957	0.104
958	0.105
958	0.106
959	0.106
959	0.106
960	0.106
960	0.105
960	0.105
961	0.105
961	0.106
962	0.106
962	0.105
963	0.105
963	0.105
963	0.105
964	0.105
964	0.105
965	0.105
965	0.105
966	0.105
966	0.105
966	0.105
967	0.105
967	0.104
968	0.103
968	0.102
968	0.102
969	0.101
969	0.1
970	0.1
970	0.1
971	0.1
971	0.1
971	0.1
972	0.1
972	0.1
973	0.101
973	0.1
974	0.1
974	0.1
974	0.1
975	0.099
975	0.099
976	0.098
976	0.097
976	0.097
977	0.097
977	0.097
978	0.097
978	0.097
979	0.096
979	0.096
979	0.096
980	0.095
980	0.095
981	0.095
981	0.095
982	0.095
982	0.094
982	0.094
983	0.094
983	0.093
984	0.094
984	0.094
984	0.094
985	0.094
985	0.094
986	0.094
986	0.094
987	0.093
987	0.093
987	0.093
988	0.092
988	0.091
989	0.09
989	0.089
990	0.088
990	0.088
990	0.087
991	0.087
991	0.086
992	0.086
992	0.085
992	0.085
993	0.085
993	0.085
994	0.085
994	0.085
995	0.084
995	0.084
995	0.083
996	0.083
996	0.082
997	0.082
997	0.082
997	0.082
998	0.082
998	0.082
999	0.082
999	0.082
1000	0.082
1000	0.083
1000	0.083
1001	0.083
1001	0.084
1002	0.084
1002	0.085
1003	0.085
1003	0.085
1003	0.085
1004	0.085
1004	0.084
1005	0.083
1005	0.083
1005	0.082
1006	0.081
1006	0.08
1007	0.079
1007	0.078
1008	0.077
1008	0.076
1008	0.076
1009	0.076
1009	0.076
1010	0.076
1010	0.075
1010	0.075
1011	0.075
1011	0.074
1012	0.074
1012	0.074
1013	0.073
1013	0.072
1013	0.071
1014	0.07
1014	0.069
1015	0.068
1015	0.068
1016	0.067
1016	0.066
1016	0.066
1017	0.065
1017	0.064
1018	0.064
1018	0.063
1018	0.062
1019	0.062
1019	0.061
1020	0.06
1020	0.059
1021	0.059
1021	0.058
1021	0.057
1022	0.056
1022	0.055
1023	0.055
1023	0.054
1023	0.053
1024	0.053
1024	0.053
1025	0.053
1025	0.054
1026	0.054
1026	0.054
1026	0.055
1027	0.055
1027	0.056
1028	0.056
1028	0.056
1028	0.056
1029	0.055
1029	0.055
1030	0.054
1030	0.054
1031	0.053
1031	0.053
1031	0.052
1032	0.052
1032	0.052
1033	0.052
1033	0.053
1033	0.053
1034	0.053
1034	0.052
1035	0.053
1035	0.052
1036	0.052
1036	0.052
1036	0.052
1037	0.052
1037	0.053
1038	0.053
1038	0.053
1039	0.053
1039	0.054
1039	0.054
1040	0.055
1040	0.055
1041	0.055
1041	0.055
1041	0.056
1042	0.055
1042	0.055
1043	0.055
1043	0.054
1044	0.054
1044	0.053
1044	0.052
1045	0.051
1045	0.05
1046	0.05
1046	0.049
1046	0.049
1047	0.049
1047	0.049
1048	0.049
1048	0.049
1049	0.049
1049	0.049
1049	0.05
1050	0.05
1050	0.051
1051	0.051
1051	0.051
1051	0.052
1052	0.052
1052	0.052
1053	0.052
1053	0.053
1053	0.053
1054	0.052
1054	0.052
1055	0.052
1055	0.052
1056	0.051
1056	0.05
1056	0.049
1057	0.048
1057	0.047
1058	0.047
1058	0.046
1058	0.046
1059	0.045
1059	0.044
1060	0.044
1060	0.043
1061	0.043
1061	0.043
1061	0.043
1062	0.043
1062	0.043
1063	0.043
1063	0.042
1063	0.043
1064	0.043
1064	0.043
1065	0.043
1065	0.043
1066	0.042
1066	0.042
1066	0.042
1067	0.042
1067	0.041
1068	0.041
1068	0.04
1068	0.039
1069	0.04
1069	0.039
1070	0.038
1070	0.038
1071	0.038
1071	0.038
1071	0.037
1072	0.037
1072	0.037
1073	0.036
1073	0.036
1073	0.036
1074	0.036
1074	0.037
1075	0.036
1075	0.036
1076	0.036
1076	0.036
1076	0.035
1077	0.034
1077	0.034
1078	0.033
1078	0.032
1078	0.031
1079	0.03
1079	0.029
1080	0.028
1080	0.028
1080	0.026
1081	0.026
1081	0.025
1082	0.025
1082	0.023
1083	0.023
1083	0.021
1083	0.02
1084	0.019
1084	0.019
1085	0.018
1085	0.017
1085	0.017
1086	0.016
1086	0.015
1087	0.015
1087	0.015
1088	0.014
1088	0.014
1088	0.013
1089	0.012
1089	0.011
1090	0.01
1090	0.009
1090	0.008
1091	0.007
1091	0.007
1092	0.006
1092	0.007
1092	0.006
1093	0.005
1093	0.005
1094	0.005
1094	0.004
1095	0.003
1095	0.003
1095	0.002
1096	0.001
1096	-0
1097	-0.001
1097	-0.002
1097	-0.002
1098	-0.004
1098	-0.006
1099	-0.007
1099	-0.007
1100	-0.009
1100	-0.011
1100	-0.013
1101	-0.016
1101	-0.019
1102	-0.021
1102	-0.025
1102	-0.025
1103	-0.027
1103	-0.03
1104	-0.032
1104	-0.034
1104	-0.036
1105	-0.039
1105	-0.041
1106	-0.046
1106	-0.048
1107	-0.052
1107	-0.058
1107	-0.063
1108	-0.065
1108	-0.068
1109	-0.071
1109	-0.076
1109	-0.078
1110	-0.08
1110	-0.083
1111	-0.091
1111	-0.092
