Data from 17C_3.2A_35min_2sec_int_Absorbance__714__02276.txt Node

Date: Mon Jun 19 18:00:52 CEST 2023
User: Marek
Spectrometer: MAYP115816
Trigger mode: 0
Integration Time (sec): 2.500000E-1
Scans to average: 10
Electric dark correction enabled: true
Nonlinearity correction enabled: true
Boxcar width: 5
XAxis mode: Wavelengths
Number of Pixels in Spectrum: 2068
>>>>>Begin Spectral Data<<<<<
199	-0.719
199	-0.739
200	-0.65
200	-0.6
201	-0.568
201	-0.554
202	-0.536
202	-0.523
203	-0.513
203	-0.51
204	-0.5
204	-0.487
205	-0.465
205	-0.458
205	-0.456
206	-0.456
206	-0.459
207	-0.45
207	-0.453
208	-0.455
208	-0.453
209	-0.447
209	-0.447
210	-0.448
210	-0.455
211	-0.455
211	-0.458
212	-0.458
212	-0.466
213	-0.463
213	-0.464
213	-0.469
214	-0.465
214	-0.464
215	-0.466
215	-0.471
216	-0.478
216	-0.487
217	-0.484
217	-0.489
218	-0.492
218	-0.493
219	-0.497
219	-0.507
220	-0.513
220	-0.521
221	-0.519
221	-0.519
221	-0.51
222	-0.506
222	-0.506
223	-0.509
223	-0.512
224	-0.514
224	-0.514
225	-0.505
225	-0.5
226	-0.506
226	-0.507
227	-0.512
227	-0.522
228	-0.524
228	-0.525
229	-0.526
229	-0.522
229	-0.519
230	-0.526
230	-0.528
231	-0.524
231	-0.513
232	-0.508
232	-0.506
233	-0.499
233	-0.499
234	-0.497
234	-0.493
235	-0.494
235	-0.499
236	-0.497
236	-0.501
236	-0.507
237	-0.514
237	-0.514
238	-0.523
238	-0.519
239	-0.52
239	-0.529
240	-0.529
240	-0.527
241	-0.536
241	-0.535
242	-0.54
242	-0.535
243	-0.534
243	-0.535
243	-0.544
244	-0.545
244	-0.545
245	-0.56
245	-0.558
246	-0.561
246	-0.565
247	-0.568
247	-0.572
248	-0.577
248	-0.573
249	-0.576
249	-0.584
250	-0.58
250	-0.574
250	-0.577
251	-0.573
251	-0.573
252	-0.576
252	-0.567
253	-0.573
253	-0.585
254	-0.582
254	-0.579
255	-0.586
255	-0.58
256	-0.576
256	-0.587
257	-0.584
257	-0.583
258	-0.598
258	-0.595
258	-0.591
259	-0.589
259	-0.6
260	-0.602
260	-0.608
261	-0.619
261	-0.61
262	-0.608
262	-0.606
263	-0.596
263	-0.59
264	-0.59
264	-0.597
265	-0.59
265	-0.598
265	-0.601
266	-0.597
266	-0.594
267	-0.608
267	-0.618
268	-0.634
268	-0.644
269	-0.643
269	-0.638
270	-0.645
270	-0.648
271	-0.649
271	-0.654
272	-0.659
272	-0.651
272	-0.644
273	-0.642
273	-0.649
274	-0.655
274	-0.658
275	-0.659
275	-0.653
276	-0.656
276	-0.649
277	-0.653
277	-0.671
278	-0.682
278	-0.677
278	-0.672
279	-0.674
279	-0.686
280	-0.683
280	-0.682
281	-0.679
281	-0.686
282	-0.678
282	-0.678
283	-0.669
283	-0.672
284	-0.664
284	-0.654
285	-0.649
285	-0.645
285	-0.641
286	-0.65
286	-0.644
287	-0.642
287	-0.626
288	-0.619
288	-0.625
289	-0.637
289	-0.647
290	-0.637
290	-0.638
291	-0.635
291	-0.627
292	-0.63
292	-0.638
292	-0.644
293	-0.647
293	-0.636
294	-0.627
294	-0.614
295	-0.613
295	-0.608
296	-0.606
296	-0.605
297	-0.598
297	-0.581
298	-0.572
298	-0.583
298	-0.572
299	-0.565
299	-0.57
300	-0.561
300	-0.558
301	-0.552
301	-0.552
302	-0.558
302	-0.568
303	-0.557
303	-0.542
304	-0.545
304	-0.545
305	-0.546
305	-0.548
305	-0.546
306	-0.532
306	-0.524
307	-0.512
307	-0.512
308	-0.525
308	-0.524
309	-0.525
309	-0.514
310	-0.503
310	-0.5
311	-0.49
311	-0.499
311	-0.497
312	-0.493
312	-0.49
313	-0.476
313	-0.478
314	-0.476
314	-0.477
315	-0.478
315	-0.478
316	-0.476
316	-0.468
317	-0.46
317	-0.455
318	-0.447
318	-0.444
318	-0.439
319	-0.429
319	-0.426
320	-0.42
320	-0.419
321	-0.423
321	-0.422
322	-0.419
322	-0.414
323	-0.414
323	-0.409
324	-0.403
324	-0.395
324	-0.386
325	-0.376
325	-0.359
326	-0.344
326	-0.327
327	-0.31
327	-0.289
328	-0.263
328	-0.244
329	-0.222
329	-0.2
330	-0.174
330	-0.144
330	-0.119
331	-0.093
331	-0.068
332	-0.045
332	-0.023
333	-0.004
333	0.019
334	0.038
334	0.054
335	0.069
335	0.083
336	0.096
336	0.108
336	0.118
337	0.128
337	0.136
338	0.144
338	0.149
339	0.157
339	0.162
340	0.167
340	0.17
341	0.174
341	0.177
342	0.18
342	0.183
342	0.186
343	0.187
343	0.19
344	0.192
344	0.193
345	0.195
345	0.195
346	0.196
346	0.197
347	0.197
347	0.198
348	0.198
348	0.199
348	0.199
349	0.199
349	0.199
350	0.199
350	0.199
351	0.2
351	0.2
352	0.2
352	0.2
353	0.2
353	0.2
354	0.2
354	0.2
354	0.2
355	0.2
355	0.199
356	0.199
356	0.199
357	0.199
357	0.199
358	0.199
358	0.198
359	0.198
359	0.198
360	0.198
360	0.198
360	0.197
361	0.197
361	0.197
362	0.197
362	0.197
363	0.197
363	0.197
364	0.197
364	0.197
365	0.197
365	0.197
366	0.197
366	0.197
366	0.197
367	0.197
367	0.197
368	0.197
368	0.197
369	0.197
369	0.197
370	0.197
370	0.197
371	0.197
371	0.197
372	0.196
372	0.196
372	0.197
373	0.197
373	0.197
374	0.196
374	0.196
375	0.196
375	0.196
376	0.196
376	0.196
377	0.196
377	0.196
378	0.196
378	0.197
378	0.197
379	0.197
379	0.196
380	0.196
380	0.196
381	0.196
381	0.196
382	0.196
382	0.195
383	0.195
383	0.195
383	0.195
384	0.194
384	0.194
385	0.195
385	0.195
386	0.195
386	0.195
387	0.195
387	0.195
388	0.195
388	0.195
389	0.195
389	0.195
389	0.195
390	0.195
390	0.195
391	0.195
391	0.195
392	0.195
392	0.195
393	0.195
393	0.195
394	0.195
394	0.194
394	0.194
395	0.194
395	0.194
396	0.193
396	0.193
397	0.193
397	0.193
398	0.193
398	0.193
399	0.193
399	0.193
400	0.193
400	0.193
400	0.193
401	0.193
401	0.193
402	0.193
402	0.193
403	0.193
403	0.193
404	0.193
404	0.193
405	0.193
405	0.193
405	0.192
406	0.192
406	0.192
407	0.192
407	0.192
408	0.192
408	0.192
409	0.192
409	0.192
410	0.192
410	0.192
411	0.192
411	0.192
411	0.192
412	0.192
412	0.192
413	0.192
413	0.192
414	0.192
414	0.192
415	0.192
415	0.191
416	0.191
416	0.191
416	0.191
417	0.191
417	0.191
418	0.191
418	0.191
419	0.192
419	0.192
420	0.191
420	0.192
421	0.192
421	0.192
421	0.192
422	0.192
422	0.192
423	0.191
423	0.191
424	0.191
424	0.19
425	0.19
425	0.19
426	0.189
426	0.189
427	0.189
427	0.189
427	0.189
428	0.189
428	0.189
429	0.189
429	0.189
430	0.189
430	0.189
431	0.189
431	0.189
432	0.189
432	0.189
432	0.189
433	0.188
433	0.188
434	0.188
434	0.188
435	0.188
435	0.188
436	0.188
436	0.188
437	0.188
437	0.188
437	0.188
438	0.188
438	0.188
439	0.188
439	0.188
440	0.188
440	0.188
441	0.188
441	0.188
442	0.187
442	0.187
442	0.187
443	0.187
443	0.187
444	0.187
444	0.187
445	0.187
445	0.187
446	0.187
446	0.187
447	0.187
447	0.188
447	0.188
448	0.188
448	0.188
449	0.188
449	0.188
450	0.188
450	0.188
451	0.187
451	0.187
452	0.187
452	0.187
452	0.187
453	0.187
453	0.187
454	0.187
454	0.186
455	0.186
455	0.186
456	0.186
456	0.186
457	0.186
457	0.186
458	0.186
458	0.186
458	0.186
459	0.186
459	0.186
460	0.186
460	0.186
461	0.185
461	0.185
462	0.185
462	0.185
463	0.185
463	0.185
463	0.185
464	0.185
464	0.185
465	0.185
465	0.186
466	0.186
466	0.186
467	0.186
467	0.186
467	0.186
468	0.186
468	0.186
469	0.187
469	0.187
470	0.187
470	0.187
471	0.187
471	0.187
472	0.187
472	0.187
472	0.187
473	0.187
473	0.188
474	0.188
474	0.188
475	0.188
475	0.188
476	0.188
476	0.188
477	0.188
477	0.189
477	0.189
478	0.189
478	0.189
479	0.189
479	0.189
480	0.189
480	0.189
481	0.19
481	0.19
482	0.19
482	0.19
482	0.191
483	0.191
483	0.191
484	0.191
484	0.191
485	0.191
485	0.191
486	0.192
486	0.192
487	0.193
487	0.193
487	0.193
488	0.194
488	0.194
489	0.195
489	0.196
490	0.197
490	0.198
491	0.199
491	0.199
492	0.2
492	0.2
492	0.201
493	0.201
493	0.202
494	0.202
494	0.203
495	0.203
495	0.204
496	0.204
496	0.205
496	0.206
497	0.207
497	0.208
498	0.209
498	0.209
499	0.21
499	0.211
500	0.212
500	0.213
501	0.214
501	0.214
501	0.215
502	0.215
502	0.216
503	0.217
503	0.217
504	0.218
504	0.219
505	0.22
505	0.221
506	0.222
506	0.222
506	0.223
507	0.224
507	0.224
508	0.225
508	0.226
509	0.227
509	0.228
510	0.229
510	0.23
511	0.231
511	0.232
511	0.233
512	0.234
512	0.235
513	0.235
513	0.236
514	0.237
514	0.238
515	0.239
515	0.24
515	0.24
516	0.242
516	0.243
517	0.244
517	0.245
518	0.245
518	0.246
519	0.247
519	0.248
520	0.249
520	0.25
520	0.251
521	0.252
521	0.253
522	0.254
522	0.255
523	0.256
523	0.257
524	0.257
524	0.257
524	0.258
525	0.258
525	0.259
526	0.259
526	0.26
527	0.261
527	0.261
528	0.262
528	0.262
529	0.263
529	0.264
529	0.265
530	0.266
530	0.267
531	0.267
531	0.268
532	0.268
532	0.269
533	0.269
533	0.27
533	0.27
534	0.27
534	0.27
535	0.27
535	0.271
536	0.27
536	0.271
537	0.271
537	0.271
538	0.271
538	0.271
538	0.271
539	0.272
539	0.273
540	0.273
540	0.273
541	0.273
541	0.273
542	0.274
542	0.274
542	0.273
543	0.273
543	0.273
544	0.273
544	0.273
545	0.273
545	0.273
546	0.273
546	0.273
547	0.273
547	0.273
547	0.273
548	0.273
548	0.273
549	0.273
549	0.274
550	0.273
550	0.274
551	0.274
551	0.274
551	0.275
552	0.276
552	0.277
553	0.277
553	0.278
554	0.278
554	0.277
555	0.277
555	0.277
556	0.277
556	0.277
556	0.277
557	0.277
557	0.276
558	0.276
558	0.276
559	0.275
559	0.275
560	0.275
560	0.275
560	0.275
561	0.275
561	0.275
562	0.274
562	0.274
563	0.273
563	0.273
564	0.274
564	0.274
564	0.274
565	0.274
565	0.275
566	0.275
566	0.275
567	0.275
567	0.275
568	0.275
568	0.274
568	0.274
569	0.274
569	0.273
570	0.272
570	0.271
571	0.271
571	0.271
572	0.27
572	0.27
573	0.27
573	0.27
573	0.27
574	0.27
574	0.27
575	0.27
575	0.271
576	0.271
576	0.271
577	0.27
577	0.271
577	0.271
578	0.272
578	0.272
579	0.273
579	0.273
580	0.272
580	0.271
581	0.271
581	0.271
581	0.271
582	0.271
582	0.272
583	0.272
583	0.272
584	0.271
584	0.27
585	0.271
585	0.272
585	0.272
586	0.273
586	0.273
587	0.272
587	0.272
588	0.271
588	0.271
589	0.272
589	0.272
590	0.272
590	0.272
590	0.273
591	0.274
591	0.273
592	0.273
592	0.272
593	0.273
593	0.273
594	0.273
594	0.272
594	0.273
595	0.273
595	0.272
596	0.273
596	0.274
597	0.275
597	0.275
598	0.275
598	0.275
598	0.275
599	0.275
599	0.274
600	0.274
600	0.273
601	0.273
601	0.272
602	0.272
602	0.272
602	0.272
603	0.273
603	0.274
604	0.274
604	0.275
605	0.276
605	0.277
606	0.276
606	0.276
606	0.276
607	0.276
607	0.276
608	0.275
608	0.274
609	0.273
609	0.274
610	0.273
610	0.273
610	0.274
611	0.275
611	0.275
612	0.276
612	0.277
613	0.278
613	0.278
614	0.277
614	0.276
614	0.276
615	0.275
615	0.275
616	0.275
616	0.274
617	0.273
617	0.272
618	0.271
618	0.271
618	0.271
619	0.271
619	0.272
620	0.272
620	0.272
621	0.272
621	0.272
622	0.272
622	0.272
622	0.272
623	0.271
623	0.272
624	0.272
624	0.271
625	0.27
625	0.27
626	0.27
626	0.269
626	0.269
627	0.268
627	0.268
628	0.267
628	0.265
629	0.264
629	0.263
630	0.261
630	0.26
630	0.258
631	0.257
631	0.255
632	0.253
632	0.25
633	0.248
633	0.246
634	0.244
634	0.242
634	0.24
635	0.238
635	0.235
636	0.232
636	0.229
637	0.226
637	0.222
638	0.219
638	0.215
638	0.211
639	0.206
639	0.201
640	0.197
640	0.192
641	0.187
641	0.183
642	0.178
642	0.173
642	0.169
643	0.164
643	0.158
644	0.152
644	0.146
645	0.14
645	0.134
646	0.128
646	0.121
646	0.114
647	0.107
647	0.101
648	0.094
648	0.087
649	0.079
649	0.072
650	0.064
650	0.056
650	0.047
651	0.036
651	0.024
652	0.009
652	-0.007
653	-0.021
653	-0.033
653	-0.03
654	-0.011
654	-0.002
655	-0.005
655	-0.011
656	-0.016
656	-0.023
657	-0.028
657	-0.032
657	-0.039
658	-0.046
658	-0.075
659	-0.16
659	-0.259
660	-0.305
660	-0.332
661	-0.359
661	-0.39
661	-0.424
662	-0.456
662	-0.49
663	-0.529
663	-0.571
664	-0.613
664	-0.663
665	-0.712
665	-0.77
665	-0.824
666	-0.88
666	-0.939
667	-1.002
667	-1.066
668	-1.137
668	-1.209
669	-1.282
669	-1.353
669	-1.428
670	-1.489
670	-1.502
671	-1.581
671	-1.911
672	-2.161
672	-2.362
672	-2.498
673	-2.595
673	-2.678
674	-2.745
674	-2.768
675	-2.795
675	-2.938
676	-3.144
676	-3.101
676	-2.884
677	-2.689
677	-2.54
678	-2.392
678	-2.166
679	-1.789
679	-1.612
680	-1.508
680	-1.421
680	-1.347
681	-1.3
681	-1.239
682	-1.2
682	-1.162
683	-1.126
683	-1.108
684	-1.088
684	-1.069
684	-1.048
685	-1.023
685	-1
686	-0.975
686	-0.96
687	-0.934
687	-0.922
687	-0.902
688	-0.877
688	-0.857
689	-0.837
689	-0.823
690	-0.805
690	-0.792
691	-0.788
691	-0.793
691	-0.809
692	-0.8
692	-0.792
693	-0.789
693	-0.795
694	-0.79
694	-0.783
695	-0.787
695	-0.785
695	-0.768
696	-0.765
696	-0.742
697	-0.741
697	-0.756
698	-0.758
698	-0.748
698	-0.764
699	-0.767
699	-0.766
700	-0.758
700	-0.772
701	-0.771
701	-0.779
702	-0.781
702	-0.768
702	-0.76
703	-0.754
703	-0.743
704	-0.739
704	-0.737
705	-0.747
705	-0.74
705	-0.728
706	-0.727
706	-0.723
707	-0.729
707	-0.724
708	-0.724
708	-0.717
709	-0.72
709	-0.724
709	-0.716
710	-0.726
710	-0.737
711	-0.729
711	-0.73
712	-0.73
712	-0.743
713	-0.742
713	-0.749
713	-0.74
714	-0.736
714	-0.736
715	-0.724
715	-0.709
716	-0.719
716	-0.72
716	-0.713
717	-0.713
717	-0.715
718	-0.707
718	-0.707
719	-0.712
719	-0.714
720	-0.709
720	-0.721
720	-0.712
721	-0.701
721	-0.699
722	-0.69
722	-0.678
723	-0.675
723	-0.681
723	-0.668
724	-0.671
724	-0.678
725	-0.675
725	-0.683
726	-0.694
726	-0.701
727	-0.706
727	-0.721
727	-0.727
728	-0.727
728	-0.732
729	-0.731
729	-0.735
730	-0.742
730	-0.735
730	-0.727
731	-0.708
731	-0.719
732	-0.725
732	-0.724
733	-0.722
733	-0.729
734	-0.722
734	-0.721
734	-0.708
735	-0.709
735	-0.708
736	-0.719
736	-0.704
737	-0.696
737	-0.699
737	-0.71
738	-0.704
738	-0.704
739	-0.702
739	-0.714
740	-0.712
740	-0.712
741	-0.708
741	-0.708
741	-0.712
742	-0.708
742	-0.708
743	-0.714
743	-0.717
744	-0.714
744	-0.704
744	-0.706
745	-0.713
745	-0.705
746	-0.704
746	-0.702
747	-0.705
747	-0.692
748	-0.681
748	-0.689
748	-0.692
749	-0.69
749	-0.688
750	-0.677
750	-0.679
751	-0.683
751	-0.692
751	-0.693
752	-0.699
752	-0.708
753	-0.703
753	-0.699
754	-0.704
754	-0.7
754	-0.712
755	-0.727
755	-0.738
756	-0.726
756	-0.723
757	-0.722
757	-0.718
758	-0.718
758	-0.717
758	-0.722
759	-0.73
759	-0.715
760	-0.709
760	-0.704
761	-0.715
761	-0.714
761	-0.712
762	-0.717
762	-0.72
763	-0.73
763	-0.724
764	-0.723
764	-0.73
764	-0.732
765	-0.723
765	-0.709
766	-0.715
766	-0.722
767	-0.738
767	-0.731
768	-0.721
768	-0.731
768	-0.733
769	-0.751
769	-0.756
770	-0.761
770	-0.773
771	-0.771
771	-0.773
771	-0.772
772	-0.775
772	-0.776
773	-0.776
773	-0.772
774	-0.77
774	-0.769
775	-0.772
775	-0.767
775	-0.775
776	-0.776
776	-0.768
777	-0.775
777	-0.793
778	-0.789
778	-0.808
778	-0.794
779	-0.817
779	-0.825
780	-0.838
780	-0.836
781	-0.848
781	-0.842
781	-0.859
782	-0.861
782	-0.864
783	-0.852
783	-0.854
784	-0.835
784	-0.825
784	-0.834
785	-0.839
785	-0.825
786	-0.831
786	-0.808
787	-0.793
787	-0.794
788	-0.798
788	-0.806
788	-0.816
789	-0.818
789	-0.801
790	-0.785
790	-0.786
791	-0.786
791	-0.804
791	-0.809
792	-0.804
792	-0.78
793	-0.772
793	-0.75
794	-0.753
794	-0.743
794	-0.75
795	-0.747
795	-0.74
796	-0.723
796	-0.731
797	-0.724
797	-0.737
797	-0.74
798	-0.752
798	-0.745
799	-0.758
799	-0.743
800	-0.751
800	-0.744
801	-0.749
801	-0.733
801	-0.742
802	-0.748
802	-0.751
803	-0.751
803	-0.76
804	-0.751
804	-0.762
804	-0.747
805	-0.751
805	-0.74
806	-0.744
806	-0.729
807	-0.728
807	-0.71
807	-0.697
808	-0.688
808	-0.683
809	-0.666
809	-0.677
810	-0.674
810	-0.668
810	-0.666
811	-0.673
811	-0.664
812	-0.664
812	-0.669
813	-0.673
813	-0.668
813	-0.676
814	-0.68
814	-0.683
815	-0.686
815	-0.689
816	-0.683
816	-0.687
817	-0.694
817	-0.714
817	-0.727
818	-0.738
818	-0.739
819	-0.729
819	-0.73
820	-0.742
820	-0.738
820	-0.748
821	-0.748
821	-0.735
822	-0.702
822	-0.678
823	-0.673
823	-0.677
823	-0.673
824	-0.668
824	-0.67
825	-0.662
825	-0.642
826	-0.636
826	-0.644
826	-0.654
827	-0.65
827	-0.646
828	-0.626
828	-0.628
829	-0.618
829	-0.603
829	-0.596
830	-0.605
830	-0.6
831	-0.592
831	-0.582
832	-0.58
832	-0.573
832	-0.581
833	-0.573
833	-0.575
834	-0.573
834	-0.581
835	-0.57
835	-0.566
835	-0.56
836	-0.556
836	-0.554
837	-0.552
837	-0.54
838	-0.531
838	-0.519
839	-0.504
839	-0.491
839	-0.482
840	-0.47
840	-0.468
841	-0.458
841	-0.449
842	-0.442
842	-0.431
842	-0.427
843	-0.419
843	-0.415
844	-0.406
844	-0.397
845	-0.389
845	-0.376
845	-0.361
846	-0.35
846	-0.336
847	-0.324
847	-0.312
848	-0.3
848	-0.288
848	-0.271
849	-0.26
849	-0.247
850	-0.235
850	-0.229
851	-0.218
851	-0.207
851	-0.198
852	-0.18
852	-0.167
853	-0.158
853	-0.152
854	-0.139
854	-0.127
854	-0.116
855	-0.103
855	-0.096
856	-0.084
856	-0.075
857	-0.069
857	-0.06
857	-0.049
858	-0.037
858	-0.03
859	-0.021
859	-0.009
860	0.001
860	0.014
860	0.023
861	0.032
861	0.042
862	0.05
862	0.058
863	0.065
863	0.075
863	0.081
864	0.086
864	0.092
865	0.099
865	0.104
866	0.109
866	0.113
866	0.117
867	0.121
867	0.126
868	0.129
868	0.134
869	0.137
869	0.14
869	0.142
870	0.145
870	0.147
871	0.15
871	0.152
872	0.153
872	0.154
872	0.154
873	0.154
873	0.155
874	0.154
874	0.154
875	0.153
875	0.152
875	0.15
876	0.149
876	0.148
877	0.146
877	0.145
878	0.143
878	0.142
878	0.14
879	0.138
879	0.137
880	0.136
880	0.136
881	0.136
881	0.136
881	0.135
882	0.135
882	0.134
883	0.133
883	0.132
884	0.131
884	0.13
884	0.129
885	0.128
885	0.127
886	0.126
886	0.126
887	0.125
887	0.125
887	0.125
888	0.125
888	0.125
889	0.125
889	0.125
890	0.125
890	0.125
890	0.125
891	0.125
891	0.125
892	0.125
892	0.125
893	0.125
893	0.125
893	0.125
894	0.124
894	0.124
895	0.123
895	0.123
895	0.123
896	0.122
896	0.121
897	0.12
897	0.119
898	0.118
898	0.117
898	0.117
899	0.118
899	0.118
900	0.118
900	0.119
901	0.12
901	0.12
901	0.121
902	0.122
902	0.122
903	0.123
903	0.123
904	0.124
904	0.125
904	0.125
905	0.126
905	0.127
906	0.127
906	0.127
907	0.127
907	0.126
907	0.126
908	0.126
908	0.125
909	0.124
909	0.123
910	0.123
910	0.122
910	0.122
911	0.122
911	0.122
912	0.123
912	0.123
913	0.124
913	0.124
913	0.125
914	0.126
914	0.126
915	0.127
915	0.128
916	0.128
916	0.128
916	0.129
917	0.129
917	0.129
918	0.129
918	0.129
918	0.128
919	0.128
919	0.128
920	0.128
920	0.128
921	0.128
921	0.128
921	0.128
922	0.128
922	0.128
923	0.127
923	0.127
924	0.127
924	0.126
924	0.125
925	0.124
925	0.123
926	0.122
926	0.121
927	0.12
927	0.119
927	0.118
928	0.118
928	0.117
929	0.116
929	0.116
930	0.115
930	0.114
930	0.114
931	0.113
931	0.113
932	0.113
932	0.112
933	0.111
933	0.11
933	0.108
934	0.107
934	0.106
935	0.105
935	0.104
935	0.103
936	0.102
936	0.101
937	0.1
937	0.1
938	0.099
938	0.1
938	0.1
939	0.1
939	0.101
940	0.102
940	0.102
941	0.102
941	0.102
941	0.104
942	0.104
942	0.104
943	0.104
943	0.104
944	0.103
944	0.102
944	0.102
945	0.101
945	0.1
946	0.099
946	0.097
946	0.096
947	0.095
947	0.095
948	0.095
948	0.096
949	0.096
949	0.097
949	0.097
950	0.098
950	0.099
951	0.1
951	0.101
952	0.101
952	0.103
952	0.103
953	0.103
953	0.105
954	0.105
954	0.106
955	0.106
955	0.108
955	0.108
956	0.109
956	0.109
957	0.109
957	0.11
957	0.11
958	0.11
958	0.111
959	0.111
959	0.111
960	0.111
960	0.11
960	0.111
961	0.111
961	0.111
962	0.111
962	0.111
963	0.111
963	0.111
963	0.11
964	0.111
964	0.111
965	0.111
965	0.111
966	0.111
966	0.111
966	0.11
967	0.11
967	0.109
968	0.108
968	0.108
968	0.107
969	0.107
969	0.106
970	0.106
970	0.106
971	0.105
971	0.106
971	0.106
972	0.106
972	0.106
973	0.106
973	0.106
974	0.106
974	0.106
974	0.106
975	0.105
975	0.105
976	0.104
976	0.103
976	0.103
977	0.103
977	0.103
978	0.103
978	0.102
979	0.102
979	0.102
979	0.101
980	0.101
980	0.101
981	0.101
981	0.101
982	0.101
982	0.1
982	0.1
983	0.099
983	0.099
984	0.099
984	0.099
984	0.099
985	0.099
985	0.099
986	0.099
986	0.099
987	0.098
987	0.098
987	0.098
988	0.097
988	0.096
989	0.095
989	0.094
990	0.093
990	0.092
990	0.092
991	0.091
991	0.091
992	0.09
992	0.09
992	0.09
993	0.09
993	0.09
994	0.09
994	0.09
995	0.09
995	0.089
995	0.089
996	0.088
996	0.087
997	0.087
997	0.087
997	0.087
998	0.087
998	0.087
999	0.087
999	0.087
1000	0.088
1000	0.088
1000	0.088
1001	0.089
1001	0.089
1002	0.089
1002	0.09
1003	0.09
1003	0.09
1003	0.09
1004	0.09
1004	0.089
1005	0.089
1005	0.088
1005	0.087
1006	0.086
1006	0.085
1007	0.084
1007	0.083
1008	0.083
1008	0.082
1008	0.081
1009	0.081
1009	0.081
1010	0.08
1010	0.081
1010	0.08
1011	0.08
1011	0.08
1012	0.079
1012	0.079
1013	0.078
1013	0.077
1013	0.076
1014	0.075
1014	0.075
1015	0.074
1015	0.073
1016	0.072
1016	0.072
1016	0.071
1017	0.07
1017	0.07
1018	0.069
1018	0.068
1018	0.068
1019	0.067
1019	0.066
1020	0.066
1020	0.065
1021	0.064
1021	0.063
1021	0.062
1022	0.061
1022	0.061
1023	0.061
1023	0.06
1023	0.06
1024	0.06
1024	0.059
1025	0.059
1025	0.06
1026	0.06
1026	0.061
1026	0.061
1027	0.061
1027	0.061
1028	0.061
1028	0.061
1028	0.061
1029	0.061
1029	0.061
1030	0.061
1030	0.06
1031	0.059
1031	0.059
1031	0.059
1032	0.059
1032	0.059
1033	0.059
1033	0.058
1033	0.059
1034	0.059
1034	0.058
1035	0.059
1035	0.059
1036	0.059
1036	0.059
1036	0.058
1037	0.058
1037	0.059
1038	0.059
1038	0.059
1039	0.059
1039	0.06
1039	0.06
1040	0.06
1040	0.061
1041	0.061
1041	0.061
1041	0.062
1042	0.061
1042	0.061
1043	0.06
1043	0.06
1044	0.059
1044	0.059
1044	0.058
1045	0.057
1045	0.056
1046	0.055
1046	0.054
1046	0.054
1047	0.054
1047	0.054
1048	0.054
1048	0.054
1049	0.054
1049	0.055
1049	0.055
1050	0.055
1050	0.055
1051	0.055
1051	0.056
1051	0.056
1052	0.056
1052	0.056
1053	0.057
1053	0.057
1053	0.057
1054	0.057
1054	0.057
1055	0.057
1055	0.056
1056	0.056
1056	0.055
1056	0.054
1057	0.053
1057	0.053
1058	0.052
1058	0.052
1058	0.051
1059	0.051
1059	0.05
1060	0.049
1060	0.049
1061	0.048
1061	0.048
1061	0.048
1062	0.048
1062	0.047
1063	0.048
1063	0.047
1063	0.048
1064	0.048
1064	0.048
1065	0.048
1065	0.048
1066	0.047
1066	0.047
1066	0.047
1067	0.047
1067	0.047
1068	0.046
1068	0.045
1068	0.045
1069	0.045
1069	0.044
1070	0.044
1070	0.044
1071	0.043
1071	0.043
1071	0.043
1072	0.042
1072	0.042
1073	0.042
1073	0.042
1073	0.041
1074	0.041
1074	0.041
1075	0.04
1075	0.04
1076	0.039
1076	0.039
1076	0.038
1077	0.038
1077	0.037
1078	0.036
1078	0.035
1078	0.035
1079	0.034
1079	0.034
1080	0.033
1080	0.033
1080	0.031
1081	0.031
1081	0.031
1082	0.03
1082	0.028
1083	0.027
1083	0.026
1083	0.025
1084	0.024
1084	0.023
1085	0.022
1085	0.022
1085	0.021
1086	0.02
1086	0.019
1087	0.02
1087	0.02
1088	0.019
1088	0.019
1088	0.018
1089	0.017
1089	0.016
1090	0.015
1090	0.014
1090	0.013
1091	0.012
1091	0.012
1092	0.01
1092	0.01
1092	0.009
1093	0.009
1093	0.009
1094	0.008
1094	0.008
1095	0.007
1095	0.007
1095	0.007
1096	0.005
1096	0.004
1097	0.004
1097	0.002
1097	0.001
1098	-0.001
1098	-0.002
1099	-0.003
1099	-0.005
1100	-0.007
1100	-0.008
1100	-0.011
1101	-0.013
1101	-0.016
1102	-0.017
1102	-0.019
1102	-0.021
1103	-0.023
1103	-0.025
1104	-0.027
1104	-0.03
1104	-0.033
1105	-0.034
1105	-0.037
1106	-0.041
1106	-0.044
1107	-0.05
1107	-0.054
1107	-0.059
1108	-0.061
1108	-0.064
1109	-0.066
1109	-0.07
1109	-0.074
1110	-0.075
1110	-0.078
1111	-0.086
1111	-0.084
