Data from 17C_3.2A_35min_2sec_int_Absorbance__221__01783.txt Node

Date: Mon Jun 19 17:40:20 CEST 2023
User: Marek
Spectrometer: MAYP115816
Trigger mode: 0
Integration Time (sec): 2.500000E-1
Scans to average: 10
Electric dark correction enabled: true
Nonlinearity correction enabled: true
Boxcar width: 5
XAxis mode: Wavelengths
Number of Pixels in Spectrum: 2068
>>>>>Begin Spectral Data<<<<<
199	-0.729
199	-0.742
200	-0.64
200	-0.584
201	-0.547
201	-0.534
202	-0.518
202	-0.501
203	-0.492
203	-0.488
204	-0.475
204	-0.461
205	-0.437
205	-0.433
205	-0.431
206	-0.434
206	-0.437
207	-0.428
207	-0.433
208	-0.436
208	-0.435
209	-0.429
209	-0.431
210	-0.435
210	-0.441
211	-0.443
211	-0.447
212	-0.447
212	-0.454
213	-0.454
213	-0.455
213	-0.458
214	-0.456
214	-0.454
215	-0.453
215	-0.456
216	-0.461
216	-0.468
217	-0.465
217	-0.468
218	-0.471
218	-0.472
219	-0.476
219	-0.485
220	-0.49
220	-0.5
221	-0.501
221	-0.505
221	-0.496
222	-0.493
222	-0.496
223	-0.499
223	-0.501
224	-0.506
224	-0.508
225	-0.503
225	-0.499
226	-0.504
226	-0.504
227	-0.511
227	-0.519
228	-0.519
228	-0.519
229	-0.519
229	-0.513
229	-0.506
230	-0.509
230	-0.511
231	-0.504
231	-0.494
232	-0.488
232	-0.487
233	-0.48
233	-0.477
234	-0.476
234	-0.474
235	-0.477
235	-0.483
236	-0.481
236	-0.485
236	-0.492
237	-0.497
237	-0.498
238	-0.507
238	-0.507
239	-0.508
239	-0.516
240	-0.515
240	-0.512
241	-0.519
241	-0.518
242	-0.523
242	-0.52
243	-0.516
243	-0.518
243	-0.525
244	-0.524
244	-0.523
245	-0.538
245	-0.536
246	-0.542
246	-0.546
247	-0.548
247	-0.552
248	-0.559
248	-0.555
249	-0.558
249	-0.568
250	-0.566
250	-0.562
250	-0.562
251	-0.558
251	-0.558
252	-0.56
252	-0.55
253	-0.555
253	-0.568
254	-0.565
254	-0.563
255	-0.572
255	-0.564
256	-0.561
256	-0.573
257	-0.57
257	-0.569
258	-0.586
258	-0.581
258	-0.577
259	-0.575
259	-0.583
260	-0.584
260	-0.591
261	-0.604
261	-0.595
262	-0.593
262	-0.591
263	-0.579
263	-0.575
264	-0.575
264	-0.583
265	-0.578
265	-0.583
265	-0.585
266	-0.582
266	-0.58
267	-0.592
267	-0.602
268	-0.618
268	-0.628
269	-0.626
269	-0.621
270	-0.626
270	-0.63
271	-0.629
271	-0.634
272	-0.638
272	-0.635
272	-0.628
273	-0.626
273	-0.633
274	-0.637
274	-0.64
275	-0.641
275	-0.634
276	-0.641
276	-0.632
277	-0.634
277	-0.65
278	-0.657
278	-0.651
278	-0.644
279	-0.649
279	-0.659
280	-0.657
280	-0.657
281	-0.65
281	-0.657
282	-0.649
282	-0.649
283	-0.64
283	-0.642
284	-0.637
284	-0.627
285	-0.624
285	-0.619
285	-0.617
286	-0.625
286	-0.621
287	-0.62
287	-0.605
288	-0.599
288	-0.607
289	-0.619
289	-0.627
290	-0.615
290	-0.616
291	-0.611
291	-0.604
292	-0.607
292	-0.613
292	-0.615
293	-0.618
293	-0.611
294	-0.599
294	-0.592
295	-0.588
295	-0.584
296	-0.58
296	-0.58
297	-0.573
297	-0.555
298	-0.552
298	-0.562
298	-0.547
299	-0.541
299	-0.54
300	-0.537
300	-0.532
301	-0.53
301	-0.526
302	-0.533
302	-0.544
303	-0.528
303	-0.514
304	-0.517
304	-0.516
305	-0.521
305	-0.52
305	-0.52
306	-0.505
306	-0.499
307	-0.487
307	-0.488
308	-0.501
308	-0.499
309	-0.501
309	-0.492
310	-0.477
310	-0.472
311	-0.463
311	-0.471
311	-0.469
312	-0.464
312	-0.461
313	-0.448
313	-0.451
314	-0.449
314	-0.452
315	-0.454
315	-0.453
316	-0.45
316	-0.442
317	-0.434
317	-0.432
318	-0.422
318	-0.42
318	-0.414
319	-0.404
319	-0.398
320	-0.392
320	-0.391
321	-0.395
321	-0.393
322	-0.387
322	-0.38
323	-0.379
323	-0.374
324	-0.364
324	-0.354
324	-0.345
325	-0.336
325	-0.318
326	-0.303
326	-0.286
327	-0.271
327	-0.25
328	-0.224
328	-0.202
329	-0.179
329	-0.156
330	-0.128
330	-0.094
330	-0.068
331	-0.038
331	-0.009
332	0.018
332	0.041
333	0.064
333	0.089
334	0.111
334	0.13
335	0.148
335	0.163
336	0.177
336	0.191
336	0.202
337	0.215
337	0.225
338	0.234
338	0.24
339	0.248
339	0.253
340	0.258
340	0.263
341	0.267
341	0.271
342	0.275
342	0.277
342	0.281
343	0.283
343	0.286
344	0.288
344	0.289
345	0.291
345	0.292
346	0.293
346	0.294
347	0.295
347	0.295
348	0.296
348	0.297
348	0.297
349	0.297
349	0.297
350	0.298
350	0.298
351	0.298
351	0.298
352	0.298
352	0.298
353	0.298
353	0.297
354	0.297
354	0.297
354	0.297
355	0.297
355	0.297
356	0.297
356	0.296
357	0.296
357	0.296
358	0.295
358	0.295
359	0.295
359	0.295
360	0.294
360	0.294
360	0.294
361	0.294
361	0.294
362	0.294
362	0.294
363	0.294
363	0.294
364	0.294
364	0.294
365	0.293
365	0.293
366	0.293
366	0.293
366	0.293
367	0.293
367	0.293
368	0.293
368	0.293
369	0.293
369	0.293
370	0.293
370	0.292
371	0.292
371	0.292
372	0.292
372	0.292
372	0.292
373	0.291
373	0.291
374	0.291
374	0.291
375	0.291
375	0.291
376	0.291
376	0.29
377	0.29
377	0.29
378	0.29
378	0.29
378	0.29
379	0.29
379	0.29
380	0.29
380	0.289
381	0.289
381	0.289
382	0.288
382	0.288
383	0.288
383	0.288
383	0.288
384	0.287
384	0.287
385	0.287
385	0.287
386	0.287
386	0.287
387	0.287
387	0.287
388	0.286
388	0.286
389	0.286
389	0.286
389	0.286
390	0.286
390	0.286
391	0.286
391	0.286
392	0.286
392	0.285
393	0.285
393	0.285
394	0.285
394	0.284
394	0.284
395	0.284
395	0.284
396	0.283
396	0.283
397	0.283
397	0.283
398	0.282
398	0.282
399	0.282
399	0.282
400	0.282
400	0.282
400	0.281
401	0.281
401	0.281
402	0.281
402	0.281
403	0.281
403	0.28
404	0.28
404	0.28
405	0.28
405	0.28
405	0.28
406	0.279
406	0.279
407	0.279
407	0.279
408	0.279
408	0.279
409	0.279
409	0.279
410	0.278
410	0.278
411	0.278
411	0.278
411	0.278
412	0.278
412	0.278
413	0.278
413	0.278
414	0.278
414	0.278
415	0.277
415	0.277
416	0.277
416	0.277
416	0.276
417	0.276
417	0.276
418	0.276
418	0.276
419	0.276
419	0.276
420	0.276
420	0.276
421	0.276
421	0.276
421	0.276
422	0.276
422	0.276
423	0.275
423	0.275
424	0.275
424	0.274
425	0.274
425	0.274
426	0.273
426	0.273
427	0.273
427	0.273
427	0.272
428	0.272
428	0.272
429	0.272
429	0.272
430	0.272
430	0.272
431	0.272
431	0.271
432	0.271
432	0.271
432	0.271
433	0.271
433	0.27
434	0.27
434	0.27
435	0.27
435	0.27
436	0.27
436	0.27
437	0.27
437	0.27
437	0.27
438	0.27
438	0.27
439	0.27
439	0.27
440	0.269
440	0.269
441	0.269
441	0.269
442	0.268
442	0.268
442	0.268
443	0.268
443	0.268
444	0.268
444	0.268
445	0.268
445	0.268
446	0.269
446	0.269
447	0.269
447	0.269
447	0.269
448	0.269
448	0.269
449	0.269
449	0.269
450	0.269
450	0.269
451	0.269
451	0.269
452	0.269
452	0.269
452	0.269
453	0.268
453	0.268
454	0.268
454	0.268
455	0.268
455	0.268
456	0.268
456	0.268
457	0.268
457	0.268
458	0.268
458	0.268
458	0.268
459	0.268
459	0.268
460	0.267
460	0.267
461	0.267
461	0.267
462	0.267
462	0.267
463	0.268
463	0.268
463	0.268
464	0.268
464	0.268
465	0.268
465	0.268
466	0.269
466	0.269
467	0.269
467	0.269
467	0.269
468	0.27
468	0.27
469	0.27
469	0.27
470	0.271
470	0.271
471	0.271
471	0.272
472	0.272
472	0.272
472	0.273
473	0.273
473	0.273
474	0.273
474	0.274
475	0.274
475	0.274
476	0.275
476	0.275
477	0.275
477	0.275
477	0.276
478	0.276
478	0.277
479	0.277
479	0.277
480	0.277
480	0.278
481	0.279
481	0.279
482	0.28
482	0.281
482	0.281
483	0.282
483	0.283
484	0.284
484	0.284
485	0.285
485	0.285
486	0.286
486	0.287
487	0.288
487	0.289
487	0.289
488	0.29
488	0.291
489	0.292
489	0.294
490	0.295
490	0.296
491	0.298
491	0.299
492	0.3
492	0.301
492	0.302
493	0.303
493	0.304
494	0.306
494	0.307
495	0.308
495	0.309
496	0.311
496	0.312
496	0.314
497	0.315
497	0.317
498	0.318
498	0.32
499	0.321
499	0.323
500	0.325
500	0.327
501	0.329
501	0.33
501	0.331
502	0.333
502	0.334
503	0.336
503	0.338
504	0.339
504	0.341
505	0.343
505	0.344
506	0.346
506	0.348
506	0.349
507	0.351
507	0.353
508	0.355
508	0.357
509	0.359
509	0.361
510	0.363
510	0.365
511	0.367
511	0.369
511	0.371
512	0.372
512	0.374
513	0.376
513	0.378
514	0.379
514	0.381
515	0.383
515	0.385
515	0.386
516	0.388
516	0.39
517	0.392
517	0.394
518	0.395
518	0.397
519	0.399
519	0.4
520	0.402
520	0.403
520	0.405
521	0.407
521	0.409
522	0.41
522	0.412
523	0.414
523	0.415
524	0.416
524	0.417
524	0.419
525	0.42
525	0.42
526	0.421
526	0.422
527	0.423
527	0.424
528	0.425
528	0.426
529	0.427
529	0.429
529	0.43
530	0.431
530	0.432
531	0.433
531	0.434
532	0.434
532	0.435
533	0.436
533	0.437
533	0.437
534	0.438
534	0.438
535	0.438
535	0.439
536	0.438
536	0.438
537	0.439
537	0.439
538	0.439
538	0.439
538	0.44
539	0.44
539	0.44
540	0.44
540	0.44
541	0.441
541	0.441
542	0.441
542	0.441
542	0.44
543	0.44
543	0.439
544	0.439
544	0.439
545	0.439
545	0.439
546	0.439
546	0.438
547	0.437
547	0.437
547	0.437
548	0.437
548	0.436
549	0.436
549	0.436
550	0.435
550	0.435
551	0.434
551	0.435
551	0.435
552	0.435
552	0.436
553	0.436
553	0.436
554	0.436
554	0.435
555	0.435
555	0.434
556	0.434
556	0.433
556	0.433
557	0.432
557	0.431
558	0.43
558	0.429
559	0.429
559	0.428
560	0.427
560	0.427
560	0.426
561	0.426
561	0.425
562	0.424
562	0.423
563	0.422
563	0.422
564	0.421
564	0.421
564	0.421
565	0.421
565	0.42
566	0.42
566	0.42
567	0.419
567	0.419
568	0.418
568	0.418
568	0.417
569	0.416
569	0.415
570	0.413
570	0.412
571	0.411
571	0.411
572	0.41
572	0.409
573	0.408
573	0.407
573	0.406
574	0.406
574	0.405
575	0.405
575	0.405
576	0.405
576	0.404
577	0.403
577	0.403
577	0.403
578	0.403
578	0.402
579	0.403
579	0.402
580	0.401
580	0.399
581	0.398
581	0.398
581	0.398
582	0.398
582	0.397
583	0.397
583	0.396
584	0.394
584	0.393
585	0.393
585	0.393
585	0.392
586	0.392
586	0.391
587	0.39
587	0.39
588	0.389
588	0.388
589	0.388
589	0.388
590	0.387
590	0.387
590	0.387
591	0.386
591	0.385
592	0.383
592	0.382
593	0.382
593	0.381
594	0.38
594	0.38
594	0.379
595	0.379
595	0.378
596	0.377
596	0.377
597	0.377
597	0.376
598	0.375
598	0.374
598	0.374
599	0.373
599	0.371
600	0.37
600	0.369
601	0.368
601	0.366
602	0.365
602	0.364
602	0.363
603	0.363
603	0.363
604	0.362
604	0.362
605	0.362
605	0.362
606	0.361
606	0.36
606	0.359
607	0.358
607	0.357
608	0.355
608	0.354
609	0.353
609	0.352
610	0.351
610	0.35
610	0.349
611	0.349
611	0.349
612	0.349
612	0.349
613	0.348
613	0.347
614	0.345
614	0.344
614	0.342
615	0.341
615	0.34
616	0.338
616	0.337
617	0.335
617	0.333
618	0.332
618	0.331
618	0.33
619	0.329
619	0.329
620	0.328
620	0.327
621	0.325
621	0.324
622	0.323
622	0.322
622	0.32
623	0.319
623	0.318
624	0.317
624	0.315
625	0.314
625	0.313
626	0.311
626	0.309
626	0.308
627	0.306
627	0.303
628	0.301
628	0.299
629	0.297
629	0.294
630	0.291
630	0.288
630	0.285
631	0.282
631	0.279
632	0.275
632	0.272
633	0.268
633	0.264
634	0.26
634	0.256
634	0.252
635	0.248
635	0.243
636	0.238
636	0.233
637	0.228
637	0.223
638	0.217
638	0.211
638	0.205
639	0.198
639	0.191
640	0.184
640	0.177
641	0.17
641	0.164
642	0.157
642	0.15
642	0.143
643	0.136
643	0.128
644	0.12
644	0.112
645	0.104
645	0.096
646	0.088
646	0.08
646	0.071
647	0.063
647	0.055
648	0.047
648	0.038
649	0.029
649	0.021
650	0.012
650	0.003
650	-0.006
651	-0.017
651	-0.032
652	-0.048
652	-0.065
653	-0.08
653	-0.093
653	-0.089
654	-0.066
654	-0.052
655	-0.055
655	-0.059
656	-0.065
656	-0.071
657	-0.075
657	-0.079
657	-0.084
658	-0.09
658	-0.12
659	-0.21
659	-0.316
660	-0.361
660	-0.389
661	-0.416
661	-0.447
661	-0.48
662	-0.514
662	-0.548
663	-0.589
663	-0.632
664	-0.677
664	-0.73
665	-0.782
665	-0.841
665	-0.898
666	-0.955
666	-1.018
667	-1.084
667	-1.15
668	-1.222
668	-1.295
669	-1.37
669	-1.444
669	-1.523
670	-1.591
670	-1.618
671	-1.734
671	-1.993
672	-2.215
672	-2.402
672	-2.529
673	-2.619
673	-2.698
674	-2.742
674	-2.762
675	-2.786
675	-2.926
676	-3.122
676	-3.075
676	-2.853
677	-2.651
677	-2.492
678	-2.323
678	-2.045
679	-1.772
679	-1.635
680	-1.54
680	-1.456
680	-1.384
681	-1.339
681	-1.279
682	-1.238
682	-1.2
683	-1.163
683	-1.145
684	-1.123
684	-1.101
684	-1.078
685	-1.053
685	-1.03
686	-1.004
686	-0.987
687	-0.961
687	-0.948
687	-0.928
688	-0.901
688	-0.879
689	-0.858
689	-0.843
690	-0.822
690	-0.809
691	-0.801
691	-0.806
691	-0.82
692	-0.811
692	-0.8
693	-0.795
693	-0.802
694	-0.797
694	-0.791
695	-0.793
695	-0.791
695	-0.774
696	-0.77
696	-0.749
697	-0.749
697	-0.765
698	-0.767
698	-0.757
698	-0.772
699	-0.772
699	-0.772
700	-0.762
700	-0.776
701	-0.775
701	-0.779
702	-0.777
702	-0.765
702	-0.757
703	-0.748
703	-0.739
704	-0.736
704	-0.736
705	-0.746
705	-0.739
705	-0.727
706	-0.727
706	-0.722
707	-0.728
707	-0.724
708	-0.723
708	-0.715
709	-0.718
709	-0.718
709	-0.71
710	-0.718
710	-0.728
711	-0.72
711	-0.721
712	-0.721
712	-0.733
713	-0.733
713	-0.738
713	-0.728
714	-0.725
714	-0.726
715	-0.716
715	-0.7
716	-0.709
716	-0.71
716	-0.7
717	-0.701
717	-0.703
718	-0.695
718	-0.696
719	-0.703
719	-0.705
720	-0.7
720	-0.71
720	-0.703
721	-0.692
721	-0.693
722	-0.68
722	-0.668
723	-0.666
723	-0.671
723	-0.656
724	-0.659
724	-0.664
725	-0.663
725	-0.672
726	-0.684
726	-0.689
727	-0.695
727	-0.712
727	-0.718
728	-0.719
728	-0.724
729	-0.724
729	-0.728
730	-0.734
730	-0.727
730	-0.717
731	-0.699
731	-0.709
732	-0.713
732	-0.715
733	-0.711
733	-0.717
734	-0.711
734	-0.713
734	-0.7
735	-0.698
735	-0.699
736	-0.711
736	-0.699
737	-0.691
737	-0.691
737	-0.699
738	-0.694
738	-0.693
739	-0.688
739	-0.702
740	-0.7
740	-0.699
741	-0.696
741	-0.695
741	-0.699
742	-0.697
742	-0.699
743	-0.708
743	-0.712
744	-0.71
744	-0.7
744	-0.702
745	-0.709
745	-0.699
746	-0.699
746	-0.695
747	-0.696
747	-0.685
748	-0.671
748	-0.678
748	-0.679
749	-0.677
749	-0.678
750	-0.666
750	-0.669
751	-0.672
751	-0.68
751	-0.683
752	-0.686
752	-0.695
753	-0.689
753	-0.687
754	-0.691
754	-0.685
754	-0.698
755	-0.713
755	-0.725
756	-0.714
756	-0.711
757	-0.708
757	-0.704
758	-0.708
758	-0.706
758	-0.709
759	-0.716
759	-0.701
760	-0.695
760	-0.691
761	-0.702
761	-0.699
761	-0.7
762	-0.707
762	-0.705
763	-0.714
763	-0.711
764	-0.71
764	-0.718
764	-0.723
765	-0.714
765	-0.701
766	-0.708
766	-0.715
767	-0.729
767	-0.724
768	-0.714
768	-0.723
768	-0.729
769	-0.744
769	-0.746
770	-0.748
770	-0.76
771	-0.759
771	-0.758
771	-0.76
772	-0.763
772	-0.763
773	-0.762
773	-0.756
774	-0.755
774	-0.754
775	-0.759
775	-0.754
775	-0.76
776	-0.761
776	-0.749
777	-0.76
777	-0.779
778	-0.775
778	-0.798
778	-0.785
779	-0.807
779	-0.815
780	-0.828
780	-0.829
781	-0.842
781	-0.839
781	-0.855
782	-0.855
782	-0.86
783	-0.845
783	-0.844
784	-0.824
784	-0.814
784	-0.823
785	-0.829
785	-0.814
786	-0.817
786	-0.792
787	-0.778
787	-0.777
788	-0.779
788	-0.79
788	-0.799
789	-0.8
789	-0.782
790	-0.762
790	-0.764
791	-0.765
791	-0.784
791	-0.79
792	-0.785
792	-0.761
793	-0.749
793	-0.727
794	-0.732
794	-0.724
794	-0.731
795	-0.727
795	-0.72
796	-0.704
796	-0.71
797	-0.703
797	-0.718
797	-0.727
798	-0.738
798	-0.73
799	-0.74
799	-0.73
800	-0.734
800	-0.727
801	-0.732
801	-0.719
801	-0.73
802	-0.736
802	-0.735
803	-0.738
803	-0.75
804	-0.745
804	-0.753
804	-0.741
805	-0.745
805	-0.735
806	-0.738
806	-0.722
807	-0.718
807	-0.701
807	-0.688
808	-0.681
808	-0.675
809	-0.663
809	-0.674
810	-0.672
810	-0.665
810	-0.663
811	-0.67
811	-0.662
812	-0.664
812	-0.666
813	-0.67
813	-0.665
813	-0.668
814	-0.67
814	-0.674
815	-0.677
815	-0.677
816	-0.669
816	-0.675
817	-0.682
817	-0.702
817	-0.715
818	-0.722
818	-0.726
819	-0.718
819	-0.718
820	-0.729
820	-0.727
820	-0.738
821	-0.736
821	-0.722
822	-0.689
822	-0.664
823	-0.665
823	-0.668
823	-0.663
824	-0.66
824	-0.661
825	-0.655
825	-0.635
826	-0.63
826	-0.639
826	-0.65
827	-0.645
827	-0.639
828	-0.619
828	-0.621
829	-0.61
829	-0.595
829	-0.586
830	-0.595
830	-0.591
831	-0.584
831	-0.574
832	-0.573
832	-0.566
832	-0.573
833	-0.567
833	-0.567
834	-0.566
834	-0.574
835	-0.563
835	-0.557
835	-0.551
836	-0.548
836	-0.543
837	-0.541
837	-0.531
838	-0.521
838	-0.511
839	-0.498
839	-0.488
839	-0.478
840	-0.468
840	-0.467
841	-0.455
841	-0.448
842	-0.442
842	-0.433
842	-0.425
843	-0.419
843	-0.414
844	-0.404
844	-0.395
845	-0.389
845	-0.378
845	-0.366
846	-0.355
846	-0.341
847	-0.33
847	-0.32
848	-0.31
848	-0.299
848	-0.285
849	-0.275
849	-0.264
850	-0.25
850	-0.243
851	-0.234
851	-0.224
851	-0.216
852	-0.201
852	-0.187
853	-0.177
853	-0.17
854	-0.158
854	-0.146
854	-0.135
855	-0.125
855	-0.117
856	-0.108
856	-0.1
857	-0.094
857	-0.087
857	-0.077
858	-0.066
858	-0.061
859	-0.052
859	-0.044
860	-0.035
860	-0.023
860	-0.015
861	-0.008
861	0.001
862	0.008
862	0.014
863	0.021
863	0.029
863	0.034
864	0.039
864	0.044
865	0.05
865	0.054
866	0.058
866	0.062
866	0.065
867	0.068
867	0.072
868	0.075
868	0.078
869	0.082
869	0.084
869	0.086
870	0.088
870	0.091
871	0.093
871	0.095
872	0.096
872	0.097
872	0.097
873	0.098
873	0.098
874	0.098
874	0.098
875	0.097
875	0.096
875	0.095
876	0.094
876	0.093
877	0.092
877	0.09
878	0.088
878	0.086
878	0.084
879	0.082
879	0.081
880	0.08
880	0.079
881	0.079
881	0.079
881	0.078
882	0.078
882	0.077
883	0.076
883	0.075
884	0.074
884	0.074
884	0.073
885	0.072
885	0.071
886	0.071
886	0.07
887	0.07
887	0.07
887	0.069
888	0.07
888	0.07
889	0.07
889	0.071
890	0.071
890	0.071
890	0.07
891	0.07
891	0.07
892	0.071
892	0.071
893	0.07
893	0.07
893	0.07
894	0.069
894	0.069
895	0.068
895	0.068
895	0.068
896	0.067
896	0.066
897	0.065
897	0.064
898	0.063
898	0.062
898	0.062
899	0.062
899	0.063
900	0.063
900	0.064
901	0.064
901	0.065
901	0.066
902	0.066
902	0.067
903	0.068
903	0.068
904	0.069
904	0.069
904	0.07
905	0.07
905	0.07
906	0.071
906	0.071
907	0.071
907	0.07
907	0.07
908	0.07
908	0.069
909	0.068
909	0.068
910	0.067
910	0.067
910	0.067
911	0.067
911	0.067
912	0.068
912	0.068
913	0.069
913	0.069
913	0.07
914	0.071
914	0.072
915	0.072
915	0.073
916	0.073
916	0.074
916	0.074
917	0.074
917	0.074
918	0.074
918	0.073
918	0.073
919	0.073
919	0.073
920	0.073
920	0.073
921	0.073
921	0.072
921	0.073
922	0.073
922	0.073
923	0.073
923	0.073
924	0.072
924	0.072
924	0.071
925	0.071
925	0.07
926	0.069
926	0.067
927	0.067
927	0.066
927	0.065
928	0.064
928	0.064
929	0.063
929	0.063
930	0.062
930	0.062
930	0.061
931	0.061
931	0.061
932	0.061
932	0.06
933	0.059
933	0.058
933	0.056
934	0.055
934	0.054
935	0.053
935	0.052
935	0.051
936	0.049
936	0.048
937	0.047
937	0.047
938	0.047
938	0.047
938	0.048
939	0.048
939	0.049
940	0.049
940	0.05
941	0.051
941	0.051
941	0.053
942	0.053
942	0.053
943	0.053
943	0.053
944	0.053
944	0.052
944	0.052
945	0.051
945	0.05
946	0.049
946	0.047
946	0.046
947	0.046
947	0.045
948	0.045
948	0.045
949	0.045
949	0.046
949	0.047
950	0.048
950	0.048
951	0.049
951	0.05
952	0.051
952	0.052
952	0.053
953	0.053
953	0.054
954	0.055
954	0.055
955	0.056
955	0.057
955	0.058
956	0.059
956	0.06
957	0.06
957	0.06
957	0.061
958	0.061
958	0.062
959	0.062
959	0.062
960	0.062
960	0.062
960	0.062
961	0.062
961	0.062
962	0.062
962	0.062
963	0.062
963	0.062
963	0.062
964	0.062
964	0.062
965	0.062
965	0.062
966	0.062
966	0.061
966	0.061
967	0.061
967	0.06
968	0.059
968	0.059
968	0.058
969	0.057
969	0.057
970	0.056
970	0.056
971	0.056
971	0.057
971	0.057
972	0.057
972	0.057
973	0.057
973	0.057
974	0.057
974	0.057
974	0.057
975	0.056
975	0.056
976	0.055
976	0.054
976	0.054
977	0.054
977	0.054
978	0.054
978	0.053
979	0.053
979	0.053
979	0.052
980	0.052
980	0.052
981	0.052
981	0.052
982	0.051
982	0.051
982	0.051
983	0.05
983	0.05
984	0.05
984	0.051
984	0.051
985	0.051
985	0.052
986	0.051
986	0.051
987	0.051
987	0.051
987	0.051
988	0.05
988	0.049
989	0.048
989	0.048
990	0.047
990	0.046
990	0.045
991	0.045
991	0.044
992	0.044
992	0.044
992	0.043
993	0.043
993	0.043
994	0.043
994	0.043
995	0.043
995	0.042
995	0.042
996	0.042
996	0.041
997	0.041
997	0.041
997	0.041
998	0.041
998	0.041
999	0.041
999	0.042
1000	0.042
1000	0.042
1000	0.042
1001	0.043
1001	0.043
1002	0.043
1002	0.044
1003	0.044
1003	0.044
1003	0.043
1004	0.043
1004	0.042
1005	0.042
1005	0.041
1005	0.04
1006	0.039
1006	0.038
1007	0.037
1007	0.036
1008	0.035
1008	0.035
1008	0.035
1009	0.034
1009	0.034
1010	0.034
1010	0.034
1010	0.034
1011	0.034
1011	0.033
1012	0.033
1012	0.032
1013	0.031
1013	0.03
1013	0.029
1014	0.028
1014	0.027
1015	0.027
1015	0.026
1016	0.025
1016	0.024
1016	0.024
1017	0.023
1017	0.022
1018	0.022
1018	0.021
1018	0.02
1019	0.02
1019	0.019
1020	0.018
1020	0.018
1021	0.017
1021	0.017
1021	0.016
1022	0.015
1022	0.014
1023	0.014
1023	0.014
1023	0.014
1024	0.013
1024	0.013
1025	0.013
1025	0.014
1026	0.014
1026	0.015
1026	0.015
1027	0.015
1027	0.016
1028	0.016
1028	0.016
1028	0.016
1029	0.016
1029	0.016
1030	0.015
1030	0.015
1031	0.014
1031	0.014
1031	0.013
1032	0.013
1032	0.013
1033	0.013
1033	0.013
1033	0.013
1034	0.013
1034	0.013
1035	0.013
1035	0.013
1036	0.013
1036	0.013
1036	0.013
1037	0.013
1037	0.013
1038	0.013
1038	0.013
1039	0.014
1039	0.014
1039	0.014
1040	0.015
1040	0.015
1041	0.016
1041	0.016
1041	0.016
1042	0.016
1042	0.016
1043	0.015
1043	0.015
1044	0.015
1044	0.014
1044	0.013
1045	0.013
1045	0.012
1046	0.012
1046	0.011
1046	0.011
1047	0.012
1047	0.011
1048	0.012
1048	0.012
1049	0.012
1049	0.012
1049	0.013
1050	0.013
1050	0.013
1051	0.013
1051	0.013
1051	0.013
1052	0.014
1052	0.014
1053	0.014
1053	0.014
1053	0.014
1054	0.014
1054	0.014
1055	0.014
1055	0.014
1056	0.013
1056	0.012
1056	0.011
1057	0.01
1057	0.01
1058	0.009
1058	0.008
1058	0.008
1059	0.008
1059	0.007
1060	0.007
1060	0.006
1061	0.006
1061	0.006
1061	0.006
1062	0.006
1062	0.006
1063	0.006
1063	0.006
1063	0.006
1064	0.006
1064	0.006
1065	0.006
1065	0.006
1066	0.006
1066	0.006
1066	0.006
1067	0.006
1067	0.005
1068	0.004
1068	0.004
1068	0.003
1069	0.003
1069	0.002
1070	0.002
1070	0.002
1071	0.001
1071	0.001
1071	0.001
1072	0
1072	0
1073	0
1073	0
1073	0
1074	0
1074	0.001
1075	0
1075	-0
1076	-0.001
1076	-0.001
1076	-0.002
1077	-0.002
1077	-0.003
1078	-0.004
1078	-0.004
1078	-0.005
1079	-0.006
1079	-0.007
1080	-0.007
1080	-0.008
1080	-0.008
1081	-0.009
1081	-0.01
1082	-0.01
1082	-0.011
1083	-0.012
1083	-0.013
1083	-0.014
1084	-0.015
1084	-0.016
1085	-0.017
1085	-0.017
1085	-0.018
1086	-0.018
1086	-0.019
1087	-0.018
1087	-0.018
1088	-0.019
1088	-0.019
1088	-0.02
1089	-0.02
1089	-0.021
1090	-0.022
1090	-0.023
1090	-0.024
1091	-0.025
1091	-0.025
1092	-0.026
1092	-0.025
1092	-0.026
1093	-0.027
1093	-0.027
1094	-0.027
1094	-0.028
1095	-0.029
1095	-0.029
1095	-0.029
1096	-0.031
1096	-0.032
1097	-0.033
1097	-0.034
1097	-0.034
1098	-0.036
1098	-0.038
1099	-0.039
1099	-0.04
1100	-0.042
1100	-0.043
1100	-0.045
1101	-0.047
1101	-0.049
1102	-0.052
1102	-0.055
1102	-0.056
1103	-0.057
1103	-0.059
1104	-0.06
1104	-0.062
1104	-0.064
1105	-0.065
1105	-0.068
1106	-0.073
1106	-0.073
1107	-0.078
1107	-0.081
1107	-0.086
1108	-0.088
1108	-0.091
1109	-0.095
1109	-0.1
1109	-0.103
1110	-0.104
1110	-0.106
1111	-0.116
1111	-0.114
