Data from 17C_3.2A_35min_2sec_int_Absorbance__77__01639.txt Node

Date: Mon Jun 19 17:34:20 CEST 2023
User: Marek
Spectrometer: MAYP115816
Trigger mode: 0
Integration Time (sec): 2.500000E-1
Scans to average: 10
Electric dark correction enabled: true
Nonlinearity correction enabled: true
Boxcar width: 5
XAxis mode: Wavelengths
Number of Pixels in Spectrum: 2068
>>>>>Begin Spectral Data<<<<<
199	-0.734
199	-0.745
200	-0.646
200	-0.593
201	-0.554
201	-0.541
202	-0.522
202	-0.511
203	-0.503
203	-0.496
204	-0.48
204	-0.465
205	-0.441
205	-0.436
205	-0.434
206	-0.437
206	-0.439
207	-0.43
207	-0.431
208	-0.429
208	-0.431
209	-0.424
209	-0.424
210	-0.428
210	-0.434
211	-0.436
211	-0.439
212	-0.441
212	-0.449
213	-0.446
213	-0.448
213	-0.451
214	-0.448
214	-0.449
215	-0.45
215	-0.454
216	-0.458
216	-0.464
217	-0.46
217	-0.464
218	-0.468
218	-0.469
219	-0.475
219	-0.486
220	-0.492
220	-0.503
221	-0.501
221	-0.502
221	-0.494
222	-0.491
222	-0.491
223	-0.494
223	-0.498
224	-0.501
224	-0.502
225	-0.496
225	-0.489
226	-0.496
226	-0.496
227	-0.5
227	-0.509
228	-0.51
228	-0.511
229	-0.512
229	-0.506
229	-0.5
230	-0.504
230	-0.506
231	-0.501
231	-0.493
232	-0.488
232	-0.484
233	-0.479
233	-0.478
234	-0.475
234	-0.472
235	-0.476
235	-0.482
236	-0.48
236	-0.482
236	-0.487
237	-0.494
237	-0.494
238	-0.502
238	-0.5
239	-0.499
239	-0.508
240	-0.507
240	-0.502
241	-0.508
241	-0.507
242	-0.512
242	-0.508
243	-0.504
243	-0.506
243	-0.515
244	-0.515
244	-0.513
245	-0.526
245	-0.526
246	-0.531
246	-0.538
247	-0.541
247	-0.545
248	-0.553
248	-0.549
249	-0.55
249	-0.56
250	-0.557
250	-0.553
250	-0.555
251	-0.552
251	-0.551
252	-0.554
252	-0.542
253	-0.547
253	-0.56
254	-0.56
254	-0.557
255	-0.565
255	-0.559
256	-0.555
256	-0.566
257	-0.561
257	-0.556
258	-0.573
258	-0.57
258	-0.564
259	-0.56
259	-0.569
260	-0.569
260	-0.574
261	-0.586
261	-0.578
262	-0.576
262	-0.579
263	-0.568
263	-0.562
264	-0.562
264	-0.571
265	-0.565
265	-0.572
265	-0.577
266	-0.575
266	-0.572
267	-0.585
267	-0.593
268	-0.608
268	-0.615
269	-0.613
269	-0.606
270	-0.612
270	-0.615
271	-0.611
271	-0.613
272	-0.616
272	-0.611
272	-0.602
273	-0.599
273	-0.611
274	-0.616
274	-0.619
275	-0.618
275	-0.611
276	-0.618
276	-0.614
277	-0.618
277	-0.635
278	-0.646
278	-0.642
278	-0.634
279	-0.637
279	-0.649
280	-0.648
280	-0.648
281	-0.643
281	-0.648
282	-0.64
282	-0.641
283	-0.634
283	-0.634
284	-0.63
284	-0.621
285	-0.618
285	-0.616
285	-0.612
286	-0.619
286	-0.613
287	-0.611
287	-0.594
288	-0.585
288	-0.593
289	-0.605
289	-0.614
290	-0.603
290	-0.601
291	-0.598
291	-0.593
292	-0.595
292	-0.6
292	-0.608
293	-0.613
293	-0.602
294	-0.588
294	-0.578
295	-0.577
295	-0.574
296	-0.573
296	-0.569
297	-0.563
297	-0.549
298	-0.538
298	-0.548
298	-0.537
299	-0.533
299	-0.534
300	-0.528
300	-0.522
301	-0.518
301	-0.517
302	-0.526
302	-0.534
303	-0.521
303	-0.505
304	-0.507
304	-0.508
305	-0.509
305	-0.509
305	-0.509
306	-0.493
306	-0.487
307	-0.474
307	-0.475
308	-0.488
308	-0.485
309	-0.485
309	-0.472
310	-0.461
310	-0.457
311	-0.448
311	-0.457
311	-0.454
312	-0.449
312	-0.447
313	-0.432
313	-0.436
314	-0.434
314	-0.438
315	-0.438
315	-0.435
316	-0.433
316	-0.424
317	-0.416
317	-0.411
318	-0.4
318	-0.397
318	-0.392
319	-0.381
319	-0.374
320	-0.368
320	-0.37
321	-0.376
321	-0.373
322	-0.369
322	-0.362
323	-0.362
323	-0.358
324	-0.351
324	-0.343
324	-0.334
325	-0.323
325	-0.302
326	-0.285
326	-0.266
327	-0.249
327	-0.228
328	-0.201
328	-0.179
329	-0.153
329	-0.126
330	-0.098
330	-0.064
330	-0.035
331	-0.003
331	0.028
332	0.057
332	0.084
333	0.112
333	0.14
334	0.164
334	0.184
335	0.206
335	0.224
336	0.241
336	0.257
336	0.27
337	0.285
337	0.295
338	0.305
338	0.313
339	0.322
339	0.329
340	0.335
340	0.341
341	0.346
341	0.35
342	0.355
342	0.358
342	0.363
343	0.365
343	0.369
344	0.371
344	0.372
345	0.374
345	0.375
346	0.376
346	0.377
347	0.378
347	0.379
348	0.379
348	0.38
348	0.38
349	0.38
349	0.381
350	0.381
350	0.381
351	0.381
351	0.381
352	0.381
352	0.381
353	0.381
353	0.38
354	0.38
354	0.38
354	0.38
355	0.379
355	0.379
356	0.379
356	0.379
357	0.378
357	0.377
358	0.377
358	0.377
359	0.376
359	0.376
360	0.376
360	0.376
360	0.375
361	0.375
361	0.375
362	0.375
362	0.375
363	0.375
363	0.375
364	0.374
364	0.374
365	0.374
365	0.374
366	0.373
366	0.373
366	0.373
367	0.373
367	0.372
368	0.372
368	0.372
369	0.371
369	0.371
370	0.371
370	0.37
371	0.37
371	0.369
372	0.369
372	0.369
372	0.368
373	0.368
373	0.368
374	0.367
374	0.367
375	0.366
375	0.366
376	0.366
376	0.366
377	0.365
377	0.365
378	0.365
378	0.364
378	0.364
379	0.364
379	0.363
380	0.363
380	0.362
381	0.361
381	0.361
382	0.36
382	0.36
383	0.359
383	0.359
383	0.359
384	0.358
384	0.358
385	0.357
385	0.357
386	0.357
386	0.356
387	0.356
387	0.356
388	0.355
388	0.355
389	0.354
389	0.354
389	0.354
390	0.354
390	0.354
391	0.353
391	0.353
392	0.353
392	0.352
393	0.352
393	0.351
394	0.351
394	0.35
394	0.349
395	0.349
395	0.348
396	0.348
396	0.348
397	0.347
397	0.347
398	0.347
398	0.346
399	0.346
399	0.346
400	0.345
400	0.345
400	0.345
401	0.344
401	0.344
402	0.343
402	0.343
403	0.342
403	0.342
404	0.342
404	0.341
405	0.341
405	0.341
405	0.34
406	0.34
406	0.34
407	0.34
407	0.339
408	0.339
408	0.339
409	0.339
409	0.338
410	0.338
410	0.338
411	0.338
411	0.338
411	0.337
412	0.337
412	0.337
413	0.337
413	0.336
414	0.336
414	0.336
415	0.335
415	0.335
416	0.335
416	0.334
416	0.334
417	0.334
417	0.334
418	0.334
418	0.333
419	0.333
419	0.333
420	0.333
420	0.333
421	0.333
421	0.333
421	0.333
422	0.333
422	0.333
423	0.333
423	0.332
424	0.332
424	0.331
425	0.331
425	0.331
426	0.33
426	0.33
427	0.33
427	0.329
427	0.329
428	0.329
428	0.329
429	0.329
429	0.329
430	0.329
430	0.329
431	0.329
431	0.328
432	0.328
432	0.328
432	0.328
433	0.328
433	0.327
434	0.327
434	0.327
435	0.327
435	0.327
436	0.327
436	0.327
437	0.327
437	0.327
437	0.327
438	0.326
438	0.327
439	0.326
439	0.327
440	0.326
440	0.326
441	0.326
441	0.326
442	0.326
442	0.326
442	0.326
443	0.326
443	0.326
444	0.326
444	0.326
445	0.326
445	0.327
446	0.327
446	0.327
447	0.327
447	0.328
447	0.328
448	0.328
448	0.328
449	0.328
449	0.328
450	0.329
450	0.329
451	0.329
451	0.329
452	0.329
452	0.329
452	0.33
453	0.33
453	0.33
454	0.33
454	0.33
455	0.33
455	0.33
456	0.33
456	0.33
457	0.331
457	0.331
458	0.331
458	0.331
458	0.331
459	0.332
459	0.332
460	0.332
460	0.332
461	0.332
461	0.333
462	0.333
462	0.334
463	0.334
463	0.335
463	0.335
464	0.336
464	0.336
465	0.337
465	0.338
466	0.338
466	0.339
467	0.339
467	0.34
467	0.341
468	0.341
468	0.342
469	0.343
469	0.344
470	0.345
470	0.346
471	0.346
471	0.347
472	0.348
472	0.348
472	0.349
473	0.35
473	0.351
474	0.352
474	0.353
475	0.354
475	0.355
476	0.356
476	0.357
477	0.357
477	0.358
477	0.36
478	0.361
478	0.362
479	0.363
479	0.364
480	0.366
480	0.367
481	0.368
481	0.37
482	0.371
482	0.373
482	0.375
483	0.377
483	0.379
484	0.38
484	0.381
485	0.383
485	0.385
486	0.386
486	0.388
487	0.39
487	0.392
487	0.394
488	0.396
488	0.398
489	0.401
489	0.404
490	0.406
490	0.409
491	0.411
491	0.414
492	0.416
492	0.418
492	0.421
493	0.424
493	0.426
494	0.429
494	0.432
495	0.434
495	0.437
496	0.44
496	0.443
496	0.446
497	0.45
497	0.453
498	0.456
498	0.459
499	0.462
499	0.465
500	0.469
500	0.473
501	0.476
501	0.479
501	0.482
502	0.485
502	0.488
503	0.492
503	0.495
504	0.499
504	0.502
505	0.506
505	0.509
506	0.513
506	0.516
506	0.519
507	0.523
507	0.526
508	0.53
508	0.534
509	0.537
509	0.541
510	0.545
510	0.548
511	0.552
511	0.556
511	0.559
512	0.563
512	0.566
513	0.569
513	0.573
514	0.576
514	0.58
515	0.583
515	0.586
515	0.589
516	0.592
516	0.595
517	0.598
517	0.601
518	0.603
518	0.606
519	0.608
519	0.61
520	0.612
520	0.615
520	0.617
521	0.619
521	0.622
522	0.623
522	0.625
523	0.628
523	0.629
524	0.631
524	0.632
524	0.632
525	0.633
525	0.634
526	0.634
526	0.635
527	0.636
527	0.636
528	0.636
528	0.637
529	0.637
529	0.637
529	0.637
530	0.638
530	0.637
531	0.637
531	0.637
532	0.636
532	0.635
533	0.634
533	0.632
533	0.631
534	0.629
534	0.628
535	0.626
535	0.624
536	0.621
536	0.619
537	0.616
537	0.614
538	0.611
538	0.609
538	0.606
539	0.604
539	0.602
540	0.599
540	0.596
541	0.593
541	0.59
542	0.586
542	0.583
542	0.579
543	0.575
543	0.571
544	0.567
544	0.563
545	0.56
545	0.556
546	0.553
546	0.549
547	0.544
547	0.54
547	0.536
548	0.532
548	0.528
549	0.525
549	0.52
550	0.516
550	0.511
551	0.507
551	0.503
551	0.499
552	0.495
552	0.492
553	0.488
553	0.484
554	0.479
554	0.475
555	0.471
555	0.466
556	0.462
556	0.457
556	0.453
557	0.448
557	0.443
558	0.438
558	0.433
559	0.429
559	0.424
560	0.419
560	0.414
560	0.41
561	0.406
561	0.402
562	0.397
562	0.393
563	0.389
563	0.385
564	0.381
564	0.377
564	0.373
565	0.369
565	0.365
566	0.361
566	0.357
567	0.353
567	0.348
568	0.344
568	0.34
568	0.335
569	0.331
569	0.327
570	0.322
570	0.318
571	0.314
571	0.31
572	0.307
572	0.303
573	0.299
573	0.296
573	0.292
574	0.289
574	0.286
575	0.283
575	0.28
576	0.277
576	0.273
577	0.27
577	0.267
577	0.265
578	0.262
578	0.26
579	0.257
579	0.255
580	0.251
580	0.247
581	0.243
581	0.24
581	0.238
582	0.236
582	0.234
583	0.231
583	0.228
584	0.225
584	0.221
585	0.219
585	0.217
585	0.215
586	0.213
586	0.211
587	0.208
587	0.206
588	0.204
588	0.201
589	0.199
589	0.198
590	0.196
590	0.194
590	0.192
591	0.19
591	0.186
592	0.184
592	0.181
593	0.18
593	0.178
594	0.176
594	0.175
594	0.173
595	0.172
595	0.17
596	0.168
596	0.167
597	0.166
597	0.164
598	0.162
598	0.16
598	0.159
599	0.157
599	0.155
600	0.153
600	0.151
601	0.149
601	0.147
602	0.145
602	0.144
602	0.142
603	0.141
603	0.141
604	0.14
604	0.139
605	0.139
605	0.138
606	0.137
606	0.135
606	0.134
607	0.132
607	0.131
608	0.13
608	0.127
609	0.126
609	0.125
610	0.124
610	0.123
610	0.122
611	0.122
611	0.121
612	0.121
612	0.121
613	0.12
613	0.119
614	0.117
614	0.116
614	0.115
615	0.113
615	0.112
616	0.111
616	0.109
617	0.108
617	0.106
618	0.105
618	0.104
618	0.104
619	0.103
619	0.103
620	0.103
620	0.103
621	0.102
621	0.101
622	0.1
622	0.1
622	0.099
623	0.098
623	0.098
624	0.097
624	0.096
625	0.096
625	0.095
626	0.095
626	0.094
626	0.094
627	0.093
627	0.092
628	0.091
628	0.09
629	0.089
629	0.088
630	0.087
630	0.086
630	0.085
631	0.084
631	0.082
632	0.081
632	0.08
633	0.078
633	0.077
634	0.076
634	0.075
634	0.074
635	0.073
635	0.071
636	0.069
636	0.068
637	0.066
637	0.064
638	0.062
638	0.06
638	0.058
639	0.055
639	0.052
640	0.05
640	0.048
641	0.045
641	0.043
642	0.041
642	0.038
642	0.036
643	0.033
643	0.03
644	0.028
644	0.025
645	0.022
645	0.019
646	0.016
646	0.013
646	0.01
647	0.007
647	0.004
648	0
648	-0.003
649	-0.007
649	-0.011
650	-0.015
650	-0.019
650	-0.024
651	-0.03
651	-0.038
652	-0.045
652	-0.054
653	-0.06
653	-0.067
653	-0.064
654	-0.056
654	-0.055
655	-0.058
655	-0.061
656	-0.065
656	-0.069
657	-0.071
657	-0.074
657	-0.078
658	-0.082
658	-0.099
659	-0.148
659	-0.2
660	-0.225
660	-0.242
661	-0.258
661	-0.278
661	-0.298
662	-0.316
662	-0.336
663	-0.358
663	-0.383
664	-0.406
664	-0.438
665	-0.467
665	-0.504
665	-0.539
666	-0.573
666	-0.613
667	-0.655
667	-0.701
668	-0.754
668	-0.81
669	-0.868
669	-0.925
669	-0.985
670	-1.032
670	-1.081
671	-1.307
671	-1.71
672	-2.046
672	-2.284
672	-2.441
673	-2.551
673	-2.6
674	-2.62
674	-2.635
675	-2.66
675	-2.802
676	-3.004
676	-2.961
676	-2.711
677	-2.465
677	-2.221
678	-1.818
678	-1.345
679	-1.158
679	-1.063
680	-0.996
680	-0.939
680	-0.892
681	-0.871
681	-0.832
682	-0.814
682	-0.792
683	-0.774
683	-0.774
684	-0.77
684	-0.766
684	-0.757
685	-0.748
685	-0.741
686	-0.727
686	-0.722
687	-0.706
687	-0.709
687	-0.698
688	-0.68
688	-0.67
689	-0.657
689	-0.652
690	-0.639
690	-0.632
691	-0.63
691	-0.64
691	-0.661
692	-0.656
692	-0.653
693	-0.652
693	-0.661
694	-0.662
694	-0.658
695	-0.666
695	-0.666
695	-0.656
696	-0.656
696	-0.638
697	-0.642
697	-0.659
698	-0.665
698	-0.66
698	-0.677
699	-0.682
699	-0.682
700	-0.673
700	-0.689
701	-0.689
701	-0.697
702	-0.696
702	-0.687
702	-0.681
703	-0.673
703	-0.663
704	-0.661
704	-0.662
705	-0.677
705	-0.671
705	-0.661
706	-0.662
706	-0.659
707	-0.663
707	-0.66
708	-0.66
708	-0.654
709	-0.656
709	-0.66
709	-0.651
710	-0.661
710	-0.671
711	-0.664
711	-0.663
712	-0.663
712	-0.677
713	-0.675
713	-0.683
713	-0.675
714	-0.672
714	-0.674
715	-0.662
715	-0.65
716	-0.657
716	-0.662
716	-0.655
717	-0.656
717	-0.66
718	-0.652
718	-0.654
719	-0.662
719	-0.663
720	-0.66
720	-0.672
720	-0.666
721	-0.656
721	-0.658
722	-0.646
722	-0.635
723	-0.632
723	-0.635
723	-0.622
724	-0.624
724	-0.629
725	-0.625
725	-0.634
726	-0.645
726	-0.65
727	-0.658
727	-0.674
727	-0.684
728	-0.686
728	-0.692
729	-0.694
729	-0.699
730	-0.707
730	-0.7
730	-0.692
731	-0.675
731	-0.686
732	-0.689
732	-0.688
733	-0.687
733	-0.692
734	-0.686
734	-0.685
734	-0.672
735	-0.671
735	-0.671
736	-0.683
736	-0.669
737	-0.662
737	-0.663
737	-0.674
738	-0.668
738	-0.669
739	-0.666
739	-0.68
740	-0.679
740	-0.682
741	-0.677
741	-0.678
741	-0.681
742	-0.678
742	-0.675
743	-0.684
743	-0.69
744	-0.688
744	-0.676
744	-0.678
745	-0.685
745	-0.677
746	-0.676
746	-0.672
747	-0.675
747	-0.666
748	-0.653
748	-0.658
748	-0.661
749	-0.66
749	-0.66
750	-0.649
750	-0.652
751	-0.654
751	-0.663
751	-0.663
752	-0.668
752	-0.679
753	-0.674
753	-0.671
754	-0.676
754	-0.671
754	-0.685
755	-0.7
755	-0.712
756	-0.701
756	-0.698
757	-0.695
757	-0.691
758	-0.693
758	-0.691
758	-0.694
759	-0.702
759	-0.688
760	-0.682
760	-0.677
761	-0.687
761	-0.685
761	-0.685
762	-0.692
762	-0.691
763	-0.7
763	-0.696
764	-0.692
764	-0.696
764	-0.699
765	-0.69
765	-0.679
766	-0.685
766	-0.692
767	-0.706
767	-0.698
768	-0.688
768	-0.698
768	-0.702
769	-0.722
769	-0.725
770	-0.728
770	-0.74
771	-0.738
771	-0.741
771	-0.74
772	-0.745
772	-0.745
773	-0.745
773	-0.741
774	-0.739
774	-0.74
775	-0.742
775	-0.738
775	-0.745
776	-0.744
776	-0.735
777	-0.744
777	-0.761
778	-0.757
778	-0.777
778	-0.762
779	-0.786
779	-0.792
780	-0.806
780	-0.804
781	-0.816
781	-0.81
781	-0.824
782	-0.826
782	-0.827
783	-0.815
783	-0.814
784	-0.793
784	-0.784
784	-0.791
785	-0.8
785	-0.785
786	-0.793
786	-0.772
787	-0.759
787	-0.761
788	-0.763
788	-0.774
788	-0.785
789	-0.787
789	-0.772
790	-0.754
790	-0.759
791	-0.758
791	-0.774
791	-0.782
792	-0.777
792	-0.753
793	-0.743
793	-0.721
794	-0.727
794	-0.718
794	-0.727
795	-0.72
795	-0.714
796	-0.7
796	-0.707
797	-0.703
797	-0.718
797	-0.725
798	-0.737
798	-0.731
799	-0.74
799	-0.725
800	-0.732
800	-0.726
801	-0.728
801	-0.714
801	-0.723
802	-0.729
802	-0.728
803	-0.729
803	-0.738
804	-0.733
804	-0.744
804	-0.731
805	-0.736
805	-0.726
806	-0.729
806	-0.713
807	-0.712
807	-0.694
807	-0.682
808	-0.67
808	-0.665
809	-0.651
809	-0.66
810	-0.658
810	-0.651
810	-0.649
811	-0.655
811	-0.649
812	-0.65
812	-0.654
813	-0.661
813	-0.657
813	-0.663
814	-0.665
814	-0.67
815	-0.675
815	-0.678
816	-0.671
816	-0.674
817	-0.683
817	-0.702
817	-0.716
818	-0.724
818	-0.725
819	-0.717
819	-0.716
820	-0.724
820	-0.722
820	-0.733
821	-0.73
821	-0.718
822	-0.684
822	-0.661
823	-0.657
823	-0.662
823	-0.658
824	-0.654
824	-0.657
825	-0.65
825	-0.632
826	-0.627
826	-0.635
826	-0.646
827	-0.642
827	-0.64
828	-0.62
828	-0.622
829	-0.614
829	-0.6
829	-0.595
830	-0.602
830	-0.601
831	-0.594
831	-0.586
832	-0.585
832	-0.577
832	-0.586
833	-0.578
833	-0.579
834	-0.577
834	-0.585
835	-0.571
835	-0.567
835	-0.563
836	-0.558
836	-0.556
837	-0.553
837	-0.542
838	-0.536
838	-0.524
839	-0.512
839	-0.497
839	-0.491
840	-0.48
840	-0.477
841	-0.466
841	-0.458
842	-0.454
842	-0.446
842	-0.439
843	-0.435
843	-0.43
844	-0.422
844	-0.414
845	-0.406
845	-0.395
845	-0.384
846	-0.373
846	-0.359
847	-0.348
847	-0.338
848	-0.326
848	-0.317
848	-0.303
849	-0.295
849	-0.284
850	-0.274
850	-0.268
851	-0.261
851	-0.251
851	-0.245
852	-0.232
852	-0.222
853	-0.214
853	-0.21
854	-0.199
854	-0.189
854	-0.179
855	-0.169
855	-0.163
856	-0.155
856	-0.147
857	-0.141
857	-0.133
857	-0.124
858	-0.115
858	-0.11
859	-0.104
859	-0.096
860	-0.09
860	-0.08
860	-0.074
861	-0.067
861	-0.061
862	-0.055
862	-0.049
863	-0.044
863	-0.036
863	-0.03
864	-0.027
864	-0.022
865	-0.018
865	-0.015
866	-0.011
866	-0.008
866	-0.005
867	-0.003
867	0
868	0.002
868	0.005
869	0.008
869	0.01
869	0.012
870	0.014
870	0.016
871	0.019
871	0.021
872	0.022
872	0.023
872	0.024
873	0.025
873	0.025
874	0.025
874	0.025
875	0.024
875	0.023
875	0.022
876	0.021
876	0.02
877	0.019
877	0.017
878	0.015
878	0.013
878	0.011
879	0.01
879	0.008
880	0.007
880	0.007
881	0.006
881	0.006
881	0.006
882	0.006
882	0.006
883	0.005
883	0.004
884	0.004
884	0.003
884	0.003
885	0.002
885	0.002
886	0.001
886	0.001
887	0
887	0
887	0
888	0.001
888	0.001
889	0.001
889	0.002
890	0.002
890	0.002
890	0.002
891	0.003
891	0.003
892	0.003
892	0.004
893	0.004
893	0.003
893	0.004
894	0.003
894	0.003
895	0.002
895	0.002
895	0.001
896	0.001
896	-0
897	-0.001
897	-0.003
898	-0.003
898	-0.004
898	-0.004
899	-0.004
899	-0.003
900	-0.002
900	-0.002
901	-0.001
901	-0
901	0.001
902	0.001
902	0.002
903	0.002
903	0.003
904	0.003
904	0.004
904	0.004
905	0.005
905	0.006
906	0.006
906	0.007
907	0.007
907	0.007
907	0.006
908	0.006
908	0.006
909	0.006
909	0.005
910	0.005
910	0.004
910	0.004
911	0.004
911	0.005
912	0.005
912	0.006
913	0.006
913	0.007
913	0.008
914	0.009
914	0.009
915	0.01
915	0.011
916	0.011
916	0.012
916	0.012
917	0.012
917	0.012
918	0.012
918	0.012
918	0.012
919	0.012
919	0.012
920	0.012
920	0.013
921	0.013
921	0.013
921	0.013
922	0.013
922	0.013
923	0.013
923	0.013
924	0.013
924	0.013
924	0.012
925	0.011
925	0.01
926	0.009
926	0.008
927	0.007
927	0.006
927	0.006
928	0.005
928	0.005
929	0.004
929	0.004
930	0.003
930	0.003
930	0.003
931	0.002
931	0.002
932	0.002
932	0.001
933	0
933	-0.001
933	-0.003
934	-0.004
934	-0.005
935	-0.006
935	-0.007
935	-0.008
936	-0.009
936	-0.01
937	-0.011
937	-0.011
938	-0.01
938	-0.01
938	-0.01
939	-0.009
939	-0.008
940	-0.007
940	-0.007
941	-0.005
941	-0.005
941	-0.003
942	-0.002
942	-0.002
943	-0.001
943	-0.001
944	-0.002
944	-0.002
944	-0.002
945	-0.003
945	-0.004
946	-0.005
946	-0.006
946	-0.007
947	-0.008
947	-0.008
948	-0.008
948	-0.007
949	-0.007
949	-0.006
949	-0.006
950	-0.005
950	-0.005
951	-0.003
951	-0.002
952	-0.001
952	-0
952	0
953	0.001
953	0.002
954	0.002
954	0.003
955	0.004
955	0.006
955	0.007
956	0.007
956	0.008
957	0.008
957	0.008
957	0.008
958	0.008
958	0.009
959	0.009
959	0.009
960	0.008
960	0.008
960	0.008
961	0.008
961	0.008
962	0.008
962	0.008
963	0.008
963	0.008
963	0.008
964	0.008
964	0.008
965	0.009
965	0.009
966	0.009
966	0.009
966	0.009
967	0.008
967	0.008
968	0.008
968	0.007
968	0.006
969	0.006
969	0.006
970	0.006
970	0.005
971	0.006
971	0.006
971	0.006
972	0.006
972	0.006
973	0.006
973	0.006
974	0.006
974	0.006
974	0.005
975	0.005
975	0.004
976	0.004
976	0.003
976	0.003
977	0.003
977	0.003
978	0.003
978	0.003
979	0.003
979	0.002
979	0.002
980	0.002
980	0.002
981	0.002
981	0.002
982	0.002
982	0.002
982	0.001
983	0.001
983	0.001
984	0.001
984	0.001
984	0.002
985	0.002
985	0.002
986	0.002
986	0.002
987	0.002
987	0.002
987	0.002
988	0.002
988	0.001
989	0
989	-0
990	-0.001
990	-0.002
990	-0.002
991	-0.002
991	-0.003
992	-0.003
992	-0.004
992	-0.004
993	-0.004
993	-0.003
994	-0.003
994	-0.004
995	-0.004
995	-0.004
995	-0.004
996	-0.005
996	-0.006
997	-0.006
997	-0.006
997	-0.006
998	-0.006
998	-0.006
999	-0.005
999	-0.005
1000	-0.005
1000	-0.005
1000	-0.005
1001	-0.004
1001	-0.003
1002	-0.003
1002	-0.002
1003	-0.002
1003	-0.002
1003	-0.002
1004	-0.002
1004	-0.003
1005	-0.003
1005	-0.004
1005	-0.005
1006	-0.006
1006	-0.007
1007	-0.008
1007	-0.009
1008	-0.009
1008	-0.01
1008	-0.01
1009	-0.011
1009	-0.011
1010	-0.011
1010	-0.01
1010	-0.011
1011	-0.011
1011	-0.011
1012	-0.012
1012	-0.012
1013	-0.013
1013	-0.014
1013	-0.015
1014	-0.016
1014	-0.017
1015	-0.017
1015	-0.018
1016	-0.019
1016	-0.019
1016	-0.02
1017	-0.021
1017	-0.021
1018	-0.022
1018	-0.022
1018	-0.023
1019	-0.023
1019	-0.024
1020	-0.025
1020	-0.025
1021	-0.026
1021	-0.026
1021	-0.027
1022	-0.028
1022	-0.029
1023	-0.029
1023	-0.029
1023	-0.03
1024	-0.03
1024	-0.03
1025	-0.03
1025	-0.03
1026	-0.029
1026	-0.029
1026	-0.028
1027	-0.028
1027	-0.027
1028	-0.027
1028	-0.027
1028	-0.027
1029	-0.027
1029	-0.027
1030	-0.028
1030	-0.029
1031	-0.029
1031	-0.029
1031	-0.029
1032	-0.029
1032	-0.029
1033	-0.029
1033	-0.029
1033	-0.029
1034	-0.028
1034	-0.028
1035	-0.028
1035	-0.028
1036	-0.028
1036	-0.028
1036	-0.028
1037	-0.028
1037	-0.028
1038	-0.028
1038	-0.028
1039	-0.027
1039	-0.027
1039	-0.026
1040	-0.026
1040	-0.025
1041	-0.025
1041	-0.024
1041	-0.024
1042	-0.024
1042	-0.024
1043	-0.024
1043	-0.025
1044	-0.025
1044	-0.026
1044	-0.027
1045	-0.027
1045	-0.028
1046	-0.029
1046	-0.029
1046	-0.029
1047	-0.029
1047	-0.029
1048	-0.029
1048	-0.029
1049	-0.028
1049	-0.028
1049	-0.028
1050	-0.027
1050	-0.027
1051	-0.027
1051	-0.027
1051	-0.026
1052	-0.026
1052	-0.026
1053	-0.025
1053	-0.025
1053	-0.025
1054	-0.025
1054	-0.025
1055	-0.025
1055	-0.025
1056	-0.026
1056	-0.027
1056	-0.028
1057	-0.028
1057	-0.029
1058	-0.029
1058	-0.03
1058	-0.03
1059	-0.031
1059	-0.031
1060	-0.032
1060	-0.032
1061	-0.032
1061	-0.032
1061	-0.032
1062	-0.032
1062	-0.033
1063	-0.032
1063	-0.033
1063	-0.032
1064	-0.031
1064	-0.031
1065	-0.032
1065	-0.032
1066	-0.032
1066	-0.032
1066	-0.032
1067	-0.032
1067	-0.032
1068	-0.033
1068	-0.034
1068	-0.035
1069	-0.035
1069	-0.035
1070	-0.036
1070	-0.036
1071	-0.036
1071	-0.036
1071	-0.037
1072	-0.037
1072	-0.037
1073	-0.037
1073	-0.037
1073	-0.037
1074	-0.037
1074	-0.037
1075	-0.037
1075	-0.037
1076	-0.038
1076	-0.038
1076	-0.039
1077	-0.039
1077	-0.039
1078	-0.04
1078	-0.041
1078	-0.041
1079	-0.042
1079	-0.042
1080	-0.043
1080	-0.043
1080	-0.044
1081	-0.044
1081	-0.045
1082	-0.045
1082	-0.046
1083	-0.047
1083	-0.047
1083	-0.048
1084	-0.049
1084	-0.05
1085	-0.051
1085	-0.051
1085	-0.051
1086	-0.052
1086	-0.053
1087	-0.053
1087	-0.053
1088	-0.054
1088	-0.054
1088	-0.054
1089	-0.055
1089	-0.055
1090	-0.057
1090	-0.057
1090	-0.058
1091	-0.058
1091	-0.058
1092	-0.059
1092	-0.059
1092	-0.06
1093	-0.06
1093	-0.06
1094	-0.06
1094	-0.06
1095	-0.061
1095	-0.061
1095	-0.061
1096	-0.062
1096	-0.063
1097	-0.063
1097	-0.064
1097	-0.064
1098	-0.066
1098	-0.068
1099	-0.069
1099	-0.069
1100	-0.071
1100	-0.072
1100	-0.074
1101	-0.076
1101	-0.079
1102	-0.081
1102	-0.083
1102	-0.084
1103	-0.085
1103	-0.087
1104	-0.089
1104	-0.091
1104	-0.092
1105	-0.095
1105	-0.097
1106	-0.101
1106	-0.101
1107	-0.105
1107	-0.109
1107	-0.114
1108	-0.116
1108	-0.118
1109	-0.121
1109	-0.126
1109	-0.127
1110	-0.127
1110	-0.13
1111	-0.137
1111	-0.139
