Data from 17C_3.2A_35min_2sec_int_Absorbance__416__01978.txt Node

Date: Mon Jun 19 17:48:27 CEST 2023
User: Marek
Spectrometer: MAYP115816
Trigger mode: 0
Integration Time (sec): 2.500000E-1
Scans to average: 10
Electric dark correction enabled: true
Nonlinearity correction enabled: true
Boxcar width: 5
XAxis mode: Wavelengths
Number of Pixels in Spectrum: 2068
>>>>>Begin Spectral Data<<<<<
199	-0.748
199	-0.759
200	-0.664
200	-0.606
201	-0.568
201	-0.552
202	-0.536
202	-0.519
203	-0.509
203	-0.504
204	-0.491
204	-0.475
205	-0.451
205	-0.443
205	-0.442
206	-0.442
206	-0.445
207	-0.435
207	-0.438
208	-0.441
208	-0.44
209	-0.434
209	-0.437
210	-0.442
210	-0.449
211	-0.452
211	-0.455
212	-0.457
212	-0.464
213	-0.463
213	-0.465
213	-0.468
214	-0.464
214	-0.463
215	-0.462
215	-0.466
216	-0.468
216	-0.475
217	-0.468
217	-0.474
218	-0.476
218	-0.474
219	-0.478
219	-0.488
220	-0.494
220	-0.504
221	-0.502
221	-0.507
221	-0.503
222	-0.501
222	-0.501
223	-0.502
223	-0.505
224	-0.51
224	-0.512
225	-0.505
225	-0.499
226	-0.503
226	-0.503
227	-0.507
227	-0.516
228	-0.519
228	-0.522
229	-0.523
229	-0.516
229	-0.508
230	-0.514
230	-0.517
231	-0.511
231	-0.502
232	-0.496
232	-0.496
233	-0.489
233	-0.488
234	-0.487
234	-0.486
235	-0.491
235	-0.494
236	-0.492
236	-0.495
236	-0.5
237	-0.505
237	-0.504
238	-0.513
238	-0.51
239	-0.509
239	-0.518
240	-0.519
240	-0.515
241	-0.522
241	-0.521
242	-0.526
242	-0.521
243	-0.517
243	-0.517
243	-0.526
244	-0.526
244	-0.523
245	-0.537
245	-0.54
246	-0.545
246	-0.55
247	-0.552
247	-0.558
248	-0.567
248	-0.566
249	-0.57
249	-0.578
250	-0.578
250	-0.573
250	-0.572
251	-0.569
251	-0.569
252	-0.573
252	-0.564
253	-0.567
253	-0.577
254	-0.575
254	-0.575
255	-0.581
255	-0.576
256	-0.573
256	-0.583
257	-0.58
257	-0.576
258	-0.593
258	-0.59
258	-0.585
259	-0.582
259	-0.59
260	-0.591
260	-0.596
261	-0.61
261	-0.602
262	-0.6
262	-0.602
263	-0.588
263	-0.582
264	-0.585
264	-0.593
265	-0.587
265	-0.592
265	-0.595
266	-0.591
266	-0.59
267	-0.601
267	-0.61
268	-0.626
268	-0.637
269	-0.633
269	-0.628
270	-0.633
270	-0.637
271	-0.638
271	-0.643
272	-0.647
272	-0.643
272	-0.634
273	-0.631
273	-0.64
274	-0.646
274	-0.649
275	-0.65
275	-0.644
276	-0.648
276	-0.641
277	-0.647
277	-0.663
278	-0.673
278	-0.667
278	-0.659
279	-0.663
279	-0.674
280	-0.67
280	-0.67
281	-0.664
281	-0.67
282	-0.66
282	-0.659
283	-0.651
283	-0.654
284	-0.65
284	-0.64
285	-0.635
285	-0.633
285	-0.631
286	-0.639
286	-0.634
287	-0.632
287	-0.619
288	-0.612
288	-0.622
289	-0.633
289	-0.642
290	-0.632
290	-0.632
291	-0.625
291	-0.619
292	-0.622
292	-0.628
292	-0.632
293	-0.639
293	-0.628
294	-0.617
294	-0.608
295	-0.605
295	-0.603
296	-0.603
296	-0.602
297	-0.595
297	-0.579
298	-0.571
298	-0.577
298	-0.564
299	-0.556
299	-0.557
300	-0.553
300	-0.548
301	-0.541
301	-0.537
302	-0.545
302	-0.553
303	-0.539
303	-0.526
304	-0.532
304	-0.534
305	-0.536
305	-0.536
305	-0.533
306	-0.518
306	-0.513
307	-0.499
307	-0.5
308	-0.514
308	-0.512
309	-0.512
309	-0.5
310	-0.488
310	-0.485
311	-0.477
311	-0.487
311	-0.483
312	-0.48
312	-0.477
313	-0.465
313	-0.467
314	-0.464
314	-0.465
315	-0.467
315	-0.465
316	-0.462
316	-0.453
317	-0.447
317	-0.443
318	-0.434
318	-0.429
318	-0.423
319	-0.413
319	-0.413
320	-0.406
320	-0.407
321	-0.411
321	-0.412
322	-0.406
322	-0.4
323	-0.403
323	-0.398
324	-0.393
324	-0.384
324	-0.371
325	-0.361
325	-0.346
326	-0.331
326	-0.31
327	-0.295
327	-0.275
328	-0.245
328	-0.225
329	-0.202
329	-0.178
330	-0.153
330	-0.121
330	-0.094
331	-0.067
331	-0.041
332	-0.017
332	0.004
333	0.025
333	0.048
334	0.068
334	0.085
335	0.104
335	0.118
336	0.132
336	0.145
336	0.155
337	0.166
337	0.175
338	0.183
338	0.188
339	0.196
339	0.201
340	0.206
340	0.21
341	0.214
341	0.217
342	0.221
342	0.224
342	0.227
343	0.229
343	0.232
344	0.234
344	0.235
345	0.236
345	0.237
346	0.238
346	0.239
347	0.24
347	0.24
348	0.241
348	0.241
348	0.241
349	0.241
349	0.241
350	0.242
350	0.242
351	0.242
351	0.242
352	0.242
352	0.242
353	0.242
353	0.242
354	0.242
354	0.242
354	0.242
355	0.242
355	0.241
356	0.242
356	0.242
357	0.241
357	0.24
358	0.24
358	0.24
359	0.24
359	0.239
360	0.239
360	0.24
360	0.239
361	0.239
361	0.239
362	0.239
362	0.239
363	0.239
363	0.239
364	0.239
364	0.239
365	0.239
365	0.239
366	0.239
366	0.239
366	0.239
367	0.239
367	0.239
368	0.239
368	0.239
369	0.239
369	0.239
370	0.239
370	0.239
371	0.238
371	0.238
372	0.238
372	0.238
372	0.238
373	0.238
373	0.238
374	0.238
374	0.238
375	0.238
375	0.238
376	0.237
376	0.237
377	0.237
377	0.237
378	0.237
378	0.237
378	0.237
379	0.237
379	0.237
380	0.237
380	0.237
381	0.237
381	0.237
382	0.236
382	0.236
383	0.236
383	0.236
383	0.235
384	0.235
384	0.235
385	0.235
385	0.235
386	0.235
386	0.235
387	0.235
387	0.235
388	0.235
388	0.235
389	0.235
389	0.235
389	0.235
390	0.235
390	0.235
391	0.235
391	0.235
392	0.235
392	0.235
393	0.235
393	0.235
394	0.234
394	0.234
394	0.234
395	0.233
395	0.233
396	0.233
396	0.233
397	0.233
397	0.233
398	0.233
398	0.233
399	0.233
399	0.233
400	0.232
400	0.232
400	0.232
401	0.232
401	0.232
402	0.232
402	0.232
403	0.231
403	0.231
404	0.231
404	0.231
405	0.231
405	0.231
405	0.231
406	0.231
406	0.231
407	0.23
407	0.23
408	0.23
408	0.23
409	0.23
409	0.23
410	0.23
410	0.23
411	0.23
411	0.23
411	0.23
412	0.23
412	0.23
413	0.23
413	0.23
414	0.23
414	0.23
415	0.229
415	0.229
416	0.229
416	0.229
416	0.229
417	0.229
417	0.229
418	0.229
418	0.229
419	0.229
419	0.229
420	0.229
420	0.229
421	0.229
421	0.229
421	0.229
422	0.229
422	0.229
423	0.229
423	0.228
424	0.228
424	0.227
425	0.227
425	0.227
426	0.226
426	0.226
427	0.226
427	0.226
427	0.226
428	0.226
428	0.226
429	0.226
429	0.226
430	0.226
430	0.226
431	0.226
431	0.225
432	0.225
432	0.225
432	0.225
433	0.225
433	0.225
434	0.224
434	0.224
435	0.224
435	0.224
436	0.224
436	0.224
437	0.224
437	0.224
437	0.224
438	0.224
438	0.224
439	0.224
439	0.224
440	0.224
440	0.224
441	0.224
441	0.224
442	0.223
442	0.223
442	0.223
443	0.223
443	0.223
444	0.223
444	0.223
445	0.223
445	0.223
446	0.223
446	0.223
447	0.224
447	0.224
447	0.224
448	0.224
448	0.224
449	0.224
449	0.224
450	0.224
450	0.224
451	0.224
451	0.224
452	0.223
452	0.223
452	0.223
453	0.223
453	0.223
454	0.223
454	0.222
455	0.222
455	0.222
456	0.222
456	0.222
457	0.222
457	0.222
458	0.222
458	0.222
458	0.222
459	0.222
459	0.222
460	0.222
460	0.221
461	0.222
461	0.221
462	0.222
462	0.222
463	0.222
463	0.222
463	0.222
464	0.222
464	0.222
465	0.222
465	0.222
466	0.222
466	0.222
467	0.223
467	0.223
467	0.223
468	0.223
468	0.223
469	0.223
469	0.223
470	0.224
470	0.224
471	0.224
471	0.224
472	0.224
472	0.224
472	0.224
473	0.224
473	0.225
474	0.225
474	0.225
475	0.225
475	0.226
476	0.226
476	0.226
477	0.226
477	0.226
477	0.227
478	0.227
478	0.227
479	0.227
479	0.228
480	0.228
480	0.228
481	0.228
481	0.228
482	0.229
482	0.229
482	0.23
483	0.23
483	0.231
484	0.231
484	0.231
485	0.231
485	0.232
486	0.232
486	0.233
487	0.233
487	0.234
487	0.234
488	0.235
488	0.235
489	0.236
489	0.238
490	0.239
490	0.24
491	0.241
491	0.241
492	0.242
492	0.243
492	0.244
493	0.245
493	0.245
494	0.246
494	0.247
495	0.248
495	0.249
496	0.25
496	0.251
496	0.252
497	0.253
497	0.255
498	0.256
498	0.257
499	0.257
499	0.259
500	0.26
500	0.261
501	0.262
501	0.263
501	0.264
502	0.265
502	0.266
503	0.267
503	0.268
504	0.269
504	0.27
505	0.272
505	0.273
506	0.274
506	0.275
506	0.276
507	0.277
507	0.278
508	0.279
508	0.281
509	0.282
509	0.283
510	0.285
510	0.286
511	0.287
511	0.288
511	0.29
512	0.291
512	0.293
513	0.294
513	0.295
514	0.296
514	0.298
515	0.299
515	0.3
515	0.301
516	0.302
516	0.304
517	0.305
517	0.306
518	0.307
518	0.308
519	0.309
519	0.31
520	0.312
520	0.313
520	0.315
521	0.316
521	0.317
522	0.318
522	0.32
523	0.321
523	0.322
524	0.323
524	0.323
524	0.324
525	0.324
525	0.325
526	0.326
526	0.327
527	0.327
527	0.328
528	0.329
528	0.33
529	0.331
529	0.332
529	0.333
530	0.334
530	0.335
531	0.335
531	0.336
532	0.336
532	0.337
533	0.337
533	0.338
533	0.338
534	0.339
534	0.339
535	0.339
535	0.339
536	0.339
536	0.339
537	0.339
537	0.339
538	0.34
538	0.34
538	0.34
539	0.341
539	0.341
540	0.341
540	0.341
541	0.342
541	0.342
542	0.342
542	0.342
542	0.342
543	0.341
543	0.341
544	0.341
544	0.34
545	0.341
545	0.341
546	0.341
546	0.341
547	0.34
547	0.34
547	0.34
548	0.34
548	0.34
549	0.34
549	0.34
550	0.34
550	0.34
551	0.34
551	0.34
551	0.341
552	0.342
552	0.342
553	0.342
553	0.343
554	0.342
554	0.342
555	0.342
555	0.342
556	0.342
556	0.342
556	0.341
557	0.341
557	0.34
558	0.34
558	0.339
559	0.339
559	0.339
560	0.339
560	0.338
560	0.338
561	0.338
561	0.338
562	0.337
562	0.337
563	0.336
563	0.336
564	0.336
564	0.336
564	0.336
565	0.336
565	0.336
566	0.336
566	0.336
567	0.336
567	0.336
568	0.336
568	0.335
568	0.335
569	0.334
569	0.333
570	0.332
570	0.331
571	0.331
571	0.331
572	0.33
572	0.33
573	0.329
573	0.329
573	0.328
574	0.328
574	0.328
575	0.329
575	0.329
576	0.329
576	0.328
577	0.328
577	0.329
577	0.329
578	0.329
578	0.33
579	0.33
579	0.33
580	0.329
580	0.328
581	0.328
581	0.328
581	0.328
582	0.328
582	0.328
583	0.328
583	0.327
584	0.326
584	0.326
585	0.326
585	0.327
585	0.327
586	0.327
586	0.327
587	0.326
587	0.326
588	0.325
588	0.325
589	0.326
589	0.326
590	0.326
590	0.326
590	0.326
591	0.326
591	0.326
592	0.325
592	0.325
593	0.325
593	0.325
594	0.325
594	0.324
594	0.324
595	0.325
595	0.324
596	0.324
596	0.325
597	0.326
597	0.326
598	0.325
598	0.325
598	0.325
599	0.324
599	0.323
600	0.322
600	0.322
601	0.321
601	0.32
602	0.319
602	0.319
602	0.319
603	0.32
603	0.32
604	0.321
604	0.321
605	0.322
605	0.322
606	0.322
606	0.321
606	0.321
607	0.32
607	0.32
608	0.319
608	0.318
609	0.317
609	0.317
610	0.316
610	0.316
610	0.316
611	0.316
611	0.317
612	0.317
612	0.318
613	0.318
613	0.318
614	0.317
614	0.316
614	0.315
615	0.314
615	0.313
616	0.313
616	0.312
617	0.311
617	0.309
618	0.309
618	0.308
618	0.308
619	0.308
619	0.308
620	0.308
620	0.308
621	0.307
621	0.307
622	0.306
622	0.306
622	0.305
623	0.304
623	0.304
624	0.303
624	0.302
625	0.302
625	0.301
626	0.3
626	0.299
626	0.298
627	0.297
627	0.296
628	0.295
628	0.293
629	0.291
629	0.289
630	0.287
630	0.285
630	0.283
631	0.281
631	0.278
632	0.276
632	0.273
633	0.27
633	0.267
634	0.264
634	0.262
634	0.259
635	0.256
635	0.252
636	0.248
636	0.244
637	0.241
637	0.236
638	0.232
638	0.227
638	0.222
639	0.216
639	0.211
640	0.205
640	0.199
641	0.194
641	0.188
642	0.182
642	0.176
642	0.171
643	0.165
643	0.158
644	0.151
644	0.144
645	0.137
645	0.131
646	0.124
646	0.116
646	0.109
647	0.101
647	0.093
648	0.086
648	0.078
649	0.069
649	0.061
650	0.053
650	0.044
650	0.034
651	0.024
651	0.01
652	-0.006
652	-0.022
653	-0.037
653	-0.05
653	-0.047
654	-0.026
654	-0.014
655	-0.017
655	-0.022
656	-0.029
656	-0.035
657	-0.04
657	-0.044
657	-0.05
658	-0.056
658	-0.086
659	-0.173
659	-0.277
660	-0.324
660	-0.35
661	-0.378
661	-0.41
661	-0.444
662	-0.476
662	-0.511
663	-0.55
663	-0.593
664	-0.637
664	-0.689
665	-0.739
665	-0.797
665	-0.853
666	-0.91
666	-0.971
667	-1.037
667	-1.102
668	-1.174
668	-1.246
669	-1.32
669	-1.393
669	-1.469
670	-1.533
670	-1.553
671	-1.652
671	-1.95
672	-2.186
672	-2.381
672	-2.513
673	-2.606
673	-2.687
674	-2.737
674	-2.757
675	-2.783
675	-2.925
676	-3.126
676	-3.08
676	-2.858
677	-2.657
677	-2.5
678	-2.335
678	-2.067
679	-1.767
679	-1.622
680	-1.524
680	-1.438
680	-1.365
681	-1.319
681	-1.258
682	-1.218
682	-1.18
683	-1.144
683	-1.127
684	-1.106
684	-1.087
684	-1.063
685	-1.039
685	-1.016
686	-0.99
686	-0.974
687	-0.947
687	-0.936
687	-0.916
688	-0.889
688	-0.868
689	-0.847
689	-0.833
690	-0.814
690	-0.802
691	-0.796
691	-0.801
691	-0.816
692	-0.806
692	-0.796
693	-0.79
693	-0.797
694	-0.791
694	-0.784
695	-0.787
695	-0.785
695	-0.768
696	-0.764
696	-0.741
697	-0.741
697	-0.757
698	-0.759
698	-0.75
698	-0.765
699	-0.768
699	-0.765
700	-0.755
700	-0.768
701	-0.766
701	-0.773
702	-0.774
702	-0.761
702	-0.753
703	-0.747
703	-0.737
704	-0.736
704	-0.734
705	-0.746
705	-0.739
705	-0.728
706	-0.729
706	-0.723
707	-0.727
707	-0.722
708	-0.717
708	-0.711
709	-0.713
709	-0.715
709	-0.704
710	-0.712
710	-0.721
711	-0.713
711	-0.714
712	-0.715
712	-0.728
713	-0.729
713	-0.734
713	-0.724
714	-0.722
714	-0.725
715	-0.718
715	-0.706
716	-0.712
716	-0.714
716	-0.704
717	-0.706
717	-0.709
718	-0.701
718	-0.702
719	-0.708
719	-0.71
720	-0.704
720	-0.714
720	-0.708
721	-0.697
721	-0.699
722	-0.686
722	-0.673
723	-0.671
723	-0.675
723	-0.662
724	-0.663
724	-0.671
725	-0.668
725	-0.676
726	-0.688
726	-0.693
727	-0.697
727	-0.713
727	-0.721
728	-0.722
728	-0.729
729	-0.728
729	-0.729
730	-0.736
730	-0.73
730	-0.72
731	-0.702
731	-0.712
732	-0.717
732	-0.719
733	-0.716
733	-0.721
734	-0.716
734	-0.717
734	-0.704
735	-0.701
735	-0.702
736	-0.715
736	-0.702
737	-0.692
737	-0.693
737	-0.703
738	-0.696
738	-0.694
739	-0.694
739	-0.706
740	-0.707
740	-0.706
741	-0.701
741	-0.7
741	-0.706
742	-0.702
742	-0.702
743	-0.71
743	-0.717
744	-0.714
744	-0.706
744	-0.706
745	-0.711
745	-0.704
746	-0.704
746	-0.702
747	-0.701
747	-0.69
748	-0.678
748	-0.683
748	-0.684
749	-0.68
749	-0.683
750	-0.672
750	-0.674
751	-0.677
751	-0.686
751	-0.689
752	-0.695
752	-0.703
753	-0.698
753	-0.694
754	-0.699
754	-0.693
754	-0.707
755	-0.725
755	-0.736
756	-0.724
756	-0.721
757	-0.719
757	-0.715
758	-0.716
758	-0.713
758	-0.716
759	-0.722
759	-0.707
760	-0.697
760	-0.694
761	-0.705
761	-0.702
761	-0.7
762	-0.709
762	-0.71
763	-0.722
763	-0.719
764	-0.718
764	-0.725
764	-0.731
765	-0.72
765	-0.708
766	-0.715
766	-0.721
767	-0.732
767	-0.726
768	-0.716
768	-0.724
768	-0.729
769	-0.746
769	-0.75
770	-0.755
770	-0.765
771	-0.762
771	-0.765
771	-0.766
772	-0.77
772	-0.77
773	-0.769
773	-0.765
774	-0.763
774	-0.761
775	-0.763
775	-0.761
775	-0.769
776	-0.77
776	-0.76
777	-0.768
777	-0.786
778	-0.784
778	-0.802
778	-0.789
779	-0.811
779	-0.818
780	-0.832
780	-0.832
781	-0.844
781	-0.84
781	-0.856
782	-0.857
782	-0.859
783	-0.845
783	-0.841
784	-0.823
784	-0.814
784	-0.822
785	-0.827
785	-0.811
786	-0.819
786	-0.796
787	-0.783
787	-0.785
788	-0.789
788	-0.801
788	-0.811
789	-0.811
789	-0.792
790	-0.773
790	-0.775
791	-0.774
791	-0.79
791	-0.796
792	-0.79
792	-0.766
793	-0.755
793	-0.734
794	-0.739
794	-0.731
794	-0.741
795	-0.736
795	-0.728
796	-0.712
796	-0.72
797	-0.713
797	-0.725
797	-0.733
798	-0.746
798	-0.738
799	-0.748
799	-0.736
800	-0.742
800	-0.734
801	-0.739
801	-0.724
801	-0.736
802	-0.744
802	-0.743
803	-0.742
803	-0.754
804	-0.75
804	-0.759
804	-0.747
805	-0.752
805	-0.742
806	-0.744
806	-0.729
807	-0.729
807	-0.711
807	-0.699
808	-0.687
808	-0.68
809	-0.665
809	-0.674
810	-0.674
810	-0.665
810	-0.662
811	-0.668
811	-0.656
812	-0.656
812	-0.659
813	-0.664
813	-0.66
813	-0.667
814	-0.668
814	-0.671
815	-0.678
815	-0.678
816	-0.671
816	-0.678
817	-0.687
817	-0.705
817	-0.72
818	-0.729
818	-0.73
819	-0.724
819	-0.725
820	-0.736
820	-0.735
820	-0.744
821	-0.743
821	-0.731
822	-0.7
822	-0.676
823	-0.673
823	-0.675
823	-0.671
824	-0.664
824	-0.665
825	-0.659
825	-0.639
826	-0.633
826	-0.641
826	-0.65
827	-0.647
827	-0.642
828	-0.622
828	-0.624
829	-0.616
829	-0.601
829	-0.592
830	-0.602
830	-0.598
831	-0.589
831	-0.579
832	-0.576
832	-0.568
832	-0.579
833	-0.572
833	-0.573
834	-0.572
834	-0.582
835	-0.569
835	-0.565
835	-0.562
836	-0.559
836	-0.557
837	-0.555
837	-0.543
838	-0.534
838	-0.522
839	-0.509
839	-0.495
839	-0.486
840	-0.476
840	-0.471
841	-0.459
841	-0.449
842	-0.443
842	-0.433
842	-0.424
843	-0.416
843	-0.41
844	-0.401
844	-0.392
845	-0.381
845	-0.37
845	-0.357
846	-0.347
846	-0.332
847	-0.322
847	-0.312
848	-0.303
848	-0.292
848	-0.276
849	-0.266
849	-0.256
850	-0.241
850	-0.236
851	-0.224
851	-0.213
851	-0.203
852	-0.186
852	-0.171
853	-0.162
853	-0.156
854	-0.144
854	-0.131
854	-0.121
855	-0.109
855	-0.101
856	-0.091
856	-0.081
857	-0.076
857	-0.068
857	-0.056
858	-0.045
858	-0.039
859	-0.031
859	-0.019
860	-0.009
860	0.003
860	0.011
861	0.02
861	0.028
862	0.036
862	0.044
863	0.051
863	0.06
863	0.066
864	0.071
864	0.077
865	0.082
865	0.087
866	0.093
866	0.096
866	0.1
867	0.104
867	0.108
868	0.11
868	0.115
869	0.118
869	0.121
869	0.123
870	0.126
870	0.128
871	0.13
871	0.132
872	0.132
872	0.133
872	0.134
873	0.134
873	0.134
874	0.134
874	0.134
875	0.133
875	0.132
875	0.131
876	0.129
876	0.128
877	0.127
877	0.126
878	0.124
878	0.122
878	0.12
879	0.119
879	0.117
880	0.117
880	0.116
881	0.116
881	0.116
881	0.116
882	0.115
882	0.114
883	0.113
883	0.112
884	0.111
884	0.11
884	0.109
885	0.108
885	0.107
886	0.107
886	0.106
887	0.106
887	0.106
887	0.105
888	0.106
888	0.105
889	0.105
889	0.105
890	0.105
890	0.105
890	0.105
891	0.105
891	0.105
892	0.105
892	0.105
893	0.104
893	0.104
893	0.104
894	0.103
894	0.103
895	0.103
895	0.103
895	0.102
896	0.101
896	0.101
897	0.1
897	0.099
898	0.098
898	0.097
898	0.097
899	0.097
899	0.098
900	0.098
900	0.098
901	0.099
901	0.1
901	0.1
902	0.101
902	0.101
903	0.102
903	0.102
904	0.103
904	0.103
904	0.104
905	0.105
905	0.105
906	0.106
906	0.106
907	0.106
907	0.105
907	0.105
908	0.104
908	0.104
909	0.103
909	0.102
910	0.102
910	0.101
910	0.101
911	0.101
911	0.101
912	0.102
912	0.102
913	0.103
913	0.104
913	0.104
914	0.105
914	0.106
915	0.106
915	0.107
916	0.107
916	0.108
916	0.108
917	0.109
917	0.109
918	0.108
918	0.108
918	0.108
919	0.107
919	0.107
920	0.107
920	0.107
921	0.107
921	0.107
921	0.107
922	0.107
922	0.107
923	0.107
923	0.107
924	0.107
924	0.106
924	0.106
925	0.105
925	0.103
926	0.102
926	0.101
927	0.1
927	0.099
927	0.099
928	0.098
928	0.098
929	0.097
929	0.097
930	0.096
930	0.095
930	0.095
931	0.094
931	0.094
932	0.093
932	0.092
933	0.091
933	0.09
933	0.089
934	0.087
934	0.086
935	0.085
935	0.084
935	0.083
936	0.082
936	0.081
937	0.08
937	0.08
938	0.08
938	0.08
938	0.08
939	0.08
939	0.081
940	0.081
940	0.082
941	0.082
941	0.083
941	0.084
942	0.085
942	0.085
943	0.085
943	0.085
944	0.084
944	0.084
944	0.083
945	0.082
945	0.081
946	0.08
946	0.078
946	0.077
947	0.077
947	0.076
948	0.076
948	0.077
949	0.077
949	0.077
949	0.078
950	0.079
950	0.079
951	0.08
951	0.081
952	0.081
952	0.083
952	0.083
953	0.084
953	0.085
954	0.085
954	0.086
955	0.087
955	0.088
955	0.089
956	0.09
956	0.09
957	0.09
957	0.09
957	0.091
958	0.091
958	0.091
959	0.091
959	0.091
960	0.091
960	0.091
960	0.091
961	0.091
961	0.091
962	0.091
962	0.091
963	0.092
963	0.091
963	0.091
964	0.091
964	0.092
965	0.092
965	0.091
966	0.091
966	0.091
966	0.091
967	0.091
967	0.09
968	0.089
968	0.088
968	0.088
969	0.087
969	0.087
970	0.086
970	0.086
971	0.086
971	0.087
971	0.087
972	0.087
972	0.087
973	0.088
973	0.087
974	0.087
974	0.087
974	0.087
975	0.086
975	0.086
976	0.085
976	0.084
976	0.084
977	0.084
977	0.084
978	0.084
978	0.083
979	0.083
979	0.082
979	0.082
980	0.082
980	0.082
981	0.082
981	0.081
982	0.081
982	0.08
982	0.08
983	0.08
983	0.08
984	0.08
984	0.08
984	0.08
985	0.081
985	0.081
986	0.081
986	0.08
987	0.08
987	0.08
987	0.08
988	0.079
988	0.078
989	0.077
989	0.076
990	0.075
990	0.075
990	0.074
991	0.074
991	0.073
992	0.073
992	0.073
992	0.073
993	0.073
993	0.073
994	0.072
994	0.072
995	0.072
995	0.071
995	0.071
996	0.07
996	0.07
997	0.069
997	0.069
997	0.069
998	0.069
998	0.069
999	0.069
999	0.07
1000	0.07
1000	0.07
1000	0.07
1001	0.071
1001	0.071
1002	0.072
1002	0.072
1003	0.072
1003	0.073
1003	0.072
1004	0.072
1004	0.072
1005	0.071
1005	0.07
1005	0.069
1006	0.068
1006	0.067
1007	0.066
1007	0.065
1008	0.064
1008	0.063
1008	0.063
1009	0.063
1009	0.063
1010	0.063
1010	0.063
1010	0.062
1011	0.063
1011	0.062
1012	0.061
1012	0.06
1013	0.06
1013	0.058
1013	0.057
1014	0.057
1014	0.056
1015	0.055
1015	0.054
1016	0.053
1016	0.053
1016	0.052
1017	0.051
1017	0.051
1018	0.05
1018	0.049
1018	0.048
1019	0.048
1019	0.047
1020	0.046
1020	0.046
1021	0.045
1021	0.044
1021	0.043
1022	0.043
1022	0.042
1023	0.042
1023	0.041
1023	0.041
1024	0.041
1024	0.04
1025	0.041
1025	0.041
1026	0.041
1026	0.042
1026	0.042
1027	0.043
1027	0.043
1028	0.043
1028	0.043
1028	0.043
1029	0.043
1029	0.042
1030	0.042
1030	0.041
1031	0.041
1031	0.041
1031	0.04
1032	0.04
1032	0.04
1033	0.04
1033	0.041
1033	0.041
1034	0.041
1034	0.041
1035	0.041
1035	0.041
1036	0.041
1036	0.041
1036	0.041
1037	0.041
1037	0.041
1038	0.041
1038	0.041
1039	0.041
1039	0.041
1039	0.041
1040	0.042
1040	0.043
1041	0.043
1041	0.043
1041	0.043
1042	0.043
1042	0.043
1043	0.042
1043	0.042
1044	0.041
1044	0.04
1044	0.039
1045	0.038
1045	0.037
1046	0.037
1046	0.037
1046	0.037
1047	0.037
1047	0.037
1048	0.037
1048	0.037
1049	0.038
1049	0.038
1049	0.039
1050	0.039
1050	0.039
1051	0.039
1051	0.04
1051	0.04
1052	0.04
1052	0.04
1053	0.04
1053	0.04
1053	0.04
1054	0.04
1054	0.04
1055	0.04
1055	0.039
1056	0.039
1056	0.038
1056	0.037
1057	0.036
1057	0.036
1058	0.035
1058	0.034
1058	0.034
1059	0.034
1059	0.033
1060	0.032
1060	0.032
1061	0.031
1061	0.031
1061	0.031
1062	0.031
1062	0.03
1063	0.031
1063	0.03
1063	0.031
1064	0.031
1064	0.031
1065	0.031
1065	0.031
1066	0.03
1066	0.03
1066	0.03
1067	0.03
1067	0.03
1068	0.029
1068	0.028
1068	0.028
1069	0.028
1069	0.027
1070	0.027
1070	0.027
1071	0.026
1071	0.026
1071	0.025
1072	0.025
1072	0.025
1073	0.025
1073	0.025
1073	0.025
1074	0.025
1074	0.026
1075	0.025
1075	0.025
1076	0.024
1076	0.024
1076	0.023
1077	0.023
1077	0.022
1078	0.021
1078	0.02
1078	0.02
1079	0.019
1079	0.018
1080	0.017
1080	0.017
1080	0.016
1081	0.015
1081	0.014
1082	0.014
1082	0.013
1083	0.012
1083	0.011
1083	0.01
1084	0.01
1084	0.009
1085	0.008
1085	0.007
1085	0.007
1086	0.006
1086	0.005
1087	0.006
1087	0.005
1088	0.004
1088	0.004
1088	0.003
1089	0.002
1089	0.001
1090	-0.001
1090	-0.001
1090	-0.002
1091	-0.003
1091	-0.004
1092	-0.005
1092	-0.004
1092	-0.006
1093	-0.006
1093	-0.006
1094	-0.006
1094	-0.006
1095	-0.007
1095	-0.008
1095	-0.008
1096	-0.009
1096	-0.01
1097	-0.011
1097	-0.012
1097	-0.013
1098	-0.015
1098	-0.017
1099	-0.017
1099	-0.018
1100	-0.02
1100	-0.023
1100	-0.025
1101	-0.027
1101	-0.029
1102	-0.031
1102	-0.033
1102	-0.034
1103	-0.036
1103	-0.04
1104	-0.041
1104	-0.043
1104	-0.044
1105	-0.047
1105	-0.05
1106	-0.053
1106	-0.057
1107	-0.061
1107	-0.065
1107	-0.071
1108	-0.072
1108	-0.075
1109	-0.079
1109	-0.084
1109	-0.086
1110	-0.087
1110	-0.092
1111	-0.097
1111	-0.099
