Data from 17C_3.2A_35min_2sec_int_Absorbance__664__02226.txt Node

Date: Mon Jun 19 17:58:47 CEST 2023
User: Marek
Spectrometer: MAYP115816
Trigger mode: 0
Integration Time (sec): 2.500000E-1
Scans to average: 10
Electric dark correction enabled: true
Nonlinearity correction enabled: true
Boxcar width: 5
XAxis mode: Wavelengths
Number of Pixels in Spectrum: 2068
>>>>>Begin Spectral Data<<<<<
199	-0.745
199	-0.759
200	-0.661
200	-0.604
201	-0.567
201	-0.555
202	-0.537
202	-0.524
203	-0.515
203	-0.511
204	-0.497
204	-0.484
205	-0.46
205	-0.453
205	-0.453
206	-0.458
206	-0.459
207	-0.452
207	-0.452
208	-0.457
208	-0.454
209	-0.449
209	-0.449
210	-0.452
210	-0.458
211	-0.459
211	-0.461
212	-0.463
212	-0.471
213	-0.471
213	-0.468
213	-0.475
214	-0.471
214	-0.471
215	-0.472
215	-0.478
216	-0.481
216	-0.487
217	-0.482
217	-0.485
218	-0.488
218	-0.49
219	-0.492
219	-0.504
220	-0.508
220	-0.517
221	-0.515
221	-0.518
221	-0.512
222	-0.509
222	-0.509
223	-0.511
223	-0.514
224	-0.517
224	-0.518
225	-0.514
225	-0.508
226	-0.512
226	-0.512
227	-0.517
227	-0.527
228	-0.529
228	-0.531
229	-0.531
229	-0.524
229	-0.517
230	-0.52
230	-0.524
231	-0.518
231	-0.51
232	-0.504
232	-0.502
233	-0.495
233	-0.493
234	-0.492
234	-0.491
235	-0.494
235	-0.501
236	-0.497
236	-0.501
236	-0.507
237	-0.514
237	-0.512
238	-0.522
238	-0.52
239	-0.519
239	-0.529
240	-0.528
240	-0.524
241	-0.529
241	-0.527
242	-0.533
242	-0.527
243	-0.526
243	-0.526
243	-0.535
244	-0.536
244	-0.533
245	-0.547
245	-0.547
246	-0.552
246	-0.559
247	-0.562
247	-0.567
248	-0.574
248	-0.574
249	-0.576
249	-0.586
250	-0.584
250	-0.58
250	-0.581
251	-0.577
251	-0.575
252	-0.578
252	-0.568
253	-0.573
253	-0.582
254	-0.58
254	-0.575
255	-0.581
255	-0.575
256	-0.571
256	-0.585
257	-0.582
257	-0.58
258	-0.595
258	-0.59
258	-0.586
259	-0.585
259	-0.594
260	-0.595
260	-0.601
261	-0.612
261	-0.602
262	-0.6
262	-0.6
263	-0.59
263	-0.587
264	-0.589
264	-0.595
265	-0.59
265	-0.598
265	-0.601
266	-0.598
266	-0.597
267	-0.609
267	-0.618
268	-0.632
268	-0.64
269	-0.64
269	-0.635
270	-0.642
270	-0.642
271	-0.643
271	-0.649
272	-0.651
272	-0.646
272	-0.64
273	-0.639
273	-0.648
274	-0.651
274	-0.655
275	-0.655
275	-0.649
276	-0.653
276	-0.647
277	-0.651
277	-0.671
278	-0.68
278	-0.673
278	-0.667
279	-0.672
279	-0.681
280	-0.68
280	-0.681
281	-0.678
281	-0.684
282	-0.677
282	-0.676
283	-0.666
283	-0.67
284	-0.663
284	-0.651
285	-0.65
285	-0.647
285	-0.643
286	-0.65
286	-0.644
287	-0.64
287	-0.625
288	-0.62
288	-0.628
289	-0.641
289	-0.652
290	-0.639
290	-0.636
291	-0.633
291	-0.626
292	-0.63
292	-0.638
292	-0.64
293	-0.644
293	-0.634
294	-0.622
294	-0.612
295	-0.609
295	-0.609
296	-0.607
296	-0.606
297	-0.599
297	-0.582
298	-0.576
298	-0.583
298	-0.571
299	-0.564
299	-0.566
300	-0.56
300	-0.554
301	-0.551
301	-0.547
302	-0.557
302	-0.565
303	-0.553
303	-0.538
304	-0.543
304	-0.543
305	-0.544
305	-0.546
305	-0.543
306	-0.527
306	-0.524
307	-0.512
307	-0.515
308	-0.528
308	-0.526
309	-0.527
309	-0.516
310	-0.507
310	-0.501
311	-0.495
311	-0.504
311	-0.5
312	-0.496
312	-0.494
313	-0.482
313	-0.485
314	-0.482
314	-0.485
315	-0.484
315	-0.483
316	-0.479
316	-0.471
317	-0.464
317	-0.459
318	-0.448
318	-0.445
318	-0.44
319	-0.43
319	-0.426
320	-0.42
320	-0.42
321	-0.425
321	-0.424
322	-0.419
322	-0.414
323	-0.411
323	-0.406
324	-0.399
324	-0.39
324	-0.381
325	-0.372
325	-0.356
326	-0.343
326	-0.326
327	-0.31
327	-0.289
328	-0.263
328	-0.244
329	-0.222
329	-0.2
330	-0.176
330	-0.145
330	-0.119
331	-0.092
331	-0.066
332	-0.042
332	-0.02
333	0.001
333	0.025
334	0.044
334	0.06
335	0.076
335	0.089
336	0.102
336	0.115
336	0.124
337	0.134
337	0.142
338	0.15
338	0.154
339	0.161
339	0.166
340	0.171
340	0.175
341	0.178
341	0.182
342	0.185
342	0.188
342	0.191
343	0.193
343	0.196
344	0.197
344	0.198
345	0.2
345	0.201
346	0.202
346	0.202
347	0.203
347	0.203
348	0.204
348	0.204
348	0.204
349	0.204
349	0.204
350	0.205
350	0.205
351	0.205
351	0.205
352	0.205
352	0.205
353	0.205
353	0.205
354	0.205
354	0.205
354	0.205
355	0.205
355	0.205
356	0.205
356	0.204
357	0.203
357	0.203
358	0.202
358	0.202
359	0.202
359	0.202
360	0.202
360	0.202
360	0.202
361	0.202
361	0.202
362	0.203
362	0.203
363	0.203
363	0.203
364	0.203
364	0.202
365	0.202
365	0.202
366	0.202
366	0.202
366	0.202
367	0.202
367	0.202
368	0.202
368	0.202
369	0.202
369	0.202
370	0.202
370	0.202
371	0.202
371	0.202
372	0.202
372	0.202
372	0.202
373	0.202
373	0.202
374	0.202
374	0.202
375	0.202
375	0.202
376	0.202
376	0.202
377	0.202
377	0.202
378	0.202
378	0.202
378	0.202
379	0.202
379	0.202
380	0.201
380	0.201
381	0.201
381	0.201
382	0.201
382	0.201
383	0.201
383	0.2
383	0.2
384	0.2
384	0.2
385	0.2
385	0.2
386	0.2
386	0.2
387	0.2
387	0.2
388	0.199
388	0.2
389	0.2
389	0.2
389	0.2
390	0.2
390	0.2
391	0.2
391	0.2
392	0.2
392	0.2
393	0.2
393	0.2
394	0.2
394	0.199
394	0.199
395	0.199
395	0.199
396	0.199
396	0.199
397	0.199
397	0.199
398	0.199
398	0.199
399	0.199
399	0.199
400	0.199
400	0.199
400	0.199
401	0.198
401	0.198
402	0.198
402	0.198
403	0.198
403	0.198
404	0.198
404	0.198
405	0.198
405	0.198
405	0.198
406	0.198
406	0.198
407	0.198
407	0.197
408	0.197
408	0.197
409	0.197
409	0.197
410	0.197
410	0.197
411	0.197
411	0.197
411	0.197
412	0.197
412	0.197
413	0.197
413	0.197
414	0.197
414	0.197
415	0.197
415	0.197
416	0.196
416	0.196
416	0.196
417	0.196
417	0.196
418	0.196
418	0.196
419	0.196
419	0.196
420	0.196
420	0.196
421	0.196
421	0.196
421	0.196
422	0.196
422	0.197
423	0.196
423	0.196
424	0.196
424	0.195
425	0.195
425	0.195
426	0.195
426	0.195
427	0.194
427	0.194
427	0.194
428	0.194
428	0.194
429	0.194
429	0.194
430	0.194
430	0.194
431	0.194
431	0.194
432	0.194
432	0.193
432	0.193
433	0.193
433	0.193
434	0.193
434	0.193
435	0.193
435	0.193
436	0.193
436	0.193
437	0.193
437	0.193
437	0.193
438	0.193
438	0.193
439	0.193
439	0.193
440	0.192
440	0.192
441	0.192
441	0.192
442	0.192
442	0.192
442	0.192
443	0.192
443	0.192
444	0.192
444	0.192
445	0.192
445	0.192
446	0.192
446	0.192
447	0.192
447	0.192
447	0.193
448	0.193
448	0.193
449	0.193
449	0.193
450	0.193
450	0.193
451	0.193
451	0.193
452	0.193
452	0.192
452	0.192
453	0.192
453	0.192
454	0.192
454	0.191
455	0.191
455	0.191
456	0.191
456	0.191
457	0.191
457	0.191
458	0.191
458	0.191
458	0.191
459	0.191
459	0.191
460	0.19
460	0.19
461	0.19
461	0.19
462	0.19
462	0.19
463	0.191
463	0.191
463	0.191
464	0.191
464	0.19
465	0.191
465	0.191
466	0.191
466	0.191
467	0.191
467	0.191
467	0.191
468	0.191
468	0.191
469	0.191
469	0.192
470	0.192
470	0.192
471	0.192
471	0.192
472	0.192
472	0.192
472	0.192
473	0.192
473	0.192
474	0.192
474	0.193
475	0.193
475	0.193
476	0.193
476	0.193
477	0.193
477	0.193
477	0.193
478	0.193
478	0.193
479	0.194
479	0.194
480	0.194
480	0.194
481	0.194
481	0.195
482	0.195
482	0.195
482	0.196
483	0.196
483	0.197
484	0.197
484	0.196
485	0.197
485	0.197
486	0.197
486	0.197
487	0.198
487	0.198
487	0.199
488	0.199
488	0.2
489	0.201
489	0.202
490	0.203
490	0.203
491	0.204
491	0.205
492	0.205
492	0.206
492	0.206
493	0.207
493	0.207
494	0.208
494	0.208
495	0.209
495	0.21
496	0.21
496	0.211
496	0.212
497	0.213
497	0.214
498	0.215
498	0.216
499	0.216
499	0.217
500	0.218
500	0.219
501	0.22
501	0.22
501	0.221
502	0.221
502	0.222
503	0.223
503	0.224
504	0.224
504	0.225
505	0.226
505	0.227
506	0.228
506	0.229
506	0.23
507	0.23
507	0.231
508	0.232
508	0.233
509	0.234
509	0.235
510	0.236
510	0.237
511	0.238
511	0.239
511	0.24
512	0.241
512	0.242
513	0.243
513	0.244
514	0.245
514	0.246
515	0.247
515	0.247
515	0.248
516	0.249
516	0.25
517	0.251
517	0.252
518	0.253
518	0.254
519	0.255
519	0.256
520	0.256
520	0.258
520	0.259
521	0.26
521	0.261
522	0.262
522	0.263
523	0.264
523	0.265
524	0.265
524	0.266
524	0.266
525	0.267
525	0.267
526	0.267
526	0.268
527	0.269
527	0.269
528	0.27
528	0.271
529	0.272
529	0.273
529	0.274
530	0.275
530	0.275
531	0.276
531	0.276
532	0.277
532	0.277
533	0.278
533	0.278
533	0.278
534	0.278
534	0.278
535	0.279
535	0.279
536	0.279
536	0.279
537	0.279
537	0.279
538	0.279
538	0.279
538	0.28
539	0.28
539	0.281
540	0.281
540	0.281
541	0.281
541	0.282
542	0.282
542	0.282
542	0.282
543	0.282
543	0.282
544	0.281
544	0.281
545	0.282
545	0.282
546	0.282
546	0.282
547	0.281
547	0.281
547	0.281
548	0.281
548	0.281
549	0.281
549	0.282
550	0.282
550	0.282
551	0.282
551	0.283
551	0.283
552	0.284
552	0.285
553	0.285
553	0.286
554	0.286
554	0.286
555	0.286
555	0.286
556	0.286
556	0.285
556	0.285
557	0.285
557	0.285
558	0.284
558	0.284
559	0.283
559	0.283
560	0.283
560	0.283
560	0.282
561	0.283
561	0.282
562	0.282
562	0.281
563	0.281
563	0.281
564	0.281
564	0.281
564	0.282
565	0.282
565	0.282
566	0.282
566	0.283
567	0.283
567	0.283
568	0.282
568	0.282
568	0.282
569	0.282
569	0.281
570	0.28
570	0.279
571	0.279
571	0.279
572	0.278
572	0.278
573	0.278
573	0.277
573	0.277
574	0.277
574	0.277
575	0.277
575	0.278
576	0.278
576	0.278
577	0.278
577	0.278
577	0.279
578	0.279
578	0.279
579	0.28
579	0.28
580	0.28
580	0.279
581	0.278
581	0.278
581	0.278
582	0.279
582	0.279
583	0.279
583	0.279
584	0.278
584	0.277
585	0.278
585	0.279
585	0.279
586	0.28
586	0.28
587	0.279
587	0.279
588	0.278
588	0.279
589	0.279
589	0.279
590	0.279
590	0.279
590	0.28
591	0.28
591	0.28
592	0.28
592	0.279
593	0.28
593	0.28
594	0.28
594	0.279
594	0.28
595	0.28
595	0.28
596	0.28
596	0.281
597	0.282
597	0.282
598	0.282
598	0.282
598	0.282
599	0.282
599	0.281
600	0.281
600	0.28
601	0.28
601	0.279
602	0.278
602	0.279
602	0.279
603	0.279
603	0.28
604	0.281
604	0.282
605	0.282
605	0.283
606	0.283
606	0.282
606	0.282
607	0.282
607	0.281
608	0.281
608	0.28
609	0.279
609	0.28
610	0.279
610	0.279
610	0.28
611	0.28
611	0.281
612	0.282
612	0.283
613	0.283
613	0.284
614	0.283
614	0.282
614	0.281
615	0.281
615	0.28
616	0.28
616	0.279
617	0.278
617	0.277
618	0.277
618	0.276
618	0.276
619	0.277
619	0.277
620	0.277
620	0.277
621	0.277
621	0.277
622	0.277
622	0.277
622	0.276
623	0.276
623	0.276
624	0.276
624	0.275
625	0.275
625	0.275
626	0.274
626	0.274
626	0.273
627	0.273
627	0.272
628	0.271
628	0.27
629	0.269
629	0.267
630	0.266
630	0.264
630	0.263
631	0.261
631	0.259
632	0.257
632	0.255
633	0.253
633	0.25
634	0.248
634	0.246
634	0.244
635	0.242
635	0.239
636	0.236
636	0.233
637	0.229
637	0.226
638	0.222
638	0.218
638	0.213
639	0.209
639	0.204
640	0.199
640	0.194
641	0.189
641	0.185
642	0.18
642	0.175
642	0.17
643	0.165
643	0.159
644	0.154
644	0.148
645	0.141
645	0.135
646	0.129
646	0.122
646	0.115
647	0.108
647	0.102
648	0.094
648	0.087
649	0.079
649	0.071
650	0.064
650	0.055
650	0.046
651	0.036
651	0.023
652	0.008
652	-0.007
653	-0.021
653	-0.034
653	-0.031
654	-0.011
654	-0.001
655	-0.005
655	-0.011
656	-0.017
656	-0.024
657	-0.028
657	-0.032
657	-0.039
658	-0.046
658	-0.075
659	-0.16
659	-0.26
660	-0.305
660	-0.331
661	-0.359
661	-0.39
661	-0.424
662	-0.456
662	-0.489
663	-0.527
663	-0.57
664	-0.613
664	-0.664
665	-0.713
665	-0.772
665	-0.826
666	-0.881
666	-0.942
667	-1.005
667	-1.07
668	-1.141
668	-1.212
669	-1.284
669	-1.355
669	-1.43
670	-1.491
670	-1.503
671	-1.576
671	-1.888
672	-2.146
672	-2.352
672	-2.49
673	-2.588
673	-2.672
674	-2.73
674	-2.752
675	-2.778
675	-2.921
676	-3.128
676	-3.088
676	-2.868
677	-2.67
677	-2.517
678	-2.358
678	-2.109
679	-1.77
679	-1.613
680	-1.512
680	-1.426
680	-1.351
681	-1.303
681	-1.243
682	-1.202
682	-1.164
683	-1.129
683	-1.111
684	-1.09
684	-1.072
684	-1.05
685	-1.026
685	-1.005
686	-0.979
686	-0.964
687	-0.939
687	-0.927
687	-0.908
688	-0.883
688	-0.863
689	-0.842
689	-0.826
690	-0.807
690	-0.795
691	-0.791
691	-0.795
691	-0.81
692	-0.801
692	-0.791
693	-0.784
693	-0.791
694	-0.787
694	-0.783
695	-0.789
695	-0.785
695	-0.769
696	-0.765
696	-0.744
697	-0.745
697	-0.761
698	-0.766
698	-0.756
698	-0.769
699	-0.771
699	-0.767
700	-0.758
700	-0.773
701	-0.771
701	-0.779
702	-0.777
702	-0.765
702	-0.755
703	-0.747
703	-0.739
704	-0.735
704	-0.734
705	-0.748
705	-0.741
705	-0.729
706	-0.729
706	-0.726
707	-0.73
707	-0.726
708	-0.725
708	-0.718
709	-0.721
709	-0.725
709	-0.716
710	-0.724
710	-0.736
711	-0.725
711	-0.727
712	-0.728
712	-0.742
713	-0.738
713	-0.745
713	-0.737
714	-0.732
714	-0.732
715	-0.722
715	-0.708
716	-0.716
716	-0.718
716	-0.711
717	-0.712
717	-0.716
718	-0.707
718	-0.706
719	-0.713
719	-0.714
720	-0.71
720	-0.718
720	-0.712
721	-0.701
721	-0.699
722	-0.685
722	-0.675
723	-0.672
723	-0.675
723	-0.664
724	-0.666
724	-0.669
725	-0.669
725	-0.677
726	-0.689
726	-0.695
727	-0.701
727	-0.714
727	-0.722
728	-0.725
728	-0.731
729	-0.732
729	-0.739
730	-0.744
730	-0.736
730	-0.727
731	-0.71
731	-0.72
732	-0.727
732	-0.729
733	-0.725
733	-0.727
734	-0.722
734	-0.72
734	-0.707
735	-0.707
735	-0.708
736	-0.717
736	-0.704
737	-0.694
737	-0.694
737	-0.705
738	-0.701
738	-0.703
739	-0.702
739	-0.715
740	-0.713
740	-0.712
741	-0.707
741	-0.707
741	-0.713
742	-0.711
742	-0.712
743	-0.722
743	-0.724
744	-0.72
744	-0.709
744	-0.71
745	-0.717
745	-0.712
746	-0.711
746	-0.705
747	-0.708
747	-0.696
748	-0.681
748	-0.685
748	-0.688
749	-0.687
749	-0.688
750	-0.678
750	-0.679
751	-0.683
751	-0.692
751	-0.693
752	-0.696
752	-0.706
753	-0.699
753	-0.696
754	-0.702
754	-0.696
754	-0.71
755	-0.724
755	-0.734
756	-0.724
756	-0.722
757	-0.721
757	-0.716
758	-0.721
758	-0.718
758	-0.721
759	-0.727
759	-0.709
760	-0.703
760	-0.699
761	-0.709
761	-0.707
761	-0.706
762	-0.713
762	-0.712
763	-0.719
763	-0.716
764	-0.715
764	-0.723
764	-0.728
765	-0.718
765	-0.704
766	-0.71
766	-0.718
767	-0.731
767	-0.725
768	-0.717
768	-0.727
768	-0.732
769	-0.75
769	-0.753
770	-0.759
770	-0.772
771	-0.769
771	-0.772
771	-0.775
772	-0.78
772	-0.78
773	-0.778
773	-0.774
774	-0.771
774	-0.773
775	-0.776
775	-0.768
775	-0.777
776	-0.778
776	-0.767
777	-0.775
777	-0.792
778	-0.788
778	-0.806
778	-0.793
779	-0.815
779	-0.822
780	-0.839
780	-0.838
781	-0.849
781	-0.844
781	-0.859
782	-0.861
782	-0.865
783	-0.853
783	-0.852
784	-0.831
784	-0.82
784	-0.827
785	-0.831
785	-0.815
786	-0.822
786	-0.8
787	-0.785
787	-0.788
788	-0.789
788	-0.802
788	-0.814
789	-0.815
789	-0.798
790	-0.782
790	-0.786
791	-0.785
791	-0.801
791	-0.807
792	-0.801
792	-0.778
793	-0.766
793	-0.741
794	-0.747
794	-0.739
794	-0.75
795	-0.746
795	-0.737
796	-0.72
796	-0.728
797	-0.722
797	-0.733
797	-0.74
798	-0.754
798	-0.746
799	-0.755
799	-0.739
800	-0.746
800	-0.738
801	-0.744
801	-0.729
801	-0.737
802	-0.747
802	-0.747
803	-0.747
803	-0.757
804	-0.752
804	-0.761
804	-0.748
805	-0.756
805	-0.744
806	-0.748
806	-0.733
807	-0.728
807	-0.711
807	-0.698
808	-0.689
808	-0.683
809	-0.67
809	-0.678
810	-0.674
810	-0.667
810	-0.664
811	-0.671
811	-0.664
812	-0.665
812	-0.67
813	-0.676
813	-0.671
813	-0.675
814	-0.678
814	-0.684
815	-0.689
815	-0.692
816	-0.685
816	-0.689
817	-0.697
817	-0.714
817	-0.726
818	-0.736
818	-0.741
819	-0.731
819	-0.731
820	-0.741
820	-0.737
820	-0.748
821	-0.747
821	-0.736
822	-0.703
822	-0.679
823	-0.675
823	-0.677
823	-0.674
824	-0.668
824	-0.67
825	-0.663
825	-0.644
826	-0.638
826	-0.644
826	-0.654
827	-0.648
827	-0.645
828	-0.625
828	-0.627
829	-0.616
829	-0.602
829	-0.593
830	-0.603
830	-0.6
831	-0.593
831	-0.582
832	-0.583
832	-0.576
832	-0.583
833	-0.577
833	-0.58
834	-0.578
834	-0.587
835	-0.574
835	-0.569
835	-0.564
836	-0.562
836	-0.557
837	-0.554
837	-0.542
838	-0.533
838	-0.518
839	-0.505
839	-0.492
839	-0.482
840	-0.47
840	-0.467
841	-0.455
841	-0.446
842	-0.44
842	-0.431
842	-0.424
843	-0.419
843	-0.414
844	-0.403
844	-0.395
845	-0.385
845	-0.371
845	-0.359
846	-0.349
846	-0.332
847	-0.32
847	-0.307
848	-0.294
848	-0.283
848	-0.267
849	-0.257
849	-0.247
850	-0.235
850	-0.227
851	-0.217
851	-0.206
851	-0.197
852	-0.18
852	-0.167
853	-0.157
853	-0.152
854	-0.137
854	-0.124
854	-0.112
855	-0.1
855	-0.092
856	-0.082
856	-0.073
857	-0.067
857	-0.059
857	-0.047
858	-0.035
858	-0.029
859	-0.021
859	-0.01
860	-0
860	0.013
860	0.021
861	0.03
861	0.04
862	0.049
862	0.057
863	0.064
863	0.074
863	0.08
864	0.086
864	0.093
865	0.098
865	0.103
866	0.108
866	0.112
866	0.116
867	0.12
867	0.124
868	0.127
868	0.132
869	0.135
869	0.138
869	0.14
870	0.143
870	0.146
871	0.148
871	0.15
872	0.151
872	0.152
872	0.152
873	0.153
873	0.153
874	0.153
874	0.153
875	0.152
875	0.15
875	0.149
876	0.148
876	0.147
877	0.145
877	0.144
878	0.142
878	0.14
878	0.138
879	0.136
879	0.135
880	0.134
880	0.134
881	0.134
881	0.134
881	0.133
882	0.133
882	0.132
883	0.13
883	0.129
884	0.128
884	0.127
884	0.126
885	0.125
885	0.125
886	0.124
886	0.123
887	0.123
887	0.123
887	0.123
888	0.123
888	0.123
889	0.123
889	0.123
890	0.123
890	0.123
890	0.123
891	0.123
891	0.123
892	0.123
892	0.123
893	0.123
893	0.123
893	0.123
894	0.123
894	0.122
895	0.122
895	0.122
895	0.122
896	0.121
896	0.12
897	0.119
897	0.118
898	0.117
898	0.117
898	0.116
899	0.116
899	0.117
900	0.117
900	0.117
901	0.118
901	0.119
901	0.12
902	0.121
902	0.122
903	0.122
903	0.122
904	0.123
904	0.123
904	0.124
905	0.125
905	0.125
906	0.125
906	0.125
907	0.124
907	0.124
907	0.124
908	0.123
908	0.122
909	0.122
909	0.121
910	0.121
910	0.12
910	0.12
911	0.12
911	0.12
912	0.121
912	0.121
913	0.121
913	0.122
913	0.123
914	0.124
914	0.125
915	0.125
915	0.126
916	0.126
916	0.126
916	0.126
917	0.127
917	0.127
918	0.127
918	0.126
918	0.126
919	0.125
919	0.125
920	0.125
920	0.125
921	0.125
921	0.125
921	0.125
922	0.125
922	0.125
923	0.125
923	0.125
924	0.124
924	0.124
924	0.123
925	0.122
925	0.121
926	0.12
926	0.119
927	0.118
927	0.117
927	0.116
928	0.116
928	0.115
929	0.115
929	0.114
930	0.114
930	0.113
930	0.113
931	0.112
931	0.112
932	0.112
932	0.111
933	0.11
933	0.109
933	0.107
934	0.106
934	0.105
935	0.104
935	0.103
935	0.102
936	0.101
936	0.099
937	0.098
937	0.098
938	0.098
938	0.098
938	0.098
939	0.098
939	0.098
940	0.099
940	0.099
941	0.1
941	0.101
941	0.102
942	0.102
942	0.102
943	0.102
943	0.102
944	0.102
944	0.102
944	0.101
945	0.101
945	0.099
946	0.098
946	0.096
946	0.095
947	0.094
947	0.094
948	0.094
948	0.094
949	0.094
949	0.095
949	0.096
950	0.096
950	0.097
951	0.098
951	0.098
952	0.099
952	0.1
952	0.101
953	0.101
953	0.102
954	0.102
954	0.103
955	0.104
955	0.105
955	0.106
956	0.107
956	0.108
957	0.108
957	0.108
957	0.108
958	0.108
958	0.109
959	0.11
959	0.109
960	0.109
960	0.109
960	0.11
961	0.109
961	0.11
962	0.11
962	0.11
963	0.11
963	0.109
963	0.109
964	0.109
964	0.109
965	0.11
965	0.11
966	0.11
966	0.109
966	0.109
967	0.109
967	0.108
968	0.107
968	0.107
968	0.106
969	0.106
969	0.105
970	0.104
970	0.104
971	0.104
971	0.104
971	0.104
972	0.104
972	0.104
973	0.105
973	0.104
974	0.104
974	0.104
974	0.104
975	0.104
975	0.103
976	0.102
976	0.102
976	0.101
977	0.101
977	0.101
978	0.101
978	0.101
979	0.101
979	0.1
979	0.1
980	0.099
980	0.099
981	0.099
981	0.099
982	0.098
982	0.098
982	0.098
983	0.097
983	0.097
984	0.097
984	0.098
984	0.098
985	0.098
985	0.099
986	0.098
986	0.098
987	0.098
987	0.098
987	0.097
988	0.097
988	0.096
989	0.095
989	0.094
990	0.093
990	0.092
990	0.091
991	0.091
991	0.09
992	0.09
992	0.09
992	0.089
993	0.089
993	0.089
994	0.089
994	0.089
995	0.089
995	0.088
995	0.088
996	0.087
996	0.087
997	0.086
997	0.086
997	0.086
998	0.086
998	0.086
999	0.086
999	0.087
1000	0.087
1000	0.087
1000	0.088
1001	0.088
1001	0.089
1002	0.089
1002	0.089
1003	0.089
1003	0.09
1003	0.089
1004	0.089
1004	0.089
1005	0.088
1005	0.087
1005	0.086
1006	0.085
1006	0.084
1007	0.083
1007	0.082
1008	0.082
1008	0.081
1008	0.08
1009	0.08
1009	0.079
1010	0.08
1010	0.079
1010	0.079
1011	0.079
1011	0.079
1012	0.078
1012	0.078
1013	0.077
1013	0.076
1013	0.075
1014	0.074
1014	0.073
1015	0.072
1015	0.072
1016	0.071
1016	0.07
1016	0.069
1017	0.068
1017	0.068
1018	0.068
1018	0.067
1018	0.066
1019	0.066
1019	0.065
1020	0.064
1020	0.063
1021	0.063
1021	0.062
1021	0.061
1022	0.06
1022	0.059
1023	0.059
1023	0.058
1023	0.058
1024	0.058
1024	0.058
1025	0.058
1025	0.058
1026	0.058
1026	0.059
1026	0.059
1027	0.059
1027	0.06
1028	0.06
1028	0.06
1028	0.06
1029	0.059
1029	0.059
1030	0.058
1030	0.058
1031	0.057
1031	0.057
1031	0.057
1032	0.057
1032	0.057
1033	0.056
1033	0.057
1033	0.057
1034	0.057
1034	0.057
1035	0.057
1035	0.057
1036	0.057
1036	0.057
1036	0.057
1037	0.057
1037	0.057
1038	0.057
1038	0.057
1039	0.057
1039	0.057
1039	0.058
1040	0.058
1040	0.058
1041	0.059
1041	0.059
1041	0.059
1042	0.059
1042	0.059
1043	0.058
1043	0.058
1044	0.057
1044	0.056
1044	0.056
1045	0.055
1045	0.055
1046	0.054
1046	0.053
1046	0.053
1047	0.054
1047	0.054
1048	0.054
1048	0.054
1049	0.054
1049	0.054
1049	0.054
1050	0.055
1050	0.055
1051	0.055
1051	0.055
1051	0.055
1052	0.056
1052	0.056
1053	0.056
1053	0.056
1053	0.056
1054	0.056
1054	0.056
1055	0.055
1055	0.055
1056	0.054
1056	0.053
1056	0.052
1057	0.052
1057	0.051
1058	0.05
1058	0.05
1058	0.049
1059	0.049
1059	0.048
1060	0.047
1060	0.047
1061	0.047
1061	0.047
1061	0.046
1062	0.046
1062	0.046
1063	0.046
1063	0.046
1063	0.047
1064	0.047
1064	0.047
1065	0.047
1065	0.047
1066	0.046
1066	0.046
1066	0.046
1067	0.046
1067	0.046
1068	0.045
1068	0.044
1068	0.044
1069	0.043
1069	0.043
1070	0.042
1070	0.042
1071	0.042
1071	0.042
1071	0.041
1072	0.041
1072	0.041
1073	0.041
1073	0.041
1073	0.04
1074	0.04
1074	0.041
1075	0.04
1075	0.04
1076	0.039
1076	0.039
1076	0.038
1077	0.037
1077	0.037
1078	0.036
1078	0.035
1078	0.034
1079	0.034
1079	0.033
1080	0.032
1080	0.031
1080	0.03
1081	0.03
1081	0.029
1082	0.028
1082	0.027
1083	0.026
1083	0.025
1083	0.024
1084	0.023
1084	0.022
1085	0.021
1085	0.021
1085	0.02
1086	0.019
1086	0.018
1087	0.018
1087	0.018
1088	0.017
1088	0.017
1088	0.017
1089	0.015
1089	0.015
1090	0.013
1090	0.013
1090	0.012
1091	0.012
1091	0.011
1092	0.01
1092	0.01
1092	0.008
1093	0.007
1093	0.008
1094	0.007
1094	0.007
1095	0.005
1095	0.005
1095	0.004
1096	0.004
1096	0.003
1097	0.003
1097	0.001
1097	0.001
1098	-0.001
1098	-0.003
1099	-0.004
1099	-0.005
1100	-0.007
1100	-0.008
1100	-0.011
1101	-0.014
1101	-0.017
1102	-0.018
1102	-0.022
1102	-0.023
1103	-0.025
1103	-0.028
1104	-0.03
1104	-0.032
1104	-0.035
1105	-0.037
1105	-0.042
1106	-0.046
1106	-0.048
1107	-0.054
1107	-0.058
1107	-0.063
1108	-0.065
1108	-0.068
1109	-0.071
1109	-0.075
1109	-0.078
1110	-0.077
1110	-0.081
1111	-0.087
1111	-0.082
