Data from 17C_3.2A_35min_2sec_int_Absorbance__551__02113.txt Node

Date: Mon Jun 19 17:54:05 CEST 2023
User: Marek
Spectrometer: MAYP115816
Trigger mode: 0
Integration Time (sec): 2.500000E-1
Scans to average: 10
Electric dark correction enabled: true
Nonlinearity correction enabled: true
Boxcar width: 5
XAxis mode: Wavelengths
Number of Pixels in Spectrum: 2068
>>>>>Begin Spectral Data<<<<<
199	-0.707
199	-0.73
200	-0.639
200	-0.589
201	-0.556
201	-0.544
202	-0.527
202	-0.513
203	-0.505
203	-0.501
204	-0.488
204	-0.476
205	-0.454
205	-0.448
205	-0.446
206	-0.447
206	-0.45
207	-0.441
207	-0.443
208	-0.445
208	-0.443
209	-0.439
209	-0.441
210	-0.443
210	-0.449
211	-0.451
211	-0.452
212	-0.456
212	-0.464
213	-0.463
213	-0.464
213	-0.471
214	-0.468
214	-0.467
215	-0.467
215	-0.473
216	-0.476
216	-0.482
217	-0.477
217	-0.482
218	-0.484
218	-0.485
219	-0.487
219	-0.496
220	-0.502
220	-0.512
221	-0.509
221	-0.512
221	-0.509
222	-0.504
222	-0.504
223	-0.508
223	-0.51
224	-0.514
224	-0.513
225	-0.508
225	-0.502
226	-0.507
226	-0.507
227	-0.511
227	-0.521
228	-0.52
228	-0.519
229	-0.521
229	-0.514
229	-0.51
230	-0.514
230	-0.517
231	-0.51
231	-0.502
232	-0.496
232	-0.497
233	-0.492
233	-0.492
234	-0.491
234	-0.489
235	-0.493
235	-0.498
236	-0.496
236	-0.5
236	-0.505
237	-0.512
237	-0.511
238	-0.521
238	-0.521
239	-0.519
239	-0.528
240	-0.528
240	-0.525
241	-0.531
241	-0.53
242	-0.536
242	-0.529
243	-0.527
243	-0.526
243	-0.535
244	-0.535
244	-0.534
245	-0.547
245	-0.546
246	-0.553
246	-0.558
247	-0.558
247	-0.564
248	-0.57
248	-0.568
249	-0.57
249	-0.578
250	-0.578
250	-0.573
250	-0.573
251	-0.569
251	-0.569
252	-0.573
252	-0.563
253	-0.564
253	-0.573
254	-0.572
254	-0.57
255	-0.577
255	-0.571
256	-0.57
256	-0.582
257	-0.577
257	-0.575
258	-0.591
258	-0.591
258	-0.588
259	-0.583
259	-0.591
260	-0.59
260	-0.596
261	-0.606
261	-0.597
262	-0.595
262	-0.596
263	-0.585
263	-0.58
264	-0.582
264	-0.593
265	-0.589
265	-0.595
265	-0.596
266	-0.593
266	-0.593
267	-0.606
267	-0.614
268	-0.63
268	-0.639
269	-0.636
269	-0.629
270	-0.634
270	-0.638
271	-0.639
271	-0.644
272	-0.646
272	-0.64
272	-0.632
273	-0.629
273	-0.638
274	-0.647
274	-0.651
275	-0.651
275	-0.645
276	-0.652
276	-0.646
277	-0.652
277	-0.671
278	-0.681
278	-0.675
278	-0.67
279	-0.669
279	-0.681
280	-0.678
280	-0.678
281	-0.674
281	-0.679
282	-0.671
282	-0.671
283	-0.663
283	-0.667
284	-0.66
284	-0.65
285	-0.644
285	-0.644
285	-0.639
286	-0.645
286	-0.64
287	-0.637
287	-0.62
288	-0.613
288	-0.623
289	-0.635
289	-0.645
290	-0.635
290	-0.631
291	-0.63
291	-0.626
292	-0.631
292	-0.636
292	-0.642
293	-0.647
293	-0.638
294	-0.628
294	-0.619
295	-0.618
295	-0.614
296	-0.611
296	-0.606
297	-0.598
297	-0.584
298	-0.578
298	-0.585
298	-0.571
299	-0.565
299	-0.565
300	-0.56
300	-0.557
301	-0.551
301	-0.551
302	-0.559
302	-0.566
303	-0.551
303	-0.538
304	-0.54
304	-0.536
305	-0.538
305	-0.538
305	-0.535
306	-0.521
306	-0.516
307	-0.504
307	-0.509
308	-0.523
308	-0.521
309	-0.521
309	-0.514
310	-0.504
310	-0.501
311	-0.494
311	-0.501
311	-0.497
312	-0.492
312	-0.486
313	-0.472
313	-0.474
314	-0.473
314	-0.474
315	-0.475
315	-0.472
316	-0.469
316	-0.462
317	-0.456
317	-0.451
318	-0.442
318	-0.439
318	-0.434
319	-0.424
319	-0.42
320	-0.413
320	-0.415
321	-0.417
321	-0.416
322	-0.411
322	-0.406
323	-0.407
323	-0.402
324	-0.395
324	-0.387
324	-0.378
325	-0.368
325	-0.352
326	-0.339
326	-0.321
327	-0.305
327	-0.286
328	-0.261
328	-0.241
329	-0.218
329	-0.196
330	-0.171
330	-0.139
330	-0.112
331	-0.083
331	-0.056
332	-0.033
332	-0.012
333	0.01
333	0.034
334	0.052
334	0.069
335	0.085
335	0.099
336	0.113
336	0.125
336	0.134
337	0.144
337	0.153
338	0.161
338	0.166
339	0.174
339	0.179
340	0.184
340	0.188
341	0.191
341	0.195
342	0.198
342	0.201
342	0.204
343	0.206
343	0.209
344	0.211
344	0.212
345	0.213
345	0.214
346	0.214
346	0.215
347	0.216
347	0.217
348	0.217
348	0.217
348	0.218
349	0.218
349	0.218
350	0.219
350	0.219
351	0.219
351	0.219
352	0.219
352	0.219
353	0.219
353	0.219
354	0.219
354	0.219
354	0.219
355	0.219
355	0.219
356	0.218
356	0.218
357	0.217
357	0.217
358	0.217
358	0.217
359	0.216
359	0.216
360	0.216
360	0.216
360	0.216
361	0.216
361	0.215
362	0.216
362	0.216
363	0.216
363	0.216
364	0.216
364	0.216
365	0.216
365	0.216
366	0.216
366	0.216
366	0.216
367	0.216
367	0.216
368	0.216
368	0.216
369	0.216
369	0.216
370	0.215
370	0.215
371	0.215
371	0.215
372	0.215
372	0.215
372	0.215
373	0.215
373	0.215
374	0.215
374	0.215
375	0.215
375	0.215
376	0.215
376	0.215
377	0.215
377	0.215
378	0.215
378	0.215
378	0.215
379	0.215
379	0.215
380	0.215
380	0.214
381	0.214
381	0.214
382	0.214
382	0.214
383	0.214
383	0.213
383	0.213
384	0.213
384	0.213
385	0.213
385	0.213
386	0.213
386	0.213
387	0.213
387	0.213
388	0.213
388	0.213
389	0.213
389	0.213
389	0.213
390	0.213
390	0.213
391	0.213
391	0.213
392	0.213
392	0.213
393	0.213
393	0.213
394	0.213
394	0.212
394	0.212
395	0.212
395	0.212
396	0.212
396	0.211
397	0.211
397	0.211
398	0.211
398	0.212
399	0.211
399	0.211
400	0.211
400	0.211
400	0.211
401	0.211
401	0.211
402	0.211
402	0.211
403	0.21
403	0.21
404	0.21
404	0.21
405	0.21
405	0.21
405	0.21
406	0.21
406	0.21
407	0.21
407	0.209
408	0.209
408	0.209
409	0.209
409	0.209
410	0.209
410	0.209
411	0.209
411	0.209
411	0.209
412	0.209
412	0.209
413	0.209
413	0.209
414	0.209
414	0.209
415	0.209
415	0.209
416	0.208
416	0.208
416	0.208
417	0.208
417	0.208
418	0.208
418	0.208
419	0.208
419	0.209
420	0.209
420	0.209
421	0.209
421	0.209
421	0.209
422	0.209
422	0.209
423	0.208
423	0.208
424	0.208
424	0.207
425	0.207
425	0.207
426	0.207
426	0.207
427	0.206
427	0.206
427	0.206
428	0.206
428	0.206
429	0.206
429	0.206
430	0.206
430	0.206
431	0.206
431	0.206
432	0.206
432	0.206
432	0.205
433	0.205
433	0.205
434	0.205
434	0.205
435	0.205
435	0.205
436	0.205
436	0.205
437	0.204
437	0.204
437	0.204
438	0.204
438	0.204
439	0.204
439	0.204
440	0.204
440	0.204
441	0.204
441	0.204
442	0.204
442	0.203
442	0.203
443	0.203
443	0.203
444	0.203
444	0.203
445	0.203
445	0.203
446	0.204
446	0.204
447	0.204
447	0.204
447	0.204
448	0.204
448	0.204
449	0.204
449	0.204
450	0.204
450	0.204
451	0.204
451	0.204
452	0.204
452	0.204
452	0.204
453	0.203
453	0.203
454	0.203
454	0.203
455	0.203
455	0.203
456	0.203
456	0.202
457	0.202
457	0.202
458	0.203
458	0.203
458	0.203
459	0.203
459	0.203
460	0.202
460	0.202
461	0.202
461	0.202
462	0.202
462	0.202
463	0.202
463	0.202
463	0.203
464	0.203
464	0.203
465	0.203
465	0.203
466	0.203
466	0.203
467	0.203
467	0.203
467	0.203
468	0.203
468	0.203
469	0.204
469	0.204
470	0.204
470	0.204
471	0.204
471	0.204
472	0.204
472	0.204
472	0.205
473	0.205
473	0.205
474	0.205
474	0.205
475	0.205
475	0.205
476	0.206
476	0.206
477	0.206
477	0.206
477	0.206
478	0.206
478	0.206
479	0.206
479	0.206
480	0.206
480	0.207
481	0.207
481	0.207
482	0.207
482	0.207
482	0.208
483	0.208
483	0.209
484	0.209
484	0.209
485	0.209
485	0.21
486	0.21
486	0.21
487	0.211
487	0.212
487	0.212
488	0.212
488	0.213
489	0.214
489	0.215
490	0.216
490	0.217
491	0.218
491	0.218
492	0.219
492	0.22
492	0.22
493	0.221
493	0.222
494	0.222
494	0.223
495	0.224
495	0.224
496	0.225
496	0.226
496	0.227
497	0.228
497	0.229
498	0.23
498	0.231
499	0.232
499	0.233
500	0.234
500	0.235
501	0.235
501	0.236
501	0.237
502	0.237
502	0.238
503	0.239
503	0.24
504	0.241
504	0.242
505	0.243
505	0.244
506	0.245
506	0.246
506	0.247
507	0.248
507	0.249
508	0.25
508	0.251
509	0.252
509	0.253
510	0.254
510	0.255
511	0.256
511	0.257
511	0.258
512	0.259
512	0.261
513	0.262
513	0.263
514	0.264
514	0.265
515	0.266
515	0.267
515	0.268
516	0.269
516	0.27
517	0.271
517	0.272
518	0.273
518	0.274
519	0.275
519	0.276
520	0.277
520	0.278
520	0.279
521	0.28
521	0.281
522	0.282
522	0.283
523	0.284
523	0.285
524	0.286
524	0.286
524	0.287
525	0.287
525	0.288
526	0.289
526	0.289
527	0.29
527	0.291
528	0.291
528	0.292
529	0.293
529	0.294
529	0.295
530	0.296
530	0.296
531	0.297
531	0.297
532	0.298
532	0.299
533	0.299
533	0.299
533	0.3
534	0.3
534	0.3
535	0.3
535	0.3
536	0.3
536	0.3
537	0.3
537	0.301
538	0.301
538	0.301
538	0.301
539	0.302
539	0.303
540	0.303
540	0.303
541	0.303
541	0.304
542	0.304
542	0.304
542	0.304
543	0.304
543	0.303
544	0.303
544	0.303
545	0.303
545	0.303
546	0.303
546	0.303
547	0.303
547	0.302
547	0.302
548	0.303
548	0.303
549	0.303
549	0.303
550	0.303
550	0.303
551	0.303
551	0.303
551	0.304
552	0.305
552	0.305
553	0.306
553	0.306
554	0.306
554	0.306
555	0.306
555	0.306
556	0.306
556	0.306
556	0.305
557	0.305
557	0.305
558	0.304
558	0.304
559	0.303
559	0.303
560	0.303
560	0.303
560	0.302
561	0.303
561	0.302
562	0.302
562	0.301
563	0.301
563	0.301
564	0.301
564	0.301
564	0.302
565	0.302
565	0.302
566	0.302
566	0.302
567	0.302
567	0.302
568	0.302
568	0.302
568	0.301
569	0.301
569	0.3
570	0.299
570	0.298
571	0.298
571	0.298
572	0.297
572	0.297
573	0.297
573	0.296
573	0.296
574	0.296
574	0.296
575	0.296
575	0.297
576	0.297
576	0.296
577	0.296
577	0.296
577	0.297
578	0.297
578	0.297
579	0.298
579	0.299
580	0.298
580	0.297
581	0.296
581	0.296
581	0.297
582	0.297
582	0.297
583	0.297
583	0.297
584	0.296
584	0.295
585	0.296
585	0.297
585	0.297
586	0.297
586	0.297
587	0.296
587	0.296
588	0.296
588	0.296
589	0.296
589	0.296
590	0.296
590	0.296
590	0.297
591	0.298
591	0.297
592	0.297
592	0.296
593	0.296
593	0.296
594	0.296
594	0.296
594	0.296
595	0.296
595	0.296
596	0.296
596	0.298
597	0.299
597	0.299
598	0.298
598	0.298
598	0.298
599	0.298
599	0.297
600	0.296
600	0.295
601	0.295
601	0.295
602	0.293
602	0.294
602	0.294
603	0.294
603	0.295
604	0.296
604	0.296
605	0.297
605	0.298
606	0.297
606	0.297
606	0.297
607	0.296
607	0.296
608	0.295
608	0.294
609	0.294
609	0.294
610	0.294
610	0.293
610	0.294
611	0.294
611	0.295
612	0.296
612	0.296
613	0.297
613	0.297
614	0.296
614	0.295
614	0.295
615	0.294
615	0.293
616	0.293
616	0.292
617	0.291
617	0.29
618	0.289
618	0.289
618	0.289
619	0.289
619	0.289
620	0.29
620	0.29
621	0.289
621	0.289
622	0.289
622	0.288
622	0.288
623	0.287
623	0.287
624	0.287
624	0.286
625	0.285
625	0.285
626	0.284
626	0.284
626	0.283
627	0.283
627	0.282
628	0.281
628	0.28
629	0.278
629	0.277
630	0.275
630	0.273
630	0.272
631	0.27
631	0.268
632	0.265
632	0.263
633	0.261
633	0.258
634	0.256
634	0.253
634	0.251
635	0.248
635	0.245
636	0.242
636	0.238
637	0.235
637	0.231
638	0.227
638	0.222
638	0.218
639	0.213
639	0.208
640	0.203
640	0.197
641	0.192
641	0.187
642	0.182
642	0.177
642	0.172
643	0.166
643	0.16
644	0.154
644	0.148
645	0.141
645	0.135
646	0.128
646	0.121
646	0.114
647	0.107
647	0.1
648	0.093
648	0.085
649	0.077
649	0.069
650	0.061
650	0.053
650	0.044
651	0.034
651	0.021
652	0.005
652	-0.011
653	-0.025
653	-0.038
653	-0.035
654	-0.016
654	-0.005
655	-0.009
655	-0.015
656	-0.021
656	-0.028
657	-0.032
657	-0.037
657	-0.043
658	-0.049
658	-0.079
659	-0.165
659	-0.265
660	-0.31
660	-0.337
661	-0.365
661	-0.395
661	-0.429
662	-0.46
662	-0.494
663	-0.533
663	-0.575
664	-0.618
664	-0.669
665	-0.72
665	-0.777
665	-0.831
666	-0.888
666	-0.949
667	-1.013
667	-1.077
668	-1.149
668	-1.221
669	-1.294
669	-1.365
669	-1.44
670	-1.502
670	-1.516
671	-1.594
671	-1.908
672	-2.159
672	-2.361
672	-2.497
673	-2.594
673	-2.677
674	-2.736
674	-2.757
675	-2.784
675	-2.926
676	-3.132
676	-3.09
676	-2.871
677	-2.673
677	-2.52
678	-2.364
678	-2.119
679	-1.779
679	-1.62
680	-1.519
680	-1.432
680	-1.359
681	-1.311
681	-1.25
682	-1.209
682	-1.171
683	-1.135
683	-1.117
684	-1.096
684	-1.077
684	-1.055
685	-1.03
685	-1.007
686	-0.982
686	-0.967
687	-0.94
687	-0.928
687	-0.909
688	-0.882
688	-0.861
689	-0.839
689	-0.824
690	-0.806
690	-0.795
691	-0.789
691	-0.795
691	-0.811
692	-0.803
692	-0.792
693	-0.788
693	-0.796
694	-0.792
694	-0.785
695	-0.788
695	-0.784
695	-0.768
696	-0.763
696	-0.74
697	-0.741
697	-0.758
698	-0.763
698	-0.754
698	-0.767
699	-0.77
699	-0.767
700	-0.759
700	-0.774
701	-0.772
701	-0.777
702	-0.777
702	-0.765
702	-0.754
703	-0.748
703	-0.74
704	-0.736
704	-0.736
705	-0.748
705	-0.741
705	-0.73
706	-0.732
706	-0.727
707	-0.733
707	-0.729
708	-0.724
708	-0.715
709	-0.719
709	-0.722
709	-0.712
710	-0.72
710	-0.73
711	-0.721
711	-0.722
712	-0.72
712	-0.733
713	-0.733
713	-0.739
713	-0.73
714	-0.726
714	-0.729
715	-0.719
715	-0.705
716	-0.713
716	-0.715
716	-0.708
717	-0.709
717	-0.712
718	-0.703
718	-0.703
719	-0.71
719	-0.711
720	-0.708
720	-0.718
720	-0.71
721	-0.699
721	-0.699
722	-0.687
722	-0.676
723	-0.675
723	-0.68
723	-0.667
724	-0.671
724	-0.675
725	-0.674
725	-0.683
726	-0.694
726	-0.698
727	-0.703
727	-0.717
727	-0.725
728	-0.726
728	-0.731
729	-0.729
729	-0.732
730	-0.738
730	-0.731
730	-0.723
731	-0.706
731	-0.717
732	-0.724
732	-0.723
733	-0.719
733	-0.726
734	-0.719
734	-0.721
734	-0.707
735	-0.706
735	-0.707
736	-0.719
736	-0.704
737	-0.695
737	-0.697
737	-0.708
738	-0.702
738	-0.703
739	-0.7
739	-0.714
740	-0.714
740	-0.713
741	-0.708
741	-0.71
741	-0.712
742	-0.708
742	-0.708
743	-0.717
743	-0.721
744	-0.717
744	-0.708
744	-0.707
745	-0.715
745	-0.706
746	-0.705
746	-0.702
747	-0.704
747	-0.693
748	-0.68
748	-0.686
748	-0.691
749	-0.687
749	-0.687
750	-0.675
750	-0.679
751	-0.683
751	-0.693
751	-0.693
752	-0.698
752	-0.706
753	-0.701
753	-0.696
754	-0.701
754	-0.698
754	-0.712
755	-0.727
755	-0.738
756	-0.727
756	-0.726
757	-0.724
757	-0.719
758	-0.721
758	-0.717
758	-0.72
759	-0.726
759	-0.709
760	-0.703
760	-0.696
761	-0.705
761	-0.703
761	-0.702
762	-0.712
762	-0.713
763	-0.723
763	-0.72
764	-0.718
764	-0.725
764	-0.732
765	-0.722
765	-0.708
766	-0.715
766	-0.722
767	-0.736
767	-0.726
768	-0.718
768	-0.725
768	-0.731
769	-0.747
769	-0.747
770	-0.752
770	-0.765
771	-0.762
771	-0.762
771	-0.765
772	-0.771
772	-0.77
773	-0.771
773	-0.766
774	-0.766
774	-0.768
775	-0.77
775	-0.767
775	-0.774
776	-0.775
776	-0.764
777	-0.771
777	-0.79
778	-0.788
778	-0.809
778	-0.795
779	-0.816
779	-0.824
780	-0.837
780	-0.836
781	-0.849
781	-0.846
781	-0.864
782	-0.863
782	-0.865
783	-0.851
783	-0.85
784	-0.83
784	-0.818
784	-0.828
785	-0.834
785	-0.816
786	-0.821
786	-0.797
787	-0.783
787	-0.785
788	-0.788
788	-0.798
788	-0.81
789	-0.811
789	-0.792
790	-0.774
790	-0.778
791	-0.778
791	-0.798
791	-0.804
792	-0.798
792	-0.772
793	-0.76
793	-0.737
794	-0.742
794	-0.735
794	-0.746
795	-0.741
795	-0.731
796	-0.715
796	-0.722
797	-0.716
797	-0.728
797	-0.735
798	-0.746
798	-0.741
799	-0.75
799	-0.734
800	-0.738
800	-0.733
801	-0.738
801	-0.723
801	-0.733
802	-0.743
802	-0.745
803	-0.747
803	-0.754
804	-0.752
804	-0.763
804	-0.751
805	-0.756
805	-0.745
806	-0.747
806	-0.734
807	-0.729
807	-0.71
807	-0.696
808	-0.686
808	-0.678
809	-0.665
809	-0.673
810	-0.672
810	-0.663
810	-0.659
811	-0.664
811	-0.657
812	-0.661
812	-0.667
813	-0.672
813	-0.667
813	-0.673
814	-0.676
814	-0.68
815	-0.687
815	-0.691
816	-0.684
816	-0.686
817	-0.691
817	-0.707
817	-0.722
818	-0.731
818	-0.732
819	-0.722
819	-0.722
820	-0.731
820	-0.727
820	-0.738
821	-0.738
821	-0.726
822	-0.694
822	-0.67
823	-0.666
823	-0.67
823	-0.669
824	-0.665
824	-0.666
825	-0.66
825	-0.641
826	-0.637
826	-0.645
826	-0.657
827	-0.651
827	-0.649
828	-0.627
828	-0.627
829	-0.616
829	-0.6
829	-0.592
830	-0.602
830	-0.598
831	-0.59
831	-0.578
832	-0.577
832	-0.568
832	-0.579
833	-0.572
833	-0.572
834	-0.57
834	-0.578
835	-0.565
835	-0.558
835	-0.555
836	-0.552
836	-0.55
837	-0.546
837	-0.535
838	-0.528
838	-0.515
839	-0.504
839	-0.491
839	-0.481
840	-0.47
840	-0.465
841	-0.454
841	-0.444
842	-0.439
842	-0.427
842	-0.418
843	-0.413
843	-0.409
844	-0.402
844	-0.395
845	-0.387
845	-0.376
845	-0.362
846	-0.352
846	-0.338
847	-0.327
847	-0.315
848	-0.302
848	-0.289
848	-0.273
849	-0.261
849	-0.248
850	-0.235
850	-0.228
851	-0.217
851	-0.206
851	-0.196
852	-0.18
852	-0.166
853	-0.158
853	-0.15
854	-0.14
854	-0.13
854	-0.117
855	-0.107
855	-0.098
856	-0.088
856	-0.079
857	-0.072
857	-0.064
857	-0.053
858	-0.042
858	-0.033
859	-0.023
859	-0.013
860	-0.002
860	0.01
860	0.019
861	0.028
861	0.038
862	0.045
862	0.054
863	0.062
863	0.071
863	0.077
864	0.083
864	0.089
865	0.095
865	0.099
866	0.104
866	0.108
866	0.112
867	0.116
867	0.12
868	0.122
868	0.126
869	0.13
869	0.133
869	0.135
870	0.137
870	0.14
871	0.143
871	0.144
872	0.145
872	0.146
872	0.147
873	0.147
873	0.147
874	0.147
874	0.147
875	0.146
875	0.145
875	0.144
876	0.142
876	0.141
877	0.14
877	0.138
878	0.136
878	0.134
878	0.132
879	0.131
879	0.129
880	0.128
880	0.128
881	0.128
881	0.128
881	0.128
882	0.127
882	0.126
883	0.125
883	0.123
884	0.123
884	0.122
884	0.121
885	0.12
885	0.119
886	0.118
886	0.117
887	0.117
887	0.116
887	0.116
888	0.117
888	0.117
889	0.117
889	0.117
890	0.117
890	0.117
890	0.117
891	0.117
891	0.117
892	0.118
892	0.118
893	0.117
893	0.117
893	0.117
894	0.117
894	0.116
895	0.116
895	0.116
895	0.116
896	0.115
896	0.114
897	0.113
897	0.112
898	0.111
898	0.111
898	0.11
899	0.11
899	0.111
900	0.111
900	0.112
901	0.112
901	0.113
901	0.114
902	0.114
902	0.115
903	0.115
903	0.115
904	0.116
904	0.116
904	0.117
905	0.118
905	0.118
906	0.118
906	0.118
907	0.118
907	0.118
907	0.118
908	0.117
908	0.116
909	0.116
909	0.115
910	0.115
910	0.114
910	0.114
911	0.114
911	0.114
912	0.115
912	0.115
913	0.115
913	0.116
913	0.117
914	0.118
914	0.119
915	0.119
915	0.12
916	0.12
916	0.12
916	0.121
917	0.121
917	0.121
918	0.12
918	0.12
918	0.12
919	0.12
919	0.12
920	0.12
920	0.12
921	0.12
921	0.12
921	0.12
922	0.12
922	0.12
923	0.12
923	0.12
924	0.119
924	0.119
924	0.118
925	0.117
925	0.116
926	0.115
926	0.114
927	0.113
927	0.112
927	0.111
928	0.11
928	0.11
929	0.109
929	0.109
930	0.108
930	0.108
930	0.107
931	0.107
931	0.107
932	0.106
932	0.106
933	0.105
933	0.104
933	0.102
934	0.101
934	0.1
935	0.099
935	0.098
935	0.097
936	0.096
936	0.094
937	0.093
937	0.093
938	0.093
938	0.093
938	0.093
939	0.093
939	0.094
940	0.094
940	0.095
941	0.095
941	0.096
941	0.097
942	0.097
942	0.097
943	0.097
943	0.097
944	0.097
944	0.096
944	0.095
945	0.095
945	0.093
946	0.092
946	0.09
946	0.09
947	0.089
947	0.088
948	0.089
948	0.088
949	0.088
949	0.089
949	0.09
950	0.091
950	0.091
951	0.092
951	0.092
952	0.093
952	0.095
952	0.095
953	0.096
953	0.097
954	0.097
954	0.098
955	0.099
955	0.1
955	0.101
956	0.102
956	0.103
957	0.103
957	0.103
957	0.104
958	0.104
958	0.105
959	0.105
959	0.105
960	0.105
960	0.104
960	0.105
961	0.104
961	0.105
962	0.105
962	0.104
963	0.105
963	0.104
963	0.104
964	0.105
964	0.105
965	0.105
965	0.105
966	0.104
966	0.104
966	0.104
967	0.104
967	0.102
968	0.101
968	0.101
968	0.1
969	0.099
969	0.099
970	0.098
970	0.098
971	0.098
971	0.099
971	0.099
972	0.099
972	0.099
973	0.099
973	0.099
974	0.099
974	0.099
974	0.099
975	0.098
975	0.098
976	0.097
976	0.097
976	0.096
977	0.096
977	0.096
978	0.096
978	0.096
979	0.096
979	0.095
979	0.095
980	0.095
980	0.095
981	0.095
981	0.094
982	0.094
982	0.093
982	0.093
983	0.093
983	0.093
984	0.093
984	0.093
984	0.093
985	0.093
985	0.093
986	0.093
986	0.093
987	0.093
987	0.092
987	0.092
988	0.091
988	0.09
989	0.089
989	0.088
990	0.088
990	0.087
990	0.086
991	0.086
991	0.085
992	0.085
992	0.084
992	0.084
993	0.084
993	0.084
994	0.084
994	0.083
995	0.083
995	0.082
995	0.082
996	0.081
996	0.081
997	0.08
997	0.08
997	0.08
998	0.08
998	0.08
999	0.081
999	0.081
1000	0.081
1000	0.081
1000	0.082
1001	0.083
1001	0.083
1002	0.083
1002	0.084
1003	0.084
1003	0.084
1003	0.084
1004	0.084
1004	0.084
1005	0.083
1005	0.082
1005	0.081
1006	0.08
1006	0.079
1007	0.078
1007	0.077
1008	0.076
1008	0.075
1008	0.075
1009	0.075
1009	0.074
1010	0.074
1010	0.074
1010	0.074
1011	0.074
1011	0.074
1012	0.073
1012	0.072
1013	0.072
1013	0.071
1013	0.069
1014	0.069
1014	0.068
1015	0.067
1015	0.067
1016	0.066
1016	0.065
1016	0.064
1017	0.063
1017	0.063
1018	0.063
1018	0.062
1018	0.061
1019	0.061
1019	0.06
1020	0.059
1020	0.058
1021	0.057
1021	0.056
1021	0.056
1022	0.055
1022	0.054
1023	0.053
1023	0.053
1023	0.053
1024	0.052
1024	0.052
1025	0.052
1025	0.052
1026	0.053
1026	0.053
1026	0.053
1027	0.053
1027	0.054
1028	0.054
1028	0.053
1028	0.053
1029	0.053
1029	0.053
1030	0.052
1030	0.052
1031	0.051
1031	0.051
1031	0.051
1032	0.051
1032	0.051
1033	0.051
1033	0.051
1033	0.051
1034	0.051
1034	0.051
1035	0.051
1035	0.051
1036	0.051
1036	0.051
1036	0.051
1037	0.051
1037	0.051
1038	0.051
1038	0.051
1039	0.052
1039	0.052
1039	0.052
1040	0.052
1040	0.053
1041	0.053
1041	0.054
1041	0.054
1042	0.054
1042	0.054
1043	0.053
1043	0.053
1044	0.053
1044	0.052
1044	0.051
1045	0.05
1045	0.05
1046	0.049
1046	0.048
1046	0.048
1047	0.048
1047	0.048
1048	0.048
1048	0.048
1049	0.048
1049	0.049
1049	0.049
1050	0.049
1050	0.05
1051	0.05
1051	0.05
1051	0.051
1052	0.051
1052	0.051
1053	0.051
1053	0.051
1053	0.051
1054	0.051
1054	0.051
1055	0.051
1055	0.05
1056	0.05
1056	0.049
1056	0.048
1057	0.047
1057	0.046
1058	0.046
1058	0.045
1058	0.045
1059	0.044
1059	0.043
1060	0.042
1060	0.042
1061	0.042
1061	0.042
1061	0.042
1062	0.042
1062	0.042
1063	0.041
1063	0.041
1063	0.042
1064	0.042
1064	0.042
1065	0.042
1065	0.042
1066	0.041
1066	0.041
1066	0.041
1067	0.041
1067	0.041
1068	0.04
1068	0.039
1068	0.039
1069	0.038
1069	0.038
1070	0.038
1070	0.038
1071	0.037
1071	0.037
1071	0.036
1072	0.036
1072	0.036
1073	0.035
1073	0.036
1073	0.035
1074	0.036
1074	0.036
1075	0.036
1075	0.035
1076	0.035
1076	0.035
1076	0.034
1077	0.033
1077	0.033
1078	0.032
1078	0.031
1078	0.03
1079	0.029
1079	0.029
1080	0.028
1080	0.027
1080	0.026
1081	0.025
1081	0.025
1082	0.024
1082	0.023
1083	0.022
1083	0.021
1083	0.02
1084	0.019
1084	0.019
1085	0.018
1085	0.017
1085	0.017
1086	0.016
1086	0.015
1087	0.015
1087	0.015
1088	0.014
1088	0.014
1088	0.013
1089	0.013
1089	0.012
1090	0.01
1090	0.009
1090	0.008
1091	0.007
1091	0.007
1092	0.006
1092	0.006
1092	0.005
1093	0.004
1093	0.004
1094	0.004
1094	0.003
1095	0.002
1095	0.001
1095	0.001
1096	-0
1096	-0.001
1097	-0.002
1097	-0.003
1097	-0.004
1098	-0.006
1098	-0.008
1099	-0.009
1099	-0.01
1100	-0.012
1100	-0.013
1100	-0.015
1101	-0.018
1101	-0.021
1102	-0.022
1102	-0.025
1102	-0.026
1103	-0.028
1103	-0.031
1104	-0.033
1104	-0.036
1104	-0.038
1105	-0.04
1105	-0.043
1106	-0.048
1106	-0.051
1107	-0.054
1107	-0.059
1107	-0.065
1108	-0.067
1108	-0.069
1109	-0.072
1109	-0.077
1109	-0.08
1110	-0.082
1110	-0.082
1111	-0.089
1111	-0.093
