Data from 17C_3.2A_35min_2sec_int_Absorbance__115__01677.txt Node

Date: Mon Jun 19 17:35:55 CEST 2023
User: Marek
Spectrometer: MAYP115816
Trigger mode: 0
Integration Time (sec): 2.500000E-1
Scans to average: 10
Electric dark correction enabled: true
Nonlinearity correction enabled: true
Boxcar width: 5
XAxis mode: Wavelengths
Number of Pixels in Spectrum: 2068
>>>>>Begin Spectral Data<<<<<
199	-0.718
199	-0.735
200	-0.633
200	-0.583
201	-0.546
201	-0.536
202	-0.517
202	-0.504
203	-0.497
203	-0.492
204	-0.477
204	-0.465
205	-0.441
205	-0.438
205	-0.437
206	-0.44
206	-0.441
207	-0.432
207	-0.433
208	-0.435
208	-0.432
209	-0.427
209	-0.426
210	-0.429
210	-0.435
211	-0.434
211	-0.435
212	-0.437
212	-0.446
213	-0.443
213	-0.444
213	-0.45
214	-0.446
214	-0.444
215	-0.443
215	-0.447
216	-0.451
216	-0.459
217	-0.454
217	-0.458
218	-0.464
218	-0.463
219	-0.467
219	-0.477
220	-0.483
220	-0.493
221	-0.492
221	-0.496
221	-0.489
222	-0.486
222	-0.485
223	-0.487
223	-0.491
224	-0.495
224	-0.495
225	-0.491
225	-0.485
226	-0.49
226	-0.489
227	-0.495
227	-0.504
228	-0.507
228	-0.506
229	-0.508
229	-0.502
229	-0.497
230	-0.503
230	-0.509
231	-0.503
231	-0.494
232	-0.489
232	-0.487
233	-0.481
233	-0.481
234	-0.479
234	-0.477
235	-0.48
235	-0.483
236	-0.478
236	-0.481
236	-0.489
237	-0.493
237	-0.492
238	-0.5
238	-0.497
239	-0.497
239	-0.505
240	-0.503
240	-0.502
241	-0.508
241	-0.508
242	-0.511
242	-0.508
243	-0.506
243	-0.507
243	-0.516
244	-0.516
244	-0.515
245	-0.53
245	-0.53
246	-0.533
246	-0.538
247	-0.538
247	-0.542
248	-0.548
248	-0.545
249	-0.549
249	-0.558
250	-0.555
250	-0.548
250	-0.548
251	-0.545
251	-0.545
252	-0.551
252	-0.541
253	-0.547
253	-0.559
254	-0.555
254	-0.551
255	-0.56
255	-0.554
256	-0.551
256	-0.562
257	-0.56
257	-0.555
258	-0.572
258	-0.568
258	-0.565
259	-0.563
259	-0.575
260	-0.574
260	-0.578
261	-0.588
261	-0.581
262	-0.576
262	-0.578
263	-0.565
263	-0.562
264	-0.559
264	-0.568
265	-0.562
265	-0.569
265	-0.573
266	-0.57
266	-0.568
267	-0.582
267	-0.589
268	-0.604
268	-0.613
269	-0.612
269	-0.605
270	-0.608
270	-0.61
271	-0.61
271	-0.615
272	-0.62
272	-0.614
272	-0.609
273	-0.609
273	-0.618
274	-0.621
274	-0.624
275	-0.626
275	-0.62
276	-0.626
276	-0.62
277	-0.624
277	-0.641
278	-0.65
278	-0.643
278	-0.635
279	-0.638
279	-0.651
280	-0.647
280	-0.647
281	-0.642
281	-0.649
282	-0.64
282	-0.64
283	-0.631
283	-0.632
284	-0.628
284	-0.618
285	-0.612
285	-0.61
285	-0.607
286	-0.615
286	-0.608
287	-0.605
287	-0.589
288	-0.582
288	-0.588
289	-0.602
289	-0.612
290	-0.603
290	-0.603
291	-0.6
291	-0.59
292	-0.595
292	-0.602
292	-0.607
293	-0.613
293	-0.602
294	-0.591
294	-0.58
295	-0.576
295	-0.571
296	-0.569
296	-0.57
297	-0.563
297	-0.547
298	-0.54
298	-0.55
298	-0.537
299	-0.53
299	-0.534
300	-0.529
300	-0.525
301	-0.52
301	-0.518
302	-0.524
302	-0.532
303	-0.519
303	-0.504
304	-0.507
304	-0.507
305	-0.508
305	-0.507
305	-0.504
306	-0.488
306	-0.484
307	-0.471
307	-0.471
308	-0.483
308	-0.48
309	-0.482
309	-0.471
310	-0.458
310	-0.456
311	-0.45
311	-0.455
311	-0.45
312	-0.447
312	-0.445
313	-0.434
313	-0.438
314	-0.434
314	-0.436
315	-0.438
315	-0.436
316	-0.431
316	-0.425
317	-0.416
317	-0.412
318	-0.401
318	-0.398
318	-0.391
319	-0.384
319	-0.379
320	-0.373
320	-0.375
321	-0.38
321	-0.379
322	-0.375
322	-0.368
323	-0.369
323	-0.363
324	-0.356
324	-0.347
324	-0.337
325	-0.326
325	-0.306
326	-0.289
326	-0.27
327	-0.254
327	-0.234
328	-0.207
328	-0.186
329	-0.16
329	-0.134
330	-0.103
330	-0.07
330	-0.042
331	-0.011
331	0.02
332	0.047
332	0.073
333	0.099
333	0.127
334	0.15
334	0.169
335	0.189
335	0.206
336	0.222
336	0.238
336	0.249
337	0.263
337	0.273
338	0.283
338	0.289
339	0.299
339	0.306
340	0.312
340	0.317
341	0.322
341	0.326
342	0.331
342	0.334
342	0.338
343	0.34
343	0.343
344	0.345
344	0.347
345	0.348
345	0.35
346	0.351
346	0.352
347	0.352
347	0.353
348	0.354
348	0.354
348	0.355
349	0.355
349	0.355
350	0.355
350	0.355
351	0.356
351	0.356
352	0.356
352	0.355
353	0.355
353	0.355
354	0.355
354	0.355
354	0.355
355	0.355
355	0.354
356	0.354
356	0.354
357	0.354
357	0.353
358	0.353
358	0.353
359	0.352
359	0.352
360	0.352
360	0.352
360	0.352
361	0.351
361	0.351
362	0.351
362	0.351
363	0.351
363	0.351
364	0.351
364	0.351
365	0.351
365	0.35
366	0.35
366	0.35
366	0.35
367	0.35
367	0.35
368	0.349
368	0.349
369	0.349
369	0.349
370	0.348
370	0.348
371	0.348
371	0.347
372	0.347
372	0.347
372	0.347
373	0.347
373	0.346
374	0.346
374	0.346
375	0.346
375	0.346
376	0.345
376	0.345
377	0.345
377	0.345
378	0.344
378	0.344
378	0.344
379	0.343
379	0.343
380	0.343
380	0.342
381	0.342
381	0.341
382	0.341
382	0.34
383	0.34
383	0.34
383	0.339
384	0.339
384	0.339
385	0.339
385	0.339
386	0.338
386	0.338
387	0.338
387	0.338
388	0.337
388	0.337
389	0.337
389	0.337
389	0.337
390	0.336
390	0.336
391	0.336
391	0.336
392	0.335
392	0.335
393	0.335
393	0.334
394	0.334
394	0.334
394	0.333
395	0.333
395	0.333
396	0.332
396	0.332
397	0.332
397	0.331
398	0.331
398	0.331
399	0.331
399	0.33
400	0.33
400	0.33
400	0.329
401	0.329
401	0.328
402	0.328
402	0.328
403	0.328
403	0.327
404	0.327
404	0.327
405	0.327
405	0.326
405	0.326
406	0.326
406	0.326
407	0.325
407	0.325
408	0.325
408	0.324
409	0.324
409	0.324
410	0.324
410	0.324
411	0.324
411	0.324
411	0.324
412	0.324
412	0.323
413	0.323
413	0.323
414	0.322
414	0.322
415	0.322
415	0.322
416	0.321
416	0.321
416	0.321
417	0.32
417	0.32
418	0.32
418	0.32
419	0.32
419	0.32
420	0.32
420	0.32
421	0.32
421	0.32
421	0.32
422	0.32
422	0.32
423	0.32
423	0.319
424	0.319
424	0.318
425	0.318
425	0.318
426	0.317
426	0.317
427	0.316
427	0.316
427	0.316
428	0.316
428	0.316
429	0.316
429	0.316
430	0.316
430	0.315
431	0.315
431	0.315
432	0.315
432	0.315
432	0.314
433	0.314
433	0.314
434	0.314
434	0.314
435	0.313
435	0.313
436	0.313
436	0.313
437	0.313
437	0.313
437	0.313
438	0.313
438	0.313
439	0.313
439	0.313
440	0.313
440	0.313
441	0.312
441	0.312
442	0.312
442	0.312
442	0.312
443	0.312
443	0.312
444	0.312
444	0.312
445	0.312
445	0.312
446	0.312
446	0.312
447	0.312
447	0.313
447	0.313
448	0.313
448	0.313
449	0.313
449	0.313
450	0.313
450	0.313
451	0.313
451	0.314
452	0.313
452	0.313
452	0.313
453	0.313
453	0.313
454	0.313
454	0.313
455	0.313
455	0.313
456	0.313
456	0.313
457	0.313
457	0.313
458	0.313
458	0.313
458	0.314
459	0.314
459	0.314
460	0.314
460	0.314
461	0.315
461	0.315
462	0.315
462	0.315
463	0.315
463	0.316
463	0.316
464	0.316
464	0.316
465	0.317
465	0.317
466	0.317
466	0.318
467	0.318
467	0.318
467	0.318
468	0.319
468	0.319
469	0.32
469	0.32
470	0.321
470	0.321
471	0.322
471	0.322
472	0.323
472	0.323
472	0.324
473	0.325
473	0.325
474	0.326
474	0.327
475	0.327
475	0.328
476	0.329
476	0.33
477	0.33
477	0.331
477	0.332
478	0.332
478	0.333
479	0.334
479	0.335
480	0.336
480	0.336
481	0.337
481	0.338
482	0.34
482	0.341
482	0.342
483	0.343
483	0.345
484	0.346
484	0.346
485	0.348
485	0.349
486	0.35
486	0.351
487	0.353
487	0.354
487	0.355
488	0.357
488	0.358
489	0.36
489	0.363
490	0.365
490	0.367
491	0.369
491	0.371
492	0.372
492	0.374
492	0.376
493	0.378
493	0.38
494	0.382
494	0.384
495	0.386
495	0.388
496	0.391
496	0.393
496	0.395
497	0.398
497	0.4
498	0.403
498	0.405
499	0.407
499	0.41
500	0.413
500	0.415
501	0.418
501	0.42
501	0.423
502	0.425
502	0.427
503	0.43
503	0.433
504	0.435
504	0.438
505	0.441
505	0.444
506	0.447
506	0.449
506	0.452
507	0.455
507	0.457
508	0.46
508	0.463
509	0.466
509	0.469
510	0.472
510	0.475
511	0.478
511	0.481
511	0.483
512	0.487
512	0.489
513	0.492
513	0.495
514	0.497
514	0.5
515	0.503
515	0.505
515	0.508
516	0.511
516	0.514
517	0.516
517	0.518
518	0.521
518	0.523
519	0.525
519	0.527
520	0.529
520	0.532
520	0.534
521	0.537
521	0.539
522	0.541
522	0.543
523	0.546
523	0.548
524	0.549
524	0.551
524	0.552
525	0.553
525	0.554
526	0.555
526	0.556
527	0.558
527	0.558
528	0.56
528	0.561
529	0.562
529	0.563
529	0.564
530	0.565
530	0.565
531	0.566
531	0.567
532	0.567
532	0.568
533	0.568
533	0.568
533	0.568
534	0.567
534	0.567
535	0.566
535	0.566
536	0.566
536	0.565
537	0.564
537	0.563
538	0.563
538	0.562
538	0.562
539	0.561
539	0.561
540	0.56
540	0.559
541	0.558
541	0.557
542	0.556
542	0.555
542	0.553
543	0.551
543	0.549
544	0.548
544	0.546
545	0.545
545	0.544
546	0.543
546	0.541
547	0.539
547	0.537
547	0.536
548	0.534
548	0.533
549	0.531
549	0.53
550	0.527
550	0.525
551	0.523
551	0.522
551	0.521
552	0.519
552	0.518
553	0.516
553	0.515
554	0.513
554	0.511
555	0.509
555	0.507
556	0.505
556	0.502
556	0.501
557	0.498
557	0.495
558	0.493
558	0.49
559	0.488
559	0.486
560	0.483
560	0.481
560	0.479
561	0.477
561	0.475
562	0.472
562	0.47
563	0.468
563	0.466
564	0.463
564	0.461
564	0.459
565	0.457
565	0.455
566	0.453
566	0.451
567	0.449
567	0.447
568	0.444
568	0.442
568	0.439
569	0.437
569	0.434
570	0.431
570	0.428
571	0.426
571	0.424
572	0.421
572	0.419
573	0.417
573	0.415
573	0.412
574	0.411
574	0.409
575	0.407
575	0.406
576	0.403
576	0.401
577	0.399
577	0.397
577	0.396
578	0.394
578	0.392
579	0.391
579	0.389
580	0.386
580	0.383
581	0.38
581	0.378
581	0.377
582	0.375
582	0.373
583	0.371
583	0.369
584	0.366
584	0.363
585	0.362
585	0.36
585	0.358
586	0.356
586	0.355
587	0.353
587	0.351
588	0.349
588	0.347
589	0.345
589	0.344
590	0.342
590	0.34
590	0.339
591	0.336
591	0.333
592	0.331
592	0.329
593	0.327
593	0.325
594	0.324
594	0.322
594	0.321
595	0.319
595	0.317
596	0.315
596	0.314
597	0.313
597	0.311
598	0.309
598	0.307
598	0.305
599	0.303
599	0.301
600	0.299
600	0.297
601	0.295
601	0.293
602	0.29
602	0.289
602	0.287
603	0.286
603	0.285
604	0.284
604	0.282
605	0.281
605	0.28
606	0.278
606	0.276
606	0.275
607	0.273
607	0.271
608	0.269
608	0.267
609	0.265
609	0.264
610	0.262
610	0.26
610	0.259
611	0.258
611	0.257
612	0.256
612	0.256
613	0.255
613	0.253
614	0.251
614	0.249
614	0.247
615	0.246
615	0.244
616	0.242
616	0.24
617	0.238
617	0.236
618	0.234
618	0.232
618	0.231
619	0.23
619	0.229
620	0.228
620	0.227
621	0.226
621	0.224
622	0.223
622	0.221
622	0.22
623	0.218
623	0.217
624	0.216
624	0.214
625	0.213
625	0.211
626	0.209
626	0.208
626	0.206
627	0.205
627	0.202
628	0.2
628	0.198
629	0.196
629	0.193
630	0.19
630	0.188
630	0.185
631	0.182
631	0.179
632	0.176
632	0.173
633	0.169
633	0.166
634	0.162
634	0.159
634	0.156
635	0.152
635	0.148
636	0.144
636	0.139
637	0.135
637	0.13
638	0.125
638	0.119
638	0.114
639	0.108
639	0.101
640	0.095
640	0.089
641	0.083
641	0.077
642	0.071
642	0.064
642	0.058
643	0.052
643	0.045
644	0.038
644	0.031
645	0.024
645	0.017
646	0.011
646	0.003
646	-0.004
647	-0.011
647	-0.018
648	-0.025
648	-0.032
649	-0.039
649	-0.047
650	-0.054
650	-0.061
650	-0.069
651	-0.079
651	-0.091
652	-0.104
652	-0.119
653	-0.131
653	-0.143
653	-0.139
654	-0.118
654	-0.106
655	-0.108
655	-0.112
656	-0.115
656	-0.119
657	-0.121
657	-0.123
657	-0.127
658	-0.131
658	-0.156
659	-0.233
659	-0.324
660	-0.363
660	-0.385
661	-0.409
661	-0.435
661	-0.465
662	-0.493
662	-0.523
663	-0.558
663	-0.596
664	-0.636
664	-0.683
665	-0.73
665	-0.786
665	-0.838
666	-0.891
666	-0.95
667	-1.012
667	-1.076
668	-1.145
668	-1.216
669	-1.289
669	-1.361
669	-1.438
670	-1.506
670	-1.551
671	-1.752
671	-2.005
672	-2.223
672	-2.409
672	-2.535
673	-2.626
673	-2.704
674	-2.739
674	-2.756
675	-2.78
675	-2.919
676	-3.104
676	-3.053
676	-2.826
677	-2.617
677	-2.446
678	-2.253
678	-1.902
679	-1.647
679	-1.521
680	-1.431
680	-1.351
680	-1.284
681	-1.241
681	-1.185
682	-1.148
682	-1.112
683	-1.079
683	-1.064
684	-1.045
684	-1.026
684	-1.005
685	-0.982
685	-0.962
686	-0.938
686	-0.924
687	-0.9
687	-0.888
687	-0.869
688	-0.844
688	-0.823
689	-0.804
689	-0.791
690	-0.772
690	-0.761
691	-0.756
691	-0.761
691	-0.775
692	-0.768
692	-0.759
693	-0.756
693	-0.764
694	-0.759
694	-0.753
695	-0.76
695	-0.757
695	-0.742
696	-0.738
696	-0.718
697	-0.72
697	-0.736
698	-0.738
698	-0.728
698	-0.744
699	-0.745
699	-0.743
700	-0.736
700	-0.75
701	-0.75
701	-0.758
702	-0.758
702	-0.746
702	-0.738
703	-0.731
703	-0.722
704	-0.72
704	-0.718
705	-0.729
705	-0.721
705	-0.708
706	-0.708
706	-0.702
707	-0.706
707	-0.701
708	-0.701
708	-0.692
709	-0.695
709	-0.697
709	-0.688
710	-0.697
710	-0.708
711	-0.699
711	-0.699
712	-0.699
712	-0.715
713	-0.712
713	-0.72
713	-0.711
714	-0.709
714	-0.708
715	-0.698
715	-0.685
716	-0.693
716	-0.696
716	-0.689
717	-0.691
717	-0.694
718	-0.684
718	-0.685
719	-0.69
719	-0.693
720	-0.691
720	-0.701
720	-0.693
721	-0.682
721	-0.682
722	-0.668
722	-0.659
723	-0.656
723	-0.661
723	-0.649
724	-0.652
724	-0.657
725	-0.656
725	-0.666
726	-0.679
726	-0.684
727	-0.688
727	-0.702
727	-0.708
728	-0.708
728	-0.713
729	-0.713
729	-0.716
730	-0.72
730	-0.712
730	-0.702
731	-0.686
731	-0.696
732	-0.703
732	-0.707
733	-0.704
733	-0.71
734	-0.705
734	-0.705
734	-0.692
735	-0.69
735	-0.692
736	-0.701
736	-0.687
737	-0.678
737	-0.679
737	-0.688
738	-0.683
738	-0.683
739	-0.682
739	-0.693
740	-0.691
740	-0.691
741	-0.688
741	-0.689
741	-0.691
742	-0.687
742	-0.686
743	-0.693
743	-0.697
744	-0.693
744	-0.686
744	-0.689
745	-0.696
745	-0.689
746	-0.686
746	-0.685
747	-0.688
747	-0.678
748	-0.665
748	-0.672
748	-0.675
749	-0.674
749	-0.674
750	-0.662
750	-0.664
751	-0.669
751	-0.678
751	-0.681
752	-0.686
752	-0.696
753	-0.69
753	-0.686
754	-0.691
754	-0.686
754	-0.701
755	-0.713
755	-0.727
756	-0.715
756	-0.712
757	-0.708
757	-0.703
758	-0.706
758	-0.701
758	-0.703
759	-0.71
759	-0.692
760	-0.685
760	-0.679
761	-0.688
761	-0.685
761	-0.686
762	-0.693
762	-0.694
763	-0.704
763	-0.701
764	-0.699
764	-0.707
764	-0.712
765	-0.702
765	-0.691
766	-0.699
766	-0.706
767	-0.721
767	-0.714
768	-0.706
768	-0.712
768	-0.717
769	-0.736
769	-0.739
770	-0.745
770	-0.758
771	-0.755
771	-0.756
771	-0.756
772	-0.758
772	-0.757
773	-0.759
773	-0.755
774	-0.751
774	-0.752
775	-0.753
775	-0.745
775	-0.752
776	-0.752
776	-0.743
777	-0.753
777	-0.774
778	-0.771
778	-0.79
778	-0.779
779	-0.798
779	-0.805
780	-0.819
780	-0.819
781	-0.831
781	-0.826
781	-0.84
782	-0.841
782	-0.846
783	-0.831
783	-0.829
784	-0.812
784	-0.802
784	-0.812
785	-0.816
785	-0.8
786	-0.807
786	-0.784
787	-0.769
787	-0.767
788	-0.77
788	-0.781
788	-0.791
789	-0.795
789	-0.774
790	-0.757
790	-0.761
791	-0.76
791	-0.778
791	-0.785
792	-0.778
792	-0.753
793	-0.745
793	-0.723
794	-0.726
794	-0.719
794	-0.726
795	-0.721
795	-0.715
796	-0.7
796	-0.705
797	-0.699
797	-0.713
797	-0.72
798	-0.734
798	-0.727
799	-0.739
799	-0.725
800	-0.733
800	-0.727
801	-0.73
801	-0.716
801	-0.727
802	-0.735
802	-0.733
803	-0.733
803	-0.744
804	-0.74
804	-0.752
804	-0.737
805	-0.741
805	-0.731
806	-0.734
806	-0.719
807	-0.717
807	-0.698
807	-0.686
808	-0.676
808	-0.669
809	-0.653
809	-0.663
810	-0.661
810	-0.655
810	-0.653
811	-0.658
811	-0.652
812	-0.652
812	-0.656
813	-0.66
813	-0.655
813	-0.663
814	-0.666
814	-0.672
815	-0.675
815	-0.678
816	-0.672
816	-0.678
817	-0.687
817	-0.703
817	-0.72
818	-0.729
818	-0.732
819	-0.725
819	-0.724
820	-0.734
820	-0.73
820	-0.741
821	-0.737
821	-0.723
822	-0.693
822	-0.665
823	-0.662
823	-0.664
823	-0.66
824	-0.657
824	-0.658
825	-0.653
825	-0.633
826	-0.627
826	-0.636
826	-0.646
827	-0.644
827	-0.642
828	-0.622
828	-0.621
829	-0.611
829	-0.597
829	-0.588
830	-0.598
830	-0.594
831	-0.587
831	-0.576
832	-0.574
832	-0.566
832	-0.573
833	-0.567
833	-0.569
834	-0.565
834	-0.574
835	-0.561
835	-0.558
835	-0.554
836	-0.552
836	-0.55
837	-0.547
837	-0.535
838	-0.528
838	-0.515
839	-0.503
839	-0.491
839	-0.483
840	-0.471
840	-0.468
841	-0.457
841	-0.446
842	-0.44
842	-0.433
842	-0.427
843	-0.423
843	-0.421
844	-0.413
844	-0.405
845	-0.398
845	-0.388
845	-0.374
846	-0.365
846	-0.351
847	-0.34
847	-0.331
848	-0.321
848	-0.309
848	-0.294
849	-0.285
849	-0.274
850	-0.262
850	-0.258
851	-0.251
851	-0.243
851	-0.234
852	-0.219
852	-0.208
853	-0.2
853	-0.195
854	-0.185
854	-0.175
854	-0.164
855	-0.153
855	-0.147
856	-0.137
856	-0.13
857	-0.125
857	-0.117
857	-0.107
858	-0.098
858	-0.093
859	-0.086
859	-0.077
860	-0.069
860	-0.058
860	-0.052
861	-0.044
861	-0.037
862	-0.031
862	-0.025
863	-0.019
863	-0.011
863	-0.006
864	-0.003
864	0.002
865	0.006
865	0.01
866	0.014
866	0.016
866	0.019
867	0.022
867	0.025
868	0.027
868	0.03
869	0.033
869	0.035
869	0.037
870	0.039
870	0.042
871	0.044
871	0.046
872	0.047
872	0.048
872	0.049
873	0.049
873	0.05
874	0.05
874	0.049
875	0.048
875	0.047
875	0.046
876	0.045
876	0.044
877	0.043
877	0.041
878	0.04
878	0.038
878	0.036
879	0.034
879	0.033
880	0.032
880	0.032
881	0.031
881	0.031
881	0.031
882	0.031
882	0.03
883	0.029
883	0.029
884	0.028
884	0.028
884	0.027
885	0.026
885	0.026
886	0.025
886	0.025
887	0.024
887	0.024
887	0.024
888	0.024
888	0.024
889	0.025
889	0.025
890	0.025
890	0.025
890	0.025
891	0.024
891	0.025
892	0.025
892	0.025
893	0.024
893	0.024
893	0.024
894	0.024
894	0.023
895	0.023
895	0.023
895	0.023
896	0.022
896	0.021
897	0.02
897	0.019
898	0.018
898	0.018
898	0.018
899	0.018
899	0.018
900	0.019
900	0.019
901	0.02
901	0.021
901	0.022
902	0.022
902	0.023
903	0.023
903	0.024
904	0.025
904	0.026
904	0.026
905	0.027
905	0.027
906	0.028
906	0.028
907	0.028
907	0.028
907	0.028
908	0.027
908	0.027
909	0.026
909	0.025
910	0.025
910	0.025
910	0.024
911	0.024
911	0.025
912	0.026
912	0.026
913	0.027
913	0.028
913	0.029
914	0.03
914	0.03
915	0.031
915	0.032
916	0.032
916	0.033
916	0.033
917	0.033
917	0.033
918	0.033
918	0.033
918	0.033
919	0.033
919	0.033
920	0.033
920	0.033
921	0.033
921	0.033
921	0.033
922	0.033
922	0.033
923	0.033
923	0.033
924	0.033
924	0.033
924	0.032
925	0.031
925	0.03
926	0.029
926	0.028
927	0.027
927	0.026
927	0.025
928	0.024
928	0.024
929	0.023
929	0.022
930	0.022
930	0.021
930	0.021
931	0.02
931	0.02
932	0.02
932	0.019
933	0.018
933	0.017
933	0.015
934	0.014
934	0.013
935	0.012
935	0.011
935	0.01
936	0.009
936	0.008
937	0.007
937	0.007
938	0.007
938	0.007
938	0.008
939	0.009
939	0.01
940	0.011
940	0.011
941	0.012
941	0.013
941	0.015
942	0.015
942	0.016
943	0.016
943	0.016
944	0.015
944	0.015
944	0.014
945	0.013
945	0.012
946	0.011
946	0.01
946	0.009
947	0.009
947	0.008
948	0.008
948	0.009
949	0.009
949	0.01
949	0.011
950	0.012
950	0.012
951	0.013
951	0.014
952	0.015
952	0.016
952	0.017
953	0.018
953	0.019
954	0.019
954	0.02
955	0.021
955	0.022
955	0.023
956	0.024
956	0.024
957	0.024
957	0.024
957	0.024
958	0.024
958	0.025
959	0.025
959	0.025
960	0.025
960	0.024
960	0.025
961	0.024
961	0.024
962	0.025
962	0.025
963	0.025
963	0.025
963	0.024
964	0.024
964	0.025
965	0.025
965	0.025
966	0.025
966	0.025
966	0.024
967	0.024
967	0.024
968	0.023
968	0.023
968	0.022
969	0.022
969	0.021
970	0.021
970	0.021
971	0.021
971	0.022
971	0.022
972	0.022
972	0.022
973	0.022
973	0.022
974	0.022
974	0.022
974	0.022
975	0.021
975	0.021
976	0.02
976	0.019
976	0.019
977	0.019
977	0.019
978	0.019
978	0.018
979	0.018
979	0.018
979	0.018
980	0.017
980	0.017
981	0.017
981	0.017
982	0.017
982	0.017
982	0.016
983	0.016
983	0.016
984	0.016
984	0.016
984	0.016
985	0.017
985	0.017
986	0.017
986	0.017
987	0.017
987	0.017
987	0.016
988	0.016
988	0.015
989	0.014
989	0.014
990	0.013
990	0.012
990	0.011
991	0.011
991	0.011
992	0.01
992	0.01
992	0.01
993	0.01
993	0.01
994	0.011
994	0.01
995	0.01
995	0.01
995	0.01
996	0.01
996	0.009
997	0.009
997	0.009
997	0.009
998	0.009
998	0.009
999	0.009
999	0.009
1000	0.009
1000	0.009
1000	0.01
1001	0.01
1001	0.011
1002	0.011
1002	0.011
1003	0.011
1003	0.012
1003	0.011
1004	0.011
1004	0.011
1005	0.011
1005	0.01
1005	0.009
1006	0.008
1006	0.007
1007	0.006
1007	0.005
1008	0.004
1008	0.004
1008	0.004
1009	0.003
1009	0.003
1010	0.003
1010	0.003
1010	0.003
1011	0.003
1011	0.002
1012	0.002
1012	0.001
1013	0
1013	-0.001
1013	-0.001
1014	-0.002
1014	-0.003
1015	-0.004
1015	-0.004
1016	-0.005
1016	-0.006
1016	-0.006
1017	-0.007
1017	-0.007
1018	-0.008
1018	-0.009
1018	-0.01
1019	-0.01
1019	-0.011
1020	-0.011
1020	-0.012
1021	-0.013
1021	-0.013
1021	-0.014
1022	-0.015
1022	-0.015
1023	-0.016
1023	-0.016
1023	-0.016
1024	-0.016
1024	-0.016
1025	-0.016
1025	-0.016
1026	-0.016
1026	-0.015
1026	-0.015
1027	-0.014
1027	-0.013
1028	-0.013
1028	-0.013
1028	-0.013
1029	-0.013
1029	-0.013
1030	-0.014
1030	-0.015
1031	-0.015
1031	-0.016
1031	-0.016
1032	-0.016
1032	-0.016
1033	-0.016
1033	-0.016
1033	-0.016
1034	-0.016
1034	-0.015
1035	-0.015
1035	-0.015
1036	-0.015
1036	-0.015
1036	-0.015
1037	-0.015
1037	-0.014
1038	-0.014
1038	-0.014
1039	-0.014
1039	-0.013
1039	-0.013
1040	-0.012
1040	-0.012
1041	-0.011
1041	-0.011
1041	-0.011
1042	-0.012
1042	-0.012
1043	-0.012
1043	-0.013
1044	-0.013
1044	-0.014
1044	-0.015
1045	-0.016
1045	-0.016
1046	-0.017
1046	-0.017
1046	-0.017
1047	-0.017
1047	-0.017
1048	-0.017
1048	-0.017
1049	-0.016
1049	-0.016
1049	-0.016
1050	-0.016
1050	-0.016
1051	-0.015
1051	-0.015
1051	-0.015
1052	-0.015
1052	-0.014
1053	-0.014
1053	-0.014
1053	-0.013
1054	-0.013
1054	-0.013
1055	-0.013
1055	-0.014
1056	-0.014
1056	-0.015
1056	-0.016
1057	-0.017
1057	-0.017
1058	-0.018
1058	-0.018
1058	-0.019
1059	-0.019
1059	-0.02
1060	-0.021
1060	-0.021
1061	-0.022
1061	-0.022
1061	-0.021
1062	-0.022
1062	-0.022
1063	-0.022
1063	-0.021
1063	-0.021
1064	-0.02
1064	-0.02
1065	-0.02
1065	-0.02
1066	-0.021
1066	-0.021
1066	-0.021
1067	-0.022
1067	-0.022
1068	-0.023
1068	-0.023
1068	-0.024
1069	-0.024
1069	-0.024
1070	-0.025
1070	-0.024
1071	-0.025
1071	-0.025
1071	-0.025
1072	-0.026
1072	-0.026
1073	-0.026
1073	-0.026
1073	-0.026
1074	-0.026
1074	-0.026
1075	-0.027
1075	-0.027
1076	-0.028
1076	-0.028
1076	-0.028
1077	-0.028
1077	-0.029
1078	-0.03
1078	-0.03
1078	-0.031
1079	-0.031
1079	-0.032
1080	-0.033
1080	-0.033
1080	-0.034
1081	-0.035
1081	-0.036
1082	-0.036
1082	-0.037
1083	-0.037
1083	-0.038
1083	-0.039
1084	-0.04
1084	-0.04
1085	-0.041
1085	-0.042
1085	-0.042
1086	-0.042
1086	-0.043
1087	-0.043
1087	-0.043
1088	-0.044
1088	-0.045
1088	-0.045
1089	-0.046
1089	-0.046
1090	-0.046
1090	-0.047
1090	-0.048
1091	-0.048
1091	-0.049
1092	-0.049
1092	-0.049
1092	-0.05
1093	-0.051
1093	-0.05
1094	-0.051
1094	-0.051
1095	-0.052
1095	-0.052
1095	-0.052
1096	-0.053
1096	-0.054
1097	-0.054
1097	-0.055
1097	-0.055
1098	-0.057
1098	-0.058
1099	-0.058
1099	-0.059
1100	-0.06
1100	-0.062
1100	-0.064
1101	-0.067
1101	-0.07
1102	-0.071
1102	-0.074
1102	-0.075
1103	-0.076
1103	-0.078
1104	-0.081
1104	-0.083
1104	-0.085
1105	-0.086
1105	-0.089
1106	-0.092
1106	-0.094
1107	-0.097
1107	-0.101
1107	-0.106
1108	-0.108
1108	-0.11
1109	-0.113
1109	-0.117
1109	-0.119
1110	-0.118
1110	-0.122
1111	-0.128
1111	-0.129
