Data from 17C_3.2A_35min_2sec_int_Absorbance__548__02110.txt Node

Date: Mon Jun 19 17:53:57 CEST 2023
User: Marek
Spectrometer: MAYP115816
Trigger mode: 0
Integration Time (sec): 2.500000E-1
Scans to average: 10
Electric dark correction enabled: true
Nonlinearity correction enabled: true
Boxcar width: 5
XAxis mode: Wavelengths
Number of Pixels in Spectrum: 2068
>>>>>Begin Spectral Data<<<<<
199	-0.718
199	-0.731
200	-0.638
200	-0.589
201	-0.556
201	-0.544
202	-0.527
202	-0.513
203	-0.505
203	-0.502
204	-0.487
204	-0.478
205	-0.454
205	-0.45
205	-0.448
206	-0.45
206	-0.451
207	-0.443
207	-0.446
208	-0.448
208	-0.445
209	-0.44
209	-0.44
210	-0.445
210	-0.451
211	-0.452
211	-0.453
212	-0.454
212	-0.462
213	-0.46
213	-0.462
213	-0.467
214	-0.463
214	-0.462
215	-0.461
215	-0.466
216	-0.47
216	-0.477
217	-0.476
217	-0.48
218	-0.481
218	-0.481
219	-0.486
219	-0.499
220	-0.503
220	-0.513
221	-0.511
221	-0.514
221	-0.506
222	-0.501
222	-0.501
223	-0.506
223	-0.51
224	-0.514
224	-0.513
225	-0.51
225	-0.504
226	-0.509
226	-0.509
227	-0.516
227	-0.526
228	-0.527
228	-0.527
229	-0.529
229	-0.521
229	-0.516
230	-0.52
230	-0.523
231	-0.518
231	-0.509
232	-0.502
232	-0.499
233	-0.493
233	-0.492
234	-0.491
234	-0.487
235	-0.488
235	-0.491
236	-0.491
236	-0.494
236	-0.501
237	-0.507
237	-0.508
238	-0.516
238	-0.515
239	-0.514
239	-0.523
240	-0.523
240	-0.522
241	-0.527
241	-0.527
242	-0.532
242	-0.531
243	-0.527
243	-0.529
243	-0.537
244	-0.537
244	-0.539
245	-0.553
245	-0.553
246	-0.557
246	-0.562
247	-0.563
247	-0.566
248	-0.573
248	-0.571
249	-0.575
249	-0.582
250	-0.579
250	-0.575
250	-0.575
251	-0.571
251	-0.568
252	-0.571
252	-0.562
253	-0.566
253	-0.578
254	-0.574
254	-0.571
255	-0.578
255	-0.573
256	-0.571
256	-0.583
257	-0.581
257	-0.58
258	-0.596
258	-0.594
258	-0.59
259	-0.588
259	-0.6
260	-0.602
260	-0.606
261	-0.618
261	-0.61
262	-0.608
262	-0.607
263	-0.595
263	-0.589
264	-0.59
264	-0.597
265	-0.59
265	-0.595
265	-0.598
266	-0.593
266	-0.591
267	-0.604
267	-0.612
268	-0.626
268	-0.637
269	-0.634
269	-0.627
270	-0.632
270	-0.635
271	-0.637
271	-0.642
272	-0.646
272	-0.64
272	-0.633
273	-0.633
273	-0.643
274	-0.646
274	-0.652
275	-0.653
275	-0.646
276	-0.651
276	-0.643
277	-0.649
277	-0.667
278	-0.678
278	-0.668
278	-0.661
279	-0.668
279	-0.678
280	-0.676
280	-0.675
281	-0.67
281	-0.678
282	-0.669
282	-0.669
283	-0.659
283	-0.665
284	-0.658
284	-0.646
285	-0.642
285	-0.64
285	-0.636
286	-0.643
286	-0.638
287	-0.634
287	-0.62
288	-0.613
288	-0.622
289	-0.635
289	-0.644
290	-0.634
290	-0.634
291	-0.63
291	-0.625
292	-0.627
292	-0.636
292	-0.64
293	-0.645
293	-0.632
294	-0.622
294	-0.613
295	-0.61
295	-0.606
296	-0.605
296	-0.601
297	-0.596
297	-0.58
298	-0.572
298	-0.58
298	-0.57
299	-0.561
299	-0.563
300	-0.558
300	-0.552
301	-0.547
301	-0.547
302	-0.553
302	-0.561
303	-0.548
303	-0.532
304	-0.536
304	-0.535
305	-0.535
305	-0.535
305	-0.533
306	-0.519
306	-0.512
307	-0.501
307	-0.502
308	-0.515
308	-0.515
309	-0.518
309	-0.51
310	-0.501
310	-0.496
311	-0.491
311	-0.499
311	-0.497
312	-0.491
312	-0.491
313	-0.477
313	-0.478
314	-0.476
314	-0.478
315	-0.477
315	-0.477
316	-0.472
316	-0.464
317	-0.456
317	-0.454
318	-0.442
318	-0.439
318	-0.435
319	-0.423
319	-0.42
320	-0.414
320	-0.415
321	-0.419
321	-0.417
322	-0.413
322	-0.406
323	-0.407
323	-0.403
324	-0.396
324	-0.389
324	-0.378
325	-0.367
325	-0.351
326	-0.337
326	-0.321
327	-0.304
327	-0.283
328	-0.257
328	-0.237
329	-0.214
329	-0.191
330	-0.165
330	-0.135
330	-0.107
331	-0.079
331	-0.054
332	-0.029
332	-0.008
333	0.012
333	0.035
334	0.055
334	0.071
335	0.087
335	0.101
336	0.113
336	0.126
336	0.135
337	0.146
337	0.154
338	0.162
338	0.167
339	0.174
339	0.18
340	0.184
340	0.189
341	0.193
341	0.196
342	0.199
342	0.202
342	0.205
343	0.207
343	0.21
344	0.211
344	0.212
345	0.213
345	0.214
346	0.215
346	0.215
347	0.216
347	0.216
348	0.217
348	0.217
348	0.218
349	0.218
349	0.218
350	0.219
350	0.219
351	0.219
351	0.219
352	0.219
352	0.219
353	0.219
353	0.219
354	0.218
354	0.218
354	0.218
355	0.218
355	0.218
356	0.218
356	0.218
357	0.217
357	0.217
358	0.216
358	0.216
359	0.216
359	0.216
360	0.216
360	0.216
360	0.216
361	0.216
361	0.216
362	0.216
362	0.216
363	0.216
363	0.216
364	0.216
364	0.216
365	0.216
365	0.216
366	0.216
366	0.216
366	0.216
367	0.216
367	0.216
368	0.216
368	0.216
369	0.216
369	0.216
370	0.215
370	0.215
371	0.215
371	0.215
372	0.215
372	0.215
372	0.215
373	0.215
373	0.215
374	0.215
374	0.215
375	0.215
375	0.215
376	0.215
376	0.215
377	0.215
377	0.215
378	0.214
378	0.214
378	0.215
379	0.214
379	0.214
380	0.214
380	0.214
381	0.214
381	0.214
382	0.214
382	0.214
383	0.213
383	0.213
383	0.213
384	0.213
384	0.213
385	0.213
385	0.213
386	0.213
386	0.213
387	0.213
387	0.213
388	0.213
388	0.213
389	0.213
389	0.213
389	0.213
390	0.213
390	0.213
391	0.213
391	0.213
392	0.213
392	0.213
393	0.213
393	0.213
394	0.212
394	0.212
394	0.212
395	0.212
395	0.212
396	0.212
396	0.211
397	0.211
397	0.211
398	0.211
398	0.211
399	0.211
399	0.211
400	0.211
400	0.211
400	0.211
401	0.211
401	0.21
402	0.21
402	0.21
403	0.21
403	0.21
404	0.21
404	0.21
405	0.21
405	0.21
405	0.21
406	0.21
406	0.21
407	0.209
407	0.209
408	0.209
408	0.209
409	0.209
409	0.209
410	0.209
410	0.209
411	0.209
411	0.209
411	0.209
412	0.21
412	0.209
413	0.209
413	0.209
414	0.209
414	0.209
415	0.209
415	0.209
416	0.209
416	0.208
416	0.208
417	0.208
417	0.208
418	0.208
418	0.208
419	0.208
419	0.208
420	0.208
420	0.209
421	0.209
421	0.209
421	0.209
422	0.209
422	0.209
423	0.209
423	0.208
424	0.208
424	0.207
425	0.207
425	0.207
426	0.206
426	0.206
427	0.206
427	0.206
427	0.205
428	0.206
428	0.206
429	0.206
429	0.206
430	0.205
430	0.205
431	0.205
431	0.205
432	0.205
432	0.205
432	0.205
433	0.205
433	0.204
434	0.204
434	0.204
435	0.204
435	0.204
436	0.204
436	0.204
437	0.204
437	0.204
437	0.204
438	0.204
438	0.204
439	0.204
439	0.204
440	0.204
440	0.204
441	0.204
441	0.204
442	0.204
442	0.203
442	0.203
443	0.203
443	0.203
444	0.203
444	0.203
445	0.203
445	0.203
446	0.204
446	0.204
447	0.204
447	0.204
447	0.204
448	0.204
448	0.204
449	0.204
449	0.204
450	0.204
450	0.204
451	0.204
451	0.204
452	0.204
452	0.204
452	0.204
453	0.204
453	0.203
454	0.203
454	0.203
455	0.203
455	0.203
456	0.203
456	0.203
457	0.202
457	0.202
458	0.202
458	0.202
458	0.202
459	0.202
459	0.202
460	0.202
460	0.202
461	0.202
461	0.201
462	0.201
462	0.202
463	0.202
463	0.202
463	0.202
464	0.202
464	0.202
465	0.202
465	0.202
466	0.202
466	0.203
467	0.203
467	0.203
467	0.203
468	0.203
468	0.203
469	0.203
469	0.203
470	0.204
470	0.204
471	0.204
471	0.204
472	0.204
472	0.204
472	0.204
473	0.204
473	0.204
474	0.204
474	0.204
475	0.205
475	0.205
476	0.205
476	0.205
477	0.205
477	0.205
477	0.205
478	0.205
478	0.206
479	0.206
479	0.206
480	0.206
480	0.207
481	0.207
481	0.207
482	0.208
482	0.208
482	0.208
483	0.209
483	0.209
484	0.209
484	0.209
485	0.21
485	0.21
486	0.21
486	0.21
487	0.211
487	0.211
487	0.212
488	0.212
488	0.213
489	0.214
489	0.215
490	0.216
490	0.217
491	0.218
491	0.218
492	0.219
492	0.22
492	0.22
493	0.221
493	0.222
494	0.222
494	0.223
495	0.223
495	0.224
496	0.225
496	0.225
496	0.226
497	0.227
497	0.228
498	0.229
498	0.23
499	0.231
499	0.232
500	0.233
500	0.234
501	0.235
501	0.235
501	0.236
502	0.237
502	0.238
503	0.239
503	0.24
504	0.241
504	0.242
505	0.243
505	0.244
506	0.245
506	0.246
506	0.246
507	0.247
507	0.248
508	0.249
508	0.251
509	0.252
509	0.253
510	0.254
510	0.255
511	0.256
511	0.257
511	0.258
512	0.26
512	0.261
513	0.262
513	0.262
514	0.264
514	0.265
515	0.266
515	0.267
515	0.267
516	0.269
516	0.27
517	0.271
517	0.272
518	0.273
518	0.273
519	0.275
519	0.275
520	0.276
520	0.278
520	0.279
521	0.28
521	0.281
522	0.282
522	0.283
523	0.285
523	0.286
524	0.286
524	0.287
524	0.287
525	0.288
525	0.288
526	0.288
526	0.289
527	0.29
527	0.29
528	0.291
528	0.292
529	0.293
529	0.293
529	0.294
530	0.296
530	0.296
531	0.297
531	0.297
532	0.298
532	0.299
533	0.299
533	0.3
533	0.3
534	0.3
534	0.3
535	0.3
535	0.301
536	0.301
536	0.301
537	0.301
537	0.301
538	0.301
538	0.301
538	0.302
539	0.302
539	0.303
540	0.303
540	0.303
541	0.303
541	0.303
542	0.303
542	0.303
542	0.303
543	0.303
543	0.303
544	0.303
544	0.302
545	0.303
545	0.303
546	0.303
546	0.303
547	0.302
547	0.302
547	0.302
548	0.302
548	0.302
549	0.302
549	0.302
550	0.302
550	0.303
551	0.303
551	0.304
551	0.304
552	0.305
552	0.305
553	0.306
553	0.306
554	0.306
554	0.306
555	0.306
555	0.305
556	0.305
556	0.305
556	0.305
557	0.304
557	0.304
558	0.303
558	0.303
559	0.303
559	0.303
560	0.302
560	0.302
560	0.302
561	0.302
561	0.302
562	0.301
562	0.301
563	0.301
563	0.3
564	0.3
564	0.301
564	0.301
565	0.301
565	0.302
566	0.302
566	0.302
567	0.302
567	0.302
568	0.301
568	0.301
568	0.301
569	0.301
569	0.3
570	0.299
570	0.298
571	0.298
571	0.298
572	0.297
572	0.297
573	0.297
573	0.296
573	0.296
574	0.296
574	0.296
575	0.296
575	0.297
576	0.297
576	0.296
577	0.296
577	0.296
577	0.296
578	0.297
578	0.297
579	0.298
579	0.298
580	0.297
580	0.296
581	0.296
581	0.296
581	0.296
582	0.296
582	0.296
583	0.297
583	0.296
584	0.295
584	0.294
585	0.295
585	0.296
585	0.296
586	0.296
586	0.296
587	0.296
587	0.296
588	0.295
588	0.295
589	0.296
589	0.296
590	0.296
590	0.296
590	0.297
591	0.297
591	0.297
592	0.296
592	0.296
593	0.296
593	0.296
594	0.296
594	0.296
594	0.296
595	0.296
595	0.296
596	0.296
596	0.297
597	0.298
597	0.298
598	0.298
598	0.298
598	0.298
599	0.298
599	0.297
600	0.296
600	0.295
601	0.295
601	0.294
602	0.293
602	0.294
602	0.294
603	0.294
603	0.295
604	0.296
604	0.296
605	0.297
605	0.298
606	0.297
606	0.297
606	0.297
607	0.296
607	0.296
608	0.295
608	0.294
609	0.294
609	0.294
610	0.293
610	0.293
610	0.293
611	0.294
611	0.295
612	0.296
612	0.296
613	0.297
613	0.297
614	0.296
614	0.295
614	0.294
615	0.294
615	0.293
616	0.292
616	0.292
617	0.291
617	0.29
618	0.289
618	0.289
618	0.288
619	0.289
619	0.289
620	0.289
620	0.289
621	0.289
621	0.288
622	0.288
622	0.288
622	0.287
623	0.287
623	0.287
624	0.286
624	0.285
625	0.285
625	0.285
626	0.284
626	0.283
626	0.283
627	0.282
627	0.282
628	0.28
628	0.279
629	0.278
629	0.276
630	0.274
630	0.273
630	0.271
631	0.269
631	0.267
632	0.265
632	0.262
633	0.26
633	0.257
634	0.255
634	0.253
634	0.25
635	0.248
635	0.245
636	0.241
636	0.238
637	0.234
637	0.231
638	0.226
638	0.222
638	0.217
639	0.213
639	0.207
640	0.202
640	0.197
641	0.192
641	0.187
642	0.182
642	0.177
642	0.172
643	0.166
643	0.16
644	0.154
644	0.148
645	0.141
645	0.135
646	0.128
646	0.121
646	0.114
647	0.107
647	0.1
648	0.093
648	0.085
649	0.077
649	0.069
650	0.061
650	0.052
650	0.043
651	0.033
651	0.019
652	0.004
652	-0.012
653	-0.026
653	-0.039
653	-0.036
654	-0.016
654	-0.005
655	-0.008
655	-0.014
656	-0.02
656	-0.026
657	-0.031
657	-0.036
657	-0.042
658	-0.048
658	-0.078
659	-0.164
659	-0.265
660	-0.311
660	-0.338
661	-0.366
661	-0.396
661	-0.43
662	-0.462
662	-0.496
663	-0.534
663	-0.577
664	-0.619
664	-0.67
665	-0.72
665	-0.778
665	-0.831
666	-0.888
666	-0.949
667	-1.013
667	-1.077
668	-1.149
668	-1.221
669	-1.294
669	-1.366
669	-1.441
670	-1.503
670	-1.516
671	-1.592
671	-1.918
672	-2.165
672	-2.365
672	-2.501
673	-2.597
673	-2.679
674	-2.737
674	-2.758
675	-2.785
675	-2.928
676	-3.134
676	-3.089
676	-2.869
677	-2.671
677	-2.518
678	-2.36
678	-2.112
679	-1.777
679	-1.62
680	-1.52
680	-1.433
680	-1.359
681	-1.311
681	-1.25
682	-1.209
682	-1.172
683	-1.136
683	-1.118
684	-1.097
684	-1.078
684	-1.055
685	-1.03
685	-1.008
686	-0.982
686	-0.966
687	-0.94
687	-0.928
687	-0.906
688	-0.88
688	-0.859
689	-0.838
689	-0.824
690	-0.806
690	-0.795
691	-0.79
691	-0.795
691	-0.81
692	-0.803
692	-0.794
693	-0.789
693	-0.797
694	-0.793
694	-0.786
695	-0.791
695	-0.787
695	-0.771
696	-0.767
696	-0.745
697	-0.746
697	-0.762
698	-0.764
698	-0.754
698	-0.766
699	-0.769
699	-0.765
700	-0.756
700	-0.771
701	-0.77
701	-0.777
702	-0.774
702	-0.764
702	-0.757
703	-0.75
703	-0.743
704	-0.738
704	-0.737
705	-0.751
705	-0.742
705	-0.731
706	-0.731
706	-0.726
707	-0.728
707	-0.724
708	-0.722
708	-0.712
709	-0.718
709	-0.72
709	-0.71
710	-0.718
710	-0.727
711	-0.716
711	-0.719
712	-0.719
712	-0.731
713	-0.728
713	-0.736
713	-0.727
714	-0.723
714	-0.723
715	-0.716
715	-0.703
716	-0.713
716	-0.714
716	-0.707
717	-0.708
717	-0.713
718	-0.705
718	-0.706
719	-0.713
719	-0.715
720	-0.708
720	-0.718
720	-0.709
721	-0.699
721	-0.698
722	-0.685
722	-0.674
723	-0.669
723	-0.673
723	-0.66
724	-0.664
724	-0.669
725	-0.669
725	-0.68
726	-0.693
726	-0.699
727	-0.705
727	-0.721
727	-0.728
728	-0.728
728	-0.732
729	-0.732
729	-0.736
730	-0.744
730	-0.737
730	-0.726
731	-0.71
731	-0.719
732	-0.723
732	-0.724
733	-0.722
733	-0.73
734	-0.723
734	-0.723
734	-0.707
735	-0.704
735	-0.706
736	-0.716
736	-0.702
737	-0.695
737	-0.696
737	-0.708
738	-0.701
738	-0.703
739	-0.699
739	-0.714
740	-0.71
740	-0.71
741	-0.705
741	-0.705
741	-0.708
742	-0.704
742	-0.704
743	-0.713
743	-0.717
744	-0.714
744	-0.705
744	-0.706
745	-0.715
745	-0.709
746	-0.709
746	-0.706
747	-0.709
747	-0.695
748	-0.682
748	-0.689
748	-0.693
749	-0.69
749	-0.692
750	-0.678
750	-0.679
751	-0.683
751	-0.692
751	-0.695
752	-0.7
752	-0.711
753	-0.703
753	-0.696
754	-0.702
754	-0.696
754	-0.71
755	-0.725
755	-0.737
756	-0.725
756	-0.721
757	-0.72
757	-0.714
758	-0.717
758	-0.719
758	-0.722
759	-0.731
759	-0.715
760	-0.708
760	-0.705
761	-0.715
761	-0.714
761	-0.712
762	-0.718
762	-0.716
763	-0.724
763	-0.718
764	-0.715
764	-0.723
764	-0.727
765	-0.715
765	-0.701
766	-0.708
766	-0.715
767	-0.732
767	-0.729
768	-0.719
768	-0.728
768	-0.733
769	-0.751
769	-0.754
770	-0.76
770	-0.772
771	-0.771
771	-0.772
771	-0.771
772	-0.774
772	-0.773
773	-0.776
773	-0.769
774	-0.766
774	-0.767
775	-0.768
775	-0.763
775	-0.771
776	-0.772
776	-0.762
777	-0.769
777	-0.788
778	-0.784
778	-0.803
778	-0.79
779	-0.812
779	-0.82
780	-0.836
780	-0.834
781	-0.848
781	-0.843
781	-0.857
782	-0.859
782	-0.862
783	-0.851
783	-0.851
784	-0.828
784	-0.818
784	-0.827
785	-0.83
785	-0.813
786	-0.818
786	-0.797
787	-0.782
787	-0.784
788	-0.784
788	-0.797
788	-0.81
789	-0.81
789	-0.791
790	-0.775
790	-0.779
791	-0.78
791	-0.797
791	-0.804
792	-0.796
792	-0.775
793	-0.761
793	-0.737
794	-0.743
794	-0.735
794	-0.743
795	-0.738
795	-0.729
796	-0.714
796	-0.72
797	-0.717
797	-0.729
797	-0.737
798	-0.751
798	-0.744
799	-0.755
799	-0.74
800	-0.745
800	-0.737
801	-0.742
801	-0.729
801	-0.739
802	-0.746
802	-0.746
803	-0.747
803	-0.756
804	-0.749
804	-0.759
804	-0.75
805	-0.756
805	-0.744
806	-0.745
806	-0.73
807	-0.727
807	-0.709
807	-0.694
808	-0.687
808	-0.681
809	-0.667
809	-0.675
810	-0.673
810	-0.668
810	-0.666
811	-0.671
811	-0.664
812	-0.664
812	-0.669
813	-0.675
813	-0.67
813	-0.676
814	-0.677
814	-0.681
815	-0.684
815	-0.688
816	-0.681
816	-0.684
817	-0.694
817	-0.709
817	-0.723
818	-0.731
818	-0.733
819	-0.725
819	-0.725
820	-0.736
820	-0.733
820	-0.744
821	-0.745
821	-0.732
822	-0.702
822	-0.675
823	-0.674
823	-0.677
823	-0.673
824	-0.669
824	-0.669
825	-0.658
825	-0.639
826	-0.633
826	-0.643
826	-0.652
827	-0.65
827	-0.646
828	-0.625
828	-0.625
829	-0.614
829	-0.6
829	-0.595
830	-0.604
830	-0.599
831	-0.591
831	-0.58
832	-0.576
832	-0.567
832	-0.576
833	-0.572
833	-0.575
834	-0.574
834	-0.581
835	-0.568
835	-0.564
835	-0.56
836	-0.556
836	-0.553
837	-0.55
837	-0.538
838	-0.528
838	-0.514
839	-0.5
839	-0.487
839	-0.479
840	-0.468
840	-0.464
841	-0.455
841	-0.448
842	-0.442
842	-0.431
842	-0.424
843	-0.418
843	-0.413
844	-0.402
844	-0.394
845	-0.385
845	-0.371
845	-0.356
846	-0.345
846	-0.331
847	-0.32
847	-0.307
848	-0.296
848	-0.285
848	-0.27
849	-0.259
849	-0.246
850	-0.234
850	-0.228
851	-0.218
851	-0.206
851	-0.196
852	-0.18
852	-0.168
853	-0.158
853	-0.152
854	-0.14
854	-0.128
854	-0.118
855	-0.106
855	-0.098
856	-0.087
856	-0.079
857	-0.072
857	-0.062
857	-0.051
858	-0.04
858	-0.034
859	-0.025
859	-0.013
860	-0.004
860	0.01
860	0.018
861	0.028
861	0.036
862	0.044
862	0.053
863	0.061
863	0.071
863	0.078
864	0.083
864	0.088
865	0.094
865	0.099
866	0.103
866	0.107
866	0.112
867	0.115
867	0.119
868	0.122
868	0.126
869	0.129
869	0.133
869	0.135
870	0.137
870	0.14
871	0.142
871	0.144
872	0.145
872	0.146
872	0.146
873	0.147
873	0.147
874	0.147
874	0.146
875	0.145
875	0.144
875	0.143
876	0.142
876	0.14
877	0.139
877	0.138
878	0.136
878	0.134
878	0.132
879	0.13
879	0.129
880	0.128
880	0.128
881	0.128
881	0.127
881	0.127
882	0.127
882	0.126
883	0.125
883	0.123
884	0.122
884	0.121
884	0.12
885	0.119
885	0.118
886	0.118
886	0.117
887	0.117
887	0.116
887	0.116
888	0.117
888	0.116
889	0.117
889	0.117
890	0.117
890	0.117
890	0.117
891	0.117
891	0.117
892	0.118
892	0.118
893	0.117
893	0.117
893	0.117
894	0.117
894	0.116
895	0.116
895	0.116
895	0.115
896	0.114
896	0.113
897	0.112
897	0.111
898	0.11
898	0.109
898	0.109
899	0.109
899	0.11
900	0.11
900	0.11
901	0.111
901	0.112
901	0.113
902	0.113
902	0.114
903	0.114
903	0.115
904	0.115
904	0.116
904	0.116
905	0.117
905	0.118
906	0.118
906	0.118
907	0.118
907	0.118
907	0.117
908	0.117
908	0.116
909	0.115
909	0.115
910	0.114
910	0.113
910	0.113
911	0.113
911	0.114
912	0.114
912	0.115
913	0.115
913	0.116
913	0.117
914	0.117
914	0.118
915	0.119
915	0.119
916	0.12
916	0.12
916	0.12
917	0.12
917	0.12
918	0.12
918	0.12
918	0.12
919	0.119
919	0.119
920	0.119
920	0.119
921	0.119
921	0.119
921	0.119
922	0.119
922	0.119
923	0.119
923	0.119
924	0.118
924	0.118
924	0.117
925	0.116
925	0.115
926	0.114
926	0.113
927	0.112
927	0.111
927	0.11
928	0.11
928	0.109
929	0.109
929	0.108
930	0.107
930	0.107
930	0.106
931	0.106
931	0.106
932	0.105
932	0.105
933	0.104
933	0.103
933	0.101
934	0.1
934	0.099
935	0.098
935	0.097
935	0.096
936	0.095
936	0.094
937	0.093
937	0.092
938	0.092
938	0.092
938	0.092
939	0.093
939	0.093
940	0.094
940	0.094
941	0.095
941	0.095
941	0.097
942	0.097
942	0.097
943	0.098
943	0.097
944	0.097
944	0.096
944	0.095
945	0.095
945	0.093
946	0.092
946	0.09
946	0.089
947	0.088
947	0.088
948	0.088
948	0.088
949	0.088
949	0.089
949	0.089
950	0.09
950	0.091
951	0.092
951	0.092
952	0.093
952	0.094
952	0.094
953	0.095
953	0.096
954	0.097
954	0.097
955	0.098
955	0.1
955	0.1
956	0.101
956	0.102
957	0.102
957	0.103
957	0.103
958	0.103
958	0.104
959	0.104
959	0.104
960	0.104
960	0.104
960	0.104
961	0.104
961	0.105
962	0.105
962	0.104
963	0.104
963	0.104
963	0.104
964	0.104
964	0.104
965	0.104
965	0.104
966	0.104
966	0.104
966	0.103
967	0.103
967	0.102
968	0.101
968	0.1
968	0.1
969	0.099
969	0.099
970	0.098
970	0.098
971	0.098
971	0.098
971	0.098
972	0.099
972	0.099
973	0.099
973	0.099
974	0.099
974	0.099
974	0.098
975	0.098
975	0.097
976	0.097
976	0.096
976	0.096
977	0.096
977	0.095
978	0.095
978	0.095
979	0.095
979	0.094
979	0.094
980	0.094
980	0.094
981	0.094
981	0.093
982	0.093
982	0.093
982	0.092
983	0.092
983	0.092
984	0.092
984	0.092
984	0.092
985	0.092
985	0.092
986	0.092
986	0.092
987	0.092
987	0.092
987	0.091
988	0.091
988	0.09
989	0.089
989	0.088
990	0.087
990	0.086
990	0.086
991	0.085
991	0.085
992	0.084
992	0.084
992	0.084
993	0.084
993	0.084
994	0.083
994	0.083
995	0.083
995	0.082
995	0.082
996	0.081
996	0.081
997	0.08
997	0.08
997	0.08
998	0.08
998	0.08
999	0.08
999	0.081
1000	0.081
1000	0.081
1000	0.081
1001	0.082
1001	0.083
1002	0.083
1002	0.083
1003	0.084
1003	0.083
1003	0.083
1004	0.083
1004	0.083
1005	0.082
1005	0.081
1005	0.08
1006	0.079
1006	0.078
1007	0.077
1007	0.076
1008	0.075
1008	0.075
1008	0.074
1009	0.074
1009	0.074
1010	0.074
1010	0.074
1010	0.074
1011	0.073
1011	0.073
1012	0.073
1012	0.072
1013	0.071
1013	0.07
1013	0.069
1014	0.068
1014	0.068
1015	0.067
1015	0.066
1016	0.065
1016	0.064
1016	0.064
1017	0.063
1017	0.062
1018	0.061
1018	0.06
1018	0.06
1019	0.06
1019	0.059
1020	0.058
1020	0.057
1021	0.057
1021	0.055
1021	0.055
1022	0.054
1022	0.053
1023	0.053
1023	0.053
1023	0.052
1024	0.052
1024	0.052
1025	0.052
1025	0.052
1026	0.053
1026	0.053
1026	0.053
1027	0.054
1027	0.054
1028	0.054
1028	0.054
1028	0.054
1029	0.053
1029	0.053
1030	0.053
1030	0.052
1031	0.051
1031	0.051
1031	0.051
1032	0.051
1032	0.051
1033	0.051
1033	0.051
1033	0.051
1034	0.051
1034	0.051
1035	0.051
1035	0.051
1036	0.051
1036	0.051
1036	0.051
1037	0.05
1037	0.05
1038	0.05
1038	0.051
1039	0.051
1039	0.051
1039	0.052
1040	0.052
1040	0.052
1041	0.053
1041	0.053
1041	0.054
1042	0.054
1042	0.053
1043	0.053
1043	0.052
1044	0.052
1044	0.051
1044	0.051
1045	0.05
1045	0.049
1046	0.048
1046	0.048
1046	0.047
1047	0.047
1047	0.047
1048	0.047
1048	0.047
1049	0.048
1049	0.048
1049	0.048
1050	0.049
1050	0.049
1051	0.049
1051	0.049
1051	0.05
1052	0.05
1052	0.051
1053	0.051
1053	0.051
1053	0.051
1054	0.05
1054	0.05
1055	0.05
1055	0.05
1056	0.049
1056	0.048
1056	0.047
1057	0.046
1057	0.046
1058	0.045
1058	0.045
1058	0.045
1059	0.044
1059	0.043
1060	0.042
1060	0.042
1061	0.041
1061	0.041
1061	0.041
1062	0.041
1062	0.041
1063	0.041
1063	0.041
1063	0.041
1064	0.042
1064	0.042
1065	0.042
1065	0.041
1066	0.041
1066	0.041
1066	0.041
1067	0.041
1067	0.041
1068	0.04
1068	0.039
1068	0.039
1069	0.038
1069	0.038
1070	0.037
1070	0.038
1071	0.037
1071	0.037
1071	0.036
1072	0.036
1072	0.035
1073	0.035
1073	0.035
1073	0.034
1074	0.035
1074	0.035
1075	0.034
1075	0.034
1076	0.033
1076	0.034
1076	0.033
1077	0.032
1077	0.032
1078	0.031
1078	0.031
1078	0.03
1079	0.029
1079	0.029
1080	0.028
1080	0.027
1080	0.026
1081	0.025
1081	0.025
1082	0.024
1082	0.023
1083	0.022
1083	0.021
1083	0.02
1084	0.019
1084	0.019
1085	0.017
1085	0.017
1085	0.016
1086	0.016
1086	0.014
1087	0.014
1087	0.014
1088	0.013
1088	0.012
1088	0.012
1089	0.011
1089	0.011
1090	0.009
1090	0.009
1090	0.007
1091	0.006
1091	0.006
1092	0.005
1092	0.005
1092	0.004
1093	0.003
1093	0.002
1094	0.002
1094	0.002
1095	0.001
1095	0.001
1095	0
1096	-0.001
1096	-0.002
1097	-0.002
1097	-0.003
1097	-0.004
1098	-0.005
1098	-0.007
1099	-0.008
1099	-0.01
1100	-0.012
1100	-0.013
1100	-0.016
1101	-0.018
1101	-0.021
1102	-0.022
1102	-0.025
1102	-0.026
1103	-0.028
1103	-0.031
1104	-0.033
1104	-0.034
1104	-0.036
1105	-0.039
1105	-0.041
1106	-0.046
1106	-0.05
1107	-0.055
1107	-0.059
1107	-0.064
1108	-0.065
1108	-0.067
1109	-0.072
1109	-0.077
1109	-0.081
1110	-0.08
1110	-0.083
1111	-0.088
1111	-0.082
