Data from 17C_3.2A_35min_2sec_int_Absorbance__365__01927.txt Node

Date: Mon Jun 19 17:46:20 CEST 2023
User: Marek
Spectrometer: MAYP115816
Trigger mode: 0
Integration Time (sec): 2.500000E-1
Scans to average: 10
Electric dark correction enabled: true
Nonlinearity correction enabled: true
Boxcar width: 5
XAxis mode: Wavelengths
Number of Pixels in Spectrum: 2068
>>>>>Begin Spectral Data<<<<<
199	-0.723
199	-0.739
200	-0.643
200	-0.594
201	-0.562
201	-0.55
202	-0.533
202	-0.519
203	-0.51
203	-0.508
204	-0.494
204	-0.478
205	-0.454
205	-0.449
205	-0.447
206	-0.448
206	-0.449
207	-0.439
207	-0.443
208	-0.445
208	-0.441
209	-0.436
209	-0.437
210	-0.44
210	-0.446
211	-0.447
211	-0.448
212	-0.45
212	-0.459
213	-0.456
213	-0.455
213	-0.461
214	-0.458
214	-0.46
215	-0.462
215	-0.468
216	-0.472
216	-0.48
217	-0.475
217	-0.48
218	-0.484
218	-0.486
219	-0.488
219	-0.498
220	-0.501
220	-0.509
221	-0.505
221	-0.507
221	-0.5
222	-0.497
222	-0.495
223	-0.497
223	-0.501
224	-0.505
224	-0.503
225	-0.498
225	-0.494
226	-0.498
226	-0.499
227	-0.504
227	-0.513
228	-0.515
228	-0.518
229	-0.517
229	-0.509
229	-0.506
230	-0.511
230	-0.514
231	-0.51
231	-0.5
232	-0.494
232	-0.494
233	-0.486
233	-0.483
234	-0.485
234	-0.484
235	-0.487
235	-0.493
236	-0.491
236	-0.494
236	-0.502
237	-0.508
237	-0.508
238	-0.518
238	-0.517
239	-0.516
239	-0.523
240	-0.525
240	-0.521
241	-0.525
241	-0.523
242	-0.527
242	-0.523
243	-0.519
243	-0.52
243	-0.528
244	-0.531
244	-0.53
245	-0.54
245	-0.542
246	-0.548
246	-0.557
247	-0.557
247	-0.562
248	-0.568
248	-0.566
249	-0.567
249	-0.574
250	-0.572
250	-0.567
250	-0.566
251	-0.561
251	-0.559
252	-0.56
252	-0.549
253	-0.552
253	-0.565
254	-0.565
254	-0.562
255	-0.572
255	-0.567
256	-0.564
256	-0.578
257	-0.576
257	-0.575
258	-0.594
258	-0.592
258	-0.586
259	-0.581
259	-0.588
260	-0.588
260	-0.594
261	-0.605
261	-0.593
262	-0.591
262	-0.59
263	-0.578
263	-0.573
264	-0.574
264	-0.584
265	-0.581
265	-0.588
265	-0.589
266	-0.587
266	-0.587
267	-0.601
267	-0.61
268	-0.627
268	-0.634
269	-0.63
269	-0.625
270	-0.629
270	-0.63
271	-0.631
271	-0.635
272	-0.636
272	-0.629
272	-0.621
273	-0.619
273	-0.629
274	-0.634
274	-0.637
275	-0.639
275	-0.634
276	-0.637
276	-0.632
277	-0.637
277	-0.656
278	-0.667
278	-0.66
278	-0.656
279	-0.661
279	-0.672
280	-0.668
280	-0.671
281	-0.666
281	-0.672
282	-0.665
282	-0.664
283	-0.654
283	-0.657
284	-0.65
284	-0.639
285	-0.635
285	-0.634
285	-0.629
286	-0.635
286	-0.63
287	-0.625
287	-0.61
288	-0.603
288	-0.611
289	-0.624
289	-0.632
290	-0.623
290	-0.622
291	-0.62
291	-0.613
292	-0.615
292	-0.625
292	-0.628
293	-0.632
293	-0.623
294	-0.613
294	-0.604
295	-0.6
295	-0.594
296	-0.591
296	-0.591
297	-0.587
297	-0.57
298	-0.563
298	-0.572
298	-0.56
299	-0.554
299	-0.556
300	-0.55
300	-0.549
301	-0.545
301	-0.543
302	-0.55
302	-0.558
303	-0.546
303	-0.532
304	-0.534
304	-0.531
305	-0.532
305	-0.533
305	-0.53
306	-0.514
306	-0.507
307	-0.495
307	-0.497
308	-0.509
308	-0.506
309	-0.506
309	-0.498
310	-0.485
310	-0.482
311	-0.474
311	-0.483
311	-0.481
312	-0.478
312	-0.476
313	-0.462
313	-0.466
314	-0.465
314	-0.466
315	-0.468
315	-0.465
316	-0.463
316	-0.455
317	-0.448
317	-0.441
318	-0.43
318	-0.428
318	-0.422
319	-0.411
319	-0.408
320	-0.402
320	-0.403
321	-0.406
321	-0.406
322	-0.4
322	-0.396
323	-0.396
323	-0.389
324	-0.382
324	-0.374
324	-0.366
325	-0.356
325	-0.338
326	-0.323
326	-0.304
327	-0.287
327	-0.265
328	-0.239
328	-0.22
329	-0.197
329	-0.175
330	-0.148
330	-0.115
330	-0.089
331	-0.061
331	-0.034
332	-0.009
332	0.013
333	0.035
333	0.059
334	0.079
334	0.096
335	0.114
335	0.128
336	0.142
336	0.155
336	0.165
337	0.176
337	0.184
338	0.193
338	0.198
339	0.207
339	0.213
340	0.217
340	0.221
341	0.225
341	0.228
342	0.232
342	0.235
342	0.238
343	0.24
343	0.243
344	0.244
344	0.246
345	0.247
345	0.248
346	0.249
346	0.25
347	0.251
347	0.252
348	0.252
348	0.253
348	0.253
349	0.253
349	0.254
350	0.254
350	0.254
351	0.254
351	0.254
352	0.254
352	0.254
353	0.254
353	0.254
354	0.254
354	0.254
354	0.254
355	0.253
355	0.254
356	0.253
356	0.253
357	0.253
357	0.253
358	0.252
358	0.252
359	0.252
359	0.252
360	0.252
360	0.252
360	0.251
361	0.251
361	0.251
362	0.251
362	0.251
363	0.251
363	0.251
364	0.25
364	0.25
365	0.25
365	0.25
366	0.25
366	0.25
366	0.25
367	0.251
367	0.25
368	0.25
368	0.25
369	0.25
369	0.25
370	0.25
370	0.25
371	0.249
371	0.249
372	0.249
372	0.249
372	0.249
373	0.249
373	0.249
374	0.249
374	0.249
375	0.249
375	0.249
376	0.249
376	0.249
377	0.249
377	0.249
378	0.249
378	0.249
378	0.248
379	0.248
379	0.248
380	0.248
380	0.248
381	0.248
381	0.248
382	0.247
382	0.247
383	0.247
383	0.247
383	0.246
384	0.246
384	0.246
385	0.246
385	0.246
386	0.246
386	0.246
387	0.246
387	0.246
388	0.246
388	0.245
389	0.246
389	0.246
389	0.246
390	0.246
390	0.246
391	0.246
391	0.246
392	0.245
392	0.245
393	0.245
393	0.245
394	0.245
394	0.244
394	0.244
395	0.244
395	0.244
396	0.244
396	0.243
397	0.243
397	0.243
398	0.243
398	0.243
399	0.243
399	0.243
400	0.243
400	0.243
400	0.243
401	0.242
401	0.242
402	0.242
402	0.242
403	0.242
403	0.242
404	0.241
404	0.241
405	0.242
405	0.242
405	0.241
406	0.241
406	0.241
407	0.241
407	0.241
408	0.241
408	0.241
409	0.241
409	0.24
410	0.24
410	0.24
411	0.24
411	0.24
411	0.24
412	0.24
412	0.24
413	0.24
413	0.24
414	0.24
414	0.24
415	0.239
415	0.239
416	0.239
416	0.239
416	0.239
417	0.239
417	0.239
418	0.239
418	0.239
419	0.239
419	0.239
420	0.239
420	0.239
421	0.239
421	0.239
421	0.239
422	0.239
422	0.239
423	0.239
423	0.239
424	0.238
424	0.238
425	0.237
425	0.237
426	0.237
426	0.236
427	0.236
427	0.236
427	0.236
428	0.236
428	0.236
429	0.236
429	0.236
430	0.236
430	0.236
431	0.235
431	0.235
432	0.235
432	0.235
432	0.235
433	0.235
433	0.235
434	0.234
434	0.234
435	0.234
435	0.234
436	0.234
436	0.234
437	0.234
437	0.234
437	0.234
438	0.234
438	0.234
439	0.234
439	0.234
440	0.234
440	0.234
441	0.233
441	0.233
442	0.233
442	0.233
442	0.233
443	0.233
443	0.233
444	0.233
444	0.233
445	0.232
445	0.233
446	0.233
446	0.233
447	0.233
447	0.233
447	0.233
448	0.233
448	0.233
449	0.233
449	0.233
450	0.233
450	0.233
451	0.233
451	0.233
452	0.233
452	0.233
452	0.233
453	0.233
453	0.233
454	0.232
454	0.232
455	0.232
455	0.232
456	0.232
456	0.232
457	0.232
457	0.231
458	0.231
458	0.231
458	0.232
459	0.232
459	0.232
460	0.231
460	0.231
461	0.231
461	0.231
462	0.231
462	0.231
463	0.232
463	0.231
463	0.232
464	0.231
464	0.231
465	0.231
465	0.232
466	0.232
466	0.232
467	0.232
467	0.233
467	0.233
468	0.233
468	0.233
469	0.233
469	0.234
470	0.234
470	0.234
471	0.234
471	0.234
472	0.234
472	0.234
472	0.234
473	0.235
473	0.235
474	0.235
474	0.235
475	0.236
475	0.236
476	0.236
476	0.236
477	0.237
477	0.237
477	0.237
478	0.237
478	0.238
479	0.238
479	0.238
480	0.238
480	0.239
481	0.239
481	0.239
482	0.24
482	0.24
482	0.241
483	0.241
483	0.242
484	0.242
484	0.242
485	0.242
485	0.242
486	0.243
486	0.244
487	0.244
487	0.245
487	0.245
488	0.246
488	0.247
489	0.248
489	0.25
490	0.251
490	0.251
491	0.253
491	0.253
492	0.254
492	0.255
492	0.256
493	0.257
493	0.258
494	0.259
494	0.26
495	0.26
495	0.261
496	0.262
496	0.263
496	0.265
497	0.266
497	0.267
498	0.268
498	0.269
499	0.271
499	0.272
500	0.273
500	0.275
501	0.276
501	0.277
501	0.278
502	0.279
502	0.28
503	0.281
503	0.282
504	0.283
504	0.285
505	0.286
505	0.287
506	0.289
506	0.29
506	0.291
507	0.292
507	0.294
508	0.295
508	0.297
509	0.298
509	0.299
510	0.301
510	0.302
511	0.304
511	0.305
511	0.307
512	0.308
512	0.31
513	0.311
513	0.312
514	0.313
514	0.315
515	0.316
515	0.317
515	0.318
516	0.319
516	0.321
517	0.322
517	0.324
518	0.325
518	0.326
519	0.327
519	0.328
520	0.33
520	0.331
520	0.333
521	0.334
521	0.336
522	0.337
522	0.338
523	0.34
523	0.341
524	0.342
524	0.342
524	0.343
525	0.344
525	0.345
526	0.345
526	0.346
527	0.347
527	0.348
528	0.349
528	0.35
529	0.351
529	0.352
529	0.353
530	0.354
530	0.355
531	0.356
531	0.356
532	0.356
532	0.357
533	0.358
533	0.358
533	0.358
534	0.358
534	0.358
535	0.359
535	0.359
536	0.359
536	0.359
537	0.359
537	0.359
538	0.36
538	0.36
538	0.36
539	0.361
539	0.361
540	0.361
540	0.361
541	0.362
541	0.362
542	0.362
542	0.362
542	0.361
543	0.361
543	0.361
544	0.361
544	0.361
545	0.361
545	0.361
546	0.361
546	0.36
547	0.36
547	0.36
547	0.36
548	0.36
548	0.36
549	0.359
549	0.359
550	0.359
550	0.359
551	0.359
551	0.36
551	0.36
552	0.361
552	0.361
553	0.361
553	0.361
554	0.361
554	0.361
555	0.361
555	0.361
556	0.36
556	0.36
556	0.36
557	0.359
557	0.359
558	0.358
558	0.358
559	0.357
559	0.357
560	0.357
560	0.356
560	0.356
561	0.356
561	0.355
562	0.355
562	0.354
563	0.354
563	0.354
564	0.354
564	0.354
564	0.354
565	0.354
565	0.354
566	0.354
566	0.354
567	0.354
567	0.354
568	0.354
568	0.353
568	0.352
569	0.352
569	0.351
570	0.349
570	0.348
571	0.348
571	0.347
572	0.347
572	0.346
573	0.346
573	0.346
573	0.345
574	0.345
574	0.345
575	0.345
575	0.346
576	0.346
576	0.345
577	0.345
577	0.345
577	0.345
578	0.345
578	0.346
579	0.346
579	0.346
580	0.345
580	0.344
581	0.343
581	0.343
581	0.343
582	0.344
582	0.343
583	0.343
583	0.343
584	0.342
584	0.341
585	0.342
585	0.342
585	0.342
586	0.342
586	0.342
587	0.341
587	0.341
588	0.34
588	0.34
589	0.34
589	0.341
590	0.34
590	0.34
590	0.341
591	0.341
591	0.34
592	0.339
592	0.339
593	0.339
593	0.338
594	0.338
594	0.338
594	0.338
595	0.338
595	0.337
596	0.337
596	0.338
597	0.339
597	0.338
598	0.338
598	0.338
598	0.337
599	0.337
599	0.336
600	0.335
600	0.334
601	0.334
601	0.333
602	0.332
602	0.331
602	0.331
603	0.331
603	0.332
604	0.332
604	0.333
605	0.333
605	0.333
606	0.333
606	0.332
606	0.332
607	0.331
607	0.33
608	0.329
608	0.328
609	0.328
609	0.327
610	0.327
610	0.326
610	0.326
611	0.326
611	0.327
612	0.327
612	0.328
613	0.328
613	0.328
614	0.326
614	0.325
614	0.324
615	0.323
615	0.322
616	0.322
616	0.321
617	0.319
617	0.318
618	0.317
618	0.316
618	0.316
619	0.316
619	0.316
620	0.316
620	0.315
621	0.314
621	0.314
622	0.313
622	0.312
622	0.312
623	0.311
623	0.31
624	0.31
624	0.308
625	0.308
625	0.307
626	0.306
626	0.305
626	0.304
627	0.303
627	0.301
628	0.299
628	0.298
629	0.296
629	0.294
630	0.292
630	0.29
630	0.288
631	0.285
631	0.283
632	0.28
632	0.277
633	0.274
633	0.271
634	0.268
634	0.265
634	0.261
635	0.258
635	0.254
636	0.25
636	0.246
637	0.241
637	0.236
638	0.231
638	0.226
638	0.221
639	0.215
639	0.209
640	0.203
640	0.197
641	0.192
641	0.186
642	0.18
642	0.174
642	0.168
643	0.162
643	0.155
644	0.148
644	0.141
645	0.134
645	0.127
646	0.12
646	0.112
646	0.104
647	0.096
647	0.088
648	0.08
648	0.072
649	0.063
649	0.055
650	0.047
650	0.039
650	0.03
651	0.019
651	0.005
652	-0.011
652	-0.027
653	-0.042
653	-0.055
653	-0.052
654	-0.031
654	-0.019
655	-0.022
655	-0.028
656	-0.034
656	-0.041
657	-0.045
657	-0.049
657	-0.056
658	-0.062
658	-0.092
659	-0.181
659	-0.285
660	-0.33
660	-0.357
661	-0.385
661	-0.416
661	-0.449
662	-0.482
662	-0.516
663	-0.556
663	-0.599
664	-0.643
664	-0.696
665	-0.747
665	-0.806
665	-0.861
666	-0.919
666	-0.981
667	-1.046
667	-1.112
668	-1.185
668	-1.257
669	-1.331
669	-1.404
669	-1.481
670	-1.546
670	-1.568
671	-1.671
671	-1.961
672	-2.193
672	-2.385
672	-2.516
673	-2.609
673	-2.69
674	-2.742
674	-2.762
675	-2.788
675	-2.929
676	-3.13
676	-3.084
676	-2.863
677	-2.663
677	-2.508
678	-2.346
678	-2.088
679	-1.777
679	-1.628
680	-1.529
680	-1.444
680	-1.371
681	-1.324
681	-1.264
682	-1.224
682	-1.185
683	-1.149
683	-1.131
684	-1.11
684	-1.089
684	-1.066
685	-1.04
685	-1.017
686	-0.991
686	-0.974
687	-0.947
687	-0.935
687	-0.915
688	-0.887
688	-0.864
689	-0.844
689	-0.829
690	-0.811
690	-0.8
691	-0.793
691	-0.799
691	-0.814
692	-0.807
692	-0.798
693	-0.793
693	-0.801
694	-0.795
694	-0.788
695	-0.791
695	-0.785
695	-0.769
696	-0.764
696	-0.744
697	-0.742
697	-0.757
698	-0.76
698	-0.75
698	-0.764
699	-0.765
699	-0.763
700	-0.755
700	-0.772
701	-0.773
701	-0.778
702	-0.777
702	-0.765
702	-0.756
703	-0.748
703	-0.742
704	-0.738
704	-0.738
705	-0.749
705	-0.742
705	-0.729
706	-0.73
706	-0.727
707	-0.732
707	-0.729
708	-0.728
708	-0.72
709	-0.722
709	-0.725
709	-0.715
710	-0.723
710	-0.733
711	-0.724
711	-0.724
712	-0.723
712	-0.734
713	-0.732
713	-0.737
713	-0.728
714	-0.726
714	-0.727
715	-0.717
715	-0.702
716	-0.71
716	-0.712
716	-0.705
717	-0.707
717	-0.709
718	-0.702
718	-0.703
719	-0.707
719	-0.708
720	-0.703
720	-0.712
720	-0.705
721	-0.696
721	-0.698
722	-0.684
722	-0.674
723	-0.672
723	-0.676
723	-0.666
724	-0.67
724	-0.676
725	-0.674
725	-0.683
726	-0.695
726	-0.698
727	-0.704
727	-0.717
727	-0.725
728	-0.724
728	-0.728
729	-0.727
729	-0.731
730	-0.739
730	-0.731
730	-0.719
731	-0.703
731	-0.712
732	-0.719
732	-0.718
733	-0.718
733	-0.725
734	-0.719
734	-0.72
734	-0.705
735	-0.702
735	-0.705
736	-0.714
736	-0.7
737	-0.692
737	-0.695
737	-0.704
738	-0.697
738	-0.697
739	-0.693
739	-0.706
740	-0.707
740	-0.707
741	-0.702
741	-0.703
741	-0.705
742	-0.7
742	-0.699
743	-0.707
743	-0.71
744	-0.707
744	-0.697
744	-0.7
745	-0.705
745	-0.7
746	-0.701
746	-0.698
747	-0.702
747	-0.69
748	-0.678
748	-0.685
748	-0.686
749	-0.684
749	-0.683
750	-0.674
750	-0.673
751	-0.676
751	-0.686
751	-0.687
752	-0.693
752	-0.701
753	-0.696
753	-0.695
754	-0.698
754	-0.692
754	-0.707
755	-0.723
755	-0.737
756	-0.727
756	-0.721
757	-0.717
757	-0.713
758	-0.715
758	-0.71
758	-0.715
759	-0.722
759	-0.705
760	-0.699
760	-0.692
761	-0.699
761	-0.701
761	-0.702
762	-0.709
762	-0.709
763	-0.719
763	-0.715
764	-0.713
764	-0.719
764	-0.725
765	-0.715
765	-0.702
766	-0.707
766	-0.713
767	-0.729
767	-0.722
768	-0.714
768	-0.725
768	-0.73
769	-0.748
769	-0.748
770	-0.753
770	-0.767
771	-0.765
771	-0.768
771	-0.767
772	-0.771
772	-0.769
773	-0.767
773	-0.762
774	-0.761
774	-0.764
775	-0.764
775	-0.759
775	-0.765
776	-0.764
776	-0.756
777	-0.763
777	-0.783
778	-0.781
778	-0.801
778	-0.788
779	-0.81
779	-0.82
780	-0.834
780	-0.833
781	-0.846
781	-0.841
781	-0.857
782	-0.859
782	-0.859
783	-0.848
783	-0.845
784	-0.823
784	-0.813
784	-0.82
785	-0.828
785	-0.813
786	-0.818
786	-0.794
787	-0.778
787	-0.78
788	-0.783
788	-0.795
788	-0.807
789	-0.807
789	-0.79
790	-0.768
790	-0.771
791	-0.77
791	-0.787
791	-0.795
792	-0.788
792	-0.765
793	-0.752
793	-0.73
794	-0.735
794	-0.725
794	-0.736
795	-0.73
795	-0.723
796	-0.709
796	-0.715
797	-0.71
797	-0.72
797	-0.729
798	-0.742
798	-0.738
799	-0.748
799	-0.734
800	-0.74
800	-0.734
801	-0.74
801	-0.725
801	-0.736
802	-0.742
802	-0.742
803	-0.741
803	-0.748
804	-0.744
804	-0.754
804	-0.74
805	-0.745
805	-0.734
806	-0.736
806	-0.722
807	-0.72
807	-0.701
807	-0.69
808	-0.682
808	-0.677
809	-0.663
809	-0.672
810	-0.671
810	-0.662
810	-0.661
811	-0.668
811	-0.66
812	-0.662
812	-0.666
813	-0.669
813	-0.666
813	-0.673
814	-0.677
814	-0.68
815	-0.684
815	-0.686
816	-0.679
816	-0.684
817	-0.693
817	-0.709
817	-0.725
818	-0.73
818	-0.734
819	-0.724
819	-0.723
820	-0.735
820	-0.732
820	-0.743
821	-0.741
821	-0.728
822	-0.697
822	-0.673
823	-0.672
823	-0.674
823	-0.671
824	-0.666
824	-0.668
825	-0.658
825	-0.638
826	-0.633
826	-0.641
826	-0.651
827	-0.645
827	-0.64
828	-0.618
828	-0.618
829	-0.609
829	-0.593
829	-0.587
830	-0.598
830	-0.595
831	-0.586
831	-0.577
832	-0.576
832	-0.569
832	-0.577
833	-0.571
833	-0.574
834	-0.572
834	-0.581
835	-0.566
835	-0.56
835	-0.556
836	-0.554
836	-0.55
837	-0.548
837	-0.538
838	-0.53
838	-0.514
839	-0.503
839	-0.489
839	-0.481
840	-0.472
840	-0.468
841	-0.457
841	-0.446
842	-0.439
842	-0.429
842	-0.422
843	-0.416
843	-0.409
844	-0.402
844	-0.394
845	-0.384
845	-0.373
845	-0.359
846	-0.349
846	-0.333
847	-0.321
847	-0.312
848	-0.301
848	-0.292
848	-0.274
849	-0.261
849	-0.249
850	-0.235
850	-0.23
851	-0.222
851	-0.213
851	-0.202
852	-0.186
852	-0.173
853	-0.163
853	-0.156
854	-0.145
854	-0.135
854	-0.125
855	-0.112
855	-0.105
856	-0.095
856	-0.088
857	-0.081
857	-0.072
857	-0.06
858	-0.05
858	-0.044
859	-0.036
859	-0.025
860	-0.015
860	-0.002
860	0.007
861	0.016
861	0.025
862	0.032
862	0.039
863	0.046
863	0.055
863	0.061
864	0.065
864	0.071
865	0.077
865	0.081
866	0.086
866	0.089
866	0.093
867	0.097
867	0.1
868	0.103
868	0.107
869	0.111
869	0.113
869	0.115
870	0.118
870	0.12
871	0.122
871	0.124
872	0.125
872	0.126
872	0.127
873	0.127
873	0.127
874	0.127
874	0.127
875	0.126
875	0.125
875	0.124
876	0.123
876	0.121
877	0.12
877	0.119
878	0.117
878	0.115
878	0.113
879	0.112
879	0.11
880	0.11
880	0.109
881	0.109
881	0.109
881	0.108
882	0.108
882	0.107
883	0.106
883	0.104
884	0.104
884	0.103
884	0.102
885	0.101
885	0.1
886	0.1
886	0.099
887	0.098
887	0.098
887	0.098
888	0.098
888	0.098
889	0.098
889	0.098
890	0.098
890	0.098
890	0.097
891	0.097
891	0.097
892	0.098
892	0.098
893	0.098
893	0.098
893	0.097
894	0.097
894	0.097
895	0.097
895	0.097
895	0.096
896	0.096
896	0.095
897	0.093
897	0.092
898	0.091
898	0.091
898	0.091
899	0.091
899	0.091
900	0.091
900	0.091
901	0.092
901	0.093
901	0.093
902	0.094
902	0.095
903	0.095
903	0.095
904	0.096
904	0.096
904	0.097
905	0.098
905	0.098
906	0.098
906	0.099
907	0.098
907	0.098
907	0.098
908	0.097
908	0.097
909	0.096
909	0.095
910	0.095
910	0.094
910	0.094
911	0.094
911	0.094
912	0.095
912	0.095
913	0.096
913	0.097
913	0.098
914	0.098
914	0.099
915	0.1
915	0.1
916	0.101
916	0.101
916	0.101
917	0.101
917	0.101
918	0.101
918	0.101
918	0.1
919	0.1
919	0.1
920	0.1
920	0.1
921	0.1
921	0.1
921	0.1
922	0.1
922	0.1
923	0.1
923	0.1
924	0.099
924	0.099
924	0.098
925	0.097
925	0.096
926	0.095
926	0.094
927	0.093
927	0.092
927	0.092
928	0.091
928	0.09
929	0.09
929	0.089
930	0.088
930	0.088
930	0.087
931	0.087
931	0.086
932	0.086
932	0.085
933	0.084
933	0.083
933	0.082
934	0.081
934	0.079
935	0.079
935	0.077
935	0.076
936	0.075
936	0.074
937	0.073
937	0.073
938	0.073
938	0.073
938	0.073
939	0.074
939	0.074
940	0.075
940	0.076
941	0.077
941	0.077
941	0.078
942	0.079
942	0.079
943	0.079
943	0.078
944	0.078
944	0.077
944	0.076
945	0.076
945	0.075
946	0.073
946	0.072
946	0.071
947	0.07
947	0.07
948	0.07
948	0.07
949	0.07
949	0.071
949	0.072
950	0.072
950	0.073
951	0.074
951	0.074
952	0.075
952	0.076
952	0.077
953	0.078
953	0.079
954	0.079
954	0.079
955	0.08
955	0.082
955	0.082
956	0.083
956	0.084
957	0.084
957	0.084
957	0.085
958	0.085
958	0.086
959	0.086
959	0.086
960	0.086
960	0.086
960	0.086
961	0.085
961	0.086
962	0.086
962	0.085
963	0.085
963	0.085
963	0.085
964	0.085
964	0.085
965	0.085
965	0.085
966	0.085
966	0.085
966	0.085
967	0.084
967	0.084
968	0.083
968	0.082
968	0.082
969	0.081
969	0.081
970	0.08
970	0.08
971	0.08
971	0.08
971	0.08
972	0.08
972	0.081
973	0.081
973	0.081
974	0.08
974	0.081
974	0.08
975	0.08
975	0.079
976	0.078
976	0.078
976	0.078
977	0.077
977	0.077
978	0.077
978	0.077
979	0.076
979	0.076
979	0.076
980	0.076
980	0.075
981	0.075
981	0.075
982	0.075
982	0.074
982	0.074
983	0.074
983	0.074
984	0.074
984	0.074
984	0.074
985	0.075
985	0.075
986	0.075
986	0.074
987	0.074
987	0.074
987	0.073
988	0.073
988	0.072
989	0.071
989	0.07
990	0.069
990	0.068
990	0.068
991	0.067
991	0.067
992	0.066
992	0.066
992	0.066
993	0.066
993	0.066
994	0.066
994	0.065
995	0.065
995	0.065
995	0.064
996	0.064
996	0.063
997	0.063
997	0.063
997	0.063
998	0.063
998	0.063
999	0.063
999	0.063
1000	0.064
1000	0.064
1000	0.064
1001	0.065
1001	0.065
1002	0.066
1002	0.066
1003	0.066
1003	0.066
1003	0.066
1004	0.066
1004	0.066
1005	0.065
1005	0.064
1005	0.063
1006	0.062
1006	0.061
1007	0.06
1007	0.059
1008	0.059
1008	0.058
1008	0.057
1009	0.057
1009	0.057
1010	0.057
1010	0.057
1010	0.056
1011	0.056
1011	0.056
1012	0.055
1012	0.054
1013	0.054
1013	0.052
1013	0.052
1014	0.051
1014	0.05
1015	0.049
1015	0.048
1016	0.047
1016	0.046
1016	0.046
1017	0.045
1017	0.045
1018	0.044
1018	0.043
1018	0.042
1019	0.042
1019	0.041
1020	0.04
1020	0.04
1021	0.039
1021	0.038
1021	0.037
1022	0.036
1022	0.036
1023	0.035
1023	0.035
1023	0.035
1024	0.035
1024	0.035
1025	0.035
1025	0.035
1026	0.035
1026	0.036
1026	0.037
1027	0.037
1027	0.037
1028	0.037
1028	0.037
1028	0.037
1029	0.037
1029	0.037
1030	0.036
1030	0.036
1031	0.035
1031	0.035
1031	0.034
1032	0.034
1032	0.034
1033	0.034
1033	0.035
1033	0.035
1034	0.035
1034	0.035
1035	0.035
1035	0.035
1036	0.035
1036	0.035
1036	0.035
1037	0.035
1037	0.035
1038	0.035
1038	0.036
1039	0.036
1039	0.036
1039	0.036
1040	0.036
1040	0.037
1041	0.037
1041	0.037
1041	0.037
1042	0.037
1042	0.037
1043	0.036
1043	0.036
1044	0.035
1044	0.035
1044	0.034
1045	0.033
1045	0.032
1046	0.032
1046	0.031
1046	0.031
1047	0.031
1047	0.031
1048	0.031
1048	0.031
1049	0.031
1049	0.032
1049	0.032
1050	0.033
1050	0.033
1051	0.033
1051	0.033
1051	0.034
1052	0.034
1052	0.034
1053	0.034
1053	0.034
1053	0.034
1054	0.034
1054	0.034
1055	0.034
1055	0.033
1056	0.033
1056	0.032
1056	0.031
1057	0.03
1057	0.029
1058	0.029
1058	0.028
1058	0.028
1059	0.027
1059	0.027
1060	0.026
1060	0.026
1061	0.026
1061	0.026
1061	0.026
1062	0.026
1062	0.026
1063	0.025
1063	0.025
1063	0.026
1064	0.026
1064	0.026
1065	0.026
1065	0.025
1066	0.025
1066	0.025
1066	0.024
1067	0.024
1067	0.024
1068	0.023
1068	0.023
1068	0.022
1069	0.022
1069	0.022
1070	0.021
1070	0.022
1071	0.021
1071	0.021
1071	0.02
1072	0.02
1072	0.02
1073	0.019
1073	0.019
1073	0.019
1074	0.019
1074	0.02
1075	0.019
1075	0.019
1076	0.018
1076	0.018
1076	0.017
1077	0.017
1077	0.017
1078	0.016
1078	0.015
1078	0.014
1079	0.013
1079	0.013
1080	0.012
1080	0.012
1080	0.011
1081	0.01
1081	0.01
1082	0.009
1082	0.008
1083	0.007
1083	0.006
1083	0.005
1084	0.004
1084	0.003
1085	0.001
1085	0
1085	0
1086	0
1086	-0.001
1087	-0.001
1087	-0.001
1088	-0.002
1088	-0.002
1088	-0.002
1089	-0.003
1089	-0.003
1090	-0.004
1090	-0.005
1090	-0.006
1091	-0.007
1091	-0.008
1092	-0.009
1092	-0.009
1092	-0.01
1093	-0.011
1093	-0.011
1094	-0.011
1094	-0.012
1095	-0.014
1095	-0.014
1095	-0.014
1096	-0.015
1096	-0.016
1097	-0.016
1097	-0.017
1097	-0.018
1098	-0.019
1098	-0.02
1099	-0.021
1099	-0.022
1100	-0.024
1100	-0.026
1100	-0.028
1101	-0.03
1101	-0.033
1102	-0.035
1102	-0.038
1102	-0.039
1103	-0.041
1103	-0.043
1104	-0.046
1104	-0.047
1104	-0.049
1105	-0.05
1105	-0.054
1106	-0.058
1106	-0.06
1107	-0.064
1107	-0.069
1107	-0.073
1108	-0.076
1108	-0.078
1109	-0.081
1109	-0.085
1109	-0.088
1110	-0.088
1110	-0.091
1111	-0.098
1111	-0.094
