Data from 17C_3.2A_35min_2sec_int_Absorbance__7__01569.txt Node

Date: Mon Jun 19 17:31:25 CEST 2023
User: Marek
Spectrometer: MAYP115816
Trigger mode: 0
Integration Time (sec): 2.500000E-1
Scans to average: 10
Electric dark correction enabled: true
Nonlinearity correction enabled: true
Boxcar width: 5
XAxis mode: Wavelengths
Number of Pixels in Spectrum: 2068
>>>>>Begin Spectral Data<<<<<
199	-0.713
199	-0.729
200	-0.627
200	-0.574
201	-0.538
201	-0.528
202	-0.512
202	-0.499
203	-0.488
203	-0.483
204	-0.471
204	-0.458
205	-0.435
205	-0.431
205	-0.431
206	-0.433
206	-0.434
207	-0.423
207	-0.425
208	-0.427
208	-0.428
209	-0.423
209	-0.423
210	-0.426
210	-0.43
211	-0.43
211	-0.431
212	-0.434
212	-0.443
213	-0.44
213	-0.442
213	-0.446
214	-0.442
214	-0.443
215	-0.443
215	-0.451
216	-0.453
216	-0.462
217	-0.457
217	-0.462
218	-0.466
218	-0.465
219	-0.47
219	-0.479
220	-0.484
220	-0.492
221	-0.49
221	-0.493
221	-0.484
222	-0.483
222	-0.484
223	-0.487
223	-0.493
224	-0.495
224	-0.496
225	-0.49
225	-0.484
226	-0.489
226	-0.49
227	-0.496
227	-0.504
228	-0.504
228	-0.505
229	-0.506
229	-0.501
229	-0.496
230	-0.501
230	-0.505
231	-0.499
231	-0.491
232	-0.487
232	-0.484
233	-0.479
233	-0.477
234	-0.474
234	-0.471
235	-0.474
235	-0.478
236	-0.477
236	-0.48
236	-0.486
237	-0.489
237	-0.491
238	-0.498
238	-0.496
239	-0.495
239	-0.504
240	-0.501
240	-0.498
241	-0.502
241	-0.504
242	-0.508
242	-0.505
243	-0.501
243	-0.502
243	-0.511
244	-0.512
244	-0.511
245	-0.528
245	-0.528
246	-0.533
246	-0.538
247	-0.54
247	-0.544
248	-0.551
248	-0.548
249	-0.552
249	-0.561
250	-0.557
250	-0.55
250	-0.55
251	-0.547
251	-0.546
252	-0.548
252	-0.539
253	-0.541
253	-0.552
254	-0.548
254	-0.544
255	-0.555
255	-0.55
256	-0.545
256	-0.557
257	-0.554
257	-0.55
258	-0.569
258	-0.566
258	-0.562
259	-0.561
259	-0.57
260	-0.568
260	-0.574
261	-0.585
261	-0.576
262	-0.573
262	-0.574
263	-0.558
263	-0.554
264	-0.555
264	-0.561
265	-0.555
265	-0.562
265	-0.562
266	-0.561
266	-0.56
267	-0.574
267	-0.582
268	-0.599
268	-0.61
269	-0.605
269	-0.6
270	-0.605
270	-0.607
271	-0.608
271	-0.613
272	-0.615
272	-0.61
272	-0.603
273	-0.601
273	-0.608
274	-0.615
274	-0.619
275	-0.619
275	-0.614
276	-0.62
276	-0.611
277	-0.615
277	-0.633
278	-0.641
278	-0.637
278	-0.632
279	-0.633
279	-0.643
280	-0.638
280	-0.639
281	-0.634
281	-0.64
282	-0.633
282	-0.636
283	-0.625
283	-0.627
284	-0.621
284	-0.612
285	-0.609
285	-0.608
285	-0.605
286	-0.613
286	-0.609
287	-0.605
287	-0.587
288	-0.581
288	-0.589
289	-0.601
289	-0.61
290	-0.598
290	-0.598
291	-0.596
291	-0.589
292	-0.59
292	-0.598
292	-0.602
293	-0.606
293	-0.596
294	-0.583
294	-0.573
295	-0.572
295	-0.568
296	-0.567
296	-0.562
297	-0.556
297	-0.54
298	-0.533
298	-0.542
298	-0.531
299	-0.525
299	-0.529
300	-0.522
300	-0.518
301	-0.513
301	-0.514
302	-0.523
302	-0.53
303	-0.516
303	-0.5
304	-0.503
304	-0.502
305	-0.5
305	-0.502
305	-0.5
306	-0.484
306	-0.474
307	-0.458
307	-0.462
308	-0.478
308	-0.478
309	-0.48
309	-0.471
310	-0.461
310	-0.455
311	-0.446
311	-0.453
311	-0.453
312	-0.45
312	-0.448
313	-0.434
313	-0.436
314	-0.432
314	-0.434
315	-0.436
315	-0.436
316	-0.433
316	-0.425
317	-0.417
317	-0.412
318	-0.402
318	-0.399
318	-0.394
319	-0.384
319	-0.38
320	-0.372
320	-0.371
321	-0.375
321	-0.374
322	-0.367
322	-0.361
323	-0.36
323	-0.353
324	-0.346
324	-0.336
324	-0.322
325	-0.313
325	-0.293
326	-0.278
326	-0.257
327	-0.241
327	-0.223
328	-0.193
328	-0.17
329	-0.144
329	-0.118
330	-0.09
330	-0.055
330	-0.026
331	0.007
331	0.037
332	0.067
332	0.096
333	0.121
333	0.149
334	0.172
334	0.191
335	0.212
335	0.23
336	0.245
336	0.26
336	0.273
337	0.286
337	0.297
338	0.308
338	0.314
339	0.325
339	0.333
340	0.338
340	0.344
341	0.349
341	0.354
342	0.358
342	0.362
342	0.366
343	0.368
343	0.372
344	0.374
344	0.375
345	0.377
345	0.378
346	0.38
346	0.381
347	0.382
347	0.382
348	0.383
348	0.383
348	0.384
349	0.384
349	0.384
350	0.384
350	0.384
351	0.384
351	0.384
352	0.384
352	0.385
353	0.385
353	0.384
354	0.384
354	0.384
354	0.384
355	0.384
355	0.383
356	0.384
356	0.383
357	0.383
357	0.382
358	0.382
358	0.381
359	0.381
359	0.38
360	0.38
360	0.38
360	0.379
361	0.378
361	0.378
362	0.378
362	0.378
363	0.378
363	0.377
364	0.377
364	0.377
365	0.377
365	0.376
366	0.376
366	0.376
366	0.376
367	0.376
367	0.375
368	0.375
368	0.374
369	0.374
369	0.373
370	0.373
370	0.372
371	0.372
371	0.371
372	0.371
372	0.37
372	0.37
373	0.369
373	0.369
374	0.369
374	0.369
375	0.368
375	0.368
376	0.367
376	0.367
377	0.367
377	0.367
378	0.366
378	0.366
378	0.366
379	0.365
379	0.365
380	0.364
380	0.364
381	0.363
381	0.363
382	0.362
382	0.362
383	0.361
383	0.36
383	0.36
384	0.359
384	0.359
385	0.358
385	0.358
386	0.358
386	0.358
387	0.357
387	0.357
388	0.356
388	0.356
389	0.356
389	0.355
389	0.355
390	0.355
390	0.354
391	0.354
391	0.353
392	0.353
392	0.352
393	0.352
393	0.352
394	0.351
394	0.35
394	0.35
395	0.349
395	0.349
396	0.348
396	0.348
397	0.348
397	0.347
398	0.347
398	0.347
399	0.346
399	0.346
400	0.346
400	0.346
400	0.345
401	0.345
401	0.344
402	0.344
402	0.343
403	0.343
403	0.343
404	0.342
404	0.342
405	0.342
405	0.341
405	0.341
406	0.341
406	0.34
407	0.34
407	0.339
408	0.339
408	0.339
409	0.339
409	0.338
410	0.338
410	0.338
411	0.338
411	0.337
411	0.337
412	0.337
412	0.337
413	0.337
413	0.336
414	0.336
414	0.336
415	0.335
415	0.335
416	0.335
416	0.334
416	0.334
417	0.334
417	0.334
418	0.334
418	0.333
419	0.334
419	0.334
420	0.334
420	0.333
421	0.333
421	0.334
421	0.333
422	0.333
422	0.333
423	0.333
423	0.333
424	0.332
424	0.332
425	0.331
425	0.331
426	0.33
426	0.33
427	0.33
427	0.33
427	0.329
428	0.329
428	0.329
429	0.329
429	0.329
430	0.329
430	0.329
431	0.329
431	0.329
432	0.329
432	0.328
432	0.328
433	0.328
433	0.328
434	0.327
434	0.327
435	0.327
435	0.327
436	0.327
436	0.327
437	0.327
437	0.327
437	0.327
438	0.327
438	0.327
439	0.327
439	0.327
440	0.327
440	0.327
441	0.327
441	0.327
442	0.327
442	0.327
442	0.327
443	0.327
443	0.327
444	0.327
444	0.327
445	0.328
445	0.328
446	0.328
446	0.328
447	0.329
447	0.329
447	0.329
448	0.329
448	0.329
449	0.329
449	0.329
450	0.33
450	0.33
451	0.33
451	0.33
452	0.33
452	0.331
452	0.331
453	0.331
453	0.331
454	0.331
454	0.331
455	0.331
455	0.331
456	0.332
456	0.332
457	0.332
457	0.332
458	0.333
458	0.333
458	0.333
459	0.334
459	0.334
460	0.334
460	0.335
461	0.335
461	0.335
462	0.336
462	0.336
463	0.337
463	0.337
463	0.338
464	0.338
464	0.339
465	0.339
465	0.34
466	0.341
466	0.342
467	0.342
467	0.343
467	0.344
468	0.345
468	0.345
469	0.346
469	0.347
470	0.348
470	0.349
471	0.35
471	0.35
472	0.351
472	0.352
472	0.353
473	0.354
473	0.355
474	0.356
474	0.357
475	0.358
475	0.359
476	0.36
476	0.361
477	0.362
477	0.363
477	0.364
478	0.366
478	0.367
479	0.369
479	0.37
480	0.371
480	0.373
481	0.374
481	0.376
482	0.377
482	0.379
482	0.381
483	0.383
483	0.385
484	0.387
484	0.388
485	0.39
485	0.392
486	0.393
486	0.395
487	0.397
487	0.399
487	0.401
488	0.403
488	0.405
489	0.408
489	0.411
490	0.414
490	0.417
491	0.42
491	0.422
492	0.425
492	0.428
492	0.43
493	0.433
493	0.436
494	0.439
494	0.442
495	0.445
495	0.448
496	0.451
496	0.454
496	0.457
497	0.46
497	0.464
498	0.467
498	0.47
499	0.473
499	0.477
500	0.481
500	0.484
501	0.488
501	0.491
501	0.494
502	0.498
502	0.501
503	0.505
503	0.509
504	0.512
504	0.516
505	0.52
505	0.523
506	0.527
506	0.53
506	0.534
507	0.538
507	0.541
508	0.545
508	0.549
509	0.553
509	0.556
510	0.56
510	0.564
511	0.567
511	0.571
511	0.575
512	0.578
512	0.582
513	0.585
513	0.588
514	0.591
514	0.594
515	0.598
515	0.601
515	0.604
516	0.607
516	0.61
517	0.613
517	0.616
518	0.618
518	0.621
519	0.623
519	0.625
520	0.628
520	0.63
520	0.632
521	0.634
521	0.636
522	0.638
522	0.64
523	0.641
523	0.643
524	0.644
524	0.645
524	0.645
525	0.646
525	0.646
526	0.646
526	0.647
527	0.647
527	0.647
528	0.646
528	0.646
529	0.646
529	0.646
529	0.646
530	0.645
530	0.644
531	0.643
531	0.642
532	0.641
532	0.64
533	0.638
533	0.636
533	0.634
534	0.632
534	0.629
535	0.627
535	0.624
536	0.621
536	0.618
537	0.614
537	0.611
538	0.608
538	0.604
538	0.601
539	0.598
539	0.595
540	0.591
540	0.587
541	0.583
541	0.58
542	0.576
542	0.571
542	0.567
543	0.562
543	0.557
544	0.552
544	0.548
545	0.543
545	0.539
546	0.534
546	0.529
547	0.524
547	0.519
547	0.514
548	0.51
548	0.505
549	0.501
549	0.496
550	0.491
550	0.485
551	0.48
551	0.475
551	0.47
552	0.466
552	0.461
553	0.456
553	0.451
554	0.446
554	0.441
555	0.436
555	0.432
556	0.426
556	0.421
556	0.416
557	0.411
557	0.406
558	0.401
558	0.395
559	0.389
559	0.384
560	0.379
560	0.373
560	0.369
561	0.364
561	0.36
562	0.355
562	0.35
563	0.345
563	0.341
564	0.336
564	0.332
564	0.328
565	0.324
565	0.32
566	0.315
566	0.31
567	0.306
567	0.301
568	0.297
568	0.292
568	0.288
569	0.283
569	0.278
570	0.274
570	0.269
571	0.266
571	0.262
572	0.258
572	0.255
573	0.251
573	0.247
573	0.244
574	0.241
574	0.238
575	0.234
575	0.232
576	0.228
576	0.224
577	0.221
577	0.218
577	0.216
578	0.214
578	0.211
579	0.209
579	0.206
580	0.202
580	0.198
581	0.195
581	0.192
581	0.19
582	0.188
582	0.186
583	0.184
583	0.181
584	0.178
584	0.174
585	0.173
585	0.171
585	0.169
586	0.167
586	0.165
587	0.163
587	0.161
588	0.158
588	0.156
589	0.155
589	0.153
590	0.151
590	0.149
590	0.148
591	0.146
591	0.143
592	0.141
592	0.139
593	0.138
593	0.136
594	0.135
594	0.133
594	0.132
595	0.13
595	0.129
596	0.127
596	0.127
597	0.126
597	0.124
598	0.122
598	0.121
598	0.119
599	0.118
599	0.116
600	0.114
600	0.112
601	0.111
601	0.11
602	0.108
602	0.107
602	0.106
603	0.105
603	0.105
604	0.104
604	0.104
605	0.103
605	0.103
606	0.102
606	0.1
606	0.099
607	0.098
607	0.097
608	0.095
608	0.093
609	0.092
609	0.092
610	0.09
610	0.089
610	0.089
611	0.089
611	0.089
612	0.089
612	0.089
613	0.088
613	0.088
614	0.086
614	0.084
614	0.083
615	0.082
615	0.081
616	0.08
616	0.079
617	0.078
617	0.076
618	0.075
618	0.075
618	0.075
619	0.075
619	0.075
620	0.075
620	0.075
621	0.074
621	0.074
622	0.073
622	0.073
622	0.072
623	0.072
623	0.072
624	0.072
624	0.071
625	0.071
625	0.07
626	0.07
626	0.07
626	0.07
627	0.069
627	0.069
628	0.068
628	0.068
629	0.067
629	0.066
630	0.066
630	0.065
630	0.065
631	0.064
631	0.064
632	0.063
632	0.062
633	0.062
633	0.061
634	0.061
634	0.061
634	0.06
635	0.06
635	0.059
636	0.058
636	0.057
637	0.056
637	0.055
638	0.054
638	0.053
638	0.052
639	0.051
639	0.05
640	0.049
640	0.048
641	0.046
641	0.046
642	0.045
642	0.044
642	0.043
643	0.042
643	0.041
644	0.04
644	0.038
645	0.037
645	0.036
646	0.035
646	0.033
646	0.031
647	0.03
647	0.028
648	0.026
648	0.025
649	0.022
649	0.02
650	0.017
650	0.013
650	0.01
651	0.005
651	0
652	-0.006
652	-0.012
653	-0.016
653	-0.021
653	-0.019
654	-0.019
654	-0.023
655	-0.028
655	-0.031
656	-0.035
656	-0.039
657	-0.041
657	-0.044
657	-0.048
658	-0.051
658	-0.067
659	-0.101
659	-0.136
660	-0.156
660	-0.169
661	-0.184
661	-0.202
661	-0.219
662	-0.234
662	-0.249
663	-0.264
663	-0.28
664	-0.295
664	-0.318
665	-0.334
665	-0.358
665	-0.377
666	-0.395
666	-0.417
667	-0.442
667	-0.469
668	-0.503
668	-0.54
669	-0.578
669	-0.612
669	-0.644
670	-0.641
670	-0.575
671	-0.755
671	-1.268
672	-1.772
672	-2.121
672	-2.326
673	-2.396
673	-2.418
674	-2.435
674	-2.449
675	-2.475
675	-2.621
676	-2.832
676	-2.812
676	-2.56
677	-2.241
677	-1.769
678	-1.192
678	-0.897
679	-0.792
679	-0.741
680	-0.709
680	-0.679
680	-0.657
681	-0.656
681	-0.637
682	-0.635
682	-0.628
683	-0.619
683	-0.632
684	-0.639
684	-0.644
684	-0.646
685	-0.646
685	-0.645
686	-0.638
686	-0.639
687	-0.63
687	-0.635
687	-0.63
688	-0.616
688	-0.608
689	-0.599
689	-0.596
690	-0.585
690	-0.583
691	-0.586
691	-0.598
691	-0.62
692	-0.617
692	-0.616
693	-0.62
693	-0.633
694	-0.631
694	-0.628
695	-0.638
695	-0.636
695	-0.623
696	-0.624
696	-0.602
697	-0.607
697	-0.627
698	-0.632
698	-0.626
698	-0.644
699	-0.647
699	-0.648
700	-0.643
700	-0.66
701	-0.66
701	-0.671
702	-0.67
702	-0.658
702	-0.652
703	-0.645
703	-0.636
704	-0.638
704	-0.638
705	-0.652
705	-0.649
705	-0.637
706	-0.64
706	-0.639
707	-0.646
707	-0.643
708	-0.644
708	-0.641
709	-0.643
709	-0.648
709	-0.641
710	-0.648
710	-0.659
711	-0.651
711	-0.652
712	-0.652
712	-0.667
713	-0.668
713	-0.673
713	-0.664
714	-0.66
714	-0.662
715	-0.652
715	-0.641
716	-0.65
716	-0.653
716	-0.648
717	-0.649
717	-0.652
718	-0.645
718	-0.648
719	-0.654
719	-0.656
720	-0.653
720	-0.662
720	-0.656
721	-0.646
721	-0.646
722	-0.632
722	-0.62
723	-0.617
723	-0.621
723	-0.609
724	-0.611
724	-0.617
725	-0.618
725	-0.625
726	-0.636
726	-0.639
727	-0.644
727	-0.661
727	-0.669
728	-0.671
728	-0.68
729	-0.682
729	-0.688
730	-0.694
730	-0.687
730	-0.678
731	-0.665
731	-0.676
732	-0.683
732	-0.685
733	-0.684
733	-0.689
734	-0.682
734	-0.68
734	-0.668
735	-0.665
735	-0.667
736	-0.676
736	-0.663
737	-0.65
737	-0.65
737	-0.66
738	-0.653
738	-0.654
739	-0.653
739	-0.665
740	-0.667
740	-0.665
741	-0.663
741	-0.665
741	-0.671
742	-0.67
742	-0.67
743	-0.679
743	-0.685
744	-0.681
744	-0.673
744	-0.674
745	-0.681
745	-0.673
746	-0.672
746	-0.667
747	-0.669
747	-0.658
748	-0.645
748	-0.649
748	-0.654
749	-0.65
749	-0.651
750	-0.644
750	-0.646
751	-0.649
751	-0.66
751	-0.661
752	-0.665
752	-0.675
753	-0.67
753	-0.665
754	-0.67
754	-0.665
754	-0.676
755	-0.693
755	-0.705
756	-0.692
756	-0.689
757	-0.686
757	-0.679
758	-0.679
758	-0.677
758	-0.681
759	-0.686
759	-0.672
760	-0.665
760	-0.66
761	-0.673
761	-0.671
761	-0.67
762	-0.677
762	-0.679
763	-0.688
763	-0.684
764	-0.684
764	-0.69
764	-0.693
765	-0.684
765	-0.671
766	-0.679
766	-0.689
767	-0.704
767	-0.697
768	-0.688
768	-0.698
768	-0.702
769	-0.72
769	-0.723
770	-0.728
770	-0.742
771	-0.739
771	-0.74
771	-0.74
772	-0.744
772	-0.744
773	-0.743
773	-0.739
774	-0.737
774	-0.737
775	-0.737
775	-0.73
775	-0.737
776	-0.735
776	-0.724
777	-0.732
777	-0.75
778	-0.746
778	-0.765
778	-0.751
779	-0.774
779	-0.781
780	-0.794
780	-0.793
781	-0.805
781	-0.801
781	-0.815
782	-0.812
782	-0.814
783	-0.8
783	-0.799
784	-0.776
784	-0.769
784	-0.778
785	-0.785
785	-0.773
786	-0.779
786	-0.76
787	-0.748
787	-0.751
788	-0.757
788	-0.768
788	-0.781
789	-0.782
789	-0.765
790	-0.748
790	-0.753
791	-0.754
791	-0.772
791	-0.78
792	-0.775
792	-0.751
793	-0.74
793	-0.717
794	-0.72
794	-0.714
794	-0.722
795	-0.714
795	-0.706
796	-0.69
796	-0.698
797	-0.692
797	-0.705
797	-0.711
798	-0.724
798	-0.718
799	-0.727
799	-0.712
800	-0.719
800	-0.714
801	-0.719
801	-0.704
801	-0.715
802	-0.724
802	-0.726
803	-0.726
803	-0.735
804	-0.73
804	-0.742
804	-0.729
805	-0.734
805	-0.723
806	-0.728
806	-0.711
807	-0.709
807	-0.691
807	-0.679
808	-0.673
808	-0.669
809	-0.656
809	-0.669
810	-0.664
810	-0.658
810	-0.653
811	-0.661
811	-0.651
812	-0.651
812	-0.654
813	-0.657
813	-0.651
813	-0.657
814	-0.657
814	-0.664
815	-0.668
815	-0.673
816	-0.664
816	-0.669
817	-0.677
817	-0.695
817	-0.708
818	-0.716
818	-0.718
819	-0.709
819	-0.709
820	-0.719
820	-0.715
820	-0.727
821	-0.726
821	-0.714
822	-0.683
822	-0.659
823	-0.657
823	-0.66
823	-0.657
824	-0.651
824	-0.652
825	-0.645
825	-0.627
826	-0.622
826	-0.631
826	-0.642
827	-0.639
827	-0.636
828	-0.617
828	-0.619
829	-0.609
829	-0.596
829	-0.59
830	-0.6
830	-0.597
831	-0.589
831	-0.58
832	-0.577
832	-0.569
832	-0.576
833	-0.569
833	-0.571
834	-0.57
834	-0.578
835	-0.565
835	-0.56
835	-0.557
836	-0.552
836	-0.552
837	-0.549
837	-0.54
838	-0.533
838	-0.522
839	-0.509
839	-0.497
839	-0.489
840	-0.478
840	-0.475
841	-0.466
841	-0.457
842	-0.453
842	-0.443
842	-0.435
843	-0.431
843	-0.427
844	-0.419
844	-0.413
845	-0.408
845	-0.399
845	-0.386
846	-0.376
846	-0.361
847	-0.352
847	-0.342
848	-0.33
848	-0.321
848	-0.306
849	-0.296
849	-0.284
850	-0.271
850	-0.265
851	-0.258
851	-0.251
851	-0.243
852	-0.231
852	-0.221
853	-0.212
853	-0.208
854	-0.199
854	-0.19
854	-0.181
855	-0.172
855	-0.168
856	-0.158
856	-0.151
857	-0.146
857	-0.14
857	-0.131
858	-0.121
858	-0.116
859	-0.109
859	-0.1
860	-0.094
860	-0.083
860	-0.076
861	-0.069
861	-0.063
862	-0.056
862	-0.051
863	-0.046
863	-0.039
863	-0.034
864	-0.031
864	-0.026
865	-0.021
865	-0.018
866	-0.014
866	-0.011
866	-0.009
867	-0.006
867	-0.003
868	-0.002
868	0.002
869	0.005
869	0.006
869	0.008
870	0.01
870	0.012
871	0.015
871	0.016
872	0.018
872	0.019
872	0.019
873	0.02
873	0.021
874	0.021
874	0.02
875	0.02
875	0.019
875	0.018
876	0.016
876	0.015
877	0.014
877	0.012
878	0.01
878	0.009
878	0.007
879	0.005
879	0.004
880	0.003
880	0.002
881	0.002
881	0.002
881	0.002
882	0.002
882	0.001
883	0.001
883	-0
884	-0
884	-0.001
884	-0.002
885	-0.002
885	-0.003
886	-0.003
886	-0.003
887	-0.004
887	-0.004
887	-0.004
888	-0.003
888	-0.004
889	-0.003
889	-0.003
890	-0.002
890	-0.002
890	-0.002
891	-0.002
891	-0.002
892	-0.002
892	-0.002
893	-0.002
893	-0.002
893	-0.001
894	-0.002
894	-0.002
895	-0.003
895	-0.003
895	-0.003
896	-0.004
896	-0.005
897	-0.006
897	-0.006
898	-0.007
898	-0.008
898	-0.008
899	-0.007
899	-0.007
900	-0.006
900	-0.006
901	-0.005
901	-0.005
901	-0.004
902	-0.003
902	-0.002
903	-0.002
903	-0.001
904	-0.001
904	-0
904	0.001
905	0.002
905	0.002
906	0.003
906	0.003
907	0.003
907	0.003
907	0.003
908	0.002
908	0.002
909	0.001
909	0.001
910	0
910	-0
910	-0
911	0
911	0.001
912	0.001
912	0.002
913	0.003
913	0.004
913	0.005
914	0.006
914	0.006
915	0.007
915	0.008
916	0.008
916	0.008
916	0.009
917	0.009
917	0.009
918	0.009
918	0.009
918	0.009
919	0.009
919	0.009
920	0.009
920	0.009
921	0.01
921	0.01
921	0.01
922	0.01
922	0.01
923	0.01
923	0.01
924	0.01
924	0.009
924	0.009
925	0.008
925	0.007
926	0.006
926	0.005
927	0.004
927	0.003
927	0.003
928	0.002
928	0.002
929	0.001
929	0.001
930	0.001
930	0
930	-0
931	-0
931	-0
932	-0.001
932	-0.001
933	-0.002
933	-0.003
933	-0.004
934	-0.006
934	-0.007
935	-0.008
935	-0.009
935	-0.009
936	-0.011
936	-0.011
937	-0.012
937	-0.012
938	-0.012
938	-0.011
938	-0.011
939	-0.01
939	-0.009
940	-0.008
940	-0.007
941	-0.006
941	-0.005
941	-0.004
942	-0.003
942	-0.003
943	-0.002
943	-0.002
944	-0.002
944	-0.003
944	-0.003
945	-0.004
945	-0.005
946	-0.006
946	-0.007
946	-0.008
947	-0.009
947	-0.009
948	-0.009
948	-0.009
949	-0.008
949	-0.008
949	-0.007
950	-0.006
950	-0.005
951	-0.004
951	-0.003
952	-0.002
952	-0.001
952	-0
953	0.001
953	0.002
954	0.002
954	0.003
955	0.004
955	0.005
955	0.006
956	0.007
956	0.008
957	0.008
957	0.008
957	0.008
958	0.009
958	0.009
959	0.01
959	0.01
960	0.009
960	0.009
960	0.01
961	0.009
961	0.01
962	0.01
962	0.01
963	0.009
963	0.009
963	0.009
964	0.009
964	0.009
965	0.009
965	0.009
966	0.009
966	0.009
966	0.009
967	0.009
967	0.008
968	0.008
968	0.007
968	0.006
969	0.006
969	0.006
970	0.006
970	0.006
971	0.006
971	0.006
971	0.006
972	0.006
972	0.006
973	0.006
973	0.006
974	0.005
974	0.005
974	0.005
975	0.005
975	0.004
976	0.003
976	0.003
976	0.003
977	0.002
977	0.002
978	0.003
978	0.002
979	0.002
979	0.002
979	0.002
980	0.001
980	0.001
981	0.001
981	0.001
982	0.001
982	0
982	-0
983	-0
983	-0
984	-0
984	-0
984	0
985	0
985	0.001
986	0.001
986	0.001
987	0.001
987	0.001
987	0
988	-0
988	-0.001
989	-0.001
989	-0.002
990	-0.003
990	-0.004
990	-0.004
991	-0.005
991	-0.005
992	-0.006
992	-0.006
992	-0.006
993	-0.006
993	-0.006
994	-0.006
994	-0.006
995	-0.007
995	-0.007
995	-0.007
996	-0.008
996	-0.008
997	-0.009
997	-0.009
997	-0.009
998	-0.009
998	-0.009
999	-0.008
999	-0.008
1000	-0.008
1000	-0.008
1000	-0.007
1001	-0.007
1001	-0.006
1002	-0.006
1002	-0.006
1003	-0.006
1003	-0.005
1003	-0.006
1004	-0.006
1004	-0.006
1005	-0.007
1005	-0.008
1005	-0.009
1006	-0.01
1006	-0.011
1007	-0.012
1007	-0.013
1008	-0.013
1008	-0.014
1008	-0.014
1009	-0.015
1009	-0.015
1010	-0.014
1010	-0.014
1010	-0.015
1011	-0.015
1011	-0.015
1012	-0.016
1012	-0.017
1013	-0.017
1013	-0.018
1013	-0.019
1014	-0.02
1014	-0.021
1015	-0.022
1015	-0.022
1016	-0.023
1016	-0.024
1016	-0.024
1017	-0.025
1017	-0.025
1018	-0.026
1018	-0.026
1018	-0.027
1019	-0.027
1019	-0.028
1020	-0.029
1020	-0.029
1021	-0.03
1021	-0.03
1021	-0.031
1022	-0.032
1022	-0.033
1023	-0.033
1023	-0.034
1023	-0.034
1024	-0.034
1024	-0.034
1025	-0.035
1025	-0.034
1026	-0.034
1026	-0.033
1026	-0.033
1027	-0.032
1027	-0.032
1028	-0.032
1028	-0.031
1028	-0.031
1029	-0.032
1029	-0.032
1030	-0.032
1030	-0.033
1031	-0.033
1031	-0.033
1031	-0.033
1032	-0.034
1032	-0.034
1033	-0.034
1033	-0.033
1033	-0.033
1034	-0.033
1034	-0.032
1035	-0.032
1035	-0.032
1036	-0.032
1036	-0.032
1036	-0.032
1037	-0.032
1037	-0.032
1038	-0.032
1038	-0.032
1039	-0.031
1039	-0.031
1039	-0.03
1040	-0.03
1040	-0.029
1041	-0.029
1041	-0.028
1041	-0.028
1042	-0.028
1042	-0.028
1043	-0.028
1043	-0.029
1044	-0.029
1044	-0.03
1044	-0.03
1045	-0.031
1045	-0.032
1046	-0.033
1046	-0.033
1046	-0.033
1047	-0.033
1047	-0.032
1048	-0.032
1048	-0.032
1049	-0.031
1049	-0.031
1049	-0.031
1050	-0.03
1050	-0.03
1051	-0.03
1051	-0.029
1051	-0.029
1052	-0.029
1052	-0.028
1053	-0.028
1053	-0.028
1053	-0.028
1054	-0.028
1054	-0.028
1055	-0.028
1055	-0.028
1056	-0.029
1056	-0.03
1056	-0.03
1057	-0.031
1057	-0.032
1058	-0.032
1058	-0.033
1058	-0.033
1059	-0.034
1059	-0.034
1060	-0.034
1060	-0.035
1061	-0.035
1061	-0.035
1061	-0.035
1062	-0.035
1062	-0.035
1063	-0.035
1063	-0.035
1063	-0.035
1064	-0.034
1064	-0.034
1065	-0.034
1065	-0.035
1066	-0.035
1066	-0.035
1066	-0.036
1067	-0.036
1067	-0.036
1068	-0.037
1068	-0.037
1068	-0.038
1069	-0.039
1069	-0.039
1070	-0.039
1070	-0.039
1071	-0.04
1071	-0.04
1071	-0.04
1072	-0.041
1072	-0.041
1073	-0.041
1073	-0.041
1073	-0.041
1074	-0.04
1074	-0.04
1075	-0.04
1075	-0.041
1076	-0.041
1076	-0.041
1076	-0.042
1077	-0.042
1077	-0.042
1078	-0.043
1078	-0.043
1078	-0.044
1079	-0.045
1079	-0.045
1080	-0.046
1080	-0.046
1080	-0.047
1081	-0.048
1081	-0.048
1082	-0.048
1082	-0.049
1083	-0.05
1083	-0.051
1083	-0.051
1084	-0.052
1084	-0.053
1085	-0.054
1085	-0.054
1085	-0.054
1086	-0.054
1086	-0.055
1087	-0.055
1087	-0.055
1088	-0.056
1088	-0.056
1088	-0.057
1089	-0.057
1089	-0.058
1090	-0.059
1090	-0.059
1090	-0.06
1091	-0.06
1091	-0.06
1092	-0.061
1092	-0.06
1092	-0.061
1093	-0.061
1093	-0.061
1094	-0.062
1094	-0.062
1095	-0.063
1095	-0.064
1095	-0.064
1096	-0.065
1096	-0.066
1097	-0.066
1097	-0.066
1097	-0.067
1098	-0.068
1098	-0.069
1099	-0.069
1099	-0.07
1100	-0.071
1100	-0.072
1100	-0.074
1101	-0.077
1101	-0.08
1102	-0.082
1102	-0.084
1102	-0.084
1103	-0.086
1103	-0.087
1104	-0.09
1104	-0.091
1104	-0.093
1105	-0.095
1105	-0.096
1106	-0.099
1106	-0.101
1107	-0.105
1107	-0.109
1107	-0.113
1108	-0.115
1108	-0.117
1109	-0.121
1109	-0.124
1109	-0.126
1110	-0.127
1110	-0.131
1111	-0.136
1111	-0.133
