Data from 17C_3.2A_35min_2sec_int_Absorbance__534__02096.txt Node

Date: Mon Jun 19 17:53:22 CEST 2023
User: Marek
Spectrometer: MAYP115816
Trigger mode: 0
Integration Time (sec): 2.500000E-1
Scans to average: 10
Electric dark correction enabled: true
Nonlinearity correction enabled: true
Boxcar width: 5
XAxis mode: Wavelengths
Number of Pixels in Spectrum: 2068
>>>>>Begin Spectral Data<<<<<
199	-0.727
199	-0.741
200	-0.647
200	-0.597
201	-0.564
201	-0.553
202	-0.537
202	-0.524
203	-0.515
203	-0.511
204	-0.497
204	-0.486
205	-0.464
205	-0.457
205	-0.456
206	-0.456
206	-0.459
207	-0.451
207	-0.452
208	-0.453
208	-0.451
209	-0.445
209	-0.445
210	-0.448
210	-0.456
211	-0.456
211	-0.459
212	-0.458
212	-0.464
213	-0.463
213	-0.463
213	-0.469
214	-0.466
214	-0.464
215	-0.464
215	-0.468
216	-0.47
216	-0.477
217	-0.475
217	-0.48
218	-0.484
218	-0.485
219	-0.488
219	-0.499
220	-0.504
220	-0.515
221	-0.514
221	-0.517
221	-0.51
222	-0.507
222	-0.507
223	-0.508
223	-0.512
224	-0.516
224	-0.515
225	-0.51
225	-0.502
226	-0.505
226	-0.504
227	-0.509
227	-0.519
228	-0.52
228	-0.522
229	-0.522
229	-0.516
229	-0.511
230	-0.515
230	-0.518
231	-0.513
231	-0.507
232	-0.503
232	-0.501
233	-0.495
233	-0.492
234	-0.491
234	-0.488
235	-0.49
235	-0.495
236	-0.493
236	-0.499
236	-0.505
237	-0.51
237	-0.51
238	-0.519
238	-0.517
239	-0.518
239	-0.527
240	-0.529
240	-0.529
241	-0.535
241	-0.531
242	-0.537
242	-0.532
243	-0.528
243	-0.529
243	-0.537
244	-0.539
244	-0.539
245	-0.551
245	-0.551
246	-0.556
246	-0.562
247	-0.562
247	-0.568
248	-0.574
248	-0.573
249	-0.576
249	-0.58
250	-0.575
250	-0.572
250	-0.572
251	-0.566
251	-0.567
252	-0.571
252	-0.559
253	-0.564
253	-0.574
254	-0.573
254	-0.573
255	-0.583
255	-0.575
256	-0.573
256	-0.585
257	-0.581
257	-0.578
258	-0.597
258	-0.594
258	-0.589
259	-0.587
259	-0.593
260	-0.593
260	-0.597
261	-0.61
261	-0.6
262	-0.596
262	-0.598
263	-0.585
263	-0.579
264	-0.579
264	-0.586
265	-0.583
265	-0.591
265	-0.595
266	-0.59
266	-0.589
267	-0.605
267	-0.61
268	-0.628
268	-0.638
269	-0.636
269	-0.631
270	-0.634
270	-0.637
271	-0.639
271	-0.644
272	-0.649
272	-0.643
272	-0.637
273	-0.633
273	-0.643
274	-0.648
274	-0.652
275	-0.654
275	-0.646
276	-0.652
276	-0.645
277	-0.648
277	-0.665
278	-0.678
278	-0.673
278	-0.666
279	-0.67
279	-0.682
280	-0.68
280	-0.681
281	-0.675
281	-0.68
282	-0.673
282	-0.673
283	-0.662
283	-0.663
284	-0.659
284	-0.648
285	-0.644
285	-0.64
285	-0.638
286	-0.647
286	-0.642
287	-0.638
287	-0.622
288	-0.614
288	-0.624
289	-0.636
289	-0.647
290	-0.637
290	-0.637
291	-0.632
291	-0.624
292	-0.628
292	-0.636
292	-0.642
293	-0.649
293	-0.637
294	-0.625
294	-0.615
295	-0.61
295	-0.608
296	-0.606
296	-0.601
297	-0.595
297	-0.578
298	-0.57
298	-0.578
298	-0.565
299	-0.559
299	-0.561
300	-0.556
300	-0.551
301	-0.549
301	-0.552
302	-0.56
302	-0.568
303	-0.555
303	-0.54
304	-0.544
304	-0.543
305	-0.544
305	-0.544
305	-0.543
306	-0.526
306	-0.519
307	-0.505
307	-0.507
308	-0.521
308	-0.521
309	-0.523
309	-0.512
310	-0.501
310	-0.498
311	-0.488
311	-0.496
311	-0.492
312	-0.487
312	-0.483
313	-0.47
313	-0.472
314	-0.47
314	-0.47
315	-0.469
315	-0.47
316	-0.468
316	-0.46
317	-0.454
317	-0.451
318	-0.443
318	-0.441
318	-0.434
319	-0.423
319	-0.42
320	-0.412
320	-0.411
321	-0.415
321	-0.414
322	-0.409
322	-0.402
323	-0.401
323	-0.394
324	-0.389
324	-0.38
324	-0.371
325	-0.366
325	-0.349
326	-0.336
326	-0.319
327	-0.302
327	-0.282
328	-0.257
328	-0.238
329	-0.214
329	-0.193
330	-0.166
330	-0.134
330	-0.108
331	-0.079
331	-0.052
332	-0.029
332	-0.008
333	0.014
333	0.038
334	0.056
334	0.073
335	0.089
335	0.102
336	0.115
336	0.128
336	0.138
337	0.149
337	0.157
338	0.164
338	0.169
339	0.177
339	0.182
340	0.186
340	0.19
341	0.194
341	0.197
342	0.201
342	0.203
342	0.207
343	0.209
343	0.211
344	0.213
344	0.214
345	0.216
345	0.217
346	0.217
346	0.218
347	0.219
347	0.219
348	0.219
348	0.22
348	0.22
349	0.22
349	0.221
350	0.221
350	0.221
351	0.221
351	0.221
352	0.221
352	0.221
353	0.221
353	0.221
354	0.221
354	0.221
354	0.221
355	0.221
355	0.22
356	0.22
356	0.22
357	0.22
357	0.22
358	0.22
358	0.22
359	0.219
359	0.219
360	0.219
360	0.219
360	0.218
361	0.218
361	0.218
362	0.218
362	0.218
363	0.218
363	0.218
364	0.218
364	0.218
365	0.218
365	0.218
366	0.218
366	0.218
366	0.218
367	0.218
367	0.218
368	0.218
368	0.218
369	0.218
369	0.218
370	0.217
370	0.217
371	0.217
371	0.217
372	0.217
372	0.217
372	0.217
373	0.217
373	0.217
374	0.217
374	0.217
375	0.217
375	0.217
376	0.217
376	0.217
377	0.217
377	0.217
378	0.217
378	0.217
378	0.217
379	0.217
379	0.217
380	0.216
380	0.216
381	0.216
381	0.216
382	0.216
382	0.215
383	0.215
383	0.215
383	0.215
384	0.215
384	0.215
385	0.215
385	0.215
386	0.215
386	0.215
387	0.215
387	0.215
388	0.215
388	0.215
389	0.215
389	0.215
389	0.215
390	0.215
390	0.215
391	0.215
391	0.215
392	0.215
392	0.215
393	0.215
393	0.215
394	0.214
394	0.214
394	0.214
395	0.214
395	0.213
396	0.213
396	0.213
397	0.213
397	0.213
398	0.213
398	0.213
399	0.213
399	0.213
400	0.213
400	0.213
400	0.213
401	0.213
401	0.213
402	0.212
402	0.212
403	0.212
403	0.212
404	0.212
404	0.212
405	0.212
405	0.212
405	0.212
406	0.212
406	0.212
407	0.211
407	0.211
408	0.211
408	0.211
409	0.211
409	0.211
410	0.211
410	0.211
411	0.211
411	0.211
411	0.211
412	0.212
412	0.211
413	0.211
413	0.211
414	0.211
414	0.211
415	0.211
415	0.21
416	0.21
416	0.21
416	0.21
417	0.21
417	0.21
418	0.21
418	0.21
419	0.21
419	0.21
420	0.21
420	0.21
421	0.21
421	0.21
421	0.21
422	0.21
422	0.21
423	0.21
423	0.21
424	0.209
424	0.209
425	0.209
425	0.209
426	0.208
426	0.208
427	0.208
427	0.208
427	0.207
428	0.207
428	0.208
429	0.208
429	0.208
430	0.207
430	0.207
431	0.207
431	0.207
432	0.207
432	0.207
432	0.207
433	0.207
433	0.206
434	0.206
434	0.206
435	0.206
435	0.206
436	0.206
436	0.206
437	0.206
437	0.206
437	0.206
438	0.206
438	0.206
439	0.206
439	0.206
440	0.206
440	0.206
441	0.206
441	0.206
442	0.206
442	0.206
442	0.205
443	0.205
443	0.205
444	0.205
444	0.205
445	0.205
445	0.205
446	0.205
446	0.205
447	0.205
447	0.206
447	0.206
448	0.206
448	0.206
449	0.206
449	0.206
450	0.206
450	0.206
451	0.206
451	0.206
452	0.205
452	0.205
452	0.205
453	0.205
453	0.205
454	0.204
454	0.204
455	0.204
455	0.204
456	0.204
456	0.204
457	0.204
457	0.204
458	0.204
458	0.204
458	0.204
459	0.204
459	0.204
460	0.204
460	0.204
461	0.204
461	0.204
462	0.204
462	0.204
463	0.204
463	0.204
463	0.204
464	0.204
464	0.204
465	0.204
465	0.204
466	0.204
466	0.204
467	0.204
467	0.204
467	0.204
468	0.204
468	0.204
469	0.205
469	0.205
470	0.205
470	0.206
471	0.206
471	0.206
472	0.206
472	0.206
472	0.206
473	0.206
473	0.207
474	0.207
474	0.207
475	0.207
475	0.207
476	0.207
476	0.207
477	0.207
477	0.207
477	0.207
478	0.208
478	0.208
479	0.208
479	0.208
480	0.208
480	0.208
481	0.209
481	0.209
482	0.209
482	0.21
482	0.21
483	0.21
483	0.211
484	0.211
484	0.211
485	0.211
485	0.211
486	0.212
486	0.212
487	0.213
487	0.213
487	0.214
488	0.214
488	0.215
489	0.216
489	0.217
490	0.218
490	0.219
491	0.22
491	0.22
492	0.221
492	0.221
492	0.222
493	0.223
493	0.223
494	0.224
494	0.225
495	0.225
495	0.226
496	0.227
496	0.228
496	0.229
497	0.23
497	0.231
498	0.232
498	0.233
499	0.234
499	0.234
500	0.236
500	0.237
501	0.237
501	0.238
501	0.238
502	0.239
502	0.24
503	0.241
503	0.242
504	0.243
504	0.244
505	0.245
505	0.246
506	0.247
506	0.248
506	0.249
507	0.25
507	0.251
508	0.252
508	0.253
509	0.254
509	0.256
510	0.257
510	0.258
511	0.259
511	0.26
511	0.261
512	0.263
512	0.264
513	0.265
513	0.266
514	0.267
514	0.268
515	0.269
515	0.27
515	0.27
516	0.272
516	0.273
517	0.274
517	0.275
518	0.276
518	0.277
519	0.278
519	0.279
520	0.28
520	0.281
520	0.283
521	0.284
521	0.285
522	0.286
522	0.287
523	0.288
523	0.289
524	0.289
524	0.29
524	0.29
525	0.291
525	0.291
526	0.292
526	0.293
527	0.294
527	0.294
528	0.295
528	0.296
529	0.296
529	0.297
529	0.298
530	0.299
530	0.3
531	0.3
531	0.301
532	0.301
532	0.302
533	0.303
533	0.303
533	0.303
534	0.303
534	0.304
535	0.304
535	0.304
536	0.304
536	0.304
537	0.304
537	0.304
538	0.304
538	0.304
538	0.305
539	0.305
539	0.306
540	0.306
540	0.306
541	0.306
541	0.307
542	0.307
542	0.306
542	0.307
543	0.307
543	0.306
544	0.306
544	0.306
545	0.306
545	0.306
546	0.307
546	0.306
547	0.306
547	0.306
547	0.306
548	0.306
548	0.306
549	0.306
549	0.306
550	0.306
550	0.306
551	0.306
551	0.307
551	0.308
552	0.308
552	0.309
553	0.309
553	0.31
554	0.31
554	0.309
555	0.309
555	0.309
556	0.308
556	0.308
556	0.308
557	0.308
557	0.307
558	0.307
558	0.306
559	0.306
559	0.306
560	0.306
560	0.306
560	0.306
561	0.305
561	0.305
562	0.305
562	0.304
563	0.304
563	0.304
564	0.304
564	0.304
564	0.304
565	0.304
565	0.305
566	0.305
566	0.305
567	0.305
567	0.305
568	0.305
568	0.304
568	0.304
569	0.304
569	0.303
570	0.302
570	0.301
571	0.301
571	0.301
572	0.3
572	0.3
573	0.3
573	0.299
573	0.299
574	0.299
574	0.299
575	0.299
575	0.3
576	0.3
576	0.299
577	0.299
577	0.299
577	0.299
578	0.3
578	0.3
579	0.301
579	0.301
580	0.3
580	0.299
581	0.299
581	0.299
581	0.299
582	0.299
582	0.299
583	0.299
583	0.299
584	0.298
584	0.297
585	0.298
585	0.299
585	0.299
586	0.299
586	0.3
587	0.299
587	0.299
588	0.298
588	0.299
589	0.299
589	0.299
590	0.299
590	0.299
590	0.3
591	0.3
591	0.3
592	0.299
592	0.299
593	0.299
593	0.299
594	0.299
594	0.298
594	0.298
595	0.299
595	0.298
596	0.298
596	0.3
597	0.301
597	0.301
598	0.301
598	0.301
598	0.301
599	0.3
599	0.3
600	0.299
600	0.298
601	0.298
601	0.297
602	0.296
602	0.296
602	0.296
603	0.297
603	0.298
604	0.298
604	0.299
605	0.3
605	0.3
606	0.3
606	0.299
606	0.299
607	0.298
607	0.298
608	0.297
608	0.296
609	0.296
609	0.296
610	0.295
610	0.295
610	0.296
611	0.296
611	0.297
612	0.297
612	0.298
613	0.299
613	0.299
614	0.298
614	0.297
614	0.296
615	0.295
615	0.295
616	0.294
616	0.293
617	0.292
617	0.291
618	0.291
618	0.29
618	0.29
619	0.291
619	0.291
620	0.291
620	0.291
621	0.291
621	0.29
622	0.29
622	0.289
622	0.289
623	0.288
623	0.289
624	0.288
624	0.287
625	0.287
625	0.287
626	0.286
626	0.285
626	0.285
627	0.284
627	0.283
628	0.282
628	0.281
629	0.279
629	0.278
630	0.276
630	0.274
630	0.272
631	0.271
631	0.269
632	0.266
632	0.264
633	0.261
633	0.259
634	0.256
634	0.254
634	0.251
635	0.249
635	0.245
636	0.242
636	0.239
637	0.235
637	0.231
638	0.227
638	0.222
638	0.218
639	0.213
639	0.207
640	0.202
640	0.197
641	0.192
641	0.187
642	0.182
642	0.177
642	0.172
643	0.166
643	0.16
644	0.154
644	0.147
645	0.141
645	0.135
646	0.128
646	0.121
646	0.114
647	0.106
647	0.099
648	0.091
648	0.084
649	0.075
649	0.068
650	0.06
650	0.052
650	0.043
651	0.032
651	0.019
652	0.003
652	-0.013
653	-0.027
653	-0.04
653	-0.037
654	-0.017
654	-0.006
655	-0.01
655	-0.016
656	-0.022
656	-0.028
657	-0.033
657	-0.037
657	-0.043
658	-0.05
658	-0.079
659	-0.164
659	-0.266
660	-0.311
660	-0.339
661	-0.367
661	-0.398
661	-0.432
662	-0.465
662	-0.499
663	-0.537
663	-0.579
664	-0.623
664	-0.674
665	-0.724
665	-0.782
665	-0.837
666	-0.894
666	-0.955
667	-1.019
667	-1.083
668	-1.155
668	-1.227
669	-1.3
669	-1.372
669	-1.448
670	-1.511
670	-1.527
671	-1.61
671	-1.931
672	-2.173
672	-2.371
672	-2.505
673	-2.6
673	-2.683
674	-2.739
674	-2.76
675	-2.786
675	-2.929
676	-3.134
676	-3.088
676	-2.868
677	-2.669
677	-2.516
678	-2.357
678	-2.107
679	-1.774
679	-1.619
680	-1.519
680	-1.433
680	-1.359
681	-1.312
681	-1.252
682	-1.212
682	-1.174
683	-1.139
683	-1.121
684	-1.099
684	-1.08
684	-1.058
685	-1.033
685	-1.01
686	-0.985
686	-0.969
687	-0.941
687	-0.929
687	-0.909
688	-0.883
688	-0.862
689	-0.841
689	-0.829
690	-0.81
690	-0.798
691	-0.791
691	-0.795
691	-0.811
692	-0.802
692	-0.793
693	-0.79
693	-0.797
694	-0.792
694	-0.784
695	-0.789
695	-0.787
695	-0.771
696	-0.766
696	-0.745
697	-0.745
697	-0.759
698	-0.76
698	-0.752
698	-0.768
699	-0.77
699	-0.767
700	-0.759
700	-0.773
701	-0.774
701	-0.778
702	-0.777
702	-0.767
702	-0.762
703	-0.752
703	-0.742
704	-0.737
704	-0.737
705	-0.749
705	-0.743
705	-0.731
706	-0.732
706	-0.727
707	-0.731
707	-0.724
708	-0.723
708	-0.715
709	-0.721
709	-0.724
709	-0.713
710	-0.721
710	-0.73
711	-0.721
711	-0.723
712	-0.724
712	-0.736
713	-0.734
713	-0.742
713	-0.733
714	-0.729
714	-0.731
715	-0.722
715	-0.708
716	-0.717
716	-0.719
716	-0.711
717	-0.714
717	-0.716
718	-0.705
718	-0.705
719	-0.711
719	-0.712
720	-0.708
720	-0.718
720	-0.712
721	-0.702
721	-0.702
722	-0.69
722	-0.68
723	-0.678
723	-0.681
723	-0.667
724	-0.671
724	-0.677
725	-0.676
725	-0.682
726	-0.695
726	-0.7
727	-0.705
727	-0.719
727	-0.724
728	-0.727
728	-0.734
729	-0.732
729	-0.736
730	-0.743
730	-0.739
730	-0.728
731	-0.71
731	-0.721
732	-0.727
732	-0.729
733	-0.724
733	-0.73
734	-0.723
734	-0.72
734	-0.705
735	-0.702
735	-0.703
736	-0.714
736	-0.7
737	-0.694
737	-0.694
737	-0.704
738	-0.7
738	-0.702
739	-0.699
739	-0.713
740	-0.714
740	-0.716
741	-0.711
741	-0.712
741	-0.711
742	-0.708
742	-0.709
743	-0.717
743	-0.722
744	-0.719
744	-0.709
744	-0.708
745	-0.714
745	-0.708
746	-0.706
746	-0.704
747	-0.708
747	-0.694
748	-0.681
748	-0.684
748	-0.687
749	-0.685
749	-0.685
750	-0.673
750	-0.675
751	-0.679
751	-0.689
751	-0.69
752	-0.695
752	-0.704
753	-0.699
753	-0.694
754	-0.702
754	-0.697
754	-0.711
755	-0.727
755	-0.738
756	-0.728
756	-0.725
757	-0.724
757	-0.72
758	-0.724
758	-0.723
758	-0.724
759	-0.729
759	-0.714
760	-0.707
760	-0.703
761	-0.713
761	-0.71
761	-0.709
762	-0.714
762	-0.712
763	-0.72
763	-0.717
764	-0.716
764	-0.724
764	-0.729
765	-0.72
765	-0.708
766	-0.716
766	-0.721
767	-0.737
767	-0.733
768	-0.724
768	-0.731
768	-0.736
769	-0.751
769	-0.753
770	-0.754
770	-0.765
771	-0.762
771	-0.765
771	-0.765
772	-0.767
772	-0.768
773	-0.768
773	-0.764
774	-0.763
774	-0.764
775	-0.768
775	-0.763
775	-0.772
776	-0.772
776	-0.763
777	-0.771
777	-0.791
778	-0.788
778	-0.806
778	-0.791
779	-0.813
779	-0.821
780	-0.835
780	-0.834
781	-0.845
781	-0.841
781	-0.856
782	-0.857
782	-0.861
783	-0.85
783	-0.849
784	-0.829
784	-0.82
784	-0.828
785	-0.833
785	-0.818
786	-0.823
786	-0.802
787	-0.784
787	-0.785
788	-0.786
788	-0.797
788	-0.806
789	-0.809
789	-0.789
790	-0.769
790	-0.773
791	-0.774
791	-0.792
791	-0.798
792	-0.791
792	-0.769
793	-0.76
793	-0.738
794	-0.742
794	-0.739
794	-0.749
795	-0.742
795	-0.732
796	-0.716
796	-0.724
797	-0.72
797	-0.731
797	-0.736
798	-0.749
798	-0.744
799	-0.752
799	-0.737
800	-0.745
800	-0.74
801	-0.746
801	-0.733
801	-0.742
802	-0.748
802	-0.749
803	-0.751
803	-0.759
804	-0.753
804	-0.765
804	-0.751
805	-0.753
805	-0.742
806	-0.744
806	-0.728
807	-0.728
807	-0.708
807	-0.695
808	-0.686
808	-0.681
809	-0.665
809	-0.676
810	-0.677
810	-0.67
810	-0.668
811	-0.675
811	-0.666
812	-0.668
812	-0.672
813	-0.674
813	-0.668
813	-0.674
814	-0.675
814	-0.677
815	-0.681
815	-0.683
816	-0.675
816	-0.679
817	-0.688
817	-0.703
817	-0.72
818	-0.729
818	-0.73
819	-0.722
819	-0.723
820	-0.734
820	-0.732
820	-0.744
821	-0.743
821	-0.729
822	-0.698
822	-0.675
823	-0.673
823	-0.676
823	-0.672
824	-0.665
824	-0.667
825	-0.658
825	-0.638
826	-0.632
826	-0.642
826	-0.652
827	-0.645
827	-0.642
828	-0.621
828	-0.622
829	-0.613
829	-0.598
829	-0.592
830	-0.601
830	-0.598
831	-0.587
831	-0.578
832	-0.576
832	-0.568
832	-0.576
833	-0.57
833	-0.572
834	-0.57
834	-0.578
835	-0.566
835	-0.562
835	-0.559
836	-0.555
836	-0.551
837	-0.55
837	-0.542
838	-0.534
838	-0.521
839	-0.508
839	-0.496
839	-0.484
840	-0.474
840	-0.47
841	-0.458
841	-0.45
842	-0.442
842	-0.431
842	-0.425
843	-0.418
843	-0.412
844	-0.402
844	-0.396
845	-0.387
845	-0.376
845	-0.362
846	-0.352
846	-0.337
847	-0.326
847	-0.313
848	-0.302
848	-0.29
848	-0.273
849	-0.262
849	-0.25
850	-0.235
850	-0.227
851	-0.218
851	-0.207
851	-0.196
852	-0.179
852	-0.166
853	-0.157
853	-0.152
854	-0.139
854	-0.126
854	-0.115
855	-0.103
855	-0.096
856	-0.085
856	-0.077
857	-0.072
857	-0.062
857	-0.048
858	-0.037
858	-0.031
859	-0.023
859	-0.013
860	-0.003
860	0.011
860	0.019
861	0.029
861	0.038
862	0.046
862	0.052
863	0.061
863	0.07
863	0.076
864	0.082
864	0.088
865	0.094
865	0.099
866	0.104
866	0.107
866	0.111
867	0.115
867	0.119
868	0.122
868	0.126
869	0.129
869	0.131
869	0.133
870	0.136
870	0.138
871	0.14
871	0.142
872	0.143
872	0.144
872	0.145
873	0.145
873	0.145
874	0.145
874	0.145
875	0.144
875	0.143
875	0.141
876	0.14
876	0.139
877	0.137
877	0.136
878	0.134
878	0.132
878	0.13
879	0.129
879	0.128
880	0.127
880	0.126
881	0.126
881	0.126
881	0.126
882	0.125
882	0.124
883	0.123
883	0.122
884	0.121
884	0.12
884	0.119
885	0.118
885	0.117
886	0.117
886	0.116
887	0.116
887	0.116
887	0.116
888	0.116
888	0.116
889	0.116
889	0.116
890	0.116
890	0.116
890	0.115
891	0.115
891	0.115
892	0.115
892	0.115
893	0.115
893	0.115
893	0.115
894	0.115
894	0.114
895	0.114
895	0.114
895	0.113
896	0.113
896	0.112
897	0.111
897	0.11
898	0.109
898	0.108
898	0.108
899	0.108
899	0.108
900	0.108
900	0.109
901	0.11
901	0.11
901	0.111
902	0.112
902	0.113
903	0.113
903	0.113
904	0.114
904	0.115
904	0.115
905	0.116
905	0.116
906	0.117
906	0.117
907	0.117
907	0.116
907	0.116
908	0.116
908	0.115
909	0.114
909	0.113
910	0.113
910	0.112
910	0.112
911	0.112
911	0.112
912	0.113
912	0.113
913	0.114
913	0.114
913	0.115
914	0.116
914	0.116
915	0.117
915	0.118
916	0.118
916	0.118
916	0.119
917	0.119
917	0.119
918	0.119
918	0.118
918	0.118
919	0.118
919	0.118
920	0.118
920	0.118
921	0.118
921	0.118
921	0.118
922	0.118
922	0.118
923	0.117
923	0.117
924	0.117
924	0.116
924	0.116
925	0.115
925	0.114
926	0.113
926	0.112
927	0.111
927	0.11
927	0.109
928	0.109
928	0.108
929	0.107
929	0.107
930	0.106
930	0.106
930	0.105
931	0.105
931	0.104
932	0.104
932	0.103
933	0.102
933	0.101
933	0.099
934	0.098
934	0.097
935	0.096
935	0.095
935	0.094
936	0.093
936	0.092
937	0.091
937	0.09
938	0.091
938	0.091
938	0.091
939	0.091
939	0.092
940	0.092
940	0.092
941	0.093
941	0.093
941	0.094
942	0.094
942	0.095
943	0.095
943	0.095
944	0.094
944	0.094
944	0.093
945	0.092
945	0.091
946	0.09
946	0.089
946	0.088
947	0.087
947	0.087
948	0.087
948	0.087
949	0.087
949	0.088
949	0.088
950	0.089
950	0.089
951	0.09
951	0.091
952	0.091
952	0.092
952	0.092
953	0.093
953	0.094
954	0.094
954	0.095
955	0.096
955	0.097
955	0.098
956	0.099
956	0.1
957	0.1
957	0.101
957	0.101
958	0.101
958	0.102
959	0.102
959	0.102
960	0.102
960	0.102
960	0.102
961	0.102
961	0.102
962	0.102
962	0.102
963	0.103
963	0.102
963	0.102
964	0.102
964	0.102
965	0.102
965	0.102
966	0.102
966	0.102
966	0.102
967	0.101
967	0.1
968	0.1
968	0.099
968	0.098
969	0.098
969	0.097
970	0.097
970	0.096
971	0.097
971	0.097
971	0.097
972	0.097
972	0.097
973	0.097
973	0.097
974	0.097
974	0.097
974	0.097
975	0.096
975	0.096
976	0.095
976	0.094
976	0.094
977	0.094
977	0.094
978	0.094
978	0.094
979	0.093
979	0.093
979	0.093
980	0.092
980	0.092
981	0.092
981	0.092
982	0.092
982	0.091
982	0.091
983	0.09
983	0.09
984	0.09
984	0.09
984	0.09
985	0.091
985	0.091
986	0.091
986	0.09
987	0.09
987	0.09
987	0.089
988	0.089
988	0.088
989	0.087
989	0.086
990	0.085
990	0.084
990	0.084
991	0.083
991	0.083
992	0.083
992	0.082
992	0.082
993	0.082
993	0.082
994	0.082
994	0.081
995	0.081
995	0.081
995	0.08
996	0.08
996	0.079
997	0.079
997	0.079
997	0.078
998	0.078
998	0.079
999	0.079
999	0.079
1000	0.079
1000	0.079
1000	0.079
1001	0.08
1001	0.08
1002	0.081
1002	0.081
1003	0.081
1003	0.081
1003	0.081
1004	0.081
1004	0.081
1005	0.08
1005	0.079
1005	0.078
1006	0.077
1006	0.076
1007	0.075
1007	0.074
1008	0.073
1008	0.073
1008	0.073
1009	0.072
1009	0.072
1010	0.072
1010	0.072
1010	0.071
1011	0.072
1011	0.071
1012	0.071
1012	0.07
1013	0.069
1013	0.068
1013	0.067
1014	0.067
1014	0.066
1015	0.065
1015	0.064
1016	0.063
1016	0.062
1016	0.062
1017	0.061
1017	0.06
1018	0.059
1018	0.058
1018	0.058
1019	0.057
1019	0.056
1020	0.056
1020	0.055
1021	0.055
1021	0.054
1021	0.053
1022	0.052
1022	0.052
1023	0.051
1023	0.051
1023	0.05
1024	0.05
1024	0.05
1025	0.05
1025	0.05
1026	0.05
1026	0.051
1026	0.051
1027	0.052
1027	0.052
1028	0.052
1028	0.052
1028	0.052
1029	0.053
1029	0.052
1030	0.052
1030	0.051
1031	0.05
1031	0.05
1031	0.05
1032	0.049
1032	0.049
1033	0.049
1033	0.05
1033	0.05
1034	0.049
1034	0.05
1035	0.05
1035	0.05
1036	0.05
1036	0.05
1036	0.05
1037	0.049
1037	0.049
1038	0.049
1038	0.05
1039	0.05
1039	0.05
1039	0.051
1040	0.051
1040	0.051
1041	0.052
1041	0.052
1041	0.053
1042	0.053
1042	0.052
1043	0.052
1043	0.051
1044	0.051
1044	0.05
1044	0.05
1045	0.049
1045	0.048
1046	0.047
1046	0.046
1046	0.046
1047	0.046
1047	0.046
1048	0.046
1048	0.046
1049	0.047
1049	0.047
1049	0.048
1050	0.048
1050	0.048
1051	0.048
1051	0.048
1051	0.049
1052	0.049
1052	0.049
1053	0.049
1053	0.049
1053	0.049
1054	0.049
1054	0.049
1055	0.049
1055	0.048
1056	0.048
1056	0.047
1056	0.046
1057	0.045
1057	0.044
1058	0.044
1058	0.043
1058	0.043
1059	0.042
1059	0.042
1060	0.041
1060	0.041
1061	0.041
1061	0.041
1061	0.04
1062	0.04
1062	0.04
1063	0.04
1063	0.04
1063	0.04
1064	0.041
1064	0.041
1065	0.041
1065	0.04
1066	0.04
1066	0.04
1066	0.039
1067	0.04
1067	0.039
1068	0.038
1068	0.038
1068	0.037
1069	0.037
1069	0.036
1070	0.036
1070	0.036
1071	0.035
1071	0.035
1071	0.034
1072	0.034
1072	0.034
1073	0.034
1073	0.034
1073	0.033
1074	0.033
1074	0.034
1075	0.033
1075	0.033
1076	0.033
1076	0.033
1076	0.032
1077	0.032
1077	0.031
1078	0.03
1078	0.029
1078	0.029
1079	0.028
1079	0.027
1080	0.026
1080	0.025
1080	0.024
1081	0.024
1081	0.023
1082	0.022
1082	0.021
1083	0.02
1083	0.019
1083	0.018
1084	0.017
1084	0.016
1085	0.015
1085	0.015
1085	0.014
1086	0.014
1086	0.013
1087	0.013
1087	0.013
1088	0.012
1088	0.012
1088	0.011
1089	0.01
1089	0.009
1090	0.008
1090	0.007
1090	0.006
1091	0.005
1091	0.004
1092	0.003
1092	0.003
1092	0.002
1093	0.001
1093	0.002
1094	0.001
1094	-0
1095	-0.001
1095	-0.001
1095	-0.001
1096	-0.002
1096	-0.003
1097	-0.004
1097	-0.005
1097	-0.005
1098	-0.007
1098	-0.008
1099	-0.008
1099	-0.01
1100	-0.012
1100	-0.013
1100	-0.016
1101	-0.019
1101	-0.022
1102	-0.023
1102	-0.026
1102	-0.027
1103	-0.03
1103	-0.033
1104	-0.034
1104	-0.037
1104	-0.039
1105	-0.041
1105	-0.042
1106	-0.047
1106	-0.049
1107	-0.054
1107	-0.058
1107	-0.064
1108	-0.066
1108	-0.069
1109	-0.072
1109	-0.075
1109	-0.079
1110	-0.081
1110	-0.083
1111	-0.092
1111	-0.091
