Data from 17C_3.2A_35min_2sec_int_Absorbance__36__01598.txt Node

Date: Mon Jun 19 17:32:37 CEST 2023
User: Marek
Spectrometer: MAYP115816
Trigger mode: 0
Integration Time (sec): 2.500000E-1
Scans to average: 10
Electric dark correction enabled: true
Nonlinearity correction enabled: true
Boxcar width: 5
XAxis mode: Wavelengths
Number of Pixels in Spectrum: 2068
>>>>>Begin Spectral Data<<<<<
199	-0.706
199	-0.715
200	-0.627
200	-0.57
201	-0.539
201	-0.526
202	-0.507
202	-0.496
203	-0.485
203	-0.481
204	-0.468
204	-0.454
205	-0.433
205	-0.425
205	-0.425
206	-0.428
206	-0.432
207	-0.426
207	-0.427
208	-0.431
208	-0.431
209	-0.427
209	-0.428
210	-0.433
210	-0.438
211	-0.442
211	-0.442
212	-0.443
212	-0.45
213	-0.448
213	-0.449
213	-0.454
214	-0.45
214	-0.449
215	-0.447
215	-0.453
216	-0.454
216	-0.463
217	-0.458
217	-0.462
218	-0.467
218	-0.467
219	-0.47
219	-0.479
220	-0.485
220	-0.497
221	-0.496
221	-0.498
221	-0.49
222	-0.486
222	-0.486
223	-0.487
223	-0.491
224	-0.494
224	-0.495
225	-0.489
225	-0.482
226	-0.486
226	-0.486
227	-0.493
227	-0.504
228	-0.503
228	-0.504
229	-0.504
229	-0.497
229	-0.492
230	-0.497
230	-0.5
231	-0.494
231	-0.487
232	-0.481
232	-0.478
233	-0.473
233	-0.476
234	-0.472
234	-0.471
235	-0.475
235	-0.482
236	-0.48
236	-0.485
236	-0.492
237	-0.499
237	-0.498
238	-0.508
238	-0.503
239	-0.505
239	-0.513
240	-0.51
240	-0.507
241	-0.514
241	-0.512
242	-0.515
242	-0.511
243	-0.51
243	-0.51
243	-0.519
244	-0.518
244	-0.516
245	-0.53
245	-0.53
246	-0.533
246	-0.538
247	-0.54
247	-0.543
248	-0.548
248	-0.543
249	-0.545
249	-0.552
250	-0.55
250	-0.545
250	-0.544
251	-0.541
251	-0.538
252	-0.54
252	-0.53
253	-0.534
253	-0.547
254	-0.546
254	-0.546
255	-0.555
255	-0.551
256	-0.548
256	-0.557
257	-0.554
257	-0.551
258	-0.569
258	-0.567
258	-0.562
259	-0.559
259	-0.567
260	-0.567
260	-0.569
261	-0.581
261	-0.572
262	-0.572
262	-0.573
263	-0.561
263	-0.555
264	-0.554
264	-0.563
265	-0.558
265	-0.566
265	-0.571
266	-0.568
266	-0.567
267	-0.581
267	-0.588
268	-0.605
268	-0.615
269	-0.615
269	-0.606
270	-0.611
270	-0.612
271	-0.612
271	-0.616
272	-0.62
272	-0.614
272	-0.604
273	-0.599
273	-0.606
274	-0.611
274	-0.616
275	-0.618
275	-0.612
276	-0.618
276	-0.614
277	-0.617
277	-0.634
278	-0.648
278	-0.643
278	-0.639
279	-0.641
279	-0.653
280	-0.648
280	-0.649
281	-0.643
281	-0.647
282	-0.641
282	-0.64
283	-0.629
283	-0.63
284	-0.625
284	-0.614
285	-0.607
285	-0.606
285	-0.603
286	-0.61
286	-0.603
287	-0.599
287	-0.583
288	-0.576
288	-0.586
289	-0.598
289	-0.608
290	-0.6
290	-0.597
291	-0.593
291	-0.588
292	-0.594
292	-0.601
292	-0.605
293	-0.61
293	-0.598
294	-0.586
294	-0.575
295	-0.573
295	-0.571
296	-0.571
296	-0.569
297	-0.561
297	-0.544
298	-0.537
298	-0.547
298	-0.536
299	-0.531
299	-0.533
300	-0.525
300	-0.52
301	-0.515
301	-0.515
302	-0.522
302	-0.53
303	-0.517
303	-0.5
304	-0.501
304	-0.5
305	-0.502
305	-0.503
305	-0.502
306	-0.486
306	-0.479
307	-0.468
307	-0.47
308	-0.483
308	-0.481
309	-0.484
309	-0.474
310	-0.462
310	-0.458
311	-0.448
311	-0.454
311	-0.451
312	-0.447
312	-0.445
313	-0.43
313	-0.433
314	-0.431
314	-0.432
315	-0.433
315	-0.432
316	-0.429
316	-0.42
317	-0.411
317	-0.405
318	-0.396
318	-0.395
318	-0.39
319	-0.378
319	-0.373
320	-0.365
320	-0.368
321	-0.373
321	-0.372
322	-0.367
322	-0.361
323	-0.36
323	-0.352
324	-0.344
324	-0.334
324	-0.324
325	-0.313
325	-0.295
326	-0.281
326	-0.261
327	-0.245
327	-0.223
328	-0.196
328	-0.173
329	-0.15
329	-0.125
330	-0.096
330	-0.062
330	-0.031
331	0.001
331	0.031
332	0.061
332	0.087
333	0.114
333	0.141
334	0.167
334	0.188
335	0.21
335	0.228
336	0.244
336	0.261
336	0.274
337	0.288
337	0.298
338	0.309
338	0.316
339	0.325
339	0.332
340	0.338
340	0.343
341	0.348
341	0.352
342	0.357
342	0.361
342	0.365
343	0.367
343	0.371
344	0.373
344	0.374
345	0.377
345	0.378
346	0.379
346	0.38
347	0.381
347	0.382
348	0.383
348	0.384
348	0.384
349	0.384
349	0.385
350	0.385
350	0.385
351	0.385
351	0.386
352	0.385
352	0.385
353	0.385
353	0.385
354	0.385
354	0.384
354	0.384
355	0.384
355	0.383
356	0.383
356	0.383
357	0.382
357	0.381
358	0.381
358	0.38
359	0.38
359	0.379
360	0.379
360	0.379
360	0.379
361	0.378
361	0.378
362	0.378
362	0.378
363	0.378
363	0.378
364	0.377
364	0.377
365	0.377
365	0.376
366	0.376
366	0.376
366	0.376
367	0.375
367	0.375
368	0.375
368	0.374
369	0.374
369	0.373
370	0.373
370	0.372
371	0.372
371	0.371
372	0.371
372	0.37
372	0.37
373	0.37
373	0.369
374	0.369
374	0.369
375	0.368
375	0.368
376	0.368
376	0.368
377	0.367
377	0.367
378	0.366
378	0.366
378	0.366
379	0.365
379	0.365
380	0.364
380	0.364
381	0.363
381	0.362
382	0.362
382	0.362
383	0.361
383	0.36
383	0.36
384	0.359
384	0.359
385	0.359
385	0.358
386	0.358
386	0.358
387	0.357
387	0.357
388	0.356
388	0.356
389	0.356
389	0.356
389	0.355
390	0.355
390	0.355
391	0.354
391	0.354
392	0.354
392	0.353
393	0.353
393	0.352
394	0.351
394	0.351
394	0.35
395	0.349
395	0.349
396	0.348
396	0.348
397	0.347
397	0.347
398	0.347
398	0.346
399	0.346
399	0.346
400	0.345
400	0.345
400	0.345
401	0.344
401	0.344
402	0.344
402	0.343
403	0.343
403	0.342
404	0.342
404	0.342
405	0.342
405	0.341
405	0.341
406	0.341
406	0.34
407	0.34
407	0.339
408	0.339
408	0.339
409	0.339
409	0.338
410	0.338
410	0.338
411	0.338
411	0.338
411	0.337
412	0.337
412	0.337
413	0.337
413	0.337
414	0.336
414	0.336
415	0.336
415	0.335
416	0.335
416	0.335
416	0.334
417	0.334
417	0.334
418	0.334
418	0.334
419	0.334
419	0.334
420	0.333
420	0.333
421	0.333
421	0.333
421	0.333
422	0.333
422	0.333
423	0.333
423	0.332
424	0.332
424	0.331
425	0.331
425	0.331
426	0.33
426	0.33
427	0.33
427	0.33
427	0.329
428	0.329
428	0.329
429	0.329
429	0.329
430	0.329
430	0.329
431	0.329
431	0.328
432	0.328
432	0.328
432	0.328
433	0.328
433	0.328
434	0.327
434	0.327
435	0.327
435	0.327
436	0.327
436	0.327
437	0.327
437	0.327
437	0.327
438	0.327
438	0.327
439	0.327
439	0.327
440	0.327
440	0.327
441	0.327
441	0.327
442	0.327
442	0.327
442	0.327
443	0.327
443	0.327
444	0.327
444	0.327
445	0.327
445	0.328
446	0.328
446	0.328
447	0.328
447	0.329
447	0.329
448	0.329
448	0.329
449	0.329
449	0.33
450	0.33
450	0.33
451	0.33
451	0.33
452	0.33
452	0.33
452	0.33
453	0.331
453	0.331
454	0.331
454	0.331
455	0.331
455	0.331
456	0.331
456	0.331
457	0.332
457	0.332
458	0.333
458	0.333
458	0.333
459	0.334
459	0.334
460	0.334
460	0.335
461	0.335
461	0.335
462	0.336
462	0.336
463	0.337
463	0.338
463	0.338
464	0.339
464	0.339
465	0.34
465	0.34
466	0.341
466	0.342
467	0.342
467	0.343
467	0.344
468	0.344
468	0.345
469	0.346
469	0.347
470	0.348
470	0.349
471	0.349
471	0.35
472	0.351
472	0.352
472	0.352
473	0.353
473	0.354
474	0.355
474	0.356
475	0.358
475	0.359
476	0.36
476	0.361
477	0.362
477	0.363
477	0.364
478	0.366
478	0.367
479	0.369
479	0.37
480	0.371
480	0.373
481	0.374
481	0.376
482	0.378
482	0.379
482	0.381
483	0.383
483	0.385
484	0.386
484	0.388
485	0.39
485	0.391
486	0.393
486	0.395
487	0.397
487	0.399
487	0.401
488	0.403
488	0.405
489	0.408
489	0.411
490	0.414
490	0.417
491	0.42
491	0.422
492	0.425
492	0.427
492	0.43
493	0.433
493	0.436
494	0.439
494	0.442
495	0.444
495	0.447
496	0.45
496	0.454
496	0.457
497	0.46
497	0.463
498	0.467
498	0.47
499	0.473
499	0.477
500	0.481
500	0.484
501	0.488
501	0.491
501	0.494
502	0.498
502	0.501
503	0.505
503	0.509
504	0.512
504	0.516
505	0.52
505	0.523
506	0.527
506	0.531
506	0.534
507	0.538
507	0.542
508	0.545
508	0.549
509	0.553
509	0.557
510	0.561
510	0.564
511	0.568
511	0.572
511	0.575
512	0.579
512	0.582
513	0.586
513	0.589
514	0.592
514	0.596
515	0.599
515	0.602
515	0.605
516	0.608
516	0.611
517	0.614
517	0.616
518	0.619
518	0.621
519	0.623
519	0.626
520	0.628
520	0.631
520	0.633
521	0.635
521	0.638
522	0.639
522	0.641
523	0.643
523	0.645
524	0.646
524	0.646
524	0.647
525	0.647
525	0.647
526	0.648
526	0.648
527	0.648
527	0.648
528	0.648
528	0.648
529	0.648
529	0.647
529	0.647
530	0.647
530	0.646
531	0.645
531	0.644
532	0.642
532	0.641
533	0.639
533	0.637
533	0.636
534	0.633
534	0.63
535	0.628
535	0.625
536	0.622
536	0.619
537	0.616
537	0.612
538	0.609
538	0.606
538	0.602
539	0.599
539	0.596
540	0.592
540	0.589
541	0.584
541	0.581
542	0.577
542	0.572
542	0.568
543	0.563
543	0.558
544	0.554
544	0.549
545	0.545
545	0.54
546	0.536
546	0.531
547	0.525
547	0.52
547	0.516
548	0.511
548	0.506
549	0.501
549	0.496
550	0.491
550	0.486
551	0.48
551	0.476
551	0.471
552	0.467
552	0.462
553	0.458
553	0.453
554	0.448
554	0.443
555	0.438
555	0.433
556	0.428
556	0.423
556	0.418
557	0.413
557	0.407
558	0.402
558	0.396
559	0.391
559	0.386
560	0.38
560	0.375
560	0.37
561	0.366
561	0.361
562	0.356
562	0.351
563	0.347
563	0.342
564	0.338
564	0.333
564	0.329
565	0.325
565	0.32
566	0.316
566	0.312
567	0.307
567	0.303
568	0.298
568	0.293
568	0.289
569	0.284
569	0.28
570	0.275
570	0.27
571	0.267
571	0.263
572	0.259
572	0.256
573	0.252
573	0.249
573	0.245
574	0.242
574	0.239
575	0.236
575	0.233
576	0.23
576	0.225
577	0.222
577	0.219
577	0.217
578	0.214
578	0.212
579	0.21
579	0.207
580	0.203
580	0.199
581	0.195
581	0.193
581	0.191
582	0.189
582	0.187
583	0.184
583	0.182
584	0.178
584	0.175
585	0.173
585	0.171
585	0.169
586	0.167
586	0.165
587	0.163
587	0.161
588	0.159
588	0.157
589	0.155
589	0.154
590	0.152
590	0.15
590	0.149
591	0.147
591	0.144
592	0.142
592	0.139
593	0.138
593	0.137
594	0.135
594	0.133
594	0.132
595	0.131
595	0.129
596	0.128
596	0.127
597	0.127
597	0.125
598	0.123
598	0.121
598	0.12
599	0.118
599	0.116
600	0.114
600	0.113
601	0.111
601	0.11
602	0.108
602	0.107
602	0.106
603	0.105
603	0.105
604	0.104
604	0.104
605	0.104
605	0.103
606	0.102
606	0.1
606	0.099
607	0.098
607	0.097
608	0.096
608	0.094
609	0.093
609	0.092
610	0.091
610	0.09
610	0.089
611	0.089
611	0.089
612	0.089
612	0.089
613	0.088
613	0.088
614	0.087
614	0.085
614	0.084
615	0.083
615	0.082
616	0.081
616	0.08
617	0.078
617	0.077
618	0.076
618	0.075
618	0.075
619	0.075
619	0.075
620	0.075
620	0.075
621	0.074
621	0.074
622	0.073
622	0.073
622	0.072
623	0.072
623	0.072
624	0.072
624	0.071
625	0.071
625	0.071
626	0.071
626	0.07
626	0.07
627	0.07
627	0.07
628	0.069
628	0.069
629	0.068
629	0.067
630	0.066
630	0.065
630	0.065
631	0.065
631	0.064
632	0.063
632	0.062
633	0.062
633	0.061
634	0.061
634	0.061
634	0.06
635	0.06
635	0.059
636	0.058
636	0.057
637	0.057
637	0.056
638	0.055
638	0.053
638	0.052
639	0.051
639	0.05
640	0.049
640	0.047
641	0.046
641	0.045
642	0.044
642	0.044
642	0.042
643	0.041
643	0.04
644	0.039
644	0.038
645	0.036
645	0.035
646	0.035
646	0.033
646	0.031
647	0.03
647	0.028
648	0.026
648	0.025
649	0.022
649	0.02
650	0.017
650	0.014
650	0.01
651	0.005
651	0
652	-0.005
652	-0.011
653	-0.015
653	-0.021
653	-0.019
654	-0.019
654	-0.023
655	-0.028
655	-0.032
656	-0.036
656	-0.04
657	-0.043
657	-0.046
657	-0.05
658	-0.054
658	-0.069
659	-0.103
659	-0.139
660	-0.159
660	-0.173
661	-0.188
661	-0.202
661	-0.219
662	-0.234
662	-0.248
663	-0.263
663	-0.28
664	-0.294
664	-0.318
665	-0.334
665	-0.358
665	-0.378
666	-0.399
666	-0.421
667	-0.445
667	-0.47
668	-0.504
668	-0.541
669	-0.58
669	-0.613
669	-0.644
670	-0.634
670	-0.568
671	-0.763
671	-1.276
672	-1.764
672	-2.117
672	-2.323
673	-2.403
673	-2.428
674	-2.445
674	-2.46
675	-2.486
675	-2.632
676	-2.843
676	-2.822
676	-2.578
677	-2.269
677	-1.842
678	-1.275
678	-0.925
679	-0.805
679	-0.749
680	-0.716
680	-0.685
680	-0.661
681	-0.662
681	-0.642
682	-0.641
682	-0.631
683	-0.624
683	-0.637
684	-0.646
684	-0.652
684	-0.652
685	-0.653
685	-0.652
686	-0.642
686	-0.643
687	-0.63
687	-0.634
687	-0.628
688	-0.613
688	-0.604
689	-0.594
689	-0.589
690	-0.577
690	-0.575
691	-0.577
691	-0.591
691	-0.616
692	-0.615
692	-0.613
693	-0.615
693	-0.628
694	-0.628
694	-0.629
695	-0.639
695	-0.641
695	-0.629
696	-0.627
696	-0.608
697	-0.611
697	-0.63
698	-0.636
698	-0.628
698	-0.648
699	-0.652
699	-0.65
700	-0.643
700	-0.662
701	-0.663
701	-0.672
702	-0.675
702	-0.664
702	-0.658
703	-0.651
703	-0.643
704	-0.643
704	-0.643
705	-0.657
705	-0.649
705	-0.64
706	-0.64
706	-0.634
707	-0.642
707	-0.637
708	-0.639
708	-0.634
709	-0.635
709	-0.64
709	-0.633
710	-0.644
710	-0.653
711	-0.647
711	-0.65
712	-0.649
712	-0.663
713	-0.663
713	-0.669
713	-0.66
714	-0.657
714	-0.658
715	-0.649
715	-0.638
716	-0.647
716	-0.648
716	-0.641
717	-0.643
717	-0.645
718	-0.638
718	-0.642
719	-0.649
719	-0.652
720	-0.648
720	-0.659
720	-0.653
721	-0.643
721	-0.642
722	-0.631
722	-0.622
723	-0.62
723	-0.622
723	-0.609
724	-0.611
724	-0.615
725	-0.616
725	-0.625
726	-0.639
726	-0.647
727	-0.652
727	-0.668
727	-0.675
728	-0.678
728	-0.686
729	-0.686
729	-0.692
730	-0.697
730	-0.689
730	-0.68
731	-0.665
731	-0.674
732	-0.68
732	-0.681
733	-0.678
733	-0.683
734	-0.677
734	-0.678
734	-0.664
735	-0.664
735	-0.663
736	-0.673
736	-0.66
737	-0.652
737	-0.653
737	-0.663
738	-0.656
738	-0.656
739	-0.654
739	-0.666
740	-0.665
740	-0.665
741	-0.664
741	-0.667
741	-0.669
742	-0.667
742	-0.668
743	-0.677
743	-0.681
744	-0.678
744	-0.671
744	-0.672
745	-0.681
745	-0.672
746	-0.673
746	-0.672
747	-0.674
747	-0.661
748	-0.65
748	-0.658
748	-0.66
749	-0.658
749	-0.66
750	-0.649
750	-0.649
751	-0.65
751	-0.659
751	-0.662
752	-0.667
752	-0.677
753	-0.671
753	-0.667
754	-0.671
754	-0.664
754	-0.677
755	-0.693
755	-0.706
756	-0.695
756	-0.693
757	-0.69
757	-0.684
758	-0.686
758	-0.684
758	-0.69
759	-0.698
759	-0.682
760	-0.677
760	-0.672
761	-0.682
761	-0.68
761	-0.68
762	-0.688
762	-0.687
763	-0.694
763	-0.689
764	-0.686
764	-0.695
764	-0.698
765	-0.688
765	-0.674
766	-0.68
766	-0.686
767	-0.701
767	-0.693
768	-0.685
768	-0.696
768	-0.7
769	-0.719
769	-0.723
770	-0.728
770	-0.739
771	-0.739
771	-0.742
771	-0.741
772	-0.748
772	-0.746
773	-0.744
773	-0.737
774	-0.734
774	-0.734
775	-0.738
775	-0.735
775	-0.742
776	-0.742
776	-0.73
777	-0.735
777	-0.756
778	-0.753
778	-0.774
778	-0.76
779	-0.781
779	-0.787
780	-0.799
780	-0.795
781	-0.806
781	-0.801
781	-0.816
782	-0.814
782	-0.815
783	-0.8
783	-0.8
784	-0.779
784	-0.768
784	-0.781
785	-0.79
785	-0.774
786	-0.782
786	-0.762
787	-0.749
787	-0.754
788	-0.758
788	-0.77
788	-0.781
789	-0.783
789	-0.765
790	-0.747
790	-0.75
791	-0.751
791	-0.771
791	-0.78
792	-0.773
792	-0.75
793	-0.739
793	-0.717
794	-0.72
794	-0.712
794	-0.723
795	-0.717
795	-0.71
796	-0.694
796	-0.701
797	-0.696
797	-0.708
797	-0.712
798	-0.724
798	-0.718
799	-0.727
799	-0.713
800	-0.72
800	-0.715
801	-0.721
801	-0.704
801	-0.714
802	-0.722
802	-0.725
803	-0.725
803	-0.734
804	-0.731
804	-0.739
804	-0.727
805	-0.731
805	-0.719
806	-0.723
806	-0.707
807	-0.706
807	-0.691
807	-0.681
808	-0.671
808	-0.667
809	-0.653
809	-0.662
810	-0.66
810	-0.652
810	-0.65
811	-0.658
811	-0.65
812	-0.65
812	-0.655
813	-0.659
813	-0.654
813	-0.66
814	-0.662
814	-0.667
815	-0.671
815	-0.675
816	-0.667
816	-0.671
817	-0.678
817	-0.694
817	-0.708
818	-0.717
818	-0.719
819	-0.712
819	-0.711
820	-0.723
820	-0.72
820	-0.731
821	-0.73
821	-0.716
822	-0.686
822	-0.662
823	-0.66
823	-0.665
823	-0.659
824	-0.655
824	-0.656
825	-0.648
825	-0.628
826	-0.624
826	-0.633
826	-0.642
827	-0.64
827	-0.634
828	-0.615
828	-0.616
829	-0.607
829	-0.593
829	-0.586
830	-0.596
830	-0.592
831	-0.586
831	-0.577
832	-0.576
832	-0.57
832	-0.576
833	-0.572
833	-0.572
834	-0.57
834	-0.579
835	-0.566
835	-0.562
835	-0.558
836	-0.557
836	-0.553
837	-0.553
837	-0.542
838	-0.534
838	-0.522
839	-0.512
839	-0.5
839	-0.492
840	-0.481
840	-0.479
841	-0.466
841	-0.458
842	-0.452
842	-0.445
842	-0.44
843	-0.437
843	-0.432
844	-0.424
844	-0.417
845	-0.41
845	-0.4
845	-0.386
846	-0.376
846	-0.362
847	-0.351
847	-0.34
848	-0.328
848	-0.319
848	-0.304
849	-0.295
849	-0.285
850	-0.273
850	-0.27
851	-0.262
851	-0.254
851	-0.246
852	-0.233
852	-0.224
853	-0.215
853	-0.211
854	-0.201
854	-0.19
854	-0.181
855	-0.171
855	-0.166
856	-0.157
856	-0.15
857	-0.143
857	-0.136
857	-0.127
858	-0.118
858	-0.112
859	-0.106
859	-0.098
860	-0.09
860	-0.08
860	-0.074
861	-0.068
861	-0.062
862	-0.056
862	-0.05
863	-0.045
863	-0.038
863	-0.033
864	-0.03
864	-0.025
865	-0.02
865	-0.017
866	-0.013
866	-0.011
866	-0.008
867	-0.006
867	-0.003
868	-0.001
868	0.002
869	0.005
869	0.007
869	0.008
870	0.01
870	0.012
871	0.015
871	0.017
872	0.018
872	0.019
872	0.02
873	0.02
873	0.021
874	0.021
874	0.021
875	0.02
875	0.019
875	0.018
876	0.017
876	0.015
877	0.014
877	0.013
878	0.011
878	0.009
878	0.007
879	0.006
879	0.004
880	0.003
880	0.003
881	0.002
881	0.002
881	0.002
882	0.002
882	0.001
883	0.001
883	-0
884	-0.001
884	-0.001
884	-0.002
885	-0.002
885	-0.002
886	-0.003
886	-0.003
887	-0.004
887	-0.004
887	-0.004
888	-0.003
888	-0.004
889	-0.003
889	-0.002
890	-0.002
890	-0.002
890	-0.002
891	-0.002
891	-0.002
892	-0.002
892	-0.001
893	-0.001
893	-0.001
893	-0.001
894	-0.002
894	-0.002
895	-0.002
895	-0.002
895	-0.003
896	-0.003
896	-0.004
897	-0.005
897	-0.006
898	-0.007
898	-0.007
898	-0.007
899	-0.007
899	-0.006
900	-0.006
900	-0.005
901	-0.004
901	-0.004
901	-0.003
902	-0.002
902	-0.001
903	-0
903	-0
904	0
904	0.001
904	0.002
905	0.003
905	0.003
906	0.004
906	0.004
907	0.004
907	0.003
907	0.003
908	0.003
908	0.002
909	0.002
909	0.002
910	0.001
910	0.001
910	0
911	0.001
911	0.001
912	0.002
912	0.003
913	0.003
913	0.004
913	0.005
914	0.006
914	0.007
915	0.007
915	0.008
916	0.008
916	0.009
916	0.009
917	0.009
917	0.01
918	0.01
918	0.01
918	0.009
919	0.009
919	0.009
920	0.009
920	0.01
921	0.01
921	0.01
921	0.01
922	0.01
922	0.01
923	0.01
923	0.01
924	0.01
924	0.01
924	0.009
925	0.008
925	0.007
926	0.006
926	0.005
927	0.004
927	0.003
927	0.002
928	0.002
928	0.001
929	0.001
929	0
930	-0
930	-0
930	-0.001
931	-0.001
931	-0.001
932	-0.001
932	-0.002
933	-0.003
933	-0.004
933	-0.005
934	-0.007
934	-0.007
935	-0.008
935	-0.009
935	-0.01
936	-0.011
936	-0.012
937	-0.013
937	-0.013
938	-0.013
938	-0.013
938	-0.012
939	-0.011
939	-0.01
940	-0.009
940	-0.009
941	-0.008
941	-0.007
941	-0.006
942	-0.005
942	-0.004
943	-0.004
943	-0.004
944	-0.004
944	-0.004
944	-0.005
945	-0.006
945	-0.007
946	-0.008
946	-0.009
946	-0.009
947	-0.01
947	-0.01
948	-0.01
948	-0.01
949	-0.009
949	-0.008
949	-0.008
950	-0.007
950	-0.006
951	-0.005
951	-0.005
952	-0.004
952	-0.002
952	-0.002
953	-0
953	0.001
954	0.001
954	0.002
955	0.003
955	0.004
955	0.005
956	0.006
956	0.007
957	0.007
957	0.007
957	0.007
958	0.007
958	0.008
959	0.008
959	0.008
960	0.008
960	0.008
960	0.008
961	0.007
961	0.008
962	0.008
962	0.008
963	0.007
963	0.007
963	0.007
964	0.007
964	0.008
965	0.008
965	0.008
966	0.008
966	0.008
966	0.008
967	0.008
967	0.007
968	0.007
968	0.006
968	0.006
969	0.006
969	0.005
970	0.005
970	0.005
971	0.005
971	0.005
971	0.005
972	0.005
972	0.005
973	0.005
973	0.005
974	0.005
974	0.005
974	0.004
975	0.004
975	0.003
976	0.003
976	0.002
976	0.001
977	0.001
977	0.001
978	0.001
978	0.001
979	0.001
979	0
979	0
980	0
980	-0
981	-0
981	-0
982	-0
982	-0.001
982	-0.001
983	-0.001
983	-0.002
984	-0.001
984	-0.001
984	-0.001
985	-0.001
985	-0
986	-0
986	-0
987	-0
987	-0
987	-0
988	-0.001
988	-0.001
989	-0.002
989	-0.003
990	-0.004
990	-0.004
990	-0.005
991	-0.005
991	-0.006
992	-0.006
992	-0.006
992	-0.006
993	-0.006
993	-0.006
994	-0.006
994	-0.006
995	-0.007
995	-0.007
995	-0.007
996	-0.008
996	-0.008
997	-0.009
997	-0.008
997	-0.008
998	-0.008
998	-0.008
999	-0.008
999	-0.008
1000	-0.007
1000	-0.007
1000	-0.007
1001	-0.006
1001	-0.006
1002	-0.006
1002	-0.005
1003	-0.005
1003	-0.005
1003	-0.005
1004	-0.005
1004	-0.005
1005	-0.006
1005	-0.007
1005	-0.008
1006	-0.009
1006	-0.01
1007	-0.011
1007	-0.012
1008	-0.012
1008	-0.013
1008	-0.013
1009	-0.014
1009	-0.013
1010	-0.013
1010	-0.013
1010	-0.014
1011	-0.014
1011	-0.014
1012	-0.014
1012	-0.015
1013	-0.016
1013	-0.017
1013	-0.018
1014	-0.018
1014	-0.02
1015	-0.02
1015	-0.021
1016	-0.022
1016	-0.022
1016	-0.023
1017	-0.024
1017	-0.024
1018	-0.025
1018	-0.025
1018	-0.026
1019	-0.026
1019	-0.027
1020	-0.027
1020	-0.028
1021	-0.029
1021	-0.03
1021	-0.031
1022	-0.031
1022	-0.032
1023	-0.032
1023	-0.033
1023	-0.033
1024	-0.033
1024	-0.033
1025	-0.033
1025	-0.032
1026	-0.032
1026	-0.031
1026	-0.031
1027	-0.03
1027	-0.03
1028	-0.03
1028	-0.03
1028	-0.03
1029	-0.03
1029	-0.03
1030	-0.03
1030	-0.031
1031	-0.032
1031	-0.032
1031	-0.032
1032	-0.032
1032	-0.032
1033	-0.032
1033	-0.031
1033	-0.031
1034	-0.031
1034	-0.031
1035	-0.031
1035	-0.03
1036	-0.031
1036	-0.031
1036	-0.031
1037	-0.031
1037	-0.031
1038	-0.031
1038	-0.031
1039	-0.031
1039	-0.03
1039	-0.03
1040	-0.029
1040	-0.029
1041	-0.028
1041	-0.027
1041	-0.027
1042	-0.027
1042	-0.027
1043	-0.027
1043	-0.028
1044	-0.028
1044	-0.029
1044	-0.03
1045	-0.03
1045	-0.031
1046	-0.032
1046	-0.032
1046	-0.032
1047	-0.032
1047	-0.032
1048	-0.032
1048	-0.032
1049	-0.031
1049	-0.031
1049	-0.031
1050	-0.03
1050	-0.03
1051	-0.03
1051	-0.03
1051	-0.029
1052	-0.029
1052	-0.029
1053	-0.028
1053	-0.028
1053	-0.028
1054	-0.028
1054	-0.027
1055	-0.028
1055	-0.028
1056	-0.028
1056	-0.029
1056	-0.03
1057	-0.031
1057	-0.031
1058	-0.032
1058	-0.033
1058	-0.033
1059	-0.034
1059	-0.034
1060	-0.035
1060	-0.035
1061	-0.035
1061	-0.035
1061	-0.035
1062	-0.035
1062	-0.035
1063	-0.035
1063	-0.035
1063	-0.035
1064	-0.034
1064	-0.034
1065	-0.034
1065	-0.034
1066	-0.034
1066	-0.034
1066	-0.034
1067	-0.035
1067	-0.035
1068	-0.035
1068	-0.036
1068	-0.037
1069	-0.037
1069	-0.038
1070	-0.038
1070	-0.038
1071	-0.039
1071	-0.039
1071	-0.039
1072	-0.039
1072	-0.04
1073	-0.04
1073	-0.04
1073	-0.04
1074	-0.04
1074	-0.039
1075	-0.04
1075	-0.04
1076	-0.04
1076	-0.04
1076	-0.041
1077	-0.041
1077	-0.041
1078	-0.042
1078	-0.042
1078	-0.043
1079	-0.044
1079	-0.044
1080	-0.045
1080	-0.045
1080	-0.046
1081	-0.047
1081	-0.047
1082	-0.048
1082	-0.049
1083	-0.049
1083	-0.05
1083	-0.051
1084	-0.052
1084	-0.053
1085	-0.054
1085	-0.054
1085	-0.054
1086	-0.054
1086	-0.055
1087	-0.055
1087	-0.055
1088	-0.056
1088	-0.056
1088	-0.056
1089	-0.057
1089	-0.057
1090	-0.058
1090	-0.058
1090	-0.059
1091	-0.06
1091	-0.06
1092	-0.061
1092	-0.06
1092	-0.061
1093	-0.062
1093	-0.062
1094	-0.062
1094	-0.062
1095	-0.063
1095	-0.063
1095	-0.063
1096	-0.064
1096	-0.064
1097	-0.065
1097	-0.065
1097	-0.066
1098	-0.067
1098	-0.068
1099	-0.069
1099	-0.069
1100	-0.07
1100	-0.072
1100	-0.074
1101	-0.077
1101	-0.079
1102	-0.08
1102	-0.082
1102	-0.083
1103	-0.085
1103	-0.087
1104	-0.089
1104	-0.091
1104	-0.093
1105	-0.095
1105	-0.097
1106	-0.101
1106	-0.103
1107	-0.107
1107	-0.11
1107	-0.115
1108	-0.117
1108	-0.118
1109	-0.121
1109	-0.124
1109	-0.125
1110	-0.127
1110	-0.128
1111	-0.131
1111	-0.13
