Data from 17C_3.2A_35min_2sec_int_Absorbance__293__01855.txt Node

Date: Mon Jun 19 17:43:20 CEST 2023
User: Marek
Spectrometer: MAYP115816
Trigger mode: 0
Integration Time (sec): 2.500000E-1
Scans to average: 10
Electric dark correction enabled: true
Nonlinearity correction enabled: true
Boxcar width: 5
XAxis mode: Wavelengths
Number of Pixels in Spectrum: 2068
>>>>>Begin Spectral Data<<<<<
199	-0.717
199	-0.729
200	-0.636
200	-0.585
201	-0.55
201	-0.539
202	-0.524
202	-0.511
203	-0.503
203	-0.497
204	-0.486
204	-0.475
205	-0.45
205	-0.445
205	-0.444
206	-0.446
206	-0.448
207	-0.438
207	-0.44
208	-0.441
208	-0.439
209	-0.431
209	-0.431
210	-0.435
210	-0.441
211	-0.441
211	-0.443
212	-0.447
212	-0.454
213	-0.452
213	-0.453
213	-0.458
214	-0.456
214	-0.457
215	-0.458
215	-0.462
216	-0.466
216	-0.475
217	-0.467
217	-0.474
218	-0.477
218	-0.479
219	-0.484
219	-0.493
220	-0.496
220	-0.505
221	-0.503
221	-0.508
221	-0.499
222	-0.499
222	-0.498
223	-0.5
223	-0.501
224	-0.504
224	-0.504
225	-0.498
225	-0.492
226	-0.497
226	-0.495
227	-0.5
227	-0.509
228	-0.51
228	-0.514
229	-0.514
229	-0.507
229	-0.501
230	-0.506
230	-0.51
231	-0.504
231	-0.495
232	-0.49
232	-0.488
233	-0.482
233	-0.478
234	-0.48
234	-0.479
235	-0.483
235	-0.487
236	-0.485
236	-0.49
236	-0.496
237	-0.502
237	-0.502
238	-0.509
238	-0.508
239	-0.506
239	-0.513
240	-0.513
240	-0.515
241	-0.521
241	-0.52
242	-0.526
242	-0.522
243	-0.516
243	-0.52
243	-0.528
244	-0.53
244	-0.531
245	-0.545
245	-0.544
246	-0.549
246	-0.555
247	-0.557
247	-0.56
248	-0.569
248	-0.566
249	-0.568
249	-0.575
250	-0.57
250	-0.565
250	-0.563
251	-0.559
251	-0.56
252	-0.562
252	-0.552
253	-0.557
253	-0.567
254	-0.564
254	-0.564
255	-0.574
255	-0.568
256	-0.566
256	-0.576
257	-0.571
257	-0.567
258	-0.585
258	-0.582
258	-0.578
259	-0.575
259	-0.582
260	-0.582
260	-0.587
261	-0.598
261	-0.59
262	-0.588
262	-0.588
263	-0.578
263	-0.571
264	-0.572
264	-0.578
265	-0.574
265	-0.582
265	-0.586
266	-0.584
266	-0.582
267	-0.592
267	-0.601
268	-0.614
268	-0.623
269	-0.62
269	-0.616
270	-0.623
270	-0.625
271	-0.624
271	-0.629
272	-0.631
272	-0.627
272	-0.62
273	-0.621
273	-0.629
274	-0.636
274	-0.639
275	-0.639
275	-0.633
276	-0.638
276	-0.632
277	-0.636
277	-0.655
278	-0.666
278	-0.659
278	-0.654
279	-0.658
279	-0.669
280	-0.666
280	-0.667
281	-0.662
281	-0.668
282	-0.659
282	-0.658
283	-0.646
283	-0.651
284	-0.645
284	-0.631
285	-0.626
285	-0.621
285	-0.616
286	-0.624
286	-0.619
287	-0.62
287	-0.603
288	-0.598
288	-0.604
289	-0.618
289	-0.628
290	-0.617
290	-0.615
291	-0.613
291	-0.608
292	-0.611
292	-0.618
292	-0.623
293	-0.626
293	-0.614
294	-0.601
294	-0.592
295	-0.589
295	-0.588
296	-0.586
296	-0.583
297	-0.577
297	-0.559
298	-0.551
298	-0.56
298	-0.549
299	-0.544
299	-0.543
300	-0.54
300	-0.536
301	-0.533
301	-0.531
302	-0.539
302	-0.548
303	-0.536
303	-0.525
304	-0.528
304	-0.528
305	-0.531
305	-0.53
305	-0.529
306	-0.513
306	-0.508
307	-0.491
307	-0.491
308	-0.505
308	-0.5
309	-0.501
309	-0.49
310	-0.478
310	-0.475
311	-0.467
311	-0.473
311	-0.47
312	-0.467
312	-0.466
313	-0.453
313	-0.454
314	-0.454
314	-0.455
315	-0.456
315	-0.457
316	-0.452
316	-0.444
317	-0.435
317	-0.432
318	-0.421
318	-0.419
318	-0.415
319	-0.402
319	-0.398
320	-0.393
320	-0.391
321	-0.396
321	-0.396
322	-0.39
322	-0.386
323	-0.385
323	-0.379
324	-0.372
324	-0.364
324	-0.355
325	-0.344
325	-0.328
326	-0.315
326	-0.295
327	-0.28
327	-0.259
328	-0.234
328	-0.212
329	-0.189
329	-0.166
330	-0.137
330	-0.104
330	-0.077
331	-0.046
331	-0.019
332	0.006
332	0.03
333	0.052
333	0.077
334	0.099
334	0.116
335	0.132
335	0.146
336	0.16
336	0.174
336	0.184
337	0.195
337	0.204
338	0.212
338	0.217
339	0.225
339	0.231
340	0.236
340	0.241
341	0.245
341	0.248
342	0.252
342	0.255
342	0.259
343	0.261
343	0.264
344	0.265
344	0.267
345	0.268
345	0.269
346	0.269
346	0.27
347	0.271
347	0.271
348	0.272
348	0.272
348	0.273
349	0.273
349	0.274
350	0.274
350	0.274
351	0.274
351	0.274
352	0.275
352	0.274
353	0.274
353	0.274
354	0.274
354	0.274
354	0.274
355	0.273
355	0.273
356	0.273
356	0.273
357	0.272
357	0.271
358	0.271
358	0.271
359	0.271
359	0.271
360	0.27
360	0.27
360	0.27
361	0.27
361	0.27
362	0.27
362	0.27
363	0.27
363	0.27
364	0.27
364	0.27
365	0.27
365	0.27
366	0.27
366	0.27
366	0.27
367	0.27
367	0.27
368	0.27
368	0.27
369	0.27
369	0.27
370	0.27
370	0.27
371	0.269
371	0.269
372	0.269
372	0.269
372	0.269
373	0.269
373	0.269
374	0.268
374	0.268
375	0.268
375	0.268
376	0.268
376	0.268
377	0.268
377	0.268
378	0.268
378	0.268
378	0.268
379	0.268
379	0.267
380	0.267
380	0.267
381	0.267
381	0.266
382	0.266
382	0.266
383	0.266
383	0.265
383	0.265
384	0.265
384	0.265
385	0.265
385	0.265
386	0.265
386	0.265
387	0.264
387	0.264
388	0.264
388	0.264
389	0.264
389	0.264
389	0.264
390	0.264
390	0.264
391	0.264
391	0.264
392	0.264
392	0.264
393	0.264
393	0.264
394	0.264
394	0.263
394	0.263
395	0.263
395	0.262
396	0.262
396	0.262
397	0.262
397	0.262
398	0.262
398	0.261
399	0.261
399	0.261
400	0.261
400	0.261
400	0.261
401	0.26
401	0.26
402	0.26
402	0.26
403	0.26
403	0.26
404	0.259
404	0.259
405	0.259
405	0.259
405	0.259
406	0.259
406	0.259
407	0.259
407	0.258
408	0.258
408	0.258
409	0.258
409	0.258
410	0.258
410	0.258
411	0.258
411	0.258
411	0.258
412	0.258
412	0.258
413	0.258
413	0.258
414	0.257
414	0.257
415	0.257
415	0.257
416	0.257
416	0.256
416	0.256
417	0.256
417	0.256
418	0.256
418	0.256
419	0.256
419	0.256
420	0.256
420	0.256
421	0.256
421	0.256
421	0.256
422	0.256
422	0.256
423	0.256
423	0.255
424	0.255
424	0.255
425	0.254
425	0.254
426	0.253
426	0.253
427	0.253
427	0.253
427	0.253
428	0.253
428	0.253
429	0.253
429	0.253
430	0.253
430	0.253
431	0.252
431	0.252
432	0.252
432	0.252
432	0.252
433	0.252
433	0.251
434	0.251
434	0.251
435	0.251
435	0.251
436	0.251
436	0.25
437	0.25
437	0.25
437	0.25
438	0.25
438	0.25
439	0.25
439	0.25
440	0.25
440	0.25
441	0.25
441	0.25
442	0.25
442	0.25
442	0.249
443	0.249
443	0.249
444	0.249
444	0.249
445	0.249
445	0.249
446	0.249
446	0.249
447	0.249
447	0.249
447	0.249
448	0.249
448	0.249
449	0.25
449	0.25
450	0.25
450	0.249
451	0.249
451	0.249
452	0.249
452	0.249
452	0.249
453	0.249
453	0.249
454	0.248
454	0.248
455	0.248
455	0.248
456	0.248
456	0.248
457	0.248
457	0.248
458	0.248
458	0.248
458	0.248
459	0.248
459	0.248
460	0.248
460	0.248
461	0.248
461	0.248
462	0.248
462	0.248
463	0.248
463	0.248
463	0.248
464	0.248
464	0.248
465	0.248
465	0.249
466	0.249
466	0.249
467	0.25
467	0.25
467	0.25
468	0.25
468	0.25
469	0.25
469	0.251
470	0.251
470	0.251
471	0.251
471	0.251
472	0.252
472	0.252
472	0.252
473	0.252
473	0.252
474	0.252
474	0.253
475	0.253
475	0.253
476	0.253
476	0.254
477	0.254
477	0.254
477	0.254
478	0.255
478	0.255
479	0.256
479	0.256
480	0.256
480	0.256
481	0.257
481	0.257
482	0.258
482	0.258
482	0.259
483	0.259
483	0.26
484	0.26
484	0.26
485	0.261
485	0.261
486	0.262
486	0.263
487	0.263
487	0.264
487	0.265
488	0.266
488	0.266
489	0.268
489	0.269
490	0.271
490	0.271
491	0.273
491	0.274
492	0.275
492	0.276
492	0.277
493	0.278
493	0.279
494	0.28
494	0.281
495	0.282
495	0.283
496	0.284
496	0.286
496	0.287
497	0.289
497	0.29
498	0.291
498	0.292
499	0.294
499	0.295
500	0.297
500	0.298
501	0.3
501	0.301
501	0.302
502	0.303
502	0.304
503	0.306
503	0.307
504	0.308
504	0.31
505	0.312
505	0.313
506	0.315
506	0.316
506	0.318
507	0.319
507	0.32
508	0.322
508	0.323
509	0.325
509	0.326
510	0.328
510	0.33
511	0.331
511	0.333
511	0.335
512	0.337
512	0.338
513	0.34
513	0.341
514	0.343
514	0.344
515	0.346
515	0.347
515	0.349
516	0.35
516	0.352
517	0.353
517	0.355
518	0.356
518	0.358
519	0.359
519	0.36
520	0.362
520	0.364
520	0.365
521	0.367
521	0.368
522	0.37
522	0.371
523	0.373
523	0.374
524	0.374
524	0.375
524	0.376
525	0.377
525	0.378
526	0.379
526	0.379
527	0.381
527	0.381
528	0.383
528	0.384
529	0.385
529	0.386
529	0.387
530	0.388
530	0.389
531	0.39
531	0.39
532	0.391
532	0.392
533	0.392
533	0.392
533	0.393
534	0.393
534	0.393
535	0.394
535	0.394
536	0.394
536	0.394
537	0.394
537	0.394
538	0.395
538	0.395
538	0.395
539	0.396
539	0.396
540	0.396
540	0.396
541	0.396
541	0.397
542	0.397
542	0.396
542	0.396
543	0.396
543	0.396
544	0.395
544	0.395
545	0.395
545	0.395
546	0.395
546	0.395
547	0.394
547	0.394
547	0.394
548	0.394
548	0.394
549	0.394
549	0.393
550	0.393
550	0.393
551	0.393
551	0.393
551	0.394
552	0.394
552	0.394
553	0.394
553	0.395
554	0.394
554	0.394
555	0.394
555	0.394
556	0.393
556	0.393
556	0.392
557	0.392
557	0.391
558	0.391
558	0.39
559	0.389
559	0.389
560	0.388
560	0.388
560	0.387
561	0.387
561	0.386
562	0.386
562	0.385
563	0.384
563	0.384
564	0.384
564	0.384
564	0.384
565	0.384
565	0.384
566	0.384
566	0.384
567	0.384
567	0.384
568	0.383
568	0.382
568	0.382
569	0.381
569	0.38
570	0.379
570	0.378
571	0.377
571	0.377
572	0.376
572	0.375
573	0.375
573	0.375
573	0.374
574	0.374
574	0.374
575	0.373
575	0.374
576	0.373
576	0.372
577	0.372
577	0.372
577	0.372
578	0.372
578	0.372
579	0.373
579	0.373
580	0.372
580	0.37
581	0.369
581	0.369
581	0.369
582	0.369
582	0.369
583	0.369
583	0.368
584	0.367
584	0.366
585	0.366
585	0.367
585	0.366
586	0.366
586	0.366
587	0.365
587	0.365
588	0.364
588	0.364
589	0.364
589	0.364
590	0.364
590	0.364
590	0.364
591	0.363
591	0.362
592	0.362
592	0.361
593	0.361
593	0.36
594	0.36
594	0.359
594	0.359
595	0.359
595	0.358
596	0.358
596	0.359
597	0.36
597	0.359
598	0.358
598	0.357
598	0.357
599	0.356
599	0.355
600	0.354
600	0.353
601	0.352
601	0.351
602	0.35
602	0.349
602	0.349
603	0.349
603	0.349
604	0.349
604	0.349
605	0.35
605	0.35
606	0.349
606	0.348
606	0.348
607	0.347
607	0.346
608	0.345
608	0.343
609	0.343
609	0.342
610	0.341
610	0.341
610	0.341
611	0.341
611	0.341
612	0.341
612	0.341
613	0.341
613	0.341
614	0.339
614	0.338
614	0.337
615	0.336
615	0.335
616	0.334
616	0.332
617	0.331
617	0.329
618	0.328
618	0.327
618	0.327
619	0.326
619	0.326
620	0.326
620	0.325
621	0.324
621	0.323
622	0.322
622	0.322
622	0.32
623	0.319
623	0.319
624	0.318
624	0.316
625	0.315
625	0.314
626	0.313
626	0.311
626	0.31
627	0.309
627	0.307
628	0.306
628	0.304
629	0.301
629	0.299
630	0.297
630	0.294
630	0.292
631	0.289
631	0.286
632	0.282
632	0.279
633	0.276
633	0.272
634	0.269
634	0.265
634	0.262
635	0.258
635	0.254
636	0.249
636	0.245
637	0.24
637	0.235
638	0.229
638	0.224
638	0.218
639	0.212
639	0.205
640	0.199
640	0.192
641	0.186
641	0.18
642	0.173
642	0.167
642	0.161
643	0.154
643	0.147
644	0.139
644	0.132
645	0.124
645	0.116
646	0.109
646	0.101
646	0.093
647	0.085
647	0.077
648	0.069
648	0.061
649	0.052
649	0.043
650	0.034
650	0.026
650	0.016
651	0.005
651	-0.009
652	-0.025
652	-0.042
653	-0.056
653	-0.069
653	-0.066
654	-0.044
654	-0.031
655	-0.034
655	-0.039
656	-0.045
656	-0.052
657	-0.056
657	-0.06
657	-0.066
658	-0.072
658	-0.102
659	-0.19
659	-0.295
660	-0.341
660	-0.369
661	-0.397
661	-0.427
661	-0.462
662	-0.495
662	-0.531
663	-0.571
663	-0.615
664	-0.661
664	-0.713
665	-0.765
665	-0.824
665	-0.879
666	-0.937
666	-1
667	-1.065
667	-1.13
668	-1.203
668	-1.276
669	-1.35
669	-1.424
669	-1.502
670	-1.57
670	-1.604
671	-1.743
671	-1.999
672	-2.219
672	-2.405
672	-2.532
673	-2.622
673	-2.7
674	-2.746
674	-2.766
675	-2.791
675	-2.931
676	-3.124
676	-3.077
676	-2.855
677	-2.654
677	-2.495
678	-2.328
678	-2.054
679	-1.774
679	-1.635
680	-1.538
680	-1.453
680	-1.38
681	-1.334
681	-1.272
682	-1.232
682	-1.192
683	-1.156
683	-1.138
684	-1.117
684	-1.097
684	-1.073
685	-1.047
685	-1.024
686	-0.999
686	-0.983
687	-0.956
687	-0.943
687	-0.922
688	-0.894
688	-0.87
689	-0.848
689	-0.833
690	-0.814
690	-0.801
691	-0.793
691	-0.798
691	-0.813
692	-0.804
692	-0.794
693	-0.79
693	-0.797
694	-0.791
694	-0.785
695	-0.79
695	-0.786
695	-0.77
696	-0.766
696	-0.743
697	-0.743
697	-0.758
698	-0.76
698	-0.751
698	-0.763
699	-0.765
699	-0.763
700	-0.755
700	-0.769
701	-0.768
701	-0.775
702	-0.774
702	-0.763
702	-0.755
703	-0.746
703	-0.738
704	-0.735
704	-0.735
705	-0.746
705	-0.741
705	-0.73
706	-0.729
706	-0.725
707	-0.729
707	-0.723
708	-0.723
708	-0.714
709	-0.717
709	-0.717
709	-0.708
710	-0.717
710	-0.726
711	-0.717
711	-0.718
712	-0.716
712	-0.732
713	-0.73
713	-0.74
713	-0.731
714	-0.73
714	-0.731
715	-0.719
715	-0.707
716	-0.716
716	-0.717
716	-0.711
717	-0.71
717	-0.711
718	-0.702
718	-0.703
719	-0.708
719	-0.71
720	-0.704
720	-0.712
720	-0.703
721	-0.694
721	-0.694
722	-0.681
722	-0.672
723	-0.67
723	-0.673
723	-0.66
724	-0.661
724	-0.668
725	-0.668
725	-0.677
726	-0.687
726	-0.692
727	-0.699
727	-0.712
727	-0.72
728	-0.72
728	-0.726
729	-0.726
729	-0.73
730	-0.735
730	-0.727
730	-0.719
731	-0.702
731	-0.708
732	-0.713
732	-0.712
733	-0.709
733	-0.716
734	-0.707
734	-0.706
734	-0.693
735	-0.693
735	-0.692
736	-0.703
736	-0.691
737	-0.682
737	-0.684
737	-0.693
738	-0.688
738	-0.69
739	-0.688
739	-0.702
740	-0.701
740	-0.702
741	-0.698
741	-0.698
741	-0.702
742	-0.699
742	-0.702
743	-0.707
743	-0.712
744	-0.709
744	-0.698
744	-0.7
745	-0.706
745	-0.697
746	-0.7
746	-0.696
747	-0.696
747	-0.684
748	-0.674
748	-0.68
748	-0.683
749	-0.68
749	-0.68
750	-0.668
750	-0.671
751	-0.672
751	-0.682
751	-0.685
752	-0.688
752	-0.695
753	-0.69
753	-0.685
754	-0.692
754	-0.684
754	-0.701
755	-0.716
755	-0.729
756	-0.718
756	-0.717
757	-0.714
757	-0.708
758	-0.709
758	-0.707
758	-0.711
759	-0.721
759	-0.704
760	-0.696
760	-0.691
761	-0.7
761	-0.696
761	-0.699
762	-0.709
762	-0.707
763	-0.716
763	-0.712
764	-0.709
764	-0.715
764	-0.722
765	-0.711
765	-0.698
766	-0.703
766	-0.708
767	-0.725
767	-0.719
768	-0.711
768	-0.721
768	-0.725
769	-0.743
769	-0.745
770	-0.75
770	-0.765
771	-0.766
771	-0.768
771	-0.764
772	-0.767
772	-0.768
773	-0.767
773	-0.762
774	-0.761
774	-0.763
775	-0.765
775	-0.76
775	-0.764
776	-0.767
776	-0.759
777	-0.769
777	-0.786
778	-0.782
778	-0.8
778	-0.786
779	-0.806
779	-0.815
780	-0.827
780	-0.828
781	-0.84
781	-0.837
781	-0.853
782	-0.856
782	-0.861
783	-0.847
783	-0.848
784	-0.829
784	-0.818
784	-0.825
785	-0.83
785	-0.814
786	-0.82
786	-0.796
787	-0.778
787	-0.779
788	-0.782
788	-0.791
788	-0.802
789	-0.803
789	-0.787
790	-0.768
790	-0.771
791	-0.771
791	-0.787
791	-0.796
792	-0.789
792	-0.764
793	-0.753
793	-0.727
794	-0.731
794	-0.724
794	-0.732
795	-0.728
795	-0.717
796	-0.702
796	-0.708
797	-0.701
797	-0.714
797	-0.722
798	-0.737
798	-0.732
799	-0.739
799	-0.727
800	-0.734
800	-0.726
801	-0.732
801	-0.718
801	-0.729
802	-0.737
802	-0.737
803	-0.737
803	-0.745
804	-0.741
804	-0.751
804	-0.737
805	-0.742
805	-0.731
806	-0.733
806	-0.719
807	-0.717
807	-0.698
807	-0.686
808	-0.676
808	-0.67
809	-0.655
809	-0.666
810	-0.662
810	-0.654
810	-0.651
811	-0.656
811	-0.649
812	-0.652
812	-0.655
813	-0.661
813	-0.658
813	-0.664
814	-0.666
814	-0.671
815	-0.677
815	-0.682
816	-0.673
816	-0.679
817	-0.687
817	-0.704
817	-0.718
818	-0.726
818	-0.729
819	-0.719
819	-0.72
820	-0.728
820	-0.722
820	-0.733
821	-0.729
821	-0.718
822	-0.686
822	-0.661
823	-0.66
823	-0.663
823	-0.661
824	-0.656
824	-0.659
825	-0.654
825	-0.637
826	-0.633
826	-0.639
826	-0.65
827	-0.645
827	-0.641
828	-0.621
828	-0.621
829	-0.61
829	-0.595
829	-0.585
830	-0.593
830	-0.589
831	-0.582
831	-0.572
832	-0.572
832	-0.564
832	-0.572
833	-0.566
833	-0.568
834	-0.567
834	-0.577
835	-0.565
835	-0.561
835	-0.556
836	-0.553
836	-0.548
837	-0.545
837	-0.535
838	-0.527
838	-0.514
839	-0.5
839	-0.487
839	-0.478
840	-0.466
840	-0.462
841	-0.451
841	-0.444
842	-0.436
842	-0.425
842	-0.419
843	-0.414
843	-0.409
844	-0.4
844	-0.392
845	-0.384
845	-0.374
845	-0.362
846	-0.349
846	-0.337
847	-0.325
847	-0.313
848	-0.302
848	-0.291
848	-0.275
849	-0.264
849	-0.253
850	-0.238
850	-0.232
851	-0.224
851	-0.213
851	-0.203
852	-0.187
852	-0.175
853	-0.167
853	-0.16
854	-0.148
854	-0.135
854	-0.125
855	-0.113
855	-0.107
856	-0.096
856	-0.089
857	-0.084
857	-0.076
857	-0.065
858	-0.056
858	-0.05
859	-0.043
859	-0.033
860	-0.024
860	-0.011
860	-0.003
861	0.005
861	0.013
862	0.02
862	0.027
863	0.034
863	0.043
863	0.048
864	0.054
864	0.059
865	0.065
865	0.07
866	0.075
866	0.079
866	0.083
867	0.086
867	0.09
868	0.092
868	0.096
869	0.099
869	0.102
869	0.103
870	0.106
870	0.108
871	0.11
871	0.112
872	0.113
872	0.113
872	0.114
873	0.115
873	0.115
874	0.115
874	0.114
875	0.113
875	0.112
875	0.111
876	0.11
876	0.109
877	0.108
877	0.106
878	0.104
878	0.102
878	0.101
879	0.099
879	0.098
880	0.097
880	0.096
881	0.096
881	0.096
881	0.096
882	0.095
882	0.094
883	0.093
883	0.092
884	0.091
884	0.09
884	0.089
885	0.088
885	0.088
886	0.088
886	0.087
887	0.087
887	0.086
887	0.086
888	0.086
888	0.086
889	0.087
889	0.087
890	0.087
890	0.086
890	0.086
891	0.086
891	0.086
892	0.086
892	0.086
893	0.086
893	0.086
893	0.086
894	0.086
894	0.085
895	0.085
895	0.085
895	0.084
896	0.084
896	0.083
897	0.082
897	0.08
898	0.079
898	0.079
898	0.078
899	0.078
899	0.079
900	0.079
900	0.079
901	0.08
901	0.08
901	0.081
902	0.082
902	0.082
903	0.083
903	0.083
904	0.084
904	0.085
904	0.085
905	0.086
905	0.087
906	0.087
906	0.087
907	0.087
907	0.087
907	0.087
908	0.086
908	0.085
909	0.085
909	0.084
910	0.083
910	0.083
910	0.082
911	0.083
911	0.083
912	0.083
912	0.084
913	0.084
913	0.085
913	0.086
914	0.087
914	0.087
915	0.088
915	0.088
916	0.089
916	0.089
916	0.09
917	0.09
917	0.09
918	0.09
918	0.089
918	0.089
919	0.089
919	0.089
920	0.089
920	0.089
921	0.089
921	0.089
921	0.089
922	0.089
922	0.089
923	0.089
923	0.089
924	0.089
924	0.088
924	0.087
925	0.086
925	0.085
926	0.084
926	0.083
927	0.082
927	0.082
927	0.081
928	0.08
928	0.079
929	0.079
929	0.078
930	0.078
930	0.077
930	0.076
931	0.076
931	0.076
932	0.075
932	0.074
933	0.073
933	0.072
933	0.071
934	0.069
934	0.068
935	0.067
935	0.067
935	0.065
936	0.064
936	0.063
937	0.062
937	0.062
938	0.062
938	0.062
938	0.063
939	0.063
939	0.064
940	0.065
940	0.065
941	0.065
941	0.066
941	0.067
942	0.067
942	0.067
943	0.068
943	0.067
944	0.067
944	0.066
944	0.066
945	0.065
945	0.064
946	0.063
946	0.062
946	0.061
947	0.06
947	0.06
948	0.06
948	0.06
949	0.06
949	0.06
949	0.061
950	0.062
950	0.062
951	0.064
951	0.064
952	0.065
952	0.066
952	0.067
953	0.068
953	0.069
954	0.069
954	0.07
955	0.071
955	0.072
955	0.073
956	0.073
956	0.074
957	0.074
957	0.074
957	0.074
958	0.074
958	0.075
959	0.075
959	0.075
960	0.075
960	0.075
960	0.075
961	0.075
961	0.075
962	0.076
962	0.075
963	0.076
963	0.075
963	0.075
964	0.075
964	0.075
965	0.075
965	0.074
966	0.074
966	0.074
966	0.074
967	0.073
967	0.073
968	0.072
968	0.072
968	0.071
969	0.071
969	0.07
970	0.07
970	0.07
971	0.07
971	0.071
971	0.07
972	0.071
972	0.071
973	0.071
973	0.071
974	0.071
974	0.071
974	0.07
975	0.07
975	0.069
976	0.068
976	0.068
976	0.068
977	0.067
977	0.067
978	0.067
978	0.067
979	0.067
979	0.066
979	0.066
980	0.065
980	0.065
981	0.065
981	0.065
982	0.064
982	0.064
982	0.063
983	0.063
983	0.063
984	0.063
984	0.063
984	0.064
985	0.064
985	0.064
986	0.064
986	0.064
987	0.064
987	0.063
987	0.063
988	0.062
988	0.062
989	0.061
989	0.06
990	0.059
990	0.058
990	0.057
991	0.057
991	0.056
992	0.056
992	0.056
992	0.055
993	0.055
993	0.055
994	0.055
994	0.055
995	0.054
995	0.054
995	0.054
996	0.053
996	0.053
997	0.052
997	0.052
997	0.052
998	0.052
998	0.052
999	0.052
999	0.053
1000	0.053
1000	0.053
1000	0.054
1001	0.054
1001	0.055
1002	0.055
1002	0.056
1003	0.056
1003	0.056
1003	0.056
1004	0.056
1004	0.055
1005	0.055
1005	0.054
1005	0.053
1006	0.052
1006	0.051
1007	0.05
1007	0.049
1008	0.048
1008	0.048
1008	0.047
1009	0.047
1009	0.047
1010	0.046
1010	0.046
1010	0.046
1011	0.046
1011	0.046
1012	0.045
1012	0.045
1013	0.044
1013	0.043
1013	0.042
1014	0.041
1014	0.04
1015	0.039
1015	0.039
1016	0.037
1016	0.036
1016	0.036
1017	0.035
1017	0.034
1018	0.034
1018	0.033
1018	0.033
1019	0.032
1019	0.031
1020	0.031
1020	0.03
1021	0.03
1021	0.029
1021	0.028
1022	0.027
1022	0.027
1023	0.026
1023	0.026
1023	0.026
1024	0.025
1024	0.025
1025	0.025
1025	0.026
1026	0.026
1026	0.027
1026	0.027
1027	0.027
1027	0.027
1028	0.028
1028	0.028
1028	0.027
1029	0.027
1029	0.027
1030	0.026
1030	0.026
1031	0.025
1031	0.025
1031	0.024
1032	0.024
1032	0.024
1033	0.024
1033	0.024
1033	0.025
1034	0.025
1034	0.025
1035	0.025
1035	0.025
1036	0.025
1036	0.025
1036	0.025
1037	0.025
1037	0.025
1038	0.025
1038	0.025
1039	0.026
1039	0.026
1039	0.026
1040	0.026
1040	0.027
1041	0.027
1041	0.028
1041	0.028
1042	0.028
1042	0.028
1043	0.027
1043	0.027
1044	0.027
1044	0.026
1044	0.025
1045	0.024
1045	0.024
1046	0.023
1046	0.022
1046	0.022
1047	0.022
1047	0.022
1048	0.023
1048	0.023
1049	0.023
1049	0.023
1049	0.023
1050	0.023
1050	0.024
1051	0.024
1051	0.024
1051	0.024
1052	0.024
1052	0.025
1053	0.025
1053	0.025
1053	0.025
1054	0.025
1054	0.025
1055	0.024
1055	0.024
1056	0.023
1056	0.022
1056	0.021
1057	0.021
1057	0.02
1058	0.02
1058	0.019
1058	0.019
1059	0.018
1059	0.017
1060	0.017
1060	0.017
1061	0.017
1061	0.017
1061	0.016
1062	0.016
1062	0.016
1063	0.016
1063	0.016
1063	0.016
1064	0.017
1064	0.017
1065	0.017
1065	0.017
1066	0.017
1066	0.017
1066	0.016
1067	0.016
1067	0.016
1068	0.015
1068	0.015
1068	0.014
1069	0.014
1069	0.013
1070	0.013
1070	0.013
1071	0.012
1071	0.012
1071	0.012
1072	0.011
1072	0.011
1073	0.011
1073	0.011
1073	0.011
1074	0.011
1074	0.011
1075	0.011
1075	0.01
1076	0.01
1076	0.01
1076	0.009
1077	0.009
1077	0.008
1078	0.007
1078	0.006
1078	0.005
1079	0.004
1079	0.004
1080	0.003
1080	0.003
1080	0.002
1081	0.002
1081	0.001
1082	0.001
1082	-0
1083	-0.001
1083	-0.002
1083	-0.003
1084	-0.004
1084	-0.005
1085	-0.006
1085	-0.006
1085	-0.007
1086	-0.008
1086	-0.008
1087	-0.008
1087	-0.008
1088	-0.009
1088	-0.009
1088	-0.009
1089	-0.011
1089	-0.011
1090	-0.013
1090	-0.013
1090	-0.014
1091	-0.015
1091	-0.016
1092	-0.017
1092	-0.017
1092	-0.018
1093	-0.019
1093	-0.019
1094	-0.019
1094	-0.02
1095	-0.021
1095	-0.021
1095	-0.021
1096	-0.023
1096	-0.023
1097	-0.023
1097	-0.024
1097	-0.025
1098	-0.027
1098	-0.028
1099	-0.029
1099	-0.03
1100	-0.032
1100	-0.033
1100	-0.035
1101	-0.038
1101	-0.041
1102	-0.043
1102	-0.045
1102	-0.046
1103	-0.049
1103	-0.051
1104	-0.054
1104	-0.057
1104	-0.058
1105	-0.06
1105	-0.063
1106	-0.066
1106	-0.067
1107	-0.072
1107	-0.076
1107	-0.08
1108	-0.082
1108	-0.084
1109	-0.086
1109	-0.09
1109	-0.092
1110	-0.093
1110	-0.096
1111	-0.103
1111	-0.103
