Data from 17C_3.2A_35min_2sec_int_Absorbance__508__02070.txt Node

Date: Mon Jun 19 17:52:17 CEST 2023
User: Marek
Spectrometer: MAYP115816
Trigger mode: 0
Integration Time (sec): 2.500000E-1
Scans to average: 10
Electric dark correction enabled: true
Nonlinearity correction enabled: true
Boxcar width: 5
XAxis mode: Wavelengths
Number of Pixels in Spectrum: 2068
>>>>>Begin Spectral Data<<<<<
199	-0.731
199	-0.747
200	-0.653
200	-0.601
201	-0.566
201	-0.554
202	-0.536
202	-0.523
203	-0.515
203	-0.508
204	-0.496
204	-0.481
205	-0.457
205	-0.452
205	-0.45
206	-0.45
206	-0.451
207	-0.443
207	-0.444
208	-0.444
208	-0.445
209	-0.438
209	-0.44
210	-0.444
210	-0.449
211	-0.45
211	-0.452
212	-0.456
212	-0.463
213	-0.464
213	-0.465
213	-0.468
214	-0.466
214	-0.465
215	-0.465
215	-0.468
216	-0.472
216	-0.482
217	-0.478
217	-0.483
218	-0.482
218	-0.485
219	-0.488
219	-0.499
220	-0.505
220	-0.514
221	-0.513
221	-0.514
221	-0.506
222	-0.502
222	-0.504
223	-0.507
223	-0.508
224	-0.511
224	-0.511
225	-0.505
225	-0.5
226	-0.506
226	-0.506
227	-0.51
227	-0.516
228	-0.519
228	-0.52
229	-0.522
229	-0.517
229	-0.511
230	-0.517
230	-0.519
231	-0.514
231	-0.507
232	-0.501
232	-0.501
233	-0.493
233	-0.49
234	-0.491
234	-0.488
235	-0.493
235	-0.498
236	-0.497
236	-0.5
236	-0.508
237	-0.515
237	-0.516
238	-0.526
238	-0.526
239	-0.523
239	-0.532
240	-0.53
240	-0.528
241	-0.533
241	-0.53
242	-0.536
242	-0.531
243	-0.528
243	-0.528
243	-0.536
244	-0.537
244	-0.536
245	-0.55
245	-0.549
246	-0.556
246	-0.563
247	-0.562
247	-0.567
248	-0.572
248	-0.569
249	-0.571
249	-0.578
250	-0.578
250	-0.574
250	-0.574
251	-0.568
251	-0.568
252	-0.572
252	-0.562
253	-0.567
253	-0.58
254	-0.578
254	-0.576
255	-0.582
255	-0.576
256	-0.574
256	-0.587
257	-0.584
257	-0.581
258	-0.599
258	-0.597
258	-0.59
259	-0.588
259	-0.598
260	-0.597
260	-0.602
261	-0.612
261	-0.604
262	-0.601
262	-0.601
263	-0.587
263	-0.581
264	-0.582
264	-0.592
265	-0.586
265	-0.594
265	-0.597
266	-0.595
266	-0.591
267	-0.604
267	-0.612
268	-0.63
268	-0.64
269	-0.639
269	-0.632
270	-0.638
270	-0.643
271	-0.645
271	-0.65
272	-0.655
272	-0.649
272	-0.643
273	-0.641
273	-0.65
274	-0.656
274	-0.66
275	-0.661
275	-0.655
276	-0.659
276	-0.651
277	-0.653
277	-0.672
278	-0.683
278	-0.675
278	-0.668
279	-0.671
279	-0.681
280	-0.679
280	-0.677
281	-0.671
281	-0.677
282	-0.67
282	-0.669
283	-0.658
283	-0.661
284	-0.656
284	-0.646
285	-0.64
285	-0.638
285	-0.637
286	-0.643
286	-0.639
287	-0.636
287	-0.62
288	-0.613
288	-0.622
289	-0.634
289	-0.643
290	-0.633
290	-0.632
291	-0.628
291	-0.624
292	-0.627
292	-0.635
292	-0.639
293	-0.645
293	-0.633
294	-0.625
294	-0.614
295	-0.61
295	-0.605
296	-0.603
296	-0.6
297	-0.592
297	-0.576
298	-0.569
298	-0.577
298	-0.566
299	-0.557
299	-0.56
300	-0.556
300	-0.554
301	-0.549
301	-0.548
302	-0.557
302	-0.565
303	-0.553
303	-0.538
304	-0.541
304	-0.54
305	-0.541
305	-0.54
305	-0.536
306	-0.519
306	-0.514
307	-0.502
307	-0.502
308	-0.516
308	-0.514
309	-0.515
309	-0.506
310	-0.494
310	-0.491
311	-0.483
311	-0.492
311	-0.49
312	-0.484
312	-0.482
313	-0.467
313	-0.469
314	-0.466
314	-0.467
315	-0.468
315	-0.468
316	-0.465
316	-0.456
317	-0.448
317	-0.445
318	-0.434
318	-0.433
318	-0.43
319	-0.421
319	-0.418
320	-0.412
320	-0.412
321	-0.416
321	-0.417
322	-0.41
322	-0.404
323	-0.405
323	-0.4
324	-0.395
324	-0.387
324	-0.378
325	-0.368
325	-0.351
326	-0.341
326	-0.323
327	-0.309
327	-0.289
328	-0.263
328	-0.244
329	-0.218
329	-0.194
330	-0.17
330	-0.139
330	-0.11
331	-0.08
331	-0.053
332	-0.029
332	-0.007
333	0.014
333	0.039
334	0.058
334	0.075
335	0.091
335	0.105
336	0.118
336	0.131
336	0.14
337	0.151
337	0.159
338	0.167
338	0.172
339	0.18
339	0.185
340	0.19
340	0.195
341	0.198
341	0.201
342	0.204
342	0.207
342	0.21
343	0.212
343	0.215
344	0.216
344	0.217
345	0.219
345	0.22
346	0.221
346	0.221
347	0.222
347	0.223
348	0.223
348	0.224
348	0.224
349	0.224
349	0.224
350	0.225
350	0.225
351	0.225
351	0.225
352	0.225
352	0.225
353	0.225
353	0.225
354	0.225
354	0.225
354	0.225
355	0.225
355	0.225
356	0.224
356	0.224
357	0.224
357	0.224
358	0.224
358	0.223
359	0.223
359	0.223
360	0.223
360	0.223
360	0.223
361	0.222
361	0.223
362	0.223
362	0.223
363	0.223
363	0.223
364	0.222
364	0.222
365	0.222
365	0.222
366	0.222
366	0.222
366	0.222
367	0.222
367	0.222
368	0.222
368	0.222
369	0.222
369	0.222
370	0.222
370	0.221
371	0.221
371	0.221
372	0.221
372	0.221
372	0.221
373	0.221
373	0.221
374	0.221
374	0.221
375	0.22
375	0.221
376	0.221
376	0.221
377	0.221
377	0.221
378	0.221
378	0.221
378	0.221
379	0.221
379	0.221
380	0.22
380	0.22
381	0.22
381	0.22
382	0.22
382	0.22
383	0.22
383	0.219
383	0.219
384	0.219
384	0.219
385	0.219
385	0.219
386	0.219
386	0.219
387	0.219
387	0.219
388	0.219
388	0.219
389	0.219
389	0.219
389	0.219
390	0.219
390	0.219
391	0.219
391	0.219
392	0.219
392	0.218
393	0.218
393	0.218
394	0.218
394	0.218
394	0.217
395	0.217
395	0.217
396	0.217
396	0.217
397	0.217
397	0.217
398	0.217
398	0.217
399	0.217
399	0.217
400	0.217
400	0.217
400	0.217
401	0.217
401	0.216
402	0.216
402	0.216
403	0.216
403	0.215
404	0.215
404	0.215
405	0.215
405	0.215
405	0.215
406	0.215
406	0.215
407	0.215
407	0.215
408	0.215
408	0.215
409	0.215
409	0.215
410	0.215
410	0.215
411	0.215
411	0.215
411	0.215
412	0.215
412	0.215
413	0.215
413	0.215
414	0.215
414	0.214
415	0.214
415	0.214
416	0.214
416	0.214
416	0.213
417	0.213
417	0.213
418	0.213
418	0.213
419	0.214
419	0.214
420	0.214
420	0.214
421	0.214
421	0.214
421	0.214
422	0.214
422	0.214
423	0.214
423	0.214
424	0.213
424	0.213
425	0.213
425	0.212
426	0.212
426	0.211
427	0.211
427	0.211
427	0.211
428	0.211
428	0.211
429	0.211
429	0.211
430	0.211
430	0.211
431	0.211
431	0.211
432	0.211
432	0.211
432	0.211
433	0.21
433	0.21
434	0.21
434	0.21
435	0.21
435	0.21
436	0.209
436	0.209
437	0.209
437	0.209
437	0.209
438	0.209
438	0.209
439	0.209
439	0.209
440	0.209
440	0.209
441	0.209
441	0.209
442	0.209
442	0.209
442	0.209
443	0.209
443	0.209
444	0.209
444	0.209
445	0.208
445	0.208
446	0.209
446	0.209
447	0.209
447	0.209
447	0.209
448	0.209
448	0.209
449	0.209
449	0.209
450	0.21
450	0.209
451	0.209
451	0.209
452	0.209
452	0.209
452	0.209
453	0.209
453	0.209
454	0.208
454	0.208
455	0.208
455	0.208
456	0.208
456	0.208
457	0.207
457	0.207
458	0.207
458	0.207
458	0.208
459	0.208
459	0.207
460	0.207
460	0.207
461	0.207
461	0.207
462	0.207
462	0.207
463	0.207
463	0.207
463	0.207
464	0.207
464	0.207
465	0.207
465	0.207
466	0.207
466	0.208
467	0.208
467	0.208
467	0.208
468	0.208
468	0.208
469	0.208
469	0.209
470	0.209
470	0.209
471	0.209
471	0.209
472	0.209
472	0.21
472	0.21
473	0.21
473	0.21
474	0.21
474	0.21
475	0.21
475	0.211
476	0.211
476	0.211
477	0.211
477	0.211
477	0.211
478	0.211
478	0.211
479	0.211
479	0.212
480	0.212
480	0.212
481	0.212
481	0.213
482	0.213
482	0.214
482	0.214
483	0.215
483	0.215
484	0.215
484	0.215
485	0.215
485	0.215
486	0.216
486	0.216
487	0.217
487	0.217
487	0.218
488	0.218
488	0.219
489	0.22
489	0.222
490	0.222
490	0.223
491	0.224
491	0.225
492	0.225
492	0.226
492	0.226
493	0.227
493	0.228
494	0.229
494	0.229
495	0.23
495	0.23
496	0.231
496	0.232
496	0.233
497	0.234
497	0.235
498	0.236
498	0.237
499	0.238
499	0.239
500	0.24
500	0.241
501	0.242
501	0.243
501	0.243
502	0.244
502	0.245
503	0.246
503	0.247
504	0.248
504	0.249
505	0.25
505	0.251
506	0.253
506	0.254
506	0.254
507	0.255
507	0.256
508	0.257
508	0.259
509	0.26
509	0.261
510	0.262
510	0.263
511	0.264
511	0.266
511	0.267
512	0.268
512	0.269
513	0.27
513	0.271
514	0.272
514	0.273
515	0.274
515	0.275
515	0.276
516	0.277
516	0.278
517	0.28
517	0.281
518	0.282
518	0.283
519	0.284
519	0.285
520	0.286
520	0.287
520	0.288
521	0.29
521	0.291
522	0.292
522	0.293
523	0.294
523	0.295
524	0.296
524	0.296
524	0.297
525	0.297
525	0.298
526	0.298
526	0.299
527	0.3
527	0.3
528	0.301
528	0.301
529	0.302
529	0.304
529	0.304
530	0.306
530	0.306
531	0.307
531	0.307
532	0.308
532	0.309
533	0.309
533	0.31
533	0.31
534	0.31
534	0.31
535	0.31
535	0.311
536	0.311
536	0.311
537	0.311
537	0.311
538	0.311
538	0.311
538	0.312
539	0.312
539	0.313
540	0.313
540	0.313
541	0.313
541	0.313
542	0.313
542	0.313
542	0.313
543	0.313
543	0.313
544	0.313
544	0.312
545	0.313
545	0.313
546	0.313
546	0.313
547	0.312
547	0.312
547	0.312
548	0.313
548	0.313
549	0.312
549	0.312
550	0.312
550	0.312
551	0.312
551	0.313
551	0.314
552	0.314
552	0.315
553	0.315
553	0.315
554	0.315
554	0.315
555	0.315
555	0.315
556	0.315
556	0.315
556	0.315
557	0.314
557	0.314
558	0.313
558	0.313
559	0.313
559	0.313
560	0.313
560	0.312
560	0.312
561	0.312
561	0.312
562	0.311
562	0.311
563	0.31
563	0.31
564	0.31
564	0.31
564	0.31
565	0.31
565	0.31
566	0.31
566	0.311
567	0.311
567	0.311
568	0.31
568	0.31
568	0.31
569	0.309
569	0.309
570	0.308
570	0.307
571	0.307
571	0.306
572	0.306
572	0.305
573	0.305
573	0.305
573	0.304
574	0.304
574	0.304
575	0.304
575	0.305
576	0.305
576	0.305
577	0.304
577	0.305
577	0.305
578	0.306
578	0.306
579	0.307
579	0.307
580	0.306
580	0.305
581	0.304
581	0.304
581	0.304
582	0.305
582	0.305
583	0.305
583	0.305
584	0.304
584	0.303
585	0.304
585	0.305
585	0.305
586	0.305
586	0.305
587	0.305
587	0.304
588	0.304
588	0.304
589	0.304
589	0.305
590	0.304
590	0.305
590	0.306
591	0.306
591	0.305
592	0.304
592	0.304
593	0.304
593	0.304
594	0.304
594	0.303
594	0.304
595	0.304
595	0.303
596	0.303
596	0.305
597	0.306
597	0.306
598	0.305
598	0.305
598	0.305
599	0.305
599	0.304
600	0.303
600	0.302
601	0.302
601	0.301
602	0.3
602	0.301
602	0.3
603	0.301
603	0.302
604	0.303
604	0.303
605	0.304
605	0.304
606	0.304
606	0.304
606	0.304
607	0.303
607	0.303
608	0.302
608	0.301
609	0.3
609	0.3
610	0.3
610	0.3
610	0.3
611	0.3
611	0.301
612	0.302
612	0.302
613	0.302
613	0.302
614	0.302
614	0.3
614	0.3
615	0.299
615	0.299
616	0.298
616	0.297
617	0.296
617	0.295
618	0.294
618	0.294
618	0.294
619	0.294
619	0.295
620	0.295
620	0.294
621	0.294
621	0.294
622	0.293
622	0.293
622	0.292
623	0.292
623	0.292
624	0.291
624	0.29
625	0.29
625	0.289
626	0.288
626	0.288
626	0.287
627	0.287
627	0.286
628	0.285
628	0.283
629	0.282
629	0.28
630	0.278
630	0.277
630	0.275
631	0.273
631	0.271
632	0.268
632	0.266
633	0.263
633	0.261
634	0.258
634	0.256
634	0.253
635	0.25
635	0.247
636	0.243
636	0.24
637	0.236
637	0.232
638	0.228
638	0.223
638	0.219
639	0.214
639	0.208
640	0.203
640	0.198
641	0.192
641	0.187
642	0.182
642	0.177
642	0.171
643	0.166
643	0.16
644	0.153
644	0.147
645	0.141
645	0.134
646	0.127
646	0.12
646	0.112
647	0.105
647	0.098
648	0.09
648	0.083
649	0.074
649	0.066
650	0.058
650	0.05
650	0.041
651	0.03
651	0.017
652	0.001
652	-0.015
653	-0.029
653	-0.042
653	-0.039
654	-0.018
654	-0.007
655	-0.011
655	-0.015
656	-0.022
656	-0.028
657	-0.032
657	-0.036
657	-0.043
658	-0.05
658	-0.079
659	-0.165
659	-0.267
660	-0.313
660	-0.34
661	-0.368
661	-0.4
661	-0.434
662	-0.466
662	-0.5
663	-0.539
663	-0.582
664	-0.626
664	-0.677
665	-0.727
665	-0.786
665	-0.84
666	-0.897
666	-0.957
667	-1.021
667	-1.086
668	-1.157
668	-1.229
669	-1.302
669	-1.374
669	-1.449
670	-1.511
670	-1.525
671	-1.599
671	-1.914
672	-2.162
672	-2.363
672	-2.499
673	-2.595
673	-2.678
674	-2.735
674	-2.756
675	-2.782
675	-2.925
676	-3.131
676	-3.088
676	-2.868
677	-2.669
677	-2.516
678	-2.357
678	-2.107
679	-1.778
679	-1.624
680	-1.523
680	-1.436
680	-1.363
681	-1.315
681	-1.254
682	-1.213
682	-1.176
683	-1.14
683	-1.124
684	-1.103
684	-1.084
684	-1.062
685	-1.038
685	-1.015
686	-0.99
686	-0.975
687	-0.949
687	-0.938
687	-0.917
688	-0.889
688	-0.867
689	-0.846
689	-0.831
690	-0.811
690	-0.797
691	-0.792
691	-0.797
691	-0.812
692	-0.803
692	-0.795
693	-0.791
693	-0.797
694	-0.791
694	-0.786
695	-0.791
695	-0.79
695	-0.773
696	-0.768
696	-0.745
697	-0.746
697	-0.761
698	-0.764
698	-0.758
698	-0.774
699	-0.777
699	-0.773
700	-0.766
700	-0.78
701	-0.78
701	-0.787
702	-0.786
702	-0.773
702	-0.765
703	-0.756
703	-0.744
704	-0.741
704	-0.74
705	-0.751
705	-0.744
705	-0.731
706	-0.734
706	-0.729
707	-0.735
707	-0.729
708	-0.726
708	-0.719
709	-0.722
709	-0.722
709	-0.711
710	-0.72
710	-0.73
711	-0.72
711	-0.72
712	-0.72
712	-0.734
713	-0.734
713	-0.741
713	-0.731
714	-0.73
714	-0.733
715	-0.722
715	-0.708
716	-0.717
716	-0.719
716	-0.712
717	-0.713
717	-0.715
718	-0.707
718	-0.708
719	-0.713
719	-0.716
720	-0.713
720	-0.723
720	-0.715
721	-0.702
721	-0.703
722	-0.691
722	-0.679
723	-0.676
723	-0.679
723	-0.667
724	-0.669
724	-0.67
725	-0.669
725	-0.679
726	-0.692
726	-0.698
727	-0.703
727	-0.718
727	-0.726
728	-0.727
728	-0.732
729	-0.733
729	-0.739
730	-0.746
730	-0.738
730	-0.727
731	-0.709
731	-0.721
732	-0.725
732	-0.724
733	-0.723
733	-0.729
734	-0.722
734	-0.72
734	-0.706
735	-0.705
735	-0.706
736	-0.716
736	-0.702
737	-0.693
737	-0.694
737	-0.705
738	-0.7
738	-0.699
739	-0.701
739	-0.715
740	-0.713
740	-0.713
741	-0.71
741	-0.711
741	-0.717
742	-0.715
742	-0.714
743	-0.72
743	-0.723
744	-0.717
744	-0.707
744	-0.708
745	-0.716
745	-0.706
746	-0.706
746	-0.703
747	-0.703
747	-0.69
748	-0.679
748	-0.685
748	-0.688
749	-0.686
749	-0.688
750	-0.677
750	-0.679
751	-0.681
751	-0.688
751	-0.692
752	-0.697
752	-0.706
753	-0.701
753	-0.696
754	-0.7
754	-0.694
754	-0.706
755	-0.724
755	-0.736
756	-0.726
756	-0.72
757	-0.716
757	-0.711
758	-0.715
758	-0.713
758	-0.716
759	-0.725
759	-0.708
760	-0.699
760	-0.695
761	-0.705
761	-0.705
761	-0.706
762	-0.715
762	-0.714
763	-0.723
763	-0.72
764	-0.717
764	-0.725
764	-0.731
765	-0.72
765	-0.708
766	-0.715
766	-0.723
767	-0.738
767	-0.73
768	-0.723
768	-0.73
768	-0.735
769	-0.753
769	-0.755
770	-0.76
770	-0.773
771	-0.77
771	-0.772
771	-0.771
772	-0.776
772	-0.771
773	-0.772
773	-0.767
774	-0.766
774	-0.767
775	-0.768
775	-0.761
775	-0.768
776	-0.766
776	-0.756
777	-0.767
777	-0.789
778	-0.785
778	-0.802
778	-0.788
779	-0.809
779	-0.817
780	-0.832
780	-0.833
781	-0.845
781	-0.839
781	-0.854
782	-0.856
782	-0.859
783	-0.85
783	-0.85
784	-0.829
784	-0.819
784	-0.828
785	-0.834
785	-0.819
786	-0.826
786	-0.802
787	-0.788
787	-0.788
788	-0.789
788	-0.798
788	-0.811
789	-0.811
789	-0.795
790	-0.774
790	-0.779
791	-0.78
791	-0.798
791	-0.804
792	-0.798
792	-0.774
793	-0.765
793	-0.741
794	-0.746
794	-0.736
794	-0.746
795	-0.741
795	-0.731
796	-0.715
796	-0.723
797	-0.719
797	-0.73
797	-0.738
798	-0.752
798	-0.746
799	-0.757
799	-0.743
800	-0.748
800	-0.741
801	-0.746
801	-0.731
801	-0.741
802	-0.747
802	-0.746
803	-0.747
803	-0.755
804	-0.749
804	-0.76
804	-0.749
805	-0.756
805	-0.744
806	-0.746
806	-0.73
807	-0.729
807	-0.711
807	-0.698
808	-0.69
808	-0.686
809	-0.671
809	-0.68
810	-0.677
810	-0.669
810	-0.667
811	-0.673
811	-0.665
812	-0.666
812	-0.672
813	-0.676
813	-0.671
813	-0.675
814	-0.677
814	-0.682
815	-0.686
815	-0.691
816	-0.686
816	-0.688
817	-0.694
817	-0.71
817	-0.722
818	-0.729
818	-0.733
819	-0.722
819	-0.722
820	-0.734
820	-0.73
820	-0.739
821	-0.738
821	-0.726
822	-0.695
822	-0.674
823	-0.671
823	-0.674
823	-0.673
824	-0.667
824	-0.668
825	-0.659
825	-0.64
826	-0.635
826	-0.644
826	-0.654
827	-0.649
827	-0.646
828	-0.626
828	-0.624
829	-0.614
829	-0.6
829	-0.594
830	-0.604
830	-0.599
831	-0.591
831	-0.582
832	-0.58
832	-0.572
832	-0.579
833	-0.575
833	-0.577
834	-0.573
834	-0.581
835	-0.567
835	-0.563
835	-0.558
836	-0.553
836	-0.55
837	-0.547
837	-0.538
838	-0.528
838	-0.516
839	-0.504
839	-0.492
839	-0.483
840	-0.471
840	-0.467
841	-0.456
841	-0.445
842	-0.438
842	-0.427
842	-0.42
843	-0.413
843	-0.408
844	-0.399
844	-0.39
845	-0.383
845	-0.373
845	-0.359
846	-0.349
846	-0.335
847	-0.324
847	-0.312
848	-0.301
848	-0.29
848	-0.274
849	-0.264
849	-0.252
850	-0.238
850	-0.23
851	-0.222
851	-0.211
851	-0.202
852	-0.185
852	-0.172
853	-0.162
853	-0.155
854	-0.143
854	-0.13
854	-0.12
855	-0.108
855	-0.101
856	-0.09
856	-0.08
857	-0.075
857	-0.065
857	-0.054
858	-0.042
858	-0.035
859	-0.026
859	-0.015
860	-0.005
860	0.008
860	0.017
861	0.026
861	0.035
862	0.043
862	0.051
863	0.057
863	0.067
863	0.073
864	0.078
864	0.084
865	0.09
865	0.095
866	0.1
866	0.104
866	0.108
867	0.111
867	0.116
868	0.119
868	0.122
869	0.126
869	0.129
869	0.131
870	0.133
870	0.136
871	0.138
871	0.14
872	0.141
872	0.142
872	0.143
873	0.143
873	0.143
874	0.143
874	0.143
875	0.142
875	0.14
875	0.139
876	0.138
876	0.136
877	0.135
877	0.134
878	0.132
878	0.13
878	0.128
879	0.127
879	0.126
880	0.125
880	0.125
881	0.125
881	0.124
881	0.124
882	0.124
882	0.123
883	0.122
883	0.12
884	0.12
884	0.119
884	0.118
885	0.117
885	0.116
886	0.116
886	0.115
887	0.114
887	0.114
887	0.113
888	0.113
888	0.113
889	0.113
889	0.113
890	0.113
890	0.113
890	0.113
891	0.113
891	0.113
892	0.113
892	0.113
893	0.113
893	0.114
893	0.114
894	0.113
894	0.113
895	0.112
895	0.112
895	0.112
896	0.111
896	0.11
897	0.109
897	0.108
898	0.107
898	0.106
898	0.106
899	0.106
899	0.107
900	0.107
900	0.107
901	0.108
901	0.109
901	0.109
902	0.11
902	0.111
903	0.111
903	0.112
904	0.112
904	0.113
904	0.113
905	0.114
905	0.115
906	0.115
906	0.115
907	0.115
907	0.115
907	0.114
908	0.114
908	0.113
909	0.112
909	0.112
910	0.111
910	0.111
910	0.11
911	0.11
911	0.111
912	0.111
912	0.112
913	0.112
913	0.113
913	0.114
914	0.114
914	0.115
915	0.115
915	0.116
916	0.116
916	0.116
916	0.117
917	0.117
917	0.117
918	0.117
918	0.116
918	0.116
919	0.116
919	0.116
920	0.116
920	0.116
921	0.116
921	0.116
921	0.116
922	0.116
922	0.116
923	0.115
923	0.115
924	0.115
924	0.114
924	0.114
925	0.113
925	0.112
926	0.111
926	0.11
927	0.109
927	0.108
927	0.107
928	0.106
928	0.106
929	0.105
929	0.105
930	0.104
930	0.103
930	0.103
931	0.102
931	0.102
932	0.101
932	0.1
933	0.099
933	0.098
933	0.096
934	0.095
934	0.094
935	0.093
935	0.092
935	0.091
936	0.09
936	0.089
937	0.088
937	0.088
938	0.088
938	0.088
938	0.088
939	0.089
939	0.089
940	0.09
940	0.091
941	0.091
941	0.092
941	0.092
942	0.093
942	0.093
943	0.093
943	0.093
944	0.092
944	0.092
944	0.091
945	0.091
945	0.089
946	0.088
946	0.087
946	0.086
947	0.085
947	0.085
948	0.085
948	0.085
949	0.085
949	0.086
949	0.086
950	0.087
950	0.087
951	0.088
951	0.089
952	0.089
952	0.091
952	0.091
953	0.092
953	0.093
954	0.093
954	0.094
955	0.095
955	0.096
955	0.097
956	0.098
956	0.099
957	0.098
957	0.099
957	0.099
958	0.099
958	0.099
959	0.1
959	0.1
960	0.1
960	0.099
960	0.099
961	0.099
961	0.099
962	0.1
962	0.099
963	0.1
963	0.099
963	0.099
964	0.099
964	0.099
965	0.1
965	0.099
966	0.099
966	0.099
966	0.099
967	0.098
967	0.098
968	0.097
968	0.096
968	0.096
969	0.095
969	0.095
970	0.095
970	0.094
971	0.094
971	0.095
971	0.095
972	0.095
972	0.095
973	0.095
973	0.095
974	0.095
974	0.095
974	0.095
975	0.094
975	0.094
976	0.093
976	0.092
976	0.092
977	0.091
977	0.091
978	0.091
978	0.091
979	0.091
979	0.09
979	0.09
980	0.09
980	0.09
981	0.09
981	0.089
982	0.089
982	0.089
982	0.088
983	0.088
983	0.088
984	0.088
984	0.088
984	0.089
985	0.089
985	0.089
986	0.088
986	0.088
987	0.088
987	0.088
987	0.087
988	0.087
988	0.086
989	0.085
989	0.084
990	0.083
990	0.082
990	0.081
991	0.081
991	0.081
992	0.08
992	0.08
992	0.08
993	0.08
993	0.08
994	0.08
994	0.08
995	0.08
995	0.08
995	0.079
996	0.079
996	0.078
997	0.077
997	0.077
997	0.077
998	0.077
998	0.077
999	0.077
999	0.077
1000	0.077
1000	0.077
1000	0.078
1001	0.079
1001	0.079
1002	0.079
1002	0.08
1003	0.08
1003	0.08
1003	0.079
1004	0.079
1004	0.079
1005	0.078
1005	0.078
1005	0.077
1006	0.075
1006	0.074
1007	0.073
1007	0.072
1008	0.072
1008	0.071
1008	0.071
1009	0.07
1009	0.07
1010	0.07
1010	0.07
1010	0.07
1011	0.07
1011	0.07
1012	0.069
1012	0.068
1013	0.068
1013	0.067
1013	0.066
1014	0.065
1014	0.064
1015	0.063
1015	0.063
1016	0.062
1016	0.061
1016	0.06
1017	0.059
1017	0.059
1018	0.058
1018	0.057
1018	0.056
1019	0.056
1019	0.055
1020	0.054
1020	0.054
1021	0.053
1021	0.052
1021	0.051
1022	0.051
1022	0.05
1023	0.05
1023	0.049
1023	0.049
1024	0.049
1024	0.049
1025	0.049
1025	0.049
1026	0.049
1026	0.05
1026	0.05
1027	0.051
1027	0.051
1028	0.051
1028	0.051
1028	0.051
1029	0.051
1029	0.05
1030	0.05
1030	0.049
1031	0.049
1031	0.049
1031	0.048
1032	0.048
1032	0.048
1033	0.048
1033	0.048
1033	0.048
1034	0.048
1034	0.048
1035	0.049
1035	0.048
1036	0.048
1036	0.049
1036	0.049
1037	0.048
1037	0.049
1038	0.049
1038	0.049
1039	0.049
1039	0.049
1039	0.05
1040	0.05
1040	0.051
1041	0.051
1041	0.051
1041	0.051
1042	0.051
1042	0.05
1043	0.05
1043	0.049
1044	0.049
1044	0.048
1044	0.047
1045	0.046
1045	0.046
1046	0.045
1046	0.044
1046	0.044
1047	0.044
1047	0.044
1048	0.045
1048	0.045
1049	0.045
1049	0.046
1049	0.046
1050	0.046
1050	0.046
1051	0.046
1051	0.046
1051	0.047
1052	0.047
1052	0.047
1053	0.047
1053	0.047
1053	0.047
1054	0.047
1054	0.047
1055	0.047
1055	0.046
1056	0.045
1056	0.044
1056	0.043
1057	0.042
1057	0.042
1058	0.042
1058	0.041
1058	0.041
1059	0.04
1059	0.039
1060	0.039
1060	0.039
1061	0.038
1061	0.038
1061	0.038
1062	0.038
1062	0.038
1063	0.038
1063	0.038
1063	0.038
1064	0.039
1064	0.039
1065	0.039
1065	0.038
1066	0.038
1066	0.038
1066	0.037
1067	0.037
1067	0.037
1068	0.036
1068	0.036
1068	0.035
1069	0.034
1069	0.034
1070	0.033
1070	0.033
1071	0.033
1071	0.033
1071	0.032
1072	0.032
1072	0.032
1073	0.031
1073	0.032
1073	0.031
1074	0.032
1074	0.032
1075	0.032
1075	0.031
1076	0.03
1076	0.03
1076	0.029
1077	0.029
1077	0.028
1078	0.027
1078	0.026
1078	0.025
1079	0.024
1079	0.023
1080	0.022
1080	0.022
1080	0.021
1081	0.021
1081	0.02
1082	0.02
1082	0.019
1083	0.018
1083	0.017
1083	0.016
1084	0.016
1084	0.015
1085	0.014
1085	0.013
1085	0.013
1086	0.012
1086	0.011
1087	0.011
1087	0.011
1088	0.01
1088	0.01
1088	0.009
1089	0.008
1089	0.007
1090	0.006
1090	0.005
1090	0.004
1091	0.003
1091	0.003
1092	0.001
1092	0.002
1092	0.001
1093	-0
1093	0
1094	0
1094	-0
1095	-0.002
1095	-0.002
1095	-0.003
1096	-0.005
1096	-0.007
1097	-0.007
1097	-0.009
1097	-0.009
1098	-0.012
1098	-0.014
1099	-0.014
1099	-0.015
1100	-0.016
1100	-0.017
1100	-0.019
1101	-0.021
1101	-0.024
1102	-0.026
1102	-0.028
1102	-0.029
1103	-0.031
1103	-0.034
1104	-0.036
1104	-0.039
1104	-0.041
1105	-0.044
1105	-0.047
1106	-0.052
1106	-0.054
1107	-0.06
1107	-0.064
1107	-0.069
1108	-0.072
1108	-0.075
1109	-0.079
1109	-0.083
1109	-0.087
1110	-0.086
1110	-0.089
1111	-0.097
1111	-0.094
