Data from 17C_3.2A_35min_2sec_int_Absorbance__556__02118.txt Node

Date: Mon Jun 19 17:54:17 CEST 2023
User: Marek
Spectrometer: MAYP115816
Trigger mode: 0
Integration Time (sec): 2.500000E-1
Scans to average: 10
Electric dark correction enabled: true
Nonlinearity correction enabled: true
Boxcar width: 5
XAxis mode: Wavelengths
Number of Pixels in Spectrum: 2068
>>>>>Begin Spectral Data<<<<<
199	-0.727
199	-0.74
200	-0.644
200	-0.596
201	-0.562
201	-0.548
202	-0.532
202	-0.517
203	-0.508
203	-0.504
204	-0.49
204	-0.477
205	-0.454
205	-0.449
205	-0.449
206	-0.45
206	-0.454
207	-0.445
207	-0.448
208	-0.45
208	-0.451
209	-0.447
209	-0.448
210	-0.453
210	-0.46
211	-0.458
211	-0.46
212	-0.461
212	-0.468
213	-0.468
213	-0.469
213	-0.471
214	-0.467
214	-0.467
215	-0.466
215	-0.471
216	-0.474
216	-0.482
217	-0.477
217	-0.482
218	-0.486
218	-0.486
219	-0.49
219	-0.502
220	-0.506
220	-0.517
221	-0.514
221	-0.517
221	-0.508
222	-0.507
222	-0.507
223	-0.51
223	-0.513
224	-0.517
224	-0.515
225	-0.508
225	-0.501
226	-0.506
226	-0.507
227	-0.513
227	-0.521
228	-0.522
228	-0.523
229	-0.523
229	-0.515
229	-0.511
230	-0.518
230	-0.521
231	-0.514
231	-0.505
232	-0.501
232	-0.5
233	-0.493
233	-0.492
234	-0.491
234	-0.49
235	-0.493
235	-0.497
236	-0.497
236	-0.502
236	-0.51
237	-0.513
237	-0.515
238	-0.525
238	-0.523
239	-0.524
239	-0.531
240	-0.532
240	-0.532
241	-0.535
241	-0.533
242	-0.537
242	-0.535
243	-0.531
243	-0.531
243	-0.538
244	-0.537
244	-0.538
245	-0.55
245	-0.548
246	-0.552
246	-0.558
247	-0.561
247	-0.564
248	-0.573
248	-0.57
249	-0.571
249	-0.58
250	-0.577
250	-0.573
250	-0.575
251	-0.574
251	-0.571
252	-0.572
252	-0.565
253	-0.567
253	-0.581
254	-0.579
254	-0.577
255	-0.584
255	-0.579
256	-0.576
256	-0.586
257	-0.583
257	-0.581
258	-0.596
258	-0.59
258	-0.583
259	-0.581
259	-0.589
260	-0.588
260	-0.594
261	-0.606
261	-0.596
262	-0.595
262	-0.596
263	-0.585
263	-0.581
264	-0.581
264	-0.59
265	-0.583
265	-0.593
265	-0.595
266	-0.592
266	-0.591
267	-0.604
267	-0.611
268	-0.627
268	-0.638
269	-0.637
269	-0.632
270	-0.639
270	-0.641
271	-0.64
271	-0.645
272	-0.649
272	-0.644
272	-0.636
273	-0.635
273	-0.643
274	-0.646
274	-0.65
275	-0.649
275	-0.642
276	-0.647
276	-0.641
277	-0.646
277	-0.664
278	-0.675
278	-0.667
278	-0.661
279	-0.666
279	-0.676
280	-0.675
280	-0.677
281	-0.673
281	-0.68
282	-0.671
282	-0.673
283	-0.663
283	-0.666
284	-0.66
284	-0.65
285	-0.647
285	-0.645
285	-0.64
286	-0.649
286	-0.644
287	-0.641
287	-0.625
288	-0.617
288	-0.626
289	-0.641
289	-0.649
290	-0.637
290	-0.636
291	-0.634
291	-0.628
292	-0.631
292	-0.635
292	-0.639
293	-0.645
293	-0.635
294	-0.624
294	-0.613
295	-0.613
295	-0.608
296	-0.607
296	-0.604
297	-0.6
297	-0.586
298	-0.577
298	-0.586
298	-0.573
299	-0.565
299	-0.568
300	-0.562
300	-0.558
301	-0.553
301	-0.551
302	-0.557
302	-0.566
303	-0.556
303	-0.54
304	-0.544
304	-0.543
305	-0.543
305	-0.54
305	-0.539
306	-0.524
306	-0.52
307	-0.508
307	-0.506
308	-0.52
308	-0.52
309	-0.523
309	-0.514
310	-0.503
310	-0.502
311	-0.495
311	-0.502
311	-0.497
312	-0.491
312	-0.489
313	-0.475
313	-0.477
314	-0.473
314	-0.475
315	-0.476
315	-0.475
316	-0.47
316	-0.461
317	-0.454
317	-0.451
318	-0.441
318	-0.438
318	-0.434
319	-0.425
319	-0.421
320	-0.415
320	-0.416
321	-0.422
321	-0.421
322	-0.415
322	-0.41
323	-0.41
323	-0.405
324	-0.395
324	-0.387
324	-0.377
325	-0.366
325	-0.348
326	-0.332
326	-0.315
327	-0.301
327	-0.279
328	-0.254
328	-0.235
329	-0.214
329	-0.19
330	-0.163
330	-0.134
330	-0.107
331	-0.081
331	-0.054
332	-0.03
332	-0.01
333	0.012
333	0.036
334	0.054
334	0.071
335	0.086
335	0.1
336	0.112
336	0.125
336	0.134
337	0.144
337	0.153
338	0.16
338	0.165
339	0.172
339	0.178
340	0.182
340	0.186
341	0.19
341	0.193
342	0.197
342	0.2
342	0.203
343	0.205
343	0.208
344	0.209
344	0.21
345	0.212
345	0.213
346	0.214
346	0.214
347	0.215
347	0.215
348	0.216
348	0.217
348	0.217
349	0.217
349	0.218
350	0.218
350	0.218
351	0.218
351	0.218
352	0.218
352	0.218
353	0.218
353	0.218
354	0.218
354	0.217
354	0.217
355	0.217
355	0.217
356	0.217
356	0.217
357	0.216
357	0.215
358	0.215
358	0.215
359	0.215
359	0.215
360	0.214
360	0.214
360	0.214
361	0.214
361	0.214
362	0.214
362	0.214
363	0.215
363	0.214
364	0.215
364	0.214
365	0.214
365	0.214
366	0.215
366	0.215
366	0.215
367	0.215
367	0.215
368	0.214
368	0.215
369	0.215
369	0.215
370	0.214
370	0.214
371	0.214
371	0.214
372	0.214
372	0.214
372	0.214
373	0.214
373	0.214
374	0.214
374	0.214
375	0.214
375	0.214
376	0.214
376	0.214
377	0.214
377	0.214
378	0.214
378	0.214
378	0.213
379	0.213
379	0.213
380	0.213
380	0.213
381	0.213
381	0.213
382	0.212
382	0.212
383	0.212
383	0.212
383	0.212
384	0.212
384	0.212
385	0.212
385	0.212
386	0.212
386	0.212
387	0.212
387	0.212
388	0.212
388	0.212
389	0.212
389	0.212
389	0.212
390	0.212
390	0.212
391	0.212
391	0.212
392	0.212
392	0.212
393	0.212
393	0.212
394	0.211
394	0.211
394	0.211
395	0.21
395	0.21
396	0.21
396	0.21
397	0.21
397	0.21
398	0.21
398	0.21
399	0.21
399	0.21
400	0.21
400	0.21
400	0.21
401	0.21
401	0.209
402	0.209
402	0.209
403	0.209
403	0.209
404	0.209
404	0.209
405	0.209
405	0.209
405	0.209
406	0.209
406	0.209
407	0.208
407	0.208
408	0.208
408	0.208
409	0.208
409	0.208
410	0.208
410	0.208
411	0.208
411	0.208
411	0.208
412	0.208
412	0.208
413	0.208
413	0.208
414	0.208
414	0.208
415	0.208
415	0.208
416	0.207
416	0.207
416	0.207
417	0.207
417	0.207
418	0.207
418	0.207
419	0.207
419	0.207
420	0.207
420	0.207
421	0.207
421	0.207
421	0.207
422	0.207
422	0.207
423	0.207
423	0.207
424	0.206
424	0.206
425	0.206
425	0.206
426	0.205
426	0.205
427	0.205
427	0.205
427	0.204
428	0.205
428	0.205
429	0.205
429	0.205
430	0.205
430	0.204
431	0.204
431	0.204
432	0.204
432	0.204
432	0.204
433	0.204
433	0.204
434	0.203
434	0.203
435	0.203
435	0.203
436	0.203
436	0.203
437	0.203
437	0.203
437	0.203
438	0.203
438	0.203
439	0.203
439	0.203
440	0.203
440	0.203
441	0.203
441	0.202
442	0.202
442	0.202
442	0.202
443	0.202
443	0.202
444	0.202
444	0.202
445	0.202
445	0.202
446	0.202
446	0.202
447	0.202
447	0.203
447	0.203
448	0.203
448	0.203
449	0.203
449	0.203
450	0.203
450	0.203
451	0.203
451	0.203
452	0.203
452	0.203
452	0.203
453	0.202
453	0.202
454	0.202
454	0.201
455	0.201
455	0.201
456	0.201
456	0.201
457	0.201
457	0.201
458	0.201
458	0.201
458	0.201
459	0.201
459	0.201
460	0.201
460	0.201
461	0.2
461	0.2
462	0.2
462	0.201
463	0.201
463	0.201
463	0.201
464	0.201
464	0.201
465	0.201
465	0.201
466	0.201
466	0.202
467	0.202
467	0.202
467	0.202
468	0.202
468	0.202
469	0.202
469	0.202
470	0.203
470	0.203
471	0.203
471	0.203
472	0.203
472	0.203
472	0.203
473	0.203
473	0.203
474	0.203
474	0.203
475	0.204
475	0.204
476	0.204
476	0.204
477	0.204
477	0.204
477	0.204
478	0.205
478	0.205
479	0.205
479	0.205
480	0.205
480	0.205
481	0.205
481	0.206
482	0.206
482	0.207
482	0.207
483	0.207
483	0.208
484	0.208
484	0.208
485	0.208
485	0.208
486	0.208
486	0.209
487	0.209
487	0.21
487	0.21
488	0.211
488	0.211
489	0.213
489	0.214
490	0.215
490	0.216
491	0.216
491	0.217
492	0.218
492	0.218
492	0.219
493	0.219
493	0.22
494	0.221
494	0.221
495	0.222
495	0.223
496	0.224
496	0.225
496	0.226
497	0.227
497	0.227
498	0.228
498	0.229
499	0.23
499	0.231
500	0.232
500	0.233
501	0.234
501	0.234
501	0.235
502	0.235
502	0.236
503	0.237
503	0.238
504	0.239
504	0.24
505	0.241
505	0.242
506	0.243
506	0.244
506	0.245
507	0.246
507	0.247
508	0.248
508	0.249
509	0.25
509	0.251
510	0.252
510	0.253
511	0.254
511	0.256
511	0.257
512	0.258
512	0.259
513	0.26
513	0.261
514	0.262
514	0.263
515	0.264
515	0.265
515	0.266
516	0.267
516	0.268
517	0.269
517	0.27
518	0.271
518	0.272
519	0.273
519	0.274
520	0.275
520	0.276
520	0.277
521	0.278
521	0.279
522	0.28
522	0.282
523	0.283
523	0.284
524	0.285
524	0.285
524	0.286
525	0.286
525	0.287
526	0.287
526	0.288
527	0.289
527	0.289
528	0.29
528	0.29
529	0.291
529	0.292
529	0.293
530	0.294
530	0.295
531	0.296
531	0.296
532	0.297
532	0.297
533	0.298
533	0.298
533	0.298
534	0.298
534	0.298
535	0.299
535	0.299
536	0.299
536	0.299
537	0.299
537	0.299
538	0.299
538	0.299
538	0.3
539	0.3
539	0.3
540	0.3
540	0.3
541	0.301
541	0.301
542	0.301
542	0.301
542	0.301
543	0.301
543	0.301
544	0.301
544	0.301
545	0.301
545	0.302
546	0.302
546	0.301
547	0.3
547	0.3
547	0.3
548	0.301
548	0.3
549	0.3
549	0.3
550	0.3
550	0.3
551	0.301
551	0.301
551	0.302
552	0.303
552	0.304
553	0.304
553	0.305
554	0.305
554	0.304
555	0.304
555	0.304
556	0.304
556	0.304
556	0.303
557	0.303
557	0.303
558	0.302
558	0.302
559	0.302
559	0.302
560	0.301
560	0.301
560	0.301
561	0.301
561	0.301
562	0.3
562	0.299
563	0.299
563	0.299
564	0.299
564	0.299
564	0.299
565	0.3
565	0.3
566	0.3
566	0.3
567	0.3
567	0.3
568	0.3
568	0.299
568	0.299
569	0.299
569	0.298
570	0.297
570	0.296
571	0.296
571	0.296
572	0.296
572	0.295
573	0.295
573	0.295
573	0.294
574	0.294
574	0.294
575	0.294
575	0.295
576	0.295
576	0.294
577	0.294
577	0.294
577	0.295
578	0.295
578	0.296
579	0.296
579	0.297
580	0.296
580	0.295
581	0.294
581	0.294
581	0.295
582	0.295
582	0.295
583	0.295
583	0.295
584	0.294
584	0.293
585	0.294
585	0.295
585	0.295
586	0.295
586	0.295
587	0.295
587	0.295
588	0.294
588	0.294
589	0.295
589	0.295
590	0.295
590	0.295
590	0.296
591	0.296
591	0.295
592	0.295
592	0.294
593	0.295
593	0.295
594	0.294
594	0.294
594	0.294
595	0.295
595	0.294
596	0.295
596	0.296
597	0.297
597	0.297
598	0.297
598	0.297
598	0.297
599	0.296
599	0.295
600	0.294
600	0.294
601	0.294
601	0.293
602	0.292
602	0.292
602	0.292
603	0.293
603	0.294
604	0.294
604	0.295
605	0.296
605	0.296
606	0.296
606	0.295
606	0.295
607	0.295
607	0.294
608	0.294
608	0.293
609	0.292
609	0.292
610	0.292
610	0.292
610	0.292
611	0.293
611	0.293
612	0.294
612	0.295
613	0.295
613	0.296
614	0.295
614	0.294
614	0.293
615	0.293
615	0.292
616	0.292
616	0.291
617	0.29
617	0.289
618	0.288
618	0.287
618	0.287
619	0.287
619	0.288
620	0.288
620	0.288
621	0.287
621	0.287
622	0.287
622	0.286
622	0.286
623	0.285
623	0.286
624	0.285
624	0.284
625	0.284
625	0.284
626	0.283
626	0.282
626	0.282
627	0.281
627	0.28
628	0.279
628	0.278
629	0.277
629	0.275
630	0.274
630	0.272
630	0.27
631	0.268
631	0.266
632	0.264
632	0.262
633	0.259
633	0.257
634	0.254
634	0.252
634	0.25
635	0.247
635	0.244
636	0.241
636	0.237
637	0.234
637	0.23
638	0.225
638	0.221
638	0.217
639	0.212
639	0.207
640	0.202
640	0.196
641	0.191
641	0.186
642	0.181
642	0.176
642	0.171
643	0.166
643	0.16
644	0.154
644	0.147
645	0.141
645	0.134
646	0.128
646	0.121
646	0.114
647	0.107
647	0.1
648	0.093
648	0.085
649	0.077
649	0.069
650	0.061
650	0.053
650	0.043
651	0.033
651	0.02
652	0.004
652	-0.012
653	-0.026
653	-0.039
653	-0.036
654	-0.016
654	-0.006
655	-0.009
655	-0.014
656	-0.02
656	-0.027
657	-0.032
657	-0.036
657	-0.043
658	-0.049
658	-0.079
659	-0.165
659	-0.266
660	-0.312
660	-0.339
661	-0.368
661	-0.398
661	-0.432
662	-0.464
662	-0.498
663	-0.536
663	-0.578
664	-0.62
664	-0.671
665	-0.72
665	-0.778
665	-0.833
666	-0.889
666	-0.95
667	-1.015
667	-1.079
668	-1.15
668	-1.222
669	-1.296
669	-1.368
669	-1.443
670	-1.505
670	-1.519
671	-1.6
671	-1.925
672	-2.17
672	-2.369
672	-2.503
673	-2.599
673	-2.681
674	-2.737
674	-2.758
675	-2.785
675	-2.927
676	-3.133
676	-3.087
676	-2.866
677	-2.668
677	-2.513
678	-2.354
678	-2.101
679	-1.772
679	-1.617
680	-1.517
680	-1.431
680	-1.357
681	-1.309
681	-1.25
682	-1.209
682	-1.17
683	-1.135
683	-1.118
684	-1.096
684	-1.077
684	-1.055
685	-1.031
685	-1.008
686	-0.984
686	-0.968
687	-0.941
687	-0.931
687	-0.91
688	-0.884
688	-0.864
689	-0.843
689	-0.83
690	-0.809
690	-0.797
691	-0.789
691	-0.794
691	-0.808
692	-0.799
692	-0.79
693	-0.786
693	-0.793
694	-0.787
694	-0.779
695	-0.785
695	-0.784
695	-0.767
696	-0.764
696	-0.744
697	-0.745
697	-0.76
698	-0.761
698	-0.753
698	-0.766
699	-0.769
699	-0.765
700	-0.756
700	-0.771
701	-0.77
701	-0.775
702	-0.774
702	-0.763
702	-0.758
703	-0.749
703	-0.742
704	-0.739
704	-0.738
705	-0.751
705	-0.744
705	-0.732
706	-0.734
706	-0.729
707	-0.732
707	-0.727
708	-0.725
708	-0.718
709	-0.72
709	-0.722
709	-0.712
710	-0.722
710	-0.73
711	-0.719
711	-0.721
712	-0.722
712	-0.734
713	-0.733
713	-0.74
713	-0.729
714	-0.727
714	-0.729
715	-0.717
715	-0.706
716	-0.715
716	-0.715
716	-0.708
717	-0.709
717	-0.711
718	-0.703
718	-0.705
719	-0.711
719	-0.711
720	-0.708
720	-0.718
720	-0.71
721	-0.701
721	-0.701
722	-0.689
722	-0.678
723	-0.675
723	-0.677
723	-0.664
724	-0.667
724	-0.67
725	-0.669
725	-0.678
726	-0.69
726	-0.695
727	-0.699
727	-0.714
727	-0.723
728	-0.725
728	-0.733
729	-0.731
729	-0.736
730	-0.742
730	-0.737
730	-0.726
731	-0.709
731	-0.721
732	-0.725
732	-0.725
733	-0.723
733	-0.727
734	-0.722
734	-0.722
734	-0.71
735	-0.707
735	-0.709
736	-0.718
736	-0.705
737	-0.696
737	-0.697
737	-0.708
738	-0.704
738	-0.703
739	-0.703
739	-0.716
740	-0.714
740	-0.713
741	-0.708
741	-0.706
741	-0.711
742	-0.706
742	-0.704
743	-0.711
743	-0.717
744	-0.71
744	-0.697
744	-0.699
745	-0.707
745	-0.703
746	-0.704
746	-0.701
747	-0.701
747	-0.691
748	-0.68
748	-0.685
748	-0.688
749	-0.689
749	-0.69
750	-0.678
750	-0.679
751	-0.683
751	-0.693
751	-0.698
752	-0.7
752	-0.709
753	-0.703
753	-0.699
754	-0.702
754	-0.695
754	-0.709
755	-0.723
755	-0.734
756	-0.723
756	-0.719
757	-0.717
757	-0.713
758	-0.718
758	-0.716
758	-0.72
759	-0.726
759	-0.71
760	-0.705
760	-0.699
761	-0.709
761	-0.705
761	-0.703
762	-0.71
762	-0.709
763	-0.719
763	-0.715
764	-0.713
764	-0.719
764	-0.721
765	-0.713
765	-0.7
766	-0.709
766	-0.717
767	-0.731
767	-0.724
768	-0.715
768	-0.725
768	-0.731
769	-0.749
769	-0.752
770	-0.759
770	-0.772
771	-0.768
771	-0.77
771	-0.772
772	-0.777
772	-0.777
773	-0.776
773	-0.773
774	-0.771
774	-0.774
775	-0.773
775	-0.766
775	-0.774
776	-0.775
776	-0.763
777	-0.77
777	-0.787
778	-0.784
778	-0.802
778	-0.79
779	-0.81
779	-0.82
780	-0.834
780	-0.834
781	-0.847
781	-0.845
781	-0.859
782	-0.863
782	-0.864
783	-0.853
783	-0.85
784	-0.829
784	-0.816
784	-0.825
785	-0.829
785	-0.814
786	-0.819
786	-0.795
787	-0.779
787	-0.783
788	-0.784
788	-0.794
788	-0.804
789	-0.805
789	-0.789
790	-0.771
790	-0.773
791	-0.772
791	-0.79
791	-0.795
792	-0.788
792	-0.765
793	-0.755
793	-0.732
794	-0.739
794	-0.728
794	-0.738
795	-0.734
795	-0.728
796	-0.712
796	-0.72
797	-0.714
797	-0.726
797	-0.734
798	-0.746
798	-0.74
799	-0.751
799	-0.738
800	-0.745
800	-0.738
801	-0.743
801	-0.73
801	-0.74
802	-0.749
802	-0.749
803	-0.75
803	-0.758
804	-0.752
804	-0.762
804	-0.749
805	-0.755
805	-0.745
806	-0.747
806	-0.734
807	-0.731
807	-0.712
807	-0.701
808	-0.692
808	-0.688
809	-0.671
809	-0.68
810	-0.678
810	-0.669
810	-0.667
811	-0.673
811	-0.664
812	-0.664
812	-0.67
813	-0.675
813	-0.669
813	-0.679
814	-0.679
814	-0.684
815	-0.689
815	-0.691
816	-0.684
816	-0.692
817	-0.7
817	-0.717
817	-0.732
818	-0.739
818	-0.738
819	-0.73
819	-0.729
820	-0.738
820	-0.736
820	-0.745
821	-0.742
821	-0.729
822	-0.696
822	-0.67
823	-0.669
823	-0.674
823	-0.671
824	-0.667
824	-0.67
825	-0.663
825	-0.646
826	-0.641
826	-0.649
826	-0.66
827	-0.656
827	-0.652
828	-0.629
828	-0.631
829	-0.619
829	-0.603
829	-0.595
830	-0.604
830	-0.6
831	-0.592
831	-0.579
832	-0.577
832	-0.569
832	-0.577
833	-0.569
833	-0.571
834	-0.571
834	-0.578
835	-0.564
835	-0.559
835	-0.555
836	-0.552
836	-0.547
837	-0.544
837	-0.534
838	-0.525
838	-0.513
839	-0.497
839	-0.485
839	-0.477
840	-0.465
840	-0.46
841	-0.451
841	-0.442
842	-0.437
842	-0.426
842	-0.422
843	-0.415
843	-0.41
844	-0.402
844	-0.394
845	-0.385
845	-0.378
845	-0.363
846	-0.353
846	-0.338
847	-0.327
847	-0.314
848	-0.304
848	-0.293
848	-0.273
849	-0.261
849	-0.249
850	-0.233
850	-0.227
851	-0.217
851	-0.206
851	-0.196
852	-0.18
852	-0.166
853	-0.158
853	-0.153
854	-0.142
854	-0.13
854	-0.118
855	-0.107
855	-0.1
856	-0.089
856	-0.08
857	-0.073
857	-0.064
857	-0.052
858	-0.04
858	-0.032
859	-0.023
859	-0.012
860	-0.002
860	0.011
860	0.02
861	0.029
861	0.038
862	0.046
862	0.053
863	0.061
863	0.07
863	0.076
864	0.081
864	0.088
865	0.094
865	0.1
866	0.105
866	0.109
866	0.113
867	0.117
867	0.121
868	0.124
868	0.128
869	0.131
869	0.134
869	0.136
870	0.138
870	0.14
871	0.142
871	0.144
872	0.145
872	0.145
872	0.146
873	0.146
873	0.147
874	0.146
874	0.146
875	0.145
875	0.144
875	0.143
876	0.142
876	0.14
877	0.139
877	0.138
878	0.136
878	0.134
878	0.132
879	0.13
879	0.129
880	0.128
880	0.128
881	0.128
881	0.127
881	0.127
882	0.127
882	0.125
883	0.124
883	0.123
884	0.122
884	0.121
884	0.12
885	0.119
885	0.118
886	0.118
886	0.117
887	0.117
887	0.116
887	0.116
888	0.117
888	0.116
889	0.116
889	0.117
890	0.117
890	0.117
890	0.116
891	0.116
891	0.117
892	0.117
892	0.117
893	0.117
893	0.117
893	0.117
894	0.117
894	0.117
895	0.117
895	0.116
895	0.116
896	0.115
896	0.114
897	0.113
897	0.112
898	0.111
898	0.11
898	0.11
899	0.11
899	0.11
900	0.111
900	0.111
901	0.112
901	0.112
901	0.113
902	0.114
902	0.115
903	0.115
903	0.115
904	0.116
904	0.116
904	0.117
905	0.118
905	0.118
906	0.118
906	0.118
907	0.118
907	0.118
907	0.117
908	0.117
908	0.116
909	0.116
909	0.115
910	0.114
910	0.114
910	0.113
911	0.113
911	0.114
912	0.114
912	0.115
913	0.115
913	0.116
913	0.117
914	0.117
914	0.118
915	0.119
915	0.119
916	0.12
916	0.12
916	0.12
917	0.12
917	0.12
918	0.12
918	0.12
918	0.119
919	0.119
919	0.119
920	0.119
920	0.119
921	0.119
921	0.119
921	0.119
922	0.119
922	0.119
923	0.119
923	0.119
924	0.119
924	0.119
924	0.118
925	0.117
925	0.116
926	0.115
926	0.114
927	0.113
927	0.112
927	0.111
928	0.11
928	0.11
929	0.109
929	0.109
930	0.108
930	0.107
930	0.107
931	0.107
931	0.106
932	0.106
932	0.105
933	0.104
933	0.103
933	0.101
934	0.1
934	0.099
935	0.098
935	0.097
935	0.096
936	0.095
936	0.094
937	0.093
937	0.092
938	0.092
938	0.093
938	0.093
939	0.093
939	0.093
940	0.094
940	0.094
941	0.094
941	0.095
941	0.096
942	0.096
942	0.096
943	0.097
943	0.097
944	0.096
944	0.095
944	0.094
945	0.094
945	0.093
946	0.092
946	0.09
946	0.089
947	0.089
947	0.088
948	0.088
948	0.088
949	0.088
949	0.089
949	0.089
950	0.09
950	0.09
951	0.092
951	0.092
952	0.093
952	0.094
952	0.094
953	0.095
953	0.096
954	0.096
954	0.097
955	0.098
955	0.099
955	0.1
956	0.101
956	0.102
957	0.103
957	0.103
957	0.103
958	0.103
958	0.104
959	0.104
959	0.104
960	0.105
960	0.105
960	0.105
961	0.105
961	0.105
962	0.105
962	0.105
963	0.105
963	0.105
963	0.105
964	0.105
964	0.105
965	0.105
965	0.104
966	0.104
966	0.104
966	0.103
967	0.103
967	0.102
968	0.101
968	0.101
968	0.1
969	0.099
969	0.099
970	0.099
970	0.098
971	0.098
971	0.098
971	0.099
972	0.099
972	0.099
973	0.099
973	0.099
974	0.099
974	0.098
974	0.098
975	0.098
975	0.097
976	0.097
976	0.096
976	0.096
977	0.096
977	0.096
978	0.096
978	0.096
979	0.096
979	0.095
979	0.095
980	0.095
980	0.094
981	0.094
981	0.094
982	0.094
982	0.093
982	0.093
983	0.092
983	0.092
984	0.092
984	0.092
984	0.093
985	0.093
985	0.093
986	0.093
986	0.093
987	0.092
987	0.092
987	0.091
988	0.091
988	0.09
989	0.089
989	0.088
990	0.088
990	0.087
990	0.086
991	0.086
991	0.085
992	0.085
992	0.085
992	0.084
993	0.084
993	0.084
994	0.084
994	0.083
995	0.083
995	0.082
995	0.082
996	0.081
996	0.081
997	0.08
997	0.08
997	0.08
998	0.08
998	0.08
999	0.081
999	0.081
1000	0.081
1000	0.081
1000	0.082
1001	0.082
1001	0.083
1002	0.083
1002	0.083
1003	0.084
1003	0.083
1003	0.083
1004	0.083
1004	0.082
1005	0.082
1005	0.081
1005	0.08
1006	0.079
1006	0.078
1007	0.077
1007	0.076
1008	0.076
1008	0.075
1008	0.075
1009	0.074
1009	0.074
1010	0.074
1010	0.074
1010	0.074
1011	0.074
1011	0.074
1012	0.073
1012	0.073
1013	0.072
1013	0.071
1013	0.07
1014	0.069
1014	0.068
1015	0.067
1015	0.066
1016	0.065
1016	0.064
1016	0.064
1017	0.063
1017	0.062
1018	0.061
1018	0.061
1018	0.06
1019	0.06
1019	0.059
1020	0.059
1020	0.058
1021	0.057
1021	0.056
1021	0.055
1022	0.054
1022	0.053
1023	0.053
1023	0.052
1023	0.052
1024	0.052
1024	0.051
1025	0.051
1025	0.051
1026	0.052
1026	0.053
1026	0.053
1027	0.053
1027	0.054
1028	0.054
1028	0.054
1028	0.054
1029	0.054
1029	0.054
1030	0.053
1030	0.052
1031	0.052
1031	0.052
1031	0.051
1032	0.051
1032	0.051
1033	0.051
1033	0.051
1033	0.051
1034	0.051
1034	0.051
1035	0.052
1035	0.052
1036	0.051
1036	0.052
1036	0.052
1037	0.051
1037	0.051
1038	0.051
1038	0.052
1039	0.052
1039	0.052
1039	0.052
1040	0.053
1040	0.053
1041	0.054
1041	0.054
1041	0.054
1042	0.054
1042	0.054
1043	0.054
1043	0.053
1044	0.052
1044	0.052
1044	0.051
1045	0.05
1045	0.049
1046	0.049
1046	0.048
1046	0.048
1047	0.048
1047	0.048
1048	0.048
1048	0.049
1049	0.049
1049	0.049
1049	0.05
1050	0.05
1050	0.05
1051	0.05
1051	0.051
1051	0.051
1052	0.051
1052	0.051
1053	0.051
1053	0.051
1053	0.051
1054	0.051
1054	0.051
1055	0.051
1055	0.05
1056	0.05
1056	0.049
1056	0.048
1057	0.047
1057	0.046
1058	0.046
1058	0.045
1058	0.045
1059	0.044
1059	0.043
1060	0.043
1060	0.042
1061	0.042
1061	0.042
1061	0.042
1062	0.042
1062	0.042
1063	0.042
1063	0.042
1063	0.042
1064	0.042
1064	0.042
1065	0.042
1065	0.042
1066	0.041
1066	0.041
1066	0.041
1067	0.04
1067	0.04
1068	0.039
1068	0.039
1068	0.038
1069	0.038
1069	0.037
1070	0.037
1070	0.037
1071	0.037
1071	0.037
1071	0.036
1072	0.036
1072	0.036
1073	0.035
1073	0.035
1073	0.035
1074	0.035
1074	0.036
1075	0.036
1075	0.035
1076	0.035
1076	0.035
1076	0.034
1077	0.034
1077	0.034
1078	0.032
1078	0.032
1078	0.031
1079	0.03
1079	0.029
1080	0.028
1080	0.028
1080	0.026
1081	0.026
1081	0.025
1082	0.025
1082	0.023
1083	0.022
1083	0.021
1083	0.021
1084	0.02
1084	0.019
1085	0.018
1085	0.017
1085	0.017
1086	0.016
1086	0.015
1087	0.015
1087	0.015
1088	0.014
1088	0.014
1088	0.013
1089	0.012
1089	0.012
1090	0.01
1090	0.009
1090	0.008
1091	0.007
1091	0.007
1092	0.006
1092	0.006
1092	0.005
1093	0.004
1093	0.004
1094	0.004
1094	0.003
1095	0.002
1095	0.002
1095	0.001
1096	0
1096	-0.001
1097	-0.002
1097	-0.004
1097	-0.004
1098	-0.006
1098	-0.008
1099	-0.008
1099	-0.009
1100	-0.01
1100	-0.012
1100	-0.014
1101	-0.016
1101	-0.019
1102	-0.02
1102	-0.024
1102	-0.024
1103	-0.027
1103	-0.03
1104	-0.032
1104	-0.035
1104	-0.037
1105	-0.039
1105	-0.042
1106	-0.046
1106	-0.049
1107	-0.053
1107	-0.058
1107	-0.063
1108	-0.065
1108	-0.067
1109	-0.07
1109	-0.076
1109	-0.08
1110	-0.082
1110	-0.085
1111	-0.09
1111	-0.09
