Data from 17C_3.2A_35min_2sec_int_Absorbance__515__02077.txt Node

Date: Mon Jun 19 17:52:35 CEST 2023
User: Marek
Spectrometer: MAYP115816
Trigger mode: 0
Integration Time (sec): 2.500000E-1
Scans to average: 10
Electric dark correction enabled: true
Nonlinearity correction enabled: true
Boxcar width: 5
XAxis mode: Wavelengths
Number of Pixels in Spectrum: 2068
>>>>>Begin Spectral Data<<<<<
199	-0.725
199	-0.74
200	-0.645
200	-0.594
201	-0.559
201	-0.546
202	-0.533
202	-0.52
203	-0.512
203	-0.506
204	-0.492
204	-0.481
205	-0.457
205	-0.452
205	-0.449
206	-0.45
206	-0.452
207	-0.442
207	-0.443
208	-0.444
208	-0.443
209	-0.439
209	-0.438
210	-0.444
210	-0.45
211	-0.453
211	-0.456
212	-0.458
212	-0.466
213	-0.465
213	-0.466
213	-0.472
214	-0.468
214	-0.468
215	-0.465
215	-0.47
216	-0.475
216	-0.483
217	-0.478
217	-0.482
218	-0.483
218	-0.483
219	-0.486
219	-0.495
220	-0.501
220	-0.512
221	-0.508
221	-0.51
221	-0.501
222	-0.499
222	-0.501
223	-0.503
223	-0.506
224	-0.51
224	-0.51
225	-0.504
225	-0.498
226	-0.504
226	-0.504
227	-0.51
227	-0.52
228	-0.518
228	-0.521
229	-0.525
229	-0.52
229	-0.514
230	-0.521
230	-0.523
231	-0.517
231	-0.508
232	-0.503
232	-0.502
233	-0.495
233	-0.494
234	-0.492
234	-0.49
235	-0.493
235	-0.496
236	-0.495
236	-0.498
236	-0.506
237	-0.512
237	-0.51
238	-0.522
238	-0.519
239	-0.516
239	-0.524
240	-0.524
240	-0.523
241	-0.528
241	-0.525
242	-0.528
242	-0.525
243	-0.522
243	-0.523
243	-0.532
244	-0.534
244	-0.532
245	-0.545
245	-0.544
246	-0.549
246	-0.557
247	-0.56
247	-0.565
248	-0.571
248	-0.567
249	-0.57
249	-0.577
250	-0.577
250	-0.574
250	-0.573
251	-0.57
251	-0.57
252	-0.574
252	-0.566
253	-0.57
253	-0.583
254	-0.58
254	-0.578
255	-0.584
255	-0.579
256	-0.577
256	-0.589
257	-0.583
257	-0.577
258	-0.594
258	-0.591
258	-0.586
259	-0.585
259	-0.593
260	-0.594
260	-0.599
261	-0.61
261	-0.602
262	-0.601
262	-0.603
263	-0.591
263	-0.585
264	-0.584
264	-0.592
265	-0.59
265	-0.596
265	-0.599
266	-0.596
266	-0.592
267	-0.607
267	-0.615
268	-0.63
268	-0.64
269	-0.637
269	-0.631
270	-0.636
270	-0.64
271	-0.641
271	-0.646
272	-0.65
272	-0.642
272	-0.633
273	-0.633
273	-0.641
274	-0.647
274	-0.654
275	-0.655
275	-0.649
276	-0.656
276	-0.65
277	-0.656
277	-0.675
278	-0.688
278	-0.683
278	-0.68
279	-0.683
279	-0.692
280	-0.688
280	-0.686
281	-0.677
281	-0.683
282	-0.675
282	-0.675
283	-0.663
283	-0.662
284	-0.655
284	-0.645
285	-0.638
285	-0.637
285	-0.633
286	-0.643
286	-0.638
287	-0.633
287	-0.617
288	-0.611
288	-0.619
289	-0.634
289	-0.642
290	-0.632
290	-0.631
291	-0.63
291	-0.624
292	-0.627
292	-0.634
292	-0.639
293	-0.645
293	-0.637
294	-0.624
294	-0.615
295	-0.611
295	-0.606
296	-0.602
296	-0.599
297	-0.593
297	-0.578
298	-0.569
298	-0.575
298	-0.561
299	-0.554
299	-0.558
300	-0.555
300	-0.552
301	-0.548
301	-0.548
302	-0.558
302	-0.567
303	-0.555
303	-0.542
304	-0.545
304	-0.543
305	-0.543
305	-0.542
305	-0.54
306	-0.526
306	-0.518
307	-0.503
307	-0.507
308	-0.521
308	-0.517
309	-0.519
309	-0.511
310	-0.501
310	-0.498
311	-0.488
311	-0.496
311	-0.495
312	-0.491
312	-0.485
313	-0.47
313	-0.474
314	-0.475
314	-0.476
315	-0.476
315	-0.476
316	-0.474
316	-0.466
317	-0.456
317	-0.454
318	-0.444
318	-0.442
318	-0.437
319	-0.425
319	-0.422
320	-0.415
320	-0.416
321	-0.42
321	-0.418
322	-0.415
322	-0.408
323	-0.406
323	-0.402
324	-0.394
324	-0.387
324	-0.375
325	-0.366
325	-0.346
326	-0.332
326	-0.315
327	-0.3
327	-0.28
328	-0.255
328	-0.233
329	-0.211
329	-0.188
330	-0.161
330	-0.13
330	-0.106
331	-0.079
331	-0.051
332	-0.027
332	-0.005
333	0.015
333	0.039
334	0.06
334	0.076
335	0.092
335	0.106
336	0.119
336	0.132
336	0.141
337	0.152
337	0.161
338	0.168
338	0.173
339	0.18
339	0.186
340	0.19
340	0.194
341	0.198
341	0.2
342	0.204
342	0.207
342	0.21
343	0.212
343	0.214
344	0.216
344	0.217
345	0.218
345	0.219
346	0.22
346	0.221
347	0.222
347	0.222
348	0.223
348	0.223
348	0.224
349	0.224
349	0.224
350	0.224
350	0.224
351	0.224
351	0.224
352	0.224
352	0.224
353	0.224
353	0.224
354	0.224
354	0.224
354	0.224
355	0.224
355	0.224
356	0.223
356	0.223
357	0.223
357	0.222
358	0.222
358	0.222
359	0.222
359	0.222
360	0.222
360	0.221
360	0.221
361	0.221
361	0.221
362	0.221
362	0.221
363	0.221
363	0.221
364	0.221
364	0.221
365	0.221
365	0.221
366	0.221
366	0.221
366	0.221
367	0.221
367	0.221
368	0.221
368	0.221
369	0.221
369	0.221
370	0.221
370	0.22
371	0.22
371	0.22
372	0.22
372	0.22
372	0.22
373	0.22
373	0.22
374	0.22
374	0.22
375	0.22
375	0.22
376	0.22
376	0.22
377	0.22
377	0.22
378	0.22
378	0.22
378	0.22
379	0.22
379	0.22
380	0.22
380	0.219
381	0.219
381	0.219
382	0.219
382	0.219
383	0.219
383	0.218
383	0.218
384	0.218
384	0.218
385	0.218
385	0.218
386	0.218
386	0.218
387	0.218
387	0.218
388	0.218
388	0.218
389	0.218
389	0.218
389	0.218
390	0.218
390	0.218
391	0.218
391	0.218
392	0.218
392	0.218
393	0.218
393	0.218
394	0.217
394	0.217
394	0.217
395	0.217
395	0.216
396	0.216
396	0.216
397	0.216
397	0.216
398	0.216
398	0.216
399	0.216
399	0.216
400	0.216
400	0.216
400	0.216
401	0.215
401	0.215
402	0.215
402	0.215
403	0.215
403	0.215
404	0.215
404	0.215
405	0.215
405	0.215
405	0.214
406	0.214
406	0.214
407	0.214
407	0.214
408	0.214
408	0.214
409	0.214
409	0.214
410	0.214
410	0.214
411	0.214
411	0.214
411	0.214
412	0.214
412	0.214
413	0.214
413	0.214
414	0.214
414	0.214
415	0.213
415	0.213
416	0.213
416	0.213
416	0.213
417	0.213
417	0.213
418	0.213
418	0.213
419	0.213
419	0.213
420	0.213
420	0.213
421	0.213
421	0.213
421	0.213
422	0.213
422	0.213
423	0.213
423	0.212
424	0.212
424	0.212
425	0.211
425	0.211
426	0.211
426	0.211
427	0.21
427	0.21
427	0.21
428	0.21
428	0.21
429	0.21
429	0.21
430	0.21
430	0.21
431	0.21
431	0.21
432	0.21
432	0.21
432	0.21
433	0.21
433	0.209
434	0.209
434	0.209
435	0.209
435	0.209
436	0.209
436	0.209
437	0.208
437	0.208
437	0.208
438	0.208
438	0.208
439	0.208
439	0.208
440	0.208
440	0.208
441	0.208
441	0.208
442	0.208
442	0.208
442	0.208
443	0.208
443	0.208
444	0.208
444	0.208
445	0.208
445	0.208
446	0.208
446	0.208
447	0.208
447	0.208
447	0.209
448	0.209
448	0.209
449	0.209
449	0.209
450	0.209
450	0.209
451	0.208
451	0.208
452	0.208
452	0.208
452	0.208
453	0.208
453	0.207
454	0.207
454	0.207
455	0.207
455	0.206
456	0.206
456	0.206
457	0.206
457	0.206
458	0.206
458	0.206
458	0.206
459	0.206
459	0.206
460	0.206
460	0.206
461	0.206
461	0.206
462	0.206
462	0.206
463	0.206
463	0.206
463	0.206
464	0.206
464	0.206
465	0.206
465	0.206
466	0.207
466	0.207
467	0.207
467	0.207
467	0.207
468	0.207
468	0.207
469	0.207
469	0.208
470	0.208
470	0.208
471	0.208
471	0.209
472	0.209
472	0.209
472	0.209
473	0.209
473	0.21
474	0.21
474	0.21
475	0.21
475	0.21
476	0.21
476	0.21
477	0.21
477	0.21
477	0.211
478	0.211
478	0.211
479	0.211
479	0.211
480	0.211
480	0.211
481	0.212
481	0.212
482	0.212
482	0.213
482	0.213
483	0.213
483	0.214
484	0.214
484	0.214
485	0.214
485	0.214
486	0.215
486	0.215
487	0.216
487	0.217
487	0.217
488	0.217
488	0.218
489	0.219
489	0.221
490	0.221
490	0.222
491	0.223
491	0.224
492	0.224
492	0.225
492	0.226
493	0.226
493	0.227
494	0.228
494	0.228
495	0.229
495	0.229
496	0.23
496	0.231
496	0.232
497	0.233
497	0.234
498	0.235
498	0.236
499	0.237
499	0.238
500	0.239
500	0.24
501	0.241
501	0.242
501	0.242
502	0.243
502	0.244
503	0.245
503	0.246
504	0.247
504	0.248
505	0.249
505	0.25
506	0.251
506	0.252
506	0.253
507	0.254
507	0.255
508	0.256
508	0.257
509	0.258
509	0.259
510	0.261
510	0.262
511	0.263
511	0.264
511	0.265
512	0.266
512	0.267
513	0.268
513	0.27
514	0.271
514	0.272
515	0.273
515	0.274
515	0.275
516	0.276
516	0.277
517	0.278
517	0.279
518	0.28
518	0.281
519	0.282
519	0.283
520	0.284
520	0.286
520	0.287
521	0.289
521	0.29
522	0.291
522	0.292
523	0.293
523	0.294
524	0.294
524	0.295
524	0.295
525	0.296
525	0.296
526	0.297
526	0.297
527	0.298
527	0.299
528	0.299
528	0.3
529	0.301
529	0.302
529	0.303
530	0.304
530	0.305
531	0.305
531	0.306
532	0.306
532	0.307
533	0.308
533	0.308
533	0.308
534	0.308
534	0.309
535	0.309
535	0.309
536	0.309
536	0.309
537	0.309
537	0.309
538	0.309
538	0.31
538	0.31
539	0.311
539	0.311
540	0.311
540	0.311
541	0.312
541	0.312
542	0.312
542	0.312
542	0.312
543	0.312
543	0.311
544	0.311
544	0.311
545	0.311
545	0.311
546	0.311
546	0.311
547	0.31
547	0.31
547	0.311
548	0.311
548	0.311
549	0.311
549	0.311
550	0.311
550	0.311
551	0.311
551	0.312
551	0.313
552	0.313
552	0.314
553	0.314
553	0.314
554	0.314
554	0.314
555	0.314
555	0.314
556	0.314
556	0.314
556	0.313
557	0.313
557	0.313
558	0.312
558	0.312
559	0.312
559	0.311
560	0.311
560	0.311
560	0.31
561	0.311
561	0.31
562	0.31
562	0.309
563	0.309
563	0.308
564	0.308
564	0.309
564	0.309
565	0.309
565	0.309
566	0.309
566	0.31
567	0.31
567	0.31
568	0.309
568	0.309
568	0.309
569	0.308
569	0.308
570	0.307
570	0.305
571	0.305
571	0.305
572	0.304
572	0.304
573	0.304
573	0.303
573	0.303
574	0.303
574	0.303
575	0.303
575	0.304
576	0.304
576	0.303
577	0.303
577	0.303
577	0.304
578	0.304
578	0.305
579	0.305
579	0.306
580	0.305
580	0.304
581	0.303
581	0.303
581	0.304
582	0.304
582	0.304
583	0.304
583	0.303
584	0.302
584	0.302
585	0.303
585	0.303
585	0.304
586	0.304
586	0.304
587	0.303
587	0.303
588	0.303
588	0.303
589	0.303
589	0.303
590	0.303
590	0.303
590	0.304
591	0.304
591	0.303
592	0.303
592	0.303
593	0.303
593	0.303
594	0.303
594	0.302
594	0.302
595	0.303
595	0.302
596	0.303
596	0.304
597	0.305
597	0.305
598	0.304
598	0.304
598	0.304
599	0.304
599	0.303
600	0.302
600	0.301
601	0.301
601	0.301
602	0.3
602	0.3
602	0.299
603	0.3
603	0.301
604	0.302
604	0.302
605	0.303
605	0.303
606	0.303
606	0.302
606	0.302
607	0.302
607	0.302
608	0.301
608	0.299
609	0.299
609	0.299
610	0.299
610	0.298
610	0.299
611	0.299
611	0.3
612	0.3
612	0.301
613	0.301
613	0.301
614	0.301
614	0.299
614	0.299
615	0.298
615	0.298
616	0.297
616	0.296
617	0.295
617	0.294
618	0.294
618	0.293
618	0.293
619	0.294
619	0.294
620	0.294
620	0.294
621	0.293
621	0.293
622	0.293
622	0.292
622	0.292
623	0.291
623	0.291
624	0.291
624	0.29
625	0.289
625	0.289
626	0.288
626	0.287
626	0.287
627	0.286
627	0.285
628	0.284
628	0.282
629	0.281
629	0.279
630	0.278
630	0.276
630	0.274
631	0.273
631	0.27
632	0.268
632	0.265
633	0.263
633	0.26
634	0.258
634	0.255
634	0.253
635	0.25
635	0.246
636	0.243
636	0.239
637	0.236
637	0.232
638	0.228
638	0.223
638	0.219
639	0.213
639	0.208
640	0.203
640	0.198
641	0.192
641	0.187
642	0.182
642	0.177
642	0.172
643	0.166
643	0.16
644	0.154
644	0.147
645	0.141
645	0.134
646	0.128
646	0.12
646	0.113
647	0.106
647	0.098
648	0.091
648	0.083
649	0.075
649	0.067
650	0.059
650	0.05
650	0.041
651	0.03
651	0.017
652	0.002
652	-0.015
653	-0.029
653	-0.042
653	-0.04
654	-0.019
654	-0.008
655	-0.011
655	-0.016
656	-0.022
656	-0.028
657	-0.033
657	-0.037
657	-0.043
658	-0.05
658	-0.079
659	-0.165
659	-0.268
660	-0.313
660	-0.341
661	-0.37
661	-0.402
661	-0.436
662	-0.467
662	-0.501
663	-0.54
663	-0.583
664	-0.626
664	-0.678
665	-0.728
665	-0.786
665	-0.841
666	-0.897
666	-0.958
667	-1.022
667	-1.087
668	-1.159
668	-1.232
669	-1.305
669	-1.377
669	-1.453
670	-1.518
670	-1.542
671	-1.657
671	-1.954
672	-2.189
672	-2.383
672	-2.514
673	-2.608
673	-2.689
674	-2.742
674	-2.763
675	-2.789
675	-2.931
676	-3.131
676	-3.085
676	-2.864
677	-2.665
677	-2.51
678	-2.349
678	-2.092
679	-1.77
679	-1.618
680	-1.519
680	-1.433
680	-1.359
681	-1.312
681	-1.251
682	-1.211
682	-1.172
683	-1.135
683	-1.118
684	-1.096
684	-1.076
684	-1.054
685	-1.03
685	-1.008
686	-0.983
686	-0.967
687	-0.942
687	-0.93
687	-0.911
688	-0.885
688	-0.864
689	-0.843
689	-0.828
690	-0.807
690	-0.794
691	-0.788
691	-0.793
691	-0.808
692	-0.799
692	-0.791
693	-0.786
693	-0.796
694	-0.79
694	-0.784
695	-0.79
695	-0.789
695	-0.773
696	-0.769
696	-0.749
697	-0.75
697	-0.764
698	-0.768
698	-0.756
698	-0.771
699	-0.774
699	-0.77
700	-0.761
700	-0.775
701	-0.773
701	-0.778
702	-0.778
702	-0.766
702	-0.756
703	-0.75
703	-0.74
704	-0.738
704	-0.737
705	-0.749
705	-0.742
705	-0.73
706	-0.731
706	-0.726
707	-0.73
707	-0.726
708	-0.725
708	-0.718
709	-0.72
709	-0.723
709	-0.713
710	-0.722
710	-0.733
711	-0.723
711	-0.722
712	-0.722
712	-0.736
713	-0.735
713	-0.743
713	-0.734
714	-0.73
714	-0.731
715	-0.722
715	-0.709
716	-0.716
716	-0.719
716	-0.712
717	-0.713
717	-0.712
718	-0.704
718	-0.703
719	-0.71
719	-0.712
720	-0.705
720	-0.713
720	-0.708
721	-0.698
721	-0.697
722	-0.685
722	-0.675
723	-0.673
723	-0.679
723	-0.666
724	-0.668
724	-0.675
725	-0.674
725	-0.681
726	-0.693
726	-0.699
727	-0.704
727	-0.718
727	-0.726
728	-0.726
728	-0.733
729	-0.732
729	-0.735
730	-0.741
730	-0.733
730	-0.724
731	-0.707
731	-0.715
732	-0.722
732	-0.723
733	-0.717
733	-0.723
734	-0.718
734	-0.719
734	-0.706
735	-0.706
735	-0.707
736	-0.716
736	-0.705
737	-0.695
737	-0.696
737	-0.709
738	-0.703
738	-0.702
739	-0.699
739	-0.714
740	-0.711
740	-0.71
741	-0.706
741	-0.705
741	-0.709
742	-0.706
742	-0.707
743	-0.713
743	-0.718
744	-0.713
744	-0.703
744	-0.704
745	-0.712
745	-0.704
746	-0.704
746	-0.7
747	-0.702
747	-0.691
748	-0.678
748	-0.683
748	-0.687
749	-0.686
749	-0.688
750	-0.678
750	-0.679
751	-0.683
751	-0.694
751	-0.696
752	-0.699
752	-0.712
753	-0.706
753	-0.702
754	-0.704
754	-0.696
754	-0.71
755	-0.726
755	-0.737
756	-0.725
756	-0.722
757	-0.718
757	-0.709
758	-0.714
758	-0.711
758	-0.715
759	-0.723
759	-0.705
760	-0.699
760	-0.693
761	-0.703
761	-0.703
761	-0.701
762	-0.712
762	-0.711
763	-0.718
763	-0.715
764	-0.713
764	-0.723
764	-0.729
765	-0.72
765	-0.708
766	-0.714
766	-0.721
767	-0.732
767	-0.725
768	-0.72
768	-0.727
768	-0.733
769	-0.749
769	-0.748
770	-0.753
770	-0.765
771	-0.763
771	-0.767
771	-0.77
772	-0.776
772	-0.775
773	-0.776
773	-0.771
774	-0.77
774	-0.77
775	-0.771
775	-0.765
775	-0.773
776	-0.773
776	-0.762
777	-0.771
777	-0.789
778	-0.786
778	-0.806
778	-0.793
779	-0.816
779	-0.825
780	-0.838
780	-0.836
781	-0.848
781	-0.845
781	-0.858
782	-0.858
782	-0.861
783	-0.849
783	-0.847
784	-0.827
784	-0.815
784	-0.826
785	-0.832
785	-0.818
786	-0.821
786	-0.798
787	-0.786
787	-0.785
788	-0.786
788	-0.798
788	-0.81
789	-0.814
789	-0.794
790	-0.775
790	-0.777
791	-0.778
791	-0.796
791	-0.803
792	-0.798
792	-0.774
793	-0.761
793	-0.738
794	-0.741
794	-0.734
794	-0.745
795	-0.74
795	-0.733
796	-0.718
796	-0.722
797	-0.716
797	-0.73
797	-0.739
798	-0.752
798	-0.745
799	-0.754
799	-0.738
800	-0.745
800	-0.738
801	-0.742
801	-0.728
801	-0.74
802	-0.747
802	-0.745
803	-0.744
803	-0.755
804	-0.752
804	-0.763
804	-0.748
805	-0.754
805	-0.743
806	-0.746
806	-0.731
807	-0.727
807	-0.711
807	-0.701
808	-0.689
808	-0.683
809	-0.669
809	-0.679
810	-0.676
810	-0.668
810	-0.664
811	-0.67
811	-0.662
812	-0.664
812	-0.667
813	-0.672
813	-0.669
813	-0.671
814	-0.674
814	-0.68
815	-0.684
815	-0.69
816	-0.682
816	-0.688
817	-0.695
817	-0.712
817	-0.727
818	-0.733
818	-0.738
819	-0.73
819	-0.728
820	-0.739
820	-0.734
820	-0.744
821	-0.742
821	-0.729
822	-0.697
822	-0.672
823	-0.669
823	-0.671
823	-0.668
824	-0.663
824	-0.667
825	-0.659
825	-0.639
826	-0.634
826	-0.643
826	-0.653
827	-0.647
827	-0.643
828	-0.623
828	-0.624
829	-0.616
829	-0.6
829	-0.593
830	-0.603
830	-0.598
831	-0.589
831	-0.579
832	-0.58
832	-0.573
832	-0.58
833	-0.574
833	-0.573
834	-0.572
834	-0.58
835	-0.567
835	-0.563
835	-0.56
836	-0.558
836	-0.553
837	-0.551
837	-0.542
838	-0.533
838	-0.522
839	-0.507
839	-0.494
839	-0.486
840	-0.475
840	-0.471
841	-0.458
841	-0.449
842	-0.442
842	-0.428
842	-0.421
843	-0.415
843	-0.411
844	-0.403
844	-0.394
845	-0.383
845	-0.37
845	-0.358
846	-0.348
846	-0.332
847	-0.323
847	-0.312
848	-0.3
848	-0.288
848	-0.271
849	-0.26
849	-0.247
850	-0.235
850	-0.228
851	-0.219
851	-0.208
851	-0.198
852	-0.181
852	-0.168
853	-0.158
853	-0.152
854	-0.14
854	-0.128
854	-0.117
855	-0.104
855	-0.098
856	-0.088
856	-0.08
857	-0.074
857	-0.065
857	-0.054
858	-0.042
858	-0.036
859	-0.027
859	-0.017
860	-0.008
860	0.006
860	0.015
861	0.024
861	0.035
862	0.042
862	0.05
863	0.058
863	0.067
863	0.073
864	0.078
864	0.085
865	0.091
865	0.096
866	0.101
866	0.104
866	0.108
867	0.112
867	0.116
868	0.118
868	0.122
869	0.126
869	0.129
869	0.131
870	0.133
870	0.136
871	0.139
871	0.141
872	0.142
872	0.142
872	0.143
873	0.143
873	0.144
874	0.143
874	0.143
875	0.142
875	0.141
875	0.139
876	0.138
876	0.137
877	0.136
877	0.134
878	0.132
878	0.13
878	0.129
879	0.127
879	0.126
880	0.125
880	0.125
881	0.125
881	0.125
881	0.125
882	0.124
882	0.123
883	0.122
883	0.121
884	0.12
884	0.119
884	0.118
885	0.117
885	0.117
886	0.116
886	0.115
887	0.115
887	0.114
887	0.114
888	0.114
888	0.114
889	0.114
889	0.114
890	0.114
890	0.114
890	0.114
891	0.113
891	0.113
892	0.114
892	0.114
893	0.113
893	0.113
893	0.113
894	0.113
894	0.112
895	0.112
895	0.111
895	0.111
896	0.11
896	0.109
897	0.109
897	0.108
898	0.107
898	0.106
898	0.106
899	0.106
899	0.106
900	0.107
900	0.107
901	0.108
901	0.108
901	0.109
902	0.11
902	0.111
903	0.111
903	0.111
904	0.112
904	0.112
904	0.113
905	0.114
905	0.115
906	0.115
906	0.115
907	0.115
907	0.115
907	0.115
908	0.114
908	0.114
909	0.113
909	0.112
910	0.112
910	0.111
910	0.111
911	0.111
911	0.111
912	0.112
912	0.112
913	0.112
913	0.113
913	0.114
914	0.114
914	0.115
915	0.115
915	0.116
916	0.116
916	0.117
916	0.117
917	0.117
917	0.117
918	0.117
918	0.117
918	0.116
919	0.116
919	0.116
920	0.116
920	0.116
921	0.116
921	0.116
921	0.116
922	0.116
922	0.116
923	0.116
923	0.115
924	0.115
924	0.115
924	0.114
925	0.113
925	0.112
926	0.111
926	0.11
927	0.109
927	0.108
927	0.108
928	0.107
928	0.106
929	0.106
929	0.105
930	0.104
930	0.104
930	0.103
931	0.103
931	0.103
932	0.102
932	0.101
933	0.1
933	0.099
933	0.097
934	0.096
934	0.095
935	0.094
935	0.093
935	0.092
936	0.09
936	0.089
937	0.088
937	0.088
938	0.088
938	0.088
938	0.088
939	0.089
939	0.089
940	0.09
940	0.09
941	0.091
941	0.092
941	0.092
942	0.093
942	0.093
943	0.093
943	0.093
944	0.093
944	0.092
944	0.092
945	0.091
945	0.09
946	0.088
946	0.087
946	0.086
947	0.085
947	0.085
948	0.085
948	0.085
949	0.085
949	0.086
949	0.086
950	0.087
950	0.088
951	0.089
951	0.09
952	0.09
952	0.092
952	0.092
953	0.093
953	0.094
954	0.094
954	0.095
955	0.096
955	0.097
955	0.097
956	0.098
956	0.099
957	0.098
957	0.099
957	0.099
958	0.099
958	0.099
959	0.1
959	0.1
960	0.1
960	0.1
960	0.1
961	0.1
961	0.1
962	0.1
962	0.1
963	0.1
963	0.1
963	0.1
964	0.099
964	0.1
965	0.1
965	0.1
966	0.1
966	0.099
966	0.099
967	0.099
967	0.098
968	0.097
968	0.097
968	0.096
969	0.095
969	0.095
970	0.094
970	0.094
971	0.094
971	0.094
971	0.094
972	0.094
972	0.095
973	0.095
973	0.095
974	0.094
974	0.095
974	0.095
975	0.094
975	0.094
976	0.093
976	0.092
976	0.092
977	0.092
977	0.092
978	0.092
978	0.092
979	0.091
979	0.091
979	0.091
980	0.091
980	0.09
981	0.09
981	0.09
982	0.09
982	0.089
982	0.089
983	0.089
983	0.088
984	0.088
984	0.089
984	0.089
985	0.089
985	0.089
986	0.088
986	0.088
987	0.088
987	0.088
987	0.087
988	0.087
988	0.086
989	0.085
989	0.084
990	0.083
990	0.082
990	0.082
991	0.082
991	0.081
992	0.081
992	0.081
992	0.081
993	0.081
993	0.081
994	0.081
994	0.08
995	0.08
995	0.08
995	0.079
996	0.079
996	0.078
997	0.078
997	0.078
997	0.077
998	0.077
998	0.077
999	0.077
999	0.077
1000	0.078
1000	0.078
1000	0.078
1001	0.079
1001	0.079
1002	0.079
1002	0.08
1003	0.08
1003	0.08
1003	0.08
1004	0.08
1004	0.079
1005	0.079
1005	0.078
1005	0.077
1006	0.076
1006	0.075
1007	0.074
1007	0.072
1008	0.072
1008	0.071
1008	0.071
1009	0.07
1009	0.07
1010	0.07
1010	0.07
1010	0.07
1011	0.07
1011	0.069
1012	0.069
1012	0.069
1013	0.067
1013	0.066
1013	0.065
1014	0.065
1014	0.064
1015	0.063
1015	0.063
1016	0.062
1016	0.061
1016	0.06
1017	0.059
1017	0.059
1018	0.058
1018	0.058
1018	0.057
1019	0.057
1019	0.056
1020	0.055
1020	0.054
1021	0.054
1021	0.053
1021	0.052
1022	0.051
1022	0.051
1023	0.05
1023	0.05
1023	0.049
1024	0.049
1024	0.049
1025	0.049
1025	0.049
1026	0.05
1026	0.051
1026	0.051
1027	0.052
1027	0.052
1028	0.052
1028	0.052
1028	0.052
1029	0.052
1029	0.051
1030	0.051
1030	0.05
1031	0.049
1031	0.049
1031	0.049
1032	0.048
1032	0.048
1033	0.048
1033	0.049
1033	0.049
1034	0.049
1034	0.049
1035	0.049
1035	0.049
1036	0.049
1036	0.049
1036	0.049
1037	0.048
1037	0.049
1038	0.049
1038	0.049
1039	0.049
1039	0.049
1039	0.05
1040	0.05
1040	0.051
1041	0.051
1041	0.051
1041	0.051
1042	0.051
1042	0.05
1043	0.05
1043	0.05
1044	0.049
1044	0.048
1044	0.048
1045	0.047
1045	0.046
1046	0.045
1046	0.045
1046	0.045
1047	0.045
1047	0.045
1048	0.045
1048	0.045
1049	0.046
1049	0.046
1049	0.046
1050	0.047
1050	0.047
1051	0.047
1051	0.047
1051	0.047
1052	0.048
1052	0.048
1053	0.048
1053	0.047
1053	0.047
1054	0.047
1054	0.047
1055	0.047
1055	0.046
1056	0.046
1056	0.045
1056	0.044
1057	0.043
1057	0.042
1058	0.042
1058	0.041
1058	0.041
1059	0.04
1059	0.04
1060	0.039
1060	0.039
1061	0.039
1061	0.039
1061	0.039
1062	0.038
1062	0.038
1063	0.038
1063	0.038
1063	0.038
1064	0.039
1064	0.039
1065	0.039
1065	0.038
1066	0.038
1066	0.038
1066	0.038
1067	0.037
1067	0.037
1068	0.037
1068	0.036
1068	0.036
1069	0.035
1069	0.035
1070	0.035
1070	0.035
1071	0.034
1071	0.034
1071	0.034
1072	0.033
1072	0.033
1073	0.032
1073	0.032
1073	0.032
1074	0.032
1074	0.032
1075	0.032
1075	0.032
1076	0.031
1076	0.032
1076	0.03
1077	0.03
1077	0.03
1078	0.029
1078	0.028
1078	0.027
1079	0.026
1079	0.025
1080	0.024
1080	0.023
1080	0.022
1081	0.021
1081	0.021
1082	0.02
1082	0.019
1083	0.019
1083	0.018
1083	0.017
1084	0.016
1084	0.015
1085	0.014
1085	0.013
1085	0.013
1086	0.012
1086	0.011
1087	0.011
1087	0.01
1088	0.009
1088	0.009
1088	0.008
1089	0.008
1089	0.007
1090	0.006
1090	0.006
1090	0.005
1091	0.004
1091	0.003
1092	0.002
1092	0.002
1092	0.001
1093	0.001
1093	0
1094	-0
1094	-0.001
1095	-0.003
1095	-0.003
1095	-0.004
1096	-0.005
1096	-0.005
1097	-0.006
1097	-0.007
1097	-0.008
1098	-0.01
1098	-0.011
1099	-0.012
1099	-0.013
1100	-0.014
1100	-0.015
1100	-0.018
1101	-0.02
1101	-0.023
1102	-0.024
1102	-0.027
1102	-0.028
1103	-0.03
1103	-0.032
1104	-0.035
1104	-0.037
1104	-0.039
1105	-0.041
1105	-0.045
1106	-0.049
1106	-0.051
1107	-0.056
1107	-0.06
1107	-0.066
1108	-0.068
1108	-0.07
1109	-0.074
1109	-0.078
1109	-0.082
1110	-0.083
1110	-0.086
1111	-0.094
1111	-0.095
