Data from 17C_3.2A_35min_2sec_int_Absorbance__517__02079.txt Node

Date: Mon Jun 19 17:52:40 CEST 2023
User: Marek
Spectrometer: MAYP115816
Trigger mode: 0
Integration Time (sec): 2.500000E-1
Scans to average: 10
Electric dark correction enabled: true
Nonlinearity correction enabled: true
Boxcar width: 5
XAxis mode: Wavelengths
Number of Pixels in Spectrum: 2068
>>>>>Begin Spectral Data<<<<<
199	-0.715
199	-0.729
200	-0.634
200	-0.584
201	-0.549
201	-0.536
202	-0.519
202	-0.507
203	-0.499
203	-0.497
204	-0.485
204	-0.473
205	-0.45
205	-0.447
205	-0.446
206	-0.45
206	-0.454
207	-0.445
207	-0.448
208	-0.452
208	-0.447
209	-0.443
209	-0.441
210	-0.447
210	-0.451
211	-0.453
211	-0.455
212	-0.457
212	-0.465
213	-0.462
213	-0.462
213	-0.469
214	-0.464
214	-0.465
215	-0.463
215	-0.469
216	-0.473
216	-0.478
217	-0.472
217	-0.477
218	-0.48
218	-0.481
219	-0.485
219	-0.496
220	-0.503
220	-0.513
221	-0.511
221	-0.511
221	-0.505
222	-0.502
222	-0.503
223	-0.504
223	-0.506
224	-0.511
224	-0.51
225	-0.505
225	-0.498
226	-0.503
226	-0.504
227	-0.51
227	-0.522
228	-0.523
228	-0.526
229	-0.527
229	-0.521
229	-0.516
230	-0.519
230	-0.522
231	-0.516
231	-0.509
232	-0.502
232	-0.497
233	-0.49
233	-0.488
234	-0.489
234	-0.484
235	-0.489
235	-0.495
236	-0.494
236	-0.497
236	-0.502
237	-0.508
237	-0.512
238	-0.522
238	-0.52
239	-0.518
239	-0.527
240	-0.525
240	-0.521
241	-0.527
241	-0.525
242	-0.526
242	-0.522
243	-0.516
243	-0.517
243	-0.528
244	-0.529
244	-0.53
245	-0.543
245	-0.545
246	-0.55
246	-0.559
247	-0.564
247	-0.571
248	-0.577
248	-0.575
249	-0.576
249	-0.584
250	-0.58
250	-0.575
250	-0.575
251	-0.572
251	-0.571
252	-0.574
252	-0.564
253	-0.569
253	-0.578
254	-0.575
254	-0.574
255	-0.585
255	-0.579
256	-0.576
256	-0.588
257	-0.583
257	-0.58
258	-0.597
258	-0.593
258	-0.59
259	-0.587
259	-0.594
260	-0.593
260	-0.598
261	-0.609
261	-0.6
262	-0.597
262	-0.596
263	-0.586
263	-0.581
264	-0.582
264	-0.59
265	-0.586
265	-0.593
265	-0.597
266	-0.593
266	-0.591
267	-0.606
267	-0.614
268	-0.627
268	-0.636
269	-0.634
269	-0.629
270	-0.636
270	-0.641
271	-0.64
271	-0.644
272	-0.648
272	-0.642
272	-0.636
273	-0.634
273	-0.642
274	-0.649
274	-0.653
275	-0.651
275	-0.643
276	-0.651
276	-0.645
277	-0.65
277	-0.667
278	-0.679
278	-0.674
278	-0.667
279	-0.67
279	-0.681
280	-0.68
280	-0.677
281	-0.671
281	-0.678
282	-0.669
282	-0.67
283	-0.66
283	-0.662
284	-0.659
284	-0.647
285	-0.641
285	-0.637
285	-0.637
286	-0.641
286	-0.636
287	-0.634
287	-0.616
288	-0.609
288	-0.617
289	-0.629
289	-0.64
290	-0.632
290	-0.632
291	-0.628
291	-0.623
292	-0.626
292	-0.633
292	-0.638
293	-0.645
293	-0.634
294	-0.623
294	-0.612
295	-0.609
295	-0.606
296	-0.605
296	-0.603
297	-0.596
297	-0.581
298	-0.573
298	-0.58
298	-0.567
299	-0.56
299	-0.562
300	-0.557
300	-0.554
301	-0.549
301	-0.547
302	-0.555
302	-0.564
303	-0.551
303	-0.537
304	-0.543
304	-0.541
305	-0.543
305	-0.541
305	-0.536
306	-0.519
306	-0.514
307	-0.503
307	-0.503
308	-0.516
308	-0.514
309	-0.516
309	-0.507
310	-0.497
310	-0.494
311	-0.487
311	-0.495
311	-0.492
312	-0.487
312	-0.485
313	-0.472
313	-0.475
314	-0.473
314	-0.476
315	-0.477
315	-0.477
316	-0.474
316	-0.467
317	-0.46
317	-0.456
318	-0.445
318	-0.441
318	-0.435
319	-0.423
319	-0.418
320	-0.41
320	-0.412
321	-0.416
321	-0.416
322	-0.41
322	-0.403
323	-0.404
323	-0.4
324	-0.394
324	-0.386
324	-0.377
325	-0.367
325	-0.349
326	-0.336
326	-0.319
327	-0.303
327	-0.284
328	-0.258
328	-0.239
329	-0.215
329	-0.191
330	-0.164
330	-0.133
330	-0.106
331	-0.076
331	-0.05
332	-0.026
332	-0.004
333	0.017
333	0.04
334	0.059
334	0.075
335	0.091
335	0.105
336	0.117
336	0.13
336	0.139
337	0.15
337	0.159
338	0.167
338	0.171
339	0.179
339	0.185
340	0.189
340	0.193
341	0.196
341	0.199
342	0.203
342	0.206
342	0.209
343	0.211
343	0.214
344	0.215
344	0.217
345	0.218
345	0.219
346	0.22
346	0.221
347	0.221
347	0.222
348	0.222
348	0.223
348	0.223
349	0.223
349	0.223
350	0.223
350	0.223
351	0.223
351	0.223
352	0.223
352	0.223
353	0.223
353	0.223
354	0.223
354	0.223
354	0.223
355	0.223
355	0.223
356	0.223
356	0.223
357	0.222
357	0.222
358	0.222
358	0.222
359	0.221
359	0.221
360	0.221
360	0.221
360	0.221
361	0.221
361	0.221
362	0.22
362	0.22
363	0.22
363	0.22
364	0.221
364	0.221
365	0.221
365	0.221
366	0.221
366	0.221
366	0.221
367	0.221
367	0.221
368	0.22
368	0.22
369	0.22
369	0.22
370	0.22
370	0.22
371	0.22
371	0.22
372	0.219
372	0.219
372	0.22
373	0.22
373	0.22
374	0.22
374	0.219
375	0.219
375	0.219
376	0.219
376	0.219
377	0.22
377	0.219
378	0.219
378	0.219
378	0.219
379	0.219
379	0.219
380	0.219
380	0.219
381	0.219
381	0.218
382	0.218
382	0.218
383	0.218
383	0.218
383	0.217
384	0.217
384	0.217
385	0.217
385	0.217
386	0.217
386	0.217
387	0.217
387	0.217
388	0.217
388	0.217
389	0.217
389	0.217
389	0.217
390	0.217
390	0.217
391	0.217
391	0.217
392	0.217
392	0.217
393	0.217
393	0.217
394	0.216
394	0.216
394	0.216
395	0.216
395	0.216
396	0.215
396	0.215
397	0.215
397	0.215
398	0.216
398	0.216
399	0.216
399	0.216
400	0.215
400	0.215
400	0.215
401	0.215
401	0.215
402	0.215
402	0.215
403	0.215
403	0.214
404	0.214
404	0.214
405	0.214
405	0.214
405	0.214
406	0.214
406	0.214
407	0.214
407	0.214
408	0.214
408	0.213
409	0.213
409	0.213
410	0.213
410	0.214
411	0.213
411	0.213
411	0.213
412	0.214
412	0.213
413	0.213
413	0.213
414	0.213
414	0.213
415	0.213
415	0.212
416	0.212
416	0.212
416	0.212
417	0.212
417	0.212
418	0.212
418	0.212
419	0.212
419	0.212
420	0.212
420	0.212
421	0.212
421	0.212
421	0.212
422	0.212
422	0.212
423	0.212
423	0.212
424	0.211
424	0.211
425	0.211
425	0.211
426	0.21
426	0.21
427	0.21
427	0.21
427	0.21
428	0.21
428	0.21
429	0.21
429	0.21
430	0.21
430	0.21
431	0.21
431	0.209
432	0.209
432	0.209
432	0.209
433	0.209
433	0.208
434	0.208
434	0.208
435	0.208
435	0.208
436	0.208
436	0.208
437	0.208
437	0.208
437	0.208
438	0.208
438	0.208
439	0.208
439	0.208
440	0.208
440	0.208
441	0.208
441	0.207
442	0.207
442	0.207
442	0.207
443	0.207
443	0.207
444	0.207
444	0.207
445	0.207
445	0.207
446	0.207
446	0.207
447	0.207
447	0.207
447	0.207
448	0.207
448	0.207
449	0.207
449	0.207
450	0.208
450	0.208
451	0.207
451	0.207
452	0.207
452	0.207
452	0.207
453	0.207
453	0.207
454	0.206
454	0.206
455	0.206
455	0.206
456	0.206
456	0.206
457	0.206
457	0.206
458	0.206
458	0.206
458	0.206
459	0.206
459	0.206
460	0.206
460	0.206
461	0.206
461	0.205
462	0.206
462	0.206
463	0.206
463	0.206
463	0.206
464	0.206
464	0.206
465	0.206
465	0.206
466	0.206
466	0.206
467	0.207
467	0.207
467	0.207
468	0.207
468	0.207
469	0.207
469	0.207
470	0.208
470	0.208
471	0.208
471	0.208
472	0.208
472	0.208
472	0.208
473	0.208
473	0.209
474	0.209
474	0.209
475	0.209
475	0.21
476	0.21
476	0.21
477	0.21
477	0.21
477	0.21
478	0.21
478	0.21
479	0.21
479	0.21
480	0.21
480	0.21
481	0.211
481	0.211
482	0.211
482	0.212
482	0.212
483	0.213
483	0.213
484	0.213
484	0.213
485	0.213
485	0.214
486	0.214
486	0.215
487	0.215
487	0.216
487	0.216
488	0.217
488	0.217
489	0.218
489	0.22
490	0.221
490	0.221
491	0.222
491	0.223
492	0.223
492	0.224
492	0.224
493	0.225
493	0.226
494	0.227
494	0.227
495	0.228
495	0.229
496	0.23
496	0.231
496	0.232
497	0.233
497	0.233
498	0.234
498	0.235
499	0.236
499	0.237
500	0.238
500	0.239
501	0.24
501	0.241
501	0.241
502	0.242
502	0.243
503	0.244
503	0.245
504	0.246
504	0.247
505	0.248
505	0.249
506	0.25
506	0.251
506	0.252
507	0.253
507	0.254
508	0.255
508	0.256
509	0.258
509	0.259
510	0.26
510	0.261
511	0.262
511	0.263
511	0.264
512	0.265
512	0.266
513	0.267
513	0.268
514	0.269
514	0.271
515	0.271
515	0.272
515	0.273
516	0.275
516	0.276
517	0.277
517	0.278
518	0.279
518	0.28
519	0.281
519	0.282
520	0.284
520	0.285
520	0.286
521	0.287
521	0.288
522	0.289
522	0.29
523	0.291
523	0.292
524	0.293
524	0.294
524	0.294
525	0.295
525	0.295
526	0.296
526	0.297
527	0.297
527	0.298
528	0.299
528	0.3
529	0.301
529	0.301
529	0.302
530	0.303
530	0.304
531	0.305
531	0.305
532	0.306
532	0.306
533	0.307
533	0.307
533	0.307
534	0.307
534	0.308
535	0.308
535	0.308
536	0.308
536	0.308
537	0.307
537	0.308
538	0.308
538	0.308
538	0.309
539	0.309
539	0.31
540	0.31
540	0.31
541	0.31
541	0.31
542	0.31
542	0.31
542	0.31
543	0.31
543	0.31
544	0.309
544	0.309
545	0.31
545	0.31
546	0.31
546	0.31
547	0.31
547	0.31
547	0.31
548	0.31
548	0.31
549	0.31
549	0.31
550	0.31
550	0.31
551	0.31
551	0.31
551	0.311
552	0.312
552	0.312
553	0.312
553	0.313
554	0.313
554	0.313
555	0.312
555	0.312
556	0.312
556	0.312
556	0.312
557	0.312
557	0.311
558	0.311
558	0.31
559	0.31
559	0.31
560	0.31
560	0.309
560	0.309
561	0.309
561	0.309
562	0.308
562	0.308
563	0.308
563	0.307
564	0.307
564	0.308
564	0.308
565	0.308
565	0.308
566	0.308
566	0.309
567	0.309
567	0.309
568	0.308
568	0.308
568	0.307
569	0.307
569	0.306
570	0.305
570	0.304
571	0.304
571	0.304
572	0.303
572	0.303
573	0.302
573	0.302
573	0.302
574	0.302
574	0.302
575	0.302
575	0.303
576	0.303
576	0.302
577	0.302
577	0.302
577	0.303
578	0.303
578	0.303
579	0.304
579	0.305
580	0.304
580	0.303
581	0.302
581	0.302
581	0.302
582	0.303
582	0.303
583	0.303
583	0.302
584	0.301
584	0.301
585	0.302
585	0.302
585	0.303
586	0.303
586	0.303
587	0.302
587	0.302
588	0.302
588	0.302
589	0.302
589	0.302
590	0.302
590	0.302
590	0.303
591	0.303
591	0.302
592	0.302
592	0.302
593	0.302
593	0.302
594	0.301
594	0.301
594	0.301
595	0.302
595	0.301
596	0.301
596	0.303
597	0.304
597	0.304
598	0.303
598	0.303
598	0.303
599	0.303
599	0.302
600	0.301
600	0.301
601	0.3
601	0.3
602	0.299
602	0.299
602	0.299
603	0.299
603	0.3
604	0.301
604	0.301
605	0.302
605	0.303
606	0.302
606	0.302
606	0.301
607	0.301
607	0.301
608	0.3
608	0.299
609	0.298
609	0.299
610	0.298
610	0.298
610	0.298
611	0.299
611	0.299
612	0.3
612	0.301
613	0.301
613	0.301
614	0.3
614	0.299
614	0.299
615	0.298
615	0.297
616	0.297
616	0.296
617	0.295
617	0.294
618	0.293
618	0.293
618	0.292
619	0.293
619	0.293
620	0.293
620	0.293
621	0.292
621	0.292
622	0.292
622	0.291
622	0.291
623	0.29
623	0.29
624	0.29
624	0.289
625	0.289
625	0.288
626	0.287
626	0.287
626	0.286
627	0.285
627	0.284
628	0.283
628	0.282
629	0.28
629	0.279
630	0.277
630	0.275
630	0.274
631	0.272
631	0.27
632	0.267
632	0.265
633	0.262
633	0.26
634	0.257
634	0.255
634	0.252
635	0.25
635	0.246
636	0.243
636	0.24
637	0.236
637	0.232
638	0.227
638	0.223
638	0.218
639	0.213
639	0.208
640	0.202
640	0.197
641	0.192
641	0.187
642	0.182
642	0.176
642	0.171
643	0.166
643	0.159
644	0.153
644	0.147
645	0.141
645	0.134
646	0.128
646	0.12
646	0.113
647	0.106
647	0.099
648	0.091
648	0.084
649	0.076
649	0.067
650	0.059
650	0.051
650	0.041
651	0.031
651	0.017
652	0.002
652	-0.015
653	-0.029
653	-0.041
653	-0.038
654	-0.018
654	-0.007
655	-0.01
655	-0.015
656	-0.021
656	-0.027
657	-0.031
657	-0.035
657	-0.042
658	-0.049
658	-0.079
659	-0.166
659	-0.268
660	-0.313
660	-0.341
661	-0.37
661	-0.401
661	-0.435
662	-0.468
662	-0.502
663	-0.54
663	-0.583
664	-0.626
664	-0.677
665	-0.728
665	-0.786
665	-0.841
666	-0.897
666	-0.959
667	-1.023
667	-1.088
668	-1.16
668	-1.232
669	-1.305
669	-1.377
669	-1.454
670	-1.518
670	-1.544
671	-1.675
671	-1.963
672	-2.195
672	-2.387
672	-2.518
673	-2.611
673	-2.691
674	-2.744
674	-2.765
675	-2.79
675	-2.932
676	-3.13
676	-3.083
676	-2.863
677	-2.663
677	-2.507
678	-2.345
678	-2.085
679	-1.766
679	-1.616
680	-1.517
680	-1.431
680	-1.358
681	-1.312
681	-1.251
682	-1.211
682	-1.173
683	-1.136
683	-1.119
684	-1.099
684	-1.079
684	-1.056
685	-1.031
685	-1.009
686	-0.982
686	-0.967
687	-0.94
687	-0.929
687	-0.908
688	-0.882
688	-0.859
689	-0.838
689	-0.825
690	-0.807
690	-0.797
691	-0.791
691	-0.795
691	-0.811
692	-0.802
692	-0.794
693	-0.789
693	-0.796
694	-0.79
694	-0.782
695	-0.786
695	-0.78
695	-0.767
696	-0.763
696	-0.74
697	-0.74
697	-0.755
698	-0.758
698	-0.748
698	-0.762
699	-0.765
699	-0.764
700	-0.757
700	-0.771
701	-0.771
701	-0.776
702	-0.778
702	-0.767
702	-0.759
703	-0.752
703	-0.742
704	-0.739
704	-0.737
705	-0.75
705	-0.742
705	-0.729
706	-0.729
706	-0.723
707	-0.727
707	-0.723
708	-0.721
708	-0.713
709	-0.716
709	-0.719
709	-0.71
710	-0.718
710	-0.728
711	-0.72
711	-0.721
712	-0.719
712	-0.733
713	-0.731
713	-0.739
713	-0.73
714	-0.726
714	-0.727
715	-0.716
715	-0.703
716	-0.713
716	-0.714
716	-0.709
717	-0.709
717	-0.71
718	-0.702
718	-0.701
719	-0.708
719	-0.708
720	-0.706
720	-0.716
720	-0.707
721	-0.696
721	-0.694
722	-0.683
722	-0.673
723	-0.669
723	-0.674
723	-0.661
724	-0.663
724	-0.667
725	-0.665
725	-0.676
726	-0.69
726	-0.697
727	-0.701
727	-0.715
727	-0.725
728	-0.726
728	-0.734
729	-0.735
729	-0.739
730	-0.746
730	-0.739
730	-0.728
731	-0.709
731	-0.718
732	-0.725
732	-0.722
733	-0.721
733	-0.725
734	-0.717
734	-0.715
734	-0.701
735	-0.698
735	-0.7
736	-0.713
736	-0.702
737	-0.691
737	-0.695
737	-0.705
738	-0.702
738	-0.701
739	-0.701
739	-0.714
740	-0.714
740	-0.713
741	-0.707
741	-0.706
741	-0.711
742	-0.708
742	-0.707
743	-0.713
743	-0.718
744	-0.714
744	-0.705
744	-0.707
745	-0.714
745	-0.706
746	-0.705
746	-0.702
747	-0.704
747	-0.69
748	-0.677
748	-0.682
748	-0.686
749	-0.68
749	-0.681
750	-0.668
750	-0.671
751	-0.676
751	-0.686
751	-0.688
752	-0.696
752	-0.706
753	-0.701
753	-0.697
754	-0.704
754	-0.697
754	-0.712
755	-0.728
755	-0.74
756	-0.727
756	-0.723
757	-0.719
757	-0.714
758	-0.717
758	-0.714
758	-0.717
759	-0.724
759	-0.706
760	-0.697
760	-0.693
761	-0.703
761	-0.701
761	-0.7
762	-0.708
762	-0.708
763	-0.718
763	-0.714
764	-0.713
764	-0.722
764	-0.729
765	-0.72
765	-0.707
766	-0.713
766	-0.72
767	-0.735
767	-0.73
768	-0.718
768	-0.73
768	-0.734
769	-0.752
769	-0.752
770	-0.756
770	-0.77
771	-0.769
771	-0.771
771	-0.77
772	-0.773
772	-0.775
773	-0.773
773	-0.769
774	-0.768
774	-0.77
775	-0.771
775	-0.764
775	-0.769
776	-0.768
776	-0.758
777	-0.766
777	-0.784
778	-0.781
778	-0.799
778	-0.785
779	-0.805
779	-0.814
780	-0.829
780	-0.831
781	-0.842
781	-0.838
781	-0.855
782	-0.856
782	-0.859
783	-0.848
783	-0.848
784	-0.83
784	-0.818
784	-0.826
785	-0.831
785	-0.818
786	-0.824
786	-0.802
787	-0.788
787	-0.789
788	-0.79
788	-0.798
788	-0.808
789	-0.809
789	-0.791
790	-0.772
790	-0.774
791	-0.775
791	-0.789
791	-0.796
792	-0.788
792	-0.765
793	-0.754
793	-0.732
794	-0.736
794	-0.729
794	-0.74
795	-0.735
795	-0.727
796	-0.713
796	-0.719
797	-0.715
797	-0.728
797	-0.737
798	-0.75
798	-0.743
799	-0.752
799	-0.737
800	-0.742
800	-0.738
801	-0.743
801	-0.729
801	-0.738
802	-0.744
802	-0.743
803	-0.744
803	-0.753
804	-0.749
804	-0.76
804	-0.749
805	-0.751
805	-0.739
806	-0.74
806	-0.727
807	-0.726
807	-0.709
807	-0.696
808	-0.687
808	-0.681
809	-0.665
809	-0.672
810	-0.67
810	-0.662
810	-0.661
811	-0.664
811	-0.657
812	-0.658
812	-0.663
813	-0.669
813	-0.664
813	-0.671
814	-0.674
814	-0.677
815	-0.683
815	-0.687
816	-0.681
816	-0.686
817	-0.692
817	-0.709
817	-0.724
818	-0.735
818	-0.737
819	-0.728
819	-0.728
820	-0.738
820	-0.735
820	-0.746
821	-0.743
821	-0.73
822	-0.697
822	-0.67
823	-0.664
823	-0.667
823	-0.665
824	-0.659
824	-0.66
825	-0.652
825	-0.631
826	-0.627
826	-0.636
826	-0.647
827	-0.642
827	-0.638
828	-0.618
828	-0.619
829	-0.61
829	-0.596
829	-0.589
830	-0.599
830	-0.593
831	-0.585
831	-0.574
832	-0.575
832	-0.568
832	-0.578
833	-0.569
833	-0.573
834	-0.57
834	-0.577
835	-0.564
835	-0.561
835	-0.556
836	-0.553
836	-0.548
837	-0.546
837	-0.535
838	-0.526
838	-0.513
839	-0.501
839	-0.488
839	-0.478
840	-0.466
840	-0.465
841	-0.452
841	-0.443
842	-0.437
842	-0.426
842	-0.419
843	-0.412
843	-0.406
844	-0.397
844	-0.391
845	-0.381
845	-0.368
845	-0.355
846	-0.344
846	-0.33
847	-0.319
847	-0.309
848	-0.296
848	-0.284
848	-0.269
849	-0.257
849	-0.246
850	-0.233
850	-0.227
851	-0.216
851	-0.205
851	-0.196
852	-0.179
852	-0.167
853	-0.16
853	-0.154
854	-0.142
854	-0.13
854	-0.116
855	-0.103
855	-0.097
856	-0.086
856	-0.076
857	-0.069
857	-0.06
857	-0.048
858	-0.037
858	-0.03
859	-0.023
859	-0.013
860	-0.004
860	0.009
860	0.017
861	0.025
861	0.034
862	0.042
862	0.049
863	0.057
863	0.066
863	0.073
864	0.078
864	0.085
865	0.091
865	0.096
866	0.102
866	0.106
866	0.11
867	0.113
867	0.118
868	0.121
868	0.125
869	0.128
869	0.131
869	0.133
870	0.135
870	0.138
871	0.14
871	0.142
872	0.143
872	0.143
872	0.144
873	0.144
873	0.145
874	0.144
874	0.144
875	0.143
875	0.142
875	0.14
876	0.139
876	0.138
877	0.137
877	0.135
878	0.133
878	0.132
878	0.13
879	0.128
879	0.127
880	0.126
880	0.126
881	0.126
881	0.126
881	0.125
882	0.125
882	0.124
883	0.123
883	0.121
884	0.121
884	0.12
884	0.119
885	0.118
885	0.117
886	0.117
886	0.116
887	0.116
887	0.115
887	0.115
888	0.116
888	0.115
889	0.115
889	0.115
890	0.115
890	0.115
890	0.115
891	0.115
891	0.114
892	0.115
892	0.115
893	0.114
893	0.114
893	0.114
894	0.114
894	0.114
895	0.113
895	0.113
895	0.113
896	0.112
896	0.111
897	0.11
897	0.109
898	0.108
898	0.107
898	0.106
899	0.106
899	0.107
900	0.107
900	0.108
901	0.109
901	0.109
901	0.11
902	0.111
902	0.112
903	0.112
903	0.113
904	0.113
904	0.114
904	0.114
905	0.115
905	0.116
906	0.116
906	0.116
907	0.116
907	0.116
907	0.115
908	0.115
908	0.114
909	0.114
909	0.113
910	0.112
910	0.112
910	0.111
911	0.111
911	0.112
912	0.112
912	0.113
913	0.113
913	0.114
913	0.114
914	0.115
914	0.116
915	0.116
915	0.117
916	0.117
916	0.118
916	0.118
917	0.118
917	0.118
918	0.118
918	0.118
918	0.117
919	0.117
919	0.117
920	0.117
920	0.117
921	0.117
921	0.117
921	0.117
922	0.117
922	0.117
923	0.116
923	0.116
924	0.116
924	0.116
924	0.115
925	0.114
925	0.113
926	0.112
926	0.111
927	0.11
927	0.109
927	0.108
928	0.107
928	0.107
929	0.106
929	0.106
930	0.105
930	0.104
930	0.104
931	0.103
931	0.103
932	0.102
932	0.101
933	0.1
933	0.099
933	0.098
934	0.096
934	0.095
935	0.094
935	0.093
935	0.092
936	0.091
936	0.09
937	0.089
937	0.089
938	0.089
938	0.089
938	0.09
939	0.09
939	0.091
940	0.091
940	0.092
941	0.092
941	0.092
941	0.093
942	0.094
942	0.094
943	0.094
943	0.094
944	0.093
944	0.093
944	0.092
945	0.092
945	0.091
946	0.09
946	0.089
946	0.088
947	0.087
947	0.087
948	0.087
948	0.087
949	0.087
949	0.087
949	0.088
950	0.089
950	0.089
951	0.09
951	0.09
952	0.091
952	0.092
952	0.093
953	0.094
953	0.095
954	0.095
954	0.095
955	0.096
955	0.097
955	0.098
956	0.099
956	0.1
957	0.1
957	0.1
957	0.1
958	0.1
958	0.101
959	0.101
959	0.101
960	0.101
960	0.101
960	0.101
961	0.101
961	0.101
962	0.101
962	0.101
963	0.101
963	0.101
963	0.1
964	0.1
964	0.101
965	0.101
965	0.101
966	0.1
966	0.1
966	0.1
967	0.1
967	0.099
968	0.098
968	0.098
968	0.097
969	0.096
969	0.096
970	0.095
970	0.095
971	0.095
971	0.095
971	0.095
972	0.096
972	0.096
973	0.096
973	0.096
974	0.096
974	0.096
974	0.096
975	0.095
975	0.095
976	0.094
976	0.093
976	0.093
977	0.093
977	0.093
978	0.092
978	0.092
979	0.092
979	0.091
979	0.091
980	0.091
980	0.091
981	0.091
981	0.091
982	0.09
982	0.09
982	0.089
983	0.089
983	0.089
984	0.089
984	0.089
984	0.089
985	0.09
985	0.09
986	0.089
986	0.089
987	0.089
987	0.089
987	0.088
988	0.088
988	0.087
989	0.086
989	0.085
990	0.084
990	0.083
990	0.083
991	0.082
991	0.082
992	0.082
992	0.081
992	0.081
993	0.081
993	0.081
994	0.081
994	0.081
995	0.081
995	0.081
995	0.08
996	0.08
996	0.079
997	0.078
997	0.078
997	0.078
998	0.078
998	0.078
999	0.078
999	0.078
1000	0.078
1000	0.078
1000	0.079
1001	0.079
1001	0.08
1002	0.08
1002	0.08
1003	0.08
1003	0.08
1003	0.08
1004	0.08
1004	0.08
1005	0.079
1005	0.079
1005	0.078
1006	0.076
1006	0.075
1007	0.074
1007	0.073
1008	0.073
1008	0.072
1008	0.071
1009	0.071
1009	0.071
1010	0.071
1010	0.071
1010	0.07
1011	0.071
1011	0.07
1012	0.07
1012	0.069
1013	0.068
1013	0.067
1013	0.066
1014	0.065
1014	0.064
1015	0.064
1015	0.063
1016	0.062
1016	0.061
1016	0.061
1017	0.06
1017	0.059
1018	0.059
1018	0.058
1018	0.058
1019	0.057
1019	0.056
1020	0.056
1020	0.055
1021	0.054
1021	0.053
1021	0.052
1022	0.052
1022	0.051
1023	0.051
1023	0.051
1023	0.05
1024	0.05
1024	0.05
1025	0.05
1025	0.05
1026	0.051
1026	0.052
1026	0.052
1027	0.052
1027	0.052
1028	0.052
1028	0.052
1028	0.052
1029	0.052
1029	0.052
1030	0.052
1030	0.051
1031	0.05
1031	0.05
1031	0.049
1032	0.049
1032	0.049
1033	0.049
1033	0.049
1033	0.049
1034	0.049
1034	0.049
1035	0.049
1035	0.049
1036	0.049
1036	0.049
1036	0.049
1037	0.05
1037	0.05
1038	0.05
1038	0.049
1039	0.05
1039	0.05
1039	0.05
1040	0.05
1040	0.051
1041	0.051
1041	0.051
1041	0.051
1042	0.051
1042	0.05
1043	0.05
1043	0.05
1044	0.049
1044	0.049
1044	0.048
1045	0.047
1045	0.046
1046	0.045
1046	0.045
1046	0.045
1047	0.045
1047	0.045
1048	0.045
1048	0.045
1049	0.045
1049	0.046
1049	0.046
1050	0.047
1050	0.047
1051	0.047
1051	0.047
1051	0.048
1052	0.048
1052	0.048
1053	0.048
1053	0.048
1053	0.048
1054	0.047
1054	0.047
1055	0.047
1055	0.046
1056	0.046
1056	0.045
1056	0.044
1057	0.044
1057	0.043
1058	0.043
1058	0.042
1058	0.042
1059	0.041
1059	0.041
1060	0.04
1060	0.04
1061	0.039
1061	0.039
1061	0.039
1062	0.039
1062	0.039
1063	0.039
1063	0.039
1063	0.039
1064	0.04
1064	0.04
1065	0.04
1065	0.04
1066	0.039
1066	0.039
1066	0.039
1067	0.039
1067	0.038
1068	0.038
1068	0.037
1068	0.036
1069	0.036
1069	0.036
1070	0.035
1070	0.035
1071	0.035
1071	0.035
1071	0.034
1072	0.034
1072	0.033
1073	0.033
1073	0.033
1073	0.032
1074	0.033
1074	0.032
1075	0.032
1075	0.031
1076	0.031
1076	0.031
1076	0.03
1077	0.03
1077	0.029
1078	0.028
1078	0.027
1078	0.026
1079	0.026
1079	0.025
1080	0.024
1080	0.024
1080	0.023
1081	0.022
1081	0.021
1082	0.021
1082	0.019
1083	0.019
1083	0.018
1083	0.017
1084	0.016
1084	0.015
1085	0.014
1085	0.013
1085	0.013
1086	0.013
1086	0.012
1087	0.012
1087	0.012
1088	0.011
1088	0.011
1088	0.01
1089	0.009
1089	0.009
1090	0.007
1090	0.007
1090	0.005
1091	0.005
1091	0.004
1092	0.003
1092	0.003
1092	0.001
1093	0.001
1093	0.001
1094	0.001
1094	0
1095	-0.001
1095	-0.001
1095	-0.001
1096	-0.002
1096	-0.003
1097	-0.004
1097	-0.005
1097	-0.006
1098	-0.008
1098	-0.009
1099	-0.01
1099	-0.011
1100	-0.013
1100	-0.015
1100	-0.018
1101	-0.02
1101	-0.024
1102	-0.026
1102	-0.028
1102	-0.029
1103	-0.031
1103	-0.033
1104	-0.035
1104	-0.037
1104	-0.039
1105	-0.04
1105	-0.043
1106	-0.047
1106	-0.049
1107	-0.053
1107	-0.058
1107	-0.063
1108	-0.066
1108	-0.068
1109	-0.07
1109	-0.075
1109	-0.078
1110	-0.078
1110	-0.082
1111	-0.09
1111	-0.09
