Data from 17C_3.2A_35min_2sec_int_Absorbance__105__01667.txt Node

Date: Mon Jun 19 17:35:30 CEST 2023
User: Marek
Spectrometer: MAYP115816
Trigger mode: 0
Integration Time (sec): 2.500000E-1
Scans to average: 10
Electric dark correction enabled: true
Nonlinearity correction enabled: true
Boxcar width: 5
XAxis mode: Wavelengths
Number of Pixels in Spectrum: 2068
>>>>>Begin Spectral Data<<<<<
199	-0.722
199	-0.739
200	-0.639
200	-0.586
201	-0.548
201	-0.533
202	-0.516
202	-0.501
203	-0.495
203	-0.49
204	-0.477
204	-0.463
205	-0.439
205	-0.434
205	-0.431
206	-0.434
206	-0.437
207	-0.427
207	-0.43
208	-0.431
208	-0.43
209	-0.424
209	-0.426
210	-0.43
210	-0.435
211	-0.438
211	-0.439
212	-0.443
212	-0.451
213	-0.449
213	-0.449
213	-0.452
214	-0.45
214	-0.449
215	-0.449
215	-0.454
216	-0.457
216	-0.465
217	-0.459
217	-0.464
218	-0.466
218	-0.464
219	-0.468
219	-0.478
220	-0.482
220	-0.49
221	-0.488
221	-0.492
221	-0.484
222	-0.481
222	-0.481
223	-0.486
223	-0.492
224	-0.496
224	-0.495
225	-0.49
225	-0.486
226	-0.492
226	-0.491
227	-0.497
227	-0.507
228	-0.507
228	-0.508
229	-0.507
229	-0.502
229	-0.497
230	-0.501
230	-0.504
231	-0.499
231	-0.492
232	-0.485
232	-0.485
233	-0.48
233	-0.478
234	-0.476
234	-0.473
235	-0.476
235	-0.479
236	-0.478
236	-0.48
236	-0.486
237	-0.493
237	-0.491
238	-0.5
238	-0.499
239	-0.499
239	-0.509
240	-0.508
240	-0.507
241	-0.512
241	-0.512
242	-0.517
242	-0.512
243	-0.508
243	-0.508
243	-0.517
244	-0.516
244	-0.512
245	-0.527
245	-0.526
246	-0.531
246	-0.536
247	-0.538
247	-0.544
248	-0.551
248	-0.55
249	-0.553
249	-0.563
250	-0.564
250	-0.56
250	-0.562
251	-0.559
251	-0.558
252	-0.56
252	-0.549
253	-0.552
253	-0.563
254	-0.561
254	-0.556
255	-0.563
255	-0.555
256	-0.552
256	-0.563
257	-0.56
257	-0.556
258	-0.572
258	-0.568
258	-0.563
259	-0.559
259	-0.569
260	-0.57
260	-0.576
261	-0.587
261	-0.578
262	-0.574
262	-0.575
263	-0.565
263	-0.561
264	-0.56
264	-0.57
265	-0.566
265	-0.572
265	-0.572
266	-0.568
266	-0.567
267	-0.581
267	-0.589
268	-0.602
268	-0.614
269	-0.612
269	-0.604
270	-0.607
270	-0.609
271	-0.612
271	-0.619
272	-0.62
272	-0.614
272	-0.605
273	-0.604
273	-0.61
274	-0.614
274	-0.619
275	-0.622
275	-0.616
276	-0.618
276	-0.612
277	-0.618
277	-0.636
278	-0.648
278	-0.643
278	-0.64
279	-0.643
279	-0.654
280	-0.65
280	-0.651
281	-0.647
281	-0.652
282	-0.644
282	-0.644
283	-0.634
283	-0.635
284	-0.626
284	-0.615
285	-0.609
285	-0.607
285	-0.604
286	-0.61
286	-0.604
287	-0.602
287	-0.585
288	-0.578
288	-0.588
289	-0.602
289	-0.612
290	-0.602
290	-0.601
291	-0.598
291	-0.591
292	-0.594
292	-0.597
292	-0.602
293	-0.607
293	-0.597
294	-0.587
294	-0.578
295	-0.576
295	-0.573
296	-0.57
296	-0.568
297	-0.56
297	-0.545
298	-0.538
298	-0.547
298	-0.533
299	-0.525
299	-0.525
300	-0.52
300	-0.515
301	-0.513
301	-0.515
302	-0.524
302	-0.533
303	-0.52
303	-0.506
304	-0.509
304	-0.507
305	-0.51
305	-0.511
305	-0.508
306	-0.491
306	-0.483
307	-0.47
307	-0.472
308	-0.487
308	-0.486
309	-0.487
309	-0.479
310	-0.467
310	-0.462
311	-0.455
311	-0.465
311	-0.462
312	-0.457
312	-0.455
313	-0.44
313	-0.442
314	-0.441
314	-0.442
315	-0.444
315	-0.441
316	-0.436
316	-0.426
317	-0.42
317	-0.418
318	-0.407
318	-0.403
318	-0.398
319	-0.386
319	-0.381
320	-0.373
320	-0.376
321	-0.382
321	-0.377
322	-0.368
322	-0.361
323	-0.36
323	-0.357
324	-0.349
324	-0.344
324	-0.335
325	-0.324
325	-0.304
326	-0.289
326	-0.273
327	-0.26
327	-0.238
328	-0.209
328	-0.187
329	-0.161
329	-0.133
330	-0.102
330	-0.067
330	-0.037
331	-0.006
331	0.024
332	0.053
332	0.081
333	0.105
333	0.134
334	0.157
334	0.176
335	0.195
335	0.212
336	0.228
336	0.243
336	0.256
337	0.27
337	0.28
338	0.29
338	0.297
339	0.306
339	0.313
340	0.319
340	0.325
341	0.33
341	0.334
342	0.338
342	0.342
342	0.345
343	0.348
343	0.351
344	0.353
344	0.355
345	0.357
345	0.358
346	0.359
346	0.36
347	0.361
347	0.361
348	0.362
348	0.363
348	0.363
349	0.363
349	0.363
350	0.364
350	0.364
351	0.364
351	0.364
352	0.364
352	0.364
353	0.364
353	0.364
354	0.364
354	0.364
354	0.363
355	0.363
355	0.363
356	0.363
356	0.363
357	0.362
357	0.362
358	0.362
358	0.361
359	0.361
359	0.361
360	0.361
360	0.361
360	0.36
361	0.36
361	0.359
362	0.36
362	0.359
363	0.359
363	0.359
364	0.358
364	0.358
365	0.358
365	0.358
366	0.358
366	0.357
366	0.357
367	0.357
367	0.357
368	0.357
368	0.356
369	0.356
369	0.356
370	0.356
370	0.355
371	0.355
371	0.355
372	0.354
372	0.354
372	0.354
373	0.354
373	0.354
374	0.353
374	0.353
375	0.353
375	0.353
376	0.352
376	0.352
377	0.352
377	0.352
378	0.351
378	0.351
378	0.351
379	0.35
379	0.35
380	0.35
380	0.349
381	0.349
381	0.349
382	0.348
382	0.348
383	0.347
383	0.347
383	0.346
384	0.346
384	0.346
385	0.346
385	0.345
386	0.345
386	0.345
387	0.345
387	0.344
388	0.344
388	0.344
389	0.344
389	0.343
389	0.343
390	0.343
390	0.343
391	0.342
391	0.342
392	0.342
392	0.342
393	0.341
393	0.341
394	0.34
394	0.34
394	0.339
395	0.339
395	0.338
396	0.338
396	0.338
397	0.337
397	0.337
398	0.337
398	0.337
399	0.337
399	0.336
400	0.336
400	0.336
400	0.336
401	0.335
401	0.335
402	0.334
402	0.334
403	0.333
403	0.333
404	0.333
404	0.332
405	0.332
405	0.332
405	0.332
406	0.331
406	0.331
407	0.331
407	0.331
408	0.33
408	0.33
409	0.33
409	0.33
410	0.33
410	0.33
411	0.33
411	0.329
411	0.329
412	0.329
412	0.329
413	0.328
413	0.328
414	0.328
414	0.328
415	0.327
415	0.327
416	0.327
416	0.327
416	0.326
417	0.326
417	0.326
418	0.326
418	0.326
419	0.326
419	0.326
420	0.325
420	0.325
421	0.325
421	0.325
421	0.325
422	0.325
422	0.325
423	0.324
423	0.324
424	0.323
424	0.323
425	0.323
425	0.322
426	0.322
426	0.322
427	0.321
427	0.321
427	0.321
428	0.321
428	0.321
429	0.321
429	0.321
430	0.32
430	0.32
431	0.32
431	0.32
432	0.32
432	0.32
432	0.32
433	0.319
433	0.319
434	0.319
434	0.319
435	0.319
435	0.319
436	0.319
436	0.318
437	0.318
437	0.318
437	0.318
438	0.318
438	0.318
439	0.318
439	0.318
440	0.318
440	0.318
441	0.318
441	0.318
442	0.318
442	0.317
442	0.318
443	0.317
443	0.318
444	0.318
444	0.318
445	0.318
445	0.318
446	0.318
446	0.318
447	0.318
447	0.318
447	0.319
448	0.319
448	0.319
449	0.319
449	0.319
450	0.319
450	0.319
451	0.319
451	0.319
452	0.319
452	0.319
452	0.319
453	0.319
453	0.319
454	0.319
454	0.319
455	0.319
455	0.319
456	0.319
456	0.319
457	0.319
457	0.319
458	0.319
458	0.319
458	0.32
459	0.32
459	0.32
460	0.32
460	0.321
461	0.321
461	0.321
462	0.321
462	0.322
463	0.322
463	0.322
463	0.323
464	0.323
464	0.323
465	0.323
465	0.324
466	0.324
466	0.325
467	0.325
467	0.326
467	0.326
468	0.327
468	0.327
469	0.328
469	0.329
470	0.329
470	0.33
471	0.33
471	0.331
472	0.331
472	0.332
472	0.332
473	0.333
473	0.334
474	0.334
474	0.335
475	0.336
475	0.337
476	0.337
476	0.338
477	0.339
477	0.34
477	0.341
478	0.342
478	0.343
479	0.343
479	0.344
480	0.345
480	0.346
481	0.347
481	0.348
482	0.35
482	0.351
482	0.352
483	0.353
483	0.355
484	0.356
484	0.357
485	0.358
485	0.359
486	0.36
486	0.362
487	0.363
487	0.365
487	0.367
488	0.368
488	0.37
489	0.372
489	0.375
490	0.377
490	0.379
491	0.381
491	0.383
492	0.385
492	0.387
492	0.389
493	0.392
493	0.394
494	0.396
494	0.398
495	0.4
495	0.402
496	0.405
496	0.407
496	0.41
497	0.413
497	0.415
498	0.418
498	0.42
499	0.423
499	0.426
500	0.429
500	0.432
501	0.435
501	0.437
501	0.44
502	0.443
502	0.445
503	0.448
503	0.451
504	0.454
504	0.457
505	0.46
505	0.462
506	0.466
506	0.468
506	0.471
507	0.474
507	0.477
508	0.48
508	0.483
509	0.486
509	0.489
510	0.493
510	0.496
511	0.499
511	0.502
511	0.504
512	0.508
512	0.511
513	0.513
513	0.516
514	0.519
514	0.522
515	0.525
515	0.527
515	0.53
516	0.533
516	0.536
517	0.539
517	0.542
518	0.544
518	0.546
519	0.549
519	0.551
520	0.554
520	0.556
520	0.559
521	0.561
521	0.563
522	0.565
522	0.567
523	0.569
523	0.571
524	0.573
524	0.574
524	0.575
525	0.576
525	0.577
526	0.578
526	0.579
527	0.58
527	0.581
528	0.582
528	0.583
529	0.584
529	0.585
529	0.586
530	0.588
530	0.588
531	0.588
531	0.589
532	0.589
532	0.589
533	0.589
533	0.589
533	0.588
534	0.588
534	0.587
535	0.587
535	0.586
536	0.585
536	0.584
537	0.583
537	0.582
538	0.581
538	0.58
538	0.579
539	0.578
539	0.577
540	0.576
540	0.574
541	0.573
541	0.572
542	0.571
542	0.569
542	0.567
543	0.565
543	0.563
544	0.56
544	0.558
545	0.556
545	0.555
546	0.553
546	0.55
547	0.547
547	0.545
547	0.543
548	0.541
548	0.539
549	0.537
549	0.535
550	0.532
550	0.53
551	0.527
551	0.525
551	0.524
552	0.522
552	0.52
553	0.518
553	0.515
554	0.513
554	0.51
555	0.508
555	0.506
556	0.503
556	0.5
556	0.498
557	0.495
557	0.492
558	0.489
558	0.486
559	0.483
559	0.48
560	0.477
560	0.475
560	0.472
561	0.47
561	0.467
562	0.464
562	0.461
563	0.458
563	0.455
564	0.452
564	0.45
564	0.448
565	0.445
565	0.443
566	0.44
566	0.437
567	0.435
567	0.432
568	0.429
568	0.425
568	0.423
569	0.42
569	0.416
570	0.413
570	0.409
571	0.407
571	0.404
572	0.401
572	0.399
573	0.396
573	0.393
573	0.391
574	0.389
574	0.386
575	0.384
575	0.382
576	0.38
576	0.376
577	0.374
577	0.372
577	0.37
578	0.368
578	0.366
579	0.365
579	0.362
580	0.359
580	0.355
581	0.353
581	0.35
581	0.349
582	0.347
582	0.345
583	0.343
583	0.34
584	0.337
584	0.334
585	0.332
585	0.33
585	0.328
586	0.326
586	0.324
587	0.322
587	0.32
588	0.318
588	0.316
589	0.314
589	0.312
590	0.31
590	0.308
590	0.306
591	0.304
591	0.301
592	0.298
592	0.296
593	0.294
593	0.292
594	0.291
594	0.289
594	0.287
595	0.286
595	0.283
596	0.281
596	0.28
597	0.279
597	0.277
598	0.274
598	0.272
598	0.27
599	0.269
599	0.266
600	0.264
600	0.262
601	0.26
601	0.258
602	0.256
602	0.254
602	0.252
603	0.251
603	0.25
604	0.249
604	0.248
605	0.247
605	0.246
606	0.244
606	0.242
606	0.24
607	0.239
607	0.237
608	0.235
608	0.232
609	0.231
609	0.229
610	0.228
610	0.226
610	0.225
611	0.224
611	0.223
612	0.222
612	0.222
613	0.221
613	0.219
614	0.217
614	0.215
614	0.214
615	0.212
615	0.21
616	0.209
616	0.207
617	0.205
617	0.202
618	0.201
618	0.199
618	0.198
619	0.197
619	0.197
620	0.196
620	0.194
621	0.193
621	0.192
622	0.191
622	0.19
622	0.188
623	0.187
623	0.186
624	0.185
624	0.183
625	0.182
625	0.181
626	0.179
626	0.177
626	0.176
627	0.175
627	0.173
628	0.171
628	0.169
629	0.167
629	0.165
630	0.162
630	0.16
630	0.158
631	0.155
631	0.153
632	0.15
632	0.147
633	0.144
633	0.141
634	0.138
634	0.135
634	0.132
635	0.129
635	0.125
636	0.121
636	0.117
637	0.113
637	0.109
638	0.105
638	0.1
638	0.095
639	0.09
639	0.084
640	0.078
640	0.073
641	0.068
641	0.062
642	0.057
642	0.051
642	0.046
643	0.04
643	0.034
644	0.028
644	0.021
645	0.015
645	0.009
646	0.003
646	-0.003
646	-0.01
647	-0.016
647	-0.023
648	-0.029
648	-0.035
649	-0.043
649	-0.049
650	-0.056
650	-0.063
650	-0.071
651	-0.08
651	-0.091
652	-0.104
652	-0.117
653	-0.128
653	-0.138
653	-0.133
654	-0.113
654	-0.103
655	-0.105
655	-0.108
656	-0.112
656	-0.115
657	-0.117
657	-0.12
657	-0.123
658	-0.127
658	-0.151
659	-0.222
659	-0.307
660	-0.344
660	-0.365
661	-0.388
661	-0.413
661	-0.441
662	-0.467
662	-0.497
663	-0.529
663	-0.566
664	-0.603
664	-0.647
665	-0.691
665	-0.743
665	-0.792
666	-0.843
666	-0.9
667	-0.959
667	-1.019
668	-1.087
668	-1.156
669	-1.227
669	-1.298
669	-1.372
670	-1.435
670	-1.46
671	-1.612
671	-1.932
672	-2.175
672	-2.373
672	-2.508
673	-2.603
673	-2.685
674	-2.716
674	-2.733
675	-2.757
675	-2.899
676	-3.096
676	-3.043
676	-2.814
677	-2.601
677	-2.424
678	-2.217
678	-1.815
679	-1.576
679	-1.456
680	-1.368
680	-1.291
680	-1.227
681	-1.186
681	-1.131
682	-1.096
682	-1.063
683	-1.03
683	-1.017
684	-1
684	-0.984
684	-0.964
685	-0.942
685	-0.923
686	-0.901
686	-0.888
687	-0.865
687	-0.856
687	-0.838
688	-0.815
688	-0.797
689	-0.776
689	-0.763
690	-0.745
690	-0.735
691	-0.731
691	-0.737
691	-0.753
692	-0.744
692	-0.739
693	-0.736
693	-0.742
694	-0.74
694	-0.735
695	-0.743
695	-0.74
695	-0.727
696	-0.724
696	-0.703
697	-0.705
697	-0.721
698	-0.724
698	-0.716
698	-0.73
699	-0.733
699	-0.73
700	-0.723
700	-0.735
701	-0.735
701	-0.743
702	-0.742
702	-0.731
702	-0.724
703	-0.717
703	-0.709
704	-0.707
704	-0.706
705	-0.719
705	-0.712
705	-0.702
706	-0.703
706	-0.698
707	-0.702
707	-0.697
708	-0.694
708	-0.686
709	-0.689
709	-0.693
709	-0.684
710	-0.694
710	-0.701
711	-0.692
711	-0.692
712	-0.691
712	-0.704
713	-0.706
713	-0.713
713	-0.703
714	-0.699
714	-0.7
715	-0.688
715	-0.675
716	-0.684
716	-0.685
716	-0.68
717	-0.682
717	-0.684
718	-0.68
718	-0.681
719	-0.688
719	-0.69
720	-0.686
720	-0.698
720	-0.689
721	-0.68
721	-0.679
722	-0.667
722	-0.657
723	-0.65
723	-0.654
723	-0.64
724	-0.644
724	-0.647
725	-0.646
725	-0.656
726	-0.668
726	-0.673
727	-0.678
727	-0.692
727	-0.701
728	-0.702
728	-0.71
729	-0.708
729	-0.716
730	-0.724
730	-0.716
730	-0.706
731	-0.69
731	-0.7
732	-0.705
732	-0.704
733	-0.702
733	-0.706
734	-0.701
734	-0.7
734	-0.687
735	-0.686
735	-0.686
736	-0.699
736	-0.685
737	-0.675
737	-0.676
737	-0.688
738	-0.681
738	-0.683
739	-0.679
739	-0.692
740	-0.691
740	-0.692
741	-0.687
741	-0.688
741	-0.693
742	-0.69
742	-0.689
743	-0.697
743	-0.7
744	-0.696
744	-0.685
744	-0.685
745	-0.691
745	-0.684
746	-0.683
746	-0.68
747	-0.681
747	-0.671
748	-0.658
748	-0.665
748	-0.669
749	-0.669
749	-0.67
750	-0.661
750	-0.661
751	-0.667
751	-0.676
751	-0.68
752	-0.684
752	-0.694
753	-0.687
753	-0.684
754	-0.688
754	-0.683
754	-0.693
755	-0.711
755	-0.719
756	-0.709
756	-0.704
757	-0.702
757	-0.697
758	-0.701
758	-0.698
758	-0.702
759	-0.708
759	-0.696
760	-0.689
760	-0.686
761	-0.696
761	-0.692
761	-0.691
762	-0.7
762	-0.699
763	-0.705
763	-0.703
764	-0.702
764	-0.709
764	-0.712
765	-0.702
765	-0.688
766	-0.696
766	-0.704
767	-0.715
767	-0.708
768	-0.704
768	-0.711
768	-0.714
769	-0.73
769	-0.732
770	-0.738
770	-0.752
771	-0.752
771	-0.753
771	-0.755
772	-0.757
772	-0.755
773	-0.754
773	-0.751
774	-0.75
774	-0.75
775	-0.753
775	-0.748
775	-0.752
776	-0.752
776	-0.742
777	-0.752
777	-0.77
778	-0.768
778	-0.788
778	-0.774
779	-0.794
779	-0.802
780	-0.816
780	-0.817
781	-0.828
781	-0.825
781	-0.841
782	-0.842
782	-0.845
783	-0.831
783	-0.829
784	-0.813
784	-0.801
784	-0.81
785	-0.816
785	-0.801
786	-0.804
786	-0.78
787	-0.765
787	-0.765
788	-0.768
788	-0.78
788	-0.788
789	-0.788
789	-0.77
790	-0.751
790	-0.752
791	-0.756
791	-0.774
791	-0.781
792	-0.775
792	-0.752
793	-0.745
793	-0.723
794	-0.728
794	-0.719
794	-0.728
795	-0.724
795	-0.715
796	-0.699
796	-0.708
797	-0.704
797	-0.717
797	-0.723
798	-0.735
798	-0.73
799	-0.741
799	-0.729
800	-0.735
800	-0.729
801	-0.735
801	-0.719
801	-0.728
802	-0.735
802	-0.733
803	-0.733
803	-0.742
804	-0.738
804	-0.75
804	-0.737
805	-0.742
805	-0.73
806	-0.735
806	-0.721
807	-0.717
807	-0.7
807	-0.689
808	-0.682
808	-0.675
809	-0.658
809	-0.669
810	-0.668
810	-0.661
810	-0.657
811	-0.665
811	-0.657
812	-0.659
812	-0.663
813	-0.667
813	-0.661
813	-0.667
814	-0.669
814	-0.671
815	-0.677
815	-0.681
816	-0.672
816	-0.678
817	-0.685
817	-0.703
817	-0.714
818	-0.724
818	-0.728
819	-0.718
819	-0.719
820	-0.727
820	-0.723
820	-0.735
821	-0.733
821	-0.721
822	-0.688
822	-0.663
823	-0.661
823	-0.663
823	-0.66
824	-0.653
824	-0.655
825	-0.646
825	-0.627
826	-0.622
826	-0.629
826	-0.64
827	-0.636
827	-0.632
828	-0.612
828	-0.613
829	-0.604
829	-0.591
829	-0.585
830	-0.594
830	-0.592
831	-0.584
831	-0.575
832	-0.577
832	-0.569
832	-0.578
833	-0.575
833	-0.577
834	-0.573
834	-0.581
835	-0.567
835	-0.562
835	-0.56
836	-0.555
836	-0.55
837	-0.549
837	-0.54
838	-0.532
838	-0.519
839	-0.508
839	-0.496
839	-0.488
840	-0.478
840	-0.474
841	-0.465
841	-0.457
842	-0.451
842	-0.438
842	-0.431
843	-0.426
843	-0.421
844	-0.413
844	-0.407
845	-0.398
845	-0.389
845	-0.376
846	-0.367
846	-0.355
847	-0.346
847	-0.337
848	-0.328
848	-0.318
848	-0.305
849	-0.294
849	-0.284
850	-0.27
850	-0.266
851	-0.258
851	-0.248
851	-0.24
852	-0.224
852	-0.212
853	-0.204
853	-0.199
854	-0.188
854	-0.178
854	-0.169
855	-0.158
855	-0.153
856	-0.143
856	-0.136
857	-0.131
857	-0.123
857	-0.113
858	-0.104
858	-0.098
859	-0.091
859	-0.082
860	-0.075
860	-0.064
860	-0.057
861	-0.051
861	-0.044
862	-0.038
862	-0.032
863	-0.027
863	-0.02
863	-0.016
864	-0.012
864	-0.008
865	-0.003
865	0.001
866	0.005
866	0.008
866	0.011
867	0.014
867	0.017
868	0.019
868	0.023
869	0.026
869	0.028
869	0.03
870	0.032
870	0.034
871	0.037
871	0.038
872	0.04
872	0.04
872	0.041
873	0.042
873	0.042
874	0.042
874	0.041
875	0.041
875	0.04
875	0.039
876	0.038
876	0.036
877	0.035
877	0.034
878	0.032
878	0.03
878	0.028
879	0.027
879	0.026
880	0.025
880	0.024
881	0.024
881	0.024
881	0.024
882	0.023
882	0.023
883	0.022
883	0.021
884	0.021
884	0.021
884	0.02
885	0.019
885	0.019
886	0.018
886	0.018
887	0.017
887	0.017
887	0.017
888	0.017
888	0.017
889	0.018
889	0.018
890	0.018
890	0.018
890	0.018
891	0.018
891	0.018
892	0.018
892	0.019
893	0.018
893	0.018
893	0.018
894	0.018
894	0.017
895	0.017
895	0.016
895	0.016
896	0.015
896	0.014
897	0.013
897	0.012
898	0.011
898	0.011
898	0.011
899	0.011
899	0.012
900	0.013
900	0.013
901	0.014
901	0.015
901	0.016
902	0.016
902	0.017
903	0.018
903	0.018
904	0.018
904	0.019
904	0.02
905	0.02
905	0.021
906	0.021
906	0.021
907	0.022
907	0.021
907	0.021
908	0.021
908	0.02
909	0.02
909	0.019
910	0.019
910	0.018
910	0.018
911	0.019
911	0.019
912	0.02
912	0.02
913	0.021
913	0.021
913	0.022
914	0.023
914	0.024
915	0.025
915	0.025
916	0.026
916	0.026
916	0.027
917	0.027
917	0.027
918	0.027
918	0.027
918	0.027
919	0.027
919	0.027
920	0.027
920	0.027
921	0.027
921	0.027
921	0.028
922	0.028
922	0.028
923	0.027
923	0.027
924	0.027
924	0.027
924	0.026
925	0.025
925	0.024
926	0.023
926	0.022
927	0.021
927	0.02
927	0.019
928	0.019
928	0.018
929	0.017
929	0.017
930	0.016
930	0.015
930	0.015
931	0.015
931	0.014
932	0.014
932	0.013
933	0.012
933	0.011
933	0.009
934	0.008
934	0.007
935	0.007
935	0.006
935	0.005
936	0.004
936	0.003
937	0.002
937	0.002
938	0.002
938	0.002
938	0.003
939	0.003
939	0.004
940	0.004
940	0.005
941	0.006
941	0.007
941	0.008
942	0.009
942	0.009
943	0.01
943	0.01
944	0.01
944	0.009
944	0.009
945	0.008
945	0.007
946	0.006
946	0.005
946	0.004
947	0.004
947	0.003
948	0.004
948	0.004
949	0.004
949	0.005
949	0.006
950	0.007
950	0.007
951	0.008
951	0.009
952	0.01
952	0.011
952	0.011
953	0.012
953	0.013
954	0.013
954	0.014
955	0.015
955	0.016
955	0.017
956	0.018
956	0.019
957	0.019
957	0.019
957	0.019
958	0.019
958	0.02
959	0.02
959	0.019
960	0.019
960	0.019
960	0.019
961	0.019
961	0.019
962	0.019
962	0.019
963	0.019
963	0.019
963	0.019
964	0.019
964	0.02
965	0.02
965	0.02
966	0.02
966	0.02
966	0.02
967	0.019
967	0.019
968	0.018
968	0.018
968	0.017
969	0.017
969	0.016
970	0.016
970	0.016
971	0.016
971	0.017
971	0.017
972	0.017
972	0.017
973	0.018
973	0.018
974	0.017
974	0.017
974	0.017
975	0.016
975	0.016
976	0.014
976	0.014
976	0.014
977	0.013
977	0.013
978	0.013
978	0.013
979	0.013
979	0.013
979	0.013
980	0.012
980	0.013
981	0.012
981	0.012
982	0.012
982	0.012
982	0.011
983	0.011
983	0.011
984	0.011
984	0.011
984	0.011
985	0.011
985	0.012
986	0.012
986	0.012
987	0.012
987	0.012
987	0.011
988	0.011
988	0.011
989	0.01
989	0.009
990	0.008
990	0.007
990	0.007
991	0.007
991	0.007
992	0.006
992	0.006
992	0.006
993	0.006
993	0.006
994	0.006
994	0.006
995	0.006
995	0.006
995	0.006
996	0.005
996	0.005
997	0.004
997	0.004
997	0.004
998	0.004
998	0.004
999	0.004
999	0.004
1000	0.005
1000	0.005
1000	0.005
1001	0.006
1001	0.006
1002	0.007
1002	0.007
1003	0.007
1003	0.007
1003	0.007
1004	0.007
1004	0.007
1005	0.006
1005	0.005
1005	0.004
1006	0.003
1006	0.002
1007	0.001
1007	0
1008	-0
1008	-0.001
1008	-0.001
1009	-0.001
1009	-0.001
1010	-0.001
1010	-0.001
1010	-0.002
1011	-0.002
1011	-0.002
1012	-0.002
1012	-0.003
1013	-0.004
1013	-0.005
1013	-0.006
1014	-0.006
1014	-0.007
1015	-0.008
1015	-0.008
1016	-0.009
1016	-0.01
1016	-0.01
1017	-0.011
1017	-0.011
1018	-0.012
1018	-0.012
1018	-0.013
1019	-0.013
1019	-0.014
1020	-0.015
1020	-0.015
1021	-0.016
1021	-0.017
1021	-0.018
1022	-0.019
1022	-0.019
1023	-0.019
1023	-0.02
1023	-0.02
1024	-0.02
1024	-0.02
1025	-0.02
1025	-0.019
1026	-0.019
1026	-0.018
1026	-0.018
1027	-0.017
1027	-0.017
1028	-0.017
1028	-0.017
1028	-0.017
1029	-0.017
1029	-0.018
1030	-0.018
1030	-0.019
1031	-0.019
1031	-0.019
1031	-0.02
1032	-0.02
1032	-0.02
1033	-0.019
1033	-0.019
1033	-0.019
1034	-0.018
1034	-0.018
1035	-0.018
1035	-0.018
1036	-0.018
1036	-0.018
1036	-0.018
1037	-0.018
1037	-0.018
1038	-0.018
1038	-0.018
1039	-0.018
1039	-0.017
1039	-0.017
1040	-0.017
1040	-0.016
1041	-0.015
1041	-0.015
1041	-0.015
1042	-0.015
1042	-0.015
1043	-0.016
1043	-0.016
1044	-0.017
1044	-0.018
1044	-0.018
1045	-0.019
1045	-0.02
1046	-0.02
1046	-0.021
1046	-0.021
1047	-0.021
1047	-0.02
1048	-0.02
1048	-0.02
1049	-0.02
1049	-0.02
1049	-0.019
1050	-0.019
1050	-0.019
1051	-0.019
1051	-0.019
1051	-0.019
1052	-0.018
1052	-0.018
1053	-0.018
1053	-0.017
1053	-0.017
1054	-0.017
1054	-0.017
1055	-0.017
1055	-0.017
1056	-0.018
1056	-0.019
1056	-0.02
1057	-0.02
1057	-0.021
1058	-0.022
1058	-0.022
1058	-0.023
1059	-0.023
1059	-0.024
1060	-0.024
1060	-0.024
1061	-0.025
1061	-0.025
1061	-0.025
1062	-0.025
1062	-0.025
1063	-0.026
1063	-0.026
1063	-0.025
1064	-0.025
1064	-0.025
1065	-0.025
1065	-0.025
1066	-0.025
1066	-0.025
1066	-0.025
1067	-0.025
1067	-0.025
1068	-0.025
1068	-0.026
1068	-0.026
1069	-0.026
1069	-0.027
1070	-0.027
1070	-0.027
1071	-0.027
1071	-0.027
1071	-0.028
1072	-0.029
1072	-0.029
1073	-0.029
1073	-0.029
1073	-0.03
1074	-0.029
1074	-0.029
1075	-0.03
1075	-0.031
1076	-0.031
1076	-0.032
1076	-0.032
1077	-0.032
1077	-0.033
1078	-0.034
1078	-0.034
1078	-0.035
1079	-0.035
1079	-0.035
1080	-0.036
1080	-0.037
1080	-0.037
1081	-0.038
1081	-0.039
1082	-0.039
1082	-0.04
1083	-0.041
1083	-0.042
1083	-0.043
1084	-0.044
1084	-0.044
1085	-0.045
1085	-0.046
1085	-0.046
1086	-0.046
1086	-0.047
1087	-0.047
1087	-0.047
1088	-0.047
1088	-0.048
1088	-0.048
1089	-0.049
1089	-0.049
1090	-0.05
1090	-0.05
1090	-0.05
1091	-0.051
1091	-0.051
1092	-0.052
1092	-0.051
1092	-0.053
1093	-0.053
1093	-0.053
1094	-0.053
1094	-0.053
1095	-0.054
1095	-0.055
1095	-0.056
1096	-0.057
1096	-0.058
1097	-0.058
1097	-0.059
1097	-0.06
1098	-0.061
1098	-0.063
1099	-0.063
1099	-0.063
1100	-0.065
1100	-0.065
1100	-0.067
1101	-0.069
1101	-0.072
1102	-0.073
1102	-0.075
1102	-0.075
1103	-0.078
1103	-0.081
1104	-0.083
1104	-0.086
1104	-0.088
1105	-0.09
1105	-0.092
1106	-0.097
1106	-0.099
1107	-0.102
1107	-0.107
1107	-0.112
1108	-0.113
1108	-0.115
1109	-0.118
1109	-0.121
1109	-0.124
1110	-0.124
1110	-0.125
1111	-0.134
1111	-0.134
