Data from 17C_3.2A_35min_2sec_int_Absorbance__187__01749.txt Node

Date: Mon Jun 19 17:38:55 CEST 2023
User: Marek
Spectrometer: MAYP115816
Trigger mode: 0
Integration Time (sec): 2.500000E-1
Scans to average: 10
Electric dark correction enabled: true
Nonlinearity correction enabled: true
Boxcar width: 5
XAxis mode: Wavelengths
Number of Pixels in Spectrum: 2068
>>>>>Begin Spectral Data<<<<<
199	-0.725
199	-0.729
200	-0.636
200	-0.587
201	-0.547
201	-0.536
202	-0.518
202	-0.502
203	-0.494
203	-0.489
204	-0.476
204	-0.461
205	-0.439
205	-0.434
205	-0.431
206	-0.435
206	-0.437
207	-0.428
207	-0.429
208	-0.431
208	-0.432
209	-0.427
209	-0.429
210	-0.431
210	-0.436
211	-0.436
211	-0.437
212	-0.44
212	-0.448
213	-0.448
213	-0.449
213	-0.452
214	-0.448
214	-0.448
215	-0.45
215	-0.457
216	-0.461
216	-0.468
217	-0.462
217	-0.467
218	-0.471
218	-0.472
219	-0.475
219	-0.486
220	-0.491
220	-0.499
221	-0.497
221	-0.499
221	-0.493
222	-0.49
222	-0.49
223	-0.492
223	-0.495
224	-0.498
224	-0.498
225	-0.491
225	-0.487
226	-0.491
226	-0.49
227	-0.497
227	-0.506
228	-0.509
228	-0.512
229	-0.513
229	-0.506
229	-0.502
230	-0.505
230	-0.506
231	-0.501
231	-0.493
232	-0.486
232	-0.485
233	-0.479
233	-0.477
234	-0.475
234	-0.473
235	-0.476
235	-0.482
236	-0.483
236	-0.487
236	-0.495
237	-0.502
237	-0.503
238	-0.51
238	-0.509
239	-0.509
239	-0.519
240	-0.518
240	-0.513
241	-0.517
241	-0.513
242	-0.517
242	-0.514
243	-0.511
243	-0.512
243	-0.52
244	-0.52
244	-0.519
245	-0.532
245	-0.534
246	-0.54
246	-0.547
247	-0.549
247	-0.552
248	-0.558
248	-0.554
249	-0.555
249	-0.563
250	-0.56
250	-0.556
250	-0.553
251	-0.549
251	-0.549
252	-0.553
252	-0.543
253	-0.548
253	-0.559
254	-0.559
254	-0.557
255	-0.567
255	-0.562
256	-0.562
256	-0.573
257	-0.57
257	-0.564
258	-0.578
258	-0.574
258	-0.571
259	-0.567
259	-0.575
260	-0.574
260	-0.578
261	-0.588
261	-0.579
262	-0.576
262	-0.578
263	-0.568
263	-0.563
264	-0.562
264	-0.571
265	-0.565
265	-0.572
265	-0.577
266	-0.574
266	-0.574
267	-0.589
267	-0.599
268	-0.614
268	-0.623
269	-0.621
269	-0.616
270	-0.622
270	-0.625
271	-0.624
271	-0.629
272	-0.631
272	-0.625
272	-0.617
273	-0.615
273	-0.625
274	-0.631
274	-0.633
275	-0.635
275	-0.627
276	-0.632
276	-0.626
277	-0.629
277	-0.647
278	-0.659
278	-0.655
278	-0.647
279	-0.65
279	-0.661
280	-0.655
280	-0.655
281	-0.651
281	-0.657
282	-0.651
282	-0.65
283	-0.638
283	-0.637
284	-0.63
284	-0.619
285	-0.614
285	-0.612
285	-0.608
286	-0.616
286	-0.61
287	-0.606
287	-0.592
288	-0.585
288	-0.596
289	-0.609
289	-0.619
290	-0.612
290	-0.612
291	-0.607
291	-0.6
292	-0.604
292	-0.61
292	-0.613
293	-0.62
293	-0.606
294	-0.594
294	-0.584
295	-0.579
295	-0.576
296	-0.577
296	-0.575
297	-0.567
297	-0.552
298	-0.545
298	-0.553
298	-0.541
299	-0.534
299	-0.535
300	-0.531
300	-0.53
301	-0.525
301	-0.525
302	-0.534
302	-0.542
303	-0.531
303	-0.517
304	-0.521
304	-0.522
305	-0.525
305	-0.525
305	-0.519
306	-0.505
306	-0.498
307	-0.483
307	-0.484
308	-0.496
308	-0.494
309	-0.496
309	-0.488
310	-0.474
310	-0.47
311	-0.463
311	-0.47
311	-0.469
312	-0.464
312	-0.462
313	-0.447
313	-0.451
314	-0.447
314	-0.448
315	-0.448
315	-0.446
316	-0.442
316	-0.435
317	-0.426
317	-0.424
318	-0.413
318	-0.41
318	-0.403
319	-0.394
319	-0.389
320	-0.381
320	-0.383
321	-0.386
321	-0.384
322	-0.378
322	-0.372
323	-0.371
323	-0.365
324	-0.359
324	-0.35
324	-0.341
325	-0.334
325	-0.316
326	-0.304
326	-0.286
327	-0.271
327	-0.251
328	-0.226
328	-0.206
329	-0.181
329	-0.156
330	-0.127
330	-0.092
330	-0.064
331	-0.032
331	-0.002
332	0.027
332	0.052
333	0.076
333	0.101
334	0.123
334	0.141
335	0.16
335	0.175
336	0.189
336	0.204
336	0.214
337	0.226
337	0.235
338	0.245
338	0.251
339	0.259
339	0.265
340	0.27
340	0.275
341	0.28
341	0.283
342	0.288
342	0.291
342	0.294
343	0.297
343	0.3
344	0.302
344	0.304
345	0.305
345	0.306
346	0.307
346	0.308
347	0.309
347	0.309
348	0.31
348	0.31
348	0.31
349	0.31
349	0.31
350	0.31
350	0.31
351	0.31
351	0.31
352	0.31
352	0.31
353	0.31
353	0.31
354	0.31
354	0.311
354	0.31
355	0.31
355	0.31
356	0.31
356	0.31
357	0.309
357	0.308
358	0.308
358	0.308
359	0.308
359	0.307
360	0.307
360	0.307
360	0.307
361	0.307
361	0.307
362	0.307
362	0.307
363	0.307
363	0.307
364	0.307
364	0.307
365	0.307
365	0.307
366	0.307
366	0.307
366	0.306
367	0.307
367	0.306
368	0.306
368	0.306
369	0.306
369	0.306
370	0.306
370	0.305
371	0.305
371	0.305
372	0.305
372	0.305
372	0.305
373	0.304
373	0.304
374	0.304
374	0.304
375	0.304
375	0.304
376	0.303
376	0.303
377	0.303
377	0.303
378	0.303
378	0.303
378	0.302
379	0.302
379	0.302
380	0.302
380	0.302
381	0.301
381	0.301
382	0.301
382	0.301
383	0.3
383	0.3
383	0.3
384	0.299
384	0.299
385	0.299
385	0.299
386	0.299
386	0.299
387	0.299
387	0.299
388	0.298
388	0.298
389	0.298
389	0.298
389	0.298
390	0.298
390	0.298
391	0.298
391	0.298
392	0.297
392	0.297
393	0.297
393	0.297
394	0.296
394	0.296
394	0.296
395	0.295
395	0.295
396	0.295
396	0.294
397	0.294
397	0.294
398	0.294
398	0.294
399	0.294
399	0.294
400	0.294
400	0.294
400	0.294
401	0.293
401	0.293
402	0.293
402	0.292
403	0.292
403	0.292
404	0.292
404	0.291
405	0.291
405	0.291
405	0.291
406	0.291
406	0.291
407	0.29
407	0.29
408	0.29
408	0.29
409	0.29
409	0.29
410	0.29
410	0.289
411	0.289
411	0.289
411	0.289
412	0.289
412	0.289
413	0.289
413	0.289
414	0.289
414	0.288
415	0.288
415	0.288
416	0.288
416	0.287
416	0.287
417	0.287
417	0.287
418	0.287
418	0.287
419	0.287
419	0.287
420	0.287
420	0.287
421	0.287
421	0.287
421	0.287
422	0.287
422	0.286
423	0.286
423	0.286
424	0.285
424	0.285
425	0.285
425	0.284
426	0.284
426	0.284
427	0.283
427	0.283
427	0.283
428	0.283
428	0.283
429	0.283
429	0.283
430	0.283
430	0.283
431	0.282
431	0.282
432	0.282
432	0.282
432	0.281
433	0.281
433	0.281
434	0.281
434	0.281
435	0.281
435	0.28
436	0.28
436	0.28
437	0.28
437	0.28
437	0.28
438	0.28
438	0.28
439	0.28
439	0.28
440	0.28
440	0.28
441	0.28
441	0.28
442	0.279
442	0.279
442	0.279
443	0.279
443	0.279
444	0.279
444	0.278
445	0.278
445	0.279
446	0.279
446	0.279
447	0.279
447	0.279
447	0.279
448	0.279
448	0.279
449	0.279
449	0.279
450	0.28
450	0.28
451	0.279
451	0.279
452	0.279
452	0.279
452	0.279
453	0.279
453	0.278
454	0.278
454	0.278
455	0.278
455	0.278
456	0.278
456	0.278
457	0.278
457	0.278
458	0.278
458	0.278
458	0.278
459	0.278
459	0.278
460	0.278
460	0.278
461	0.278
461	0.278
462	0.278
462	0.278
463	0.279
463	0.279
463	0.279
464	0.279
464	0.279
465	0.279
465	0.279
466	0.28
466	0.28
467	0.28
467	0.281
467	0.281
468	0.281
468	0.281
469	0.282
469	0.282
470	0.283
470	0.283
471	0.283
471	0.283
472	0.283
472	0.284
472	0.284
473	0.284
473	0.285
474	0.285
474	0.286
475	0.286
475	0.286
476	0.287
476	0.287
477	0.288
477	0.288
477	0.288
478	0.289
478	0.289
479	0.289
479	0.29
480	0.29
480	0.291
481	0.291
481	0.292
482	0.293
482	0.293
482	0.294
483	0.295
483	0.296
484	0.296
484	0.297
485	0.297
485	0.298
486	0.299
486	0.3
487	0.3
487	0.301
487	0.302
488	0.304
488	0.305
489	0.306
489	0.308
490	0.31
490	0.311
491	0.312
491	0.314
492	0.315
492	0.316
492	0.317
493	0.319
493	0.32
494	0.322
494	0.323
495	0.324
495	0.325
496	0.327
496	0.329
496	0.331
497	0.332
497	0.334
498	0.335
498	0.337
499	0.339
499	0.341
500	0.343
500	0.345
501	0.346
501	0.348
501	0.349
502	0.351
502	0.353
503	0.355
503	0.357
504	0.358
504	0.36
505	0.362
505	0.364
506	0.367
506	0.369
506	0.37
507	0.372
507	0.374
508	0.376
508	0.378
509	0.38
509	0.382
510	0.384
510	0.387
511	0.388
511	0.39
511	0.392
512	0.394
512	0.396
513	0.398
513	0.4
514	0.402
514	0.404
515	0.406
515	0.408
515	0.409
516	0.411
516	0.414
517	0.416
517	0.418
518	0.419
518	0.421
519	0.423
519	0.425
520	0.427
520	0.429
520	0.431
521	0.433
521	0.435
522	0.436
522	0.438
523	0.44
523	0.442
524	0.443
524	0.444
524	0.445
525	0.446
525	0.447
526	0.448
526	0.449
527	0.451
527	0.452
528	0.453
528	0.454
529	0.455
529	0.456
529	0.457
530	0.459
530	0.46
531	0.461
531	0.462
532	0.462
532	0.463
533	0.464
533	0.464
533	0.465
534	0.465
534	0.465
535	0.465
535	0.465
536	0.465
536	0.465
537	0.465
537	0.466
538	0.466
538	0.466
538	0.466
539	0.467
539	0.467
540	0.467
540	0.467
541	0.467
541	0.467
542	0.468
542	0.467
542	0.467
543	0.466
543	0.466
544	0.465
544	0.465
545	0.465
545	0.465
546	0.465
546	0.464
547	0.463
547	0.462
547	0.462
548	0.462
548	0.461
549	0.461
549	0.461
550	0.46
550	0.46
551	0.459
551	0.459
551	0.459
552	0.46
552	0.46
553	0.46
553	0.459
554	0.459
554	0.458
555	0.457
555	0.457
556	0.456
556	0.456
556	0.455
557	0.454
557	0.453
558	0.452
558	0.451
559	0.45
559	0.449
560	0.449
560	0.448
560	0.447
561	0.447
561	0.446
562	0.445
562	0.444
563	0.443
563	0.442
564	0.442
564	0.441
564	0.44
565	0.44
565	0.44
566	0.439
566	0.439
567	0.438
567	0.437
568	0.437
568	0.435
568	0.435
569	0.433
569	0.432
570	0.43
570	0.428
571	0.428
571	0.427
572	0.426
572	0.425
573	0.424
573	0.423
573	0.422
574	0.421
574	0.421
575	0.42
575	0.42
576	0.419
576	0.418
577	0.417
577	0.416
577	0.416
578	0.416
578	0.416
579	0.415
579	0.415
580	0.413
580	0.411
581	0.41
581	0.409
581	0.409
582	0.409
582	0.408
583	0.407
583	0.406
584	0.404
584	0.403
585	0.403
585	0.403
585	0.402
586	0.401
586	0.4
587	0.399
587	0.398
588	0.397
588	0.397
589	0.396
589	0.395
590	0.394
590	0.394
590	0.393
591	0.392
591	0.391
592	0.389
592	0.388
593	0.388
593	0.387
594	0.386
594	0.385
594	0.384
595	0.383
595	0.382
596	0.381
596	0.381
597	0.381
597	0.38
598	0.378
598	0.377
598	0.376
599	0.375
599	0.373
600	0.372
600	0.37
601	0.369
601	0.368
602	0.366
602	0.365
602	0.364
603	0.364
603	0.363
604	0.363
604	0.362
605	0.362
605	0.362
606	0.36
606	0.359
606	0.358
607	0.357
607	0.356
608	0.354
608	0.352
609	0.351
609	0.35
610	0.348
610	0.347
610	0.346
611	0.345
611	0.345
612	0.344
612	0.344
613	0.343
613	0.342
614	0.34
614	0.339
614	0.337
615	0.336
615	0.334
616	0.333
616	0.331
617	0.329
617	0.327
618	0.325
618	0.324
618	0.323
619	0.322
619	0.321
620	0.32
620	0.319
621	0.318
621	0.317
622	0.315
622	0.314
622	0.312
623	0.311
623	0.31
624	0.308
624	0.307
625	0.305
625	0.303
626	0.302
626	0.3
626	0.298
627	0.296
627	0.294
628	0.291
628	0.289
629	0.286
629	0.283
630	0.28
630	0.277
630	0.274
631	0.271
631	0.268
632	0.264
632	0.26
633	0.256
633	0.252
634	0.248
634	0.244
634	0.24
635	0.235
635	0.23
636	0.225
636	0.22
637	0.215
637	0.209
638	0.203
638	0.197
638	0.191
639	0.184
639	0.177
640	0.169
640	0.162
641	0.156
641	0.149
642	0.142
642	0.135
642	0.128
643	0.12
643	0.112
644	0.104
644	0.096
645	0.088
645	0.08
646	0.072
646	0.063
646	0.055
647	0.046
647	0.038
648	0.029
648	0.021
649	0.012
649	0.003
650	-0.005
650	-0.014
650	-0.023
651	-0.034
651	-0.048
652	-0.064
652	-0.08
653	-0.094
653	-0.107
653	-0.103
654	-0.079
654	-0.065
655	-0.068
655	-0.073
656	-0.078
656	-0.084
657	-0.087
657	-0.091
657	-0.097
658	-0.103
658	-0.132
659	-0.22
659	-0.324
660	-0.37
660	-0.396
661	-0.423
661	-0.453
661	-0.487
662	-0.519
662	-0.554
663	-0.593
663	-0.636
664	-0.681
664	-0.733
665	-0.785
665	-0.845
665	-0.901
666	-0.959
666	-1.022
667	-1.088
667	-1.155
668	-1.228
668	-1.302
669	-1.377
669	-1.451
669	-1.53
670	-1.599
670	-1.63
671	-1.767
671	-2.012
672	-2.228
672	-2.411
672	-2.537
673	-2.626
673	-2.704
674	-2.746
674	-2.765
675	-2.789
675	-2.929
676	-3.12
676	-3.073
676	-2.85
677	-2.648
677	-2.487
678	-2.316
678	-2.033
679	-1.767
679	-1.633
680	-1.538
680	-1.454
680	-1.384
681	-1.338
681	-1.278
682	-1.238
682	-1.2
683	-1.164
683	-1.146
684	-1.124
684	-1.104
684	-1.08
685	-1.054
685	-1.03
686	-1.003
686	-0.987
687	-0.96
687	-0.947
687	-0.926
688	-0.898
688	-0.877
689	-0.854
689	-0.84
690	-0.821
690	-0.808
691	-0.801
691	-0.805
691	-0.819
692	-0.811
692	-0.801
693	-0.796
693	-0.802
694	-0.797
694	-0.791
695	-0.793
695	-0.791
695	-0.774
696	-0.772
696	-0.749
697	-0.748
697	-0.762
698	-0.765
698	-0.754
698	-0.765
699	-0.769
699	-0.767
700	-0.757
700	-0.77
701	-0.767
701	-0.775
702	-0.775
702	-0.763
702	-0.754
703	-0.748
703	-0.741
704	-0.736
704	-0.734
705	-0.746
705	-0.74
705	-0.728
706	-0.729
706	-0.724
707	-0.729
707	-0.723
708	-0.722
708	-0.714
709	-0.716
709	-0.72
709	-0.709
710	-0.716
710	-0.727
711	-0.717
711	-0.718
712	-0.717
712	-0.728
713	-0.727
713	-0.734
713	-0.727
714	-0.724
714	-0.726
715	-0.715
715	-0.701
716	-0.709
716	-0.709
716	-0.702
717	-0.705
717	-0.707
718	-0.697
718	-0.696
719	-0.701
719	-0.703
720	-0.7
720	-0.709
720	-0.702
721	-0.693
721	-0.692
722	-0.68
722	-0.669
723	-0.668
723	-0.672
723	-0.658
724	-0.661
724	-0.667
725	-0.667
725	-0.677
726	-0.688
726	-0.694
727	-0.697
727	-0.71
727	-0.718
728	-0.719
728	-0.724
729	-0.722
729	-0.724
730	-0.728
730	-0.72
730	-0.708
731	-0.689
731	-0.7
732	-0.706
732	-0.705
733	-0.702
733	-0.709
734	-0.701
734	-0.7
734	-0.687
735	-0.686
735	-0.689
736	-0.701
736	-0.688
737	-0.68
737	-0.682
737	-0.692
738	-0.685
738	-0.688
739	-0.687
739	-0.701
740	-0.701
740	-0.698
741	-0.695
741	-0.695
741	-0.696
742	-0.695
742	-0.696
743	-0.704
743	-0.709
744	-0.707
744	-0.698
744	-0.698
745	-0.706
745	-0.697
746	-0.698
746	-0.694
747	-0.694
747	-0.683
748	-0.671
748	-0.677
748	-0.675
749	-0.674
749	-0.674
750	-0.664
750	-0.665
751	-0.668
751	-0.678
751	-0.68
752	-0.683
752	-0.692
753	-0.686
753	-0.686
754	-0.691
754	-0.686
754	-0.699
755	-0.716
755	-0.729
756	-0.718
756	-0.717
757	-0.715
757	-0.709
758	-0.711
758	-0.708
758	-0.711
759	-0.718
759	-0.702
760	-0.693
760	-0.688
761	-0.697
761	-0.692
761	-0.693
762	-0.701
762	-0.701
763	-0.711
763	-0.706
764	-0.705
764	-0.714
764	-0.72
765	-0.708
765	-0.694
766	-0.704
766	-0.71
767	-0.724
767	-0.717
768	-0.707
768	-0.715
768	-0.721
769	-0.738
769	-0.739
770	-0.747
770	-0.76
771	-0.757
771	-0.758
771	-0.759
772	-0.761
772	-0.762
773	-0.762
773	-0.757
774	-0.755
774	-0.754
775	-0.756
775	-0.752
775	-0.76
776	-0.762
776	-0.753
777	-0.763
777	-0.781
778	-0.778
778	-0.796
778	-0.783
779	-0.805
779	-0.814
780	-0.827
780	-0.826
781	-0.838
781	-0.833
781	-0.848
782	-0.852
782	-0.854
783	-0.846
783	-0.844
784	-0.826
784	-0.817
784	-0.827
785	-0.833
785	-0.816
786	-0.823
786	-0.801
787	-0.784
787	-0.784
788	-0.784
788	-0.794
788	-0.801
789	-0.801
789	-0.783
790	-0.762
790	-0.767
791	-0.763
791	-0.782
791	-0.788
792	-0.784
792	-0.761
793	-0.751
793	-0.73
794	-0.733
794	-0.722
794	-0.732
795	-0.727
795	-0.719
796	-0.701
796	-0.709
797	-0.702
797	-0.715
797	-0.721
798	-0.732
798	-0.726
799	-0.74
799	-0.724
800	-0.73
800	-0.726
801	-0.732
801	-0.716
801	-0.728
802	-0.736
802	-0.737
803	-0.74
803	-0.75
804	-0.744
804	-0.754
804	-0.741
805	-0.744
805	-0.733
806	-0.737
806	-0.722
807	-0.717
807	-0.698
807	-0.686
808	-0.677
808	-0.671
809	-0.657
809	-0.666
810	-0.664
810	-0.657
810	-0.653
811	-0.658
811	-0.65
812	-0.653
812	-0.655
813	-0.659
813	-0.655
813	-0.662
814	-0.665
814	-0.67
815	-0.675
815	-0.677
816	-0.671
816	-0.675
817	-0.682
817	-0.7
817	-0.715
818	-0.723
818	-0.724
819	-0.715
819	-0.716
820	-0.726
820	-0.725
820	-0.735
821	-0.735
821	-0.726
822	-0.693
822	-0.67
823	-0.669
823	-0.674
823	-0.672
824	-0.666
824	-0.666
825	-0.658
825	-0.638
826	-0.634
826	-0.64
826	-0.648
827	-0.643
827	-0.638
828	-0.617
828	-0.618
829	-0.608
829	-0.595
829	-0.588
830	-0.598
830	-0.593
831	-0.585
831	-0.578
832	-0.577
832	-0.57
832	-0.578
833	-0.571
833	-0.573
834	-0.572
834	-0.578
835	-0.564
835	-0.56
835	-0.555
836	-0.553
836	-0.549
837	-0.547
837	-0.537
838	-0.527
838	-0.515
839	-0.502
839	-0.491
839	-0.483
840	-0.471
840	-0.468
841	-0.454
841	-0.445
842	-0.438
842	-0.427
842	-0.421
843	-0.414
843	-0.41
844	-0.401
844	-0.395
845	-0.388
845	-0.378
845	-0.367
846	-0.357
846	-0.344
847	-0.334
847	-0.324
848	-0.313
848	-0.302
848	-0.286
849	-0.276
849	-0.262
850	-0.249
850	-0.244
851	-0.235
851	-0.224
851	-0.216
852	-0.2
852	-0.187
853	-0.18
853	-0.175
854	-0.164
854	-0.154
854	-0.144
855	-0.132
855	-0.127
856	-0.118
856	-0.111
857	-0.106
857	-0.098
857	-0.087
858	-0.077
858	-0.07
859	-0.062
859	-0.053
860	-0.044
860	-0.032
860	-0.023
861	-0.016
861	-0.008
862	-0.001
862	0.005
863	0.011
863	0.019
863	0.024
864	0.029
864	0.034
865	0.04
865	0.044
866	0.048
866	0.051
866	0.055
867	0.058
867	0.062
868	0.064
868	0.068
869	0.071
869	0.074
869	0.075
870	0.077
870	0.08
871	0.082
871	0.084
872	0.085
872	0.086
872	0.086
873	0.087
873	0.087
874	0.087
874	0.087
875	0.086
875	0.085
875	0.084
876	0.083
876	0.082
877	0.08
877	0.079
878	0.077
878	0.075
878	0.074
879	0.072
879	0.07
880	0.069
880	0.069
881	0.069
881	0.068
881	0.068
882	0.068
882	0.067
883	0.066
883	0.065
884	0.064
884	0.063
884	0.062
885	0.061
885	0.061
886	0.06
886	0.06
887	0.059
887	0.059
887	0.059
888	0.059
888	0.059
889	0.06
889	0.06
890	0.06
890	0.06
890	0.06
891	0.06
891	0.06
892	0.06
892	0.06
893	0.06
893	0.06
893	0.059
894	0.059
894	0.059
895	0.058
895	0.058
895	0.058
896	0.057
896	0.056
897	0.055
897	0.054
898	0.053
898	0.053
898	0.053
899	0.053
899	0.053
900	0.054
900	0.054
901	0.055
901	0.056
901	0.056
902	0.057
902	0.057
903	0.058
903	0.058
904	0.058
904	0.059
904	0.059
905	0.06
905	0.06
906	0.061
906	0.061
907	0.061
907	0.061
907	0.06
908	0.06
908	0.06
909	0.059
909	0.058
910	0.058
910	0.058
910	0.057
911	0.057
911	0.058
912	0.058
912	0.058
913	0.059
913	0.06
913	0.061
914	0.061
914	0.062
915	0.063
915	0.063
916	0.064
916	0.064
916	0.064
917	0.065
917	0.065
918	0.065
918	0.064
918	0.064
919	0.064
919	0.063
920	0.063
920	0.063
921	0.064
921	0.064
921	0.064
922	0.064
922	0.064
923	0.064
923	0.064
924	0.064
924	0.063
924	0.063
925	0.062
925	0.061
926	0.06
926	0.059
927	0.058
927	0.057
927	0.056
928	0.055
928	0.055
929	0.054
929	0.054
930	0.053
930	0.052
930	0.052
931	0.051
931	0.051
932	0.051
932	0.05
933	0.049
933	0.048
933	0.047
934	0.045
934	0.044
935	0.044
935	0.043
935	0.042
936	0.04
936	0.039
937	0.038
937	0.038
938	0.038
938	0.038
938	0.038
939	0.039
939	0.039
940	0.04
940	0.041
941	0.041
941	0.042
941	0.044
942	0.044
942	0.045
943	0.045
943	0.045
944	0.045
944	0.044
944	0.043
945	0.043
945	0.042
946	0.041
946	0.039
946	0.038
947	0.038
947	0.037
948	0.037
948	0.037
949	0.037
949	0.038
949	0.039
950	0.04
950	0.04
951	0.041
951	0.042
952	0.043
952	0.044
952	0.045
953	0.046
953	0.047
954	0.047
954	0.047
955	0.048
955	0.049
955	0.05
956	0.051
956	0.052
957	0.052
957	0.052
957	0.052
958	0.052
958	0.053
959	0.053
959	0.053
960	0.053
960	0.053
960	0.053
961	0.053
961	0.053
962	0.053
962	0.053
963	0.053
963	0.053
963	0.053
964	0.053
964	0.053
965	0.053
965	0.053
966	0.053
966	0.053
966	0.052
967	0.052
967	0.051
968	0.051
968	0.05
968	0.05
969	0.049
969	0.048
970	0.048
970	0.048
971	0.048
971	0.049
971	0.049
972	0.049
972	0.049
973	0.049
973	0.049
974	0.049
974	0.049
974	0.049
975	0.048
975	0.048
976	0.046
976	0.046
976	0.046
977	0.045
977	0.045
978	0.045
978	0.045
979	0.044
979	0.044
979	0.044
980	0.044
980	0.043
981	0.043
981	0.043
982	0.043
982	0.042
982	0.042
983	0.042
983	0.042
984	0.042
984	0.042
984	0.042
985	0.043
985	0.043
986	0.043
986	0.043
987	0.042
987	0.042
987	0.042
988	0.042
988	0.041
989	0.04
989	0.039
990	0.038
990	0.037
990	0.036
991	0.036
991	0.036
992	0.035
992	0.035
992	0.035
993	0.035
993	0.035
994	0.035
994	0.035
995	0.035
995	0.034
995	0.034
996	0.034
996	0.033
997	0.033
997	0.033
997	0.033
998	0.033
998	0.033
999	0.034
999	0.034
1000	0.034
1000	0.034
1000	0.035
1001	0.035
1001	0.036
1002	0.036
1002	0.036
1003	0.037
1003	0.037
1003	0.036
1004	0.036
1004	0.036
1005	0.035
1005	0.034
1005	0.033
1006	0.032
1006	0.031
1007	0.03
1007	0.029
1008	0.028
1008	0.028
1008	0.027
1009	0.027
1009	0.027
1010	0.027
1010	0.027
1010	0.027
1011	0.027
1011	0.026
1012	0.026
1012	0.025
1013	0.024
1013	0.023
1013	0.022
1014	0.021
1014	0.02
1015	0.019
1015	0.019
1016	0.017
1016	0.017
1016	0.016
1017	0.015
1017	0.015
1018	0.014
1018	0.013
1018	0.013
1019	0.013
1019	0.012
1020	0.011
1020	0.011
1021	0.01
1021	0.01
1021	0.009
1022	0.008
1022	0.007
1023	0.007
1023	0.006
1023	0.006
1024	0.006
1024	0.005
1025	0.006
1025	0.006
1026	0.006
1026	0.007
1026	0.007
1027	0.008
1027	0.008
1028	0.009
1028	0.009
1028	0.009
1029	0.009
1029	0.009
1030	0.008
1030	0.008
1031	0.007
1031	0.007
1031	0.007
1032	0.006
1032	0.006
1033	0.006
1033	0.006
1033	0.006
1034	0.007
1034	0.007
1035	0.007
1035	0.007
1036	0.007
1036	0.007
1036	0.007
1037	0.007
1037	0.007
1038	0.007
1038	0.007
1039	0.007
1039	0.007
1039	0.007
1040	0.008
1040	0.008
1041	0.008
1041	0.009
1041	0.009
1042	0.009
1042	0.009
1043	0.009
1043	0.008
1044	0.008
1044	0.007
1044	0.006
1045	0.005
1045	0.005
1046	0.004
1046	0.004
1046	0.004
1047	0.004
1047	0.004
1048	0.004
1048	0.004
1049	0.004
1049	0.005
1049	0.005
1050	0.005
1050	0.005
1051	0.006
1051	0.006
1051	0.006
1052	0.006
1052	0.007
1053	0.007
1053	0.007
1053	0.007
1054	0.007
1054	0.007
1055	0.007
1055	0.007
1056	0.006
1056	0.006
1056	0.005
1057	0.004
1057	0.003
1058	0.002
1058	0.002
1058	0.001
1059	0
1059	-0
1060	-0.001
1060	-0.001
1061	-0.002
1061	-0.001
1061	-0.001
1062	-0.002
1062	-0.002
1063	-0.002
1063	-0.001
1063	-0.001
1064	-0
1064	-0
1065	0
1065	-0
1066	-0
1066	-0
1066	-0.001
1067	-0.001
1067	-0.001
1068	-0.002
1068	-0.003
1068	-0.003
1069	-0.003
1069	-0.004
1070	-0.004
1070	-0.004
1071	-0.005
1071	-0.005
1071	-0.005
1072	-0.006
1072	-0.006
1073	-0.006
1073	-0.006
1073	-0.006
1074	-0.006
1074	-0.006
1075	-0.007
1075	-0.007
1076	-0.008
1076	-0.007
1076	-0.008
1077	-0.009
1077	-0.009
1078	-0.01
1078	-0.01
1078	-0.011
1079	-0.012
1079	-0.012
1080	-0.013
1080	-0.014
1080	-0.015
1081	-0.015
1081	-0.016
1082	-0.017
1082	-0.018
1083	-0.018
1083	-0.019
1083	-0.02
1084	-0.021
1084	-0.022
1085	-0.023
1085	-0.023
1085	-0.024
1086	-0.024
1086	-0.025
1087	-0.025
1087	-0.025
1088	-0.026
1088	-0.025
1088	-0.026
1089	-0.027
1089	-0.027
1090	-0.028
1090	-0.028
1090	-0.03
1091	-0.031
1091	-0.031
1092	-0.032
1092	-0.031
1092	-0.033
1093	-0.033
1093	-0.033
1094	-0.033
1094	-0.034
1095	-0.035
1095	-0.035
1095	-0.035
1096	-0.037
1096	-0.037
1097	-0.037
1097	-0.039
1097	-0.04
1098	-0.041
1098	-0.043
1099	-0.043
1099	-0.043
1100	-0.045
1100	-0.046
1100	-0.048
1101	-0.051
1101	-0.053
1102	-0.055
1102	-0.057
1102	-0.058
1103	-0.06
1103	-0.062
1104	-0.064
1104	-0.066
1104	-0.069
1105	-0.071
1105	-0.074
1106	-0.078
1106	-0.08
1107	-0.084
1107	-0.088
1107	-0.093
1108	-0.096
1108	-0.098
1109	-0.102
1109	-0.106
1109	-0.108
1110	-0.107
1110	-0.111
1111	-0.117
1111	-0.111
