Data from 15c-100ul-ns-20ul-nr-full-exp-7ul-bp_Absorbance__335__03772.txt Node

Date: Mon Jan 15 13:52:41 CET 2024
User: Marek
Spectrometer: MAYP115816
Trigger mode: 0
Integration Time (sec): 2.000000E-1
Scans to average: 10
Electric dark correction enabled: true
Nonlinearity correction enabled: true
Boxcar width: 5
XAxis mode: Wavelengths
Number of Pixels in Spectrum: 2068
>>>>>Begin Spectral Data<<<<<
199	-1.57
199	-1.448
200	-1.31
200	-1.205
201	-1.135
201	-1.088
202	-1.023
202	-0.974
203	-0.931
203	-0.897
204	-0.871
204	-0.85
205	-0.829
205	-0.821
205	-0.819
206	-0.818
206	-0.818
207	-0.814
207	-0.812
208	-0.811
208	-0.807
209	-0.805
209	-0.804
210	-0.804
210	-0.804
211	-0.802
211	-0.801
212	-0.798
212	-0.798
213	-0.799
213	-0.797
213	-0.798
214	-0.797
214	-0.798
215	-0.798
215	-0.798
216	-0.798
216	-0.799
217	-0.798
217	-0.798
218	-0.797
218	-0.793
219	-0.791
219	-0.79
220	-0.786
220	-0.783
221	-0.779
221	-0.775
221	-0.77
222	-0.766
222	-0.761
223	-0.754
223	-0.751
224	-0.746
224	-0.738
225	-0.729
225	-0.718
226	-0.709
226	-0.698
227	-0.684
227	-0.669
228	-0.65
228	-0.632
229	-0.609
229	-0.581
229	-0.554
230	-0.524
230	-0.492
231	-0.456
231	-0.42
232	-0.384
232	-0.344
233	-0.305
233	-0.266
234	-0.227
234	-0.19
235	-0.153
235	-0.119
236	-0.085
236	-0.054
236	-0.024
237	0.003
237	0.028
238	0.051
238	0.072
239	0.092
239	0.109
240	0.123
240	0.136
241	0.148
241	0.159
242	0.168
242	0.177
243	0.185
243	0.192
243	0.198
244	0.203
244	0.208
245	0.213
245	0.217
246	0.221
246	0.225
247	0.228
247	0.231
248	0.234
248	0.237
249	0.239
249	0.241
250	0.243
250	0.246
250	0.248
251	0.249
251	0.251
252	0.252
252	0.254
253	0.255
253	0.256
254	0.257
254	0.258
255	0.259
255	0.26
256	0.26
256	0.261
257	0.261
257	0.262
258	0.262
258	0.263
258	0.263
259	0.263
259	0.262
260	0.263
260	0.262
261	0.262
261	0.262
262	0.261
262	0.26
263	0.26
263	0.259
264	0.258
264	0.257
265	0.256
265	0.255
265	0.254
266	0.253
266	0.252
267	0.25
267	0.249
268	0.247
268	0.246
269	0.244
269	0.243
270	0.241
270	0.239
271	0.238
271	0.236
272	0.234
272	0.233
272	0.231
273	0.229
273	0.227
274	0.226
274	0.224
275	0.222
275	0.22
276	0.218
276	0.216
277	0.215
277	0.213
278	0.211
278	0.209
278	0.207
279	0.204
279	0.202
280	0.199
280	0.197
281	0.195
281	0.193
282	0.191
282	0.188
283	0.187
283	0.185
284	0.183
284	0.182
285	0.181
285	0.179
285	0.178
286	0.176
286	0.175
287	0.174
287	0.172
288	0.171
288	0.17
289	0.169
289	0.167
290	0.166
290	0.165
291	0.163
291	0.162
292	0.161
292	0.16
292	0.159
293	0.158
293	0.157
294	0.156
294	0.155
295	0.154
295	0.153
296	0.153
296	0.152
297	0.151
297	0.15
298	0.15
298	0.149
298	0.148
299	0.148
299	0.147
300	0.146
300	0.146
301	0.145
301	0.144
302	0.144
302	0.143
303	0.143
303	0.142
304	0.142
304	0.141
305	0.141
305	0.14
305	0.14
306	0.139
306	0.139
307	0.138
307	0.138
308	0.137
308	0.136
309	0.136
309	0.135
310	0.135
310	0.135
311	0.134
311	0.134
311	0.133
312	0.133
312	0.132
313	0.132
313	0.131
314	0.131
314	0.13
315	0.13
315	0.129
316	0.129
316	0.128
317	0.128
317	0.127
318	0.127
318	0.126
318	0.126
319	0.125
319	0.125
320	0.124
320	0.124
321	0.123
321	0.122
322	0.122
322	0.121
323	0.121
323	0.12
324	0.12
324	0.119
324	0.119
325	0.118
325	0.118
326	0.117
326	0.117
327	0.116
327	0.116
328	0.115
328	0.115
329	0.114
329	0.114
330	0.113
330	0.113
330	0.112
331	0.112
331	0.112
332	0.111
332	0.111
333	0.11
333	0.11
334	0.109
334	0.109
335	0.109
335	0.108
336	0.108
336	0.107
336	0.107
337	0.106
337	0.106
338	0.105
338	0.105
339	0.105
339	0.104
340	0.104
340	0.104
341	0.103
341	0.103
342	0.102
342	0.102
342	0.101
343	0.101
343	0.101
344	0.1
344	0.1
345	0.1
345	0.099
346	0.099
346	0.098
347	0.098
347	0.098
348	0.097
348	0.097
348	0.097
349	0.097
349	0.096
350	0.096
350	0.096
351	0.096
351	0.096
352	0.095
352	0.095
353	0.095
353	0.094
354	0.094
354	0.093
354	0.093
355	0.093
355	0.092
356	0.092
356	0.092
357	0.092
357	0.092
358	0.092
358	0.092
359	0.092
359	0.092
360	0.092
360	0.092
360	0.092
361	0.092
361	0.092
362	0.092
362	0.092
363	0.092
363	0.092
364	0.092
364	0.091
365	0.091
365	0.091
366	0.091
366	0.091
366	0.091
367	0.091
367	0.09
368	0.09
368	0.09
369	0.089
369	0.089
370	0.089
370	0.089
371	0.089
371	0.089
372	0.089
372	0.088
372	0.088
373	0.088
373	0.089
374	0.089
374	0.089
375	0.089
375	0.088
376	0.088
376	0.088
377	0.088
377	0.088
378	0.088
378	0.088
378	0.088
379	0.088
379	0.088
380	0.088
380	0.088
381	0.088
381	0.088
382	0.088
382	0.088
383	0.087
383	0.087
383	0.087
384	0.087
384	0.086
385	0.086
385	0.086
386	0.086
386	0.086
387	0.086
387	0.085
388	0.085
388	0.085
389	0.085
389	0.085
389	0.085
390	0.085
390	0.086
391	0.086
391	0.086
392	0.086
392	0.086
393	0.086
393	0.086
394	0.085
394	0.085
394	0.085
395	0.085
395	0.084
396	0.084
396	0.084
397	0.084
397	0.084
398	0.084
398	0.083
399	0.083
399	0.083
400	0.083
400	0.083
400	0.083
401	0.083
401	0.082
402	0.082
402	0.082
403	0.082
403	0.082
404	0.082
404	0.082
405	0.082
405	0.082
405	0.081
406	0.082
406	0.082
407	0.082
407	0.081
408	0.081
408	0.081
409	0.081
409	0.081
410	0.081
410	0.081
411	0.08
411	0.08
411	0.08
412	0.08
412	0.079
413	0.079
413	0.079
414	0.078
414	0.078
415	0.078
415	0.077
416	0.077
416	0.077
416	0.077
417	0.076
417	0.076
418	0.076
418	0.077
419	0.077
419	0.077
420	0.077
420	0.078
421	0.078
421	0.078
421	0.078
422	0.078
422	0.078
423	0.078
423	0.077
424	0.077
424	0.077
425	0.076
425	0.076
426	0.076
426	0.076
427	0.076
427	0.076
427	0.076
428	0.077
428	0.077
429	0.077
429	0.077
430	0.077
430	0.077
431	0.077
431	0.077
432	0.076
432	0.076
432	0.075
433	0.075
433	0.074
434	0.074
434	0.074
435	0.074
435	0.074
436	0.074
436	0.074
437	0.074
437	0.073
437	0.073
438	0.074
438	0.073
439	0.073
439	0.073
440	0.073
440	0.073
441	0.073
441	0.073
442	0.073
442	0.073
442	0.073
443	0.073
443	0.073
444	0.073
444	0.073
445	0.073
445	0.073
446	0.073
446	0.073
447	0.073
447	0.073
447	0.073
448	0.073
448	0.072
449	0.072
449	0.072
450	0.072
450	0.072
451	0.072
451	0.071
452	0.071
452	0.071
452	0.071
453	0.071
453	0.07
454	0.07
454	0.07
455	0.071
455	0.071
456	0.071
456	0.071
457	0.071
457	0.071
458	0.071
458	0.071
458	0.071
459	0.071
459	0.071
460	0.071
460	0.071
461	0.07
461	0.07
462	0.07
462	0.07
463	0.07
463	0.071
463	0.071
464	0.071
464	0.071
465	0.071
465	0.071
466	0.071
466	0.071
467	0.071
467	0.071
467	0.07
468	0.069
468	0.069
469	0.069
469	0.069
470	0.069
470	0.069
471	0.069
471	0.069
472	0.069
472	0.07
472	0.07
473	0.071
473	0.071
474	0.071
474	0.072
475	0.072
475	0.072
476	0.073
476	0.072
477	0.072
477	0.072
477	0.073
478	0.073
478	0.073
479	0.073
479	0.073
480	0.074
480	0.074
481	0.074
481	0.075
482	0.076
482	0.076
482	0.077
483	0.078
483	0.08
484	0.081
484	0.081
485	0.081
485	0.082
486	0.082
486	0.082
487	0.083
487	0.083
487	0.083
488	0.083
488	0.082
489	0.082
489	0.083
490	0.083
490	0.084
491	0.084
491	0.085
492	0.086
492	0.086
492	0.087
493	0.087
493	0.088
494	0.09
494	0.091
495	0.092
495	0.093
496	0.094
496	0.095
496	0.096
497	0.097
497	0.098
498	0.099
498	0.099
499	0.099
499	0.1
500	0.101
500	0.102
501	0.103
501	0.104
501	0.104
502	0.105
502	0.106
503	0.107
503	0.107
504	0.108
504	0.108
505	0.109
505	0.11
506	0.111
506	0.111
506	0.112
507	0.113
507	0.114
508	0.115
508	0.116
509	0.117
509	0.117
510	0.118
510	0.119
511	0.119
511	0.12
511	0.121
512	0.121
512	0.122
513	0.122
513	0.122
514	0.122
514	0.123
515	0.123
515	0.123
515	0.123
516	0.123
516	0.124
517	0.124
517	0.124
518	0.125
518	0.125
519	0.125
519	0.125
520	0.125
520	0.125
520	0.124
521	0.123
521	0.122
522	0.121
522	0.121
523	0.12
523	0.12
524	0.12
524	0.12
524	0.12
525	0.121
525	0.121
526	0.122
526	0.123
527	0.124
527	0.124
528	0.125
528	0.126
529	0.126
529	0.126
529	0.126
530	0.126
530	0.126
531	0.126
531	0.126
532	0.126
532	0.125
533	0.125
533	0.124
533	0.124
534	0.123
534	0.122
535	0.121
535	0.121
536	0.12
536	0.12
537	0.119
537	0.119
538	0.118
538	0.117
538	0.116
539	0.116
539	0.115
540	0.114
540	0.112
541	0.111
541	0.11
542	0.109
542	0.108
542	0.107
543	0.106
543	0.105
544	0.104
544	0.103
545	0.103
545	0.103
546	0.102
546	0.101
547	0.1
547	0.099
547	0.098
548	0.097
548	0.096
549	0.094
549	0.093
550	0.092
550	0.091
551	0.089
551	0.088
551	0.087
552	0.087
552	0.086
553	0.085
553	0.085
554	0.084
554	0.083
555	0.082
555	0.081
556	0.08
556	0.078
556	0.077
557	0.076
557	0.075
558	0.074
558	0.073
559	0.072
559	0.071
560	0.07
560	0.069
560	0.068
561	0.068
561	0.068
562	0.068
562	0.067
563	0.065
563	0.064
564	0.063
564	0.062
564	0.061
565	0.06
565	0.059
566	0.058
566	0.057
567	0.056
567	0.056
568	0.056
568	0.056
568	0.056
569	0.056
569	0.056
570	0.055
570	0.054
571	0.054
571	0.054
572	0.053
572	0.052
573	0.052
573	0.051
573	0.049
574	0.049
574	0.049
575	0.049
575	0.05
576	0.05
576	0.048
577	0.047
577	0.046
577	0.047
578	0.047
578	0.047
579	0.048
579	0.049
580	0.047
580	0.044
581	0.042
581	0.041
581	0.042
582	0.042
582	0.043
583	0.043
583	0.042
584	0.039
584	0.036
585	0.036
585	0.037
585	0.038
586	0.037
586	0.037
587	0.035
587	0.034
588	0.032
588	0.032
589	0.032
589	0.033
590	0.033
590	0.033
590	0.034
591	0.035
591	0.034
592	0.033
592	0.032
593	0.033
593	0.033
594	0.032
594	0.031
594	0.03
595	0.03
595	0.029
596	0.029
596	0.031
597	0.034
597	0.034
598	0.034
598	0.035
598	0.035
599	0.035
599	0.034
600	0.034
600	0.033
601	0.032
601	0.031
602	0.029
602	0.029
602	0.028
603	0.028
603	0.029
604	0.029
604	0.03
605	0.031
605	0.032
606	0.032
606	0.031
606	0.031
607	0.03
607	0.031
608	0.03
608	0.029
609	0.029
609	0.029
610	0.028
610	0.027
610	0.028
611	0.03
611	0.031
612	0.032
612	0.034
613	0.035
613	0.036
614	0.035
614	0.035
614	0.035
615	0.034
615	0.034
616	0.034
616	0.034
617	0.033
617	0.032
618	0.032
618	0.032
618	0.032
619	0.033
619	0.034
620	0.036
620	0.037
621	0.037
621	0.038
622	0.039
622	0.039
622	0.039
623	0.039
623	0.04
624	0.041
624	0.04
625	0.04
625	0.04
626	0.04
626	0.04
626	0.04
627	0.041
627	0.042
628	0.042
628	0.043
629	0.043
629	0.044
630	0.044
630	0.044
630	0.046
631	0.047
631	0.048
632	0.048
632	0.049
633	0.05
633	0.051
634	0.053
634	0.055
634	0.056
635	0.057
635	0.058
636	0.059
636	0.06
637	0.061
637	0.061
638	0.062
638	0.063
638	0.063
639	0.063
639	0.064
640	0.065
640	0.066
641	0.067
641	0.068
642	0.07
642	0.072
642	0.074
643	0.075
643	0.077
644	0.078
644	0.08
645	0.082
645	0.083
646	0.085
646	0.087
646	0.089
647	0.09
647	0.091
648	0.092
648	0.094
649	0.095
649	0.097
650	0.098
650	0.1
650	0.101
651	0.103
651	0.105
652	0.107
652	0.109
653	0.113
653	0.12
653	0.13
654	0.106
654	0.088
655	0.089
655	0.09
656	0.092
656	0.093
657	0.095
657	0.096
657	0.097
658	0.095
658	0.087
659	0.11
659	0.139
660	0.147
660	0.149
661	0.151
661	0.153
661	0.155
662	0.158
662	0.16
663	0.163
663	0.164
664	0.166
664	0.168
665	0.17
665	0.172
665	0.174
666	0.176
666	0.178
667	0.18
667	0.182
668	0.184
668	0.187
669	0.189
669	0.192
669	0.195
670	0.197
670	0.198
671	0.2
671	0.201
672	0.203
672	0.204
672	0.205
673	0.206
673	0.208
674	0.208
674	0.209
675	0.21
675	0.212
676	0.214
676	0.215
676	0.216
677	0.218
677	0.219
678	0.219
678	0.22
679	0.221
679	0.222
680	0.223
680	0.223
680	0.223
681	0.224
681	0.225
682	0.225
682	0.226
683	0.228
683	0.229
684	0.23
684	0.229
684	0.229
685	0.23
685	0.23
686	0.23
686	0.23
687	0.231
687	0.231
687	0.231
688	0.23
688	0.23
689	0.232
689	0.232
690	0.232
690	0.231
691	0.231
691	0.231
691	0.23
692	0.228
692	0.227
693	0.227
693	0.226
694	0.225
694	0.224
695	0.224
695	0.226
695	0.225
696	0.225
696	0.224
697	0.224
697	0.223
698	0.223
698	0.221
698	0.22
699	0.22
699	0.217
700	0.215
700	0.214
701	0.213
701	0.211
702	0.21
702	0.208
702	0.207
703	0.206
703	0.204
704	0.203
704	0.202
705	0.202
705	0.2
705	0.198
706	0.197
706	0.195
707	0.194
707	0.191
708	0.189
708	0.188
709	0.186
709	0.183
709	0.18
710	0.178
710	0.176
711	0.174
711	0.173
712	0.171
712	0.17
713	0.168
713	0.167
713	0.165
714	0.164
714	0.163
715	0.162
715	0.16
716	0.159
716	0.158
716	0.156
717	0.154
717	0.152
718	0.15
718	0.148
719	0.147
719	0.146
720	0.143
720	0.141
720	0.139
721	0.136
721	0.134
722	0.132
722	0.13
723	0.128
723	0.127
723	0.125
724	0.123
724	0.121
725	0.12
725	0.119
726	0.117
726	0.116
727	0.115
727	0.114
727	0.112
728	0.111
728	0.11
729	0.11
729	0.109
730	0.107
730	0.106
730	0.105
731	0.104
731	0.103
732	0.102
732	0.1
733	0.098
733	0.096
734	0.095
734	0.092
734	0.091
735	0.09
735	0.088
736	0.086
736	0.085
737	0.084
737	0.083
737	0.081
738	0.079
738	0.077
739	0.076
739	0.074
740	0.073
740	0.072
741	0.071
741	0.068
741	0.066
742	0.063
742	0.062
743	0.061
743	0.059
744	0.057
744	0.055
744	0.053
745	0.051
745	0.05
746	0.048
746	0.047
747	0.046
747	0.045
748	0.045
748	0.044
748	0.043
749	0.042
749	0.042
750	0.042
750	0.041
751	0.041
751	0.041
751	0.041
752	0.04
752	0.039
753	0.039
753	0.039
754	0.038
754	0.038
754	0.038
755	0.037
755	0.037
756	0.036
756	0.034
757	0.033
757	0.032
758	0.031
758	0.029
758	0.029
759	0.027
759	0.025
760	0.024
760	0.022
761	0.022
761	0.022
761	0.021
762	0.02
762	0.019
763	0.018
763	0.016
764	0.014
764	0.012
764	0.01
765	0.008
765	0.006
766	0.005
766	0.004
767	0.003
767	0
768	-0.002
768	-0.003
768	-0.004
769	-0.004
769	-0.005
770	-0.006
770	-0.007
771	-0.009
771	-0.011
771	-0.013
772	-0.015
772	-0.016
773	-0.017
773	-0.019
774	-0.021
774	-0.023
775	-0.025
775	-0.027
775	-0.03
776	-0.032
776	-0.034
777	-0.037
777	-0.039
778	-0.042
778	-0.044
778	-0.047
779	-0.048
779	-0.049
780	-0.052
780	-0.054
781	-0.057
781	-0.061
781	-0.066
782	-0.071
782	-0.076
783	-0.081
783	-0.087
784	-0.094
784	-0.1
784	-0.105
785	-0.111
785	-0.117
786	-0.12
786	-0.12
787	-0.117
787	-0.116
788	-0.117
788	-0.118
788	-0.118
789	-0.12
789	-0.119
790	-0.116
790	-0.114
791	-0.114
791	-0.115
791	-0.117
792	-0.113
792	-0.103
793	-0.097
793	-0.094
794	-0.093
794	-0.095
794	-0.099
795	-0.102
795	-0.102
796	-0.102
796	-0.105
797	-0.113
797	-0.123
797	-0.129
798	-0.134
798	-0.136
799	-0.137
799	-0.137
800	-0.137
800	-0.139
801	-0.142
801	-0.143
801	-0.144
802	-0.146
802	-0.147
803	-0.148
803	-0.148
804	-0.147
804	-0.142
804	-0.135
805	-0.131
805	-0.129
806	-0.127
806	-0.125
807	-0.124
807	-0.124
807	-0.123
808	-0.123
808	-0.124
809	-0.129
809	-0.134
810	-0.138
810	-0.14
810	-0.143
811	-0.146
811	-0.146
812	-0.141
812	-0.138
813	-0.137
813	-0.137
813	-0.137
814	-0.138
814	-0.137
815	-0.135
815	-0.132
816	-0.13
816	-0.131
817	-0.135
817	-0.136
817	-0.134
818	-0.131
818	-0.126
819	-0.12
819	-0.116
820	-0.113
820	-0.109
820	-0.104
821	-0.098
821	-0.091
822	-0.086
822	-0.081
823	-0.076
823	-0.073
823	-0.07
824	-0.066
824	-0.062
825	-0.057
825	-0.054
826	-0.05
826	-0.048
826	-0.045
827	-0.043
827	-0.04
828	-0.039
828	-0.037
829	-0.035
829	-0.033
829	-0.032
830	-0.031
830	-0.03
831	-0.028
831	-0.027
832	-0.027
832	-0.026
832	-0.025
833	-0.025
833	-0.024
834	-0.024
834	-0.023
835	-0.023
835	-0.023
835	-0.023
836	-0.022
836	-0.022
837	-0.021
837	-0.021
838	-0.02
838	-0.02
839	-0.02
839	-0.019
839	-0.019
840	-0.018
840	-0.018
841	-0.017
841	-0.016
842	-0.015
842	-0.015
842	-0.014
843	-0.013
843	-0.012
844	-0.011
844	-0.011
845	-0.01
845	-0.01
845	-0.01
846	-0.011
846	-0.011
847	-0.012
847	-0.012
848	-0.013
848	-0.014
848	-0.015
849	-0.016
849	-0.016
850	-0.017
850	-0.017
851	-0.018
851	-0.018
851	-0.018
852	-0.018
852	-0.018
853	-0.018
853	-0.017
854	-0.017
854	-0.017
854	-0.016
855	-0.016
855	-0.016
856	-0.015
856	-0.015
857	-0.014
857	-0.014
857	-0.014
858	-0.014
858	-0.014
859	-0.013
859	-0.013
860	-0.013
860	-0.012
860	-0.012
861	-0.012
861	-0.012
862	-0.012
862	-0.011
863	-0.011
863	-0.011
863	-0.011
864	-0.012
864	-0.012
865	-0.012
865	-0.012
866	-0.013
866	-0.013
866	-0.014
867	-0.014
867	-0.013
868	-0.013
868	-0.013
869	-0.012
869	-0.012
869	-0.012
870	-0.011
870	-0.011
871	-0.011
871	-0.011
872	-0.011
872	-0.011
872	-0.011
873	-0.011
873	-0.011
874	-0.011
874	-0.011
875	-0.011
875	-0.011
875	-0.012
876	-0.012
876	-0.012
877	-0.012
877	-0.013
878	-0.014
878	-0.014
878	-0.015
879	-0.016
879	-0.017
880	-0.017
880	-0.018
881	-0.018
881	-0.018
881	-0.017
882	-0.017
882	-0.016
883	-0.016
883	-0.015
884	-0.014
884	-0.014
884	-0.013
885	-0.012
885	-0.012
886	-0.012
886	-0.011
887	-0.011
887	-0.011
887	-0.01
888	-0.01
888	-0.009
889	-0.009
889	-0.008
890	-0.007
890	-0.006
890	-0.006
891	-0.006
891	-0.005
892	-0.005
892	-0.006
893	-0.006
893	-0.006
893	-0.007
894	-0.008
894	-0.008
895	-0.009
895	-0.01
895	-0.011
896	-0.012
896	-0.013
897	-0.013
897	-0.014
898	-0.014
898	-0.014
898	-0.014
899	-0.014
899	-0.014
900	-0.015
900	-0.014
901	-0.014
901	-0.014
901	-0.014
902	-0.014
902	-0.014
903	-0.015
903	-0.015
904	-0.016
904	-0.016
904	-0.017
905	-0.017
905	-0.018
906	-0.018
906	-0.018
907	-0.019
907	-0.019
907	-0.019
908	-0.019
908	-0.02
909	-0.019
909	-0.019
910	-0.019
910	-0.019
910	-0.018
911	-0.018
911	-0.018
912	-0.018
912	-0.017
913	-0.017
913	-0.018
913	-0.018
914	-0.019
914	-0.02
915	-0.021
915	-0.021
916	-0.022
916	-0.023
916	-0.024
917	-0.024
917	-0.024
918	-0.024
918	-0.023
918	-0.022
919	-0.021
919	-0.02
920	-0.019
920	-0.018
921	-0.016
921	-0.015
921	-0.014
922	-0.013
922	-0.012
923	-0.012
923	-0.011
924	-0.01
924	-0.01
924	-0.009
925	-0.009
925	-0.009
926	-0.008
926	-0.009
927	-0.009
927	-0.009
927	-0.01
928	-0.01
928	-0.01
929	-0.011
929	-0.011
930	-0.012
930	-0.012
930	-0.013
931	-0.014
931	-0.015
932	-0.016
932	-0.018
933	-0.019
933	-0.02
933	-0.021
934	-0.022
934	-0.024
935	-0.025
935	-0.026
935	-0.026
936	-0.027
936	-0.027
937	-0.027
937	-0.027
938	-0.027
938	-0.027
938	-0.026
939	-0.026
939	-0.025
940	-0.024
940	-0.023
941	-0.022
941	-0.021
941	-0.02
942	-0.019
942	-0.019
943	-0.018
943	-0.018
944	-0.018
944	-0.017
944	-0.017
945	-0.016
945	-0.016
946	-0.015
946	-0.015
946	-0.015
947	-0.015
947	-0.015
948	-0.014
948	-0.014
949	-0.014
949	-0.013
949	-0.013
950	-0.013
950	-0.012
951	-0.012
951	-0.012
952	-0.012
952	-0.012
952	-0.012
953	-0.012
953	-0.012
954	-0.013
954	-0.013
955	-0.014
955	-0.014
955	-0.014
956	-0.014
956	-0.014
957	-0.014
957	-0.015
957	-0.015
958	-0.016
958	-0.016
959	-0.016
959	-0.016
960	-0.017
960	-0.018
960	-0.019
961	-0.02
961	-0.02
962	-0.021
962	-0.021
963	-0.021
963	-0.021
963	-0.021
964	-0.02
964	-0.02
965	-0.019
965	-0.018
966	-0.017
966	-0.015
966	-0.014
967	-0.013
967	-0.013
968	-0.013
968	-0.013
968	-0.012
969	-0.013
969	-0.013
970	-0.013
970	-0.014
971	-0.014
971	-0.015
971	-0.015
972	-0.016
972	-0.016
973	-0.016
973	-0.017
974	-0.018
974	-0.018
974	-0.018
975	-0.019
975	-0.019
976	-0.02
976	-0.021
976	-0.021
977	-0.022
977	-0.024
978	-0.025
978	-0.025
979	-0.026
979	-0.027
979	-0.027
980	-0.028
980	-0.028
981	-0.028
981	-0.027
982	-0.027
982	-0.026
982	-0.025
983	-0.024
983	-0.022
984	-0.021
984	-0.02
984	-0.019
985	-0.019
985	-0.018
986	-0.019
986	-0.019
987	-0.019
987	-0.019
987	-0.019
988	-0.02
988	-0.02
989	-0.021
989	-0.022
990	-0.022
990	-0.023
990	-0.023
991	-0.023
991	-0.023
992	-0.023
992	-0.024
992	-0.024
993	-0.025
993	-0.026
994	-0.027
994	-0.028
995	-0.029
995	-0.03
995	-0.031
996	-0.032
996	-0.032
997	-0.033
997	-0.033
997	-0.033
998	-0.032
998	-0.032
999	-0.03
999	-0.029
1000	-0.028
1000	-0.027
1000	-0.026
1001	-0.025
1001	-0.024
1002	-0.023
1002	-0.022
1003	-0.022
1003	-0.021
1003	-0.021
1004	-0.02
1004	-0.02
1005	-0.02
1005	-0.02
1005	-0.02
1006	-0.019
1006	-0.019
1007	-0.019
1007	-0.019
1008	-0.019
1008	-0.019
1008	-0.019
1009	-0.019
1009	-0.018
1010	-0.018
1010	-0.018
1010	-0.018
1011	-0.017
1011	-0.018
1012	-0.018
1012	-0.018
1013	-0.018
1013	-0.019
1013	-0.02
1014	-0.02
1014	-0.021
1015	-0.022
1015	-0.023
1016	-0.025
1016	-0.026
1016	-0.027
1017	-0.028
1017	-0.029
1018	-0.03
1018	-0.03
1018	-0.031
1019	-0.031
1019	-0.031
1020	-0.032
1020	-0.032
1021	-0.032
1021	-0.032
1021	-0.032
1022	-0.032
1022	-0.032
1023	-0.032
1023	-0.033
1023	-0.033
1024	-0.034
1024	-0.034
1025	-0.034
1025	-0.035
1026	-0.035
1026	-0.035
1026	-0.036
1027	-0.036
1027	-0.036
1028	-0.035
1028	-0.035
1028	-0.035
1029	-0.034
1029	-0.033
1030	-0.033
1030	-0.033
1031	-0.032
1031	-0.031
1031	-0.03
1032	-0.03
1032	-0.029
1033	-0.029
1033	-0.029
1033	-0.029
1034	-0.029
1034	-0.03
1035	-0.03
1035	-0.031
1036	-0.032
1036	-0.032
1036	-0.033
1037	-0.033
1037	-0.034
1038	-0.034
1038	-0.034
1039	-0.034
1039	-0.034
1039	-0.034
1040	-0.034
1040	-0.035
1041	-0.035
1041	-0.036
1041	-0.037
1042	-0.038
1042	-0.039
1043	-0.041
1043	-0.042
1044	-0.043
1044	-0.043
1044	-0.044
1045	-0.045
1045	-0.046
1046	-0.046
1046	-0.046
1046	-0.046
1047	-0.046
1047	-0.045
1048	-0.045
1048	-0.044
1049	-0.045
1049	-0.045
1049	-0.045
1050	-0.045
1050	-0.046
1051	-0.046
1051	-0.046
1051	-0.046
1052	-0.045
1052	-0.045
1053	-0.045
1053	-0.044
1053	-0.043
1054	-0.042
1054	-0.041
1055	-0.04
1055	-0.039
1056	-0.039
1056	-0.039
1056	-0.039
1057	-0.039
1057	-0.039
1058	-0.04
1058	-0.04
1058	-0.04
1059	-0.04
1059	-0.041
1060	-0.041
1060	-0.042
1061	-0.042
1061	-0.041
1061	-0.041
1062	-0.041
1062	-0.042
1063	-0.042
1063	-0.043
1063	-0.043
1064	-0.044
1064	-0.044
1065	-0.044
1065	-0.045
1066	-0.045
1066	-0.045
1066	-0.046
1067	-0.045
1067	-0.045
1068	-0.046
1068	-0.045
1068	-0.046
1069	-0.046
1069	-0.047
1070	-0.046
1070	-0.047
1071	-0.047
1071	-0.046
1071	-0.047
1072	-0.046
1072	-0.046
1073	-0.046
1073	-0.045
1073	-0.045
1074	-0.044
1074	-0.043
1075	-0.044
1075	-0.044
1076	-0.044
1076	-0.044
1076	-0.044
1077	-0.045
1077	-0.045
1078	-0.046
1078	-0.045
1078	-0.046
1079	-0.046
1079	-0.045
1080	-0.045
1080	-0.044
1080	-0.044
1081	-0.044
1081	-0.043
1082	-0.042
1082	-0.042
1083	-0.042
1083	-0.042
1083	-0.041
1084	-0.041
1084	-0.041
1085	-0.04
1085	-0.04
1085	-0.039
1086	-0.039
1086	-0.04
1087	-0.039
1087	-0.038
1088	-0.039
1088	-0.038
1088	-0.038
1089	-0.038
1089	-0.038
1090	-0.038
1090	-0.038
1090	-0.038
1091	-0.037
1091	-0.036
1092	-0.036
1092	-0.034
1092	-0.033
1093	-0.032
1093	-0.03
1094	-0.029
1094	-0.027
1095	-0.026
1095	-0.025
1095	-0.023
1096	-0.022
1096	-0.02
1097	-0.017
1097	-0.016
1097	-0.014
1098	-0.012
1098	-0.011
1099	-0.009
1099	-0.006
1100	-0.004
1100	-0.002
1100	0.001
1101	0.002
1101	0.004
1102	0.007
1102	0.011
1102	0.014
1103	0.018
1103	0.023
1104	0.028
1104	0.034
1104	0.041
1105	0.049
1105	0.055
1106	0.061
1106	0.068
1107	0.075
1107	0.087
1107	0.101
1108	0.151
1108	0.217
1109	0.322
1109	0.507
1109	0.68
1110	1.303
1110	-0
1111	-0
1111	-0
