Data from 15c-100ul-ns-20ul-nr-full-exp-7ul-bp_Absorbance__277__03714.txt Node

Date: Mon Jan 15 13:50:45 CET 2024
User: Marek
Spectrometer: MAYP115816
Trigger mode: 0
Integration Time (sec): 2.000000E-1
Scans to average: 10
Electric dark correction enabled: true
Nonlinearity correction enabled: true
Boxcar width: 5
XAxis mode: Wavelengths
Number of Pixels in Spectrum: 2068
>>>>>Begin Spectral Data<<<<<
199	-1.589
199	-1.466
200	-1.329
200	-1.222
201	-1.153
201	-1.106
202	-1.041
202	-0.993
203	-0.949
203	-0.915
204	-0.889
204	-0.867
205	-0.848
205	-0.839
205	-0.838
206	-0.836
206	-0.836
207	-0.832
207	-0.829
208	-0.828
208	-0.823
209	-0.822
209	-0.821
210	-0.821
210	-0.82
211	-0.818
211	-0.817
212	-0.815
212	-0.816
213	-0.815
213	-0.814
213	-0.815
214	-0.814
214	-0.815
215	-0.814
215	-0.815
216	-0.815
216	-0.815
217	-0.813
217	-0.813
218	-0.813
218	-0.809
219	-0.807
219	-0.807
220	-0.802
220	-0.799
221	-0.795
221	-0.79
221	-0.785
222	-0.781
222	-0.777
223	-0.769
223	-0.767
224	-0.761
224	-0.753
225	-0.745
225	-0.734
226	-0.726
226	-0.716
227	-0.702
227	-0.687
228	-0.669
228	-0.651
229	-0.627
229	-0.6
229	-0.573
230	-0.543
230	-0.51
231	-0.473
231	-0.437
232	-0.4
232	-0.361
233	-0.321
233	-0.281
234	-0.243
234	-0.205
235	-0.167
235	-0.132
236	-0.099
236	-0.067
236	-0.036
237	-0.009
237	0.017
238	0.04
238	0.061
239	0.081
239	0.098
240	0.113
240	0.127
241	0.139
241	0.15
242	0.16
242	0.169
243	0.177
243	0.185
243	0.191
244	0.197
244	0.202
245	0.207
245	0.211
246	0.215
246	0.219
247	0.222
247	0.225
248	0.228
248	0.23
249	0.233
249	0.235
250	0.237
250	0.239
250	0.241
251	0.243
251	0.245
252	0.246
252	0.248
253	0.249
253	0.25
254	0.251
254	0.253
255	0.253
255	0.254
256	0.255
256	0.256
257	0.256
257	0.257
258	0.257
258	0.257
258	0.258
259	0.258
259	0.257
260	0.257
260	0.257
261	0.256
261	0.256
262	0.255
262	0.255
263	0.254
263	0.253
264	0.252
264	0.252
265	0.251
265	0.25
265	0.248
266	0.247
266	0.246
267	0.245
267	0.244
268	0.242
268	0.241
269	0.24
269	0.238
270	0.236
270	0.235
271	0.233
271	0.231
272	0.229
272	0.228
272	0.226
273	0.224
273	0.223
274	0.221
274	0.219
275	0.218
275	0.216
276	0.214
276	0.212
277	0.211
277	0.209
278	0.207
278	0.205
278	0.203
279	0.2
279	0.198
280	0.196
280	0.194
281	0.191
281	0.189
282	0.187
282	0.185
283	0.183
283	0.181
284	0.18
284	0.179
285	0.177
285	0.176
285	0.174
286	0.173
286	0.172
287	0.17
287	0.169
288	0.168
288	0.166
289	0.165
289	0.163
290	0.162
290	0.161
291	0.16
291	0.159
292	0.158
292	0.157
292	0.155
293	0.154
293	0.154
294	0.153
294	0.152
295	0.151
295	0.15
296	0.149
296	0.149
297	0.148
297	0.147
298	0.147
298	0.146
298	0.145
299	0.144
299	0.144
300	0.143
300	0.143
301	0.142
301	0.141
302	0.141
302	0.14
303	0.14
303	0.139
304	0.139
304	0.138
305	0.138
305	0.137
305	0.137
306	0.136
306	0.136
307	0.136
307	0.135
308	0.134
308	0.134
309	0.133
309	0.133
310	0.132
310	0.132
311	0.131
311	0.131
311	0.13
312	0.13
312	0.129
313	0.129
313	0.128
314	0.128
314	0.127
315	0.127
315	0.126
316	0.126
316	0.126
317	0.125
317	0.125
318	0.124
318	0.124
318	0.123
319	0.123
319	0.122
320	0.122
320	0.121
321	0.12
321	0.12
322	0.119
322	0.119
323	0.118
323	0.118
324	0.117
324	0.117
324	0.116
325	0.116
325	0.116
326	0.115
326	0.115
327	0.114
327	0.114
328	0.113
328	0.113
329	0.112
329	0.112
330	0.111
330	0.111
330	0.11
331	0.11
331	0.109
332	0.109
332	0.108
333	0.108
333	0.107
334	0.107
334	0.106
335	0.106
335	0.106
336	0.105
336	0.105
336	0.104
337	0.104
337	0.103
338	0.103
338	0.103
339	0.102
339	0.102
340	0.101
340	0.101
341	0.1
341	0.1
342	0.1
342	0.1
342	0.099
343	0.099
343	0.098
344	0.098
344	0.098
345	0.097
345	0.097
346	0.097
346	0.096
347	0.096
347	0.096
348	0.096
348	0.095
348	0.095
349	0.095
349	0.094
350	0.094
350	0.094
351	0.094
351	0.093
352	0.093
352	0.092
353	0.092
353	0.092
354	0.091
354	0.091
354	0.091
355	0.09
355	0.09
356	0.09
356	0.09
357	0.09
357	0.09
358	0.09
358	0.09
359	0.09
359	0.09
360	0.09
360	0.09
360	0.09
361	0.089
361	0.089
362	0.089
362	0.089
363	0.089
363	0.089
364	0.089
364	0.089
365	0.089
365	0.088
366	0.089
366	0.088
366	0.088
367	0.088
367	0.088
368	0.088
368	0.087
369	0.087
369	0.087
370	0.087
370	0.087
371	0.086
371	0.086
372	0.086
372	0.086
372	0.086
373	0.086
373	0.086
374	0.086
374	0.086
375	0.086
375	0.086
376	0.086
376	0.086
377	0.086
377	0.086
378	0.086
378	0.086
378	0.086
379	0.085
379	0.085
380	0.086
380	0.086
381	0.086
381	0.085
382	0.085
382	0.085
383	0.085
383	0.084
383	0.084
384	0.084
384	0.084
385	0.083
385	0.083
386	0.083
386	0.083
387	0.083
387	0.083
388	0.083
388	0.083
389	0.083
389	0.083
389	0.083
390	0.083
390	0.083
391	0.083
391	0.084
392	0.083
392	0.083
393	0.083
393	0.084
394	0.083
394	0.083
394	0.083
395	0.083
395	0.082
396	0.082
396	0.082
397	0.082
397	0.082
398	0.082
398	0.081
399	0.081
399	0.081
400	0.081
400	0.081
400	0.081
401	0.08
401	0.08
402	0.08
402	0.08
403	0.08
403	0.08
404	0.079
404	0.079
405	0.079
405	0.079
405	0.079
406	0.079
406	0.079
407	0.079
407	0.079
408	0.079
408	0.079
409	0.078
409	0.078
410	0.079
410	0.078
411	0.078
411	0.078
411	0.078
412	0.078
412	0.077
413	0.077
413	0.077
414	0.077
414	0.076
415	0.076
415	0.076
416	0.075
416	0.075
416	0.075
417	0.074
417	0.074
418	0.074
418	0.074
419	0.075
419	0.075
420	0.075
420	0.076
421	0.076
421	0.076
421	0.076
422	0.076
422	0.076
423	0.076
423	0.076
424	0.075
424	0.075
425	0.074
425	0.074
426	0.074
426	0.074
427	0.074
427	0.073
427	0.074
428	0.074
428	0.074
429	0.075
429	0.075
430	0.075
430	0.075
431	0.075
431	0.075
432	0.074
432	0.074
432	0.073
433	0.073
433	0.072
434	0.072
434	0.072
435	0.072
435	0.072
436	0.072
436	0.072
437	0.071
437	0.071
437	0.071
438	0.071
438	0.071
439	0.071
439	0.071
440	0.07
440	0.07
441	0.07
441	0.07
442	0.071
442	0.071
442	0.071
443	0.071
443	0.071
444	0.071
444	0.071
445	0.071
445	0.071
446	0.071
446	0.071
447	0.071
447	0.07
447	0.07
448	0.07
448	0.07
449	0.07
449	0.07
450	0.07
450	0.069
451	0.069
451	0.069
452	0.069
452	0.069
452	0.069
453	0.069
453	0.069
454	0.069
454	0.069
455	0.069
455	0.069
456	0.069
456	0.069
457	0.069
457	0.069
458	0.069
458	0.069
458	0.07
459	0.07
459	0.069
460	0.069
460	0.068
461	0.068
461	0.068
462	0.068
462	0.068
463	0.068
463	0.069
463	0.069
464	0.069
464	0.069
465	0.069
465	0.069
466	0.069
466	0.069
467	0.069
467	0.068
467	0.068
468	0.067
468	0.066
469	0.066
469	0.066
470	0.066
470	0.066
471	0.066
471	0.067
472	0.067
472	0.067
472	0.068
473	0.068
473	0.069
474	0.069
474	0.069
475	0.069
475	0.07
476	0.07
476	0.07
477	0.07
477	0.07
477	0.07
478	0.07
478	0.07
479	0.07
479	0.071
480	0.071
480	0.071
481	0.072
481	0.072
482	0.073
482	0.074
482	0.074
483	0.076
483	0.077
484	0.078
484	0.078
485	0.079
485	0.079
486	0.079
486	0.08
487	0.08
487	0.08
487	0.08
488	0.08
488	0.079
489	0.079
489	0.08
490	0.08
490	0.08
491	0.081
491	0.081
492	0.082
492	0.082
492	0.083
493	0.084
493	0.085
494	0.086
494	0.088
495	0.089
495	0.09
496	0.091
496	0.092
496	0.093
497	0.094
497	0.095
498	0.095
498	0.096
499	0.096
499	0.097
500	0.098
500	0.098
501	0.099
501	0.1
501	0.1
502	0.101
502	0.102
503	0.103
503	0.104
504	0.104
504	0.105
505	0.105
505	0.106
506	0.107
506	0.107
506	0.108
507	0.108
507	0.109
508	0.11
508	0.111
509	0.112
509	0.113
510	0.114
510	0.115
511	0.115
511	0.116
511	0.116
512	0.117
512	0.117
513	0.117
513	0.117
514	0.118
514	0.118
515	0.118
515	0.118
515	0.118
516	0.118
516	0.119
517	0.119
517	0.119
518	0.12
518	0.12
519	0.12
519	0.119
520	0.119
520	0.119
520	0.118
521	0.118
521	0.117
522	0.116
522	0.115
523	0.114
523	0.114
524	0.114
524	0.114
524	0.114
525	0.115
525	0.115
526	0.116
526	0.117
527	0.118
527	0.119
528	0.12
528	0.12
529	0.12
529	0.121
529	0.121
530	0.121
530	0.121
531	0.121
531	0.121
532	0.12
532	0.12
533	0.12
533	0.119
533	0.119
534	0.118
534	0.117
535	0.116
535	0.116
536	0.116
536	0.116
537	0.115
537	0.115
538	0.114
538	0.113
538	0.112
539	0.112
539	0.111
540	0.11
540	0.109
541	0.107
541	0.106
542	0.105
542	0.104
542	0.103
543	0.102
543	0.101
544	0.1
544	0.1
545	0.1
545	0.099
546	0.099
546	0.098
547	0.097
547	0.095
547	0.094
548	0.093
548	0.092
549	0.091
549	0.09
550	0.089
550	0.087
551	0.086
551	0.085
551	0.084
552	0.084
552	0.083
553	0.083
553	0.082
554	0.082
554	0.08
555	0.079
555	0.079
556	0.077
556	0.076
556	0.075
557	0.074
557	0.073
558	0.072
558	0.071
559	0.07
559	0.069
560	0.068
560	0.068
560	0.067
561	0.067
561	0.067
562	0.067
562	0.066
563	0.064
563	0.063
564	0.062
564	0.06
564	0.059
565	0.059
565	0.058
566	0.057
566	0.056
567	0.056
567	0.055
568	0.055
568	0.055
568	0.056
569	0.056
569	0.056
570	0.055
570	0.054
571	0.055
571	0.054
572	0.054
572	0.053
573	0.052
573	0.051
573	0.05
574	0.05
574	0.05
575	0.05
575	0.051
576	0.051
576	0.049
577	0.047
577	0.047
577	0.047
578	0.047
578	0.047
579	0.049
579	0.049
580	0.047
580	0.045
581	0.042
581	0.042
581	0.042
582	0.043
582	0.043
583	0.044
583	0.042
584	0.039
584	0.037
585	0.037
585	0.038
585	0.039
586	0.039
586	0.038
587	0.036
587	0.035
588	0.033
588	0.033
589	0.033
589	0.034
590	0.034
590	0.033
590	0.035
591	0.036
591	0.035
592	0.034
592	0.033
593	0.034
593	0.034
594	0.033
594	0.032
594	0.031
595	0.031
595	0.03
596	0.03
596	0.032
597	0.035
597	0.036
598	0.036
598	0.036
598	0.037
599	0.037
599	0.036
600	0.035
600	0.034
601	0.034
601	0.033
602	0.031
602	0.03
602	0.029
603	0.029
603	0.03
604	0.031
604	0.032
605	0.033
605	0.034
606	0.034
606	0.033
606	0.032
607	0.032
607	0.032
608	0.031
608	0.03
609	0.03
609	0.03
610	0.029
610	0.028
610	0.029
611	0.031
611	0.032
612	0.033
612	0.035
613	0.036
613	0.037
614	0.036
614	0.036
614	0.036
615	0.036
615	0.035
616	0.035
616	0.035
617	0.035
617	0.034
618	0.033
618	0.033
618	0.034
619	0.034
619	0.036
620	0.037
620	0.038
621	0.038
621	0.039
622	0.039
622	0.04
622	0.04
623	0.04
623	0.041
624	0.041
624	0.041
625	0.041
625	0.041
626	0.041
626	0.041
626	0.042
627	0.042
627	0.043
628	0.044
628	0.044
629	0.045
629	0.045
630	0.045
630	0.046
630	0.047
631	0.048
631	0.049
632	0.049
632	0.05
633	0.051
633	0.052
634	0.054
634	0.055
634	0.057
635	0.058
635	0.058
636	0.059
636	0.06
637	0.061
637	0.061
638	0.062
638	0.063
638	0.064
639	0.064
639	0.064
640	0.065
640	0.066
641	0.067
641	0.068
642	0.07
642	0.072
642	0.073
643	0.074
643	0.076
644	0.078
644	0.079
645	0.081
645	0.082
646	0.084
646	0.086
646	0.088
647	0.089
647	0.09
648	0.091
648	0.093
649	0.094
649	0.096
650	0.098
650	0.099
650	0.101
651	0.103
651	0.104
652	0.106
652	0.109
653	0.112
653	0.12
653	0.13
654	0.106
654	0.088
655	0.088
655	0.09
656	0.092
656	0.093
657	0.094
657	0.096
657	0.096
658	0.094
658	0.087
659	0.109
659	0.138
660	0.146
660	0.148
661	0.149
661	0.151
661	0.154
662	0.156
662	0.159
663	0.161
663	0.163
664	0.165
664	0.167
665	0.169
665	0.171
665	0.173
666	0.175
666	0.176
667	0.178
667	0.18
668	0.182
668	0.185
669	0.187
669	0.19
669	0.193
670	0.195
670	0.197
671	0.198
671	0.199
672	0.201
672	0.202
672	0.203
673	0.205
673	0.206
674	0.206
674	0.207
675	0.208
675	0.21
676	0.212
676	0.214
676	0.215
677	0.216
677	0.217
678	0.218
678	0.218
679	0.219
679	0.22
680	0.221
680	0.221
680	0.221
681	0.221
681	0.222
682	0.223
682	0.224
683	0.225
683	0.227
684	0.227
684	0.227
684	0.227
685	0.228
685	0.228
686	0.229
686	0.229
687	0.229
687	0.229
687	0.229
688	0.228
688	0.228
689	0.23
689	0.23
690	0.23
690	0.229
691	0.229
691	0.229
691	0.228
692	0.227
692	0.226
693	0.226
693	0.225
694	0.224
694	0.222
695	0.223
695	0.224
695	0.224
696	0.223
696	0.223
697	0.222
697	0.222
698	0.221
698	0.22
698	0.219
699	0.219
699	0.216
700	0.214
700	0.213
701	0.212
701	0.21
702	0.209
702	0.208
702	0.206
703	0.205
703	0.204
704	0.202
704	0.201
705	0.2
705	0.199
705	0.197
706	0.196
706	0.194
707	0.193
707	0.191
708	0.189
708	0.187
709	0.185
709	0.183
709	0.18
710	0.177
710	0.176
711	0.174
711	0.172
712	0.171
712	0.169
713	0.168
713	0.166
713	0.165
714	0.163
714	0.162
715	0.161
715	0.159
716	0.158
716	0.156
716	0.155
717	0.153
717	0.152
718	0.149
718	0.148
719	0.147
719	0.145
720	0.143
720	0.141
720	0.139
721	0.136
721	0.134
722	0.132
722	0.13
723	0.128
723	0.127
723	0.125
724	0.123
724	0.121
725	0.12
725	0.118
726	0.117
726	0.116
727	0.115
727	0.114
727	0.113
728	0.111
728	0.11
729	0.11
729	0.109
730	0.108
730	0.106
730	0.105
731	0.104
731	0.103
732	0.102
732	0.1
733	0.099
733	0.097
734	0.095
734	0.093
734	0.092
735	0.09
735	0.089
736	0.087
736	0.086
737	0.085
737	0.084
737	0.082
738	0.08
738	0.078
739	0.076
739	0.075
740	0.073
740	0.072
741	0.071
741	0.069
741	0.066
742	0.064
742	0.062
743	0.061
743	0.059
744	0.057
744	0.056
744	0.054
745	0.052
745	0.05
746	0.049
746	0.048
747	0.047
747	0.046
748	0.045
748	0.045
748	0.044
749	0.043
749	0.043
750	0.043
750	0.042
751	0.042
751	0.042
751	0.042
752	0.041
752	0.04
753	0.04
753	0.04
754	0.04
754	0.039
754	0.039
755	0.039
755	0.039
756	0.037
756	0.035
757	0.034
757	0.034
758	0.033
758	0.031
758	0.03
759	0.029
759	0.027
760	0.025
760	0.024
761	0.023
761	0.023
761	0.022
762	0.021
762	0.02
763	0.019
763	0.017
764	0.015
764	0.013
764	0.011
765	0.009
765	0.007
766	0.005
766	0.005
767	0.003
767	0.001
768	-0.001
768	-0.002
768	-0.003
769	-0.003
769	-0.004
770	-0.005
770	-0.006
771	-0.008
771	-0.011
771	-0.013
772	-0.014
772	-0.015
773	-0.017
773	-0.019
774	-0.021
774	-0.023
775	-0.025
775	-0.028
775	-0.03
776	-0.033
776	-0.035
777	-0.038
777	-0.04
778	-0.043
778	-0.046
778	-0.048
779	-0.049
779	-0.051
780	-0.053
780	-0.056
781	-0.059
781	-0.063
781	-0.068
782	-0.073
782	-0.078
783	-0.084
783	-0.09
784	-0.096
784	-0.102
784	-0.107
785	-0.113
785	-0.118
786	-0.121
786	-0.121
787	-0.118
787	-0.116
788	-0.117
788	-0.118
788	-0.118
789	-0.12
789	-0.119
790	-0.115
790	-0.114
791	-0.114
791	-0.115
791	-0.117
792	-0.112
792	-0.103
793	-0.097
793	-0.094
794	-0.093
794	-0.095
794	-0.099
795	-0.101
795	-0.102
796	-0.102
796	-0.105
797	-0.113
797	-0.123
797	-0.129
798	-0.134
798	-0.136
799	-0.137
799	-0.137
800	-0.137
800	-0.139
801	-0.142
801	-0.143
801	-0.144
802	-0.145
802	-0.147
803	-0.148
803	-0.148
804	-0.147
804	-0.142
804	-0.135
805	-0.131
805	-0.129
806	-0.127
806	-0.125
807	-0.124
807	-0.123
807	-0.123
808	-0.123
808	-0.124
809	-0.129
809	-0.134
810	-0.138
810	-0.14
810	-0.143
811	-0.146
811	-0.145
812	-0.141
812	-0.138
813	-0.137
813	-0.137
813	-0.137
814	-0.138
814	-0.137
815	-0.135
815	-0.132
816	-0.13
816	-0.131
817	-0.135
817	-0.137
817	-0.135
818	-0.132
818	-0.127
819	-0.121
819	-0.117
820	-0.114
820	-0.111
820	-0.106
821	-0.1
821	-0.093
822	-0.087
822	-0.082
823	-0.078
823	-0.074
823	-0.07
824	-0.066
824	-0.062
825	-0.058
825	-0.053
826	-0.05
826	-0.047
826	-0.044
827	-0.042
827	-0.039
828	-0.037
828	-0.036
829	-0.034
829	-0.032
829	-0.031
830	-0.03
830	-0.028
831	-0.027
831	-0.026
832	-0.025
832	-0.024
832	-0.023
833	-0.023
833	-0.022
834	-0.022
834	-0.022
835	-0.021
835	-0.022
835	-0.021
836	-0.021
836	-0.021
837	-0.02
837	-0.02
838	-0.02
838	-0.019
839	-0.019
839	-0.018
839	-0.018
840	-0.017
840	-0.017
841	-0.016
841	-0.015
842	-0.014
842	-0.013
842	-0.012
843	-0.011
843	-0.01
844	-0.009
844	-0.009
845	-0.009
845	-0.009
845	-0.009
846	-0.009
846	-0.01
847	-0.01
847	-0.011
848	-0.012
848	-0.012
848	-0.013
849	-0.014
849	-0.014
850	-0.015
850	-0.015
851	-0.015
851	-0.016
851	-0.016
852	-0.016
852	-0.015
853	-0.015
853	-0.015
854	-0.015
854	-0.014
854	-0.014
855	-0.014
855	-0.013
856	-0.013
856	-0.012
857	-0.012
857	-0.012
857	-0.012
858	-0.011
858	-0.011
859	-0.011
859	-0.011
860	-0.011
860	-0.01
860	-0.01
861	-0.01
861	-0.01
862	-0.01
862	-0.01
863	-0.009
863	-0.009
863	-0.01
864	-0.01
864	-0.01
865	-0.01
865	-0.011
866	-0.011
866	-0.012
866	-0.012
867	-0.012
867	-0.012
868	-0.012
868	-0.011
869	-0.011
869	-0.01
869	-0.01
870	-0.01
870	-0.01
871	-0.009
871	-0.009
872	-0.009
872	-0.009
872	-0.01
873	-0.01
873	-0.01
874	-0.01
874	-0.01
875	-0.01
875	-0.01
875	-0.01
876	-0.01
876	-0.01
877	-0.011
877	-0.011
878	-0.012
878	-0.013
878	-0.013
879	-0.014
879	-0.015
880	-0.016
880	-0.016
881	-0.016
881	-0.016
881	-0.016
882	-0.015
882	-0.014
883	-0.014
883	-0.013
884	-0.012
884	-0.012
884	-0.011
885	-0.011
885	-0.01
886	-0.01
886	-0.009
887	-0.009
887	-0.009
887	-0.008
888	-0.008
888	-0.007
889	-0.007
889	-0.006
890	-0.005
890	-0.004
890	-0.004
891	-0.003
891	-0.003
892	-0.003
892	-0.004
893	-0.004
893	-0.004
893	-0.005
894	-0.005
894	-0.006
895	-0.007
895	-0.008
895	-0.009
896	-0.01
896	-0.011
897	-0.011
897	-0.012
898	-0.012
898	-0.012
898	-0.012
899	-0.013
899	-0.013
900	-0.013
900	-0.012
901	-0.012
901	-0.012
901	-0.012
902	-0.012
902	-0.012
903	-0.012
903	-0.013
904	-0.013
904	-0.014
904	-0.014
905	-0.015
905	-0.015
906	-0.015
906	-0.016
907	-0.016
907	-0.016
907	-0.016
908	-0.016
908	-0.017
909	-0.017
909	-0.017
910	-0.016
910	-0.016
910	-0.016
911	-0.016
911	-0.016
912	-0.015
912	-0.015
913	-0.015
913	-0.015
913	-0.016
914	-0.016
914	-0.017
915	-0.018
915	-0.019
916	-0.02
916	-0.02
916	-0.021
917	-0.021
917	-0.021
918	-0.021
918	-0.02
918	-0.02
919	-0.019
919	-0.018
920	-0.016
920	-0.015
921	-0.014
921	-0.013
921	-0.012
922	-0.011
922	-0.01
923	-0.009
923	-0.009
924	-0.008
924	-0.008
924	-0.007
925	-0.007
925	-0.007
926	-0.007
926	-0.007
927	-0.008
927	-0.008
927	-0.008
928	-0.009
928	-0.009
929	-0.01
929	-0.01
930	-0.011
930	-0.011
930	-0.012
931	-0.013
931	-0.014
932	-0.015
932	-0.016
933	-0.017
933	-0.018
933	-0.019
934	-0.02
934	-0.022
935	-0.022
935	-0.023
935	-0.024
936	-0.025
936	-0.025
937	-0.025
937	-0.025
938	-0.025
938	-0.025
938	-0.024
939	-0.024
939	-0.023
940	-0.022
940	-0.021
941	-0.02
941	-0.02
941	-0.019
942	-0.018
942	-0.018
943	-0.017
943	-0.017
944	-0.017
944	-0.017
944	-0.016
945	-0.016
945	-0.015
946	-0.014
946	-0.014
946	-0.014
947	-0.013
947	-0.013
948	-0.012
948	-0.012
949	-0.012
949	-0.011
949	-0.01
950	-0.01
950	-0.01
951	-0.01
951	-0.01
952	-0.01
952	-0.01
952	-0.01
953	-0.01
953	-0.011
954	-0.011
954	-0.012
955	-0.012
955	-0.013
955	-0.013
956	-0.013
956	-0.012
957	-0.013
957	-0.013
957	-0.013
958	-0.014
958	-0.014
959	-0.014
959	-0.014
960	-0.015
960	-0.016
960	-0.017
961	-0.018
961	-0.019
962	-0.02
962	-0.02
963	-0.02
963	-0.02
963	-0.019
964	-0.019
964	-0.018
965	-0.017
965	-0.016
966	-0.015
966	-0.014
966	-0.012
967	-0.011
967	-0.011
968	-0.011
968	-0.011
968	-0.011
969	-0.011
969	-0.011
970	-0.011
970	-0.012
971	-0.012
971	-0.012
971	-0.013
972	-0.013
972	-0.013
973	-0.014
973	-0.014
974	-0.015
974	-0.015
974	-0.015
975	-0.016
975	-0.017
976	-0.017
976	-0.018
976	-0.019
977	-0.02
977	-0.021
978	-0.022
978	-0.023
979	-0.024
979	-0.024
979	-0.024
980	-0.024
980	-0.025
981	-0.024
981	-0.024
982	-0.023
982	-0.022
982	-0.021
983	-0.02
983	-0.019
984	-0.018
984	-0.017
984	-0.016
985	-0.015
985	-0.015
986	-0.016
986	-0.016
987	-0.016
987	-0.017
987	-0.017
988	-0.017
988	-0.018
989	-0.019
989	-0.019
990	-0.02
990	-0.02
990	-0.02
991	-0.02
991	-0.021
992	-0.021
992	-0.021
992	-0.022
993	-0.022
993	-0.023
994	-0.024
994	-0.025
995	-0.026
995	-0.027
995	-0.028
996	-0.029
996	-0.03
997	-0.03
997	-0.031
997	-0.031
998	-0.03
998	-0.029
999	-0.028
999	-0.028
1000	-0.026
1000	-0.025
1000	-0.024
1001	-0.023
1001	-0.022
1002	-0.021
1002	-0.02
1003	-0.02
1003	-0.02
1003	-0.019
1004	-0.019
1004	-0.019
1005	-0.018
1005	-0.018
1005	-0.018
1006	-0.018
1006	-0.017
1007	-0.017
1007	-0.017
1008	-0.017
1008	-0.017
1008	-0.016
1009	-0.016
1009	-0.016
1010	-0.015
1010	-0.015
1010	-0.015
1011	-0.015
1011	-0.014
1012	-0.014
1012	-0.015
1013	-0.015
1013	-0.015
1013	-0.016
1014	-0.017
1014	-0.018
1015	-0.019
1015	-0.02
1016	-0.022
1016	-0.023
1016	-0.024
1017	-0.025
1017	-0.026
1018	-0.027
1018	-0.027
1018	-0.028
1019	-0.028
1019	-0.028
1020	-0.029
1020	-0.029
1021	-0.029
1021	-0.03
1021	-0.03
1022	-0.03
1022	-0.031
1023	-0.031
1023	-0.031
1023	-0.032
1024	-0.033
1024	-0.033
1025	-0.034
1025	-0.034
1026	-0.035
1026	-0.035
1026	-0.035
1027	-0.035
1027	-0.035
1028	-0.035
1028	-0.034
1028	-0.034
1029	-0.034
1029	-0.033
1030	-0.033
1030	-0.032
1031	-0.031
1031	-0.03
1031	-0.03
1032	-0.029
1032	-0.028
1033	-0.027
1033	-0.027
1033	-0.027
1034	-0.028
1034	-0.028
1035	-0.029
1035	-0.029
1036	-0.029
1036	-0.03
1036	-0.03
1037	-0.03
1037	-0.031
1038	-0.031
1038	-0.031
1039	-0.032
1039	-0.031
1039	-0.032
1040	-0.032
1040	-0.032
1041	-0.033
1041	-0.034
1041	-0.034
1042	-0.035
1042	-0.037
1043	-0.038
1043	-0.039
1044	-0.04
1044	-0.04
1044	-0.041
1045	-0.042
1045	-0.043
1046	-0.043
1046	-0.043
1046	-0.043
1047	-0.043
1047	-0.043
1048	-0.042
1048	-0.042
1049	-0.043
1049	-0.043
1049	-0.043
1050	-0.043
1050	-0.044
1051	-0.044
1051	-0.044
1051	-0.044
1052	-0.043
1052	-0.043
1053	-0.043
1053	-0.042
1053	-0.041
1054	-0.04
1054	-0.039
1055	-0.037
1055	-0.036
1056	-0.036
1056	-0.036
1056	-0.036
1057	-0.037
1057	-0.037
1058	-0.037
1058	-0.037
1058	-0.038
1059	-0.038
1059	-0.039
1060	-0.039
1060	-0.039
1061	-0.04
1061	-0.039
1061	-0.039
1062	-0.039
1062	-0.039
1063	-0.039
1063	-0.04
1063	-0.04
1064	-0.041
1064	-0.041
1065	-0.041
1065	-0.042
1066	-0.042
1066	-0.042
1066	-0.043
1067	-0.043
1067	-0.043
1068	-0.043
1068	-0.044
1068	-0.044
1069	-0.044
1069	-0.045
1070	-0.045
1070	-0.045
1071	-0.045
1071	-0.045
1071	-0.045
1072	-0.045
1072	-0.045
1073	-0.044
1073	-0.043
1073	-0.043
1074	-0.042
1074	-0.042
1075	-0.042
1075	-0.042
1076	-0.042
1076	-0.041
1076	-0.042
1077	-0.042
1077	-0.042
1078	-0.043
1078	-0.042
1078	-0.043
1079	-0.043
1079	-0.042
1080	-0.042
1080	-0.041
1080	-0.042
1081	-0.041
1081	-0.04
1082	-0.039
1082	-0.039
1083	-0.039
1083	-0.039
1083	-0.038
1084	-0.037
1084	-0.037
1085	-0.037
1085	-0.036
1085	-0.035
1086	-0.035
1086	-0.036
1087	-0.035
1087	-0.035
1088	-0.035
1088	-0.035
1088	-0.034
1089	-0.035
1089	-0.034
1090	-0.034
1090	-0.034
1090	-0.034
1091	-0.032
1091	-0.031
1092	-0.03
1092	-0.029
1092	-0.027
1093	-0.026
1093	-0.024
1094	-0.023
1094	-0.022
1095	-0.021
1095	-0.02
1095	-0.018
1096	-0.016
1096	-0.014
1097	-0.012
1097	-0.011
1097	-0.008
1098	-0.006
1098	-0.004
1099	-0.001
1099	0.002
1100	0.005
1100	0.007
1100	0.01
1101	0.013
1101	0.016
1102	0.02
1102	0.024
1102	0.029
1103	0.032
1103	0.037
1104	0.044
1104	0.051
1104	0.059
1105	0.066
1105	0.073
1106	0.078
1106	0.086
1107	0.092
1107	0.104
1107	0.121
1108	0.176
1108	0.252
1109	0.368
1109	0.598
1109	0.853
1110	-0
1110	-0
1111	-0
1111	-0
