Data from 15c-100ul-ns-20ul-nr-full-exp-7ul-bp_Absorbance__166__03603.txt Node

Date: Mon Jan 15 13:47:03 CET 2024
User: Marek
Spectrometer: MAYP115816
Trigger mode: 0
Integration Time (sec): 2.000000E-1
Scans to average: 10
Electric dark correction enabled: true
Nonlinearity correction enabled: true
Boxcar width: 5
XAxis mode: Wavelengths
Number of Pixels in Spectrum: 2068
>>>>>Begin Spectral Data<<<<<
199	-1.639
199	-1.513
200	-1.375
200	-1.268
201	-1.198
201	-1.15
202	-1.084
202	-1.033
203	-0.988
203	-0.954
204	-0.926
204	-0.905
205	-0.886
205	-0.877
205	-0.875
206	-0.874
206	-0.873
207	-0.869
207	-0.866
208	-0.866
208	-0.86
209	-0.86
209	-0.859
210	-0.859
210	-0.857
211	-0.855
211	-0.854
212	-0.852
212	-0.852
213	-0.851
213	-0.85
213	-0.851
214	-0.849
214	-0.85
215	-0.849
215	-0.85
216	-0.85
216	-0.849
217	-0.848
217	-0.847
218	-0.847
218	-0.843
219	-0.841
219	-0.841
220	-0.836
220	-0.833
221	-0.829
221	-0.825
221	-0.82
222	-0.816
222	-0.812
223	-0.805
223	-0.802
224	-0.797
224	-0.789
225	-0.78
225	-0.77
226	-0.761
226	-0.75
227	-0.736
227	-0.721
228	-0.702
228	-0.684
229	-0.66
229	-0.632
229	-0.605
230	-0.575
230	-0.543
231	-0.507
231	-0.471
232	-0.434
232	-0.395
233	-0.355
233	-0.315
234	-0.276
234	-0.238
235	-0.201
235	-0.165
236	-0.131
236	-0.098
236	-0.067
237	-0.039
237	-0.013
238	0.012
238	0.034
239	0.054
239	0.072
240	0.087
240	0.101
241	0.114
241	0.126
242	0.136
242	0.145
243	0.153
243	0.16
243	0.167
244	0.173
244	0.178
245	0.183
245	0.187
246	0.191
246	0.195
247	0.198
247	0.202
248	0.205
248	0.208
249	0.21
249	0.212
250	0.215
250	0.217
250	0.219
251	0.221
251	0.223
252	0.225
252	0.226
253	0.228
253	0.229
254	0.23
254	0.231
255	0.232
255	0.233
256	0.234
256	0.234
257	0.235
257	0.236
258	0.236
258	0.236
258	0.237
259	0.237
259	0.237
260	0.237
260	0.237
261	0.237
261	0.236
262	0.236
262	0.235
263	0.235
263	0.234
264	0.233
264	0.232
265	0.231
265	0.23
265	0.229
266	0.228
266	0.227
267	0.226
267	0.225
268	0.223
268	0.222
269	0.22
269	0.219
270	0.217
270	0.216
271	0.214
271	0.212
272	0.211
272	0.209
272	0.208
273	0.206
273	0.204
274	0.203
274	0.201
275	0.199
275	0.198
276	0.196
276	0.194
277	0.192
277	0.191
278	0.189
278	0.188
278	0.186
279	0.184
279	0.181
280	0.179
280	0.178
281	0.176
281	0.174
282	0.172
282	0.17
283	0.168
283	0.166
284	0.165
284	0.163
285	0.162
285	0.161
285	0.159
286	0.158
286	0.157
287	0.156
287	0.154
288	0.153
288	0.152
289	0.151
289	0.15
290	0.149
290	0.147
291	0.146
291	0.145
292	0.144
292	0.143
292	0.142
293	0.141
293	0.14
294	0.14
294	0.139
295	0.138
295	0.137
296	0.137
296	0.136
297	0.135
297	0.135
298	0.134
298	0.133
298	0.133
299	0.132
299	0.132
300	0.131
300	0.131
301	0.13
301	0.13
302	0.129
302	0.129
303	0.128
303	0.128
304	0.128
304	0.127
305	0.127
305	0.126
305	0.126
306	0.125
306	0.125
307	0.124
307	0.124
308	0.124
308	0.123
309	0.122
309	0.122
310	0.122
310	0.121
311	0.121
311	0.12
311	0.12
312	0.119
312	0.119
313	0.119
313	0.118
314	0.118
314	0.117
315	0.117
315	0.116
316	0.116
316	0.115
317	0.115
317	0.114
318	0.114
318	0.113
318	0.113
319	0.112
319	0.112
320	0.112
320	0.111
321	0.111
321	0.11
322	0.11
322	0.109
323	0.109
323	0.108
324	0.108
324	0.108
324	0.107
325	0.107
325	0.106
326	0.106
326	0.105
327	0.105
327	0.105
328	0.104
328	0.104
329	0.103
329	0.103
330	0.102
330	0.102
330	0.101
331	0.101
331	0.101
332	0.1
332	0.1
333	0.099
333	0.099
334	0.098
334	0.098
335	0.098
335	0.097
336	0.097
336	0.096
336	0.096
337	0.095
337	0.095
338	0.095
338	0.094
339	0.094
339	0.094
340	0.093
340	0.093
341	0.092
341	0.092
342	0.092
342	0.091
342	0.091
343	0.091
343	0.09
344	0.09
344	0.09
345	0.089
345	0.089
346	0.088
346	0.088
347	0.088
347	0.088
348	0.087
348	0.087
348	0.087
349	0.087
349	0.086
350	0.086
350	0.086
351	0.086
351	0.085
352	0.085
352	0.085
353	0.084
353	0.084
354	0.083
354	0.083
354	0.083
355	0.083
355	0.082
356	0.082
356	0.082
357	0.082
357	0.082
358	0.082
358	0.082
359	0.082
359	0.082
360	0.082
360	0.082
360	0.082
361	0.081
361	0.081
362	0.082
362	0.081
363	0.081
363	0.081
364	0.081
364	0.081
365	0.081
365	0.081
366	0.081
366	0.081
366	0.081
367	0.081
367	0.08
368	0.08
368	0.08
369	0.08
369	0.079
370	0.079
370	0.079
371	0.079
371	0.079
372	0.078
372	0.078
372	0.078
373	0.078
373	0.078
374	0.078
374	0.078
375	0.078
375	0.078
376	0.078
376	0.078
377	0.078
377	0.078
378	0.079
378	0.078
378	0.079
379	0.078
379	0.078
380	0.079
380	0.079
381	0.078
381	0.078
382	0.078
382	0.078
383	0.078
383	0.078
383	0.077
384	0.077
384	0.077
385	0.077
385	0.077
386	0.077
386	0.077
387	0.077
387	0.077
388	0.076
388	0.076
389	0.076
389	0.076
389	0.076
390	0.076
390	0.076
391	0.076
391	0.076
392	0.076
392	0.076
393	0.076
393	0.076
394	0.076
394	0.076
394	0.076
395	0.076
395	0.075
396	0.075
396	0.075
397	0.075
397	0.075
398	0.075
398	0.075
399	0.075
399	0.075
400	0.074
400	0.074
400	0.074
401	0.074
401	0.073
402	0.073
402	0.073
403	0.073
403	0.073
404	0.073
404	0.073
405	0.072
405	0.072
405	0.072
406	0.072
406	0.073
407	0.073
407	0.072
408	0.072
408	0.072
409	0.072
409	0.072
410	0.072
410	0.072
411	0.072
411	0.071
411	0.071
412	0.071
412	0.071
413	0.071
413	0.07
414	0.07
414	0.07
415	0.07
415	0.069
416	0.069
416	0.068
416	0.068
417	0.068
417	0.068
418	0.068
418	0.068
419	0.069
419	0.069
420	0.069
420	0.07
421	0.07
421	0.07
421	0.07
422	0.07
422	0.07
423	0.07
423	0.07
424	0.069
424	0.069
425	0.068
425	0.068
426	0.068
426	0.068
427	0.068
427	0.068
427	0.068
428	0.068
428	0.069
429	0.069
429	0.069
430	0.069
430	0.069
431	0.069
431	0.068
432	0.068
432	0.068
432	0.067
433	0.066
433	0.066
434	0.066
434	0.066
435	0.065
435	0.065
436	0.065
436	0.065
437	0.065
437	0.065
437	0.065
438	0.065
438	0.065
439	0.065
439	0.065
440	0.065
440	0.065
441	0.065
441	0.065
442	0.065
442	0.065
442	0.065
443	0.065
443	0.065
444	0.065
444	0.065
445	0.065
445	0.065
446	0.065
446	0.065
447	0.065
447	0.064
447	0.064
448	0.064
448	0.064
449	0.064
449	0.063
450	0.063
450	0.063
451	0.063
451	0.063
452	0.063
452	0.063
452	0.062
453	0.062
453	0.062
454	0.062
454	0.062
455	0.062
455	0.062
456	0.062
456	0.062
457	0.062
457	0.062
458	0.062
458	0.062
458	0.063
459	0.063
459	0.063
460	0.062
460	0.062
461	0.062
461	0.061
462	0.061
462	0.061
463	0.062
463	0.062
463	0.062
464	0.062
464	0.062
465	0.062
465	0.062
466	0.062
466	0.062
467	0.062
467	0.062
467	0.061
468	0.06
468	0.059
469	0.059
469	0.059
470	0.059
470	0.058
471	0.059
471	0.058
472	0.059
472	0.059
472	0.059
473	0.06
473	0.06
474	0.061
474	0.061
475	0.061
475	0.062
476	0.062
476	0.062
477	0.062
477	0.062
477	0.062
478	0.062
478	0.062
479	0.062
479	0.062
480	0.062
480	0.062
481	0.063
481	0.063
482	0.064
482	0.065
482	0.065
483	0.066
483	0.068
484	0.069
484	0.069
485	0.069
485	0.07
486	0.07
486	0.07
487	0.071
487	0.071
487	0.071
488	0.071
488	0.07
489	0.07
489	0.07
490	0.07
490	0.07
491	0.07
491	0.071
492	0.071
492	0.071
492	0.072
493	0.072
493	0.073
494	0.075
494	0.076
495	0.077
495	0.078
496	0.079
496	0.08
496	0.081
497	0.082
497	0.082
498	0.083
498	0.083
499	0.083
499	0.084
500	0.084
500	0.085
501	0.086
501	0.086
501	0.087
502	0.088
502	0.089
503	0.09
503	0.09
504	0.091
504	0.091
505	0.092
505	0.092
506	0.093
506	0.093
506	0.094
507	0.094
507	0.095
508	0.095
508	0.096
509	0.097
509	0.097
510	0.098
510	0.099
511	0.099
511	0.1
511	0.1
512	0.101
512	0.101
513	0.1
513	0.1
514	0.101
514	0.101
515	0.101
515	0.101
515	0.101
516	0.101
516	0.101
517	0.102
517	0.102
518	0.102
518	0.102
519	0.102
519	0.102
520	0.102
520	0.102
520	0.102
521	0.101
521	0.1
522	0.099
522	0.098
523	0.097
523	0.097
524	0.097
524	0.096
524	0.096
525	0.097
525	0.097
526	0.098
526	0.099
527	0.1
527	0.101
528	0.102
528	0.103
529	0.103
529	0.103
529	0.104
530	0.104
530	0.104
531	0.105
531	0.105
532	0.104
532	0.104
533	0.104
533	0.103
533	0.103
534	0.102
534	0.102
535	0.101
535	0.101
536	0.101
536	0.101
537	0.101
537	0.1
538	0.1
538	0.099
538	0.099
539	0.098
539	0.098
540	0.097
540	0.096
541	0.094
541	0.093
542	0.093
542	0.092
542	0.091
543	0.091
543	0.09
544	0.089
544	0.089
545	0.089
545	0.089
546	0.089
546	0.088
547	0.088
547	0.086
547	0.086
548	0.085
548	0.084
549	0.083
549	0.082
550	0.081
550	0.08
551	0.079
551	0.078
551	0.078
552	0.077
552	0.077
553	0.076
553	0.076
554	0.076
554	0.075
555	0.074
555	0.073
556	0.072
556	0.071
556	0.07
557	0.069
557	0.069
558	0.068
558	0.067
559	0.067
559	0.066
560	0.066
560	0.065
560	0.065
561	0.065
561	0.065
562	0.065
562	0.064
563	0.063
563	0.062
564	0.061
564	0.06
564	0.059
565	0.059
565	0.058
566	0.057
566	0.057
567	0.056
567	0.056
568	0.057
568	0.057
568	0.057
569	0.058
569	0.058
570	0.058
570	0.057
571	0.057
571	0.058
572	0.057
572	0.057
573	0.056
573	0.056
573	0.055
574	0.054
574	0.054
575	0.055
575	0.056
576	0.056
576	0.055
577	0.053
577	0.053
577	0.053
578	0.053
578	0.054
579	0.055
579	0.056
580	0.054
580	0.051
581	0.049
581	0.049
581	0.05
582	0.05
582	0.051
583	0.051
583	0.05
584	0.047
584	0.044
585	0.045
585	0.046
585	0.046
586	0.046
586	0.046
587	0.044
587	0.042
588	0.041
588	0.041
589	0.041
589	0.042
590	0.041
590	0.041
590	0.043
591	0.044
591	0.043
592	0.043
592	0.042
593	0.042
593	0.042
594	0.041
594	0.04
594	0.04
595	0.04
595	0.039
596	0.039
596	0.041
597	0.044
597	0.044
598	0.045
598	0.045
598	0.046
599	0.046
599	0.045
600	0.044
600	0.043
601	0.043
601	0.042
602	0.04
602	0.039
602	0.038
603	0.038
603	0.039
604	0.04
604	0.04
605	0.042
605	0.043
606	0.043
606	0.042
606	0.041
607	0.041
607	0.041
608	0.041
608	0.039
609	0.039
609	0.039
610	0.038
610	0.037
610	0.038
611	0.039
611	0.04
612	0.042
612	0.043
613	0.044
613	0.045
614	0.045
614	0.044
614	0.045
615	0.044
615	0.044
616	0.044
616	0.043
617	0.043
617	0.042
618	0.042
618	0.041
618	0.042
619	0.042
619	0.044
620	0.045
620	0.046
621	0.046
621	0.047
622	0.047
622	0.048
622	0.048
623	0.048
623	0.049
624	0.049
624	0.048
625	0.048
625	0.048
626	0.048
626	0.048
626	0.049
627	0.049
627	0.05
628	0.051
628	0.051
629	0.052
629	0.052
630	0.052
630	0.052
630	0.053
631	0.054
631	0.055
632	0.055
632	0.056
633	0.057
633	0.058
634	0.06
634	0.061
634	0.063
635	0.064
635	0.064
636	0.065
636	0.066
637	0.066
637	0.067
638	0.068
638	0.068
638	0.068
639	0.069
639	0.069
640	0.07
640	0.071
641	0.071
641	0.072
642	0.074
642	0.075
642	0.077
643	0.078
643	0.079
644	0.081
644	0.083
645	0.084
645	0.086
646	0.088
646	0.089
646	0.091
647	0.092
647	0.094
648	0.094
648	0.096
649	0.097
649	0.099
650	0.1
650	0.102
650	0.104
651	0.105
651	0.107
652	0.109
652	0.111
653	0.114
653	0.122
653	0.132
654	0.108
654	0.089
655	0.09
655	0.091
656	0.093
656	0.094
657	0.095
657	0.097
657	0.097
658	0.095
658	0.087
659	0.109
659	0.138
660	0.146
660	0.148
661	0.149
661	0.151
661	0.153
662	0.156
662	0.158
663	0.16
663	0.162
664	0.164
664	0.165
665	0.167
665	0.169
665	0.171
666	0.173
666	0.175
667	0.177
667	0.179
668	0.181
668	0.183
669	0.185
669	0.188
669	0.191
670	0.193
670	0.195
671	0.196
671	0.197
672	0.199
672	0.2
672	0.201
673	0.202
673	0.203
674	0.204
674	0.204
675	0.205
675	0.207
676	0.209
676	0.211
676	0.211
677	0.213
677	0.214
678	0.214
678	0.215
679	0.216
679	0.216
680	0.217
680	0.218
680	0.217
681	0.218
681	0.219
682	0.219
682	0.22
683	0.222
683	0.223
684	0.224
684	0.224
684	0.224
685	0.225
685	0.226
686	0.226
686	0.226
687	0.226
687	0.226
687	0.226
688	0.226
688	0.226
689	0.227
689	0.228
690	0.228
690	0.227
691	0.227
691	0.226
691	0.226
692	0.224
692	0.224
693	0.223
693	0.223
694	0.221
694	0.22
695	0.221
695	0.222
695	0.222
696	0.221
696	0.221
697	0.221
697	0.221
698	0.22
698	0.219
698	0.218
699	0.218
699	0.216
700	0.214
700	0.213
701	0.212
701	0.21
702	0.209
702	0.208
702	0.207
703	0.205
703	0.204
704	0.203
704	0.202
705	0.201
705	0.2
705	0.198
706	0.197
706	0.196
707	0.194
707	0.192
708	0.191
708	0.189
709	0.187
709	0.185
709	0.182
710	0.179
710	0.178
711	0.176
711	0.174
712	0.173
712	0.172
713	0.17
713	0.169
713	0.168
714	0.166
714	0.165
715	0.164
715	0.162
716	0.161
716	0.16
716	0.158
717	0.157
717	0.155
718	0.153
718	0.151
719	0.15
719	0.149
720	0.147
720	0.145
720	0.143
721	0.14
721	0.138
722	0.136
722	0.134
723	0.133
723	0.132
723	0.13
724	0.128
724	0.126
725	0.125
725	0.124
726	0.123
726	0.122
727	0.12
727	0.119
727	0.118
728	0.117
728	0.116
729	0.116
729	0.115
730	0.114
730	0.113
730	0.112
731	0.111
731	0.11
732	0.109
732	0.107
733	0.106
733	0.104
734	0.102
734	0.1
734	0.099
735	0.098
735	0.096
736	0.095
736	0.093
737	0.092
737	0.092
737	0.09
738	0.088
738	0.086
739	0.084
739	0.083
740	0.081
740	0.08
741	0.079
741	0.077
741	0.074
742	0.072
742	0.07
743	0.069
743	0.067
744	0.065
744	0.064
744	0.062
745	0.06
745	0.058
746	0.057
746	0.056
747	0.055
747	0.054
748	0.054
748	0.053
748	0.052
749	0.051
749	0.051
750	0.051
750	0.05
751	0.05
751	0.05
751	0.05
752	0.049
752	0.049
753	0.049
753	0.049
754	0.048
754	0.048
754	0.048
755	0.048
755	0.047
756	0.046
756	0.044
757	0.043
757	0.043
758	0.042
758	0.04
758	0.039
759	0.038
759	0.036
760	0.034
760	0.033
761	0.032
761	0.032
761	0.031
762	0.03
762	0.029
763	0.028
763	0.026
764	0.023
764	0.021
764	0.019
765	0.017
765	0.015
766	0.014
766	0.013
767	0.012
767	0.009
768	0.007
768	0.006
768	0.005
769	0.005
769	0.004
770	0.003
770	0.002
771	-0
771	-0.003
771	-0.005
772	-0.006
772	-0.008
773	-0.01
773	-0.012
774	-0.014
774	-0.017
775	-0.019
775	-0.022
775	-0.025
776	-0.028
776	-0.03
777	-0.033
777	-0.036
778	-0.039
778	-0.042
778	-0.045
779	-0.046
779	-0.048
780	-0.051
780	-0.055
781	-0.058
781	-0.063
781	-0.068
782	-0.074
782	-0.08
783	-0.086
783	-0.092
784	-0.099
784	-0.104
784	-0.11
785	-0.115
785	-0.12
786	-0.123
786	-0.122
787	-0.119
787	-0.117
788	-0.117
788	-0.117
788	-0.118
789	-0.119
789	-0.119
790	-0.115
790	-0.113
791	-0.114
791	-0.115
791	-0.117
792	-0.112
792	-0.102
793	-0.097
793	-0.093
794	-0.092
794	-0.094
794	-0.099
795	-0.101
795	-0.101
796	-0.102
796	-0.104
797	-0.112
797	-0.122
797	-0.128
798	-0.133
798	-0.136
799	-0.137
799	-0.136
800	-0.136
800	-0.138
801	-0.142
801	-0.143
801	-0.143
802	-0.145
802	-0.147
803	-0.147
803	-0.148
804	-0.146
804	-0.141
804	-0.135
805	-0.131
805	-0.128
806	-0.126
806	-0.125
807	-0.124
807	-0.123
807	-0.123
808	-0.123
808	-0.124
809	-0.128
809	-0.134
810	-0.137
810	-0.14
810	-0.143
811	-0.145
811	-0.145
812	-0.141
812	-0.137
813	-0.136
813	-0.137
813	-0.137
814	-0.137
814	-0.137
815	-0.134
815	-0.131
816	-0.13
816	-0.13
817	-0.135
817	-0.137
817	-0.135
818	-0.131
818	-0.126
819	-0.121
819	-0.116
820	-0.113
820	-0.11
820	-0.105
821	-0.098
821	-0.091
822	-0.084
822	-0.079
823	-0.073
823	-0.07
823	-0.066
824	-0.061
824	-0.056
825	-0.051
825	-0.047
826	-0.043
826	-0.04
826	-0.037
827	-0.034
827	-0.032
828	-0.029
828	-0.027
829	-0.025
829	-0.023
829	-0.022
830	-0.021
830	-0.019
831	-0.017
831	-0.016
832	-0.016
832	-0.015
832	-0.014
833	-0.013
833	-0.013
834	-0.013
834	-0.012
835	-0.012
835	-0.013
835	-0.012
836	-0.012
836	-0.011
837	-0.011
837	-0.01
838	-0.01
838	-0.01
839	-0.009
839	-0.009
839	-0.008
840	-0.007
840	-0.007
841	-0.006
841	-0.005
842	-0.004
842	-0.003
842	-0.002
843	-0.001
843	-0
844	0.001
844	0.001
845	0.001
845	0.002
845	0.002
846	0.001
846	0.001
847	0.001
847	-0
848	-0.001
848	-0.002
848	-0.002
849	-0.003
849	-0.003
850	-0.004
850	-0.005
851	-0.005
851	-0.005
851	-0.005
852	-0.005
852	-0.005
853	-0.005
853	-0.005
854	-0.004
854	-0.004
854	-0.004
855	-0.003
855	-0.003
856	-0.003
856	-0.002
857	-0.002
857	-0.002
857	-0.002
858	-0.002
858	-0.002
859	-0.001
859	-0.001
860	-0.001
860	-0
860	0
861	0
861	0.001
862	0.001
862	0.001
863	0.001
863	0.001
863	0.001
864	0.001
864	0.001
865	0.001
865	0
866	-0.001
866	-0.001
866	-0.001
867	-0.002
867	-0.001
868	-0.001
868	-0.001
869	-0
869	0
869	0
870	0.001
870	0.001
871	0.001
871	0.001
872	0.001
872	0.001
872	0.001
873	0.001
873	0.001
874	0.001
874	0.001
875	0.001
875	0.001
875	0.001
876	0.001
876	0.001
877	0
877	-0
878	-0.001
878	-0.002
878	-0.003
879	-0.004
879	-0.005
880	-0.006
880	-0.006
881	-0.006
881	-0.006
881	-0.005
882	-0.005
882	-0.004
883	-0.004
883	-0.003
884	-0.002
884	-0.002
884	-0.001
885	-0.001
885	-0
886	0.001
886	0.001
887	0.001
887	0.001
887	0.002
888	0.002
888	0.003
889	0.004
889	0.004
890	0.005
890	0.006
890	0.006
891	0.006
891	0.006
892	0.006
892	0.006
893	0.005
893	0.005
893	0.005
894	0.004
894	0.003
895	0.003
895	0.002
895	0.001
896	-0
896	-0.001
897	-0.002
897	-0.002
898	-0.002
898	-0.002
898	-0.002
899	-0.002
899	-0.002
900	-0.002
900	-0.002
901	-0.002
901	-0.001
901	-0.001
902	-0.001
902	-0.002
903	-0.002
903	-0.002
904	-0.003
904	-0.003
904	-0.004
905	-0.004
905	-0.005
906	-0.005
906	-0.005
907	-0.005
907	-0.006
907	-0.006
908	-0.006
908	-0.006
909	-0.006
909	-0.006
910	-0.006
910	-0.006
910	-0.006
911	-0.006
911	-0.006
912	-0.005
912	-0.005
913	-0.005
913	-0.005
913	-0.006
914	-0.006
914	-0.006
915	-0.007
915	-0.008
916	-0.009
916	-0.01
916	-0.01
917	-0.011
917	-0.011
918	-0.01
918	-0.01
918	-0.009
919	-0.009
919	-0.007
920	-0.006
920	-0.005
921	-0.004
921	-0.003
921	-0.002
922	-0.001
922	0
923	0.001
923	0.001
924	0.002
924	0.002
924	0.003
925	0.003
925	0.003
926	0.003
926	0.003
927	0.002
927	0.001
927	0.001
928	0
928	-0
929	-0.001
929	-0.001
930	-0.002
930	-0.002
930	-0.003
931	-0.004
931	-0.005
932	-0.006
932	-0.007
933	-0.008
933	-0.009
933	-0.01
934	-0.011
934	-0.012
935	-0.013
935	-0.014
935	-0.015
936	-0.015
936	-0.016
937	-0.016
937	-0.016
938	-0.016
938	-0.016
938	-0.015
939	-0.014
939	-0.014
940	-0.013
940	-0.012
941	-0.011
941	-0.01
941	-0.01
942	-0.009
942	-0.008
943	-0.008
943	-0.008
944	-0.007
944	-0.007
944	-0.007
945	-0.007
945	-0.006
946	-0.006
946	-0.005
946	-0.005
947	-0.005
947	-0.004
948	-0.004
948	-0.004
949	-0.003
949	-0.003
949	-0.002
950	-0.002
950	-0.001
951	-0.001
951	-0.001
952	-0.001
952	-0.001
952	-0.001
953	-0.001
953	-0.002
954	-0.003
954	-0.003
955	-0.004
955	-0.004
955	-0.004
956	-0.004
956	-0.004
957	-0.004
957	-0.004
957	-0.005
958	-0.005
958	-0.005
959	-0.005
959	-0.006
960	-0.006
960	-0.007
960	-0.008
961	-0.009
961	-0.01
962	-0.01
962	-0.011
963	-0.011
963	-0.011
963	-0.011
964	-0.01
964	-0.01
965	-0.009
965	-0.008
966	-0.007
966	-0.005
966	-0.004
967	-0.003
967	-0.003
968	-0.003
968	-0.003
968	-0.002
969	-0.003
969	-0.003
970	-0.003
970	-0.003
971	-0.004
971	-0.004
971	-0.004
972	-0.005
972	-0.005
973	-0.005
973	-0.006
974	-0.006
974	-0.007
974	-0.007
975	-0.008
975	-0.009
976	-0.009
976	-0.01
976	-0.011
977	-0.012
977	-0.013
978	-0.014
978	-0.015
979	-0.015
979	-0.016
979	-0.016
980	-0.016
980	-0.016
981	-0.016
981	-0.015
982	-0.014
982	-0.013
982	-0.012
983	-0.011
983	-0.01
984	-0.009
984	-0.008
984	-0.008
985	-0.007
985	-0.007
986	-0.007
986	-0.007
987	-0.008
987	-0.008
987	-0.008
988	-0.009
988	-0.009
989	-0.01
989	-0.011
990	-0.011
990	-0.012
990	-0.012
991	-0.012
991	-0.012
992	-0.012
992	-0.013
992	-0.013
993	-0.014
993	-0.014
994	-0.015
994	-0.017
995	-0.017
995	-0.018
995	-0.019
996	-0.02
996	-0.022
997	-0.022
997	-0.023
997	-0.023
998	-0.022
998	-0.021
999	-0.02
999	-0.019
1000	-0.018
1000	-0.017
1000	-0.016
1001	-0.015
1001	-0.014
1002	-0.013
1002	-0.013
1003	-0.012
1003	-0.012
1003	-0.011
1004	-0.011
1004	-0.011
1005	-0.011
1005	-0.01
1005	-0.01
1006	-0.01
1006	-0.009
1007	-0.009
1007	-0.009
1008	-0.009
1008	-0.009
1008	-0.008
1009	-0.008
1009	-0.008
1010	-0.007
1010	-0.007
1010	-0.007
1011	-0.006
1011	-0.006
1012	-0.006
1012	-0.007
1013	-0.007
1013	-0.007
1013	-0.008
1014	-0.009
1014	-0.01
1015	-0.011
1015	-0.012
1016	-0.013
1016	-0.015
1016	-0.016
1017	-0.017
1017	-0.018
1018	-0.019
1018	-0.019
1018	-0.02
1019	-0.02
1019	-0.02
1020	-0.021
1020	-0.021
1021	-0.022
1021	-0.022
1021	-0.022
1022	-0.023
1022	-0.023
1023	-0.023
1023	-0.024
1023	-0.025
1024	-0.025
1024	-0.026
1025	-0.027
1025	-0.027
1026	-0.027
1026	-0.028
1026	-0.028
1027	-0.028
1027	-0.028
1028	-0.028
1028	-0.027
1028	-0.027
1029	-0.026
1029	-0.026
1030	-0.025
1030	-0.024
1031	-0.024
1031	-0.023
1031	-0.022
1032	-0.021
1032	-0.02
1033	-0.02
1033	-0.019
1033	-0.02
1034	-0.02
1034	-0.02
1035	-0.021
1035	-0.021
1036	-0.021
1036	-0.022
1036	-0.022
1037	-0.023
1037	-0.023
1038	-0.023
1038	-0.023
1039	-0.023
1039	-0.023
1039	-0.023
1040	-0.023
1040	-0.024
1041	-0.024
1041	-0.025
1041	-0.026
1042	-0.027
1042	-0.028
1043	-0.029
1043	-0.03
1044	-0.031
1044	-0.032
1044	-0.033
1045	-0.034
1045	-0.034
1046	-0.035
1046	-0.035
1046	-0.035
1047	-0.034
1047	-0.034
1048	-0.034
1048	-0.033
1049	-0.034
1049	-0.034
1049	-0.035
1050	-0.035
1050	-0.035
1051	-0.035
1051	-0.035
1051	-0.035
1052	-0.035
1052	-0.034
1053	-0.034
1053	-0.033
1053	-0.032
1054	-0.031
1054	-0.03
1055	-0.029
1055	-0.028
1056	-0.028
1056	-0.028
1056	-0.028
1057	-0.028
1057	-0.028
1058	-0.029
1058	-0.029
1058	-0.03
1059	-0.03
1059	-0.031
1060	-0.031
1060	-0.032
1061	-0.032
1061	-0.031
1061	-0.031
1062	-0.031
1062	-0.032
1063	-0.031
1063	-0.032
1063	-0.032
1064	-0.032
1064	-0.032
1065	-0.032
1065	-0.033
1066	-0.033
1066	-0.033
1066	-0.034
1067	-0.034
1067	-0.034
1068	-0.034
1068	-0.034
1068	-0.034
1069	-0.035
1069	-0.035
1070	-0.035
1070	-0.036
1071	-0.035
1071	-0.035
1071	-0.035
1072	-0.035
1072	-0.034
1073	-0.034
1073	-0.033
1073	-0.033
1074	-0.032
1074	-0.031
1075	-0.031
1075	-0.031
1076	-0.031
1076	-0.031
1076	-0.031
1077	-0.032
1077	-0.032
1078	-0.032
1078	-0.031
1078	-0.031
1079	-0.031
1079	-0.031
1080	-0.03
1080	-0.03
1080	-0.03
1081	-0.029
1081	-0.028
1082	-0.028
1082	-0.028
1083	-0.028
1083	-0.028
1083	-0.027
1084	-0.026
1084	-0.026
1085	-0.025
1085	-0.024
1085	-0.024
1086	-0.023
1086	-0.023
1087	-0.022
1087	-0.021
1088	-0.021
1088	-0.021
1088	-0.02
1089	-0.02
1089	-0.02
1090	-0.02
1090	-0.019
1090	-0.019
1091	-0.018
1091	-0.016
1092	-0.016
1092	-0.014
1092	-0.012
1093	-0.011
1093	-0.009
1094	-0.007
1094	-0.005
1095	-0.004
1095	-0.002
1095	0
1096	0.002
1096	0.004
1097	0.007
1097	0.009
1097	0.013
1098	0.014
1098	0.018
1099	0.021
1099	0.025
1100	0.027
1100	0.03
1100	0.033
1101	0.038
1101	0.041
1102	0.045
1102	0.05
1102	0.056
1103	0.061
1103	0.068
1104	0.076
1104	0.085
1104	0.097
1105	0.107
1105	0.116
1106	0.125
1106	0.136
1107	0.146
1107	0.163
1107	0.185
1108	0.257
1108	0.366
1109	0.557
1109	1.114
1109	-0
1110	-0
1110	-0
1111	-0
1111	-0
