Data from 15c-100ul-ns-20ul-nr-full-exp-7ul-bp_Absorbance__419__03856.txt Node

Date: Mon Jan 15 13:55:29 CET 2024
User: Marek
Spectrometer: MAYP115816
Trigger mode: 0
Integration Time (sec): 2.000000E-1
Scans to average: 10
Electric dark correction enabled: true
Nonlinearity correction enabled: true
Boxcar width: 5
XAxis mode: Wavelengths
Number of Pixels in Spectrum: 2068
>>>>>Begin Spectral Data<<<<<
199	-1.561
199	-1.439
200	-1.301
200	-1.196
201	-1.127
201	-1.08
202	-1.016
202	-0.967
203	-0.924
203	-0.891
204	-0.864
204	-0.843
205	-0.823
205	-0.815
205	-0.814
206	-0.812
206	-0.812
207	-0.808
207	-0.805
208	-0.804
208	-0.799
209	-0.799
209	-0.799
210	-0.799
210	-0.797
211	-0.795
211	-0.794
212	-0.792
212	-0.792
213	-0.791
213	-0.79
213	-0.791
214	-0.79
214	-0.791
215	-0.791
215	-0.792
216	-0.792
216	-0.791
217	-0.79
217	-0.79
218	-0.789
218	-0.785
219	-0.783
219	-0.782
220	-0.778
220	-0.775
221	-0.771
221	-0.767
221	-0.762
222	-0.758
222	-0.753
223	-0.746
223	-0.743
224	-0.739
224	-0.731
225	-0.722
225	-0.711
226	-0.702
226	-0.691
227	-0.677
227	-0.663
228	-0.645
228	-0.626
229	-0.603
229	-0.575
229	-0.548
230	-0.518
230	-0.486
231	-0.451
231	-0.414
232	-0.378
232	-0.339
233	-0.3
233	-0.26
234	-0.222
234	-0.185
235	-0.148
235	-0.113
236	-0.081
236	-0.049
236	-0.019
237	0.008
237	0.034
238	0.057
238	0.078
239	0.097
239	0.114
240	0.129
240	0.142
241	0.154
241	0.165
242	0.174
242	0.183
243	0.191
243	0.197
243	0.203
244	0.209
244	0.214
245	0.218
245	0.222
246	0.226
246	0.23
247	0.233
247	0.236
248	0.239
248	0.241
249	0.244
249	0.245
250	0.247
250	0.25
250	0.252
251	0.253
251	0.255
252	0.257
252	0.258
253	0.26
253	0.261
254	0.262
254	0.263
255	0.264
255	0.265
256	0.266
256	0.266
257	0.267
257	0.267
258	0.268
258	0.268
258	0.268
259	0.268
259	0.268
260	0.268
260	0.267
261	0.267
261	0.266
262	0.266
262	0.265
263	0.264
263	0.264
264	0.263
264	0.262
265	0.261
265	0.26
265	0.259
266	0.258
266	0.257
267	0.255
267	0.254
268	0.253
268	0.251
269	0.25
269	0.248
270	0.246
270	0.244
271	0.242
271	0.24
272	0.238
272	0.237
272	0.235
273	0.233
273	0.232
274	0.23
274	0.228
275	0.226
275	0.225
276	0.223
276	0.221
277	0.219
277	0.217
278	0.215
278	0.214
278	0.211
279	0.208
279	0.206
280	0.204
280	0.201
281	0.199
281	0.197
282	0.195
282	0.193
283	0.191
283	0.189
284	0.187
284	0.186
285	0.185
285	0.183
285	0.182
286	0.18
286	0.179
287	0.177
287	0.176
288	0.175
288	0.174
289	0.172
289	0.171
290	0.17
290	0.169
291	0.167
291	0.166
292	0.165
292	0.164
292	0.163
293	0.162
293	0.161
294	0.16
294	0.159
295	0.158
295	0.157
296	0.156
296	0.155
297	0.154
297	0.154
298	0.153
298	0.152
298	0.151
299	0.151
299	0.15
300	0.15
300	0.149
301	0.148
301	0.148
302	0.147
302	0.147
303	0.146
303	0.146
304	0.145
304	0.145
305	0.144
305	0.143
305	0.143
306	0.142
306	0.142
307	0.141
307	0.141
308	0.14
308	0.14
309	0.139
309	0.139
310	0.138
310	0.138
311	0.137
311	0.136
311	0.136
312	0.135
312	0.135
313	0.134
313	0.134
314	0.133
314	0.133
315	0.133
315	0.132
316	0.132
316	0.131
317	0.131
317	0.13
318	0.129
318	0.129
318	0.128
319	0.128
319	0.127
320	0.127
320	0.126
321	0.126
321	0.125
322	0.125
322	0.124
323	0.124
323	0.123
324	0.123
324	0.122
324	0.122
325	0.121
325	0.121
326	0.12
326	0.12
327	0.119
327	0.119
328	0.118
328	0.118
329	0.117
329	0.117
330	0.116
330	0.116
330	0.115
331	0.115
331	0.114
332	0.114
332	0.114
333	0.113
333	0.113
334	0.112
334	0.112
335	0.111
335	0.111
336	0.11
336	0.11
336	0.109
337	0.109
337	0.108
338	0.108
338	0.107
339	0.107
339	0.107
340	0.106
340	0.106
341	0.105
341	0.105
342	0.104
342	0.104
342	0.104
343	0.104
343	0.103
344	0.103
344	0.103
345	0.102
345	0.102
346	0.102
346	0.101
347	0.101
347	0.101
348	0.1
348	0.1
348	0.1
349	0.1
349	0.099
350	0.099
350	0.099
351	0.099
351	0.098
352	0.098
352	0.098
353	0.097
353	0.097
354	0.097
354	0.096
354	0.096
355	0.096
355	0.095
356	0.095
356	0.095
357	0.095
357	0.095
358	0.095
358	0.095
359	0.095
359	0.095
360	0.095
360	0.095
360	0.095
361	0.095
361	0.094
362	0.094
362	0.094
363	0.094
363	0.094
364	0.094
364	0.094
365	0.094
365	0.094
366	0.094
366	0.093
366	0.093
367	0.093
367	0.093
368	0.093
368	0.093
369	0.092
369	0.092
370	0.092
370	0.091
371	0.091
371	0.091
372	0.091
372	0.091
372	0.091
373	0.091
373	0.091
374	0.091
374	0.091
375	0.091
375	0.091
376	0.091
376	0.091
377	0.091
377	0.091
378	0.091
378	0.09
378	0.09
379	0.09
379	0.09
380	0.09
380	0.09
381	0.09
381	0.09
382	0.09
382	0.09
383	0.089
383	0.089
383	0.089
384	0.089
384	0.088
385	0.088
385	0.088
386	0.088
386	0.088
387	0.088
387	0.088
388	0.088
388	0.088
389	0.088
389	0.087
389	0.088
390	0.088
390	0.088
391	0.088
391	0.088
392	0.088
392	0.088
393	0.088
393	0.088
394	0.087
394	0.087
394	0.087
395	0.087
395	0.086
396	0.086
396	0.086
397	0.086
397	0.086
398	0.086
398	0.086
399	0.086
399	0.086
400	0.086
400	0.085
400	0.085
401	0.085
401	0.084
402	0.084
402	0.084
403	0.084
403	0.084
404	0.084
404	0.083
405	0.083
405	0.083
405	0.083
406	0.083
406	0.084
407	0.083
407	0.083
408	0.083
408	0.083
409	0.083
409	0.082
410	0.082
410	0.082
411	0.082
411	0.082
411	0.082
412	0.081
412	0.081
413	0.081
413	0.081
414	0.081
414	0.08
415	0.08
415	0.08
416	0.079
416	0.079
416	0.079
417	0.079
417	0.078
418	0.078
418	0.079
419	0.079
419	0.079
420	0.079
420	0.08
421	0.08
421	0.08
421	0.08
422	0.08
422	0.081
423	0.08
423	0.08
424	0.079
424	0.079
425	0.079
425	0.079
426	0.079
426	0.078
427	0.078
427	0.078
427	0.079
428	0.079
428	0.079
429	0.079
429	0.079
430	0.079
430	0.079
431	0.079
431	0.079
432	0.078
432	0.078
432	0.077
433	0.077
433	0.076
434	0.076
434	0.076
435	0.076
435	0.076
436	0.076
436	0.076
437	0.076
437	0.076
437	0.076
438	0.076
438	0.076
439	0.076
439	0.075
440	0.075
440	0.075
441	0.075
441	0.075
442	0.075
442	0.075
442	0.075
443	0.075
443	0.075
444	0.075
444	0.075
445	0.075
445	0.075
446	0.075
446	0.075
447	0.075
447	0.075
447	0.075
448	0.075
448	0.074
449	0.074
449	0.074
450	0.074
450	0.074
451	0.073
451	0.073
452	0.073
452	0.073
452	0.073
453	0.073
453	0.073
454	0.073
454	0.073
455	0.073
455	0.073
456	0.073
456	0.073
457	0.073
457	0.073
458	0.073
458	0.074
458	0.074
459	0.074
459	0.074
460	0.073
460	0.073
461	0.073
461	0.073
462	0.072
462	0.073
463	0.073
463	0.073
463	0.073
464	0.073
464	0.073
465	0.073
465	0.073
466	0.073
466	0.073
467	0.073
467	0.073
467	0.073
468	0.072
468	0.071
469	0.071
469	0.071
470	0.071
470	0.071
471	0.071
471	0.071
472	0.072
472	0.072
472	0.072
473	0.073
473	0.073
474	0.074
474	0.074
475	0.074
475	0.075
476	0.075
476	0.075
477	0.075
477	0.075
477	0.075
478	0.075
478	0.076
479	0.076
479	0.076
480	0.076
480	0.076
481	0.077
481	0.078
482	0.078
482	0.079
482	0.08
483	0.081
483	0.083
484	0.083
484	0.083
485	0.084
485	0.084
486	0.085
486	0.085
487	0.086
487	0.086
487	0.086
488	0.086
488	0.085
489	0.085
489	0.086
490	0.086
490	0.086
491	0.087
491	0.088
492	0.088
492	0.088
492	0.089
493	0.09
493	0.091
494	0.093
494	0.094
495	0.095
495	0.096
496	0.097
496	0.098
496	0.099
497	0.1
497	0.101
498	0.102
498	0.102
499	0.103
499	0.104
500	0.104
500	0.105
501	0.106
501	0.107
501	0.108
502	0.109
502	0.11
503	0.111
503	0.111
504	0.112
504	0.113
505	0.113
505	0.114
506	0.115
506	0.116
506	0.117
507	0.117
507	0.118
508	0.119
508	0.12
509	0.121
509	0.121
510	0.122
510	0.123
511	0.124
511	0.124
511	0.125
512	0.126
512	0.126
513	0.126
513	0.126
514	0.127
514	0.127
515	0.128
515	0.127
515	0.127
516	0.128
516	0.128
517	0.128
517	0.129
518	0.129
518	0.129
519	0.129
519	0.129
520	0.129
520	0.129
520	0.129
521	0.128
521	0.127
522	0.126
522	0.125
523	0.125
523	0.125
524	0.125
524	0.125
524	0.125
525	0.126
525	0.126
526	0.127
526	0.128
527	0.129
527	0.129
528	0.13
528	0.13
529	0.13
529	0.131
529	0.13
530	0.131
530	0.13
531	0.13
531	0.13
532	0.129
532	0.129
533	0.128
533	0.127
533	0.127
534	0.126
534	0.125
535	0.125
535	0.124
536	0.124
536	0.123
537	0.123
537	0.122
538	0.122
538	0.121
538	0.12
539	0.119
539	0.118
540	0.117
540	0.116
541	0.114
541	0.113
542	0.112
542	0.111
542	0.11
543	0.109
543	0.108
544	0.107
544	0.107
545	0.106
545	0.106
546	0.106
546	0.104
547	0.103
547	0.101
547	0.1
548	0.099
548	0.098
549	0.097
549	0.096
550	0.095
550	0.093
551	0.091
551	0.09
551	0.09
552	0.089
552	0.088
553	0.087
553	0.087
554	0.086
554	0.085
555	0.083
555	0.082
556	0.081
556	0.08
556	0.078
557	0.077
557	0.076
558	0.075
558	0.074
559	0.073
559	0.072
560	0.072
560	0.071
560	0.07
561	0.07
561	0.07
562	0.069
562	0.068
563	0.067
563	0.065
564	0.064
564	0.063
564	0.061
565	0.061
565	0.06
566	0.059
566	0.058
567	0.057
567	0.057
568	0.056
568	0.056
568	0.056
569	0.057
569	0.057
570	0.055
570	0.054
571	0.054
571	0.054
572	0.053
572	0.053
573	0.052
573	0.051
573	0.049
574	0.049
574	0.049
575	0.049
575	0.05
576	0.05
576	0.048
577	0.047
577	0.046
577	0.046
578	0.046
578	0.046
579	0.048
579	0.048
580	0.046
580	0.043
581	0.041
581	0.04
581	0.041
582	0.041
582	0.042
583	0.042
583	0.041
584	0.038
584	0.035
585	0.035
585	0.036
585	0.037
586	0.037
586	0.036
587	0.034
587	0.032
588	0.031
588	0.03
589	0.031
589	0.031
590	0.031
590	0.031
590	0.033
591	0.034
591	0.033
592	0.032
592	0.031
593	0.032
593	0.032
594	0.031
594	0.03
594	0.029
595	0.029
595	0.028
596	0.028
596	0.03
597	0.033
597	0.033
598	0.034
598	0.034
598	0.035
599	0.035
599	0.034
600	0.033
600	0.032
601	0.031
601	0.03
602	0.028
602	0.028
602	0.027
603	0.027
603	0.028
604	0.028
604	0.029
605	0.03
605	0.031
606	0.031
606	0.03
606	0.029
607	0.029
607	0.029
608	0.028
608	0.027
609	0.027
609	0.027
610	0.027
610	0.026
610	0.027
611	0.028
611	0.029
612	0.031
612	0.032
613	0.033
613	0.034
614	0.034
614	0.033
614	0.033
615	0.033
615	0.033
616	0.033
616	0.032
617	0.032
617	0.031
618	0.031
618	0.031
618	0.031
619	0.032
619	0.034
620	0.036
620	0.037
621	0.037
621	0.038
622	0.038
622	0.039
622	0.038
623	0.038
623	0.039
624	0.04
624	0.039
625	0.039
625	0.039
626	0.039
626	0.039
626	0.04
627	0.041
627	0.041
628	0.042
628	0.043
629	0.043
629	0.044
630	0.044
630	0.044
630	0.045
631	0.047
631	0.047
632	0.048
632	0.049
633	0.05
633	0.051
634	0.053
634	0.055
634	0.056
635	0.057
635	0.058
636	0.059
636	0.06
637	0.06
637	0.061
638	0.062
638	0.062
638	0.063
639	0.063
639	0.064
640	0.065
640	0.066
641	0.067
641	0.068
642	0.07
642	0.072
642	0.073
643	0.075
643	0.076
644	0.078
644	0.08
645	0.081
645	0.083
646	0.085
646	0.087
646	0.089
647	0.09
647	0.091
648	0.092
648	0.094
649	0.095
649	0.097
650	0.099
650	0.1
650	0.102
651	0.103
651	0.105
652	0.107
652	0.11
653	0.113
653	0.121
653	0.131
654	0.107
654	0.089
655	0.089
655	0.091
656	0.092
656	0.094
657	0.095
657	0.097
657	0.097
658	0.095
658	0.088
659	0.11
659	0.14
660	0.148
660	0.15
661	0.151
661	0.153
661	0.156
662	0.158
662	0.161
663	0.163
663	0.165
664	0.167
664	0.169
665	0.171
665	0.173
665	0.175
666	0.177
666	0.179
667	0.181
667	0.183
668	0.185
668	0.188
669	0.19
669	0.193
669	0.196
670	0.198
670	0.199
671	0.201
671	0.202
672	0.203
672	0.205
672	0.206
673	0.207
673	0.209
674	0.21
674	0.21
675	0.211
675	0.213
676	0.216
676	0.217
676	0.218
677	0.22
677	0.221
678	0.221
678	0.222
679	0.222
679	0.223
680	0.224
680	0.224
680	0.224
681	0.225
681	0.226
682	0.226
682	0.228
683	0.229
683	0.23
684	0.231
684	0.231
684	0.231
685	0.232
685	0.232
686	0.233
686	0.233
687	0.233
687	0.233
687	0.233
688	0.232
688	0.232
689	0.233
689	0.234
690	0.234
690	0.233
691	0.232
691	0.232
691	0.231
692	0.23
692	0.229
693	0.229
693	0.228
694	0.226
694	0.225
695	0.226
695	0.227
695	0.226
696	0.226
696	0.225
697	0.225
697	0.224
698	0.224
698	0.222
698	0.222
699	0.221
699	0.219
700	0.217
700	0.216
701	0.215
701	0.213
702	0.212
702	0.21
702	0.209
703	0.208
703	0.206
704	0.205
704	0.204
705	0.203
705	0.202
705	0.2
706	0.198
706	0.197
707	0.195
707	0.193
708	0.191
708	0.189
709	0.187
709	0.184
709	0.181
710	0.179
710	0.177
711	0.175
711	0.173
712	0.172
712	0.17
713	0.169
713	0.168
713	0.166
714	0.164
714	0.163
715	0.162
715	0.16
716	0.159
716	0.158
716	0.156
717	0.154
717	0.152
718	0.15
718	0.148
719	0.147
719	0.146
720	0.143
720	0.141
720	0.139
721	0.136
721	0.134
722	0.132
722	0.129
723	0.128
723	0.127
723	0.125
724	0.123
724	0.121
725	0.12
725	0.118
726	0.117
726	0.116
727	0.115
727	0.114
727	0.112
728	0.111
728	0.11
729	0.109
729	0.108
730	0.107
730	0.106
730	0.105
731	0.103
731	0.102
732	0.101
732	0.1
733	0.098
733	0.096
734	0.094
734	0.092
734	0.091
735	0.089
735	0.088
736	0.086
736	0.084
737	0.083
737	0.083
737	0.081
738	0.079
738	0.076
739	0.075
739	0.074
740	0.072
740	0.071
741	0.07
741	0.068
741	0.065
742	0.063
742	0.061
743	0.06
743	0.058
744	0.056
744	0.055
744	0.053
745	0.051
745	0.049
746	0.047
746	0.046
747	0.045
747	0.045
748	0.044
748	0.044
748	0.043
749	0.042
749	0.042
750	0.041
750	0.041
751	0.04
751	0.04
751	0.04
752	0.039
752	0.038
753	0.038
753	0.038
754	0.037
754	0.037
754	0.037
755	0.036
755	0.036
756	0.035
756	0.033
757	0.032
757	0.031
758	0.03
758	0.029
758	0.028
759	0.027
759	0.025
760	0.023
760	0.022
761	0.021
761	0.021
761	0.02
762	0.019
762	0.018
763	0.017
763	0.015
764	0.013
764	0.011
764	0.009
765	0.007
765	0.005
766	0.004
766	0.003
767	0.002
767	-0.001
768	-0.003
768	-0.004
768	-0.005
769	-0.005
769	-0.006
770	-0.007
770	-0.008
771	-0.01
771	-0.012
771	-0.014
772	-0.015
772	-0.017
773	-0.018
773	-0.02
774	-0.022
774	-0.024
775	-0.026
775	-0.028
775	-0.031
776	-0.033
776	-0.035
777	-0.038
777	-0.04
778	-0.043
778	-0.045
778	-0.047
779	-0.048
779	-0.05
780	-0.052
780	-0.055
781	-0.058
781	-0.061
781	-0.065
782	-0.07
782	-0.075
783	-0.08
783	-0.086
784	-0.092
784	-0.098
784	-0.104
785	-0.11
785	-0.116
786	-0.119
786	-0.119
787	-0.117
787	-0.115
788	-0.117
788	-0.118
788	-0.119
789	-0.12
789	-0.119
790	-0.116
790	-0.114
791	-0.114
791	-0.115
791	-0.118
792	-0.113
792	-0.103
793	-0.097
793	-0.094
794	-0.093
794	-0.095
794	-0.099
795	-0.102
795	-0.102
796	-0.102
796	-0.105
797	-0.113
797	-0.123
797	-0.129
798	-0.134
798	-0.137
799	-0.137
799	-0.137
800	-0.137
800	-0.139
801	-0.142
801	-0.143
801	-0.144
802	-0.146
802	-0.147
803	-0.148
803	-0.148
804	-0.147
804	-0.142
804	-0.135
805	-0.131
805	-0.129
806	-0.127
806	-0.125
807	-0.124
807	-0.124
807	-0.123
808	-0.123
808	-0.124
809	-0.129
809	-0.134
810	-0.138
810	-0.14
810	-0.143
811	-0.146
811	-0.146
812	-0.141
812	-0.138
813	-0.137
813	-0.137
813	-0.137
814	-0.138
814	-0.137
815	-0.135
815	-0.132
816	-0.13
816	-0.131
817	-0.135
817	-0.136
817	-0.135
818	-0.131
818	-0.126
819	-0.12
819	-0.116
820	-0.113
820	-0.109
820	-0.105
821	-0.098
821	-0.092
822	-0.086
822	-0.081
823	-0.077
823	-0.074
823	-0.071
824	-0.067
824	-0.063
825	-0.058
825	-0.054
826	-0.051
826	-0.049
826	-0.046
827	-0.043
827	-0.041
828	-0.039
828	-0.037
829	-0.035
829	-0.034
829	-0.033
830	-0.032
830	-0.03
831	-0.028
831	-0.027
832	-0.027
832	-0.026
832	-0.026
833	-0.025
833	-0.025
834	-0.024
834	-0.024
835	-0.024
835	-0.024
835	-0.024
836	-0.024
836	-0.023
837	-0.023
837	-0.022
838	-0.022
838	-0.022
839	-0.021
839	-0.021
839	-0.02
840	-0.02
840	-0.019
841	-0.018
841	-0.017
842	-0.016
842	-0.016
842	-0.015
843	-0.014
843	-0.013
844	-0.012
844	-0.012
845	-0.012
845	-0.011
845	-0.011
846	-0.012
846	-0.012
847	-0.013
847	-0.014
848	-0.014
848	-0.015
848	-0.016
849	-0.017
849	-0.017
850	-0.018
850	-0.019
851	-0.019
851	-0.019
851	-0.019
852	-0.019
852	-0.019
853	-0.019
853	-0.018
854	-0.018
854	-0.018
854	-0.017
855	-0.017
855	-0.017
856	-0.016
856	-0.016
857	-0.015
857	-0.015
857	-0.015
858	-0.015
858	-0.015
859	-0.015
859	-0.014
860	-0.014
860	-0.014
860	-0.013
861	-0.013
861	-0.013
862	-0.013
862	-0.013
863	-0.013
863	-0.013
863	-0.013
864	-0.013
864	-0.013
865	-0.013
865	-0.014
866	-0.015
866	-0.015
866	-0.015
867	-0.015
867	-0.015
868	-0.015
868	-0.014
869	-0.014
869	-0.013
869	-0.013
870	-0.013
870	-0.012
871	-0.012
871	-0.012
872	-0.012
872	-0.012
872	-0.012
873	-0.012
873	-0.012
874	-0.012
874	-0.012
875	-0.012
875	-0.012
875	-0.012
876	-0.012
876	-0.013
877	-0.013
877	-0.014
878	-0.015
878	-0.016
878	-0.016
879	-0.017
879	-0.018
880	-0.019
880	-0.019
881	-0.02
881	-0.019
881	-0.019
882	-0.018
882	-0.018
883	-0.017
883	-0.016
884	-0.016
884	-0.015
884	-0.015
885	-0.014
885	-0.013
886	-0.013
886	-0.013
887	-0.013
887	-0.012
887	-0.012
888	-0.012
888	-0.011
889	-0.01
889	-0.01
890	-0.009
890	-0.008
890	-0.008
891	-0.008
891	-0.007
892	-0.007
892	-0.008
893	-0.008
893	-0.008
893	-0.009
894	-0.009
894	-0.01
895	-0.011
895	-0.012
895	-0.013
896	-0.014
896	-0.014
897	-0.015
897	-0.015
898	-0.016
898	-0.016
898	-0.016
899	-0.016
899	-0.016
900	-0.016
900	-0.016
901	-0.015
901	-0.015
901	-0.015
902	-0.015
902	-0.015
903	-0.016
903	-0.016
904	-0.017
904	-0.017
904	-0.018
905	-0.018
905	-0.018
906	-0.019
906	-0.019
907	-0.019
907	-0.019
907	-0.019
908	-0.02
908	-0.02
909	-0.02
909	-0.02
910	-0.019
910	-0.019
910	-0.019
911	-0.019
911	-0.018
912	-0.018
912	-0.018
913	-0.018
913	-0.018
913	-0.018
914	-0.019
914	-0.019
915	-0.02
915	-0.021
916	-0.022
916	-0.023
916	-0.023
917	-0.024
917	-0.024
918	-0.024
918	-0.023
918	-0.022
919	-0.022
919	-0.021
920	-0.019
920	-0.018
921	-0.017
921	-0.016
921	-0.015
922	-0.014
922	-0.013
923	-0.012
923	-0.012
924	-0.011
924	-0.011
924	-0.01
925	-0.01
925	-0.01
926	-0.01
926	-0.01
927	-0.01
927	-0.011
927	-0.011
928	-0.011
928	-0.012
929	-0.012
929	-0.013
930	-0.013
930	-0.014
930	-0.015
931	-0.016
931	-0.017
932	-0.018
932	-0.019
933	-0.02
933	-0.021
933	-0.022
934	-0.023
934	-0.024
935	-0.025
935	-0.026
935	-0.027
936	-0.027
936	-0.028
937	-0.028
937	-0.028
938	-0.028
938	-0.027
938	-0.027
939	-0.026
939	-0.026
940	-0.025
940	-0.024
941	-0.023
941	-0.022
941	-0.021
942	-0.021
942	-0.02
943	-0.02
943	-0.02
944	-0.019
944	-0.019
944	-0.019
945	-0.018
945	-0.018
946	-0.017
946	-0.017
946	-0.017
947	-0.016
947	-0.016
948	-0.016
948	-0.015
949	-0.015
949	-0.014
949	-0.014
950	-0.013
950	-0.013
951	-0.013
951	-0.013
952	-0.013
952	-0.013
952	-0.013
953	-0.013
953	-0.013
954	-0.014
954	-0.015
955	-0.015
955	-0.016
955	-0.016
956	-0.016
956	-0.016
957	-0.016
957	-0.016
957	-0.017
958	-0.017
958	-0.017
959	-0.017
959	-0.018
960	-0.018
960	-0.019
960	-0.02
961	-0.021
961	-0.022
962	-0.022
962	-0.023
963	-0.022
963	-0.022
963	-0.022
964	-0.021
964	-0.02
965	-0.02
965	-0.018
966	-0.017
966	-0.016
966	-0.015
967	-0.014
967	-0.014
968	-0.014
968	-0.013
968	-0.013
969	-0.014
969	-0.014
970	-0.014
970	-0.014
971	-0.015
971	-0.015
971	-0.016
972	-0.016
972	-0.016
973	-0.017
973	-0.017
974	-0.018
974	-0.018
974	-0.018
975	-0.019
975	-0.02
976	-0.021
976	-0.021
976	-0.022
977	-0.023
977	-0.024
978	-0.025
978	-0.026
979	-0.026
979	-0.027
979	-0.027
980	-0.027
980	-0.027
981	-0.027
981	-0.026
982	-0.026
982	-0.025
982	-0.024
983	-0.023
983	-0.022
984	-0.021
984	-0.02
984	-0.02
985	-0.019
985	-0.019
986	-0.019
986	-0.019
987	-0.02
987	-0.02
987	-0.02
988	-0.02
988	-0.021
989	-0.022
989	-0.022
990	-0.023
990	-0.023
990	-0.023
991	-0.023
991	-0.023
992	-0.023
992	-0.024
992	-0.024
993	-0.025
993	-0.026
994	-0.026
994	-0.028
995	-0.029
995	-0.029
995	-0.031
996	-0.032
996	-0.033
997	-0.033
997	-0.033
997	-0.033
998	-0.033
998	-0.032
999	-0.031
999	-0.03
1000	-0.029
1000	-0.028
1000	-0.027
1001	-0.026
1001	-0.025
1002	-0.024
1002	-0.023
1003	-0.023
1003	-0.023
1003	-0.022
1004	-0.022
1004	-0.021
1005	-0.021
1005	-0.021
1005	-0.021
1006	-0.021
1006	-0.021
1007	-0.02
1007	-0.02
1008	-0.02
1008	-0.02
1008	-0.019
1009	-0.019
1009	-0.019
1010	-0.019
1010	-0.018
1010	-0.018
1011	-0.017
1011	-0.017
1012	-0.017
1012	-0.017
1013	-0.018
1013	-0.018
1013	-0.019
1014	-0.02
1014	-0.021
1015	-0.022
1015	-0.023
1016	-0.024
1016	-0.026
1016	-0.027
1017	-0.028
1017	-0.029
1018	-0.03
1018	-0.03
1018	-0.031
1019	-0.031
1019	-0.031
1020	-0.032
1020	-0.032
1021	-0.032
1021	-0.032
1021	-0.033
1022	-0.033
1022	-0.033
1023	-0.033
1023	-0.034
1023	-0.034
1024	-0.035
1024	-0.036
1025	-0.036
1025	-0.037
1026	-0.037
1026	-0.037
1026	-0.037
1027	-0.037
1027	-0.038
1028	-0.037
1028	-0.037
1028	-0.036
1029	-0.036
1029	-0.035
1030	-0.035
1030	-0.034
1031	-0.033
1031	-0.033
1031	-0.032
1032	-0.031
1032	-0.031
1033	-0.03
1033	-0.03
1033	-0.03
1034	-0.03
1034	-0.031
1035	-0.031
1035	-0.032
1036	-0.032
1036	-0.032
1036	-0.033
1037	-0.033
1037	-0.034
1038	-0.034
1038	-0.034
1039	-0.034
1039	-0.034
1039	-0.034
1040	-0.034
1040	-0.035
1041	-0.035
1041	-0.036
1041	-0.037
1042	-0.038
1042	-0.039
1043	-0.04
1043	-0.041
1044	-0.042
1044	-0.043
1044	-0.044
1045	-0.045
1045	-0.046
1046	-0.047
1046	-0.047
1046	-0.047
1047	-0.047
1047	-0.046
1048	-0.046
1048	-0.046
1049	-0.046
1049	-0.046
1049	-0.047
1050	-0.047
1050	-0.047
1051	-0.047
1051	-0.047
1051	-0.047
1052	-0.047
1052	-0.046
1053	-0.046
1053	-0.045
1053	-0.044
1054	-0.043
1054	-0.042
1055	-0.041
1055	-0.04
1056	-0.04
1056	-0.04
1056	-0.04
1057	-0.04
1057	-0.041
1058	-0.041
1058	-0.042
1058	-0.042
1059	-0.042
1059	-0.043
1060	-0.043
1060	-0.043
1061	-0.043
1061	-0.043
1061	-0.043
1062	-0.043
1062	-0.043
1063	-0.043
1063	-0.044
1063	-0.044
1064	-0.044
1064	-0.044
1065	-0.045
1065	-0.045
1066	-0.045
1066	-0.046
1066	-0.046
1067	-0.046
1067	-0.046
1068	-0.046
1068	-0.046
1068	-0.047
1069	-0.047
1069	-0.048
1070	-0.048
1070	-0.048
1071	-0.048
1071	-0.048
1071	-0.048
1072	-0.048
1072	-0.047
1073	-0.047
1073	-0.046
1073	-0.046
1074	-0.045
1074	-0.045
1075	-0.045
1075	-0.045
1076	-0.045
1076	-0.044
1076	-0.045
1077	-0.046
1077	-0.046
1078	-0.046
1078	-0.046
1078	-0.046
1079	-0.046
1079	-0.046
1080	-0.046
1080	-0.045
1080	-0.046
1081	-0.045
1081	-0.044
1082	-0.043
1082	-0.043
1083	-0.043
1083	-0.043
1083	-0.042
1084	-0.042
1084	-0.041
1085	-0.041
1085	-0.041
1085	-0.04
1086	-0.04
1086	-0.041
1087	-0.04
1087	-0.04
1088	-0.04
1088	-0.04
1088	-0.039
1089	-0.039
1089	-0.039
1090	-0.039
1090	-0.039
1090	-0.039
1091	-0.039
1091	-0.037
1092	-0.037
1092	-0.036
1092	-0.035
1093	-0.034
1093	-0.032
1094	-0.031
1094	-0.03
1095	-0.029
1095	-0.028
1095	-0.026
1096	-0.025
1096	-0.022
1097	-0.02
1097	-0.02
1097	-0.017
1098	-0.016
1098	-0.013
1099	-0.011
1099	-0.008
1100	-0.006
1100	-0.004
1100	-0.002
1101	0
1101	0.003
1102	0.006
1102	0.009
1102	0.013
1103	0.016
1103	0.02
1104	0.025
1104	0.031
1104	0.038
1105	0.045
1105	0.05
1106	0.055
1106	0.062
1107	0.068
1107	0.079
1107	0.092
1108	0.14
1108	0.204
1109	0.302
1109	0.473
1109	0.631
1110	1.092
1110	-0
1111	-0
1111	-0
