Data from 15c-100ul-ns-20ul-nr-full-exp-7ul-bp_Absorbance__899__04336.txt Node

Date: Mon Jan 15 14:11:29 CET 2024
User: Marek
Spectrometer: MAYP115816
Trigger mode: 0
Integration Time (sec): 2.000000E-1
Scans to average: 10
Electric dark correction enabled: true
Nonlinearity correction enabled: true
Boxcar width: 5
XAxis mode: Wavelengths
Number of Pixels in Spectrum: 2068
>>>>>Begin Spectral Data<<<<<
199	-1.534
199	-1.412
200	-1.276
200	-1.172
201	-1.103
201	-1.056
202	-0.993
202	-0.945
203	-0.902
203	-0.869
204	-0.843
204	-0.823
205	-0.803
205	-0.795
205	-0.792
206	-0.792
206	-0.791
207	-0.787
207	-0.785
208	-0.785
208	-0.78
209	-0.778
209	-0.778
210	-0.778
210	-0.777
211	-0.776
211	-0.775
212	-0.773
212	-0.773
213	-0.773
213	-0.771
213	-0.772
214	-0.77
214	-0.771
215	-0.77
215	-0.771
216	-0.771
216	-0.771
217	-0.77
217	-0.77
218	-0.769
218	-0.766
219	-0.763
219	-0.763
220	-0.759
220	-0.757
221	-0.753
221	-0.748
221	-0.742
222	-0.738
222	-0.734
223	-0.727
223	-0.724
224	-0.719
224	-0.711
225	-0.702
225	-0.692
226	-0.683
226	-0.672
227	-0.659
227	-0.644
228	-0.625
228	-0.607
229	-0.583
229	-0.555
229	-0.529
230	-0.499
230	-0.466
231	-0.431
231	-0.394
232	-0.358
232	-0.32
233	-0.282
233	-0.242
234	-0.204
234	-0.167
235	-0.131
235	-0.097
236	-0.065
236	-0.034
236	-0.005
237	0.022
237	0.046
238	0.069
238	0.089
239	0.108
239	0.125
240	0.139
240	0.152
241	0.164
241	0.174
242	0.184
242	0.192
243	0.2
243	0.206
243	0.212
244	0.218
244	0.222
245	0.226
245	0.23
246	0.234
246	0.238
247	0.24
247	0.243
248	0.246
248	0.248
249	0.251
249	0.253
250	0.254
250	0.256
250	0.259
251	0.26
251	0.261
252	0.263
252	0.264
253	0.266
253	0.267
254	0.268
254	0.269
255	0.27
255	0.27
256	0.271
256	0.272
257	0.273
257	0.273
258	0.273
258	0.273
258	0.273
259	0.273
259	0.273
260	0.273
260	0.272
261	0.272
261	0.272
262	0.271
262	0.27
263	0.27
263	0.269
264	0.268
264	0.267
265	0.266
265	0.265
265	0.264
266	0.262
266	0.261
267	0.26
267	0.258
268	0.257
268	0.255
269	0.254
269	0.252
270	0.25
270	0.249
271	0.247
271	0.245
272	0.243
272	0.242
272	0.24
273	0.238
273	0.236
274	0.235
274	0.233
275	0.231
275	0.229
276	0.228
276	0.226
277	0.224
277	0.222
278	0.22
278	0.218
278	0.216
279	0.213
279	0.21
280	0.208
280	0.206
281	0.204
281	0.201
282	0.199
282	0.197
283	0.195
283	0.193
284	0.191
284	0.19
285	0.189
285	0.187
285	0.186
286	0.184
286	0.183
287	0.181
287	0.18
288	0.179
288	0.177
289	0.176
289	0.174
290	0.173
290	0.172
291	0.171
291	0.17
292	0.168
292	0.167
292	0.166
293	0.165
293	0.164
294	0.163
294	0.162
295	0.161
295	0.16
296	0.159
296	0.158
297	0.158
297	0.157
298	0.156
298	0.156
298	0.155
299	0.154
299	0.153
300	0.153
300	0.152
301	0.152
301	0.151
302	0.15
302	0.15
303	0.149
303	0.148
304	0.148
304	0.147
305	0.147
305	0.146
305	0.146
306	0.145
306	0.145
307	0.144
307	0.144
308	0.143
308	0.143
309	0.142
309	0.141
310	0.141
310	0.14
311	0.14
311	0.139
311	0.139
312	0.138
312	0.138
313	0.137
313	0.137
314	0.136
314	0.136
315	0.135
315	0.135
316	0.134
316	0.134
317	0.133
317	0.133
318	0.132
318	0.132
318	0.131
319	0.131
319	0.13
320	0.129
320	0.129
321	0.128
321	0.128
322	0.127
322	0.127
323	0.126
323	0.126
324	0.125
324	0.125
324	0.124
325	0.124
325	0.123
326	0.123
326	0.122
327	0.122
327	0.121
328	0.121
328	0.12
329	0.12
329	0.119
330	0.119
330	0.118
330	0.118
331	0.117
331	0.117
332	0.117
332	0.116
333	0.116
333	0.115
334	0.115
334	0.114
335	0.113
335	0.113
336	0.113
336	0.112
336	0.112
337	0.111
337	0.111
338	0.11
338	0.11
339	0.11
339	0.109
340	0.109
340	0.108
341	0.108
341	0.108
342	0.107
342	0.107
342	0.107
343	0.106
343	0.106
344	0.105
344	0.105
345	0.105
345	0.104
346	0.104
346	0.103
347	0.103
347	0.103
348	0.102
348	0.102
348	0.102
349	0.101
349	0.101
350	0.101
350	0.101
351	0.101
351	0.1
352	0.1
352	0.1
353	0.099
353	0.099
354	0.099
354	0.098
354	0.098
355	0.098
355	0.097
356	0.098
356	0.098
357	0.097
357	0.097
358	0.097
358	0.097
359	0.097
359	0.097
360	0.097
360	0.097
360	0.097
361	0.096
361	0.096
362	0.096
362	0.096
363	0.096
363	0.096
364	0.096
364	0.096
365	0.096
365	0.096
366	0.096
366	0.096
366	0.095
367	0.095
367	0.095
368	0.095
368	0.095
369	0.095
369	0.094
370	0.094
370	0.094
371	0.094
371	0.094
372	0.093
372	0.093
372	0.093
373	0.093
373	0.093
374	0.093
374	0.093
375	0.093
375	0.093
376	0.093
376	0.093
377	0.093
377	0.093
378	0.093
378	0.093
378	0.093
379	0.093
379	0.093
380	0.093
380	0.093
381	0.093
381	0.092
382	0.092
382	0.092
383	0.092
383	0.092
383	0.091
384	0.091
384	0.091
385	0.091
385	0.091
386	0.091
386	0.091
387	0.09
387	0.09
388	0.09
388	0.09
389	0.09
389	0.09
389	0.09
390	0.09
390	0.09
391	0.09
391	0.09
392	0.09
392	0.09
393	0.09
393	0.09
394	0.089
394	0.089
394	0.089
395	0.089
395	0.088
396	0.088
396	0.088
397	0.088
397	0.088
398	0.088
398	0.088
399	0.088
399	0.088
400	0.088
400	0.087
400	0.087
401	0.087
401	0.086
402	0.086
402	0.086
403	0.086
403	0.086
404	0.086
404	0.086
405	0.085
405	0.085
405	0.085
406	0.085
406	0.086
407	0.085
407	0.085
408	0.085
408	0.085
409	0.085
409	0.085
410	0.085
410	0.085
411	0.085
411	0.084
411	0.084
412	0.084
412	0.084
413	0.083
413	0.083
414	0.083
414	0.083
415	0.082
415	0.082
416	0.081
416	0.081
416	0.081
417	0.081
417	0.081
418	0.081
418	0.081
419	0.081
419	0.081
420	0.081
420	0.082
421	0.082
421	0.082
421	0.082
422	0.082
422	0.082
423	0.082
423	0.082
424	0.081
424	0.081
425	0.08
425	0.08
426	0.08
426	0.08
427	0.08
427	0.08
427	0.08
428	0.08
428	0.081
429	0.081
429	0.081
430	0.081
430	0.081
431	0.081
431	0.081
432	0.08
432	0.08
432	0.079
433	0.078
433	0.078
434	0.078
434	0.078
435	0.078
435	0.078
436	0.078
436	0.078
437	0.078
437	0.077
437	0.078
438	0.078
438	0.078
439	0.078
439	0.077
440	0.077
440	0.077
441	0.077
441	0.077
442	0.077
442	0.077
442	0.077
443	0.077
443	0.077
444	0.077
444	0.077
445	0.077
445	0.077
446	0.077
446	0.077
447	0.077
447	0.077
447	0.077
448	0.077
448	0.077
449	0.076
449	0.076
450	0.076
450	0.076
451	0.075
451	0.075
452	0.075
452	0.075
452	0.075
453	0.075
453	0.075
454	0.075
454	0.075
455	0.075
455	0.076
456	0.076
456	0.076
457	0.076
457	0.076
458	0.076
458	0.076
458	0.076
459	0.076
459	0.076
460	0.075
460	0.075
461	0.075
461	0.074
462	0.074
462	0.075
463	0.075
463	0.075
463	0.076
464	0.076
464	0.076
465	0.076
465	0.076
466	0.076
466	0.076
467	0.076
467	0.076
467	0.075
468	0.074
468	0.074
469	0.074
469	0.074
470	0.074
470	0.074
471	0.074
471	0.074
472	0.074
472	0.074
472	0.075
473	0.076
473	0.076
474	0.076
474	0.077
475	0.077
475	0.077
476	0.077
476	0.077
477	0.077
477	0.078
477	0.078
478	0.078
478	0.078
479	0.078
479	0.079
480	0.079
480	0.079
481	0.08
481	0.08
482	0.081
482	0.082
482	0.083
483	0.084
483	0.086
484	0.087
484	0.087
485	0.087
485	0.088
486	0.088
486	0.088
487	0.089
487	0.089
487	0.089
488	0.089
488	0.088
489	0.088
489	0.089
490	0.089
490	0.09
491	0.09
491	0.091
492	0.091
492	0.092
492	0.093
493	0.094
493	0.095
494	0.096
494	0.098
495	0.099
495	0.1
496	0.101
496	0.102
496	0.103
497	0.104
497	0.105
498	0.106
498	0.106
499	0.107
499	0.107
500	0.108
500	0.109
501	0.11
501	0.111
501	0.112
502	0.112
502	0.113
503	0.115
503	0.115
504	0.116
504	0.117
505	0.118
505	0.118
506	0.119
506	0.12
506	0.121
507	0.122
507	0.123
508	0.124
508	0.125
509	0.126
509	0.126
510	0.127
510	0.128
511	0.129
511	0.13
511	0.13
512	0.131
512	0.132
513	0.132
513	0.132
514	0.132
514	0.133
515	0.133
515	0.133
515	0.133
516	0.133
516	0.134
517	0.134
517	0.135
518	0.135
518	0.135
519	0.135
519	0.134
520	0.134
520	0.134
520	0.134
521	0.132
521	0.132
522	0.131
522	0.131
523	0.131
523	0.131
524	0.131
524	0.132
524	0.132
525	0.133
525	0.134
526	0.135
526	0.135
527	0.136
527	0.136
528	0.136
528	0.137
529	0.136
529	0.136
529	0.136
530	0.136
530	0.136
531	0.136
531	0.135
532	0.135
532	0.134
533	0.134
533	0.133
533	0.132
534	0.132
534	0.131
535	0.13
535	0.13
536	0.129
536	0.129
537	0.128
537	0.127
538	0.126
538	0.125
538	0.125
539	0.124
539	0.123
540	0.122
540	0.12
541	0.118
541	0.117
542	0.116
542	0.115
542	0.114
543	0.113
543	0.112
544	0.111
544	0.11
545	0.11
545	0.11
546	0.109
546	0.108
547	0.107
547	0.105
547	0.104
548	0.103
548	0.102
549	0.1
549	0.099
550	0.097
550	0.095
551	0.094
551	0.093
551	0.092
552	0.091
552	0.09
553	0.089
553	0.089
554	0.088
554	0.086
555	0.085
555	0.084
556	0.083
556	0.081
556	0.08
557	0.079
557	0.078
558	0.077
558	0.076
559	0.075
559	0.074
560	0.073
560	0.072
560	0.071
561	0.071
561	0.071
562	0.07
562	0.069
563	0.067
563	0.066
564	0.065
564	0.063
564	0.063
565	0.062
565	0.061
566	0.059
566	0.059
567	0.058
567	0.057
568	0.057
568	0.057
568	0.057
569	0.057
569	0.057
570	0.056
570	0.054
571	0.055
571	0.054
572	0.053
572	0.053
573	0.052
573	0.051
573	0.049
574	0.049
574	0.049
575	0.049
575	0.05
576	0.05
576	0.048
577	0.046
577	0.045
577	0.045
578	0.045
578	0.046
579	0.047
579	0.047
580	0.045
580	0.042
581	0.04
581	0.039
581	0.04
582	0.04
582	0.041
583	0.041
583	0.04
584	0.036
584	0.033
585	0.034
585	0.035
585	0.036
586	0.035
586	0.035
587	0.033
587	0.032
588	0.03
588	0.03
589	0.03
589	0.031
590	0.031
590	0.031
590	0.032
591	0.033
591	0.032
592	0.031
592	0.03
593	0.03
593	0.03
594	0.029
594	0.028
594	0.028
595	0.028
595	0.027
596	0.027
596	0.029
597	0.031
597	0.032
598	0.032
598	0.033
598	0.033
599	0.033
599	0.032
600	0.031
600	0.03
601	0.03
601	0.029
602	0.027
602	0.026
602	0.025
603	0.025
603	0.026
604	0.027
604	0.027
605	0.029
605	0.03
606	0.03
606	0.029
606	0.028
607	0.028
607	0.028
608	0.028
608	0.027
609	0.026
609	0.027
610	0.026
610	0.025
610	0.026
611	0.027
611	0.029
612	0.03
612	0.031
613	0.033
613	0.034
614	0.033
614	0.033
614	0.033
615	0.032
615	0.032
616	0.032
616	0.032
617	0.032
617	0.031
618	0.03
618	0.03
618	0.031
619	0.032
619	0.033
620	0.035
620	0.035
621	0.036
621	0.037
622	0.037
622	0.038
622	0.037
623	0.037
623	0.039
624	0.039
624	0.038
625	0.038
625	0.039
626	0.039
626	0.039
626	0.04
627	0.04
627	0.041
628	0.042
628	0.043
629	0.043
629	0.044
630	0.044
630	0.044
630	0.045
631	0.047
631	0.047
632	0.048
632	0.049
633	0.05
633	0.051
634	0.053
634	0.055
634	0.056
635	0.057
635	0.058
636	0.059
636	0.06
637	0.06
637	0.061
638	0.062
638	0.063
638	0.063
639	0.063
639	0.064
640	0.065
640	0.066
641	0.067
641	0.069
642	0.07
642	0.072
642	0.073
643	0.074
643	0.076
644	0.078
644	0.079
645	0.081
645	0.083
646	0.085
646	0.087
646	0.088
647	0.09
647	0.091
648	0.092
648	0.093
649	0.095
649	0.097
650	0.098
650	0.1
650	0.102
651	0.104
651	0.106
652	0.108
652	0.11
653	0.114
653	0.122
653	0.132
654	0.108
654	0.089
655	0.089
655	0.091
656	0.092
656	0.094
657	0.096
657	0.097
657	0.098
658	0.095
658	0.088
659	0.11
659	0.14
660	0.149
660	0.151
661	0.153
661	0.155
661	0.157
662	0.16
662	0.163
663	0.165
663	0.167
664	0.169
664	0.171
665	0.173
665	0.175
665	0.177
666	0.179
666	0.181
667	0.183
667	0.186
668	0.188
668	0.19
669	0.192
669	0.195
669	0.198
670	0.2
670	0.202
671	0.204
671	0.205
672	0.206
672	0.207
672	0.209
673	0.21
673	0.211
674	0.212
674	0.212
675	0.214
675	0.216
676	0.218
676	0.219
676	0.22
677	0.222
677	0.223
678	0.224
678	0.224
679	0.225
679	0.226
680	0.227
680	0.227
680	0.227
681	0.227
681	0.228
682	0.229
682	0.23
683	0.231
683	0.232
684	0.233
684	0.233
684	0.233
685	0.234
685	0.234
686	0.234
686	0.234
687	0.234
687	0.234
687	0.234
688	0.234
688	0.234
689	0.235
689	0.236
690	0.235
690	0.235
691	0.234
691	0.234
691	0.233
692	0.232
692	0.231
693	0.23
693	0.23
694	0.228
694	0.227
695	0.228
695	0.229
695	0.228
696	0.228
696	0.228
697	0.228
697	0.227
698	0.226
698	0.225
698	0.224
699	0.224
699	0.221
700	0.219
700	0.218
701	0.216
701	0.215
702	0.213
702	0.212
702	0.21
703	0.209
703	0.207
704	0.206
704	0.205
705	0.204
705	0.203
705	0.201
706	0.2
706	0.198
707	0.196
707	0.194
708	0.192
708	0.19
709	0.188
709	0.186
709	0.183
710	0.18
710	0.178
711	0.176
711	0.174
712	0.173
712	0.171
713	0.17
713	0.168
713	0.167
714	0.165
714	0.164
715	0.163
715	0.161
716	0.16
716	0.158
716	0.157
717	0.155
717	0.153
718	0.15
718	0.148
719	0.147
719	0.146
720	0.143
720	0.141
720	0.139
721	0.136
721	0.134
722	0.132
722	0.13
723	0.128
723	0.127
723	0.125
724	0.123
724	0.121
725	0.12
725	0.119
726	0.117
726	0.116
727	0.115
727	0.113
727	0.112
728	0.111
728	0.109
729	0.109
729	0.108
730	0.107
730	0.105
730	0.104
731	0.103
731	0.102
732	0.101
732	0.099
733	0.097
733	0.096
734	0.094
734	0.092
734	0.09
735	0.089
735	0.087
736	0.085
736	0.084
737	0.083
737	0.082
737	0.08
738	0.078
738	0.076
739	0.075
739	0.074
740	0.072
740	0.071
741	0.07
741	0.068
741	0.065
742	0.063
742	0.061
743	0.06
743	0.058
744	0.056
744	0.055
744	0.052
745	0.05
745	0.048
746	0.047
746	0.046
747	0.045
747	0.044
748	0.043
748	0.043
748	0.042
749	0.041
749	0.041
750	0.04
750	0.04
751	0.039
751	0.039
751	0.039
752	0.038
752	0.038
753	0.037
753	0.037
754	0.037
754	0.036
754	0.036
755	0.036
755	0.036
756	0.034
756	0.032
757	0.031
757	0.031
758	0.029
758	0.028
758	0.027
759	0.026
759	0.024
760	0.022
760	0.021
761	0.02
761	0.02
761	0.02
762	0.018
762	0.018
763	0.017
763	0.014
764	0.012
764	0.01
764	0.008
765	0.006
765	0.004
766	0.003
766	0.002
767	0.001
767	-0.001
768	-0.003
768	-0.004
768	-0.005
769	-0.005
769	-0.006
770	-0.007
770	-0.008
771	-0.01
771	-0.012
771	-0.014
772	-0.015
772	-0.016
773	-0.017
773	-0.019
774	-0.021
774	-0.023
775	-0.025
775	-0.027
775	-0.029
776	-0.031
776	-0.033
777	-0.035
777	-0.038
778	-0.04
778	-0.042
778	-0.044
779	-0.045
779	-0.046
780	-0.049
780	-0.051
781	-0.053
781	-0.056
781	-0.06
782	-0.064
782	-0.069
783	-0.073
783	-0.079
784	-0.085
784	-0.092
784	-0.097
785	-0.104
785	-0.11
786	-0.115
786	-0.116
787	-0.114
787	-0.114
788	-0.116
788	-0.118
788	-0.119
789	-0.12
789	-0.119
790	-0.116
790	-0.114
791	-0.114
791	-0.116
791	-0.118
792	-0.113
792	-0.103
793	-0.097
793	-0.094
794	-0.093
794	-0.095
794	-0.099
795	-0.102
795	-0.102
796	-0.102
796	-0.105
797	-0.113
797	-0.123
797	-0.129
798	-0.134
798	-0.137
799	-0.137
799	-0.137
800	-0.137
800	-0.139
801	-0.142
801	-0.144
801	-0.144
802	-0.146
802	-0.147
803	-0.148
803	-0.148
804	-0.147
804	-0.142
804	-0.136
805	-0.132
805	-0.129
806	-0.127
806	-0.126
807	-0.124
807	-0.124
807	-0.124
808	-0.124
808	-0.125
809	-0.129
809	-0.135
810	-0.138
810	-0.141
810	-0.144
811	-0.146
811	-0.146
812	-0.142
812	-0.138
813	-0.137
813	-0.137
813	-0.138
814	-0.138
814	-0.137
815	-0.135
815	-0.132
816	-0.13
816	-0.131
817	-0.135
817	-0.137
817	-0.136
818	-0.132
818	-0.127
819	-0.122
819	-0.118
820	-0.114
820	-0.111
820	-0.107
821	-0.101
821	-0.094
822	-0.088
822	-0.083
823	-0.078
823	-0.075
823	-0.071
824	-0.068
824	-0.064
825	-0.059
825	-0.055
826	-0.052
826	-0.049
826	-0.047
827	-0.044
827	-0.042
828	-0.04
828	-0.039
829	-0.037
829	-0.035
829	-0.034
830	-0.033
830	-0.032
831	-0.03
831	-0.029
832	-0.028
832	-0.028
832	-0.027
833	-0.027
833	-0.027
834	-0.026
834	-0.026
835	-0.026
835	-0.026
835	-0.026
836	-0.025
836	-0.025
837	-0.024
837	-0.024
838	-0.023
838	-0.023
839	-0.022
839	-0.022
839	-0.021
840	-0.021
840	-0.02
841	-0.019
841	-0.019
842	-0.018
842	-0.017
842	-0.016
843	-0.015
843	-0.015
844	-0.014
844	-0.014
845	-0.013
845	-0.013
845	-0.013
846	-0.014
846	-0.014
847	-0.015
847	-0.016
848	-0.016
848	-0.017
848	-0.018
849	-0.019
849	-0.019
850	-0.02
850	-0.02
851	-0.02
851	-0.021
851	-0.021
852	-0.021
852	-0.02
853	-0.02
853	-0.02
854	-0.02
854	-0.02
854	-0.019
855	-0.019
855	-0.019
856	-0.019
856	-0.018
857	-0.017
857	-0.017
857	-0.017
858	-0.017
858	-0.017
859	-0.017
859	-0.017
860	-0.016
860	-0.016
860	-0.016
861	-0.015
861	-0.015
862	-0.015
862	-0.015
863	-0.015
863	-0.015
863	-0.015
864	-0.015
864	-0.015
865	-0.015
865	-0.015
866	-0.016
866	-0.017
866	-0.017
867	-0.017
867	-0.017
868	-0.016
868	-0.016
869	-0.016
869	-0.015
869	-0.015
870	-0.015
870	-0.015
871	-0.014
871	-0.014
872	-0.014
872	-0.014
872	-0.014
873	-0.014
873	-0.015
874	-0.014
874	-0.014
875	-0.014
875	-0.014
875	-0.014
876	-0.014
876	-0.015
877	-0.015
877	-0.015
878	-0.016
878	-0.017
878	-0.018
879	-0.019
879	-0.019
880	-0.02
880	-0.02
881	-0.021
881	-0.021
881	-0.02
882	-0.02
882	-0.019
883	-0.019
883	-0.018
884	-0.017
884	-0.017
884	-0.016
885	-0.015
885	-0.015
886	-0.014
886	-0.014
887	-0.014
887	-0.014
887	-0.013
888	-0.013
888	-0.012
889	-0.011
889	-0.011
890	-0.01
890	-0.009
890	-0.009
891	-0.009
891	-0.008
892	-0.008
892	-0.009
893	-0.009
893	-0.009
893	-0.01
894	-0.01
894	-0.011
895	-0.012
895	-0.013
895	-0.014
896	-0.015
896	-0.015
897	-0.016
897	-0.016
898	-0.017
898	-0.017
898	-0.017
899	-0.017
899	-0.017
900	-0.017
900	-0.017
901	-0.016
901	-0.016
901	-0.016
902	-0.016
902	-0.016
903	-0.017
903	-0.017
904	-0.017
904	-0.018
904	-0.018
905	-0.019
905	-0.019
906	-0.02
906	-0.02
907	-0.02
907	-0.02
907	-0.021
908	-0.021
908	-0.021
909	-0.021
909	-0.021
910	-0.021
910	-0.021
910	-0.021
911	-0.021
911	-0.021
912	-0.02
912	-0.02
913	-0.02
913	-0.02
913	-0.02
914	-0.021
914	-0.022
915	-0.022
915	-0.023
916	-0.024
916	-0.025
916	-0.025
917	-0.026
917	-0.026
918	-0.026
918	-0.025
918	-0.024
919	-0.024
919	-0.023
920	-0.021
920	-0.02
921	-0.019
921	-0.018
921	-0.017
922	-0.015
922	-0.014
923	-0.014
923	-0.013
924	-0.012
924	-0.012
924	-0.011
925	-0.011
925	-0.011
926	-0.011
926	-0.011
927	-0.011
927	-0.012
927	-0.012
928	-0.013
928	-0.014
929	-0.014
929	-0.015
930	-0.015
930	-0.016
930	-0.017
931	-0.018
931	-0.019
932	-0.02
932	-0.021
933	-0.022
933	-0.023
933	-0.024
934	-0.025
934	-0.026
935	-0.027
935	-0.028
935	-0.029
936	-0.029
936	-0.03
937	-0.03
937	-0.03
938	-0.03
938	-0.029
938	-0.029
939	-0.028
939	-0.027
940	-0.026
940	-0.025
941	-0.024
941	-0.024
941	-0.023
942	-0.022
942	-0.022
943	-0.021
943	-0.021
944	-0.021
944	-0.021
944	-0.02
945	-0.02
945	-0.019
946	-0.019
946	-0.019
946	-0.018
947	-0.018
947	-0.017
948	-0.017
948	-0.016
949	-0.016
949	-0.015
949	-0.015
950	-0.015
950	-0.014
951	-0.014
951	-0.014
952	-0.014
952	-0.014
952	-0.014
953	-0.015
953	-0.015
954	-0.016
954	-0.016
955	-0.017
955	-0.017
955	-0.017
956	-0.017
956	-0.017
957	-0.017
957	-0.017
957	-0.018
958	-0.018
958	-0.018
959	-0.018
959	-0.018
960	-0.019
960	-0.02
960	-0.021
961	-0.022
961	-0.023
962	-0.023
962	-0.024
963	-0.024
963	-0.024
963	-0.023
964	-0.023
964	-0.022
965	-0.022
965	-0.02
966	-0.019
966	-0.018
966	-0.017
967	-0.016
967	-0.016
968	-0.015
968	-0.015
968	-0.015
969	-0.016
969	-0.016
970	-0.016
970	-0.017
971	-0.017
971	-0.017
971	-0.018
972	-0.018
972	-0.018
973	-0.018
973	-0.019
974	-0.019
974	-0.019
974	-0.02
975	-0.02
975	-0.021
976	-0.021
976	-0.022
976	-0.023
977	-0.024
977	-0.025
978	-0.026
978	-0.027
979	-0.028
979	-0.028
979	-0.028
980	-0.029
980	-0.029
981	-0.029
981	-0.028
982	-0.027
982	-0.026
982	-0.025
983	-0.024
983	-0.023
984	-0.022
984	-0.021
984	-0.02
985	-0.02
985	-0.02
986	-0.02
986	-0.02
987	-0.021
987	-0.021
987	-0.021
988	-0.022
988	-0.022
989	-0.023
989	-0.023
990	-0.024
990	-0.024
990	-0.024
991	-0.024
991	-0.025
992	-0.025
992	-0.025
992	-0.026
993	-0.026
993	-0.027
994	-0.028
994	-0.029
995	-0.03
995	-0.031
995	-0.032
996	-0.033
996	-0.034
997	-0.035
997	-0.035
997	-0.035
998	-0.035
998	-0.034
999	-0.033
999	-0.032
1000	-0.031
1000	-0.03
1000	-0.029
1001	-0.028
1001	-0.027
1002	-0.026
1002	-0.025
1003	-0.025
1003	-0.024
1003	-0.024
1004	-0.024
1004	-0.023
1005	-0.023
1005	-0.023
1005	-0.022
1006	-0.022
1006	-0.022
1007	-0.022
1007	-0.022
1008	-0.021
1008	-0.021
1008	-0.021
1009	-0.021
1009	-0.02
1010	-0.02
1010	-0.02
1010	-0.019
1011	-0.019
1011	-0.019
1012	-0.019
1012	-0.019
1013	-0.02
1013	-0.02
1013	-0.021
1014	-0.022
1014	-0.023
1015	-0.024
1015	-0.025
1016	-0.026
1016	-0.027
1016	-0.028
1017	-0.029
1017	-0.03
1018	-0.031
1018	-0.032
1018	-0.032
1019	-0.033
1019	-0.033
1020	-0.033
1020	-0.034
1021	-0.034
1021	-0.034
1021	-0.034
1022	-0.035
1022	-0.035
1023	-0.035
1023	-0.036
1023	-0.036
1024	-0.037
1024	-0.037
1025	-0.038
1025	-0.038
1026	-0.039
1026	-0.039
1026	-0.039
1027	-0.039
1027	-0.039
1028	-0.039
1028	-0.038
1028	-0.038
1029	-0.038
1029	-0.037
1030	-0.036
1030	-0.036
1031	-0.035
1031	-0.034
1031	-0.033
1032	-0.033
1032	-0.032
1033	-0.032
1033	-0.031
1033	-0.032
1034	-0.032
1034	-0.033
1035	-0.033
1035	-0.033
1036	-0.034
1036	-0.034
1036	-0.035
1037	-0.035
1037	-0.036
1038	-0.036
1038	-0.037
1039	-0.037
1039	-0.037
1039	-0.037
1040	-0.037
1040	-0.037
1041	-0.038
1041	-0.039
1041	-0.04
1042	-0.041
1042	-0.042
1043	-0.043
1043	-0.044
1044	-0.045
1044	-0.045
1044	-0.046
1045	-0.047
1045	-0.048
1046	-0.048
1046	-0.049
1046	-0.048
1047	-0.048
1047	-0.048
1048	-0.048
1048	-0.047
1049	-0.048
1049	-0.048
1049	-0.048
1050	-0.048
1050	-0.049
1051	-0.049
1051	-0.049
1051	-0.049
1052	-0.048
1052	-0.048
1053	-0.048
1053	-0.047
1053	-0.046
1054	-0.045
1054	-0.044
1055	-0.042
1055	-0.041
1056	-0.041
1056	-0.041
1056	-0.041
1057	-0.042
1057	-0.042
1058	-0.042
1058	-0.043
1058	-0.043
1059	-0.043
1059	-0.044
1060	-0.044
1060	-0.045
1061	-0.045
1061	-0.045
1061	-0.045
1062	-0.045
1062	-0.045
1063	-0.045
1063	-0.046
1063	-0.046
1064	-0.047
1064	-0.047
1065	-0.047
1065	-0.047
1066	-0.048
1066	-0.048
1066	-0.049
1067	-0.049
1067	-0.049
1068	-0.049
1068	-0.05
1068	-0.05
1069	-0.051
1069	-0.051
1070	-0.051
1070	-0.051
1071	-0.051
1071	-0.051
1071	-0.051
1072	-0.051
1072	-0.051
1073	-0.05
1073	-0.049
1073	-0.049
1074	-0.048
1074	-0.048
1075	-0.049
1075	-0.049
1076	-0.049
1076	-0.048
1076	-0.049
1077	-0.049
1077	-0.05
1078	-0.051
1078	-0.05
1078	-0.05
1079	-0.05
1079	-0.049
1080	-0.049
1080	-0.049
1080	-0.049
1081	-0.049
1081	-0.048
1082	-0.047
1082	-0.047
1083	-0.048
1083	-0.048
1083	-0.047
1084	-0.047
1084	-0.046
1085	-0.046
1085	-0.046
1085	-0.045
1086	-0.045
1086	-0.046
1087	-0.045
1087	-0.044
1088	-0.044
1088	-0.044
1088	-0.044
1089	-0.044
1089	-0.045
1090	-0.045
1090	-0.045
1090	-0.045
1091	-0.044
1091	-0.043
1092	-0.044
1092	-0.042
1092	-0.042
1093	-0.041
1093	-0.039
1094	-0.038
1094	-0.037
1095	-0.036
1095	-0.035
1095	-0.033
1096	-0.032
1096	-0.03
1097	-0.028
1097	-0.027
1097	-0.025
1098	-0.024
1098	-0.022
1099	-0.021
1099	-0.018
1100	-0.016
1100	-0.014
1100	-0.013
1101	-0.012
1101	-0.01
1102	-0.008
1102	-0.005
1102	-0.003
1103	0.001
1103	0.005
1104	0.009
1104	0.014
1104	0.02
1105	0.025
1105	0.03
1106	0.035
1106	0.04
1107	0.046
1107	0.056
1107	0.067
1108	0.107
1108	0.163
1109	0.244
1109	0.378
1109	0.489
1110	0.748
1110	-0
1111	-0
1111	-0
