Data from 15c-100ul-ns-20ul-nr-full-exp-7ul-bp_Absorbance__366__03803.txt Node

Date: Mon Jan 15 13:53:43 CET 2024
User: Marek
Spectrometer: MAYP115816
Trigger mode: 0
Integration Time (sec): 2.000000E-1
Scans to average: 10
Electric dark correction enabled: true
Nonlinearity correction enabled: true
Boxcar width: 5
XAxis mode: Wavelengths
Number of Pixels in Spectrum: 2068
>>>>>Begin Spectral Data<<<<<
199	-1.567
199	-1.445
200	-1.308
200	-1.202
201	-1.132
201	-1.086
202	-1.02
202	-0.972
203	-0.929
203	-0.896
204	-0.869
204	-0.849
205	-0.829
205	-0.821
205	-0.819
206	-0.818
206	-0.817
207	-0.814
207	-0.811
208	-0.81
208	-0.805
209	-0.804
209	-0.803
210	-0.803
210	-0.802
211	-0.8
211	-0.798
212	-0.796
212	-0.797
213	-0.797
213	-0.796
213	-0.796
214	-0.795
214	-0.797
215	-0.795
215	-0.796
216	-0.796
216	-0.796
217	-0.796
217	-0.795
218	-0.794
218	-0.79
219	-0.788
219	-0.788
220	-0.783
220	-0.78
221	-0.777
221	-0.773
221	-0.767
222	-0.763
222	-0.758
223	-0.75
223	-0.748
224	-0.743
224	-0.735
225	-0.726
225	-0.716
226	-0.707
226	-0.696
227	-0.682
227	-0.667
228	-0.649
228	-0.631
229	-0.608
229	-0.58
229	-0.553
230	-0.524
230	-0.491
231	-0.455
231	-0.42
232	-0.383
232	-0.345
233	-0.305
233	-0.265
234	-0.227
234	-0.19
235	-0.153
235	-0.118
236	-0.085
236	-0.054
236	-0.024
237	0.003
237	0.029
238	0.052
238	0.073
239	0.092
239	0.109
240	0.124
240	0.137
241	0.149
241	0.16
242	0.17
242	0.178
243	0.186
243	0.192
243	0.198
244	0.204
244	0.209
245	0.213
245	0.217
246	0.221
246	0.224
247	0.227
247	0.23
248	0.233
248	0.236
249	0.238
249	0.24
250	0.243
250	0.245
250	0.247
251	0.249
251	0.25
252	0.252
252	0.254
253	0.255
253	0.256
254	0.257
254	0.258
255	0.259
255	0.26
256	0.26
256	0.261
257	0.262
257	0.262
258	0.262
258	0.263
258	0.263
259	0.263
259	0.262
260	0.262
260	0.262
261	0.262
261	0.261
262	0.261
262	0.26
263	0.26
263	0.259
264	0.258
264	0.257
265	0.256
265	0.255
265	0.254
266	0.253
266	0.252
267	0.25
267	0.249
268	0.247
268	0.246
269	0.244
269	0.243
270	0.241
270	0.239
271	0.237
271	0.235
272	0.234
272	0.232
272	0.23
273	0.229
273	0.227
274	0.225
274	0.223
275	0.222
275	0.22
276	0.218
276	0.216
277	0.215
277	0.213
278	0.211
278	0.21
278	0.208
279	0.205
279	0.202
280	0.2
280	0.198
281	0.195
281	0.193
282	0.191
282	0.189
283	0.187
283	0.185
284	0.183
284	0.182
285	0.181
285	0.179
285	0.178
286	0.176
286	0.175
287	0.174
287	0.172
288	0.171
288	0.17
289	0.168
289	0.167
290	0.166
290	0.164
291	0.163
291	0.162
292	0.161
292	0.16
292	0.158
293	0.157
293	0.156
294	0.155
294	0.154
295	0.154
295	0.153
296	0.152
296	0.151
297	0.151
297	0.15
298	0.149
298	0.148
298	0.147
299	0.147
299	0.146
300	0.146
300	0.145
301	0.144
301	0.144
302	0.143
302	0.143
303	0.142
303	0.142
304	0.141
304	0.141
305	0.14
305	0.14
305	0.139
306	0.139
306	0.138
307	0.138
307	0.137
308	0.137
308	0.136
309	0.136
309	0.135
310	0.134
310	0.134
311	0.133
311	0.133
311	0.132
312	0.132
312	0.131
313	0.131
313	0.13
314	0.13
314	0.129
315	0.129
315	0.128
316	0.128
316	0.128
317	0.127
317	0.126
318	0.126
318	0.125
318	0.125
319	0.124
319	0.124
320	0.123
320	0.123
321	0.122
321	0.122
322	0.121
322	0.121
323	0.12
323	0.12
324	0.119
324	0.119
324	0.118
325	0.118
325	0.117
326	0.117
326	0.116
327	0.116
327	0.115
328	0.115
328	0.114
329	0.114
329	0.113
330	0.113
330	0.112
330	0.112
331	0.111
331	0.111
332	0.111
332	0.11
333	0.11
333	0.109
334	0.109
334	0.108
335	0.108
335	0.107
336	0.107
336	0.107
336	0.106
337	0.106
337	0.105
338	0.105
338	0.104
339	0.104
339	0.104
340	0.103
340	0.103
341	0.102
341	0.102
342	0.101
342	0.101
342	0.101
343	0.1
343	0.1
344	0.1
344	0.099
345	0.099
345	0.099
346	0.098
346	0.098
347	0.098
347	0.097
348	0.097
348	0.097
348	0.097
349	0.096
349	0.096
350	0.096
350	0.096
351	0.095
351	0.095
352	0.094
352	0.094
353	0.094
353	0.093
354	0.093
354	0.093
354	0.092
355	0.092
355	0.092
356	0.092
356	0.092
357	0.092
357	0.091
358	0.091
358	0.091
359	0.091
359	0.091
360	0.091
360	0.091
360	0.091
361	0.091
361	0.091
362	0.091
362	0.091
363	0.091
363	0.091
364	0.091
364	0.09
365	0.09
365	0.09
366	0.09
366	0.09
366	0.09
367	0.09
367	0.09
368	0.089
368	0.089
369	0.089
369	0.089
370	0.088
370	0.088
371	0.088
371	0.088
372	0.088
372	0.088
372	0.088
373	0.088
373	0.088
374	0.088
374	0.088
375	0.088
375	0.087
376	0.087
376	0.088
377	0.088
377	0.088
378	0.088
378	0.087
378	0.087
379	0.087
379	0.087
380	0.088
380	0.088
381	0.087
381	0.087
382	0.087
382	0.087
383	0.087
383	0.086
383	0.086
384	0.086
384	0.086
385	0.085
385	0.085
386	0.085
386	0.085
387	0.085
387	0.085
388	0.085
388	0.085
389	0.085
389	0.085
389	0.085
390	0.085
390	0.085
391	0.085
391	0.085
392	0.085
392	0.085
393	0.085
393	0.085
394	0.084
394	0.084
394	0.084
395	0.084
395	0.083
396	0.083
396	0.083
397	0.083
397	0.083
398	0.083
398	0.083
399	0.082
399	0.082
400	0.082
400	0.082
400	0.082
401	0.082
401	0.081
402	0.081
402	0.081
403	0.081
403	0.081
404	0.081
404	0.081
405	0.08
405	0.08
405	0.08
406	0.08
406	0.08
407	0.08
407	0.08
408	0.08
408	0.08
409	0.08
409	0.079
410	0.08
410	0.079
411	0.079
411	0.079
411	0.079
412	0.079
412	0.079
413	0.078
413	0.078
414	0.078
414	0.078
415	0.077
415	0.077
416	0.076
416	0.076
416	0.076
417	0.076
417	0.075
418	0.076
418	0.076
419	0.076
419	0.076
420	0.076
420	0.077
421	0.077
421	0.077
421	0.077
422	0.078
422	0.078
423	0.077
423	0.077
424	0.077
424	0.076
425	0.076
425	0.075
426	0.075
426	0.075
427	0.075
427	0.075
427	0.075
428	0.076
428	0.076
429	0.076
429	0.076
430	0.076
430	0.076
431	0.076
431	0.076
432	0.075
432	0.075
432	0.074
433	0.073
433	0.073
434	0.073
434	0.073
435	0.073
435	0.073
436	0.073
436	0.073
437	0.073
437	0.073
437	0.073
438	0.073
438	0.073
439	0.073
439	0.072
440	0.072
440	0.072
441	0.072
441	0.072
442	0.072
442	0.072
442	0.072
443	0.072
443	0.072
444	0.072
444	0.072
445	0.072
445	0.072
446	0.072
446	0.072
447	0.072
447	0.072
447	0.072
448	0.072
448	0.072
449	0.072
449	0.071
450	0.071
450	0.071
451	0.071
451	0.071
452	0.07
452	0.07
452	0.07
453	0.07
453	0.07
454	0.07
454	0.07
455	0.07
455	0.07
456	0.07
456	0.07
457	0.07
457	0.07
458	0.07
458	0.071
458	0.071
459	0.071
459	0.071
460	0.07
460	0.07
461	0.07
461	0.07
462	0.069
462	0.07
463	0.07
463	0.07
463	0.071
464	0.07
464	0.07
465	0.07
465	0.07
466	0.07
466	0.07
467	0.07
467	0.07
467	0.069
468	0.069
468	0.068
469	0.068
469	0.068
470	0.068
470	0.068
471	0.068
471	0.068
472	0.069
472	0.069
472	0.069
473	0.07
473	0.07
474	0.071
474	0.071
475	0.071
475	0.071
476	0.072
476	0.071
477	0.071
477	0.071
477	0.072
478	0.072
478	0.072
479	0.072
479	0.072
480	0.073
480	0.073
481	0.074
481	0.074
482	0.075
482	0.076
482	0.076
483	0.078
483	0.079
484	0.08
484	0.08
485	0.081
485	0.081
486	0.081
486	0.082
487	0.082
487	0.082
487	0.082
488	0.082
488	0.081
489	0.082
489	0.082
490	0.082
490	0.083
491	0.083
491	0.084
492	0.085
492	0.085
492	0.086
493	0.087
493	0.088
494	0.089
494	0.091
495	0.091
495	0.092
496	0.093
496	0.094
496	0.095
497	0.096
497	0.097
498	0.098
498	0.098
499	0.099
499	0.099
500	0.1
500	0.102
501	0.102
501	0.103
501	0.104
502	0.105
502	0.106
503	0.107
503	0.107
504	0.108
504	0.108
505	0.109
505	0.109
506	0.11
506	0.111
506	0.111
507	0.112
507	0.113
508	0.114
508	0.115
509	0.116
509	0.116
510	0.117
510	0.118
511	0.119
511	0.12
511	0.12
512	0.121
512	0.121
513	0.121
513	0.121
514	0.121
514	0.122
515	0.122
515	0.122
515	0.122
516	0.122
516	0.123
517	0.123
517	0.124
518	0.124
518	0.124
519	0.124
519	0.124
520	0.124
520	0.124
520	0.123
521	0.122
521	0.121
522	0.12
522	0.12
523	0.119
523	0.119
524	0.119
524	0.119
524	0.119
525	0.12
525	0.12
526	0.121
526	0.122
527	0.123
527	0.124
528	0.124
528	0.125
529	0.125
529	0.125
529	0.125
530	0.126
530	0.125
531	0.126
531	0.125
532	0.125
532	0.124
533	0.124
533	0.123
533	0.123
534	0.122
534	0.121
535	0.12
535	0.12
536	0.12
536	0.119
537	0.119
537	0.118
538	0.117
538	0.116
538	0.115
539	0.115
539	0.114
540	0.113
540	0.111
541	0.11
541	0.108
542	0.107
542	0.106
542	0.105
543	0.104
543	0.103
544	0.102
544	0.102
545	0.101
545	0.101
546	0.101
546	0.1
547	0.098
547	0.097
547	0.096
548	0.095
548	0.094
549	0.093
549	0.092
550	0.09
550	0.089
551	0.087
551	0.087
551	0.086
552	0.085
552	0.084
553	0.084
553	0.083
554	0.083
554	0.081
555	0.08
555	0.079
556	0.078
556	0.077
556	0.076
557	0.075
557	0.073
558	0.072
558	0.071
559	0.07
559	0.07
560	0.069
560	0.068
560	0.067
561	0.067
561	0.067
562	0.066
562	0.065
563	0.064
563	0.063
564	0.061
564	0.06
564	0.059
565	0.058
565	0.057
566	0.056
566	0.055
567	0.055
567	0.054
568	0.054
568	0.054
568	0.054
569	0.054
569	0.054
570	0.053
570	0.052
571	0.052
571	0.052
572	0.051
572	0.051
573	0.05
573	0.049
573	0.048
574	0.047
574	0.047
575	0.047
575	0.048
576	0.048
576	0.047
577	0.045
577	0.044
577	0.045
578	0.044
578	0.045
579	0.046
579	0.047
580	0.045
580	0.042
581	0.039
581	0.039
581	0.039
582	0.04
582	0.04
583	0.041
583	0.039
584	0.036
584	0.033
585	0.034
585	0.035
585	0.035
586	0.035
586	0.035
587	0.033
587	0.031
588	0.03
588	0.029
589	0.03
589	0.03
590	0.03
590	0.03
590	0.032
591	0.033
591	0.032
592	0.031
592	0.03
593	0.03
593	0.03
594	0.029
594	0.028
594	0.028
595	0.028
595	0.027
596	0.027
596	0.029
597	0.031
597	0.032
598	0.032
598	0.033
598	0.033
599	0.033
599	0.032
600	0.031
600	0.03
601	0.03
601	0.029
602	0.027
602	0.027
602	0.026
603	0.026
603	0.027
604	0.027
604	0.028
605	0.029
605	0.03
606	0.03
606	0.029
606	0.029
607	0.028
607	0.028
608	0.028
608	0.027
609	0.027
609	0.027
610	0.026
610	0.025
610	0.026
611	0.028
611	0.029
612	0.03
612	0.032
613	0.033
613	0.034
614	0.033
614	0.032
614	0.033
615	0.032
615	0.032
616	0.032
616	0.031
617	0.031
617	0.03
618	0.03
618	0.03
618	0.03
619	0.031
619	0.033
620	0.034
620	0.035
621	0.036
621	0.036
622	0.037
622	0.037
622	0.037
623	0.037
623	0.038
624	0.039
624	0.038
625	0.038
625	0.038
626	0.038
626	0.038
626	0.039
627	0.04
627	0.04
628	0.041
628	0.042
629	0.042
629	0.043
630	0.043
630	0.043
630	0.044
631	0.046
631	0.046
632	0.047
632	0.048
633	0.049
633	0.05
634	0.052
634	0.053
634	0.055
635	0.056
635	0.057
636	0.058
636	0.059
637	0.059
637	0.06
638	0.061
638	0.061
638	0.062
639	0.062
639	0.063
640	0.064
640	0.065
641	0.066
641	0.067
642	0.069
642	0.07
642	0.072
643	0.074
643	0.075
644	0.077
644	0.078
645	0.08
645	0.082
646	0.083
646	0.085
646	0.087
647	0.088
647	0.089
648	0.09
648	0.091
649	0.093
649	0.095
650	0.096
650	0.098
650	0.1
651	0.102
651	0.104
652	0.106
652	0.108
653	0.112
653	0.12
653	0.129
654	0.106
654	0.088
655	0.088
655	0.09
656	0.091
656	0.093
657	0.094
657	0.095
657	0.096
658	0.094
658	0.087
659	0.109
659	0.138
660	0.146
660	0.148
661	0.15
661	0.152
661	0.154
662	0.157
662	0.159
663	0.161
663	0.163
664	0.165
664	0.167
665	0.169
665	0.171
665	0.173
666	0.175
666	0.177
667	0.179
667	0.181
668	0.184
668	0.186
669	0.188
669	0.191
669	0.194
670	0.196
670	0.198
671	0.199
671	0.2
672	0.202
672	0.203
672	0.204
673	0.205
673	0.207
674	0.207
674	0.208
675	0.209
675	0.211
676	0.213
676	0.215
676	0.216
677	0.217
677	0.218
678	0.219
678	0.219
679	0.22
679	0.221
680	0.222
680	0.222
680	0.222
681	0.222
681	0.223
682	0.224
682	0.225
683	0.226
683	0.227
684	0.228
684	0.228
684	0.228
685	0.228
685	0.229
686	0.229
686	0.229
687	0.229
687	0.229
687	0.229
688	0.229
688	0.229
689	0.23
689	0.231
690	0.231
690	0.23
691	0.23
691	0.229
691	0.228
692	0.227
692	0.226
693	0.226
693	0.225
694	0.224
694	0.222
695	0.223
695	0.224
695	0.224
696	0.223
696	0.223
697	0.223
697	0.222
698	0.221
698	0.22
698	0.219
699	0.219
699	0.216
700	0.214
700	0.213
701	0.212
701	0.21
702	0.209
702	0.208
702	0.206
703	0.205
703	0.203
704	0.202
704	0.201
705	0.201
705	0.199
705	0.197
706	0.196
706	0.195
707	0.193
707	0.191
708	0.189
708	0.187
709	0.185
709	0.182
709	0.179
710	0.177
710	0.175
711	0.173
711	0.172
712	0.17
712	0.168
713	0.167
713	0.166
713	0.164
714	0.162
714	0.161
715	0.16
715	0.158
716	0.157
716	0.156
716	0.154
717	0.152
717	0.151
718	0.148
718	0.146
719	0.145
719	0.144
720	0.142
720	0.139
720	0.137
721	0.134
721	0.132
722	0.13
722	0.128
723	0.127
723	0.125
723	0.123
724	0.122
724	0.12
725	0.118
725	0.117
726	0.116
726	0.114
727	0.113
727	0.112
727	0.111
728	0.109
728	0.108
729	0.107
729	0.106
730	0.105
730	0.104
730	0.103
731	0.102
731	0.101
732	0.1
732	0.098
733	0.096
733	0.095
734	0.093
734	0.091
734	0.089
735	0.088
735	0.086
736	0.085
736	0.083
737	0.082
737	0.081
737	0.079
738	0.077
738	0.075
739	0.074
739	0.072
740	0.071
740	0.07
741	0.069
741	0.066
741	0.064
742	0.061
742	0.06
743	0.059
743	0.057
744	0.055
744	0.054
744	0.052
745	0.05
745	0.048
746	0.046
746	0.045
747	0.044
747	0.044
748	0.043
748	0.042
748	0.041
749	0.041
749	0.04
750	0.04
750	0.039
751	0.039
751	0.039
751	0.039
752	0.038
752	0.037
753	0.037
753	0.037
754	0.036
754	0.036
754	0.036
755	0.035
755	0.035
756	0.034
756	0.032
757	0.031
757	0.03
758	0.029
758	0.028
758	0.027
759	0.025
759	0.023
760	0.022
760	0.02
761	0.02
761	0.02
761	0.019
762	0.018
762	0.017
763	0.016
763	0.014
764	0.012
764	0.01
764	0.008
765	0.006
765	0.004
766	0.003
766	0.002
767	0.001
767	-0.002
768	-0.004
768	-0.005
768	-0.006
769	-0.006
769	-0.007
770	-0.008
770	-0.009
771	-0.011
771	-0.013
771	-0.015
772	-0.016
772	-0.017
773	-0.019
773	-0.021
774	-0.023
774	-0.025
775	-0.026
775	-0.029
775	-0.031
776	-0.033
776	-0.036
777	-0.038
777	-0.04
778	-0.043
778	-0.045
778	-0.048
779	-0.049
779	-0.05
780	-0.053
780	-0.055
781	-0.058
781	-0.062
781	-0.066
782	-0.071
782	-0.076
783	-0.081
783	-0.087
784	-0.093
784	-0.099
784	-0.105
785	-0.111
785	-0.116
786	-0.12
786	-0.12
787	-0.117
787	-0.116
788	-0.117
788	-0.118
788	-0.119
789	-0.12
789	-0.119
790	-0.116
790	-0.114
791	-0.114
791	-0.115
791	-0.118
792	-0.113
792	-0.103
793	-0.097
793	-0.094
794	-0.093
794	-0.095
794	-0.099
795	-0.102
795	-0.102
796	-0.102
796	-0.105
797	-0.113
797	-0.123
797	-0.129
798	-0.134
798	-0.136
799	-0.137
799	-0.137
800	-0.137
800	-0.139
801	-0.142
801	-0.143
801	-0.144
802	-0.146
802	-0.147
803	-0.148
803	-0.148
804	-0.147
804	-0.142
804	-0.135
805	-0.131
805	-0.129
806	-0.127
806	-0.125
807	-0.124
807	-0.124
807	-0.123
808	-0.123
808	-0.124
809	-0.129
809	-0.134
810	-0.138
810	-0.14
810	-0.143
811	-0.146
811	-0.146
812	-0.141
812	-0.138
813	-0.137
813	-0.137
813	-0.137
814	-0.138
814	-0.137
815	-0.135
815	-0.132
816	-0.13
816	-0.131
817	-0.135
817	-0.137
817	-0.135
818	-0.132
818	-0.127
819	-0.122
819	-0.117
820	-0.114
820	-0.111
820	-0.106
821	-0.1
821	-0.094
822	-0.088
822	-0.083
823	-0.078
823	-0.075
823	-0.071
824	-0.068
824	-0.063
825	-0.059
825	-0.055
826	-0.052
826	-0.049
826	-0.047
827	-0.044
827	-0.042
828	-0.04
828	-0.038
829	-0.036
829	-0.035
829	-0.034
830	-0.033
830	-0.031
831	-0.03
831	-0.029
832	-0.028
832	-0.027
832	-0.027
833	-0.026
833	-0.026
834	-0.025
834	-0.025
835	-0.025
835	-0.025
835	-0.025
836	-0.024
836	-0.024
837	-0.023
837	-0.022
838	-0.022
838	-0.022
839	-0.021
839	-0.021
839	-0.02
840	-0.02
840	-0.019
841	-0.018
841	-0.018
842	-0.017
842	-0.016
842	-0.015
843	-0.014
843	-0.013
844	-0.013
844	-0.012
845	-0.012
845	-0.012
845	-0.012
846	-0.012
846	-0.013
847	-0.014
847	-0.014
848	-0.015
848	-0.016
848	-0.017
849	-0.017
849	-0.018
850	-0.019
850	-0.019
851	-0.02
851	-0.02
851	-0.02
852	-0.02
852	-0.02
853	-0.02
853	-0.02
854	-0.019
854	-0.019
854	-0.019
855	-0.018
855	-0.018
856	-0.017
856	-0.017
857	-0.016
857	-0.016
857	-0.016
858	-0.016
858	-0.016
859	-0.016
859	-0.015
860	-0.015
860	-0.014
860	-0.014
861	-0.014
861	-0.014
862	-0.014
862	-0.013
863	-0.013
863	-0.013
863	-0.013
864	-0.013
864	-0.013
865	-0.013
865	-0.014
866	-0.014
866	-0.015
866	-0.015
867	-0.015
867	-0.015
868	-0.014
868	-0.014
869	-0.013
869	-0.013
869	-0.013
870	-0.013
870	-0.013
871	-0.012
871	-0.012
872	-0.012
872	-0.013
872	-0.013
873	-0.013
873	-0.013
874	-0.013
874	-0.013
875	-0.013
875	-0.013
875	-0.013
876	-0.013
876	-0.014
877	-0.014
877	-0.014
878	-0.015
878	-0.016
878	-0.017
879	-0.017
879	-0.018
880	-0.019
880	-0.019
881	-0.019
881	-0.019
881	-0.019
882	-0.018
882	-0.018
883	-0.017
883	-0.016
884	-0.015
884	-0.015
884	-0.014
885	-0.014
885	-0.013
886	-0.013
886	-0.012
887	-0.012
887	-0.012
887	-0.012
888	-0.011
888	-0.011
889	-0.01
889	-0.009
890	-0.008
890	-0.008
890	-0.007
891	-0.007
891	-0.007
892	-0.007
892	-0.007
893	-0.007
893	-0.008
893	-0.008
894	-0.009
894	-0.01
895	-0.011
895	-0.011
895	-0.013
896	-0.013
896	-0.014
897	-0.015
897	-0.015
898	-0.015
898	-0.016
898	-0.016
899	-0.016
899	-0.016
900	-0.016
900	-0.015
901	-0.015
901	-0.015
901	-0.015
902	-0.015
902	-0.015
903	-0.015
903	-0.016
904	-0.016
904	-0.017
904	-0.017
905	-0.018
905	-0.018
906	-0.019
906	-0.019
907	-0.019
907	-0.02
907	-0.02
908	-0.02
908	-0.02
909	-0.02
909	-0.02
910	-0.02
910	-0.02
910	-0.019
911	-0.019
911	-0.019
912	-0.019
912	-0.019
913	-0.019
913	-0.019
913	-0.019
914	-0.02
914	-0.021
915	-0.022
915	-0.023
916	-0.023
916	-0.024
916	-0.025
917	-0.025
917	-0.025
918	-0.025
918	-0.024
918	-0.024
919	-0.023
919	-0.021
920	-0.02
920	-0.019
921	-0.018
921	-0.017
921	-0.016
922	-0.015
922	-0.014
923	-0.013
923	-0.012
924	-0.011
924	-0.011
924	-0.011
925	-0.01
925	-0.01
926	-0.01
926	-0.01
927	-0.01
927	-0.011
927	-0.011
928	-0.011
928	-0.012
929	-0.012
929	-0.013
930	-0.013
930	-0.014
930	-0.015
931	-0.016
931	-0.017
932	-0.018
932	-0.019
933	-0.02
933	-0.021
933	-0.022
934	-0.023
934	-0.025
935	-0.025
935	-0.027
935	-0.027
936	-0.028
936	-0.028
937	-0.028
937	-0.028
938	-0.028
938	-0.027
938	-0.027
939	-0.026
939	-0.025
940	-0.024
940	-0.024
941	-0.023
941	-0.022
941	-0.021
942	-0.02
942	-0.02
943	-0.019
943	-0.019
944	-0.019
944	-0.018
944	-0.018
945	-0.018
945	-0.017
946	-0.017
946	-0.017
946	-0.016
947	-0.016
947	-0.016
948	-0.015
948	-0.015
949	-0.015
949	-0.014
949	-0.014
950	-0.013
950	-0.013
951	-0.013
951	-0.013
952	-0.013
952	-0.013
952	-0.013
953	-0.013
953	-0.014
954	-0.014
954	-0.015
955	-0.015
955	-0.015
955	-0.015
956	-0.015
956	-0.015
957	-0.015
957	-0.016
957	-0.016
958	-0.016
958	-0.016
959	-0.017
959	-0.017
960	-0.018
960	-0.018
960	-0.02
961	-0.021
961	-0.021
962	-0.022
962	-0.022
963	-0.022
963	-0.022
963	-0.022
964	-0.021
964	-0.021
965	-0.02
965	-0.019
966	-0.018
966	-0.016
966	-0.015
967	-0.014
967	-0.014
968	-0.014
968	-0.014
968	-0.013
969	-0.014
969	-0.014
970	-0.014
970	-0.015
971	-0.015
971	-0.015
971	-0.016
972	-0.016
972	-0.016
973	-0.017
973	-0.017
974	-0.018
974	-0.018
974	-0.018
975	-0.019
975	-0.019
976	-0.02
976	-0.021
976	-0.022
977	-0.023
977	-0.024
978	-0.025
978	-0.026
979	-0.026
979	-0.027
979	-0.027
980	-0.028
980	-0.028
981	-0.028
981	-0.027
982	-0.027
982	-0.026
982	-0.025
983	-0.024
983	-0.022
984	-0.021
984	-0.02
984	-0.02
985	-0.019
985	-0.019
986	-0.019
986	-0.019
987	-0.019
987	-0.02
987	-0.02
988	-0.02
988	-0.021
989	-0.022
989	-0.022
990	-0.023
990	-0.023
990	-0.023
991	-0.023
991	-0.024
992	-0.024
992	-0.024
992	-0.025
993	-0.026
993	-0.026
994	-0.027
994	-0.028
995	-0.029
995	-0.03
995	-0.031
996	-0.032
996	-0.033
997	-0.033
997	-0.034
997	-0.034
998	-0.033
998	-0.032
999	-0.031
999	-0.03
1000	-0.029
1000	-0.028
1000	-0.027
1001	-0.026
1001	-0.025
1002	-0.024
1002	-0.023
1003	-0.022
1003	-0.022
1003	-0.022
1004	-0.021
1004	-0.021
1005	-0.021
1005	-0.021
1005	-0.021
1006	-0.02
1006	-0.02
1007	-0.02
1007	-0.02
1008	-0.02
1008	-0.02
1008	-0.019
1009	-0.019
1009	-0.019
1010	-0.019
1010	-0.018
1010	-0.018
1011	-0.018
1011	-0.018
1012	-0.018
1012	-0.018
1013	-0.018
1013	-0.019
1013	-0.02
1014	-0.02
1014	-0.021
1015	-0.022
1015	-0.024
1016	-0.025
1016	-0.026
1016	-0.027
1017	-0.028
1017	-0.029
1018	-0.03
1018	-0.031
1018	-0.031
1019	-0.032
1019	-0.032
1020	-0.032
1020	-0.033
1021	-0.033
1021	-0.033
1021	-0.033
1022	-0.033
1022	-0.033
1023	-0.033
1023	-0.034
1023	-0.034
1024	-0.035
1024	-0.035
1025	-0.036
1025	-0.036
1026	-0.037
1026	-0.037
1026	-0.037
1027	-0.037
1027	-0.037
1028	-0.037
1028	-0.036
1028	-0.036
1029	-0.035
1029	-0.035
1030	-0.034
1030	-0.034
1031	-0.033
1031	-0.032
1031	-0.031
1032	-0.031
1032	-0.03
1033	-0.03
1033	-0.029
1033	-0.03
1034	-0.03
1034	-0.031
1035	-0.031
1035	-0.032
1036	-0.032
1036	-0.033
1036	-0.033
1037	-0.034
1037	-0.034
1038	-0.035
1038	-0.035
1039	-0.035
1039	-0.035
1039	-0.035
1040	-0.035
1040	-0.035
1041	-0.036
1041	-0.037
1041	-0.038
1042	-0.038
1042	-0.039
1043	-0.041
1043	-0.042
1044	-0.043
1044	-0.044
1044	-0.044
1045	-0.045
1045	-0.046
1046	-0.047
1046	-0.047
1046	-0.047
1047	-0.046
1047	-0.046
1048	-0.045
1048	-0.045
1049	-0.045
1049	-0.045
1049	-0.046
1050	-0.046
1050	-0.046
1051	-0.046
1051	-0.046
1051	-0.046
1052	-0.045
1052	-0.045
1053	-0.045
1053	-0.044
1053	-0.044
1054	-0.043
1054	-0.041
1055	-0.04
1055	-0.039
1056	-0.039
1056	-0.039
1056	-0.039
1057	-0.04
1057	-0.04
1058	-0.04
1058	-0.04
1058	-0.041
1059	-0.041
1059	-0.042
1060	-0.042
1060	-0.042
1061	-0.043
1061	-0.043
1061	-0.043
1062	-0.042
1062	-0.043
1063	-0.043
1063	-0.044
1063	-0.044
1064	-0.045
1064	-0.045
1065	-0.045
1065	-0.045
1066	-0.045
1066	-0.046
1066	-0.046
1067	-0.046
1067	-0.046
1068	-0.047
1068	-0.047
1068	-0.047
1069	-0.048
1069	-0.048
1070	-0.048
1070	-0.048
1071	-0.048
1071	-0.048
1071	-0.049
1072	-0.048
1072	-0.048
1073	-0.047
1073	-0.046
1073	-0.046
1074	-0.045
1074	-0.045
1075	-0.044
1075	-0.044
1076	-0.044
1076	-0.044
1076	-0.045
1077	-0.045
1077	-0.045
1078	-0.046
1078	-0.045
1078	-0.046
1079	-0.045
1079	-0.045
1080	-0.045
1080	-0.044
1080	-0.045
1081	-0.044
1081	-0.043
1082	-0.043
1082	-0.043
1083	-0.044
1083	-0.043
1083	-0.043
1084	-0.043
1084	-0.042
1085	-0.042
1085	-0.041
1085	-0.041
1086	-0.041
1086	-0.042
1087	-0.041
1087	-0.04
1088	-0.041
1088	-0.041
1088	-0.041
1089	-0.041
1089	-0.04
1090	-0.041
1090	-0.04
1090	-0.04
1091	-0.039
1091	-0.037
1092	-0.037
1092	-0.035
1092	-0.034
1093	-0.033
1093	-0.031
1094	-0.03
1094	-0.029
1095	-0.028
1095	-0.027
1095	-0.025
1096	-0.024
1096	-0.022
1097	-0.02
1097	-0.019
1097	-0.016
1098	-0.015
1098	-0.013
1099	-0.011
1099	-0.008
1100	-0.006
1100	-0.003
1100	-0
1101	0.002
1101	0.003
1102	0.007
1102	0.009
1102	0.014
1103	0.017
1103	0.021
1104	0.027
1104	0.033
1104	0.04
1105	0.045
1105	0.051
1106	0.056
1106	0.064
1107	0.07
1107	0.082
1107	0.096
1108	0.144
1108	0.209
1109	0.311
1109	0.486
1109	0.659
1110	1.212
1110	-0
1111	-0
1111	-0
