Data from 15c-100ul-ns-20ul-nr-full-exp-7ul-bp_Absorbance__21__03458.txt Node

Date: Mon Jan 15 13:42:13 CET 2024
User: Marek
Spectrometer: MAYP115816
Trigger mode: 0
Integration Time (sec): 2.000000E-1
Scans to average: 10
Electric dark correction enabled: true
Nonlinearity correction enabled: true
Boxcar width: 5
XAxis mode: Wavelengths
Number of Pixels in Spectrum: 2068
>>>>>Begin Spectral Data<<<<<
199	-1.794
199	-1.666
200	-1.525
200	-1.416
201	-1.344
201	-1.294
202	-1.225
202	-1.171
203	-1.124
203	-1.085
204	-1.057
204	-1.035
205	-1.014
205	-1.005
205	-1.003
206	-1.001
206	-1
207	-0.996
207	-0.993
208	-0.992
208	-0.986
209	-0.985
209	-0.984
210	-0.984
210	-0.982
211	-0.98
211	-0.978
212	-0.976
212	-0.975
213	-0.975
213	-0.973
213	-0.974
214	-0.973
214	-0.973
215	-0.973
215	-0.973
216	-0.973
216	-0.973
217	-0.972
217	-0.972
218	-0.971
218	-0.968
219	-0.966
219	-0.966
220	-0.961
220	-0.957
221	-0.953
221	-0.948
221	-0.943
222	-0.938
222	-0.933
223	-0.926
223	-0.922
224	-0.917
224	-0.909
225	-0.9
225	-0.89
226	-0.88
226	-0.869
227	-0.854
227	-0.838
228	-0.82
228	-0.8
229	-0.777
229	-0.748
229	-0.721
230	-0.69
230	-0.657
231	-0.619
231	-0.582
232	-0.544
232	-0.502
233	-0.461
233	-0.418
234	-0.376
234	-0.335
235	-0.294
235	-0.255
236	-0.218
236	-0.181
236	-0.146
237	-0.114
237	-0.084
238	-0.056
238	-0.03
239	-0.005
239	0.016
240	0.035
240	0.053
241	0.069
241	0.083
242	0.096
242	0.108
243	0.119
243	0.128
243	0.137
244	0.144
244	0.151
245	0.157
245	0.163
246	0.169
246	0.174
247	0.178
247	0.183
248	0.187
248	0.19
249	0.193
249	0.197
250	0.2
250	0.203
250	0.205
251	0.208
251	0.21
252	0.212
252	0.214
253	0.216
253	0.218
254	0.219
254	0.221
255	0.222
255	0.223
256	0.224
256	0.225
257	0.226
257	0.227
258	0.228
258	0.228
258	0.229
259	0.229
259	0.229
260	0.23
260	0.23
261	0.23
261	0.23
262	0.229
262	0.229
263	0.229
263	0.228
264	0.228
264	0.227
265	0.226
265	0.226
265	0.225
266	0.224
266	0.223
267	0.222
267	0.221
268	0.22
268	0.219
269	0.218
269	0.216
270	0.215
270	0.214
271	0.212
271	0.211
272	0.21
272	0.208
272	0.207
273	0.206
273	0.204
274	0.203
274	0.202
275	0.2
275	0.199
276	0.197
276	0.196
277	0.194
277	0.193
278	0.191
278	0.19
278	0.189
279	0.187
279	0.185
280	0.183
280	0.182
281	0.18
281	0.179
282	0.177
282	0.176
283	0.174
283	0.173
284	0.172
284	0.171
285	0.17
285	0.169
285	0.168
286	0.167
286	0.166
287	0.165
287	0.164
288	0.163
288	0.162
289	0.161
289	0.16
290	0.159
290	0.158
291	0.157
291	0.156
292	0.156
292	0.155
292	0.154
293	0.153
293	0.153
294	0.152
294	0.151
295	0.151
295	0.15
296	0.149
296	0.149
297	0.148
297	0.148
298	0.148
298	0.147
298	0.147
299	0.146
299	0.146
300	0.146
300	0.145
301	0.145
301	0.144
302	0.144
302	0.144
303	0.143
303	0.143
304	0.143
304	0.143
305	0.142
305	0.142
305	0.141
306	0.141
306	0.141
307	0.14
307	0.14
308	0.14
308	0.139
309	0.139
309	0.138
310	0.138
310	0.138
311	0.138
311	0.137
311	0.137
312	0.137
312	0.136
313	0.136
313	0.135
314	0.135
314	0.135
315	0.134
315	0.134
316	0.134
316	0.133
317	0.133
317	0.132
318	0.132
318	0.132
318	0.131
319	0.131
319	0.13
320	0.13
320	0.13
321	0.129
321	0.129
322	0.128
322	0.128
323	0.128
323	0.127
324	0.127
324	0.126
324	0.126
325	0.126
325	0.125
326	0.125
326	0.124
327	0.124
327	0.123
328	0.123
328	0.123
329	0.122
329	0.122
330	0.121
330	0.121
330	0.121
331	0.12
331	0.12
332	0.119
332	0.119
333	0.119
333	0.118
334	0.118
334	0.117
335	0.117
335	0.117
336	0.116
336	0.116
336	0.115
337	0.115
337	0.114
338	0.114
338	0.114
339	0.113
339	0.113
340	0.113
340	0.112
341	0.112
341	0.111
342	0.111
342	0.11
342	0.11
343	0.11
343	0.109
344	0.109
344	0.109
345	0.108
345	0.108
346	0.108
346	0.107
347	0.107
347	0.107
348	0.106
348	0.106
348	0.106
349	0.105
349	0.105
350	0.105
350	0.104
351	0.104
351	0.104
352	0.103
352	0.103
353	0.102
353	0.102
354	0.101
354	0.101
354	0.1
355	0.1
355	0.1
356	0.1
356	0.1
357	0.099
357	0.099
358	0.099
358	0.099
359	0.099
359	0.099
360	0.1
360	0.1
360	0.1
361	0.1
361	0.1
362	0.1
362	0.1
363	0.1
363	0.1
364	0.1
364	0.099
365	0.099
365	0.099
366	0.099
366	0.099
366	0.099
367	0.099
367	0.099
368	0.098
368	0.098
369	0.098
369	0.098
370	0.097
370	0.097
371	0.097
371	0.097
372	0.097
372	0.097
372	0.096
373	0.096
373	0.097
374	0.097
374	0.097
375	0.097
375	0.097
376	0.097
376	0.097
377	0.097
377	0.097
378	0.097
378	0.097
378	0.097
379	0.097
379	0.097
380	0.098
380	0.098
381	0.097
381	0.097
382	0.097
382	0.097
383	0.097
383	0.097
383	0.096
384	0.096
384	0.096
385	0.096
385	0.096
386	0.096
386	0.096
387	0.096
387	0.096
388	0.096
388	0.095
389	0.096
389	0.096
389	0.096
390	0.096
390	0.096
391	0.096
391	0.096
392	0.096
392	0.096
393	0.096
393	0.096
394	0.096
394	0.096
394	0.096
395	0.096
395	0.095
396	0.095
396	0.095
397	0.095
397	0.095
398	0.095
398	0.095
399	0.095
399	0.095
400	0.095
400	0.095
400	0.095
401	0.094
401	0.094
402	0.093
402	0.093
403	0.093
403	0.093
404	0.093
404	0.093
405	0.093
405	0.093
405	0.092
406	0.093
406	0.093
407	0.093
407	0.093
408	0.092
408	0.092
409	0.092
409	0.092
410	0.092
410	0.092
411	0.092
411	0.092
411	0.092
412	0.091
412	0.091
413	0.091
413	0.091
414	0.09
414	0.09
415	0.09
415	0.089
416	0.089
416	0.089
416	0.088
417	0.088
417	0.088
418	0.088
418	0.088
419	0.089
419	0.089
420	0.089
420	0.09
421	0.09
421	0.09
421	0.09
422	0.091
422	0.091
423	0.09
423	0.09
424	0.089
424	0.089
425	0.089
425	0.088
426	0.088
426	0.088
427	0.088
427	0.088
427	0.088
428	0.088
428	0.089
429	0.089
429	0.089
430	0.089
430	0.089
431	0.089
431	0.089
432	0.089
432	0.088
432	0.087
433	0.086
433	0.086
434	0.086
434	0.086
435	0.085
435	0.085
436	0.085
436	0.085
437	0.085
437	0.085
437	0.085
438	0.085
438	0.085
439	0.085
439	0.084
440	0.084
440	0.084
441	0.084
441	0.084
442	0.084
442	0.084
442	0.084
443	0.084
443	0.084
444	0.084
444	0.084
445	0.084
445	0.084
446	0.084
446	0.084
447	0.084
447	0.084
447	0.084
448	0.083
448	0.083
449	0.083
449	0.083
450	0.083
450	0.082
451	0.082
451	0.082
452	0.081
452	0.081
452	0.081
453	0.081
453	0.08
454	0.08
454	0.08
455	0.08
455	0.08
456	0.08
456	0.08
457	0.08
457	0.08
458	0.08
458	0.08
458	0.08
459	0.08
459	0.08
460	0.079
460	0.079
461	0.078
461	0.078
462	0.078
462	0.078
463	0.078
463	0.078
463	0.078
464	0.078
464	0.078
465	0.078
465	0.078
466	0.078
466	0.078
467	0.078
467	0.077
467	0.077
468	0.076
468	0.074
469	0.074
469	0.073
470	0.073
470	0.073
471	0.073
471	0.072
472	0.072
472	0.073
472	0.073
473	0.073
473	0.074
474	0.074
474	0.075
475	0.075
475	0.075
476	0.075
476	0.075
477	0.075
477	0.075
477	0.075
478	0.075
478	0.075
479	0.075
479	0.075
480	0.075
480	0.075
481	0.075
481	0.076
482	0.077
482	0.077
482	0.078
483	0.079
483	0.081
484	0.082
484	0.082
485	0.083
485	0.083
486	0.083
486	0.083
487	0.083
487	0.083
487	0.083
488	0.083
488	0.081
489	0.081
489	0.08
490	0.08
490	0.08
491	0.08
491	0.08
492	0.08
492	0.08
492	0.08
493	0.081
493	0.082
494	0.083
494	0.085
495	0.086
495	0.086
496	0.087
496	0.088
496	0.088
497	0.089
497	0.089
498	0.09
498	0.09
499	0.09
499	0.09
500	0.09
500	0.091
501	0.092
501	0.092
501	0.093
502	0.093
502	0.094
503	0.095
503	0.095
504	0.096
504	0.096
505	0.096
505	0.096
506	0.097
506	0.097
506	0.097
507	0.097
507	0.098
508	0.098
508	0.099
509	0.099
509	0.099
510	0.1
510	0.1
511	0.1
511	0.101
511	0.101
512	0.102
512	0.101
513	0.101
513	0.101
514	0.1
514	0.101
515	0.101
515	0.1
515	0.1
516	0.1
516	0.1
517	0.099
517	0.1
518	0.1
518	0.1
519	0.1
519	0.1
520	0.099
520	0.099
520	0.099
521	0.098
521	0.097
522	0.096
522	0.095
523	0.094
523	0.093
524	0.093
524	0.092
524	0.092
525	0.092
525	0.093
526	0.093
526	0.095
527	0.096
527	0.098
528	0.099
528	0.101
529	0.102
529	0.103
529	0.104
530	0.105
530	0.105
531	0.106
531	0.107
532	0.107
532	0.107
533	0.107
533	0.107
533	0.107
534	0.107
534	0.107
535	0.107
535	0.107
536	0.107
536	0.108
537	0.108
537	0.108
538	0.108
538	0.108
538	0.107
539	0.107
539	0.107
540	0.107
540	0.106
541	0.105
541	0.104
542	0.104
542	0.103
542	0.103
543	0.103
543	0.103
544	0.103
544	0.103
545	0.103
545	0.103
546	0.104
546	0.104
547	0.104
547	0.103
547	0.102
548	0.102
548	0.102
549	0.101
549	0.101
550	0.1
550	0.099
551	0.099
551	0.098
551	0.098
552	0.098
552	0.098
553	0.098
553	0.099
554	0.099
554	0.099
555	0.098
555	0.098
556	0.097
556	0.097
556	0.096
557	0.095
557	0.095
558	0.094
558	0.094
559	0.094
559	0.094
560	0.094
560	0.094
560	0.094
561	0.095
561	0.096
562	0.096
562	0.096
563	0.095
563	0.095
564	0.094
564	0.093
564	0.093
565	0.092
565	0.092
566	0.092
566	0.092
567	0.092
567	0.093
568	0.094
568	0.095
568	0.096
569	0.098
569	0.099
570	0.099
570	0.099
571	0.1
571	0.101
572	0.101
572	0.102
573	0.102
573	0.102
573	0.101
574	0.101
574	0.102
575	0.102
575	0.104
576	0.105
576	0.104
577	0.103
577	0.103
577	0.104
578	0.104
578	0.105
579	0.106
579	0.108
580	0.107
580	0.105
581	0.103
581	0.103
581	0.103
582	0.104
582	0.104
583	0.105
583	0.104
584	0.102
584	0.099
585	0.099
585	0.1
585	0.101
586	0.101
586	0.101
587	0.099
587	0.098
588	0.096
588	0.096
589	0.096
589	0.096
590	0.096
590	0.096
590	0.098
591	0.099
591	0.098
592	0.098
592	0.098
593	0.098
593	0.098
594	0.097
594	0.097
594	0.096
595	0.096
595	0.095
596	0.095
596	0.097
597	0.099
597	0.101
598	0.102
598	0.103
598	0.104
599	0.104
599	0.103
600	0.103
600	0.102
601	0.101
601	0.1
602	0.098
602	0.097
602	0.096
603	0.096
603	0.097
604	0.097
604	0.098
605	0.099
605	0.101
606	0.101
606	0.1
606	0.1
607	0.1
607	0.1
608	0.099
608	0.098
609	0.097
609	0.097
610	0.096
610	0.095
610	0.095
611	0.096
611	0.097
612	0.099
612	0.1
613	0.101
613	0.102
614	0.102
614	0.101
614	0.101
615	0.101
615	0.1
616	0.1
616	0.099
617	0.099
617	0.098
618	0.097
618	0.096
618	0.096
619	0.096
619	0.097
620	0.099
620	0.099
621	0.099
621	0.1
622	0.1
622	0.101
622	0.101
623	0.1
623	0.101
624	0.102
624	0.101
625	0.101
625	0.1
626	0.1
626	0.1
626	0.1
627	0.101
627	0.101
628	0.101
628	0.101
629	0.102
629	0.102
630	0.101
630	0.101
630	0.102
631	0.102
631	0.103
632	0.103
632	0.103
633	0.103
633	0.104
634	0.105
634	0.107
634	0.108
635	0.109
635	0.11
636	0.11
636	0.111
637	0.111
637	0.111
638	0.112
638	0.112
638	0.112
639	0.112
639	0.112
640	0.113
640	0.113
641	0.114
641	0.115
642	0.116
642	0.117
642	0.118
643	0.12
643	0.121
644	0.122
644	0.124
645	0.125
645	0.126
646	0.128
646	0.129
646	0.131
647	0.132
647	0.133
648	0.134
648	0.135
649	0.136
649	0.137
650	0.139
650	0.14
650	0.141
651	0.143
651	0.144
652	0.146
652	0.148
653	0.151
653	0.158
653	0.169
654	0.137
654	0.113
655	0.114
655	0.116
656	0.117
656	0.118
657	0.12
657	0.121
657	0.121
658	0.118
658	0.109
659	0.136
659	0.173
660	0.178
660	0.179
661	0.18
661	0.182
661	0.184
662	0.186
662	0.188
663	0.19
663	0.192
664	0.194
664	0.195
665	0.197
665	0.199
665	0.201
666	0.202
666	0.204
667	0.206
667	0.208
668	0.21
668	0.212
669	0.214
669	0.216
669	0.219
670	0.221
670	0.223
671	0.224
671	0.225
672	0.227
672	0.228
672	0.228
673	0.229
673	0.23
674	0.231
674	0.231
675	0.232
675	0.233
676	0.235
676	0.237
676	0.238
677	0.239
677	0.241
678	0.242
678	0.242
679	0.243
679	0.244
680	0.245
680	0.245
680	0.245
681	0.246
681	0.247
682	0.247
682	0.248
683	0.25
683	0.251
684	0.252
684	0.252
684	0.252
685	0.253
685	0.254
686	0.254
686	0.255
687	0.255
687	0.255
687	0.255
688	0.255
688	0.255
689	0.256
689	0.257
690	0.257
690	0.257
691	0.257
691	0.257
691	0.256
692	0.255
692	0.255
693	0.254
693	0.254
694	0.253
694	0.252
695	0.253
695	0.254
695	0.255
696	0.255
696	0.255
697	0.255
697	0.255
698	0.254
698	0.253
698	0.253
699	0.252
699	0.251
700	0.249
700	0.248
701	0.247
701	0.246
702	0.245
702	0.244
702	0.243
703	0.242
703	0.241
704	0.24
704	0.24
705	0.24
705	0.239
705	0.238
706	0.237
706	0.236
707	0.234
707	0.233
708	0.231
708	0.23
709	0.228
709	0.226
709	0.224
710	0.221
710	0.22
711	0.218
711	0.217
712	0.216
712	0.215
713	0.214
713	0.213
713	0.212
714	0.21
714	0.209
715	0.208
715	0.207
716	0.206
716	0.205
716	0.204
717	0.202
717	0.201
718	0.199
718	0.198
719	0.197
719	0.196
720	0.194
720	0.192
720	0.19
721	0.188
721	0.186
722	0.185
722	0.183
723	0.182
723	0.181
723	0.179
724	0.177
724	0.176
725	0.175
725	0.174
726	0.172
726	0.171
727	0.17
727	0.169
727	0.169
728	0.167
728	0.167
729	0.167
729	0.166
730	0.165
730	0.165
730	0.164
731	0.163
731	0.162
732	0.162
732	0.16
733	0.159
733	0.157
734	0.156
734	0.154
734	0.152
735	0.151
735	0.15
736	0.148
736	0.147
737	0.145
737	0.145
737	0.143
738	0.141
738	0.139
739	0.138
739	0.136
740	0.135
740	0.133
741	0.132
741	0.13
741	0.127
742	0.124
742	0.122
743	0.12
743	0.118
744	0.116
744	0.115
744	0.113
745	0.111
745	0.11
746	0.108
746	0.108
747	0.107
747	0.107
748	0.107
748	0.107
748	0.106
749	0.106
749	0.106
750	0.105
750	0.105
751	0.105
751	0.105
751	0.105
752	0.104
752	0.104
753	0.103
753	0.103
754	0.103
754	0.103
754	0.103
755	0.103
755	0.103
756	0.102
756	0.1
757	0.099
757	0.098
758	0.097
758	0.096
758	0.095
759	0.094
759	0.091
760	0.089
760	0.087
761	0.086
761	0.085
761	0.084
762	0.082
762	0.082
763	0.081
763	0.078
764	0.075
764	0.073
764	0.07
765	0.068
765	0.066
766	0.064
766	0.063
767	0.062
767	0.059
768	0.056
768	0.054
768	0.053
769	0.052
769	0.052
770	0.05
770	0.048
771	0.046
771	0.043
771	0.04
772	0.037
772	0.035
773	0.033
773	0.03
774	0.026
774	0.023
775	0.019
775	0.016
775	0.011
776	0.007
776	0.003
777	-0.001
777	-0.005
778	-0.01
778	-0.014
778	-0.019
779	-0.022
779	-0.025
780	-0.03
780	-0.036
781	-0.042
781	-0.049
781	-0.057
782	-0.066
782	-0.075
783	-0.084
783	-0.091
784	-0.099
784	-0.106
784	-0.112
785	-0.118
785	-0.123
786	-0.125
786	-0.124
787	-0.12
787	-0.117
788	-0.115
788	-0.116
788	-0.116
789	-0.118
789	-0.117
790	-0.113
790	-0.112
791	-0.112
791	-0.113
791	-0.115
792	-0.11
792	-0.101
793	-0.095
793	-0.092
794	-0.091
794	-0.093
794	-0.097
795	-0.1
795	-0.1
796	-0.1
796	-0.103
797	-0.111
797	-0.121
797	-0.127
798	-0.132
798	-0.134
799	-0.135
799	-0.135
800	-0.135
800	-0.137
801	-0.14
801	-0.141
801	-0.142
802	-0.144
802	-0.145
803	-0.146
803	-0.146
804	-0.145
804	-0.14
804	-0.133
805	-0.129
805	-0.127
806	-0.125
806	-0.123
807	-0.122
807	-0.121
807	-0.121
808	-0.121
808	-0.122
809	-0.127
809	-0.132
810	-0.136
810	-0.138
810	-0.141
811	-0.144
811	-0.144
812	-0.139
812	-0.136
813	-0.135
813	-0.135
813	-0.135
814	-0.136
814	-0.135
815	-0.133
815	-0.13
816	-0.128
816	-0.129
817	-0.133
817	-0.136
817	-0.134
818	-0.131
818	-0.125
819	-0.118
819	-0.113
820	-0.108
820	-0.103
820	-0.097
821	-0.088
821	-0.078
822	-0.069
822	-0.06
823	-0.052
823	-0.046
823	-0.039
824	-0.032
824	-0.025
825	-0.018
825	-0.011
826	-0.004
826	0
826	0.005
827	0.009
827	0.013
828	0.017
828	0.02
829	0.023
829	0.025
829	0.027
830	0.028
830	0.03
831	0.033
831	0.035
832	0.036
832	0.037
832	0.039
833	0.04
833	0.041
834	0.042
834	0.043
835	0.043
835	0.043
835	0.044
836	0.045
836	0.045
837	0.046
837	0.046
838	0.047
838	0.047
839	0.048
839	0.049
839	0.049
840	0.05
840	0.051
841	0.052
841	0.053
842	0.054
842	0.056
842	0.057
843	0.058
843	0.059
844	0.06
844	0.06
845	0.061
845	0.061
845	0.062
846	0.062
846	0.061
847	0.061
847	0.061
848	0.06
848	0.059
848	0.059
849	0.058
849	0.057
850	0.056
850	0.056
851	0.055
851	0.055
851	0.055
852	0.055
852	0.055
853	0.056
853	0.056
854	0.057
854	0.057
854	0.058
855	0.059
855	0.059
856	0.06
856	0.061
857	0.061
857	0.062
857	0.062
858	0.062
858	0.063
859	0.063
859	0.063
860	0.064
860	0.064
860	0.064
861	0.065
861	0.065
862	0.065
862	0.065
863	0.066
863	0.066
863	0.066
864	0.065
864	0.065
865	0.065
865	0.065
866	0.064
866	0.064
866	0.064
867	0.064
867	0.064
868	0.065
868	0.065
869	0.066
869	0.066
869	0.066
870	0.066
870	0.067
871	0.067
871	0.067
872	0.067
872	0.066
872	0.066
873	0.066
873	0.065
874	0.065
874	0.065
875	0.065
875	0.065
875	0.065
876	0.064
876	0.064
877	0.064
877	0.063
878	0.062
878	0.061
878	0.061
879	0.059
879	0.058
880	0.058
880	0.057
881	0.057
881	0.057
881	0.057
882	0.058
882	0.058
883	0.058
883	0.059
884	0.06
884	0.06
884	0.061
885	0.061
885	0.062
886	0.062
886	0.063
887	0.063
887	0.063
887	0.063
888	0.063
888	0.064
889	0.065
889	0.065
890	0.066
890	0.067
890	0.067
891	0.068
891	0.068
892	0.068
892	0.068
893	0.067
893	0.067
893	0.067
894	0.066
894	0.066
895	0.065
895	0.064
895	0.063
896	0.062
896	0.061
897	0.061
897	0.06
898	0.06
898	0.06
898	0.059
899	0.059
899	0.059
900	0.059
900	0.059
901	0.059
901	0.06
901	0.06
902	0.059
902	0.059
903	0.059
903	0.058
904	0.058
904	0.057
904	0.057
905	0.056
905	0.056
906	0.056
906	0.056
907	0.055
907	0.055
907	0.055
908	0.055
908	0.055
909	0.055
909	0.055
910	0.055
910	0.055
910	0.055
911	0.055
911	0.055
912	0.055
912	0.055
913	0.055
913	0.055
913	0.054
914	0.054
914	0.053
915	0.052
915	0.051
916	0.05
916	0.049
916	0.049
917	0.048
917	0.048
918	0.048
918	0.048
918	0.049
919	0.05
919	0.051
920	0.052
920	0.053
921	0.054
921	0.055
921	0.056
922	0.057
922	0.058
923	0.059
923	0.059
924	0.06
924	0.06
924	0.061
925	0.061
925	0.061
926	0.061
926	0.061
927	0.061
927	0.06
927	0.06
928	0.059
928	0.059
929	0.058
929	0.058
930	0.057
930	0.056
930	0.055
931	0.054
931	0.053
932	0.052
932	0.051
933	0.05
933	0.049
933	0.047
934	0.046
934	0.044
935	0.043
935	0.042
935	0.042
936	0.041
936	0.041
937	0.041
937	0.041
938	0.041
938	0.041
938	0.042
939	0.043
939	0.044
940	0.045
940	0.046
941	0.047
941	0.048
941	0.049
942	0.05
942	0.05
943	0.051
943	0.051
944	0.051
944	0.052
944	0.052
945	0.053
945	0.053
946	0.053
946	0.053
946	0.053
947	0.054
947	0.054
948	0.054
948	0.054
949	0.054
949	0.054
949	0.054
950	0.055
950	0.055
951	0.055
951	0.055
952	0.055
952	0.055
952	0.054
953	0.054
953	0.054
954	0.053
954	0.052
955	0.052
955	0.052
955	0.051
956	0.051
956	0.051
957	0.051
957	0.051
957	0.05
958	0.05
958	0.05
959	0.05
959	0.049
960	0.049
960	0.048
960	0.047
961	0.046
961	0.045
962	0.044
962	0.044
963	0.044
963	0.044
963	0.044
964	0.044
964	0.045
965	0.046
965	0.047
966	0.048
966	0.049
966	0.05
967	0.051
967	0.052
968	0.052
968	0.052
968	0.052
969	0.052
969	0.052
970	0.051
970	0.051
971	0.051
971	0.05
971	0.05
972	0.049
972	0.049
973	0.048
973	0.048
974	0.047
974	0.047
974	0.046
975	0.046
975	0.045
976	0.044
976	0.043
976	0.042
977	0.041
977	0.04
978	0.039
978	0.038
979	0.038
979	0.037
979	0.037
980	0.036
980	0.036
981	0.036
981	0.036
982	0.037
982	0.038
982	0.039
983	0.04
983	0.041
984	0.042
984	0.042
984	0.043
985	0.044
985	0.044
986	0.044
986	0.043
987	0.043
987	0.042
987	0.042
988	0.041
988	0.041
989	0.04
989	0.04
990	0.039
990	0.039
990	0.039
991	0.038
991	0.038
992	0.038
992	0.037
992	0.037
993	0.037
993	0.036
994	0.035
994	0.034
995	0.033
995	0.032
995	0.031
996	0.03
996	0.03
997	0.029
997	0.029
997	0.029
998	0.03
998	0.03
999	0.032
999	0.033
1000	0.034
1000	0.035
1000	0.036
1001	0.037
1001	0.038
1002	0.039
1002	0.039
1003	0.04
1003	0.04
1003	0.04
1004	0.04
1004	0.04
1005	0.04
1005	0.04
1005	0.041
1006	0.041
1006	0.041
1007	0.041
1007	0.041
1008	0.041
1008	0.041
1008	0.041
1009	0.042
1009	0.042
1010	0.042
1010	0.043
1010	0.043
1011	0.043
1011	0.043
1012	0.043
1012	0.043
1013	0.043
1013	0.042
1013	0.042
1014	0.041
1014	0.04
1015	0.039
1015	0.037
1016	0.036
1016	0.035
1016	0.034
1017	0.032
1017	0.031
1018	0.03
1018	0.03
1018	0.029
1019	0.029
1019	0.028
1020	0.028
1020	0.027
1021	0.027
1021	0.027
1021	0.026
1022	0.026
1022	0.026
1023	0.026
1023	0.025
1023	0.025
1024	0.024
1024	0.023
1025	0.023
1025	0.023
1026	0.022
1026	0.022
1026	0.022
1027	0.022
1027	0.022
1028	0.023
1028	0.023
1028	0.024
1029	0.025
1029	0.025
1030	0.026
1030	0.027
1031	0.028
1031	0.029
1031	0.029
1032	0.03
1032	0.031
1033	0.031
1033	0.032
1033	0.031
1034	0.031
1034	0.03
1035	0.03
1035	0.03
1036	0.029
1036	0.029
1036	0.029
1037	0.028
1037	0.028
1038	0.027
1038	0.027
1039	0.027
1039	0.027
1039	0.027
1040	0.027
1040	0.026
1041	0.026
1041	0.025
1041	0.024
1042	0.023
1042	0.022
1043	0.021
1043	0.02
1044	0.019
1044	0.018
1044	0.018
1045	0.017
1045	0.016
1046	0.016
1046	0.016
1046	0.016
1047	0.016
1047	0.017
1048	0.018
1048	0.018
1049	0.018
1049	0.017
1049	0.017
1050	0.017
1050	0.017
1051	0.017
1051	0.016
1051	0.017
1052	0.017
1052	0.017
1053	0.018
1053	0.019
1053	0.019
1054	0.02
1054	0.022
1055	0.023
1055	0.024
1056	0.024
1056	0.024
1056	0.024
1057	0.024
1057	0.024
1058	0.024
1058	0.024
1058	0.024
1059	0.024
1059	0.023
1060	0.023
1060	0.023
1061	0.023
1061	0.024
1061	0.024
1062	0.024
1062	0.024
1063	0.024
1063	0.024
1063	0.023
1064	0.023
1064	0.023
1065	0.023
1065	0.022
1066	0.022
1066	0.022
1066	0.022
1067	0.022
1067	0.022
1068	0.022
1068	0.022
1068	0.022
1069	0.021
1069	0.021
1070	0.021
1070	0.021
1071	0.022
1071	0.022
1071	0.022
1072	0.023
1072	0.024
1073	0.024
1073	0.026
1073	0.026
1074	0.028
1074	0.029
1075	0.029
1075	0.029
1076	0.03
1076	0.031
1076	0.03
1077	0.031
1077	0.031
1078	0.03
1078	0.031
1078	0.031
1079	0.032
1079	0.033
1080	0.033
1080	0.034
1080	0.034
1081	0.035
1081	0.037
1082	0.038
1082	0.039
1083	0.039
1083	0.039
1083	0.041
1084	0.041
1084	0.043
1085	0.043
1085	0.045
1085	0.047
1086	0.047
1086	0.047
1087	0.049
1087	0.05
1088	0.051
1088	0.052
1088	0.054
1089	0.054
1089	0.056
1090	0.056
1090	0.058
1090	0.059
1091	0.061
1091	0.064
1092	0.066
1092	0.07
1092	0.073
1093	0.076
1093	0.08
1094	0.084
1094	0.088
1095	0.091
1095	0.096
1095	0.102
1096	0.106
1096	0.111
1097	0.118
1097	0.122
1097	0.128
1098	0.134
1098	0.141
1099	0.149
1099	0.157
1100	0.165
1100	0.173
1100	0.182
1101	0.192
1101	0.201
1102	0.215
1102	0.229
1102	0.245
1103	0.26
1103	0.278
1104	0.3
1104	0.324
1104	0.353
1105	0.38
1105	0.406
1106	0.437
1106	0.478
1107	0.524
1107	0.598
1107	0.707
1108	1.349
1108	-0
1109	-0
1109	-0
1109	-0
1110	-0
1110	-0
1111	-0
1111	-0
