Data from 15c-100ul-ns-20ul-nr-full-exp-7ul-bp_Absorbance__462__03899.txt Node

Date: Mon Jan 15 13:56:55 CET 2024
User: Marek
Spectrometer: MAYP115816
Trigger mode: 0
Integration Time (sec): 2.000000E-1
Scans to average: 10
Electric dark correction enabled: true
Nonlinearity correction enabled: true
Boxcar width: 5
XAxis mode: Wavelengths
Number of Pixels in Spectrum: 2068
>>>>>Begin Spectral Data<<<<<
199	-1.553
199	-1.431
200	-1.294
200	-1.188
201	-1.119
201	-1.072
202	-1.008
202	-0.959
203	-0.916
203	-0.883
204	-0.856
204	-0.835
205	-0.815
205	-0.807
205	-0.806
206	-0.805
206	-0.805
207	-0.8
207	-0.798
208	-0.798
208	-0.793
209	-0.792
209	-0.792
210	-0.792
210	-0.791
211	-0.789
211	-0.788
212	-0.786
212	-0.786
213	-0.786
213	-0.785
213	-0.785
214	-0.784
214	-0.785
215	-0.784
215	-0.785
216	-0.785
216	-0.784
217	-0.783
217	-0.782
218	-0.781
218	-0.777
219	-0.776
219	-0.775
220	-0.771
220	-0.768
221	-0.765
221	-0.761
221	-0.756
222	-0.752
222	-0.747
223	-0.74
223	-0.737
224	-0.732
224	-0.724
225	-0.715
225	-0.705
226	-0.696
226	-0.684
227	-0.67
227	-0.655
228	-0.637
228	-0.619
229	-0.596
229	-0.568
229	-0.541
230	-0.511
230	-0.479
231	-0.443
231	-0.407
232	-0.372
232	-0.333
233	-0.293
233	-0.254
234	-0.216
234	-0.179
235	-0.143
235	-0.108
236	-0.075
236	-0.043
236	-0.014
237	0.013
237	0.038
238	0.061
238	0.082
239	0.101
239	0.118
240	0.133
240	0.146
241	0.158
241	0.168
242	0.178
242	0.186
243	0.194
243	0.201
243	0.207
244	0.213
244	0.218
245	0.222
245	0.226
246	0.23
246	0.233
247	0.237
247	0.24
248	0.242
248	0.245
249	0.247
249	0.249
250	0.251
250	0.253
250	0.255
251	0.257
251	0.259
252	0.26
252	0.262
253	0.263
253	0.264
254	0.265
254	0.266
255	0.267
255	0.268
256	0.268
256	0.269
257	0.269
257	0.27
258	0.27
258	0.271
258	0.271
259	0.271
259	0.27
260	0.27
260	0.27
261	0.27
261	0.27
262	0.269
262	0.268
263	0.267
263	0.266
264	0.266
264	0.265
265	0.264
265	0.263
265	0.262
266	0.261
266	0.259
267	0.258
267	0.257
268	0.255
268	0.254
269	0.252
269	0.251
270	0.249
270	0.247
271	0.245
271	0.243
272	0.242
272	0.24
272	0.238
273	0.236
273	0.234
274	0.233
274	0.231
275	0.229
275	0.227
276	0.225
276	0.224
277	0.222
277	0.22
278	0.219
278	0.217
278	0.214
279	0.211
279	0.209
280	0.207
280	0.204
281	0.202
281	0.2
282	0.197
282	0.195
283	0.193
283	0.191
284	0.19
284	0.189
285	0.187
285	0.186
285	0.184
286	0.183
286	0.181
287	0.18
287	0.179
288	0.177
288	0.176
289	0.175
289	0.174
290	0.172
290	0.171
291	0.17
291	0.169
292	0.168
292	0.166
292	0.165
293	0.164
293	0.163
294	0.162
294	0.161
295	0.16
295	0.159
296	0.158
296	0.157
297	0.157
297	0.156
298	0.155
298	0.155
298	0.154
299	0.153
299	0.153
300	0.152
300	0.151
301	0.151
301	0.15
302	0.149
302	0.149
303	0.148
303	0.148
304	0.147
304	0.147
305	0.146
305	0.146
305	0.145
306	0.145
306	0.144
307	0.144
307	0.143
308	0.142
308	0.142
309	0.141
309	0.141
310	0.14
310	0.14
311	0.139
311	0.138
311	0.138
312	0.138
312	0.137
313	0.137
313	0.136
314	0.135
314	0.135
315	0.135
315	0.134
316	0.134
316	0.133
317	0.133
317	0.132
318	0.131
318	0.131
318	0.131
319	0.13
319	0.129
320	0.129
320	0.128
321	0.128
321	0.127
322	0.127
322	0.126
323	0.126
323	0.125
324	0.124
324	0.124
324	0.123
325	0.123
325	0.122
326	0.122
326	0.122
327	0.121
327	0.121
328	0.12
328	0.12
329	0.119
329	0.119
330	0.118
330	0.118
330	0.117
331	0.117
331	0.116
332	0.116
332	0.116
333	0.115
333	0.115
334	0.114
334	0.113
335	0.113
335	0.112
336	0.112
336	0.111
336	0.111
337	0.111
337	0.11
338	0.11
338	0.109
339	0.109
339	0.109
340	0.108
340	0.108
341	0.107
341	0.107
342	0.107
342	0.106
342	0.106
343	0.106
343	0.105
344	0.105
344	0.104
345	0.104
345	0.104
346	0.103
346	0.103
347	0.103
347	0.103
348	0.102
348	0.102
348	0.102
349	0.101
349	0.101
350	0.101
350	0.101
351	0.1
351	0.1
352	0.099
352	0.099
353	0.099
353	0.098
354	0.098
354	0.098
354	0.098
355	0.097
355	0.097
356	0.097
356	0.097
357	0.097
357	0.097
358	0.097
358	0.097
359	0.096
359	0.097
360	0.096
360	0.096
360	0.096
361	0.096
361	0.096
362	0.096
362	0.096
363	0.096
363	0.096
364	0.096
364	0.096
365	0.096
365	0.095
366	0.095
366	0.095
366	0.095
367	0.095
367	0.095
368	0.095
368	0.094
369	0.094
369	0.094
370	0.094
370	0.093
371	0.093
371	0.093
372	0.093
372	0.093
372	0.093
373	0.093
373	0.093
374	0.093
374	0.093
375	0.093
375	0.092
376	0.092
376	0.092
377	0.092
377	0.092
378	0.092
378	0.092
378	0.092
379	0.092
379	0.092
380	0.092
380	0.092
381	0.092
381	0.091
382	0.091
382	0.091
383	0.091
383	0.091
383	0.09
384	0.09
384	0.09
385	0.09
385	0.09
386	0.09
386	0.09
387	0.09
387	0.09
388	0.09
388	0.089
389	0.089
389	0.089
389	0.089
390	0.09
390	0.09
391	0.09
391	0.09
392	0.09
392	0.09
393	0.09
393	0.09
394	0.089
394	0.089
394	0.089
395	0.088
395	0.088
396	0.088
396	0.088
397	0.088
397	0.088
398	0.088
398	0.087
399	0.087
399	0.087
400	0.087
400	0.087
400	0.087
401	0.087
401	0.086
402	0.086
402	0.085
403	0.085
403	0.085
404	0.085
404	0.085
405	0.085
405	0.085
405	0.085
406	0.085
406	0.085
407	0.085
407	0.085
408	0.085
408	0.084
409	0.084
409	0.084
410	0.084
410	0.084
411	0.084
411	0.084
411	0.084
412	0.083
412	0.083
413	0.083
413	0.082
414	0.082
414	0.082
415	0.081
415	0.081
416	0.081
416	0.08
416	0.08
417	0.08
417	0.08
418	0.08
418	0.08
419	0.08
419	0.081
420	0.081
420	0.081
421	0.082
421	0.082
421	0.082
422	0.082
422	0.082
423	0.082
423	0.081
424	0.081
424	0.08
425	0.08
425	0.08
426	0.079
426	0.079
427	0.079
427	0.079
427	0.08
428	0.08
428	0.08
429	0.081
429	0.081
430	0.081
430	0.081
431	0.081
431	0.08
432	0.08
432	0.08
432	0.079
433	0.078
433	0.078
434	0.078
434	0.078
435	0.077
435	0.077
436	0.077
436	0.077
437	0.077
437	0.077
437	0.077
438	0.077
438	0.077
439	0.077
439	0.077
440	0.076
440	0.076
441	0.076
441	0.076
442	0.076
442	0.077
442	0.077
443	0.077
443	0.077
444	0.077
444	0.077
445	0.077
445	0.077
446	0.077
446	0.077
447	0.077
447	0.076
447	0.076
448	0.076
448	0.076
449	0.076
449	0.076
450	0.076
450	0.076
451	0.075
451	0.075
452	0.075
452	0.075
452	0.075
453	0.075
453	0.074
454	0.074
454	0.074
455	0.075
455	0.075
456	0.075
456	0.075
457	0.075
457	0.075
458	0.075
458	0.075
458	0.075
459	0.075
459	0.075
460	0.075
460	0.075
461	0.074
461	0.074
462	0.074
462	0.074
463	0.075
463	0.075
463	0.075
464	0.075
464	0.075
465	0.075
465	0.075
466	0.075
466	0.075
467	0.075
467	0.075
467	0.074
468	0.074
468	0.073
469	0.073
469	0.073
470	0.073
470	0.073
471	0.073
471	0.073
472	0.073
472	0.074
472	0.074
473	0.075
473	0.075
474	0.076
474	0.076
475	0.076
475	0.077
476	0.077
476	0.077
477	0.077
477	0.077
477	0.077
478	0.077
478	0.078
479	0.078
479	0.078
480	0.078
480	0.079
481	0.079
481	0.08
482	0.08
482	0.081
482	0.082
483	0.083
483	0.085
484	0.085
484	0.086
485	0.086
485	0.087
486	0.087
486	0.087
487	0.088
487	0.088
487	0.088
488	0.088
488	0.087
489	0.087
489	0.088
490	0.088
490	0.089
491	0.089
491	0.09
492	0.091
492	0.091
492	0.092
493	0.092
493	0.094
494	0.095
494	0.097
495	0.098
495	0.099
496	0.1
496	0.101
496	0.102
497	0.103
497	0.104
498	0.105
498	0.105
499	0.106
499	0.107
500	0.107
500	0.108
501	0.109
501	0.11
501	0.111
502	0.111
502	0.112
503	0.114
503	0.114
504	0.115
504	0.115
505	0.116
505	0.117
506	0.118
506	0.118
506	0.119
507	0.12
507	0.121
508	0.122
508	0.122
509	0.123
509	0.124
510	0.125
510	0.126
511	0.126
511	0.127
511	0.128
512	0.129
512	0.129
513	0.129
513	0.129
514	0.129
514	0.13
515	0.13
515	0.13
515	0.13
516	0.131
516	0.131
517	0.132
517	0.132
518	0.132
518	0.133
519	0.133
519	0.133
520	0.133
520	0.133
520	0.132
521	0.131
521	0.131
522	0.13
522	0.129
523	0.129
523	0.129
524	0.129
524	0.129
524	0.129
525	0.129
525	0.13
526	0.131
526	0.132
527	0.132
527	0.133
528	0.133
528	0.134
529	0.134
529	0.134
529	0.134
530	0.134
530	0.134
531	0.134
531	0.134
532	0.133
532	0.133
533	0.132
533	0.131
533	0.131
534	0.13
534	0.129
535	0.128
535	0.128
536	0.128
536	0.127
537	0.126
537	0.126
538	0.125
538	0.124
538	0.123
539	0.123
539	0.122
540	0.12
540	0.119
541	0.117
541	0.116
542	0.115
542	0.114
542	0.113
543	0.112
543	0.111
544	0.11
544	0.11
545	0.109
545	0.109
546	0.108
546	0.107
547	0.106
547	0.104
547	0.103
548	0.102
548	0.1
549	0.099
549	0.098
550	0.097
550	0.095
551	0.093
551	0.092
551	0.092
552	0.091
552	0.09
553	0.089
553	0.089
554	0.088
554	0.087
555	0.086
555	0.084
556	0.083
556	0.082
556	0.081
557	0.079
557	0.078
558	0.077
558	0.076
559	0.075
559	0.074
560	0.073
560	0.072
560	0.071
561	0.072
561	0.071
562	0.07
562	0.069
563	0.068
563	0.067
564	0.065
564	0.064
564	0.063
565	0.062
565	0.061
566	0.06
566	0.059
567	0.058
567	0.058
568	0.057
568	0.057
568	0.057
569	0.057
569	0.057
570	0.056
570	0.055
571	0.055
571	0.055
572	0.054
572	0.053
573	0.053
573	0.051
573	0.05
574	0.05
574	0.05
575	0.05
575	0.051
576	0.051
576	0.049
577	0.047
577	0.046
577	0.046
578	0.046
578	0.047
579	0.048
579	0.048
580	0.046
580	0.044
581	0.041
581	0.041
581	0.041
582	0.042
582	0.042
583	0.043
583	0.041
584	0.038
584	0.035
585	0.036
585	0.037
585	0.037
586	0.037
586	0.036
587	0.034
587	0.033
588	0.031
588	0.031
589	0.031
589	0.032
590	0.032
590	0.032
590	0.033
591	0.034
591	0.033
592	0.032
592	0.031
593	0.031
593	0.031
594	0.03
594	0.029
594	0.029
595	0.029
595	0.028
596	0.028
596	0.03
597	0.033
597	0.033
598	0.033
598	0.034
598	0.034
599	0.034
599	0.033
600	0.032
600	0.031
601	0.031
601	0.03
602	0.028
602	0.027
602	0.026
603	0.027
603	0.027
604	0.028
604	0.029
605	0.03
605	0.031
606	0.031
606	0.03
606	0.029
607	0.029
607	0.029
608	0.029
608	0.028
609	0.027
609	0.028
610	0.027
610	0.026
610	0.027
611	0.028
611	0.03
612	0.031
612	0.032
613	0.033
613	0.034
614	0.034
614	0.033
614	0.034
615	0.033
615	0.033
616	0.033
616	0.032
617	0.032
617	0.031
618	0.031
618	0.031
618	0.031
619	0.032
619	0.034
620	0.035
620	0.036
621	0.037
621	0.037
622	0.038
622	0.038
622	0.038
623	0.038
623	0.04
624	0.04
624	0.039
625	0.039
625	0.04
626	0.039
626	0.04
626	0.04
627	0.041
627	0.042
628	0.043
628	0.043
629	0.044
629	0.044
630	0.044
630	0.045
630	0.046
631	0.047
631	0.048
632	0.048
632	0.049
633	0.05
633	0.051
634	0.053
634	0.055
634	0.056
635	0.057
635	0.058
636	0.059
636	0.06
637	0.061
637	0.061
638	0.062
638	0.063
638	0.063
639	0.063
639	0.064
640	0.065
640	0.066
641	0.067
641	0.068
642	0.07
642	0.072
642	0.073
643	0.075
643	0.077
644	0.079
644	0.08
645	0.082
645	0.084
646	0.086
646	0.088
646	0.089
647	0.091
647	0.092
648	0.093
648	0.094
649	0.096
649	0.097
650	0.099
650	0.101
650	0.102
651	0.104
651	0.106
652	0.108
652	0.111
653	0.114
653	0.122
653	0.132
654	0.108
654	0.089
655	0.089
655	0.091
656	0.093
656	0.094
657	0.096
657	0.097
657	0.098
658	0.095
658	0.088
659	0.111
659	0.141
660	0.149
660	0.151
661	0.152
661	0.155
661	0.157
662	0.16
662	0.162
663	0.164
663	0.166
664	0.168
664	0.17
665	0.172
665	0.175
665	0.176
666	0.178
666	0.18
667	0.182
667	0.185
668	0.187
668	0.189
669	0.191
669	0.194
669	0.197
670	0.199
670	0.201
671	0.202
671	0.204
672	0.205
672	0.206
672	0.208
673	0.209
673	0.21
674	0.211
674	0.212
675	0.213
675	0.215
676	0.217
676	0.219
676	0.22
677	0.221
677	0.222
678	0.223
678	0.223
679	0.224
679	0.225
680	0.226
680	0.226
680	0.226
681	0.226
681	0.227
682	0.228
682	0.229
683	0.231
683	0.232
684	0.232
684	0.232
684	0.232
685	0.233
685	0.234
686	0.234
686	0.234
687	0.234
687	0.234
687	0.234
688	0.234
688	0.234
689	0.235
689	0.236
690	0.235
690	0.234
691	0.234
691	0.234
691	0.233
692	0.232
692	0.231
693	0.23
693	0.23
694	0.228
694	0.227
695	0.228
695	0.228
695	0.228
696	0.227
696	0.227
697	0.227
697	0.226
698	0.225
698	0.224
698	0.223
699	0.222
699	0.22
700	0.218
700	0.217
701	0.216
701	0.214
702	0.212
702	0.211
702	0.21
703	0.208
703	0.207
704	0.206
704	0.205
705	0.204
705	0.202
705	0.201
706	0.199
706	0.198
707	0.196
707	0.194
708	0.192
708	0.19
709	0.188
709	0.186
709	0.183
710	0.18
710	0.178
711	0.177
711	0.175
712	0.173
712	0.171
713	0.17
713	0.169
713	0.167
714	0.165
714	0.164
715	0.163
715	0.161
716	0.16
716	0.159
716	0.157
717	0.155
717	0.153
718	0.151
718	0.149
719	0.148
719	0.147
720	0.144
720	0.142
720	0.139
721	0.137
721	0.135
722	0.132
722	0.13
723	0.129
723	0.127
723	0.125
724	0.124
724	0.122
725	0.12
725	0.119
726	0.118
726	0.116
727	0.115
727	0.114
727	0.113
728	0.111
728	0.11
729	0.109
729	0.108
730	0.107
730	0.106
730	0.105
731	0.104
731	0.102
732	0.101
732	0.1
733	0.098
733	0.096
734	0.094
734	0.092
734	0.091
735	0.09
735	0.088
736	0.086
736	0.085
737	0.083
737	0.083
737	0.081
738	0.079
738	0.077
739	0.075
739	0.074
740	0.072
740	0.071
741	0.07
741	0.068
741	0.065
742	0.063
742	0.061
743	0.06
743	0.058
744	0.057
744	0.055
744	0.053
745	0.051
745	0.049
746	0.047
746	0.046
747	0.045
747	0.044
748	0.044
748	0.043
748	0.042
749	0.041
749	0.041
750	0.041
750	0.04
751	0.04
751	0.04
751	0.04
752	0.039
752	0.038
753	0.038
753	0.038
754	0.037
754	0.037
754	0.037
755	0.036
755	0.036
756	0.034
756	0.033
757	0.031
757	0.031
758	0.03
758	0.029
758	0.028
759	0.026
759	0.024
760	0.023
760	0.021
761	0.021
761	0.021
761	0.02
762	0.019
762	0.018
763	0.017
763	0.015
764	0.013
764	0.011
764	0.009
765	0.007
765	0.005
766	0.004
766	0.003
767	0.001
767	-0.001
768	-0.003
768	-0.004
768	-0.005
769	-0.005
769	-0.006
770	-0.007
770	-0.008
771	-0.01
771	-0.012
771	-0.014
772	-0.015
772	-0.017
773	-0.018
773	-0.02
774	-0.022
774	-0.024
775	-0.026
775	-0.028
775	-0.031
776	-0.033
776	-0.035
777	-0.038
777	-0.04
778	-0.043
778	-0.045
778	-0.047
779	-0.048
779	-0.05
780	-0.052
780	-0.054
781	-0.057
781	-0.06
781	-0.064
782	-0.069
782	-0.074
783	-0.079
783	-0.085
784	-0.091
784	-0.097
784	-0.103
785	-0.109
785	-0.115
786	-0.118
786	-0.119
787	-0.117
787	-0.115
788	-0.117
788	-0.118
788	-0.119
789	-0.12
789	-0.119
790	-0.116
790	-0.114
791	-0.114
791	-0.116
791	-0.118
792	-0.113
792	-0.103
793	-0.097
793	-0.094
794	-0.093
794	-0.095
794	-0.099
795	-0.102
795	-0.102
796	-0.102
796	-0.105
797	-0.113
797	-0.123
797	-0.129
798	-0.134
798	-0.137
799	-0.137
799	-0.137
800	-0.137
800	-0.139
801	-0.142
801	-0.144
801	-0.144
802	-0.146
802	-0.147
803	-0.148
803	-0.148
804	-0.147
804	-0.142
804	-0.135
805	-0.131
805	-0.129
806	-0.127
806	-0.125
807	-0.124
807	-0.124
807	-0.124
808	-0.123
808	-0.124
809	-0.129
809	-0.134
810	-0.138
810	-0.14
810	-0.143
811	-0.146
811	-0.146
812	-0.141
812	-0.138
813	-0.137
813	-0.137
813	-0.138
814	-0.138
814	-0.137
815	-0.135
815	-0.132
816	-0.13
816	-0.131
817	-0.135
817	-0.137
817	-0.135
818	-0.131
818	-0.126
819	-0.121
819	-0.116
820	-0.113
820	-0.11
820	-0.105
821	-0.099
821	-0.093
822	-0.087
822	-0.082
823	-0.077
823	-0.074
823	-0.071
824	-0.067
824	-0.063
825	-0.059
825	-0.055
826	-0.052
826	-0.049
826	-0.047
827	-0.044
827	-0.042
828	-0.04
828	-0.038
829	-0.036
829	-0.035
829	-0.034
830	-0.033
830	-0.031
831	-0.029
831	-0.028
832	-0.028
832	-0.027
832	-0.026
833	-0.026
833	-0.026
834	-0.025
834	-0.025
835	-0.025
835	-0.025
835	-0.025
836	-0.024
836	-0.024
837	-0.023
837	-0.023
838	-0.022
838	-0.022
839	-0.022
839	-0.021
839	-0.021
840	-0.02
840	-0.02
841	-0.019
841	-0.018
842	-0.017
842	-0.016
842	-0.016
843	-0.015
843	-0.014
844	-0.013
844	-0.013
845	-0.012
845	-0.012
845	-0.012
846	-0.013
846	-0.013
847	-0.014
847	-0.014
848	-0.015
848	-0.016
848	-0.017
849	-0.017
849	-0.018
850	-0.019
850	-0.02
851	-0.02
851	-0.02
851	-0.02
852	-0.02
852	-0.02
853	-0.02
853	-0.019
854	-0.019
854	-0.019
854	-0.018
855	-0.018
855	-0.018
856	-0.018
856	-0.017
857	-0.016
857	-0.016
857	-0.016
858	-0.016
858	-0.016
859	-0.016
859	-0.016
860	-0.015
860	-0.015
860	-0.015
861	-0.014
861	-0.014
862	-0.014
862	-0.014
863	-0.014
863	-0.014
863	-0.014
864	-0.014
864	-0.014
865	-0.014
865	-0.014
866	-0.015
866	-0.015
866	-0.016
867	-0.016
867	-0.015
868	-0.015
868	-0.015
869	-0.014
869	-0.014
869	-0.014
870	-0.014
870	-0.013
871	-0.013
871	-0.013
872	-0.013
872	-0.013
872	-0.013
873	-0.013
873	-0.014
874	-0.014
874	-0.013
875	-0.013
875	-0.013
875	-0.013
876	-0.014
876	-0.014
877	-0.014
877	-0.015
878	-0.016
878	-0.016
878	-0.017
879	-0.018
879	-0.019
880	-0.02
880	-0.02
881	-0.02
881	-0.02
881	-0.019
882	-0.019
882	-0.018
883	-0.018
883	-0.017
884	-0.016
884	-0.015
884	-0.015
885	-0.014
885	-0.014
886	-0.013
886	-0.013
887	-0.013
887	-0.013
887	-0.012
888	-0.012
888	-0.011
889	-0.011
889	-0.01
890	-0.009
890	-0.009
890	-0.008
891	-0.008
891	-0.008
892	-0.008
892	-0.008
893	-0.008
893	-0.009
893	-0.009
894	-0.01
894	-0.011
895	-0.011
895	-0.012
895	-0.013
896	-0.014
896	-0.015
897	-0.016
897	-0.016
898	-0.016
898	-0.016
898	-0.016
899	-0.016
899	-0.016
900	-0.017
900	-0.016
901	-0.016
901	-0.015
901	-0.016
902	-0.015
902	-0.016
903	-0.016
903	-0.017
904	-0.017
904	-0.018
904	-0.018
905	-0.018
905	-0.019
906	-0.019
906	-0.02
907	-0.02
907	-0.02
907	-0.02
908	-0.021
908	-0.021
909	-0.021
909	-0.021
910	-0.02
910	-0.02
910	-0.02
911	-0.02
911	-0.019
912	-0.019
912	-0.019
913	-0.019
913	-0.019
913	-0.019
914	-0.02
914	-0.02
915	-0.021
915	-0.022
916	-0.023
916	-0.024
916	-0.024
917	-0.025
917	-0.025
918	-0.025
918	-0.024
918	-0.024
919	-0.023
919	-0.022
920	-0.021
920	-0.019
921	-0.018
921	-0.017
921	-0.016
922	-0.015
922	-0.014
923	-0.013
923	-0.013
924	-0.012
924	-0.011
924	-0.011
925	-0.011
925	-0.01
926	-0.01
926	-0.011
927	-0.011
927	-0.011
927	-0.012
928	-0.012
928	-0.013
929	-0.013
929	-0.014
930	-0.014
930	-0.015
930	-0.016
931	-0.017
931	-0.018
932	-0.019
932	-0.02
933	-0.021
933	-0.022
933	-0.023
934	-0.024
934	-0.026
935	-0.026
935	-0.027
935	-0.028
936	-0.029
936	-0.029
937	-0.029
937	-0.029
938	-0.029
938	-0.028
938	-0.028
939	-0.027
939	-0.026
940	-0.025
940	-0.025
941	-0.024
941	-0.023
941	-0.022
942	-0.021
942	-0.021
943	-0.02
943	-0.02
944	-0.02
944	-0.02
944	-0.02
945	-0.019
945	-0.019
946	-0.018
946	-0.018
946	-0.018
947	-0.017
947	-0.017
948	-0.016
948	-0.016
949	-0.016
949	-0.015
949	-0.015
950	-0.014
950	-0.014
951	-0.014
951	-0.014
952	-0.014
952	-0.014
952	-0.014
953	-0.014
953	-0.015
954	-0.015
954	-0.016
955	-0.016
955	-0.016
955	-0.016
956	-0.016
956	-0.016
957	-0.016
957	-0.017
957	-0.017
958	-0.018
958	-0.018
959	-0.018
959	-0.018
960	-0.019
960	-0.02
960	-0.021
961	-0.022
961	-0.023
962	-0.023
962	-0.023
963	-0.023
963	-0.023
963	-0.023
964	-0.022
964	-0.021
965	-0.02
965	-0.019
966	-0.018
966	-0.017
966	-0.016
967	-0.015
967	-0.014
968	-0.014
968	-0.014
968	-0.014
969	-0.015
969	-0.015
970	-0.015
970	-0.016
971	-0.016
971	-0.016
971	-0.017
972	-0.017
972	-0.017
973	-0.018
973	-0.018
974	-0.019
974	-0.019
974	-0.019
975	-0.02
975	-0.02
976	-0.021
976	-0.022
976	-0.023
977	-0.024
977	-0.025
978	-0.026
978	-0.027
979	-0.027
979	-0.028
979	-0.028
980	-0.028
980	-0.029
981	-0.028
981	-0.028
982	-0.027
982	-0.026
982	-0.025
983	-0.024
983	-0.023
984	-0.022
984	-0.021
984	-0.02
985	-0.02
985	-0.019
986	-0.02
986	-0.02
987	-0.02
987	-0.021
987	-0.021
988	-0.021
988	-0.022
989	-0.022
989	-0.023
990	-0.024
990	-0.024
990	-0.024
991	-0.024
991	-0.024
992	-0.025
992	-0.025
992	-0.025
993	-0.026
993	-0.027
994	-0.028
994	-0.029
995	-0.03
995	-0.031
995	-0.032
996	-0.033
996	-0.034
997	-0.034
997	-0.035
997	-0.035
998	-0.034
998	-0.033
999	-0.033
999	-0.032
1000	-0.03
1000	-0.029
1000	-0.028
1001	-0.027
1001	-0.026
1002	-0.025
1002	-0.025
1003	-0.024
1003	-0.023
1003	-0.023
1004	-0.023
1004	-0.022
1005	-0.022
1005	-0.022
1005	-0.022
1006	-0.021
1006	-0.021
1007	-0.021
1007	-0.021
1008	-0.021
1008	-0.021
1008	-0.02
1009	-0.02
1009	-0.02
1010	-0.019
1010	-0.019
1010	-0.019
1011	-0.018
1011	-0.018
1012	-0.018
1012	-0.018
1013	-0.018
1013	-0.019
1013	-0.02
1014	-0.021
1014	-0.022
1015	-0.023
1015	-0.024
1016	-0.025
1016	-0.026
1016	-0.028
1017	-0.029
1017	-0.03
1018	-0.03
1018	-0.031
1018	-0.031
1019	-0.032
1019	-0.032
1020	-0.033
1020	-0.033
1021	-0.033
1021	-0.033
1021	-0.034
1022	-0.034
1022	-0.034
1023	-0.034
1023	-0.035
1023	-0.035
1024	-0.036
1024	-0.036
1025	-0.037
1025	-0.037
1026	-0.038
1026	-0.038
1026	-0.038
1027	-0.038
1027	-0.038
1028	-0.038
1028	-0.037
1028	-0.037
1029	-0.036
1029	-0.035
1030	-0.035
1030	-0.034
1031	-0.034
1031	-0.033
1031	-0.032
1032	-0.032
1032	-0.031
1033	-0.03
1033	-0.03
1033	-0.03
1034	-0.031
1034	-0.032
1035	-0.032
1035	-0.033
1036	-0.033
1036	-0.034
1036	-0.034
1037	-0.035
1037	-0.035
1038	-0.036
1038	-0.036
1039	-0.035
1039	-0.035
1039	-0.035
1040	-0.036
1040	-0.036
1041	-0.037
1041	-0.038
1041	-0.038
1042	-0.039
1042	-0.04
1043	-0.041
1043	-0.043
1044	-0.044
1044	-0.045
1044	-0.045
1045	-0.046
1045	-0.047
1046	-0.048
1046	-0.048
1046	-0.048
1047	-0.048
1047	-0.047
1048	-0.047
1048	-0.047
1049	-0.047
1049	-0.047
1049	-0.047
1050	-0.047
1050	-0.048
1051	-0.048
1051	-0.048
1051	-0.048
1052	-0.047
1052	-0.047
1053	-0.047
1053	-0.046
1053	-0.045
1054	-0.044
1054	-0.043
1055	-0.042
1055	-0.041
1056	-0.041
1056	-0.041
1056	-0.041
1057	-0.041
1057	-0.041
1058	-0.042
1058	-0.042
1058	-0.042
1059	-0.042
1059	-0.043
1060	-0.043
1060	-0.044
1061	-0.044
1061	-0.044
1061	-0.044
1062	-0.044
1062	-0.044
1063	-0.044
1063	-0.045
1063	-0.046
1064	-0.046
1064	-0.046
1065	-0.046
1065	-0.047
1066	-0.047
1066	-0.047
1066	-0.048
1067	-0.048
1067	-0.048
1068	-0.048
1068	-0.048
1068	-0.049
1069	-0.049
1069	-0.049
1070	-0.049
1070	-0.049
1071	-0.049
1071	-0.049
1071	-0.05
1072	-0.049
1072	-0.049
1073	-0.048
1073	-0.047
1073	-0.047
1074	-0.047
1074	-0.046
1075	-0.046
1075	-0.046
1076	-0.047
1076	-0.046
1076	-0.047
1077	-0.047
1077	-0.047
1078	-0.048
1078	-0.047
1078	-0.048
1079	-0.048
1079	-0.047
1080	-0.047
1080	-0.046
1080	-0.046
1081	-0.046
1081	-0.045
1082	-0.045
1082	-0.045
1083	-0.045
1083	-0.045
1083	-0.044
1084	-0.044
1084	-0.044
1085	-0.044
1085	-0.043
1085	-0.043
1086	-0.042
1086	-0.043
1087	-0.042
1087	-0.042
1088	-0.042
1088	-0.042
1088	-0.042
1089	-0.042
1089	-0.042
1090	-0.042
1090	-0.042
1090	-0.042
1091	-0.041
1091	-0.041
1092	-0.041
1092	-0.039
1092	-0.039
1093	-0.038
1093	-0.036
1094	-0.035
1094	-0.034
1095	-0.034
1095	-0.033
1095	-0.031
1096	-0.03
1096	-0.028
1097	-0.025
1097	-0.024
1097	-0.022
1098	-0.021
1098	-0.018
1099	-0.016
1099	-0.013
1100	-0.011
1100	-0.009
1100	-0.007
1101	-0.005
1101	-0.003
1102	-0
1102	0.003
1102	0.006
1103	0.009
1103	0.013
1104	0.018
1104	0.023
1104	0.03
1105	0.036
1105	0.04
1106	0.045
1106	0.051
1107	0.057
1107	0.067
1107	0.079
1108	0.123
1108	0.183
1109	0.27
1109	0.421
1109	0.552
1110	0.893
1110	-0
1111	-0
1111	-0
