Data from 15c-100ul-ns-20ul-nr-full-exp-7ul-bp_Absorbance__857__04294.txt Node

Date: Mon Jan 15 14:10:05 CET 2024
User: Marek
Spectrometer: MAYP115816
Trigger mode: 0
Integration Time (sec): 2.000000E-1
Scans to average: 10
Electric dark correction enabled: true
Nonlinearity correction enabled: true
Boxcar width: 5
XAxis mode: Wavelengths
Number of Pixels in Spectrum: 2068
>>>>>Begin Spectral Data<<<<<
199	-1.537
199	-1.415
200	-1.28
200	-1.175
201	-1.106
201	-1.06
202	-0.995
202	-0.948
203	-0.906
203	-0.874
204	-0.847
204	-0.827
205	-0.807
205	-0.799
205	-0.797
206	-0.796
206	-0.795
207	-0.791
207	-0.788
208	-0.787
208	-0.782
209	-0.781
209	-0.781
210	-0.781
210	-0.779
211	-0.777
211	-0.776
212	-0.775
212	-0.775
213	-0.775
213	-0.774
213	-0.775
214	-0.774
214	-0.775
215	-0.774
215	-0.775
216	-0.775
216	-0.775
217	-0.774
217	-0.774
218	-0.773
218	-0.769
219	-0.767
219	-0.767
220	-0.763
220	-0.759
221	-0.756
221	-0.752
221	-0.747
222	-0.742
222	-0.738
223	-0.73
223	-0.727
224	-0.723
224	-0.715
225	-0.706
225	-0.697
226	-0.687
226	-0.677
227	-0.663
227	-0.648
228	-0.629
228	-0.612
229	-0.588
229	-0.561
229	-0.534
230	-0.504
230	-0.472
231	-0.436
231	-0.4
232	-0.365
232	-0.326
233	-0.288
233	-0.248
234	-0.21
234	-0.173
235	-0.137
235	-0.103
236	-0.071
236	-0.04
236	-0.011
237	0.017
237	0.041
238	0.064
238	0.085
239	0.103
239	0.119
240	0.134
240	0.147
241	0.158
241	0.169
242	0.178
242	0.186
243	0.194
243	0.2
243	0.206
244	0.211
244	0.216
245	0.22
245	0.224
246	0.228
246	0.231
247	0.234
247	0.237
248	0.239
248	0.242
249	0.244
249	0.246
250	0.248
250	0.25
250	0.252
251	0.254
251	0.255
252	0.257
252	0.258
253	0.26
253	0.26
254	0.262
254	0.263
255	0.263
255	0.264
256	0.265
256	0.265
257	0.266
257	0.266
258	0.266
258	0.267
258	0.267
259	0.267
259	0.266
260	0.266
260	0.266
261	0.266
261	0.266
262	0.265
262	0.264
263	0.264
263	0.263
264	0.262
264	0.261
265	0.26
265	0.259
265	0.257
266	0.256
266	0.255
267	0.254
267	0.252
268	0.251
268	0.249
269	0.248
269	0.246
270	0.244
270	0.242
271	0.241
271	0.239
272	0.237
272	0.236
272	0.234
273	0.232
273	0.23
274	0.228
274	0.226
275	0.225
275	0.223
276	0.221
276	0.219
277	0.218
277	0.216
278	0.214
278	0.212
278	0.21
279	0.207
279	0.205
280	0.202
280	0.2
281	0.198
281	0.196
282	0.193
282	0.191
283	0.189
283	0.187
284	0.186
284	0.184
285	0.183
285	0.181
285	0.18
286	0.178
286	0.177
287	0.175
287	0.174
288	0.172
288	0.171
289	0.17
289	0.168
290	0.167
290	0.166
291	0.165
291	0.163
292	0.162
292	0.161
292	0.16
293	0.159
293	0.158
294	0.157
294	0.156
295	0.155
295	0.154
296	0.153
296	0.152
297	0.152
297	0.151
298	0.15
298	0.15
298	0.149
299	0.148
299	0.148
300	0.147
300	0.146
301	0.146
301	0.145
302	0.144
302	0.144
303	0.144
303	0.143
304	0.143
304	0.142
305	0.142
305	0.141
305	0.141
306	0.14
306	0.14
307	0.139
307	0.138
308	0.138
308	0.137
309	0.137
309	0.136
310	0.135
310	0.135
311	0.135
311	0.134
311	0.134
312	0.133
312	0.133
313	0.132
313	0.132
314	0.131
314	0.131
315	0.13
315	0.129
316	0.129
316	0.129
317	0.128
317	0.127
318	0.127
318	0.126
318	0.126
319	0.125
319	0.125
320	0.124
320	0.124
321	0.123
321	0.122
322	0.122
322	0.121
323	0.121
323	0.12
324	0.12
324	0.119
324	0.119
325	0.118
325	0.118
326	0.117
326	0.117
327	0.117
327	0.116
328	0.116
328	0.115
329	0.115
329	0.114
330	0.114
330	0.113
330	0.113
331	0.112
331	0.112
332	0.111
332	0.111
333	0.111
333	0.11
334	0.11
334	0.109
335	0.109
335	0.108
336	0.108
336	0.107
336	0.107
337	0.106
337	0.106
338	0.105
338	0.105
339	0.105
339	0.104
340	0.104
340	0.103
341	0.103
341	0.103
342	0.102
342	0.102
342	0.102
343	0.101
343	0.101
344	0.1
344	0.1
345	0.1
345	0.099
346	0.099
346	0.099
347	0.098
347	0.098
348	0.098
348	0.098
348	0.097
349	0.097
349	0.097
350	0.097
350	0.096
351	0.096
351	0.096
352	0.095
352	0.095
353	0.095
353	0.095
354	0.094
354	0.094
354	0.093
355	0.093
355	0.093
356	0.093
356	0.093
357	0.093
357	0.093
358	0.092
358	0.092
359	0.092
359	0.092
360	0.092
360	0.092
360	0.092
361	0.092
361	0.092
362	0.092
362	0.092
363	0.092
363	0.092
364	0.092
364	0.092
365	0.091
365	0.091
366	0.091
366	0.091
366	0.091
367	0.091
367	0.091
368	0.09
368	0.09
369	0.09
369	0.09
370	0.09
370	0.09
371	0.089
371	0.089
372	0.089
372	0.089
372	0.089
373	0.089
373	0.089
374	0.089
374	0.089
375	0.088
375	0.088
376	0.088
376	0.088
377	0.088
377	0.088
378	0.088
378	0.088
378	0.088
379	0.088
379	0.088
380	0.088
380	0.088
381	0.088
381	0.088
382	0.087
382	0.087
383	0.087
383	0.087
383	0.087
384	0.086
384	0.086
385	0.086
385	0.086
386	0.086
386	0.086
387	0.086
387	0.086
388	0.086
388	0.086
389	0.086
389	0.086
389	0.086
390	0.086
390	0.086
391	0.086
391	0.086
392	0.085
392	0.085
393	0.085
393	0.085
394	0.085
394	0.085
394	0.085
395	0.084
395	0.084
396	0.084
396	0.084
397	0.084
397	0.084
398	0.084
398	0.084
399	0.083
399	0.083
400	0.083
400	0.083
400	0.083
401	0.082
401	0.082
402	0.081
402	0.081
403	0.081
403	0.081
404	0.081
404	0.081
405	0.081
405	0.081
405	0.081
406	0.081
406	0.081
407	0.081
407	0.081
408	0.081
408	0.081
409	0.081
409	0.081
410	0.081
410	0.081
411	0.08
411	0.08
411	0.08
412	0.08
412	0.08
413	0.079
413	0.079
414	0.079
414	0.078
415	0.078
415	0.078
416	0.077
416	0.077
416	0.077
417	0.076
417	0.076
418	0.076
418	0.077
419	0.077
419	0.077
420	0.077
420	0.078
421	0.078
421	0.078
421	0.078
422	0.078
422	0.078
423	0.078
423	0.078
424	0.077
424	0.077
425	0.076
425	0.076
426	0.076
426	0.076
427	0.076
427	0.076
427	0.076
428	0.076
428	0.077
429	0.077
429	0.077
430	0.077
430	0.077
431	0.077
431	0.077
432	0.076
432	0.076
432	0.075
433	0.075
433	0.075
434	0.074
434	0.074
435	0.074
435	0.074
436	0.074
436	0.074
437	0.074
437	0.074
437	0.074
438	0.074
438	0.073
439	0.073
439	0.073
440	0.073
440	0.073
441	0.073
441	0.073
442	0.073
442	0.073
442	0.073
443	0.073
443	0.073
444	0.073
444	0.073
445	0.073
445	0.073
446	0.073
446	0.073
447	0.073
447	0.073
447	0.072
448	0.072
448	0.072
449	0.072
449	0.072
450	0.072
450	0.072
451	0.071
451	0.072
452	0.072
452	0.071
452	0.071
453	0.071
453	0.071
454	0.071
454	0.071
455	0.071
455	0.071
456	0.072
456	0.071
457	0.071
457	0.072
458	0.072
458	0.072
458	0.072
459	0.072
459	0.072
460	0.071
460	0.071
461	0.071
461	0.071
462	0.071
462	0.071
463	0.071
463	0.072
463	0.072
464	0.072
464	0.072
465	0.072
465	0.072
466	0.072
466	0.072
467	0.071
467	0.071
467	0.071
468	0.07
468	0.069
469	0.069
469	0.069
470	0.07
470	0.07
471	0.07
471	0.07
472	0.07
472	0.071
472	0.071
473	0.072
473	0.072
474	0.073
474	0.073
475	0.073
475	0.074
476	0.074
476	0.074
477	0.074
477	0.074
477	0.074
478	0.074
478	0.074
479	0.074
479	0.075
480	0.075
480	0.075
481	0.076
481	0.076
482	0.077
482	0.078
482	0.079
483	0.08
483	0.081
484	0.082
484	0.082
485	0.083
485	0.083
486	0.083
486	0.084
487	0.084
487	0.084
487	0.084
488	0.084
488	0.083
489	0.084
489	0.084
490	0.085
490	0.085
491	0.086
491	0.086
492	0.087
492	0.088
492	0.089
493	0.089
493	0.09
494	0.092
494	0.093
495	0.094
495	0.095
496	0.096
496	0.097
496	0.098
497	0.099
497	0.1
498	0.101
498	0.102
499	0.102
499	0.103
500	0.103
500	0.104
501	0.105
501	0.106
501	0.107
502	0.108
502	0.108
503	0.11
503	0.11
504	0.111
504	0.112
505	0.112
505	0.113
506	0.114
506	0.115
506	0.115
507	0.116
507	0.117
508	0.118
508	0.119
509	0.12
509	0.121
510	0.122
510	0.122
511	0.123
511	0.124
511	0.124
512	0.125
512	0.125
513	0.126
513	0.126
514	0.126
514	0.127
515	0.127
515	0.127
515	0.127
516	0.128
516	0.128
517	0.128
517	0.129
518	0.129
518	0.129
519	0.129
519	0.128
520	0.128
520	0.128
520	0.128
521	0.127
521	0.126
522	0.125
522	0.125
523	0.125
523	0.125
524	0.125
524	0.126
524	0.126
525	0.127
525	0.128
526	0.128
526	0.129
527	0.13
527	0.13
528	0.13
528	0.13
529	0.13
529	0.13
529	0.13
530	0.13
530	0.13
531	0.129
531	0.129
532	0.128
532	0.128
533	0.127
533	0.127
533	0.126
534	0.125
534	0.124
535	0.123
535	0.123
536	0.123
536	0.122
537	0.122
537	0.121
538	0.12
538	0.119
538	0.118
539	0.117
539	0.117
540	0.115
540	0.114
541	0.112
541	0.111
542	0.11
542	0.108
542	0.108
543	0.107
543	0.106
544	0.105
544	0.105
545	0.104
545	0.104
546	0.103
546	0.102
547	0.1
547	0.099
547	0.098
548	0.097
548	0.096
549	0.094
549	0.093
550	0.092
550	0.09
551	0.089
551	0.088
551	0.087
552	0.086
552	0.085
553	0.084
553	0.084
554	0.083
554	0.082
555	0.08
555	0.079
556	0.078
556	0.077
556	0.075
557	0.074
557	0.073
558	0.072
558	0.071
559	0.07
559	0.069
560	0.068
560	0.067
560	0.066
561	0.066
561	0.066
562	0.065
562	0.064
563	0.063
563	0.061
564	0.06
564	0.059
564	0.058
565	0.057
565	0.056
566	0.055
566	0.054
567	0.053
567	0.053
568	0.053
568	0.052
568	0.052
569	0.053
569	0.053
570	0.051
570	0.05
571	0.05
571	0.05
572	0.049
572	0.049
573	0.048
573	0.047
573	0.045
574	0.044
574	0.044
575	0.044
575	0.046
576	0.045
576	0.044
577	0.042
577	0.041
577	0.041
578	0.041
578	0.042
579	0.043
579	0.043
580	0.041
580	0.038
581	0.036
581	0.036
581	0.036
582	0.037
582	0.037
583	0.038
583	0.036
584	0.033
584	0.03
585	0.031
585	0.032
585	0.032
586	0.032
586	0.031
587	0.029
587	0.028
588	0.026
588	0.026
589	0.026
589	0.027
590	0.027
590	0.027
590	0.029
591	0.029
591	0.028
592	0.028
592	0.027
593	0.027
593	0.027
594	0.026
594	0.025
594	0.024
595	0.024
595	0.023
596	0.023
596	0.025
597	0.028
597	0.029
598	0.029
598	0.029
598	0.03
599	0.03
599	0.029
600	0.028
600	0.027
601	0.026
601	0.025
602	0.024
602	0.023
602	0.022
603	0.022
603	0.023
604	0.024
604	0.024
605	0.026
605	0.027
606	0.027
606	0.025
606	0.025
607	0.025
607	0.025
608	0.025
608	0.023
609	0.023
609	0.023
610	0.023
610	0.022
610	0.023
611	0.024
611	0.025
612	0.027
612	0.028
613	0.03
613	0.031
614	0.03
614	0.03
614	0.03
615	0.029
615	0.029
616	0.029
616	0.029
617	0.028
617	0.028
618	0.027
618	0.027
618	0.028
619	0.028
619	0.03
620	0.032
620	0.032
621	0.033
621	0.034
622	0.034
622	0.035
622	0.034
623	0.034
623	0.036
624	0.036
624	0.035
625	0.035
625	0.035
626	0.035
626	0.036
626	0.036
627	0.037
627	0.038
628	0.039
628	0.039
629	0.04
629	0.04
630	0.04
630	0.041
630	0.042
631	0.043
631	0.044
632	0.045
632	0.045
633	0.047
633	0.048
634	0.05
634	0.052
634	0.053
635	0.054
635	0.055
636	0.056
636	0.057
637	0.057
637	0.058
638	0.059
638	0.059
638	0.06
639	0.06
639	0.061
640	0.062
640	0.063
641	0.064
641	0.065
642	0.067
642	0.069
642	0.07
643	0.072
643	0.073
644	0.075
644	0.077
645	0.078
645	0.08
646	0.082
646	0.084
646	0.085
647	0.087
647	0.088
648	0.089
648	0.09
649	0.092
649	0.093
650	0.095
650	0.097
650	0.098
651	0.1
651	0.102
652	0.104
652	0.107
653	0.11
653	0.118
653	0.128
654	0.105
654	0.087
655	0.087
655	0.089
656	0.09
656	0.092
657	0.093
657	0.095
657	0.095
658	0.093
658	0.086
659	0.108
659	0.137
660	0.145
660	0.147
661	0.149
661	0.151
661	0.154
662	0.156
662	0.159
663	0.161
663	0.163
664	0.164
664	0.166
665	0.168
665	0.171
665	0.173
666	0.175
666	0.177
667	0.179
667	0.181
668	0.184
668	0.186
669	0.188
669	0.191
669	0.194
670	0.196
670	0.198
671	0.199
671	0.2
672	0.202
672	0.203
672	0.204
673	0.205
673	0.207
674	0.208
674	0.208
675	0.209
675	0.211
676	0.214
676	0.215
676	0.216
677	0.217
677	0.219
678	0.219
678	0.22
679	0.22
679	0.221
680	0.222
680	0.223
680	0.222
681	0.223
681	0.224
682	0.225
682	0.226
683	0.227
683	0.228
684	0.229
684	0.229
684	0.229
685	0.229
685	0.23
686	0.23
686	0.23
687	0.23
687	0.23
687	0.23
688	0.229
688	0.229
689	0.231
689	0.231
690	0.231
690	0.23
691	0.23
691	0.23
691	0.229
692	0.228
692	0.227
693	0.226
693	0.226
694	0.224
694	0.223
695	0.223
695	0.225
695	0.224
696	0.224
696	0.223
697	0.223
697	0.222
698	0.222
698	0.221
698	0.22
699	0.219
699	0.217
700	0.215
700	0.213
701	0.212
701	0.21
702	0.209
702	0.208
702	0.206
703	0.205
703	0.203
704	0.202
704	0.201
705	0.2
705	0.199
705	0.197
706	0.195
706	0.194
707	0.192
707	0.19
708	0.188
708	0.186
709	0.184
709	0.182
709	0.179
710	0.176
710	0.174
711	0.173
711	0.171
712	0.169
712	0.167
713	0.166
713	0.164
713	0.163
714	0.161
714	0.16
715	0.159
715	0.157
716	0.156
716	0.154
716	0.153
717	0.151
717	0.149
718	0.147
718	0.145
719	0.144
719	0.142
720	0.14
720	0.138
720	0.135
721	0.133
721	0.131
722	0.129
722	0.126
723	0.125
723	0.123
723	0.122
724	0.12
724	0.118
725	0.116
725	0.115
726	0.114
726	0.113
727	0.111
727	0.11
727	0.109
728	0.107
728	0.106
729	0.106
729	0.105
730	0.103
730	0.102
730	0.101
731	0.1
731	0.099
732	0.098
732	0.096
733	0.094
733	0.093
734	0.091
734	0.089
734	0.087
735	0.086
735	0.084
736	0.082
736	0.081
737	0.08
737	0.079
737	0.077
738	0.075
738	0.073
739	0.072
739	0.07
740	0.069
740	0.068
741	0.067
741	0.065
741	0.062
742	0.06
742	0.058
743	0.057
743	0.055
744	0.054
744	0.052
744	0.05
745	0.048
745	0.046
746	0.044
746	0.043
747	0.042
747	0.041
748	0.04
748	0.04
748	0.039
749	0.038
749	0.038
750	0.037
750	0.036
751	0.036
751	0.036
751	0.036
752	0.035
752	0.035
753	0.035
753	0.034
754	0.034
754	0.034
754	0.034
755	0.033
755	0.033
756	0.032
756	0.029
757	0.028
757	0.028
758	0.027
758	0.025
758	0.024
759	0.023
759	0.021
760	0.019
760	0.018
761	0.017
761	0.017
761	0.017
762	0.016
762	0.015
763	0.014
763	0.012
764	0.01
764	0.008
764	0.006
765	0.004
765	0.002
766	0.001
766	-0
767	-0.001
767	-0.004
768	-0.006
768	-0.007
768	-0.007
769	-0.008
769	-0.008
770	-0.009
770	-0.011
771	-0.012
771	-0.014
771	-0.016
772	-0.017
772	-0.019
773	-0.02
773	-0.022
774	-0.024
774	-0.026
775	-0.027
775	-0.029
775	-0.032
776	-0.034
776	-0.036
777	-0.038
777	-0.04
778	-0.042
778	-0.044
778	-0.046
779	-0.047
779	-0.049
780	-0.051
780	-0.053
781	-0.055
781	-0.059
781	-0.062
782	-0.066
782	-0.071
783	-0.076
783	-0.081
784	-0.087
784	-0.093
784	-0.099
785	-0.106
785	-0.112
786	-0.116
786	-0.117
787	-0.115
787	-0.114
788	-0.116
788	-0.118
788	-0.119
789	-0.12
789	-0.119
790	-0.116
790	-0.114
791	-0.114
791	-0.116
791	-0.118
792	-0.113
792	-0.103
793	-0.097
793	-0.094
794	-0.093
794	-0.095
794	-0.099
795	-0.102
795	-0.102
796	-0.102
796	-0.105
797	-0.113
797	-0.123
797	-0.129
798	-0.134
798	-0.137
799	-0.137
799	-0.137
800	-0.137
800	-0.139
801	-0.142
801	-0.144
801	-0.144
802	-0.146
802	-0.147
803	-0.148
803	-0.148
804	-0.147
804	-0.142
804	-0.136
805	-0.132
805	-0.129
806	-0.127
806	-0.126
807	-0.124
807	-0.124
807	-0.124
808	-0.124
808	-0.125
809	-0.129
809	-0.135
810	-0.138
810	-0.141
810	-0.144
811	-0.146
811	-0.146
812	-0.142
812	-0.138
813	-0.137
813	-0.137
813	-0.138
814	-0.138
814	-0.137
815	-0.135
815	-0.132
816	-0.13
816	-0.131
817	-0.135
817	-0.137
817	-0.136
818	-0.132
818	-0.128
819	-0.122
819	-0.118
820	-0.115
820	-0.112
820	-0.108
821	-0.102
821	-0.095
822	-0.089
822	-0.084
823	-0.08
823	-0.076
823	-0.073
824	-0.069
824	-0.065
825	-0.061
825	-0.057
826	-0.054
826	-0.051
826	-0.049
827	-0.046
827	-0.044
828	-0.042
828	-0.04
829	-0.038
829	-0.037
829	-0.036
830	-0.035
830	-0.033
831	-0.032
831	-0.031
832	-0.03
832	-0.029
832	-0.029
833	-0.028
833	-0.028
834	-0.028
834	-0.028
835	-0.028
835	-0.028
835	-0.028
836	-0.027
836	-0.027
837	-0.026
837	-0.025
838	-0.025
838	-0.025
839	-0.024
839	-0.024
839	-0.023
840	-0.023
840	-0.022
841	-0.021
841	-0.021
842	-0.02
842	-0.019
842	-0.018
843	-0.017
843	-0.017
844	-0.016
844	-0.016
845	-0.015
845	-0.015
845	-0.015
846	-0.016
846	-0.016
847	-0.017
847	-0.017
848	-0.018
848	-0.019
848	-0.02
849	-0.02
849	-0.021
850	-0.022
850	-0.022
851	-0.022
851	-0.022
851	-0.023
852	-0.023
852	-0.022
853	-0.022
853	-0.022
854	-0.022
854	-0.021
854	-0.021
855	-0.021
855	-0.02
856	-0.02
856	-0.019
857	-0.019
857	-0.019
857	-0.019
858	-0.019
858	-0.019
859	-0.018
859	-0.018
860	-0.018
860	-0.017
860	-0.017
861	-0.017
861	-0.017
862	-0.017
862	-0.017
863	-0.016
863	-0.016
863	-0.016
864	-0.016
864	-0.017
865	-0.017
865	-0.017
866	-0.018
866	-0.018
866	-0.018
867	-0.018
867	-0.018
868	-0.018
868	-0.018
869	-0.017
869	-0.017
869	-0.017
870	-0.017
870	-0.016
871	-0.016
871	-0.016
872	-0.016
872	-0.016
872	-0.016
873	-0.016
873	-0.016
874	-0.016
874	-0.016
875	-0.016
875	-0.016
875	-0.016
876	-0.016
876	-0.017
877	-0.017
877	-0.017
878	-0.018
878	-0.019
878	-0.02
879	-0.02
879	-0.021
880	-0.022
880	-0.022
881	-0.022
881	-0.022
881	-0.022
882	-0.021
882	-0.021
883	-0.02
883	-0.019
884	-0.019
884	-0.018
884	-0.017
885	-0.017
885	-0.016
886	-0.016
886	-0.015
887	-0.015
887	-0.015
887	-0.014
888	-0.014
888	-0.014
889	-0.013
889	-0.012
890	-0.011
890	-0.011
890	-0.01
891	-0.01
891	-0.01
892	-0.01
892	-0.01
893	-0.01
893	-0.011
893	-0.011
894	-0.012
894	-0.012
895	-0.013
895	-0.014
895	-0.015
896	-0.016
896	-0.017
897	-0.018
897	-0.018
898	-0.018
898	-0.018
898	-0.019
899	-0.019
899	-0.019
900	-0.019
900	-0.018
901	-0.018
901	-0.018
901	-0.018
902	-0.018
902	-0.018
903	-0.018
903	-0.019
904	-0.019
904	-0.02
904	-0.02
905	-0.021
905	-0.021
906	-0.021
906	-0.022
907	-0.022
907	-0.022
907	-0.022
908	-0.023
908	-0.023
909	-0.023
909	-0.023
910	-0.023
910	-0.023
910	-0.022
911	-0.022
911	-0.022
912	-0.022
912	-0.022
913	-0.022
913	-0.022
913	-0.022
914	-0.022
914	-0.023
915	-0.024
915	-0.025
916	-0.026
916	-0.026
916	-0.027
917	-0.027
917	-0.027
918	-0.027
918	-0.027
918	-0.026
919	-0.025
919	-0.024
920	-0.023
920	-0.021
921	-0.02
921	-0.019
921	-0.018
922	-0.017
922	-0.016
923	-0.015
923	-0.015
924	-0.014
924	-0.013
924	-0.013
925	-0.013
925	-0.013
926	-0.012
926	-0.013
927	-0.013
927	-0.013
927	-0.014
928	-0.014
928	-0.015
929	-0.015
929	-0.016
930	-0.016
930	-0.017
930	-0.018
931	-0.019
931	-0.02
932	-0.021
932	-0.022
933	-0.023
933	-0.024
933	-0.025
934	-0.026
934	-0.027
935	-0.028
935	-0.029
935	-0.03
936	-0.03
936	-0.031
937	-0.031
937	-0.031
938	-0.031
938	-0.03
938	-0.03
939	-0.029
939	-0.028
940	-0.028
940	-0.027
941	-0.026
941	-0.025
941	-0.024
942	-0.023
942	-0.023
943	-0.022
943	-0.022
944	-0.022
944	-0.021
944	-0.021
945	-0.021
945	-0.02
946	-0.02
946	-0.02
946	-0.02
947	-0.019
947	-0.019
948	-0.018
948	-0.018
949	-0.018
949	-0.017
949	-0.017
950	-0.016
950	-0.016
951	-0.016
951	-0.016
952	-0.016
952	-0.016
952	-0.016
953	-0.016
953	-0.016
954	-0.017
954	-0.017
955	-0.018
955	-0.018
955	-0.018
956	-0.018
956	-0.018
957	-0.018
957	-0.019
957	-0.019
958	-0.019
958	-0.02
959	-0.02
959	-0.02
960	-0.021
960	-0.022
960	-0.022
961	-0.024
961	-0.024
962	-0.025
962	-0.025
963	-0.025
963	-0.025
963	-0.025
964	-0.024
964	-0.023
965	-0.023
965	-0.022
966	-0.02
966	-0.019
966	-0.018
967	-0.017
967	-0.017
968	-0.017
968	-0.017
968	-0.017
969	-0.017
969	-0.017
970	-0.017
970	-0.018
971	-0.018
971	-0.018
971	-0.019
972	-0.019
972	-0.019
973	-0.02
973	-0.02
974	-0.021
974	-0.021
974	-0.021
975	-0.022
975	-0.022
976	-0.023
976	-0.024
976	-0.024
977	-0.025
977	-0.026
978	-0.027
978	-0.028
979	-0.029
979	-0.029
979	-0.029
980	-0.03
980	-0.03
981	-0.03
981	-0.029
982	-0.029
982	-0.027
982	-0.026
983	-0.025
983	-0.024
984	-0.023
984	-0.022
984	-0.022
985	-0.021
985	-0.021
986	-0.021
986	-0.021
987	-0.022
987	-0.022
987	-0.022
988	-0.023
988	-0.024
989	-0.024
989	-0.025
990	-0.025
990	-0.026
990	-0.026
991	-0.026
991	-0.026
992	-0.026
992	-0.027
992	-0.027
993	-0.028
993	-0.028
994	-0.029
994	-0.03
995	-0.031
995	-0.032
995	-0.033
996	-0.034
996	-0.035
997	-0.036
997	-0.036
997	-0.036
998	-0.036
998	-0.035
999	-0.034
999	-0.033
1000	-0.032
1000	-0.031
1000	-0.03
1001	-0.029
1001	-0.028
1002	-0.027
1002	-0.026
1003	-0.026
1003	-0.025
1003	-0.025
1004	-0.025
1004	-0.025
1005	-0.024
1005	-0.024
1005	-0.024
1006	-0.024
1006	-0.023
1007	-0.023
1007	-0.023
1008	-0.023
1008	-0.023
1008	-0.022
1009	-0.022
1009	-0.022
1010	-0.021
1010	-0.021
1010	-0.021
1011	-0.02
1011	-0.02
1012	-0.02
1012	-0.02
1013	-0.021
1013	-0.021
1013	-0.022
1014	-0.023
1014	-0.024
1015	-0.025
1015	-0.026
1016	-0.027
1016	-0.029
1016	-0.03
1017	-0.031
1017	-0.032
1018	-0.032
1018	-0.033
1018	-0.034
1019	-0.034
1019	-0.034
1020	-0.035
1020	-0.035
1021	-0.035
1021	-0.035
1021	-0.036
1022	-0.036
1022	-0.036
1023	-0.036
1023	-0.037
1023	-0.037
1024	-0.038
1024	-0.039
1025	-0.039
1025	-0.039
1026	-0.04
1026	-0.04
1026	-0.04
1027	-0.04
1027	-0.04
1028	-0.04
1028	-0.039
1028	-0.039
1029	-0.038
1029	-0.038
1030	-0.037
1030	-0.036
1031	-0.036
1031	-0.035
1031	-0.034
1032	-0.034
1032	-0.033
1033	-0.032
1033	-0.032
1033	-0.032
1034	-0.033
1034	-0.033
1035	-0.034
1035	-0.034
1036	-0.035
1036	-0.035
1036	-0.036
1037	-0.036
1037	-0.037
1038	-0.037
1038	-0.037
1039	-0.037
1039	-0.037
1039	-0.038
1040	-0.038
1040	-0.038
1041	-0.039
1041	-0.04
1041	-0.041
1042	-0.042
1042	-0.043
1043	-0.044
1043	-0.045
1044	-0.046
1044	-0.047
1044	-0.047
1045	-0.048
1045	-0.049
1046	-0.049
1046	-0.05
1046	-0.05
1047	-0.049
1047	-0.049
1048	-0.049
1048	-0.049
1049	-0.049
1049	-0.049
1049	-0.05
1050	-0.05
1050	-0.05
1051	-0.05
1051	-0.051
1051	-0.05
1052	-0.05
1052	-0.05
1053	-0.049
1053	-0.048
1053	-0.048
1054	-0.047
1054	-0.046
1055	-0.044
1055	-0.043
1056	-0.043
1056	-0.043
1056	-0.043
1057	-0.043
1057	-0.043
1058	-0.043
1058	-0.044
1058	-0.044
1059	-0.045
1059	-0.045
1060	-0.046
1060	-0.046
1061	-0.046
1061	-0.046
1061	-0.046
1062	-0.045
1062	-0.045
1063	-0.046
1063	-0.046
1063	-0.047
1064	-0.047
1064	-0.047
1065	-0.048
1065	-0.048
1066	-0.049
1066	-0.049
1066	-0.05
1067	-0.05
1067	-0.05
1068	-0.05
1068	-0.05
1068	-0.051
1069	-0.052
1069	-0.052
1070	-0.052
1070	-0.052
1071	-0.052
1071	-0.052
1071	-0.052
1072	-0.052
1072	-0.051
1073	-0.051
1073	-0.05
1073	-0.05
1074	-0.049
1074	-0.049
1075	-0.049
1075	-0.049
1076	-0.049
1076	-0.049
1076	-0.05
1077	-0.05
1077	-0.05
1078	-0.051
1078	-0.051
1078	-0.051
1079	-0.051
1079	-0.051
1080	-0.051
1080	-0.05
1080	-0.05
1081	-0.05
1081	-0.049
1082	-0.048
1082	-0.048
1083	-0.048
1083	-0.048
1083	-0.048
1084	-0.047
1084	-0.047
1085	-0.047
1085	-0.047
1085	-0.047
1086	-0.047
1086	-0.047
1087	-0.047
1087	-0.046
1088	-0.046
1088	-0.047
1088	-0.046
1089	-0.047
1089	-0.046
1090	-0.047
1090	-0.046
1090	-0.046
1091	-0.045
1091	-0.044
1092	-0.044
1092	-0.043
1092	-0.042
1093	-0.041
1093	-0.039
1094	-0.038
1094	-0.037
1095	-0.036
1095	-0.036
1095	-0.034
1096	-0.034
1096	-0.032
1097	-0.03
1097	-0.029
1097	-0.028
1098	-0.027
1098	-0.025
1099	-0.023
1099	-0.02
1100	-0.019
1100	-0.017
1100	-0.015
1101	-0.014
1101	-0.013
1102	-0.009
1102	-0.006
1102	-0.003
1103	-0
1103	0.003
1104	0.008
1104	0.013
1104	0.02
1105	0.026
1105	0.029
1106	0.034
1106	0.04
1107	0.045
1107	0.055
1107	0.066
1108	0.107
1108	0.161
1109	0.239
1109	0.368
1109	0.477
1110	0.736
1110	-0
1111	-0
1111	-0
