Data from 15c-100ul-ns-20ul-nr-full-exp-7ul-bp_Absorbance__218__03655.txt Node

Date: Mon Jan 15 13:48:47 CET 2024
User: Marek
Spectrometer: MAYP115816
Trigger mode: 0
Integration Time (sec): 2.000000E-1
Scans to average: 10
Electric dark correction enabled: true
Nonlinearity correction enabled: true
Boxcar width: 5
XAxis mode: Wavelengths
Number of Pixels in Spectrum: 2068
>>>>>Begin Spectral Data<<<<<
199	-1.601
199	-1.478
200	-1.339
200	-1.234
201	-1.164
201	-1.117
202	-1.052
202	-1.002
203	-0.958
203	-0.924
204	-0.897
204	-0.876
205	-0.856
205	-0.848
205	-0.846
206	-0.845
206	-0.844
207	-0.84
207	-0.837
208	-0.836
208	-0.831
209	-0.83
209	-0.831
210	-0.831
210	-0.83
211	-0.828
211	-0.827
212	-0.825
212	-0.825
213	-0.825
213	-0.824
213	-0.825
214	-0.824
214	-0.824
215	-0.823
215	-0.824
216	-0.823
216	-0.824
217	-0.822
217	-0.822
218	-0.821
218	-0.817
219	-0.815
219	-0.815
220	-0.81
220	-0.807
221	-0.803
221	-0.799
221	-0.794
222	-0.79
222	-0.785
223	-0.778
223	-0.775
224	-0.769
224	-0.762
225	-0.753
225	-0.742
226	-0.734
226	-0.723
227	-0.708
227	-0.694
228	-0.676
228	-0.658
229	-0.634
229	-0.607
229	-0.58
230	-0.55
230	-0.518
231	-0.482
231	-0.446
232	-0.41
232	-0.37
233	-0.331
233	-0.291
234	-0.253
234	-0.215
235	-0.178
235	-0.143
236	-0.109
236	-0.077
236	-0.047
237	-0.019
237	0.006
238	0.029
238	0.051
239	0.07
239	0.087
240	0.103
240	0.116
241	0.128
241	0.139
242	0.149
242	0.158
243	0.166
243	0.173
243	0.179
244	0.185
244	0.191
245	0.195
245	0.199
246	0.203
246	0.207
247	0.21
247	0.213
248	0.216
248	0.219
249	0.221
249	0.223
250	0.225
250	0.227
250	0.229
251	0.231
251	0.233
252	0.235
252	0.236
253	0.237
253	0.238
254	0.239
254	0.241
255	0.241
255	0.243
256	0.243
256	0.244
257	0.244
257	0.245
258	0.245
258	0.245
258	0.246
259	0.246
259	0.245
260	0.246
260	0.245
261	0.245
261	0.245
262	0.244
262	0.244
263	0.243
263	0.243
264	0.242
264	0.241
265	0.24
265	0.239
265	0.238
266	0.236
266	0.235
267	0.234
267	0.233
268	0.231
268	0.23
269	0.229
269	0.227
270	0.225
270	0.224
271	0.222
271	0.22
272	0.219
272	0.217
272	0.215
273	0.214
273	0.212
274	0.21
274	0.208
275	0.206
275	0.205
276	0.203
276	0.201
277	0.199
277	0.198
278	0.196
278	0.194
278	0.192
279	0.19
279	0.188
280	0.186
280	0.184
281	0.182
281	0.18
282	0.178
282	0.176
283	0.174
283	0.172
284	0.171
284	0.169
285	0.168
285	0.166
285	0.165
286	0.164
286	0.162
287	0.161
287	0.159
288	0.158
288	0.157
289	0.156
289	0.154
290	0.153
290	0.152
291	0.151
291	0.15
292	0.149
292	0.148
292	0.147
293	0.146
293	0.145
294	0.144
294	0.143
295	0.142
295	0.141
296	0.141
296	0.14
297	0.139
297	0.139
298	0.138
298	0.137
298	0.137
299	0.136
299	0.135
300	0.135
300	0.134
301	0.134
301	0.133
302	0.132
302	0.132
303	0.132
303	0.131
304	0.131
304	0.13
305	0.13
305	0.13
305	0.129
306	0.129
306	0.128
307	0.128
307	0.127
308	0.127
308	0.126
309	0.126
309	0.125
310	0.125
310	0.124
311	0.124
311	0.123
311	0.123
312	0.123
312	0.122
313	0.122
313	0.121
314	0.121
314	0.12
315	0.12
315	0.119
316	0.119
316	0.119
317	0.118
317	0.117
318	0.117
318	0.116
318	0.116
319	0.115
319	0.115
320	0.114
320	0.114
321	0.113
321	0.113
322	0.112
322	0.112
323	0.111
323	0.111
324	0.11
324	0.11
324	0.109
325	0.109
325	0.109
326	0.108
326	0.108
327	0.107
327	0.107
328	0.107
328	0.106
329	0.106
329	0.105
330	0.105
330	0.104
330	0.104
331	0.103
331	0.103
332	0.103
332	0.102
333	0.102
333	0.101
334	0.101
334	0.101
335	0.1
335	0.1
336	0.099
336	0.099
336	0.099
337	0.098
337	0.098
338	0.097
338	0.097
339	0.096
339	0.096
340	0.095
340	0.095
341	0.094
341	0.094
342	0.094
342	0.093
342	0.093
343	0.093
343	0.093
344	0.092
344	0.092
345	0.091
345	0.091
346	0.091
346	0.09
347	0.09
347	0.09
348	0.089
348	0.089
348	0.089
349	0.088
349	0.088
350	0.088
350	0.088
351	0.087
351	0.087
352	0.087
352	0.086
353	0.086
353	0.086
354	0.085
354	0.085
354	0.085
355	0.084
355	0.084
356	0.084
356	0.084
357	0.084
357	0.084
358	0.084
358	0.084
359	0.084
359	0.084
360	0.084
360	0.084
360	0.084
361	0.083
361	0.083
362	0.083
362	0.083
363	0.083
363	0.083
364	0.083
364	0.083
365	0.083
365	0.083
366	0.083
366	0.083
366	0.082
367	0.082
367	0.082
368	0.082
368	0.082
369	0.082
369	0.081
370	0.081
370	0.081
371	0.081
371	0.081
372	0.08
372	0.08
372	0.08
373	0.08
373	0.08
374	0.08
374	0.08
375	0.08
375	0.08
376	0.08
376	0.08
377	0.08
377	0.08
378	0.08
378	0.08
378	0.08
379	0.08
379	0.08
380	0.08
380	0.08
381	0.08
381	0.08
382	0.08
382	0.08
383	0.079
383	0.079
383	0.079
384	0.079
384	0.079
385	0.078
385	0.078
386	0.078
386	0.078
387	0.078
387	0.078
388	0.078
388	0.078
389	0.078
389	0.078
389	0.078
390	0.078
390	0.078
391	0.078
391	0.078
392	0.078
392	0.078
393	0.078
393	0.078
394	0.078
394	0.077
394	0.077
395	0.077
395	0.077
396	0.077
396	0.077
397	0.077
397	0.076
398	0.076
398	0.076
399	0.076
399	0.076
400	0.076
400	0.076
400	0.076
401	0.075
401	0.074
402	0.074
402	0.074
403	0.074
403	0.074
404	0.074
404	0.074
405	0.074
405	0.074
405	0.074
406	0.074
406	0.074
407	0.074
407	0.074
408	0.074
408	0.073
409	0.073
409	0.073
410	0.073
410	0.073
411	0.073
411	0.073
411	0.073
412	0.072
412	0.072
413	0.072
413	0.071
414	0.071
414	0.071
415	0.071
415	0.07
416	0.07
416	0.07
416	0.069
417	0.069
417	0.069
418	0.069
418	0.07
419	0.07
419	0.07
420	0.07
420	0.071
421	0.071
421	0.071
421	0.071
422	0.071
422	0.072
423	0.071
423	0.071
424	0.07
424	0.07
425	0.07
425	0.069
426	0.069
426	0.069
427	0.069
427	0.069
427	0.069
428	0.07
428	0.07
429	0.07
429	0.07
430	0.07
430	0.07
431	0.07
431	0.07
432	0.069
432	0.069
432	0.068
433	0.068
433	0.067
434	0.067
434	0.067
435	0.067
435	0.067
436	0.067
436	0.067
437	0.067
437	0.067
437	0.067
438	0.067
438	0.066
439	0.066
439	0.066
440	0.066
440	0.066
441	0.066
441	0.066
442	0.066
442	0.066
442	0.066
443	0.066
443	0.066
444	0.066
444	0.066
445	0.066
445	0.066
446	0.066
446	0.066
447	0.066
447	0.066
447	0.066
448	0.065
448	0.065
449	0.065
449	0.065
450	0.065
450	0.065
451	0.065
451	0.065
452	0.065
452	0.064
452	0.064
453	0.064
453	0.064
454	0.064
454	0.064
455	0.064
455	0.064
456	0.064
456	0.064
457	0.064
457	0.064
458	0.064
458	0.064
458	0.065
459	0.065
459	0.065
460	0.064
460	0.064
461	0.064
461	0.063
462	0.063
462	0.063
463	0.064
463	0.064
463	0.064
464	0.064
464	0.064
465	0.064
465	0.064
466	0.064
466	0.064
467	0.063
467	0.063
467	0.062
468	0.062
468	0.061
469	0.061
469	0.061
470	0.061
470	0.061
471	0.061
471	0.061
472	0.062
472	0.062
472	0.063
473	0.063
473	0.063
474	0.064
474	0.064
475	0.064
475	0.064
476	0.064
476	0.064
477	0.064
477	0.064
477	0.064
478	0.064
478	0.064
479	0.064
479	0.065
480	0.065
480	0.065
481	0.065
481	0.066
482	0.066
482	0.067
482	0.068
483	0.069
483	0.071
484	0.072
484	0.072
485	0.072
485	0.073
486	0.073
486	0.073
487	0.074
487	0.074
487	0.074
488	0.074
488	0.073
489	0.073
489	0.073
490	0.073
490	0.073
491	0.074
491	0.074
492	0.075
492	0.075
492	0.076
493	0.076
493	0.078
494	0.079
494	0.08
495	0.082
495	0.082
496	0.083
496	0.084
496	0.085
497	0.086
497	0.087
498	0.087
498	0.088
499	0.088
499	0.089
500	0.089
500	0.09
501	0.091
501	0.092
501	0.092
502	0.093
502	0.094
503	0.095
503	0.095
504	0.096
504	0.096
505	0.097
505	0.097
506	0.098
506	0.099
506	0.099
507	0.1
507	0.101
508	0.101
508	0.102
509	0.103
509	0.104
510	0.105
510	0.105
511	0.106
511	0.107
511	0.107
512	0.108
512	0.107
513	0.108
513	0.108
514	0.108
514	0.108
515	0.108
515	0.108
515	0.108
516	0.108
516	0.108
517	0.108
517	0.109
518	0.109
518	0.109
519	0.109
519	0.109
520	0.109
520	0.109
520	0.109
521	0.108
521	0.107
522	0.106
522	0.106
523	0.105
523	0.105
524	0.104
524	0.104
524	0.104
525	0.105
525	0.105
526	0.106
526	0.107
527	0.108
527	0.108
528	0.109
528	0.11
529	0.11
529	0.111
529	0.111
530	0.111
530	0.111
531	0.111
531	0.111
532	0.111
532	0.11
533	0.11
533	0.109
533	0.109
534	0.108
534	0.107
535	0.107
535	0.107
536	0.107
536	0.106
537	0.106
537	0.105
538	0.105
538	0.104
538	0.104
539	0.103
539	0.102
540	0.101
540	0.1
541	0.099
541	0.098
542	0.097
542	0.096
542	0.095
543	0.095
543	0.094
544	0.093
544	0.093
545	0.093
545	0.093
546	0.092
546	0.091
547	0.09
547	0.089
547	0.088
548	0.087
548	0.086
549	0.085
549	0.084
550	0.083
550	0.082
551	0.08
551	0.08
551	0.079
552	0.079
552	0.078
553	0.078
553	0.078
554	0.077
554	0.076
555	0.075
555	0.074
556	0.073
556	0.072
556	0.071
557	0.07
557	0.069
558	0.068
558	0.067
559	0.066
559	0.066
560	0.065
560	0.064
560	0.064
561	0.064
561	0.064
562	0.064
562	0.063
563	0.062
563	0.061
564	0.059
564	0.058
564	0.057
565	0.057
565	0.056
566	0.055
566	0.054
567	0.054
567	0.054
568	0.054
568	0.054
568	0.054
569	0.055
569	0.055
570	0.054
570	0.053
571	0.054
571	0.053
572	0.053
572	0.052
573	0.052
573	0.051
573	0.05
574	0.049
574	0.049
575	0.049
575	0.051
576	0.051
576	0.049
577	0.047
577	0.047
577	0.047
578	0.047
578	0.048
579	0.049
579	0.049
580	0.048
580	0.045
581	0.043
581	0.043
581	0.043
582	0.044
582	0.044
583	0.045
583	0.043
584	0.04
584	0.038
585	0.038
585	0.04
585	0.04
586	0.04
586	0.039
587	0.038
587	0.036
588	0.035
588	0.034
589	0.035
589	0.035
590	0.035
590	0.035
590	0.037
591	0.037
591	0.037
592	0.036
592	0.035
593	0.035
593	0.035
594	0.034
594	0.033
594	0.033
595	0.033
595	0.032
596	0.032
596	0.034
597	0.037
597	0.037
598	0.037
598	0.038
598	0.038
599	0.039
599	0.038
600	0.037
600	0.036
601	0.035
601	0.034
602	0.033
602	0.032
602	0.031
603	0.031
603	0.032
604	0.033
604	0.033
605	0.034
605	0.036
606	0.035
606	0.034
606	0.034
607	0.034
607	0.034
608	0.033
608	0.032
609	0.032
609	0.032
610	0.031
610	0.03
610	0.031
611	0.032
611	0.033
612	0.035
612	0.036
613	0.037
613	0.038
614	0.038
614	0.037
614	0.038
615	0.037
615	0.037
616	0.037
616	0.037
617	0.036
617	0.036
618	0.035
618	0.035
618	0.035
619	0.036
619	0.037
620	0.039
620	0.04
621	0.04
621	0.041
622	0.041
622	0.041
622	0.041
623	0.041
623	0.042
624	0.043
624	0.042
625	0.042
625	0.042
626	0.042
626	0.042
626	0.043
627	0.044
627	0.044
628	0.045
628	0.046
629	0.046
629	0.046
630	0.047
630	0.047
630	0.048
631	0.049
631	0.05
632	0.05
632	0.051
633	0.052
633	0.053
634	0.055
634	0.056
634	0.058
635	0.059
635	0.06
636	0.061
636	0.061
637	0.062
637	0.062
638	0.063
638	0.064
638	0.064
639	0.064
639	0.065
640	0.066
640	0.066
641	0.067
641	0.068
642	0.07
642	0.072
642	0.073
643	0.074
643	0.076
644	0.078
644	0.079
645	0.081
645	0.082
646	0.084
646	0.086
646	0.088
647	0.089
647	0.09
648	0.091
648	0.092
649	0.094
649	0.095
650	0.097
650	0.099
650	0.1
651	0.102
651	0.104
652	0.106
652	0.108
653	0.111
653	0.119
653	0.129
654	0.105
654	0.087
655	0.087
655	0.089
656	0.091
656	0.092
657	0.093
657	0.095
657	0.095
658	0.093
658	0.086
659	0.107
659	0.136
660	0.144
660	0.146
661	0.147
661	0.15
661	0.152
662	0.154
662	0.157
663	0.159
663	0.16
664	0.162
664	0.164
665	0.166
665	0.168
665	0.17
666	0.171
666	0.173
667	0.175
667	0.177
668	0.18
668	0.182
669	0.184
669	0.187
669	0.19
670	0.192
670	0.194
671	0.195
671	0.197
672	0.198
672	0.199
672	0.2
673	0.201
673	0.203
674	0.203
674	0.204
675	0.205
675	0.207
676	0.209
676	0.21
676	0.211
677	0.212
677	0.214
678	0.214
678	0.214
679	0.215
679	0.216
680	0.217
680	0.217
680	0.217
681	0.217
681	0.218
682	0.219
682	0.22
683	0.221
683	0.223
684	0.224
684	0.224
684	0.224
685	0.224
685	0.225
686	0.225
686	0.225
687	0.225
687	0.225
687	0.225
688	0.225
688	0.225
689	0.226
689	0.227
690	0.227
690	0.226
691	0.226
691	0.225
691	0.225
692	0.223
692	0.222
693	0.222
693	0.222
694	0.22
694	0.219
695	0.219
695	0.221
695	0.22
696	0.22
696	0.219
697	0.219
697	0.219
698	0.218
698	0.217
698	0.216
699	0.216
699	0.214
700	0.211
700	0.21
701	0.209
701	0.208
702	0.207
702	0.205
702	0.204
703	0.203
703	0.201
704	0.2
704	0.199
705	0.199
705	0.197
705	0.195
706	0.194
706	0.193
707	0.191
707	0.189
708	0.187
708	0.185
709	0.184
709	0.181
709	0.178
710	0.176
710	0.174
711	0.173
711	0.171
712	0.169
712	0.168
713	0.167
713	0.165
713	0.164
714	0.162
714	0.161
715	0.16
715	0.158
716	0.157
716	0.156
716	0.154
717	0.153
717	0.151
718	0.149
718	0.147
719	0.146
719	0.145
720	0.143
720	0.141
720	0.138
721	0.136
721	0.134
722	0.132
722	0.129
723	0.128
723	0.127
723	0.125
724	0.123
724	0.121
725	0.12
725	0.119
726	0.118
726	0.116
727	0.115
727	0.114
727	0.113
728	0.112
728	0.111
729	0.11
729	0.109
730	0.108
730	0.107
730	0.106
731	0.105
731	0.104
732	0.103
732	0.101
733	0.099
733	0.098
734	0.096
734	0.094
734	0.093
735	0.092
735	0.09
736	0.088
736	0.087
737	0.086
737	0.085
737	0.083
738	0.081
738	0.079
739	0.078
739	0.076
740	0.075
740	0.074
741	0.072
741	0.07
741	0.068
742	0.065
742	0.064
743	0.062
743	0.061
744	0.059
744	0.058
744	0.056
745	0.054
745	0.052
746	0.051
746	0.05
747	0.049
747	0.048
748	0.048
748	0.047
748	0.046
749	0.046
749	0.045
750	0.045
750	0.044
751	0.044
751	0.044
751	0.044
752	0.043
752	0.042
753	0.042
753	0.042
754	0.042
754	0.041
754	0.041
755	0.041
755	0.041
756	0.04
756	0.037
757	0.036
757	0.036
758	0.035
758	0.033
758	0.033
759	0.031
759	0.029
760	0.028
760	0.026
761	0.025
761	0.025
761	0.024
762	0.023
762	0.022
763	0.021
763	0.019
764	0.017
764	0.015
764	0.013
765	0.011
765	0.009
766	0.008
766	0.007
767	0.006
767	0.003
768	0.001
768	-0
768	-0.001
769	-0.001
769	-0.002
770	-0.003
770	-0.004
771	-0.006
771	-0.008
771	-0.011
772	-0.012
772	-0.013
773	-0.015
773	-0.017
774	-0.019
774	-0.022
775	-0.024
775	-0.026
775	-0.029
776	-0.031
776	-0.034
777	-0.036
777	-0.039
778	-0.042
778	-0.045
778	-0.047
779	-0.048
779	-0.05
780	-0.053
780	-0.056
781	-0.059
781	-0.063
781	-0.068
782	-0.073
782	-0.079
783	-0.084
783	-0.09
784	-0.097
784	-0.102
784	-0.107
785	-0.113
785	-0.118
786	-0.121
786	-0.121
787	-0.118
787	-0.116
788	-0.117
788	-0.118
788	-0.118
789	-0.12
789	-0.119
790	-0.115
790	-0.114
791	-0.114
791	-0.115
791	-0.117
792	-0.112
792	-0.102
793	-0.097
793	-0.094
794	-0.093
794	-0.095
794	-0.099
795	-0.101
795	-0.102
796	-0.102
796	-0.105
797	-0.113
797	-0.123
797	-0.129
798	-0.134
798	-0.136
799	-0.137
799	-0.137
800	-0.137
800	-0.139
801	-0.142
801	-0.143
801	-0.144
802	-0.145
802	-0.147
803	-0.148
803	-0.148
804	-0.147
804	-0.142
804	-0.135
805	-0.131
805	-0.129
806	-0.126
806	-0.125
807	-0.124
807	-0.123
807	-0.123
808	-0.123
808	-0.124
809	-0.129
809	-0.134
810	-0.138
810	-0.14
810	-0.143
811	-0.145
811	-0.145
812	-0.141
812	-0.137
813	-0.137
813	-0.137
813	-0.137
814	-0.138
814	-0.137
815	-0.134
815	-0.132
816	-0.13
816	-0.131
817	-0.135
817	-0.136
817	-0.134
818	-0.131
818	-0.125
819	-0.12
819	-0.115
820	-0.112
820	-0.109
820	-0.104
821	-0.098
821	-0.091
822	-0.085
822	-0.08
823	-0.075
823	-0.072
823	-0.068
824	-0.064
824	-0.059
825	-0.055
825	-0.051
826	-0.047
826	-0.044
826	-0.041
827	-0.039
827	-0.036
828	-0.034
828	-0.032
829	-0.031
829	-0.029
829	-0.028
830	-0.027
830	-0.025
831	-0.024
831	-0.022
832	-0.022
832	-0.021
832	-0.021
833	-0.02
833	-0.019
834	-0.019
834	-0.019
835	-0.019
835	-0.019
835	-0.019
836	-0.019
836	-0.018
837	-0.018
837	-0.017
838	-0.017
838	-0.017
839	-0.016
839	-0.015
839	-0.015
840	-0.014
840	-0.014
841	-0.013
841	-0.012
842	-0.011
842	-0.01
842	-0.009
843	-0.008
843	-0.007
844	-0.007
844	-0.006
845	-0.006
845	-0.006
845	-0.005
846	-0.006
846	-0.006
847	-0.007
847	-0.007
848	-0.008
848	-0.009
848	-0.01
849	-0.01
849	-0.011
850	-0.011
850	-0.012
851	-0.012
851	-0.012
851	-0.013
852	-0.013
852	-0.012
853	-0.012
853	-0.012
854	-0.011
854	-0.011
854	-0.011
855	-0.011
855	-0.01
856	-0.01
856	-0.009
857	-0.009
857	-0.009
857	-0.009
858	-0.009
858	-0.009
859	-0.009
859	-0.008
860	-0.008
860	-0.008
860	-0.007
861	-0.007
861	-0.007
862	-0.007
862	-0.007
863	-0.007
863	-0.007
863	-0.007
864	-0.007
864	-0.007
865	-0.007
865	-0.008
866	-0.009
866	-0.009
866	-0.009
867	-0.01
867	-0.009
868	-0.009
868	-0.009
869	-0.008
869	-0.008
869	-0.008
870	-0.007
870	-0.007
871	-0.006
871	-0.006
872	-0.006
872	-0.007
872	-0.007
873	-0.007
873	-0.007
874	-0.007
874	-0.007
875	-0.007
875	-0.007
875	-0.007
876	-0.007
876	-0.007
877	-0.008
877	-0.008
878	-0.009
878	-0.01
878	-0.011
879	-0.012
879	-0.012
880	-0.013
880	-0.013
881	-0.014
881	-0.013
881	-0.013
882	-0.012
882	-0.012
883	-0.011
883	-0.011
884	-0.01
884	-0.009
884	-0.009
885	-0.008
885	-0.007
886	-0.007
886	-0.007
887	-0.006
887	-0.006
887	-0.005
888	-0.005
888	-0.004
889	-0.004
889	-0.003
890	-0.002
890	-0.002
890	-0.001
891	-0.001
891	-0.001
892	-0.001
892	-0.001
893	-0.001
893	-0.002
893	-0.002
894	-0.003
894	-0.003
895	-0.004
895	-0.005
895	-0.006
896	-0.007
896	-0.008
897	-0.009
897	-0.009
898	-0.009
898	-0.009
898	-0.01
899	-0.01
899	-0.01
900	-0.01
900	-0.009
901	-0.009
901	-0.008
901	-0.009
902	-0.009
902	-0.009
903	-0.009
903	-0.009
904	-0.01
904	-0.011
904	-0.011
905	-0.011
905	-0.012
906	-0.012
906	-0.012
907	-0.013
907	-0.013
907	-0.013
908	-0.014
908	-0.014
909	-0.014
909	-0.014
910	-0.014
910	-0.014
910	-0.013
911	-0.013
911	-0.013
912	-0.013
912	-0.012
913	-0.013
913	-0.013
913	-0.013
914	-0.014
914	-0.014
915	-0.015
915	-0.016
916	-0.017
916	-0.017
916	-0.018
917	-0.018
917	-0.018
918	-0.018
918	-0.017
918	-0.016
919	-0.016
919	-0.014
920	-0.013
920	-0.012
921	-0.011
921	-0.01
921	-0.009
922	-0.008
922	-0.007
923	-0.006
923	-0.006
924	-0.005
924	-0.005
924	-0.004
925	-0.004
925	-0.004
926	-0.004
926	-0.005
927	-0.005
927	-0.005
927	-0.006
928	-0.006
928	-0.007
929	-0.007
929	-0.008
930	-0.008
930	-0.009
930	-0.01
931	-0.011
931	-0.011
932	-0.012
932	-0.013
933	-0.014
933	-0.015
933	-0.016
934	-0.017
934	-0.019
935	-0.02
935	-0.021
935	-0.021
936	-0.022
936	-0.022
937	-0.022
937	-0.023
938	-0.023
938	-0.022
938	-0.022
939	-0.021
939	-0.02
940	-0.019
940	-0.019
941	-0.018
941	-0.017
941	-0.016
942	-0.015
942	-0.015
943	-0.014
943	-0.014
944	-0.014
944	-0.014
944	-0.013
945	-0.013
945	-0.012
946	-0.012
946	-0.012
946	-0.012
947	-0.011
947	-0.011
948	-0.01
948	-0.01
949	-0.009
949	-0.009
949	-0.008
950	-0.008
950	-0.008
951	-0.007
951	-0.007
952	-0.007
952	-0.007
952	-0.007
953	-0.008
953	-0.008
954	-0.009
954	-0.009
955	-0.01
955	-0.01
955	-0.01
956	-0.01
956	-0.01
957	-0.011
957	-0.011
957	-0.011
958	-0.012
958	-0.012
959	-0.012
959	-0.012
960	-0.013
960	-0.014
960	-0.015
961	-0.016
961	-0.017
962	-0.017
962	-0.018
963	-0.018
963	-0.018
963	-0.017
964	-0.017
964	-0.016
965	-0.015
965	-0.014
966	-0.013
966	-0.012
966	-0.01
967	-0.009
967	-0.009
968	-0.009
968	-0.009
968	-0.009
969	-0.009
969	-0.009
970	-0.009
970	-0.01
971	-0.01
971	-0.01
971	-0.011
972	-0.011
972	-0.011
973	-0.011
973	-0.012
974	-0.012
974	-0.012
974	-0.013
975	-0.013
975	-0.014
976	-0.015
976	-0.016
976	-0.017
977	-0.018
977	-0.019
978	-0.02
978	-0.02
979	-0.021
979	-0.021
979	-0.022
980	-0.022
980	-0.022
981	-0.021
981	-0.021
982	-0.02
982	-0.019
982	-0.018
983	-0.017
983	-0.016
984	-0.015
984	-0.014
984	-0.013
985	-0.013
985	-0.013
986	-0.013
986	-0.013
987	-0.014
987	-0.014
987	-0.014
988	-0.015
988	-0.015
989	-0.016
989	-0.016
990	-0.017
990	-0.017
990	-0.017
991	-0.018
991	-0.018
992	-0.018
992	-0.018
992	-0.019
993	-0.019
993	-0.02
994	-0.021
994	-0.022
995	-0.023
995	-0.024
995	-0.025
996	-0.026
996	-0.027
997	-0.028
997	-0.028
997	-0.028
998	-0.028
998	-0.027
999	-0.026
999	-0.025
1000	-0.024
1000	-0.023
1000	-0.021
1001	-0.02
1001	-0.019
1002	-0.019
1002	-0.018
1003	-0.017
1003	-0.017
1003	-0.017
1004	-0.016
1004	-0.016
1005	-0.016
1005	-0.016
1005	-0.016
1006	-0.016
1006	-0.015
1007	-0.015
1007	-0.015
1008	-0.015
1008	-0.015
1008	-0.014
1009	-0.014
1009	-0.014
1010	-0.013
1010	-0.013
1010	-0.012
1011	-0.012
1011	-0.012
1012	-0.012
1012	-0.012
1013	-0.012
1013	-0.013
1013	-0.014
1014	-0.015
1014	-0.016
1015	-0.017
1015	-0.018
1016	-0.019
1016	-0.021
1016	-0.022
1017	-0.023
1017	-0.024
1018	-0.024
1018	-0.025
1018	-0.025
1019	-0.025
1019	-0.026
1020	-0.026
1020	-0.027
1021	-0.027
1021	-0.027
1021	-0.028
1022	-0.028
1022	-0.028
1023	-0.028
1023	-0.029
1023	-0.03
1024	-0.03
1024	-0.031
1025	-0.032
1025	-0.032
1026	-0.033
1026	-0.033
1026	-0.033
1027	-0.033
1027	-0.033
1028	-0.033
1028	-0.033
1028	-0.032
1029	-0.032
1029	-0.031
1030	-0.031
1030	-0.03
1031	-0.029
1031	-0.028
1031	-0.028
1032	-0.027
1032	-0.026
1033	-0.025
1033	-0.025
1033	-0.025
1034	-0.025
1034	-0.026
1035	-0.026
1035	-0.026
1036	-0.027
1036	-0.027
1036	-0.028
1037	-0.028
1037	-0.029
1038	-0.029
1038	-0.029
1039	-0.029
1039	-0.029
1039	-0.03
1040	-0.03
1040	-0.03
1041	-0.031
1041	-0.032
1041	-0.032
1042	-0.034
1042	-0.034
1043	-0.035
1043	-0.036
1044	-0.037
1044	-0.038
1044	-0.039
1045	-0.04
1045	-0.041
1046	-0.041
1046	-0.041
1046	-0.041
1047	-0.041
1047	-0.04
1048	-0.04
1048	-0.04
1049	-0.04
1049	-0.041
1049	-0.041
1050	-0.041
1050	-0.042
1051	-0.042
1051	-0.042
1051	-0.042
1052	-0.041
1052	-0.041
1053	-0.041
1053	-0.04
1053	-0.039
1054	-0.038
1054	-0.037
1055	-0.036
1055	-0.035
1056	-0.035
1056	-0.035
1056	-0.035
1057	-0.035
1057	-0.035
1058	-0.035
1058	-0.036
1058	-0.036
1059	-0.036
1059	-0.037
1060	-0.037
1060	-0.037
1061	-0.037
1061	-0.036
1061	-0.037
1062	-0.036
1062	-0.037
1063	-0.037
1063	-0.038
1063	-0.038
1064	-0.038
1064	-0.038
1065	-0.039
1065	-0.039
1066	-0.04
1066	-0.04
1066	-0.04
1067	-0.041
1067	-0.041
1068	-0.041
1068	-0.041
1068	-0.041
1069	-0.042
1069	-0.042
1070	-0.042
1070	-0.043
1071	-0.043
1071	-0.042
1071	-0.043
1072	-0.042
1072	-0.042
1073	-0.041
1073	-0.041
1073	-0.04
1074	-0.039
1074	-0.039
1075	-0.039
1075	-0.039
1076	-0.039
1076	-0.039
1076	-0.039
1077	-0.04
1077	-0.04
1078	-0.041
1078	-0.04
1078	-0.04
1079	-0.04
1079	-0.04
1080	-0.04
1080	-0.039
1080	-0.039
1081	-0.038
1081	-0.038
1082	-0.037
1082	-0.037
1083	-0.037
1083	-0.037
1083	-0.036
1084	-0.035
1084	-0.034
1085	-0.034
1085	-0.034
1085	-0.033
1086	-0.032
1086	-0.033
1087	-0.032
1087	-0.031
1088	-0.031
1088	-0.031
1088	-0.031
1089	-0.031
1089	-0.031
1090	-0.031
1090	-0.03
1090	-0.03
1091	-0.029
1091	-0.028
1092	-0.028
1092	-0.026
1092	-0.025
1093	-0.024
1093	-0.021
1094	-0.02
1094	-0.018
1095	-0.017
1095	-0.016
1095	-0.013
1096	-0.012
1096	-0.009
1097	-0.007
1097	-0.006
1097	-0.003
1098	-0.002
1098	0
1099	0.003
1099	0.005
1100	0.008
1100	0.011
1100	0.014
1101	0.016
1101	0.019
1102	0.023
1102	0.027
1102	0.031
1103	0.035
1103	0.041
1104	0.048
1104	0.054
1104	0.063
1105	0.071
1105	0.078
1106	0.085
1106	0.093
1107	0.101
1107	0.116
1107	0.133
1108	0.191
1108	0.271
1109	0.403
1109	0.668
1109	0.983
1110	-0
1110	-0
1111	-0
1111	-0
