Data from 15c-100ul-ns-20ul-nr-full-exp-7ul-bp_Absorbance__255__03692.txt Node

Date: Mon Jan 15 13:50:01 CET 2024
User: Marek
Spectrometer: MAYP115816
Trigger mode: 0
Integration Time (sec): 2.000000E-1
Scans to average: 10
Electric dark correction enabled: true
Nonlinearity correction enabled: true
Boxcar width: 5
XAxis mode: Wavelengths
Number of Pixels in Spectrum: 2068
>>>>>Begin Spectral Data<<<<<
199	-1.592
199	-1.469
200	-1.332
200	-1.226
201	-1.157
201	-1.109
202	-1.044
202	-0.995
203	-0.952
203	-0.917
204	-0.89
204	-0.869
205	-0.849
205	-0.84
205	-0.838
206	-0.837
206	-0.837
207	-0.833
207	-0.83
208	-0.829
208	-0.824
209	-0.823
209	-0.823
210	-0.823
210	-0.822
211	-0.82
211	-0.819
212	-0.816
212	-0.816
213	-0.816
213	-0.815
213	-0.816
214	-0.815
214	-0.815
215	-0.815
215	-0.815
216	-0.815
216	-0.815
217	-0.814
217	-0.814
218	-0.813
218	-0.809
219	-0.808
219	-0.807
220	-0.802
220	-0.799
221	-0.795
221	-0.791
221	-0.786
222	-0.782
222	-0.777
223	-0.769
223	-0.767
224	-0.762
224	-0.754
225	-0.745
225	-0.735
226	-0.726
226	-0.715
227	-0.701
227	-0.686
228	-0.668
228	-0.65
229	-0.626
229	-0.599
229	-0.572
230	-0.542
230	-0.51
231	-0.474
231	-0.438
232	-0.402
232	-0.362
233	-0.323
233	-0.283
234	-0.244
234	-0.206
235	-0.169
235	-0.134
236	-0.101
236	-0.068
236	-0.037
237	-0.009
237	0.016
238	0.04
238	0.061
239	0.081
239	0.098
240	0.113
240	0.127
241	0.139
241	0.15
242	0.16
242	0.169
243	0.177
243	0.184
243	0.19
244	0.196
244	0.201
245	0.206
245	0.21
246	0.214
246	0.218
247	0.221
247	0.224
248	0.227
248	0.229
249	0.232
249	0.234
250	0.236
250	0.238
250	0.241
251	0.242
251	0.244
252	0.246
252	0.247
253	0.248
253	0.25
254	0.251
254	0.252
255	0.253
255	0.254
256	0.254
256	0.255
257	0.256
257	0.256
258	0.257
258	0.257
258	0.257
259	0.257
259	0.257
260	0.257
260	0.257
261	0.256
261	0.256
262	0.256
262	0.255
263	0.254
263	0.253
264	0.252
264	0.252
265	0.251
265	0.249
265	0.248
266	0.247
266	0.246
267	0.245
267	0.243
268	0.242
268	0.241
269	0.239
269	0.237
270	0.236
270	0.234
271	0.232
271	0.23
272	0.229
272	0.227
272	0.225
273	0.224
273	0.222
274	0.22
274	0.218
275	0.217
275	0.215
276	0.213
276	0.211
277	0.21
277	0.208
278	0.206
278	0.205
278	0.203
279	0.2
279	0.198
280	0.196
280	0.194
281	0.192
281	0.19
282	0.188
282	0.186
283	0.184
283	0.182
284	0.18
284	0.179
285	0.178
285	0.176
285	0.174
286	0.173
286	0.172
287	0.17
287	0.169
288	0.168
288	0.166
289	0.165
289	0.164
290	0.162
290	0.161
291	0.16
291	0.159
292	0.158
292	0.157
292	0.156
293	0.155
293	0.154
294	0.153
294	0.152
295	0.151
295	0.15
296	0.149
296	0.149
297	0.148
297	0.147
298	0.147
298	0.146
298	0.145
299	0.145
299	0.144
300	0.144
300	0.143
301	0.143
301	0.142
302	0.141
302	0.141
303	0.14
303	0.14
304	0.139
304	0.139
305	0.138
305	0.138
305	0.137
306	0.137
306	0.136
307	0.136
307	0.135
308	0.135
308	0.134
309	0.133
309	0.133
310	0.132
310	0.132
311	0.131
311	0.131
311	0.13
312	0.13
312	0.129
313	0.129
313	0.129
314	0.128
314	0.127
315	0.127
315	0.127
316	0.126
316	0.126
317	0.125
317	0.125
318	0.124
318	0.124
318	0.123
319	0.123
319	0.122
320	0.122
320	0.121
321	0.121
321	0.12
322	0.119
322	0.119
323	0.118
323	0.118
324	0.117
324	0.117
324	0.117
325	0.116
325	0.116
326	0.115
326	0.115
327	0.114
327	0.114
328	0.113
328	0.113
329	0.112
329	0.112
330	0.111
330	0.111
330	0.111
331	0.11
331	0.11
332	0.109
332	0.109
333	0.108
333	0.108
334	0.107
334	0.107
335	0.107
335	0.106
336	0.106
336	0.105
336	0.105
337	0.104
337	0.104
338	0.104
338	0.103
339	0.103
339	0.102
340	0.102
340	0.102
341	0.101
341	0.101
342	0.1
342	0.1
342	0.1
343	0.099
343	0.099
344	0.098
344	0.098
345	0.098
345	0.098
346	0.097
346	0.097
347	0.096
347	0.096
348	0.096
348	0.096
348	0.095
349	0.095
349	0.095
350	0.094
350	0.094
351	0.094
351	0.094
352	0.093
352	0.093
353	0.093
353	0.092
354	0.092
354	0.091
354	0.091
355	0.091
355	0.091
356	0.091
356	0.091
357	0.09
357	0.09
358	0.09
358	0.09
359	0.09
359	0.09
360	0.09
360	0.09
360	0.09
361	0.09
361	0.09
362	0.09
362	0.09
363	0.09
363	0.09
364	0.09
364	0.089
365	0.089
365	0.089
366	0.089
366	0.089
366	0.089
367	0.089
367	0.089
368	0.088
368	0.088
369	0.088
369	0.088
370	0.088
370	0.087
371	0.087
371	0.087
372	0.087
372	0.087
372	0.086
373	0.086
373	0.086
374	0.087
374	0.087
375	0.086
375	0.086
376	0.086
376	0.086
377	0.086
377	0.086
378	0.086
378	0.086
378	0.086
379	0.086
379	0.086
380	0.086
380	0.086
381	0.086
381	0.086
382	0.086
382	0.086
383	0.085
383	0.085
383	0.085
384	0.085
384	0.085
385	0.084
385	0.084
386	0.084
386	0.084
387	0.084
387	0.084
388	0.084
388	0.084
389	0.084
389	0.084
389	0.084
390	0.084
390	0.084
391	0.084
391	0.084
392	0.084
392	0.084
393	0.084
393	0.084
394	0.084
394	0.083
394	0.083
395	0.083
395	0.083
396	0.083
396	0.083
397	0.083
397	0.083
398	0.082
398	0.082
399	0.082
399	0.082
400	0.082
400	0.082
400	0.082
401	0.081
401	0.081
402	0.08
402	0.08
403	0.08
403	0.08
404	0.08
404	0.08
405	0.08
405	0.08
405	0.079
406	0.08
406	0.08
407	0.08
407	0.079
408	0.079
408	0.079
409	0.079
409	0.079
410	0.079
410	0.078
411	0.078
411	0.078
411	0.078
412	0.078
412	0.077
413	0.077
413	0.077
414	0.077
414	0.076
415	0.076
415	0.076
416	0.075
416	0.075
416	0.075
417	0.075
417	0.075
418	0.075
418	0.075
419	0.075
419	0.076
420	0.076
420	0.076
421	0.076
421	0.076
421	0.077
422	0.077
422	0.077
423	0.077
423	0.076
424	0.076
424	0.075
425	0.075
425	0.075
426	0.075
426	0.074
427	0.074
427	0.074
427	0.075
428	0.075
428	0.075
429	0.076
429	0.076
430	0.076
430	0.076
431	0.075
431	0.075
432	0.075
432	0.074
432	0.074
433	0.073
433	0.073
434	0.072
434	0.072
435	0.072
435	0.072
436	0.072
436	0.072
437	0.072
437	0.072
437	0.072
438	0.072
438	0.072
439	0.072
439	0.072
440	0.072
440	0.072
441	0.071
441	0.071
442	0.071
442	0.071
442	0.072
443	0.071
443	0.071
444	0.071
444	0.071
445	0.071
445	0.071
446	0.071
446	0.071
447	0.071
447	0.071
447	0.071
448	0.071
448	0.071
449	0.07
449	0.07
450	0.07
450	0.07
451	0.07
451	0.07
452	0.069
452	0.069
452	0.069
453	0.069
453	0.069
454	0.069
454	0.069
455	0.069
455	0.069
456	0.069
456	0.069
457	0.069
457	0.069
458	0.069
458	0.069
458	0.069
459	0.07
459	0.069
460	0.069
460	0.069
461	0.069
461	0.068
462	0.068
462	0.069
463	0.069
463	0.069
463	0.069
464	0.069
464	0.069
465	0.069
465	0.069
466	0.069
466	0.069
467	0.069
467	0.068
467	0.068
468	0.067
468	0.067
469	0.066
469	0.066
470	0.067
470	0.066
471	0.066
471	0.067
472	0.067
472	0.067
472	0.068
473	0.068
473	0.069
474	0.069
474	0.069
475	0.069
475	0.07
476	0.07
476	0.07
477	0.07
477	0.07
477	0.07
478	0.07
478	0.07
479	0.07
479	0.071
480	0.071
480	0.071
481	0.072
481	0.072
482	0.073
482	0.074
482	0.074
483	0.076
483	0.078
484	0.078
484	0.078
485	0.079
485	0.079
486	0.079
486	0.08
487	0.08
487	0.08
487	0.08
488	0.08
488	0.079
489	0.079
489	0.08
490	0.08
490	0.08
491	0.081
491	0.081
492	0.082
492	0.082
492	0.083
493	0.084
493	0.084
494	0.086
494	0.088
495	0.089
495	0.089
496	0.09
496	0.092
496	0.092
497	0.093
497	0.094
498	0.095
498	0.095
499	0.096
499	0.096
500	0.097
500	0.098
501	0.099
501	0.099
501	0.1
502	0.101
502	0.101
503	0.103
503	0.103
504	0.104
504	0.104
505	0.105
505	0.105
506	0.106
506	0.107
506	0.108
507	0.108
507	0.109
508	0.11
508	0.111
509	0.112
509	0.112
510	0.113
510	0.114
511	0.115
511	0.115
511	0.116
512	0.117
512	0.117
513	0.117
513	0.117
514	0.117
514	0.118
515	0.118
515	0.118
515	0.118
516	0.118
516	0.118
517	0.119
517	0.119
518	0.119
518	0.12
519	0.119
519	0.119
520	0.119
520	0.119
520	0.118
521	0.118
521	0.117
522	0.116
522	0.115
523	0.115
523	0.114
524	0.114
524	0.114
524	0.114
525	0.115
525	0.115
526	0.116
526	0.117
527	0.118
527	0.118
528	0.119
528	0.12
529	0.12
529	0.121
529	0.121
530	0.121
530	0.121
531	0.121
531	0.121
532	0.12
532	0.12
533	0.119
533	0.119
533	0.118
534	0.117
534	0.117
535	0.116
535	0.116
536	0.116
536	0.115
537	0.115
537	0.115
538	0.114
538	0.113
538	0.112
539	0.112
539	0.111
540	0.11
540	0.108
541	0.107
541	0.106
542	0.105
542	0.104
542	0.103
543	0.102
543	0.101
544	0.101
544	0.1
545	0.1
545	0.1
546	0.1
546	0.099
547	0.097
547	0.096
547	0.095
548	0.094
548	0.093
549	0.092
549	0.091
550	0.089
550	0.088
551	0.087
551	0.086
551	0.085
552	0.084
552	0.084
553	0.084
553	0.083
554	0.083
554	0.081
555	0.08
555	0.079
556	0.078
556	0.077
556	0.076
557	0.075
557	0.074
558	0.073
558	0.072
559	0.071
559	0.07
560	0.069
560	0.068
560	0.068
561	0.068
561	0.068
562	0.068
562	0.067
563	0.065
563	0.064
564	0.063
564	0.062
564	0.061
565	0.06
565	0.06
566	0.058
566	0.057
567	0.057
567	0.057
568	0.057
568	0.057
568	0.057
569	0.058
569	0.058
570	0.057
570	0.056
571	0.056
571	0.056
572	0.055
572	0.055
573	0.054
573	0.053
573	0.052
574	0.051
574	0.052
575	0.052
575	0.053
576	0.053
576	0.051
577	0.05
577	0.049
577	0.049
578	0.049
578	0.05
579	0.051
579	0.051
580	0.05
580	0.047
581	0.045
581	0.044
581	0.045
582	0.045
582	0.046
583	0.046
583	0.045
584	0.042
584	0.039
585	0.039
585	0.04
585	0.041
586	0.041
586	0.04
587	0.038
587	0.037
588	0.035
588	0.035
589	0.035
589	0.036
590	0.036
590	0.035
590	0.037
591	0.037
591	0.037
592	0.036
592	0.035
593	0.036
593	0.036
594	0.035
594	0.034
594	0.033
595	0.033
595	0.032
596	0.032
596	0.034
597	0.037
597	0.038
598	0.038
598	0.039
598	0.039
599	0.039
599	0.038
600	0.037
600	0.036
601	0.036
601	0.035
602	0.033
602	0.032
602	0.031
603	0.031
603	0.032
604	0.033
604	0.033
605	0.034
605	0.036
606	0.035
606	0.034
606	0.034
607	0.034
607	0.034
608	0.034
608	0.032
609	0.032
609	0.032
610	0.031
610	0.031
610	0.031
611	0.033
611	0.034
612	0.035
612	0.037
613	0.038
613	0.039
614	0.039
614	0.038
614	0.038
615	0.038
615	0.037
616	0.037
616	0.037
617	0.036
617	0.036
618	0.035
618	0.035
618	0.035
619	0.036
619	0.037
620	0.039
620	0.04
621	0.04
621	0.041
622	0.041
622	0.042
622	0.041
623	0.041
623	0.042
624	0.043
624	0.042
625	0.042
625	0.042
626	0.042
626	0.042
626	0.043
627	0.044
627	0.045
628	0.045
628	0.046
629	0.047
629	0.047
630	0.047
630	0.047
630	0.049
631	0.05
631	0.051
632	0.051
632	0.052
633	0.053
633	0.054
634	0.055
634	0.057
634	0.058
635	0.059
635	0.06
636	0.061
636	0.062
637	0.063
637	0.063
638	0.064
638	0.065
638	0.065
639	0.065
639	0.066
640	0.067
640	0.068
641	0.069
641	0.07
642	0.071
642	0.073
642	0.074
643	0.076
643	0.077
644	0.079
644	0.081
645	0.082
645	0.084
646	0.086
646	0.088
646	0.089
647	0.091
647	0.092
648	0.093
648	0.094
649	0.096
649	0.097
650	0.099
650	0.101
650	0.102
651	0.104
651	0.106
652	0.108
652	0.111
653	0.114
653	0.122
653	0.131
654	0.107
654	0.089
655	0.089
655	0.091
656	0.092
656	0.094
657	0.095
657	0.096
657	0.097
658	0.095
658	0.087
659	0.109
659	0.139
660	0.147
660	0.148
661	0.15
661	0.152
661	0.155
662	0.157
662	0.16
663	0.162
663	0.164
664	0.166
664	0.167
665	0.169
665	0.171
665	0.173
666	0.175
666	0.177
667	0.179
667	0.181
668	0.184
668	0.186
669	0.188
669	0.191
669	0.194
670	0.196
670	0.198
671	0.199
671	0.201
672	0.202
672	0.203
672	0.204
673	0.205
673	0.207
674	0.207
674	0.208
675	0.209
675	0.211
676	0.213
676	0.214
676	0.215
677	0.217
677	0.218
678	0.218
678	0.219
679	0.219
679	0.22
680	0.221
680	0.221
680	0.221
681	0.222
681	0.223
682	0.223
682	0.224
683	0.226
683	0.227
684	0.228
684	0.228
684	0.228
685	0.229
685	0.229
686	0.23
686	0.23
687	0.23
687	0.23
687	0.23
688	0.23
688	0.23
689	0.231
689	0.231
690	0.231
690	0.23
691	0.23
691	0.23
691	0.229
692	0.228
692	0.227
693	0.226
693	0.226
694	0.224
694	0.223
695	0.224
695	0.225
695	0.225
696	0.224
696	0.224
697	0.224
697	0.223
698	0.222
698	0.221
698	0.22
699	0.22
699	0.218
700	0.215
700	0.214
701	0.213
701	0.212
702	0.21
702	0.209
702	0.208
703	0.206
703	0.205
704	0.204
704	0.203
705	0.202
705	0.201
705	0.199
706	0.198
706	0.196
707	0.194
707	0.192
708	0.19
708	0.189
709	0.187
709	0.184
709	0.181
710	0.179
710	0.177
711	0.175
711	0.174
712	0.172
712	0.17
713	0.169
713	0.168
713	0.166
714	0.165
714	0.163
715	0.162
715	0.161
716	0.159
716	0.158
716	0.157
717	0.155
717	0.153
718	0.151
718	0.149
719	0.148
719	0.147
720	0.145
720	0.142
720	0.14
721	0.137
721	0.135
722	0.133
722	0.131
723	0.13
723	0.128
723	0.127
724	0.125
724	0.123
725	0.121
725	0.12
726	0.119
726	0.118
727	0.117
727	0.116
727	0.114
728	0.113
728	0.112
729	0.111
729	0.11
730	0.109
730	0.108
730	0.107
731	0.106
731	0.105
732	0.104
732	0.102
733	0.101
733	0.099
734	0.097
734	0.095
734	0.094
735	0.093
735	0.091
736	0.089
736	0.088
737	0.087
737	0.086
737	0.084
738	0.082
738	0.08
739	0.079
739	0.077
740	0.076
740	0.075
741	0.073
741	0.071
741	0.069
742	0.066
742	0.065
743	0.063
743	0.061
744	0.06
744	0.058
744	0.056
745	0.054
745	0.052
746	0.051
746	0.05
747	0.049
747	0.048
748	0.047
748	0.047
748	0.046
749	0.045
749	0.045
750	0.045
750	0.044
751	0.044
751	0.044
751	0.044
752	0.043
752	0.042
753	0.042
753	0.042
754	0.041
754	0.041
754	0.041
755	0.04
755	0.04
756	0.039
756	0.037
757	0.036
757	0.035
758	0.034
758	0.033
758	0.032
759	0.031
759	0.029
760	0.027
760	0.025
761	0.025
761	0.025
761	0.024
762	0.023
762	0.022
763	0.021
763	0.019
764	0.017
764	0.014
764	0.012
765	0.01
765	0.009
766	0.007
766	0.006
767	0.005
767	0.003
768	0.001
768	-0.001
768	-0.001
769	-0.002
769	-0.002
770	-0.003
770	-0.005
771	-0.007
771	-0.009
771	-0.011
772	-0.012
772	-0.014
773	-0.015
773	-0.017
774	-0.019
774	-0.021
775	-0.023
775	-0.026
775	-0.028
776	-0.031
776	-0.033
777	-0.036
777	-0.038
778	-0.041
778	-0.044
778	-0.046
779	-0.048
779	-0.049
780	-0.052
780	-0.055
781	-0.058
781	-0.062
781	-0.066
782	-0.072
782	-0.077
783	-0.082
783	-0.088
784	-0.095
784	-0.101
784	-0.106
785	-0.112
785	-0.117
786	-0.121
786	-0.12
787	-0.118
787	-0.116
788	-0.117
788	-0.118
788	-0.118
789	-0.12
789	-0.119
790	-0.115
790	-0.114
791	-0.114
791	-0.115
791	-0.117
792	-0.112
792	-0.103
793	-0.097
793	-0.094
794	-0.093
794	-0.095
794	-0.099
795	-0.101
795	-0.102
796	-0.102
796	-0.105
797	-0.113
797	-0.123
797	-0.129
798	-0.134
798	-0.136
799	-0.137
799	-0.137
800	-0.137
800	-0.139
801	-0.142
801	-0.143
801	-0.144
802	-0.146
802	-0.147
803	-0.148
803	-0.148
804	-0.147
804	-0.142
804	-0.135
805	-0.131
805	-0.129
806	-0.127
806	-0.125
807	-0.124
807	-0.123
807	-0.123
808	-0.123
808	-0.124
809	-0.129
809	-0.134
810	-0.138
810	-0.14
810	-0.143
811	-0.146
811	-0.145
812	-0.141
812	-0.138
813	-0.137
813	-0.137
813	-0.137
814	-0.138
814	-0.137
815	-0.135
815	-0.132
816	-0.13
816	-0.131
817	-0.135
817	-0.136
817	-0.135
818	-0.131
818	-0.126
819	-0.121
819	-0.116
820	-0.113
820	-0.11
820	-0.105
821	-0.098
821	-0.092
822	-0.086
822	-0.08
823	-0.076
823	-0.072
823	-0.068
824	-0.064
824	-0.06
825	-0.056
825	-0.051
826	-0.048
826	-0.045
826	-0.043
827	-0.04
827	-0.038
828	-0.036
828	-0.034
829	-0.032
829	-0.03
829	-0.029
830	-0.028
830	-0.027
831	-0.025
831	-0.024
832	-0.023
832	-0.022
832	-0.022
833	-0.021
833	-0.021
834	-0.02
834	-0.02
835	-0.02
835	-0.02
835	-0.02
836	-0.019
836	-0.019
837	-0.018
837	-0.018
838	-0.017
838	-0.017
839	-0.017
839	-0.016
839	-0.016
840	-0.015
840	-0.014
841	-0.014
841	-0.013
842	-0.012
842	-0.011
842	-0.01
843	-0.009
843	-0.008
844	-0.008
844	-0.007
845	-0.007
845	-0.007
845	-0.007
846	-0.007
846	-0.008
847	-0.008
847	-0.009
848	-0.01
848	-0.01
848	-0.011
849	-0.011
849	-0.012
850	-0.013
850	-0.013
851	-0.014
851	-0.014
851	-0.014
852	-0.014
852	-0.014
853	-0.014
853	-0.014
854	-0.013
854	-0.013
854	-0.013
855	-0.012
855	-0.012
856	-0.012
856	-0.011
857	-0.011
857	-0.011
857	-0.011
858	-0.01
858	-0.01
859	-0.01
859	-0.01
860	-0.009
860	-0.009
860	-0.009
861	-0.008
861	-0.008
862	-0.008
862	-0.008
863	-0.008
863	-0.008
863	-0.008
864	-0.008
864	-0.008
865	-0.008
865	-0.009
866	-0.01
866	-0.01
866	-0.01
867	-0.01
867	-0.01
868	-0.01
868	-0.009
869	-0.009
869	-0.008
869	-0.008
870	-0.008
870	-0.008
871	-0.007
871	-0.007
872	-0.007
872	-0.008
872	-0.008
873	-0.008
873	-0.008
874	-0.008
874	-0.008
875	-0.008
875	-0.008
875	-0.008
876	-0.008
876	-0.008
877	-0.009
877	-0.009
878	-0.01
878	-0.011
878	-0.012
879	-0.013
879	-0.014
880	-0.014
880	-0.014
881	-0.015
881	-0.014
881	-0.014
882	-0.014
882	-0.013
883	-0.012
883	-0.012
884	-0.011
884	-0.01
884	-0.01
885	-0.009
885	-0.008
886	-0.008
886	-0.008
887	-0.008
887	-0.007
887	-0.007
888	-0.007
888	-0.006
889	-0.005
889	-0.004
890	-0.004
890	-0.003
890	-0.003
891	-0.002
891	-0.002
892	-0.002
892	-0.002
893	-0.003
893	-0.003
893	-0.003
894	-0.004
894	-0.005
895	-0.006
895	-0.006
895	-0.008
896	-0.009
896	-0.009
897	-0.01
897	-0.01
898	-0.01
898	-0.011
898	-0.011
899	-0.011
899	-0.011
900	-0.011
900	-0.01
901	-0.01
901	-0.01
901	-0.01
902	-0.01
902	-0.01
903	-0.01
903	-0.011
904	-0.011
904	-0.012
904	-0.012
905	-0.013
905	-0.013
906	-0.013
906	-0.014
907	-0.014
907	-0.014
907	-0.015
908	-0.015
908	-0.015
909	-0.015
909	-0.015
910	-0.015
910	-0.015
910	-0.014
911	-0.014
911	-0.014
912	-0.014
912	-0.013
913	-0.013
913	-0.014
913	-0.014
914	-0.015
914	-0.015
915	-0.016
915	-0.017
916	-0.018
916	-0.019
916	-0.019
917	-0.02
917	-0.02
918	-0.019
918	-0.019
918	-0.018
919	-0.017
919	-0.016
920	-0.015
920	-0.013
921	-0.012
921	-0.011
921	-0.01
922	-0.009
922	-0.008
923	-0.008
923	-0.007
924	-0.007
924	-0.006
924	-0.006
925	-0.006
925	-0.005
926	-0.005
926	-0.006
927	-0.006
927	-0.007
927	-0.007
928	-0.007
928	-0.008
929	-0.009
929	-0.009
930	-0.009
930	-0.01
930	-0.011
931	-0.012
931	-0.013
932	-0.014
932	-0.015
933	-0.016
933	-0.017
933	-0.018
934	-0.019
934	-0.02
935	-0.021
935	-0.022
935	-0.023
936	-0.023
936	-0.024
937	-0.024
937	-0.024
938	-0.024
938	-0.023
938	-0.023
939	-0.022
939	-0.021
940	-0.021
940	-0.02
941	-0.019
941	-0.018
941	-0.017
942	-0.017
942	-0.016
943	-0.016
943	-0.015
944	-0.015
944	-0.015
944	-0.015
945	-0.014
945	-0.014
946	-0.013
946	-0.013
946	-0.013
947	-0.012
947	-0.012
948	-0.011
948	-0.011
949	-0.011
949	-0.01
949	-0.009
950	-0.009
950	-0.009
951	-0.008
951	-0.008
952	-0.008
952	-0.008
952	-0.009
953	-0.009
953	-0.009
954	-0.01
954	-0.011
955	-0.011
955	-0.011
955	-0.012
956	-0.012
956	-0.011
957	-0.012
957	-0.012
957	-0.012
958	-0.012
958	-0.013
959	-0.013
959	-0.013
960	-0.014
960	-0.015
960	-0.016
961	-0.017
961	-0.017
962	-0.018
962	-0.018
963	-0.018
963	-0.018
963	-0.018
964	-0.017
964	-0.016
965	-0.016
965	-0.015
966	-0.013
966	-0.012
966	-0.011
967	-0.01
967	-0.01
968	-0.01
968	-0.009
968	-0.009
969	-0.01
969	-0.01
970	-0.01
970	-0.011
971	-0.011
971	-0.011
971	-0.012
972	-0.012
972	-0.012
973	-0.012
973	-0.013
974	-0.013
974	-0.013
974	-0.014
975	-0.014
975	-0.015
976	-0.016
976	-0.017
976	-0.018
977	-0.019
977	-0.02
978	-0.021
978	-0.022
979	-0.022
979	-0.023
979	-0.023
980	-0.023
980	-0.023
981	-0.023
981	-0.022
982	-0.022
982	-0.021
982	-0.02
983	-0.019
983	-0.018
984	-0.017
984	-0.016
984	-0.015
985	-0.015
985	-0.015
986	-0.015
986	-0.015
987	-0.015
987	-0.016
987	-0.016
988	-0.016
988	-0.017
989	-0.018
989	-0.018
990	-0.019
990	-0.019
990	-0.019
991	-0.019
991	-0.019
992	-0.02
992	-0.02
992	-0.021
993	-0.021
993	-0.022
994	-0.023
994	-0.024
995	-0.025
995	-0.026
995	-0.027
996	-0.028
996	-0.029
997	-0.029
997	-0.029
997	-0.03
998	-0.029
998	-0.028
999	-0.027
999	-0.026
1000	-0.025
1000	-0.024
1000	-0.023
1001	-0.022
1001	-0.021
1002	-0.02
1002	-0.019
1003	-0.019
1003	-0.019
1003	-0.018
1004	-0.018
1004	-0.018
1005	-0.017
1005	-0.017
1005	-0.017
1006	-0.017
1006	-0.017
1007	-0.017
1007	-0.017
1008	-0.017
1008	-0.016
1008	-0.016
1009	-0.016
1009	-0.015
1010	-0.015
1010	-0.015
1010	-0.014
1011	-0.014
1011	-0.014
1012	-0.014
1012	-0.014
1013	-0.014
1013	-0.015
1013	-0.016
1014	-0.016
1014	-0.017
1015	-0.018
1015	-0.02
1016	-0.021
1016	-0.022
1016	-0.023
1017	-0.024
1017	-0.025
1018	-0.026
1018	-0.026
1018	-0.027
1019	-0.027
1019	-0.028
1020	-0.028
1020	-0.028
1021	-0.029
1021	-0.029
1021	-0.029
1022	-0.029
1022	-0.03
1023	-0.03
1023	-0.03
1023	-0.031
1024	-0.032
1024	-0.032
1025	-0.033
1025	-0.033
1026	-0.034
1026	-0.034
1026	-0.034
1027	-0.034
1027	-0.034
1028	-0.034
1028	-0.033
1028	-0.033
1029	-0.032
1029	-0.032
1030	-0.031
1030	-0.031
1031	-0.03
1031	-0.029
1031	-0.029
1032	-0.028
1032	-0.027
1033	-0.027
1033	-0.026
1033	-0.026
1034	-0.027
1034	-0.027
1035	-0.027
1035	-0.028
1036	-0.028
1036	-0.028
1036	-0.029
1037	-0.029
1037	-0.03
1038	-0.03
1038	-0.031
1039	-0.031
1039	-0.031
1039	-0.031
1040	-0.031
1040	-0.031
1041	-0.032
1041	-0.033
1041	-0.033
1042	-0.034
1042	-0.035
1043	-0.036
1043	-0.037
1044	-0.038
1044	-0.039
1044	-0.04
1045	-0.041
1045	-0.042
1046	-0.042
1046	-0.042
1046	-0.042
1047	-0.042
1047	-0.042
1048	-0.042
1048	-0.041
1049	-0.042
1049	-0.042
1049	-0.042
1050	-0.043
1050	-0.043
1051	-0.043
1051	-0.043
1051	-0.043
1052	-0.043
1052	-0.042
1053	-0.042
1053	-0.041
1053	-0.04
1054	-0.039
1054	-0.038
1055	-0.037
1055	-0.036
1056	-0.035
1056	-0.035
1056	-0.036
1057	-0.036
1057	-0.036
1058	-0.036
1058	-0.037
1058	-0.037
1059	-0.037
1059	-0.038
1060	-0.038
1060	-0.039
1061	-0.039
1061	-0.039
1061	-0.039
1062	-0.039
1062	-0.039
1063	-0.039
1063	-0.04
1063	-0.04
1064	-0.04
1064	-0.04
1065	-0.041
1065	-0.041
1066	-0.041
1066	-0.041
1066	-0.042
1067	-0.042
1067	-0.042
1068	-0.042
1068	-0.042
1068	-0.043
1069	-0.043
1069	-0.044
1070	-0.044
1070	-0.044
1071	-0.044
1071	-0.044
1071	-0.044
1072	-0.044
1072	-0.043
1073	-0.043
1073	-0.042
1073	-0.041
1074	-0.04
1074	-0.04
1075	-0.04
1075	-0.04
1076	-0.04
1076	-0.039
1076	-0.04
1077	-0.04
1077	-0.04
1078	-0.041
1078	-0.041
1078	-0.041
1079	-0.041
1079	-0.041
1080	-0.041
1080	-0.04
1080	-0.04
1081	-0.039
1081	-0.039
1082	-0.038
1082	-0.038
1083	-0.038
1083	-0.038
1083	-0.037
1084	-0.036
1084	-0.036
1085	-0.036
1085	-0.035
1085	-0.034
1086	-0.034
1086	-0.035
1087	-0.034
1087	-0.033
1088	-0.033
1088	-0.033
1088	-0.033
1089	-0.034
1089	-0.033
1090	-0.034
1090	-0.034
1090	-0.033
1091	-0.032
1091	-0.031
1092	-0.03
1092	-0.029
1092	-0.028
1093	-0.027
1093	-0.025
1094	-0.023
1094	-0.022
1095	-0.021
1095	-0.019
1095	-0.017
1096	-0.016
1096	-0.014
1097	-0.012
1097	-0.011
1097	-0.008
1098	-0.006
1098	-0.004
1099	-0.001
1099	0.002
1100	0.004
1100	0.007
1100	0.009
1101	0.012
1101	0.015
1102	0.02
1102	0.023
1102	0.028
1103	0.032
1103	0.037
1104	0.044
1104	0.05
1104	0.058
1105	0.066
1105	0.072
1106	0.08
1106	0.088
1107	0.096
1107	0.109
1107	0.125
1108	0.18
1108	0.257
1109	0.381
1109	0.617
1109	0.886
1110	-0
1110	-0
1111	-0
1111	-0
