Data from 15c-100ul-ns-20ul-nr-full-exp-7ul-bp_Absorbance__103__03540.txt Node

Date: Mon Jan 15 13:44:57 CET 2024
User: Marek
Spectrometer: MAYP115816
Trigger mode: 0
Integration Time (sec): 2.000000E-1
Scans to average: 10
Electric dark correction enabled: true
Nonlinearity correction enabled: true
Boxcar width: 5
XAxis mode: Wavelengths
Number of Pixels in Spectrum: 2068
>>>>>Begin Spectral Data<<<<<
199	-1.682
199	-1.556
200	-1.417
200	-1.31
201	-1.239
201	-1.191
202	-1.124
202	-1.073
203	-1.027
203	-0.991
204	-0.963
204	-0.942
205	-0.921
205	-0.913
205	-0.91
206	-0.91
206	-0.909
207	-0.905
207	-0.901
208	-0.9
208	-0.895
209	-0.894
209	-0.893
210	-0.893
210	-0.891
211	-0.889
211	-0.887
212	-0.885
212	-0.885
213	-0.885
213	-0.884
213	-0.885
214	-0.885
214	-0.886
215	-0.885
215	-0.885
216	-0.885
216	-0.884
217	-0.883
217	-0.882
218	-0.882
218	-0.878
219	-0.876
219	-0.875
220	-0.87
220	-0.867
221	-0.863
221	-0.86
221	-0.855
222	-0.85
222	-0.846
223	-0.838
223	-0.836
224	-0.83
224	-0.822
225	-0.813
225	-0.803
226	-0.794
226	-0.783
227	-0.768
227	-0.753
228	-0.734
228	-0.715
229	-0.691
229	-0.664
229	-0.637
230	-0.607
230	-0.574
231	-0.537
231	-0.501
232	-0.464
232	-0.423
233	-0.383
233	-0.343
234	-0.302
234	-0.263
235	-0.225
235	-0.188
236	-0.154
236	-0.12
236	-0.089
237	-0.06
237	-0.033
238	-0.008
238	0.014
239	0.035
239	0.053
240	0.07
240	0.085
241	0.098
241	0.109
242	0.12
242	0.13
243	0.138
243	0.146
243	0.153
244	0.159
244	0.165
245	0.17
245	0.175
246	0.18
246	0.184
247	0.187
247	0.191
248	0.194
248	0.197
249	0.2
249	0.202
250	0.205
250	0.207
250	0.21
251	0.212
251	0.213
252	0.216
252	0.217
253	0.219
253	0.22
254	0.221
254	0.223
255	0.223
255	0.224
256	0.225
256	0.226
257	0.226
257	0.227
258	0.227
258	0.227
258	0.228
259	0.228
259	0.228
260	0.228
260	0.228
261	0.227
261	0.227
262	0.227
262	0.226
263	0.226
263	0.225
264	0.225
264	0.224
265	0.223
265	0.222
265	0.221
266	0.22
266	0.219
267	0.218
267	0.217
268	0.215
268	0.214
269	0.213
269	0.211
270	0.21
270	0.208
271	0.207
271	0.205
272	0.204
272	0.202
272	0.201
273	0.199
273	0.197
274	0.196
274	0.194
275	0.193
275	0.191
276	0.189
276	0.188
277	0.186
277	0.184
278	0.183
278	0.181
278	0.18
279	0.178
279	0.175
280	0.174
280	0.172
281	0.17
281	0.168
282	0.166
282	0.165
283	0.163
283	0.161
284	0.16
284	0.159
285	0.157
285	0.156
285	0.155
286	0.153
286	0.152
287	0.151
287	0.15
288	0.149
288	0.147
289	0.146
289	0.145
290	0.144
290	0.143
291	0.142
291	0.141
292	0.14
292	0.139
292	0.138
293	0.137
293	0.137
294	0.136
294	0.135
295	0.134
295	0.134
296	0.133
296	0.132
297	0.132
297	0.131
298	0.131
298	0.13
298	0.129
299	0.129
299	0.128
300	0.128
300	0.128
301	0.127
301	0.127
302	0.126
302	0.126
303	0.125
303	0.125
304	0.125
304	0.124
305	0.124
305	0.124
305	0.123
306	0.123
306	0.122
307	0.122
307	0.122
308	0.121
308	0.121
309	0.12
309	0.12
310	0.119
310	0.119
311	0.119
311	0.118
311	0.118
312	0.117
312	0.117
313	0.117
313	0.116
314	0.116
314	0.115
315	0.115
315	0.114
316	0.114
316	0.114
317	0.113
317	0.113
318	0.112
318	0.112
318	0.112
319	0.111
319	0.111
320	0.11
320	0.11
321	0.109
321	0.109
322	0.108
322	0.108
323	0.107
323	0.107
324	0.107
324	0.106
324	0.106
325	0.105
325	0.105
326	0.104
326	0.104
327	0.104
327	0.103
328	0.103
328	0.102
329	0.102
329	0.101
330	0.101
330	0.1
330	0.1
331	0.1
331	0.099
332	0.099
332	0.098
333	0.098
333	0.097
334	0.097
334	0.096
335	0.096
335	0.096
336	0.095
336	0.095
336	0.095
337	0.094
337	0.094
338	0.094
338	0.093
339	0.093
339	0.093
340	0.092
340	0.092
341	0.091
341	0.091
342	0.09
342	0.09
342	0.09
343	0.089
343	0.089
344	0.089
344	0.088
345	0.088
345	0.088
346	0.087
346	0.087
347	0.087
347	0.086
348	0.086
348	0.086
348	0.086
349	0.085
349	0.085
350	0.085
350	0.085
351	0.084
351	0.084
352	0.084
352	0.083
353	0.083
353	0.083
354	0.082
354	0.082
354	0.081
355	0.081
355	0.081
356	0.081
356	0.081
357	0.081
357	0.081
358	0.08
358	0.08
359	0.08
359	0.08
360	0.08
360	0.081
360	0.08
361	0.08
361	0.08
362	0.08
362	0.08
363	0.08
363	0.08
364	0.08
364	0.08
365	0.08
365	0.08
366	0.08
366	0.08
366	0.079
367	0.08
367	0.079
368	0.079
368	0.079
369	0.078
369	0.078
370	0.078
370	0.078
371	0.078
371	0.078
372	0.077
372	0.077
372	0.077
373	0.077
373	0.077
374	0.077
374	0.077
375	0.077
375	0.077
376	0.077
376	0.078
377	0.078
377	0.078
378	0.078
378	0.078
378	0.078
379	0.078
379	0.078
380	0.078
380	0.078
381	0.078
381	0.077
382	0.077
382	0.077
383	0.077
383	0.077
383	0.076
384	0.076
384	0.076
385	0.076
385	0.076
386	0.076
386	0.076
387	0.076
387	0.076
388	0.076
388	0.075
389	0.076
389	0.076
389	0.076
390	0.076
390	0.076
391	0.076
391	0.076
392	0.076
392	0.076
393	0.076
393	0.076
394	0.076
394	0.075
394	0.075
395	0.075
395	0.075
396	0.075
396	0.075
397	0.075
397	0.075
398	0.075
398	0.074
399	0.074
399	0.074
400	0.074
400	0.074
400	0.074
401	0.073
401	0.073
402	0.072
402	0.072
403	0.072
403	0.072
404	0.072
404	0.072
405	0.072
405	0.072
405	0.072
406	0.072
406	0.072
407	0.072
407	0.072
408	0.072
408	0.072
409	0.071
409	0.071
410	0.071
410	0.071
411	0.071
411	0.071
411	0.071
412	0.07
412	0.07
413	0.07
413	0.07
414	0.07
414	0.07
415	0.069
415	0.069
416	0.068
416	0.068
416	0.068
417	0.068
417	0.068
418	0.068
418	0.068
419	0.068
419	0.068
420	0.069
420	0.069
421	0.069
421	0.07
421	0.07
422	0.07
422	0.07
423	0.07
423	0.069
424	0.069
424	0.068
425	0.068
425	0.068
426	0.068
426	0.067
427	0.067
427	0.067
427	0.067
428	0.068
428	0.068
429	0.068
429	0.068
430	0.068
430	0.068
431	0.068
431	0.068
432	0.068
432	0.067
432	0.066
433	0.066
433	0.065
434	0.065
434	0.065
435	0.065
435	0.065
436	0.065
436	0.065
437	0.065
437	0.065
437	0.065
438	0.065
438	0.065
439	0.064
439	0.064
440	0.064
440	0.064
441	0.064
441	0.064
442	0.064
442	0.064
442	0.064
443	0.064
443	0.064
444	0.064
444	0.064
445	0.064
445	0.064
446	0.064
446	0.064
447	0.064
447	0.064
447	0.064
448	0.063
448	0.063
449	0.063
449	0.063
450	0.063
450	0.063
451	0.062
451	0.062
452	0.062
452	0.062
452	0.062
453	0.062
453	0.061
454	0.061
454	0.061
455	0.061
455	0.061
456	0.061
456	0.061
457	0.061
457	0.061
458	0.061
458	0.061
458	0.062
459	0.062
459	0.062
460	0.061
460	0.061
461	0.06
461	0.06
462	0.06
462	0.06
463	0.06
463	0.06
463	0.06
464	0.06
464	0.06
465	0.06
465	0.06
466	0.06
466	0.06
467	0.06
467	0.06
467	0.059
468	0.058
468	0.057
469	0.057
469	0.057
470	0.057
470	0.056
471	0.057
471	0.057
472	0.057
472	0.057
472	0.057
473	0.058
473	0.058
474	0.059
474	0.059
475	0.059
475	0.06
476	0.059
476	0.059
477	0.059
477	0.059
477	0.059
478	0.059
478	0.059
479	0.059
479	0.06
480	0.06
480	0.06
481	0.06
481	0.061
482	0.062
482	0.062
482	0.063
483	0.064
483	0.066
484	0.067
484	0.067
485	0.067
485	0.068
486	0.068
486	0.068
487	0.068
487	0.068
487	0.068
488	0.068
488	0.067
489	0.066
489	0.066
490	0.066
490	0.066
491	0.067
491	0.067
492	0.067
492	0.068
492	0.068
493	0.069
493	0.069
494	0.071
494	0.072
495	0.073
495	0.074
496	0.075
496	0.076
496	0.077
497	0.077
497	0.078
498	0.078
498	0.079
499	0.079
499	0.079
500	0.08
500	0.08
501	0.081
501	0.081
501	0.082
502	0.082
502	0.083
503	0.084
503	0.084
504	0.085
504	0.085
505	0.085
505	0.086
506	0.086
506	0.087
506	0.087
507	0.088
507	0.088
508	0.089
508	0.09
509	0.09
509	0.091
510	0.091
510	0.092
511	0.093
511	0.093
511	0.093
512	0.094
512	0.094
513	0.094
513	0.094
514	0.094
514	0.094
515	0.095
515	0.094
515	0.094
516	0.094
516	0.094
517	0.094
517	0.094
518	0.095
518	0.095
519	0.095
519	0.094
520	0.094
520	0.094
520	0.094
521	0.093
521	0.092
522	0.091
522	0.09
523	0.09
523	0.089
524	0.089
524	0.089
524	0.089
525	0.089
525	0.089
526	0.09
526	0.091
527	0.092
527	0.093
528	0.094
528	0.095
529	0.096
529	0.096
529	0.097
530	0.097
530	0.098
531	0.098
531	0.098
532	0.097
532	0.097
533	0.097
533	0.097
533	0.096
534	0.096
534	0.095
535	0.095
535	0.095
536	0.095
536	0.095
537	0.095
537	0.095
538	0.094
538	0.094
538	0.093
539	0.093
539	0.093
540	0.092
540	0.091
541	0.09
541	0.089
542	0.088
542	0.088
542	0.087
543	0.087
543	0.086
544	0.086
544	0.086
545	0.086
545	0.086
546	0.086
546	0.085
547	0.085
547	0.083
547	0.083
548	0.082
548	0.082
549	0.081
549	0.08
550	0.079
550	0.078
551	0.077
551	0.077
551	0.076
552	0.076
552	0.076
553	0.076
553	0.076
554	0.076
554	0.075
555	0.074
555	0.074
556	0.073
556	0.072
556	0.071
557	0.07
557	0.07
558	0.069
558	0.068
559	0.068
559	0.067
560	0.067
560	0.066
560	0.066
561	0.067
561	0.067
562	0.067
562	0.067
563	0.066
563	0.065
564	0.064
564	0.063
564	0.062
565	0.062
565	0.062
566	0.061
566	0.06
567	0.06
567	0.06
568	0.061
568	0.061
568	0.062
569	0.063
569	0.063
570	0.063
570	0.062
571	0.063
571	0.063
572	0.063
572	0.063
573	0.063
573	0.062
573	0.061
574	0.061
574	0.061
575	0.061
575	0.063
576	0.063
576	0.062
577	0.061
577	0.06
577	0.061
578	0.061
578	0.061
579	0.063
579	0.064
580	0.062
580	0.06
581	0.058
581	0.057
581	0.058
582	0.059
582	0.059
583	0.06
583	0.059
584	0.056
584	0.053
585	0.054
585	0.055
585	0.055
586	0.055
586	0.055
587	0.053
587	0.052
588	0.05
588	0.05
589	0.05
589	0.051
590	0.051
590	0.051
590	0.053
591	0.053
591	0.053
592	0.052
592	0.052
593	0.052
593	0.052
594	0.051
594	0.05
594	0.05
595	0.05
595	0.049
596	0.049
596	0.051
597	0.053
597	0.054
598	0.055
598	0.056
598	0.056
599	0.056
599	0.056
600	0.055
600	0.054
601	0.054
601	0.052
602	0.051
602	0.05
602	0.049
603	0.049
603	0.05
604	0.05
604	0.051
605	0.052
605	0.053
606	0.053
606	0.052
606	0.052
607	0.051
607	0.052
608	0.051
608	0.05
609	0.049
609	0.05
610	0.049
610	0.048
610	0.049
611	0.05
611	0.051
612	0.052
612	0.054
613	0.055
613	0.056
614	0.056
614	0.055
614	0.055
615	0.054
615	0.054
616	0.054
616	0.053
617	0.053
617	0.052
618	0.051
618	0.051
618	0.051
619	0.052
619	0.053
620	0.055
620	0.055
621	0.056
621	0.056
622	0.057
622	0.057
622	0.057
623	0.057
623	0.058
624	0.058
624	0.057
625	0.057
625	0.057
626	0.057
626	0.057
626	0.057
627	0.058
627	0.058
628	0.059
628	0.059
629	0.06
629	0.06
630	0.06
630	0.06
630	0.061
631	0.062
631	0.063
632	0.063
632	0.064
633	0.065
633	0.066
634	0.067
634	0.068
634	0.07
635	0.071
635	0.071
636	0.072
636	0.073
637	0.073
637	0.074
638	0.074
638	0.075
638	0.075
639	0.075
639	0.075
640	0.076
640	0.077
641	0.078
641	0.079
642	0.08
642	0.082
642	0.083
643	0.084
643	0.086
644	0.087
644	0.089
645	0.09
645	0.092
646	0.093
646	0.095
646	0.096
647	0.097
647	0.099
648	0.099
648	0.101
649	0.102
649	0.103
650	0.105
650	0.106
650	0.108
651	0.109
651	0.111
652	0.113
652	0.115
653	0.118
653	0.126
653	0.136
654	0.111
654	0.092
655	0.093
655	0.094
656	0.095
656	0.097
657	0.098
657	0.099
657	0.1
658	0.097
658	0.09
659	0.112
659	0.142
660	0.149
660	0.15
661	0.152
661	0.153
661	0.156
662	0.158
662	0.16
663	0.162
663	0.164
664	0.166
664	0.167
665	0.169
665	0.171
665	0.173
666	0.175
666	0.177
667	0.179
667	0.181
668	0.183
668	0.185
669	0.187
669	0.19
669	0.193
670	0.195
670	0.196
671	0.198
671	0.199
672	0.2
672	0.201
672	0.202
673	0.203
673	0.204
674	0.205
674	0.205
675	0.206
675	0.208
676	0.21
676	0.211
676	0.212
677	0.213
677	0.215
678	0.215
678	0.216
679	0.217
679	0.217
680	0.218
680	0.219
680	0.218
681	0.219
681	0.22
682	0.22
682	0.221
683	0.223
683	0.224
684	0.225
684	0.225
684	0.225
685	0.226
685	0.226
686	0.227
686	0.227
687	0.227
687	0.227
687	0.227
688	0.227
688	0.227
689	0.228
689	0.229
690	0.229
690	0.228
691	0.228
691	0.228
691	0.227
692	0.226
692	0.225
693	0.225
693	0.225
694	0.223
694	0.222
695	0.223
695	0.224
695	0.224
696	0.224
696	0.224
697	0.224
697	0.223
698	0.223
698	0.222
698	0.221
699	0.22
699	0.218
700	0.216
700	0.215
701	0.214
701	0.213
702	0.212
702	0.211
702	0.21
703	0.208
703	0.207
704	0.206
704	0.206
705	0.205
705	0.204
705	0.202
706	0.201
706	0.2
707	0.199
707	0.197
708	0.195
708	0.193
709	0.192
709	0.19
709	0.187
710	0.184
710	0.183
711	0.181
711	0.179
712	0.178
712	0.177
713	0.176
713	0.175
713	0.173
714	0.172
714	0.17
715	0.17
715	0.168
716	0.167
716	0.166
716	0.165
717	0.163
717	0.162
718	0.16
718	0.158
719	0.157
719	0.156
720	0.154
720	0.152
720	0.149
721	0.147
721	0.145
722	0.143
722	0.141
723	0.14
723	0.139
723	0.137
724	0.135
724	0.134
725	0.132
725	0.131
726	0.13
726	0.129
727	0.128
727	0.127
727	0.126
728	0.125
728	0.124
729	0.124
729	0.123
730	0.122
730	0.121
730	0.12
731	0.119
731	0.118
732	0.117
732	0.116
733	0.114
733	0.113
734	0.111
734	0.109
734	0.108
735	0.107
735	0.105
736	0.103
736	0.102
737	0.101
737	0.1
737	0.098
738	0.096
738	0.094
739	0.093
739	0.092
740	0.09
740	0.089
741	0.088
741	0.086
741	0.083
742	0.08
742	0.078
743	0.077
743	0.075
744	0.074
744	0.072
744	0.07
745	0.068
745	0.067
746	0.065
746	0.064
747	0.064
747	0.063
748	0.063
748	0.062
748	0.062
749	0.061
749	0.061
750	0.061
750	0.06
751	0.06
751	0.06
751	0.06
752	0.059
752	0.058
753	0.058
753	0.058
754	0.058
754	0.057
754	0.057
755	0.057
755	0.057
756	0.056
756	0.054
757	0.053
757	0.053
758	0.052
758	0.05
758	0.049
759	0.048
759	0.046
760	0.044
760	0.042
761	0.041
761	0.041
761	0.04
762	0.039
762	0.038
763	0.037
763	0.035
764	0.032
764	0.03
764	0.028
765	0.026
765	0.024
766	0.023
766	0.022
767	0.021
767	0.018
768	0.016
768	0.014
768	0.013
769	0.013
769	0.012
770	0.011
770	0.009
771	0.007
771	0.005
771	0.003
772	0.001
772	-0.001
773	-0.003
773	-0.005
774	-0.008
774	-0.01
775	-0.013
775	-0.016
775	-0.019
776	-0.022
776	-0.025
777	-0.028
777	-0.031
778	-0.035
778	-0.038
778	-0.041
779	-0.043
779	-0.045
780	-0.048
780	-0.052
781	-0.056
781	-0.061
781	-0.067
782	-0.073
782	-0.08
783	-0.087
783	-0.093
784	-0.1
784	-0.106
784	-0.111
785	-0.117
785	-0.122
786	-0.124
786	-0.123
787	-0.12
787	-0.117
788	-0.117
788	-0.117
788	-0.118
789	-0.119
789	-0.118
790	-0.115
790	-0.113
791	-0.113
791	-0.115
791	-0.117
792	-0.112
792	-0.102
793	-0.096
793	-0.093
794	-0.092
794	-0.094
794	-0.098
795	-0.101
795	-0.101
796	-0.101
796	-0.104
797	-0.112
797	-0.122
797	-0.128
798	-0.133
798	-0.136
799	-0.136
799	-0.136
800	-0.136
800	-0.138
801	-0.141
801	-0.143
801	-0.143
802	-0.145
802	-0.146
803	-0.147
803	-0.147
804	-0.146
804	-0.141
804	-0.134
805	-0.13
805	-0.128
806	-0.126
806	-0.124
807	-0.123
807	-0.123
807	-0.123
808	-0.122
808	-0.123
809	-0.128
809	-0.134
810	-0.137
810	-0.139
810	-0.142
811	-0.145
811	-0.145
812	-0.14
812	-0.137
813	-0.136
813	-0.136
813	-0.137
814	-0.137
814	-0.136
815	-0.134
815	-0.131
816	-0.129
816	-0.13
817	-0.134
817	-0.137
817	-0.135
818	-0.132
818	-0.127
819	-0.121
819	-0.117
820	-0.114
820	-0.11
820	-0.105
821	-0.098
821	-0.09
822	-0.083
822	-0.077
823	-0.071
823	-0.067
823	-0.062
824	-0.057
824	-0.052
825	-0.046
825	-0.041
826	-0.036
826	-0.033
826	-0.03
827	-0.027
827	-0.024
828	-0.021
828	-0.019
829	-0.017
829	-0.015
829	-0.013
830	-0.012
830	-0.011
831	-0.009
831	-0.007
832	-0.006
832	-0.005
832	-0.005
833	-0.004
833	-0.003
834	-0.003
834	-0.003
835	-0.002
835	-0.002
835	-0.002
836	-0.001
836	-0.001
837	-0
837	0
838	0
838	0.001
839	0.001
839	0.002
839	0.002
840	0.003
840	0.004
841	0.004
841	0.005
842	0.006
842	0.007
842	0.008
843	0.009
843	0.01
844	0.011
844	0.012
845	0.012
845	0.012
845	0.012
846	0.012
846	0.012
847	0.011
847	0.011
848	0.01
848	0.009
848	0.009
849	0.008
849	0.007
850	0.007
850	0.006
851	0.006
851	0.006
851	0.005
852	0.005
852	0.006
853	0.006
853	0.006
854	0.007
854	0.007
854	0.007
855	0.008
855	0.008
856	0.009
856	0.009
857	0.01
857	0.01
857	0.01
858	0.01
858	0.01
859	0.01
859	0.011
860	0.011
860	0.012
860	0.012
861	0.012
861	0.012
862	0.012
862	0.013
863	0.013
863	0.013
863	0.013
864	0.013
864	0.012
865	0.012
865	0.012
866	0.011
866	0.01
866	0.01
867	0.01
867	0.01
868	0.011
868	0.011
869	0.012
869	0.012
869	0.012
870	0.012
870	0.013
871	0.013
871	0.013
872	0.013
872	0.013
872	0.013
873	0.013
873	0.012
874	0.012
874	0.012
875	0.012
875	0.012
875	0.012
876	0.012
876	0.012
877	0.011
877	0.011
878	0.01
878	0.009
878	0.009
879	0.008
879	0.007
880	0.006
880	0.006
881	0.005
881	0.006
881	0.006
882	0.006
882	0.007
883	0.007
883	0.008
884	0.009
884	0.01
884	0.01
885	0.011
885	0.011
886	0.012
886	0.012
887	0.012
887	0.013
887	0.013
888	0.013
888	0.014
889	0.015
889	0.016
890	0.016
890	0.017
890	0.017
891	0.017
891	0.018
892	0.018
892	0.017
893	0.017
893	0.017
893	0.016
894	0.016
894	0.015
895	0.014
895	0.013
895	0.012
896	0.011
896	0.011
897	0.01
897	0.009
898	0.009
898	0.009
898	0.009
899	0.009
899	0.009
900	0.009
900	0.009
901	0.009
901	0.009
901	0.009
902	0.009
902	0.009
903	0.009
903	0.008
904	0.008
904	0.007
904	0.007
905	0.006
905	0.006
906	0.006
906	0.005
907	0.005
907	0.004
907	0.004
908	0.004
908	0.004
909	0.003
909	0.003
910	0.003
910	0.004
910	0.004
911	0.004
911	0.004
912	0.005
912	0.005
913	0.005
913	0.005
913	0.004
914	0.004
914	0.003
915	0.002
915	0.002
916	0.001
916	-0
916	-0.001
917	-0.001
917	-0.001
918	-0.001
918	-0
918	0
919	0.001
919	0.002
920	0.003
920	0.005
921	0.006
921	0.007
921	0.008
922	0.009
922	0.01
923	0.01
923	0.011
924	0.012
924	0.012
924	0.013
925	0.013
925	0.013
926	0.013
926	0.013
927	0.012
927	0.012
927	0.011
928	0.011
928	0.01
929	0.01
929	0.01
930	0.009
930	0.008
930	0.007
931	0.006
931	0.005
932	0.004
932	0.003
933	0.002
933	0.001
933	-0
934	-0.001
934	-0.003
935	-0.004
935	-0.005
935	-0.005
936	-0.006
936	-0.006
937	-0.006
937	-0.006
938	-0.006
938	-0.006
938	-0.005
939	-0.005
939	-0.004
940	-0.003
940	-0.002
941	-0.001
941	-0
941	0
942	0.001
942	0.002
943	0.002
943	0.002
944	0.002
944	0.003
944	0.003
945	0.004
945	0.004
946	0.005
946	0.005
946	0.005
947	0.006
947	0.006
948	0.006
948	0.007
949	0.007
949	0.007
949	0.008
950	0.008
950	0.008
951	0.009
951	0.009
952	0.009
952	0.009
952	0.009
953	0.009
953	0.008
954	0.007
954	0.007
955	0.006
955	0.006
955	0.006
956	0.006
956	0.006
957	0.006
957	0.005
957	0.005
958	0.005
958	0.004
959	0.004
959	0.004
960	0.003
960	0.002
960	0.001
961	0
961	-0
962	-0.001
962	-0.002
963	-0.002
963	-0.001
963	-0.001
964	-0.001
964	0
965	0.001
965	0.002
966	0.003
966	0.004
966	0.006
967	0.006
967	0.007
968	0.007
968	0.007
968	0.007
969	0.007
969	0.007
970	0.006
970	0.006
971	0.006
971	0.005
971	0.005
972	0.005
972	0.005
973	0.004
973	0.004
974	0.003
974	0.003
974	0.002
975	0.002
975	0.001
976	0
976	-0.001
976	-0.002
977	-0.003
977	-0.004
978	-0.005
978	-0.005
979	-0.006
979	-0.007
979	-0.007
980	-0.007
980	-0.007
981	-0.007
981	-0.006
982	-0.006
982	-0.005
982	-0.004
983	-0.003
983	-0.002
984	-0.001
984	0
984	0.001
985	0.002
985	0.002
986	0.002
986	0.001
987	0.001
987	0.001
987	0
988	-0
988	-0.001
989	-0.002
989	-0.002
990	-0.003
990	-0.003
990	-0.003
991	-0.003
991	-0.003
992	-0.004
992	-0.004
992	-0.005
993	-0.005
993	-0.006
994	-0.007
994	-0.008
995	-0.009
995	-0.01
995	-0.011
996	-0.012
996	-0.013
997	-0.013
997	-0.014
997	-0.014
998	-0.013
998	-0.012
999	-0.011
999	-0.01
1000	-0.009
1000	-0.008
1000	-0.007
1001	-0.006
1001	-0.005
1002	-0.004
1002	-0.003
1003	-0.003
1003	-0.002
1003	-0.002
1004	-0.002
1004	-0.002
1005	-0.001
1005	-0.001
1005	-0.001
1006	-0.001
1006	-0
1007	-0
1007	-0
1008	-0
1008	0
1008	0.001
1009	0.001
1009	0.001
1010	0.001
1010	0.002
1010	0.002
1011	0.002
1011	0.002
1012	0.002
1012	0.002
1013	0.002
1013	0.001
1013	0
1014	-0
1014	-0.002
1015	-0.002
1015	-0.004
1016	-0.005
1016	-0.006
1016	-0.007
1017	-0.008
1017	-0.009
1018	-0.01
1018	-0.011
1018	-0.011
1019	-0.012
1019	-0.012
1020	-0.012
1020	-0.013
1021	-0.013
1021	-0.013
1021	-0.014
1022	-0.014
1022	-0.014
1023	-0.014
1023	-0.015
1023	-0.016
1024	-0.016
1024	-0.017
1025	-0.017
1025	-0.018
1026	-0.018
1026	-0.019
1026	-0.019
1027	-0.019
1027	-0.019
1028	-0.018
1028	-0.018
1028	-0.018
1029	-0.017
1029	-0.016
1030	-0.016
1030	-0.015
1031	-0.014
1031	-0.014
1031	-0.013
1032	-0.012
1032	-0.011
1033	-0.011
1033	-0.011
1033	-0.011
1034	-0.011
1034	-0.012
1035	-0.012
1035	-0.012
1036	-0.013
1036	-0.013
1036	-0.013
1037	-0.014
1037	-0.014
1038	-0.014
1038	-0.015
1039	-0.014
1039	-0.014
1039	-0.015
1040	-0.015
1040	-0.015
1041	-0.016
1041	-0.017
1041	-0.018
1042	-0.019
1042	-0.019
1043	-0.02
1043	-0.022
1044	-0.022
1044	-0.023
1044	-0.024
1045	-0.025
1045	-0.025
1046	-0.026
1046	-0.026
1046	-0.026
1047	-0.025
1047	-0.025
1048	-0.024
1048	-0.024
1049	-0.024
1049	-0.025
1049	-0.025
1050	-0.025
1050	-0.026
1051	-0.026
1051	-0.026
1051	-0.026
1052	-0.026
1052	-0.026
1053	-0.025
1053	-0.025
1053	-0.024
1054	-0.023
1054	-0.022
1055	-0.02
1055	-0.02
1056	-0.019
1056	-0.019
1056	-0.02
1057	-0.02
1057	-0.02
1058	-0.02
1058	-0.02
1058	-0.021
1059	-0.021
1059	-0.021
1060	-0.021
1060	-0.021
1061	-0.021
1061	-0.021
1061	-0.021
1062	-0.021
1062	-0.021
1063	-0.021
1063	-0.021
1063	-0.022
1064	-0.022
1064	-0.022
1065	-0.022
1065	-0.023
1066	-0.023
1066	-0.024
1066	-0.024
1067	-0.024
1067	-0.024
1068	-0.024
1068	-0.024
1068	-0.025
1069	-0.025
1069	-0.025
1070	-0.025
1070	-0.025
1071	-0.025
1071	-0.025
1071	-0.025
1072	-0.025
1072	-0.024
1073	-0.023
1073	-0.022
1073	-0.022
1074	-0.021
1074	-0.02
1075	-0.02
1075	-0.02
1076	-0.02
1076	-0.019
1076	-0.02
1077	-0.02
1077	-0.02
1078	-0.021
1078	-0.02
1078	-0.02
1079	-0.02
1079	-0.019
1080	-0.019
1080	-0.019
1080	-0.018
1081	-0.018
1081	-0.017
1082	-0.016
1082	-0.016
1083	-0.015
1083	-0.015
1083	-0.014
1084	-0.014
1084	-0.013
1085	-0.012
1085	-0.012
1085	-0.011
1086	-0.01
1086	-0.01
1087	-0.009
1087	-0.008
1088	-0.009
1088	-0.009
1088	-0.008
1089	-0.008
1089	-0.008
1090	-0.008
1090	-0.007
1090	-0.007
1091	-0.005
1091	-0.004
1092	-0.003
1092	0
1092	0.002
1093	0.004
1093	0.007
1094	0.009
1094	0.012
1095	0.014
1095	0.017
1095	0.019
1096	0.022
1096	0.025
1097	0.028
1097	0.031
1097	0.035
1098	0.037
1098	0.041
1099	0.044
1099	0.049
1100	0.052
1100	0.057
1100	0.061
1101	0.066
1101	0.07
1102	0.077
1102	0.083
1102	0.091
1103	0.098
1103	0.107
1104	0.118
1104	0.129
1104	0.142
1105	0.153
1105	0.165
1106	0.177
1106	0.192
1107	0.205
1107	0.227
1107	0.255
1108	0.353
1108	0.512
1109	0.868
1109	-0
1109	-0
1110	-0
1110	-0
1111	-0
1111	-0
