Data from 15c-100ul-ns-20ul-nr-full-exp-7ul-bp_Absorbance__474__03911.txt Node

Date: Mon Jan 15 13:57:19 CET 2024
User: Marek
Spectrometer: MAYP115816
Trigger mode: 0
Integration Time (sec): 2.000000E-1
Scans to average: 10
Electric dark correction enabled: true
Nonlinearity correction enabled: true
Boxcar width: 5
XAxis mode: Wavelengths
Number of Pixels in Spectrum: 2068
>>>>>Begin Spectral Data<<<<<
199	-1.559
199	-1.437
200	-1.301
200	-1.195
201	-1.126
201	-1.079
202	-1.014
202	-0.966
203	-0.923
203	-0.89
204	-0.863
204	-0.843
205	-0.823
205	-0.814
205	-0.813
206	-0.812
206	-0.811
207	-0.807
207	-0.804
208	-0.803
208	-0.798
209	-0.797
209	-0.797
210	-0.797
210	-0.795
211	-0.793
211	-0.792
212	-0.79
212	-0.791
213	-0.791
213	-0.79
213	-0.792
214	-0.791
214	-0.792
215	-0.791
215	-0.792
216	-0.792
216	-0.792
217	-0.791
217	-0.79
218	-0.79
218	-0.786
219	-0.783
219	-0.783
220	-0.779
220	-0.776
221	-0.772
221	-0.768
221	-0.763
222	-0.758
222	-0.753
223	-0.745
223	-0.743
224	-0.738
224	-0.729
225	-0.721
225	-0.711
226	-0.702
226	-0.69
227	-0.676
227	-0.661
228	-0.643
228	-0.625
229	-0.602
229	-0.574
229	-0.547
230	-0.517
230	-0.485
231	-0.45
231	-0.414
232	-0.378
232	-0.339
233	-0.3
233	-0.26
234	-0.221
234	-0.184
235	-0.147
235	-0.112
236	-0.078
236	-0.046
236	-0.016
237	0.012
237	0.038
238	0.061
238	0.082
239	0.102
239	0.119
240	0.134
240	0.148
241	0.16
241	0.17
242	0.179
242	0.188
243	0.196
243	0.203
243	0.209
244	0.215
244	0.221
245	0.225
245	0.229
246	0.233
246	0.237
247	0.24
247	0.243
248	0.246
248	0.248
249	0.251
249	0.253
250	0.255
250	0.257
250	0.259
251	0.261
251	0.262
252	0.264
252	0.265
253	0.266
253	0.268
254	0.269
254	0.27
255	0.271
255	0.272
256	0.272
256	0.273
257	0.273
257	0.274
258	0.274
258	0.274
258	0.274
259	0.274
259	0.274
260	0.274
260	0.274
261	0.274
261	0.273
262	0.273
262	0.272
263	0.272
263	0.271
264	0.27
264	0.269
265	0.268
265	0.267
265	0.265
266	0.264
266	0.263
267	0.261
267	0.26
268	0.258
268	0.257
269	0.255
269	0.254
270	0.252
270	0.25
271	0.248
271	0.247
272	0.245
272	0.244
272	0.242
273	0.24
273	0.238
274	0.237
274	0.235
275	0.233
275	0.231
276	0.229
276	0.227
277	0.226
277	0.224
278	0.222
278	0.22
278	0.218
279	0.215
279	0.212
280	0.21
280	0.208
281	0.206
281	0.204
282	0.201
282	0.199
283	0.197
283	0.195
284	0.194
284	0.193
285	0.191
285	0.19
285	0.188
286	0.187
286	0.185
287	0.184
287	0.183
288	0.181
288	0.18
289	0.178
289	0.177
290	0.176
290	0.175
291	0.173
291	0.172
292	0.171
292	0.17
292	0.168
293	0.168
293	0.167
294	0.165
294	0.165
295	0.164
295	0.163
296	0.162
296	0.161
297	0.16
297	0.16
298	0.159
298	0.158
298	0.157
299	0.157
299	0.156
300	0.156
300	0.155
301	0.154
301	0.154
302	0.153
302	0.153
303	0.152
303	0.151
304	0.151
304	0.15
305	0.15
305	0.149
305	0.149
306	0.148
306	0.148
307	0.147
307	0.146
308	0.146
308	0.145
309	0.145
309	0.144
310	0.144
310	0.143
311	0.143
311	0.142
311	0.142
312	0.141
312	0.141
313	0.14
313	0.14
314	0.139
314	0.138
315	0.138
315	0.137
316	0.137
316	0.137
317	0.136
317	0.135
318	0.135
318	0.134
318	0.134
319	0.133
319	0.133
320	0.132
320	0.131
321	0.131
321	0.13
322	0.13
322	0.129
323	0.129
323	0.128
324	0.128
324	0.127
324	0.127
325	0.126
325	0.126
326	0.125
326	0.125
327	0.124
327	0.124
328	0.123
328	0.123
329	0.122
329	0.122
330	0.121
330	0.121
330	0.121
331	0.12
331	0.119
332	0.119
332	0.119
333	0.118
333	0.118
334	0.117
334	0.116
335	0.116
335	0.115
336	0.115
336	0.114
336	0.114
337	0.113
337	0.113
338	0.113
338	0.112
339	0.112
339	0.112
340	0.111
340	0.111
341	0.111
341	0.11
342	0.11
342	0.109
342	0.109
343	0.108
343	0.108
344	0.108
344	0.107
345	0.107
345	0.106
346	0.106
346	0.106
347	0.106
347	0.105
348	0.105
348	0.105
348	0.105
349	0.104
349	0.104
350	0.104
350	0.103
351	0.103
351	0.103
352	0.102
352	0.102
353	0.102
353	0.101
354	0.101
354	0.101
354	0.1
355	0.1
355	0.1
356	0.1
356	0.1
357	0.1
357	0.1
358	0.1
358	0.099
359	0.099
359	0.099
360	0.099
360	0.099
360	0.099
361	0.099
361	0.099
362	0.099
362	0.099
363	0.099
363	0.099
364	0.099
364	0.098
365	0.098
365	0.098
366	0.098
366	0.098
366	0.098
367	0.098
367	0.097
368	0.097
368	0.097
369	0.096
369	0.096
370	0.096
370	0.096
371	0.096
371	0.095
372	0.095
372	0.095
372	0.095
373	0.095
373	0.095
374	0.095
374	0.095
375	0.095
375	0.095
376	0.095
376	0.095
377	0.095
377	0.095
378	0.095
378	0.095
378	0.095
379	0.095
379	0.095
380	0.095
380	0.095
381	0.095
381	0.095
382	0.094
382	0.094
383	0.094
383	0.094
383	0.094
384	0.094
384	0.093
385	0.093
385	0.093
386	0.093
386	0.093
387	0.093
387	0.092
388	0.092
388	0.092
389	0.092
389	0.092
389	0.092
390	0.092
390	0.092
391	0.092
391	0.092
392	0.092
392	0.092
393	0.092
393	0.092
394	0.092
394	0.092
394	0.091
395	0.091
395	0.091
396	0.091
396	0.091
397	0.091
397	0.09
398	0.09
398	0.09
399	0.09
399	0.09
400	0.09
400	0.09
400	0.089
401	0.089
401	0.088
402	0.088
402	0.088
403	0.088
403	0.088
404	0.088
404	0.088
405	0.087
405	0.088
405	0.088
406	0.088
406	0.088
407	0.088
407	0.088
408	0.087
408	0.087
409	0.087
409	0.087
410	0.087
410	0.087
411	0.086
411	0.086
411	0.086
412	0.086
412	0.085
413	0.085
413	0.085
414	0.085
414	0.085
415	0.084
415	0.084
416	0.083
416	0.083
416	0.083
417	0.083
417	0.083
418	0.083
418	0.083
419	0.083
419	0.083
420	0.083
420	0.084
421	0.084
421	0.084
421	0.084
422	0.084
422	0.084
423	0.084
423	0.084
424	0.083
424	0.083
425	0.082
425	0.082
426	0.082
426	0.082
427	0.082
427	0.082
427	0.083
428	0.083
428	0.083
429	0.083
429	0.083
430	0.083
430	0.083
431	0.083
431	0.083
432	0.083
432	0.082
432	0.081
433	0.081
433	0.08
434	0.08
434	0.08
435	0.08
435	0.08
436	0.08
436	0.08
437	0.079
437	0.079
437	0.079
438	0.08
438	0.079
439	0.079
439	0.079
440	0.079
440	0.079
441	0.079
441	0.078
442	0.079
442	0.079
442	0.079
443	0.079
443	0.079
444	0.079
444	0.079
445	0.079
445	0.079
446	0.079
446	0.079
447	0.079
447	0.079
447	0.079
448	0.079
448	0.079
449	0.078
449	0.078
450	0.078
450	0.078
451	0.077
451	0.077
452	0.077
452	0.077
452	0.077
453	0.077
453	0.077
454	0.077
454	0.077
455	0.077
455	0.077
456	0.077
456	0.077
457	0.077
457	0.077
458	0.077
458	0.077
458	0.077
459	0.078
459	0.077
460	0.077
460	0.077
461	0.077
461	0.077
462	0.077
462	0.077
463	0.077
463	0.077
463	0.077
464	0.077
464	0.077
465	0.077
465	0.078
466	0.077
466	0.078
467	0.078
467	0.077
467	0.077
468	0.076
468	0.076
469	0.076
469	0.075
470	0.076
470	0.076
471	0.076
471	0.076
472	0.076
472	0.076
472	0.077
473	0.077
473	0.078
474	0.078
474	0.079
475	0.079
475	0.079
476	0.079
476	0.079
477	0.079
477	0.079
477	0.079
478	0.079
478	0.08
479	0.08
479	0.08
480	0.08
480	0.081
481	0.081
481	0.082
482	0.083
482	0.083
482	0.084
483	0.085
483	0.087
484	0.088
484	0.088
485	0.089
485	0.089
486	0.089
486	0.09
487	0.09
487	0.09
487	0.09
488	0.09
488	0.089
489	0.089
489	0.09
490	0.09
490	0.091
491	0.091
491	0.092
492	0.093
492	0.094
492	0.094
493	0.095
493	0.096
494	0.098
494	0.1
495	0.101
495	0.102
496	0.103
496	0.104
496	0.105
497	0.106
497	0.107
498	0.107
498	0.108
499	0.108
499	0.109
500	0.11
500	0.111
501	0.112
501	0.112
501	0.113
502	0.114
502	0.115
503	0.116
503	0.117
504	0.118
504	0.118
505	0.119
505	0.12
506	0.121
506	0.122
506	0.123
507	0.123
507	0.124
508	0.125
508	0.126
509	0.127
509	0.127
510	0.128
510	0.129
511	0.13
511	0.131
511	0.131
512	0.132
512	0.133
513	0.133
513	0.133
514	0.133
514	0.134
515	0.134
515	0.134
515	0.134
516	0.134
516	0.134
517	0.135
517	0.135
518	0.136
518	0.136
519	0.136
519	0.135
520	0.135
520	0.135
520	0.135
521	0.134
521	0.133
522	0.132
522	0.131
523	0.131
523	0.131
524	0.131
524	0.131
524	0.132
525	0.132
525	0.133
526	0.133
526	0.134
527	0.135
527	0.136
528	0.136
528	0.137
529	0.137
529	0.137
529	0.137
530	0.137
530	0.137
531	0.137
531	0.137
532	0.136
532	0.135
533	0.135
533	0.134
533	0.134
534	0.133
534	0.132
535	0.131
535	0.131
536	0.131
536	0.13
537	0.129
537	0.129
538	0.128
538	0.127
538	0.126
539	0.125
539	0.124
540	0.123
540	0.122
541	0.12
541	0.119
542	0.118
542	0.117
542	0.116
543	0.115
543	0.114
544	0.113
544	0.112
545	0.112
545	0.111
546	0.111
546	0.109
547	0.108
547	0.106
547	0.105
548	0.104
548	0.103
549	0.101
549	0.1
550	0.099
550	0.097
551	0.096
551	0.095
551	0.094
552	0.093
552	0.092
553	0.092
553	0.091
554	0.091
554	0.089
555	0.088
555	0.087
556	0.086
556	0.084
556	0.083
557	0.082
557	0.081
558	0.08
558	0.078
559	0.077
559	0.076
560	0.076
560	0.074
560	0.074
561	0.074
561	0.073
562	0.072
562	0.071
563	0.07
563	0.069
564	0.067
564	0.066
564	0.065
565	0.064
565	0.063
566	0.062
566	0.061
567	0.06
567	0.06
568	0.06
568	0.06
568	0.06
569	0.06
569	0.06
570	0.059
570	0.057
571	0.058
571	0.057
572	0.057
572	0.056
573	0.055
573	0.054
573	0.053
574	0.052
574	0.052
575	0.052
575	0.053
576	0.053
576	0.052
577	0.05
577	0.049
577	0.049
578	0.049
578	0.05
579	0.051
579	0.051
580	0.049
580	0.046
581	0.044
581	0.043
581	0.044
582	0.044
582	0.044
583	0.045
583	0.043
584	0.04
584	0.037
585	0.038
585	0.039
585	0.039
586	0.039
586	0.038
587	0.037
587	0.035
588	0.034
588	0.033
589	0.034
589	0.034
590	0.034
590	0.034
590	0.036
591	0.036
591	0.035
592	0.034
592	0.033
593	0.033
593	0.033
594	0.032
594	0.031
594	0.031
595	0.031
595	0.03
596	0.03
596	0.032
597	0.035
597	0.035
598	0.035
598	0.036
598	0.036
599	0.036
599	0.035
600	0.034
600	0.033
601	0.033
601	0.032
602	0.03
602	0.029
602	0.029
603	0.029
603	0.03
604	0.03
604	0.031
605	0.032
605	0.033
606	0.033
606	0.031
606	0.031
607	0.031
607	0.031
608	0.03
608	0.029
609	0.029
609	0.029
610	0.028
610	0.028
610	0.028
611	0.03
611	0.031
612	0.032
612	0.034
613	0.035
613	0.036
614	0.035
614	0.035
614	0.035
615	0.035
615	0.034
616	0.035
616	0.034
617	0.034
617	0.033
618	0.033
618	0.033
618	0.033
619	0.034
619	0.035
620	0.037
620	0.038
621	0.038
621	0.039
622	0.039
622	0.04
622	0.04
623	0.04
623	0.041
624	0.041
624	0.041
625	0.04
625	0.041
626	0.041
626	0.041
626	0.042
627	0.043
627	0.043
628	0.044
628	0.045
629	0.045
629	0.046
630	0.046
630	0.046
630	0.048
631	0.049
631	0.049
632	0.05
632	0.051
633	0.052
633	0.053
634	0.054
634	0.056
634	0.058
635	0.059
635	0.06
636	0.061
636	0.061
637	0.062
637	0.063
638	0.063
638	0.064
638	0.065
639	0.065
639	0.065
640	0.067
640	0.068
641	0.069
641	0.07
642	0.072
642	0.073
642	0.075
643	0.077
643	0.078
644	0.08
644	0.082
645	0.083
645	0.085
646	0.087
646	0.089
646	0.091
647	0.092
647	0.093
648	0.094
648	0.096
649	0.097
649	0.099
650	0.101
650	0.102
650	0.104
651	0.105
651	0.108
652	0.11
652	0.112
653	0.116
653	0.124
653	0.133
654	0.109
654	0.09
655	0.091
655	0.092
656	0.094
656	0.095
657	0.097
657	0.098
657	0.099
658	0.097
658	0.089
659	0.112
659	0.143
660	0.151
660	0.153
661	0.155
661	0.157
661	0.159
662	0.162
662	0.164
663	0.167
663	0.169
664	0.171
664	0.172
665	0.175
665	0.177
665	0.179
666	0.181
666	0.183
667	0.185
667	0.187
668	0.189
668	0.192
669	0.194
669	0.197
669	0.2
670	0.202
670	0.204
671	0.205
671	0.207
672	0.208
672	0.209
672	0.21
673	0.212
673	0.213
674	0.214
674	0.214
675	0.216
675	0.218
676	0.22
676	0.221
676	0.222
677	0.224
677	0.225
678	0.225
678	0.226
679	0.226
679	0.227
680	0.228
680	0.228
680	0.228
681	0.229
681	0.23
682	0.23
682	0.232
683	0.233
683	0.234
684	0.235
684	0.235
684	0.235
685	0.236
685	0.236
686	0.237
686	0.237
687	0.237
687	0.237
687	0.237
688	0.236
688	0.236
689	0.237
689	0.238
690	0.238
690	0.237
691	0.237
691	0.236
691	0.235
692	0.234
692	0.233
693	0.232
693	0.232
694	0.23
694	0.229
695	0.23
695	0.231
695	0.23
696	0.23
696	0.23
697	0.229
697	0.229
698	0.228
698	0.227
698	0.226
699	0.225
699	0.223
700	0.221
700	0.22
701	0.219
701	0.217
702	0.215
702	0.214
702	0.212
703	0.211
703	0.21
704	0.208
704	0.208
705	0.207
705	0.205
705	0.203
706	0.202
706	0.201
707	0.199
707	0.197
708	0.195
708	0.193
709	0.191
709	0.188
709	0.185
710	0.183
710	0.181
711	0.179
711	0.177
712	0.175
712	0.174
713	0.172
713	0.171
713	0.169
714	0.168
714	0.166
715	0.165
715	0.164
716	0.162
716	0.161
716	0.159
717	0.157
717	0.155
718	0.153
718	0.151
719	0.15
719	0.148
720	0.146
720	0.144
720	0.141
721	0.139
721	0.137
722	0.135
722	0.132
723	0.131
723	0.13
723	0.128
724	0.126
724	0.124
725	0.122
725	0.121
726	0.12
726	0.118
727	0.117
727	0.116
727	0.115
728	0.113
728	0.112
729	0.111
729	0.11
730	0.109
730	0.108
730	0.106
731	0.105
731	0.104
732	0.103
732	0.102
733	0.1
733	0.098
734	0.096
734	0.094
734	0.093
735	0.092
735	0.09
736	0.088
736	0.087
737	0.086
737	0.085
737	0.083
738	0.081
738	0.078
739	0.077
739	0.076
740	0.074
740	0.073
741	0.072
741	0.07
741	0.067
742	0.065
742	0.063
743	0.062
743	0.06
744	0.059
744	0.057
744	0.055
745	0.053
745	0.051
746	0.049
746	0.048
747	0.047
747	0.046
748	0.045
748	0.045
748	0.044
749	0.043
749	0.043
750	0.042
750	0.042
751	0.042
751	0.042
751	0.041
752	0.04
752	0.04
753	0.04
753	0.039
754	0.039
754	0.038
754	0.038
755	0.038
755	0.038
756	0.036
756	0.034
757	0.033
757	0.033
758	0.032
758	0.03
758	0.029
759	0.028
759	0.026
760	0.025
760	0.023
761	0.022
761	0.022
761	0.022
762	0.02
762	0.02
763	0.019
763	0.016
764	0.014
764	0.012
764	0.01
765	0.008
765	0.006
766	0.005
766	0.004
767	0.003
767	0.001
768	-0.002
768	-0.003
768	-0.003
769	-0.004
769	-0.004
770	-0.006
770	-0.007
771	-0.009
771	-0.011
771	-0.013
772	-0.014
772	-0.015
773	-0.017
773	-0.019
774	-0.021
774	-0.023
775	-0.025
775	-0.027
775	-0.03
776	-0.032
776	-0.034
777	-0.036
777	-0.039
778	-0.041
778	-0.044
778	-0.046
779	-0.047
779	-0.049
780	-0.051
780	-0.053
781	-0.056
781	-0.06
781	-0.064
782	-0.069
782	-0.074
783	-0.079
783	-0.084
784	-0.091
784	-0.097
784	-0.102
785	-0.109
785	-0.115
786	-0.118
786	-0.119
787	-0.116
787	-0.115
788	-0.117
788	-0.118
788	-0.119
789	-0.12
789	-0.119
790	-0.116
790	-0.114
791	-0.114
791	-0.116
791	-0.118
792	-0.113
792	-0.103
793	-0.097
793	-0.094
794	-0.093
794	-0.095
794	-0.099
795	-0.102
795	-0.102
796	-0.102
796	-0.105
797	-0.113
797	-0.123
797	-0.129
798	-0.134
798	-0.137
799	-0.137
799	-0.137
800	-0.137
800	-0.139
801	-0.142
801	-0.144
801	-0.144
802	-0.146
802	-0.147
803	-0.148
803	-0.148
804	-0.147
804	-0.142
804	-0.135
805	-0.131
805	-0.129
806	-0.127
806	-0.125
807	-0.124
807	-0.124
807	-0.123
808	-0.123
808	-0.124
809	-0.129
809	-0.134
810	-0.138
810	-0.14
810	-0.143
811	-0.146
811	-0.146
812	-0.141
812	-0.138
813	-0.137
813	-0.137
813	-0.137
814	-0.138
814	-0.137
815	-0.135
815	-0.132
816	-0.13
816	-0.131
817	-0.135
817	-0.137
817	-0.135
818	-0.132
818	-0.126
819	-0.121
819	-0.117
820	-0.114
820	-0.11
820	-0.106
821	-0.1
821	-0.093
822	-0.087
822	-0.082
823	-0.077
823	-0.074
823	-0.07
824	-0.067
824	-0.063
825	-0.058
825	-0.054
826	-0.051
826	-0.048
826	-0.046
827	-0.043
827	-0.041
828	-0.039
828	-0.037
829	-0.035
829	-0.034
829	-0.032
830	-0.032
830	-0.03
831	-0.028
831	-0.028
832	-0.027
832	-0.026
832	-0.026
833	-0.025
833	-0.025
834	-0.024
834	-0.024
835	-0.024
835	-0.024
835	-0.024
836	-0.023
836	-0.023
837	-0.022
837	-0.022
838	-0.021
838	-0.021
839	-0.02
839	-0.02
839	-0.019
840	-0.019
840	-0.018
841	-0.018
841	-0.017
842	-0.016
842	-0.015
842	-0.014
843	-0.013
843	-0.012
844	-0.012
844	-0.011
845	-0.011
845	-0.011
845	-0.011
846	-0.011
846	-0.012
847	-0.012
847	-0.013
848	-0.014
848	-0.015
848	-0.016
849	-0.016
849	-0.017
850	-0.018
850	-0.018
851	-0.018
851	-0.019
851	-0.019
852	-0.019
852	-0.018
853	-0.018
853	-0.018
854	-0.018
854	-0.018
854	-0.017
855	-0.017
855	-0.017
856	-0.017
856	-0.016
857	-0.015
857	-0.015
857	-0.015
858	-0.015
858	-0.015
859	-0.015
859	-0.014
860	-0.014
860	-0.013
860	-0.013
861	-0.013
861	-0.013
862	-0.013
862	-0.013
863	-0.012
863	-0.012
863	-0.012
864	-0.012
864	-0.012
865	-0.013
865	-0.013
866	-0.014
866	-0.014
866	-0.014
867	-0.014
867	-0.014
868	-0.014
868	-0.014
869	-0.013
869	-0.013
869	-0.013
870	-0.013
870	-0.012
871	-0.012
871	-0.012
872	-0.012
872	-0.012
872	-0.012
873	-0.012
873	-0.012
874	-0.012
874	-0.012
875	-0.012
875	-0.012
875	-0.012
876	-0.012
876	-0.012
877	-0.013
877	-0.013
878	-0.014
878	-0.015
878	-0.016
879	-0.017
879	-0.018
880	-0.018
880	-0.019
881	-0.019
881	-0.019
881	-0.018
882	-0.018
882	-0.017
883	-0.016
883	-0.016
884	-0.015
884	-0.014
884	-0.014
885	-0.013
885	-0.013
886	-0.012
886	-0.012
887	-0.012
887	-0.011
887	-0.011
888	-0.011
888	-0.01
889	-0.01
889	-0.009
890	-0.008
890	-0.008
890	-0.007
891	-0.007
891	-0.007
892	-0.007
892	-0.007
893	-0.007
893	-0.008
893	-0.008
894	-0.009
894	-0.009
895	-0.01
895	-0.011
895	-0.012
896	-0.013
896	-0.014
897	-0.014
897	-0.015
898	-0.015
898	-0.015
898	-0.015
899	-0.015
899	-0.015
900	-0.015
900	-0.015
901	-0.014
901	-0.014
901	-0.014
902	-0.014
902	-0.014
903	-0.015
903	-0.015
904	-0.016
904	-0.016
904	-0.017
905	-0.017
905	-0.018
906	-0.018
906	-0.018
907	-0.019
907	-0.019
907	-0.019
908	-0.019
908	-0.019
909	-0.019
909	-0.019
910	-0.019
910	-0.019
910	-0.019
911	-0.019
911	-0.018
912	-0.018
912	-0.018
913	-0.018
913	-0.018
913	-0.018
914	-0.019
914	-0.019
915	-0.02
915	-0.021
916	-0.022
916	-0.023
916	-0.023
917	-0.024
917	-0.024
918	-0.024
918	-0.023
918	-0.022
919	-0.022
919	-0.021
920	-0.019
920	-0.018
921	-0.017
921	-0.016
921	-0.015
922	-0.014
922	-0.013
923	-0.012
923	-0.011
924	-0.011
924	-0.01
924	-0.01
925	-0.009
925	-0.009
926	-0.009
926	-0.01
927	-0.01
927	-0.01
927	-0.011
928	-0.011
928	-0.012
929	-0.013
929	-0.013
930	-0.013
930	-0.014
930	-0.015
931	-0.016
931	-0.017
932	-0.018
932	-0.019
933	-0.02
933	-0.021
933	-0.022
934	-0.023
934	-0.024
935	-0.025
935	-0.026
935	-0.027
936	-0.027
936	-0.028
937	-0.028
937	-0.027
938	-0.027
938	-0.027
938	-0.027
939	-0.026
939	-0.025
940	-0.025
940	-0.024
941	-0.023
941	-0.022
941	-0.021
942	-0.02
942	-0.02
943	-0.019
943	-0.019
944	-0.019
944	-0.019
944	-0.019
945	-0.018
945	-0.017
946	-0.017
946	-0.017
946	-0.017
947	-0.016
947	-0.016
948	-0.015
948	-0.015
949	-0.014
949	-0.014
949	-0.013
950	-0.013
950	-0.013
951	-0.013
951	-0.012
952	-0.013
952	-0.013
952	-0.013
953	-0.013
953	-0.013
954	-0.014
954	-0.014
955	-0.015
955	-0.015
955	-0.015
956	-0.015
956	-0.015
957	-0.015
957	-0.016
957	-0.016
958	-0.016
958	-0.017
959	-0.017
959	-0.017
960	-0.018
960	-0.018
960	-0.02
961	-0.021
961	-0.021
962	-0.022
962	-0.022
963	-0.022
963	-0.022
963	-0.022
964	-0.021
964	-0.02
965	-0.02
965	-0.018
966	-0.017
966	-0.016
966	-0.015
967	-0.014
967	-0.014
968	-0.014
968	-0.014
968	-0.014
969	-0.014
969	-0.014
970	-0.014
970	-0.015
971	-0.015
971	-0.015
971	-0.016
972	-0.016
972	-0.016
973	-0.017
973	-0.017
974	-0.018
974	-0.018
974	-0.018
975	-0.019
975	-0.019
976	-0.02
976	-0.021
976	-0.021
977	-0.022
977	-0.024
978	-0.025
978	-0.025
979	-0.026
979	-0.027
979	-0.027
980	-0.027
980	-0.027
981	-0.027
981	-0.027
982	-0.026
982	-0.025
982	-0.024
983	-0.023
983	-0.022
984	-0.021
984	-0.02
984	-0.019
985	-0.018
985	-0.018
986	-0.019
986	-0.019
987	-0.019
987	-0.019
987	-0.02
988	-0.02
988	-0.021
989	-0.021
989	-0.022
990	-0.022
990	-0.022
990	-0.023
991	-0.023
991	-0.023
992	-0.023
992	-0.024
992	-0.024
993	-0.025
993	-0.026
994	-0.027
994	-0.028
995	-0.029
995	-0.03
995	-0.031
996	-0.032
996	-0.033
997	-0.033
997	-0.034
997	-0.034
998	-0.033
998	-0.032
999	-0.031
999	-0.031
1000	-0.029
1000	-0.028
1000	-0.027
1001	-0.026
1001	-0.025
1002	-0.024
1002	-0.023
1003	-0.023
1003	-0.022
1003	-0.022
1004	-0.022
1004	-0.021
1005	-0.021
1005	-0.021
1005	-0.021
1006	-0.021
1006	-0.02
1007	-0.02
1007	-0.02
1008	-0.02
1008	-0.02
1008	-0.019
1009	-0.019
1009	-0.019
1010	-0.019
1010	-0.018
1010	-0.018
1011	-0.018
1011	-0.017
1012	-0.017
1012	-0.018
1013	-0.018
1013	-0.018
1013	-0.019
1014	-0.02
1014	-0.021
1015	-0.022
1015	-0.023
1016	-0.025
1016	-0.026
1016	-0.027
1017	-0.028
1017	-0.029
1018	-0.03
1018	-0.03
1018	-0.031
1019	-0.031
1019	-0.032
1020	-0.032
1020	-0.032
1021	-0.033
1021	-0.033
1021	-0.033
1022	-0.033
1022	-0.033
1023	-0.034
1023	-0.034
1023	-0.034
1024	-0.035
1024	-0.036
1025	-0.036
1025	-0.037
1026	-0.037
1026	-0.037
1026	-0.037
1027	-0.038
1027	-0.038
1028	-0.037
1028	-0.037
1028	-0.036
1029	-0.036
1029	-0.035
1030	-0.035
1030	-0.035
1031	-0.034
1031	-0.033
1031	-0.032
1032	-0.031
1032	-0.031
1033	-0.03
1033	-0.03
1033	-0.03
1034	-0.03
1034	-0.031
1035	-0.031
1035	-0.032
1036	-0.032
1036	-0.032
1036	-0.033
1037	-0.033
1037	-0.034
1038	-0.034
1038	-0.034
1039	-0.034
1039	-0.034
1039	-0.034
1040	-0.035
1040	-0.035
1041	-0.035
1041	-0.036
1041	-0.037
1042	-0.038
1042	-0.039
1043	-0.04
1043	-0.041
1044	-0.043
1044	-0.043
1044	-0.044
1045	-0.045
1045	-0.046
1046	-0.046
1046	-0.047
1046	-0.047
1047	-0.046
1047	-0.046
1048	-0.046
1048	-0.046
1049	-0.046
1049	-0.046
1049	-0.046
1050	-0.047
1050	-0.047
1051	-0.047
1051	-0.047
1051	-0.047
1052	-0.046
1052	-0.046
1053	-0.046
1053	-0.045
1053	-0.044
1054	-0.043
1054	-0.042
1055	-0.041
1055	-0.04
1056	-0.04
1056	-0.04
1056	-0.04
1057	-0.04
1057	-0.04
1058	-0.04
1058	-0.041
1058	-0.041
1059	-0.041
1059	-0.042
1060	-0.042
1060	-0.042
1061	-0.042
1061	-0.042
1061	-0.042
1062	-0.042
1062	-0.043
1063	-0.043
1063	-0.044
1063	-0.044
1064	-0.044
1064	-0.044
1065	-0.045
1065	-0.046
1066	-0.046
1066	-0.046
1066	-0.047
1067	-0.047
1067	-0.047
1068	-0.047
1068	-0.047
1068	-0.048
1069	-0.048
1069	-0.048
1070	-0.048
1070	-0.048
1071	-0.048
1071	-0.048
1071	-0.048
1072	-0.048
1072	-0.048
1073	-0.047
1073	-0.046
1073	-0.046
1074	-0.045
1074	-0.046
1075	-0.046
1075	-0.046
1076	-0.046
1076	-0.046
1076	-0.046
1077	-0.047
1077	-0.047
1078	-0.047
1078	-0.047
1078	-0.047
1079	-0.047
1079	-0.046
1080	-0.046
1080	-0.046
1080	-0.046
1081	-0.045
1081	-0.044
1082	-0.044
1082	-0.044
1083	-0.043
1083	-0.043
1083	-0.042
1084	-0.042
1084	-0.042
1085	-0.041
1085	-0.041
1085	-0.04
1086	-0.04
1086	-0.041
1087	-0.041
1087	-0.04
1088	-0.041
1088	-0.041
1088	-0.04
1089	-0.04
1089	-0.041
1090	-0.041
1090	-0.04
1090	-0.041
1091	-0.039
1091	-0.038
1092	-0.039
1092	-0.037
1092	-0.036
1093	-0.035
1093	-0.033
1094	-0.032
1094	-0.031
1095	-0.03
1095	-0.028
1095	-0.026
1096	-0.026
1096	-0.024
1097	-0.021
1097	-0.021
1097	-0.018
1098	-0.018
1098	-0.015
1099	-0.014
1099	-0.012
1100	-0.01
1100	-0.008
1100	-0.005
1101	-0.003
1101	-0.002
1102	0.002
1102	0.004
1102	0.009
1103	0.012
1103	0.017
1104	0.023
1104	0.029
1104	0.036
1105	0.042
1105	0.046
1106	0.051
1106	0.059
1107	0.066
1107	0.077
1107	0.089
1108	0.134
1108	0.196
1109	0.289
1109	0.45
1109	0.593
1110	1.016
1110	-0
1111	-0
1111	-0
