Data from 15c-100ul-ns-20ul-nr-full-exp-7ul-bp_Absorbance__52__03489.txt Node

Date: Mon Jan 15 13:43:15 CET 2024
User: Marek
Spectrometer: MAYP115816
Trigger mode: 0
Integration Time (sec): 2.000000E-1
Scans to average: 10
Electric dark correction enabled: true
Nonlinearity correction enabled: true
Boxcar width: 5
XAxis mode: Wavelengths
Number of Pixels in Spectrum: 2068
>>>>>Begin Spectral Data<<<<<
199	-1.733
199	-1.606
200	-1.466
200	-1.358
201	-1.287
201	-1.238
202	-1.17
202	-1.118
203	-1.072
203	-1.035
204	-1.007
204	-0.986
205	-0.965
205	-0.956
205	-0.954
206	-0.953
206	-0.952
207	-0.948
207	-0.945
208	-0.944
208	-0.939
209	-0.937
209	-0.936
210	-0.936
210	-0.934
211	-0.933
211	-0.931
212	-0.928
212	-0.929
213	-0.928
213	-0.927
213	-0.928
214	-0.927
214	-0.928
215	-0.928
215	-0.928
216	-0.928
216	-0.927
217	-0.926
217	-0.925
218	-0.925
218	-0.921
219	-0.919
219	-0.918
220	-0.914
220	-0.91
221	-0.906
221	-0.901
221	-0.896
222	-0.892
222	-0.887
223	-0.879
223	-0.877
224	-0.871
224	-0.863
225	-0.855
225	-0.844
226	-0.835
226	-0.825
227	-0.811
227	-0.794
228	-0.776
228	-0.758
229	-0.734
229	-0.705
229	-0.678
230	-0.648
230	-0.615
231	-0.579
231	-0.542
232	-0.504
232	-0.464
233	-0.423
233	-0.381
234	-0.342
234	-0.302
235	-0.263
235	-0.226
236	-0.19
236	-0.155
236	-0.123
237	-0.093
237	-0.066
238	-0.04
238	-0.017
239	0.005
239	0.025
240	0.042
240	0.057
241	0.071
241	0.083
242	0.095
242	0.105
243	0.115
243	0.123
243	0.13
244	0.137
244	0.143
245	0.148
245	0.153
246	0.158
246	0.163
247	0.167
247	0.17
248	0.174
248	0.177
249	0.18
249	0.182
250	0.184
250	0.187
250	0.19
251	0.192
251	0.194
252	0.196
252	0.197
253	0.199
253	0.2
254	0.201
254	0.203
255	0.204
255	0.205
256	0.206
256	0.207
257	0.207
257	0.208
258	0.208
258	0.209
258	0.209
259	0.21
259	0.209
260	0.21
260	0.21
261	0.209
261	0.209
262	0.209
262	0.208
263	0.208
263	0.207
264	0.206
264	0.206
265	0.205
265	0.204
265	0.203
266	0.202
266	0.201
267	0.2
267	0.199
268	0.198
268	0.197
269	0.195
269	0.194
270	0.193
270	0.191
271	0.19
271	0.188
272	0.187
272	0.186
272	0.184
273	0.182
273	0.181
274	0.179
274	0.178
275	0.176
275	0.175
276	0.173
276	0.171
277	0.17
277	0.168
278	0.167
278	0.165
278	0.164
279	0.162
279	0.159
280	0.158
280	0.156
281	0.155
281	0.153
282	0.151
282	0.149
283	0.148
283	0.146
284	0.145
284	0.144
285	0.143
285	0.141
285	0.14
286	0.139
286	0.138
287	0.137
287	0.136
288	0.134
288	0.133
289	0.132
289	0.131
290	0.13
290	0.129
291	0.128
291	0.127
292	0.126
292	0.126
292	0.125
293	0.124
293	0.123
294	0.122
294	0.122
295	0.121
295	0.12
296	0.12
296	0.119
297	0.119
297	0.118
298	0.118
298	0.117
298	0.117
299	0.116
299	0.116
300	0.115
300	0.115
301	0.114
301	0.114
302	0.113
302	0.113
303	0.113
303	0.113
304	0.112
304	0.112
305	0.112
305	0.111
305	0.111
306	0.111
306	0.11
307	0.11
307	0.109
308	0.109
308	0.109
309	0.108
309	0.108
310	0.107
310	0.107
311	0.107
311	0.106
311	0.106
312	0.105
312	0.105
313	0.105
313	0.104
314	0.104
314	0.103
315	0.103
315	0.103
316	0.102
316	0.102
317	0.101
317	0.101
318	0.101
318	0.1
318	0.1
319	0.099
319	0.099
320	0.099
320	0.098
321	0.098
321	0.097
322	0.097
322	0.097
323	0.096
323	0.096
324	0.095
324	0.095
324	0.094
325	0.094
325	0.094
326	0.093
326	0.093
327	0.092
327	0.092
328	0.092
328	0.091
329	0.091
329	0.09
330	0.09
330	0.09
330	0.089
331	0.089
331	0.088
332	0.088
332	0.088
333	0.087
333	0.087
334	0.086
334	0.086
335	0.086
335	0.085
336	0.085
336	0.084
336	0.084
337	0.083
337	0.083
338	0.083
338	0.082
339	0.082
339	0.082
340	0.081
340	0.081
341	0.081
341	0.08
342	0.08
342	0.08
342	0.08
343	0.079
343	0.079
344	0.078
344	0.078
345	0.078
345	0.077
346	0.077
346	0.077
347	0.077
347	0.076
348	0.076
348	0.076
348	0.075
349	0.075
349	0.075
350	0.074
350	0.074
351	0.074
351	0.073
352	0.073
352	0.073
353	0.072
353	0.072
354	0.071
354	0.071
354	0.071
355	0.07
355	0.07
356	0.07
356	0.07
357	0.07
357	0.07
358	0.07
358	0.07
359	0.07
359	0.07
360	0.07
360	0.07
360	0.07
361	0.07
361	0.07
362	0.07
362	0.07
363	0.07
363	0.07
364	0.07
364	0.069
365	0.069
365	0.069
366	0.069
366	0.069
366	0.069
367	0.069
367	0.069
368	0.069
368	0.068
369	0.068
369	0.068
370	0.068
370	0.068
371	0.068
371	0.068
372	0.067
372	0.067
372	0.067
373	0.067
373	0.067
374	0.067
374	0.067
375	0.067
375	0.067
376	0.067
376	0.067
377	0.067
377	0.067
378	0.067
378	0.067
378	0.067
379	0.067
379	0.067
380	0.068
380	0.067
381	0.067
381	0.067
382	0.067
382	0.067
383	0.067
383	0.067
383	0.066
384	0.066
384	0.066
385	0.066
385	0.066
386	0.066
386	0.066
387	0.066
387	0.066
388	0.065
388	0.065
389	0.065
389	0.065
389	0.066
390	0.066
390	0.066
391	0.066
391	0.066
392	0.066
392	0.066
393	0.066
393	0.066
394	0.066
394	0.066
394	0.066
395	0.065
395	0.065
396	0.065
396	0.065
397	0.065
397	0.065
398	0.065
398	0.065
399	0.065
399	0.065
400	0.064
400	0.064
400	0.064
401	0.064
401	0.063
402	0.063
402	0.063
403	0.063
403	0.063
404	0.063
404	0.062
405	0.062
405	0.062
405	0.062
406	0.062
406	0.063
407	0.063
407	0.062
408	0.062
408	0.062
409	0.062
409	0.062
410	0.062
410	0.062
411	0.062
411	0.062
411	0.061
412	0.061
412	0.061
413	0.061
413	0.061
414	0.06
414	0.06
415	0.06
415	0.059
416	0.059
416	0.059
416	0.058
417	0.058
417	0.058
418	0.058
418	0.059
419	0.059
419	0.059
420	0.059
420	0.06
421	0.06
421	0.06
421	0.06
422	0.061
422	0.061
423	0.06
423	0.06
424	0.06
424	0.059
425	0.059
425	0.058
426	0.058
426	0.058
427	0.058
427	0.058
427	0.058
428	0.059
428	0.059
429	0.059
429	0.059
430	0.059
430	0.059
431	0.059
431	0.059
432	0.059
432	0.058
432	0.057
433	0.057
433	0.056
434	0.056
434	0.056
435	0.056
435	0.056
436	0.055
436	0.055
437	0.055
437	0.055
437	0.055
438	0.055
438	0.055
439	0.055
439	0.055
440	0.055
440	0.055
441	0.055
441	0.055
442	0.055
442	0.055
442	0.055
443	0.055
443	0.055
444	0.055
444	0.055
445	0.055
445	0.055
446	0.055
446	0.055
447	0.055
447	0.054
447	0.054
448	0.054
448	0.054
449	0.054
449	0.053
450	0.053
450	0.053
451	0.053
451	0.053
452	0.052
452	0.052
452	0.052
453	0.052
453	0.052
454	0.052
454	0.052
455	0.052
455	0.052
456	0.052
456	0.052
457	0.052
457	0.052
458	0.052
458	0.052
458	0.052
459	0.053
459	0.052
460	0.052
460	0.052
461	0.051
461	0.051
462	0.051
462	0.051
463	0.051
463	0.051
463	0.051
464	0.051
464	0.051
465	0.051
465	0.05
466	0.05
466	0.05
467	0.05
467	0.05
467	0.049
468	0.048
468	0.047
469	0.047
469	0.046
470	0.046
470	0.046
471	0.046
471	0.046
472	0.046
472	0.046
472	0.046
473	0.047
473	0.047
474	0.048
474	0.048
475	0.048
475	0.049
476	0.049
476	0.049
477	0.049
477	0.049
477	0.049
478	0.049
478	0.049
479	0.049
479	0.049
480	0.049
480	0.049
481	0.05
481	0.05
482	0.05
482	0.051
482	0.052
483	0.053
483	0.055
484	0.055
484	0.055
485	0.056
485	0.056
486	0.056
486	0.057
487	0.057
487	0.057
487	0.057
488	0.057
488	0.055
489	0.055
489	0.055
490	0.055
490	0.055
491	0.055
491	0.055
492	0.056
492	0.056
492	0.056
493	0.057
493	0.057
494	0.059
494	0.06
495	0.061
495	0.061
496	0.062
496	0.063
496	0.063
497	0.064
497	0.065
498	0.065
498	0.065
499	0.065
499	0.066
500	0.066
500	0.067
501	0.067
501	0.068
501	0.068
502	0.069
502	0.069
503	0.07
503	0.07
504	0.071
504	0.071
505	0.071
505	0.071
506	0.072
506	0.072
506	0.072
507	0.072
507	0.073
508	0.073
508	0.074
509	0.075
509	0.075
510	0.076
510	0.076
511	0.077
511	0.077
511	0.077
512	0.078
512	0.077
513	0.077
513	0.077
514	0.077
514	0.077
515	0.077
515	0.077
515	0.076
516	0.076
516	0.076
517	0.077
517	0.077
518	0.077
518	0.077
519	0.077
519	0.076
520	0.076
520	0.076
520	0.075
521	0.075
521	0.074
522	0.073
522	0.072
523	0.071
523	0.07
524	0.07
524	0.069
524	0.069
525	0.069
525	0.07
526	0.07
526	0.071
527	0.073
527	0.074
528	0.075
528	0.076
529	0.077
529	0.078
529	0.078
530	0.079
530	0.08
531	0.08
531	0.08
532	0.08
532	0.08
533	0.08
533	0.08
533	0.08
534	0.079
534	0.079
535	0.079
535	0.079
536	0.079
536	0.079
537	0.079
537	0.079
538	0.078
538	0.078
538	0.077
539	0.077
539	0.077
540	0.076
540	0.075
541	0.074
541	0.074
542	0.073
542	0.073
542	0.072
543	0.072
543	0.072
544	0.072
544	0.072
545	0.072
545	0.072
546	0.072
546	0.072
547	0.071
547	0.07
547	0.07
548	0.069
548	0.068
549	0.068
549	0.067
550	0.066
550	0.065
551	0.065
551	0.064
551	0.064
552	0.064
552	0.063
553	0.064
553	0.064
554	0.064
554	0.063
555	0.063
555	0.062
556	0.062
556	0.061
556	0.06
557	0.059
557	0.059
558	0.058
558	0.057
559	0.057
559	0.057
560	0.057
560	0.056
560	0.056
561	0.057
561	0.057
562	0.057
562	0.057
563	0.056
563	0.055
564	0.054
564	0.054
564	0.053
565	0.053
565	0.053
566	0.052
566	0.052
567	0.052
567	0.052
568	0.053
568	0.054
568	0.054
569	0.055
569	0.056
570	0.056
570	0.056
571	0.056
571	0.057
572	0.057
572	0.057
573	0.056
573	0.056
573	0.055
574	0.055
574	0.055
575	0.056
575	0.057
576	0.058
576	0.057
577	0.055
577	0.055
577	0.055
578	0.056
578	0.056
579	0.058
579	0.059
580	0.058
580	0.055
581	0.053
581	0.053
581	0.054
582	0.055
582	0.055
583	0.056
583	0.055
584	0.052
584	0.049
585	0.05
585	0.051
585	0.051
586	0.051
586	0.051
587	0.05
587	0.048
588	0.047
588	0.046
589	0.047
589	0.047
590	0.047
590	0.047
590	0.049
591	0.05
591	0.049
592	0.049
592	0.048
593	0.049
593	0.049
594	0.048
594	0.047
594	0.047
595	0.047
595	0.046
596	0.045
596	0.047
597	0.05
597	0.051
598	0.052
598	0.053
598	0.053
599	0.054
599	0.053
600	0.052
600	0.051
601	0.051
601	0.05
602	0.048
602	0.047
602	0.046
603	0.046
603	0.047
604	0.047
604	0.048
605	0.05
605	0.051
606	0.051
606	0.05
606	0.05
607	0.049
607	0.05
608	0.049
608	0.048
609	0.047
609	0.047
610	0.046
610	0.045
610	0.046
611	0.047
611	0.048
612	0.05
612	0.051
613	0.052
613	0.053
614	0.053
614	0.053
614	0.053
615	0.052
615	0.052
616	0.052
616	0.051
617	0.051
617	0.05
618	0.049
618	0.049
618	0.049
619	0.049
619	0.05
620	0.052
620	0.053
621	0.053
621	0.053
622	0.054
622	0.054
622	0.054
623	0.054
623	0.055
624	0.055
624	0.055
625	0.054
625	0.054
626	0.054
626	0.054
626	0.054
627	0.055
627	0.055
628	0.056
628	0.057
629	0.057
629	0.057
630	0.057
630	0.057
630	0.058
631	0.059
631	0.059
632	0.059
632	0.06
633	0.061
633	0.062
634	0.063
634	0.065
634	0.066
635	0.067
635	0.068
636	0.068
636	0.069
637	0.07
637	0.07
638	0.071
638	0.071
638	0.071
639	0.071
639	0.071
640	0.072
640	0.073
641	0.074
641	0.075
642	0.076
642	0.077
642	0.079
643	0.08
643	0.081
644	0.083
644	0.084
645	0.085
645	0.087
646	0.088
646	0.09
646	0.092
647	0.093
647	0.094
648	0.095
648	0.096
649	0.097
649	0.099
650	0.1
650	0.102
650	0.103
651	0.104
651	0.106
652	0.108
652	0.11
653	0.113
653	0.12
653	0.13
654	0.107
654	0.089
655	0.089
655	0.091
656	0.092
656	0.093
657	0.095
657	0.096
657	0.096
658	0.094
658	0.086
659	0.107
659	0.135
660	0.142
660	0.143
661	0.145
661	0.146
661	0.148
662	0.151
662	0.153
663	0.155
663	0.157
664	0.158
664	0.16
665	0.162
665	0.164
665	0.165
666	0.167
666	0.169
667	0.171
667	0.173
668	0.175
668	0.176
669	0.179
669	0.181
669	0.184
670	0.186
670	0.188
671	0.189
671	0.19
672	0.192
672	0.193
672	0.194
673	0.195
673	0.196
674	0.196
674	0.197
675	0.197
675	0.199
676	0.201
676	0.202
676	0.203
677	0.205
677	0.206
678	0.206
678	0.207
679	0.208
679	0.209
680	0.21
680	0.21
680	0.21
681	0.21
681	0.211
682	0.211
682	0.212
683	0.214
683	0.215
684	0.216
684	0.216
684	0.216
685	0.217
685	0.218
686	0.218
686	0.218
687	0.218
687	0.218
687	0.218
688	0.218
688	0.218
689	0.22
689	0.22
690	0.22
690	0.22
691	0.219
691	0.219
691	0.219
692	0.218
692	0.217
693	0.217
693	0.216
694	0.215
694	0.214
695	0.215
695	0.216
695	0.216
696	0.216
696	0.216
697	0.216
697	0.216
698	0.215
698	0.214
698	0.213
699	0.213
699	0.211
700	0.209
700	0.208
701	0.207
701	0.205
702	0.204
702	0.203
702	0.202
703	0.201
703	0.2
704	0.199
704	0.199
705	0.198
705	0.197
705	0.196
706	0.195
706	0.194
707	0.192
707	0.19
708	0.189
708	0.187
709	0.185
709	0.183
709	0.181
710	0.178
710	0.177
711	0.175
711	0.174
712	0.172
712	0.171
713	0.17
713	0.169
713	0.168
714	0.166
714	0.165
715	0.164
715	0.163
716	0.162
716	0.161
716	0.159
717	0.158
717	0.156
718	0.154
718	0.153
719	0.152
719	0.151
720	0.149
720	0.147
720	0.145
721	0.143
721	0.141
722	0.139
722	0.137
723	0.136
723	0.134
723	0.133
724	0.131
724	0.129
725	0.128
725	0.127
726	0.126
726	0.125
727	0.124
727	0.123
727	0.122
728	0.121
728	0.12
729	0.12
729	0.119
730	0.118
730	0.117
730	0.116
731	0.116
731	0.115
732	0.114
732	0.113
733	0.111
733	0.109
734	0.108
734	0.106
734	0.104
735	0.103
735	0.101
736	0.1
736	0.099
737	0.097
737	0.097
737	0.095
738	0.093
738	0.091
739	0.09
739	0.088
740	0.087
740	0.086
741	0.084
741	0.082
741	0.08
742	0.077
742	0.075
743	0.073
743	0.071
744	0.07
744	0.068
744	0.067
745	0.065
745	0.063
746	0.062
746	0.061
747	0.061
747	0.06
748	0.06
748	0.06
748	0.059
749	0.058
749	0.058
750	0.058
750	0.058
751	0.057
751	0.057
751	0.057
752	0.057
752	0.056
753	0.056
753	0.056
754	0.056
754	0.055
754	0.055
755	0.055
755	0.055
756	0.054
756	0.052
757	0.051
757	0.05
758	0.049
758	0.048
758	0.047
759	0.046
759	0.043
760	0.042
760	0.04
761	0.039
761	0.038
761	0.037
762	0.036
762	0.035
763	0.034
763	0.032
764	0.029
764	0.027
764	0.025
765	0.023
765	0.021
766	0.019
766	0.018
767	0.017
767	0.014
768	0.012
768	0.01
768	0.01
769	0.009
769	0.008
770	0.007
770	0.005
771	0.003
771	0.001
771	-0.002
772	-0.004
772	-0.006
773	-0.007
773	-0.01
774	-0.013
774	-0.016
775	-0.018
775	-0.021
775	-0.025
776	-0.028
776	-0.031
777	-0.035
777	-0.038
778	-0.042
778	-0.046
778	-0.049
779	-0.052
779	-0.054
780	-0.058
780	-0.062
781	-0.067
781	-0.073
781	-0.079
782	-0.085
782	-0.093
783	-0.1
783	-0.105
784	-0.11
784	-0.115
784	-0.119
785	-0.124
785	-0.127
786	-0.128
786	-0.126
787	-0.122
787	-0.117
788	-0.116
788	-0.117
788	-0.117
789	-0.119
789	-0.118
790	-0.114
790	-0.112
791	-0.113
791	-0.114
791	-0.116
792	-0.111
792	-0.101
793	-0.096
793	-0.093
794	-0.091
794	-0.094
794	-0.098
795	-0.1
795	-0.1
796	-0.101
796	-0.103
797	-0.112
797	-0.122
797	-0.128
798	-0.132
798	-0.135
799	-0.136
799	-0.135
800	-0.136
800	-0.138
801	-0.141
801	-0.142
801	-0.143
802	-0.144
802	-0.146
803	-0.146
803	-0.147
804	-0.146
804	-0.141
804	-0.134
805	-0.13
805	-0.128
806	-0.125
806	-0.124
807	-0.123
807	-0.122
807	-0.122
808	-0.122
808	-0.123
809	-0.127
809	-0.133
810	-0.136
810	-0.139
810	-0.142
811	-0.144
811	-0.144
812	-0.14
812	-0.136
813	-0.136
813	-0.136
813	-0.136
814	-0.136
814	-0.136
815	-0.133
815	-0.131
816	-0.129
816	-0.13
817	-0.134
817	-0.137
817	-0.137
818	-0.135
818	-0.131
819	-0.126
819	-0.122
820	-0.119
820	-0.117
820	-0.112
821	-0.106
821	-0.099
822	-0.091
822	-0.084
823	-0.078
823	-0.073
823	-0.068
824	-0.062
824	-0.057
825	-0.051
825	-0.045
826	-0.04
826	-0.036
826	-0.033
827	-0.029
827	-0.026
828	-0.023
828	-0.021
829	-0.018
829	-0.016
829	-0.015
830	-0.014
830	-0.012
831	-0.01
831	-0.008
832	-0.007
832	-0.006
832	-0.005
833	-0.005
833	-0.004
834	-0.003
834	-0.003
835	-0.002
835	-0.002
835	-0.002
836	-0.001
836	-0.001
837	-0
837	0
838	0.001
838	0.001
839	0.001
839	0.002
839	0.002
840	0.003
840	0.004
841	0.005
841	0.005
842	0.007
842	0.008
842	0.009
843	0.01
843	0.011
844	0.012
844	0.012
845	0.013
845	0.013
845	0.013
846	0.013
846	0.013
847	0.012
847	0.012
848	0.011
848	0.01
848	0.01
849	0.009
849	0.009
850	0.008
850	0.007
851	0.007
851	0.007
851	0.007
852	0.007
852	0.007
853	0.008
853	0.008
854	0.008
854	0.009
854	0.009
855	0.01
855	0.01
856	0.011
856	0.012
857	0.012
857	0.012
857	0.013
858	0.013
858	0.013
859	0.013
859	0.013
860	0.014
860	0.014
860	0.014
861	0.015
861	0.015
862	0.015
862	0.015
863	0.015
863	0.015
863	0.015
864	0.015
864	0.015
865	0.014
865	0.014
866	0.013
866	0.013
866	0.013
867	0.013
867	0.013
868	0.014
868	0.014
869	0.015
869	0.015
869	0.015
870	0.016
870	0.016
871	0.016
871	0.016
872	0.016
872	0.016
872	0.016
873	0.016
873	0.015
874	0.015
874	0.016
875	0.015
875	0.015
875	0.015
876	0.015
876	0.015
877	0.014
877	0.014
878	0.013
878	0.012
878	0.012
879	0.011
879	0.01
880	0.009
880	0.008
881	0.008
881	0.008
881	0.008
882	0.009
882	0.009
883	0.01
883	0.011
884	0.012
884	0.012
884	0.013
885	0.013
885	0.014
886	0.014
886	0.014
887	0.014
887	0.015
887	0.015
888	0.015
888	0.016
889	0.017
889	0.018
890	0.018
890	0.019
890	0.019
891	0.02
891	0.02
892	0.02
892	0.02
893	0.02
893	0.019
893	0.019
894	0.018
894	0.017
895	0.017
895	0.016
895	0.015
896	0.014
896	0.013
897	0.013
897	0.012
898	0.012
898	0.012
898	0.012
899	0.011
899	0.011
900	0.011
900	0.011
901	0.012
901	0.012
901	0.012
902	0.012
902	0.012
903	0.011
903	0.011
904	0.011
904	0.01
904	0.01
905	0.009
905	0.009
906	0.009
906	0.008
907	0.008
907	0.008
907	0.008
908	0.007
908	0.007
909	0.007
909	0.007
910	0.008
910	0.008
910	0.008
911	0.008
911	0.008
912	0.008
912	0.009
913	0.009
913	0.008
913	0.008
914	0.007
914	0.006
915	0.005
915	0.004
916	0.004
916	0.003
916	0.002
917	0.002
917	0.002
918	0.002
918	0.003
918	0.003
919	0.004
919	0.005
920	0.007
920	0.008
921	0.009
921	0.01
921	0.011
922	0.012
922	0.013
923	0.013
923	0.014
924	0.015
924	0.015
924	0.016
925	0.016
925	0.016
926	0.016
926	0.016
927	0.016
927	0.015
927	0.015
928	0.014
928	0.014
929	0.014
929	0.013
930	0.013
930	0.012
930	0.011
931	0.01
931	0.009
932	0.008
932	0.007
933	0.005
933	0.004
933	0.003
934	0.002
934	0.001
935	-0
935	-0.001
935	-0.002
936	-0.002
936	-0.003
937	-0.003
937	-0.003
938	-0.003
938	-0.002
938	-0.002
939	-0.001
939	-0
940	0
940	0.001
941	0.002
941	0.003
941	0.004
942	0.005
942	0.006
943	0.006
943	0.007
944	0.007
944	0.007
944	0.008
945	0.008
945	0.009
946	0.009
946	0.009
946	0.009
947	0.01
947	0.01
948	0.01
948	0.01
949	0.01
949	0.011
949	0.011
950	0.012
950	0.012
951	0.012
951	0.012
952	0.012
952	0.013
952	0.012
953	0.012
953	0.012
954	0.012
954	0.011
955	0.01
955	0.01
955	0.01
956	0.01
956	0.01
957	0.009
957	0.009
957	0.009
958	0.008
958	0.008
959	0.008
959	0.008
960	0.007
960	0.006
960	0.005
961	0.004
961	0.003
962	0.003
962	0.002
963	0.002
963	0.002
963	0.003
964	0.003
964	0.004
965	0.005
965	0.006
966	0.007
966	0.008
966	0.009
967	0.01
967	0.011
968	0.011
968	0.011
968	0.011
969	0.011
969	0.011
970	0.011
970	0.01
971	0.01
971	0.01
971	0.009
972	0.009
972	0.009
973	0.008
973	0.008
974	0.007
974	0.007
974	0.006
975	0.005
975	0.005
976	0.004
976	0.003
976	0.002
977	0.001
977	-0
978	-0.001
978	-0.002
979	-0.003
979	-0.003
979	-0.003
980	-0.004
980	-0.004
981	-0.004
981	-0.003
982	-0.002
982	-0.001
982	-0.001
983	0
983	0.001
984	0.002
984	0.003
984	0.004
985	0.004
985	0.005
986	0.004
986	0.004
987	0.004
987	0.003
987	0.003
988	0.003
988	0.002
989	0.001
989	0.001
990	0
990	0
990	-0
991	-0
991	-0.001
992	-0.001
992	-0.001
992	-0.002
993	-0.002
993	-0.003
994	-0.004
994	-0.005
995	-0.006
995	-0.007
995	-0.008
996	-0.009
996	-0.009
997	-0.01
997	-0.01
997	-0.01
998	-0.009
998	-0.009
999	-0.008
999	-0.007
1000	-0.005
1000	-0.004
1000	-0.003
1001	-0.002
1001	-0.001
1002	-0
1002	0
1003	0.001
1003	0.001
1003	0.001
1004	0.002
1004	0.002
1005	0.002
1005	0.002
1005	0.002
1006	0.002
1006	0.002
1007	0.003
1007	0.003
1008	0.003
1008	0.003
1008	0.004
1009	0.004
1009	0.004
1010	0.005
1010	0.005
1010	0.005
1011	0.006
1011	0.006
1012	0.006
1012	0.005
1013	0.005
1013	0.004
1013	0.004
1014	0.003
1014	0.002
1015	0.001
1015	-0
1016	-0.002
1016	-0.003
1016	-0.004
1017	-0.005
1017	-0.006
1018	-0.007
1018	-0.008
1018	-0.008
1019	-0.009
1019	-0.009
1020	-0.01
1020	-0.01
1021	-0.01
1021	-0.01
1021	-0.011
1022	-0.011
1022	-0.011
1023	-0.011
1023	-0.012
1023	-0.013
1024	-0.013
1024	-0.014
1025	-0.014
1025	-0.015
1026	-0.015
1026	-0.015
1026	-0.016
1027	-0.016
1027	-0.015
1028	-0.015
1028	-0.014
1028	-0.014
1029	-0.013
1029	-0.013
1030	-0.012
1030	-0.011
1031	-0.01
1031	-0.009
1031	-0.009
1032	-0.008
1032	-0.007
1033	-0.007
1033	-0.006
1033	-0.006
1034	-0.006
1034	-0.007
1035	-0.007
1035	-0.008
1036	-0.008
1036	-0.009
1036	-0.009
1037	-0.009
1037	-0.01
1038	-0.01
1038	-0.01
1039	-0.01
1039	-0.01
1039	-0.01
1040	-0.011
1040	-0.011
1041	-0.011
1041	-0.012
1041	-0.013
1042	-0.014
1042	-0.015
1043	-0.016
1043	-0.017
1044	-0.018
1044	-0.019
1044	-0.019
1045	-0.02
1045	-0.021
1046	-0.021
1046	-0.021
1046	-0.021
1047	-0.021
1047	-0.02
1048	-0.02
1048	-0.02
1049	-0.02
1049	-0.02
1049	-0.021
1050	-0.021
1050	-0.021
1051	-0.021
1051	-0.022
1051	-0.021
1052	-0.021
1052	-0.021
1053	-0.021
1053	-0.02
1053	-0.019
1054	-0.018
1054	-0.017
1055	-0.015
1055	-0.015
1056	-0.014
1056	-0.014
1056	-0.014
1057	-0.015
1057	-0.014
1058	-0.015
1058	-0.015
1058	-0.015
1059	-0.015
1059	-0.016
1060	-0.016
1060	-0.016
1061	-0.016
1061	-0.015
1061	-0.015
1062	-0.015
1062	-0.015
1063	-0.015
1063	-0.016
1063	-0.016
1064	-0.016
1064	-0.016
1065	-0.017
1065	-0.017
1066	-0.017
1066	-0.018
1066	-0.018
1067	-0.018
1067	-0.018
1068	-0.018
1068	-0.018
1068	-0.019
1069	-0.019
1069	-0.02
1070	-0.02
1070	-0.02
1071	-0.02
1071	-0.019
1071	-0.019
1072	-0.019
1072	-0.018
1073	-0.017
1073	-0.016
1073	-0.015
1074	-0.014
1074	-0.013
1075	-0.013
1075	-0.013
1076	-0.013
1076	-0.012
1076	-0.012
1077	-0.012
1077	-0.012
1078	-0.012
1078	-0.012
1078	-0.011
1079	-0.011
1079	-0.01
1080	-0.01
1080	-0.009
1080	-0.009
1081	-0.008
1081	-0.007
1082	-0.007
1082	-0.007
1083	-0.006
1083	-0.006
1083	-0.005
1084	-0.004
1084	-0.003
1085	-0.003
1085	-0.002
1085	-0.001
1086	0
1086	-0
1087	0.002
1087	0.003
1088	0.003
1088	0.004
1088	0.005
1089	0.005
1089	0.006
1090	0.006
1090	0.007
1090	0.008
1091	0.01
1091	0.012
1092	0.013
1092	0.016
1092	0.018
1093	0.02
1093	0.024
1094	0.026
1094	0.029
1095	0.032
1095	0.035
1095	0.038
1096	0.041
1096	0.046
1097	0.051
1097	0.053
1097	0.058
1098	0.061
1098	0.066
1099	0.071
1099	0.076
1100	0.081
1100	0.087
1100	0.092
1101	0.098
1101	0.104
1102	0.113
1102	0.121
1102	0.13
1103	0.14
1103	0.151
1104	0.164
1104	0.178
1104	0.195
1105	0.211
1105	0.226
1106	0.243
1106	0.264
1107	0.288
1107	0.323
1107	0.365
1108	0.518
1108	0.841
1109	-0
1109	-0
1109	-0
1110	-0
1110	-0
1111	-0
1111	-0
