Data from 3.4A_17C_Absorbance__255__01212.txt Node

Date: Tue Jun 20 15:47:03 CEST 2023
User: Marek
Spectrometer: MAYP115816
Trigger mode: 0
Integration Time (sec): 2.200000E-1
Scans to average: 10
Electric dark correction enabled: true
Nonlinearity correction enabled: true
Boxcar width: 5
XAxis mode: Wavelengths
Number of Pixels in Spectrum: 2068
>>>>>Begin Spectral Data<<<<<
199	-0.746
199	-0.732
200	-0.698
200	-0.642
201	-0.613
201	-0.606
202	-0.587
202	-0.581
203	-0.58
203	-0.574
204	-0.555
204	-0.538
205	-0.515
205	-0.507
205	-0.516
206	-0.519
206	-0.514
207	-0.507
207	-0.513
208	-0.513
208	-0.518
209	-0.519
209	-0.528
210	-0.539
210	-0.546
211	-0.539
211	-0.545
212	-0.554
212	-0.562
213	-0.56
213	-0.557
213	-0.555
214	-0.563
214	-0.564
215	-0.562
215	-0.567
216	-0.576
216	-0.581
217	-0.578
217	-0.579
218	-0.585
218	-0.585
219	-0.591
219	-0.592
220	-0.596
220	-0.602
221	-0.602
221	-0.603
221	-0.591
222	-0.591
222	-0.588
223	-0.584
223	-0.586
224	-0.587
224	-0.586
225	-0.583
225	-0.587
226	-0.586
226	-0.587
227	-0.597
227	-0.607
228	-0.613
228	-0.622
229	-0.629
229	-0.626
229	-0.625
230	-0.62
230	-0.618
231	-0.615
231	-0.61
232	-0.612
232	-0.607
233	-0.605
233	-0.595
234	-0.596
234	-0.592
235	-0.597
235	-0.608
236	-0.614
236	-0.615
236	-0.615
237	-0.613
237	-0.615
238	-0.616
238	-0.616
239	-0.618
239	-0.626
240	-0.619
240	-0.615
241	-0.61
241	-0.612
242	-0.616
242	-0.623
243	-0.621
243	-0.624
243	-0.628
244	-0.624
244	-0.624
245	-0.628
245	-0.631
246	-0.641
246	-0.645
247	-0.652
247	-0.639
248	-0.637
248	-0.637
249	-0.644
249	-0.648
250	-0.648
250	-0.654
250	-0.65
251	-0.649
251	-0.646
252	-0.648
252	-0.661
253	-0.658
253	-0.668
254	-0.673
254	-0.674
255	-0.687
255	-0.687
256	-0.689
256	-0.701
257	-0.71
257	-0.706
258	-0.707
258	-0.714
258	-0.712
259	-0.704
259	-0.72
260	-0.718
260	-0.707
261	-0.72
261	-0.706
262	-0.712
262	-0.711
263	-0.7
263	-0.705
264	-0.714
264	-0.715
265	-0.706
265	-0.708
265	-0.717
266	-0.706
266	-0.708
267	-0.708
267	-0.724
268	-0.734
268	-0.728
269	-0.721
269	-0.736
270	-0.74
270	-0.738
271	-0.752
271	-0.764
272	-0.763
272	-0.765
272	-0.758
273	-0.768
273	-0.784
274	-0.774
274	-0.769
275	-0.766
275	-0.753
276	-0.757
276	-0.763
277	-0.763
277	-0.759
278	-0.763
278	-0.762
278	-0.75
279	-0.759
279	-0.773
280	-0.775
280	-0.786
281	-0.778
281	-0.771
282	-0.777
282	-0.773
283	-0.766
283	-0.781
284	-0.794
284	-0.803
285	-0.782
285	-0.791
285	-0.783
286	-0.788
286	-0.804
287	-0.8
287	-0.799
288	-0.798
288	-0.78
289	-0.778
289	-0.787
290	-0.796
290	-0.784
291	-0.787
291	-0.785
292	-0.766
292	-0.763
292	-0.767
293	-0.754
293	-0.749
294	-0.749
294	-0.735
295	-0.718
295	-0.732
296	-0.745
296	-0.739
297	-0.728
297	-0.735
298	-0.731
298	-0.75
298	-0.755
299	-0.735
299	-0.729
300	-0.724
300	-0.705
301	-0.684
301	-0.687
302	-0.696
302	-0.679
303	-0.672
303	-0.659
304	-0.643
304	-0.646
305	-0.638
305	-0.647
305	-0.662
306	-0.649
306	-0.649
307	-0.641
307	-0.654
308	-0.656
308	-0.652
309	-0.654
309	-0.649
310	-0.645
310	-0.639
311	-0.623
311	-0.64
311	-0.628
312	-0.625
312	-0.613
313	-0.605
313	-0.608
314	-0.612
314	-0.61
315	-0.61
315	-0.605
316	-0.601
316	-0.59
317	-0.582
317	-0.578
318	-0.571
318	-0.568
318	-0.555
319	-0.546
319	-0.539
320	-0.537
320	-0.535
321	-0.529
321	-0.529
322	-0.523
322	-0.517
323	-0.519
323	-0.509
324	-0.508
324	-0.496
324	-0.486
325	-0.47
325	-0.453
326	-0.444
326	-0.42
327	-0.404
327	-0.383
328	-0.35
328	-0.326
329	-0.297
329	-0.269
330	-0.242
330	-0.205
330	-0.168
331	-0.131
331	-0.097
332	-0.064
332	-0.03
333	0.001
333	0.035
334	0.064
334	0.09
335	0.118
335	0.141
336	0.162
336	0.182
336	0.2
337	0.217
337	0.233
338	0.248
338	0.258
339	0.272
339	0.283
340	0.291
340	0.3
341	0.307
341	0.314
342	0.321
342	0.328
342	0.333
343	0.336
343	0.341
344	0.344
344	0.348
345	0.351
345	0.353
346	0.355
346	0.357
347	0.359
347	0.36
348	0.362
348	0.364
348	0.365
349	0.365
349	0.366
350	0.367
350	0.368
351	0.369
351	0.369
352	0.369
352	0.369
353	0.37
353	0.37
354	0.37
354	0.37
354	0.37
355	0.37
355	0.37
356	0.37
356	0.37
357	0.37
357	0.37
358	0.37
358	0.37
359	0.37
359	0.369
360	0.37
360	0.369
360	0.369
361	0.369
361	0.369
362	0.369
362	0.369
363	0.369
363	0.369
364	0.369
364	0.368
365	0.368
365	0.368
366	0.368
366	0.368
366	0.368
367	0.368
367	0.368
368	0.367
368	0.367
369	0.367
369	0.366
370	0.366
370	0.366
371	0.365
371	0.365
372	0.365
372	0.364
372	0.364
373	0.364
373	0.364
374	0.364
374	0.364
375	0.363
375	0.363
376	0.363
376	0.362
377	0.362
377	0.362
378	0.362
378	0.361
378	0.361
379	0.36
379	0.36
380	0.36
380	0.359
381	0.359
381	0.359
382	0.358
382	0.358
383	0.358
383	0.357
383	0.357
384	0.356
384	0.356
385	0.355
385	0.355
386	0.355
386	0.354
387	0.354
387	0.354
388	0.353
388	0.353
389	0.353
389	0.352
389	0.352
390	0.352
390	0.352
391	0.351
391	0.351
392	0.351
392	0.351
393	0.351
393	0.351
394	0.35
394	0.35
394	0.349
395	0.349
395	0.348
396	0.348
396	0.348
397	0.347
397	0.347
398	0.346
398	0.346
399	0.345
399	0.345
400	0.344
400	0.344
400	0.344
401	0.343
401	0.343
402	0.343
402	0.342
403	0.342
403	0.342
404	0.342
404	0.341
405	0.341
405	0.341
405	0.34
406	0.34
406	0.34
407	0.34
407	0.339
408	0.339
408	0.339
409	0.339
409	0.338
410	0.338
410	0.338
411	0.338
411	0.338
411	0.338
412	0.337
412	0.337
413	0.336
413	0.336
414	0.336
414	0.336
415	0.335
415	0.335
416	0.335
416	0.334
416	0.334
417	0.334
417	0.334
418	0.334
418	0.334
419	0.334
419	0.334
420	0.333
420	0.333
421	0.333
421	0.333
421	0.333
422	0.333
422	0.333
423	0.332
423	0.332
424	0.331
424	0.331
425	0.331
425	0.331
426	0.331
426	0.331
427	0.331
427	0.331
427	0.331
428	0.331
428	0.33
429	0.33
429	0.33
430	0.329
430	0.329
431	0.328
431	0.328
432	0.328
432	0.327
432	0.327
433	0.327
433	0.328
434	0.328
434	0.328
435	0.328
435	0.328
436	0.329
436	0.329
437	0.329
437	0.329
437	0.328
438	0.328
438	0.328
439	0.328
439	0.328
440	0.327
440	0.327
441	0.327
441	0.327
442	0.327
442	0.327
442	0.327
443	0.327
443	0.327
444	0.327
444	0.327
445	0.328
445	0.328
446	0.327
446	0.327
447	0.327
447	0.327
447	0.327
448	0.327
448	0.327
449	0.327
449	0.327
450	0.327
450	0.327
451	0.327
451	0.327
452	0.327
452	0.327
452	0.327
453	0.328
453	0.328
454	0.328
454	0.328
455	0.328
455	0.329
456	0.329
456	0.329
457	0.329
457	0.329
458	0.329
458	0.329
458	0.329
459	0.329
459	0.329
460	0.329
460	0.329
461	0.329
461	0.33
462	0.33
462	0.331
463	0.331
463	0.332
463	0.332
464	0.333
464	0.333
465	0.333
465	0.334
466	0.334
466	0.335
467	0.335
467	0.336
467	0.336
468	0.336
468	0.336
469	0.337
469	0.338
470	0.338
470	0.339
471	0.34
471	0.34
472	0.34
472	0.341
472	0.342
473	0.343
473	0.344
474	0.345
474	0.345
475	0.346
475	0.347
476	0.347
476	0.348
477	0.349
477	0.35
477	0.351
478	0.352
478	0.353
479	0.354
479	0.355
480	0.356
480	0.357
481	0.359
481	0.36
482	0.361
482	0.363
482	0.364
483	0.366
483	0.368
484	0.369
484	0.37
485	0.372
485	0.373
486	0.374
486	0.376
487	0.377
487	0.379
487	0.38
488	0.382
488	0.383
489	0.385
489	0.387
490	0.389
490	0.391
491	0.393
491	0.395
492	0.397
492	0.399
492	0.401
493	0.403
493	0.405
494	0.407
494	0.41
495	0.412
495	0.414
496	0.416
496	0.419
496	0.421
497	0.424
497	0.426
498	0.429
498	0.432
499	0.434
499	0.437
500	0.441
500	0.444
501	0.447
501	0.45
501	0.452
502	0.455
502	0.458
503	0.461
503	0.464
504	0.467
504	0.47
505	0.472
505	0.476
506	0.479
506	0.482
506	0.485
507	0.488
507	0.492
508	0.495
508	0.498
509	0.502
509	0.505
510	0.508
510	0.511
511	0.514
511	0.517
511	0.519
512	0.523
512	0.525
513	0.528
513	0.53
514	0.533
514	0.537
515	0.539
515	0.542
515	0.544
516	0.547
516	0.549
517	0.552
517	0.554
518	0.557
518	0.558
519	0.56
519	0.562
520	0.564
520	0.566
520	0.568
521	0.569
521	0.571
522	0.572
522	0.573
523	0.575
523	0.576
524	0.577
524	0.579
524	0.58
525	0.58
525	0.581
526	0.582
526	0.583
527	0.583
527	0.583
528	0.583
528	0.583
529	0.583
529	0.582
529	0.582
530	0.582
530	0.581
531	0.581
531	0.58
532	0.579
532	0.579
533	0.578
533	0.577
533	0.576
534	0.575
534	0.574
535	0.573
535	0.571
536	0.57
536	0.568
537	0.566
537	0.564
538	0.562
538	0.56
538	0.558
539	0.556
539	0.554
540	0.551
540	0.549
541	0.546
541	0.543
542	0.541
542	0.538
542	0.535
543	0.531
543	0.529
544	0.526
544	0.523
545	0.52
545	0.517
546	0.514
546	0.511
547	0.507
547	0.503
547	0.5
548	0.497
548	0.493
549	0.49
549	0.486
550	0.483
550	0.479
551	0.475
551	0.471
551	0.467
552	0.463
552	0.46
553	0.457
553	0.453
554	0.45
554	0.446
555	0.442
555	0.438
556	0.435
556	0.431
556	0.428
557	0.425
557	0.421
558	0.418
558	0.414
559	0.411
559	0.407
560	0.404
560	0.401
560	0.398
561	0.395
561	0.393
562	0.39
562	0.386
563	0.383
563	0.38
564	0.378
564	0.375
564	0.372
565	0.37
565	0.367
566	0.364
566	0.362
567	0.359
567	0.356
568	0.353
568	0.35
568	0.346
569	0.343
569	0.34
570	0.336
570	0.332
571	0.33
571	0.326
572	0.323
572	0.32
573	0.317
573	0.314
573	0.311
574	0.309
574	0.307
575	0.305
575	0.304
576	0.302
576	0.299
577	0.296
577	0.294
577	0.293
578	0.291
578	0.29
579	0.289
579	0.288
580	0.285
580	0.281
581	0.278
581	0.276
581	0.275
582	0.274
582	0.272
583	0.271
583	0.268
584	0.264
584	0.26
585	0.259
585	0.257
585	0.255
586	0.253
586	0.251
587	0.248
587	0.246
588	0.244
588	0.242
589	0.241
589	0.24
590	0.238
590	0.237
590	0.236
591	0.235
591	0.233
592	0.231
592	0.23
593	0.228
593	0.227
594	0.225
594	0.223
594	0.222
595	0.221
595	0.219
596	0.217
596	0.217
597	0.217
597	0.216
598	0.214
598	0.213
598	0.212
599	0.211
599	0.21
600	0.208
600	0.207
601	0.206
601	0.205
602	0.203
602	0.202
602	0.2
603	0.199
603	0.199
604	0.198
604	0.197
605	0.196
605	0.196
606	0.195
606	0.193
606	0.192
607	0.19
607	0.19
608	0.188
608	0.186
609	0.185
609	0.184
610	0.183
610	0.181
610	0.18
611	0.18
611	0.179
612	0.179
612	0.178
613	0.178
613	0.177
614	0.176
614	0.174
614	0.173
615	0.172
615	0.171
616	0.17
616	0.169
617	0.169
617	0.167
618	0.166
618	0.165
618	0.164
619	0.163
619	0.163
620	0.163
620	0.161
621	0.16
621	0.159
622	0.157
622	0.156
622	0.155
623	0.154
623	0.154
624	0.153
624	0.152
625	0.151
625	0.15
626	0.149
626	0.147
626	0.147
627	0.146
627	0.145
628	0.143
628	0.142
629	0.14
629	0.139
630	0.137
630	0.135
630	0.134
631	0.132
631	0.13
632	0.128
632	0.126
633	0.125
633	0.123
634	0.121
634	0.119
634	0.118
635	0.116
635	0.114
636	0.112
636	0.11
637	0.108
637	0.105
638	0.103
638	0.101
638	0.098
639	0.095
639	0.092
640	0.089
640	0.086
641	0.083
641	0.08
642	0.077
642	0.074
642	0.07
643	0.067
643	0.063
644	0.058
644	0.054
645	0.05
645	0.046
646	0.041
646	0.035
646	0.03
647	0.024
647	0.018
648	0.013
648	0.007
649	0.001
649	-0.005
650	-0.01
650	-0.016
650	-0.022
651	-0.03
651	-0.04
652	-0.05
652	-0.061
653	-0.071
653	-0.08
653	-0.075
654	-0.059
654	-0.056
655	-0.059
655	-0.064
656	-0.068
656	-0.074
657	-0.078
657	-0.082
657	-0.087
658	-0.093
658	-0.119
659	-0.193
659	-0.268
660	-0.302
660	-0.325
661	-0.348
661	-0.374
661	-0.401
662	-0.425
662	-0.453
663	-0.484
663	-0.518
664	-0.551
664	-0.586
665	-0.627
665	-0.67
665	-0.711
666	-0.756
666	-0.806
667	-0.857
667	-0.916
668	-0.971
668	-1.036
669	-1.102
669	-1.173
669	-1.251
670	-1.335
670	-1.465
671	-1.723
671	-2.129
672	-2.35
672	-2.503
672	-2.617
673	-2.71
673	-2.788
674	-2.823
674	-2.835
675	-2.85
675	-2.853
676	-2.843
676	-2.775
676	-2.696
677	-2.598
677	-2.474
678	-2.276
678	-1.876
679	-1.562
679	-1.417
680	-1.326
680	-1.259
680	-1.201
681	-1.161
681	-1.117
682	-1.081
682	-1.043
683	-1.004
683	-0.985
684	-0.962
684	-0.945
684	-0.926
685	-0.909
685	-0.901
686	-0.881
686	-0.87
687	-0.862
687	-0.854
687	-0.857
688	-0.844
688	-0.838
689	-0.844
689	-0.841
690	-0.83
690	-0.822
691	-0.822
691	-0.827
691	-0.828
692	-0.83
692	-0.826
693	-0.833
693	-0.845
694	-0.825
694	-0.825
695	-0.83
695	-0.824
695	-0.831
696	-0.837
696	-0.83
697	-0.824
697	-0.821
698	-0.816
698	-0.808
698	-0.822
699	-0.824
699	-0.824
700	-0.844
700	-0.839
701	-0.825
701	-0.82
702	-0.821
702	-0.819
702	-0.819
703	-0.809
703	-0.799
704	-0.806
704	-0.808
705	-0.796
705	-0.796
705	-0.791
706	-0.784
706	-0.779
707	-0.792
707	-0.795
708	-0.795
708	-0.793
709	-0.793
709	-0.791
709	-0.788
710	-0.795
710	-0.8
711	-0.799
711	-0.8
712	-0.79
712	-0.789
713	-0.793
713	-0.794
713	-0.774
714	-0.776
714	-0.778
715	-0.771
715	-0.779
716	-0.795
716	-0.804
716	-0.806
717	-0.811
717	-0.802
718	-0.794
718	-0.797
719	-0.792
719	-0.783
720	-0.779
720	-0.773
720	-0.769
721	-0.759
721	-0.764
722	-0.76
722	-0.756
723	-0.775
723	-0.787
723	-0.796
724	-0.796
724	-0.8
725	-0.796
725	-0.799
726	-0.803
726	-0.793
727	-0.797
727	-0.804
727	-0.795
728	-0.783
728	-0.78
729	-0.782
729	-0.786
730	-0.789
730	-0.781
730	-0.785
731	-0.788
731	-0.788
732	-0.79
732	-0.784
733	-0.799
733	-0.807
734	-0.815
734	-0.805
734	-0.789
735	-0.779
735	-0.775
736	-0.774
736	-0.768
737	-0.768
737	-0.76
737	-0.75
738	-0.736
738	-0.726
739	-0.73
739	-0.732
740	-0.746
740	-0.747
741	-0.757
741	-0.766
741	-0.776
742	-0.78
742	-0.798
743	-0.804
743	-0.805
744	-0.809
744	-0.816
744	-0.809
745	-0.816
745	-0.807
746	-0.804
746	-0.794
747	-0.797
747	-0.786
748	-0.788
748	-0.794
748	-0.795
749	-0.786
749	-0.794
750	-0.785
750	-0.784
751	-0.783
751	-0.781
751	-0.793
752	-0.798
752	-0.8
753	-0.801
753	-0.793
754	-0.814
754	-0.813
754	-0.821
755	-0.822
755	-0.814
756	-0.817
756	-0.802
757	-0.793
757	-0.781
758	-0.782
758	-0.78
758	-0.775
759	-0.781
759	-0.78
760	-0.779
760	-0.782
761	-0.776
761	-0.78
761	-0.78
762	-0.787
762	-0.788
763	-0.79
763	-0.795
764	-0.794
764	-0.789
764	-0.794
765	-0.791
765	-0.798
766	-0.801
766	-0.806
767	-0.821
767	-0.815
768	-0.813
768	-0.804
768	-0.798
769	-0.802
769	-0.809
770	-0.819
770	-0.823
771	-0.82
771	-0.819
771	-0.824
772	-0.827
772	-0.847
773	-0.849
773	-0.848
774	-0.846
774	-0.83
775	-0.817
775	-0.816
775	-0.818
776	-0.827
776	-0.823
777	-0.824
777	-0.808
778	-0.816
778	-0.826
778	-0.826
779	-0.834
779	-0.851
780	-0.847
780	-0.857
781	-0.846
781	-0.834
781	-0.848
782	-0.868
782	-0.871
783	-0.87
783	-0.877
784	-0.882
784	-0.873
784	-0.894
785	-0.887
785	-0.9
786	-0.908
786	-0.9
787	-0.889
787	-0.897
788	-0.889
788	-0.885
788	-0.885
789	-0.887
789	-0.876
790	-0.877
790	-0.861
791	-0.866
791	-0.861
791	-0.854
792	-0.848
792	-0.852
793	-0.855
793	-0.842
794	-0.835
794	-0.828
794	-0.833
795	-0.853
795	-0.84
796	-0.846
796	-0.843
797	-0.836
797	-0.827
797	-0.818
798	-0.84
798	-0.845
799	-0.844
799	-0.833
800	-0.829
800	-0.838
801	-0.836
801	-0.84
801	-0.836
802	-0.836
802	-0.837
803	-0.83
803	-0.821
804	-0.828
804	-0.833
804	-0.816
805	-0.799
805	-0.79
806	-0.788
806	-0.786
807	-0.786
807	-0.785
807	-0.767
808	-0.763
808	-0.755
809	-0.751
809	-0.751
810	-0.753
810	-0.75
810	-0.746
811	-0.749
811	-0.739
812	-0.733
812	-0.737
813	-0.742
813	-0.743
813	-0.737
814	-0.739
814	-0.745
815	-0.736
815	-0.734
816	-0.73
816	-0.75
817	-0.762
817	-0.764
817	-0.772
818	-0.766
818	-0.766
819	-0.775
819	-0.772
820	-0.783
820	-0.782
820	-0.78
821	-0.772
821	-0.767
822	-0.767
822	-0.756
823	-0.767
823	-0.765
823	-0.762
824	-0.76
824	-0.771
825	-0.77
825	-0.768
826	-0.766
826	-0.763
826	-0.762
827	-0.761
827	-0.751
828	-0.75
828	-0.744
829	-0.738
829	-0.724
829	-0.721
830	-0.72
830	-0.704
831	-0.698
831	-0.688
832	-0.678
832	-0.673
832	-0.666
833	-0.665
833	-0.669
834	-0.663
834	-0.657
835	-0.65
835	-0.651
835	-0.645
836	-0.642
836	-0.64
837	-0.631
837	-0.624
838	-0.611
838	-0.596
839	-0.592
839	-0.581
839	-0.57
840	-0.57
840	-0.56
841	-0.55
841	-0.542
842	-0.534
842	-0.522
842	-0.518
843	-0.515
843	-0.509
844	-0.508
844	-0.497
845	-0.483
845	-0.474
845	-0.464
846	-0.453
846	-0.443
847	-0.432
847	-0.419
848	-0.405
848	-0.389
848	-0.375
849	-0.363
849	-0.351
850	-0.341
850	-0.332
851	-0.319
851	-0.304
851	-0.294
852	-0.28
852	-0.268
853	-0.26
853	-0.249
854	-0.239
854	-0.229
854	-0.217
855	-0.206
855	-0.2
856	-0.193
856	-0.185
857	-0.179
857	-0.171
857	-0.159
858	-0.15
858	-0.144
859	-0.134
859	-0.123
860	-0.114
860	-0.1
860	-0.09
861	-0.081
861	-0.072
862	-0.064
862	-0.057
863	-0.05
863	-0.042
863	-0.037
864	-0.032
864	-0.026
865	-0.021
865	-0.016
866	-0.011
866	-0.007
866	-0.003
867	0.002
867	0.006
868	0.009
868	0.014
869	0.018
869	0.021
869	0.023
870	0.025
870	0.027
871	0.028
871	0.029
872	0.03
872	0.03
872	0.031
873	0.031
873	0.031
874	0.03
874	0.03
875	0.03
875	0.03
875	0.03
876	0.029
876	0.029
877	0.029
877	0.028
878	0.028
878	0.028
878	0.027
879	0.027
879	0.026
880	0.026
880	0.025
881	0.024
881	0.023
881	0.023
882	0.022
882	0.021
883	0.02
883	0.02
884	0.02
884	0.02
884	0.02
885	0.02
885	0.02
886	0.021
886	0.02
887	0.02
887	0.02
887	0.02
888	0.02
888	0.019
889	0.018
889	0.018
890	0.017
890	0.016
890	0.015
891	0.015
891	0.015
892	0.016
892	0.016
893	0.016
893	0.016
893	0.016
894	0.016
894	0.016
895	0.016
895	0.016
895	0.017
896	0.017
896	0.018
897	0.018
897	0.018
898	0.019
898	0.019
898	0.019
899	0.02
899	0.021
900	0.021
900	0.021
901	0.021
901	0.02
901	0.021
902	0.021
902	0.021
903	0.021
903	0.02
904	0.02
904	0.019
904	0.019
905	0.018
905	0.018
906	0.019
906	0.019
907	0.019
907	0.02
907	0.02
908	0.021
908	0.022
909	0.024
909	0.025
910	0.026
910	0.026
910	0.027
911	0.028
911	0.029
912	0.031
912	0.032
913	0.033
913	0.034
913	0.035
914	0.035
914	0.036
915	0.035
915	0.035
916	0.035
916	0.034
916	0.033
917	0.032
917	0.031
918	0.03
918	0.03
918	0.029
919	0.028
919	0.027
920	0.027
920	0.026
921	0.026
921	0.026
921	0.026
922	0.025
922	0.025
923	0.025
923	0.025
924	0.024
924	0.024
924	0.024
925	0.024
925	0.024
926	0.023
926	0.023
927	0.023
927	0.023
927	0.023
928	0.023
928	0.023
929	0.024
929	0.024
930	0.025
930	0.026
930	0.026
931	0.027
931	0.027
932	0.028
932	0.028
933	0.028
933	0.028
933	0.027
934	0.026
934	0.025
935	0.024
935	0.023
935	0.022
936	0.02
936	0.019
937	0.017
937	0.017
938	0.016
938	0.015
938	0.014
939	0.014
939	0.013
940	0.014
940	0.013
941	0.013
941	0.012
941	0.012
942	0.012
942	0.011
943	0.011
943	0.011
944	0.01
944	0.01
944	0.01
945	0.01
945	0.011
946	0.011
946	0.01
946	0.011
947	0.011
947	0.011
948	0.012
948	0.012
949	0.012
949	0.012
949	0.013
950	0.013
950	0.013
951	0.014
951	0.014
952	0.014
952	0.014
952	0.014
953	0.014
953	0.015
954	0.015
954	0.015
955	0.015
955	0.015
955	0.015
956	0.015
956	0.014
957	0.014
957	0.013
957	0.013
958	0.013
958	0.013
959	0.013
959	0.013
960	0.013
960	0.012
960	0.013
961	0.014
961	0.014
962	0.015
962	0.015
963	0.015
963	0.016
963	0.016
964	0.016
964	0.016
965	0.016
965	0.017
966	0.016
966	0.016
966	0.017
967	0.017
967	0.016
968	0.016
968	0.016
968	0.016
969	0.015
969	0.015
970	0.014
970	0.013
971	0.013
971	0.012
971	0.012
972	0.012
972	0.012
973	0.012
973	0.012
974	0.012
974	0.012
974	0.013
975	0.014
975	0.014
976	0.015
976	0.015
976	0.016
977	0.016
977	0.015
978	0.015
978	0.014
979	0.014
979	0.013
979	0.012
980	0.011
980	0.011
981	0.01
981	0.009
982	0.009
982	0.009
982	0.008
983	0.008
983	0.008
984	0.008
984	0.007
984	0.007
985	0.007
985	0.007
986	0.006
986	0.005
987	0.004
987	0.004
987	0.003
988	0.003
988	0.002
989	0.002
989	0.002
990	0.001
990	0.001
990	0.001
991	0.001
991	0.001
992	0.002
992	0.002
992	0.002
993	0.002
993	0.002
994	0.001
994	0.001
995	0.001
995	0.001
995	0
996	0
996	-0.001
997	-0.001
997	-0.001
997	-0.001
998	-0.001
998	-0.001
999	-0.001
999	-0.001
1000	-0.001
1000	-0.001
1000	-0.001
1001	-0.001
1001	-0.001
1002	-0.001
1002	-0.001
1003	-0.001
1003	-0.002
1003	-0.003
1004	-0.003
1004	-0.004
1005	-0.004
1005	-0.005
1005	-0.006
1006	-0.007
1006	-0.007
1007	-0.008
1007	-0.008
1008	-0.009
1008	-0.009
1008	-0.009
1009	-0.009
1009	-0.008
1010	-0.008
1010	-0.007
1010	-0.007
1011	-0.006
1011	-0.006
1012	-0.006
1012	-0.005
1013	-0.004
1013	-0.004
1013	-0.004
1014	-0.004
1014	-0.004
1015	-0.004
1015	-0.004
1016	-0.004
1016	-0.003
1016	-0.003
1017	-0.004
1017	-0.004
1018	-0.003
1018	-0.004
1018	-0.003
1019	-0.004
1019	-0.004
1020	-0.004
1020	-0.004
1021	-0.005
1021	-0.005
1021	-0.005
1022	-0.006
1022	-0.006
1023	-0.006
1023	-0.007
1023	-0.007
1024	-0.007
1024	-0.008
1025	-0.008
1025	-0.007
1026	-0.007
1026	-0.007
1026	-0.008
1027	-0.008
1027	-0.008
1028	-0.007
1028	-0.007
1028	-0.007
1029	-0.008
1029	-0.007
1030	-0.008
1030	-0.008
1031	-0.009
1031	-0.008
1031	-0.008
1032	-0.008
1032	-0.008
1033	-0.009
1033	-0.009
1033	-0.009
1034	-0.009
1034	-0.009
1035	-0.009
1035	-0.01
1036	-0.01
1036	-0.011
1036	-0.011
1037	-0.011
1037	-0.01
1038	-0.01
1038	-0.01
1039	-0.009
1039	-0.008
1039	-0.008
1040	-0.007
1040	-0.006
1041	-0.006
1041	-0.006
1041	-0.006
1042	-0.006
1042	-0.007
1043	-0.007
1043	-0.008
1044	-0.008
1044	-0.009
1044	-0.01
1045	-0.011
1045	-0.012
1046	-0.012
1046	-0.013
1046	-0.014
1047	-0.014
1047	-0.014
1048	-0.014
1048	-0.015
1049	-0.015
1049	-0.016
1049	-0.016
1050	-0.017
1050	-0.018
1051	-0.019
1051	-0.02
1051	-0.02
1052	-0.021
1052	-0.022
1053	-0.023
1053	-0.023
1053	-0.023
1054	-0.024
1054	-0.023
1055	-0.023
1055	-0.023
1056	-0.023
1056	-0.023
1056	-0.023
1057	-0.023
1057	-0.023
1058	-0.023
1058	-0.024
1058	-0.023
1059	-0.023
1059	-0.024
1060	-0.024
1060	-0.023
1061	-0.024
1061	-0.023
1061	-0.023
1062	-0.023
1062	-0.023
1063	-0.022
1063	-0.023
1063	-0.023
1064	-0.023
1064	-0.023
1065	-0.023
1065	-0.024
1066	-0.024
1066	-0.025
1066	-0.025
1067	-0.026
1067	-0.026
1068	-0.027
1068	-0.028
1068	-0.028
1069	-0.029
1069	-0.03
1070	-0.03
1070	-0.031
1071	-0.031
1071	-0.031
1071	-0.031
1072	-0.031
1072	-0.03
1073	-0.03
1073	-0.029
1073	-0.029
1074	-0.028
1074	-0.028
1075	-0.028
1075	-0.028
1076	-0.029
1076	-0.029
1076	-0.03
1077	-0.031
1077	-0.031
1078	-0.032
1078	-0.033
1078	-0.034
1079	-0.035
1079	-0.035
1080	-0.036
1080	-0.037
1080	-0.038
1081	-0.039
1081	-0.039
1082	-0.039
1082	-0.041
1083	-0.041
1083	-0.042
1083	-0.043
1084	-0.044
1084	-0.044
1085	-0.045
1085	-0.045
1085	-0.046
1086	-0.046
1086	-0.047
1087	-0.047
1087	-0.048
1088	-0.049
1088	-0.05
1088	-0.05
1089	-0.052
1089	-0.053
1090	-0.053
1090	-0.054
1090	-0.056
1091	-0.058
1091	-0.059
1092	-0.059
1092	-0.06
1092	-0.061
1093	-0.063
1093	-0.063
1094	-0.064
1094	-0.065
1095	-0.066
1095	-0.067
1095	-0.067
1096	-0.069
1096	-0.07
1097	-0.07
1097	-0.072
1097	-0.073
1098	-0.074
1098	-0.076
1099	-0.076
1099	-0.077
1100	-0.079
1100	-0.081
1100	-0.084
1101	-0.087
1101	-0.089
1102	-0.091
1102	-0.093
1102	-0.094
1103	-0.097
1103	-0.1
1104	-0.103
1104	-0.106
1104	-0.108
1105	-0.11
1105	-0.112
1106	-0.117
1106	-0.119
1107	-0.125
1107	-0.13
1107	-0.133
1108	-0.136
1108	-0.138
1109	-0.141
1109	-0.144
1109	-0.148
1110	-0.15
1110	-0.153
1111	-0.163
1111	-0.156
