Data from 3.4A_17C_Absorbance__73__01030.txt Node

Date: Tue Jun 20 15:40:22 CEST 2023
User: Marek
Spectrometer: MAYP115816
Trigger mode: 0
Integration Time (sec): 2.200000E-1
Scans to average: 10
Electric dark correction enabled: true
Nonlinearity correction enabled: true
Boxcar width: 5
XAxis mode: Wavelengths
Number of Pixels in Spectrum: 2068
>>>>>Begin Spectral Data<<<<<
199	-0.745
199	-0.732
200	-0.695
200	-0.641
201	-0.612
201	-0.602
202	-0.585
202	-0.578
203	-0.579
203	-0.573
204	-0.553
204	-0.538
205	-0.514
205	-0.505
205	-0.513
206	-0.515
206	-0.511
207	-0.503
207	-0.509
208	-0.509
208	-0.511
209	-0.511
209	-0.518
210	-0.532
210	-0.539
211	-0.533
211	-0.535
212	-0.544
212	-0.552
213	-0.549
213	-0.545
213	-0.542
214	-0.549
214	-0.553
215	-0.548
215	-0.553
216	-0.563
216	-0.571
217	-0.568
217	-0.568
218	-0.575
218	-0.577
219	-0.586
219	-0.587
220	-0.589
220	-0.596
221	-0.596
221	-0.596
221	-0.587
222	-0.587
222	-0.586
223	-0.583
223	-0.585
224	-0.586
224	-0.585
225	-0.582
225	-0.585
226	-0.585
226	-0.584
227	-0.593
227	-0.603
228	-0.607
228	-0.616
229	-0.621
229	-0.619
229	-0.62
230	-0.615
230	-0.614
231	-0.609
231	-0.603
232	-0.605
232	-0.599
233	-0.6
233	-0.588
234	-0.587
234	-0.582
235	-0.587
235	-0.598
236	-0.605
236	-0.608
236	-0.609
237	-0.606
237	-0.608
238	-0.609
238	-0.611
239	-0.612
239	-0.622
240	-0.613
240	-0.609
241	-0.603
241	-0.603
242	-0.606
242	-0.615
243	-0.614
243	-0.615
243	-0.62
244	-0.617
244	-0.616
245	-0.619
245	-0.622
246	-0.632
246	-0.638
247	-0.646
247	-0.631
248	-0.629
248	-0.632
249	-0.636
249	-0.638
250	-0.638
250	-0.645
250	-0.643
251	-0.643
251	-0.637
252	-0.638
252	-0.649
253	-0.647
253	-0.658
254	-0.663
254	-0.663
255	-0.674
255	-0.673
256	-0.675
256	-0.689
257	-0.699
257	-0.696
258	-0.698
258	-0.703
258	-0.7
259	-0.693
259	-0.712
260	-0.71
260	-0.7
261	-0.711
261	-0.697
262	-0.702
262	-0.701
263	-0.692
263	-0.696
264	-0.705
264	-0.707
265	-0.696
265	-0.7
265	-0.709
266	-0.7
266	-0.699
267	-0.699
267	-0.715
268	-0.724
268	-0.72
269	-0.713
269	-0.728
270	-0.733
270	-0.73
271	-0.745
271	-0.756
272	-0.756
272	-0.757
272	-0.75
273	-0.761
273	-0.775
274	-0.768
274	-0.761
275	-0.758
275	-0.747
276	-0.75
276	-0.756
277	-0.76
277	-0.759
278	-0.761
278	-0.759
278	-0.746
279	-0.756
279	-0.769
280	-0.77
280	-0.779
281	-0.772
281	-0.764
282	-0.769
282	-0.763
283	-0.758
283	-0.774
284	-0.79
284	-0.799
285	-0.779
285	-0.787
285	-0.78
286	-0.786
286	-0.803
287	-0.8
287	-0.798
288	-0.796
288	-0.778
289	-0.776
289	-0.782
290	-0.79
290	-0.777
291	-0.782
291	-0.779
292	-0.756
292	-0.754
292	-0.759
293	-0.749
293	-0.744
294	-0.742
294	-0.728
295	-0.712
295	-0.725
296	-0.736
296	-0.731
297	-0.721
297	-0.724
298	-0.721
298	-0.74
298	-0.741
299	-0.725
299	-0.719
300	-0.715
300	-0.696
301	-0.676
301	-0.679
302	-0.689
302	-0.676
303	-0.667
303	-0.652
304	-0.636
304	-0.638
305	-0.629
305	-0.638
305	-0.653
306	-0.637
306	-0.634
307	-0.627
307	-0.636
308	-0.639
308	-0.635
309	-0.637
309	-0.633
310	-0.632
310	-0.625
311	-0.611
311	-0.63
311	-0.619
312	-0.616
312	-0.605
313	-0.597
313	-0.599
314	-0.604
314	-0.603
315	-0.601
315	-0.597
316	-0.592
316	-0.581
317	-0.573
317	-0.569
318	-0.561
318	-0.559
318	-0.548
319	-0.536
319	-0.528
320	-0.525
320	-0.521
321	-0.515
321	-0.515
322	-0.51
322	-0.504
323	-0.505
323	-0.495
324	-0.494
324	-0.486
324	-0.475
325	-0.459
325	-0.443
326	-0.436
326	-0.41
327	-0.394
327	-0.371
328	-0.339
328	-0.315
329	-0.286
329	-0.256
330	-0.227
330	-0.19
330	-0.153
331	-0.114
331	-0.081
332	-0.047
332	-0.012
333	0.018
333	0.053
334	0.083
334	0.111
335	0.139
335	0.161
336	0.184
336	0.207
336	0.224
337	0.242
337	0.26
338	0.275
338	0.286
339	0.3
339	0.311
340	0.32
340	0.329
341	0.337
341	0.343
342	0.351
342	0.357
342	0.363
343	0.367
343	0.372
344	0.376
344	0.379
345	0.382
345	0.385
346	0.387
346	0.388
347	0.39
347	0.391
348	0.393
348	0.395
348	0.395
349	0.396
349	0.397
350	0.398
350	0.398
351	0.399
351	0.399
352	0.399
352	0.399
353	0.4
353	0.4
354	0.4
354	0.4
354	0.4
355	0.4
355	0.4
356	0.4
356	0.4
357	0.4
357	0.4
358	0.399
358	0.399
359	0.399
359	0.4
360	0.399
360	0.399
360	0.399
361	0.399
361	0.399
362	0.399
362	0.399
363	0.4
363	0.399
364	0.399
364	0.399
365	0.399
365	0.399
366	0.399
366	0.398
366	0.398
367	0.398
367	0.398
368	0.397
368	0.397
369	0.397
369	0.396
370	0.396
370	0.396
371	0.395
371	0.395
372	0.394
372	0.394
372	0.394
373	0.393
373	0.393
374	0.393
374	0.393
375	0.392
375	0.392
376	0.391
376	0.391
377	0.391
377	0.39
378	0.39
378	0.389
378	0.389
379	0.388
379	0.388
380	0.387
380	0.387
381	0.387
381	0.386
382	0.386
382	0.385
383	0.385
383	0.385
383	0.384
384	0.384
384	0.383
385	0.383
385	0.382
386	0.382
386	0.381
387	0.381
387	0.38
388	0.38
388	0.38
389	0.379
389	0.379
389	0.379
390	0.378
390	0.378
391	0.378
391	0.377
392	0.377
392	0.377
393	0.377
393	0.376
394	0.376
394	0.375
394	0.375
395	0.374
395	0.374
396	0.373
396	0.373
397	0.372
397	0.372
398	0.371
398	0.371
399	0.37
399	0.37
400	0.369
400	0.369
400	0.369
401	0.368
401	0.368
402	0.367
402	0.367
403	0.367
403	0.366
404	0.366
404	0.365
405	0.365
405	0.364
405	0.364
406	0.363
406	0.363
407	0.363
407	0.362
408	0.362
408	0.361
409	0.361
409	0.361
410	0.361
410	0.361
411	0.361
411	0.36
411	0.36
412	0.36
412	0.359
413	0.359
413	0.358
414	0.358
414	0.358
415	0.357
415	0.357
416	0.357
416	0.356
416	0.356
417	0.356
417	0.356
418	0.356
418	0.356
419	0.356
419	0.356
420	0.355
420	0.355
421	0.355
421	0.355
421	0.355
422	0.355
422	0.355
423	0.354
423	0.354
424	0.353
424	0.353
425	0.353
425	0.353
426	0.353
426	0.353
427	0.353
427	0.353
427	0.353
428	0.353
428	0.352
429	0.352
429	0.352
430	0.351
430	0.351
431	0.351
431	0.35
432	0.35
432	0.35
432	0.349
433	0.349
433	0.349
434	0.35
434	0.35
435	0.35
435	0.35
436	0.35
436	0.351
437	0.351
437	0.35
437	0.35
438	0.35
438	0.35
439	0.35
439	0.35
440	0.349
440	0.349
441	0.349
441	0.349
442	0.349
442	0.349
442	0.349
443	0.349
443	0.349
444	0.35
444	0.35
445	0.35
445	0.35
446	0.35
446	0.35
447	0.35
447	0.35
447	0.35
448	0.35
448	0.35
449	0.35
449	0.35
450	0.35
450	0.351
451	0.351
451	0.351
452	0.351
452	0.351
452	0.351
453	0.351
453	0.351
454	0.352
454	0.352
455	0.352
455	0.352
456	0.353
456	0.353
457	0.353
457	0.353
458	0.353
458	0.354
458	0.354
459	0.354
459	0.354
460	0.354
460	0.354
461	0.355
461	0.355
462	0.356
462	0.356
463	0.357
463	0.357
463	0.358
464	0.358
464	0.359
465	0.36
465	0.36
466	0.361
466	0.362
467	0.362
467	0.362
467	0.363
468	0.363
468	0.364
469	0.364
469	0.365
470	0.366
470	0.367
471	0.367
471	0.368
472	0.369
472	0.369
472	0.37
473	0.372
473	0.373
474	0.374
474	0.375
475	0.376
475	0.377
476	0.378
476	0.379
477	0.38
477	0.382
477	0.383
478	0.384
478	0.385
479	0.386
479	0.388
480	0.389
480	0.39
481	0.392
481	0.393
482	0.395
482	0.396
482	0.398
483	0.4
483	0.403
484	0.405
484	0.406
485	0.407
485	0.409
486	0.411
486	0.413
487	0.415
487	0.416
487	0.418
488	0.42
488	0.422
489	0.424
489	0.426
490	0.429
490	0.431
491	0.434
491	0.436
492	0.439
492	0.441
492	0.444
493	0.446
493	0.449
494	0.452
494	0.455
495	0.457
495	0.46
496	0.463
496	0.466
496	0.469
497	0.472
497	0.476
498	0.479
498	0.482
499	0.485
499	0.488
500	0.492
500	0.496
501	0.5
501	0.503
501	0.506
502	0.509
502	0.513
503	0.517
503	0.52
504	0.523
504	0.527
505	0.53
505	0.534
506	0.538
506	0.541
506	0.545
507	0.549
507	0.553
508	0.557
508	0.561
509	0.565
509	0.568
510	0.572
510	0.576
511	0.579
511	0.583
511	0.586
512	0.589
512	0.592
513	0.595
513	0.598
514	0.602
514	0.606
515	0.609
515	0.611
515	0.614
516	0.617
516	0.62
517	0.623
517	0.626
518	0.628
518	0.63
519	0.632
519	0.634
520	0.636
520	0.638
520	0.641
521	0.642
521	0.644
522	0.645
522	0.647
523	0.649
523	0.65
524	0.651
524	0.652
524	0.652
525	0.653
525	0.654
526	0.654
526	0.654
527	0.655
527	0.655
528	0.654
528	0.654
529	0.654
529	0.653
529	0.653
530	0.652
530	0.651
531	0.65
531	0.649
532	0.648
532	0.646
533	0.645
533	0.643
533	0.642
534	0.64
534	0.638
535	0.636
535	0.634
536	0.631
536	0.629
537	0.626
537	0.623
538	0.62
538	0.616
538	0.613
539	0.61
539	0.607
540	0.603
540	0.599
541	0.595
541	0.592
542	0.588
542	0.584
542	0.579
543	0.575
543	0.571
544	0.567
544	0.563
545	0.559
545	0.555
546	0.55
546	0.545
547	0.541
547	0.536
547	0.531
548	0.527
548	0.522
549	0.517
549	0.512
550	0.507
550	0.502
551	0.496
551	0.491
551	0.486
552	0.481
552	0.476
553	0.471
553	0.467
554	0.462
554	0.456
555	0.451
555	0.446
556	0.441
556	0.436
556	0.431
557	0.427
557	0.422
558	0.417
558	0.412
559	0.407
559	0.402
560	0.397
560	0.393
560	0.388
561	0.384
561	0.381
562	0.376
562	0.372
563	0.368
563	0.364
564	0.36
564	0.356
564	0.352
565	0.348
565	0.344
566	0.34
566	0.336
567	0.332
567	0.328
568	0.324
568	0.32
568	0.315
569	0.311
569	0.307
570	0.302
570	0.297
571	0.293
571	0.289
572	0.285
572	0.281
573	0.277
573	0.273
573	0.27
574	0.267
574	0.264
575	0.261
575	0.259
576	0.256
576	0.252
577	0.249
577	0.246
577	0.244
578	0.242
578	0.24
579	0.239
579	0.236
580	0.232
580	0.228
581	0.225
581	0.222
581	0.22
582	0.219
582	0.217
583	0.214
583	0.211
584	0.206
584	0.202
585	0.2
585	0.198
585	0.196
586	0.193
586	0.191
587	0.187
587	0.185
588	0.182
588	0.18
589	0.178
589	0.177
590	0.175
590	0.173
590	0.173
591	0.171
591	0.169
592	0.167
592	0.164
593	0.163
593	0.161
594	0.159
594	0.157
594	0.156
595	0.154
595	0.152
596	0.15
596	0.149
597	0.15
597	0.148
598	0.146
598	0.145
598	0.144
599	0.143
599	0.141
600	0.139
600	0.138
601	0.137
601	0.136
602	0.134
602	0.132
602	0.131
603	0.13
603	0.129
604	0.128
604	0.127
605	0.127
605	0.126
606	0.124
606	0.123
606	0.121
607	0.12
607	0.119
608	0.118
608	0.116
609	0.115
609	0.114
610	0.113
610	0.111
610	0.111
611	0.11
611	0.11
612	0.109
612	0.109
613	0.109
613	0.108
614	0.107
614	0.105
614	0.104
615	0.103
615	0.102
616	0.102
616	0.101
617	0.1
617	0.099
618	0.098
618	0.097
618	0.097
619	0.096
619	0.096
620	0.096
620	0.095
621	0.094
621	0.093
622	0.092
622	0.091
622	0.09
623	0.089
623	0.089
624	0.089
624	0.088
625	0.087
625	0.086
626	0.085
626	0.084
626	0.084
627	0.083
627	0.083
628	0.082
628	0.081
629	0.079
629	0.078
630	0.077
630	0.076
630	0.075
631	0.074
631	0.073
632	0.072
632	0.071
633	0.07
633	0.069
634	0.069
634	0.068
634	0.067
635	0.067
635	0.066
636	0.065
636	0.064
637	0.063
637	0.063
638	0.062
638	0.061
638	0.06
639	0.059
639	0.058
640	0.056
640	0.055
641	0.054
641	0.053
642	0.052
642	0.051
642	0.049
643	0.048
643	0.046
644	0.044
644	0.042
645	0.04
645	0.038
646	0.036
646	0.033
646	0.029
647	0.026
647	0.022
648	0.019
648	0.015
649	0.012
649	0.008
650	0.005
650	0.001
650	-0.003
651	-0.008
651	-0.015
652	-0.021
652	-0.029
653	-0.035
653	-0.041
653	-0.037
654	-0.029
654	-0.032
655	-0.036
655	-0.041
656	-0.044
656	-0.049
657	-0.053
657	-0.056
657	-0.061
658	-0.066
658	-0.087
659	-0.142
659	-0.194
660	-0.219
660	-0.236
661	-0.257
661	-0.277
661	-0.298
662	-0.314
662	-0.335
663	-0.354
663	-0.377
664	-0.396
664	-0.42
665	-0.445
665	-0.472
665	-0.494
666	-0.521
666	-0.551
667	-0.583
667	-0.618
668	-0.654
668	-0.701
669	-0.748
669	-0.798
669	-0.86
670	-0.931
670	-1.082
671	-1.412
671	-1.835
672	-2.193
672	-2.396
672	-2.537
673	-2.629
673	-2.653
674	-2.67
674	-2.679
675	-2.694
675	-2.698
676	-2.69
676	-2.641
676	-2.526
677	-2.365
677	-2.102
678	-1.544
678	-1.168
679	-1.04
679	-0.973
680	-0.924
680	-0.891
680	-0.866
681	-0.854
681	-0.831
682	-0.819
682	-0.797
683	-0.776
683	-0.775
684	-0.767
684	-0.764
684	-0.757
685	-0.753
685	-0.756
686	-0.744
686	-0.741
687	-0.741
687	-0.74
687	-0.749
688	-0.742
688	-0.74
689	-0.749
689	-0.751
690	-0.741
690	-0.735
691	-0.738
691	-0.745
691	-0.75
692	-0.755
692	-0.754
693	-0.763
693	-0.779
694	-0.764
694	-0.765
695	-0.772
695	-0.767
695	-0.777
696	-0.785
696	-0.777
697	-0.771
697	-0.769
698	-0.767
698	-0.76
698	-0.774
699	-0.772
699	-0.777
700	-0.797
700	-0.792
701	-0.781
701	-0.778
702	-0.78
702	-0.78
702	-0.781
703	-0.772
703	-0.761
704	-0.77
704	-0.772
705	-0.763
705	-0.763
705	-0.759
706	-0.752
706	-0.751
707	-0.763
707	-0.768
708	-0.766
708	-0.765
709	-0.767
709	-0.765
709	-0.761
710	-0.768
710	-0.771
711	-0.77
711	-0.771
712	-0.76
712	-0.759
713	-0.765
713	-0.765
713	-0.745
714	-0.748
714	-0.751
715	-0.743
715	-0.75
716	-0.766
716	-0.776
716	-0.779
717	-0.782
717	-0.773
718	-0.767
718	-0.768
719	-0.763
719	-0.756
720	-0.755
720	-0.751
720	-0.746
721	-0.737
721	-0.74
722	-0.738
722	-0.736
723	-0.754
723	-0.768
723	-0.777
724	-0.776
724	-0.781
725	-0.774
725	-0.78
726	-0.785
726	-0.778
727	-0.781
727	-0.789
727	-0.778
728	-0.765
728	-0.762
729	-0.765
729	-0.766
730	-0.772
730	-0.762
730	-0.766
731	-0.768
731	-0.769
732	-0.771
732	-0.767
733	-0.782
733	-0.79
734	-0.798
734	-0.789
734	-0.771
735	-0.762
735	-0.759
736	-0.757
736	-0.752
737	-0.751
737	-0.741
737	-0.733
738	-0.719
738	-0.708
739	-0.712
739	-0.714
740	-0.729
740	-0.728
741	-0.74
741	-0.749
741	-0.759
742	-0.766
742	-0.782
743	-0.789
743	-0.792
744	-0.795
744	-0.801
744	-0.795
745	-0.805
745	-0.793
746	-0.789
746	-0.78
747	-0.784
747	-0.774
748	-0.776
748	-0.783
748	-0.784
749	-0.777
749	-0.783
750	-0.774
750	-0.776
751	-0.777
751	-0.775
751	-0.786
752	-0.788
752	-0.789
753	-0.788
753	-0.781
754	-0.8
754	-0.798
754	-0.806
755	-0.806
755	-0.797
756	-0.8
756	-0.785
757	-0.78
757	-0.769
758	-0.77
758	-0.77
758	-0.767
759	-0.773
759	-0.77
760	-0.77
760	-0.772
761	-0.764
761	-0.766
761	-0.766
762	-0.773
762	-0.774
763	-0.774
763	-0.775
764	-0.774
764	-0.771
764	-0.775
765	-0.774
765	-0.782
766	-0.786
766	-0.788
767	-0.803
767	-0.798
768	-0.796
768	-0.79
768	-0.786
769	-0.789
769	-0.797
770	-0.807
770	-0.81
771	-0.806
771	-0.805
771	-0.811
772	-0.814
772	-0.835
773	-0.837
773	-0.836
774	-0.834
774	-0.818
775	-0.806
775	-0.806
775	-0.81
776	-0.821
776	-0.816
777	-0.815
777	-0.797
778	-0.805
778	-0.813
778	-0.813
779	-0.82
779	-0.834
780	-0.83
780	-0.838
781	-0.827
781	-0.817
781	-0.832
782	-0.854
782	-0.855
783	-0.855
783	-0.862
784	-0.866
784	-0.86
784	-0.881
785	-0.875
785	-0.888
786	-0.894
786	-0.888
787	-0.878
787	-0.887
788	-0.88
788	-0.874
788	-0.875
789	-0.875
789	-0.865
790	-0.865
790	-0.849
791	-0.854
791	-0.85
791	-0.844
792	-0.838
792	-0.843
793	-0.845
793	-0.832
794	-0.826
794	-0.82
794	-0.827
795	-0.848
795	-0.835
796	-0.839
796	-0.834
797	-0.828
797	-0.817
797	-0.812
798	-0.833
798	-0.838
799	-0.835
799	-0.819
800	-0.815
800	-0.825
801	-0.822
801	-0.829
801	-0.827
802	-0.826
802	-0.825
803	-0.821
803	-0.814
804	-0.819
804	-0.828
804	-0.811
805	-0.788
805	-0.78
806	-0.779
806	-0.773
807	-0.776
807	-0.775
807	-0.757
808	-0.752
808	-0.747
809	-0.742
809	-0.744
810	-0.749
810	-0.746
810	-0.743
811	-0.747
811	-0.737
812	-0.731
812	-0.734
813	-0.739
813	-0.74
813	-0.736
814	-0.737
814	-0.741
815	-0.733
815	-0.728
816	-0.725
816	-0.744
817	-0.754
817	-0.759
817	-0.768
818	-0.762
818	-0.757
819	-0.768
819	-0.766
820	-0.778
820	-0.778
820	-0.776
821	-0.77
821	-0.768
822	-0.766
822	-0.754
823	-0.761
823	-0.76
823	-0.753
824	-0.749
824	-0.761
825	-0.76
825	-0.758
826	-0.752
826	-0.747
826	-0.745
827	-0.746
827	-0.739
828	-0.742
828	-0.735
829	-0.73
829	-0.715
829	-0.712
830	-0.711
830	-0.699
831	-0.692
831	-0.682
832	-0.673
832	-0.668
832	-0.658
833	-0.659
833	-0.666
834	-0.66
834	-0.657
835	-0.649
835	-0.649
835	-0.644
836	-0.641
836	-0.637
837	-0.627
837	-0.62
838	-0.608
838	-0.591
839	-0.585
839	-0.573
839	-0.564
840	-0.562
840	-0.553
841	-0.544
841	-0.538
842	-0.529
842	-0.515
842	-0.513
843	-0.509
843	-0.506
844	-0.502
844	-0.493
845	-0.481
845	-0.472
845	-0.461
846	-0.451
846	-0.442
847	-0.432
847	-0.42
848	-0.407
848	-0.39
848	-0.378
849	-0.364
849	-0.355
850	-0.345
850	-0.337
851	-0.324
851	-0.308
851	-0.3
852	-0.286
852	-0.275
853	-0.267
853	-0.258
854	-0.249
854	-0.238
854	-0.225
855	-0.215
855	-0.209
856	-0.203
856	-0.196
857	-0.189
857	-0.181
857	-0.17
858	-0.159
858	-0.153
859	-0.143
859	-0.133
860	-0.124
860	-0.112
860	-0.103
861	-0.094
861	-0.085
862	-0.078
862	-0.071
863	-0.065
863	-0.058
863	-0.054
864	-0.049
864	-0.044
865	-0.039
865	-0.034
866	-0.03
866	-0.026
866	-0.022
867	-0.017
867	-0.013
868	-0.01
868	-0.006
869	-0.002
869	0.001
869	0.003
870	0.005
870	0.007
871	0.008
871	0.009
872	0.009
872	0.01
872	0.01
873	0.011
873	0.01
874	0.01
874	0.01
875	0.01
875	0.009
875	0.009
876	0.009
876	0.009
877	0.008
877	0.008
878	0.008
878	0.007
878	0.007
879	0.006
879	0.006
880	0.006
880	0.005
881	0.004
881	0.003
881	0.003
882	0.002
882	0.001
883	0
883	0
884	0
884	0
884	0
885	0.001
885	0.001
886	0.001
886	0.001
887	0.001
887	0
887	-0
888	-0.001
888	-0.002
889	-0.002
889	-0.003
890	-0.004
890	-0.004
890	-0.005
891	-0.004
891	-0.005
892	-0.004
892	-0.004
893	-0.003
893	-0.003
893	-0.003
894	-0.003
894	-0.003
895	-0.003
895	-0.003
895	-0.002
896	-0.002
896	-0.002
897	-0.002
897	-0.001
898	-0.001
898	-0.001
898	-0
899	0
899	0.001
900	0.001
900	0.001
901	0.001
901	0.001
901	0.001
902	0.001
902	0.002
903	0.001
903	0.001
904	0
904	-0
904	-0
905	-0.001
905	-0
906	0
906	0.001
907	0.001
907	0.002
907	0.002
908	0.003
908	0.004
909	0.006
909	0.007
910	0.008
910	0.009
910	0.009
911	0.01
911	0.012
912	0.013
912	0.014
913	0.016
913	0.016
913	0.017
914	0.018
914	0.018
915	0.018
915	0.018
916	0.017
916	0.016
916	0.016
917	0.014
917	0.014
918	0.013
918	0.012
918	0.011
919	0.01
919	0.01
920	0.009
920	0.009
921	0.009
921	0.009
921	0.009
922	0.008
922	0.008
923	0.008
923	0.008
924	0.008
924	0.008
924	0.008
925	0.007
925	0.007
926	0.007
926	0.006
927	0.006
927	0.006
927	0.006
928	0.006
928	0.007
929	0.007
929	0.008
930	0.008
930	0.009
930	0.009
931	0.009
931	0.01
932	0.011
932	0.011
933	0.011
933	0.011
933	0.011
934	0.01
934	0.009
935	0.009
935	0.008
935	0.006
936	0.005
936	0.004
937	0.003
937	0.002
938	0.001
938	-0
938	-0.001
939	-0.001
939	-0.002
940	-0.002
940	-0.002
941	-0.002
941	-0.003
941	-0.003
942	-0.003
942	-0.004
943	-0.003
943	-0.003
944	-0.004
944	-0.004
944	-0.004
945	-0.004
945	-0.003
946	-0.003
946	-0.003
946	-0.003
947	-0.003
947	-0.003
948	-0.003
948	-0.003
949	-0.003
949	-0.003
949	-0.002
950	-0.002
950	-0.002
951	-0.002
951	-0.002
952	-0.002
952	-0.001
952	-0.001
953	-0
953	0.001
954	0.001
954	0.001
955	0.001
955	0.001
955	0.001
956	0.001
956	0.001
957	0
957	-0.001
957	-0.001
958	-0.002
958	-0.002
959	-0.002
959	-0.002
960	-0.002
960	-0.002
960	-0.002
961	-0.002
961	-0.001
962	-0.001
962	-0
963	-0
963	0
963	0
964	0
964	0
965	0
965	0.001
966	0.001
966	0.001
966	0.001
967	0.001
967	0.001
968	0
968	0
968	0
969	-0
969	-0.001
970	-0.002
970	-0.003
971	-0.003
971	-0.004
971	-0.004
972	-0.004
972	-0.004
973	-0.004
973	-0.004
974	-0.004
974	-0.003
974	-0.002
975	-0.002
975	-0.001
976	-0
976	0
976	0.001
977	0.001
977	0.001
978	0.001
978	0
979	-0
979	-0.001
979	-0.002
980	-0.002
980	-0.003
981	-0.004
981	-0.005
982	-0.005
982	-0.005
982	-0.006
983	-0.006
983	-0.006
984	-0.007
984	-0.007
984	-0.007
985	-0.007
985	-0.007
986	-0.008
986	-0.008
987	-0.009
987	-0.01
987	-0.01
988	-0.01
988	-0.01
989	-0.011
989	-0.011
990	-0.011
990	-0.012
990	-0.012
991	-0.012
991	-0.012
992	-0.011
992	-0.011
992	-0.011
993	-0.011
993	-0.012
994	-0.012
994	-0.012
995	-0.012
995	-0.012
995	-0.013
996	-0.013
996	-0.014
997	-0.014
997	-0.015
997	-0.015
998	-0.015
998	-0.014
999	-0.014
999	-0.015
1000	-0.014
1000	-0.015
1000	-0.015
1001	-0.015
1001	-0.014
1002	-0.014
1002	-0.014
1003	-0.015
1003	-0.015
1003	-0.015
1004	-0.016
1004	-0.016
1005	-0.017
1005	-0.018
1005	-0.019
1006	-0.02
1006	-0.02
1007	-0.021
1007	-0.021
1008	-0.022
1008	-0.022
1008	-0.022
1009	-0.022
1009	-0.021
1010	-0.02
1010	-0.02
1010	-0.02
1011	-0.019
1011	-0.019
1012	-0.019
1012	-0.018
1013	-0.017
1013	-0.017
1013	-0.017
1014	-0.017
1014	-0.017
1015	-0.017
1015	-0.017
1016	-0.017
1016	-0.017
1016	-0.017
1017	-0.017
1017	-0.017
1018	-0.016
1018	-0.016
1018	-0.016
1019	-0.016
1019	-0.016
1020	-0.016
1020	-0.017
1021	-0.017
1021	-0.018
1021	-0.018
1022	-0.019
1022	-0.019
1023	-0.019
1023	-0.02
1023	-0.02
1024	-0.02
1024	-0.02
1025	-0.02
1025	-0.02
1026	-0.021
1026	-0.02
1026	-0.021
1027	-0.021
1027	-0.021
1028	-0.021
1028	-0.02
1028	-0.02
1029	-0.021
1029	-0.02
1030	-0.021
1030	-0.021
1031	-0.021
1031	-0.02
1031	-0.02
1032	-0.02
1032	-0.02
1033	-0.02
1033	-0.02
1033	-0.02
1034	-0.02
1034	-0.021
1035	-0.021
1035	-0.021
1036	-0.021
1036	-0.022
1036	-0.022
1037	-0.022
1037	-0.021
1038	-0.021
1038	-0.021
1039	-0.02
1039	-0.019
1039	-0.019
1040	-0.018
1040	-0.017
1041	-0.017
1041	-0.017
1041	-0.017
1042	-0.018
1042	-0.018
1043	-0.018
1043	-0.019
1044	-0.02
1044	-0.021
1044	-0.021
1045	-0.023
1045	-0.023
1046	-0.024
1046	-0.025
1046	-0.026
1047	-0.026
1047	-0.026
1048	-0.026
1048	-0.027
1049	-0.027
1049	-0.028
1049	-0.028
1050	-0.028
1050	-0.029
1051	-0.03
1051	-0.031
1051	-0.031
1052	-0.032
1052	-0.033
1053	-0.034
1053	-0.034
1053	-0.034
1054	-0.034
1054	-0.034
1055	-0.034
1055	-0.033
1056	-0.033
1056	-0.033
1056	-0.034
1057	-0.034
1057	-0.034
1058	-0.035
1058	-0.035
1058	-0.035
1059	-0.035
1059	-0.035
1060	-0.036
1060	-0.035
1061	-0.035
1061	-0.035
1061	-0.034
1062	-0.034
1062	-0.034
1063	-0.034
1063	-0.035
1063	-0.035
1064	-0.035
1064	-0.035
1065	-0.035
1065	-0.036
1066	-0.036
1066	-0.036
1066	-0.037
1067	-0.037
1067	-0.038
1068	-0.039
1068	-0.039
1068	-0.039
1069	-0.04
1069	-0.041
1070	-0.041
1070	-0.041
1071	-0.042
1071	-0.042
1071	-0.042
1072	-0.041
1072	-0.041
1073	-0.04
1073	-0.04
1073	-0.039
1074	-0.039
1074	-0.038
1075	-0.039
1075	-0.039
1076	-0.04
1076	-0.04
1076	-0.041
1077	-0.042
1077	-0.043
1078	-0.044
1078	-0.045
1078	-0.045
1079	-0.046
1079	-0.047
1080	-0.048
1080	-0.048
1080	-0.049
1081	-0.05
1081	-0.05
1082	-0.05
1082	-0.051
1083	-0.051
1083	-0.052
1083	-0.053
1084	-0.053
1084	-0.054
1085	-0.054
1085	-0.054
1085	-0.055
1086	-0.055
1086	-0.056
1087	-0.057
1087	-0.057
1088	-0.058
1088	-0.058
1088	-0.059
1089	-0.061
1089	-0.061
1090	-0.062
1090	-0.063
1090	-0.065
1091	-0.066
1091	-0.066
1092	-0.067
1092	-0.067
1092	-0.069
1093	-0.069
1093	-0.07
1094	-0.07
1094	-0.071
1095	-0.073
1095	-0.074
1095	-0.074
1096	-0.075
1096	-0.076
1097	-0.077
1097	-0.079
1097	-0.081
1098	-0.083
1098	-0.084
1099	-0.085
1099	-0.086
1100	-0.088
1100	-0.09
1100	-0.093
1101	-0.096
1101	-0.098
1102	-0.1
1102	-0.101
1102	-0.103
1103	-0.106
1103	-0.109
1104	-0.112
1104	-0.114
1104	-0.116
1105	-0.119
1105	-0.121
1106	-0.127
1106	-0.128
1107	-0.133
1107	-0.138
1107	-0.142
1108	-0.143
1108	-0.144
1109	-0.148
1109	-0.152
1109	-0.156
1110	-0.158
1110	-0.161
1111	-0.172
1111	-0.171
