Data from 3.4A_17C_Absorbance__546__01503.txt Node

Date: Tue Jun 20 15:57:43 CEST 2023
User: Marek
Spectrometer: MAYP115816
Trigger mode: 0
Integration Time (sec): 2.200000E-1
Scans to average: 10
Electric dark correction enabled: true
Nonlinearity correction enabled: true
Boxcar width: 5
XAxis mode: Wavelengths
Number of Pixels in Spectrum: 2068
>>>>>Begin Spectral Data<<<<<
199	-0.771
199	-0.755
200	-0.719
200	-0.663
201	-0.636
201	-0.627
202	-0.609
202	-0.599
203	-0.598
203	-0.591
204	-0.57
204	-0.557
205	-0.534
205	-0.524
205	-0.534
206	-0.533
206	-0.529
207	-0.52
207	-0.529
208	-0.529
208	-0.534
209	-0.534
209	-0.539
210	-0.553
210	-0.56
211	-0.553
211	-0.558
212	-0.567
212	-0.576
213	-0.571
213	-0.565
213	-0.563
214	-0.573
214	-0.576
215	-0.572
215	-0.576
216	-0.586
216	-0.592
217	-0.59
217	-0.59
218	-0.598
218	-0.602
219	-0.608
219	-0.607
220	-0.611
220	-0.616
221	-0.616
221	-0.617
221	-0.609
222	-0.608
222	-0.606
223	-0.603
223	-0.605
224	-0.607
224	-0.604
225	-0.601
225	-0.603
226	-0.605
226	-0.604
227	-0.61
227	-0.621
228	-0.624
228	-0.633
229	-0.637
229	-0.635
229	-0.637
230	-0.632
230	-0.63
231	-0.623
231	-0.617
232	-0.619
232	-0.612
233	-0.613
233	-0.602
234	-0.602
234	-0.596
235	-0.599
235	-0.612
236	-0.618
236	-0.622
236	-0.624
237	-0.623
237	-0.625
238	-0.624
238	-0.626
239	-0.627
239	-0.635
240	-0.629
240	-0.623
241	-0.617
241	-0.619
242	-0.62
242	-0.629
243	-0.628
243	-0.632
243	-0.637
244	-0.636
244	-0.637
245	-0.641
245	-0.645
246	-0.657
246	-0.662
247	-0.67
247	-0.655
248	-0.654
248	-0.656
249	-0.661
249	-0.663
250	-0.663
250	-0.67
250	-0.667
251	-0.668
251	-0.663
252	-0.664
252	-0.676
253	-0.672
253	-0.684
254	-0.69
254	-0.69
255	-0.698
255	-0.697
256	-0.7
256	-0.712
257	-0.721
257	-0.717
258	-0.718
258	-0.728
258	-0.725
259	-0.717
259	-0.734
260	-0.736
260	-0.726
261	-0.737
261	-0.724
262	-0.729
262	-0.73
263	-0.72
263	-0.724
264	-0.734
264	-0.734
265	-0.726
265	-0.727
265	-0.737
266	-0.728
266	-0.728
267	-0.726
267	-0.741
268	-0.75
268	-0.743
269	-0.734
269	-0.749
270	-0.753
270	-0.752
271	-0.767
271	-0.778
272	-0.778
272	-0.783
272	-0.776
273	-0.785
273	-0.8
274	-0.793
274	-0.787
275	-0.784
275	-0.772
276	-0.774
276	-0.779
277	-0.783
277	-0.78
278	-0.785
278	-0.784
278	-0.773
279	-0.781
279	-0.796
280	-0.797
280	-0.808
281	-0.802
281	-0.793
282	-0.799
282	-0.792
283	-0.785
283	-0.801
284	-0.815
284	-0.825
285	-0.805
285	-0.811
285	-0.802
286	-0.808
286	-0.826
287	-0.822
287	-0.821
288	-0.82
288	-0.801
289	-0.799
289	-0.807
290	-0.816
290	-0.804
291	-0.808
291	-0.805
292	-0.786
292	-0.784
292	-0.788
293	-0.775
293	-0.772
294	-0.773
294	-0.759
295	-0.741
295	-0.754
296	-0.765
296	-0.759
297	-0.746
297	-0.75
298	-0.746
298	-0.764
298	-0.767
299	-0.747
299	-0.74
300	-0.735
300	-0.717
301	-0.699
301	-0.702
302	-0.713
302	-0.699
303	-0.694
303	-0.681
304	-0.664
304	-0.669
305	-0.661
305	-0.67
305	-0.685
306	-0.668
306	-0.669
307	-0.66
307	-0.67
308	-0.673
308	-0.668
309	-0.67
309	-0.665
310	-0.662
310	-0.659
311	-0.644
311	-0.662
311	-0.649
312	-0.647
312	-0.636
313	-0.627
313	-0.629
314	-0.633
314	-0.631
315	-0.629
315	-0.622
316	-0.617
316	-0.608
317	-0.6
317	-0.596
318	-0.587
318	-0.585
318	-0.575
319	-0.568
319	-0.56
320	-0.558
320	-0.553
321	-0.548
321	-0.547
322	-0.543
322	-0.537
323	-0.54
323	-0.53
324	-0.528
324	-0.514
324	-0.503
325	-0.488
325	-0.473
326	-0.464
326	-0.439
327	-0.424
327	-0.403
328	-0.37
328	-0.347
329	-0.32
329	-0.293
330	-0.266
330	-0.231
330	-0.197
331	-0.163
331	-0.13
332	-0.096
332	-0.063
333	-0.035
333	-0.004
334	0.027
334	0.052
335	0.077
335	0.097
336	0.119
336	0.139
336	0.153
337	0.17
337	0.186
338	0.199
338	0.209
339	0.221
339	0.231
340	0.24
340	0.247
341	0.254
341	0.26
342	0.266
342	0.271
342	0.275
343	0.279
343	0.283
344	0.286
344	0.289
345	0.291
345	0.294
346	0.296
346	0.297
347	0.299
347	0.301
348	0.302
348	0.303
348	0.304
349	0.304
349	0.305
350	0.306
350	0.306
351	0.307
351	0.307
352	0.307
352	0.307
353	0.308
353	0.308
354	0.308
354	0.308
354	0.308
355	0.308
355	0.308
356	0.308
356	0.308
357	0.309
357	0.309
358	0.309
358	0.309
359	0.309
359	0.309
360	0.309
360	0.309
360	0.309
361	0.309
361	0.309
362	0.308
362	0.308
363	0.308
363	0.309
364	0.308
364	0.308
365	0.308
365	0.308
366	0.308
366	0.308
366	0.308
367	0.308
367	0.307
368	0.307
368	0.307
369	0.307
369	0.307
370	0.306
370	0.306
371	0.306
371	0.306
372	0.305
372	0.305
372	0.305
373	0.305
373	0.305
374	0.305
374	0.305
375	0.304
375	0.304
376	0.304
376	0.304
377	0.303
377	0.303
378	0.303
378	0.302
378	0.302
379	0.302
379	0.302
380	0.302
380	0.302
381	0.302
381	0.301
382	0.301
382	0.3
383	0.301
383	0.3
383	0.3
384	0.3
384	0.299
385	0.299
385	0.299
386	0.298
386	0.298
387	0.298
387	0.298
388	0.297
388	0.297
389	0.297
389	0.297
389	0.297
390	0.297
390	0.296
391	0.296
391	0.296
392	0.295
392	0.295
393	0.295
393	0.295
394	0.294
394	0.294
394	0.294
395	0.293
395	0.293
396	0.293
396	0.293
397	0.293
397	0.292
398	0.292
398	0.292
399	0.292
399	0.292
400	0.291
400	0.291
400	0.291
401	0.291
401	0.29
402	0.29
402	0.29
403	0.29
403	0.29
404	0.29
404	0.289
405	0.289
405	0.288
405	0.288
406	0.288
406	0.288
407	0.288
407	0.287
408	0.287
408	0.287
409	0.287
409	0.287
410	0.286
410	0.287
411	0.286
411	0.286
411	0.286
412	0.286
412	0.285
413	0.285
413	0.285
414	0.284
414	0.284
415	0.284
415	0.284
416	0.283
416	0.283
416	0.283
417	0.283
417	0.283
418	0.283
418	0.283
419	0.283
419	0.283
420	0.283
420	0.283
421	0.283
421	0.283
421	0.283
422	0.283
422	0.283
423	0.282
423	0.282
424	0.282
424	0.282
425	0.282
425	0.281
426	0.282
426	0.282
427	0.281
427	0.281
427	0.281
428	0.281
428	0.281
429	0.28
429	0.28
430	0.28
430	0.279
431	0.279
431	0.279
432	0.278
432	0.278
432	0.278
433	0.278
433	0.278
434	0.278
434	0.278
435	0.278
435	0.278
436	0.278
436	0.278
437	0.278
437	0.278
437	0.278
438	0.278
438	0.278
439	0.277
439	0.277
440	0.277
440	0.277
441	0.277
441	0.277
442	0.277
442	0.277
442	0.277
443	0.277
443	0.277
444	0.277
444	0.278
445	0.277
445	0.278
446	0.277
446	0.277
447	0.277
447	0.277
447	0.277
448	0.277
448	0.277
449	0.277
449	0.277
450	0.277
450	0.277
451	0.277
451	0.277
452	0.277
452	0.277
452	0.277
453	0.277
453	0.277
454	0.277
454	0.277
455	0.277
455	0.278
456	0.278
456	0.277
457	0.277
457	0.277
458	0.277
458	0.277
458	0.277
459	0.277
459	0.277
460	0.277
460	0.277
461	0.277
461	0.278
462	0.278
462	0.279
463	0.279
463	0.28
463	0.28
464	0.281
464	0.281
465	0.281
465	0.282
466	0.282
466	0.283
467	0.283
467	0.283
467	0.283
468	0.283
468	0.283
469	0.283
469	0.284
470	0.284
470	0.284
471	0.284
471	0.284
472	0.284
472	0.285
472	0.286
473	0.286
473	0.287
474	0.287
474	0.288
475	0.288
475	0.289
476	0.29
476	0.29
477	0.291
477	0.292
477	0.293
478	0.293
478	0.294
479	0.295
479	0.296
480	0.296
480	0.297
481	0.298
481	0.299
482	0.3
482	0.3
482	0.301
483	0.303
483	0.304
484	0.305
484	0.305
485	0.306
485	0.307
486	0.308
486	0.309
487	0.31
487	0.311
487	0.312
488	0.313
488	0.314
489	0.315
489	0.317
490	0.318
490	0.32
491	0.321
491	0.323
492	0.324
492	0.325
492	0.327
493	0.328
493	0.33
494	0.332
494	0.334
495	0.335
495	0.337
496	0.338
496	0.34
496	0.342
497	0.344
497	0.346
498	0.348
498	0.349
499	0.351
499	0.353
500	0.356
500	0.358
501	0.36
501	0.362
501	0.364
502	0.366
502	0.368
503	0.371
503	0.373
504	0.375
504	0.377
505	0.379
505	0.381
506	0.384
506	0.386
506	0.389
507	0.391
507	0.394
508	0.396
508	0.399
509	0.401
509	0.404
510	0.406
510	0.408
511	0.41
511	0.413
511	0.415
512	0.417
512	0.419
513	0.42
513	0.422
514	0.424
514	0.426
515	0.428
515	0.43
515	0.432
516	0.433
516	0.436
517	0.438
517	0.44
518	0.442
518	0.443
519	0.445
519	0.446
520	0.448
520	0.45
520	0.451
521	0.452
521	0.453
522	0.454
522	0.455
523	0.456
523	0.457
524	0.457
524	0.458
524	0.459
525	0.46
525	0.46
526	0.461
526	0.462
527	0.462
527	0.462
528	0.462
528	0.462
529	0.462
529	0.462
529	0.461
530	0.461
530	0.461
531	0.46
531	0.46
532	0.459
532	0.459
533	0.459
533	0.459
533	0.458
534	0.457
534	0.457
535	0.456
535	0.455
536	0.454
536	0.453
537	0.452
537	0.451
538	0.45
538	0.449
538	0.448
539	0.447
539	0.445
540	0.444
540	0.442
541	0.44
541	0.438
542	0.436
542	0.434
542	0.432
543	0.43
543	0.428
544	0.426
544	0.424
545	0.422
545	0.42
546	0.418
546	0.416
547	0.414
547	0.411
547	0.409
548	0.407
548	0.405
549	0.403
549	0.401
550	0.398
550	0.396
551	0.393
551	0.39
551	0.388
552	0.385
552	0.383
553	0.381
553	0.379
554	0.376
554	0.373
555	0.371
555	0.369
556	0.367
556	0.365
556	0.363
557	0.361
557	0.358
558	0.356
558	0.354
559	0.352
559	0.35
560	0.348
560	0.346
560	0.344
561	0.342
561	0.341
562	0.339
562	0.337
563	0.335
563	0.333
564	0.331
564	0.329
564	0.328
565	0.326
565	0.325
566	0.323
566	0.321
567	0.319
567	0.318
568	0.316
568	0.314
568	0.312
569	0.31
569	0.308
570	0.305
570	0.302
571	0.301
571	0.299
572	0.297
572	0.296
573	0.294
573	0.292
573	0.29
574	0.289
574	0.288
575	0.287
575	0.288
576	0.286
576	0.284
577	0.282
577	0.281
577	0.28
578	0.279
578	0.278
579	0.278
579	0.278
580	0.276
580	0.273
581	0.27
581	0.269
581	0.269
582	0.269
582	0.268
583	0.268
583	0.266
584	0.263
584	0.26
585	0.26
585	0.26
585	0.259
586	0.258
586	0.256
587	0.254
587	0.253
588	0.251
588	0.25
589	0.25
589	0.249
590	0.248
590	0.247
590	0.248
591	0.248
591	0.247
592	0.245
592	0.244
593	0.244
593	0.243
594	0.242
594	0.24
594	0.24
595	0.239
595	0.237
596	0.236
596	0.236
597	0.237
597	0.237
598	0.236
598	0.236
598	0.236
599	0.236
599	0.235
600	0.234
600	0.234
601	0.234
601	0.233
602	0.232
602	0.231
602	0.23
603	0.23
603	0.23
604	0.229
604	0.229
605	0.229
605	0.229
606	0.227
606	0.226
606	0.225
607	0.224
607	0.224
608	0.222
608	0.221
609	0.22
609	0.22
610	0.219
610	0.218
610	0.218
611	0.218
611	0.218
612	0.218
612	0.218
613	0.218
613	0.218
614	0.217
614	0.216
614	0.215
615	0.214
615	0.213
616	0.213
616	0.212
617	0.211
617	0.21
618	0.21
618	0.209
618	0.208
619	0.208
619	0.208
620	0.208
620	0.207
621	0.206
621	0.205
622	0.204
622	0.203
622	0.201
623	0.2
623	0.2
624	0.2
624	0.198
625	0.197
625	0.196
626	0.195
626	0.194
626	0.194
627	0.193
627	0.192
628	0.191
628	0.191
629	0.19
629	0.189
630	0.188
630	0.186
630	0.185
631	0.184
631	0.182
632	0.18
632	0.179
633	0.177
633	0.175
634	0.173
634	0.172
634	0.17
635	0.168
635	0.166
636	0.163
636	0.161
637	0.158
637	0.155
638	0.153
638	0.15
638	0.147
639	0.143
639	0.14
640	0.136
640	0.133
641	0.129
641	0.126
642	0.123
642	0.119
642	0.115
643	0.111
643	0.107
644	0.103
644	0.098
645	0.093
645	0.089
646	0.084
646	0.078
646	0.072
647	0.066
647	0.06
648	0.054
648	0.047
649	0.04
649	0.034
650	0.027
650	0.021
650	0.013
651	0.004
651	-0.007
652	-0.02
652	-0.034
653	-0.045
653	-0.056
653	-0.052
654	-0.034
654	-0.03
655	-0.035
655	-0.04
656	-0.046
656	-0.052
657	-0.057
657	-0.062
657	-0.07
658	-0.077
658	-0.107
659	-0.191
659	-0.278
660	-0.318
660	-0.346
661	-0.373
661	-0.403
661	-0.435
662	-0.464
662	-0.495
663	-0.531
663	-0.571
664	-0.609
664	-0.651
665	-0.698
665	-0.745
665	-0.792
666	-0.844
666	-0.9
667	-0.956
667	-1.021
668	-1.081
668	-1.151
669	-1.22
669	-1.294
669	-1.373
670	-1.457
670	-1.57
671	-1.744
671	-2.108
672	-2.336
672	-2.492
672	-2.608
673	-2.702
673	-2.78
674	-2.84
674	-2.856
675	-2.872
675	-2.876
676	-2.872
676	-2.817
676	-2.748
677	-2.664
677	-2.563
678	-2.412
678	-2.164
679	-1.784
679	-1.612
680	-1.507
680	-1.43
680	-1.362
681	-1.312
681	-1.258
682	-1.214
682	-1.169
683	-1.125
683	-1.1
684	-1.07
684	-1.051
684	-1.027
685	-1.006
685	-0.994
686	-0.971
686	-0.956
687	-0.946
687	-0.935
687	-0.933
688	-0.916
688	-0.908
689	-0.909
689	-0.907
690	-0.892
690	-0.881
691	-0.877
691	-0.88
691	-0.879
692	-0.878
692	-0.876
693	-0.883
693	-0.892
694	-0.872
694	-0.869
695	-0.872
695	-0.865
695	-0.87
696	-0.877
696	-0.87
697	-0.863
697	-0.856
698	-0.851
698	-0.842
698	-0.855
699	-0.852
699	-0.852
700	-0.873
700	-0.867
701	-0.853
701	-0.848
702	-0.849
702	-0.849
702	-0.85
703	-0.841
703	-0.832
704	-0.839
704	-0.842
705	-0.829
705	-0.828
705	-0.821
706	-0.813
706	-0.81
707	-0.822
707	-0.823
708	-0.822
708	-0.819
709	-0.82
709	-0.818
709	-0.814
710	-0.823
710	-0.827
711	-0.828
711	-0.828
712	-0.816
712	-0.814
713	-0.818
713	-0.819
713	-0.799
714	-0.8
714	-0.804
715	-0.795
715	-0.802
716	-0.817
716	-0.825
716	-0.827
717	-0.833
717	-0.825
718	-0.817
718	-0.817
719	-0.813
719	-0.804
720	-0.8
720	-0.796
720	-0.792
721	-0.783
721	-0.787
722	-0.783
722	-0.779
723	-0.798
723	-0.813
723	-0.822
724	-0.82
724	-0.826
725	-0.819
725	-0.822
726	-0.823
726	-0.812
727	-0.816
727	-0.823
727	-0.812
728	-0.798
728	-0.794
729	-0.797
729	-0.799
730	-0.802
730	-0.794
730	-0.8
731	-0.804
731	-0.804
732	-0.805
732	-0.803
733	-0.817
733	-0.823
734	-0.833
734	-0.825
734	-0.807
735	-0.797
735	-0.793
736	-0.792
736	-0.787
737	-0.787
737	-0.776
737	-0.769
738	-0.755
738	-0.741
739	-0.744
739	-0.746
740	-0.761
740	-0.761
741	-0.773
741	-0.782
741	-0.792
742	-0.798
742	-0.812
743	-0.819
743	-0.822
744	-0.826
744	-0.834
744	-0.828
745	-0.837
745	-0.824
746	-0.819
746	-0.809
747	-0.811
747	-0.802
748	-0.805
748	-0.809
748	-0.809
749	-0.802
749	-0.807
750	-0.798
750	-0.8
751	-0.799
751	-0.797
751	-0.809
752	-0.812
752	-0.815
753	-0.815
753	-0.807
754	-0.826
754	-0.825
754	-0.833
755	-0.834
755	-0.826
756	-0.83
756	-0.815
757	-0.806
757	-0.795
758	-0.798
758	-0.798
758	-0.795
759	-0.8
759	-0.799
760	-0.796
760	-0.799
761	-0.792
761	-0.797
761	-0.797
762	-0.804
762	-0.804
763	-0.805
763	-0.808
764	-0.807
764	-0.804
764	-0.811
765	-0.809
765	-0.816
766	-0.818
766	-0.82
767	-0.835
767	-0.83
768	-0.828
768	-0.82
768	-0.814
769	-0.816
769	-0.824
770	-0.833
770	-0.837
771	-0.833
771	-0.833
771	-0.838
772	-0.845
772	-0.866
773	-0.867
773	-0.866
774	-0.864
774	-0.846
775	-0.835
775	-0.835
775	-0.839
776	-0.847
776	-0.844
777	-0.842
777	-0.824
778	-0.834
778	-0.844
778	-0.844
779	-0.854
779	-0.869
780	-0.864
780	-0.875
781	-0.867
781	-0.855
781	-0.869
782	-0.89
782	-0.891
783	-0.89
783	-0.899
784	-0.901
784	-0.896
784	-0.913
785	-0.906
785	-0.917
786	-0.922
786	-0.914
787	-0.902
787	-0.909
788	-0.902
788	-0.896
788	-0.896
789	-0.894
789	-0.884
790	-0.882
790	-0.866
791	-0.873
791	-0.87
791	-0.865
792	-0.86
792	-0.864
793	-0.865
793	-0.852
794	-0.846
794	-0.841
794	-0.847
795	-0.867
795	-0.853
796	-0.858
796	-0.853
797	-0.847
797	-0.837
797	-0.83
798	-0.852
798	-0.853
799	-0.854
799	-0.84
800	-0.836
800	-0.846
801	-0.844
801	-0.847
801	-0.843
802	-0.843
802	-0.841
803	-0.836
803	-0.831
804	-0.836
804	-0.844
804	-0.826
805	-0.807
805	-0.797
806	-0.799
806	-0.794
807	-0.796
807	-0.799
807	-0.782
808	-0.778
808	-0.77
809	-0.765
809	-0.768
810	-0.77
810	-0.767
810	-0.762
811	-0.766
811	-0.758
812	-0.751
812	-0.753
813	-0.756
813	-0.758
813	-0.753
814	-0.752
814	-0.757
815	-0.747
815	-0.745
816	-0.741
816	-0.756
817	-0.768
817	-0.771
817	-0.782
818	-0.775
818	-0.773
819	-0.781
819	-0.78
820	-0.79
820	-0.789
820	-0.789
821	-0.784
821	-0.778
822	-0.778
822	-0.766
823	-0.778
823	-0.776
823	-0.771
824	-0.771
824	-0.782
825	-0.779
825	-0.775
826	-0.772
826	-0.768
826	-0.767
827	-0.767
827	-0.756
828	-0.756
828	-0.752
829	-0.745
829	-0.73
829	-0.728
830	-0.728
830	-0.713
831	-0.706
831	-0.696
832	-0.688
832	-0.684
832	-0.677
833	-0.676
833	-0.682
834	-0.677
834	-0.672
835	-0.664
835	-0.664
835	-0.66
836	-0.655
836	-0.651
837	-0.64
837	-0.632
838	-0.618
838	-0.6
839	-0.594
839	-0.582
839	-0.571
840	-0.569
840	-0.559
841	-0.547
841	-0.541
842	-0.533
842	-0.52
842	-0.518
843	-0.515
843	-0.51
844	-0.507
844	-0.495
845	-0.48
845	-0.469
845	-0.46
846	-0.447
846	-0.436
847	-0.426
847	-0.414
848	-0.4
848	-0.383
848	-0.371
849	-0.36
849	-0.349
850	-0.338
850	-0.329
851	-0.315
851	-0.3
851	-0.29
852	-0.274
852	-0.261
853	-0.252
853	-0.239
854	-0.229
854	-0.218
854	-0.206
855	-0.194
855	-0.186
856	-0.179
856	-0.171
857	-0.163
857	-0.155
857	-0.142
858	-0.131
858	-0.124
859	-0.113
859	-0.102
860	-0.092
860	-0.077
860	-0.068
861	-0.057
861	-0.048
862	-0.04
862	-0.032
863	-0.024
863	-0.014
863	-0.009
864	-0.003
864	0.003
865	0.01
865	0.016
866	0.021
866	0.026
866	0.031
867	0.036
867	0.041
868	0.045
868	0.05
869	0.055
869	0.058
869	0.06
870	0.062
870	0.064
871	0.065
871	0.065
872	0.066
872	0.066
872	0.066
873	0.067
873	0.067
874	0.066
874	0.066
875	0.067
875	0.067
875	0.067
876	0.067
876	0.067
877	0.067
877	0.067
878	0.066
878	0.066
878	0.066
879	0.065
879	0.064
880	0.063
880	0.061
881	0.059
881	0.058
881	0.057
882	0.055
882	0.054
883	0.053
883	0.053
884	0.053
884	0.053
884	0.053
885	0.054
885	0.055
886	0.055
886	0.055
887	0.055
887	0.055
887	0.055
888	0.056
888	0.055
889	0.054
889	0.054
890	0.053
890	0.053
890	0.052
891	0.053
891	0.052
892	0.053
892	0.053
893	0.053
893	0.053
893	0.053
894	0.054
894	0.054
895	0.054
895	0.053
895	0.053
896	0.054
896	0.054
897	0.054
897	0.055
898	0.055
898	0.055
898	0.055
899	0.055
899	0.055
900	0.055
900	0.055
901	0.055
901	0.054
901	0.054
902	0.054
902	0.055
903	0.054
903	0.054
904	0.054
904	0.054
904	0.054
905	0.054
905	0.054
906	0.054
906	0.054
907	0.055
907	0.055
907	0.055
908	0.056
908	0.057
909	0.057
909	0.057
910	0.058
910	0.058
910	0.059
911	0.059
911	0.06
912	0.061
912	0.062
913	0.063
913	0.064
913	0.064
914	0.065
914	0.065
915	0.065
915	0.065
916	0.065
916	0.064
916	0.064
917	0.063
917	0.063
918	0.062
918	0.062
918	0.061
919	0.061
919	0.061
920	0.061
920	0.06
921	0.061
921	0.06
921	0.061
922	0.061
922	0.061
923	0.06
923	0.06
924	0.06
924	0.06
924	0.06
925	0.06
925	0.059
926	0.059
926	0.058
927	0.057
927	0.057
927	0.057
928	0.057
928	0.057
929	0.057
929	0.057
930	0.057
930	0.057
930	0.058
931	0.058
931	0.059
932	0.059
932	0.06
933	0.06
933	0.06
933	0.059
934	0.058
934	0.057
935	0.056
935	0.055
935	0.053
936	0.051
936	0.05
937	0.048
937	0.047
938	0.046
938	0.045
938	0.045
939	0.044
939	0.044
940	0.044
940	0.043
941	0.043
941	0.042
941	0.042
942	0.042
942	0.041
943	0.041
943	0.04
944	0.04
944	0.039
944	0.039
945	0.039
945	0.039
946	0.039
946	0.039
946	0.039
947	0.039
947	0.039
948	0.039
948	0.04
949	0.04
949	0.04
949	0.041
950	0.042
950	0.042
951	0.043
951	0.044
952	0.044
952	0.045
952	0.045
953	0.045
953	0.046
954	0.046
954	0.045
955	0.045
955	0.045
955	0.045
956	0.044
956	0.043
957	0.043
957	0.042
957	0.042
958	0.041
958	0.042
959	0.041
959	0.041
960	0.042
960	0.042
960	0.042
961	0.043
961	0.044
962	0.044
962	0.045
963	0.046
963	0.046
963	0.047
964	0.048
964	0.048
965	0.048
965	0.048
966	0.049
966	0.049
966	0.049
967	0.049
967	0.048
968	0.047
968	0.047
968	0.046
969	0.046
969	0.046
970	0.046
970	0.045
971	0.045
971	0.045
971	0.046
972	0.046
972	0.047
973	0.047
973	0.047
974	0.047
974	0.047
974	0.047
975	0.048
975	0.047
976	0.047
976	0.047
976	0.047
977	0.046
977	0.046
978	0.045
978	0.044
979	0.043
979	0.042
979	0.041
980	0.041
980	0.04
981	0.039
981	0.039
982	0.039
982	0.039
982	0.039
983	0.039
983	0.039
984	0.039
984	0.039
984	0.038
985	0.038
985	0.037
986	0.036
986	0.036
987	0.034
987	0.033
987	0.033
988	0.032
988	0.031
989	0.031
989	0.03
990	0.03
990	0.03
990	0.03
991	0.03
991	0.03
992	0.031
992	0.031
992	0.031
993	0.031
993	0.031
994	0.031
994	0.031
995	0.03
995	0.03
995	0.029
996	0.029
996	0.028
997	0.027
997	0.026
997	0.026
998	0.026
998	0.026
999	0.026
999	0.026
1000	0.026
1000	0.026
1000	0.027
1001	0.027
1001	0.027
1002	0.027
1002	0.027
1003	0.026
1003	0.025
1003	0.024
1004	0.024
1004	0.022
1005	0.021
1005	0.02
1005	0.019
1006	0.017
1006	0.017
1007	0.016
1007	0.015
1008	0.015
1008	0.014
1008	0.014
1009	0.014
1009	0.014
1010	0.015
1010	0.015
1010	0.016
1011	0.016
1011	0.016
1012	0.017
1012	0.018
1013	0.019
1013	0.02
1013	0.021
1014	0.022
1014	0.022
1015	0.023
1015	0.024
1016	0.025
1016	0.025
1016	0.025
1017	0.025
1017	0.025
1018	0.025
1018	0.025
1018	0.024
1019	0.024
1019	0.023
1020	0.023
1020	0.022
1021	0.022
1021	0.021
1021	0.021
1022	0.021
1022	0.021
1023	0.021
1023	0.021
1023	0.021
1024	0.021
1024	0.021
1025	0.021
1025	0.021
1026	0.021
1026	0.021
1026	0.02
1027	0.02
1027	0.02
1028	0.02
1028	0.021
1028	0.021
1029	0.02
1029	0.02
1030	0.019
1030	0.018
1031	0.018
1031	0.019
1031	0.018
1032	0.018
1032	0.017
1033	0.016
1033	0.016
1033	0.016
1034	0.015
1034	0.015
1035	0.015
1035	0.015
1036	0.014
1036	0.014
1036	0.014
1037	0.014
1037	0.015
1038	0.015
1038	0.016
1039	0.016
1039	0.017
1039	0.018
1040	0.018
1040	0.019
1041	0.019
1041	0.019
1041	0.02
1042	0.019
1042	0.019
1043	0.019
1043	0.018
1044	0.018
1044	0.018
1044	0.017
1045	0.016
1045	0.016
1046	0.016
1046	0.015
1046	0.015
1047	0.015
1047	0.015
1048	0.015
1048	0.015
1049	0.015
1049	0.014
1049	0.014
1050	0.014
1050	0.013
1051	0.012
1051	0.011
1051	0.01
1052	0.009
1052	0.008
1053	0.007
1053	0.007
1053	0.007
1054	0.006
1054	0.006
1055	0.006
1055	0.006
1056	0.006
1056	0.006
1056	0.006
1057	0.005
1057	0.005
1058	0.005
1058	0.004
1058	0.004
1059	0.004
1059	0.003
1060	0.003
1060	0.003
1061	0.003
1061	0.003
1061	0.003
1062	0.003
1062	0.003
1063	0.003
1063	0.002
1063	0.002
1064	0.001
1064	0.001
1065	0.001
1065	-0
1066	-0.001
1066	-0.002
1066	-0.002
1067	-0.003
1067	-0.004
1068	-0.005
1068	-0.005
1068	-0.005
1069	-0.006
1069	-0.007
1070	-0.007
1070	-0.008
1071	-0.008
1071	-0.008
1071	-0.008
1072	-0.008
1072	-0.008
1073	-0.008
1073	-0.008
1073	-0.008
1074	-0.007
1074	-0.007
1075	-0.007
1075	-0.008
1076	-0.008
1076	-0.008
1076	-0.009
1077	-0.01
1077	-0.011
1078	-0.011
1078	-0.012
1078	-0.013
1079	-0.014
1079	-0.015
1080	-0.015
1080	-0.016
1080	-0.017
1081	-0.018
1081	-0.019
1082	-0.019
1082	-0.021
1083	-0.022
1083	-0.023
1083	-0.024
1084	-0.026
1084	-0.027
1085	-0.028
1085	-0.029
1085	-0.03
1086	-0.031
1086	-0.033
1087	-0.033
1087	-0.034
1088	-0.035
1088	-0.036
1088	-0.037
1089	-0.038
1089	-0.039
1090	-0.04
1090	-0.041
1090	-0.043
1091	-0.044
1091	-0.044
1092	-0.045
1092	-0.045
1092	-0.046
1093	-0.047
1093	-0.047
1094	-0.047
1094	-0.047
1095	-0.049
1095	-0.049
1095	-0.049
1096	-0.051
1096	-0.052
1097	-0.052
1097	-0.054
1097	-0.055
1098	-0.057
1098	-0.059
1099	-0.06
1099	-0.061
1100	-0.063
1100	-0.065
1100	-0.068
1101	-0.07
1101	-0.073
1102	-0.076
1102	-0.078
1102	-0.08
1103	-0.082
1103	-0.086
1104	-0.089
1104	-0.091
1104	-0.094
1105	-0.095
1105	-0.099
1106	-0.104
1106	-0.106
1107	-0.111
1107	-0.116
1107	-0.121
1108	-0.122
1108	-0.124
1109	-0.128
1109	-0.132
1109	-0.137
1110	-0.14
1110	-0.142
1111	-0.15
1111	-0.146
