Data from 3.4A_17C_Absorbance__265__01222.txt Node

Date: Tue Jun 20 15:47:25 CEST 2023
User: Marek
Spectrometer: MAYP115816
Trigger mode: 0
Integration Time (sec): 2.200000E-1
Scans to average: 10
Electric dark correction enabled: true
Nonlinearity correction enabled: true
Boxcar width: 5
XAxis mode: Wavelengths
Number of Pixels in Spectrum: 2068
>>>>>Begin Spectral Data<<<<<
199	-0.766
199	-0.747
200	-0.705
200	-0.648
201	-0.621
201	-0.608
202	-0.588
202	-0.58
203	-0.579
203	-0.573
204	-0.55
204	-0.535
205	-0.512
205	-0.507
205	-0.516
206	-0.517
206	-0.514
207	-0.507
207	-0.515
208	-0.515
208	-0.521
209	-0.523
209	-0.529
210	-0.542
210	-0.546
211	-0.54
211	-0.544
212	-0.554
212	-0.561
213	-0.558
213	-0.554
213	-0.55
214	-0.558
214	-0.562
215	-0.559
215	-0.564
216	-0.573
216	-0.578
217	-0.576
217	-0.577
218	-0.584
218	-0.585
219	-0.591
219	-0.594
220	-0.595
220	-0.602
221	-0.602
221	-0.602
221	-0.594
222	-0.593
222	-0.591
223	-0.587
223	-0.591
224	-0.593
224	-0.589
225	-0.588
225	-0.589
226	-0.589
226	-0.588
227	-0.596
227	-0.605
228	-0.609
228	-0.619
229	-0.623
229	-0.623
229	-0.622
230	-0.617
230	-0.616
231	-0.612
231	-0.608
232	-0.61
232	-0.605
233	-0.605
233	-0.594
234	-0.594
234	-0.589
235	-0.595
235	-0.605
236	-0.613
236	-0.614
236	-0.614
237	-0.612
237	-0.613
238	-0.614
238	-0.614
239	-0.615
239	-0.624
240	-0.616
240	-0.613
241	-0.606
241	-0.607
242	-0.611
242	-0.619
243	-0.618
243	-0.619
243	-0.624
244	-0.62
244	-0.621
245	-0.623
245	-0.626
246	-0.637
246	-0.642
247	-0.651
247	-0.636
248	-0.638
248	-0.64
249	-0.645
249	-0.647
250	-0.646
250	-0.654
250	-0.651
251	-0.651
251	-0.647
252	-0.648
252	-0.661
253	-0.655
253	-0.668
254	-0.673
254	-0.675
255	-0.686
255	-0.685
256	-0.686
256	-0.699
257	-0.709
257	-0.706
258	-0.704
258	-0.712
258	-0.71
259	-0.703
259	-0.72
260	-0.718
260	-0.708
261	-0.721
261	-0.706
262	-0.71
262	-0.708
263	-0.702
263	-0.705
264	-0.714
264	-0.715
265	-0.707
265	-0.711
265	-0.721
266	-0.711
266	-0.712
267	-0.712
267	-0.729
268	-0.736
268	-0.732
269	-0.724
269	-0.74
270	-0.742
270	-0.74
271	-0.754
271	-0.764
272	-0.765
272	-0.767
272	-0.76
273	-0.77
273	-0.784
274	-0.776
274	-0.771
275	-0.769
275	-0.756
276	-0.759
276	-0.764
277	-0.765
277	-0.763
278	-0.767
278	-0.767
278	-0.755
279	-0.765
279	-0.778
280	-0.78
280	-0.789
281	-0.782
281	-0.777
282	-0.782
282	-0.776
283	-0.768
283	-0.782
284	-0.795
284	-0.805
285	-0.783
285	-0.788
285	-0.781
286	-0.787
286	-0.803
287	-0.8
287	-0.8
288	-0.799
288	-0.782
289	-0.78
289	-0.787
290	-0.797
290	-0.786
291	-0.789
291	-0.787
292	-0.766
292	-0.765
292	-0.768
293	-0.755
293	-0.751
294	-0.751
294	-0.736
295	-0.718
295	-0.73
296	-0.742
296	-0.737
297	-0.726
297	-0.73
298	-0.728
298	-0.746
298	-0.748
299	-0.73
299	-0.725
300	-0.722
300	-0.704
301	-0.687
301	-0.689
302	-0.698
302	-0.681
303	-0.674
303	-0.662
304	-0.646
304	-0.65
305	-0.641
305	-0.649
305	-0.663
306	-0.647
306	-0.647
307	-0.638
307	-0.65
308	-0.653
308	-0.649
309	-0.652
309	-0.648
310	-0.644
310	-0.64
311	-0.624
311	-0.643
311	-0.63
312	-0.629
312	-0.619
313	-0.61
313	-0.611
314	-0.615
314	-0.612
315	-0.61
315	-0.606
316	-0.6
316	-0.591
317	-0.583
317	-0.581
318	-0.569
318	-0.566
318	-0.556
319	-0.545
319	-0.537
320	-0.536
320	-0.532
321	-0.529
321	-0.528
322	-0.522
322	-0.515
323	-0.518
323	-0.511
324	-0.509
324	-0.499
324	-0.487
325	-0.472
325	-0.455
326	-0.445
326	-0.419
327	-0.405
327	-0.38
328	-0.35
328	-0.327
329	-0.298
329	-0.268
330	-0.241
330	-0.205
330	-0.17
331	-0.134
331	-0.103
332	-0.068
332	-0.035
333	-0.002
333	0.032
334	0.061
334	0.087
335	0.114
335	0.136
336	0.159
336	0.181
336	0.199
337	0.217
337	0.233
338	0.247
338	0.258
339	0.272
339	0.283
340	0.291
340	0.299
341	0.307
341	0.313
342	0.32
342	0.326
342	0.331
343	0.335
343	0.34
344	0.343
344	0.346
345	0.35
345	0.353
346	0.354
346	0.357
347	0.358
347	0.359
348	0.36
348	0.362
348	0.363
349	0.363
349	0.364
350	0.365
350	0.365
351	0.366
351	0.366
352	0.366
352	0.366
353	0.367
353	0.367
354	0.367
354	0.367
354	0.367
355	0.367
355	0.367
356	0.367
356	0.367
357	0.367
357	0.367
358	0.367
358	0.367
359	0.367
359	0.367
360	0.367
360	0.367
360	0.367
361	0.367
361	0.367
362	0.367
362	0.366
363	0.366
363	0.366
364	0.366
364	0.366
365	0.366
365	0.366
366	0.365
366	0.365
366	0.365
367	0.365
367	0.365
368	0.365
368	0.364
369	0.364
369	0.364
370	0.363
370	0.363
371	0.363
371	0.363
372	0.362
372	0.362
372	0.362
373	0.362
373	0.362
374	0.362
374	0.362
375	0.361
375	0.361
376	0.361
376	0.36
377	0.36
377	0.359
378	0.359
378	0.358
378	0.358
379	0.358
379	0.357
380	0.357
380	0.357
381	0.357
381	0.356
382	0.356
382	0.356
383	0.356
383	0.355
383	0.355
384	0.354
384	0.354
385	0.353
385	0.353
386	0.353
386	0.353
387	0.352
387	0.352
388	0.351
388	0.351
389	0.351
389	0.351
389	0.35
390	0.35
390	0.35
391	0.35
391	0.349
392	0.349
392	0.349
393	0.349
393	0.349
394	0.348
394	0.348
394	0.347
395	0.347
395	0.346
396	0.346
396	0.345
397	0.345
397	0.344
398	0.344
398	0.343
399	0.343
399	0.343
400	0.342
400	0.342
400	0.342
401	0.342
401	0.341
402	0.341
402	0.341
403	0.341
403	0.341
404	0.34
404	0.34
405	0.339
405	0.339
405	0.338
406	0.338
406	0.338
407	0.338
407	0.337
408	0.337
408	0.336
409	0.336
409	0.336
410	0.336
410	0.336
411	0.336
411	0.336
411	0.335
412	0.335
412	0.334
413	0.334
413	0.334
414	0.334
414	0.333
415	0.333
415	0.333
416	0.332
416	0.332
416	0.332
417	0.332
417	0.332
418	0.332
418	0.332
419	0.332
419	0.332
420	0.331
420	0.331
421	0.331
421	0.331
421	0.331
422	0.331
422	0.331
423	0.33
423	0.33
424	0.329
424	0.329
425	0.329
425	0.329
426	0.329
426	0.329
427	0.329
427	0.328
427	0.328
428	0.328
428	0.328
429	0.328
429	0.327
430	0.327
430	0.327
431	0.326
431	0.326
432	0.325
432	0.325
432	0.325
433	0.324
433	0.325
434	0.325
434	0.325
435	0.326
435	0.326
436	0.326
436	0.326
437	0.326
437	0.326
437	0.326
438	0.326
438	0.326
439	0.326
439	0.325
440	0.325
440	0.325
441	0.325
441	0.325
442	0.325
442	0.325
442	0.325
443	0.325
443	0.325
444	0.325
444	0.325
445	0.325
445	0.325
446	0.325
446	0.325
447	0.325
447	0.325
447	0.325
448	0.325
448	0.324
449	0.325
449	0.325
450	0.325
450	0.325
451	0.325
451	0.325
452	0.325
452	0.325
452	0.325
453	0.326
453	0.326
454	0.326
454	0.326
455	0.326
455	0.326
456	0.326
456	0.327
457	0.327
457	0.327
458	0.327
458	0.327
458	0.327
459	0.327
459	0.327
460	0.327
460	0.327
461	0.327
461	0.328
462	0.328
462	0.329
463	0.329
463	0.33
463	0.331
464	0.331
464	0.331
465	0.332
465	0.332
466	0.333
466	0.333
467	0.334
467	0.334
467	0.334
468	0.334
468	0.334
469	0.335
469	0.335
470	0.336
470	0.337
471	0.337
471	0.337
472	0.338
472	0.338
472	0.339
473	0.34
473	0.341
474	0.342
474	0.343
475	0.344
475	0.344
476	0.345
476	0.346
477	0.347
477	0.348
477	0.349
478	0.35
478	0.35
479	0.352
479	0.353
480	0.354
480	0.355
481	0.356
481	0.357
482	0.358
482	0.36
482	0.361
483	0.363
483	0.365
484	0.367
484	0.367
485	0.369
485	0.37
486	0.371
486	0.373
487	0.374
487	0.376
487	0.377
488	0.378
488	0.379
489	0.381
489	0.384
490	0.386
490	0.387
491	0.39
491	0.391
492	0.394
492	0.395
492	0.397
493	0.399
493	0.402
494	0.404
494	0.407
495	0.409
495	0.411
496	0.413
496	0.416
496	0.418
497	0.421
497	0.423
498	0.426
498	0.428
499	0.431
499	0.434
500	0.438
500	0.441
501	0.444
501	0.446
501	0.449
502	0.452
502	0.455
503	0.458
503	0.46
504	0.463
504	0.465
505	0.468
505	0.471
506	0.475
506	0.478
506	0.481
507	0.484
507	0.487
508	0.491
508	0.494
509	0.497
509	0.5
510	0.504
510	0.507
511	0.509
511	0.512
511	0.515
512	0.517
512	0.52
513	0.522
513	0.525
514	0.528
514	0.531
515	0.534
515	0.536
515	0.538
516	0.541
516	0.544
517	0.547
517	0.549
518	0.551
518	0.553
519	0.554
519	0.556
520	0.558
520	0.56
520	0.562
521	0.563
521	0.565
522	0.566
522	0.568
523	0.57
523	0.571
524	0.572
524	0.573
524	0.574
525	0.575
525	0.576
526	0.577
526	0.578
527	0.578
527	0.578
528	0.577
528	0.577
529	0.577
529	0.576
529	0.576
530	0.576
530	0.575
531	0.575
531	0.574
532	0.574
532	0.573
533	0.573
533	0.572
533	0.571
534	0.57
534	0.569
535	0.567
535	0.566
536	0.565
536	0.563
537	0.561
537	0.56
538	0.558
538	0.556
538	0.554
539	0.552
539	0.55
540	0.547
540	0.544
541	0.542
541	0.539
542	0.537
542	0.534
542	0.531
543	0.528
543	0.525
544	0.522
544	0.519
545	0.516
545	0.514
546	0.51
546	0.507
547	0.503
547	0.499
547	0.496
548	0.493
548	0.49
549	0.486
549	0.483
550	0.48
550	0.476
551	0.472
551	0.468
551	0.464
552	0.461
552	0.457
553	0.454
553	0.451
554	0.447
554	0.443
555	0.44
555	0.436
556	0.433
556	0.429
556	0.426
557	0.423
557	0.42
558	0.416
558	0.412
559	0.409
559	0.406
560	0.402
560	0.399
560	0.396
561	0.394
561	0.391
562	0.388
562	0.385
563	0.382
563	0.379
564	0.376
564	0.373
564	0.371
565	0.369
565	0.366
566	0.363
566	0.361
567	0.358
567	0.355
568	0.352
568	0.349
568	0.346
569	0.343
569	0.34
570	0.336
570	0.332
571	0.329
571	0.326
572	0.323
572	0.32
573	0.317
573	0.314
573	0.312
574	0.309
574	0.308
575	0.306
575	0.305
576	0.303
576	0.3
577	0.297
577	0.295
577	0.294
578	0.292
578	0.291
579	0.29
579	0.289
580	0.286
580	0.283
581	0.28
581	0.278
581	0.277
582	0.275
582	0.274
583	0.272
583	0.269
584	0.265
584	0.262
585	0.26
585	0.259
585	0.257
586	0.255
586	0.253
587	0.25
587	0.248
588	0.246
588	0.244
589	0.243
589	0.242
590	0.24
590	0.239
590	0.238
591	0.238
591	0.236
592	0.234
592	0.232
593	0.231
593	0.229
594	0.227
594	0.226
594	0.224
595	0.223
595	0.221
596	0.219
596	0.219
597	0.22
597	0.218
598	0.217
598	0.216
598	0.215
599	0.214
599	0.213
600	0.211
600	0.21
601	0.209
601	0.208
602	0.206
602	0.205
602	0.203
603	0.202
603	0.202
604	0.201
604	0.2
605	0.2
605	0.199
606	0.198
606	0.196
606	0.195
607	0.194
607	0.193
608	0.191
608	0.189
609	0.188
609	0.187
610	0.186
610	0.184
610	0.184
611	0.183
611	0.183
612	0.182
612	0.182
613	0.182
613	0.181
614	0.179
614	0.178
614	0.177
615	0.176
615	0.175
616	0.174
616	0.173
617	0.172
617	0.171
618	0.169
618	0.168
618	0.167
619	0.167
619	0.166
620	0.166
620	0.165
621	0.163
621	0.163
622	0.161
622	0.16
622	0.159
623	0.158
623	0.158
624	0.157
624	0.156
625	0.155
625	0.154
626	0.152
626	0.151
626	0.15
627	0.149
627	0.148
628	0.147
628	0.145
629	0.144
629	0.142
630	0.14
630	0.138
630	0.137
631	0.135
631	0.133
632	0.131
632	0.13
633	0.128
633	0.126
634	0.124
634	0.122
634	0.121
635	0.119
635	0.117
636	0.115
636	0.113
637	0.11
637	0.108
638	0.106
638	0.103
638	0.101
639	0.098
639	0.095
640	0.092
640	0.088
641	0.085
641	0.082
642	0.079
642	0.076
642	0.072
643	0.068
643	0.064
644	0.06
644	0.056
645	0.052
645	0.047
646	0.042
646	0.037
646	0.031
647	0.025
647	0.019
648	0.013
648	0.007
649	0.001
649	-0.005
650	-0.01
650	-0.017
650	-0.023
651	-0.031
651	-0.04
652	-0.051
652	-0.063
653	-0.072
653	-0.08
653	-0.074
654	-0.058
654	-0.054
655	-0.058
655	-0.062
656	-0.067
656	-0.072
657	-0.076
657	-0.08
657	-0.085
658	-0.091
658	-0.118
659	-0.193
659	-0.27
660	-0.304
660	-0.326
661	-0.35
661	-0.376
661	-0.403
662	-0.429
662	-0.456
663	-0.488
663	-0.522
664	-0.555
664	-0.592
665	-0.634
665	-0.677
665	-0.719
666	-0.766
666	-0.816
667	-0.866
667	-0.926
668	-0.981
668	-1.048
669	-1.113
669	-1.185
669	-1.262
670	-1.347
670	-1.473
671	-1.705
671	-2.104
672	-2.335
672	-2.491
672	-2.609
673	-2.703
673	-2.782
674	-2.815
674	-2.827
675	-2.841
675	-2.844
676	-2.836
676	-2.772
676	-2.693
677	-2.594
677	-2.468
678	-2.267
678	-1.854
679	-1.558
679	-1.427
680	-1.338
680	-1.271
680	-1.214
681	-1.174
681	-1.128
682	-1.092
682	-1.053
683	-1.015
683	-0.994
684	-0.969
684	-0.954
684	-0.933
685	-0.916
685	-0.908
686	-0.887
686	-0.875
687	-0.867
687	-0.858
687	-0.86
688	-0.846
688	-0.84
689	-0.846
689	-0.845
690	-0.832
690	-0.824
691	-0.823
691	-0.827
691	-0.828
692	-0.83
692	-0.827
693	-0.836
693	-0.848
694	-0.828
694	-0.827
695	-0.831
695	-0.825
695	-0.833
696	-0.841
696	-0.834
697	-0.828
697	-0.824
698	-0.82
698	-0.812
698	-0.825
699	-0.824
699	-0.824
700	-0.845
700	-0.84
701	-0.826
701	-0.821
702	-0.821
702	-0.818
702	-0.818
703	-0.809
703	-0.798
704	-0.809
704	-0.812
705	-0.801
705	-0.801
705	-0.798
706	-0.789
706	-0.786
707	-0.8
707	-0.802
708	-0.8
708	-0.796
709	-0.796
709	-0.792
709	-0.786
710	-0.792
710	-0.796
711	-0.797
711	-0.797
712	-0.786
712	-0.783
713	-0.787
713	-0.79
713	-0.769
714	-0.773
714	-0.778
715	-0.771
715	-0.778
716	-0.793
716	-0.802
716	-0.804
717	-0.811
717	-0.805
718	-0.799
718	-0.8
719	-0.795
719	-0.788
720	-0.783
720	-0.78
720	-0.774
721	-0.766
721	-0.769
722	-0.765
722	-0.762
723	-0.779
723	-0.791
723	-0.799
724	-0.797
724	-0.8
725	-0.794
725	-0.797
726	-0.799
726	-0.79
727	-0.793
727	-0.799
727	-0.79
728	-0.777
728	-0.772
729	-0.776
729	-0.779
730	-0.786
730	-0.778
730	-0.785
731	-0.789
731	-0.789
732	-0.791
732	-0.785
733	-0.801
733	-0.806
734	-0.814
734	-0.806
734	-0.786
735	-0.776
735	-0.771
736	-0.771
736	-0.764
737	-0.764
737	-0.754
737	-0.745
738	-0.733
738	-0.722
739	-0.726
739	-0.729
740	-0.744
740	-0.744
741	-0.754
741	-0.764
741	-0.772
742	-0.78
742	-0.797
743	-0.804
743	-0.805
744	-0.807
744	-0.815
744	-0.808
745	-0.817
745	-0.807
746	-0.801
746	-0.794
747	-0.796
747	-0.786
748	-0.786
748	-0.791
748	-0.793
749	-0.784
749	-0.792
750	-0.782
750	-0.783
751	-0.783
751	-0.78
751	-0.792
752	-0.796
752	-0.799
753	-0.8
753	-0.793
754	-0.812
754	-0.811
754	-0.82
755	-0.82
755	-0.811
756	-0.815
756	-0.8
757	-0.793
757	-0.783
758	-0.783
758	-0.781
758	-0.777
759	-0.782
759	-0.78
760	-0.779
760	-0.782
761	-0.773
761	-0.779
761	-0.778
762	-0.784
762	-0.783
763	-0.784
763	-0.789
764	-0.786
764	-0.783
764	-0.789
765	-0.788
765	-0.794
766	-0.796
766	-0.799
767	-0.815
767	-0.809
768	-0.806
768	-0.796
768	-0.791
769	-0.793
769	-0.801
770	-0.811
770	-0.816
771	-0.813
771	-0.811
771	-0.816
772	-0.823
772	-0.843
773	-0.845
773	-0.845
774	-0.844
774	-0.824
775	-0.813
775	-0.811
775	-0.814
776	-0.826
776	-0.821
777	-0.82
777	-0.805
778	-0.814
778	-0.822
778	-0.823
779	-0.834
779	-0.85
780	-0.847
780	-0.855
781	-0.844
781	-0.834
781	-0.848
782	-0.869
782	-0.87
783	-0.87
783	-0.879
784	-0.883
784	-0.876
784	-0.896
785	-0.89
785	-0.902
786	-0.907
786	-0.899
787	-0.889
787	-0.897
788	-0.887
788	-0.88
788	-0.881
789	-0.88
789	-0.87
790	-0.867
790	-0.853
791	-0.86
791	-0.856
791	-0.849
792	-0.842
792	-0.847
793	-0.85
793	-0.839
794	-0.832
794	-0.824
794	-0.831
795	-0.849
795	-0.834
796	-0.84
796	-0.836
797	-0.831
797	-0.822
797	-0.816
798	-0.837
798	-0.842
799	-0.843
799	-0.831
800	-0.826
800	-0.834
801	-0.83
801	-0.835
801	-0.832
802	-0.832
802	-0.832
803	-0.825
803	-0.817
804	-0.823
804	-0.83
804	-0.816
805	-0.797
805	-0.79
806	-0.79
806	-0.787
807	-0.788
807	-0.788
807	-0.771
808	-0.769
808	-0.763
809	-0.756
809	-0.757
810	-0.76
810	-0.757
810	-0.752
811	-0.754
811	-0.746
812	-0.739
812	-0.74
813	-0.742
813	-0.743
813	-0.74
814	-0.74
814	-0.746
815	-0.738
815	-0.734
816	-0.731
816	-0.747
817	-0.761
817	-0.764
817	-0.774
818	-0.767
818	-0.764
819	-0.774
819	-0.773
820	-0.784
820	-0.784
820	-0.783
821	-0.779
821	-0.774
822	-0.773
822	-0.76
823	-0.772
823	-0.77
823	-0.766
824	-0.763
824	-0.773
825	-0.771
825	-0.767
826	-0.762
826	-0.758
826	-0.758
827	-0.759
827	-0.746
828	-0.747
828	-0.739
829	-0.732
829	-0.718
829	-0.716
830	-0.716
830	-0.703
831	-0.697
831	-0.686
832	-0.677
832	-0.674
832	-0.667
833	-0.665
833	-0.672
834	-0.666
834	-0.661
835	-0.652
835	-0.65
835	-0.644
836	-0.64
836	-0.637
837	-0.628
837	-0.62
838	-0.607
838	-0.589
839	-0.584
839	-0.572
839	-0.564
840	-0.563
840	-0.554
841	-0.545
841	-0.538
842	-0.529
842	-0.517
842	-0.515
843	-0.513
843	-0.508
844	-0.505
844	-0.494
845	-0.482
845	-0.472
845	-0.46
846	-0.448
846	-0.439
847	-0.429
847	-0.415
848	-0.399
848	-0.383
848	-0.369
849	-0.359
849	-0.347
850	-0.338
850	-0.329
851	-0.318
851	-0.302
851	-0.294
852	-0.281
852	-0.269
853	-0.262
853	-0.251
854	-0.24
854	-0.23
854	-0.217
855	-0.207
855	-0.198
856	-0.193
856	-0.184
857	-0.178
857	-0.17
857	-0.158
858	-0.148
858	-0.142
859	-0.131
859	-0.122
860	-0.112
860	-0.1
860	-0.089
861	-0.079
861	-0.07
862	-0.063
862	-0.057
863	-0.049
863	-0.041
863	-0.035
864	-0.03
864	-0.024
865	-0.018
865	-0.013
866	-0.009
866	-0.005
866	-0
867	0.004
867	0.009
868	0.012
868	0.016
869	0.02
869	0.023
869	0.025
870	0.027
870	0.029
871	0.03
871	0.031
872	0.031
872	0.032
872	0.032
873	0.032
873	0.032
874	0.032
874	0.032
875	0.031
875	0.031
875	0.031
876	0.031
876	0.031
877	0.03
877	0.03
878	0.03
878	0.029
878	0.029
879	0.028
879	0.028
880	0.028
880	0.027
881	0.025
881	0.025
881	0.024
882	0.023
882	0.022
883	0.021
883	0.021
884	0.021
884	0.021
884	0.021
885	0.021
885	0.022
886	0.022
886	0.022
887	0.022
887	0.021
887	0.021
888	0.021
888	0.02
889	0.02
889	0.019
890	0.018
890	0.017
890	0.016
891	0.016
891	0.016
892	0.017
892	0.017
893	0.017
893	0.017
893	0.017
894	0.018
894	0.018
895	0.018
895	0.018
895	0.018
896	0.019
896	0.019
897	0.019
897	0.02
898	0.02
898	0.02
898	0.02
899	0.021
899	0.021
900	0.022
900	0.021
901	0.021
901	0.021
901	0.021
902	0.021
902	0.022
903	0.022
903	0.021
904	0.02
904	0.02
904	0.019
905	0.019
905	0.019
906	0.02
906	0.02
907	0.02
907	0.021
907	0.021
908	0.022
908	0.023
909	0.024
909	0.025
910	0.026
910	0.027
910	0.028
911	0.029
911	0.03
912	0.031
912	0.033
913	0.034
913	0.035
913	0.036
914	0.036
914	0.036
915	0.036
915	0.036
916	0.036
916	0.035
916	0.034
917	0.033
917	0.032
918	0.031
918	0.03
918	0.029
919	0.029
919	0.028
920	0.027
920	0.027
921	0.027
921	0.027
921	0.027
922	0.026
922	0.026
923	0.026
923	0.026
924	0.026
924	0.026
924	0.025
925	0.025
925	0.025
926	0.024
926	0.024
927	0.024
927	0.024
927	0.024
928	0.024
928	0.024
929	0.025
929	0.025
930	0.026
930	0.026
930	0.027
931	0.027
931	0.028
932	0.028
932	0.028
933	0.029
933	0.028
933	0.028
934	0.027
934	0.026
935	0.025
935	0.024
935	0.022
936	0.021
936	0.019
937	0.018
937	0.017
938	0.016
938	0.015
938	0.015
939	0.014
939	0.014
940	0.014
940	0.014
941	0.013
941	0.013
941	0.013
942	0.013
942	0.012
943	0.012
943	0.012
944	0.012
944	0.011
944	0.011
945	0.012
945	0.012
946	0.012
946	0.012
946	0.012
947	0.013
947	0.013
948	0.013
948	0.013
949	0.013
949	0.013
949	0.014
950	0.014
950	0.014
951	0.015
951	0.015
952	0.015
952	0.015
952	0.016
953	0.016
953	0.017
954	0.016
954	0.016
955	0.017
955	0.017
955	0.017
956	0.016
956	0.016
957	0.015
957	0.015
957	0.014
958	0.014
958	0.014
959	0.013
959	0.013
960	0.013
960	0.013
960	0.014
961	0.014
961	0.015
962	0.015
962	0.016
963	0.016
963	0.017
963	0.017
964	0.017
964	0.017
965	0.018
965	0.018
966	0.018
966	0.018
966	0.018
967	0.018
967	0.017
968	0.017
968	0.016
968	0.016
969	0.016
969	0.015
970	0.015
970	0.014
971	0.013
971	0.013
971	0.012
972	0.012
972	0.012
973	0.012
973	0.012
974	0.012
974	0.013
974	0.013
975	0.014
975	0.015
976	0.015
976	0.016
976	0.017
977	0.017
977	0.016
978	0.016
978	0.015
979	0.015
979	0.014
979	0.013
980	0.012
980	0.011
981	0.011
981	0.01
982	0.01
982	0.01
982	0.009
983	0.009
983	0.009
984	0.009
984	0.008
984	0.008
985	0.008
985	0.008
986	0.007
986	0.006
987	0.005
987	0.005
987	0.004
988	0.004
988	0.003
989	0.003
989	0.003
990	0.002
990	0.002
990	0.002
991	0.002
991	0.002
992	0.003
992	0.003
992	0.003
993	0.003
993	0.002
994	0.002
994	0.002
995	0.002
995	0.002
995	0.001
996	0.001
996	0
997	-0
997	-0
997	-0.001
998	-0.001
998	-0
999	-0
999	-0
1000	-0
1000	-0.001
1000	-0.001
1001	-0.001
1001	-0
1002	-0
1002	-0.001
1003	-0.001
1003	-0.001
1003	-0.002
1004	-0.002
1004	-0.003
1005	-0.003
1005	-0.004
1005	-0.005
1006	-0.006
1006	-0.006
1007	-0.007
1007	-0.007
1008	-0.008
1008	-0.008
1008	-0.008
1009	-0.008
1009	-0.007
1010	-0.007
1010	-0.006
1010	-0.006
1011	-0.006
1011	-0.005
1012	-0.005
1012	-0.004
1013	-0.003
1013	-0.003
1013	-0.003
1014	-0.003
1014	-0.003
1015	-0.003
1015	-0.002
1016	-0.002
1016	-0.002
1016	-0.002
1017	-0.002
1017	-0.003
1018	-0.002
1018	-0.003
1018	-0.003
1019	-0.003
1019	-0.003
1020	-0.003
1020	-0.004
1021	-0.004
1021	-0.005
1021	-0.005
1022	-0.005
1022	-0.006
1023	-0.006
1023	-0.006
1023	-0.006
1024	-0.007
1024	-0.007
1025	-0.007
1025	-0.007
1026	-0.007
1026	-0.007
1026	-0.007
1027	-0.007
1027	-0.007
1028	-0.007
1028	-0.006
1028	-0.007
1029	-0.007
1029	-0.007
1030	-0.007
1030	-0.008
1031	-0.007
1031	-0.007
1031	-0.007
1032	-0.007
1032	-0.007
1033	-0.008
1033	-0.008
1033	-0.008
1034	-0.008
1034	-0.008
1035	-0.008
1035	-0.009
1036	-0.009
1036	-0.009
1036	-0.009
1037	-0.009
1037	-0.009
1038	-0.009
1038	-0.009
1039	-0.008
1039	-0.007
1039	-0.006
1040	-0.006
1040	-0.005
1041	-0.005
1041	-0.005
1041	-0.005
1042	-0.005
1042	-0.006
1043	-0.006
1043	-0.007
1044	-0.007
1044	-0.008
1044	-0.009
1045	-0.01
1045	-0.01
1046	-0.011
1046	-0.012
1046	-0.012
1047	-0.013
1047	-0.013
1048	-0.013
1048	-0.014
1049	-0.014
1049	-0.015
1049	-0.015
1050	-0.016
1050	-0.017
1051	-0.018
1051	-0.019
1051	-0.019
1052	-0.02
1052	-0.021
1053	-0.022
1053	-0.022
1053	-0.022
1054	-0.022
1054	-0.022
1055	-0.022
1055	-0.022
1056	-0.022
1056	-0.022
1056	-0.022
1057	-0.022
1057	-0.022
1058	-0.023
1058	-0.023
1058	-0.023
1059	-0.024
1059	-0.024
1060	-0.024
1060	-0.024
1061	-0.024
1061	-0.023
1061	-0.023
1062	-0.022
1062	-0.022
1063	-0.022
1063	-0.022
1063	-0.023
1064	-0.023
1064	-0.023
1065	-0.023
1065	-0.023
1066	-0.024
1066	-0.024
1066	-0.025
1067	-0.025
1067	-0.026
1068	-0.026
1068	-0.026
1068	-0.027
1069	-0.028
1069	-0.028
1070	-0.028
1070	-0.029
1071	-0.029
1071	-0.029
1071	-0.029
1072	-0.029
1072	-0.029
1073	-0.028
1073	-0.028
1073	-0.028
1074	-0.027
1074	-0.027
1075	-0.027
1075	-0.027
1076	-0.028
1076	-0.028
1076	-0.029
1077	-0.03
1077	-0.031
1078	-0.032
1078	-0.033
1078	-0.034
1079	-0.035
1079	-0.035
1080	-0.036
1080	-0.037
1080	-0.038
1081	-0.038
1081	-0.039
1082	-0.039
1082	-0.04
1083	-0.041
1083	-0.042
1083	-0.043
1084	-0.043
1084	-0.044
1085	-0.044
1085	-0.045
1085	-0.045
1086	-0.045
1086	-0.047
1087	-0.047
1087	-0.047
1088	-0.049
1088	-0.049
1088	-0.05
1089	-0.051
1089	-0.052
1090	-0.053
1090	-0.054
1090	-0.055
1091	-0.056
1091	-0.056
1092	-0.057
1092	-0.058
1092	-0.059
1093	-0.059
1093	-0.059
1094	-0.06
1094	-0.061
1095	-0.063
1095	-0.063
1095	-0.064
1096	-0.065
1096	-0.066
1097	-0.067
1097	-0.069
1097	-0.07
1098	-0.072
1098	-0.074
1099	-0.075
1099	-0.076
1100	-0.079
1100	-0.081
1100	-0.083
1101	-0.087
1101	-0.089
1102	-0.092
1102	-0.094
1102	-0.096
1103	-0.098
1103	-0.101
1104	-0.104
1104	-0.107
1104	-0.109
1105	-0.111
1105	-0.114
1106	-0.119
1106	-0.121
1107	-0.127
1107	-0.133
1107	-0.138
1108	-0.14
1108	-0.142
1109	-0.146
1109	-0.151
1109	-0.157
1110	-0.159
1110	-0.164
1111	-0.176
1111	-0.172
