Data from 3.4A_17C_Absorbance__68__01025.txt Node

Date: Tue Jun 20 15:40:11 CEST 2023
User: Marek
Spectrometer: MAYP115816
Trigger mode: 0
Integration Time (sec): 2.200000E-1
Scans to average: 10
Electric dark correction enabled: true
Nonlinearity correction enabled: true
Boxcar width: 5
XAxis mode: Wavelengths
Number of Pixels in Spectrum: 2068
>>>>>Begin Spectral Data<<<<<
199	-0.737
199	-0.722
200	-0.689
200	-0.635
201	-0.606
201	-0.596
202	-0.577
202	-0.571
203	-0.569
203	-0.564
204	-0.546
204	-0.533
205	-0.509
205	-0.498
205	-0.507
206	-0.509
206	-0.504
207	-0.499
207	-0.505
208	-0.507
208	-0.512
209	-0.512
209	-0.519
210	-0.534
210	-0.542
211	-0.536
211	-0.541
212	-0.551
212	-0.559
213	-0.556
213	-0.552
213	-0.548
214	-0.553
214	-0.553
215	-0.549
215	-0.554
216	-0.563
216	-0.57
217	-0.567
217	-0.569
218	-0.575
218	-0.575
219	-0.584
219	-0.589
220	-0.593
220	-0.599
221	-0.6
221	-0.6
221	-0.589
222	-0.591
222	-0.588
223	-0.584
223	-0.587
224	-0.588
224	-0.584
225	-0.581
225	-0.581
226	-0.58
226	-0.58
227	-0.587
227	-0.597
228	-0.6
228	-0.609
229	-0.615
229	-0.613
229	-0.613
230	-0.61
230	-0.61
231	-0.607
231	-0.602
232	-0.605
232	-0.599
233	-0.6
233	-0.588
234	-0.588
234	-0.582
235	-0.587
235	-0.598
236	-0.604
236	-0.604
236	-0.605
237	-0.603
237	-0.602
238	-0.602
238	-0.604
239	-0.605
239	-0.614
240	-0.607
240	-0.602
241	-0.597
241	-0.6
242	-0.603
242	-0.612
243	-0.615
243	-0.616
243	-0.621
244	-0.619
244	-0.62
245	-0.622
245	-0.628
246	-0.635
246	-0.638
247	-0.645
247	-0.63
248	-0.629
248	-0.632
249	-0.638
249	-0.638
250	-0.637
250	-0.647
250	-0.645
251	-0.647
251	-0.643
252	-0.645
252	-0.658
253	-0.651
253	-0.662
254	-0.667
254	-0.667
255	-0.678
255	-0.676
256	-0.677
256	-0.691
257	-0.7
257	-0.698
258	-0.698
258	-0.706
258	-0.703
259	-0.696
259	-0.715
260	-0.712
260	-0.703
261	-0.714
261	-0.697
262	-0.703
262	-0.701
263	-0.693
263	-0.699
264	-0.709
264	-0.709
265	-0.699
265	-0.703
265	-0.709
266	-0.699
266	-0.702
267	-0.704
267	-0.719
268	-0.728
268	-0.722
269	-0.713
269	-0.729
270	-0.734
270	-0.731
271	-0.747
271	-0.756
272	-0.756
272	-0.758
272	-0.751
273	-0.759
273	-0.772
274	-0.765
274	-0.758
275	-0.755
275	-0.744
276	-0.745
276	-0.751
277	-0.752
277	-0.749
278	-0.755
278	-0.756
278	-0.745
279	-0.756
279	-0.77
280	-0.773
280	-0.783
281	-0.779
281	-0.772
282	-0.779
282	-0.772
283	-0.763
283	-0.776
284	-0.789
284	-0.798
285	-0.777
285	-0.783
285	-0.774
286	-0.778
286	-0.793
287	-0.79
287	-0.788
288	-0.788
288	-0.769
289	-0.768
289	-0.775
290	-0.783
290	-0.773
291	-0.775
291	-0.774
292	-0.754
292	-0.751
292	-0.757
293	-0.745
293	-0.741
294	-0.742
294	-0.728
295	-0.711
295	-0.722
296	-0.737
296	-0.73
297	-0.719
297	-0.722
298	-0.717
298	-0.732
298	-0.735
299	-0.717
299	-0.709
300	-0.705
300	-0.687
301	-0.667
301	-0.668
302	-0.68
302	-0.665
303	-0.658
303	-0.649
304	-0.633
304	-0.635
305	-0.628
305	-0.636
305	-0.65
306	-0.636
306	-0.636
307	-0.627
307	-0.641
308	-0.644
308	-0.639
309	-0.641
309	-0.638
310	-0.636
310	-0.631
311	-0.619
311	-0.634
311	-0.62
312	-0.617
312	-0.605
313	-0.597
313	-0.6
314	-0.606
314	-0.602
315	-0.6
315	-0.595
316	-0.589
316	-0.579
317	-0.572
317	-0.57
318	-0.56
318	-0.558
318	-0.546
319	-0.533
319	-0.526
320	-0.523
320	-0.522
321	-0.518
321	-0.519
322	-0.513
322	-0.503
323	-0.506
323	-0.496
324	-0.494
324	-0.483
324	-0.472
325	-0.457
325	-0.438
326	-0.43
326	-0.405
327	-0.389
327	-0.369
328	-0.335
328	-0.314
329	-0.284
329	-0.256
330	-0.228
330	-0.191
330	-0.156
331	-0.117
331	-0.084
332	-0.048
332	-0.014
333	0.018
333	0.054
334	0.085
334	0.112
335	0.14
335	0.162
336	0.186
336	0.208
336	0.227
337	0.245
337	0.262
338	0.277
338	0.287
339	0.301
339	0.314
340	0.323
340	0.332
341	0.339
341	0.345
342	0.352
342	0.358
342	0.363
343	0.367
343	0.372
344	0.375
344	0.378
345	0.381
345	0.384
346	0.386
346	0.388
347	0.39
347	0.392
348	0.394
348	0.396
348	0.396
349	0.397
349	0.398
350	0.399
350	0.4
351	0.401
351	0.401
352	0.401
352	0.401
353	0.401
353	0.401
354	0.402
354	0.402
354	0.402
355	0.401
355	0.401
356	0.401
356	0.401
357	0.401
357	0.401
358	0.401
358	0.401
359	0.4
359	0.401
360	0.401
360	0.401
360	0.401
361	0.401
361	0.4
362	0.4
362	0.4
363	0.4
363	0.4
364	0.4
364	0.4
365	0.4
365	0.4
366	0.399
366	0.399
366	0.399
367	0.399
367	0.399
368	0.398
368	0.398
369	0.397
369	0.397
370	0.397
370	0.396
371	0.396
371	0.396
372	0.395
372	0.395
372	0.395
373	0.394
373	0.394
374	0.394
374	0.394
375	0.393
375	0.393
376	0.392
376	0.392
377	0.392
377	0.391
378	0.391
378	0.39
378	0.39
379	0.389
379	0.389
380	0.389
380	0.388
381	0.388
381	0.387
382	0.387
382	0.386
383	0.386
383	0.385
383	0.385
384	0.385
384	0.384
385	0.384
385	0.383
386	0.383
386	0.382
387	0.382
387	0.381
388	0.381
388	0.38
389	0.38
389	0.38
389	0.379
390	0.379
390	0.379
391	0.378
391	0.378
392	0.377
392	0.377
393	0.377
393	0.377
394	0.376
394	0.376
394	0.375
395	0.375
395	0.374
396	0.374
396	0.373
397	0.373
397	0.372
398	0.372
398	0.371
399	0.371
399	0.371
400	0.37
400	0.37
400	0.37
401	0.369
401	0.369
402	0.368
402	0.368
403	0.368
403	0.367
404	0.367
404	0.366
405	0.365
405	0.365
405	0.365
406	0.364
406	0.364
407	0.364
407	0.363
408	0.363
408	0.363
409	0.363
409	0.363
410	0.362
410	0.362
411	0.362
411	0.362
411	0.362
412	0.361
412	0.361
413	0.36
413	0.36
414	0.36
414	0.359
415	0.359
415	0.358
416	0.358
416	0.358
416	0.357
417	0.357
417	0.357
418	0.357
418	0.357
419	0.357
419	0.357
420	0.357
420	0.357
421	0.356
421	0.356
421	0.356
422	0.356
422	0.356
423	0.355
423	0.355
424	0.354
424	0.354
425	0.354
425	0.354
426	0.354
426	0.354
427	0.354
427	0.354
427	0.354
428	0.354
428	0.353
429	0.353
429	0.353
430	0.352
430	0.352
431	0.352
431	0.351
432	0.351
432	0.351
432	0.35
433	0.35
433	0.35
434	0.351
434	0.351
435	0.351
435	0.351
436	0.351
436	0.352
437	0.352
437	0.351
437	0.352
438	0.352
438	0.351
439	0.351
439	0.351
440	0.351
440	0.351
441	0.351
441	0.351
442	0.351
442	0.351
442	0.351
443	0.351
443	0.351
444	0.351
444	0.351
445	0.351
445	0.351
446	0.351
446	0.351
447	0.351
447	0.351
447	0.351
448	0.351
448	0.351
449	0.351
449	0.351
450	0.351
450	0.351
451	0.351
451	0.351
452	0.351
452	0.352
452	0.352
453	0.352
453	0.352
454	0.352
454	0.353
455	0.353
455	0.353
456	0.354
456	0.354
457	0.354
457	0.354
458	0.354
458	0.354
458	0.355
459	0.355
459	0.355
460	0.355
460	0.355
461	0.355
461	0.356
462	0.356
462	0.357
463	0.358
463	0.359
463	0.359
464	0.36
464	0.36
465	0.361
465	0.361
466	0.362
466	0.363
467	0.363
467	0.364
467	0.364
468	0.364
468	0.365
469	0.365
469	0.366
470	0.367
470	0.368
471	0.368
471	0.369
472	0.37
472	0.371
472	0.372
473	0.373
473	0.374
474	0.375
474	0.376
475	0.377
475	0.379
476	0.38
476	0.381
477	0.382
477	0.383
477	0.384
478	0.385
478	0.386
479	0.388
479	0.389
480	0.39
480	0.392
481	0.393
481	0.395
482	0.396
482	0.398
482	0.4
483	0.402
483	0.404
484	0.406
484	0.407
485	0.409
485	0.411
486	0.412
486	0.414
487	0.416
487	0.418
487	0.42
488	0.421
488	0.423
489	0.425
489	0.428
490	0.43
490	0.432
491	0.435
491	0.438
492	0.44
492	0.443
492	0.445
493	0.447
493	0.45
494	0.453
494	0.456
495	0.459
495	0.461
496	0.464
496	0.467
496	0.47
497	0.473
497	0.476
498	0.479
498	0.483
499	0.486
499	0.49
500	0.494
500	0.498
501	0.501
501	0.505
501	0.508
502	0.511
502	0.515
503	0.518
503	0.522
504	0.525
504	0.528
505	0.532
505	0.535
506	0.539
506	0.543
506	0.547
507	0.551
507	0.555
508	0.559
508	0.562
509	0.566
509	0.57
510	0.574
510	0.577
511	0.58
511	0.584
511	0.587
512	0.59
512	0.593
513	0.596
513	0.6
514	0.603
514	0.607
515	0.61
515	0.613
515	0.615
516	0.619
516	0.622
517	0.625
517	0.628
518	0.63
518	0.632
519	0.634
519	0.636
520	0.638
520	0.641
520	0.643
521	0.644
521	0.646
522	0.647
522	0.649
523	0.65
523	0.652
524	0.653
524	0.654
524	0.655
525	0.656
525	0.656
526	0.657
526	0.657
527	0.658
527	0.657
528	0.657
528	0.657
529	0.656
529	0.655
529	0.654
530	0.653
530	0.652
531	0.651
531	0.65
532	0.649
532	0.647
533	0.646
533	0.644
533	0.643
534	0.641
534	0.639
535	0.637
535	0.635
536	0.633
536	0.63
537	0.627
537	0.624
538	0.621
538	0.618
538	0.614
539	0.612
539	0.608
540	0.605
540	0.601
541	0.597
541	0.594
542	0.59
542	0.586
542	0.581
543	0.577
543	0.573
544	0.568
544	0.564
545	0.56
545	0.556
546	0.552
546	0.546
547	0.542
547	0.537
547	0.532
548	0.528
548	0.522
549	0.518
549	0.513
550	0.508
550	0.503
551	0.497
551	0.492
551	0.486
552	0.482
552	0.477
553	0.472
553	0.468
554	0.463
554	0.457
555	0.452
555	0.447
556	0.442
556	0.437
556	0.433
557	0.428
557	0.423
558	0.418
558	0.413
559	0.408
559	0.403
560	0.398
560	0.393
560	0.389
561	0.385
561	0.381
562	0.377
562	0.373
563	0.368
563	0.364
564	0.36
564	0.356
564	0.352
565	0.349
565	0.345
566	0.34
566	0.336
567	0.333
567	0.328
568	0.324
568	0.32
568	0.315
569	0.311
569	0.306
570	0.302
570	0.297
571	0.293
571	0.289
572	0.285
572	0.281
573	0.278
573	0.274
573	0.27
574	0.267
574	0.264
575	0.261
575	0.26
576	0.257
576	0.253
577	0.249
577	0.247
577	0.244
578	0.242
578	0.24
579	0.239
579	0.237
580	0.233
580	0.229
581	0.225
581	0.222
581	0.221
582	0.219
582	0.217
583	0.214
583	0.211
584	0.207
584	0.202
585	0.2
585	0.198
585	0.196
586	0.193
586	0.191
587	0.188
587	0.185
588	0.182
588	0.18
589	0.179
589	0.177
590	0.175
590	0.173
590	0.173
591	0.171
591	0.169
592	0.167
592	0.165
593	0.163
593	0.161
594	0.159
594	0.158
594	0.156
595	0.155
595	0.152
596	0.15
596	0.15
597	0.15
597	0.148
598	0.147
598	0.145
598	0.144
599	0.143
599	0.141
600	0.14
600	0.139
601	0.138
601	0.136
602	0.134
602	0.133
602	0.131
603	0.13
603	0.13
604	0.129
604	0.127
605	0.127
605	0.126
606	0.125
606	0.123
606	0.122
607	0.12
607	0.12
608	0.118
608	0.117
609	0.115
609	0.115
610	0.113
610	0.112
610	0.111
611	0.111
611	0.11
612	0.11
612	0.11
613	0.109
613	0.109
614	0.107
614	0.106
614	0.105
615	0.104
615	0.103
616	0.102
616	0.101
617	0.101
617	0.1
618	0.098
618	0.098
618	0.097
619	0.096
619	0.096
620	0.097
620	0.096
621	0.094
621	0.094
622	0.092
622	0.092
622	0.09
623	0.089
623	0.09
624	0.089
624	0.088
625	0.087
625	0.087
626	0.086
626	0.085
626	0.084
627	0.084
627	0.083
628	0.082
628	0.081
629	0.08
629	0.079
630	0.078
630	0.076
630	0.076
631	0.075
631	0.074
632	0.073
632	0.072
633	0.071
633	0.07
634	0.07
634	0.069
634	0.068
635	0.067
635	0.067
636	0.066
636	0.065
637	0.064
637	0.063
638	0.063
638	0.062
638	0.061
639	0.059
639	0.058
640	0.057
640	0.056
641	0.055
641	0.054
642	0.053
642	0.051
642	0.05
643	0.048
643	0.046
644	0.044
644	0.043
645	0.041
645	0.039
646	0.036
646	0.033
646	0.029
647	0.026
647	0.023
648	0.019
648	0.016
649	0.013
649	0.009
650	0.006
650	0.002
650	-0.003
651	-0.008
651	-0.014
652	-0.021
652	-0.028
653	-0.034
653	-0.04
653	-0.036
654	-0.028
654	-0.031
655	-0.036
655	-0.039
656	-0.043
656	-0.048
657	-0.052
657	-0.055
657	-0.06
658	-0.065
658	-0.086
659	-0.141
659	-0.192
660	-0.216
660	-0.235
661	-0.254
661	-0.275
661	-0.296
662	-0.314
662	-0.333
663	-0.352
663	-0.376
664	-0.396
664	-0.419
665	-0.444
665	-0.469
665	-0.492
666	-0.518
666	-0.546
667	-0.576
667	-0.61
668	-0.646
668	-0.693
669	-0.738
669	-0.789
669	-0.848
670	-0.918
670	-1.063
671	-1.379
671	-1.798
672	-2.176
672	-2.385
672	-2.529
673	-2.621
673	-2.644
674	-2.661
674	-2.67
675	-2.685
675	-2.688
676	-2.682
676	-2.637
676	-2.521
677	-2.358
677	-2.088
678	-1.515
678	-1.149
679	-1.03
679	-0.965
680	-0.919
680	-0.887
680	-0.859
681	-0.849
681	-0.825
682	-0.811
682	-0.79
683	-0.769
683	-0.769
684	-0.761
684	-0.758
684	-0.75
685	-0.745
685	-0.748
686	-0.737
686	-0.734
687	-0.734
687	-0.733
687	-0.742
688	-0.733
688	-0.735
689	-0.746
689	-0.748
690	-0.74
690	-0.736
691	-0.739
691	-0.748
691	-0.752
692	-0.757
692	-0.757
693	-0.769
693	-0.781
694	-0.764
694	-0.766
695	-0.772
695	-0.767
695	-0.776
696	-0.783
696	-0.778
697	-0.772
697	-0.771
698	-0.766
698	-0.761
698	-0.777
699	-0.776
699	-0.778
700	-0.8
700	-0.794
701	-0.784
701	-0.78
702	-0.78
702	-0.778
702	-0.778
703	-0.77
703	-0.758
704	-0.765
704	-0.77
705	-0.761
705	-0.761
705	-0.757
706	-0.751
706	-0.75
707	-0.763
707	-0.766
708	-0.763
708	-0.764
709	-0.767
709	-0.762
709	-0.758
710	-0.767
710	-0.769
711	-0.768
711	-0.768
712	-0.758
712	-0.759
713	-0.765
713	-0.765
713	-0.744
714	-0.748
714	-0.75
715	-0.741
715	-0.749
716	-0.765
716	-0.775
716	-0.777
717	-0.782
717	-0.774
718	-0.767
718	-0.77
719	-0.765
719	-0.759
720	-0.756
720	-0.753
720	-0.748
721	-0.74
721	-0.743
722	-0.743
722	-0.74
723	-0.758
723	-0.771
723	-0.78
724	-0.778
724	-0.783
725	-0.776
725	-0.78
726	-0.785
726	-0.777
727	-0.778
727	-0.785
727	-0.777
728	-0.763
728	-0.761
729	-0.764
729	-0.768
730	-0.772
730	-0.763
730	-0.767
731	-0.77
731	-0.769
732	-0.771
732	-0.767
733	-0.783
733	-0.789
734	-0.798
734	-0.79
734	-0.774
735	-0.765
735	-0.761
736	-0.761
736	-0.757
737	-0.758
737	-0.747
737	-0.739
738	-0.725
738	-0.712
739	-0.714
739	-0.715
740	-0.729
740	-0.727
741	-0.738
741	-0.748
741	-0.755
742	-0.76
742	-0.777
743	-0.784
743	-0.787
744	-0.79
744	-0.8
744	-0.795
745	-0.805
745	-0.793
746	-0.789
746	-0.781
747	-0.785
747	-0.777
748	-0.777
748	-0.78
748	-0.781
749	-0.774
749	-0.78
750	-0.769
750	-0.77
751	-0.769
751	-0.768
751	-0.778
752	-0.781
752	-0.785
753	-0.788
753	-0.781
754	-0.801
754	-0.801
754	-0.81
755	-0.808
755	-0.8
756	-0.803
756	-0.79
757	-0.781
757	-0.769
758	-0.77
758	-0.769
758	-0.764
759	-0.77
759	-0.77
760	-0.77
760	-0.773
761	-0.766
761	-0.77
761	-0.768
762	-0.774
762	-0.773
763	-0.771
763	-0.776
764	-0.772
764	-0.767
764	-0.771
765	-0.77
765	-0.777
766	-0.781
766	-0.785
767	-0.8
767	-0.796
768	-0.796
768	-0.786
768	-0.784
769	-0.788
769	-0.797
770	-0.807
770	-0.812
771	-0.807
771	-0.808
771	-0.814
772	-0.818
772	-0.838
773	-0.841
773	-0.84
774	-0.837
774	-0.82
775	-0.806
775	-0.804
775	-0.807
776	-0.815
776	-0.811
777	-0.81
777	-0.794
778	-0.802
778	-0.81
778	-0.811
779	-0.82
779	-0.834
780	-0.83
780	-0.839
781	-0.829
781	-0.818
781	-0.831
782	-0.851
782	-0.853
783	-0.853
783	-0.859
784	-0.862
784	-0.856
784	-0.878
785	-0.872
785	-0.884
786	-0.889
786	-0.881
787	-0.872
787	-0.88
788	-0.872
788	-0.868
788	-0.871
789	-0.871
789	-0.861
790	-0.859
790	-0.844
791	-0.852
791	-0.848
791	-0.842
792	-0.837
792	-0.842
793	-0.843
793	-0.831
794	-0.826
794	-0.82
794	-0.827
795	-0.848
795	-0.834
796	-0.841
796	-0.837
797	-0.827
797	-0.819
797	-0.813
798	-0.834
798	-0.838
799	-0.835
799	-0.822
800	-0.817
800	-0.825
801	-0.822
801	-0.826
801	-0.826
802	-0.824
802	-0.822
803	-0.816
803	-0.808
804	-0.815
804	-0.822
804	-0.806
805	-0.788
805	-0.779
806	-0.78
806	-0.774
807	-0.777
807	-0.777
807	-0.76
808	-0.757
808	-0.752
809	-0.747
809	-0.748
810	-0.752
810	-0.75
810	-0.746
811	-0.751
811	-0.742
812	-0.734
812	-0.736
813	-0.739
813	-0.738
813	-0.733
814	-0.733
814	-0.738
815	-0.729
815	-0.724
816	-0.721
816	-0.738
817	-0.753
817	-0.755
817	-0.766
818	-0.76
818	-0.757
819	-0.768
819	-0.764
820	-0.774
820	-0.775
820	-0.774
821	-0.769
821	-0.764
822	-0.764
822	-0.752
823	-0.764
823	-0.764
823	-0.759
824	-0.76
824	-0.769
825	-0.766
825	-0.763
826	-0.758
826	-0.754
826	-0.752
827	-0.753
827	-0.743
828	-0.74
828	-0.733
829	-0.727
829	-0.714
829	-0.712
830	-0.712
830	-0.7
831	-0.692
831	-0.682
832	-0.672
832	-0.667
832	-0.661
833	-0.66
833	-0.664
834	-0.659
834	-0.655
835	-0.645
835	-0.642
835	-0.638
836	-0.635
836	-0.632
837	-0.621
837	-0.613
838	-0.6
838	-0.583
839	-0.578
839	-0.565
839	-0.558
840	-0.557
840	-0.549
841	-0.538
841	-0.533
842	-0.525
842	-0.514
842	-0.513
843	-0.51
843	-0.506
844	-0.503
844	-0.491
845	-0.479
845	-0.468
845	-0.459
846	-0.447
846	-0.438
847	-0.428
847	-0.417
848	-0.404
848	-0.388
848	-0.375
849	-0.364
849	-0.353
850	-0.343
850	-0.334
851	-0.322
851	-0.307
851	-0.298
852	-0.284
852	-0.272
853	-0.264
853	-0.254
854	-0.246
854	-0.236
854	-0.225
855	-0.215
855	-0.208
856	-0.202
856	-0.196
857	-0.188
857	-0.181
857	-0.169
858	-0.16
858	-0.153
859	-0.143
859	-0.134
860	-0.124
860	-0.112
860	-0.103
861	-0.093
861	-0.086
862	-0.078
862	-0.071
863	-0.065
863	-0.058
863	-0.054
864	-0.049
864	-0.043
865	-0.039
865	-0.034
866	-0.029
866	-0.025
866	-0.021
867	-0.017
867	-0.013
868	-0.009
868	-0.005
869	-0.001
869	0.001
869	0.003
870	0.006
870	0.007
871	0.009
871	0.01
872	0.01
872	0.011
872	0.011
873	0.012
873	0.012
874	0.011
874	0.011
875	0.011
875	0.01
875	0.01
876	0.01
876	0.01
877	0.009
877	0.009
878	0.008
878	0.008
878	0.008
879	0.007
879	0.007
880	0.007
880	0.006
881	0.005
881	0.004
881	0.003
882	0.002
882	0.002
883	0.001
883	0.001
884	0.001
884	0.001
884	0.001
885	0.001
885	0.001
886	0.001
886	0.001
887	0.001
887	0.001
887	0
888	-0.001
888	-0.001
889	-0.002
889	-0.003
890	-0.004
890	-0.004
890	-0.005
891	-0.004
891	-0.005
892	-0.004
892	-0.003
893	-0.003
893	-0.003
893	-0.003
894	-0.003
894	-0.002
895	-0.002
895	-0.002
895	-0.002
896	-0.001
896	-0.001
897	-0.001
897	-0.001
898	-0
898	0
898	0.001
899	0.001
899	0.002
900	0.002
900	0.002
901	0.002
901	0.002
901	0.002
902	0.003
902	0.003
903	0.002
903	0.002
904	0.001
904	0.001
904	0
905	0
905	0
906	0.001
906	0.001
907	0.002
907	0.002
907	0.003
908	0.004
908	0.005
909	0.006
909	0.007
910	0.008
910	0.009
910	0.01
911	0.011
911	0.012
912	0.014
912	0.015
913	0.016
913	0.017
913	0.018
914	0.018
914	0.018
915	0.018
915	0.018
916	0.018
916	0.017
916	0.016
917	0.015
917	0.014
918	0.013
918	0.013
918	0.012
919	0.011
919	0.011
920	0.01
920	0.01
921	0.01
921	0.009
921	0.009
922	0.009
922	0.009
923	0.009
923	0.009
924	0.008
924	0.008
924	0.008
925	0.008
925	0.008
926	0.007
926	0.007
927	0.007
927	0.007
927	0.007
928	0.007
928	0.007
929	0.008
929	0.008
930	0.009
930	0.009
930	0.01
931	0.01
931	0.011
932	0.012
932	0.012
933	0.012
933	0.012
933	0.012
934	0.011
934	0.01
935	0.009
935	0.008
935	0.007
936	0.006
936	0.004
937	0.003
937	0.002
938	0.001
938	-0
938	-0
939	-0.001
939	-0.001
940	-0.001
940	-0.002
941	-0.002
941	-0.002
941	-0.002
942	-0.003
942	-0.003
943	-0.002
943	-0.003
944	-0.003
944	-0.003
944	-0.003
945	-0.003
945	-0.003
946	-0.003
946	-0.003
946	-0.002
947	-0.003
947	-0.003
948	-0.003
948	-0.003
949	-0.003
949	-0.002
949	-0.002
950	-0.002
950	-0.001
951	-0.001
951	-0.001
952	-0.001
952	0
952	0
953	0.001
953	0.002
954	0.001
954	0.002
955	0.002
955	0.002
955	0.002
956	0.002
956	0.002
957	0.001
957	0.001
957	-0
958	-0.001
958	-0.001
959	-0.001
959	-0.001
960	-0.001
960	-0.001
960	-0.001
961	-0.001
961	-0.001
962	-0
962	0
963	0.001
963	0.001
963	0.001
964	0.001
964	0.001
965	0.001
965	0.002
966	0.002
966	0.002
966	0.002
967	0.002
967	0.002
968	0.002
968	0.002
968	0.002
969	0.001
969	0.001
970	-0
970	-0.001
971	-0.002
971	-0.002
971	-0.003
972	-0.003
972	-0.003
973	-0.003
973	-0.003
974	-0.003
974	-0.002
974	-0.001
975	-0
975	0
976	0.001
976	0.002
976	0.002
977	0.003
977	0.002
978	0.002
978	0.002
979	0.001
979	0
979	-0
980	-0.001
980	-0.002
981	-0.003
981	-0.004
982	-0.004
982	-0.004
982	-0.005
983	-0.005
983	-0.005
984	-0.005
984	-0.006
984	-0.006
985	-0.006
985	-0.006
986	-0.007
986	-0.007
987	-0.008
987	-0.009
987	-0.009
988	-0.009
988	-0.01
989	-0.01
989	-0.011
990	-0.011
990	-0.011
990	-0.011
991	-0.011
991	-0.011
992	-0.01
992	-0.01
992	-0.01
993	-0.01
993	-0.01
994	-0.01
994	-0.011
995	-0.011
995	-0.011
995	-0.012
996	-0.012
996	-0.013
997	-0.013
997	-0.014
997	-0.014
998	-0.014
998	-0.013
999	-0.013
999	-0.014
1000	-0.013
1000	-0.013
1000	-0.013
1001	-0.013
1001	-0.013
1002	-0.013
1002	-0.013
1003	-0.013
1003	-0.014
1003	-0.014
1004	-0.015
1004	-0.015
1005	-0.016
1005	-0.017
1005	-0.017
1006	-0.018
1006	-0.019
1007	-0.019
1007	-0.02
1008	-0.02
1008	-0.021
1008	-0.021
1009	-0.021
1009	-0.02
1010	-0.02
1010	-0.019
1010	-0.019
1011	-0.018
1011	-0.018
1012	-0.017
1012	-0.017
1013	-0.016
1013	-0.016
1013	-0.016
1014	-0.015
1014	-0.015
1015	-0.015
1015	-0.015
1016	-0.015
1016	-0.015
1016	-0.015
1017	-0.015
1017	-0.016
1018	-0.015
1018	-0.015
1018	-0.015
1019	-0.016
1019	-0.016
1020	-0.016
1020	-0.016
1021	-0.017
1021	-0.017
1021	-0.017
1022	-0.018
1022	-0.018
1023	-0.018
1023	-0.019
1023	-0.019
1024	-0.019
1024	-0.019
1025	-0.019
1025	-0.019
1026	-0.02
1026	-0.02
1026	-0.02
1027	-0.02
1027	-0.02
1028	-0.02
1028	-0.019
1028	-0.019
1029	-0.02
1029	-0.02
1030	-0.02
1030	-0.02
1031	-0.02
1031	-0.019
1031	-0.019
1032	-0.019
1032	-0.019
1033	-0.019
1033	-0.019
1033	-0.019
1034	-0.019
1034	-0.019
1035	-0.019
1035	-0.02
1036	-0.02
1036	-0.021
1036	-0.021
1037	-0.021
1037	-0.02
1038	-0.02
1038	-0.02
1039	-0.019
1039	-0.018
1039	-0.018
1040	-0.017
1040	-0.016
1041	-0.016
1041	-0.016
1041	-0.016
1042	-0.016
1042	-0.017
1043	-0.017
1043	-0.018
1044	-0.018
1044	-0.019
1044	-0.02
1045	-0.021
1045	-0.022
1046	-0.023
1046	-0.024
1046	-0.024
1047	-0.025
1047	-0.025
1048	-0.025
1048	-0.026
1049	-0.026
1049	-0.027
1049	-0.027
1050	-0.028
1050	-0.029
1051	-0.03
1051	-0.03
1051	-0.031
1052	-0.031
1052	-0.032
1053	-0.033
1053	-0.033
1053	-0.033
1054	-0.033
1054	-0.033
1055	-0.033
1055	-0.033
1056	-0.033
1056	-0.033
1056	-0.033
1057	-0.033
1057	-0.033
1058	-0.034
1058	-0.034
1058	-0.034
1059	-0.034
1059	-0.035
1060	-0.035
1060	-0.035
1061	-0.035
1061	-0.034
1061	-0.033
1062	-0.033
1062	-0.033
1063	-0.033
1063	-0.034
1063	-0.034
1064	-0.034
1064	-0.033
1065	-0.034
1065	-0.034
1066	-0.035
1066	-0.035
1066	-0.036
1067	-0.036
1067	-0.037
1068	-0.037
1068	-0.037
1068	-0.038
1069	-0.038
1069	-0.039
1070	-0.039
1070	-0.04
1071	-0.04
1071	-0.04
1071	-0.04
1072	-0.04
1072	-0.039
1073	-0.039
1073	-0.039
1073	-0.038
1074	-0.038
1074	-0.038
1075	-0.038
1075	-0.038
1076	-0.039
1076	-0.039
1076	-0.04
1077	-0.041
1077	-0.042
1078	-0.043
1078	-0.044
1078	-0.044
1079	-0.045
1079	-0.045
1080	-0.046
1080	-0.046
1080	-0.048
1081	-0.049
1081	-0.049
1082	-0.049
1082	-0.05
1083	-0.051
1083	-0.052
1083	-0.053
1084	-0.054
1084	-0.054
1085	-0.054
1085	-0.055
1085	-0.055
1086	-0.055
1086	-0.056
1087	-0.056
1087	-0.057
1088	-0.058
1088	-0.058
1088	-0.058
1089	-0.06
1089	-0.061
1090	-0.062
1090	-0.063
1090	-0.065
1091	-0.067
1091	-0.067
1092	-0.068
1092	-0.068
1092	-0.07
1093	-0.07
1093	-0.071
1094	-0.071
1094	-0.072
1095	-0.073
1095	-0.073
1095	-0.074
1096	-0.075
1096	-0.077
1097	-0.078
1097	-0.079
1097	-0.081
1098	-0.082
1098	-0.084
1099	-0.085
1099	-0.086
1100	-0.088
1100	-0.09
1100	-0.093
1101	-0.096
1101	-0.098
1102	-0.1
1102	-0.102
1102	-0.104
1103	-0.107
1103	-0.11
1104	-0.112
1104	-0.115
1104	-0.116
1105	-0.118
1105	-0.121
1106	-0.126
1106	-0.128
1107	-0.133
1107	-0.138
1107	-0.142
1108	-0.143
1108	-0.145
1109	-0.149
1109	-0.153
1109	-0.157
1110	-0.159
1110	-0.163
1111	-0.172
1111	-0.169
