Data from 3.4A_17C_Absorbance__80__01037.txt Node

Date: Tue Jun 20 15:40:38 CEST 2023
User: Marek
Spectrometer: MAYP115816
Trigger mode: 0
Integration Time (sec): 2.200000E-1
Scans to average: 10
Electric dark correction enabled: true
Nonlinearity correction enabled: true
Boxcar width: 5
XAxis mode: Wavelengths
Number of Pixels in Spectrum: 2068
>>>>>Begin Spectral Data<<<<<
199	-0.745
199	-0.724
200	-0.69
200	-0.636
201	-0.607
201	-0.598
202	-0.583
202	-0.574
203	-0.572
203	-0.567
204	-0.548
204	-0.533
205	-0.511
205	-0.501
205	-0.509
206	-0.511
206	-0.509
207	-0.501
207	-0.509
208	-0.512
208	-0.516
209	-0.518
209	-0.523
210	-0.536
210	-0.545
211	-0.54
211	-0.545
212	-0.551
212	-0.559
213	-0.555
213	-0.549
213	-0.546
214	-0.552
214	-0.555
215	-0.551
215	-0.555
216	-0.563
216	-0.569
217	-0.569
217	-0.57
218	-0.577
218	-0.579
219	-0.586
219	-0.588
220	-0.593
220	-0.599
221	-0.599
221	-0.599
221	-0.59
222	-0.589
222	-0.587
223	-0.583
223	-0.586
224	-0.586
224	-0.583
225	-0.58
225	-0.581
226	-0.582
226	-0.583
227	-0.59
227	-0.6
228	-0.602
228	-0.613
229	-0.618
229	-0.617
229	-0.617
230	-0.611
230	-0.609
231	-0.606
231	-0.599
232	-0.601
232	-0.595
233	-0.595
233	-0.583
234	-0.581
234	-0.575
235	-0.581
235	-0.593
236	-0.6
236	-0.6
236	-0.6
237	-0.599
237	-0.6
238	-0.602
238	-0.603
239	-0.606
239	-0.615
240	-0.607
240	-0.603
241	-0.598
241	-0.6
242	-0.606
242	-0.614
243	-0.615
243	-0.616
243	-0.622
244	-0.62
244	-0.62
245	-0.623
245	-0.627
246	-0.638
246	-0.643
247	-0.649
247	-0.636
248	-0.634
248	-0.636
249	-0.64
249	-0.639
250	-0.639
250	-0.647
250	-0.646
251	-0.646
251	-0.644
252	-0.645
252	-0.658
253	-0.653
253	-0.665
254	-0.671
254	-0.674
255	-0.684
255	-0.683
256	-0.683
256	-0.694
257	-0.703
257	-0.699
258	-0.7
258	-0.707
258	-0.704
259	-0.697
259	-0.714
260	-0.713
260	-0.701
261	-0.712
261	-0.699
262	-0.705
262	-0.705
263	-0.694
263	-0.7
264	-0.71
264	-0.711
265	-0.702
265	-0.705
265	-0.716
266	-0.707
266	-0.706
267	-0.705
267	-0.721
268	-0.727
268	-0.72
269	-0.712
269	-0.727
270	-0.728
270	-0.727
271	-0.741
271	-0.749
272	-0.75
272	-0.752
272	-0.745
273	-0.759
273	-0.775
274	-0.766
274	-0.761
275	-0.757
275	-0.745
276	-0.749
276	-0.756
277	-0.759
277	-0.756
278	-0.76
278	-0.757
278	-0.746
279	-0.756
279	-0.77
280	-0.773
280	-0.783
281	-0.776
281	-0.768
282	-0.773
282	-0.767
283	-0.762
283	-0.775
284	-0.788
284	-0.798
285	-0.777
285	-0.784
285	-0.776
286	-0.783
286	-0.797
287	-0.794
287	-0.795
288	-0.793
288	-0.775
289	-0.773
289	-0.781
290	-0.791
290	-0.78
291	-0.784
291	-0.783
292	-0.766
292	-0.764
292	-0.767
293	-0.754
293	-0.751
294	-0.751
294	-0.736
295	-0.718
295	-0.729
296	-0.739
296	-0.731
297	-0.719
297	-0.721
298	-0.716
298	-0.736
298	-0.739
299	-0.72
299	-0.713
300	-0.71
300	-0.692
301	-0.674
301	-0.675
302	-0.685
302	-0.671
303	-0.665
303	-0.651
304	-0.635
304	-0.638
305	-0.63
305	-0.639
305	-0.653
306	-0.638
306	-0.638
307	-0.631
307	-0.643
308	-0.644
308	-0.64
309	-0.642
309	-0.638
310	-0.636
310	-0.631
311	-0.617
311	-0.634
311	-0.623
312	-0.62
312	-0.608
313	-0.601
313	-0.602
314	-0.608
314	-0.605
315	-0.601
315	-0.595
316	-0.59
316	-0.582
317	-0.575
317	-0.571
318	-0.564
318	-0.561
318	-0.549
319	-0.538
319	-0.53
320	-0.528
320	-0.527
321	-0.521
321	-0.519
322	-0.513
322	-0.507
323	-0.505
323	-0.497
324	-0.494
324	-0.482
324	-0.471
325	-0.455
325	-0.435
326	-0.426
326	-0.402
327	-0.386
327	-0.363
328	-0.331
328	-0.309
329	-0.28
329	-0.252
330	-0.224
330	-0.189
330	-0.152
331	-0.115
331	-0.081
332	-0.047
332	-0.013
333	0.018
333	0.054
334	0.084
334	0.111
335	0.138
335	0.161
336	0.183
336	0.206
336	0.224
337	0.242
337	0.26
338	0.274
338	0.285
339	0.299
339	0.31
340	0.319
340	0.328
341	0.336
341	0.342
342	0.35
342	0.356
342	0.361
343	0.366
343	0.371
344	0.375
344	0.378
345	0.381
345	0.384
346	0.386
346	0.388
347	0.39
347	0.391
348	0.393
348	0.395
348	0.395
349	0.396
349	0.397
350	0.398
350	0.398
351	0.399
351	0.4
352	0.4
352	0.4
353	0.401
353	0.401
354	0.401
354	0.401
354	0.401
355	0.401
355	0.401
356	0.401
356	0.401
357	0.402
357	0.402
358	0.402
358	0.402
359	0.401
359	0.401
360	0.401
360	0.401
360	0.401
361	0.401
361	0.401
362	0.4
362	0.4
363	0.4
363	0.399
364	0.399
364	0.399
365	0.399
365	0.399
366	0.399
366	0.398
366	0.398
367	0.398
367	0.398
368	0.397
368	0.397
369	0.396
369	0.396
370	0.396
370	0.395
371	0.395
371	0.395
372	0.394
372	0.394
372	0.394
373	0.393
373	0.393
374	0.392
374	0.392
375	0.392
375	0.391
376	0.391
376	0.391
377	0.39
377	0.39
378	0.389
378	0.389
378	0.389
379	0.388
379	0.388
380	0.388
380	0.387
381	0.387
381	0.386
382	0.386
382	0.385
383	0.385
383	0.385
383	0.384
384	0.384
384	0.383
385	0.383
385	0.382
386	0.382
386	0.382
387	0.381
387	0.381
388	0.38
388	0.38
389	0.38
389	0.379
389	0.379
390	0.379
390	0.379
391	0.378
391	0.378
392	0.378
392	0.378
393	0.377
393	0.377
394	0.376
394	0.376
394	0.375
395	0.375
395	0.374
396	0.373
396	0.373
397	0.372
397	0.371
398	0.371
398	0.37
399	0.37
399	0.37
400	0.369
400	0.369
400	0.369
401	0.368
401	0.368
402	0.367
402	0.367
403	0.367
403	0.367
404	0.366
404	0.365
405	0.365
405	0.364
405	0.364
406	0.364
406	0.363
407	0.363
407	0.363
408	0.362
408	0.362
409	0.362
409	0.362
410	0.362
410	0.362
411	0.362
411	0.361
411	0.361
412	0.36
412	0.36
413	0.36
413	0.359
414	0.359
414	0.358
415	0.358
415	0.357
416	0.357
416	0.357
416	0.357
417	0.356
417	0.356
418	0.356
418	0.356
419	0.356
419	0.356
420	0.356
420	0.356
421	0.356
421	0.355
421	0.355
422	0.355
422	0.355
423	0.355
423	0.354
424	0.354
424	0.353
425	0.353
425	0.353
426	0.353
426	0.353
427	0.353
427	0.353
427	0.353
428	0.353
428	0.352
429	0.352
429	0.352
430	0.352
430	0.351
431	0.351
431	0.35
432	0.35
432	0.35
432	0.35
433	0.35
433	0.35
434	0.35
434	0.35
435	0.35
435	0.351
436	0.351
436	0.351
437	0.351
437	0.35
437	0.35
438	0.35
438	0.35
439	0.35
439	0.35
440	0.349
440	0.349
441	0.349
441	0.349
442	0.349
442	0.35
442	0.35
443	0.35
443	0.35
444	0.35
444	0.35
445	0.35
445	0.35
446	0.35
446	0.35
447	0.35
447	0.35
447	0.35
448	0.35
448	0.35
449	0.35
449	0.35
450	0.351
450	0.351
451	0.351
451	0.351
452	0.351
452	0.351
452	0.351
453	0.351
453	0.351
454	0.351
454	0.352
455	0.352
455	0.352
456	0.353
456	0.353
457	0.353
457	0.353
458	0.354
458	0.354
458	0.354
459	0.354
459	0.354
460	0.354
460	0.354
461	0.354
461	0.355
462	0.356
462	0.356
463	0.357
463	0.358
463	0.358
464	0.359
464	0.359
465	0.36
465	0.36
466	0.361
466	0.362
467	0.362
467	0.362
467	0.363
468	0.363
468	0.363
469	0.364
469	0.365
470	0.366
470	0.366
471	0.367
471	0.368
472	0.369
472	0.37
472	0.371
473	0.372
473	0.373
474	0.374
474	0.375
475	0.376
475	0.377
476	0.378
476	0.379
477	0.38
477	0.382
477	0.383
478	0.384
478	0.385
479	0.386
479	0.388
480	0.389
480	0.39
481	0.392
481	0.393
482	0.395
482	0.396
482	0.398
483	0.4
483	0.402
484	0.404
484	0.406
485	0.407
485	0.409
486	0.411
486	0.413
487	0.414
487	0.416
487	0.418
488	0.42
488	0.422
489	0.424
489	0.427
490	0.429
490	0.431
491	0.434
491	0.437
492	0.439
492	0.442
492	0.444
493	0.446
493	0.449
494	0.452
494	0.455
495	0.458
495	0.46
496	0.463
496	0.466
496	0.469
497	0.472
497	0.475
498	0.478
498	0.481
499	0.484
499	0.488
500	0.492
500	0.496
501	0.5
501	0.503
501	0.506
502	0.51
502	0.513
503	0.517
503	0.52
504	0.523
504	0.526
505	0.53
505	0.533
506	0.537
506	0.541
506	0.545
507	0.548
507	0.552
508	0.556
508	0.56
509	0.564
509	0.568
510	0.571
510	0.575
511	0.578
511	0.582
511	0.585
512	0.589
512	0.592
513	0.594
513	0.598
514	0.601
514	0.605
515	0.608
515	0.611
515	0.613
516	0.616
516	0.619
517	0.622
517	0.625
518	0.627
518	0.63
519	0.631
519	0.633
520	0.635
520	0.638
520	0.64
521	0.641
521	0.643
522	0.645
522	0.647
523	0.648
523	0.65
524	0.651
524	0.652
524	0.652
525	0.653
525	0.654
526	0.655
526	0.655
527	0.655
527	0.655
528	0.655
528	0.654
529	0.654
529	0.653
529	0.652
530	0.651
530	0.65
531	0.65
531	0.649
532	0.647
532	0.646
533	0.645
533	0.643
533	0.642
534	0.639
534	0.637
535	0.635
535	0.633
536	0.631
536	0.628
537	0.625
537	0.623
538	0.62
538	0.616
538	0.613
539	0.61
539	0.607
540	0.604
540	0.6
541	0.596
541	0.592
542	0.588
542	0.584
542	0.58
543	0.576
543	0.572
544	0.567
544	0.563
545	0.559
545	0.555
546	0.551
546	0.546
547	0.541
547	0.536
547	0.531
548	0.527
548	0.522
549	0.517
549	0.513
550	0.508
550	0.502
551	0.497
551	0.492
551	0.486
552	0.482
552	0.477
553	0.472
553	0.468
554	0.463
554	0.457
555	0.452
555	0.447
556	0.442
556	0.438
556	0.433
557	0.428
557	0.423
558	0.419
558	0.413
559	0.408
559	0.403
560	0.399
560	0.394
560	0.39
561	0.386
561	0.382
562	0.377
562	0.373
563	0.369
563	0.365
564	0.361
564	0.357
564	0.353
565	0.35
565	0.346
566	0.342
566	0.338
567	0.334
567	0.33
568	0.325
568	0.321
568	0.317
569	0.312
569	0.308
570	0.303
570	0.298
571	0.295
571	0.291
572	0.287
572	0.283
573	0.279
573	0.275
573	0.271
574	0.268
574	0.265
575	0.263
575	0.261
576	0.258
576	0.254
577	0.251
577	0.248
577	0.246
578	0.244
578	0.242
579	0.24
579	0.238
580	0.234
580	0.23
581	0.226
581	0.224
581	0.222
582	0.22
582	0.218
583	0.216
583	0.213
584	0.208
584	0.204
585	0.202
585	0.2
585	0.198
586	0.195
586	0.192
587	0.189
587	0.187
588	0.184
588	0.182
589	0.18
589	0.179
590	0.177
590	0.175
590	0.174
591	0.173
591	0.171
592	0.169
592	0.166
593	0.165
593	0.163
594	0.161
594	0.159
594	0.158
595	0.156
595	0.154
596	0.152
596	0.151
597	0.152
597	0.15
598	0.148
598	0.147
598	0.146
599	0.145
599	0.143
600	0.141
600	0.14
601	0.139
601	0.138
602	0.135
602	0.134
602	0.132
603	0.132
603	0.131
604	0.13
604	0.129
605	0.129
605	0.128
606	0.127
606	0.125
606	0.124
607	0.122
607	0.122
608	0.12
608	0.118
609	0.117
609	0.116
610	0.115
610	0.113
610	0.113
611	0.112
611	0.112
612	0.111
612	0.111
613	0.111
613	0.11
614	0.109
614	0.107
614	0.106
615	0.105
615	0.104
616	0.104
616	0.103
617	0.102
617	0.101
618	0.1
618	0.099
618	0.099
619	0.098
619	0.098
620	0.098
620	0.097
621	0.096
621	0.095
622	0.094
622	0.093
622	0.092
623	0.091
623	0.091
624	0.091
624	0.089
625	0.088
625	0.088
626	0.087
626	0.086
626	0.086
627	0.085
627	0.084
628	0.083
628	0.082
629	0.081
629	0.08
630	0.078
630	0.077
630	0.077
631	0.076
631	0.075
632	0.073
632	0.073
633	0.072
633	0.071
634	0.07
634	0.07
634	0.069
635	0.068
635	0.067
636	0.067
636	0.066
637	0.065
637	0.064
638	0.063
638	0.062
638	0.061
639	0.06
639	0.059
640	0.058
640	0.057
641	0.055
641	0.054
642	0.053
642	0.052
642	0.051
643	0.049
643	0.047
644	0.045
644	0.043
645	0.041
645	0.038
646	0.036
646	0.032
646	0.029
647	0.025
647	0.022
648	0.018
648	0.015
649	0.011
649	0.008
650	0.004
650	0
650	-0.004
651	-0.009
651	-0.015
652	-0.022
652	-0.03
653	-0.036
653	-0.042
653	-0.038
654	-0.03
654	-0.033
655	-0.038
655	-0.042
656	-0.046
656	-0.052
657	-0.056
657	-0.06
657	-0.065
658	-0.07
658	-0.091
659	-0.147
659	-0.198
660	-0.223
660	-0.24
661	-0.259
661	-0.278
661	-0.298
662	-0.315
662	-0.335
663	-0.356
663	-0.379
664	-0.399
664	-0.425
665	-0.45
665	-0.475
665	-0.498
666	-0.526
666	-0.557
667	-0.587
667	-0.625
668	-0.66
668	-0.707
669	-0.755
669	-0.807
669	-0.868
670	-0.939
670	-1.085
671	-1.405
671	-1.829
672	-2.19
672	-2.394
672	-2.536
673	-2.635
673	-2.66
674	-2.678
674	-2.687
675	-2.701
675	-2.705
676	-2.698
676	-2.651
676	-2.539
677	-2.384
677	-2.138
678	-1.576
678	-1.185
679	-1.054
679	-0.985
680	-0.935
680	-0.9
680	-0.871
681	-0.86
681	-0.836
682	-0.823
682	-0.8
683	-0.78
683	-0.779
684	-0.769
684	-0.766
684	-0.761
685	-0.756
685	-0.761
686	-0.749
686	-0.746
687	-0.745
687	-0.745
687	-0.753
688	-0.743
688	-0.744
689	-0.752
689	-0.755
690	-0.746
690	-0.741
691	-0.744
691	-0.75
691	-0.753
692	-0.756
692	-0.754
693	-0.764
693	-0.777
694	-0.763
694	-0.764
695	-0.769
695	-0.763
695	-0.774
696	-0.785
696	-0.78
697	-0.777
697	-0.775
698	-0.773
698	-0.767
698	-0.782
699	-0.781
699	-0.785
700	-0.806
700	-0.8
701	-0.787
701	-0.781
702	-0.781
702	-0.781
702	-0.781
703	-0.774
703	-0.759
704	-0.768
704	-0.77
705	-0.76
705	-0.761
705	-0.757
706	-0.754
706	-0.751
707	-0.762
707	-0.767
708	-0.765
708	-0.764
709	-0.768
709	-0.765
709	-0.761
710	-0.769
710	-0.771
711	-0.768
711	-0.771
712	-0.763
712	-0.76
713	-0.765
713	-0.768
713	-0.746
714	-0.75
714	-0.753
715	-0.746
715	-0.754
716	-0.771
716	-0.782
716	-0.783
717	-0.79
717	-0.783
718	-0.777
718	-0.78
719	-0.773
719	-0.767
720	-0.762
720	-0.757
720	-0.75
721	-0.74
721	-0.743
722	-0.741
722	-0.737
723	-0.753
723	-0.767
723	-0.779
724	-0.778
724	-0.784
725	-0.779
725	-0.784
726	-0.786
726	-0.779
727	-0.781
727	-0.789
727	-0.779
728	-0.764
728	-0.759
729	-0.762
729	-0.764
730	-0.768
730	-0.759
730	-0.766
731	-0.768
731	-0.768
732	-0.769
732	-0.764
733	-0.779
733	-0.786
734	-0.796
734	-0.788
734	-0.772
735	-0.762
735	-0.756
736	-0.758
736	-0.752
737	-0.753
737	-0.744
737	-0.737
738	-0.724
738	-0.711
739	-0.715
739	-0.716
740	-0.732
740	-0.734
741	-0.743
741	-0.754
741	-0.764
742	-0.77
742	-0.785
743	-0.792
743	-0.795
744	-0.798
744	-0.807
744	-0.8
745	-0.808
745	-0.796
746	-0.79
746	-0.782
747	-0.785
747	-0.774
748	-0.775
748	-0.779
748	-0.78
749	-0.772
749	-0.778
750	-0.767
750	-0.768
751	-0.768
751	-0.764
751	-0.774
752	-0.779
752	-0.782
753	-0.783
753	-0.776
754	-0.795
754	-0.795
754	-0.804
755	-0.805
755	-0.798
756	-0.801
756	-0.787
757	-0.78
757	-0.771
758	-0.774
758	-0.773
758	-0.769
759	-0.775
759	-0.776
760	-0.774
760	-0.776
761	-0.77
761	-0.776
761	-0.775
762	-0.781
762	-0.781
763	-0.781
763	-0.784
764	-0.782
764	-0.778
764	-0.783
765	-0.782
765	-0.789
766	-0.791
766	-0.793
767	-0.806
767	-0.8
768	-0.799
768	-0.791
768	-0.786
769	-0.788
769	-0.796
770	-0.805
770	-0.81
771	-0.806
771	-0.804
771	-0.811
772	-0.817
772	-0.838
773	-0.839
773	-0.839
774	-0.836
774	-0.819
775	-0.806
775	-0.803
775	-0.804
776	-0.814
776	-0.808
777	-0.807
777	-0.788
778	-0.795
778	-0.805
778	-0.806
779	-0.815
779	-0.832
780	-0.83
780	-0.839
781	-0.828
781	-0.818
781	-0.832
782	-0.852
782	-0.854
783	-0.853
783	-0.862
784	-0.864
784	-0.857
784	-0.877
785	-0.873
785	-0.886
786	-0.89
786	-0.884
787	-0.876
787	-0.884
788	-0.876
788	-0.869
788	-0.87
789	-0.872
789	-0.862
790	-0.86
790	-0.845
791	-0.852
791	-0.846
791	-0.841
792	-0.834
792	-0.838
793	-0.842
793	-0.831
794	-0.824
794	-0.817
794	-0.826
795	-0.845
795	-0.832
796	-0.839
796	-0.835
797	-0.829
797	-0.819
797	-0.814
798	-0.835
798	-0.838
799	-0.837
799	-0.82
800	-0.817
800	-0.824
801	-0.822
801	-0.825
801	-0.822
802	-0.822
802	-0.821
803	-0.814
803	-0.807
804	-0.815
804	-0.823
804	-0.806
805	-0.788
805	-0.779
806	-0.78
806	-0.777
807	-0.779
807	-0.78
807	-0.764
808	-0.759
808	-0.749
809	-0.745
809	-0.747
810	-0.75
810	-0.748
810	-0.744
811	-0.747
811	-0.739
812	-0.731
812	-0.733
813	-0.737
813	-0.74
813	-0.736
814	-0.735
814	-0.741
815	-0.732
815	-0.726
816	-0.723
816	-0.741
817	-0.752
817	-0.756
817	-0.766
818	-0.759
818	-0.754
819	-0.765
819	-0.763
820	-0.774
820	-0.774
820	-0.774
821	-0.767
821	-0.763
822	-0.763
822	-0.751
823	-0.762
823	-0.761
823	-0.757
824	-0.756
824	-0.767
825	-0.764
825	-0.761
826	-0.757
826	-0.754
826	-0.752
827	-0.754
827	-0.745
828	-0.746
828	-0.739
829	-0.731
829	-0.717
829	-0.716
830	-0.714
830	-0.7
831	-0.693
831	-0.685
832	-0.676
832	-0.67
832	-0.663
833	-0.662
833	-0.667
834	-0.662
834	-0.657
835	-0.649
835	-0.648
835	-0.643
836	-0.636
836	-0.632
837	-0.623
837	-0.614
838	-0.603
838	-0.588
839	-0.583
839	-0.57
839	-0.562
840	-0.562
840	-0.553
841	-0.543
841	-0.536
842	-0.527
842	-0.515
842	-0.513
843	-0.51
843	-0.506
844	-0.504
844	-0.493
845	-0.479
845	-0.47
845	-0.461
846	-0.449
846	-0.44
847	-0.43
847	-0.418
848	-0.404
848	-0.388
848	-0.375
849	-0.364
849	-0.353
850	-0.344
850	-0.334
851	-0.323
851	-0.308
851	-0.299
852	-0.284
852	-0.271
853	-0.264
853	-0.254
854	-0.243
854	-0.233
854	-0.222
855	-0.212
855	-0.205
856	-0.199
856	-0.192
857	-0.186
857	-0.18
857	-0.168
858	-0.159
858	-0.154
859	-0.145
859	-0.135
860	-0.126
860	-0.113
860	-0.105
861	-0.096
861	-0.087
862	-0.079
862	-0.072
863	-0.066
863	-0.057
863	-0.052
864	-0.047
864	-0.041
865	-0.036
865	-0.032
866	-0.027
866	-0.023
866	-0.02
867	-0.016
867	-0.011
868	-0.009
868	-0.005
869	-0.001
869	0.001
869	0.003
870	0.005
870	0.007
871	0.009
871	0.01
872	0.011
872	0.011
872	0.012
873	0.012
873	0.012
874	0.012
874	0.011
875	0.011
875	0.011
875	0.01
876	0.01
876	0.01
877	0.009
877	0.009
878	0.008
878	0.008
878	0.008
879	0.007
879	0.007
880	0.007
880	0.006
881	0.005
881	0.005
881	0.004
882	0.003
882	0.003
883	0.002
883	0.001
884	0.001
884	0.002
884	0.002
885	0.002
885	0.002
886	0.002
886	0.002
887	0.001
887	0.001
887	0
888	-0
888	-0.001
889	-0.002
889	-0.002
890	-0.003
890	-0.004
890	-0.004
891	-0.004
891	-0.005
892	-0.004
892	-0.004
893	-0.003
893	-0.003
893	-0.003
894	-0.002
894	-0.002
895	-0.002
895	-0.002
895	-0.002
896	-0.001
896	-0.001
897	-0.001
897	-0
898	-0
898	0
898	0.001
899	0.001
899	0.002
900	0.002
900	0.002
901	0.002
901	0.003
901	0.003
902	0.003
902	0.003
903	0.003
903	0.002
904	0.002
904	0.001
904	0.001
905	0.001
905	0.001
906	0.001
906	0.002
907	0.002
907	0.003
907	0.003
908	0.004
908	0.005
909	0.006
909	0.007
910	0.008
910	0.009
910	0.01
911	0.011
911	0.012
912	0.014
912	0.015
913	0.016
913	0.017
913	0.018
914	0.019
914	0.019
915	0.019
915	0.019
916	0.018
916	0.017
916	0.016
917	0.015
917	0.015
918	0.014
918	0.013
918	0.012
919	0.011
919	0.011
920	0.01
920	0.01
921	0.01
921	0.01
921	0.01
922	0.009
922	0.009
923	0.009
923	0.009
924	0.009
924	0.009
924	0.009
925	0.008
925	0.008
926	0.008
926	0.008
927	0.007
927	0.007
927	0.007
928	0.008
928	0.008
929	0.008
929	0.009
930	0.009
930	0.01
930	0.01
931	0.011
931	0.011
932	0.012
932	0.012
933	0.012
933	0.012
933	0.012
934	0.011
934	0.01
935	0.01
935	0.009
935	0.007
936	0.006
936	0.005
937	0.004
937	0.002
938	0.002
938	0.001
938	-0
939	-0.001
939	-0.001
940	-0.001
940	-0.002
941	-0.002
941	-0.003
941	-0.003
942	-0.003
942	-0.003
943	-0.003
943	-0.003
944	-0.003
944	-0.004
944	-0.004
945	-0.003
945	-0.003
946	-0.003
946	-0.003
946	-0.002
947	-0.002
947	-0.002
948	-0.002
948	-0.003
949	-0.002
949	-0.002
949	-0.002
950	-0.002
950	-0.001
951	-0.001
951	-0.001
952	-0.001
952	-0
952	0
953	0.001
953	0.001
954	0.001
954	0.001
955	0.002
955	0.002
955	0.002
956	0.001
956	0.001
957	0.001
957	0
957	-0
958	-0.001
958	-0.001
959	-0.001
959	-0.001
960	-0.001
960	-0.001
960	-0.001
961	-0.001
961	-0
962	0
962	0.001
963	0.001
963	0.001
963	0.001
964	0.001
964	0.001
965	0.001
965	0.001
966	0.001
966	0.002
966	0.002
967	0.002
967	0.002
968	0.002
968	0.001
968	0.001
969	0.001
969	0
970	-0.001
970	-0.001
971	-0.002
971	-0.003
971	-0.003
972	-0.003
972	-0.003
973	-0.003
973	-0.003
974	-0.003
974	-0.003
974	-0.002
975	-0.001
975	-0
976	0.001
976	0.002
976	0.002
977	0.002
977	0.002
978	0.002
978	0.002
979	0.001
979	0.001
979	-0
980	-0.001
980	-0.002
981	-0.003
981	-0.003
982	-0.004
982	-0.004
982	-0.004
983	-0.005
983	-0.005
984	-0.005
984	-0.006
984	-0.006
985	-0.006
985	-0.006
986	-0.007
986	-0.008
987	-0.008
987	-0.009
987	-0.009
988	-0.01
988	-0.01
989	-0.01
989	-0.011
990	-0.011
990	-0.011
990	-0.011
991	-0.011
991	-0.011
992	-0.011
992	-0.011
992	-0.011
993	-0.011
993	-0.011
994	-0.011
994	-0.011
995	-0.011
995	-0.012
995	-0.012
996	-0.012
996	-0.013
997	-0.013
997	-0.013
997	-0.014
998	-0.013
998	-0.013
999	-0.013
999	-0.014
1000	-0.014
1000	-0.014
1000	-0.014
1001	-0.014
1001	-0.014
1002	-0.014
1002	-0.014
1003	-0.014
1003	-0.014
1003	-0.015
1004	-0.015
1004	-0.016
1005	-0.016
1005	-0.017
1005	-0.018
1006	-0.019
1006	-0.019
1007	-0.02
1007	-0.02
1008	-0.021
1008	-0.021
1008	-0.021
1009	-0.021
1009	-0.021
1010	-0.02
1010	-0.019
1010	-0.019
1011	-0.019
1011	-0.018
1012	-0.018
1012	-0.017
1013	-0.017
1013	-0.016
1013	-0.016
1014	-0.016
1014	-0.016
1015	-0.016
1015	-0.016
1016	-0.015
1016	-0.015
1016	-0.015
1017	-0.015
1017	-0.015
1018	-0.015
1018	-0.015
1018	-0.015
1019	-0.015
1019	-0.015
1020	-0.016
1020	-0.016
1021	-0.016
1021	-0.017
1021	-0.017
1022	-0.018
1022	-0.018
1023	-0.018
1023	-0.019
1023	-0.019
1024	-0.019
1024	-0.019
1025	-0.019
1025	-0.019
1026	-0.02
1026	-0.019
1026	-0.02
1027	-0.02
1027	-0.02
1028	-0.02
1028	-0.019
1028	-0.019
1029	-0.019
1029	-0.019
1030	-0.019
1030	-0.019
1031	-0.019
1031	-0.019
1031	-0.019
1032	-0.019
1032	-0.019
1033	-0.019
1033	-0.019
1033	-0.019
1034	-0.019
1034	-0.02
1035	-0.02
1035	-0.02
1036	-0.02
1036	-0.02
1036	-0.02
1037	-0.021
1037	-0.02
1038	-0.02
1038	-0.02
1039	-0.019
1039	-0.018
1039	-0.018
1040	-0.017
1040	-0.017
1041	-0.017
1041	-0.016
1041	-0.016
1042	-0.017
1042	-0.017
1043	-0.017
1043	-0.018
1044	-0.018
1044	-0.019
1044	-0.02
1045	-0.021
1045	-0.022
1046	-0.022
1046	-0.023
1046	-0.024
1047	-0.025
1047	-0.025
1048	-0.025
1048	-0.025
1049	-0.026
1049	-0.027
1049	-0.027
1050	-0.028
1050	-0.029
1051	-0.03
1051	-0.031
1051	-0.031
1052	-0.032
1052	-0.033
1053	-0.033
1053	-0.033
1053	-0.033
1054	-0.034
1054	-0.034
1055	-0.033
1055	-0.033
1056	-0.033
1056	-0.033
1056	-0.033
1057	-0.034
1057	-0.034
1058	-0.034
1058	-0.035
1058	-0.035
1059	-0.035
1059	-0.035
1060	-0.035
1060	-0.035
1061	-0.035
1061	-0.034
1061	-0.033
1062	-0.033
1062	-0.033
1063	-0.033
1063	-0.033
1063	-0.033
1064	-0.033
1064	-0.033
1065	-0.033
1065	-0.034
1066	-0.034
1066	-0.035
1066	-0.035
1067	-0.036
1067	-0.037
1068	-0.037
1068	-0.038
1068	-0.038
1069	-0.039
1069	-0.04
1070	-0.04
1070	-0.04
1071	-0.04
1071	-0.04
1071	-0.04
1072	-0.04
1072	-0.039
1073	-0.039
1073	-0.038
1073	-0.038
1074	-0.037
1074	-0.037
1075	-0.037
1075	-0.037
1076	-0.038
1076	-0.038
1076	-0.04
1077	-0.041
1077	-0.042
1078	-0.043
1078	-0.044
1078	-0.045
1079	-0.045
1079	-0.046
1080	-0.047
1080	-0.047
1080	-0.048
1081	-0.049
1081	-0.049
1082	-0.049
1082	-0.05
1083	-0.051
1083	-0.052
1083	-0.052
1084	-0.053
1084	-0.053
1085	-0.054
1085	-0.054
1085	-0.054
1086	-0.054
1086	-0.055
1087	-0.055
1087	-0.055
1088	-0.056
1088	-0.056
1088	-0.057
1089	-0.059
1089	-0.059
1090	-0.06
1090	-0.061
1090	-0.063
1091	-0.064
1091	-0.065
1092	-0.066
1092	-0.066
1092	-0.068
1093	-0.069
1093	-0.069
1094	-0.07
1094	-0.071
1095	-0.072
1095	-0.073
1095	-0.073
1096	-0.075
1096	-0.076
1097	-0.078
1097	-0.079
1097	-0.08
1098	-0.082
1098	-0.084
1099	-0.085
1099	-0.086
1100	-0.088
1100	-0.09
1100	-0.093
1101	-0.095
1101	-0.098
1102	-0.1
1102	-0.102
1102	-0.103
1103	-0.105
1103	-0.108
1104	-0.111
1104	-0.114
1104	-0.116
1105	-0.117
1105	-0.12
1106	-0.125
1106	-0.127
1107	-0.132
1107	-0.137
1107	-0.141
1108	-0.143
1108	-0.145
1109	-0.147
1109	-0.151
1109	-0.157
1110	-0.158
1110	-0.161
1111	-0.171
1111	-0.163
