Data from 3.4A_17C_Absorbance__345__01302.txt Node

Date: Tue Jun 20 15:50:21 CEST 2023
User: Marek
Spectrometer: MAYP115816
Trigger mode: 0
Integration Time (sec): 2.200000E-1
Scans to average: 10
Electric dark correction enabled: true
Nonlinearity correction enabled: true
Boxcar width: 5
XAxis mode: Wavelengths
Number of Pixels in Spectrum: 2068
>>>>>Begin Spectral Data<<<<<
199	-0.766
199	-0.746
200	-0.708
200	-0.654
201	-0.625
201	-0.617
202	-0.599
202	-0.592
203	-0.592
203	-0.586
204	-0.565
204	-0.551
205	-0.53
205	-0.52
205	-0.528
206	-0.531
206	-0.527
207	-0.52
207	-0.525
208	-0.524
208	-0.528
209	-0.53
209	-0.537
210	-0.546
210	-0.554
211	-0.547
211	-0.552
212	-0.56
212	-0.567
213	-0.563
213	-0.561
213	-0.559
214	-0.564
214	-0.564
215	-0.562
215	-0.567
216	-0.575
216	-0.579
217	-0.576
217	-0.577
218	-0.585
218	-0.583
219	-0.59
219	-0.593
220	-0.597
220	-0.604
221	-0.603
221	-0.605
221	-0.596
222	-0.596
222	-0.594
223	-0.591
223	-0.594
224	-0.594
224	-0.591
225	-0.589
225	-0.591
226	-0.594
226	-0.593
227	-0.602
227	-0.61
228	-0.614
228	-0.623
229	-0.63
229	-0.627
229	-0.629
230	-0.624
230	-0.622
231	-0.617
231	-0.613
232	-0.615
232	-0.61
233	-0.61
233	-0.598
234	-0.597
234	-0.594
235	-0.597
235	-0.609
236	-0.614
236	-0.616
236	-0.616
237	-0.616
237	-0.619
238	-0.618
238	-0.62
239	-0.623
239	-0.632
240	-0.627
240	-0.62
241	-0.616
241	-0.618
242	-0.62
242	-0.628
243	-0.628
243	-0.63
243	-0.635
244	-0.631
244	-0.632
245	-0.632
245	-0.637
246	-0.646
246	-0.648
247	-0.657
247	-0.643
248	-0.642
248	-0.645
249	-0.65
249	-0.651
250	-0.65
250	-0.659
250	-0.657
251	-0.658
251	-0.655
252	-0.654
252	-0.665
253	-0.658
253	-0.669
254	-0.673
254	-0.674
255	-0.685
255	-0.683
256	-0.686
256	-0.698
257	-0.709
257	-0.707
258	-0.709
258	-0.718
258	-0.717
259	-0.71
259	-0.728
260	-0.728
260	-0.718
261	-0.728
261	-0.715
262	-0.72
262	-0.719
263	-0.71
263	-0.715
264	-0.722
264	-0.724
265	-0.714
265	-0.716
265	-0.724
266	-0.714
266	-0.715
267	-0.712
267	-0.728
268	-0.737
268	-0.73
269	-0.725
269	-0.739
270	-0.743
270	-0.741
271	-0.756
271	-0.765
272	-0.765
272	-0.769
272	-0.764
273	-0.773
273	-0.789
274	-0.78
274	-0.773
275	-0.769
275	-0.756
276	-0.757
276	-0.763
277	-0.766
277	-0.763
278	-0.765
278	-0.764
278	-0.75
279	-0.76
279	-0.776
280	-0.778
280	-0.791
281	-0.787
281	-0.78
282	-0.784
282	-0.779
283	-0.772
283	-0.788
284	-0.801
284	-0.811
285	-0.79
285	-0.796
285	-0.788
286	-0.793
286	-0.81
287	-0.808
287	-0.807
288	-0.807
288	-0.787
289	-0.787
289	-0.794
290	-0.802
290	-0.792
291	-0.795
291	-0.793
292	-0.773
292	-0.771
292	-0.775
293	-0.762
293	-0.759
294	-0.76
294	-0.746
295	-0.728
295	-0.74
296	-0.752
296	-0.745
297	-0.733
297	-0.736
298	-0.731
298	-0.75
298	-0.753
299	-0.734
299	-0.728
300	-0.725
300	-0.706
301	-0.688
301	-0.692
302	-0.703
302	-0.689
303	-0.683
303	-0.67
304	-0.654
304	-0.656
305	-0.648
305	-0.657
305	-0.672
306	-0.656
306	-0.653
307	-0.644
307	-0.656
308	-0.659
308	-0.655
309	-0.657
309	-0.655
310	-0.653
310	-0.647
311	-0.634
311	-0.652
311	-0.64
312	-0.638
312	-0.628
313	-0.619
313	-0.62
314	-0.624
314	-0.623
315	-0.621
315	-0.614
316	-0.608
316	-0.597
317	-0.591
317	-0.587
318	-0.579
318	-0.576
318	-0.566
319	-0.554
319	-0.544
320	-0.54
320	-0.54
321	-0.536
321	-0.536
322	-0.528
322	-0.522
323	-0.522
323	-0.513
324	-0.511
324	-0.501
324	-0.49
325	-0.476
325	-0.457
326	-0.448
326	-0.424
327	-0.409
327	-0.387
328	-0.357
328	-0.334
329	-0.304
329	-0.274
330	-0.247
330	-0.211
330	-0.175
331	-0.139
331	-0.105
332	-0.072
332	-0.038
333	-0.008
333	0.025
334	0.054
334	0.079
335	0.105
335	0.126
336	0.148
336	0.17
336	0.186
337	0.203
337	0.219
338	0.233
338	0.243
339	0.257
339	0.268
340	0.275
340	0.284
341	0.291
341	0.297
342	0.304
342	0.309
342	0.314
343	0.318
343	0.322
344	0.325
344	0.328
345	0.332
345	0.334
346	0.336
346	0.338
347	0.339
347	0.341
348	0.342
348	0.343
348	0.344
349	0.345
349	0.346
350	0.346
350	0.347
351	0.348
351	0.348
352	0.348
352	0.348
353	0.349
353	0.349
354	0.349
354	0.349
354	0.349
355	0.349
355	0.349
356	0.349
356	0.349
357	0.349
357	0.349
358	0.348
358	0.349
359	0.349
359	0.349
360	0.349
360	0.349
360	0.349
361	0.349
361	0.349
362	0.349
362	0.349
363	0.349
363	0.349
364	0.349
364	0.349
365	0.349
365	0.349
366	0.349
366	0.348
366	0.348
367	0.348
367	0.348
368	0.348
368	0.348
369	0.347
369	0.347
370	0.347
370	0.347
371	0.346
371	0.346
372	0.346
372	0.345
372	0.345
373	0.345
373	0.345
374	0.345
374	0.345
375	0.344
375	0.344
376	0.344
376	0.343
377	0.343
377	0.343
378	0.342
378	0.342
378	0.342
379	0.341
379	0.341
380	0.341
380	0.341
381	0.34
381	0.34
382	0.34
382	0.339
383	0.339
383	0.339
383	0.338
384	0.338
384	0.338
385	0.337
385	0.337
386	0.337
386	0.337
387	0.336
387	0.336
388	0.335
388	0.335
389	0.335
389	0.335
389	0.335
390	0.334
390	0.334
391	0.334
391	0.334
392	0.333
392	0.333
393	0.333
393	0.333
394	0.333
394	0.332
394	0.332
395	0.331
395	0.331
396	0.331
396	0.33
397	0.33
397	0.33
398	0.329
398	0.329
399	0.328
399	0.328
400	0.327
400	0.327
400	0.327
401	0.327
401	0.326
402	0.326
402	0.326
403	0.325
403	0.325
404	0.325
404	0.324
405	0.324
405	0.324
405	0.323
406	0.323
406	0.323
407	0.323
407	0.323
408	0.322
408	0.322
409	0.322
409	0.322
410	0.322
410	0.322
411	0.322
411	0.321
411	0.321
412	0.321
412	0.32
413	0.32
413	0.32
414	0.319
414	0.319
415	0.319
415	0.318
416	0.318
416	0.318
416	0.318
417	0.317
417	0.317
418	0.317
418	0.317
419	0.317
419	0.317
420	0.317
420	0.317
421	0.317
421	0.317
421	0.317
422	0.317
422	0.316
423	0.316
423	0.316
424	0.315
424	0.315
425	0.315
425	0.315
426	0.315
426	0.315
427	0.315
427	0.315
427	0.315
428	0.315
428	0.315
429	0.314
429	0.314
430	0.314
430	0.313
431	0.313
431	0.313
432	0.312
432	0.312
432	0.312
433	0.312
433	0.312
434	0.312
434	0.312
435	0.313
435	0.313
436	0.313
436	0.313
437	0.313
437	0.313
437	0.313
438	0.313
438	0.313
439	0.312
439	0.312
440	0.312
440	0.311
441	0.311
441	0.311
442	0.311
442	0.311
442	0.311
443	0.312
443	0.312
444	0.312
444	0.312
445	0.312
445	0.312
446	0.311
446	0.311
447	0.311
447	0.311
447	0.311
448	0.311
448	0.311
449	0.311
449	0.311
450	0.311
450	0.311
451	0.311
451	0.311
452	0.311
452	0.311
452	0.311
453	0.311
453	0.311
454	0.311
454	0.312
455	0.312
455	0.312
456	0.312
456	0.312
457	0.313
457	0.313
458	0.313
458	0.313
458	0.313
459	0.313
459	0.313
460	0.312
460	0.312
461	0.312
461	0.313
462	0.313
462	0.314
463	0.314
463	0.315
463	0.315
464	0.315
464	0.316
465	0.316
465	0.317
466	0.317
466	0.317
467	0.318
467	0.318
467	0.318
468	0.318
468	0.318
469	0.319
469	0.32
470	0.32
470	0.321
471	0.321
471	0.321
472	0.322
472	0.322
472	0.323
473	0.324
473	0.325
474	0.326
474	0.327
475	0.328
475	0.328
476	0.329
476	0.33
477	0.331
477	0.331
477	0.332
478	0.333
478	0.334
479	0.335
479	0.336
480	0.336
480	0.338
481	0.339
481	0.34
482	0.341
482	0.342
482	0.343
483	0.345
483	0.347
484	0.348
484	0.348
485	0.35
485	0.351
486	0.352
486	0.353
487	0.354
487	0.356
487	0.357
488	0.358
488	0.359
489	0.361
489	0.363
490	0.365
490	0.367
491	0.369
491	0.37
492	0.372
492	0.374
492	0.376
493	0.377
493	0.379
494	0.382
494	0.384
495	0.386
495	0.388
496	0.389
496	0.392
496	0.394
497	0.397
497	0.399
498	0.401
498	0.404
499	0.406
499	0.409
500	0.412
500	0.415
501	0.418
501	0.42
501	0.423
502	0.425
502	0.427
503	0.43
503	0.432
504	0.435
504	0.437
505	0.44
505	0.442
506	0.445
506	0.448
506	0.451
507	0.454
507	0.457
508	0.46
508	0.463
509	0.466
509	0.468
510	0.471
510	0.474
511	0.477
511	0.48
511	0.482
512	0.485
512	0.487
513	0.489
513	0.492
514	0.495
514	0.498
515	0.5
515	0.502
515	0.504
516	0.507
516	0.509
517	0.512
517	0.514
518	0.516
518	0.517
519	0.519
519	0.52
520	0.522
520	0.525
520	0.526
521	0.528
521	0.529
522	0.531
522	0.532
523	0.534
523	0.535
524	0.536
524	0.537
524	0.537
525	0.538
525	0.539
526	0.539
526	0.54
527	0.541
527	0.541
528	0.541
528	0.541
529	0.541
529	0.54
529	0.54
530	0.539
530	0.539
531	0.539
531	0.538
532	0.537
532	0.537
533	0.536
533	0.536
533	0.535
534	0.534
534	0.533
535	0.532
535	0.531
536	0.53
536	0.528
537	0.527
537	0.525
538	0.524
538	0.522
538	0.52
539	0.519
539	0.517
540	0.515
540	0.512
541	0.51
541	0.508
542	0.505
542	0.503
542	0.5
543	0.497
543	0.495
544	0.492
544	0.49
545	0.487
545	0.485
546	0.483
546	0.48
547	0.476
547	0.473
547	0.47
548	0.468
548	0.465
549	0.462
549	0.459
550	0.456
550	0.453
551	0.449
551	0.446
551	0.443
552	0.44
552	0.437
553	0.434
553	0.432
554	0.428
554	0.425
555	0.421
555	0.418
556	0.415
556	0.412
556	0.409
557	0.406
557	0.404
558	0.401
558	0.398
559	0.395
559	0.392
560	0.389
560	0.386
560	0.384
561	0.382
561	0.379
562	0.377
562	0.374
563	0.372
563	0.369
564	0.367
564	0.365
564	0.363
565	0.361
565	0.359
566	0.356
566	0.354
567	0.352
567	0.349
568	0.347
568	0.344
568	0.341
569	0.338
569	0.335
570	0.332
570	0.328
571	0.326
571	0.324
572	0.321
572	0.319
573	0.316
573	0.314
573	0.311
574	0.309
574	0.308
575	0.306
575	0.306
576	0.304
576	0.301
577	0.299
577	0.297
577	0.296
578	0.295
578	0.294
579	0.294
579	0.293
580	0.29
580	0.287
581	0.284
581	0.283
581	0.282
582	0.281
582	0.28
583	0.279
583	0.276
584	0.273
584	0.269
585	0.268
585	0.267
585	0.266
586	0.264
586	0.262
587	0.259
587	0.257
588	0.255
588	0.254
589	0.253
589	0.252
590	0.251
590	0.249
590	0.25
591	0.249
591	0.247
592	0.246
592	0.244
593	0.243
593	0.242
594	0.24
594	0.239
594	0.238
595	0.237
595	0.235
596	0.233
596	0.234
597	0.234
597	0.233
598	0.232
598	0.231
598	0.23
599	0.229
599	0.228
600	0.227
600	0.226
601	0.225
601	0.224
602	0.222
602	0.221
602	0.22
603	0.219
603	0.219
604	0.218
604	0.218
605	0.217
605	0.217
606	0.216
606	0.214
606	0.213
607	0.212
607	0.211
608	0.21
608	0.208
609	0.207
609	0.206
610	0.205
610	0.204
610	0.203
611	0.203
611	0.202
612	0.202
612	0.202
613	0.201
613	0.201
614	0.2
614	0.198
614	0.198
615	0.196
615	0.195
616	0.195
616	0.194
617	0.193
617	0.192
618	0.191
618	0.19
618	0.189
619	0.189
619	0.188
620	0.188
620	0.187
621	0.186
621	0.185
622	0.183
622	0.182
622	0.181
623	0.18
623	0.18
624	0.179
624	0.178
625	0.176
625	0.175
626	0.174
626	0.173
626	0.172
627	0.171
627	0.17
628	0.168
628	0.167
629	0.165
629	0.164
630	0.162
630	0.16
630	0.159
631	0.157
631	0.155
632	0.153
632	0.151
633	0.149
633	0.147
634	0.145
634	0.143
634	0.141
635	0.139
635	0.137
636	0.135
636	0.133
637	0.131
637	0.128
638	0.126
638	0.123
638	0.12
639	0.117
639	0.113
640	0.11
640	0.107
641	0.103
641	0.1
642	0.096
642	0.093
642	0.089
643	0.085
643	0.081
644	0.076
644	0.072
645	0.067
645	0.062
646	0.057
646	0.051
646	0.044
647	0.038
647	0.032
648	0.026
648	0.019
649	0.013
649	0.007
650	0.001
650	-0.006
650	-0.012
651	-0.02
651	-0.031
652	-0.042
652	-0.054
653	-0.065
653	-0.075
653	-0.07
654	-0.052
654	-0.047
655	-0.052
655	-0.057
656	-0.062
656	-0.067
657	-0.072
657	-0.076
657	-0.081
658	-0.088
658	-0.117
659	-0.197
659	-0.28
660	-0.318
660	-0.342
661	-0.369
661	-0.398
661	-0.427
662	-0.455
662	-0.485
663	-0.518
663	-0.554
664	-0.588
664	-0.627
665	-0.672
665	-0.717
665	-0.761
666	-0.811
666	-0.866
667	-0.92
667	-0.981
668	-1.04
668	-1.109
669	-1.178
669	-1.252
669	-1.332
670	-1.418
670	-1.547
671	-1.771
671	-2.147
672	-2.361
672	-2.51
672	-2.623
673	-2.714
673	-2.791
674	-2.833
674	-2.846
675	-2.86
675	-2.863
676	-2.854
676	-2.788
676	-2.713
677	-2.619
677	-2.503
678	-2.323
678	-1.988
679	-1.66
679	-1.517
680	-1.421
680	-1.349
680	-1.286
681	-1.241
681	-1.19
682	-1.151
682	-1.109
683	-1.069
683	-1.046
684	-1.019
684	-0.999
684	-0.978
685	-0.959
685	-0.948
686	-0.927
686	-0.915
687	-0.905
687	-0.894
687	-0.894
688	-0.877
688	-0.871
689	-0.874
689	-0.872
690	-0.859
690	-0.848
691	-0.847
691	-0.851
691	-0.851
692	-0.851
692	-0.848
693	-0.855
693	-0.865
694	-0.846
694	-0.845
695	-0.848
695	-0.843
695	-0.849
696	-0.854
696	-0.848
697	-0.842
697	-0.836
698	-0.832
698	-0.824
698	-0.838
699	-0.836
699	-0.835
700	-0.855
700	-0.848
701	-0.836
701	-0.83
702	-0.83
702	-0.83
702	-0.828
703	-0.82
703	-0.808
704	-0.817
704	-0.822
705	-0.81
705	-0.81
705	-0.805
706	-0.796
706	-0.793
707	-0.805
707	-0.809
708	-0.807
708	-0.804
709	-0.806
709	-0.803
709	-0.799
710	-0.806
710	-0.809
711	-0.809
711	-0.811
712	-0.801
712	-0.797
713	-0.802
713	-0.805
713	-0.784
714	-0.786
714	-0.789
715	-0.781
715	-0.789
716	-0.806
716	-0.813
716	-0.814
717	-0.82
717	-0.812
718	-0.806
718	-0.806
719	-0.798
719	-0.793
720	-0.788
720	-0.782
720	-0.774
721	-0.767
721	-0.771
722	-0.769
722	-0.764
723	-0.781
723	-0.793
723	-0.804
724	-0.802
724	-0.807
725	-0.801
725	-0.805
726	-0.809
726	-0.798
727	-0.801
727	-0.809
727	-0.799
728	-0.789
728	-0.785
729	-0.787
729	-0.79
730	-0.797
730	-0.79
730	-0.794
731	-0.798
731	-0.797
732	-0.799
732	-0.793
733	-0.807
733	-0.814
734	-0.823
734	-0.814
734	-0.796
735	-0.785
735	-0.781
736	-0.781
736	-0.775
737	-0.774
737	-0.764
737	-0.754
738	-0.739
738	-0.73
739	-0.733
739	-0.732
740	-0.746
740	-0.746
741	-0.756
741	-0.767
741	-0.776
742	-0.785
742	-0.802
743	-0.809
743	-0.809
744	-0.812
744	-0.82
744	-0.813
745	-0.822
745	-0.81
746	-0.806
746	-0.797
747	-0.801
747	-0.789
748	-0.793
748	-0.797
748	-0.799
749	-0.792
749	-0.799
750	-0.79
750	-0.792
751	-0.789
751	-0.787
751	-0.797
752	-0.799
752	-0.801
753	-0.801
753	-0.793
754	-0.813
754	-0.813
754	-0.822
755	-0.822
755	-0.817
756	-0.82
756	-0.807
757	-0.801
757	-0.791
758	-0.793
758	-0.792
758	-0.788
759	-0.793
759	-0.792
760	-0.791
760	-0.793
761	-0.784
761	-0.788
761	-0.787
762	-0.792
762	-0.792
763	-0.792
763	-0.795
764	-0.793
764	-0.788
764	-0.793
765	-0.792
765	-0.799
766	-0.802
766	-0.804
767	-0.82
767	-0.816
768	-0.815
768	-0.808
768	-0.804
769	-0.807
769	-0.814
770	-0.825
770	-0.829
771	-0.825
771	-0.824
771	-0.829
772	-0.831
772	-0.851
773	-0.853
773	-0.855
774	-0.854
774	-0.837
775	-0.824
775	-0.823
775	-0.825
776	-0.836
776	-0.832
777	-0.834
777	-0.816
778	-0.826
778	-0.833
778	-0.832
779	-0.841
779	-0.855
780	-0.851
780	-0.861
781	-0.85
781	-0.84
781	-0.854
782	-0.875
782	-0.876
783	-0.874
783	-0.882
784	-0.883
784	-0.877
784	-0.898
785	-0.892
785	-0.905
786	-0.909
786	-0.902
787	-0.892
787	-0.901
788	-0.892
788	-0.887
788	-0.889
789	-0.888
789	-0.876
790	-0.876
790	-0.859
791	-0.866
791	-0.86
791	-0.853
792	-0.846
792	-0.852
793	-0.853
793	-0.842
794	-0.836
794	-0.83
794	-0.835
795	-0.855
795	-0.842
796	-0.846
796	-0.843
797	-0.837
797	-0.828
797	-0.823
798	-0.844
798	-0.85
799	-0.85
799	-0.837
800	-0.832
800	-0.84
801	-0.839
801	-0.842
801	-0.839
802	-0.837
802	-0.837
803	-0.831
803	-0.822
804	-0.828
804	-0.836
804	-0.819
805	-0.801
805	-0.792
806	-0.793
806	-0.79
807	-0.791
807	-0.791
807	-0.776
808	-0.772
808	-0.765
809	-0.76
809	-0.76
810	-0.765
810	-0.762
810	-0.757
811	-0.76
811	-0.752
812	-0.742
812	-0.742
813	-0.748
813	-0.748
813	-0.744
814	-0.745
814	-0.75
815	-0.741
815	-0.737
816	-0.732
816	-0.751
817	-0.765
817	-0.768
817	-0.776
818	-0.77
818	-0.767
819	-0.777
819	-0.775
820	-0.785
820	-0.787
820	-0.786
821	-0.781
821	-0.776
822	-0.775
822	-0.762
823	-0.773
823	-0.769
823	-0.764
824	-0.763
824	-0.775
825	-0.772
825	-0.77
826	-0.764
826	-0.759
826	-0.758
827	-0.761
827	-0.75
828	-0.751
828	-0.745
829	-0.739
829	-0.722
829	-0.718
830	-0.717
830	-0.704
831	-0.698
831	-0.69
832	-0.68
832	-0.677
832	-0.669
833	-0.666
833	-0.671
834	-0.667
834	-0.664
835	-0.656
835	-0.658
835	-0.652
836	-0.647
836	-0.643
837	-0.632
837	-0.623
838	-0.611
838	-0.595
839	-0.589
839	-0.576
839	-0.567
840	-0.563
840	-0.552
841	-0.542
841	-0.535
842	-0.526
842	-0.515
842	-0.513
843	-0.511
843	-0.507
844	-0.505
844	-0.493
845	-0.481
845	-0.473
845	-0.462
846	-0.452
846	-0.442
847	-0.432
847	-0.42
848	-0.404
848	-0.386
848	-0.373
849	-0.362
849	-0.35
850	-0.339
850	-0.33
851	-0.318
851	-0.301
851	-0.292
852	-0.276
852	-0.265
853	-0.256
853	-0.246
854	-0.234
854	-0.225
854	-0.213
855	-0.201
855	-0.194
856	-0.186
856	-0.178
857	-0.171
857	-0.163
857	-0.15
858	-0.14
858	-0.134
859	-0.124
859	-0.113
860	-0.104
860	-0.091
860	-0.082
861	-0.072
861	-0.063
862	-0.056
862	-0.049
863	-0.041
863	-0.033
863	-0.027
864	-0.022
864	-0.016
865	-0.01
865	-0.005
866	0
866	0.006
866	0.01
867	0.015
867	0.02
868	0.023
868	0.028
869	0.032
869	0.034
869	0.036
870	0.039
870	0.04
871	0.042
871	0.043
872	0.043
872	0.044
872	0.044
873	0.045
873	0.044
874	0.044
874	0.044
875	0.043
875	0.043
875	0.043
876	0.043
876	0.042
877	0.042
877	0.041
878	0.041
878	0.04
878	0.04
879	0.039
879	0.039
880	0.039
880	0.038
881	0.037
881	0.036
881	0.036
882	0.035
882	0.034
883	0.033
883	0.033
884	0.033
884	0.033
884	0.033
885	0.033
885	0.033
886	0.033
886	0.032
887	0.032
887	0.032
887	0.031
888	0.031
888	0.03
889	0.03
889	0.029
890	0.028
890	0.028
890	0.027
891	0.027
891	0.027
892	0.028
892	0.028
893	0.028
893	0.028
893	0.028
894	0.029
894	0.029
895	0.029
895	0.029
895	0.029
896	0.029
896	0.029
897	0.03
897	0.03
898	0.03
898	0.03
898	0.031
899	0.031
899	0.032
900	0.032
900	0.032
901	0.032
901	0.032
901	0.032
902	0.032
902	0.032
903	0.032
903	0.032
904	0.031
904	0.03
904	0.03
905	0.03
905	0.03
906	0.03
906	0.031
907	0.031
907	0.032
907	0.033
908	0.034
908	0.035
909	0.036
909	0.037
910	0.038
910	0.039
910	0.039
911	0.04
911	0.042
912	0.043
912	0.044
913	0.045
913	0.046
913	0.047
914	0.047
914	0.047
915	0.047
915	0.047
916	0.046
916	0.045
916	0.044
917	0.043
917	0.042
918	0.041
918	0.041
918	0.04
919	0.039
919	0.038
920	0.038
920	0.037
921	0.037
921	0.037
921	0.037
922	0.036
922	0.036
923	0.036
923	0.036
924	0.035
924	0.035
924	0.035
925	0.035
925	0.035
926	0.035
926	0.034
927	0.034
927	0.034
927	0.034
928	0.034
928	0.035
929	0.035
929	0.035
930	0.036
930	0.036
930	0.037
931	0.037
931	0.038
932	0.038
932	0.038
933	0.039
933	0.038
933	0.038
934	0.037
934	0.036
935	0.035
935	0.034
935	0.033
936	0.031
936	0.03
937	0.029
937	0.028
938	0.026
938	0.025
938	0.025
939	0.024
939	0.024
940	0.024
940	0.023
941	0.023
941	0.022
941	0.022
942	0.022
942	0.022
943	0.022
943	0.022
944	0.022
944	0.021
944	0.021
945	0.021
945	0.022
946	0.022
946	0.021
946	0.022
947	0.022
947	0.022
948	0.022
948	0.022
949	0.022
949	0.022
949	0.023
950	0.023
950	0.023
951	0.024
951	0.023
952	0.023
952	0.024
952	0.025
953	0.025
953	0.025
954	0.025
954	0.026
955	0.026
955	0.026
955	0.026
956	0.026
956	0.026
957	0.025
957	0.025
957	0.024
958	0.024
958	0.024
959	0.023
959	0.023
960	0.023
960	0.023
960	0.023
961	0.023
961	0.024
962	0.024
962	0.025
963	0.025
963	0.025
963	0.025
964	0.025
964	0.025
965	0.025
965	0.025
966	0.025
966	0.026
966	0.026
967	0.026
967	0.026
968	0.025
968	0.025
968	0.025
969	0.025
969	0.024
970	0.023
970	0.022
971	0.022
971	0.021
971	0.021
972	0.021
972	0.021
973	0.021
973	0.02
974	0.021
974	0.021
974	0.022
975	0.023
975	0.023
976	0.024
976	0.024
976	0.025
977	0.025
977	0.025
978	0.024
978	0.024
979	0.023
979	0.022
979	0.022
980	0.021
980	0.02
981	0.019
981	0.018
982	0.018
982	0.018
982	0.018
983	0.017
983	0.017
984	0.017
984	0.016
984	0.016
985	0.016
985	0.016
986	0.015
986	0.015
987	0.014
987	0.013
987	0.013
988	0.013
988	0.012
989	0.012
989	0.012
990	0.011
990	0.011
990	0.011
991	0.011
991	0.011
992	0.011
992	0.011
992	0.011
993	0.012
993	0.011
994	0.011
994	0.011
995	0.011
995	0.01
995	0.01
996	0.01
996	0.009
997	0.008
997	0.008
997	0.008
998	0.008
998	0.008
999	0.008
999	0.008
1000	0.008
1000	0.008
1000	0.007
1001	0.007
1001	0.008
1002	0.008
1002	0.008
1003	0.008
1003	0.007
1003	0.007
1004	0.006
1004	0.006
1005	0.005
1005	0.004
1005	0.004
1006	0.003
1006	0.002
1007	0.002
1007	0.001
1008	0.001
1008	0
1008	0
1009	0
1009	0.001
1010	0.001
1010	0.002
1010	0.002
1011	0.003
1011	0.003
1012	0.003
1012	0.004
1013	0.004
1013	0.004
1013	0.005
1014	0.005
1014	0.005
1015	0.005
1015	0.005
1016	0.005
1016	0.005
1016	0.005
1017	0.005
1017	0.005
1018	0.005
1018	0.005
1018	0.005
1019	0.005
1019	0.004
1020	0.004
1020	0.004
1021	0.004
1021	0.004
1021	0.003
1022	0.002
1022	0.002
1023	0.002
1023	0.002
1023	0.001
1024	0.001
1024	0.001
1025	0.001
1025	0
1026	0
1026	0.001
1026	0
1027	0
1027	0
1028	0
1028	0.001
1028	0.001
1029	0.001
1029	0.001
1030	0
1030	-0
1031	-0
1031	0
1031	0
1032	0
1032	0
1033	-0.001
1033	-0.001
1033	-0.001
1034	-0.001
1034	-0.002
1035	-0.002
1035	-0.002
1036	-0.003
1036	-0.003
1036	-0.003
1037	-0.003
1037	-0.002
1038	-0.002
1038	-0.002
1039	-0.001
1039	-0
1039	0
1040	0.001
1040	0.002
1041	0.002
1041	0.001
1041	0.001
1042	0.001
1042	0.001
1043	0.001
1043	-0
1044	-0
1044	-0.001
1044	-0.002
1045	-0.003
1045	-0.004
1046	-0.004
1046	-0.005
1046	-0.006
1047	-0.006
1047	-0.007
1048	-0.007
1048	-0.007
1049	-0.008
1049	-0.008
1049	-0.009
1050	-0.01
1050	-0.01
1051	-0.011
1051	-0.012
1051	-0.012
1052	-0.013
1052	-0.014
1053	-0.014
1053	-0.015
1053	-0.015
1054	-0.015
1054	-0.015
1055	-0.015
1055	-0.014
1056	-0.015
1056	-0.015
1056	-0.015
1057	-0.016
1057	-0.016
1058	-0.016
1058	-0.016
1058	-0.016
1059	-0.017
1059	-0.017
1060	-0.017
1060	-0.017
1061	-0.017
1061	-0.017
1061	-0.016
1062	-0.016
1062	-0.016
1063	-0.016
1063	-0.016
1063	-0.017
1064	-0.017
1064	-0.017
1065	-0.017
1065	-0.017
1066	-0.018
1066	-0.018
1066	-0.018
1067	-0.019
1067	-0.019
1068	-0.02
1068	-0.02
1068	-0.021
1069	-0.021
1069	-0.022
1070	-0.023
1070	-0.023
1071	-0.023
1071	-0.023
1071	-0.023
1072	-0.023
1072	-0.023
1073	-0.023
1073	-0.022
1073	-0.022
1074	-0.021
1074	-0.021
1075	-0.021
1075	-0.021
1076	-0.022
1076	-0.023
1076	-0.024
1077	-0.025
1077	-0.026
1078	-0.026
1078	-0.028
1078	-0.029
1079	-0.03
1079	-0.03
1080	-0.031
1080	-0.032
1080	-0.033
1081	-0.034
1081	-0.034
1082	-0.034
1082	-0.036
1083	-0.036
1083	-0.037
1083	-0.038
1084	-0.039
1084	-0.039
1085	-0.04
1085	-0.04
1085	-0.04
1086	-0.04
1086	-0.041
1087	-0.041
1087	-0.042
1088	-0.043
1088	-0.043
1088	-0.044
1089	-0.046
1089	-0.046
1090	-0.048
1090	-0.049
1090	-0.051
1091	-0.052
1091	-0.052
1092	-0.054
1092	-0.054
1092	-0.055
1093	-0.056
1093	-0.056
1094	-0.057
1094	-0.058
1095	-0.06
1095	-0.06
1095	-0.06
1096	-0.062
1096	-0.064
1097	-0.065
1097	-0.067
1097	-0.068
1098	-0.07
1098	-0.071
1099	-0.072
1099	-0.073
1100	-0.075
1100	-0.078
1100	-0.081
1101	-0.084
1101	-0.087
1102	-0.088
1102	-0.091
1102	-0.093
1103	-0.095
1103	-0.099
1104	-0.102
1104	-0.105
1104	-0.106
1105	-0.108
1105	-0.11
1106	-0.115
1106	-0.118
1107	-0.123
1107	-0.128
1107	-0.133
1108	-0.135
1108	-0.136
1109	-0.139
1109	-0.145
1109	-0.149
1110	-0.152
1110	-0.155
1111	-0.164
1111	-0.163
