Data from 3.4A_17C_Absorbance__481__01438.txt Node

Date: Tue Jun 20 15:55:20 CEST 2023
User: Marek
Spectrometer: MAYP115816
Trigger mode: 0
Integration Time (sec): 2.200000E-1
Scans to average: 10
Electric dark correction enabled: true
Nonlinearity correction enabled: true
Boxcar width: 5
XAxis mode: Wavelengths
Number of Pixels in Spectrum: 2068
>>>>>Begin Spectral Data<<<<<
199	-0.759
199	-0.749
200	-0.71
200	-0.656
201	-0.629
201	-0.618
202	-0.601
202	-0.594
203	-0.592
203	-0.584
204	-0.564
204	-0.548
205	-0.523
205	-0.515
205	-0.525
206	-0.526
206	-0.524
207	-0.516
207	-0.523
208	-0.523
208	-0.526
209	-0.527
209	-0.534
210	-0.548
210	-0.556
211	-0.549
211	-0.553
212	-0.56
212	-0.569
213	-0.565
213	-0.562
213	-0.562
214	-0.57
214	-0.571
215	-0.566
215	-0.57
216	-0.577
216	-0.582
217	-0.58
217	-0.581
218	-0.587
218	-0.589
219	-0.596
219	-0.598
220	-0.602
220	-0.61
221	-0.611
221	-0.614
221	-0.604
222	-0.605
222	-0.603
223	-0.601
223	-0.603
224	-0.603
224	-0.601
225	-0.599
225	-0.598
226	-0.6
226	-0.598
227	-0.606
227	-0.616
228	-0.618
228	-0.625
229	-0.629
229	-0.627
229	-0.626
230	-0.622
230	-0.619
231	-0.616
231	-0.61
232	-0.614
232	-0.609
233	-0.612
233	-0.6
234	-0.601
234	-0.594
235	-0.6
235	-0.612
236	-0.619
236	-0.62
236	-0.621
237	-0.618
237	-0.619
238	-0.617
238	-0.618
239	-0.62
239	-0.63
240	-0.622
240	-0.617
241	-0.61
241	-0.613
242	-0.615
242	-0.623
243	-0.623
243	-0.627
243	-0.631
244	-0.628
244	-0.63
245	-0.633
245	-0.637
246	-0.648
246	-0.65
247	-0.659
247	-0.646
248	-0.644
248	-0.647
249	-0.653
249	-0.656
250	-0.656
250	-0.665
250	-0.662
251	-0.662
251	-0.661
252	-0.663
252	-0.674
253	-0.671
253	-0.684
254	-0.688
254	-0.688
255	-0.696
255	-0.695
256	-0.697
256	-0.71
257	-0.719
257	-0.713
258	-0.713
258	-0.72
258	-0.716
259	-0.71
259	-0.728
260	-0.728
260	-0.715
261	-0.728
261	-0.714
262	-0.72
262	-0.719
263	-0.711
263	-0.716
264	-0.724
264	-0.724
265	-0.716
265	-0.72
265	-0.731
266	-0.721
266	-0.722
267	-0.721
267	-0.738
268	-0.747
268	-0.741
269	-0.734
269	-0.749
270	-0.753
270	-0.751
271	-0.764
271	-0.774
272	-0.774
272	-0.777
272	-0.769
273	-0.779
273	-0.794
274	-0.784
274	-0.778
275	-0.775
275	-0.762
276	-0.767
276	-0.772
277	-0.774
277	-0.772
278	-0.775
278	-0.774
278	-0.763
279	-0.772
279	-0.785
280	-0.789
280	-0.8
281	-0.791
281	-0.783
282	-0.79
282	-0.785
283	-0.778
283	-0.791
284	-0.804
284	-0.816
285	-0.795
285	-0.8
285	-0.792
286	-0.798
286	-0.814
287	-0.81
287	-0.807
288	-0.807
288	-0.791
289	-0.791
289	-0.798
290	-0.808
290	-0.798
291	-0.802
291	-0.8
292	-0.78
292	-0.775
292	-0.779
293	-0.767
293	-0.762
294	-0.761
294	-0.747
295	-0.728
295	-0.74
296	-0.751
296	-0.744
297	-0.734
297	-0.74
298	-0.738
298	-0.755
298	-0.76
299	-0.741
299	-0.736
300	-0.732
300	-0.713
301	-0.695
301	-0.698
302	-0.708
302	-0.694
303	-0.687
303	-0.675
304	-0.658
304	-0.662
305	-0.653
305	-0.662
305	-0.674
306	-0.659
306	-0.658
307	-0.65
307	-0.662
308	-0.665
308	-0.66
309	-0.662
309	-0.657
310	-0.655
310	-0.649
311	-0.637
311	-0.655
311	-0.643
312	-0.64
312	-0.63
313	-0.62
313	-0.622
314	-0.626
314	-0.624
315	-0.62
315	-0.615
316	-0.61
316	-0.599
317	-0.592
317	-0.588
318	-0.578
318	-0.576
318	-0.566
319	-0.556
319	-0.549
320	-0.547
320	-0.546
321	-0.54
321	-0.539
322	-0.535
322	-0.528
323	-0.53
323	-0.522
324	-0.517
324	-0.504
324	-0.493
325	-0.48
325	-0.464
326	-0.457
326	-0.432
327	-0.417
327	-0.396
328	-0.363
328	-0.341
329	-0.314
329	-0.288
330	-0.261
330	-0.226
330	-0.191
331	-0.154
331	-0.121
332	-0.087
332	-0.053
333	-0.024
333	0.009
334	0.035
334	0.061
335	0.087
335	0.108
336	0.13
336	0.149
336	0.165
337	0.182
337	0.198
338	0.21
338	0.22
339	0.233
339	0.244
340	0.251
340	0.259
341	0.265
341	0.271
342	0.278
342	0.284
342	0.288
343	0.291
343	0.296
344	0.299
344	0.302
345	0.305
345	0.307
346	0.309
346	0.311
347	0.312
347	0.313
348	0.314
348	0.316
348	0.316
349	0.317
349	0.318
350	0.318
350	0.319
351	0.32
351	0.32
352	0.32
352	0.32
353	0.321
353	0.321
354	0.321
354	0.321
354	0.321
355	0.321
355	0.321
356	0.321
356	0.321
357	0.32
357	0.32
358	0.32
358	0.32
359	0.32
359	0.32
360	0.32
360	0.32
360	0.32
361	0.32
361	0.32
362	0.321
362	0.321
363	0.321
363	0.321
364	0.321
364	0.321
365	0.321
365	0.32
366	0.32
366	0.32
366	0.32
367	0.32
367	0.32
368	0.319
368	0.319
369	0.319
369	0.319
370	0.319
370	0.319
371	0.318
371	0.318
372	0.318
372	0.317
372	0.317
373	0.317
373	0.317
374	0.317
374	0.317
375	0.316
375	0.316
376	0.316
376	0.316
377	0.316
377	0.315
378	0.315
378	0.314
378	0.314
379	0.314
379	0.314
380	0.314
380	0.313
381	0.313
381	0.313
382	0.313
382	0.312
383	0.312
383	0.312
383	0.312
384	0.311
384	0.311
385	0.31
385	0.31
386	0.31
386	0.31
387	0.31
387	0.309
388	0.309
388	0.309
389	0.309
389	0.308
389	0.308
390	0.308
390	0.308
391	0.308
391	0.308
392	0.307
392	0.307
393	0.307
393	0.307
394	0.307
394	0.306
394	0.306
395	0.306
395	0.305
396	0.305
396	0.305
397	0.305
397	0.304
398	0.304
398	0.304
399	0.303
399	0.303
400	0.303
400	0.303
400	0.303
401	0.302
401	0.302
402	0.302
402	0.301
403	0.301
403	0.301
404	0.301
404	0.3
405	0.3
405	0.299
405	0.299
406	0.299
406	0.299
407	0.298
407	0.298
408	0.297
408	0.297
409	0.297
409	0.297
410	0.297
410	0.297
411	0.297
411	0.297
411	0.296
412	0.296
412	0.296
413	0.296
413	0.296
414	0.295
414	0.295
415	0.295
415	0.295
416	0.294
416	0.294
416	0.294
417	0.294
417	0.293
418	0.294
418	0.294
419	0.294
419	0.294
420	0.294
420	0.294
421	0.293
421	0.293
421	0.293
422	0.293
422	0.294
423	0.293
423	0.293
424	0.293
424	0.292
425	0.293
425	0.292
426	0.292
426	0.292
427	0.292
427	0.292
427	0.292
428	0.292
428	0.292
429	0.291
429	0.291
430	0.29
430	0.29
431	0.29
431	0.29
432	0.289
432	0.289
432	0.288
433	0.288
433	0.288
434	0.289
434	0.289
435	0.289
435	0.289
436	0.289
436	0.289
437	0.289
437	0.289
437	0.289
438	0.288
438	0.288
439	0.288
439	0.288
440	0.287
440	0.287
441	0.287
441	0.287
442	0.287
442	0.287
442	0.287
443	0.287
443	0.287
444	0.288
444	0.288
445	0.288
445	0.288
446	0.288
446	0.287
447	0.287
447	0.287
447	0.287
448	0.287
448	0.287
449	0.287
449	0.287
450	0.287
450	0.287
451	0.287
451	0.287
452	0.288
452	0.287
452	0.288
453	0.288
453	0.288
454	0.288
454	0.288
455	0.288
455	0.288
456	0.288
456	0.288
457	0.287
457	0.287
458	0.287
458	0.287
458	0.288
459	0.288
459	0.287
460	0.287
460	0.287
461	0.288
461	0.288
462	0.289
462	0.29
463	0.29
463	0.291
463	0.291
464	0.291
464	0.292
465	0.292
465	0.293
466	0.293
466	0.294
467	0.294
467	0.294
467	0.294
468	0.294
468	0.294
469	0.294
469	0.295
470	0.295
470	0.295
471	0.296
471	0.296
472	0.296
472	0.296
472	0.297
473	0.298
473	0.298
474	0.299
474	0.299
475	0.3
475	0.301
476	0.301
476	0.302
477	0.303
477	0.304
477	0.305
478	0.305
478	0.306
479	0.307
479	0.308
480	0.309
480	0.31
481	0.31
481	0.311
482	0.312
482	0.313
482	0.314
483	0.315
483	0.317
484	0.318
484	0.318
485	0.319
485	0.32
486	0.321
486	0.322
487	0.323
487	0.324
487	0.325
488	0.326
488	0.327
489	0.329
489	0.331
490	0.332
490	0.334
491	0.336
491	0.337
492	0.339
492	0.34
492	0.342
493	0.343
493	0.345
494	0.347
494	0.349
495	0.351
495	0.352
496	0.354
496	0.356
496	0.358
497	0.36
497	0.362
498	0.364
498	0.365
499	0.367
499	0.37
500	0.373
500	0.375
501	0.377
501	0.379
501	0.381
502	0.384
502	0.386
503	0.388
503	0.39
504	0.392
504	0.395
505	0.397
505	0.399
506	0.402
506	0.405
506	0.407
507	0.41
507	0.413
508	0.415
508	0.418
509	0.421
509	0.423
510	0.426
510	0.428
511	0.43
511	0.432
511	0.434
512	0.437
512	0.439
513	0.441
513	0.443
514	0.445
514	0.448
515	0.45
515	0.452
515	0.453
516	0.456
516	0.458
517	0.461
517	0.462
518	0.464
518	0.465
519	0.467
519	0.469
520	0.47
520	0.472
520	0.473
521	0.474
521	0.475
522	0.476
522	0.478
523	0.479
523	0.48
524	0.48
524	0.481
524	0.482
525	0.484
525	0.484
526	0.485
526	0.485
527	0.486
527	0.486
528	0.486
528	0.486
529	0.486
529	0.486
529	0.485
530	0.485
530	0.485
531	0.484
531	0.484
532	0.484
532	0.484
533	0.483
533	0.483
533	0.482
534	0.481
534	0.48
535	0.479
535	0.478
536	0.477
536	0.475
537	0.474
537	0.473
538	0.472
538	0.471
538	0.469
539	0.468
539	0.467
540	0.465
540	0.463
541	0.461
541	0.459
542	0.457
542	0.455
542	0.453
543	0.451
543	0.449
544	0.446
544	0.444
545	0.442
545	0.44
546	0.438
546	0.436
547	0.433
547	0.43
547	0.428
548	0.426
548	0.424
549	0.421
549	0.419
550	0.417
550	0.414
551	0.411
551	0.408
551	0.405
552	0.403
552	0.4
553	0.397
553	0.395
554	0.392
554	0.389
555	0.386
555	0.384
556	0.381
556	0.379
556	0.376
557	0.374
557	0.372
558	0.37
558	0.367
559	0.365
559	0.363
560	0.361
560	0.358
560	0.356
561	0.355
561	0.353
562	0.351
562	0.348
563	0.346
563	0.344
564	0.342
564	0.341
564	0.339
565	0.338
565	0.336
566	0.334
566	0.332
567	0.33
567	0.329
568	0.327
568	0.324
568	0.322
569	0.32
569	0.317
570	0.314
570	0.311
571	0.31
571	0.308
572	0.306
572	0.304
573	0.302
573	0.3
573	0.298
574	0.296
574	0.295
575	0.294
575	0.294
576	0.293
576	0.29
577	0.288
577	0.287
577	0.286
578	0.285
578	0.284
579	0.284
579	0.283
580	0.281
580	0.278
581	0.276
581	0.274
581	0.274
582	0.274
582	0.273
583	0.272
583	0.27
584	0.267
584	0.264
585	0.264
585	0.264
585	0.263
586	0.262
586	0.26
587	0.258
587	0.256
588	0.254
588	0.253
589	0.253
589	0.252
590	0.251
590	0.25
590	0.25
591	0.25
591	0.249
592	0.248
592	0.246
593	0.246
593	0.245
594	0.243
594	0.242
594	0.241
595	0.24
595	0.238
596	0.237
596	0.237
597	0.238
597	0.237
598	0.237
598	0.236
598	0.236
599	0.236
599	0.235
600	0.234
600	0.233
601	0.233
601	0.233
602	0.231
602	0.231
602	0.229
603	0.229
603	0.229
604	0.229
604	0.228
605	0.228
605	0.227
606	0.226
606	0.225
606	0.224
607	0.223
607	0.222
608	0.221
608	0.219
609	0.218
609	0.218
610	0.217
610	0.215
610	0.215
611	0.215
611	0.215
612	0.215
612	0.215
613	0.215
613	0.215
614	0.214
614	0.213
614	0.212
615	0.211
615	0.21
616	0.209
616	0.208
617	0.208
617	0.207
618	0.206
618	0.205
618	0.204
619	0.203
619	0.204
620	0.204
620	0.203
621	0.202
621	0.201
622	0.2
622	0.199
622	0.197
623	0.196
623	0.196
624	0.195
624	0.194
625	0.192
625	0.191
626	0.19
626	0.189
626	0.189
627	0.188
627	0.187
628	0.186
628	0.185
629	0.184
629	0.183
630	0.182
630	0.18
630	0.179
631	0.178
631	0.176
632	0.174
632	0.172
633	0.171
633	0.169
634	0.167
634	0.165
634	0.163
635	0.161
635	0.159
636	0.157
636	0.154
637	0.151
637	0.148
638	0.146
638	0.143
638	0.14
639	0.137
639	0.133
640	0.13
640	0.126
641	0.123
641	0.12
642	0.116
642	0.113
642	0.109
643	0.105
643	0.101
644	0.096
644	0.092
645	0.087
645	0.082
646	0.077
646	0.071
646	0.065
647	0.059
647	0.053
648	0.046
648	0.04
649	0.034
649	0.027
650	0.021
650	0.014
650	0.007
651	-0.001
651	-0.012
652	-0.024
652	-0.038
653	-0.05
653	-0.06
653	-0.056
654	-0.038
654	-0.034
655	-0.039
655	-0.044
656	-0.049
656	-0.056
657	-0.06
657	-0.065
657	-0.072
658	-0.079
658	-0.109
659	-0.192
659	-0.279
660	-0.318
660	-0.344
661	-0.372
661	-0.401
661	-0.432
662	-0.46
662	-0.491
663	-0.526
663	-0.564
664	-0.601
664	-0.641
665	-0.688
665	-0.737
665	-0.783
666	-0.833
666	-0.89
667	-0.945
667	-1.008
668	-1.069
668	-1.139
669	-1.209
669	-1.283
669	-1.362
670	-1.444
670	-1.556
671	-1.724
671	-2.065
672	-2.311
672	-2.473
672	-2.594
673	-2.69
673	-2.77
674	-2.827
674	-2.843
675	-2.858
675	-2.862
676	-2.859
676	-2.811
676	-2.74
677	-2.654
677	-2.55
678	-2.393
678	-2.129
679	-1.759
679	-1.593
680	-1.489
680	-1.411
680	-1.344
681	-1.295
681	-1.242
682	-1.199
682	-1.155
683	-1.111
683	-1.086
684	-1.056
684	-1.037
684	-1.014
685	-0.993
685	-0.982
686	-0.958
686	-0.944
687	-0.934
687	-0.922
687	-0.921
688	-0.904
688	-0.895
689	-0.898
689	-0.892
690	-0.877
690	-0.866
691	-0.862
691	-0.865
691	-0.865
692	-0.864
692	-0.863
693	-0.869
693	-0.88
694	-0.858
694	-0.858
695	-0.859
695	-0.854
695	-0.861
696	-0.868
696	-0.861
697	-0.855
697	-0.85
698	-0.845
698	-0.838
698	-0.853
699	-0.85
699	-0.852
700	-0.871
700	-0.866
701	-0.852
701	-0.846
702	-0.846
702	-0.844
702	-0.843
703	-0.833
703	-0.821
704	-0.83
704	-0.833
705	-0.822
705	-0.82
705	-0.814
706	-0.806
706	-0.802
707	-0.815
707	-0.819
708	-0.816
708	-0.813
709	-0.813
709	-0.808
709	-0.804
710	-0.811
710	-0.814
711	-0.814
711	-0.814
712	-0.804
712	-0.801
713	-0.807
713	-0.809
713	-0.788
714	-0.791
714	-0.794
715	-0.787
715	-0.795
716	-0.811
716	-0.821
716	-0.822
717	-0.828
717	-0.82
718	-0.813
718	-0.814
719	-0.809
719	-0.801
720	-0.796
720	-0.791
720	-0.784
721	-0.776
721	-0.78
722	-0.779
722	-0.775
723	-0.793
723	-0.805
723	-0.814
724	-0.813
724	-0.816
725	-0.81
725	-0.815
726	-0.817
726	-0.807
727	-0.807
727	-0.815
727	-0.807
728	-0.795
728	-0.791
729	-0.793
729	-0.797
730	-0.801
730	-0.793
730	-0.799
731	-0.804
731	-0.805
732	-0.807
732	-0.801
733	-0.816
733	-0.821
734	-0.829
734	-0.819
734	-0.802
735	-0.791
735	-0.785
736	-0.782
736	-0.777
737	-0.776
737	-0.765
737	-0.755
738	-0.741
738	-0.73
739	-0.734
739	-0.738
740	-0.753
740	-0.752
741	-0.763
741	-0.773
741	-0.781
742	-0.79
742	-0.806
743	-0.814
743	-0.817
744	-0.82
744	-0.827
744	-0.818
745	-0.829
745	-0.818
746	-0.813
746	-0.805
747	-0.809
747	-0.798
748	-0.799
748	-0.804
748	-0.803
749	-0.797
749	-0.805
750	-0.793
750	-0.793
751	-0.793
751	-0.79
751	-0.801
752	-0.804
752	-0.807
753	-0.807
753	-0.8
754	-0.817
754	-0.816
754	-0.826
755	-0.826
755	-0.819
756	-0.821
756	-0.806
757	-0.8
757	-0.789
758	-0.791
758	-0.79
758	-0.787
759	-0.791
759	-0.79
760	-0.788
760	-0.789
761	-0.783
761	-0.789
761	-0.788
762	-0.794
762	-0.794
763	-0.796
763	-0.801
764	-0.798
764	-0.792
764	-0.797
765	-0.796
765	-0.801
766	-0.802
766	-0.804
767	-0.822
767	-0.817
768	-0.814
768	-0.806
768	-0.803
769	-0.809
769	-0.817
770	-0.827
770	-0.831
771	-0.828
771	-0.828
771	-0.831
772	-0.835
772	-0.857
773	-0.857
773	-0.856
774	-0.855
774	-0.837
775	-0.826
775	-0.827
775	-0.831
776	-0.84
776	-0.837
777	-0.836
777	-0.818
778	-0.826
778	-0.835
778	-0.834
779	-0.843
779	-0.859
780	-0.856
780	-0.865
781	-0.853
781	-0.842
781	-0.856
782	-0.877
782	-0.879
783	-0.877
783	-0.886
784	-0.891
784	-0.883
784	-0.9
785	-0.893
785	-0.907
786	-0.911
786	-0.904
787	-0.893
787	-0.902
788	-0.895
788	-0.889
788	-0.891
789	-0.89
789	-0.881
790	-0.88
790	-0.861
791	-0.869
791	-0.865
791	-0.86
792	-0.853
792	-0.857
793	-0.859
793	-0.845
794	-0.837
794	-0.831
794	-0.839
795	-0.862
795	-0.848
796	-0.854
796	-0.849
797	-0.841
797	-0.832
797	-0.827
798	-0.848
798	-0.852
799	-0.852
799	-0.836
800	-0.83
800	-0.839
801	-0.833
801	-0.839
801	-0.835
802	-0.835
802	-0.833
803	-0.827
803	-0.82
804	-0.826
804	-0.834
804	-0.818
805	-0.798
805	-0.793
806	-0.794
806	-0.793
807	-0.793
807	-0.792
807	-0.776
808	-0.773
808	-0.765
809	-0.759
809	-0.759
810	-0.762
810	-0.757
810	-0.752
811	-0.754
811	-0.746
812	-0.739
812	-0.74
813	-0.744
813	-0.746
813	-0.743
814	-0.745
814	-0.751
815	-0.745
815	-0.741
816	-0.737
816	-0.753
817	-0.767
817	-0.771
817	-0.78
818	-0.773
818	-0.769
819	-0.78
819	-0.778
820	-0.786
820	-0.786
820	-0.785
821	-0.782
821	-0.776
822	-0.776
822	-0.763
823	-0.775
823	-0.776
823	-0.769
824	-0.766
824	-0.778
825	-0.778
825	-0.777
826	-0.773
826	-0.769
826	-0.768
827	-0.768
827	-0.757
828	-0.757
828	-0.752
829	-0.746
829	-0.73
829	-0.726
830	-0.723
830	-0.708
831	-0.703
831	-0.692
832	-0.683
832	-0.677
832	-0.669
833	-0.667
833	-0.671
834	-0.666
834	-0.659
835	-0.651
835	-0.651
835	-0.644
836	-0.639
836	-0.636
837	-0.628
837	-0.618
838	-0.607
838	-0.59
839	-0.584
839	-0.573
839	-0.564
840	-0.564
840	-0.555
841	-0.545
841	-0.536
842	-0.529
842	-0.518
842	-0.514
843	-0.512
843	-0.508
844	-0.505
844	-0.494
845	-0.476
845	-0.466
845	-0.457
846	-0.446
846	-0.436
847	-0.424
847	-0.413
848	-0.397
848	-0.379
848	-0.365
849	-0.352
849	-0.341
850	-0.332
850	-0.322
851	-0.31
851	-0.293
851	-0.285
852	-0.269
852	-0.257
853	-0.249
853	-0.238
854	-0.228
854	-0.218
854	-0.207
855	-0.195
855	-0.186
856	-0.178
856	-0.169
857	-0.161
857	-0.154
857	-0.141
858	-0.132
858	-0.125
859	-0.115
859	-0.104
860	-0.095
860	-0.081
860	-0.072
861	-0.062
861	-0.053
862	-0.045
862	-0.037
863	-0.029
863	-0.019
863	-0.013
864	-0.007
864	-0.001
865	0.005
865	0.01
866	0.015
866	0.02
866	0.025
867	0.03
867	0.035
868	0.039
868	0.043
869	0.048
869	0.051
869	0.053
870	0.055
870	0.057
871	0.058
871	0.058
872	0.059
872	0.059
872	0.059
873	0.06
873	0.06
874	0.059
874	0.059
875	0.059
875	0.06
875	0.06
876	0.06
876	0.06
877	0.06
877	0.06
878	0.059
878	0.059
878	0.058
879	0.058
879	0.057
880	0.056
880	0.054
881	0.052
881	0.051
881	0.05
882	0.048
882	0.047
883	0.047
883	0.046
884	0.046
884	0.047
884	0.047
885	0.048
885	0.048
886	0.049
886	0.049
887	0.049
887	0.049
887	0.049
888	0.049
888	0.048
889	0.048
889	0.047
890	0.046
890	0.045
890	0.045
891	0.045
891	0.044
892	0.045
892	0.045
893	0.046
893	0.046
893	0.046
894	0.047
894	0.047
895	0.047
895	0.047
895	0.047
896	0.048
896	0.048
897	0.048
897	0.048
898	0.048
898	0.048
898	0.048
899	0.048
899	0.048
900	0.048
900	0.048
901	0.047
901	0.047
901	0.047
902	0.047
902	0.047
903	0.047
903	0.047
904	0.046
904	0.046
904	0.046
905	0.046
905	0.046
906	0.046
906	0.046
907	0.047
907	0.047
907	0.048
908	0.048
908	0.049
909	0.05
909	0.05
910	0.051
910	0.052
910	0.052
911	0.053
911	0.054
912	0.055
912	0.056
913	0.057
913	0.057
913	0.058
914	0.059
914	0.059
915	0.059
915	0.058
916	0.058
916	0.058
916	0.057
917	0.057
917	0.056
918	0.055
918	0.055
918	0.055
919	0.054
919	0.054
920	0.054
920	0.053
921	0.053
921	0.053
921	0.053
922	0.053
922	0.053
923	0.052
923	0.052
924	0.052
924	0.052
924	0.052
925	0.052
925	0.051
926	0.051
926	0.05
927	0.05
927	0.05
927	0.049
928	0.049
928	0.049
929	0.05
929	0.05
930	0.05
930	0.05
930	0.051
931	0.051
931	0.052
932	0.053
932	0.053
933	0.053
933	0.052
933	0.052
934	0.051
934	0.05
935	0.049
935	0.047
935	0.045
936	0.044
936	0.042
937	0.041
937	0.04
938	0.039
938	0.038
938	0.038
939	0.038
939	0.037
940	0.037
940	0.037
941	0.037
941	0.036
941	0.037
942	0.036
942	0.036
943	0.036
943	0.036
944	0.035
944	0.034
944	0.034
945	0.034
945	0.034
946	0.034
946	0.033
946	0.033
947	0.034
947	0.033
948	0.034
948	0.035
949	0.035
949	0.036
949	0.036
950	0.037
950	0.038
951	0.038
951	0.039
952	0.039
952	0.04
952	0.04
953	0.04
953	0.04
954	0.04
954	0.039
955	0.039
955	0.039
955	0.039
956	0.038
956	0.038
957	0.037
957	0.037
957	0.036
958	0.036
958	0.036
959	0.035
959	0.035
960	0.036
960	0.036
960	0.036
961	0.037
961	0.037
962	0.038
962	0.039
963	0.039
963	0.04
963	0.04
964	0.041
964	0.041
965	0.041
965	0.042
966	0.041
966	0.041
966	0.041
967	0.041
967	0.04
968	0.04
968	0.04
968	0.039
969	0.039
969	0.039
970	0.038
970	0.038
971	0.038
971	0.038
971	0.038
972	0.039
972	0.039
973	0.039
973	0.039
974	0.039
974	0.04
974	0.04
975	0.04
975	0.04
976	0.04
976	0.04
976	0.04
977	0.039
977	0.039
978	0.038
978	0.037
979	0.036
979	0.036
979	0.035
980	0.034
980	0.034
981	0.033
981	0.033
982	0.033
982	0.033
982	0.033
983	0.033
983	0.032
984	0.032
984	0.032
984	0.031
985	0.031
985	0.031
986	0.03
986	0.029
987	0.028
987	0.027
987	0.026
988	0.026
988	0.025
989	0.024
989	0.024
990	0.024
990	0.023
990	0.023
991	0.024
991	0.024
992	0.025
992	0.025
992	0.025
993	0.026
993	0.026
994	0.025
994	0.025
995	0.025
995	0.024
995	0.023
996	0.023
996	0.022
997	0.021
997	0.021
997	0.02
998	0.02
998	0.021
999	0.021
999	0.021
1000	0.021
1000	0.021
1000	0.021
1001	0.021
1001	0.021
1002	0.021
1002	0.021
1003	0.021
1003	0.02
1003	0.019
1004	0.018
1004	0.016
1005	0.016
1005	0.014
1005	0.013
1006	0.012
1006	0.011
1007	0.011
1007	0.01
1008	0.009
1008	0.009
1008	0.009
1009	0.01
1009	0.01
1010	0.01
1010	0.01
1010	0.011
1011	0.012
1011	0.012
1012	0.013
1012	0.014
1013	0.015
1013	0.015
1013	0.016
1014	0.017
1014	0.018
1015	0.018
1015	0.019
1016	0.02
1016	0.02
1016	0.02
1017	0.02
1017	0.02
1018	0.02
1018	0.019
1018	0.019
1019	0.019
1019	0.018
1020	0.018
1020	0.017
1021	0.017
1021	0.016
1021	0.016
1022	0.016
1022	0.015
1023	0.016
1023	0.016
1023	0.016
1024	0.016
1024	0.016
1025	0.016
1025	0.016
1026	0.016
1026	0.016
1026	0.016
1027	0.016
1027	0.016
1028	0.016
1028	0.016
1028	0.016
1029	0.015
1029	0.015
1030	0.014
1030	0.013
1031	0.013
1031	0.013
1031	0.013
1032	0.012
1032	0.012
1033	0.01
1033	0.01
1033	0.01
1034	0.01
1034	0.009
1035	0.01
1035	0.009
1036	0.009
1036	0.009
1036	0.009
1037	0.009
1037	0.009
1038	0.01
1038	0.01
1039	0.011
1039	0.011
1039	0.012
1040	0.013
1040	0.013
1041	0.014
1041	0.014
1041	0.014
1042	0.014
1042	0.014
1043	0.014
1043	0.014
1044	0.013
1044	0.012
1044	0.012
1045	0.011
1045	0.011
1046	0.01
1046	0.01
1046	0.01
1047	0.01
1047	0.009
1048	0.01
1048	0.009
1049	0.009
1049	0.008
1049	0.008
1050	0.007
1050	0.006
1051	0.005
1051	0.004
1051	0.004
1052	0.003
1052	0.002
1053	0.001
1053	0.001
1053	0.001
1054	0
1054	-0
1055	0
1055	0
1056	0
1056	0
1056	-0
1057	-0
1057	-0
1058	-0
1058	-0.001
1058	-0.001
1059	-0.001
1059	-0.001
1060	-0.002
1060	-0.002
1061	-0.002
1061	-0.002
1061	-0.002
1062	-0.002
1062	-0.002
1063	-0.003
1063	-0.004
1063	-0.004
1064	-0.004
1064	-0.005
1065	-0.005
1065	-0.006
1066	-0.006
1066	-0.007
1066	-0.008
1067	-0.008
1067	-0.009
1068	-0.009
1068	-0.01
1068	-0.01
1069	-0.011
1069	-0.012
1070	-0.012
1070	-0.013
1071	-0.013
1071	-0.013
1071	-0.013
1072	-0.013
1072	-0.013
1073	-0.013
1073	-0.012
1073	-0.012
1074	-0.012
1074	-0.011
1075	-0.011
1075	-0.012
1076	-0.013
1076	-0.013
1076	-0.014
1077	-0.014
1077	-0.015
1078	-0.016
1078	-0.017
1078	-0.018
1079	-0.018
1079	-0.019
1080	-0.02
1080	-0.02
1080	-0.022
1081	-0.023
1081	-0.023
1082	-0.024
1082	-0.026
1083	-0.027
1083	-0.028
1083	-0.029
1084	-0.031
1084	-0.031
1085	-0.033
1085	-0.033
1085	-0.034
1086	-0.035
1086	-0.036
1087	-0.037
1087	-0.037
1088	-0.038
1088	-0.039
1088	-0.039
1089	-0.041
1089	-0.042
1090	-0.043
1090	-0.044
1090	-0.046
1091	-0.047
1091	-0.047
1092	-0.048
1092	-0.048
1092	-0.05
1093	-0.051
1093	-0.05
1094	-0.051
1094	-0.052
1095	-0.053
1095	-0.053
1095	-0.053
1096	-0.055
1096	-0.057
1097	-0.057
1097	-0.059
1097	-0.06
1098	-0.062
1098	-0.063
1099	-0.065
1099	-0.066
1100	-0.068
1100	-0.071
1100	-0.074
1101	-0.076
1101	-0.078
1102	-0.08
1102	-0.083
1102	-0.085
1103	-0.088
1103	-0.09
1104	-0.093
1104	-0.097
1104	-0.099
1105	-0.1
1105	-0.103
1106	-0.11
1106	-0.112
1107	-0.117
1107	-0.122
1107	-0.126
1108	-0.128
1108	-0.13
1109	-0.133
1109	-0.137
1109	-0.142
1110	-0.144
1110	-0.146
1111	-0.155
1111	-0.153
