Data from 3.4A_17C_Absorbance__578__01535.txt Node

Date: Tue Jun 20 15:58:53 CEST 2023
User: Marek
Spectrometer: MAYP115816
Trigger mode: 0
Integration Time (sec): 2.200000E-1
Scans to average: 10
Electric dark correction enabled: true
Nonlinearity correction enabled: true
Boxcar width: 5
XAxis mode: Wavelengths
Number of Pixels in Spectrum: 2068
>>>>>Begin Spectral Data<<<<<
199	-0.766
199	-0.746
200	-0.715
200	-0.66
201	-0.63
201	-0.622
202	-0.605
202	-0.598
203	-0.598
203	-0.591
204	-0.571
204	-0.556
205	-0.533
205	-0.523
205	-0.532
206	-0.535
206	-0.532
207	-0.524
207	-0.531
208	-0.531
208	-0.536
209	-0.537
209	-0.542
210	-0.556
210	-0.563
211	-0.556
211	-0.561
212	-0.568
212	-0.575
213	-0.571
213	-0.565
213	-0.563
214	-0.571
214	-0.575
215	-0.572
215	-0.576
216	-0.584
216	-0.588
217	-0.586
217	-0.588
218	-0.598
218	-0.6
219	-0.606
219	-0.607
220	-0.611
220	-0.616
221	-0.618
221	-0.619
221	-0.61
222	-0.61
222	-0.609
223	-0.603
223	-0.607
224	-0.608
224	-0.606
225	-0.603
225	-0.604
226	-0.604
226	-0.604
227	-0.612
227	-0.622
228	-0.626
228	-0.635
229	-0.64
229	-0.638
229	-0.637
230	-0.633
230	-0.63
231	-0.627
231	-0.622
232	-0.623
232	-0.616
233	-0.615
233	-0.603
234	-0.602
234	-0.596
235	-0.602
235	-0.613
236	-0.622
236	-0.623
236	-0.623
237	-0.623
237	-0.625
238	-0.625
238	-0.626
239	-0.629
239	-0.638
240	-0.63
240	-0.625
241	-0.619
241	-0.622
242	-0.625
242	-0.633
243	-0.633
243	-0.637
243	-0.642
244	-0.639
244	-0.64
245	-0.643
245	-0.646
246	-0.657
246	-0.66
247	-0.668
247	-0.655
248	-0.656
248	-0.658
249	-0.663
249	-0.664
250	-0.664
250	-0.673
250	-0.672
251	-0.672
251	-0.669
252	-0.669
252	-0.679
253	-0.673
253	-0.686
254	-0.691
254	-0.694
255	-0.702
255	-0.701
256	-0.703
256	-0.717
257	-0.726
257	-0.724
258	-0.728
258	-0.736
258	-0.733
259	-0.726
259	-0.744
260	-0.744
260	-0.732
261	-0.742
261	-0.727
262	-0.732
262	-0.731
263	-0.721
263	-0.725
264	-0.733
264	-0.732
265	-0.724
265	-0.727
265	-0.737
266	-0.729
266	-0.73
267	-0.728
267	-0.743
268	-0.751
268	-0.744
269	-0.737
269	-0.753
270	-0.756
270	-0.756
271	-0.769
271	-0.779
272	-0.78
272	-0.783
272	-0.777
273	-0.787
273	-0.803
274	-0.794
274	-0.79
275	-0.786
275	-0.773
276	-0.776
276	-0.781
277	-0.784
277	-0.782
278	-0.785
278	-0.784
278	-0.772
279	-0.782
279	-0.795
280	-0.798
280	-0.81
281	-0.805
281	-0.796
282	-0.801
282	-0.795
283	-0.792
283	-0.805
284	-0.819
284	-0.83
285	-0.809
285	-0.815
285	-0.805
286	-0.809
286	-0.825
287	-0.821
287	-0.818
288	-0.817
288	-0.8
289	-0.8
289	-0.805
290	-0.814
290	-0.803
291	-0.807
291	-0.805
292	-0.786
292	-0.784
292	-0.788
293	-0.775
293	-0.772
294	-0.77
294	-0.759
295	-0.742
295	-0.754
296	-0.766
296	-0.761
297	-0.751
297	-0.756
298	-0.754
298	-0.772
298	-0.774
299	-0.757
299	-0.748
300	-0.743
300	-0.724
301	-0.705
301	-0.707
302	-0.717
302	-0.702
303	-0.694
303	-0.682
304	-0.667
304	-0.67
305	-0.664
305	-0.672
305	-0.688
306	-0.672
306	-0.671
307	-0.663
307	-0.675
308	-0.676
308	-0.671
309	-0.674
309	-0.669
310	-0.665
310	-0.66
311	-0.646
311	-0.663
311	-0.65
312	-0.648
312	-0.637
313	-0.63
313	-0.631
314	-0.635
314	-0.634
315	-0.632
315	-0.627
316	-0.622
316	-0.613
317	-0.607
317	-0.603
318	-0.593
318	-0.591
318	-0.581
319	-0.57
319	-0.562
320	-0.558
320	-0.555
321	-0.549
321	-0.55
322	-0.544
322	-0.536
323	-0.537
323	-0.527
324	-0.525
324	-0.515
324	-0.504
325	-0.491
325	-0.474
326	-0.466
326	-0.44
327	-0.425
327	-0.404
328	-0.374
328	-0.35
329	-0.321
329	-0.293
330	-0.266
330	-0.23
330	-0.197
331	-0.162
331	-0.13
332	-0.096
332	-0.064
333	-0.035
333	-0.003
334	0.024
334	0.048
335	0.072
335	0.091
336	0.113
336	0.133
336	0.149
337	0.165
337	0.181
338	0.194
338	0.203
339	0.216
339	0.226
340	0.234
340	0.242
341	0.249
341	0.255
342	0.26
342	0.265
342	0.27
343	0.274
343	0.278
344	0.281
344	0.283
345	0.286
345	0.288
346	0.29
346	0.291
347	0.293
347	0.294
348	0.295
348	0.297
348	0.297
349	0.298
349	0.299
350	0.3
350	0.3
351	0.301
351	0.301
352	0.301
352	0.301
353	0.302
353	0.302
354	0.302
354	0.302
354	0.302
355	0.302
355	0.302
356	0.302
356	0.302
357	0.303
357	0.303
358	0.303
358	0.303
359	0.303
359	0.303
360	0.303
360	0.303
360	0.304
361	0.303
361	0.303
362	0.303
362	0.302
363	0.303
363	0.302
364	0.302
364	0.302
365	0.302
365	0.302
366	0.302
366	0.302
366	0.302
367	0.302
367	0.301
368	0.301
368	0.301
369	0.301
369	0.301
370	0.3
370	0.3
371	0.3
371	0.3
372	0.3
372	0.299
372	0.299
373	0.299
373	0.299
374	0.299
374	0.299
375	0.299
375	0.298
376	0.298
376	0.298
377	0.298
377	0.297
378	0.297
378	0.297
378	0.297
379	0.296
379	0.296
380	0.296
380	0.296
381	0.296
381	0.295
382	0.295
382	0.295
383	0.295
383	0.295
383	0.294
384	0.294
384	0.294
385	0.293
385	0.293
386	0.293
386	0.293
387	0.292
387	0.292
388	0.292
388	0.292
389	0.292
389	0.292
389	0.291
390	0.291
390	0.291
391	0.291
391	0.291
392	0.29
392	0.29
393	0.29
393	0.29
394	0.29
394	0.289
394	0.289
395	0.289
395	0.288
396	0.288
396	0.288
397	0.288
397	0.287
398	0.287
398	0.287
399	0.287
399	0.286
400	0.286
400	0.286
400	0.286
401	0.286
401	0.285
402	0.285
402	0.285
403	0.285
403	0.285
404	0.285
404	0.284
405	0.284
405	0.284
405	0.283
406	0.283
406	0.283
407	0.283
407	0.282
408	0.282
408	0.282
409	0.282
409	0.281
410	0.281
410	0.281
411	0.281
411	0.281
411	0.281
412	0.28
412	0.28
413	0.28
413	0.28
414	0.279
414	0.279
415	0.279
415	0.279
416	0.278
416	0.278
416	0.278
417	0.278
417	0.278
418	0.278
418	0.278
419	0.278
419	0.278
420	0.278
420	0.278
421	0.278
421	0.278
421	0.278
422	0.278
422	0.278
423	0.278
423	0.277
424	0.277
424	0.277
425	0.277
425	0.277
426	0.277
426	0.277
427	0.276
427	0.276
427	0.276
428	0.276
428	0.276
429	0.275
429	0.275
430	0.275
430	0.274
431	0.274
431	0.274
432	0.274
432	0.273
432	0.273
433	0.273
433	0.273
434	0.273
434	0.273
435	0.273
435	0.273
436	0.273
436	0.274
437	0.273
437	0.273
437	0.273
438	0.273
438	0.273
439	0.273
439	0.273
440	0.273
440	0.272
441	0.272
441	0.272
442	0.272
442	0.272
442	0.272
443	0.272
443	0.272
444	0.272
444	0.272
445	0.272
445	0.272
446	0.272
446	0.272
447	0.272
447	0.272
447	0.272
448	0.272
448	0.272
449	0.272
449	0.272
450	0.272
450	0.272
451	0.272
451	0.272
452	0.272
452	0.272
452	0.272
453	0.272
453	0.273
454	0.273
454	0.273
455	0.273
455	0.273
456	0.273
456	0.273
457	0.273
457	0.273
458	0.273
458	0.273
458	0.273
459	0.273
459	0.272
460	0.272
460	0.272
461	0.273
461	0.273
462	0.273
462	0.274
463	0.274
463	0.275
463	0.275
464	0.276
464	0.276
465	0.277
465	0.277
466	0.277
466	0.278
467	0.278
467	0.278
467	0.278
468	0.278
468	0.278
469	0.278
469	0.279
470	0.279
470	0.279
471	0.279
471	0.279
472	0.279
472	0.28
472	0.28
473	0.281
473	0.281
474	0.282
474	0.282
475	0.283
475	0.283
476	0.284
476	0.285
477	0.286
477	0.287
477	0.287
478	0.288
478	0.289
479	0.29
479	0.29
480	0.291
480	0.292
481	0.292
481	0.293
482	0.294
482	0.295
482	0.296
483	0.297
483	0.299
484	0.299
484	0.299
485	0.3
485	0.301
486	0.302
486	0.303
487	0.304
487	0.305
487	0.306
488	0.307
488	0.308
489	0.309
489	0.311
490	0.312
490	0.313
491	0.315
491	0.317
492	0.318
492	0.319
492	0.32
493	0.321
493	0.323
494	0.325
494	0.326
495	0.328
495	0.329
496	0.33
496	0.332
496	0.334
497	0.336
497	0.338
498	0.339
498	0.341
499	0.343
499	0.345
500	0.348
500	0.35
501	0.352
501	0.354
501	0.356
502	0.358
502	0.36
503	0.362
503	0.364
504	0.365
504	0.368
505	0.37
505	0.372
506	0.375
506	0.377
506	0.379
507	0.381
507	0.384
508	0.387
508	0.389
509	0.392
509	0.394
510	0.397
510	0.399
511	0.401
511	0.403
511	0.405
512	0.408
512	0.409
513	0.411
513	0.413
514	0.415
514	0.417
515	0.419
515	0.42
515	0.422
516	0.424
516	0.426
517	0.428
517	0.43
518	0.431
518	0.433
519	0.434
519	0.435
520	0.437
520	0.439
520	0.44
521	0.441
521	0.442
522	0.443
522	0.444
523	0.445
523	0.447
524	0.447
524	0.448
524	0.449
525	0.45
525	0.45
526	0.451
526	0.452
527	0.452
527	0.452
528	0.452
528	0.452
529	0.452
529	0.451
529	0.451
530	0.45
530	0.45
531	0.449
531	0.449
532	0.448
532	0.448
533	0.448
533	0.447
533	0.447
534	0.446
534	0.446
535	0.445
535	0.444
536	0.444
536	0.443
537	0.442
537	0.441
538	0.44
538	0.438
538	0.437
539	0.436
539	0.435
540	0.433
540	0.432
541	0.43
541	0.428
542	0.426
542	0.425
542	0.423
543	0.421
543	0.419
544	0.417
544	0.415
545	0.413
545	0.412
546	0.41
546	0.408
547	0.405
547	0.403
547	0.401
548	0.399
548	0.397
549	0.395
549	0.393
550	0.391
550	0.388
551	0.385
551	0.383
551	0.38
552	0.378
552	0.376
553	0.374
553	0.372
554	0.369
554	0.367
555	0.364
555	0.362
556	0.36
556	0.358
556	0.356
557	0.355
557	0.353
558	0.35
558	0.348
559	0.347
559	0.345
560	0.343
560	0.34
560	0.339
561	0.337
561	0.336
562	0.334
562	0.332
563	0.33
563	0.328
564	0.326
564	0.325
564	0.323
565	0.322
565	0.32
566	0.318
566	0.316
567	0.315
567	0.313
568	0.312
568	0.31
568	0.308
569	0.306
569	0.304
570	0.301
570	0.298
571	0.297
571	0.295
572	0.293
572	0.292
573	0.29
573	0.288
573	0.286
574	0.285
574	0.285
575	0.284
575	0.284
576	0.283
576	0.281
577	0.279
577	0.278
577	0.277
578	0.276
578	0.276
579	0.276
579	0.275
580	0.273
580	0.271
581	0.268
581	0.267
581	0.267
582	0.267
582	0.266
583	0.266
583	0.264
584	0.261
584	0.259
585	0.258
585	0.258
585	0.258
586	0.257
586	0.255
587	0.253
587	0.251
588	0.25
588	0.249
589	0.248
589	0.248
590	0.247
590	0.246
590	0.246
591	0.246
591	0.245
592	0.244
592	0.243
593	0.243
593	0.242
594	0.241
594	0.24
594	0.239
595	0.239
595	0.237
596	0.235
596	0.236
597	0.237
597	0.237
598	0.236
598	0.236
598	0.236
599	0.236
599	0.235
600	0.234
600	0.234
601	0.234
601	0.234
602	0.232
602	0.232
602	0.231
603	0.231
603	0.231
604	0.231
604	0.23
605	0.23
605	0.23
606	0.229
606	0.227
606	0.226
607	0.225
607	0.225
608	0.223
608	0.222
609	0.221
609	0.221
610	0.22
610	0.219
610	0.219
611	0.22
611	0.219
612	0.219
612	0.22
613	0.22
613	0.22
614	0.219
614	0.217
614	0.217
615	0.216
615	0.215
616	0.215
616	0.214
617	0.213
617	0.212
618	0.212
618	0.211
618	0.211
619	0.21
619	0.21
620	0.211
620	0.21
621	0.209
621	0.208
622	0.207
622	0.206
622	0.204
623	0.203
623	0.203
624	0.202
624	0.201
625	0.2
625	0.199
626	0.198
626	0.197
626	0.197
627	0.196
627	0.196
628	0.195
628	0.194
629	0.193
629	0.192
630	0.191
630	0.19
630	0.189
631	0.187
631	0.185
632	0.183
632	0.182
633	0.18
633	0.178
634	0.176
634	0.175
634	0.173
635	0.171
635	0.169
636	0.166
636	0.164
637	0.161
637	0.158
638	0.156
638	0.153
638	0.15
639	0.146
639	0.143
640	0.139
640	0.136
641	0.133
641	0.129
642	0.126
642	0.122
642	0.118
643	0.114
643	0.11
644	0.106
644	0.101
645	0.097
645	0.092
646	0.087
646	0.082
646	0.075
647	0.069
647	0.064
648	0.057
648	0.051
649	0.044
649	0.037
650	0.031
650	0.024
650	0.016
651	0.007
651	-0.005
652	-0.017
652	-0.031
653	-0.044
653	-0.055
653	-0.05
654	-0.032
654	-0.027
655	-0.033
655	-0.038
656	-0.044
656	-0.051
657	-0.056
657	-0.061
657	-0.067
658	-0.074
658	-0.105
659	-0.191
659	-0.279
660	-0.319
660	-0.346
661	-0.374
661	-0.403
661	-0.436
662	-0.464
662	-0.495
663	-0.531
663	-0.57
664	-0.607
664	-0.649
665	-0.696
665	-0.744
665	-0.79
666	-0.842
666	-0.898
667	-0.955
667	-1.019
668	-1.08
668	-1.15
669	-1.219
669	-1.294
669	-1.373
670	-1.456
670	-1.568
671	-1.739
671	-2.093
672	-2.327
672	-2.485
672	-2.603
673	-2.698
673	-2.777
674	-2.844
674	-2.862
675	-2.878
675	-2.882
676	-2.879
676	-2.828
676	-2.761
677	-2.68
677	-2.583
678	-2.441
678	-2.216
679	-1.813
679	-1.628
680	-1.519
680	-1.44
680	-1.371
681	-1.321
681	-1.267
682	-1.222
682	-1.177
683	-1.132
683	-1.106
684	-1.076
684	-1.055
684	-1.031
685	-1.009
685	-0.998
686	-0.975
686	-0.959
687	-0.949
687	-0.937
687	-0.936
688	-0.92
688	-0.911
689	-0.914
689	-0.91
690	-0.896
690	-0.883
691	-0.879
691	-0.883
691	-0.882
692	-0.881
692	-0.876
693	-0.883
693	-0.893
694	-0.872
694	-0.871
695	-0.873
695	-0.866
695	-0.872
696	-0.877
696	-0.87
697	-0.863
697	-0.859
698	-0.853
698	-0.845
698	-0.859
699	-0.856
699	-0.856
700	-0.875
700	-0.868
701	-0.856
701	-0.851
702	-0.852
702	-0.85
702	-0.85
703	-0.842
703	-0.829
704	-0.837
704	-0.841
705	-0.83
705	-0.831
705	-0.826
706	-0.818
706	-0.814
707	-0.824
707	-0.828
708	-0.823
708	-0.821
709	-0.82
709	-0.817
709	-0.812
710	-0.819
710	-0.822
711	-0.821
711	-0.821
712	-0.812
712	-0.81
713	-0.816
713	-0.818
713	-0.799
714	-0.802
714	-0.804
715	-0.796
715	-0.803
716	-0.818
716	-0.828
716	-0.829
717	-0.834
717	-0.825
718	-0.82
718	-0.819
719	-0.815
719	-0.808
720	-0.804
720	-0.801
720	-0.795
721	-0.786
721	-0.79
722	-0.788
722	-0.784
723	-0.801
723	-0.816
723	-0.825
724	-0.824
724	-0.828
725	-0.82
725	-0.823
726	-0.827
726	-0.818
727	-0.819
727	-0.826
727	-0.816
728	-0.802
728	-0.797
729	-0.799
729	-0.804
730	-0.809
730	-0.801
730	-0.805
731	-0.808
731	-0.809
732	-0.81
732	-0.805
733	-0.82
733	-0.827
734	-0.836
734	-0.825
734	-0.808
735	-0.8
735	-0.795
736	-0.793
736	-0.787
737	-0.789
737	-0.779
737	-0.768
738	-0.754
738	-0.742
739	-0.745
739	-0.746
740	-0.76
740	-0.762
741	-0.773
741	-0.783
741	-0.791
742	-0.799
742	-0.816
743	-0.822
743	-0.824
744	-0.828
744	-0.834
744	-0.826
745	-0.832
745	-0.821
746	-0.817
746	-0.807
747	-0.81
747	-0.801
748	-0.802
748	-0.805
748	-0.807
749	-0.801
749	-0.808
750	-0.799
750	-0.8
751	-0.8
751	-0.797
751	-0.808
752	-0.813
752	-0.817
753	-0.82
753	-0.812
754	-0.831
754	-0.832
754	-0.839
755	-0.839
755	-0.831
756	-0.833
756	-0.818
757	-0.809
757	-0.799
758	-0.8
758	-0.801
758	-0.796
759	-0.801
759	-0.8
760	-0.798
760	-0.801
761	-0.796
761	-0.801
761	-0.801
762	-0.805
762	-0.805
763	-0.804
763	-0.808
764	-0.805
764	-0.802
764	-0.808
765	-0.807
765	-0.814
766	-0.817
766	-0.818
767	-0.836
767	-0.83
768	-0.829
768	-0.82
768	-0.815
769	-0.818
769	-0.827
770	-0.836
770	-0.841
771	-0.836
771	-0.836
771	-0.841
772	-0.846
772	-0.866
773	-0.869
773	-0.869
774	-0.867
774	-0.85
775	-0.836
775	-0.834
775	-0.837
776	-0.848
776	-0.844
777	-0.846
777	-0.829
778	-0.838
778	-0.847
778	-0.849
779	-0.857
779	-0.874
780	-0.872
780	-0.881
781	-0.87
781	-0.858
781	-0.871
782	-0.89
782	-0.892
783	-0.89
783	-0.898
784	-0.9
784	-0.894
784	-0.913
785	-0.906
785	-0.917
786	-0.923
786	-0.914
787	-0.903
787	-0.912
788	-0.905
788	-0.898
788	-0.898
789	-0.898
789	-0.886
790	-0.884
790	-0.871
791	-0.876
791	-0.872
791	-0.865
792	-0.857
792	-0.861
793	-0.864
793	-0.853
794	-0.846
794	-0.84
794	-0.848
795	-0.869
795	-0.855
796	-0.86
796	-0.858
797	-0.851
797	-0.842
797	-0.835
798	-0.854
798	-0.858
799	-0.857
799	-0.843
800	-0.836
800	-0.845
801	-0.841
801	-0.845
801	-0.84
802	-0.84
802	-0.84
803	-0.834
803	-0.826
804	-0.833
804	-0.84
804	-0.824
805	-0.805
805	-0.799
806	-0.801
806	-0.799
807	-0.801
807	-0.801
807	-0.787
808	-0.782
808	-0.774
809	-0.769
809	-0.77
810	-0.773
810	-0.768
810	-0.765
811	-0.768
811	-0.758
812	-0.75
812	-0.752
813	-0.757
813	-0.757
813	-0.753
814	-0.755
814	-0.761
815	-0.752
815	-0.747
816	-0.744
816	-0.761
817	-0.774
817	-0.778
817	-0.788
818	-0.782
818	-0.779
819	-0.789
819	-0.786
820	-0.799
820	-0.798
820	-0.797
821	-0.791
821	-0.785
822	-0.782
822	-0.769
823	-0.779
823	-0.778
823	-0.772
824	-0.771
824	-0.781
825	-0.778
825	-0.775
826	-0.772
826	-0.769
826	-0.769
827	-0.77
827	-0.761
828	-0.761
828	-0.754
829	-0.747
829	-0.733
829	-0.73
830	-0.728
830	-0.715
831	-0.708
831	-0.699
832	-0.69
832	-0.685
832	-0.678
833	-0.676
833	-0.682
834	-0.675
834	-0.671
835	-0.664
835	-0.663
835	-0.658
836	-0.654
836	-0.649
837	-0.639
837	-0.629
838	-0.617
838	-0.599
839	-0.592
839	-0.581
839	-0.572
840	-0.569
840	-0.557
841	-0.546
841	-0.54
842	-0.53
842	-0.517
842	-0.515
843	-0.512
843	-0.509
844	-0.506
844	-0.494
845	-0.481
845	-0.472
845	-0.461
846	-0.449
846	-0.442
847	-0.431
847	-0.418
848	-0.403
848	-0.386
848	-0.372
849	-0.359
849	-0.347
850	-0.338
850	-0.327
851	-0.314
851	-0.297
851	-0.288
852	-0.273
852	-0.259
853	-0.252
853	-0.241
854	-0.231
854	-0.22
854	-0.206
855	-0.194
855	-0.186
856	-0.179
856	-0.169
857	-0.161
857	-0.153
857	-0.138
858	-0.127
858	-0.12
859	-0.109
859	-0.098
860	-0.088
860	-0.073
860	-0.063
861	-0.053
861	-0.044
862	-0.035
862	-0.028
863	-0.02
863	-0.011
863	-0.005
864	0
864	0.007
865	0.013
865	0.018
866	0.023
866	0.029
866	0.033
867	0.039
867	0.044
868	0.048
868	0.053
869	0.058
869	0.061
869	0.063
870	0.065
870	0.067
871	0.068
871	0.069
872	0.069
872	0.069
872	0.07
873	0.071
873	0.071
874	0.071
874	0.071
875	0.071
875	0.071
875	0.071
876	0.072
876	0.072
877	0.072
877	0.071
878	0.071
878	0.07
878	0.069
879	0.069
879	0.067
880	0.066
880	0.065
881	0.063
881	0.061
881	0.06
882	0.059
882	0.058
883	0.057
883	0.056
884	0.056
884	0.056
884	0.056
885	0.056
885	0.057
886	0.057
886	0.057
887	0.057
887	0.057
887	0.057
888	0.057
888	0.057
889	0.056
889	0.056
890	0.055
890	0.055
890	0.055
891	0.055
891	0.055
892	0.056
892	0.056
893	0.056
893	0.057
893	0.057
894	0.057
894	0.057
895	0.057
895	0.057
895	0.057
896	0.058
896	0.058
897	0.058
897	0.058
898	0.058
898	0.058
898	0.058
899	0.058
899	0.058
900	0.058
900	0.058
901	0.058
901	0.058
901	0.058
902	0.058
902	0.058
903	0.059
903	0.059
904	0.059
904	0.059
904	0.059
905	0.059
905	0.059
906	0.06
906	0.06
907	0.06
907	0.061
907	0.061
908	0.061
908	0.062
909	0.062
909	0.062
910	0.062
910	0.062
910	0.063
911	0.063
911	0.064
912	0.065
912	0.066
913	0.067
913	0.067
913	0.068
914	0.069
914	0.069
915	0.069
915	0.069
916	0.069
916	0.069
916	0.069
917	0.068
917	0.068
918	0.067
918	0.067
918	0.067
919	0.067
919	0.067
920	0.067
920	0.067
921	0.067
921	0.067
921	0.067
922	0.067
922	0.067
923	0.067
923	0.067
924	0.066
924	0.066
924	0.066
925	0.066
925	0.065
926	0.065
926	0.064
927	0.063
927	0.063
927	0.063
928	0.062
928	0.062
929	0.062
929	0.062
930	0.062
930	0.062
930	0.062
931	0.062
931	0.063
932	0.064
932	0.064
933	0.065
933	0.065
933	0.064
934	0.063
934	0.063
935	0.062
935	0.06
935	0.059
936	0.057
936	0.056
937	0.054
937	0.053
938	0.052
938	0.051
938	0.05
939	0.049
939	0.048
940	0.048
940	0.047
941	0.046
941	0.046
941	0.046
942	0.045
942	0.045
943	0.045
943	0.045
944	0.044
944	0.043
944	0.043
945	0.043
945	0.043
946	0.043
946	0.042
946	0.042
947	0.042
947	0.041
948	0.041
948	0.042
949	0.043
949	0.043
949	0.044
950	0.045
950	0.046
951	0.047
951	0.047
952	0.048
952	0.049
952	0.049
953	0.05
953	0.05
954	0.05
954	0.05
955	0.05
955	0.049
955	0.049
956	0.048
956	0.048
957	0.047
957	0.046
957	0.045
958	0.045
958	0.045
959	0.045
959	0.045
960	0.045
960	0.045
960	0.045
961	0.046
961	0.047
962	0.047
962	0.048
963	0.049
963	0.049
963	0.05
964	0.051
964	0.052
965	0.053
965	0.053
966	0.053
966	0.054
966	0.054
967	0.054
967	0.054
968	0.053
968	0.052
968	0.052
969	0.051
969	0.051
970	0.051
970	0.05
971	0.05
971	0.051
971	0.051
972	0.052
972	0.052
973	0.053
973	0.053
974	0.053
974	0.053
974	0.054
975	0.054
975	0.054
976	0.054
976	0.054
976	0.053
977	0.053
977	0.052
978	0.051
978	0.049
979	0.048
979	0.047
979	0.046
980	0.046
980	0.045
981	0.044
981	0.044
982	0.043
982	0.043
982	0.044
983	0.044
983	0.044
984	0.044
984	0.043
984	0.043
985	0.043
985	0.042
986	0.041
986	0.04
987	0.039
987	0.038
987	0.037
988	0.036
988	0.035
989	0.035
989	0.034
990	0.034
990	0.034
990	0.034
991	0.034
991	0.035
992	0.035
992	0.035
992	0.035
993	0.036
993	0.036
994	0.036
994	0.035
995	0.035
995	0.034
995	0.033
996	0.032
996	0.031
997	0.03
997	0.03
997	0.029
998	0.029
998	0.029
999	0.029
999	0.029
1000	0.029
1000	0.029
1000	0.03
1001	0.03
1001	0.031
1002	0.031
1002	0.03
1003	0.03
1003	0.029
1003	0.029
1004	0.028
1004	0.027
1005	0.025
1005	0.024
1005	0.023
1006	0.021
1006	0.02
1007	0.019
1007	0.018
1008	0.017
1008	0.016
1008	0.016
1009	0.016
1009	0.016
1010	0.016
1010	0.017
1010	0.017
1011	0.018
1011	0.018
1012	0.019
1012	0.021
1013	0.022
1013	0.022
1013	0.023
1014	0.024
1014	0.025
1015	0.026
1015	0.027
1016	0.028
1016	0.028
1016	0.028
1017	0.028
1017	0.028
1018	0.028
1018	0.028
1018	0.027
1019	0.027
1019	0.027
1020	0.026
1020	0.025
1021	0.025
1021	0.024
1021	0.024
1022	0.023
1022	0.023
1023	0.023
1023	0.022
1023	0.022
1024	0.022
1024	0.021
1025	0.021
1025	0.021
1026	0.021
1026	0.021
1026	0.021
1027	0.021
1027	0.021
1028	0.022
1028	0.022
1028	0.022
1029	0.022
1029	0.022
1030	0.021
1030	0.021
1031	0.02
1031	0.02
1031	0.02
1032	0.02
1032	0.019
1033	0.018
1033	0.018
1033	0.018
1034	0.017
1034	0.017
1035	0.017
1035	0.017
1036	0.017
1036	0.017
1036	0.017
1037	0.017
1037	0.018
1038	0.018
1038	0.018
1039	0.019
1039	0.021
1039	0.021
1040	0.022
1040	0.023
1041	0.023
1041	0.024
1041	0.024
1042	0.024
1042	0.023
1043	0.023
1043	0.023
1044	0.022
1044	0.022
1044	0.021
1045	0.021
1045	0.02
1046	0.02
1046	0.019
1046	0.019
1047	0.019
1047	0.019
1048	0.02
1048	0.02
1049	0.019
1049	0.019
1049	0.019
1050	0.018
1050	0.018
1051	0.017
1051	0.016
1051	0.016
1052	0.015
1052	0.014
1053	0.013
1053	0.012
1053	0.011
1054	0.011
1054	0.01
1055	0.011
1055	0.01
1056	0.01
1056	0.01
1056	0.009
1057	0.009
1057	0.009
1058	0.009
1058	0.008
1058	0.009
1059	0.008
1059	0.007
1060	0.007
1060	0.007
1061	0.006
1061	0.006
1061	0.006
1062	0.006
1062	0.006
1063	0.006
1063	0.005
1063	0.005
1064	0.005
1064	0.004
1065	0.004
1065	0.003
1066	0.003
1066	0.002
1066	0.001
1067	0.001
1067	0
1068	-0
1068	-0.001
1068	-0.001
1069	-0.002
1069	-0.003
1070	-0.003
1070	-0.003
1071	-0.004
1071	-0.004
1071	-0.005
1072	-0.004
1072	-0.004
1073	-0.004
1073	-0.003
1073	-0.003
1074	-0.003
1074	-0.003
1075	-0.003
1075	-0.003
1076	-0.004
1076	-0.004
1076	-0.005
1077	-0.006
1077	-0.007
1078	-0.008
1078	-0.01
1078	-0.011
1079	-0.012
1079	-0.012
1080	-0.014
1080	-0.014
1080	-0.016
1081	-0.017
1081	-0.018
1082	-0.019
1082	-0.02
1083	-0.022
1083	-0.023
1083	-0.024
1084	-0.025
1084	-0.026
1085	-0.027
1085	-0.028
1085	-0.029
1086	-0.03
1086	-0.031
1087	-0.032
1087	-0.032
1088	-0.034
1088	-0.034
1088	-0.035
1089	-0.036
1089	-0.037
1090	-0.038
1090	-0.039
1090	-0.04
1091	-0.041
1091	-0.041
1092	-0.042
1092	-0.042
1092	-0.043
1093	-0.044
1093	-0.043
1094	-0.043
1094	-0.044
1095	-0.045
1095	-0.045
1095	-0.045
1096	-0.047
1096	-0.048
1097	-0.049
1097	-0.051
1097	-0.051
1098	-0.053
1098	-0.055
1099	-0.056
1099	-0.058
1100	-0.06
1100	-0.063
1100	-0.066
1101	-0.069
1101	-0.071
1102	-0.073
1102	-0.076
1102	-0.079
1103	-0.082
1103	-0.084
1104	-0.087
1104	-0.09
1104	-0.092
1105	-0.093
1105	-0.096
1106	-0.101
1106	-0.103
1107	-0.109
1107	-0.113
1107	-0.118
1108	-0.12
1108	-0.121
1109	-0.125
1109	-0.13
1109	-0.135
1110	-0.135
1110	-0.141
1111	-0.152
1111	-0.142
