Data from 3.4A_17C_Absorbance__311__01268.txt Node

Date: Tue Jun 20 15:49:06 CEST 2023
User: Marek
Spectrometer: MAYP115816
Trigger mode: 0
Integration Time (sec): 2.200000E-1
Scans to average: 10
Electric dark correction enabled: true
Nonlinearity correction enabled: true
Boxcar width: 5
XAxis mode: Wavelengths
Number of Pixels in Spectrum: 2068
>>>>>Begin Spectral Data<<<<<
199	-0.745
199	-0.728
200	-0.693
200	-0.641
201	-0.613
201	-0.606
202	-0.587
202	-0.582
203	-0.581
203	-0.576
204	-0.558
204	-0.542
205	-0.52
205	-0.509
205	-0.517
206	-0.521
206	-0.518
207	-0.512
207	-0.518
208	-0.52
208	-0.523
209	-0.525
209	-0.532
210	-0.544
210	-0.553
211	-0.546
211	-0.549
212	-0.555
212	-0.564
213	-0.561
213	-0.555
213	-0.553
214	-0.559
214	-0.562
215	-0.56
215	-0.566
216	-0.575
216	-0.581
217	-0.58
217	-0.579
218	-0.587
218	-0.591
219	-0.598
219	-0.599
220	-0.6
220	-0.605
221	-0.604
221	-0.605
221	-0.596
222	-0.595
222	-0.594
223	-0.59
223	-0.592
224	-0.592
224	-0.589
225	-0.585
225	-0.587
226	-0.587
226	-0.586
227	-0.594
227	-0.604
228	-0.607
228	-0.615
229	-0.621
229	-0.619
229	-0.621
230	-0.618
230	-0.615
231	-0.613
231	-0.608
232	-0.611
232	-0.604
233	-0.605
233	-0.594
234	-0.591
234	-0.585
235	-0.589
235	-0.599
236	-0.607
236	-0.607
236	-0.607
237	-0.605
237	-0.607
238	-0.607
238	-0.609
239	-0.612
239	-0.622
240	-0.616
240	-0.613
241	-0.609
241	-0.611
242	-0.615
242	-0.625
243	-0.624
243	-0.626
243	-0.631
244	-0.629
244	-0.631
245	-0.633
245	-0.635
246	-0.644
246	-0.648
247	-0.656
247	-0.641
248	-0.641
248	-0.644
249	-0.651
249	-0.652
250	-0.651
250	-0.659
250	-0.655
251	-0.658
251	-0.655
252	-0.656
252	-0.666
253	-0.661
253	-0.673
254	-0.676
254	-0.676
255	-0.686
255	-0.687
256	-0.69
256	-0.7
257	-0.71
257	-0.706
258	-0.709
258	-0.716
258	-0.712
259	-0.705
259	-0.722
260	-0.72
260	-0.708
261	-0.719
261	-0.704
262	-0.708
262	-0.707
263	-0.698
263	-0.704
264	-0.714
264	-0.716
265	-0.708
265	-0.711
265	-0.721
266	-0.713
266	-0.713
267	-0.713
267	-0.73
268	-0.737
268	-0.733
269	-0.725
269	-0.738
270	-0.742
270	-0.741
271	-0.753
271	-0.762
272	-0.763
272	-0.765
272	-0.757
273	-0.766
273	-0.78
274	-0.771
274	-0.767
275	-0.763
275	-0.752
276	-0.756
276	-0.764
277	-0.765
277	-0.763
278	-0.768
278	-0.767
278	-0.755
279	-0.765
279	-0.777
280	-0.779
280	-0.789
281	-0.781
281	-0.773
282	-0.781
282	-0.776
283	-0.771
283	-0.785
284	-0.798
284	-0.807
285	-0.787
285	-0.795
285	-0.787
286	-0.794
286	-0.81
287	-0.806
287	-0.804
288	-0.802
288	-0.786
289	-0.784
289	-0.792
290	-0.801
290	-0.788
291	-0.791
291	-0.788
292	-0.767
292	-0.764
292	-0.768
293	-0.757
293	-0.752
294	-0.752
294	-0.739
295	-0.721
295	-0.734
296	-0.746
296	-0.742
297	-0.732
297	-0.736
298	-0.733
298	-0.75
298	-0.754
299	-0.735
299	-0.727
300	-0.725
300	-0.706
301	-0.687
301	-0.687
302	-0.699
302	-0.685
303	-0.677
303	-0.664
304	-0.647
304	-0.65
305	-0.643
305	-0.652
305	-0.667
306	-0.65
306	-0.651
307	-0.64
307	-0.651
308	-0.655
308	-0.653
309	-0.655
309	-0.65
310	-0.648
310	-0.644
311	-0.63
311	-0.651
311	-0.639
312	-0.635
312	-0.625
313	-0.615
313	-0.615
314	-0.619
314	-0.616
315	-0.613
315	-0.607
316	-0.601
316	-0.59
317	-0.581
317	-0.579
318	-0.569
318	-0.568
318	-0.557
319	-0.545
319	-0.537
320	-0.535
320	-0.532
321	-0.527
321	-0.528
322	-0.522
322	-0.516
323	-0.517
323	-0.508
324	-0.505
324	-0.496
324	-0.485
325	-0.471
325	-0.453
326	-0.444
326	-0.417
327	-0.402
327	-0.379
328	-0.348
328	-0.325
329	-0.299
329	-0.269
330	-0.242
330	-0.205
330	-0.17
331	-0.133
331	-0.101
332	-0.066
332	-0.033
333	-0.003
333	0.032
334	0.061
334	0.086
335	0.112
335	0.134
336	0.155
336	0.175
336	0.192
337	0.208
337	0.225
338	0.239
338	0.249
339	0.263
339	0.273
340	0.281
340	0.29
341	0.297
341	0.304
342	0.31
342	0.316
342	0.321
343	0.325
343	0.33
344	0.333
344	0.336
345	0.34
345	0.342
346	0.344
346	0.346
347	0.347
347	0.348
348	0.349
348	0.35
348	0.351
349	0.352
349	0.353
350	0.354
350	0.354
351	0.355
351	0.356
352	0.356
352	0.356
353	0.357
353	0.357
354	0.358
354	0.358
354	0.358
355	0.358
355	0.357
356	0.358
356	0.357
357	0.357
357	0.357
358	0.357
358	0.357
359	0.357
359	0.357
360	0.357
360	0.356
360	0.356
361	0.356
361	0.356
362	0.356
362	0.356
363	0.356
363	0.356
364	0.356
364	0.356
365	0.356
365	0.355
366	0.355
366	0.355
366	0.355
367	0.355
367	0.355
368	0.355
368	0.354
369	0.354
369	0.354
370	0.353
370	0.353
371	0.353
371	0.353
372	0.353
372	0.352
372	0.352
373	0.352
373	0.352
374	0.352
374	0.352
375	0.351
375	0.351
376	0.351
376	0.35
377	0.35
377	0.35
378	0.349
378	0.349
378	0.349
379	0.349
379	0.348
380	0.348
380	0.348
381	0.348
381	0.347
382	0.347
382	0.347
383	0.346
383	0.346
383	0.345
384	0.345
384	0.345
385	0.344
385	0.344
386	0.343
386	0.343
387	0.343
387	0.342
388	0.342
388	0.342
389	0.342
389	0.342
389	0.341
390	0.341
390	0.341
391	0.341
391	0.34
392	0.34
392	0.34
393	0.34
393	0.34
394	0.339
394	0.339
394	0.338
395	0.338
395	0.338
396	0.337
396	0.337
397	0.336
397	0.336
398	0.335
398	0.335
399	0.334
399	0.334
400	0.334
400	0.334
400	0.333
401	0.333
401	0.333
402	0.332
402	0.332
403	0.332
403	0.332
404	0.332
404	0.331
405	0.331
405	0.33
405	0.33
406	0.329
406	0.329
407	0.329
407	0.329
408	0.329
408	0.328
409	0.328
409	0.328
410	0.328
410	0.328
411	0.328
411	0.328
411	0.328
412	0.327
412	0.327
413	0.326
413	0.326
414	0.326
414	0.325
415	0.325
415	0.325
416	0.325
416	0.324
416	0.324
417	0.324
417	0.324
418	0.324
418	0.324
419	0.324
419	0.324
420	0.323
420	0.323
421	0.323
421	0.323
421	0.323
422	0.323
422	0.323
423	0.322
423	0.322
424	0.321
424	0.321
425	0.321
425	0.321
426	0.321
426	0.321
427	0.321
427	0.32
427	0.32
428	0.321
428	0.32
429	0.32
429	0.32
430	0.319
430	0.319
431	0.319
431	0.318
432	0.318
432	0.318
432	0.318
433	0.317
433	0.317
434	0.318
434	0.318
435	0.318
435	0.319
436	0.319
436	0.319
437	0.319
437	0.319
437	0.318
438	0.318
438	0.318
439	0.318
439	0.318
440	0.317
440	0.317
441	0.317
441	0.317
442	0.317
442	0.317
442	0.317
443	0.317
443	0.317
444	0.317
444	0.317
445	0.317
445	0.317
446	0.317
446	0.317
447	0.317
447	0.317
447	0.317
448	0.317
448	0.317
449	0.317
449	0.317
450	0.317
450	0.317
451	0.318
451	0.317
452	0.317
452	0.317
452	0.317
453	0.318
453	0.318
454	0.318
454	0.318
455	0.318
455	0.318
456	0.318
456	0.318
457	0.318
457	0.318
458	0.318
458	0.318
458	0.318
459	0.318
459	0.318
460	0.318
460	0.318
461	0.318
461	0.318
462	0.319
462	0.32
463	0.32
463	0.321
463	0.321
464	0.322
464	0.322
465	0.323
465	0.323
466	0.324
466	0.324
467	0.325
467	0.325
467	0.325
468	0.325
468	0.325
469	0.326
469	0.327
470	0.327
470	0.328
471	0.328
471	0.328
472	0.329
472	0.33
472	0.33
473	0.331
473	0.332
474	0.333
474	0.334
475	0.334
475	0.335
476	0.336
476	0.337
477	0.338
477	0.339
477	0.339
478	0.34
478	0.341
479	0.342
479	0.343
480	0.344
480	0.344
481	0.346
481	0.347
482	0.348
482	0.349
482	0.35
483	0.352
483	0.354
484	0.355
484	0.356
485	0.357
485	0.359
486	0.36
486	0.361
487	0.363
487	0.364
487	0.365
488	0.366
488	0.367
489	0.369
489	0.371
490	0.373
490	0.375
491	0.377
491	0.379
492	0.381
492	0.383
492	0.385
493	0.386
493	0.389
494	0.391
494	0.393
495	0.395
495	0.397
496	0.399
496	0.401
496	0.404
497	0.406
497	0.409
498	0.411
498	0.413
499	0.416
499	0.419
500	0.422
500	0.425
501	0.428
501	0.431
501	0.433
502	0.436
502	0.438
503	0.441
503	0.444
504	0.446
504	0.449
505	0.451
505	0.454
506	0.457
506	0.46
506	0.464
507	0.466
507	0.469
508	0.473
508	0.476
509	0.479
509	0.482
510	0.485
510	0.488
511	0.49
511	0.493
511	0.495
512	0.498
512	0.501
513	0.503
513	0.506
514	0.508
514	0.511
515	0.514
515	0.516
515	0.519
516	0.521
516	0.524
517	0.526
517	0.528
518	0.53
518	0.532
519	0.534
519	0.536
520	0.537
520	0.539
520	0.541
521	0.542
521	0.544
522	0.545
522	0.547
523	0.548
523	0.55
524	0.551
524	0.552
524	0.553
525	0.554
525	0.554
526	0.555
526	0.556
527	0.556
527	0.556
528	0.556
528	0.555
529	0.555
529	0.555
529	0.555
530	0.554
530	0.554
531	0.554
531	0.553
532	0.552
532	0.552
533	0.551
533	0.551
533	0.55
534	0.549
534	0.548
535	0.547
535	0.546
536	0.544
536	0.543
537	0.541
537	0.54
538	0.538
538	0.536
538	0.534
539	0.533
539	0.531
540	0.529
540	0.526
541	0.524
541	0.521
542	0.519
542	0.516
542	0.513
543	0.511
543	0.508
544	0.505
544	0.502
545	0.5
545	0.497
546	0.494
546	0.491
547	0.488
547	0.484
547	0.481
548	0.479
548	0.475
549	0.472
549	0.469
550	0.466
550	0.463
551	0.459
551	0.456
551	0.452
552	0.449
552	0.446
553	0.443
553	0.44
554	0.437
554	0.434
555	0.43
555	0.427
556	0.423
556	0.42
556	0.417
557	0.414
557	0.411
558	0.408
558	0.405
559	0.401
559	0.398
560	0.395
560	0.392
560	0.39
561	0.387
561	0.385
562	0.382
562	0.38
563	0.377
563	0.374
564	0.372
564	0.369
564	0.367
565	0.365
565	0.363
566	0.36
566	0.358
567	0.355
567	0.353
568	0.35
568	0.347
568	0.345
569	0.342
569	0.338
570	0.335
570	0.331
571	0.329
571	0.326
572	0.323
572	0.321
573	0.318
573	0.315
573	0.313
574	0.311
574	0.309
575	0.307
575	0.306
576	0.305
576	0.302
577	0.299
577	0.298
577	0.297
578	0.295
578	0.294
579	0.294
579	0.293
580	0.29
580	0.287
581	0.284
581	0.282
581	0.281
582	0.28
582	0.279
583	0.277
583	0.275
584	0.271
584	0.268
585	0.266
585	0.265
585	0.263
586	0.262
586	0.26
587	0.257
587	0.255
588	0.253
588	0.251
589	0.25
589	0.249
590	0.248
590	0.247
590	0.247
591	0.246
591	0.244
592	0.242
592	0.24
593	0.239
593	0.238
594	0.236
594	0.235
594	0.234
595	0.233
595	0.231
596	0.229
596	0.229
597	0.23
597	0.229
598	0.228
598	0.227
598	0.226
599	0.225
599	0.223
600	0.222
600	0.221
601	0.22
601	0.219
602	0.217
602	0.216
602	0.214
603	0.214
603	0.213
604	0.212
604	0.212
605	0.211
605	0.211
606	0.21
606	0.208
606	0.207
607	0.206
607	0.205
608	0.204
608	0.202
609	0.201
609	0.2
610	0.199
610	0.197
610	0.197
611	0.196
611	0.196
612	0.195
612	0.195
613	0.195
613	0.194
614	0.193
614	0.191
614	0.191
615	0.189
615	0.189
616	0.188
616	0.187
617	0.186
617	0.185
618	0.184
618	0.182
618	0.181
619	0.181
619	0.18
620	0.18
620	0.179
621	0.178
621	0.177
622	0.175
622	0.174
622	0.173
623	0.172
623	0.172
624	0.171
624	0.17
625	0.169
625	0.168
626	0.167
626	0.165
626	0.165
627	0.164
627	0.162
628	0.161
628	0.159
629	0.158
629	0.156
630	0.154
630	0.152
630	0.151
631	0.149
631	0.147
632	0.145
632	0.143
633	0.141
633	0.139
634	0.138
634	0.136
634	0.134
635	0.132
635	0.13
636	0.128
636	0.126
637	0.123
637	0.121
638	0.119
638	0.116
638	0.113
639	0.11
639	0.107
640	0.103
640	0.1
641	0.097
641	0.093
642	0.09
642	0.087
642	0.083
643	0.079
643	0.074
644	0.07
644	0.066
645	0.061
645	0.057
646	0.052
646	0.046
646	0.04
647	0.033
647	0.027
648	0.021
648	0.015
649	0.009
649	0.003
650	-0.003
650	-0.01
650	-0.016
651	-0.024
651	-0.034
652	-0.045
652	-0.057
653	-0.068
653	-0.077
653	-0.073
654	-0.055
654	-0.05
655	-0.055
655	-0.059
656	-0.064
656	-0.069
657	-0.073
657	-0.077
657	-0.083
658	-0.089
658	-0.117
659	-0.195
659	-0.275
660	-0.312
660	-0.336
661	-0.362
661	-0.39
661	-0.419
662	-0.446
662	-0.474
663	-0.508
663	-0.544
664	-0.579
664	-0.617
665	-0.66
665	-0.704
665	-0.746
666	-0.795
666	-0.847
667	-0.9
667	-0.961
668	-1.018
668	-1.086
669	-1.153
669	-1.227
669	-1.307
670	-1.391
670	-1.51
671	-1.718
671	-2.107
672	-2.336
672	-2.492
672	-2.609
673	-2.703
673	-2.781
674	-2.818
674	-2.83
675	-2.845
675	-2.848
676	-2.841
676	-2.778
676	-2.701
677	-2.604
677	-2.483
678	-2.29
678	-1.912
679	-1.615
679	-1.482
680	-1.389
680	-1.319
680	-1.258
681	-1.216
681	-1.166
682	-1.127
682	-1.087
683	-1.045
683	-1.024
684	-0.998
684	-0.98
684	-0.958
685	-0.939
685	-0.931
686	-0.909
686	-0.897
687	-0.889
687	-0.879
687	-0.881
688	-0.865
688	-0.859
689	-0.862
689	-0.86
690	-0.848
690	-0.838
691	-0.837
691	-0.843
691	-0.843
692	-0.844
692	-0.839
693	-0.846
693	-0.855
694	-0.836
694	-0.836
695	-0.838
695	-0.832
695	-0.838
696	-0.844
696	-0.836
697	-0.829
697	-0.827
698	-0.823
698	-0.817
698	-0.832
699	-0.831
699	-0.832
700	-0.85
700	-0.845
701	-0.831
701	-0.827
702	-0.826
702	-0.825
702	-0.823
703	-0.816
703	-0.804
704	-0.812
704	-0.817
705	-0.807
705	-0.805
705	-0.8
706	-0.793
706	-0.788
707	-0.798
707	-0.803
708	-0.8
708	-0.798
709	-0.798
709	-0.794
709	-0.791
710	-0.798
710	-0.8
711	-0.8
711	-0.803
712	-0.796
712	-0.794
713	-0.797
713	-0.798
713	-0.777
714	-0.78
714	-0.781
715	-0.774
715	-0.782
716	-0.797
716	-0.806
716	-0.807
717	-0.812
717	-0.806
718	-0.799
718	-0.8
719	-0.795
719	-0.786
720	-0.783
720	-0.78
720	-0.774
721	-0.763
721	-0.765
722	-0.763
722	-0.758
723	-0.776
723	-0.79
723	-0.798
724	-0.798
724	-0.801
725	-0.794
725	-0.799
726	-0.805
726	-0.798
727	-0.798
727	-0.807
727	-0.797
728	-0.783
728	-0.781
729	-0.783
729	-0.786
730	-0.791
730	-0.782
730	-0.786
731	-0.788
731	-0.788
732	-0.79
732	-0.784
733	-0.8
733	-0.806
734	-0.814
734	-0.805
734	-0.787
735	-0.776
735	-0.771
736	-0.771
736	-0.768
737	-0.768
737	-0.758
737	-0.75
738	-0.736
738	-0.726
739	-0.729
739	-0.731
740	-0.747
740	-0.748
741	-0.76
741	-0.77
741	-0.778
742	-0.785
742	-0.8
743	-0.808
743	-0.811
744	-0.814
744	-0.823
744	-0.817
745	-0.824
745	-0.812
746	-0.806
746	-0.797
747	-0.799
747	-0.788
748	-0.79
748	-0.793
748	-0.795
749	-0.787
749	-0.793
750	-0.782
750	-0.782
751	-0.782
751	-0.778
751	-0.791
752	-0.795
752	-0.797
753	-0.799
753	-0.79
754	-0.807
754	-0.806
754	-0.815
755	-0.816
755	-0.809
756	-0.812
756	-0.796
757	-0.79
757	-0.78
758	-0.779
758	-0.78
758	-0.78
759	-0.783
759	-0.785
760	-0.783
760	-0.786
761	-0.781
761	-0.785
761	-0.786
762	-0.792
762	-0.793
763	-0.794
763	-0.796
764	-0.797
764	-0.79
764	-0.796
765	-0.795
765	-0.801
766	-0.804
766	-0.805
767	-0.819
767	-0.814
768	-0.813
768	-0.805
768	-0.799
769	-0.805
769	-0.812
770	-0.824
770	-0.829
771	-0.826
771	-0.826
771	-0.829
772	-0.834
772	-0.854
773	-0.856
773	-0.855
774	-0.853
774	-0.834
775	-0.822
775	-0.819
775	-0.822
776	-0.832
776	-0.829
777	-0.83
777	-0.813
778	-0.821
778	-0.83
778	-0.829
779	-0.838
779	-0.852
780	-0.848
780	-0.858
781	-0.848
781	-0.837
781	-0.85
782	-0.871
782	-0.873
783	-0.872
783	-0.88
784	-0.885
784	-0.879
784	-0.9
785	-0.893
785	-0.906
786	-0.91
786	-0.901
787	-0.889
787	-0.897
788	-0.891
788	-0.885
788	-0.884
789	-0.884
789	-0.871
790	-0.87
790	-0.854
791	-0.86
791	-0.855
791	-0.849
792	-0.842
792	-0.846
793	-0.848
793	-0.836
794	-0.825
794	-0.821
794	-0.828
795	-0.848
795	-0.836
796	-0.841
796	-0.838
797	-0.831
797	-0.824
797	-0.816
798	-0.838
798	-0.844
799	-0.844
799	-0.83
800	-0.826
800	-0.834
801	-0.833
801	-0.838
801	-0.835
802	-0.834
802	-0.834
803	-0.829
803	-0.822
804	-0.828
804	-0.835
804	-0.818
805	-0.8
805	-0.791
806	-0.792
806	-0.788
807	-0.789
807	-0.788
807	-0.771
808	-0.768
808	-0.762
809	-0.756
809	-0.758
810	-0.761
810	-0.758
810	-0.753
811	-0.756
811	-0.748
812	-0.74
812	-0.742
813	-0.745
813	-0.746
813	-0.741
814	-0.74
814	-0.745
815	-0.736
815	-0.733
816	-0.728
816	-0.746
817	-0.76
817	-0.765
817	-0.774
818	-0.765
818	-0.764
819	-0.774
819	-0.772
820	-0.782
820	-0.781
820	-0.781
821	-0.775
821	-0.771
822	-0.771
822	-0.759
823	-0.772
823	-0.769
823	-0.764
824	-0.762
824	-0.773
825	-0.772
825	-0.768
826	-0.765
826	-0.76
826	-0.757
827	-0.756
827	-0.745
828	-0.746
828	-0.741
829	-0.735
829	-0.721
829	-0.719
830	-0.718
830	-0.702
831	-0.697
831	-0.687
832	-0.68
832	-0.677
832	-0.669
833	-0.666
833	-0.672
834	-0.667
834	-0.662
835	-0.654
835	-0.655
835	-0.649
836	-0.644
836	-0.64
837	-0.63
837	-0.622
838	-0.61
838	-0.592
839	-0.588
839	-0.575
839	-0.566
840	-0.565
840	-0.555
841	-0.545
841	-0.539
842	-0.529
842	-0.518
842	-0.516
843	-0.514
843	-0.51
844	-0.507
844	-0.496
845	-0.483
845	-0.472
845	-0.463
846	-0.451
846	-0.441
847	-0.431
847	-0.418
848	-0.403
848	-0.385
848	-0.373
849	-0.359
849	-0.346
850	-0.337
850	-0.326
851	-0.314
851	-0.298
851	-0.289
852	-0.275
852	-0.263
853	-0.255
853	-0.244
854	-0.235
854	-0.226
854	-0.213
855	-0.203
855	-0.196
856	-0.189
856	-0.181
857	-0.173
857	-0.166
857	-0.153
858	-0.144
858	-0.137
859	-0.127
859	-0.117
860	-0.107
860	-0.094
860	-0.085
861	-0.076
861	-0.067
862	-0.06
862	-0.052
863	-0.044
863	-0.036
863	-0.031
864	-0.025
864	-0.019
865	-0.013
865	-0.008
866	-0.003
866	0.002
866	0.006
867	0.011
867	0.015
868	0.019
868	0.023
869	0.027
869	0.03
869	0.032
870	0.034
870	0.036
871	0.038
871	0.039
872	0.039
872	0.04
872	0.04
873	0.04
873	0.04
874	0.04
874	0.039
875	0.039
875	0.038
875	0.038
876	0.038
876	0.038
877	0.038
877	0.037
878	0.037
878	0.036
878	0.036
879	0.035
879	0.035
880	0.035
880	0.034
881	0.033
881	0.032
881	0.031
882	0.03
882	0.029
883	0.029
883	0.028
884	0.028
884	0.028
884	0.028
885	0.029
885	0.029
886	0.029
886	0.029
887	0.029
887	0.028
887	0.028
888	0.027
888	0.027
889	0.026
889	0.025
890	0.025
890	0.024
890	0.024
891	0.024
891	0.023
892	0.024
892	0.024
893	0.024
893	0.024
893	0.024
894	0.025
894	0.025
895	0.025
895	0.025
895	0.025
896	0.025
896	0.025
897	0.026
897	0.026
898	0.026
898	0.026
898	0.027
899	0.027
899	0.028
900	0.028
900	0.029
901	0.029
901	0.029
901	0.029
902	0.029
902	0.029
903	0.029
903	0.029
904	0.028
904	0.027
904	0.027
905	0.027
905	0.027
906	0.027
906	0.027
907	0.027
907	0.028
907	0.028
908	0.029
908	0.03
909	0.031
909	0.033
910	0.034
910	0.034
910	0.035
911	0.036
911	0.037
912	0.039
912	0.04
913	0.041
913	0.042
913	0.043
914	0.043
914	0.043
915	0.043
915	0.043
916	0.042
916	0.041
916	0.041
917	0.04
917	0.039
918	0.038
918	0.037
918	0.036
919	0.035
919	0.034
920	0.034
920	0.033
921	0.033
921	0.033
921	0.033
922	0.033
922	0.032
923	0.032
923	0.032
924	0.032
924	0.032
924	0.032
925	0.032
925	0.031
926	0.031
926	0.031
927	0.03
927	0.03
927	0.03
928	0.03
928	0.031
929	0.031
929	0.032
930	0.032
930	0.032
930	0.033
931	0.034
931	0.034
932	0.035
932	0.035
933	0.035
933	0.035
933	0.034
934	0.033
934	0.033
935	0.032
935	0.03
935	0.029
936	0.028
936	0.026
937	0.025
937	0.024
938	0.023
938	0.022
938	0.021
939	0.021
939	0.021
940	0.021
940	0.02
941	0.02
941	0.019
941	0.019
942	0.019
942	0.018
943	0.018
943	0.018
944	0.018
944	0.017
944	0.018
945	0.018
945	0.018
946	0.018
946	0.018
946	0.019
947	0.019
947	0.019
948	0.019
948	0.019
949	0.019
949	0.02
949	0.02
950	0.02
950	0.021
951	0.02
951	0.02
952	0.02
952	0.021
952	0.021
953	0.022
953	0.022
954	0.022
954	0.022
955	0.022
955	0.022
955	0.022
956	0.022
956	0.022
957	0.021
957	0.02
957	0.02
958	0.02
958	0.019
959	0.019
959	0.019
960	0.019
960	0.019
960	0.02
961	0.02
961	0.02
962	0.021
962	0.021
963	0.021
963	0.021
963	0.022
964	0.022
964	0.022
965	0.022
965	0.022
966	0.022
966	0.023
966	0.023
967	0.023
967	0.023
968	0.022
968	0.022
968	0.022
969	0.022
969	0.021
970	0.02
970	0.019
971	0.019
971	0.018
971	0.018
972	0.018
972	0.018
973	0.018
973	0.018
974	0.018
974	0.018
974	0.019
975	0.02
975	0.02
976	0.021
976	0.021
976	0.022
977	0.022
977	0.021
978	0.021
978	0.021
979	0.02
979	0.019
979	0.019
980	0.018
980	0.017
981	0.016
981	0.016
982	0.015
982	0.015
982	0.015
983	0.014
983	0.014
984	0.014
984	0.013
984	0.013
985	0.013
985	0.013
986	0.012
986	0.012
987	0.011
987	0.01
987	0.01
988	0.009
988	0.009
989	0.009
989	0.008
990	0.008
990	0.007
990	0.007
991	0.007
991	0.008
992	0.008
992	0.008
992	0.008
993	0.008
993	0.008
994	0.008
994	0.007
995	0.007
995	0.007
995	0.007
996	0.006
996	0.006
997	0.005
997	0.005
997	0.004
998	0.004
998	0.005
999	0.005
999	0.005
1000	0.005
1000	0.004
1000	0.004
1001	0.004
1001	0.005
1002	0.005
1002	0.005
1003	0.005
1003	0.004
1003	0.003
1004	0.003
1004	0.002
1005	0.001
1005	0
1005	-0
1006	-0.001
1006	-0.002
1007	-0.002
1007	-0.002
1008	-0.002
1008	-0.003
1008	-0.003
1009	-0.002
1009	-0.002
1010	-0.001
1010	-0.001
1010	-0
1011	0
1011	0
1012	0
1012	0.001
1013	0.002
1013	0.002
1013	0.002
1014	0.002
1014	0.003
1015	0.003
1015	0.003
1016	0.003
1016	0.003
1016	0.003
1017	0.003
1017	0.003
1018	0.003
1018	0.003
1018	0.002
1019	0.002
1019	0.002
1020	0.002
1020	0.001
1021	0.001
1021	0.001
1021	0
1022	-0
1022	-0.001
1023	-0.001
1023	-0.001
1023	-0.002
1024	-0.002
1024	-0.002
1025	-0.002
1025	-0.002
1026	-0.002
1026	-0.002
1026	-0.003
1027	-0.003
1027	-0.003
1028	-0.002
1028	-0.002
1028	-0.002
1029	-0.002
1029	-0.002
1030	-0.003
1030	-0.003
1031	-0.003
1031	-0.003
1031	-0.003
1032	-0.003
1032	-0.003
1033	-0.003
1033	-0.004
1033	-0.004
1034	-0.004
1034	-0.005
1035	-0.005
1035	-0.005
1036	-0.005
1036	-0.006
1036	-0.006
1037	-0.006
1037	-0.005
1038	-0.005
1038	-0.004
1039	-0.004
1039	-0.003
1039	-0.002
1040	-0.002
1040	-0.001
1041	-0.001
1041	-0.001
1041	-0.001
1042	-0.001
1042	-0.001
1043	-0.001
1043	-0.002
1044	-0.003
1044	-0.004
1044	-0.004
1045	-0.006
1045	-0.006
1046	-0.007
1046	-0.008
1046	-0.008
1047	-0.009
1047	-0.009
1048	-0.009
1048	-0.009
1049	-0.01
1049	-0.011
1049	-0.011
1050	-0.012
1050	-0.013
1051	-0.013
1051	-0.014
1051	-0.015
1052	-0.016
1052	-0.017
1053	-0.018
1053	-0.018
1053	-0.018
1054	-0.018
1054	-0.018
1055	-0.017
1055	-0.017
1056	-0.017
1056	-0.017
1056	-0.018
1057	-0.018
1057	-0.018
1058	-0.018
1058	-0.018
1058	-0.018
1059	-0.019
1059	-0.019
1060	-0.019
1060	-0.019
1061	-0.019
1061	-0.019
1061	-0.018
1062	-0.018
1062	-0.018
1063	-0.018
1063	-0.019
1063	-0.019
1064	-0.019
1064	-0.019
1065	-0.019
1065	-0.02
1066	-0.02
1066	-0.021
1066	-0.021
1067	-0.022
1067	-0.023
1068	-0.023
1068	-0.024
1068	-0.024
1069	-0.024
1069	-0.025
1070	-0.025
1070	-0.025
1071	-0.026
1071	-0.026
1071	-0.026
1072	-0.026
1072	-0.025
1073	-0.025
1073	-0.025
1073	-0.025
1074	-0.024
1074	-0.024
1075	-0.024
1075	-0.024
1076	-0.025
1076	-0.025
1076	-0.025
1077	-0.026
1077	-0.028
1078	-0.029
1078	-0.03
1078	-0.031
1079	-0.031
1079	-0.032
1080	-0.033
1080	-0.033
1080	-0.035
1081	-0.036
1081	-0.036
1082	-0.036
1082	-0.037
1083	-0.037
1083	-0.038
1083	-0.039
1084	-0.039
1084	-0.04
1085	-0.04
1085	-0.04
1085	-0.041
1086	-0.041
1086	-0.043
1087	-0.043
1087	-0.043
1088	-0.044
1088	-0.045
1088	-0.045
1089	-0.047
1089	-0.048
1090	-0.049
1090	-0.05
1090	-0.051
1091	-0.053
1091	-0.053
1092	-0.054
1092	-0.055
1092	-0.056
1093	-0.058
1093	-0.058
1094	-0.059
1094	-0.06
1095	-0.061
1095	-0.061
1095	-0.062
1096	-0.063
1096	-0.065
1097	-0.066
1097	-0.067
1097	-0.068
1098	-0.07
1098	-0.072
1099	-0.073
1099	-0.075
1100	-0.078
1100	-0.079
1100	-0.082
1101	-0.085
1101	-0.087
1102	-0.089
1102	-0.092
1102	-0.093
1103	-0.095
1103	-0.099
1104	-0.101
1104	-0.103
1104	-0.105
1105	-0.107
1105	-0.111
1106	-0.115
1106	-0.117
1107	-0.123
1107	-0.127
1107	-0.132
1108	-0.134
1108	-0.135
1109	-0.139
1109	-0.144
1109	-0.149
1110	-0.151
1110	-0.155
1111	-0.163
1111	-0.161
