Data from 3.4A_17C_Absorbance__251__01208.txt Node

Date: Tue Jun 20 15:46:54 CEST 2023
User: Marek
Spectrometer: MAYP115816
Trigger mode: 0
Integration Time (sec): 2.200000E-1
Scans to average: 10
Electric dark correction enabled: true
Nonlinearity correction enabled: true
Boxcar width: 5
XAxis mode: Wavelengths
Number of Pixels in Spectrum: 2068
>>>>>Begin Spectral Data<<<<<
199	-0.766
199	-0.746
200	-0.708
200	-0.656
201	-0.627
201	-0.616
202	-0.596
202	-0.589
203	-0.589
203	-0.583
204	-0.564
204	-0.545
205	-0.522
205	-0.512
205	-0.52
206	-0.52
206	-0.518
207	-0.513
207	-0.517
208	-0.516
208	-0.518
209	-0.519
209	-0.527
210	-0.539
210	-0.546
211	-0.54
211	-0.543
212	-0.55
212	-0.556
213	-0.555
213	-0.552
213	-0.55
214	-0.558
214	-0.559
215	-0.557
215	-0.563
216	-0.572
216	-0.581
217	-0.579
217	-0.581
218	-0.588
218	-0.59
219	-0.596
219	-0.597
220	-0.601
220	-0.607
221	-0.607
221	-0.609
221	-0.599
222	-0.599
222	-0.596
223	-0.592
223	-0.593
224	-0.594
224	-0.594
225	-0.591
225	-0.593
226	-0.593
226	-0.589
227	-0.596
227	-0.606
228	-0.61
228	-0.62
229	-0.624
229	-0.622
229	-0.621
230	-0.617
230	-0.615
231	-0.61
231	-0.606
232	-0.609
232	-0.604
233	-0.603
233	-0.588
234	-0.588
234	-0.583
235	-0.588
235	-0.6
236	-0.605
236	-0.605
236	-0.607
237	-0.605
237	-0.607
238	-0.609
238	-0.612
239	-0.612
239	-0.622
240	-0.616
240	-0.61
241	-0.607
241	-0.611
242	-0.613
242	-0.62
243	-0.62
243	-0.62
243	-0.626
244	-0.625
244	-0.626
245	-0.627
245	-0.632
246	-0.641
246	-0.644
247	-0.652
247	-0.639
248	-0.639
248	-0.642
249	-0.646
249	-0.647
250	-0.646
250	-0.655
250	-0.653
251	-0.654
251	-0.652
252	-0.652
252	-0.664
253	-0.659
253	-0.671
254	-0.676
254	-0.676
255	-0.685
255	-0.684
256	-0.686
256	-0.697
257	-0.708
257	-0.704
258	-0.704
258	-0.71
258	-0.707
259	-0.699
259	-0.717
260	-0.718
260	-0.707
261	-0.716
261	-0.702
262	-0.706
262	-0.705
263	-0.695
263	-0.702
264	-0.71
264	-0.713
265	-0.704
265	-0.707
265	-0.717
266	-0.708
266	-0.708
267	-0.708
267	-0.725
268	-0.734
268	-0.73
269	-0.723
269	-0.735
270	-0.738
270	-0.734
271	-0.748
271	-0.761
272	-0.763
272	-0.767
272	-0.761
273	-0.77
273	-0.784
274	-0.775
274	-0.772
275	-0.771
275	-0.76
276	-0.762
276	-0.767
277	-0.769
277	-0.764
278	-0.769
278	-0.769
278	-0.756
279	-0.768
279	-0.78
280	-0.782
280	-0.79
281	-0.784
281	-0.776
282	-0.782
282	-0.776
283	-0.768
283	-0.78
284	-0.794
284	-0.803
285	-0.783
285	-0.79
285	-0.782
286	-0.786
286	-0.803
287	-0.8
287	-0.799
288	-0.799
288	-0.781
289	-0.779
289	-0.787
290	-0.796
290	-0.784
291	-0.788
291	-0.789
292	-0.768
292	-0.764
292	-0.77
293	-0.758
293	-0.755
294	-0.758
294	-0.743
295	-0.726
295	-0.737
296	-0.748
296	-0.742
297	-0.73
297	-0.735
298	-0.73
298	-0.746
298	-0.749
299	-0.73
299	-0.724
300	-0.721
300	-0.701
301	-0.682
301	-0.683
302	-0.694
302	-0.678
303	-0.672
303	-0.661
304	-0.644
304	-0.646
305	-0.638
305	-0.645
305	-0.663
306	-0.648
306	-0.649
307	-0.642
307	-0.654
308	-0.657
308	-0.654
309	-0.656
309	-0.651
310	-0.649
310	-0.646
311	-0.632
311	-0.65
311	-0.636
312	-0.631
312	-0.619
313	-0.61
313	-0.61
314	-0.615
314	-0.613
315	-0.608
315	-0.602
316	-0.595
316	-0.586
317	-0.579
317	-0.577
318	-0.571
318	-0.569
318	-0.557
319	-0.545
319	-0.537
320	-0.534
320	-0.531
321	-0.525
321	-0.524
322	-0.517
322	-0.509
323	-0.509
323	-0.499
324	-0.498
324	-0.487
324	-0.477
325	-0.464
325	-0.446
326	-0.438
326	-0.413
327	-0.397
327	-0.376
328	-0.345
328	-0.322
329	-0.294
329	-0.266
330	-0.239
330	-0.203
330	-0.169
331	-0.133
331	-0.1
332	-0.066
332	-0.032
333	-0.002
333	0.031
334	0.061
334	0.086
335	0.114
335	0.137
336	0.16
336	0.182
336	0.198
337	0.217
337	0.234
338	0.248
338	0.26
339	0.274
339	0.286
340	0.294
340	0.303
341	0.309
341	0.316
342	0.323
342	0.329
342	0.334
343	0.338
343	0.343
344	0.345
344	0.349
345	0.352
345	0.355
346	0.357
346	0.359
347	0.36
347	0.362
348	0.363
348	0.364
348	0.365
349	0.366
349	0.366
350	0.367
350	0.368
351	0.368
351	0.368
352	0.368
352	0.369
353	0.37
353	0.37
354	0.37
354	0.37
354	0.37
355	0.37
355	0.369
356	0.37
356	0.37
357	0.369
357	0.37
358	0.369
358	0.369
359	0.37
359	0.37
360	0.369
360	0.37
360	0.37
361	0.37
361	0.369
362	0.369
362	0.369
363	0.37
363	0.369
364	0.369
364	0.369
365	0.369
365	0.369
366	0.369
366	0.369
366	0.368
367	0.369
367	0.368
368	0.367
368	0.367
369	0.367
369	0.366
370	0.366
370	0.366
371	0.365
371	0.365
372	0.365
372	0.365
372	0.365
373	0.365
373	0.364
374	0.364
374	0.364
375	0.363
375	0.363
376	0.363
376	0.363
377	0.362
377	0.362
378	0.361
378	0.361
378	0.361
379	0.361
379	0.361
380	0.36
380	0.36
381	0.36
381	0.359
382	0.359
382	0.359
383	0.359
383	0.358
383	0.358
384	0.357
384	0.357
385	0.356
385	0.356
386	0.355
386	0.355
387	0.355
387	0.354
388	0.354
388	0.353
389	0.353
389	0.353
389	0.353
390	0.353
390	0.352
391	0.352
391	0.352
392	0.352
392	0.352
393	0.351
393	0.351
394	0.351
394	0.35
394	0.35
395	0.349
395	0.348
396	0.348
396	0.348
397	0.347
397	0.346
398	0.346
398	0.345
399	0.345
399	0.345
400	0.345
400	0.344
400	0.344
401	0.344
401	0.344
402	0.343
402	0.343
403	0.343
403	0.343
404	0.343
404	0.342
405	0.341
405	0.341
405	0.341
406	0.34
406	0.34
407	0.34
407	0.34
408	0.339
408	0.339
409	0.339
409	0.339
410	0.339
410	0.339
411	0.339
411	0.338
411	0.338
412	0.338
412	0.337
413	0.337
413	0.336
414	0.336
414	0.336
415	0.336
415	0.335
416	0.335
416	0.334
416	0.334
417	0.334
417	0.334
418	0.334
418	0.334
419	0.334
419	0.333
420	0.333
420	0.333
421	0.333
421	0.333
421	0.333
422	0.333
422	0.333
423	0.332
423	0.332
424	0.332
424	0.331
425	0.331
425	0.331
426	0.331
426	0.331
427	0.33
427	0.331
427	0.331
428	0.331
428	0.33
429	0.33
429	0.33
430	0.329
430	0.329
431	0.329
431	0.328
432	0.328
432	0.328
432	0.327
433	0.327
433	0.327
434	0.327
434	0.328
435	0.328
435	0.328
436	0.328
436	0.328
437	0.328
437	0.328
437	0.328
438	0.328
438	0.328
439	0.328
439	0.328
440	0.327
440	0.327
441	0.327
441	0.327
442	0.327
442	0.327
442	0.327
443	0.327
443	0.327
444	0.327
444	0.327
445	0.327
445	0.327
446	0.327
446	0.327
447	0.327
447	0.327
447	0.327
448	0.327
448	0.327
449	0.327
449	0.327
450	0.327
450	0.327
451	0.327
451	0.327
452	0.327
452	0.327
452	0.328
453	0.328
453	0.328
454	0.328
454	0.328
455	0.329
455	0.329
456	0.329
456	0.329
457	0.329
457	0.329
458	0.33
458	0.329
458	0.33
459	0.33
459	0.33
460	0.329
460	0.329
461	0.329
461	0.33
462	0.331
462	0.331
463	0.332
463	0.333
463	0.333
464	0.333
464	0.334
465	0.334
465	0.335
466	0.335
466	0.336
467	0.336
467	0.336
467	0.336
468	0.336
468	0.337
469	0.337
469	0.338
470	0.339
470	0.339
471	0.34
471	0.34
472	0.341
472	0.342
472	0.342
473	0.343
473	0.344
474	0.345
474	0.346
475	0.347
475	0.347
476	0.348
476	0.349
477	0.35
477	0.351
477	0.352
478	0.353
478	0.354
479	0.355
479	0.356
480	0.357
480	0.359
481	0.36
481	0.361
482	0.362
482	0.363
482	0.365
483	0.367
483	0.369
484	0.37
484	0.371
485	0.372
485	0.373
486	0.375
486	0.376
487	0.377
487	0.379
487	0.38
488	0.382
488	0.383
489	0.385
489	0.387
490	0.389
490	0.391
491	0.394
491	0.396
492	0.398
492	0.4
492	0.402
493	0.404
493	0.406
494	0.409
494	0.411
495	0.413
495	0.415
496	0.417
496	0.42
496	0.422
497	0.425
497	0.428
498	0.43
498	0.433
499	0.435
499	0.438
500	0.442
500	0.445
501	0.449
501	0.451
501	0.454
502	0.457
502	0.459
503	0.463
503	0.465
504	0.468
504	0.471
505	0.474
505	0.477
506	0.48
506	0.483
506	0.486
507	0.489
507	0.493
508	0.496
508	0.499
509	0.503
509	0.506
510	0.509
510	0.512
511	0.515
511	0.518
511	0.52
512	0.523
512	0.526
513	0.528
513	0.531
514	0.534
514	0.538
515	0.54
515	0.542
515	0.545
516	0.547
516	0.55
517	0.553
517	0.555
518	0.558
518	0.559
519	0.561
519	0.563
520	0.565
520	0.567
520	0.569
521	0.571
521	0.572
522	0.574
522	0.575
523	0.577
523	0.578
524	0.579
524	0.58
524	0.581
525	0.582
525	0.583
526	0.584
526	0.584
527	0.585
527	0.585
528	0.584
528	0.585
529	0.584
529	0.584
529	0.584
530	0.584
530	0.583
531	0.582
531	0.582
532	0.581
532	0.58
533	0.58
533	0.579
533	0.578
534	0.577
534	0.575
535	0.574
535	0.573
536	0.571
536	0.569
537	0.567
537	0.565
538	0.563
538	0.561
538	0.559
539	0.557
539	0.555
540	0.552
540	0.55
541	0.547
541	0.544
542	0.541
542	0.538
542	0.535
543	0.532
543	0.529
544	0.526
544	0.523
545	0.52
545	0.518
546	0.515
546	0.511
547	0.507
547	0.504
547	0.5
548	0.497
548	0.494
549	0.49
549	0.487
550	0.484
550	0.48
551	0.475
551	0.472
551	0.468
552	0.464
552	0.461
553	0.457
553	0.454
554	0.451
554	0.446
555	0.442
555	0.439
556	0.435
556	0.432
556	0.428
557	0.425
557	0.422
558	0.418
558	0.414
559	0.411
559	0.407
560	0.404
560	0.4
560	0.397
561	0.395
561	0.392
562	0.389
562	0.386
563	0.383
563	0.38
564	0.377
564	0.374
564	0.371
565	0.369
565	0.366
566	0.363
566	0.361
567	0.358
567	0.355
568	0.352
568	0.349
568	0.345
569	0.342
569	0.339
570	0.335
570	0.331
571	0.329
571	0.326
572	0.322
572	0.319
573	0.316
573	0.313
573	0.31
574	0.308
574	0.306
575	0.304
575	0.303
576	0.301
576	0.298
577	0.295
577	0.293
577	0.292
578	0.29
578	0.289
579	0.288
579	0.287
580	0.284
580	0.28
581	0.277
581	0.275
581	0.274
582	0.272
582	0.271
583	0.269
583	0.266
584	0.262
584	0.259
585	0.257
585	0.256
585	0.254
586	0.252
586	0.25
587	0.247
587	0.245
588	0.242
588	0.24
589	0.239
589	0.238
590	0.237
590	0.235
590	0.235
591	0.234
591	0.232
592	0.23
592	0.228
593	0.227
593	0.225
594	0.223
594	0.222
594	0.22
595	0.219
595	0.217
596	0.215
596	0.215
597	0.215
597	0.214
598	0.212
598	0.211
598	0.21
599	0.209
599	0.208
600	0.206
600	0.205
601	0.204
601	0.203
602	0.201
602	0.2
602	0.198
603	0.197
603	0.197
604	0.196
604	0.195
605	0.195
605	0.194
606	0.193
606	0.191
606	0.19
607	0.188
607	0.187
608	0.186
608	0.184
609	0.183
609	0.182
610	0.181
610	0.179
610	0.178
611	0.178
611	0.177
612	0.177
612	0.177
613	0.176
613	0.175
614	0.174
614	0.172
614	0.171
615	0.17
615	0.169
616	0.169
616	0.168
617	0.167
617	0.165
618	0.164
618	0.163
618	0.162
619	0.161
619	0.161
620	0.161
620	0.159
621	0.158
621	0.157
622	0.156
622	0.155
622	0.153
623	0.152
623	0.152
624	0.152
624	0.15
625	0.149
625	0.148
626	0.147
626	0.145
626	0.145
627	0.144
627	0.142
628	0.141
628	0.14
629	0.138
629	0.136
630	0.135
630	0.133
630	0.132
631	0.13
631	0.128
632	0.126
632	0.125
633	0.123
633	0.121
634	0.119
634	0.118
634	0.116
635	0.114
635	0.112
636	0.11
636	0.108
637	0.106
637	0.104
638	0.102
638	0.099
638	0.097
639	0.094
639	0.09
640	0.088
640	0.085
641	0.081
641	0.078
642	0.075
642	0.072
642	0.069
643	0.065
643	0.061
644	0.057
644	0.053
645	0.049
645	0.045
646	0.04
646	0.034
646	0.029
647	0.023
647	0.018
648	0.012
648	0.006
649	0.001
649	-0.005
650	-0.01
650	-0.016
650	-0.023
651	-0.03
651	-0.04
652	-0.051
652	-0.062
653	-0.072
653	-0.081
653	-0.077
654	-0.061
654	-0.057
655	-0.061
655	-0.065
656	-0.07
656	-0.075
657	-0.079
657	-0.082
657	-0.088
658	-0.093
658	-0.12
659	-0.193
659	-0.269
660	-0.302
660	-0.325
661	-0.348
661	-0.374
661	-0.401
662	-0.426
662	-0.453
663	-0.482
663	-0.516
664	-0.548
664	-0.584
665	-0.626
665	-0.667
665	-0.707
666	-0.753
666	-0.802
667	-0.853
667	-0.91
668	-0.965
668	-1.031
669	-1.096
669	-1.167
669	-1.245
670	-1.329
670	-1.461
671	-1.715
671	-2.123
672	-2.347
672	-2.5
672	-2.615
673	-2.708
673	-2.787
674	-2.819
674	-2.83
675	-2.845
675	-2.848
676	-2.838
676	-2.77
676	-2.691
677	-2.591
677	-2.464
678	-2.26
678	-1.833
679	-1.538
679	-1.408
680	-1.319
680	-1.252
680	-1.195
681	-1.156
681	-1.11
682	-1.075
682	-1.037
683	-1
683	-0.983
684	-0.96
684	-0.945
684	-0.925
685	-0.91
685	-0.904
686	-0.883
686	-0.873
687	-0.866
687	-0.857
687	-0.858
688	-0.844
688	-0.838
689	-0.843
689	-0.841
690	-0.828
690	-0.818
691	-0.819
691	-0.822
691	-0.822
692	-0.825
692	-0.823
693	-0.829
693	-0.84
694	-0.82
694	-0.819
695	-0.825
695	-0.82
695	-0.827
696	-0.834
696	-0.829
697	-0.822
697	-0.818
698	-0.815
698	-0.809
698	-0.825
699	-0.824
699	-0.825
700	-0.846
700	-0.84
701	-0.826
701	-0.819
702	-0.821
702	-0.821
702	-0.821
703	-0.811
703	-0.799
704	-0.806
704	-0.809
705	-0.798
705	-0.797
705	-0.792
706	-0.786
706	-0.783
707	-0.795
707	-0.798
708	-0.796
708	-0.793
709	-0.797
709	-0.793
709	-0.788
710	-0.797
710	-0.8
711	-0.798
711	-0.797
712	-0.787
712	-0.785
713	-0.793
713	-0.794
713	-0.772
714	-0.774
714	-0.776
715	-0.765
715	-0.774
716	-0.792
716	-0.802
716	-0.803
717	-0.809
717	-0.798
718	-0.792
718	-0.794
719	-0.79
719	-0.784
720	-0.779
720	-0.775
720	-0.769
721	-0.76
721	-0.763
722	-0.763
722	-0.76
723	-0.778
723	-0.791
723	-0.801
724	-0.798
724	-0.804
725	-0.798
725	-0.801
726	-0.804
726	-0.798
727	-0.799
727	-0.807
727	-0.796
728	-0.784
728	-0.781
729	-0.784
729	-0.786
730	-0.791
730	-0.782
730	-0.788
731	-0.789
731	-0.788
732	-0.79
732	-0.785
733	-0.8
733	-0.807
734	-0.817
734	-0.81
734	-0.794
735	-0.786
735	-0.78
736	-0.778
736	-0.774
737	-0.774
737	-0.763
737	-0.754
738	-0.738
738	-0.725
739	-0.726
739	-0.726
740	-0.741
740	-0.742
741	-0.753
741	-0.765
741	-0.774
742	-0.782
742	-0.797
743	-0.804
743	-0.807
744	-0.811
744	-0.819
744	-0.81
745	-0.82
745	-0.809
746	-0.802
746	-0.793
747	-0.797
747	-0.787
748	-0.788
748	-0.793
748	-0.794
749	-0.787
749	-0.794
750	-0.783
750	-0.784
751	-0.784
751	-0.78
751	-0.79
752	-0.795
752	-0.799
753	-0.801
753	-0.794
754	-0.813
754	-0.812
754	-0.82
755	-0.818
755	-0.811
756	-0.815
756	-0.801
757	-0.792
757	-0.781
758	-0.781
758	-0.78
758	-0.776
759	-0.782
759	-0.783
760	-0.78
760	-0.782
761	-0.776
761	-0.779
761	-0.779
762	-0.786
762	-0.787
763	-0.788
763	-0.793
764	-0.79
764	-0.783
764	-0.792
765	-0.791
765	-0.798
766	-0.802
766	-0.803
767	-0.818
767	-0.812
768	-0.81
768	-0.802
768	-0.796
769	-0.801
769	-0.807
770	-0.817
770	-0.823
771	-0.818
771	-0.819
771	-0.824
772	-0.829
772	-0.848
773	-0.848
773	-0.847
774	-0.847
774	-0.832
775	-0.82
775	-0.817
775	-0.821
776	-0.829
776	-0.825
777	-0.825
777	-0.809
778	-0.82
778	-0.829
778	-0.828
779	-0.836
779	-0.851
780	-0.847
780	-0.856
781	-0.846
781	-0.835
781	-0.848
782	-0.87
782	-0.87
783	-0.869
783	-0.879
784	-0.883
784	-0.876
784	-0.897
785	-0.89
785	-0.903
786	-0.907
786	-0.899
787	-0.887
787	-0.898
788	-0.89
788	-0.882
788	-0.884
789	-0.884
789	-0.871
790	-0.871
790	-0.854
791	-0.862
791	-0.858
791	-0.852
792	-0.845
792	-0.849
793	-0.852
793	-0.837
794	-0.831
794	-0.826
794	-0.832
795	-0.852
795	-0.839
796	-0.845
796	-0.841
797	-0.837
797	-0.828
797	-0.822
798	-0.844
798	-0.849
799	-0.848
799	-0.835
800	-0.832
800	-0.838
801	-0.835
801	-0.838
801	-0.835
802	-0.834
802	-0.835
803	-0.828
803	-0.819
804	-0.825
804	-0.832
804	-0.814
805	-0.797
805	-0.789
806	-0.79
806	-0.783
807	-0.785
807	-0.784
807	-0.767
808	-0.764
808	-0.757
809	-0.752
809	-0.753
810	-0.757
810	-0.754
810	-0.751
811	-0.757
811	-0.748
812	-0.741
812	-0.743
813	-0.748
813	-0.749
813	-0.746
814	-0.745
814	-0.75
815	-0.742
815	-0.737
816	-0.732
816	-0.748
817	-0.759
817	-0.763
817	-0.772
818	-0.765
818	-0.762
819	-0.773
819	-0.771
820	-0.782
820	-0.782
820	-0.782
821	-0.777
821	-0.774
822	-0.773
822	-0.76
823	-0.771
823	-0.77
823	-0.764
824	-0.763
824	-0.774
825	-0.773
825	-0.77
826	-0.765
826	-0.762
826	-0.759
827	-0.76
827	-0.75
828	-0.75
828	-0.745
829	-0.738
829	-0.723
829	-0.72
830	-0.719
830	-0.705
831	-0.697
831	-0.687
832	-0.679
832	-0.674
832	-0.668
833	-0.666
833	-0.671
834	-0.666
834	-0.661
835	-0.653
835	-0.654
835	-0.65
836	-0.645
836	-0.642
837	-0.631
837	-0.624
838	-0.611
838	-0.595
839	-0.59
839	-0.576
839	-0.566
840	-0.564
840	-0.554
841	-0.544
841	-0.538
842	-0.53
842	-0.518
842	-0.516
843	-0.513
843	-0.508
844	-0.507
844	-0.495
845	-0.481
845	-0.474
845	-0.463
846	-0.451
846	-0.441
847	-0.431
847	-0.418
848	-0.404
848	-0.388
848	-0.374
849	-0.364
849	-0.353
850	-0.344
850	-0.332
851	-0.32
851	-0.304
851	-0.295
852	-0.281
852	-0.269
853	-0.261
853	-0.251
854	-0.241
854	-0.23
854	-0.217
855	-0.208
855	-0.2
856	-0.193
856	-0.186
857	-0.18
857	-0.171
857	-0.159
858	-0.149
858	-0.143
859	-0.134
859	-0.125
860	-0.114
860	-0.101
860	-0.092
861	-0.083
861	-0.074
862	-0.066
862	-0.059
863	-0.052
863	-0.044
863	-0.038
864	-0.033
864	-0.027
865	-0.021
865	-0.016
866	-0.011
866	-0.007
866	-0.003
867	0.002
867	0.006
868	0.009
868	0.013
869	0.017
869	0.02
869	0.022
870	0.024
870	0.026
871	0.027
871	0.028
872	0.029
872	0.029
872	0.03
873	0.03
873	0.029
874	0.029
874	0.029
875	0.029
875	0.028
875	0.028
876	0.028
876	0.028
877	0.027
877	0.027
878	0.027
878	0.027
878	0.026
879	0.026
879	0.025
880	0.025
880	0.024
881	0.023
881	0.023
881	0.023
882	0.022
882	0.021
883	0.02
883	0.019
884	0.019
884	0.019
884	0.02
885	0.02
885	0.02
886	0.02
886	0.02
887	0.02
887	0.019
887	0.019
888	0.019
888	0.018
889	0.017
889	0.016
890	0.016
890	0.015
890	0.014
891	0.014
891	0.014
892	0.015
892	0.015
893	0.015
893	0.016
893	0.016
894	0.016
894	0.016
895	0.016
895	0.016
895	0.016
896	0.017
896	0.017
897	0.018
897	0.018
898	0.018
898	0.018
898	0.019
899	0.019
899	0.02
900	0.02
900	0.02
901	0.02
901	0.02
901	0.02
902	0.02
902	0.02
903	0.02
903	0.019
904	0.019
904	0.018
904	0.018
905	0.017
905	0.017
906	0.018
906	0.018
907	0.019
907	0.019
907	0.02
908	0.02
908	0.022
909	0.023
909	0.023
910	0.024
910	0.025
910	0.026
911	0.027
911	0.028
912	0.03
912	0.031
913	0.032
913	0.033
913	0.034
914	0.034
914	0.034
915	0.034
915	0.034
916	0.033
916	0.033
916	0.032
917	0.031
917	0.03
918	0.029
918	0.028
918	0.028
919	0.027
919	0.026
920	0.026
920	0.025
921	0.025
921	0.025
921	0.025
922	0.024
922	0.024
923	0.024
923	0.023
924	0.023
924	0.023
924	0.023
925	0.023
925	0.023
926	0.022
926	0.022
927	0.022
927	0.022
927	0.022
928	0.022
928	0.022
929	0.023
929	0.023
930	0.024
930	0.024
930	0.025
931	0.025
931	0.026
932	0.026
932	0.027
933	0.027
933	0.027
933	0.026
934	0.025
934	0.025
935	0.024
935	0.023
935	0.021
936	0.02
936	0.018
937	0.017
937	0.016
938	0.015
938	0.014
938	0.013
939	0.012
939	0.012
940	0.012
940	0.011
941	0.01
941	0.01
941	0.01
942	0.009
942	0.01
943	0.01
943	0.009
944	0.009
944	0.009
944	0.009
945	0.009
945	0.01
946	0.01
946	0.01
946	0.01
947	0.011
947	0.011
948	0.011
948	0.011
949	0.011
949	0.011
949	0.012
950	0.012
950	0.012
951	0.013
951	0.013
952	0.013
952	0.014
952	0.014
953	0.014
953	0.015
954	0.015
954	0.015
955	0.015
955	0.015
955	0.015
956	0.014
956	0.014
957	0.013
957	0.013
957	0.012
958	0.012
958	0.012
959	0.012
959	0.012
960	0.012
960	0.011
960	0.012
961	0.012
961	0.013
962	0.013
962	0.014
963	0.014
963	0.015
963	0.015
964	0.015
964	0.015
965	0.016
965	0.016
966	0.016
966	0.016
966	0.016
967	0.016
967	0.016
968	0.015
968	0.015
968	0.015
969	0.015
969	0.014
970	0.013
970	0.012
971	0.012
971	0.011
971	0.011
972	0.011
972	0.01
973	0.01
973	0.01
974	0.01
974	0.011
974	0.012
975	0.013
975	0.013
976	0.014
976	0.014
976	0.015
977	0.015
977	0.014
978	0.014
978	0.013
979	0.013
979	0.012
979	0.011
980	0.01
980	0.009
981	0.008
981	0.008
982	0.008
982	0.007
982	0.007
983	0.007
983	0.007
984	0.006
984	0.006
984	0.006
985	0.006
985	0.006
986	0.005
986	0.004
987	0.004
987	0.003
987	0.003
988	0.002
988	0.002
989	0.002
989	0.001
990	0.001
990	0
990	0
991	0
991	0
992	0.001
992	0.001
992	0.001
993	0.001
993	0.001
994	0.001
994	0.001
995	0.001
995	0
995	-0
996	-0
996	-0.001
997	-0.002
997	-0.002
997	-0.002
998	-0.002
998	-0.002
999	-0.002
999	-0.002
1000	-0.002
1000	-0.002
1000	-0.002
1001	-0.002
1001	-0.002
1002	-0.002
1002	-0.002
1003	-0.003
1003	-0.003
1003	-0.003
1004	-0.004
1004	-0.004
1005	-0.005
1005	-0.006
1005	-0.007
1006	-0.007
1006	-0.008
1007	-0.008
1007	-0.009
1008	-0.009
1008	-0.01
1008	-0.01
1009	-0.009
1009	-0.009
1010	-0.008
1010	-0.008
1010	-0.008
1011	-0.007
1011	-0.007
1012	-0.007
1012	-0.006
1013	-0.005
1013	-0.005
1013	-0.005
1014	-0.004
1014	-0.004
1015	-0.004
1015	-0.004
1016	-0.004
1016	-0.004
1016	-0.004
1017	-0.004
1017	-0.004
1018	-0.004
1018	-0.004
1018	-0.004
1019	-0.004
1019	-0.005
1020	-0.005
1020	-0.005
1021	-0.005
1021	-0.006
1021	-0.006
1022	-0.007
1022	-0.007
1023	-0.007
1023	-0.008
1023	-0.008
1024	-0.008
1024	-0.008
1025	-0.008
1025	-0.008
1026	-0.009
1026	-0.009
1026	-0.009
1027	-0.009
1027	-0.009
1028	-0.009
1028	-0.008
1028	-0.008
1029	-0.009
1029	-0.008
1030	-0.009
1030	-0.009
1031	-0.009
1031	-0.009
1031	-0.009
1032	-0.009
1032	-0.009
1033	-0.01
1033	-0.01
1033	-0.01
1034	-0.01
1034	-0.011
1035	-0.011
1035	-0.011
1036	-0.012
1036	-0.012
1036	-0.012
1037	-0.012
1037	-0.011
1038	-0.011
1038	-0.011
1039	-0.01
1039	-0.009
1039	-0.008
1040	-0.008
1040	-0.007
1041	-0.007
1041	-0.007
1041	-0.007
1042	-0.007
1042	-0.007
1043	-0.008
1043	-0.009
1044	-0.009
1044	-0.01
1044	-0.01
1045	-0.012
1045	-0.012
1046	-0.013
1046	-0.014
1046	-0.014
1047	-0.015
1047	-0.015
1048	-0.015
1048	-0.016
1049	-0.016
1049	-0.017
1049	-0.017
1050	-0.018
1050	-0.019
1051	-0.02
1051	-0.021
1051	-0.021
1052	-0.022
1052	-0.023
1053	-0.023
1053	-0.024
1053	-0.024
1054	-0.024
1054	-0.024
1055	-0.024
1055	-0.023
1056	-0.023
1056	-0.023
1056	-0.023
1057	-0.024
1057	-0.024
1058	-0.024
1058	-0.024
1058	-0.024
1059	-0.024
1059	-0.025
1060	-0.025
1060	-0.025
1061	-0.025
1061	-0.024
1061	-0.024
1062	-0.024
1062	-0.024
1063	-0.024
1063	-0.024
1063	-0.025
1064	-0.025
1064	-0.025
1065	-0.025
1065	-0.025
1066	-0.026
1066	-0.027
1066	-0.027
1067	-0.027
1067	-0.028
1068	-0.028
1068	-0.029
1068	-0.029
1069	-0.03
1069	-0.03
1070	-0.03
1070	-0.031
1071	-0.031
1071	-0.031
1071	-0.031
1072	-0.031
1072	-0.03
1073	-0.03
1073	-0.029
1073	-0.029
1074	-0.029
1074	-0.029
1075	-0.029
1075	-0.029
1076	-0.031
1076	-0.031
1076	-0.031
1077	-0.032
1077	-0.033
1078	-0.034
1078	-0.035
1078	-0.036
1079	-0.037
1079	-0.037
1080	-0.038
1080	-0.038
1080	-0.04
1081	-0.04
1081	-0.04
1082	-0.041
1082	-0.042
1083	-0.042
1083	-0.043
1083	-0.044
1084	-0.045
1084	-0.045
1085	-0.046
1085	-0.047
1085	-0.047
1086	-0.048
1086	-0.049
1087	-0.049
1087	-0.05
1088	-0.051
1088	-0.052
1088	-0.052
1089	-0.054
1089	-0.054
1090	-0.055
1090	-0.056
1090	-0.057
1091	-0.059
1091	-0.059
1092	-0.059
1092	-0.059
1092	-0.061
1093	-0.062
1093	-0.062
1094	-0.063
1094	-0.064
1095	-0.065
1095	-0.066
1095	-0.066
1096	-0.068
1096	-0.069
1097	-0.07
1097	-0.072
1097	-0.073
1098	-0.075
1098	-0.077
1099	-0.079
1099	-0.08
1100	-0.082
1100	-0.083
1100	-0.086
1101	-0.089
1101	-0.091
1102	-0.093
1102	-0.095
1102	-0.097
1103	-0.099
1103	-0.102
1104	-0.105
1104	-0.109
1104	-0.111
1105	-0.113
1105	-0.116
1106	-0.121
1106	-0.123
1107	-0.129
1107	-0.133
1107	-0.138
1108	-0.141
1108	-0.142
1109	-0.145
1109	-0.149
1109	-0.154
1110	-0.155
1110	-0.159
1111	-0.169
1111	-0.167
