Data from 3.4A_17C_Absorbance__771__01728.txt Node

Date: Tue Jun 20 16:05:58 CEST 2023
User: Marek
Spectrometer: MAYP115816
Trigger mode: 0
Integration Time (sec): 2.200000E-1
Scans to average: 10
Electric dark correction enabled: true
Nonlinearity correction enabled: true
Boxcar width: 5
XAxis mode: Wavelengths
Number of Pixels in Spectrum: 2068
>>>>>Begin Spectral Data<<<<<
199	-0.763
199	-0.753
200	-0.716
200	-0.665
201	-0.638
201	-0.631
202	-0.614
202	-0.606
203	-0.604
203	-0.599
204	-0.578
204	-0.563
205	-0.539
205	-0.53
205	-0.538
206	-0.539
206	-0.534
207	-0.527
207	-0.533
208	-0.535
208	-0.539
209	-0.544
209	-0.55
210	-0.563
210	-0.57
211	-0.564
211	-0.568
212	-0.577
212	-0.583
213	-0.579
213	-0.574
213	-0.572
214	-0.577
214	-0.58
215	-0.578
215	-0.583
216	-0.592
216	-0.597
217	-0.594
217	-0.595
218	-0.605
218	-0.607
219	-0.613
219	-0.613
220	-0.616
220	-0.623
221	-0.621
221	-0.621
221	-0.614
222	-0.614
222	-0.613
223	-0.609
223	-0.612
224	-0.613
224	-0.612
225	-0.61
225	-0.611
226	-0.613
226	-0.613
227	-0.621
227	-0.632
228	-0.636
228	-0.644
229	-0.65
229	-0.648
229	-0.648
230	-0.643
230	-0.64
231	-0.634
231	-0.63
232	-0.633
232	-0.627
233	-0.625
233	-0.613
234	-0.612
234	-0.607
235	-0.611
235	-0.622
236	-0.631
236	-0.632
236	-0.632
237	-0.628
237	-0.628
238	-0.63
238	-0.631
239	-0.633
239	-0.642
240	-0.636
240	-0.631
241	-0.626
241	-0.629
242	-0.632
242	-0.641
243	-0.642
243	-0.645
243	-0.649
244	-0.644
244	-0.644
245	-0.648
245	-0.653
246	-0.662
246	-0.666
247	-0.674
247	-0.662
248	-0.662
248	-0.664
249	-0.67
249	-0.674
250	-0.674
250	-0.682
250	-0.678
251	-0.679
251	-0.676
252	-0.677
252	-0.686
253	-0.682
253	-0.693
254	-0.697
254	-0.696
255	-0.705
255	-0.704
256	-0.707
256	-0.719
257	-0.727
257	-0.723
258	-0.726
258	-0.733
258	-0.73
259	-0.723
259	-0.743
260	-0.743
260	-0.731
261	-0.742
261	-0.729
262	-0.737
262	-0.736
263	-0.727
263	-0.731
264	-0.741
264	-0.744
265	-0.734
265	-0.738
265	-0.748
266	-0.74
266	-0.739
267	-0.736
267	-0.753
268	-0.761
268	-0.756
269	-0.749
269	-0.764
270	-0.766
270	-0.765
271	-0.78
271	-0.788
272	-0.79
272	-0.792
272	-0.785
273	-0.796
273	-0.809
274	-0.803
274	-0.796
275	-0.794
275	-0.782
276	-0.784
276	-0.791
277	-0.792
277	-0.791
278	-0.797
278	-0.796
278	-0.785
279	-0.793
279	-0.806
280	-0.808
280	-0.819
281	-0.814
281	-0.807
282	-0.814
282	-0.807
283	-0.798
283	-0.813
284	-0.826
284	-0.837
285	-0.817
285	-0.825
285	-0.816
286	-0.82
286	-0.834
287	-0.83
287	-0.829
288	-0.831
288	-0.81
289	-0.807
289	-0.814
290	-0.822
290	-0.811
291	-0.814
291	-0.813
292	-0.793
292	-0.791
292	-0.796
293	-0.784
293	-0.782
294	-0.783
294	-0.77
295	-0.752
295	-0.763
296	-0.775
296	-0.77
297	-0.76
297	-0.764
298	-0.76
298	-0.776
298	-0.779
299	-0.76
299	-0.752
300	-0.748
300	-0.729
301	-0.709
301	-0.713
302	-0.722
302	-0.707
303	-0.7
303	-0.689
304	-0.674
304	-0.677
305	-0.672
305	-0.681
305	-0.697
306	-0.683
306	-0.681
307	-0.673
307	-0.684
308	-0.686
308	-0.683
309	-0.686
309	-0.682
310	-0.678
310	-0.67
311	-0.657
311	-0.676
311	-0.664
312	-0.662
312	-0.652
313	-0.643
313	-0.643
314	-0.648
314	-0.646
315	-0.645
315	-0.641
316	-0.636
316	-0.625
317	-0.616
317	-0.614
318	-0.605
318	-0.603
318	-0.592
319	-0.582
319	-0.574
320	-0.572
320	-0.568
321	-0.563
321	-0.563
322	-0.558
322	-0.55
323	-0.551
323	-0.541
324	-0.541
324	-0.528
324	-0.519
325	-0.503
325	-0.486
326	-0.477
326	-0.454
327	-0.44
327	-0.418
328	-0.388
328	-0.364
329	-0.334
329	-0.307
330	-0.281
330	-0.248
330	-0.214
331	-0.178
331	-0.147
332	-0.114
332	-0.083
333	-0.055
333	-0.025
334	0.001
334	0.026
335	0.051
335	0.071
336	0.091
336	0.11
336	0.124
337	0.14
337	0.155
338	0.167
338	0.176
339	0.188
339	0.197
340	0.204
340	0.211
341	0.217
341	0.222
342	0.228
342	0.233
342	0.237
343	0.24
343	0.245
344	0.247
344	0.25
345	0.252
345	0.254
346	0.256
346	0.258
347	0.259
347	0.26
348	0.261
348	0.263
348	0.263
349	0.264
349	0.265
350	0.265
350	0.266
351	0.266
351	0.266
352	0.266
352	0.266
353	0.267
353	0.267
354	0.267
354	0.267
354	0.267
355	0.267
355	0.267
356	0.267
356	0.267
357	0.267
357	0.267
358	0.267
358	0.267
359	0.268
359	0.268
360	0.268
360	0.268
360	0.268
361	0.268
361	0.267
362	0.267
362	0.267
363	0.267
363	0.267
364	0.267
364	0.267
365	0.267
365	0.267
366	0.267
366	0.267
366	0.267
367	0.268
367	0.267
368	0.267
368	0.267
369	0.267
369	0.267
370	0.267
370	0.266
371	0.266
371	0.266
372	0.266
372	0.265
372	0.265
373	0.265
373	0.265
374	0.265
374	0.265
375	0.265
375	0.264
376	0.264
376	0.264
377	0.264
377	0.264
378	0.263
378	0.263
378	0.263
379	0.263
379	0.263
380	0.263
380	0.263
381	0.263
381	0.262
382	0.262
382	0.262
383	0.262
383	0.262
383	0.262
384	0.261
384	0.261
385	0.261
385	0.261
386	0.26
386	0.26
387	0.26
387	0.26
388	0.26
388	0.259
389	0.259
389	0.259
389	0.259
390	0.259
390	0.259
391	0.258
391	0.258
392	0.258
392	0.258
393	0.258
393	0.258
394	0.258
394	0.257
394	0.257
395	0.257
395	0.256
396	0.256
396	0.256
397	0.256
397	0.256
398	0.256
398	0.256
399	0.256
399	0.255
400	0.255
400	0.255
400	0.255
401	0.255
401	0.255
402	0.255
402	0.255
403	0.255
403	0.254
404	0.254
404	0.254
405	0.254
405	0.253
405	0.253
406	0.253
406	0.252
407	0.252
407	0.252
408	0.251
408	0.251
409	0.251
409	0.251
410	0.251
410	0.251
411	0.251
411	0.251
411	0.251
412	0.25
412	0.25
413	0.25
413	0.25
414	0.25
414	0.25
415	0.25
415	0.249
416	0.249
416	0.248
416	0.248
417	0.248
417	0.248
418	0.248
418	0.248
419	0.248
419	0.248
420	0.248
420	0.248
421	0.248
421	0.248
421	0.248
422	0.248
422	0.248
423	0.248
423	0.248
424	0.247
424	0.247
425	0.247
425	0.247
426	0.247
426	0.247
427	0.247
427	0.247
427	0.247
428	0.247
428	0.247
429	0.247
429	0.247
430	0.247
430	0.246
431	0.246
431	0.246
432	0.245
432	0.245
432	0.245
433	0.244
433	0.244
434	0.244
434	0.244
435	0.244
435	0.244
436	0.244
436	0.244
437	0.244
437	0.244
437	0.244
438	0.244
438	0.244
439	0.244
439	0.244
440	0.244
440	0.244
441	0.244
441	0.243
442	0.243
442	0.244
442	0.243
443	0.244
443	0.243
444	0.244
444	0.244
445	0.244
445	0.244
446	0.244
446	0.244
447	0.244
447	0.244
447	0.244
448	0.244
448	0.244
449	0.243
449	0.243
450	0.243
450	0.243
451	0.243
451	0.243
452	0.243
452	0.243
452	0.243
453	0.243
453	0.243
454	0.243
454	0.243
455	0.244
455	0.244
456	0.244
456	0.244
457	0.244
457	0.244
458	0.244
458	0.244
458	0.244
459	0.243
459	0.243
460	0.243
460	0.242
461	0.243
461	0.243
462	0.243
462	0.243
463	0.244
463	0.245
463	0.245
464	0.246
464	0.246
465	0.247
465	0.247
466	0.248
466	0.248
467	0.248
467	0.248
467	0.248
468	0.247
468	0.247
469	0.247
469	0.247
470	0.248
470	0.248
471	0.248
471	0.248
472	0.248
472	0.248
472	0.249
473	0.249
473	0.25
474	0.25
474	0.251
475	0.251
475	0.252
476	0.252
476	0.253
477	0.254
477	0.254
477	0.255
478	0.255
478	0.255
479	0.256
479	0.257
480	0.257
480	0.257
481	0.258
481	0.258
482	0.259
482	0.26
482	0.26
483	0.262
483	0.263
484	0.264
484	0.264
485	0.264
485	0.265
486	0.266
486	0.267
487	0.268
487	0.268
487	0.269
488	0.27
488	0.27
489	0.271
489	0.273
490	0.274
490	0.275
491	0.276
491	0.277
492	0.278
492	0.279
492	0.28
493	0.281
493	0.282
494	0.284
494	0.285
495	0.286
495	0.287
496	0.289
496	0.29
496	0.292
497	0.294
497	0.295
498	0.296
498	0.298
499	0.299
499	0.301
500	0.303
500	0.304
501	0.306
501	0.307
501	0.308
502	0.309
502	0.311
503	0.312
503	0.314
504	0.316
504	0.318
505	0.32
505	0.322
506	0.324
506	0.326
506	0.328
507	0.33
507	0.332
508	0.334
508	0.336
509	0.338
509	0.34
510	0.342
510	0.344
511	0.346
511	0.348
511	0.35
512	0.352
512	0.353
513	0.354
513	0.356
514	0.358
514	0.359
515	0.361
515	0.362
515	0.363
516	0.365
516	0.366
517	0.368
517	0.37
518	0.371
518	0.372
519	0.373
519	0.374
520	0.376
520	0.377
520	0.378
521	0.379
521	0.38
522	0.38
522	0.381
523	0.382
523	0.383
524	0.384
524	0.384
524	0.385
525	0.386
525	0.386
526	0.387
526	0.388
527	0.388
527	0.388
528	0.388
528	0.388
529	0.389
529	0.389
529	0.388
530	0.388
530	0.388
531	0.388
531	0.387
532	0.387
532	0.387
533	0.386
533	0.386
533	0.385
534	0.385
534	0.384
535	0.383
535	0.383
536	0.382
536	0.381
537	0.381
537	0.38
538	0.379
538	0.378
538	0.377
539	0.377
539	0.376
540	0.375
540	0.373
541	0.372
541	0.371
542	0.369
542	0.368
542	0.366
543	0.365
543	0.363
544	0.362
544	0.36
545	0.359
545	0.358
546	0.356
546	0.354
547	0.353
547	0.351
547	0.349
548	0.348
548	0.347
549	0.345
549	0.344
550	0.342
550	0.34
551	0.338
551	0.337
551	0.335
552	0.333
552	0.331
553	0.33
553	0.329
554	0.327
554	0.325
555	0.323
555	0.321
556	0.32
556	0.318
556	0.316
557	0.315
557	0.313
558	0.311
558	0.31
559	0.308
559	0.307
560	0.305
560	0.304
560	0.302
561	0.301
561	0.3
562	0.299
562	0.297
563	0.296
563	0.294
564	0.292
564	0.291
564	0.29
565	0.289
565	0.288
566	0.286
566	0.285
567	0.284
567	0.283
568	0.282
568	0.28
568	0.279
569	0.278
569	0.276
570	0.274
570	0.272
571	0.271
571	0.269
572	0.268
572	0.267
573	0.265
573	0.264
573	0.262
574	0.261
574	0.261
575	0.26
575	0.261
576	0.26
576	0.258
577	0.257
577	0.256
577	0.255
578	0.255
578	0.255
579	0.256
579	0.256
580	0.254
580	0.252
581	0.25
581	0.249
581	0.249
582	0.249
582	0.249
583	0.249
583	0.247
584	0.245
584	0.242
585	0.243
585	0.243
585	0.243
586	0.242
586	0.241
587	0.239
587	0.237
588	0.235
588	0.234
589	0.234
589	0.234
590	0.233
590	0.232
590	0.233
591	0.234
591	0.233
592	0.233
592	0.232
593	0.232
593	0.231
594	0.23
594	0.229
594	0.229
595	0.228
595	0.226
596	0.225
596	0.225
597	0.227
597	0.226
598	0.226
598	0.226
598	0.226
599	0.226
599	0.225
600	0.225
600	0.225
601	0.226
601	0.226
602	0.225
602	0.225
602	0.224
603	0.224
603	0.225
604	0.225
604	0.225
605	0.225
605	0.225
606	0.224
606	0.223
606	0.222
607	0.222
607	0.222
608	0.221
608	0.219
609	0.218
609	0.218
610	0.217
610	0.216
610	0.217
611	0.217
611	0.216
612	0.217
612	0.217
613	0.217
613	0.217
614	0.217
614	0.215
614	0.215
615	0.214
615	0.213
616	0.213
616	0.213
617	0.212
617	0.212
618	0.211
618	0.21
618	0.21
619	0.21
619	0.21
620	0.211
620	0.21
621	0.209
621	0.209
622	0.208
622	0.208
622	0.207
623	0.206
623	0.206
624	0.205
624	0.204
625	0.203
625	0.203
626	0.201
626	0.2
626	0.2
627	0.2
627	0.199
628	0.199
628	0.198
629	0.197
629	0.196
630	0.195
630	0.193
630	0.192
631	0.191
631	0.189
632	0.188
632	0.186
633	0.184
633	0.183
634	0.182
634	0.18
634	0.179
635	0.178
635	0.176
636	0.174
636	0.173
637	0.17
637	0.168
638	0.166
638	0.163
638	0.16
639	0.157
639	0.153
640	0.15
640	0.146
641	0.143
641	0.139
642	0.136
642	0.132
642	0.128
643	0.124
643	0.12
644	0.116
644	0.111
645	0.107
645	0.103
646	0.098
646	0.093
646	0.087
647	0.081
647	0.075
648	0.069
648	0.062
649	0.056
649	0.049
650	0.042
650	0.035
650	0.027
651	0.018
651	0.007
652	-0.006
652	-0.02
653	-0.032
653	-0.043
653	-0.04
654	-0.022
654	-0.018
655	-0.023
655	-0.029
656	-0.036
656	-0.043
657	-0.048
657	-0.053
657	-0.06
658	-0.068
658	-0.099
659	-0.185
659	-0.276
660	-0.316
660	-0.344
661	-0.373
661	-0.404
661	-0.435
662	-0.465
662	-0.496
663	-0.532
663	-0.571
664	-0.61
664	-0.651
665	-0.699
665	-0.747
665	-0.792
666	-0.844
666	-0.9
667	-0.956
667	-1.02
668	-1.08
668	-1.15
669	-1.218
669	-1.292
669	-1.369
670	-1.45
670	-1.555
671	-1.698
671	-1.987
672	-2.266
672	-2.442
672	-2.57
673	-2.67
673	-2.754
674	-2.832
674	-2.855
675	-2.872
675	-2.877
676	-2.876
676	-2.844
676	-2.78
677	-2.703
677	-2.613
678	-2.483
678	-2.285
679	-1.894
679	-1.67
680	-1.553
680	-1.471
680	-1.398
681	-1.345
681	-1.288
682	-1.243
682	-1.196
683	-1.151
683	-1.124
684	-1.092
684	-1.071
684	-1.047
685	-1.024
685	-1.012
686	-0.988
686	-0.972
687	-0.961
687	-0.947
687	-0.945
688	-0.928
688	-0.919
689	-0.922
689	-0.917
690	-0.904
690	-0.892
691	-0.89
691	-0.893
691	-0.892
692	-0.892
692	-0.888
693	-0.894
693	-0.904
694	-0.882
694	-0.88
695	-0.881
695	-0.875
695	-0.881
696	-0.886
696	-0.88
697	-0.874
697	-0.871
698	-0.864
698	-0.855
698	-0.869
699	-0.868
699	-0.868
700	-0.886
700	-0.879
701	-0.865
701	-0.859
702	-0.858
702	-0.856
702	-0.857
703	-0.848
703	-0.837
704	-0.843
704	-0.847
705	-0.837
705	-0.837
705	-0.832
706	-0.823
706	-0.82
707	-0.831
707	-0.836
708	-0.834
708	-0.832
709	-0.835
709	-0.831
709	-0.825
710	-0.832
710	-0.836
711	-0.837
711	-0.838
712	-0.828
712	-0.824
713	-0.827
713	-0.828
713	-0.808
714	-0.81
714	-0.814
715	-0.807
715	-0.814
716	-0.829
716	-0.837
716	-0.839
717	-0.844
717	-0.836
718	-0.83
718	-0.83
719	-0.827
719	-0.819
720	-0.813
720	-0.808
720	-0.803
721	-0.794
721	-0.797
722	-0.794
722	-0.792
723	-0.809
723	-0.82
723	-0.827
724	-0.825
724	-0.831
725	-0.824
725	-0.827
726	-0.83
726	-0.822
727	-0.824
727	-0.831
727	-0.82
728	-0.808
728	-0.804
729	-0.807
729	-0.809
730	-0.814
730	-0.805
730	-0.81
731	-0.814
731	-0.813
732	-0.815
732	-0.81
733	-0.825
733	-0.834
734	-0.842
734	-0.833
734	-0.815
735	-0.807
735	-0.801
736	-0.798
736	-0.794
737	-0.793
737	-0.783
737	-0.775
738	-0.76
738	-0.748
739	-0.753
739	-0.754
740	-0.766
740	-0.767
741	-0.779
741	-0.788
741	-0.798
742	-0.805
742	-0.822
743	-0.828
743	-0.831
744	-0.833
744	-0.841
744	-0.835
745	-0.843
745	-0.832
746	-0.828
746	-0.817
747	-0.82
747	-0.808
748	-0.81
748	-0.814
748	-0.817
749	-0.809
749	-0.815
750	-0.805
750	-0.806
751	-0.804
751	-0.802
751	-0.813
752	-0.819
752	-0.821
753	-0.823
753	-0.815
754	-0.835
754	-0.835
754	-0.844
755	-0.845
755	-0.839
756	-0.841
756	-0.828
757	-0.819
757	-0.808
758	-0.808
758	-0.808
758	-0.803
759	-0.807
759	-0.806
760	-0.804
760	-0.805
761	-0.798
761	-0.801
761	-0.802
762	-0.808
762	-0.81
763	-0.811
763	-0.815
764	-0.813
764	-0.81
764	-0.816
765	-0.816
765	-0.824
766	-0.826
766	-0.829
767	-0.845
767	-0.84
768	-0.838
768	-0.83
768	-0.826
769	-0.828
769	-0.836
770	-0.847
770	-0.849
771	-0.845
771	-0.844
771	-0.849
772	-0.852
772	-0.873
773	-0.875
773	-0.875
774	-0.874
774	-0.855
775	-0.839
775	-0.84
775	-0.843
776	-0.853
776	-0.847
777	-0.848
777	-0.831
778	-0.838
778	-0.847
778	-0.847
779	-0.857
779	-0.875
780	-0.872
780	-0.882
781	-0.873
781	-0.863
781	-0.875
782	-0.897
782	-0.898
783	-0.897
783	-0.906
784	-0.909
784	-0.902
784	-0.92
785	-0.912
785	-0.923
786	-0.929
786	-0.922
787	-0.912
787	-0.919
788	-0.911
788	-0.903
788	-0.903
789	-0.902
789	-0.89
790	-0.891
790	-0.874
791	-0.879
791	-0.875
791	-0.867
792	-0.863
792	-0.869
793	-0.871
793	-0.859
794	-0.856
794	-0.85
794	-0.856
795	-0.877
795	-0.863
796	-0.868
796	-0.865
797	-0.857
797	-0.847
797	-0.841
798	-0.861
798	-0.861
799	-0.861
799	-0.847
800	-0.843
800	-0.852
801	-0.85
801	-0.855
801	-0.851
802	-0.85
802	-0.85
803	-0.845
803	-0.84
804	-0.846
804	-0.855
804	-0.839
805	-0.818
805	-0.809
806	-0.811
806	-0.807
807	-0.807
807	-0.806
807	-0.788
808	-0.783
808	-0.776
809	-0.77
809	-0.77
810	-0.776
810	-0.772
810	-0.767
811	-0.772
811	-0.763
812	-0.757
812	-0.76
813	-0.764
813	-0.766
813	-0.762
814	-0.762
814	-0.767
815	-0.759
815	-0.755
816	-0.749
816	-0.767
817	-0.779
817	-0.783
817	-0.794
818	-0.786
818	-0.784
819	-0.794
819	-0.792
820	-0.803
820	-0.802
820	-0.802
821	-0.797
821	-0.792
822	-0.791
822	-0.779
823	-0.788
823	-0.787
823	-0.781
824	-0.781
824	-0.79
825	-0.789
825	-0.785
826	-0.78
826	-0.776
826	-0.775
827	-0.774
827	-0.764
828	-0.764
828	-0.757
829	-0.749
829	-0.734
829	-0.731
830	-0.731
830	-0.718
831	-0.713
831	-0.701
832	-0.692
832	-0.687
832	-0.682
833	-0.683
833	-0.687
834	-0.685
834	-0.681
835	-0.671
835	-0.67
835	-0.664
836	-0.66
836	-0.657
837	-0.648
837	-0.639
838	-0.623
838	-0.607
839	-0.6
839	-0.586
839	-0.577
840	-0.575
840	-0.565
841	-0.554
841	-0.547
842	-0.537
842	-0.523
842	-0.52
843	-0.516
843	-0.509
844	-0.507
844	-0.494
845	-0.48
845	-0.472
845	-0.46
846	-0.449
846	-0.439
847	-0.428
847	-0.416
848	-0.402
848	-0.387
848	-0.373
849	-0.361
849	-0.349
850	-0.337
850	-0.328
851	-0.314
851	-0.298
851	-0.288
852	-0.271
852	-0.257
853	-0.247
853	-0.237
854	-0.224
854	-0.213
854	-0.2
855	-0.187
855	-0.179
856	-0.17
856	-0.161
857	-0.153
857	-0.145
857	-0.132
858	-0.121
858	-0.113
859	-0.102
859	-0.09
860	-0.08
860	-0.065
860	-0.055
861	-0.045
861	-0.035
862	-0.025
862	-0.017
863	-0.008
863	0.002
863	0.008
864	0.013
864	0.021
865	0.028
865	0.034
866	0.04
866	0.046
866	0.052
867	0.057
867	0.063
868	0.067
868	0.072
869	0.077
869	0.08
869	0.083
870	0.085
870	0.087
871	0.088
871	0.089
872	0.09
872	0.091
872	0.092
873	0.092
873	0.092
874	0.091
874	0.091
875	0.091
875	0.091
875	0.091
876	0.091
876	0.091
877	0.09
877	0.09
878	0.089
878	0.089
878	0.089
879	0.088
879	0.087
880	0.086
880	0.085
881	0.084
881	0.083
881	0.082
882	0.08
882	0.079
883	0.078
883	0.077
884	0.076
884	0.076
884	0.076
885	0.075
885	0.075
886	0.075
886	0.075
887	0.075
887	0.075
887	0.075
888	0.075
888	0.074
889	0.074
889	0.074
890	0.073
890	0.073
890	0.072
891	0.072
891	0.072
892	0.072
892	0.072
893	0.072
893	0.072
893	0.072
894	0.072
894	0.072
895	0.072
895	0.072
895	0.072
896	0.072
896	0.072
897	0.072
897	0.072
898	0.072
898	0.072
898	0.073
899	0.073
899	0.073
900	0.073
900	0.073
901	0.074
901	0.073
901	0.074
902	0.073
902	0.074
903	0.074
903	0.074
904	0.074
904	0.075
904	0.075
905	0.076
905	0.076
906	0.077
906	0.077
907	0.077
907	0.078
907	0.078
908	0.078
908	0.078
909	0.078
909	0.077
910	0.077
910	0.077
910	0.077
911	0.078
911	0.079
912	0.079
912	0.081
913	0.082
913	0.083
913	0.084
914	0.085
914	0.085
915	0.085
915	0.086
916	0.086
916	0.086
916	0.085
917	0.085
917	0.085
918	0.084
918	0.084
918	0.084
919	0.084
919	0.084
920	0.084
920	0.084
921	0.084
921	0.084
921	0.084
922	0.084
922	0.084
923	0.084
923	0.083
924	0.083
924	0.083
924	0.082
925	0.082
925	0.081
926	0.08
926	0.08
927	0.079
927	0.078
927	0.078
928	0.077
928	0.077
929	0.077
929	0.076
930	0.076
930	0.076
930	0.076
931	0.077
931	0.077
932	0.078
932	0.079
933	0.08
933	0.081
933	0.081
934	0.08
934	0.08
935	0.079
935	0.078
935	0.077
936	0.075
936	0.073
937	0.072
937	0.07
938	0.069
938	0.068
938	0.067
939	0.066
939	0.065
940	0.064
940	0.063
941	0.063
941	0.062
941	0.063
942	0.062
942	0.062
943	0.062
943	0.061
944	0.061
944	0.06
944	0.06
945	0.059
945	0.059
946	0.058
946	0.058
946	0.057
947	0.057
947	0.056
948	0.057
948	0.057
949	0.057
949	0.058
949	0.059
950	0.06
950	0.062
951	0.063
951	0.064
952	0.065
952	0.066
952	0.067
953	0.067
953	0.068
954	0.068
954	0.067
955	0.068
955	0.067
955	0.066
956	0.066
956	0.065
957	0.064
957	0.063
957	0.062
958	0.062
958	0.062
959	0.062
959	0.062
960	0.062
960	0.062
960	0.062
961	0.063
961	0.063
962	0.064
962	0.065
963	0.065
963	0.066
963	0.067
964	0.068
964	0.069
965	0.069
965	0.07
966	0.07
966	0.07
966	0.071
967	0.071
967	0.07
968	0.069
968	0.069
968	0.069
969	0.068
969	0.068
970	0.068
970	0.068
971	0.069
971	0.069
971	0.07
972	0.071
972	0.071
973	0.072
973	0.072
974	0.072
974	0.073
974	0.073
975	0.073
975	0.073
976	0.073
976	0.073
976	0.072
977	0.072
977	0.07
978	0.069
978	0.068
979	0.066
979	0.065
979	0.064
980	0.063
980	0.062
981	0.061
981	0.06
982	0.06
982	0.06
982	0.06
983	0.06
983	0.06
984	0.06
984	0.06
984	0.06
985	0.06
985	0.059
986	0.058
986	0.057
987	0.056
987	0.055
987	0.054
988	0.053
988	0.052
989	0.051
989	0.05
990	0.049
990	0.049
990	0.048
991	0.048
991	0.049
992	0.049
992	0.049
992	0.049
993	0.05
993	0.05
994	0.049
994	0.049
995	0.048
995	0.047
995	0.046
996	0.046
996	0.044
997	0.043
997	0.042
997	0.041
998	0.041
998	0.041
999	0.04
999	0.04
1000	0.041
1000	0.041
1000	0.041
1001	0.042
1001	0.042
1002	0.043
1002	0.043
1003	0.043
1003	0.042
1003	0.042
1004	0.041
1004	0.04
1005	0.039
1005	0.038
1005	0.036
1006	0.035
1006	0.034
1007	0.033
1007	0.031
1008	0.03
1008	0.029
1008	0.029
1009	0.029
1009	0.029
1010	0.029
1010	0.029
1010	0.029
1011	0.03
1011	0.03
1012	0.031
1012	0.033
1013	0.034
1013	0.034
1013	0.036
1014	0.036
1014	0.037
1015	0.038
1015	0.039
1016	0.039
1016	0.04
1016	0.04
1017	0.04
1017	0.04
1018	0.04
1018	0.04
1018	0.039
1019	0.039
1019	0.039
1020	0.038
1020	0.037
1021	0.037
1021	0.037
1021	0.036
1022	0.036
1022	0.036
1023	0.036
1023	0.035
1023	0.035
1024	0.035
1024	0.035
1025	0.035
1025	0.035
1026	0.035
1026	0.036
1026	0.035
1027	0.035
1027	0.036
1028	0.036
1028	0.036
1028	0.037
1029	0.037
1029	0.037
1030	0.036
1030	0.036
1031	0.036
1031	0.036
1031	0.036
1032	0.035
1032	0.035
1033	0.034
1033	0.034
1033	0.033
1034	0.033
1034	0.032
1035	0.033
1035	0.032
1036	0.032
1036	0.032
1036	0.032
1037	0.032
1037	0.033
1038	0.033
1038	0.034
1039	0.035
1039	0.036
1039	0.037
1040	0.038
1040	0.039
1041	0.039
1041	0.039
1041	0.039
1042	0.039
1042	0.038
1043	0.038
1043	0.037
1044	0.037
1044	0.036
1044	0.036
1045	0.035
1045	0.035
1046	0.034
1046	0.034
1046	0.034
1047	0.034
1047	0.034
1048	0.034
1048	0.034
1049	0.034
1049	0.034
1049	0.034
1050	0.033
1050	0.032
1051	0.032
1051	0.031
1051	0.031
1052	0.03
1052	0.029
1053	0.028
1053	0.027
1053	0.026
1054	0.025
1054	0.024
1055	0.024
1055	0.024
1056	0.023
1056	0.023
1056	0.022
1057	0.021
1057	0.021
1058	0.02
1058	0.02
1058	0.019
1059	0.019
1059	0.018
1060	0.017
1060	0.017
1061	0.016
1061	0.016
1061	0.016
1062	0.016
1062	0.016
1063	0.015
1063	0.015
1063	0.014
1064	0.014
1064	0.014
1065	0.014
1065	0.014
1066	0.013
1066	0.013
1066	0.013
1067	0.012
1067	0.012
1068	0.012
1068	0.011
1068	0.011
1069	0.01
1069	0.01
1070	0.009
1070	0.009
1071	0.009
1071	0.009
1071	0.009
1072	0.009
1072	0.009
1073	0.009
1073	0.009
1073	0.009
1074	0.009
1074	0.009
1075	0.009
1075	0.009
1076	0.007
1076	0.007
1076	0.006
1077	0.005
1077	0.004
1078	0.003
1078	0.002
1078	0.001
1079	-0
1079	-0.001
1080	-0.002
1080	-0.003
1080	-0.004
1081	-0.005
1081	-0.006
1082	-0.007
1082	-0.008
1083	-0.009
1083	-0.011
1083	-0.012
1084	-0.013
1084	-0.014
1085	-0.015
1085	-0.016
1085	-0.017
1086	-0.018
1086	-0.019
1087	-0.019
1087	-0.02
1088	-0.021
1088	-0.022
1088	-0.023
1089	-0.024
1089	-0.025
1090	-0.025
1090	-0.026
1090	-0.028
1091	-0.029
1091	-0.029
1092	-0.03
1092	-0.03
1092	-0.031
1093	-0.032
1093	-0.031
1094	-0.032
1094	-0.032
1095	-0.033
1095	-0.034
1095	-0.033
1096	-0.035
1096	-0.036
1097	-0.038
1097	-0.039
1097	-0.041
1098	-0.043
1098	-0.045
1099	-0.046
1099	-0.048
1100	-0.051
1100	-0.054
1100	-0.056
1101	-0.059
1101	-0.062
1102	-0.064
1102	-0.067
1102	-0.069
1103	-0.072
1103	-0.075
1104	-0.078
1104	-0.081
1104	-0.083
1105	-0.084
1105	-0.087
1106	-0.092
1106	-0.094
1107	-0.1
1107	-0.104
1107	-0.109
1108	-0.11
1108	-0.112
1109	-0.115
1109	-0.12
1109	-0.125
1110	-0.126
1110	-0.131
1111	-0.14
1111	-0.133
