Data from 3.4A_17C_Absorbance__700__01657.txt Node

Date: Tue Jun 20 16:03:22 CEST 2023
User: Marek
Spectrometer: MAYP115816
Trigger mode: 0
Integration Time (sec): 2.200000E-1
Scans to average: 10
Electric dark correction enabled: true
Nonlinearity correction enabled: true
Boxcar width: 5
XAxis mode: Wavelengths
Number of Pixels in Spectrum: 2068
>>>>>Begin Spectral Data<<<<<
199	-0.773
199	-0.749
200	-0.718
200	-0.665
201	-0.637
201	-0.631
202	-0.612
202	-0.608
203	-0.605
203	-0.598
204	-0.578
204	-0.561
205	-0.54
205	-0.531
205	-0.539
206	-0.543
206	-0.537
207	-0.53
207	-0.533
208	-0.535
208	-0.541
209	-0.542
209	-0.549
210	-0.562
210	-0.568
211	-0.561
211	-0.563
212	-0.572
212	-0.581
213	-0.578
213	-0.573
213	-0.57
214	-0.577
214	-0.58
215	-0.576
215	-0.58
216	-0.59
216	-0.596
217	-0.595
217	-0.596
218	-0.602
218	-0.603
219	-0.609
219	-0.61
220	-0.614
220	-0.621
221	-0.62
221	-0.621
221	-0.613
222	-0.612
222	-0.611
223	-0.608
223	-0.612
224	-0.611
224	-0.61
225	-0.605
225	-0.607
226	-0.609
226	-0.608
227	-0.615
227	-0.624
228	-0.628
228	-0.637
229	-0.642
229	-0.642
229	-0.643
230	-0.639
230	-0.635
231	-0.632
231	-0.629
232	-0.63
232	-0.625
233	-0.624
233	-0.613
234	-0.614
234	-0.609
235	-0.611
235	-0.624
236	-0.632
236	-0.633
236	-0.631
237	-0.631
237	-0.633
238	-0.633
238	-0.635
239	-0.637
239	-0.646
240	-0.641
240	-0.637
241	-0.631
241	-0.633
242	-0.637
242	-0.643
243	-0.644
243	-0.645
243	-0.65
244	-0.646
244	-0.647
245	-0.648
245	-0.652
246	-0.662
246	-0.666
247	-0.673
247	-0.66
248	-0.659
248	-0.662
249	-0.667
249	-0.669
250	-0.669
250	-0.678
250	-0.674
251	-0.674
251	-0.669
252	-0.672
252	-0.684
253	-0.68
253	-0.691
254	-0.697
254	-0.697
255	-0.706
255	-0.706
256	-0.709
256	-0.721
257	-0.732
257	-0.728
258	-0.729
258	-0.736
258	-0.732
259	-0.725
259	-0.742
260	-0.742
260	-0.73
261	-0.742
261	-0.73
262	-0.736
262	-0.736
263	-0.728
263	-0.732
264	-0.741
264	-0.743
265	-0.735
265	-0.736
265	-0.746
266	-0.737
266	-0.737
267	-0.734
267	-0.751
268	-0.759
268	-0.752
269	-0.746
269	-0.76
270	-0.764
270	-0.764
271	-0.778
271	-0.787
272	-0.788
272	-0.792
272	-0.785
273	-0.793
273	-0.809
274	-0.801
274	-0.796
275	-0.792
275	-0.78
276	-0.783
276	-0.787
277	-0.79
277	-0.786
278	-0.79
278	-0.79
278	-0.778
279	-0.785
279	-0.798
280	-0.8
280	-0.811
281	-0.805
281	-0.798
282	-0.803
282	-0.798
283	-0.791
283	-0.804
284	-0.82
284	-0.831
285	-0.812
285	-0.816
285	-0.807
286	-0.814
286	-0.831
287	-0.828
287	-0.828
288	-0.828
288	-0.81
289	-0.807
289	-0.813
290	-0.822
290	-0.813
291	-0.816
291	-0.814
292	-0.794
292	-0.79
292	-0.793
293	-0.78
293	-0.777
294	-0.778
294	-0.767
295	-0.75
295	-0.762
296	-0.774
296	-0.768
297	-0.757
297	-0.761
298	-0.758
298	-0.775
298	-0.779
299	-0.759
299	-0.752
300	-0.749
300	-0.732
301	-0.711
301	-0.714
302	-0.724
302	-0.709
303	-0.703
303	-0.691
304	-0.675
304	-0.677
305	-0.668
305	-0.676
305	-0.69
306	-0.676
306	-0.674
307	-0.667
307	-0.677
308	-0.679
308	-0.674
309	-0.675
309	-0.672
310	-0.672
310	-0.666
311	-0.654
311	-0.672
311	-0.66
312	-0.657
312	-0.646
313	-0.638
313	-0.64
314	-0.646
314	-0.644
315	-0.64
315	-0.634
316	-0.626
316	-0.616
317	-0.608
317	-0.604
318	-0.597
318	-0.596
318	-0.585
319	-0.572
319	-0.565
320	-0.563
320	-0.561
321	-0.558
321	-0.557
322	-0.553
322	-0.545
323	-0.546
323	-0.535
324	-0.535
324	-0.525
324	-0.513
325	-0.499
325	-0.482
326	-0.473
326	-0.448
327	-0.433
327	-0.413
328	-0.382
328	-0.36
329	-0.333
329	-0.305
330	-0.279
330	-0.244
330	-0.21
331	-0.175
331	-0.144
332	-0.111
332	-0.079
333	-0.051
333	-0.02
334	0.008
334	0.032
335	0.057
335	0.076
336	0.097
336	0.117
336	0.132
337	0.147
337	0.162
338	0.174
338	0.183
339	0.196
339	0.206
340	0.213
340	0.221
341	0.227
341	0.232
342	0.238
342	0.244
342	0.248
343	0.252
343	0.257
344	0.259
344	0.261
345	0.264
345	0.266
346	0.268
346	0.27
347	0.271
347	0.272
348	0.273
348	0.275
348	0.275
349	0.276
349	0.277
350	0.277
350	0.278
351	0.278
351	0.279
352	0.278
352	0.279
353	0.279
353	0.279
354	0.279
354	0.279
354	0.279
355	0.279
355	0.279
356	0.279
356	0.279
357	0.279
357	0.279
358	0.279
358	0.28
359	0.279
359	0.28
360	0.279
360	0.28
360	0.28
361	0.28
361	0.28
362	0.28
362	0.279
363	0.28
363	0.28
364	0.28
364	0.279
365	0.279
365	0.279
366	0.279
366	0.279
366	0.279
367	0.279
367	0.279
368	0.279
368	0.279
369	0.278
369	0.279
370	0.278
370	0.278
371	0.278
371	0.278
372	0.278
372	0.278
372	0.278
373	0.277
373	0.277
374	0.277
374	0.277
375	0.277
375	0.276
376	0.276
376	0.276
377	0.276
377	0.276
378	0.275
378	0.275
378	0.275
379	0.275
379	0.275
380	0.275
380	0.275
381	0.274
381	0.274
382	0.274
382	0.274
383	0.274
383	0.274
383	0.273
384	0.273
384	0.272
385	0.272
385	0.272
386	0.272
386	0.272
387	0.271
387	0.271
388	0.271
388	0.271
389	0.271
389	0.271
389	0.27
390	0.27
390	0.27
391	0.27
391	0.27
392	0.27
392	0.27
393	0.27
393	0.269
394	0.269
394	0.269
394	0.269
395	0.268
395	0.268
396	0.268
396	0.268
397	0.268
397	0.267
398	0.267
398	0.267
399	0.266
399	0.266
400	0.266
400	0.266
400	0.266
401	0.266
401	0.265
402	0.265
402	0.265
403	0.265
403	0.265
404	0.265
404	0.264
405	0.264
405	0.264
405	0.263
406	0.263
406	0.263
407	0.263
407	0.263
408	0.262
408	0.262
409	0.262
409	0.262
410	0.262
410	0.262
411	0.262
411	0.262
411	0.262
412	0.261
412	0.261
413	0.261
413	0.261
414	0.26
414	0.26
415	0.26
415	0.26
416	0.259
416	0.259
416	0.259
417	0.259
417	0.258
418	0.259
418	0.258
419	0.258
419	0.258
420	0.258
420	0.258
421	0.258
421	0.258
421	0.258
422	0.258
422	0.259
423	0.258
423	0.258
424	0.258
424	0.258
425	0.258
425	0.258
426	0.258
426	0.258
427	0.258
427	0.258
427	0.258
428	0.258
428	0.257
429	0.257
429	0.257
430	0.257
430	0.256
431	0.256
431	0.256
432	0.255
432	0.255
432	0.255
433	0.255
433	0.255
434	0.255
434	0.255
435	0.255
435	0.255
436	0.255
436	0.255
437	0.255
437	0.254
437	0.254
438	0.254
438	0.254
439	0.254
439	0.254
440	0.254
440	0.254
441	0.254
441	0.254
442	0.254
442	0.254
442	0.254
443	0.254
443	0.254
444	0.254
444	0.254
445	0.254
445	0.254
446	0.254
446	0.254
447	0.254
447	0.254
447	0.254
448	0.254
448	0.253
449	0.253
449	0.253
450	0.253
450	0.253
451	0.253
451	0.253
452	0.253
452	0.253
452	0.253
453	0.253
453	0.254
454	0.254
454	0.254
455	0.254
455	0.254
456	0.254
456	0.254
457	0.254
457	0.254
458	0.254
458	0.254
458	0.254
459	0.254
459	0.253
460	0.253
460	0.253
461	0.253
461	0.253
462	0.254
462	0.254
463	0.255
463	0.256
463	0.256
464	0.256
464	0.257
465	0.257
465	0.258
466	0.258
466	0.258
467	0.259
467	0.258
467	0.258
468	0.258
468	0.258
469	0.258
469	0.258
470	0.258
470	0.258
471	0.258
471	0.258
472	0.258
472	0.259
472	0.259
473	0.26
473	0.261
474	0.261
474	0.261
475	0.262
475	0.263
476	0.263
476	0.264
477	0.264
477	0.265
477	0.266
478	0.266
478	0.267
479	0.268
479	0.268
480	0.269
480	0.27
481	0.27
481	0.271
482	0.271
482	0.272
482	0.273
483	0.274
483	0.275
484	0.276
484	0.276
485	0.277
485	0.278
486	0.279
486	0.28
487	0.281
487	0.281
487	0.282
488	0.283
488	0.283
489	0.284
489	0.286
490	0.287
490	0.288
491	0.289
491	0.29
492	0.292
492	0.292
492	0.293
493	0.295
493	0.296
494	0.298
494	0.299
495	0.3
495	0.302
496	0.303
496	0.305
496	0.306
497	0.308
497	0.31
498	0.311
498	0.313
499	0.314
499	0.316
500	0.319
500	0.32
501	0.322
501	0.324
501	0.325
502	0.327
502	0.328
503	0.33
503	0.332
504	0.334
504	0.336
505	0.337
505	0.339
506	0.342
506	0.344
506	0.346
507	0.348
507	0.35
508	0.353
508	0.355
509	0.357
509	0.359
510	0.361
510	0.363
511	0.365
511	0.367
511	0.369
512	0.371
512	0.372
513	0.373
513	0.375
514	0.377
514	0.379
515	0.38
515	0.382
515	0.383
516	0.385
516	0.387
517	0.389
517	0.39
518	0.392
518	0.393
519	0.394
519	0.395
520	0.397
520	0.398
520	0.399
521	0.4
521	0.401
522	0.401
522	0.402
523	0.403
523	0.404
524	0.405
524	0.406
524	0.407
525	0.408
525	0.408
526	0.409
526	0.409
527	0.41
527	0.41
528	0.41
528	0.41
529	0.411
529	0.41
529	0.41
530	0.409
530	0.409
531	0.409
531	0.408
532	0.408
532	0.407
533	0.407
533	0.407
533	0.406
534	0.405
534	0.405
535	0.404
535	0.404
536	0.403
536	0.402
537	0.402
537	0.401
538	0.4
538	0.399
538	0.398
539	0.397
539	0.396
540	0.395
540	0.393
541	0.392
541	0.39
542	0.389
542	0.387
542	0.386
543	0.384
543	0.382
544	0.381
544	0.379
545	0.378
545	0.376
546	0.375
546	0.373
547	0.371
547	0.368
547	0.367
548	0.365
548	0.363
549	0.362
549	0.36
550	0.359
550	0.356
551	0.354
551	0.352
551	0.35
552	0.348
552	0.347
553	0.345
553	0.343
554	0.341
554	0.339
555	0.337
555	0.335
556	0.333
556	0.331
556	0.33
557	0.328
557	0.327
558	0.325
558	0.323
559	0.322
559	0.32
560	0.319
560	0.317
560	0.316
561	0.314
561	0.313
562	0.311
562	0.309
563	0.308
563	0.306
564	0.304
564	0.303
564	0.302
565	0.301
565	0.299
566	0.298
566	0.296
567	0.295
567	0.294
568	0.292
568	0.291
568	0.289
569	0.288
569	0.286
570	0.283
570	0.281
571	0.28
571	0.279
572	0.277
572	0.276
573	0.274
573	0.272
573	0.271
574	0.27
574	0.269
575	0.269
575	0.269
576	0.268
576	0.266
577	0.265
577	0.264
577	0.263
578	0.263
578	0.263
579	0.263
579	0.263
580	0.261
580	0.258
581	0.256
581	0.255
581	0.255
582	0.255
582	0.255
583	0.255
583	0.253
584	0.251
584	0.248
585	0.248
585	0.249
585	0.248
586	0.247
586	0.246
587	0.244
587	0.242
588	0.24
588	0.239
589	0.239
589	0.239
590	0.238
590	0.237
590	0.238
591	0.238
591	0.237
592	0.237
592	0.236
593	0.236
593	0.235
594	0.234
594	0.233
594	0.233
595	0.232
595	0.23
596	0.229
596	0.23
597	0.231
597	0.231
598	0.231
598	0.231
598	0.231
599	0.231
599	0.23
600	0.229
600	0.229
601	0.23
601	0.229
602	0.228
602	0.228
602	0.227
603	0.227
603	0.228
604	0.228
604	0.227
605	0.228
605	0.228
606	0.227
606	0.225
606	0.224
607	0.224
607	0.223
608	0.222
608	0.221
609	0.22
609	0.22
610	0.219
610	0.218
610	0.218
611	0.218
611	0.218
612	0.218
612	0.219
613	0.219
613	0.219
614	0.218
614	0.217
614	0.216
615	0.215
615	0.215
616	0.215
616	0.214
617	0.214
617	0.213
618	0.212
618	0.212
618	0.211
619	0.211
619	0.211
620	0.212
620	0.211
621	0.21
621	0.21
622	0.209
622	0.208
622	0.207
623	0.206
623	0.206
624	0.206
624	0.204
625	0.203
625	0.203
626	0.201
626	0.2
626	0.2
627	0.2
627	0.199
628	0.198
628	0.197
629	0.197
629	0.196
630	0.194
630	0.193
630	0.192
631	0.191
631	0.189
632	0.187
632	0.185
633	0.184
633	0.182
634	0.18
634	0.179
634	0.178
635	0.176
635	0.174
636	0.172
636	0.17
637	0.167
637	0.165
638	0.163
638	0.16
638	0.157
639	0.154
639	0.15
640	0.147
640	0.143
641	0.14
641	0.136
642	0.133
642	0.129
642	0.126
643	0.121
643	0.117
644	0.113
644	0.108
645	0.104
645	0.1
646	0.095
646	0.089
646	0.084
647	0.078
647	0.072
648	0.066
648	0.06
649	0.053
649	0.046
650	0.039
650	0.033
650	0.025
651	0.016
651	0.004
652	-0.008
652	-0.022
653	-0.035
653	-0.046
653	-0.042
654	-0.025
654	-0.02
655	-0.026
655	-0.031
656	-0.038
656	-0.045
657	-0.051
657	-0.056
657	-0.063
658	-0.071
658	-0.102
659	-0.188
659	-0.278
660	-0.319
660	-0.346
661	-0.375
661	-0.405
661	-0.437
662	-0.466
662	-0.498
663	-0.534
663	-0.573
664	-0.612
664	-0.654
665	-0.7
665	-0.749
665	-0.794
666	-0.847
666	-0.903
667	-0.959
667	-1.023
668	-1.082
668	-1.152
669	-1.222
669	-1.296
669	-1.375
670	-1.456
670	-1.565
671	-1.733
671	-2.08
672	-2.319
672	-2.48
672	-2.599
673	-2.694
673	-2.774
674	-2.847
674	-2.865
675	-2.881
675	-2.886
676	-2.883
676	-2.836
676	-2.77
677	-2.691
677	-2.598
678	-2.462
678	-2.251
679	-1.84
679	-1.65
680	-1.54
680	-1.46
680	-1.389
681	-1.337
681	-1.281
682	-1.236
682	-1.191
683	-1.146
683	-1.12
684	-1.088
684	-1.067
684	-1.042
685	-1.02
685	-1.007
686	-0.982
686	-0.966
687	-0.955
687	-0.941
687	-0.939
688	-0.924
688	-0.915
689	-0.916
689	-0.912
690	-0.897
690	-0.885
691	-0.883
691	-0.887
691	-0.886
692	-0.885
692	-0.88
693	-0.885
693	-0.894
694	-0.874
694	-0.872
695	-0.875
695	-0.869
695	-0.876
696	-0.882
696	-0.875
697	-0.87
697	-0.866
698	-0.861
698	-0.854
698	-0.868
699	-0.867
699	-0.867
700	-0.886
700	-0.879
701	-0.865
701	-0.859
702	-0.858
702	-0.858
702	-0.859
703	-0.85
703	-0.839
704	-0.844
704	-0.847
705	-0.836
705	-0.835
705	-0.829
706	-0.822
706	-0.818
707	-0.829
707	-0.832
708	-0.83
708	-0.827
709	-0.83
709	-0.826
709	-0.823
710	-0.83
710	-0.833
711	-0.831
711	-0.833
712	-0.822
712	-0.819
713	-0.822
713	-0.824
713	-0.803
714	-0.805
714	-0.808
715	-0.799
715	-0.807
716	-0.824
716	-0.832
716	-0.833
717	-0.838
717	-0.83
718	-0.824
718	-0.825
719	-0.822
719	-0.814
720	-0.809
720	-0.804
720	-0.797
721	-0.787
721	-0.792
722	-0.791
722	-0.788
723	-0.805
723	-0.818
723	-0.825
724	-0.822
724	-0.828
725	-0.822
725	-0.827
726	-0.831
726	-0.823
727	-0.824
727	-0.831
727	-0.821
728	-0.806
728	-0.802
729	-0.807
729	-0.81
730	-0.814
730	-0.805
730	-0.808
731	-0.812
731	-0.813
732	-0.814
732	-0.807
733	-0.823
733	-0.83
734	-0.837
734	-0.829
734	-0.814
735	-0.806
735	-0.803
736	-0.8
736	-0.794
737	-0.795
737	-0.786
737	-0.777
738	-0.763
738	-0.749
739	-0.75
739	-0.751
740	-0.765
740	-0.766
741	-0.776
741	-0.786
741	-0.794
742	-0.801
742	-0.817
743	-0.824
743	-0.826
744	-0.831
744	-0.837
744	-0.832
745	-0.84
745	-0.83
746	-0.825
746	-0.817
747	-0.819
747	-0.811
748	-0.812
748	-0.817
748	-0.817
749	-0.81
749	-0.815
750	-0.804
750	-0.804
751	-0.805
751	-0.802
751	-0.813
752	-0.816
752	-0.82
753	-0.821
753	-0.813
754	-0.832
754	-0.832
754	-0.841
755	-0.842
755	-0.832
756	-0.834
756	-0.822
757	-0.814
757	-0.804
758	-0.805
758	-0.806
758	-0.802
759	-0.806
759	-0.805
760	-0.802
760	-0.805
761	-0.799
761	-0.802
761	-0.802
762	-0.808
762	-0.809
763	-0.809
763	-0.812
764	-0.812
764	-0.808
764	-0.813
765	-0.814
765	-0.821
766	-0.824
766	-0.825
767	-0.84
767	-0.836
768	-0.834
768	-0.826
768	-0.819
769	-0.823
769	-0.831
770	-0.838
770	-0.842
771	-0.84
771	-0.84
771	-0.845
772	-0.848
772	-0.869
773	-0.872
773	-0.873
774	-0.87
774	-0.852
775	-0.84
775	-0.838
775	-0.842
776	-0.851
776	-0.847
777	-0.847
777	-0.831
778	-0.839
778	-0.847
778	-0.847
779	-0.857
779	-0.876
780	-0.873
780	-0.881
781	-0.869
781	-0.859
781	-0.874
782	-0.895
782	-0.896
783	-0.898
783	-0.905
784	-0.908
784	-0.898
784	-0.916
785	-0.911
785	-0.925
786	-0.93
786	-0.921
787	-0.911
787	-0.918
788	-0.909
788	-0.902
788	-0.902
789	-0.903
789	-0.892
790	-0.891
790	-0.873
791	-0.879
791	-0.876
791	-0.869
792	-0.865
792	-0.869
793	-0.873
793	-0.863
794	-0.856
794	-0.851
794	-0.857
795	-0.879
795	-0.866
796	-0.87
796	-0.865
797	-0.856
797	-0.846
797	-0.839
798	-0.858
798	-0.861
799	-0.86
799	-0.847
800	-0.84
800	-0.848
801	-0.845
801	-0.849
801	-0.848
802	-0.847
802	-0.847
803	-0.842
803	-0.837
804	-0.844
804	-0.851
804	-0.835
805	-0.815
805	-0.806
806	-0.808
806	-0.803
807	-0.805
807	-0.807
807	-0.791
808	-0.786
808	-0.779
809	-0.774
809	-0.775
810	-0.779
810	-0.778
810	-0.773
811	-0.776
811	-0.766
812	-0.756
812	-0.757
813	-0.76
813	-0.762
813	-0.758
814	-0.759
814	-0.764
815	-0.754
815	-0.75
816	-0.745
816	-0.765
817	-0.777
817	-0.782
817	-0.79
818	-0.782
818	-0.78
819	-0.79
819	-0.79
820	-0.801
820	-0.802
820	-0.802
821	-0.795
821	-0.791
822	-0.791
822	-0.779
823	-0.79
823	-0.787
823	-0.781
824	-0.777
824	-0.786
825	-0.784
825	-0.779
826	-0.775
826	-0.771
826	-0.769
827	-0.77
827	-0.76
828	-0.761
828	-0.757
829	-0.751
829	-0.737
829	-0.735
830	-0.735
830	-0.721
831	-0.715
831	-0.704
832	-0.693
832	-0.687
832	-0.681
833	-0.678
833	-0.686
834	-0.68
834	-0.676
835	-0.669
835	-0.669
835	-0.662
836	-0.658
836	-0.655
837	-0.644
837	-0.634
838	-0.62
838	-0.602
839	-0.597
839	-0.583
839	-0.572
840	-0.57
840	-0.561
841	-0.551
841	-0.545
842	-0.536
842	-0.524
842	-0.523
843	-0.518
843	-0.512
844	-0.509
844	-0.497
845	-0.484
845	-0.474
845	-0.464
846	-0.452
846	-0.441
847	-0.43
847	-0.414
848	-0.4
848	-0.383
848	-0.369
849	-0.356
849	-0.343
850	-0.332
850	-0.321
851	-0.307
851	-0.291
851	-0.281
852	-0.267
852	-0.252
853	-0.243
853	-0.233
854	-0.222
854	-0.212
854	-0.199
855	-0.188
855	-0.179
856	-0.171
856	-0.163
857	-0.155
857	-0.147
857	-0.134
858	-0.123
858	-0.116
859	-0.105
859	-0.094
860	-0.083
860	-0.068
860	-0.058
861	-0.048
861	-0.038
862	-0.029
862	-0.02
863	-0.011
863	-0.002
863	0.004
864	0.01
864	0.017
865	0.023
865	0.028
866	0.034
866	0.04
866	0.045
867	0.05
867	0.056
868	0.06
868	0.065
869	0.07
869	0.073
869	0.075
870	0.077
870	0.079
871	0.08
871	0.081
872	0.081
872	0.082
872	0.083
873	0.083
873	0.083
874	0.083
874	0.083
875	0.083
875	0.083
875	0.083
876	0.084
876	0.084
877	0.083
877	0.083
878	0.083
878	0.082
878	0.082
879	0.081
879	0.08
880	0.08
880	0.079
881	0.077
881	0.076
881	0.075
882	0.073
882	0.072
883	0.071
883	0.07
884	0.07
884	0.07
884	0.07
885	0.069
885	0.069
886	0.069
886	0.069
887	0.069
887	0.07
887	0.07
888	0.069
888	0.069
889	0.069
889	0.068
890	0.068
890	0.068
890	0.067
891	0.067
891	0.067
892	0.067
892	0.067
893	0.067
893	0.067
893	0.067
894	0.067
894	0.068
895	0.067
895	0.067
895	0.068
896	0.068
896	0.068
897	0.069
897	0.069
898	0.069
898	0.069
898	0.069
899	0.069
899	0.069
900	0.069
900	0.069
901	0.069
901	0.069
901	0.069
902	0.069
902	0.07
903	0.07
903	0.069
904	0.069
904	0.069
904	0.07
905	0.07
905	0.07
906	0.07
906	0.071
907	0.071
907	0.071
907	0.071
908	0.071
908	0.072
909	0.072
909	0.072
910	0.072
910	0.072
910	0.072
911	0.073
911	0.074
912	0.075
912	0.076
913	0.077
913	0.078
913	0.079
914	0.08
914	0.08
915	0.081
915	0.081
916	0.081
916	0.081
916	0.08
917	0.08
917	0.079
918	0.079
918	0.079
918	0.078
919	0.078
919	0.078
920	0.078
920	0.078
921	0.078
921	0.078
921	0.078
922	0.078
922	0.078
923	0.077
923	0.077
924	0.077
924	0.076
924	0.076
925	0.076
925	0.075
926	0.074
926	0.073
927	0.073
927	0.072
927	0.072
928	0.072
928	0.071
929	0.071
929	0.071
930	0.071
930	0.071
930	0.072
931	0.072
931	0.073
932	0.074
932	0.074
933	0.075
933	0.075
933	0.075
934	0.074
934	0.073
935	0.073
935	0.071
935	0.07
936	0.069
936	0.067
937	0.065
937	0.064
938	0.063
938	0.062
938	0.061
939	0.06
939	0.059
940	0.059
940	0.058
941	0.057
941	0.057
941	0.057
942	0.056
942	0.055
943	0.056
943	0.055
944	0.055
944	0.054
944	0.054
945	0.053
945	0.053
946	0.053
946	0.052
946	0.052
947	0.052
947	0.052
948	0.052
948	0.052
949	0.053
949	0.054
949	0.055
950	0.056
950	0.057
951	0.058
951	0.059
952	0.059
952	0.06
952	0.061
953	0.061
953	0.062
954	0.062
954	0.061
955	0.061
955	0.061
955	0.061
956	0.06
956	0.059
957	0.058
957	0.057
957	0.056
958	0.056
958	0.056
959	0.056
959	0.056
960	0.056
960	0.056
960	0.056
961	0.057
961	0.058
962	0.058
962	0.059
963	0.059
963	0.06
963	0.061
964	0.062
964	0.063
965	0.063
965	0.064
966	0.064
966	0.065
966	0.065
967	0.065
967	0.064
968	0.063
968	0.063
968	0.063
969	0.063
969	0.062
970	0.062
970	0.062
971	0.062
971	0.062
971	0.063
972	0.064
972	0.064
973	0.065
973	0.065
974	0.065
974	0.065
974	0.066
975	0.066
975	0.066
976	0.066
976	0.065
976	0.065
977	0.064
977	0.063
978	0.062
978	0.06
979	0.059
979	0.058
979	0.056
980	0.055
980	0.054
981	0.054
981	0.053
982	0.053
982	0.052
982	0.053
983	0.053
983	0.053
984	0.053
984	0.052
984	0.052
985	0.052
985	0.051
986	0.05
986	0.05
987	0.049
987	0.047
987	0.046
988	0.045
988	0.045
989	0.044
989	0.043
990	0.043
990	0.042
990	0.042
991	0.042
991	0.043
992	0.043
992	0.044
992	0.044
993	0.044
993	0.044
994	0.044
994	0.044
995	0.043
995	0.043
995	0.042
996	0.041
996	0.04
997	0.039
997	0.038
997	0.038
998	0.037
998	0.038
999	0.037
999	0.037
1000	0.037
1000	0.038
1000	0.038
1001	0.038
1001	0.039
1002	0.039
1002	0.039
1003	0.039
1003	0.038
1003	0.037
1004	0.037
1004	0.036
1005	0.035
1005	0.034
1005	0.032
1006	0.031
1006	0.03
1007	0.029
1007	0.028
1008	0.027
1008	0.026
1008	0.025
1009	0.025
1009	0.025
1010	0.025
1010	0.025
1010	0.025
1011	0.026
1011	0.026
1012	0.027
1012	0.028
1013	0.029
1013	0.03
1013	0.031
1014	0.032
1014	0.033
1015	0.033
1015	0.034
1016	0.035
1016	0.036
1016	0.036
1017	0.036
1017	0.036
1018	0.036
1018	0.035
1018	0.035
1019	0.035
1019	0.034
1020	0.034
1020	0.033
1021	0.033
1021	0.033
1021	0.032
1022	0.032
1022	0.032
1023	0.032
1023	0.031
1023	0.031
1024	0.031
1024	0.03
1025	0.03
1025	0.03
1026	0.03
1026	0.03
1026	0.03
1027	0.03
1027	0.03
1028	0.03
1028	0.031
1028	0.031
1029	0.03
1029	0.031
1030	0.03
1030	0.03
1031	0.029
1031	0.03
1031	0.029
1032	0.029
1032	0.028
1033	0.028
1033	0.027
1033	0.027
1034	0.027
1034	0.027
1035	0.026
1035	0.026
1036	0.025
1036	0.025
1036	0.025
1037	0.026
1037	0.027
1038	0.027
1038	0.028
1039	0.029
1039	0.03
1039	0.031
1040	0.031
1040	0.032
1041	0.033
1041	0.033
1041	0.033
1042	0.032
1042	0.032
1043	0.032
1043	0.031
1044	0.031
1044	0.03
1044	0.03
1045	0.029
1045	0.029
1046	0.029
1046	0.028
1046	0.028
1047	0.028
1047	0.028
1048	0.029
1048	0.029
1049	0.028
1049	0.028
1049	0.028
1050	0.027
1050	0.026
1051	0.025
1051	0.024
1051	0.024
1052	0.023
1052	0.021
1053	0.021
1053	0.02
1053	0.019
1054	0.018
1054	0.018
1055	0.018
1055	0.018
1056	0.018
1056	0.017
1056	0.017
1057	0.016
1057	0.016
1058	0.016
1058	0.015
1058	0.015
1059	0.015
1059	0.015
1060	0.014
1060	0.014
1061	0.014
1061	0.014
1061	0.014
1062	0.014
1062	0.013
1063	0.013
1063	0.012
1063	0.012
1064	0.012
1064	0.012
1065	0.012
1065	0.011
1066	0.01
1066	0.01
1066	0.01
1067	0.009
1067	0.009
1068	0.009
1068	0.008
1068	0.008
1069	0.007
1069	0.007
1070	0.006
1070	0.005
1071	0.005
1071	0.005
1071	0.005
1072	0.004
1072	0.005
1073	0.005
1073	0.005
1073	0.005
1074	0.005
1074	0.006
1075	0.005
1075	0.005
1076	0.004
1076	0.004
1076	0.003
1077	0.002
1077	0.001
1078	-0.001
1078	-0.001
1078	-0.002
1079	-0.003
1079	-0.004
1080	-0.005
1080	-0.006
1080	-0.008
1081	-0.009
1081	-0.01
1082	-0.01
1082	-0.012
1083	-0.013
1083	-0.014
1083	-0.015
1084	-0.017
1084	-0.018
1085	-0.019
1085	-0.02
1085	-0.021
1086	-0.022
1086	-0.024
1087	-0.024
1087	-0.025
1088	-0.026
1088	-0.027
1088	-0.028
1089	-0.029
1089	-0.03
1090	-0.03
1090	-0.032
1090	-0.033
1091	-0.034
1091	-0.034
1092	-0.035
1092	-0.035
1092	-0.035
1093	-0.036
1093	-0.035
1094	-0.035
1094	-0.035
1095	-0.037
1095	-0.036
1095	-0.037
1096	-0.038
1096	-0.04
1097	-0.041
1097	-0.043
1097	-0.045
1098	-0.047
1098	-0.049
1099	-0.051
1099	-0.052
1100	-0.054
1100	-0.057
1100	-0.06
1101	-0.063
1101	-0.065
1102	-0.067
1102	-0.069
1102	-0.071
1103	-0.073
1103	-0.076
1104	-0.08
1104	-0.083
1104	-0.085
1105	-0.087
1105	-0.09
1106	-0.095
1106	-0.098
1107	-0.104
1107	-0.109
1107	-0.114
1108	-0.115
1108	-0.117
1109	-0.12
1109	-0.124
1109	-0.128
1110	-0.129
1110	-0.133
1111	-0.14
1111	-0.137
