Data from 3.4A_17C_Absorbance__399__01356.txt Node

Date: Tue Jun 20 15:52:19 CEST 2023
User: Marek
Spectrometer: MAYP115816
Trigger mode: 0
Integration Time (sec): 2.200000E-1
Scans to average: 10
Electric dark correction enabled: true
Nonlinearity correction enabled: true
Boxcar width: 5
XAxis mode: Wavelengths
Number of Pixels in Spectrum: 2068
>>>>>Begin Spectral Data<<<<<
199	-0.742
199	-0.734
200	-0.699
200	-0.644
201	-0.617
201	-0.61
202	-0.594
202	-0.589
203	-0.59
203	-0.584
204	-0.564
204	-0.548
205	-0.525
205	-0.518
205	-0.529
206	-0.53
206	-0.525
207	-0.516
207	-0.522
208	-0.523
208	-0.528
209	-0.531
209	-0.537
210	-0.55
210	-0.555
211	-0.548
211	-0.552
212	-0.561
212	-0.569
213	-0.565
213	-0.56
213	-0.557
214	-0.562
214	-0.566
215	-0.561
215	-0.565
216	-0.575
216	-0.58
217	-0.579
217	-0.58
218	-0.587
218	-0.589
219	-0.594
219	-0.596
220	-0.6
220	-0.609
221	-0.609
221	-0.608
221	-0.599
222	-0.598
222	-0.596
223	-0.593
223	-0.596
224	-0.598
224	-0.597
225	-0.594
225	-0.594
226	-0.594
226	-0.597
227	-0.607
227	-0.615
228	-0.62
228	-0.628
229	-0.632
229	-0.63
229	-0.63
230	-0.626
230	-0.623
231	-0.619
231	-0.612
232	-0.614
232	-0.609
233	-0.608
233	-0.598
234	-0.596
234	-0.589
235	-0.593
235	-0.604
236	-0.612
236	-0.614
236	-0.614
237	-0.611
237	-0.613
238	-0.612
238	-0.614
239	-0.617
239	-0.628
240	-0.62
240	-0.616
241	-0.61
241	-0.612
242	-0.615
242	-0.623
243	-0.622
243	-0.626
243	-0.629
244	-0.624
244	-0.624
245	-0.628
245	-0.631
246	-0.642
246	-0.646
247	-0.654
247	-0.641
248	-0.642
248	-0.645
249	-0.65
249	-0.653
250	-0.653
250	-0.662
250	-0.66
251	-0.66
251	-0.658
252	-0.659
252	-0.671
253	-0.666
253	-0.677
254	-0.681
254	-0.682
255	-0.693
255	-0.692
256	-0.694
256	-0.705
257	-0.714
257	-0.71
258	-0.713
258	-0.719
258	-0.717
259	-0.71
259	-0.728
260	-0.726
260	-0.714
261	-0.724
261	-0.709
262	-0.713
262	-0.714
263	-0.704
263	-0.709
264	-0.72
264	-0.723
265	-0.715
265	-0.719
265	-0.729
266	-0.722
266	-0.723
267	-0.725
267	-0.737
268	-0.746
268	-0.739
269	-0.73
269	-0.743
270	-0.745
270	-0.744
271	-0.758
271	-0.768
272	-0.768
272	-0.771
272	-0.766
273	-0.775
273	-0.789
274	-0.78
274	-0.775
275	-0.774
275	-0.76
276	-0.763
276	-0.768
277	-0.771
277	-0.767
278	-0.771
278	-0.771
278	-0.76
279	-0.771
279	-0.785
280	-0.787
280	-0.797
281	-0.791
281	-0.781
282	-0.785
282	-0.781
283	-0.774
283	-0.79
284	-0.804
284	-0.813
285	-0.793
285	-0.799
285	-0.791
286	-0.797
286	-0.813
287	-0.811
287	-0.81
288	-0.808
288	-0.789
289	-0.786
289	-0.792
290	-0.802
290	-0.791
291	-0.795
291	-0.794
292	-0.777
292	-0.773
292	-0.777
293	-0.766
293	-0.763
294	-0.761
294	-0.749
295	-0.73
295	-0.743
296	-0.754
296	-0.746
297	-0.734
297	-0.738
298	-0.736
298	-0.754
298	-0.76
299	-0.742
299	-0.732
300	-0.73
300	-0.712
301	-0.692
301	-0.696
302	-0.705
302	-0.691
303	-0.684
303	-0.672
304	-0.652
304	-0.655
305	-0.648
305	-0.656
305	-0.67
306	-0.657
306	-0.655
307	-0.649
307	-0.659
308	-0.661
308	-0.656
309	-0.658
309	-0.656
310	-0.655
310	-0.649
311	-0.636
311	-0.653
311	-0.641
312	-0.639
312	-0.627
313	-0.619
313	-0.62
314	-0.626
314	-0.622
315	-0.619
315	-0.614
316	-0.606
316	-0.597
317	-0.587
317	-0.583
318	-0.575
318	-0.573
318	-0.562
319	-0.551
319	-0.542
320	-0.539
320	-0.536
321	-0.533
321	-0.532
322	-0.528
322	-0.522
323	-0.523
323	-0.513
324	-0.512
324	-0.502
324	-0.492
325	-0.476
325	-0.46
326	-0.45
326	-0.425
327	-0.411
327	-0.387
328	-0.355
328	-0.332
329	-0.303
329	-0.275
330	-0.249
330	-0.215
330	-0.18
331	-0.144
331	-0.11
332	-0.076
332	-0.045
333	-0.015
333	0.017
334	0.045
334	0.071
335	0.097
335	0.118
336	0.141
336	0.161
336	0.177
337	0.194
337	0.211
338	0.224
338	0.235
339	0.248
339	0.258
340	0.266
340	0.274
341	0.281
341	0.287
342	0.293
342	0.299
342	0.304
343	0.308
343	0.312
344	0.315
344	0.318
345	0.321
345	0.323
346	0.325
346	0.327
347	0.328
347	0.329
348	0.331
348	0.332
348	0.333
349	0.334
349	0.335
350	0.336
350	0.336
351	0.337
351	0.337
352	0.338
352	0.338
353	0.338
353	0.338
354	0.338
354	0.338
354	0.338
355	0.338
355	0.338
356	0.338
356	0.338
357	0.338
357	0.338
358	0.338
358	0.338
359	0.338
359	0.338
360	0.338
360	0.338
360	0.338
361	0.338
361	0.338
362	0.338
362	0.338
363	0.338
363	0.338
364	0.338
364	0.338
365	0.338
365	0.338
366	0.338
366	0.338
366	0.337
367	0.337
367	0.337
368	0.336
368	0.336
369	0.336
369	0.336
370	0.335
370	0.335
371	0.335
371	0.335
372	0.334
372	0.334
372	0.334
373	0.334
373	0.334
374	0.334
374	0.334
375	0.334
375	0.333
376	0.333
376	0.333
377	0.333
377	0.332
378	0.332
378	0.331
378	0.331
379	0.331
379	0.331
380	0.33
380	0.33
381	0.33
381	0.33
382	0.329
382	0.329
383	0.329
383	0.329
383	0.328
384	0.328
384	0.328
385	0.327
385	0.327
386	0.326
386	0.326
387	0.326
387	0.326
388	0.325
388	0.325
389	0.325
389	0.324
389	0.324
390	0.324
390	0.324
391	0.324
391	0.324
392	0.324
392	0.324
393	0.324
393	0.323
394	0.323
394	0.323
394	0.322
395	0.322
395	0.321
396	0.321
396	0.321
397	0.32
397	0.32
398	0.319
398	0.319
399	0.318
399	0.318
400	0.318
400	0.318
400	0.318
401	0.317
401	0.317
402	0.317
402	0.317
403	0.317
403	0.316
404	0.316
404	0.316
405	0.315
405	0.315
405	0.314
406	0.314
406	0.314
407	0.314
407	0.313
408	0.313
408	0.313
409	0.313
409	0.313
410	0.313
410	0.313
411	0.313
411	0.312
411	0.312
412	0.311
412	0.311
413	0.311
413	0.31
414	0.31
414	0.31
415	0.309
415	0.309
416	0.309
416	0.309
416	0.309
417	0.308
417	0.308
418	0.308
418	0.308
419	0.308
419	0.308
420	0.308
420	0.308
421	0.308
421	0.308
421	0.308
422	0.308
422	0.308
423	0.308
423	0.307
424	0.307
424	0.307
425	0.306
425	0.306
426	0.306
426	0.306
427	0.306
427	0.306
427	0.306
428	0.306
428	0.306
429	0.305
429	0.305
430	0.305
430	0.304
431	0.304
431	0.304
432	0.304
432	0.303
432	0.303
433	0.303
433	0.303
434	0.303
434	0.304
435	0.304
435	0.304
436	0.304
436	0.304
437	0.304
437	0.304
437	0.304
438	0.304
438	0.304
439	0.303
439	0.303
440	0.303
440	0.302
441	0.303
441	0.302
442	0.302
442	0.303
442	0.303
443	0.303
443	0.303
444	0.303
444	0.303
445	0.303
445	0.302
446	0.302
446	0.302
447	0.302
447	0.302
447	0.302
448	0.302
448	0.302
449	0.302
449	0.302
450	0.302
450	0.302
451	0.302
451	0.302
452	0.302
452	0.302
452	0.302
453	0.303
453	0.303
454	0.303
454	0.303
455	0.303
455	0.303
456	0.303
456	0.303
457	0.303
457	0.303
458	0.303
458	0.303
458	0.304
459	0.304
459	0.303
460	0.303
460	0.303
461	0.303
461	0.304
462	0.304
462	0.305
463	0.305
463	0.306
463	0.306
464	0.306
464	0.306
465	0.307
465	0.307
466	0.308
466	0.308
467	0.308
467	0.309
467	0.309
468	0.309
468	0.309
469	0.309
469	0.31
470	0.311
470	0.311
471	0.311
471	0.312
472	0.312
472	0.313
472	0.313
473	0.314
473	0.315
474	0.315
474	0.316
475	0.317
475	0.318
476	0.318
476	0.319
477	0.32
477	0.32
477	0.321
478	0.322
478	0.322
479	0.323
479	0.324
480	0.325
480	0.326
481	0.327
481	0.328
482	0.329
482	0.33
482	0.332
483	0.333
483	0.335
484	0.336
484	0.337
485	0.338
485	0.339
486	0.34
486	0.341
487	0.342
487	0.343
487	0.345
488	0.346
488	0.346
489	0.348
489	0.35
490	0.352
490	0.353
491	0.356
491	0.357
492	0.359
492	0.361
492	0.362
493	0.364
493	0.366
494	0.368
494	0.37
495	0.372
495	0.373
496	0.375
496	0.377
496	0.379
497	0.382
497	0.384
498	0.386
498	0.388
499	0.39
499	0.393
500	0.396
500	0.399
501	0.402
501	0.404
501	0.406
502	0.409
502	0.411
503	0.414
503	0.416
504	0.418
504	0.421
505	0.423
505	0.426
506	0.429
506	0.431
506	0.434
507	0.437
507	0.44
508	0.443
508	0.445
509	0.448
509	0.451
510	0.453
510	0.456
511	0.458
511	0.46
511	0.463
512	0.465
512	0.467
513	0.469
513	0.472
514	0.474
514	0.477
515	0.48
515	0.482
515	0.484
516	0.486
516	0.488
517	0.491
517	0.493
518	0.495
518	0.497
519	0.498
519	0.5
520	0.501
520	0.503
520	0.505
521	0.506
521	0.508
522	0.509
522	0.51
523	0.511
523	0.513
524	0.514
524	0.514
524	0.515
525	0.516
525	0.517
526	0.517
526	0.518
527	0.518
527	0.519
528	0.519
528	0.519
529	0.518
529	0.518
529	0.518
530	0.517
530	0.517
531	0.517
531	0.516
532	0.515
532	0.515
533	0.514
533	0.514
533	0.513
534	0.513
534	0.512
535	0.511
535	0.51
536	0.509
536	0.508
537	0.506
537	0.505
538	0.504
538	0.502
538	0.5
539	0.499
539	0.497
540	0.495
540	0.493
541	0.49
541	0.488
542	0.486
542	0.484
542	0.481
543	0.479
543	0.477
544	0.474
544	0.472
545	0.47
545	0.468
546	0.465
546	0.462
547	0.459
547	0.456
547	0.453
548	0.451
548	0.448
549	0.445
549	0.443
550	0.44
550	0.437
551	0.434
551	0.431
551	0.428
552	0.426
552	0.423
553	0.42
553	0.418
554	0.415
554	0.411
555	0.408
555	0.405
556	0.402
556	0.4
556	0.397
557	0.394
557	0.392
558	0.389
558	0.387
559	0.384
559	0.381
560	0.379
560	0.376
560	0.374
561	0.372
561	0.37
562	0.367
562	0.365
563	0.362
563	0.36
564	0.357
564	0.355
564	0.354
565	0.352
565	0.35
566	0.348
566	0.346
567	0.344
567	0.342
568	0.34
568	0.337
568	0.335
569	0.333
569	0.33
570	0.327
570	0.323
571	0.321
571	0.319
572	0.316
572	0.314
573	0.311
573	0.309
573	0.306
574	0.305
574	0.304
575	0.302
575	0.302
576	0.3
576	0.298
577	0.296
577	0.295
577	0.294
578	0.293
578	0.292
579	0.292
579	0.291
580	0.289
580	0.286
581	0.283
581	0.282
581	0.281
582	0.28
582	0.279
583	0.278
583	0.276
584	0.272
584	0.269
585	0.268
585	0.267
585	0.265
586	0.264
586	0.262
587	0.26
587	0.258
588	0.256
588	0.255
589	0.254
589	0.253
590	0.252
590	0.251
590	0.252
591	0.251
591	0.25
592	0.248
592	0.246
593	0.246
593	0.245
594	0.243
594	0.242
594	0.241
595	0.24
595	0.238
596	0.237
596	0.237
597	0.238
597	0.237
598	0.236
598	0.235
598	0.235
599	0.234
599	0.233
600	0.232
600	0.231
601	0.23
601	0.229
602	0.227
602	0.227
602	0.225
603	0.225
603	0.225
604	0.224
604	0.223
605	0.223
605	0.223
606	0.222
606	0.22
606	0.219
607	0.218
607	0.218
608	0.217
608	0.215
609	0.214
609	0.213
610	0.212
610	0.211
610	0.21
611	0.21
611	0.21
612	0.209
612	0.209
613	0.209
613	0.209
614	0.208
614	0.206
614	0.205
615	0.204
615	0.204
616	0.203
616	0.202
617	0.202
617	0.2
618	0.199
618	0.198
618	0.198
619	0.197
619	0.197
620	0.197
620	0.195
621	0.194
621	0.193
622	0.192
622	0.191
622	0.189
623	0.188
623	0.188
624	0.188
624	0.186
625	0.185
625	0.184
626	0.183
626	0.182
626	0.181
627	0.18
627	0.179
628	0.177
628	0.176
629	0.174
629	0.173
630	0.171
630	0.169
630	0.168
631	0.166
631	0.164
632	0.162
632	0.16
633	0.158
633	0.156
634	0.154
634	0.153
634	0.151
635	0.149
635	0.147
636	0.145
636	0.142
637	0.14
637	0.137
638	0.135
638	0.132
638	0.13
639	0.126
639	0.123
640	0.12
640	0.116
641	0.113
641	0.109
642	0.106
642	0.102
642	0.099
643	0.094
643	0.09
644	0.085
644	0.081
645	0.076
645	0.071
646	0.066
646	0.06
646	0.053
647	0.047
647	0.041
648	0.034
648	0.028
649	0.021
649	0.015
650	0.009
650	0.002
650	-0.005
651	-0.014
651	-0.024
652	-0.037
652	-0.049
653	-0.061
653	-0.071
653	-0.066
654	-0.048
654	-0.043
655	-0.048
655	-0.053
656	-0.058
656	-0.064
657	-0.069
657	-0.073
657	-0.08
658	-0.086
658	-0.115
659	-0.198
659	-0.282
660	-0.32
660	-0.346
661	-0.372
661	-0.401
661	-0.431
662	-0.459
662	-0.489
663	-0.522
663	-0.56
664	-0.597
664	-0.638
665	-0.683
665	-0.73
665	-0.774
666	-0.826
666	-0.881
667	-0.937
667	-1
668	-1.06
668	-1.129
669	-1.197
669	-1.272
669	-1.352
670	-1.436
670	-1.556
671	-1.759
671	-2.142
672	-2.358
672	-2.508
672	-2.621
673	-2.712
673	-2.789
674	-2.832
674	-2.845
675	-2.86
675	-2.864
676	-2.856
676	-2.791
676	-2.717
677	-2.625
677	-2.51
678	-2.334
678	-2.012
679	-1.692
679	-1.545
680	-1.447
680	-1.373
680	-1.309
681	-1.264
681	-1.212
682	-1.171
682	-1.129
683	-1.086
683	-1.063
684	-1.036
684	-1.016
684	-0.993
685	-0.974
685	-0.965
686	-0.941
686	-0.927
687	-0.917
687	-0.906
687	-0.907
688	-0.891
688	-0.883
689	-0.885
689	-0.884
690	-0.868
690	-0.857
691	-0.855
691	-0.856
691	-0.856
692	-0.854
692	-0.85
693	-0.856
693	-0.868
694	-0.848
694	-0.846
695	-0.85
695	-0.843
695	-0.851
696	-0.858
696	-0.85
697	-0.846
697	-0.841
698	-0.836
698	-0.829
698	-0.841
699	-0.84
699	-0.84
700	-0.859
700	-0.854
701	-0.842
701	-0.836
702	-0.835
702	-0.833
702	-0.836
703	-0.827
703	-0.816
704	-0.822
704	-0.826
705	-0.815
705	-0.814
705	-0.809
706	-0.802
706	-0.798
707	-0.81
707	-0.811
708	-0.808
708	-0.805
709	-0.808
709	-0.804
709	-0.8
710	-0.808
710	-0.81
711	-0.81
711	-0.811
712	-0.805
712	-0.802
713	-0.807
713	-0.81
713	-0.789
714	-0.79
714	-0.795
715	-0.786
715	-0.794
716	-0.81
716	-0.819
716	-0.818
717	-0.823
717	-0.814
718	-0.808
718	-0.809
719	-0.804
719	-0.796
720	-0.791
720	-0.788
720	-0.783
721	-0.773
721	-0.778
722	-0.775
722	-0.772
723	-0.788
723	-0.801
723	-0.81
724	-0.81
724	-0.815
725	-0.807
725	-0.809
726	-0.814
726	-0.804
727	-0.806
727	-0.814
727	-0.806
728	-0.792
728	-0.788
729	-0.789
729	-0.793
730	-0.799
730	-0.789
730	-0.794
731	-0.796
731	-0.797
732	-0.799
732	-0.795
733	-0.809
733	-0.814
734	-0.822
734	-0.813
734	-0.795
735	-0.786
735	-0.782
736	-0.782
736	-0.778
737	-0.776
737	-0.765
737	-0.758
738	-0.743
738	-0.733
739	-0.734
739	-0.735
740	-0.749
740	-0.749
741	-0.759
741	-0.768
741	-0.778
742	-0.785
742	-0.802
743	-0.808
743	-0.811
744	-0.815
744	-0.821
744	-0.813
745	-0.823
745	-0.812
746	-0.808
746	-0.799
747	-0.802
747	-0.793
748	-0.795
748	-0.798
748	-0.799
749	-0.793
749	-0.801
750	-0.79
750	-0.789
751	-0.788
751	-0.786
751	-0.798
752	-0.802
752	-0.805
753	-0.808
753	-0.801
754	-0.82
754	-0.819
754	-0.827
755	-0.828
755	-0.82
756	-0.822
756	-0.807
757	-0.799
757	-0.788
758	-0.787
758	-0.787
758	-0.782
759	-0.787
759	-0.788
760	-0.787
760	-0.79
761	-0.784
761	-0.789
761	-0.788
762	-0.796
762	-0.797
763	-0.797
763	-0.801
764	-0.8
764	-0.796
764	-0.801
765	-0.801
765	-0.809
766	-0.812
766	-0.814
767	-0.829
767	-0.825
768	-0.825
768	-0.816
768	-0.812
769	-0.814
769	-0.821
770	-0.832
770	-0.834
771	-0.829
771	-0.829
771	-0.832
772	-0.836
772	-0.854
773	-0.856
773	-0.857
774	-0.854
774	-0.837
775	-0.822
775	-0.821
775	-0.825
776	-0.835
776	-0.833
777	-0.834
777	-0.818
778	-0.826
778	-0.833
778	-0.833
779	-0.841
779	-0.857
780	-0.852
780	-0.861
781	-0.851
781	-0.84
781	-0.854
782	-0.876
782	-0.877
783	-0.878
783	-0.886
784	-0.891
784	-0.885
784	-0.905
785	-0.897
785	-0.906
786	-0.911
786	-0.904
787	-0.893
787	-0.902
788	-0.893
788	-0.887
788	-0.888
789	-0.888
789	-0.878
790	-0.878
790	-0.863
791	-0.869
791	-0.863
791	-0.858
792	-0.852
792	-0.859
793	-0.861
793	-0.849
794	-0.841
794	-0.835
794	-0.841
795	-0.861
795	-0.849
796	-0.854
796	-0.848
797	-0.84
797	-0.827
797	-0.821
798	-0.842
798	-0.847
799	-0.847
799	-0.834
800	-0.83
800	-0.837
801	-0.834
801	-0.838
801	-0.835
802	-0.835
802	-0.834
803	-0.828
803	-0.82
804	-0.825
804	-0.833
804	-0.818
805	-0.799
805	-0.792
806	-0.793
806	-0.79
807	-0.792
807	-0.791
807	-0.776
808	-0.771
808	-0.765
809	-0.76
809	-0.76
810	-0.763
810	-0.76
810	-0.756
811	-0.76
811	-0.753
812	-0.746
812	-0.746
813	-0.748
813	-0.749
813	-0.744
814	-0.744
814	-0.748
815	-0.739
815	-0.734
816	-0.73
816	-0.746
817	-0.758
817	-0.762
817	-0.772
818	-0.766
818	-0.764
819	-0.773
819	-0.772
820	-0.784
820	-0.783
820	-0.781
821	-0.775
821	-0.772
822	-0.772
822	-0.76
823	-0.77
823	-0.766
823	-0.762
824	-0.76
824	-0.769
825	-0.77
825	-0.767
826	-0.762
826	-0.759
826	-0.757
827	-0.758
827	-0.75
828	-0.752
828	-0.745
829	-0.74
829	-0.725
829	-0.721
830	-0.721
830	-0.707
831	-0.7
831	-0.689
832	-0.679
832	-0.675
832	-0.668
833	-0.668
833	-0.673
834	-0.67
834	-0.665
835	-0.656
835	-0.655
835	-0.651
836	-0.647
836	-0.644
837	-0.634
837	-0.625
838	-0.613
838	-0.596
839	-0.589
839	-0.578
839	-0.57
840	-0.57
840	-0.56
841	-0.55
841	-0.541
842	-0.533
842	-0.521
842	-0.518
843	-0.516
843	-0.51
844	-0.508
844	-0.495
845	-0.48
845	-0.47
845	-0.459
846	-0.449
846	-0.439
847	-0.428
847	-0.415
848	-0.399
848	-0.383
848	-0.368
849	-0.357
849	-0.347
850	-0.337
850	-0.327
851	-0.313
851	-0.297
851	-0.288
852	-0.272
852	-0.262
853	-0.253
853	-0.242
854	-0.231
854	-0.22
854	-0.208
855	-0.197
855	-0.191
856	-0.184
856	-0.176
857	-0.169
857	-0.161
857	-0.149
858	-0.139
858	-0.132
859	-0.121
859	-0.111
860	-0.101
860	-0.086
860	-0.077
861	-0.067
861	-0.058
862	-0.05
862	-0.042
863	-0.035
863	-0.026
863	-0.02
864	-0.015
864	-0.008
865	-0.002
865	0.003
866	0.008
866	0.013
866	0.018
867	0.023
867	0.027
868	0.03
868	0.034
869	0.038
869	0.041
869	0.043
870	0.045
870	0.047
871	0.049
871	0.05
872	0.05
872	0.051
872	0.051
873	0.051
873	0.051
874	0.051
874	0.05
875	0.05
875	0.05
875	0.05
876	0.049
876	0.049
877	0.049
877	0.048
878	0.048
878	0.047
878	0.047
879	0.047
879	0.046
880	0.046
880	0.045
881	0.043
881	0.043
881	0.042
882	0.041
882	0.04
883	0.039
883	0.039
884	0.039
884	0.039
884	0.039
885	0.039
885	0.039
886	0.039
886	0.039
887	0.039
887	0.039
887	0.038
888	0.038
888	0.037
889	0.037
889	0.036
890	0.035
890	0.034
890	0.034
891	0.034
891	0.033
892	0.034
892	0.034
893	0.035
893	0.035
893	0.035
894	0.035
894	0.035
895	0.035
895	0.035
895	0.036
896	0.036
896	0.036
897	0.037
897	0.037
898	0.037
898	0.038
898	0.038
899	0.038
899	0.039
900	0.039
900	0.039
901	0.039
901	0.039
901	0.039
902	0.039
902	0.039
903	0.039
903	0.038
904	0.038
904	0.037
904	0.037
905	0.037
905	0.037
906	0.037
906	0.038
907	0.038
907	0.038
907	0.039
908	0.04
908	0.041
909	0.042
909	0.043
910	0.044
910	0.044
910	0.045
911	0.046
911	0.047
912	0.049
912	0.05
913	0.051
913	0.052
913	0.053
914	0.053
914	0.053
915	0.053
915	0.053
916	0.052
916	0.051
916	0.05
917	0.049
917	0.048
918	0.047
918	0.046
918	0.045
919	0.045
919	0.044
920	0.043
920	0.043
921	0.042
921	0.042
921	0.042
922	0.042
922	0.042
923	0.041
923	0.041
924	0.041
924	0.041
924	0.041
925	0.041
925	0.041
926	0.04
926	0.04
927	0.04
927	0.04
927	0.04
928	0.04
928	0.04
929	0.041
929	0.041
930	0.041
930	0.042
930	0.042
931	0.043
931	0.043
932	0.044
932	0.044
933	0.044
933	0.044
933	0.043
934	0.042
934	0.041
935	0.041
935	0.04
935	0.038
936	0.037
936	0.035
937	0.034
937	0.033
938	0.032
938	0.031
938	0.03
939	0.03
939	0.029
940	0.029
940	0.029
941	0.029
941	0.028
941	0.028
942	0.027
942	0.027
943	0.028
943	0.028
944	0.027
944	0.026
944	0.026
945	0.027
945	0.027
946	0.027
946	0.027
946	0.027
947	0.027
947	0.027
948	0.027
948	0.027
949	0.027
949	0.028
949	0.028
950	0.028
950	0.029
951	0.029
951	0.029
952	0.029
952	0.03
952	0.03
953	0.031
953	0.031
954	0.032
954	0.032
955	0.032
955	0.032
955	0.032
956	0.032
956	0.031
957	0.031
957	0.03
957	0.029
958	0.029
958	0.028
959	0.028
959	0.028
960	0.028
960	0.028
960	0.028
961	0.028
961	0.029
962	0.029
962	0.03
963	0.03
963	0.03
963	0.03
964	0.03
964	0.031
965	0.031
965	0.031
966	0.031
966	0.031
966	0.032
967	0.032
967	0.031
968	0.031
968	0.031
968	0.03
969	0.03
969	0.029
970	0.029
970	0.028
971	0.027
971	0.027
971	0.026
972	0.026
972	0.026
973	0.026
973	0.026
974	0.026
974	0.027
974	0.027
975	0.028
975	0.029
976	0.029
976	0.03
976	0.03
977	0.03
977	0.03
978	0.03
978	0.029
979	0.029
979	0.028
979	0.027
980	0.027
980	0.026
981	0.025
981	0.024
982	0.024
982	0.024
982	0.023
983	0.023
983	0.022
984	0.022
984	0.022
984	0.022
985	0.022
985	0.021
986	0.021
986	0.02
987	0.02
987	0.019
987	0.019
988	0.018
988	0.018
989	0.017
989	0.017
990	0.016
990	0.016
990	0.016
991	0.016
991	0.016
992	0.016
992	0.016
992	0.016
993	0.016
993	0.016
994	0.016
994	0.016
995	0.015
995	0.015
995	0.015
996	0.014
996	0.014
997	0.013
997	0.012
997	0.012
998	0.012
998	0.012
999	0.013
999	0.012
1000	0.012
1000	0.012
1000	0.012
1001	0.012
1001	0.013
1002	0.013
1002	0.013
1003	0.013
1003	0.012
1003	0.011
1004	0.011
1004	0.01
1005	0.01
1005	0.009
1005	0.008
1006	0.007
1006	0.006
1007	0.006
1007	0.006
1008	0.005
1008	0.005
1008	0.005
1009	0.005
1009	0.006
1010	0.006
1010	0.007
1010	0.007
1011	0.007
1011	0.008
1012	0.008
1012	0.009
1013	0.009
1013	0.01
1013	0.01
1014	0.01
1014	0.01
1015	0.01
1015	0.01
1016	0.011
1016	0.01
1016	0.01
1017	0.01
1017	0.01
1018	0.01
1018	0.01
1018	0.01
1019	0.01
1019	0.009
1020	0.009
1020	0.008
1021	0.008
1021	0.008
1021	0.007
1022	0.007
1022	0.006
1023	0.006
1023	0.006
1023	0.005
1024	0.005
1024	0.005
1025	0.005
1025	0.005
1026	0.005
1026	0.005
1026	0.004
1027	0.004
1027	0.004
1028	0.004
1028	0.005
1028	0.005
1029	0.004
1029	0.005
1030	0.004
1030	0.004
1031	0.004
1031	0.004
1031	0.004
1032	0.004
1032	0.004
1033	0.003
1033	0.003
1033	0.003
1034	0.003
1034	0.003
1035	0.003
1035	0.003
1036	0.002
1036	0.002
1036	0.001
1037	0.001
1037	0.002
1038	0.002
1038	0.003
1039	0.003
1039	0.004
1039	0.004
1040	0.005
1040	0.006
1041	0.006
1041	0.006
1041	0.006
1042	0.006
1042	0.005
1043	0.005
1043	0.004
1044	0.004
1044	0.003
1044	0.002
1045	0.001
1045	0
1046	-0
1046	-0.001
1046	-0.001
1047	-0.002
1047	-0.002
1048	-0.002
1048	-0.002
1049	-0.003
1049	-0.003
1049	-0.004
1050	-0.004
1050	-0.005
1051	-0.007
1051	-0.007
1051	-0.008
1052	-0.009
1052	-0.01
1053	-0.01
1053	-0.011
1053	-0.011
1054	-0.011
1054	-0.011
1055	-0.01
1055	-0.01
1056	-0.01
1056	-0.01
1056	-0.011
1057	-0.011
1057	-0.011
1058	-0.011
1058	-0.011
1058	-0.011
1059	-0.012
1059	-0.012
1060	-0.012
1060	-0.012
1061	-0.012
1061	-0.011
1061	-0.011
1062	-0.011
1062	-0.011
1063	-0.011
1063	-0.012
1063	-0.012
1064	-0.012
1064	-0.012
1065	-0.012
1065	-0.013
1066	-0.013
1066	-0.014
1066	-0.014
1067	-0.015
1067	-0.016
1068	-0.016
1068	-0.016
1068	-0.017
1069	-0.018
1069	-0.018
1070	-0.019
1070	-0.019
1071	-0.019
1071	-0.019
1071	-0.019
1072	-0.019
1072	-0.019
1073	-0.018
1073	-0.018
1073	-0.017
1074	-0.017
1074	-0.017
1075	-0.017
1075	-0.018
1076	-0.019
1076	-0.019
1076	-0.02
1077	-0.021
1077	-0.022
1078	-0.023
1078	-0.024
1078	-0.025
1079	-0.025
1079	-0.025
1080	-0.027
1080	-0.027
1080	-0.028
1081	-0.029
1081	-0.029
1082	-0.03
1082	-0.031
1083	-0.032
1083	-0.032
1083	-0.033
1084	-0.034
1084	-0.034
1085	-0.035
1085	-0.035
1085	-0.036
1086	-0.036
1086	-0.038
1087	-0.038
1087	-0.039
1088	-0.04
1088	-0.041
1088	-0.041
1089	-0.043
1089	-0.044
1090	-0.045
1090	-0.046
1090	-0.048
1091	-0.048
1091	-0.049
1092	-0.049
1092	-0.049
1092	-0.05
1093	-0.051
1093	-0.051
1094	-0.052
1094	-0.053
1095	-0.054
1095	-0.055
1095	-0.056
1096	-0.058
1096	-0.059
1097	-0.06
1097	-0.062
1097	-0.064
1098	-0.066
1098	-0.068
1099	-0.069
1099	-0.07
1100	-0.073
1100	-0.075
1100	-0.077
1101	-0.081
1101	-0.082
1102	-0.084
1102	-0.086
1102	-0.088
1103	-0.09
1103	-0.094
1104	-0.097
1104	-0.101
1104	-0.102
1105	-0.104
1105	-0.107
1106	-0.112
1106	-0.115
1107	-0.122
1107	-0.126
1107	-0.13
1108	-0.133
1108	-0.134
1109	-0.137
1109	-0.141
1109	-0.146
1110	-0.148
1110	-0.15
1111	-0.161
1111	-0.151
