Data from 3.4A_17C_Absorbance__217__01174.txt Node

Date: Tue Jun 20 15:45:39 CEST 2023
User: Marek
Spectrometer: MAYP115816
Trigger mode: 0
Integration Time (sec): 2.200000E-1
Scans to average: 10
Electric dark correction enabled: true
Nonlinearity correction enabled: true
Boxcar width: 5
XAxis mode: Wavelengths
Number of Pixels in Spectrum: 2068
>>>>>Begin Spectral Data<<<<<
199	-0.748
199	-0.741
200	-0.702
200	-0.647
201	-0.621
201	-0.613
202	-0.596
202	-0.59
203	-0.588
203	-0.582
204	-0.563
204	-0.548
205	-0.525
205	-0.516
205	-0.525
206	-0.526
206	-0.523
207	-0.515
207	-0.517
208	-0.52
208	-0.523
209	-0.523
209	-0.531
210	-0.541
210	-0.549
211	-0.542
211	-0.546
212	-0.553
212	-0.562
213	-0.56
213	-0.555
213	-0.551
214	-0.559
214	-0.561
215	-0.557
215	-0.563
216	-0.572
216	-0.576
217	-0.575
217	-0.574
218	-0.581
218	-0.582
219	-0.59
219	-0.592
220	-0.594
220	-0.604
221	-0.603
221	-0.602
221	-0.595
222	-0.595
222	-0.595
223	-0.592
223	-0.596
224	-0.597
224	-0.595
225	-0.594
225	-0.593
226	-0.594
226	-0.594
227	-0.601
227	-0.609
228	-0.612
228	-0.62
229	-0.623
229	-0.62
229	-0.62
230	-0.615
230	-0.615
231	-0.61
231	-0.604
232	-0.606
232	-0.601
233	-0.602
233	-0.59
234	-0.593
234	-0.588
235	-0.592
235	-0.603
236	-0.608
236	-0.61
236	-0.612
237	-0.611
237	-0.611
238	-0.61
238	-0.613
239	-0.614
239	-0.626
240	-0.619
240	-0.613
241	-0.609
241	-0.611
242	-0.615
242	-0.626
243	-0.628
243	-0.63
243	-0.633
244	-0.629
244	-0.627
245	-0.628
245	-0.633
246	-0.643
246	-0.646
247	-0.653
247	-0.638
248	-0.638
248	-0.639
249	-0.645
249	-0.646
250	-0.645
250	-0.654
250	-0.652
251	-0.651
251	-0.649
252	-0.651
252	-0.663
253	-0.656
253	-0.668
254	-0.673
254	-0.673
255	-0.683
255	-0.68
256	-0.683
256	-0.696
257	-0.704
257	-0.699
258	-0.698
258	-0.708
258	-0.704
259	-0.697
259	-0.717
260	-0.717
260	-0.708
261	-0.72
261	-0.706
262	-0.711
262	-0.71
263	-0.701
263	-0.707
264	-0.719
264	-0.72
265	-0.71
265	-0.712
265	-0.723
266	-0.712
266	-0.712
267	-0.712
267	-0.728
268	-0.736
268	-0.731
269	-0.722
269	-0.738
270	-0.742
270	-0.739
271	-0.752
271	-0.765
272	-0.767
272	-0.769
272	-0.763
273	-0.772
273	-0.787
274	-0.78
274	-0.772
275	-0.769
275	-0.758
276	-0.76
276	-0.763
277	-0.764
277	-0.762
278	-0.766
278	-0.767
278	-0.753
279	-0.761
279	-0.775
280	-0.779
280	-0.79
281	-0.785
281	-0.779
282	-0.785
282	-0.778
283	-0.771
283	-0.786
284	-0.799
284	-0.809
285	-0.789
285	-0.793
285	-0.786
286	-0.791
286	-0.807
287	-0.803
287	-0.802
288	-0.8
288	-0.78
289	-0.779
289	-0.785
290	-0.794
290	-0.783
291	-0.786
291	-0.783
292	-0.762
292	-0.759
292	-0.765
293	-0.754
293	-0.752
294	-0.75
294	-0.737
295	-0.72
295	-0.733
296	-0.744
296	-0.739
297	-0.729
297	-0.733
298	-0.728
298	-0.746
298	-0.748
299	-0.732
299	-0.724
300	-0.72
300	-0.7
301	-0.681
301	-0.684
302	-0.692
302	-0.679
303	-0.674
303	-0.662
304	-0.646
304	-0.649
305	-0.641
305	-0.652
305	-0.666
306	-0.652
306	-0.649
307	-0.642
307	-0.653
308	-0.653
308	-0.649
309	-0.65
309	-0.646
310	-0.644
310	-0.637
311	-0.624
311	-0.641
311	-0.632
312	-0.63
312	-0.617
313	-0.61
313	-0.611
314	-0.619
314	-0.615
315	-0.613
315	-0.608
316	-0.602
316	-0.592
317	-0.583
317	-0.578
318	-0.57
318	-0.568
318	-0.557
319	-0.545
319	-0.537
320	-0.536
320	-0.534
321	-0.53
321	-0.529
322	-0.523
322	-0.516
323	-0.517
323	-0.508
324	-0.505
324	-0.494
324	-0.483
325	-0.467
325	-0.448
326	-0.441
326	-0.413
327	-0.398
327	-0.377
328	-0.346
328	-0.322
329	-0.293
329	-0.263
330	-0.236
330	-0.2
330	-0.166
331	-0.125
331	-0.095
332	-0.06
332	-0.026
333	0.005
333	0.039
334	0.068
334	0.094
335	0.123
335	0.144
336	0.167
336	0.188
336	0.205
337	0.223
337	0.24
338	0.255
338	0.265
339	0.28
339	0.291
340	0.299
340	0.308
341	0.315
341	0.321
342	0.329
342	0.335
342	0.34
343	0.344
343	0.349
344	0.352
344	0.355
345	0.359
345	0.361
346	0.363
346	0.365
347	0.367
347	0.369
348	0.37
348	0.372
348	0.373
349	0.374
349	0.375
350	0.375
350	0.376
351	0.377
351	0.378
352	0.377
352	0.378
353	0.378
353	0.378
354	0.378
354	0.378
354	0.378
355	0.378
355	0.377
356	0.378
356	0.377
357	0.377
357	0.377
358	0.377
358	0.377
359	0.377
359	0.377
360	0.377
360	0.378
360	0.378
361	0.377
361	0.377
362	0.377
362	0.377
363	0.377
363	0.377
364	0.377
364	0.377
365	0.377
365	0.376
366	0.376
366	0.376
366	0.376
367	0.376
367	0.376
368	0.375
368	0.375
369	0.374
369	0.374
370	0.374
370	0.374
371	0.374
371	0.373
372	0.373
372	0.372
372	0.372
373	0.372
373	0.372
374	0.372
374	0.372
375	0.371
375	0.371
376	0.37
376	0.37
377	0.37
377	0.369
378	0.369
378	0.369
378	0.368
379	0.368
379	0.368
380	0.367
380	0.367
381	0.367
381	0.366
382	0.366
382	0.366
383	0.365
383	0.365
383	0.364
384	0.364
384	0.363
385	0.363
385	0.363
386	0.362
386	0.362
387	0.362
387	0.361
388	0.361
388	0.36
389	0.36
389	0.36
389	0.36
390	0.36
390	0.359
391	0.359
391	0.359
392	0.358
392	0.358
393	0.358
393	0.357
394	0.357
394	0.356
394	0.356
395	0.355
395	0.355
396	0.354
396	0.354
397	0.353
397	0.353
398	0.352
398	0.352
399	0.352
399	0.351
400	0.351
400	0.351
400	0.35
401	0.35
401	0.35
402	0.35
402	0.349
403	0.349
403	0.349
404	0.349
404	0.348
405	0.348
405	0.347
405	0.347
406	0.347
406	0.346
407	0.346
407	0.346
408	0.345
408	0.345
409	0.345
409	0.345
410	0.345
410	0.344
411	0.344
411	0.344
411	0.344
412	0.343
412	0.343
413	0.342
413	0.342
414	0.342
414	0.342
415	0.341
415	0.341
416	0.341
416	0.341
416	0.34
417	0.34
417	0.34
418	0.34
418	0.34
419	0.34
419	0.34
420	0.34
420	0.339
421	0.339
421	0.339
421	0.339
422	0.339
422	0.339
423	0.338
423	0.338
424	0.337
424	0.337
425	0.337
425	0.337
426	0.337
426	0.336
427	0.336
427	0.336
427	0.336
428	0.336
428	0.336
429	0.336
429	0.335
430	0.335
430	0.335
431	0.334
431	0.334
432	0.334
432	0.334
432	0.333
433	0.333
433	0.333
434	0.333
434	0.334
435	0.334
435	0.334
436	0.334
436	0.334
437	0.334
437	0.334
437	0.334
438	0.334
438	0.334
439	0.333
439	0.333
440	0.333
440	0.333
441	0.333
441	0.333
442	0.333
442	0.333
442	0.333
443	0.333
443	0.333
444	0.333
444	0.333
445	0.333
445	0.333
446	0.333
446	0.333
447	0.333
447	0.333
447	0.333
448	0.333
448	0.333
449	0.333
449	0.333
450	0.333
450	0.333
451	0.333
451	0.333
452	0.333
452	0.333
452	0.333
453	0.334
453	0.334
454	0.334
454	0.334
455	0.334
455	0.335
456	0.335
456	0.335
457	0.335
457	0.335
458	0.335
458	0.335
458	0.336
459	0.336
459	0.336
460	0.335
460	0.336
461	0.336
461	0.336
462	0.337
462	0.337
463	0.338
463	0.339
463	0.339
464	0.34
464	0.34
465	0.341
465	0.341
466	0.342
466	0.342
467	0.343
467	0.343
467	0.343
468	0.343
468	0.343
469	0.344
469	0.345
470	0.346
470	0.346
471	0.347
471	0.347
472	0.348
472	0.348
472	0.349
473	0.35
473	0.351
474	0.352
474	0.353
475	0.354
475	0.354
476	0.355
476	0.356
477	0.357
477	0.358
477	0.359
478	0.36
478	0.361
479	0.363
479	0.364
480	0.365
480	0.366
481	0.367
481	0.369
482	0.37
482	0.372
482	0.373
483	0.375
483	0.377
484	0.378
484	0.379
485	0.381
485	0.382
486	0.383
486	0.385
487	0.387
487	0.388
487	0.39
488	0.391
488	0.393
489	0.395
489	0.397
490	0.399
490	0.402
491	0.404
491	0.406
492	0.408
492	0.41
492	0.412
493	0.414
493	0.416
494	0.419
494	0.422
495	0.424
495	0.426
496	0.428
496	0.431
496	0.434
497	0.437
497	0.439
498	0.442
498	0.445
499	0.448
499	0.451
500	0.454
500	0.458
501	0.461
501	0.464
501	0.467
502	0.47
502	0.472
503	0.476
503	0.479
504	0.481
504	0.484
505	0.487
505	0.491
506	0.494
506	0.497
506	0.501
507	0.504
507	0.508
508	0.511
508	0.515
509	0.518
509	0.521
510	0.525
510	0.528
511	0.531
511	0.534
511	0.536
512	0.539
512	0.542
513	0.545
513	0.547
514	0.551
514	0.554
515	0.557
515	0.559
515	0.561
516	0.564
516	0.567
517	0.57
517	0.573
518	0.575
518	0.577
519	0.579
519	0.58
520	0.583
520	0.585
520	0.587
521	0.588
521	0.59
522	0.591
522	0.593
523	0.595
523	0.596
524	0.597
524	0.598
524	0.599
525	0.6
525	0.601
526	0.601
526	0.601
527	0.602
527	0.602
528	0.601
528	0.601
529	0.601
529	0.6
529	0.6
530	0.599
530	0.599
531	0.598
531	0.598
532	0.597
532	0.596
533	0.596
533	0.595
533	0.594
534	0.593
534	0.591
535	0.59
535	0.589
536	0.587
536	0.585
537	0.583
537	0.581
538	0.578
538	0.576
538	0.573
539	0.571
539	0.568
540	0.566
540	0.563
541	0.559
541	0.557
542	0.554
542	0.551
542	0.548
543	0.545
543	0.541
544	0.538
544	0.535
545	0.532
545	0.529
546	0.526
546	0.522
547	0.518
547	0.514
547	0.51
548	0.507
548	0.503
549	0.499
549	0.496
550	0.493
550	0.488
551	0.484
551	0.479
551	0.475
552	0.472
552	0.468
553	0.464
553	0.46
554	0.456
554	0.452
555	0.448
555	0.444
556	0.44
556	0.436
556	0.433
557	0.429
557	0.426
558	0.422
558	0.418
559	0.414
559	0.411
560	0.407
560	0.403
560	0.4
561	0.397
561	0.394
562	0.391
562	0.387
563	0.384
563	0.381
564	0.378
564	0.374
564	0.372
565	0.369
565	0.366
566	0.362
566	0.359
567	0.356
567	0.353
568	0.35
568	0.346
568	0.343
569	0.339
569	0.336
570	0.332
570	0.328
571	0.325
571	0.322
572	0.318
572	0.315
573	0.312
573	0.308
573	0.305
574	0.303
574	0.301
575	0.299
575	0.297
576	0.295
576	0.292
577	0.289
577	0.287
577	0.285
578	0.283
578	0.282
579	0.281
579	0.279
580	0.276
580	0.272
581	0.269
581	0.267
581	0.266
582	0.264
582	0.263
583	0.261
583	0.258
584	0.253
584	0.249
585	0.248
585	0.246
585	0.244
586	0.242
586	0.239
587	0.237
587	0.234
588	0.232
588	0.23
589	0.229
589	0.228
590	0.226
590	0.224
590	0.224
591	0.223
591	0.22
592	0.218
592	0.216
593	0.215
593	0.213
594	0.211
594	0.209
594	0.208
595	0.207
595	0.204
596	0.203
596	0.202
597	0.202
597	0.201
598	0.199
598	0.198
598	0.197
599	0.196
599	0.195
600	0.193
600	0.192
601	0.191
601	0.189
602	0.187
602	0.186
602	0.184
603	0.183
603	0.183
604	0.182
604	0.181
605	0.18
605	0.18
606	0.178
606	0.176
606	0.175
607	0.174
607	0.173
608	0.172
608	0.17
609	0.168
609	0.168
610	0.166
610	0.164
610	0.164
611	0.163
611	0.163
612	0.162
612	0.162
613	0.162
613	0.161
614	0.159
614	0.158
614	0.157
615	0.156
615	0.155
616	0.154
616	0.153
617	0.152
617	0.151
618	0.15
618	0.149
618	0.148
619	0.147
619	0.147
620	0.147
620	0.145
621	0.144
621	0.143
622	0.142
622	0.141
622	0.139
623	0.138
623	0.138
624	0.137
624	0.136
625	0.134
625	0.134
626	0.132
626	0.131
626	0.13
627	0.129
627	0.128
628	0.127
628	0.126
629	0.124
629	0.123
630	0.121
630	0.119
630	0.118
631	0.117
631	0.115
632	0.113
632	0.111
633	0.11
633	0.108
634	0.106
634	0.105
634	0.104
635	0.102
635	0.1
636	0.098
636	0.097
637	0.095
637	0.093
638	0.091
638	0.089
638	0.086
639	0.084
639	0.081
640	0.078
640	0.075
641	0.073
641	0.07
642	0.067
642	0.065
642	0.062
643	0.058
643	0.054
644	0.051
644	0.047
645	0.043
645	0.039
646	0.035
646	0.03
646	0.024
647	0.019
647	0.013
648	0.009
648	0.003
649	-0.002
649	-0.008
650	-0.013
650	-0.018
650	-0.024
651	-0.031
651	-0.04
652	-0.05
652	-0.06
653	-0.07
653	-0.078
653	-0.073
654	-0.058
654	-0.055
655	-0.059
655	-0.063
656	-0.068
656	-0.073
657	-0.077
657	-0.08
657	-0.086
658	-0.091
658	-0.117
659	-0.187
659	-0.259
660	-0.292
660	-0.313
661	-0.336
661	-0.36
661	-0.386
662	-0.41
662	-0.434
663	-0.463
663	-0.495
664	-0.525
664	-0.56
665	-0.598
665	-0.637
665	-0.674
666	-0.717
666	-0.763
667	-0.811
667	-0.866
668	-0.918
668	-0.981
669	-1.045
669	-1.113
669	-1.188
670	-1.271
670	-1.401
671	-1.652
671	-2.064
672	-2.311
672	-2.475
672	-2.596
673	-2.693
673	-2.77
674	-2.796
674	-2.806
675	-2.821
675	-2.824
676	-2.816
676	-2.754
676	-2.67
677	-2.565
677	-2.427
678	-2.197
678	-1.694
679	-1.453
679	-1.339
680	-1.256
680	-1.194
680	-1.141
681	-1.107
681	-1.065
682	-1.032
682	-0.997
683	-0.963
683	-0.946
684	-0.925
684	-0.911
684	-0.895
685	-0.881
685	-0.877
686	-0.856
686	-0.847
687	-0.842
687	-0.834
687	-0.837
688	-0.826
688	-0.822
689	-0.83
689	-0.829
690	-0.818
690	-0.811
691	-0.811
691	-0.816
691	-0.816
692	-0.816
692	-0.813
693	-0.819
693	-0.831
694	-0.811
694	-0.811
695	-0.816
695	-0.809
695	-0.819
696	-0.826
696	-0.82
697	-0.815
697	-0.811
698	-0.806
698	-0.799
698	-0.814
699	-0.812
699	-0.811
700	-0.832
700	-0.827
701	-0.815
701	-0.811
702	-0.812
702	-0.812
702	-0.813
703	-0.804
703	-0.792
704	-0.8
704	-0.804
705	-0.792
705	-0.791
705	-0.785
706	-0.777
706	-0.774
707	-0.786
707	-0.791
708	-0.788
708	-0.786
709	-0.789
709	-0.787
709	-0.784
710	-0.792
710	-0.796
711	-0.796
711	-0.797
712	-0.79
712	-0.786
713	-0.792
713	-0.793
713	-0.772
714	-0.773
714	-0.778
715	-0.77
715	-0.779
716	-0.795
716	-0.801
716	-0.802
717	-0.809
717	-0.8
718	-0.794
718	-0.795
719	-0.79
719	-0.781
720	-0.774
720	-0.769
720	-0.764
721	-0.756
721	-0.76
722	-0.758
722	-0.754
723	-0.773
723	-0.785
723	-0.796
724	-0.796
724	-0.804
725	-0.798
725	-0.801
726	-0.806
726	-0.796
727	-0.797
727	-0.806
727	-0.795
728	-0.784
728	-0.778
729	-0.78
729	-0.78
730	-0.785
730	-0.774
730	-0.78
731	-0.783
731	-0.782
732	-0.782
732	-0.776
733	-0.79
733	-0.797
734	-0.805
734	-0.797
734	-0.78
735	-0.772
735	-0.766
736	-0.766
736	-0.762
737	-0.763
737	-0.754
737	-0.747
738	-0.734
738	-0.724
739	-0.728
739	-0.73
740	-0.743
740	-0.744
741	-0.755
741	-0.764
741	-0.772
742	-0.781
742	-0.795
743	-0.802
743	-0.804
744	-0.807
744	-0.813
744	-0.808
745	-0.815
745	-0.804
746	-0.799
746	-0.792
747	-0.792
747	-0.784
748	-0.785
748	-0.79
748	-0.791
749	-0.786
749	-0.793
750	-0.783
750	-0.784
751	-0.784
751	-0.781
751	-0.793
752	-0.796
752	-0.799
753	-0.799
753	-0.792
754	-0.81
754	-0.813
754	-0.822
755	-0.821
755	-0.814
756	-0.818
756	-0.803
757	-0.797
757	-0.787
758	-0.789
758	-0.788
758	-0.783
759	-0.784
759	-0.782
760	-0.781
760	-0.784
761	-0.775
761	-0.78
761	-0.778
762	-0.783
762	-0.782
763	-0.782
763	-0.785
764	-0.786
764	-0.783
764	-0.789
765	-0.788
765	-0.796
766	-0.8
766	-0.803
767	-0.818
767	-0.814
768	-0.813
768	-0.806
768	-0.8
769	-0.803
769	-0.811
770	-0.82
770	-0.825
771	-0.819
771	-0.819
771	-0.824
772	-0.83
772	-0.85
773	-0.852
773	-0.852
774	-0.85
774	-0.832
775	-0.818
775	-0.817
775	-0.821
776	-0.829
776	-0.824
777	-0.824
777	-0.806
778	-0.815
778	-0.824
778	-0.824
779	-0.833
779	-0.849
780	-0.845
780	-0.852
781	-0.842
781	-0.832
781	-0.847
782	-0.867
782	-0.868
783	-0.866
783	-0.875
784	-0.878
784	-0.872
784	-0.892
785	-0.887
785	-0.901
786	-0.906
786	-0.898
787	-0.888
787	-0.897
788	-0.891
788	-0.884
788	-0.885
789	-0.884
789	-0.873
790	-0.872
790	-0.855
791	-0.863
791	-0.86
791	-0.854
792	-0.848
792	-0.852
793	-0.855
793	-0.844
794	-0.836
794	-0.831
794	-0.839
795	-0.859
795	-0.843
796	-0.847
796	-0.841
797	-0.833
797	-0.824
797	-0.816
798	-0.836
798	-0.843
799	-0.844
799	-0.827
800	-0.822
800	-0.832
801	-0.831
801	-0.837
801	-0.834
802	-0.833
802	-0.833
803	-0.827
803	-0.818
804	-0.823
804	-0.833
804	-0.817
805	-0.798
805	-0.79
806	-0.79
806	-0.788
807	-0.791
807	-0.791
807	-0.775
808	-0.772
808	-0.763
809	-0.759
809	-0.759
810	-0.765
810	-0.761
810	-0.757
811	-0.761
811	-0.751
812	-0.743
812	-0.745
813	-0.748
813	-0.751
813	-0.745
814	-0.746
814	-0.748
815	-0.738
815	-0.734
816	-0.73
816	-0.747
817	-0.759
817	-0.763
817	-0.772
818	-0.766
818	-0.764
819	-0.774
819	-0.773
820	-0.784
820	-0.785
820	-0.783
821	-0.778
821	-0.774
822	-0.772
822	-0.761
823	-0.772
823	-0.773
823	-0.766
824	-0.763
824	-0.773
825	-0.771
825	-0.768
826	-0.763
826	-0.759
826	-0.757
827	-0.757
827	-0.746
828	-0.744
828	-0.739
829	-0.734
829	-0.719
829	-0.717
830	-0.716
830	-0.702
831	-0.696
831	-0.686
832	-0.676
832	-0.672
832	-0.664
833	-0.665
833	-0.67
834	-0.666
834	-0.661
835	-0.654
835	-0.655
835	-0.649
836	-0.646
836	-0.643
837	-0.634
837	-0.626
838	-0.613
838	-0.597
839	-0.591
839	-0.581
839	-0.571
840	-0.57
840	-0.561
841	-0.551
841	-0.545
842	-0.537
842	-0.525
842	-0.521
843	-0.516
843	-0.512
844	-0.509
844	-0.498
845	-0.483
845	-0.474
845	-0.464
846	-0.452
846	-0.441
847	-0.431
847	-0.42
848	-0.407
848	-0.39
848	-0.375
849	-0.364
849	-0.354
850	-0.344
850	-0.334
851	-0.322
851	-0.308
851	-0.298
852	-0.283
852	-0.271
853	-0.263
853	-0.253
854	-0.244
854	-0.232
854	-0.221
855	-0.212
855	-0.204
856	-0.197
856	-0.19
857	-0.183
857	-0.176
857	-0.164
858	-0.155
858	-0.149
859	-0.139
859	-0.129
860	-0.119
860	-0.106
860	-0.097
861	-0.088
861	-0.08
862	-0.073
862	-0.065
863	-0.057
863	-0.049
863	-0.044
864	-0.039
864	-0.033
865	-0.028
865	-0.023
866	-0.018
866	-0.013
866	-0.009
867	-0.004
867	0.001
868	0.004
868	0.008
869	0.012
869	0.015
869	0.017
870	0.019
870	0.021
871	0.022
871	0.023
872	0.023
872	0.024
872	0.025
873	0.025
873	0.025
874	0.024
874	0.024
875	0.024
875	0.023
875	0.023
876	0.023
876	0.023
877	0.023
877	0.022
878	0.022
878	0.021
878	0.021
879	0.021
879	0.02
880	0.02
880	0.019
881	0.018
881	0.017
881	0.017
882	0.016
882	0.015
883	0.014
883	0.014
884	0.014
884	0.014
884	0.014
885	0.014
885	0.015
886	0.015
886	0.015
887	0.014
887	0.014
887	0.014
888	0.013
888	0.013
889	0.012
889	0.011
890	0.01
890	0.01
890	0.009
891	0.009
891	0.008
892	0.009
892	0.01
893	0.01
893	0.01
893	0.01
894	0.011
894	0.011
895	0.011
895	0.011
895	0.011
896	0.012
896	0.012
897	0.012
897	0.013
898	0.013
898	0.013
898	0.013
899	0.013
899	0.014
900	0.014
900	0.014
901	0.014
901	0.014
901	0.014
902	0.015
902	0.015
903	0.015
903	0.014
904	0.014
904	0.013
904	0.013
905	0.013
905	0.013
906	0.013
906	0.013
907	0.014
907	0.014
907	0.015
908	0.016
908	0.017
909	0.018
909	0.019
910	0.02
910	0.021
910	0.021
911	0.022
911	0.024
912	0.025
912	0.027
913	0.028
913	0.029
913	0.029
914	0.03
914	0.03
915	0.03
915	0.029
916	0.029
916	0.028
916	0.027
917	0.026
917	0.025
918	0.024
918	0.024
918	0.023
919	0.022
919	0.022
920	0.021
920	0.021
921	0.021
921	0.02
921	0.02
922	0.02
922	0.02
923	0.019
923	0.019
924	0.019
924	0.019
924	0.019
925	0.018
925	0.018
926	0.018
926	0.018
927	0.017
927	0.017
927	0.017
928	0.018
928	0.018
929	0.018
929	0.019
930	0.02
930	0.02
930	0.021
931	0.021
931	0.021
932	0.022
932	0.022
933	0.022
933	0.022
933	0.022
934	0.021
934	0.02
935	0.019
935	0.018
935	0.017
936	0.015
936	0.014
937	0.013
937	0.012
938	0.011
938	0.01
938	0.009
939	0.008
939	0.008
940	0.008
940	0.008
941	0.007
941	0.007
941	0.007
942	0.007
942	0.007
943	0.007
943	0.006
944	0.006
944	0.006
944	0.006
945	0.006
945	0.007
946	0.007
946	0.007
946	0.007
947	0.007
947	0.007
948	0.008
948	0.008
949	0.007
949	0.008
949	0.008
950	0.008
950	0.009
951	0.009
951	0.009
952	0.009
952	0.01
952	0.01
953	0.011
953	0.011
954	0.011
954	0.011
955	0.011
955	0.011
955	0.012
956	0.011
956	0.011
957	0.01
957	0.01
957	0.009
958	0.009
958	0.008
959	0.008
959	0.008
960	0.008
960	0.008
960	0.008
961	0.008
961	0.009
962	0.01
962	0.01
963	0.01
963	0.011
963	0.011
964	0.011
964	0.011
965	0.012
965	0.012
966	0.012
966	0.011
966	0.012
967	0.012
967	0.011
968	0.011
968	0.011
968	0.01
969	0.01
969	0.009
970	0.008
970	0.008
971	0.007
971	0.007
971	0.006
972	0.006
972	0.006
973	0.006
973	0.006
974	0.007
974	0.007
974	0.008
975	0.009
975	0.009
976	0.01
976	0.01
976	0.011
977	0.011
977	0.011
978	0.01
978	0.01
979	0.009
979	0.009
979	0.008
980	0.007
980	0.006
981	0.005
981	0.005
982	0.004
982	0.004
982	0.004
983	0.004
983	0.004
984	0.004
984	0.003
984	0.003
985	0.003
985	0.003
986	0.002
986	0.002
987	0.001
987	0
987	-0
988	-0.001
988	-0.001
989	-0.002
989	-0.002
990	-0.003
990	-0.003
990	-0.003
991	-0.003
991	-0.003
992	-0.003
992	-0.003
992	-0.002
993	-0.002
993	-0.003
994	-0.003
994	-0.003
995	-0.003
995	-0.003
995	-0.003
996	-0.004
996	-0.004
997	-0.005
997	-0.005
997	-0.005
998	-0.005
998	-0.005
999	-0.005
999	-0.005
1000	-0.005
1000	-0.006
1000	-0.006
1001	-0.005
1001	-0.005
1002	-0.005
1002	-0.005
1003	-0.005
1003	-0.006
1003	-0.006
1004	-0.007
1004	-0.007
1005	-0.008
1005	-0.009
1005	-0.01
1006	-0.011
1006	-0.011
1007	-0.012
1007	-0.012
1008	-0.013
1008	-0.013
1008	-0.013
1009	-0.013
1009	-0.012
1010	-0.012
1010	-0.011
1010	-0.011
1011	-0.01
1011	-0.01
1012	-0.009
1012	-0.009
1013	-0.008
1013	-0.008
1013	-0.007
1014	-0.007
1014	-0.007
1015	-0.007
1015	-0.007
1016	-0.007
1016	-0.007
1016	-0.007
1017	-0.007
1017	-0.007
1018	-0.007
1018	-0.007
1018	-0.008
1019	-0.008
1019	-0.008
1020	-0.008
1020	-0.008
1021	-0.009
1021	-0.009
1021	-0.009
1022	-0.01
1022	-0.01
1023	-0.01
1023	-0.011
1023	-0.011
1024	-0.011
1024	-0.011
1025	-0.012
1025	-0.012
1026	-0.012
1026	-0.012
1026	-0.012
1027	-0.012
1027	-0.012
1028	-0.012
1028	-0.012
1028	-0.012
1029	-0.012
1029	-0.012
1030	-0.012
1030	-0.012
1031	-0.012
1031	-0.012
1031	-0.012
1032	-0.012
1032	-0.012
1033	-0.013
1033	-0.013
1033	-0.013
1034	-0.013
1034	-0.013
1035	-0.013
1035	-0.014
1036	-0.014
1036	-0.014
1036	-0.014
1037	-0.014
1037	-0.014
1038	-0.014
1038	-0.013
1039	-0.013
1039	-0.012
1039	-0.011
1040	-0.011
1040	-0.01
1041	-0.01
1041	-0.01
1041	-0.01
1042	-0.01
1042	-0.01
1043	-0.011
1043	-0.011
1044	-0.012
1044	-0.013
1044	-0.014
1045	-0.015
1045	-0.015
1046	-0.016
1046	-0.017
1046	-0.017
1047	-0.018
1047	-0.018
1048	-0.018
1048	-0.018
1049	-0.019
1049	-0.02
1049	-0.02
1050	-0.021
1050	-0.022
1051	-0.023
1051	-0.024
1051	-0.024
1052	-0.025
1052	-0.026
1053	-0.026
1053	-0.027
1053	-0.027
1054	-0.027
1054	-0.027
1055	-0.026
1055	-0.026
1056	-0.026
1056	-0.026
1056	-0.026
1057	-0.026
1057	-0.027
1058	-0.027
1058	-0.027
1058	-0.027
1059	-0.027
1059	-0.028
1060	-0.028
1060	-0.028
1061	-0.028
1061	-0.027
1061	-0.027
1062	-0.027
1062	-0.027
1063	-0.027
1063	-0.027
1063	-0.027
1064	-0.027
1064	-0.027
1065	-0.027
1065	-0.028
1066	-0.028
1066	-0.029
1066	-0.029
1067	-0.03
1067	-0.03
1068	-0.031
1068	-0.031
1068	-0.032
1069	-0.032
1069	-0.033
1070	-0.033
1070	-0.034
1071	-0.034
1071	-0.034
1071	-0.034
1072	-0.034
1072	-0.033
1073	-0.033
1073	-0.032
1073	-0.032
1074	-0.031
1074	-0.031
1075	-0.031
1075	-0.031
1076	-0.032
1076	-0.032
1076	-0.033
1077	-0.034
1077	-0.035
1078	-0.036
1078	-0.037
1078	-0.038
1079	-0.039
1079	-0.039
1080	-0.041
1080	-0.041
1080	-0.042
1081	-0.043
1081	-0.043
1082	-0.043
1082	-0.044
1083	-0.045
1083	-0.046
1083	-0.047
1084	-0.048
1084	-0.048
1085	-0.049
1085	-0.049
1085	-0.049
1086	-0.05
1086	-0.051
1087	-0.051
1087	-0.052
1088	-0.053
1088	-0.053
1088	-0.053
1089	-0.055
1089	-0.056
1090	-0.056
1090	-0.058
1090	-0.059
1091	-0.061
1091	-0.061
1092	-0.062
1092	-0.062
1092	-0.063
1093	-0.065
1093	-0.064
1094	-0.065
1094	-0.066
1095	-0.067
1095	-0.067
1095	-0.068
1096	-0.069
1096	-0.071
1097	-0.072
1097	-0.073
1097	-0.074
1098	-0.076
1098	-0.078
1099	-0.079
1099	-0.081
1100	-0.083
1100	-0.085
1100	-0.088
1101	-0.091
1101	-0.094
1102	-0.096
1102	-0.098
1102	-0.1
1103	-0.101
1103	-0.105
1104	-0.108
1104	-0.11
1104	-0.112
1105	-0.114
1105	-0.116
1106	-0.12
1106	-0.122
1107	-0.127
1107	-0.133
1107	-0.137
1108	-0.139
1108	-0.14
1109	-0.143
1109	-0.147
1109	-0.152
1110	-0.154
1110	-0.158
1111	-0.17
1111	-0.167
