Data from 3.4A_17C_Absorbance__167__01124.txt Node

Date: Tue Jun 20 15:43:49 CEST 2023
User: Marek
Spectrometer: MAYP115816
Trigger mode: 0
Integration Time (sec): 2.200000E-1
Scans to average: 10
Electric dark correction enabled: true
Nonlinearity correction enabled: true
Boxcar width: 5
XAxis mode: Wavelengths
Number of Pixels in Spectrum: 2068
>>>>>Begin Spectral Data<<<<<
199	-0.754
199	-0.738
200	-0.703
200	-0.647
201	-0.619
201	-0.61
202	-0.592
202	-0.584
203	-0.583
203	-0.577
204	-0.554
204	-0.539
205	-0.515
205	-0.503
205	-0.512
206	-0.513
206	-0.508
207	-0.502
207	-0.509
208	-0.511
208	-0.514
209	-0.517
209	-0.523
210	-0.537
210	-0.546
211	-0.54
211	-0.545
212	-0.556
212	-0.563
213	-0.559
213	-0.554
213	-0.552
214	-0.56
214	-0.561
215	-0.556
215	-0.559
216	-0.569
216	-0.573
217	-0.571
217	-0.572
218	-0.581
218	-0.583
219	-0.59
219	-0.592
220	-0.595
220	-0.603
221	-0.604
221	-0.605
221	-0.597
222	-0.595
222	-0.593
223	-0.588
223	-0.589
224	-0.59
224	-0.585
225	-0.584
225	-0.585
226	-0.585
226	-0.584
227	-0.591
227	-0.601
228	-0.605
228	-0.612
229	-0.617
229	-0.614
229	-0.615
230	-0.609
230	-0.608
231	-0.606
231	-0.602
232	-0.604
232	-0.599
233	-0.599
233	-0.588
234	-0.589
234	-0.584
235	-0.589
235	-0.6
236	-0.607
236	-0.606
236	-0.608
237	-0.605
237	-0.608
238	-0.608
238	-0.609
239	-0.61
239	-0.621
240	-0.613
240	-0.61
241	-0.607
241	-0.609
242	-0.612
242	-0.619
243	-0.618
243	-0.619
243	-0.623
244	-0.62
244	-0.62
245	-0.623
245	-0.626
246	-0.634
246	-0.639
247	-0.645
247	-0.633
248	-0.632
248	-0.635
249	-0.642
249	-0.644
250	-0.644
250	-0.65
250	-0.648
251	-0.65
251	-0.646
252	-0.649
252	-0.659
253	-0.654
253	-0.667
254	-0.673
254	-0.674
255	-0.685
255	-0.685
256	-0.687
256	-0.699
257	-0.708
257	-0.704
258	-0.706
258	-0.712
258	-0.71
259	-0.701
259	-0.717
260	-0.717
260	-0.705
261	-0.716
261	-0.701
262	-0.707
262	-0.705
263	-0.697
263	-0.702
264	-0.711
264	-0.714
265	-0.705
265	-0.708
265	-0.719
266	-0.71
266	-0.709
267	-0.707
267	-0.723
268	-0.73
268	-0.725
269	-0.718
269	-0.73
270	-0.733
270	-0.732
271	-0.744
271	-0.754
272	-0.755
272	-0.759
272	-0.754
273	-0.762
273	-0.778
274	-0.772
274	-0.767
275	-0.765
275	-0.753
276	-0.758
276	-0.763
277	-0.764
277	-0.761
278	-0.764
278	-0.764
278	-0.751
279	-0.758
279	-0.772
280	-0.774
280	-0.784
281	-0.777
281	-0.772
282	-0.778
282	-0.771
283	-0.764
283	-0.778
284	-0.791
284	-0.801
285	-0.781
285	-0.786
285	-0.778
286	-0.784
286	-0.798
287	-0.794
287	-0.794
288	-0.794
288	-0.778
289	-0.778
289	-0.786
290	-0.793
290	-0.784
291	-0.786
291	-0.784
292	-0.764
292	-0.761
292	-0.766
293	-0.753
293	-0.747
294	-0.746
294	-0.73
295	-0.712
295	-0.724
296	-0.736
296	-0.732
297	-0.722
297	-0.725
298	-0.721
298	-0.739
298	-0.744
299	-0.727
299	-0.721
300	-0.718
300	-0.698
301	-0.678
301	-0.678
302	-0.687
302	-0.673
303	-0.664
303	-0.653
304	-0.637
304	-0.639
305	-0.633
305	-0.643
305	-0.658
306	-0.645
306	-0.645
307	-0.637
307	-0.648
308	-0.652
308	-0.648
309	-0.648
309	-0.644
310	-0.641
310	-0.636
311	-0.623
311	-0.642
311	-0.63
312	-0.627
312	-0.614
313	-0.606
313	-0.608
314	-0.614
314	-0.611
315	-0.608
315	-0.601
316	-0.593
316	-0.582
317	-0.575
317	-0.572
318	-0.564
318	-0.562
318	-0.549
319	-0.538
319	-0.532
320	-0.528
320	-0.524
321	-0.522
321	-0.521
322	-0.514
322	-0.506
323	-0.506
323	-0.499
324	-0.499
324	-0.488
324	-0.477
325	-0.464
325	-0.448
326	-0.438
326	-0.413
327	-0.398
327	-0.377
328	-0.346
328	-0.32
329	-0.291
329	-0.261
330	-0.233
330	-0.196
330	-0.16
331	-0.123
331	-0.091
332	-0.055
332	-0.021
333	0.01
333	0.044
334	0.074
334	0.1
335	0.128
335	0.151
336	0.174
336	0.196
336	0.214
337	0.233
337	0.251
338	0.265
338	0.276
339	0.291
339	0.302
340	0.31
340	0.319
341	0.326
341	0.333
342	0.341
342	0.347
342	0.352
343	0.356
343	0.361
344	0.364
344	0.367
345	0.371
345	0.374
346	0.375
346	0.377
347	0.379
347	0.38
348	0.382
348	0.384
348	0.384
349	0.385
349	0.386
350	0.386
350	0.387
351	0.387
351	0.388
352	0.388
352	0.388
353	0.388
353	0.388
354	0.389
354	0.389
354	0.389
355	0.389
355	0.388
356	0.389
356	0.388
357	0.388
357	0.388
358	0.388
358	0.388
359	0.388
359	0.388
360	0.388
360	0.388
360	0.389
361	0.388
361	0.388
362	0.388
362	0.388
363	0.388
363	0.388
364	0.388
364	0.388
365	0.387
365	0.387
366	0.387
366	0.387
366	0.387
367	0.387
367	0.386
368	0.386
368	0.385
369	0.385
369	0.385
370	0.385
370	0.385
371	0.384
371	0.384
372	0.383
372	0.383
372	0.383
373	0.383
373	0.383
374	0.382
374	0.382
375	0.382
375	0.381
376	0.381
376	0.381
377	0.38
377	0.38
378	0.38
378	0.379
378	0.379
379	0.378
379	0.378
380	0.377
380	0.377
381	0.377
381	0.376
382	0.376
382	0.375
383	0.375
383	0.374
383	0.374
384	0.374
384	0.373
385	0.373
385	0.372
386	0.372
386	0.371
387	0.371
387	0.371
388	0.37
388	0.37
389	0.37
389	0.369
389	0.369
390	0.369
390	0.369
391	0.368
391	0.368
392	0.368
392	0.368
393	0.368
393	0.367
394	0.367
394	0.366
394	0.366
395	0.365
395	0.364
396	0.364
396	0.363
397	0.363
397	0.362
398	0.361
398	0.361
399	0.361
399	0.36
400	0.36
400	0.36
400	0.36
401	0.359
401	0.359
402	0.358
402	0.358
403	0.358
403	0.358
404	0.357
404	0.357
405	0.356
405	0.356
405	0.355
406	0.355
406	0.354
407	0.354
407	0.354
408	0.354
408	0.353
409	0.353
409	0.353
410	0.353
410	0.353
411	0.353
411	0.352
411	0.352
412	0.351
412	0.351
413	0.351
413	0.35
414	0.35
414	0.35
415	0.349
415	0.349
416	0.349
416	0.349
416	0.349
417	0.348
417	0.348
418	0.348
418	0.348
419	0.348
419	0.348
420	0.348
420	0.348
421	0.347
421	0.347
421	0.347
422	0.347
422	0.347
423	0.347
423	0.346
424	0.346
424	0.345
425	0.345
425	0.345
426	0.345
426	0.345
427	0.345
427	0.345
427	0.345
428	0.345
428	0.344
429	0.344
429	0.344
430	0.344
430	0.343
431	0.343
431	0.343
432	0.342
432	0.342
432	0.341
433	0.341
433	0.341
434	0.341
434	0.342
435	0.342
435	0.343
436	0.343
436	0.343
437	0.343
437	0.342
437	0.343
438	0.342
438	0.342
439	0.342
439	0.342
440	0.341
440	0.341
441	0.341
441	0.341
442	0.341
442	0.341
442	0.341
443	0.341
443	0.342
444	0.342
444	0.342
445	0.342
445	0.342
446	0.341
446	0.341
447	0.341
447	0.341
447	0.341
448	0.341
448	0.341
449	0.341
449	0.341
450	0.342
450	0.342
451	0.342
451	0.342
452	0.342
452	0.342
452	0.342
453	0.343
453	0.343
454	0.343
454	0.343
455	0.343
455	0.344
456	0.344
456	0.344
457	0.344
457	0.344
458	0.344
458	0.344
458	0.345
459	0.345
459	0.345
460	0.345
460	0.345
461	0.345
461	0.345
462	0.346
462	0.347
463	0.347
463	0.348
463	0.348
464	0.349
464	0.349
465	0.35
465	0.35
466	0.351
466	0.351
467	0.352
467	0.352
467	0.352
468	0.352
468	0.353
469	0.353
469	0.354
470	0.355
470	0.356
471	0.357
471	0.357
472	0.358
472	0.359
472	0.36
473	0.361
473	0.362
474	0.363
474	0.364
475	0.365
475	0.366
476	0.367
476	0.368
477	0.369
477	0.37
477	0.371
478	0.372
478	0.373
479	0.374
479	0.376
480	0.377
480	0.378
481	0.379
481	0.381
482	0.382
482	0.384
482	0.385
483	0.387
483	0.389
484	0.391
484	0.392
485	0.394
485	0.395
486	0.397
486	0.398
487	0.4
487	0.401
487	0.403
488	0.405
488	0.406
489	0.409
489	0.411
490	0.414
490	0.416
491	0.418
491	0.42
492	0.423
492	0.425
492	0.427
493	0.429
493	0.431
494	0.434
494	0.437
495	0.439
495	0.442
496	0.444
496	0.447
496	0.45
497	0.453
497	0.456
498	0.459
498	0.462
499	0.465
499	0.469
500	0.472
500	0.476
501	0.479
501	0.482
501	0.485
502	0.488
502	0.491
503	0.495
503	0.498
504	0.501
504	0.504
505	0.507
505	0.511
506	0.514
506	0.518
506	0.521
507	0.525
507	0.528
508	0.532
508	0.536
509	0.539
509	0.543
510	0.546
510	0.55
511	0.553
511	0.556
511	0.559
512	0.562
512	0.565
513	0.568
513	0.571
514	0.575
514	0.578
515	0.581
515	0.584
515	0.587
516	0.589
516	0.592
517	0.595
517	0.598
518	0.6
518	0.602
519	0.604
519	0.606
520	0.608
520	0.61
520	0.612
521	0.614
521	0.616
522	0.617
522	0.619
523	0.621
523	0.622
524	0.623
524	0.624
524	0.625
525	0.626
525	0.627
526	0.627
526	0.628
527	0.628
527	0.628
528	0.628
528	0.628
529	0.627
529	0.627
529	0.626
530	0.626
530	0.625
531	0.624
531	0.624
532	0.622
532	0.621
533	0.62
533	0.619
533	0.618
534	0.616
534	0.615
535	0.613
535	0.611
536	0.609
536	0.606
537	0.604
537	0.602
538	0.599
538	0.596
538	0.594
539	0.591
539	0.589
540	0.586
540	0.583
541	0.579
541	0.576
542	0.573
542	0.569
542	0.566
543	0.562
543	0.558
544	0.554
544	0.551
545	0.547
545	0.544
546	0.54
546	0.536
547	0.532
547	0.527
547	0.523
548	0.52
548	0.516
549	0.512
549	0.507
550	0.503
550	0.498
551	0.493
551	0.489
551	0.484
552	0.48
552	0.476
553	0.471
553	0.467
554	0.463
554	0.458
555	0.454
555	0.449
556	0.445
556	0.44
556	0.436
557	0.432
557	0.428
558	0.424
558	0.42
559	0.415
559	0.411
560	0.407
560	0.403
560	0.399
561	0.396
561	0.392
562	0.388
562	0.385
563	0.381
563	0.377
564	0.374
564	0.37
564	0.367
565	0.364
565	0.361
566	0.357
566	0.353
567	0.35
567	0.346
568	0.343
568	0.338
568	0.335
569	0.331
569	0.327
570	0.322
570	0.318
571	0.315
571	0.311
572	0.307
572	0.304
573	0.3
573	0.296
573	0.293
574	0.29
574	0.288
575	0.285
575	0.284
576	0.281
576	0.278
577	0.274
577	0.272
577	0.27
578	0.268
578	0.267
579	0.265
579	0.263
580	0.26
580	0.256
581	0.252
581	0.25
581	0.249
582	0.247
582	0.245
583	0.243
583	0.24
584	0.235
584	0.231
585	0.229
585	0.227
585	0.225
586	0.223
586	0.22
587	0.217
587	0.215
588	0.212
588	0.21
589	0.209
589	0.207
590	0.206
590	0.204
590	0.203
591	0.202
591	0.199
592	0.197
592	0.195
593	0.193
593	0.192
594	0.19
594	0.188
594	0.186
595	0.185
595	0.182
596	0.18
596	0.18
597	0.18
597	0.179
598	0.177
598	0.176
598	0.175
599	0.173
599	0.172
600	0.17
600	0.169
601	0.168
601	0.167
602	0.164
602	0.163
602	0.161
603	0.16
603	0.16
604	0.159
604	0.158
605	0.157
605	0.156
606	0.155
606	0.153
606	0.152
607	0.15
607	0.15
608	0.148
608	0.146
609	0.145
609	0.144
610	0.143
610	0.141
610	0.14
611	0.14
611	0.139
612	0.139
612	0.139
613	0.138
613	0.137
614	0.136
614	0.134
614	0.133
615	0.132
615	0.131
616	0.131
616	0.13
617	0.129
617	0.128
618	0.127
618	0.126
618	0.125
619	0.124
619	0.124
620	0.124
620	0.123
621	0.121
621	0.12
622	0.119
622	0.118
622	0.117
623	0.116
623	0.116
624	0.115
624	0.114
625	0.113
625	0.112
626	0.111
626	0.11
626	0.11
627	0.109
627	0.107
628	0.106
628	0.105
629	0.104
629	0.102
630	0.101
630	0.099
630	0.098
631	0.097
631	0.096
632	0.094
632	0.093
633	0.091
633	0.09
634	0.089
634	0.088
634	0.087
635	0.085
635	0.084
636	0.083
636	0.081
637	0.08
637	0.078
638	0.077
638	0.075
638	0.073
639	0.071
639	0.069
640	0.067
640	0.065
641	0.063
641	0.061
642	0.058
642	0.056
642	0.054
643	0.051
643	0.048
644	0.045
644	0.042
645	0.039
645	0.036
646	0.033
646	0.028
646	0.024
647	0.019
647	0.014
648	0.01
648	0.005
649	0
649	-0.004
650	-0.008
650	-0.013
650	-0.019
651	-0.026
651	-0.033
652	-0.042
652	-0.05
653	-0.059
653	-0.066
653	-0.062
654	-0.05
654	-0.049
655	-0.053
655	-0.055
656	-0.059
656	-0.063
657	-0.067
657	-0.071
657	-0.076
658	-0.08
658	-0.105
659	-0.168
659	-0.23
660	-0.26
660	-0.281
661	-0.302
661	-0.325
661	-0.349
662	-0.37
662	-0.392
663	-0.416
663	-0.444
664	-0.47
664	-0.501
665	-0.534
665	-0.568
665	-0.601
666	-0.638
666	-0.679
667	-0.721
667	-0.77
668	-0.817
668	-0.875
669	-0.933
669	-0.997
669	-1.068
670	-1.147
670	-1.28
671	-1.554
671	-1.96
672	-2.253
672	-2.435
672	-2.566
673	-2.669
673	-2.728
674	-2.751
674	-2.761
675	-2.776
675	-2.779
676	-2.772
676	-2.719
676	-2.627
677	-2.507
677	-2.342
678	-2.038
678	-1.534
679	-1.315
679	-1.213
680	-1.138
680	-1.085
680	-1.039
681	-1.011
681	-0.973
682	-0.947
682	-0.916
683	-0.885
683	-0.875
684	-0.857
684	-0.848
684	-0.834
685	-0.823
685	-0.822
686	-0.806
686	-0.799
687	-0.798
687	-0.793
687	-0.798
688	-0.788
688	-0.786
689	-0.794
689	-0.795
690	-0.785
690	-0.776
691	-0.778
691	-0.784
691	-0.786
692	-0.788
692	-0.785
693	-0.793
693	-0.805
694	-0.787
694	-0.789
695	-0.793
695	-0.788
695	-0.797
696	-0.806
696	-0.8
697	-0.796
697	-0.794
698	-0.791
698	-0.785
698	-0.801
699	-0.799
699	-0.8
700	-0.822
700	-0.817
701	-0.804
701	-0.799
702	-0.801
702	-0.8
702	-0.8
703	-0.791
703	-0.779
704	-0.786
704	-0.791
705	-0.78
705	-0.781
705	-0.775
706	-0.768
706	-0.763
707	-0.775
707	-0.779
708	-0.777
708	-0.776
709	-0.778
709	-0.772
709	-0.768
710	-0.776
710	-0.78
711	-0.779
711	-0.78
712	-0.772
712	-0.768
713	-0.774
713	-0.774
713	-0.755
714	-0.76
714	-0.763
715	-0.755
715	-0.763
716	-0.781
716	-0.79
716	-0.79
717	-0.798
717	-0.791
718	-0.786
718	-0.787
719	-0.783
719	-0.777
720	-0.773
720	-0.771
720	-0.766
721	-0.757
721	-0.762
722	-0.76
722	-0.756
723	-0.773
723	-0.786
723	-0.795
724	-0.793
724	-0.797
725	-0.791
725	-0.793
726	-0.797
726	-0.789
727	-0.789
727	-0.798
727	-0.789
728	-0.775
728	-0.769
729	-0.771
729	-0.775
730	-0.78
730	-0.77
730	-0.777
731	-0.779
731	-0.78
732	-0.781
732	-0.777
733	-0.792
733	-0.801
734	-0.809
734	-0.799
734	-0.781
735	-0.774
735	-0.768
736	-0.767
736	-0.761
737	-0.761
737	-0.751
737	-0.745
738	-0.73
738	-0.719
739	-0.722
739	-0.723
740	-0.735
740	-0.735
741	-0.747
741	-0.755
741	-0.764
742	-0.769
742	-0.782
743	-0.789
743	-0.792
744	-0.796
744	-0.804
744	-0.799
745	-0.808
745	-0.798
746	-0.795
746	-0.785
747	-0.789
747	-0.781
748	-0.783
748	-0.788
748	-0.791
749	-0.784
749	-0.791
750	-0.781
750	-0.78
751	-0.779
751	-0.779
751	-0.791
752	-0.793
752	-0.796
753	-0.798
753	-0.789
754	-0.808
754	-0.806
754	-0.814
755	-0.816
755	-0.808
756	-0.809
756	-0.793
757	-0.788
757	-0.776
758	-0.775
758	-0.775
758	-0.77
759	-0.774
759	-0.775
760	-0.773
760	-0.776
761	-0.77
761	-0.774
761	-0.773
762	-0.778
762	-0.779
763	-0.78
763	-0.784
764	-0.784
764	-0.779
764	-0.784
765	-0.781
765	-0.787
766	-0.791
766	-0.793
767	-0.811
767	-0.806
768	-0.804
768	-0.795
768	-0.789
769	-0.792
769	-0.8
770	-0.811
770	-0.817
771	-0.814
771	-0.813
771	-0.817
772	-0.821
772	-0.843
773	-0.846
773	-0.846
774	-0.845
774	-0.827
775	-0.814
775	-0.812
775	-0.814
776	-0.823
776	-0.82
777	-0.819
777	-0.8
778	-0.808
778	-0.817
778	-0.817
779	-0.826
779	-0.842
780	-0.837
780	-0.846
781	-0.837
781	-0.826
781	-0.84
782	-0.862
782	-0.863
783	-0.861
783	-0.869
784	-0.872
784	-0.866
784	-0.886
785	-0.881
785	-0.893
786	-0.897
786	-0.89
787	-0.88
787	-0.888
788	-0.88
788	-0.874
788	-0.875
789	-0.876
789	-0.865
790	-0.865
790	-0.849
791	-0.855
791	-0.851
791	-0.844
792	-0.838
792	-0.844
793	-0.847
793	-0.834
794	-0.829
794	-0.823
794	-0.828
795	-0.85
795	-0.838
796	-0.845
796	-0.84
797	-0.834
797	-0.824
797	-0.816
798	-0.837
798	-0.839
799	-0.839
799	-0.826
800	-0.819
800	-0.828
801	-0.826
801	-0.831
801	-0.829
802	-0.828
802	-0.829
803	-0.824
803	-0.817
804	-0.824
804	-0.832
804	-0.816
805	-0.797
805	-0.787
806	-0.788
806	-0.783
807	-0.784
807	-0.783
807	-0.767
808	-0.763
808	-0.755
809	-0.75
809	-0.749
810	-0.753
810	-0.75
810	-0.746
811	-0.75
811	-0.742
812	-0.734
812	-0.735
813	-0.739
813	-0.74
813	-0.736
814	-0.737
814	-0.741
815	-0.732
815	-0.729
816	-0.725
816	-0.742
817	-0.755
817	-0.758
817	-0.767
818	-0.763
818	-0.76
819	-0.769
819	-0.767
820	-0.778
820	-0.776
820	-0.777
821	-0.772
821	-0.769
822	-0.769
822	-0.757
823	-0.768
823	-0.768
823	-0.764
824	-0.763
824	-0.774
825	-0.774
825	-0.771
826	-0.767
826	-0.762
826	-0.761
827	-0.762
827	-0.75
828	-0.749
828	-0.741
829	-0.735
829	-0.719
829	-0.717
830	-0.715
830	-0.701
831	-0.696
831	-0.687
832	-0.679
832	-0.673
832	-0.667
833	-0.669
833	-0.673
834	-0.67
834	-0.665
835	-0.657
835	-0.657
835	-0.653
836	-0.648
836	-0.645
837	-0.637
837	-0.627
838	-0.614
838	-0.598
839	-0.592
839	-0.579
839	-0.568
840	-0.567
840	-0.557
841	-0.546
841	-0.54
842	-0.531
842	-0.519
842	-0.516
843	-0.512
843	-0.508
844	-0.506
844	-0.496
845	-0.484
845	-0.475
845	-0.464
846	-0.452
846	-0.441
847	-0.431
847	-0.419
848	-0.405
848	-0.387
848	-0.374
849	-0.363
849	-0.35
850	-0.34
850	-0.331
851	-0.319
851	-0.306
851	-0.298
852	-0.283
852	-0.273
853	-0.266
853	-0.256
854	-0.247
854	-0.237
854	-0.225
855	-0.215
855	-0.208
856	-0.202
856	-0.194
857	-0.187
857	-0.179
857	-0.167
858	-0.157
858	-0.151
859	-0.141
859	-0.132
860	-0.123
860	-0.109
860	-0.1
861	-0.091
861	-0.083
862	-0.076
862	-0.069
863	-0.062
863	-0.053
863	-0.048
864	-0.043
864	-0.037
865	-0.031
865	-0.026
866	-0.022
866	-0.017
866	-0.013
867	-0.009
867	-0.006
868	-0.003
868	0.001
869	0.005
869	0.007
869	0.01
870	0.011
870	0.014
871	0.015
871	0.016
872	0.017
872	0.017
872	0.018
873	0.018
873	0.018
874	0.018
874	0.017
875	0.017
875	0.017
875	0.017
876	0.017
876	0.016
877	0.016
877	0.016
878	0.015
878	0.015
878	0.014
879	0.014
879	0.014
880	0.013
880	0.012
881	0.011
881	0.011
881	0.01
882	0.009
882	0.008
883	0.008
883	0.007
884	0.008
884	0.008
884	0.008
885	0.008
885	0.008
886	0.009
886	0.008
887	0.008
887	0.008
887	0.007
888	0.007
888	0.007
889	0.006
889	0.005
890	0.004
890	0.004
890	0.003
891	0.003
891	0.003
892	0.003
892	0.003
893	0.004
893	0.004
893	0.004
894	0.004
894	0.005
895	0.005
895	0.005
895	0.005
896	0.006
896	0.006
897	0.006
897	0.007
898	0.007
898	0.007
898	0.008
899	0.008
899	0.008
900	0.009
900	0.009
901	0.009
901	0.009
901	0.009
902	0.009
902	0.009
903	0.009
903	0.008
904	0.008
904	0.007
904	0.007
905	0.007
905	0.007
906	0.007
906	0.008
907	0.008
907	0.009
907	0.009
908	0.01
908	0.011
909	0.013
909	0.014
910	0.014
910	0.015
910	0.016
911	0.017
911	0.018
912	0.02
912	0.021
913	0.022
913	0.023
913	0.023
914	0.024
914	0.024
915	0.024
915	0.024
916	0.023
916	0.023
916	0.022
917	0.021
917	0.02
918	0.019
918	0.018
918	0.018
919	0.017
919	0.016
920	0.016
920	0.016
921	0.015
921	0.015
921	0.015
922	0.015
922	0.014
923	0.014
923	0.014
924	0.014
924	0.014
924	0.014
925	0.014
925	0.013
926	0.013
926	0.013
927	0.013
927	0.013
927	0.013
928	0.013
928	0.013
929	0.014
929	0.014
930	0.015
930	0.015
930	0.016
931	0.016
931	0.017
932	0.017
932	0.017
933	0.017
933	0.017
933	0.017
934	0.016
934	0.015
935	0.014
935	0.013
935	0.012
936	0.01
936	0.009
937	0.008
937	0.007
938	0.006
938	0.005
938	0.004
939	0.004
939	0.004
940	0.004
940	0.003
941	0.003
941	0.002
941	0.003
942	0.002
942	0.002
943	0.002
943	0.002
944	0.001
944	0.001
944	0.001
945	0.001
945	0.002
946	0.002
946	0.001
946	0.002
947	0.002
947	0.002
948	0.002
948	0.002
949	0.003
949	0.003
949	0.004
950	0.004
950	0.004
951	0.005
951	0.005
952	0.005
952	0.005
952	0.005
953	0.006
953	0.007
954	0.007
954	0.006
955	0.007
955	0.006
955	0.006
956	0.006
956	0.006
957	0.005
957	0.005
957	0.004
958	0.004
958	0.004
959	0.004
959	0.003
960	0.003
960	0.003
960	0.004
961	0.004
961	0.004
962	0.005
962	0.005
963	0.006
963	0.006
963	0.006
964	0.006
964	0.006
965	0.006
965	0.007
966	0.007
966	0.007
966	0.007
967	0.007
967	0.007
968	0.006
968	0.006
968	0.006
969	0.006
969	0.005
970	0.004
970	0.004
971	0.003
971	0.002
971	0.002
972	0.002
972	0.002
973	0.002
973	0.002
974	0.002
974	0.003
974	0.003
975	0.004
975	0.005
976	0.005
976	0.006
976	0.006
977	0.007
977	0.006
978	0.006
978	0.005
979	0.005
979	0.004
979	0.003
980	0.003
980	0.002
981	0.001
981	0
982	-0
982	-0
982	-0
983	-0.001
983	-0.001
984	-0.001
984	-0.001
984	-0.001
985	-0.002
985	-0.002
986	-0.002
986	-0.003
987	-0.004
987	-0.004
987	-0.005
988	-0.005
988	-0.005
989	-0.006
989	-0.006
990	-0.007
990	-0.007
990	-0.007
991	-0.007
991	-0.007
992	-0.006
992	-0.006
992	-0.007
993	-0.006
993	-0.006
994	-0.007
994	-0.007
995	-0.007
995	-0.007
995	-0.008
996	-0.008
996	-0.009
997	-0.009
997	-0.009
997	-0.01
998	-0.01
998	-0.009
999	-0.009
999	-0.009
1000	-0.009
1000	-0.01
1000	-0.01
1001	-0.009
1001	-0.009
1002	-0.009
1002	-0.009
1003	-0.009
1003	-0.01
1003	-0.01
1004	-0.011
1004	-0.011
1005	-0.012
1005	-0.013
1005	-0.014
1006	-0.014
1006	-0.015
1007	-0.015
1007	-0.016
1008	-0.016
1008	-0.017
1008	-0.017
1009	-0.016
1009	-0.016
1010	-0.015
1010	-0.015
1010	-0.014
1011	-0.014
1011	-0.014
1012	-0.013
1012	-0.012
1013	-0.012
1013	-0.012
1013	-0.011
1014	-0.011
1014	-0.011
1015	-0.011
1015	-0.011
1016	-0.011
1016	-0.011
1016	-0.011
1017	-0.011
1017	-0.011
1018	-0.011
1018	-0.011
1018	-0.011
1019	-0.011
1019	-0.011
1020	-0.011
1020	-0.012
1021	-0.012
1021	-0.013
1021	-0.013
1022	-0.013
1022	-0.014
1023	-0.014
1023	-0.014
1023	-0.014
1024	-0.015
1024	-0.015
1025	-0.015
1025	-0.015
1026	-0.015
1026	-0.015
1026	-0.015
1027	-0.015
1027	-0.016
1028	-0.015
1028	-0.015
1028	-0.015
1029	-0.015
1029	-0.015
1030	-0.016
1030	-0.016
1031	-0.016
1031	-0.015
1031	-0.015
1032	-0.015
1032	-0.015
1033	-0.016
1033	-0.016
1033	-0.016
1034	-0.016
1034	-0.017
1035	-0.016
1035	-0.017
1036	-0.017
1036	-0.017
1036	-0.017
1037	-0.018
1037	-0.017
1038	-0.017
1038	-0.017
1039	-0.016
1039	-0.015
1039	-0.015
1040	-0.014
1040	-0.014
1041	-0.013
1041	-0.013
1041	-0.013
1042	-0.013
1042	-0.014
1043	-0.014
1043	-0.015
1044	-0.015
1044	-0.016
1044	-0.017
1045	-0.018
1045	-0.018
1046	-0.019
1046	-0.02
1046	-0.02
1047	-0.021
1047	-0.021
1048	-0.021
1048	-0.022
1049	-0.022
1049	-0.022
1049	-0.023
1050	-0.023
1050	-0.024
1051	-0.025
1051	-0.026
1051	-0.027
1052	-0.028
1052	-0.028
1053	-0.029
1053	-0.029
1053	-0.029
1054	-0.03
1054	-0.03
1055	-0.029
1055	-0.029
1056	-0.029
1056	-0.029
1056	-0.029
1057	-0.03
1057	-0.029
1058	-0.03
1058	-0.03
1058	-0.03
1059	-0.03
1059	-0.031
1060	-0.031
1060	-0.031
1061	-0.031
1061	-0.03
1061	-0.03
1062	-0.03
1062	-0.03
1063	-0.03
1063	-0.031
1063	-0.031
1064	-0.031
1064	-0.031
1065	-0.031
1065	-0.031
1066	-0.032
1066	-0.032
1066	-0.032
1067	-0.033
1067	-0.033
1068	-0.033
1068	-0.034
1068	-0.034
1069	-0.035
1069	-0.035
1070	-0.036
1070	-0.036
1071	-0.036
1071	-0.037
1071	-0.037
1072	-0.037
1072	-0.036
1073	-0.036
1073	-0.036
1073	-0.035
1074	-0.035
1074	-0.035
1075	-0.035
1075	-0.035
1076	-0.036
1076	-0.036
1076	-0.037
1077	-0.038
1077	-0.039
1078	-0.04
1078	-0.041
1078	-0.042
1079	-0.043
1079	-0.043
1080	-0.044
1080	-0.044
1080	-0.045
1081	-0.046
1081	-0.046
1082	-0.046
1082	-0.047
1083	-0.048
1083	-0.048
1083	-0.049
1084	-0.05
1084	-0.05
1085	-0.051
1085	-0.051
1085	-0.052
1086	-0.052
1086	-0.053
1087	-0.054
1087	-0.054
1088	-0.055
1088	-0.056
1088	-0.056
1089	-0.057
1089	-0.058
1090	-0.059
1090	-0.06
1090	-0.062
1091	-0.063
1091	-0.063
1092	-0.064
1092	-0.065
1092	-0.066
1093	-0.067
1093	-0.067
1094	-0.067
1094	-0.068
1095	-0.069
1095	-0.07
1095	-0.071
1096	-0.072
1096	-0.074
1097	-0.075
1097	-0.076
1097	-0.077
1098	-0.079
1098	-0.081
1099	-0.083
1099	-0.084
1100	-0.086
1100	-0.088
1100	-0.091
1101	-0.094
1101	-0.096
1102	-0.098
1102	-0.101
1102	-0.103
1103	-0.105
1103	-0.108
1104	-0.111
1104	-0.114
1104	-0.115
1105	-0.116
1105	-0.119
1106	-0.123
1106	-0.125
1107	-0.131
1107	-0.135
1107	-0.141
1108	-0.142
1108	-0.143
1109	-0.147
1109	-0.151
1109	-0.155
1110	-0.158
1110	-0.162
1111	-0.172
1111	-0.167
