Data from 3.4A_17C_Absorbance__506__01463.txt Node

Date: Tue Jun 20 15:56:15 CEST 2023
User: Marek
Spectrometer: MAYP115816
Trigger mode: 0
Integration Time (sec): 2.200000E-1
Scans to average: 10
Electric dark correction enabled: true
Nonlinearity correction enabled: true
Boxcar width: 5
XAxis mode: Wavelengths
Number of Pixels in Spectrum: 2068
>>>>>Begin Spectral Data<<<<<
199	-0.765
199	-0.746
200	-0.715
200	-0.659
201	-0.633
201	-0.623
202	-0.607
202	-0.6
203	-0.598
203	-0.59
204	-0.567
204	-0.548
205	-0.525
205	-0.514
205	-0.523
206	-0.524
206	-0.52
207	-0.511
207	-0.517
208	-0.517
208	-0.522
209	-0.525
209	-0.535
210	-0.547
210	-0.554
211	-0.549
211	-0.552
212	-0.56
212	-0.567
213	-0.562
213	-0.559
213	-0.558
214	-0.565
214	-0.567
215	-0.565
215	-0.571
216	-0.578
216	-0.584
217	-0.583
217	-0.585
218	-0.593
218	-0.595
219	-0.603
219	-0.605
220	-0.608
220	-0.614
221	-0.613
221	-0.613
221	-0.604
222	-0.602
222	-0.598
223	-0.595
223	-0.598
224	-0.597
224	-0.594
225	-0.59
225	-0.591
226	-0.592
226	-0.592
227	-0.6
227	-0.612
228	-0.616
228	-0.626
229	-0.629
229	-0.628
229	-0.629
230	-0.627
230	-0.623
231	-0.621
231	-0.617
232	-0.62
232	-0.614
233	-0.615
233	-0.604
234	-0.605
234	-0.598
235	-0.603
235	-0.613
236	-0.621
236	-0.619
236	-0.618
237	-0.616
237	-0.617
238	-0.617
238	-0.616
239	-0.616
239	-0.628
240	-0.621
240	-0.617
241	-0.611
241	-0.616
242	-0.62
242	-0.629
243	-0.63
243	-0.633
243	-0.638
244	-0.636
244	-0.637
245	-0.639
245	-0.644
246	-0.653
246	-0.656
247	-0.665
247	-0.649
248	-0.648
248	-0.65
249	-0.654
249	-0.656
250	-0.655
250	-0.663
250	-0.661
251	-0.661
251	-0.656
252	-0.657
252	-0.669
253	-0.665
253	-0.677
254	-0.683
254	-0.685
255	-0.695
255	-0.694
256	-0.697
256	-0.71
257	-0.72
257	-0.716
258	-0.717
258	-0.725
258	-0.721
259	-0.713
259	-0.731
260	-0.73
260	-0.719
261	-0.73
261	-0.716
262	-0.721
262	-0.722
263	-0.712
263	-0.717
264	-0.728
264	-0.729
265	-0.72
265	-0.721
265	-0.73
266	-0.72
266	-0.719
267	-0.72
267	-0.733
268	-0.742
268	-0.734
269	-0.726
269	-0.741
270	-0.745
270	-0.746
271	-0.759
271	-0.768
272	-0.769
272	-0.772
272	-0.767
273	-0.775
273	-0.791
274	-0.784
274	-0.777
275	-0.774
275	-0.761
276	-0.766
276	-0.774
277	-0.776
277	-0.772
278	-0.777
278	-0.778
278	-0.769
279	-0.777
279	-0.789
280	-0.79
280	-0.801
281	-0.795
281	-0.786
282	-0.793
282	-0.789
283	-0.782
283	-0.796
284	-0.809
284	-0.82
285	-0.802
285	-0.809
285	-0.8
286	-0.806
286	-0.823
287	-0.819
287	-0.817
288	-0.815
288	-0.797
289	-0.794
289	-0.801
290	-0.811
290	-0.8
291	-0.804
291	-0.801
292	-0.781
292	-0.778
292	-0.782
293	-0.772
293	-0.768
294	-0.767
294	-0.754
295	-0.736
295	-0.747
296	-0.759
296	-0.754
297	-0.743
297	-0.747
298	-0.744
298	-0.76
298	-0.762
299	-0.744
299	-0.735
300	-0.731
300	-0.713
301	-0.694
301	-0.695
302	-0.705
302	-0.689
303	-0.683
303	-0.671
304	-0.655
304	-0.658
305	-0.652
305	-0.661
305	-0.674
306	-0.66
306	-0.658
307	-0.65
307	-0.663
308	-0.665
308	-0.662
309	-0.664
309	-0.66
310	-0.657
310	-0.653
311	-0.64
311	-0.657
311	-0.645
312	-0.643
312	-0.63
313	-0.623
313	-0.624
314	-0.63
314	-0.627
315	-0.626
315	-0.618
316	-0.612
316	-0.603
317	-0.595
317	-0.591
318	-0.584
318	-0.58
318	-0.569
319	-0.56
319	-0.551
320	-0.549
320	-0.548
321	-0.546
321	-0.545
322	-0.541
322	-0.532
323	-0.532
323	-0.525
324	-0.522
324	-0.511
324	-0.5
325	-0.483
325	-0.466
326	-0.456
326	-0.43
327	-0.414
327	-0.393
328	-0.363
328	-0.34
329	-0.312
329	-0.283
330	-0.257
330	-0.223
330	-0.188
331	-0.153
331	-0.122
332	-0.09
332	-0.058
333	-0.029
333	0.004
334	0.032
334	0.057
335	0.083
335	0.103
336	0.124
336	0.143
336	0.159
337	0.177
337	0.192
338	0.205
338	0.214
339	0.227
339	0.237
340	0.245
340	0.253
341	0.261
341	0.267
342	0.273
342	0.278
342	0.283
343	0.287
343	0.292
344	0.294
344	0.297
345	0.3
345	0.302
346	0.304
346	0.306
347	0.307
347	0.309
348	0.31
348	0.311
348	0.312
349	0.313
349	0.314
350	0.315
350	0.315
351	0.316
351	0.316
352	0.316
352	0.316
353	0.317
353	0.317
354	0.317
354	0.317
354	0.317
355	0.317
355	0.316
356	0.317
356	0.317
357	0.316
357	0.316
358	0.316
358	0.316
359	0.316
359	0.316
360	0.316
360	0.316
360	0.316
361	0.316
361	0.316
362	0.316
362	0.316
363	0.317
363	0.317
364	0.317
364	0.317
365	0.317
365	0.317
366	0.316
366	0.316
366	0.316
367	0.316
367	0.316
368	0.315
368	0.315
369	0.315
369	0.315
370	0.314
370	0.314
371	0.314
371	0.314
372	0.313
372	0.313
372	0.313
373	0.313
373	0.313
374	0.313
374	0.313
375	0.312
375	0.312
376	0.312
376	0.312
377	0.311
377	0.311
378	0.311
378	0.31
378	0.31
379	0.31
379	0.31
380	0.31
380	0.31
381	0.309
381	0.309
382	0.309
382	0.309
383	0.308
383	0.308
383	0.308
384	0.307
384	0.307
385	0.306
385	0.306
386	0.306
386	0.306
387	0.305
387	0.305
388	0.305
388	0.305
389	0.305
389	0.305
389	0.304
390	0.304
390	0.304
391	0.304
391	0.303
392	0.303
392	0.303
393	0.303
393	0.303
394	0.302
394	0.302
394	0.302
395	0.301
395	0.301
396	0.301
396	0.301
397	0.3
397	0.3
398	0.3
398	0.299
399	0.299
399	0.299
400	0.298
400	0.298
400	0.298
401	0.298
401	0.298
402	0.297
402	0.297
403	0.297
403	0.297
404	0.297
404	0.296
405	0.296
405	0.295
405	0.295
406	0.295
406	0.295
407	0.295
407	0.294
408	0.294
408	0.294
409	0.293
409	0.293
410	0.293
410	0.293
411	0.293
411	0.293
411	0.292
412	0.292
412	0.292
413	0.292
413	0.292
414	0.292
414	0.292
415	0.291
415	0.291
416	0.291
416	0.291
416	0.29
417	0.29
417	0.29
418	0.29
418	0.29
419	0.29
419	0.29
420	0.29
420	0.29
421	0.29
421	0.29
421	0.29
422	0.29
422	0.29
423	0.29
423	0.289
424	0.289
424	0.289
425	0.289
425	0.289
426	0.288
426	0.288
427	0.288
427	0.288
427	0.288
428	0.288
428	0.287
429	0.287
429	0.287
430	0.286
430	0.286
431	0.286
431	0.286
432	0.285
432	0.285
432	0.285
433	0.285
433	0.285
434	0.285
434	0.285
435	0.285
435	0.285
436	0.285
436	0.285
437	0.285
437	0.285
437	0.285
438	0.284
438	0.285
439	0.284
439	0.284
440	0.284
440	0.284
441	0.284
441	0.284
442	0.284
442	0.284
442	0.284
443	0.284
443	0.284
444	0.284
444	0.284
445	0.284
445	0.284
446	0.284
446	0.284
447	0.284
447	0.284
447	0.284
448	0.284
448	0.284
449	0.283
449	0.283
450	0.283
450	0.283
451	0.283
451	0.283
452	0.283
452	0.283
452	0.283
453	0.283
453	0.283
454	0.284
454	0.284
455	0.284
455	0.284
456	0.284
456	0.284
457	0.284
457	0.284
458	0.284
458	0.284
458	0.285
459	0.285
459	0.284
460	0.284
460	0.284
461	0.284
461	0.285
462	0.285
462	0.286
463	0.286
463	0.287
463	0.287
464	0.288
464	0.288
465	0.288
465	0.289
466	0.289
466	0.29
467	0.29
467	0.29
467	0.29
468	0.29
468	0.29
469	0.29
469	0.291
470	0.291
470	0.291
471	0.292
471	0.292
472	0.292
472	0.293
472	0.293
473	0.294
473	0.294
474	0.295
474	0.295
475	0.296
475	0.297
476	0.297
476	0.298
477	0.299
477	0.299
477	0.3
478	0.301
478	0.302
479	0.303
479	0.304
480	0.305
480	0.305
481	0.306
481	0.307
482	0.308
482	0.309
482	0.31
483	0.311
483	0.313
484	0.314
484	0.314
485	0.315
485	0.316
486	0.317
486	0.318
487	0.319
487	0.32
487	0.321
488	0.322
488	0.323
489	0.324
489	0.326
490	0.327
490	0.329
491	0.331
491	0.332
492	0.334
492	0.335
492	0.336
493	0.338
493	0.339
494	0.342
494	0.343
495	0.345
495	0.346
496	0.348
496	0.35
496	0.352
497	0.354
497	0.356
498	0.358
498	0.36
499	0.361
499	0.364
500	0.367
500	0.369
501	0.371
501	0.374
501	0.375
502	0.377
502	0.379
503	0.382
503	0.384
504	0.386
504	0.388
505	0.39
505	0.393
506	0.395
506	0.398
506	0.401
507	0.403
507	0.406
508	0.409
508	0.411
509	0.414
509	0.416
510	0.419
510	0.421
511	0.423
511	0.426
511	0.428
512	0.43
512	0.432
513	0.433
513	0.436
514	0.438
514	0.44
515	0.442
515	0.444
515	0.446
516	0.448
516	0.45
517	0.452
517	0.454
518	0.456
518	0.458
519	0.46
519	0.461
520	0.463
520	0.464
520	0.466
521	0.467
521	0.468
522	0.469
522	0.47
523	0.471
523	0.472
524	0.472
524	0.474
524	0.474
525	0.475
525	0.476
526	0.477
526	0.477
527	0.478
527	0.478
528	0.478
528	0.478
529	0.478
529	0.477
529	0.477
530	0.477
530	0.476
531	0.476
531	0.476
532	0.475
532	0.475
533	0.474
533	0.473
533	0.473
534	0.472
534	0.471
535	0.471
535	0.47
536	0.469
536	0.468
537	0.467
537	0.466
538	0.465
538	0.463
538	0.462
539	0.461
539	0.459
540	0.458
540	0.455
541	0.454
541	0.452
542	0.45
542	0.447
542	0.445
543	0.443
543	0.441
544	0.439
544	0.437
545	0.435
545	0.433
546	0.431
546	0.429
547	0.426
547	0.423
547	0.421
548	0.42
548	0.417
549	0.415
549	0.412
550	0.41
550	0.407
551	0.404
551	0.402
551	0.399
552	0.396
552	0.394
553	0.391
553	0.389
554	0.386
554	0.383
555	0.38
555	0.378
556	0.376
556	0.374
556	0.371
557	0.369
557	0.367
558	0.365
558	0.363
559	0.361
559	0.359
560	0.357
560	0.354
560	0.352
561	0.351
561	0.349
562	0.347
562	0.345
563	0.343
563	0.341
564	0.339
564	0.337
564	0.335
565	0.334
565	0.332
566	0.33
566	0.328
567	0.327
567	0.325
568	0.323
568	0.321
568	0.319
569	0.317
569	0.314
570	0.311
570	0.308
571	0.307
571	0.305
572	0.303
572	0.301
573	0.299
573	0.297
573	0.295
574	0.294
574	0.293
575	0.292
575	0.292
576	0.291
576	0.289
577	0.286
577	0.285
577	0.284
578	0.284
578	0.283
579	0.283
579	0.282
580	0.28
580	0.277
581	0.274
581	0.273
581	0.273
582	0.272
582	0.272
583	0.271
583	0.269
584	0.266
584	0.264
585	0.263
585	0.263
585	0.262
586	0.261
586	0.26
587	0.257
587	0.255
588	0.254
588	0.253
589	0.252
589	0.251
590	0.25
590	0.249
590	0.25
591	0.249
591	0.248
592	0.247
592	0.246
593	0.245
593	0.245
594	0.243
594	0.242
594	0.241
595	0.24
595	0.239
596	0.237
596	0.237
597	0.238
597	0.238
598	0.237
598	0.237
598	0.236
599	0.236
599	0.235
600	0.235
600	0.234
601	0.234
601	0.234
602	0.232
602	0.232
602	0.23
603	0.23
603	0.23
604	0.23
604	0.229
605	0.229
605	0.229
606	0.227
606	0.226
606	0.225
607	0.224
607	0.223
608	0.222
608	0.22
609	0.219
609	0.219
610	0.218
610	0.217
610	0.217
611	0.217
611	0.217
612	0.217
612	0.217
613	0.217
613	0.217
614	0.215
614	0.214
614	0.213
615	0.212
615	0.211
616	0.211
616	0.21
617	0.209
617	0.208
618	0.207
618	0.207
618	0.206
619	0.206
619	0.206
620	0.206
620	0.205
621	0.204
621	0.203
622	0.202
622	0.201
622	0.199
623	0.198
623	0.198
624	0.198
624	0.196
625	0.194
625	0.194
626	0.192
626	0.191
626	0.191
627	0.19
627	0.189
628	0.189
628	0.187
629	0.186
629	0.186
630	0.184
630	0.183
630	0.182
631	0.181
631	0.179
632	0.177
632	0.176
633	0.174
633	0.172
634	0.17
634	0.169
634	0.167
635	0.164
635	0.162
636	0.16
636	0.157
637	0.154
637	0.152
638	0.149
638	0.146
638	0.143
639	0.139
639	0.136
640	0.132
640	0.129
641	0.126
641	0.122
642	0.119
642	0.116
642	0.112
643	0.108
643	0.103
644	0.099
644	0.094
645	0.089
645	0.085
646	0.079
646	0.073
646	0.067
647	0.061
647	0.055
648	0.049
648	0.042
649	0.035
649	0.029
650	0.023
650	0.016
650	0.009
651	-0
651	-0.011
652	-0.024
652	-0.037
653	-0.049
653	-0.059
653	-0.055
654	-0.037
654	-0.032
655	-0.036
655	-0.041
656	-0.047
656	-0.054
657	-0.059
657	-0.064
657	-0.07
658	-0.076
658	-0.107
659	-0.19
659	-0.278
660	-0.318
660	-0.344
661	-0.372
661	-0.401
661	-0.432
662	-0.461
662	-0.493
663	-0.529
663	-0.568
664	-0.608
664	-0.649
665	-0.696
665	-0.744
665	-0.79
666	-0.841
666	-0.897
667	-0.954
667	-1.017
668	-1.077
668	-1.147
669	-1.216
669	-1.29
669	-1.37
670	-1.454
670	-1.568
671	-1.744
671	-2.119
672	-2.343
672	-2.497
672	-2.612
673	-2.705
673	-2.783
674	-2.835
674	-2.849
675	-2.865
675	-2.869
676	-2.864
676	-2.805
676	-2.734
677	-2.646
677	-2.539
678	-2.378
678	-2.101
679	-1.752
679	-1.595
680	-1.493
680	-1.417
680	-1.35
681	-1.301
681	-1.248
682	-1.205
682	-1.162
683	-1.118
683	-1.093
684	-1.064
684	-1.043
684	-1.019
685	-0.998
685	-0.986
686	-0.963
686	-0.947
687	-0.938
687	-0.925
687	-0.923
688	-0.906
688	-0.896
689	-0.9
689	-0.898
690	-0.884
690	-0.873
691	-0.871
691	-0.874
691	-0.873
692	-0.873
692	-0.869
693	-0.877
693	-0.889
694	-0.866
694	-0.863
695	-0.864
695	-0.857
695	-0.864
696	-0.869
696	-0.863
697	-0.857
697	-0.853
698	-0.846
698	-0.837
698	-0.852
699	-0.852
699	-0.854
700	-0.873
700	-0.867
701	-0.855
701	-0.849
702	-0.848
702	-0.846
702	-0.847
703	-0.838
703	-0.825
704	-0.832
704	-0.835
705	-0.823
705	-0.822
705	-0.815
706	-0.808
706	-0.806
707	-0.816
707	-0.819
708	-0.817
708	-0.813
709	-0.816
709	-0.811
709	-0.807
710	-0.815
710	-0.819
711	-0.819
711	-0.818
712	-0.809
712	-0.808
713	-0.812
713	-0.813
713	-0.792
714	-0.794
714	-0.798
715	-0.788
715	-0.796
716	-0.811
716	-0.82
716	-0.821
717	-0.827
717	-0.819
718	-0.815
718	-0.817
719	-0.811
719	-0.804
720	-0.8
720	-0.797
720	-0.789
721	-0.782
721	-0.787
722	-0.784
722	-0.778
723	-0.793
723	-0.805
723	-0.815
724	-0.812
724	-0.817
725	-0.809
725	-0.814
726	-0.818
726	-0.808
727	-0.809
727	-0.817
727	-0.808
728	-0.794
728	-0.792
729	-0.795
729	-0.798
730	-0.802
730	-0.792
730	-0.796
731	-0.8
731	-0.798
732	-0.801
732	-0.795
733	-0.811
733	-0.814
734	-0.822
734	-0.813
734	-0.796
735	-0.787
735	-0.783
736	-0.78
736	-0.775
737	-0.773
737	-0.765
737	-0.757
738	-0.743
738	-0.732
739	-0.735
739	-0.737
740	-0.75
740	-0.75
741	-0.762
741	-0.774
741	-0.785
742	-0.79
742	-0.806
743	-0.812
743	-0.816
744	-0.819
744	-0.827
744	-0.822
745	-0.832
745	-0.82
746	-0.814
746	-0.805
747	-0.809
747	-0.798
748	-0.801
748	-0.803
748	-0.804
749	-0.797
749	-0.802
750	-0.791
750	-0.791
751	-0.79
751	-0.788
751	-0.798
752	-0.801
752	-0.804
753	-0.807
753	-0.798
754	-0.818
754	-0.817
754	-0.827
755	-0.827
755	-0.819
756	-0.823
756	-0.81
757	-0.805
757	-0.794
758	-0.794
758	-0.794
758	-0.787
759	-0.793
759	-0.792
760	-0.789
760	-0.791
761	-0.785
761	-0.788
761	-0.789
762	-0.795
762	-0.796
763	-0.796
763	-0.8
764	-0.797
764	-0.794
764	-0.8
765	-0.798
765	-0.803
766	-0.807
766	-0.809
767	-0.823
767	-0.817
768	-0.815
768	-0.807
768	-0.804
769	-0.807
769	-0.816
770	-0.828
770	-0.833
771	-0.827
771	-0.827
771	-0.832
772	-0.837
772	-0.86
773	-0.861
773	-0.859
774	-0.86
774	-0.841
775	-0.828
775	-0.827
775	-0.832
776	-0.842
776	-0.839
777	-0.839
777	-0.823
778	-0.831
778	-0.842
778	-0.84
779	-0.848
779	-0.863
780	-0.859
780	-0.869
781	-0.859
781	-0.851
781	-0.867
782	-0.886
782	-0.888
783	-0.886
783	-0.894
784	-0.899
784	-0.892
784	-0.912
785	-0.903
785	-0.915
786	-0.916
786	-0.907
787	-0.897
787	-0.906
788	-0.898
788	-0.891
788	-0.891
789	-0.89
789	-0.881
790	-0.88
790	-0.862
791	-0.869
791	-0.864
791	-0.856
792	-0.851
792	-0.854
793	-0.857
793	-0.845
794	-0.839
794	-0.831
794	-0.838
795	-0.86
795	-0.847
796	-0.853
796	-0.85
797	-0.843
797	-0.834
797	-0.826
798	-0.846
798	-0.851
799	-0.85
799	-0.838
800	-0.831
800	-0.839
801	-0.837
801	-0.84
801	-0.836
802	-0.837
802	-0.839
803	-0.832
803	-0.825
804	-0.831
804	-0.838
804	-0.822
805	-0.805
805	-0.796
806	-0.796
806	-0.793
807	-0.794
807	-0.793
807	-0.778
808	-0.774
808	-0.767
809	-0.761
809	-0.762
810	-0.765
810	-0.761
810	-0.757
811	-0.759
811	-0.751
812	-0.743
812	-0.745
813	-0.748
813	-0.748
813	-0.745
814	-0.745
814	-0.749
815	-0.741
815	-0.737
816	-0.733
816	-0.749
817	-0.761
817	-0.765
817	-0.776
818	-0.769
818	-0.767
819	-0.778
819	-0.777
820	-0.788
820	-0.79
820	-0.79
821	-0.783
821	-0.782
822	-0.78
822	-0.768
823	-0.78
823	-0.778
823	-0.772
824	-0.77
824	-0.779
825	-0.777
825	-0.773
826	-0.768
826	-0.762
826	-0.762
827	-0.762
827	-0.751
828	-0.751
828	-0.745
829	-0.737
829	-0.723
829	-0.721
830	-0.72
830	-0.706
831	-0.702
831	-0.691
832	-0.682
832	-0.676
832	-0.669
833	-0.669
833	-0.676
834	-0.671
834	-0.665
835	-0.657
835	-0.659
835	-0.652
836	-0.648
836	-0.645
837	-0.635
837	-0.625
838	-0.612
838	-0.595
839	-0.589
839	-0.577
839	-0.567
840	-0.565
840	-0.555
841	-0.544
841	-0.536
842	-0.528
842	-0.518
842	-0.515
843	-0.513
843	-0.509
844	-0.505
844	-0.493
845	-0.479
845	-0.469
845	-0.458
846	-0.446
846	-0.435
847	-0.423
847	-0.41
848	-0.395
848	-0.377
848	-0.365
849	-0.354
849	-0.342
850	-0.332
850	-0.321
851	-0.308
851	-0.294
851	-0.285
852	-0.27
852	-0.257
853	-0.249
853	-0.238
854	-0.227
854	-0.216
854	-0.205
855	-0.194
855	-0.186
856	-0.179
856	-0.171
857	-0.162
857	-0.154
857	-0.142
858	-0.132
858	-0.126
859	-0.115
859	-0.104
860	-0.094
860	-0.079
860	-0.07
861	-0.06
861	-0.051
862	-0.044
862	-0.035
863	-0.027
863	-0.017
863	-0.012
864	-0.006
864	0
865	0.006
865	0.011
866	0.017
866	0.022
866	0.028
867	0.032
867	0.037
868	0.041
868	0.046
869	0.051
869	0.054
869	0.056
870	0.058
870	0.059
871	0.06
871	0.061
872	0.061
872	0.061
872	0.061
873	0.062
873	0.062
874	0.062
874	0.062
875	0.062
875	0.062
875	0.062
876	0.062
876	0.062
877	0.063
877	0.062
878	0.062
878	0.062
878	0.061
879	0.06
879	0.06
880	0.058
880	0.057
881	0.055
881	0.054
881	0.053
882	0.052
882	0.051
883	0.05
883	0.049
884	0.049
884	0.05
884	0.05
885	0.051
885	0.051
886	0.051
886	0.052
887	0.052
887	0.052
887	0.052
888	0.052
888	0.051
889	0.051
889	0.05
890	0.049
890	0.049
890	0.048
891	0.048
891	0.047
892	0.047
892	0.048
893	0.048
893	0.048
893	0.048
894	0.049
894	0.049
895	0.049
895	0.049
895	0.05
896	0.05
896	0.05
897	0.05
897	0.051
898	0.051
898	0.051
898	0.051
899	0.051
899	0.051
900	0.051
900	0.05
901	0.05
901	0.05
901	0.05
902	0.05
902	0.051
903	0.05
903	0.05
904	0.05
904	0.049
904	0.049
905	0.049
905	0.049
906	0.05
906	0.05
907	0.05
907	0.05
907	0.05
908	0.051
908	0.052
909	0.052
909	0.053
910	0.053
910	0.054
910	0.054
911	0.055
911	0.056
912	0.057
912	0.059
913	0.059
913	0.06
913	0.061
914	0.061
914	0.061
915	0.061
915	0.061
916	0.061
916	0.06
916	0.06
917	0.059
917	0.059
918	0.058
918	0.057
918	0.057
919	0.057
919	0.057
920	0.056
920	0.056
921	0.056
921	0.056
921	0.056
922	0.056
922	0.056
923	0.055
923	0.055
924	0.055
924	0.054
924	0.054
925	0.054
925	0.054
926	0.053
926	0.053
927	0.052
927	0.052
927	0.052
928	0.052
928	0.052
929	0.052
929	0.052
930	0.052
930	0.053
930	0.053
931	0.054
931	0.054
932	0.055
932	0.055
933	0.055
933	0.055
933	0.054
934	0.053
934	0.052
935	0.051
935	0.05
935	0.048
936	0.047
936	0.045
937	0.044
937	0.043
938	0.042
938	0.041
938	0.04
939	0.04
939	0.04
940	0.04
940	0.039
941	0.039
941	0.038
941	0.038
942	0.038
942	0.038
943	0.037
943	0.037
944	0.037
944	0.036
944	0.035
945	0.035
945	0.036
946	0.036
946	0.036
946	0.036
947	0.036
947	0.036
948	0.036
948	0.036
949	0.037
949	0.037
949	0.038
950	0.039
950	0.039
951	0.04
951	0.04
952	0.04
952	0.041
952	0.041
953	0.042
953	0.042
954	0.042
954	0.041
955	0.041
955	0.041
955	0.041
956	0.04
956	0.04
957	0.039
957	0.038
957	0.038
958	0.037
958	0.037
959	0.037
959	0.037
960	0.037
960	0.037
960	0.038
961	0.038
961	0.039
962	0.04
962	0.041
963	0.041
963	0.042
963	0.042
964	0.043
964	0.043
965	0.044
965	0.044
966	0.044
966	0.044
966	0.044
967	0.044
967	0.043
968	0.043
968	0.042
968	0.042
969	0.042
969	0.041
970	0.041
970	0.041
971	0.041
971	0.041
971	0.041
972	0.042
972	0.042
973	0.042
973	0.042
974	0.042
974	0.043
974	0.043
975	0.043
975	0.043
976	0.043
976	0.043
976	0.042
977	0.042
977	0.041
978	0.04
978	0.039
979	0.038
979	0.038
979	0.037
980	0.037
980	0.036
981	0.035
981	0.035
982	0.035
982	0.035
982	0.035
983	0.035
983	0.035
984	0.035
984	0.034
984	0.034
985	0.034
985	0.033
986	0.032
986	0.031
987	0.03
987	0.029
987	0.029
988	0.028
988	0.027
989	0.027
989	0.026
990	0.026
990	0.026
990	0.026
991	0.026
991	0.026
992	0.027
992	0.027
992	0.027
993	0.028
993	0.028
994	0.027
994	0.027
995	0.027
995	0.026
995	0.025
996	0.024
996	0.024
997	0.023
997	0.023
997	0.022
998	0.022
998	0.022
999	0.023
999	0.023
1000	0.023
1000	0.023
1000	0.023
1001	0.024
1001	0.024
1002	0.024
1002	0.023
1003	0.023
1003	0.022
1003	0.021
1004	0.02
1004	0.019
1005	0.018
1005	0.017
1005	0.016
1006	0.014
1006	0.013
1007	0.013
1007	0.012
1008	0.011
1008	0.011
1008	0.011
1009	0.011
1009	0.011
1010	0.012
1010	0.012
1010	0.013
1011	0.013
1011	0.014
1012	0.014
1012	0.015
1013	0.016
1013	0.017
1013	0.017
1014	0.018
1014	0.019
1015	0.02
1015	0.021
1016	0.021
1016	0.022
1016	0.022
1017	0.022
1017	0.022
1018	0.022
1018	0.022
1018	0.022
1019	0.021
1019	0.021
1020	0.02
1020	0.02
1021	0.019
1021	0.019
1021	0.019
1022	0.018
1022	0.018
1023	0.018
1023	0.018
1023	0.018
1024	0.018
1024	0.018
1025	0.018
1025	0.018
1026	0.018
1026	0.018
1026	0.017
1027	0.017
1027	0.017
1028	0.017
1028	0.017
1028	0.017
1029	0.017
1029	0.017
1030	0.016
1030	0.015
1031	0.015
1031	0.015
1031	0.015
1032	0.014
1032	0.014
1033	0.013
1033	0.012
1033	0.012
1034	0.012
1034	0.012
1035	0.012
1035	0.012
1036	0.011
1036	0.011
1036	0.011
1037	0.011
1037	0.012
1038	0.012
1038	0.013
1039	0.013
1039	0.014
1039	0.015
1040	0.015
1040	0.016
1041	0.016
1041	0.016
1041	0.016
1042	0.016
1042	0.016
1043	0.015
1043	0.015
1044	0.015
1044	0.014
1044	0.014
1045	0.013
1045	0.013
1046	0.012
1046	0.012
1046	0.011
1047	0.011
1047	0.011
1048	0.011
1048	0.011
1049	0.011
1049	0.01
1049	0.01
1050	0.01
1050	0.009
1051	0.008
1051	0.007
1051	0.006
1052	0.005
1052	0.004
1053	0.003
1053	0.002
1053	0.002
1054	0.001
1054	0.001
1055	0.002
1055	0.002
1056	0.002
1056	0.002
1056	0.002
1057	0.002
1057	0.002
1058	0.002
1058	0.002
1058	0.002
1059	0.001
1059	0.001
1060	0
1060	0
1061	-0
1061	0
1061	0
1062	-0
1062	-0
1063	-0.001
1063	-0.001
1063	-0.002
1064	-0.002
1064	-0.002
1065	-0.002
1065	-0.003
1066	-0.004
1066	-0.004
1066	-0.005
1067	-0.006
1067	-0.006
1068	-0.007
1068	-0.008
1068	-0.008
1069	-0.009
1069	-0.01
1070	-0.01
1070	-0.011
1071	-0.011
1071	-0.011
1071	-0.012
1072	-0.011
1072	-0.011
1073	-0.011
1073	-0.011
1073	-0.011
1074	-0.01
1074	-0.01
1075	-0.01
1075	-0.01
1076	-0.011
1076	-0.011
1076	-0.012
1077	-0.013
1077	-0.014
1078	-0.015
1078	-0.015
1078	-0.016
1079	-0.017
1079	-0.017
1080	-0.018
1080	-0.019
1080	-0.021
1081	-0.021
1081	-0.022
1082	-0.023
1082	-0.024
1083	-0.026
1083	-0.027
1083	-0.028
1084	-0.03
1084	-0.03
1085	-0.032
1085	-0.032
1085	-0.033
1086	-0.033
1086	-0.035
1087	-0.035
1087	-0.036
1088	-0.037
1088	-0.038
1088	-0.039
1089	-0.04
1089	-0.041
1090	-0.043
1090	-0.043
1090	-0.045
1091	-0.046
1091	-0.046
1092	-0.047
1092	-0.046
1092	-0.048
1093	-0.048
1093	-0.048
1094	-0.049
1094	-0.049
1095	-0.05
1095	-0.05
1095	-0.051
1096	-0.052
1096	-0.054
1097	-0.055
1097	-0.056
1097	-0.057
1098	-0.059
1098	-0.061
1099	-0.063
1099	-0.064
1100	-0.066
1100	-0.069
1100	-0.072
1101	-0.075
1101	-0.077
1102	-0.079
1102	-0.082
1102	-0.084
1103	-0.086
1103	-0.089
1104	-0.092
1104	-0.094
1104	-0.096
1105	-0.099
1105	-0.101
1106	-0.107
1106	-0.109
1107	-0.115
1107	-0.119
1107	-0.124
1108	-0.126
1108	-0.128
1109	-0.132
1109	-0.137
1109	-0.14
1110	-0.143
1110	-0.146
1111	-0.156
1111	-0.151
