Data from 3.4A_17C_Absorbance__224__01181.txt Node

Date: Tue Jun 20 15:45:55 CEST 2023
User: Marek
Spectrometer: MAYP115816
Trigger mode: 0
Integration Time (sec): 2.200000E-1
Scans to average: 10
Electric dark correction enabled: true
Nonlinearity correction enabled: true
Boxcar width: 5
XAxis mode: Wavelengths
Number of Pixels in Spectrum: 2068
>>>>>Begin Spectral Data<<<<<
199	-0.768
199	-0.747
200	-0.711
200	-0.658
201	-0.629
201	-0.617
202	-0.598
202	-0.59
203	-0.588
203	-0.581
204	-0.561
204	-0.544
205	-0.521
205	-0.509
205	-0.516
206	-0.519
206	-0.514
207	-0.508
207	-0.513
208	-0.515
208	-0.519
209	-0.52
209	-0.524
210	-0.535
210	-0.543
211	-0.537
211	-0.542
212	-0.551
212	-0.558
213	-0.554
213	-0.549
213	-0.547
214	-0.556
214	-0.56
215	-0.558
215	-0.564
216	-0.573
216	-0.576
217	-0.575
217	-0.576
218	-0.585
218	-0.588
219	-0.597
219	-0.597
220	-0.6
220	-0.607
221	-0.607
221	-0.607
221	-0.601
222	-0.6
222	-0.597
223	-0.593
223	-0.595
224	-0.593
224	-0.592
225	-0.588
225	-0.588
226	-0.587
226	-0.585
227	-0.591
227	-0.6
228	-0.605
228	-0.613
229	-0.618
229	-0.617
229	-0.617
230	-0.613
230	-0.612
231	-0.611
231	-0.607
232	-0.613
232	-0.608
233	-0.608
233	-0.597
234	-0.596
234	-0.59
235	-0.594
235	-0.606
236	-0.612
236	-0.613
236	-0.612
237	-0.61
237	-0.611
238	-0.61
238	-0.613
239	-0.616
239	-0.626
240	-0.619
240	-0.615
241	-0.608
241	-0.61
242	-0.613
242	-0.62
243	-0.62
243	-0.623
243	-0.628
244	-0.623
244	-0.624
245	-0.628
245	-0.633
246	-0.645
246	-0.65
247	-0.658
247	-0.644
248	-0.642
248	-0.644
249	-0.649
249	-0.651
250	-0.65
250	-0.657
250	-0.654
251	-0.654
251	-0.65
252	-0.65
252	-0.663
253	-0.659
253	-0.672
254	-0.677
254	-0.679
255	-0.689
255	-0.689
256	-0.691
256	-0.704
257	-0.715
257	-0.713
258	-0.712
258	-0.72
258	-0.717
259	-0.709
259	-0.726
260	-0.724
260	-0.713
261	-0.723
261	-0.709
262	-0.713
262	-0.71
263	-0.703
263	-0.708
264	-0.715
264	-0.716
265	-0.708
265	-0.712
265	-0.72
266	-0.712
266	-0.712
267	-0.711
267	-0.727
268	-0.735
268	-0.73
269	-0.724
269	-0.738
270	-0.741
270	-0.74
271	-0.754
271	-0.764
272	-0.766
272	-0.77
272	-0.763
273	-0.772
273	-0.784
274	-0.776
274	-0.77
275	-0.767
275	-0.754
276	-0.758
276	-0.765
277	-0.765
277	-0.761
278	-0.766
278	-0.768
278	-0.756
279	-0.764
279	-0.778
280	-0.782
280	-0.792
281	-0.783
281	-0.776
282	-0.781
282	-0.774
283	-0.767
283	-0.78
284	-0.794
284	-0.803
285	-0.784
285	-0.791
285	-0.783
286	-0.791
286	-0.805
287	-0.801
287	-0.802
288	-0.803
288	-0.784
289	-0.782
289	-0.788
290	-0.797
290	-0.784
291	-0.787
291	-0.783
292	-0.764
292	-0.763
292	-0.767
293	-0.753
293	-0.749
294	-0.749
294	-0.737
295	-0.718
295	-0.732
296	-0.745
296	-0.742
297	-0.732
297	-0.736
298	-0.732
298	-0.751
298	-0.754
299	-0.734
299	-0.727
300	-0.722
300	-0.701
301	-0.68
301	-0.681
302	-0.69
302	-0.674
303	-0.667
303	-0.654
304	-0.638
304	-0.643
305	-0.637
305	-0.648
305	-0.663
306	-0.648
306	-0.646
307	-0.636
307	-0.648
308	-0.65
308	-0.645
309	-0.648
309	-0.643
310	-0.641
310	-0.634
311	-0.62
311	-0.64
311	-0.628
312	-0.627
312	-0.616
313	-0.608
313	-0.611
314	-0.617
314	-0.615
315	-0.612
315	-0.607
316	-0.602
316	-0.593
317	-0.587
317	-0.583
318	-0.576
318	-0.574
318	-0.563
319	-0.551
319	-0.544
320	-0.543
320	-0.539
321	-0.533
321	-0.53
322	-0.524
322	-0.517
323	-0.515
323	-0.506
324	-0.505
324	-0.494
324	-0.481
325	-0.465
325	-0.448
326	-0.44
326	-0.415
327	-0.399
327	-0.377
328	-0.345
328	-0.322
329	-0.292
329	-0.262
330	-0.236
330	-0.2
330	-0.163
331	-0.126
331	-0.094
332	-0.06
332	-0.027
333	0.003
333	0.037
334	0.067
334	0.093
335	0.121
335	0.143
336	0.165
336	0.187
336	0.205
337	0.223
337	0.241
338	0.254
338	0.266
339	0.28
339	0.291
340	0.3
340	0.308
341	0.315
341	0.322
342	0.329
342	0.335
342	0.34
343	0.344
343	0.349
344	0.352
344	0.355
345	0.358
345	0.361
346	0.363
346	0.365
347	0.366
347	0.367
348	0.368
348	0.37
348	0.371
349	0.372
349	0.373
350	0.373
350	0.374
351	0.375
351	0.375
352	0.375
352	0.376
353	0.376
353	0.377
354	0.377
354	0.377
354	0.377
355	0.377
355	0.376
356	0.376
356	0.376
357	0.376
357	0.376
358	0.376
358	0.376
359	0.376
359	0.376
360	0.376
360	0.376
360	0.376
361	0.376
361	0.376
362	0.376
362	0.376
363	0.376
363	0.376
364	0.376
364	0.376
365	0.375
365	0.375
366	0.375
366	0.375
366	0.375
367	0.375
367	0.374
368	0.374
368	0.373
369	0.373
369	0.373
370	0.373
370	0.372
371	0.372
371	0.372
372	0.372
372	0.371
372	0.371
373	0.371
373	0.371
374	0.37
374	0.37
375	0.37
375	0.369
376	0.369
376	0.369
377	0.369
377	0.368
378	0.368
378	0.367
378	0.367
379	0.367
379	0.366
380	0.366
380	0.366
381	0.366
381	0.365
382	0.365
382	0.364
383	0.364
383	0.364
383	0.364
384	0.363
384	0.363
385	0.362
385	0.362
386	0.362
386	0.361
387	0.361
387	0.36
388	0.36
388	0.359
389	0.359
389	0.359
389	0.359
390	0.359
390	0.358
391	0.358
391	0.358
392	0.358
392	0.357
393	0.357
393	0.357
394	0.356
394	0.356
394	0.355
395	0.355
395	0.354
396	0.354
396	0.354
397	0.353
397	0.352
398	0.352
398	0.351
399	0.351
399	0.351
400	0.35
400	0.35
400	0.35
401	0.35
401	0.349
402	0.349
402	0.349
403	0.348
403	0.348
404	0.347
404	0.347
405	0.346
405	0.346
405	0.345
406	0.345
406	0.345
407	0.345
407	0.345
408	0.344
408	0.344
409	0.344
409	0.344
410	0.344
410	0.344
411	0.344
411	0.343
411	0.343
412	0.342
412	0.342
413	0.341
413	0.341
414	0.341
414	0.34
415	0.34
415	0.34
416	0.34
416	0.34
416	0.339
417	0.339
417	0.339
418	0.339
418	0.339
419	0.339
419	0.339
420	0.339
420	0.339
421	0.338
421	0.338
421	0.338
422	0.338
422	0.338
423	0.338
423	0.337
424	0.337
424	0.337
425	0.336
425	0.336
426	0.336
426	0.336
427	0.336
427	0.336
427	0.336
428	0.336
428	0.335
429	0.335
429	0.335
430	0.334
430	0.334
431	0.334
431	0.333
432	0.333
432	0.333
432	0.332
433	0.332
433	0.332
434	0.333
434	0.333
435	0.333
435	0.333
436	0.333
436	0.334
437	0.334
437	0.334
437	0.334
438	0.334
438	0.334
439	0.333
439	0.333
440	0.333
440	0.333
441	0.333
441	0.332
442	0.332
442	0.332
442	0.332
443	0.332
443	0.332
444	0.332
444	0.332
445	0.333
445	0.333
446	0.332
446	0.333
447	0.333
447	0.333
447	0.333
448	0.333
448	0.332
449	0.332
449	0.332
450	0.332
450	0.333
451	0.333
451	0.332
452	0.332
452	0.332
452	0.333
453	0.333
453	0.333
454	0.333
454	0.333
455	0.334
455	0.334
456	0.334
456	0.334
457	0.335
457	0.335
458	0.335
458	0.335
458	0.335
459	0.336
459	0.335
460	0.335
460	0.335
461	0.335
461	0.336
462	0.336
462	0.337
463	0.338
463	0.338
463	0.339
464	0.339
464	0.339
465	0.34
465	0.34
466	0.341
466	0.341
467	0.342
467	0.342
467	0.343
468	0.343
468	0.343
469	0.344
469	0.344
470	0.345
470	0.346
471	0.346
471	0.346
472	0.347
472	0.348
472	0.348
473	0.349
473	0.35
474	0.351
474	0.352
475	0.353
475	0.353
476	0.354
476	0.355
477	0.356
477	0.357
477	0.358
478	0.359
478	0.36
479	0.361
479	0.363
480	0.364
480	0.365
481	0.366
481	0.367
482	0.369
482	0.37
482	0.372
483	0.374
483	0.376
484	0.377
484	0.378
485	0.379
485	0.381
486	0.382
486	0.384
487	0.385
487	0.387
487	0.389
488	0.39
488	0.391
489	0.393
489	0.396
490	0.398
490	0.4
491	0.402
491	0.405
492	0.406
492	0.408
492	0.41
493	0.412
493	0.414
494	0.417
494	0.42
495	0.422
495	0.424
496	0.426
496	0.428
496	0.431
497	0.434
497	0.437
498	0.439
498	0.442
499	0.445
499	0.448
500	0.452
500	0.455
501	0.459
501	0.462
501	0.464
502	0.467
502	0.47
503	0.473
503	0.476
504	0.479
504	0.482
505	0.485
505	0.488
506	0.491
506	0.495
506	0.498
507	0.502
507	0.505
508	0.509
508	0.512
509	0.516
509	0.519
510	0.522
510	0.525
511	0.528
511	0.531
511	0.533
512	0.536
512	0.539
513	0.541
513	0.544
514	0.548
514	0.551
515	0.554
515	0.556
515	0.559
516	0.562
516	0.565
517	0.567
517	0.57
518	0.572
518	0.574
519	0.575
519	0.577
520	0.579
520	0.581
520	0.583
521	0.584
521	0.586
522	0.588
522	0.589
523	0.591
523	0.593
524	0.593
524	0.595
524	0.596
525	0.596
525	0.597
526	0.598
526	0.598
527	0.599
527	0.599
528	0.599
528	0.599
529	0.598
529	0.598
529	0.598
530	0.598
530	0.597
531	0.597
531	0.596
532	0.595
532	0.594
533	0.593
533	0.592
533	0.591
534	0.59
534	0.588
535	0.587
535	0.585
536	0.584
536	0.581
537	0.58
537	0.578
538	0.575
538	0.573
538	0.57
539	0.568
539	0.566
540	0.564
540	0.561
541	0.558
541	0.556
542	0.553
542	0.55
542	0.547
543	0.543
543	0.54
544	0.537
544	0.534
545	0.531
545	0.528
546	0.524
546	0.521
547	0.517
547	0.513
547	0.509
548	0.506
548	0.502
549	0.498
549	0.495
550	0.491
550	0.487
551	0.483
551	0.479
551	0.475
552	0.471
552	0.467
553	0.464
553	0.46
554	0.456
554	0.452
555	0.448
555	0.444
556	0.44
556	0.437
556	0.433
557	0.43
557	0.426
558	0.422
558	0.418
559	0.415
559	0.411
560	0.407
560	0.403
560	0.4
561	0.397
561	0.394
562	0.391
562	0.388
563	0.384
563	0.381
564	0.378
564	0.375
564	0.372
565	0.37
565	0.367
566	0.364
566	0.361
567	0.358
567	0.355
568	0.351
568	0.348
568	0.344
569	0.341
569	0.337
570	0.333
570	0.329
571	0.327
571	0.323
572	0.32
572	0.317
573	0.314
573	0.31
573	0.307
574	0.305
574	0.303
575	0.3
575	0.299
576	0.297
576	0.294
577	0.291
577	0.289
577	0.288
578	0.286
578	0.285
579	0.284
579	0.282
580	0.279
580	0.275
581	0.272
581	0.27
581	0.268
582	0.267
582	0.265
583	0.263
583	0.26
584	0.256
584	0.252
585	0.25
585	0.249
585	0.247
586	0.245
586	0.242
587	0.24
587	0.237
588	0.235
588	0.233
589	0.232
589	0.231
590	0.229
590	0.227
590	0.227
591	0.226
591	0.224
592	0.222
592	0.22
593	0.218
593	0.217
594	0.215
594	0.213
594	0.211
595	0.21
595	0.208
596	0.206
596	0.206
597	0.206
597	0.205
598	0.203
598	0.202
598	0.201
599	0.2
599	0.199
600	0.197
600	0.196
601	0.195
601	0.194
602	0.191
602	0.19
602	0.189
603	0.188
603	0.187
604	0.186
604	0.185
605	0.185
605	0.184
606	0.182
606	0.18
606	0.179
607	0.178
607	0.177
608	0.176
608	0.174
609	0.172
609	0.172
610	0.17
610	0.168
610	0.168
611	0.167
611	0.167
612	0.166
612	0.166
613	0.166
613	0.165
614	0.164
614	0.162
614	0.161
615	0.16
615	0.159
616	0.158
616	0.157
617	0.156
617	0.155
618	0.153
618	0.152
618	0.151
619	0.15
619	0.15
620	0.15
620	0.149
621	0.147
621	0.146
622	0.145
622	0.144
622	0.143
623	0.142
623	0.141
624	0.141
624	0.14
625	0.139
625	0.138
626	0.137
626	0.135
626	0.135
627	0.134
627	0.132
628	0.131
628	0.129
629	0.128
629	0.126
630	0.124
630	0.123
630	0.122
631	0.12
631	0.118
632	0.116
632	0.115
633	0.113
633	0.111
634	0.11
634	0.109
634	0.107
635	0.105
635	0.103
636	0.102
636	0.1
637	0.098
637	0.096
638	0.094
638	0.091
638	0.089
639	0.086
639	0.083
640	0.081
640	0.078
641	0.075
641	0.072
642	0.07
642	0.067
642	0.064
643	0.06
643	0.056
644	0.053
644	0.049
645	0.045
645	0.041
646	0.036
646	0.031
646	0.025
647	0.02
647	0.015
648	0.009
648	0.004
649	-0.002
649	-0.006
650	-0.012
650	-0.018
650	-0.024
651	-0.031
651	-0.04
652	-0.05
652	-0.061
653	-0.07
653	-0.078
653	-0.073
654	-0.059
654	-0.056
655	-0.06
655	-0.064
656	-0.069
656	-0.073
657	-0.077
657	-0.08
657	-0.086
658	-0.092
658	-0.118
659	-0.188
659	-0.26
660	-0.293
660	-0.315
661	-0.338
661	-0.363
661	-0.389
662	-0.413
662	-0.437
663	-0.466
663	-0.499
664	-0.529
664	-0.564
665	-0.602
665	-0.641
665	-0.678
666	-0.722
666	-0.769
667	-0.816
667	-0.872
668	-0.925
668	-0.989
669	-1.052
669	-1.12
669	-1.196
670	-1.279
670	-1.407
671	-1.637
671	-2.023
672	-2.287
672	-2.458
672	-2.583
673	-2.682
673	-2.764
674	-2.793
674	-2.804
675	-2.818
675	-2.822
676	-2.815
676	-2.761
676	-2.68
677	-2.577
677	-2.444
678	-2.227
678	-1.736
679	-1.477
679	-1.357
680	-1.272
680	-1.208
680	-1.154
681	-1.117
681	-1.074
682	-1.041
682	-1.004
683	-0.969
683	-0.953
684	-0.931
684	-0.918
684	-0.902
685	-0.886
685	-0.881
686	-0.863
686	-0.855
687	-0.848
687	-0.843
687	-0.846
688	-0.832
688	-0.828
689	-0.834
689	-0.832
690	-0.822
690	-0.812
691	-0.811
691	-0.813
691	-0.814
692	-0.812
692	-0.81
693	-0.818
693	-0.831
694	-0.811
694	-0.811
695	-0.814
695	-0.81
695	-0.818
696	-0.825
696	-0.818
697	-0.813
697	-0.81
698	-0.806
698	-0.797
698	-0.811
699	-0.811
699	-0.813
700	-0.833
700	-0.829
701	-0.818
701	-0.813
702	-0.814
702	-0.812
702	-0.813
703	-0.806
703	-0.795
704	-0.801
704	-0.804
705	-0.793
705	-0.792
705	-0.787
706	-0.781
706	-0.779
707	-0.792
707	-0.795
708	-0.792
708	-0.789
709	-0.792
709	-0.789
709	-0.784
710	-0.791
710	-0.794
711	-0.792
711	-0.792
712	-0.784
712	-0.783
713	-0.789
713	-0.789
713	-0.771
714	-0.773
714	-0.774
715	-0.768
715	-0.777
716	-0.795
716	-0.802
716	-0.801
717	-0.808
717	-0.8
718	-0.796
718	-0.796
719	-0.791
719	-0.784
720	-0.779
720	-0.775
720	-0.77
721	-0.761
721	-0.765
722	-0.762
722	-0.758
723	-0.775
723	-0.789
723	-0.797
724	-0.797
724	-0.801
725	-0.795
725	-0.797
726	-0.802
726	-0.794
727	-0.796
727	-0.802
727	-0.792
728	-0.777
728	-0.775
729	-0.777
729	-0.782
730	-0.787
730	-0.779
730	-0.783
731	-0.787
731	-0.787
732	-0.789
732	-0.785
733	-0.802
733	-0.807
734	-0.814
734	-0.804
734	-0.787
735	-0.778
735	-0.774
736	-0.772
736	-0.766
737	-0.766
737	-0.756
737	-0.747
738	-0.734
738	-0.725
739	-0.729
739	-0.731
740	-0.745
740	-0.746
741	-0.757
741	-0.769
741	-0.777
742	-0.784
742	-0.799
743	-0.806
743	-0.808
744	-0.811
744	-0.818
744	-0.81
745	-0.817
745	-0.805
746	-0.799
746	-0.791
747	-0.796
747	-0.786
748	-0.787
748	-0.79
748	-0.79
749	-0.784
749	-0.792
750	-0.782
750	-0.783
751	-0.783
751	-0.781
751	-0.791
752	-0.795
752	-0.798
753	-0.802
753	-0.795
754	-0.812
754	-0.811
754	-0.822
755	-0.82
755	-0.813
756	-0.816
756	-0.801
757	-0.793
757	-0.78
758	-0.78
758	-0.78
758	-0.775
759	-0.779
759	-0.777
760	-0.777
760	-0.78
761	-0.772
761	-0.777
761	-0.78
762	-0.787
762	-0.789
763	-0.788
763	-0.793
764	-0.792
764	-0.788
764	-0.795
765	-0.792
765	-0.799
766	-0.802
766	-0.804
767	-0.817
767	-0.811
768	-0.81
768	-0.802
768	-0.799
769	-0.803
769	-0.809
770	-0.82
770	-0.824
771	-0.82
771	-0.818
771	-0.824
772	-0.827
772	-0.848
773	-0.848
773	-0.848
774	-0.844
774	-0.826
775	-0.813
775	-0.813
775	-0.818
776	-0.826
776	-0.823
777	-0.823
777	-0.805
778	-0.815
778	-0.823
778	-0.825
779	-0.835
779	-0.85
780	-0.845
780	-0.852
781	-0.843
781	-0.832
781	-0.846
782	-0.866
782	-0.871
783	-0.87
783	-0.877
784	-0.879
784	-0.874
784	-0.897
785	-0.891
785	-0.903
786	-0.908
786	-0.899
787	-0.89
787	-0.898
788	-0.889
788	-0.883
788	-0.884
789	-0.883
789	-0.869
790	-0.869
790	-0.854
791	-0.861
791	-0.858
791	-0.852
792	-0.844
792	-0.849
793	-0.852
793	-0.839
794	-0.832
794	-0.825
794	-0.834
795	-0.856
795	-0.843
796	-0.846
796	-0.843
797	-0.836
797	-0.828
797	-0.823
798	-0.845
798	-0.85
799	-0.85
799	-0.836
800	-0.831
800	-0.839
801	-0.838
801	-0.841
801	-0.84
802	-0.836
802	-0.836
803	-0.83
803	-0.822
804	-0.827
804	-0.833
804	-0.815
805	-0.795
805	-0.787
806	-0.788
806	-0.782
807	-0.785
807	-0.784
807	-0.767
808	-0.765
808	-0.758
809	-0.754
809	-0.756
810	-0.759
810	-0.756
810	-0.753
811	-0.758
811	-0.748
812	-0.743
812	-0.745
813	-0.749
813	-0.75
813	-0.746
814	-0.745
814	-0.75
815	-0.741
815	-0.737
816	-0.731
816	-0.749
817	-0.761
817	-0.764
817	-0.772
818	-0.767
818	-0.763
819	-0.774
819	-0.772
820	-0.784
820	-0.782
820	-0.781
821	-0.775
821	-0.77
822	-0.769
822	-0.759
823	-0.769
823	-0.769
823	-0.764
824	-0.763
824	-0.773
825	-0.772
825	-0.769
826	-0.767
826	-0.762
826	-0.761
827	-0.759
827	-0.749
828	-0.748
828	-0.743
829	-0.738
829	-0.723
829	-0.72
830	-0.719
830	-0.704
831	-0.699
831	-0.689
832	-0.681
832	-0.675
832	-0.669
833	-0.668
833	-0.67
834	-0.666
834	-0.661
835	-0.654
835	-0.656
835	-0.65
836	-0.645
836	-0.641
837	-0.633
837	-0.623
838	-0.611
838	-0.596
839	-0.59
839	-0.579
839	-0.569
840	-0.565
840	-0.556
841	-0.546
841	-0.541
842	-0.532
842	-0.521
842	-0.518
843	-0.514
843	-0.509
844	-0.506
844	-0.496
845	-0.482
845	-0.473
845	-0.461
846	-0.45
846	-0.439
847	-0.43
847	-0.417
848	-0.404
848	-0.388
848	-0.376
849	-0.364
849	-0.354
850	-0.343
850	-0.335
851	-0.322
851	-0.307
851	-0.297
852	-0.282
852	-0.27
853	-0.262
853	-0.252
854	-0.24
854	-0.23
854	-0.219
855	-0.209
855	-0.202
856	-0.195
856	-0.188
857	-0.181
857	-0.173
857	-0.162
858	-0.152
858	-0.147
859	-0.138
859	-0.128
860	-0.118
860	-0.104
860	-0.094
861	-0.085
861	-0.076
862	-0.069
862	-0.062
863	-0.055
863	-0.047
863	-0.041
864	-0.036
864	-0.03
865	-0.025
865	-0.021
866	-0.016
866	-0.012
866	-0.007
867	-0.003
867	0.002
868	0.005
868	0.009
869	0.014
869	0.016
869	0.019
870	0.021
870	0.023
871	0.024
871	0.025
872	0.025
872	0.026
872	0.026
873	0.026
873	0.026
874	0.026
874	0.026
875	0.025
875	0.025
875	0.025
876	0.025
876	0.025
877	0.024
877	0.024
878	0.024
878	0.023
878	0.023
879	0.022
879	0.022
880	0.022
880	0.021
881	0.02
881	0.019
881	0.018
882	0.017
882	0.016
883	0.016
883	0.015
884	0.016
884	0.016
884	0.016
885	0.016
885	0.016
886	0.016
886	0.016
887	0.016
887	0.016
887	0.015
888	0.015
888	0.014
889	0.014
889	0.013
890	0.012
890	0.011
890	0.01
891	0.01
891	0.01
892	0.01
892	0.011
893	0.011
893	0.011
893	0.011
894	0.012
894	0.012
895	0.012
895	0.012
895	0.012
896	0.013
896	0.013
897	0.013
897	0.014
898	0.014
898	0.015
898	0.015
899	0.016
899	0.016
900	0.017
900	0.017
901	0.017
901	0.017
901	0.017
902	0.017
902	0.017
903	0.017
903	0.016
904	0.015
904	0.015
904	0.014
905	0.014
905	0.014
906	0.015
906	0.015
907	0.016
907	0.016
907	0.016
908	0.017
908	0.019
909	0.02
909	0.021
910	0.021
910	0.022
910	0.023
911	0.024
911	0.025
912	0.027
912	0.028
913	0.029
913	0.03
913	0.031
914	0.031
914	0.031
915	0.031
915	0.031
916	0.03
916	0.03
916	0.029
917	0.028
917	0.027
918	0.026
918	0.025
918	0.025
919	0.024
919	0.023
920	0.023
920	0.022
921	0.022
921	0.022
921	0.022
922	0.021
922	0.021
923	0.021
923	0.021
924	0.02
924	0.02
924	0.02
925	0.02
925	0.02
926	0.02
926	0.019
927	0.019
927	0.019
927	0.019
928	0.019
928	0.02
929	0.02
929	0.021
930	0.021
930	0.022
930	0.022
931	0.023
931	0.023
932	0.024
932	0.024
933	0.024
933	0.024
933	0.023
934	0.022
934	0.021
935	0.021
935	0.019
935	0.018
936	0.017
936	0.015
937	0.014
937	0.013
938	0.012
938	0.011
938	0.01
939	0.01
939	0.009
940	0.009
940	0.009
941	0.008
941	0.008
941	0.008
942	0.007
942	0.007
943	0.007
943	0.007
944	0.007
944	0.006
944	0.006
945	0.007
945	0.007
946	0.008
946	0.008
946	0.008
947	0.008
947	0.008
948	0.009
948	0.009
949	0.008
949	0.009
949	0.009
950	0.009
950	0.009
951	0.01
951	0.01
952	0.01
952	0.01
952	0.011
953	0.011
953	0.012
954	0.012
954	0.012
955	0.012
955	0.012
955	0.012
956	0.012
956	0.012
957	0.011
957	0.011
957	0.01
958	0.01
958	0.01
959	0.01
959	0.01
960	0.01
960	0.01
960	0.01
961	0.01
961	0.011
962	0.011
962	0.012
963	0.012
963	0.012
963	0.013
964	0.013
964	0.013
965	0.013
965	0.013
966	0.013
966	0.013
966	0.013
967	0.013
967	0.013
968	0.012
968	0.012
968	0.012
969	0.012
969	0.011
970	0.01
970	0.009
971	0.009
971	0.008
971	0.008
972	0.008
972	0.008
973	0.008
973	0.008
974	0.008
974	0.008
974	0.009
975	0.01
975	0.011
976	0.011
976	0.012
976	0.012
977	0.012
977	0.012
978	0.012
978	0.011
979	0.011
979	0.01
979	0.009
980	0.008
980	0.007
981	0.006
981	0.006
982	0.005
982	0.005
982	0.005
983	0.005
983	0.004
984	0.004
984	0.004
984	0.004
985	0.004
985	0.004
986	0.003
986	0.002
987	0.002
987	0.001
987	0.001
988	0
988	-0
989	-0
989	-0.001
990	-0.001
990	-0.002
990	-0.002
991	-0.002
991	-0.001
992	-0.001
992	-0.001
992	-0.001
993	-0.001
993	-0.001
994	-0.001
994	-0.001
995	-0.001
995	-0.002
995	-0.002
996	-0.002
996	-0.003
997	-0.004
997	-0.004
997	-0.004
998	-0.004
998	-0.004
999	-0.004
999	-0.004
1000	-0.004
1000	-0.005
1000	-0.005
1001	-0.005
1001	-0.004
1002	-0.004
1002	-0.004
1003	-0.004
1003	-0.005
1003	-0.005
1004	-0.006
1004	-0.007
1005	-0.007
1005	-0.008
1005	-0.009
1006	-0.01
1006	-0.011
1007	-0.011
1007	-0.012
1008	-0.012
1008	-0.012
1008	-0.012
1009	-0.011
1009	-0.011
1010	-0.01
1010	-0.01
1010	-0.009
1011	-0.009
1011	-0.009
1012	-0.008
1012	-0.007
1013	-0.007
1013	-0.007
1013	-0.007
1014	-0.007
1014	-0.007
1015	-0.007
1015	-0.006
1016	-0.006
1016	-0.006
1016	-0.006
1017	-0.006
1017	-0.007
1018	-0.006
1018	-0.006
1018	-0.006
1019	-0.006
1019	-0.007
1020	-0.007
1020	-0.007
1021	-0.007
1021	-0.008
1021	-0.008
1022	-0.009
1022	-0.009
1023	-0.009
1023	-0.01
1023	-0.01
1024	-0.01
1024	-0.011
1025	-0.011
1025	-0.011
1026	-0.011
1026	-0.011
1026	-0.011
1027	-0.011
1027	-0.011
1028	-0.011
1028	-0.011
1028	-0.01
1029	-0.01
1029	-0.01
1030	-0.011
1030	-0.011
1031	-0.011
1031	-0.011
1031	-0.011
1032	-0.011
1032	-0.011
1033	-0.012
1033	-0.012
1033	-0.012
1034	-0.012
1034	-0.012
1035	-0.012
1035	-0.013
1036	-0.013
1036	-0.013
1036	-0.014
1037	-0.014
1037	-0.013
1038	-0.013
1038	-0.012
1039	-0.012
1039	-0.011
1039	-0.01
1040	-0.01
1040	-0.009
1041	-0.009
1041	-0.009
1041	-0.009
1042	-0.009
1042	-0.009
1043	-0.01
1043	-0.01
1044	-0.011
1044	-0.012
1044	-0.013
1045	-0.014
1045	-0.014
1046	-0.015
1046	-0.016
1046	-0.016
1047	-0.017
1047	-0.017
1048	-0.017
1048	-0.018
1049	-0.018
1049	-0.018
1049	-0.019
1050	-0.019
1050	-0.02
1051	-0.021
1051	-0.022
1051	-0.022
1052	-0.023
1052	-0.024
1053	-0.024
1053	-0.025
1053	-0.025
1054	-0.025
1054	-0.025
1055	-0.025
1055	-0.025
1056	-0.025
1056	-0.025
1056	-0.025
1057	-0.025
1057	-0.025
1058	-0.025
1058	-0.026
1058	-0.025
1059	-0.026
1059	-0.026
1060	-0.026
1060	-0.026
1061	-0.026
1061	-0.026
1061	-0.025
1062	-0.025
1062	-0.026
1063	-0.025
1063	-0.026
1063	-0.026
1064	-0.026
1064	-0.026
1065	-0.026
1065	-0.027
1066	-0.027
1066	-0.028
1066	-0.028
1067	-0.029
1067	-0.03
1068	-0.03
1068	-0.03
1068	-0.031
1069	-0.032
1069	-0.032
1070	-0.032
1070	-0.033
1071	-0.033
1071	-0.033
1071	-0.033
1072	-0.033
1072	-0.032
1073	-0.032
1073	-0.032
1073	-0.031
1074	-0.031
1074	-0.03
1075	-0.031
1075	-0.031
1076	-0.032
1076	-0.032
1076	-0.033
1077	-0.034
1077	-0.035
1078	-0.036
1078	-0.037
1078	-0.037
1079	-0.038
1079	-0.038
1080	-0.039
1080	-0.04
1080	-0.041
1081	-0.041
1081	-0.042
1082	-0.042
1082	-0.043
1083	-0.044
1083	-0.045
1083	-0.045
1084	-0.047
1084	-0.047
1085	-0.048
1085	-0.048
1085	-0.049
1086	-0.05
1086	-0.05
1087	-0.051
1087	-0.051
1088	-0.052
1088	-0.053
1088	-0.053
1089	-0.055
1089	-0.056
1090	-0.057
1090	-0.058
1090	-0.059
1091	-0.061
1091	-0.061
1092	-0.062
1092	-0.062
1092	-0.063
1093	-0.064
1093	-0.065
1094	-0.065
1094	-0.066
1095	-0.067
1095	-0.068
1095	-0.068
1096	-0.069
1096	-0.071
1097	-0.072
1097	-0.074
1097	-0.075
1098	-0.077
1098	-0.079
1099	-0.08
1099	-0.081
1100	-0.083
1100	-0.085
1100	-0.088
1101	-0.091
1101	-0.093
1102	-0.094
1102	-0.097
1102	-0.098
1103	-0.101
1103	-0.104
1104	-0.107
1104	-0.11
1104	-0.112
1105	-0.114
1105	-0.117
1106	-0.123
1106	-0.125
1107	-0.13
1107	-0.135
1107	-0.14
1108	-0.143
1108	-0.144
1109	-0.148
1109	-0.153
1109	-0.157
1110	-0.159
1110	-0.16
1111	-0.171
1111	-0.17
