Data from 3.4A_17C_Absorbance__284__01241.txt Node

Date: Tue Jun 20 15:48:06 CEST 2023
User: Marek
Spectrometer: MAYP115816
Trigger mode: 0
Integration Time (sec): 2.200000E-1
Scans to average: 10
Electric dark correction enabled: true
Nonlinearity correction enabled: true
Boxcar width: 5
XAxis mode: Wavelengths
Number of Pixels in Spectrum: 2068
>>>>>Begin Spectral Data<<<<<
199	-0.758
199	-0.744
200	-0.704
200	-0.649
201	-0.62
201	-0.613
202	-0.594
202	-0.587
203	-0.587
203	-0.579
204	-0.559
204	-0.542
205	-0.517
205	-0.508
205	-0.518
206	-0.52
206	-0.515
207	-0.509
207	-0.515
208	-0.515
208	-0.519
209	-0.521
209	-0.529
210	-0.543
210	-0.55
211	-0.543
211	-0.547
212	-0.555
212	-0.563
213	-0.558
213	-0.555
213	-0.553
214	-0.56
214	-0.561
215	-0.555
215	-0.561
216	-0.571
216	-0.574
217	-0.572
217	-0.573
218	-0.581
218	-0.583
219	-0.591
219	-0.593
220	-0.596
220	-0.602
221	-0.604
221	-0.603
221	-0.595
222	-0.595
222	-0.592
223	-0.588
223	-0.59
224	-0.591
224	-0.589
225	-0.587
225	-0.589
226	-0.589
226	-0.59
227	-0.599
227	-0.61
228	-0.614
228	-0.622
229	-0.627
229	-0.623
229	-0.623
230	-0.618
230	-0.617
231	-0.613
231	-0.608
232	-0.609
232	-0.603
233	-0.603
233	-0.59
234	-0.592
234	-0.589
235	-0.592
235	-0.604
236	-0.61
236	-0.612
236	-0.612
237	-0.61
237	-0.612
238	-0.613
238	-0.613
239	-0.613
239	-0.622
240	-0.617
240	-0.611
241	-0.606
241	-0.609
242	-0.613
242	-0.621
243	-0.621
243	-0.623
243	-0.63
244	-0.628
244	-0.627
245	-0.628
245	-0.635
246	-0.645
246	-0.649
247	-0.657
247	-0.644
248	-0.642
248	-0.643
249	-0.649
249	-0.65
250	-0.651
250	-0.66
250	-0.656
251	-0.657
251	-0.652
252	-0.652
252	-0.662
253	-0.657
253	-0.67
254	-0.674
254	-0.676
255	-0.686
255	-0.683
256	-0.684
256	-0.695
257	-0.706
257	-0.702
258	-0.705
258	-0.713
258	-0.711
259	-0.705
259	-0.722
260	-0.721
260	-0.711
261	-0.722
261	-0.708
262	-0.713
262	-0.712
263	-0.701
263	-0.706
264	-0.715
264	-0.715
265	-0.707
265	-0.709
265	-0.718
266	-0.709
266	-0.71
267	-0.71
267	-0.725
268	-0.734
268	-0.728
269	-0.721
269	-0.735
270	-0.738
270	-0.739
271	-0.752
271	-0.764
272	-0.766
272	-0.77
272	-0.763
273	-0.773
273	-0.787
274	-0.78
274	-0.774
275	-0.771
275	-0.757
276	-0.76
276	-0.764
277	-0.765
277	-0.761
278	-0.766
278	-0.768
278	-0.755
279	-0.764
279	-0.778
280	-0.78
280	-0.791
281	-0.785
281	-0.776
282	-0.783
282	-0.778
283	-0.772
283	-0.786
284	-0.799
284	-0.807
285	-0.788
285	-0.794
285	-0.788
286	-0.793
286	-0.809
287	-0.805
287	-0.803
288	-0.802
288	-0.783
289	-0.783
289	-0.791
290	-0.8
290	-0.789
291	-0.791
291	-0.789
292	-0.77
292	-0.766
292	-0.769
293	-0.758
293	-0.754
294	-0.753
294	-0.74
295	-0.721
295	-0.732
296	-0.743
296	-0.737
297	-0.727
297	-0.733
298	-0.729
298	-0.744
298	-0.747
299	-0.727
299	-0.721
300	-0.718
300	-0.7
301	-0.682
301	-0.685
302	-0.695
302	-0.679
303	-0.672
303	-0.661
304	-0.646
304	-0.649
305	-0.64
305	-0.65
305	-0.667
306	-0.652
306	-0.652
307	-0.644
307	-0.654
308	-0.658
308	-0.654
309	-0.657
309	-0.651
310	-0.65
310	-0.644
311	-0.627
311	-0.647
311	-0.634
312	-0.629
312	-0.621
313	-0.612
313	-0.616
314	-0.621
314	-0.62
315	-0.616
315	-0.61
316	-0.606
316	-0.595
317	-0.588
317	-0.586
318	-0.577
318	-0.574
318	-0.562
319	-0.549
319	-0.54
320	-0.54
320	-0.539
321	-0.533
321	-0.534
322	-0.528
322	-0.521
323	-0.521
323	-0.513
324	-0.51
324	-0.5
324	-0.488
325	-0.47
325	-0.452
326	-0.443
326	-0.417
327	-0.402
327	-0.38
328	-0.349
328	-0.324
329	-0.297
329	-0.269
330	-0.243
330	-0.208
330	-0.172
331	-0.134
331	-0.1
332	-0.066
332	-0.034
333	-0.002
333	0.031
334	0.061
334	0.087
335	0.114
335	0.136
336	0.158
336	0.179
336	0.196
337	0.213
337	0.231
338	0.244
338	0.254
339	0.268
339	0.279
340	0.287
340	0.296
341	0.303
341	0.309
342	0.316
342	0.322
342	0.327
343	0.331
343	0.336
344	0.338
344	0.341
345	0.344
345	0.347
346	0.349
346	0.351
347	0.352
347	0.353
348	0.355
348	0.357
348	0.358
349	0.358
349	0.359
350	0.36
350	0.361
351	0.361
351	0.361
352	0.362
352	0.362
353	0.362
353	0.362
354	0.363
354	0.363
354	0.363
355	0.363
355	0.363
356	0.363
356	0.363
357	0.363
357	0.363
358	0.363
358	0.363
359	0.363
359	0.363
360	0.363
360	0.363
360	0.363
361	0.363
361	0.363
362	0.363
362	0.362
363	0.363
363	0.362
364	0.362
364	0.362
365	0.362
365	0.362
366	0.361
366	0.361
366	0.361
367	0.361
367	0.361
368	0.36
368	0.36
369	0.36
369	0.359
370	0.359
370	0.359
371	0.359
371	0.359
372	0.358
372	0.358
372	0.358
373	0.358
373	0.357
374	0.357
374	0.357
375	0.357
375	0.357
376	0.356
376	0.356
377	0.356
377	0.355
378	0.355
378	0.355
378	0.355
379	0.354
379	0.354
380	0.354
380	0.354
381	0.353
381	0.353
382	0.353
382	0.352
383	0.352
383	0.352
383	0.351
384	0.351
384	0.35
385	0.35
385	0.349
386	0.349
386	0.348
387	0.348
387	0.348
388	0.347
388	0.347
389	0.347
389	0.347
389	0.347
390	0.346
390	0.346
391	0.346
391	0.346
392	0.346
392	0.345
393	0.345
393	0.345
394	0.344
394	0.344
394	0.343
395	0.343
395	0.342
396	0.342
396	0.342
397	0.341
397	0.341
398	0.34
398	0.34
399	0.339
399	0.339
400	0.339
400	0.339
400	0.339
401	0.338
401	0.338
402	0.338
402	0.338
403	0.338
403	0.337
404	0.337
404	0.336
405	0.336
405	0.335
405	0.335
406	0.335
406	0.334
407	0.334
407	0.334
408	0.333
408	0.333
409	0.333
409	0.333
410	0.333
410	0.333
411	0.333
411	0.332
411	0.332
412	0.332
412	0.331
413	0.331
413	0.33
414	0.33
414	0.33
415	0.329
415	0.329
416	0.329
416	0.329
416	0.329
417	0.329
417	0.328
418	0.329
418	0.329
419	0.329
419	0.329
420	0.328
420	0.328
421	0.328
421	0.328
421	0.328
422	0.328
422	0.328
423	0.327
423	0.327
424	0.327
424	0.326
425	0.326
425	0.326
426	0.326
426	0.326
427	0.326
427	0.326
427	0.326
428	0.325
428	0.325
429	0.325
429	0.325
430	0.324
430	0.324
431	0.324
431	0.323
432	0.323
432	0.323
432	0.322
433	0.322
433	0.322
434	0.323
434	0.323
435	0.323
435	0.323
436	0.323
436	0.324
437	0.324
437	0.323
437	0.323
438	0.323
438	0.323
439	0.323
439	0.323
440	0.322
440	0.322
441	0.322
441	0.322
442	0.322
442	0.322
442	0.322
443	0.322
443	0.322
444	0.322
444	0.322
445	0.322
445	0.322
446	0.322
446	0.322
447	0.322
447	0.322
447	0.322
448	0.322
448	0.322
449	0.322
449	0.322
450	0.322
450	0.322
451	0.322
451	0.322
452	0.322
452	0.322
452	0.322
453	0.322
453	0.322
454	0.323
454	0.323
455	0.323
455	0.323
456	0.324
456	0.324
457	0.324
457	0.324
458	0.324
458	0.324
458	0.324
459	0.324
459	0.324
460	0.324
460	0.324
461	0.324
461	0.324
462	0.325
462	0.325
463	0.326
463	0.326
463	0.327
464	0.327
464	0.328
465	0.328
465	0.328
466	0.329
466	0.329
467	0.33
467	0.33
467	0.33
468	0.33
468	0.33
469	0.331
469	0.332
470	0.332
470	0.333
471	0.333
471	0.334
472	0.334
472	0.335
472	0.336
473	0.337
473	0.337
474	0.338
474	0.339
475	0.34
475	0.341
476	0.341
476	0.342
477	0.343
477	0.344
477	0.345
478	0.346
478	0.347
479	0.348
479	0.349
480	0.349
480	0.35
481	0.352
481	0.353
482	0.354
482	0.355
482	0.357
483	0.359
483	0.36
484	0.362
484	0.363
485	0.364
485	0.365
486	0.366
486	0.368
487	0.369
487	0.37
487	0.372
488	0.373
488	0.374
489	0.376
489	0.379
490	0.381
490	0.382
491	0.384
491	0.387
492	0.389
492	0.39
492	0.392
493	0.394
493	0.396
494	0.399
494	0.401
495	0.403
495	0.405
496	0.408
496	0.41
496	0.413
497	0.415
497	0.417
498	0.42
498	0.422
499	0.425
499	0.428
500	0.431
500	0.434
501	0.437
501	0.44
501	0.442
502	0.445
502	0.447
503	0.451
503	0.453
504	0.456
504	0.459
505	0.461
505	0.464
506	0.467
506	0.47
506	0.474
507	0.477
507	0.48
508	0.484
508	0.487
509	0.49
509	0.493
510	0.496
510	0.499
511	0.502
511	0.505
511	0.507
512	0.51
512	0.512
513	0.515
513	0.517
514	0.52
514	0.523
515	0.526
515	0.529
515	0.531
516	0.533
516	0.536
517	0.539
517	0.541
518	0.543
518	0.544
519	0.546
519	0.548
520	0.55
520	0.552
520	0.554
521	0.555
521	0.556
522	0.557
522	0.559
523	0.56
523	0.562
524	0.563
524	0.564
524	0.565
525	0.566
525	0.567
526	0.568
526	0.568
527	0.569
527	0.569
528	0.569
528	0.569
529	0.569
529	0.568
529	0.568
530	0.568
530	0.567
531	0.566
531	0.566
532	0.565
532	0.564
533	0.563
533	0.563
533	0.562
534	0.561
534	0.56
535	0.559
535	0.558
536	0.556
536	0.555
537	0.553
537	0.551
538	0.549
538	0.547
538	0.545
539	0.543
539	0.541
540	0.539
540	0.536
541	0.534
541	0.532
542	0.529
542	0.527
542	0.524
543	0.521
543	0.519
544	0.515
544	0.513
545	0.51
545	0.507
546	0.504
546	0.501
547	0.497
547	0.494
547	0.49
548	0.487
548	0.484
549	0.481
549	0.477
550	0.474
550	0.47
551	0.466
551	0.463
551	0.459
552	0.456
552	0.453
553	0.45
553	0.447
554	0.444
554	0.44
555	0.436
555	0.433
556	0.429
556	0.426
556	0.423
557	0.42
557	0.416
558	0.413
558	0.41
559	0.406
559	0.403
560	0.4
560	0.396
560	0.394
561	0.391
561	0.389
562	0.386
562	0.383
563	0.38
563	0.377
564	0.375
564	0.372
564	0.37
565	0.368
565	0.365
566	0.362
566	0.36
567	0.357
567	0.355
568	0.352
568	0.349
568	0.346
569	0.343
569	0.339
570	0.336
570	0.332
571	0.33
571	0.327
572	0.324
572	0.321
573	0.318
573	0.316
573	0.313
574	0.311
574	0.309
575	0.307
575	0.306
576	0.305
576	0.302
577	0.299
577	0.297
577	0.296
578	0.294
578	0.293
579	0.293
579	0.291
580	0.289
580	0.285
581	0.282
581	0.28
581	0.279
582	0.278
582	0.277
583	0.275
583	0.272
584	0.269
584	0.265
585	0.264
585	0.262
585	0.26
586	0.259
586	0.257
587	0.254
587	0.252
588	0.249
588	0.248
589	0.247
589	0.246
590	0.245
590	0.243
590	0.243
591	0.242
591	0.24
592	0.238
592	0.236
593	0.235
593	0.234
594	0.232
594	0.23
594	0.229
595	0.228
595	0.226
596	0.224
596	0.224
597	0.225
597	0.224
598	0.222
598	0.222
598	0.221
599	0.22
599	0.218
600	0.217
600	0.215
601	0.215
601	0.213
602	0.211
602	0.21
602	0.209
603	0.208
603	0.207
604	0.206
604	0.206
605	0.205
605	0.205
606	0.203
606	0.202
606	0.201
607	0.199
607	0.199
608	0.197
608	0.195
609	0.194
609	0.194
610	0.192
610	0.191
610	0.19
611	0.189
611	0.189
612	0.188
612	0.188
613	0.188
613	0.187
614	0.186
614	0.184
614	0.183
615	0.182
615	0.181
616	0.18
616	0.179
617	0.179
617	0.177
618	0.176
618	0.175
618	0.174
619	0.173
619	0.173
620	0.173
620	0.172
621	0.17
621	0.169
622	0.168
622	0.167
622	0.165
623	0.164
623	0.164
624	0.164
624	0.162
625	0.161
625	0.16
626	0.159
626	0.158
626	0.157
627	0.156
627	0.154
628	0.153
628	0.151
629	0.15
629	0.149
630	0.146
630	0.145
630	0.143
631	0.142
631	0.14
632	0.138
632	0.136
633	0.134
633	0.132
634	0.131
634	0.129
634	0.127
635	0.125
635	0.123
636	0.121
636	0.119
637	0.117
637	0.114
638	0.112
638	0.109
638	0.106
639	0.103
639	0.1
640	0.097
640	0.094
641	0.09
641	0.087
642	0.084
642	0.081
642	0.077
643	0.073
643	0.069
644	0.065
644	0.06
645	0.056
645	0.052
646	0.047
646	0.041
646	0.035
647	0.029
647	0.023
648	0.017
648	0.011
649	0.005
649	-0.001
650	-0.007
650	-0.013
650	-0.019
651	-0.028
651	-0.038
652	-0.049
652	-0.061
653	-0.071
653	-0.08
653	-0.076
654	-0.058
654	-0.054
655	-0.058
655	-0.063
656	-0.068
656	-0.073
657	-0.077
657	-0.081
657	-0.086
658	-0.093
658	-0.12
659	-0.197
659	-0.275
660	-0.312
660	-0.335
661	-0.359
661	-0.385
661	-0.412
662	-0.438
662	-0.466
663	-0.497
663	-0.532
664	-0.565
664	-0.603
665	-0.645
665	-0.689
665	-0.731
666	-0.779
666	-0.83
667	-0.883
667	-0.943
668	-1
668	-1.067
669	-1.134
669	-1.206
669	-1.284
670	-1.369
670	-1.494
671	-1.71
671	-2.097
672	-2.33
672	-2.488
672	-2.606
673	-2.7
673	-2.779
674	-2.815
674	-2.826
675	-2.841
675	-2.844
676	-2.837
676	-2.775
676	-2.697
677	-2.599
677	-2.475
678	-2.279
678	-1.883
679	-1.585
679	-1.453
680	-1.362
680	-1.293
680	-1.233
681	-1.193
681	-1.146
682	-1.109
682	-1.068
683	-1.029
683	-1.009
684	-0.984
684	-0.968
684	-0.948
685	-0.93
685	-0.923
686	-0.902
686	-0.89
687	-0.882
687	-0.873
687	-0.873
688	-0.859
688	-0.853
689	-0.856
689	-0.854
690	-0.842
690	-0.832
691	-0.83
691	-0.834
691	-0.834
692	-0.836
692	-0.834
693	-0.841
693	-0.851
694	-0.832
694	-0.831
695	-0.836
695	-0.83
695	-0.838
696	-0.845
696	-0.839
697	-0.832
697	-0.827
698	-0.822
698	-0.815
698	-0.829
699	-0.828
699	-0.827
700	-0.846
700	-0.84
701	-0.827
701	-0.821
702	-0.821
702	-0.821
702	-0.821
703	-0.812
703	-0.8
704	-0.807
704	-0.811
705	-0.799
705	-0.799
705	-0.795
706	-0.788
706	-0.785
707	-0.795
707	-0.8
708	-0.798
708	-0.795
709	-0.797
709	-0.795
709	-0.79
710	-0.797
710	-0.801
711	-0.801
711	-0.802
712	-0.795
712	-0.792
713	-0.796
713	-0.799
713	-0.778
714	-0.779
714	-0.783
715	-0.775
715	-0.78
716	-0.795
716	-0.804
716	-0.805
717	-0.81
717	-0.804
718	-0.796
718	-0.797
719	-0.793
719	-0.786
720	-0.782
720	-0.781
720	-0.776
721	-0.766
721	-0.769
722	-0.768
722	-0.763
723	-0.781
723	-0.795
723	-0.805
724	-0.802
724	-0.807
725	-0.8
725	-0.802
726	-0.808
726	-0.799
727	-0.799
727	-0.806
727	-0.796
728	-0.782
728	-0.777
729	-0.78
729	-0.782
730	-0.788
730	-0.779
730	-0.784
731	-0.787
731	-0.788
732	-0.791
732	-0.786
733	-0.801
733	-0.807
734	-0.817
734	-0.81
734	-0.791
735	-0.781
735	-0.776
736	-0.775
736	-0.77
737	-0.768
737	-0.759
737	-0.751
738	-0.737
738	-0.723
739	-0.725
739	-0.724
740	-0.741
740	-0.74
741	-0.75
741	-0.761
741	-0.772
742	-0.779
742	-0.796
743	-0.804
743	-0.808
744	-0.813
744	-0.822
744	-0.814
745	-0.82
745	-0.81
746	-0.804
746	-0.796
747	-0.797
747	-0.786
748	-0.787
748	-0.79
748	-0.791
749	-0.784
749	-0.792
750	-0.784
750	-0.783
751	-0.783
751	-0.778
751	-0.79
752	-0.794
752	-0.798
753	-0.801
753	-0.792
754	-0.81
754	-0.809
754	-0.818
755	-0.82
755	-0.811
756	-0.815
756	-0.802
757	-0.795
757	-0.784
758	-0.783
758	-0.784
758	-0.782
759	-0.787
759	-0.786
760	-0.784
760	-0.789
761	-0.781
761	-0.786
761	-0.785
762	-0.791
762	-0.792
763	-0.793
763	-0.795
764	-0.793
764	-0.79
764	-0.794
765	-0.791
765	-0.798
766	-0.8
766	-0.803
767	-0.818
767	-0.812
768	-0.81
768	-0.802
768	-0.798
769	-0.799
769	-0.807
770	-0.816
770	-0.821
771	-0.817
771	-0.813
771	-0.818
772	-0.821
772	-0.841
773	-0.842
773	-0.842
774	-0.842
774	-0.826
775	-0.817
775	-0.816
775	-0.82
776	-0.832
776	-0.828
777	-0.828
777	-0.812
778	-0.822
778	-0.829
778	-0.83
779	-0.837
779	-0.851
780	-0.846
780	-0.854
781	-0.844
781	-0.836
781	-0.85
782	-0.871
782	-0.871
783	-0.871
783	-0.879
784	-0.885
784	-0.878
784	-0.899
785	-0.893
785	-0.906
786	-0.908
786	-0.901
787	-0.891
787	-0.899
788	-0.892
788	-0.884
788	-0.886
789	-0.886
789	-0.874
790	-0.872
790	-0.856
791	-0.864
791	-0.859
791	-0.852
792	-0.847
792	-0.852
793	-0.854
793	-0.84
794	-0.832
794	-0.826
794	-0.832
795	-0.852
795	-0.839
796	-0.844
796	-0.842
797	-0.834
797	-0.823
797	-0.817
798	-0.838
798	-0.843
799	-0.843
799	-0.83
800	-0.825
800	-0.833
801	-0.831
801	-0.834
801	-0.833
802	-0.831
802	-0.83
803	-0.824
803	-0.817
804	-0.825
804	-0.833
804	-0.817
805	-0.799
805	-0.789
806	-0.792
806	-0.788
807	-0.79
807	-0.789
807	-0.772
808	-0.767
808	-0.76
809	-0.753
809	-0.752
810	-0.752
810	-0.75
810	-0.745
811	-0.749
811	-0.739
812	-0.733
812	-0.735
813	-0.739
813	-0.74
813	-0.737
814	-0.741
814	-0.747
815	-0.738
815	-0.734
816	-0.729
816	-0.746
817	-0.759
817	-0.764
817	-0.775
818	-0.767
818	-0.764
819	-0.774
819	-0.774
820	-0.784
820	-0.786
820	-0.785
821	-0.781
821	-0.777
822	-0.776
822	-0.764
823	-0.776
823	-0.776
823	-0.77
824	-0.767
824	-0.777
825	-0.774
825	-0.771
826	-0.767
826	-0.763
826	-0.761
827	-0.761
827	-0.751
828	-0.75
828	-0.743
829	-0.736
829	-0.722
829	-0.72
830	-0.718
830	-0.703
831	-0.696
831	-0.686
832	-0.677
832	-0.672
832	-0.665
833	-0.666
833	-0.672
834	-0.667
834	-0.662
835	-0.656
835	-0.656
835	-0.652
836	-0.647
836	-0.643
837	-0.633
837	-0.625
838	-0.612
838	-0.595
839	-0.589
839	-0.576
839	-0.566
840	-0.566
840	-0.556
841	-0.547
841	-0.539
842	-0.53
842	-0.518
842	-0.517
843	-0.514
843	-0.51
844	-0.507
844	-0.496
845	-0.48
845	-0.471
845	-0.46
846	-0.449
846	-0.44
847	-0.429
847	-0.416
848	-0.401
848	-0.385
848	-0.372
849	-0.361
849	-0.351
850	-0.34
850	-0.331
851	-0.319
851	-0.303
851	-0.294
852	-0.279
852	-0.266
853	-0.258
853	-0.247
854	-0.237
854	-0.227
854	-0.216
855	-0.204
855	-0.197
856	-0.191
856	-0.183
857	-0.178
857	-0.171
857	-0.159
858	-0.15
858	-0.142
859	-0.131
859	-0.121
860	-0.111
860	-0.098
860	-0.087
861	-0.077
861	-0.067
862	-0.06
862	-0.052
863	-0.045
863	-0.037
863	-0.032
864	-0.027
864	-0.021
865	-0.015
865	-0.011
866	-0.006
866	-0.002
866	0.002
867	0.007
867	0.011
868	0.015
868	0.019
869	0.023
869	0.025
869	0.027
870	0.03
870	0.031
871	0.033
871	0.034
872	0.035
872	0.035
872	0.036
873	0.036
873	0.036
874	0.035
874	0.035
875	0.034
875	0.034
875	0.034
876	0.034
876	0.034
877	0.033
877	0.033
878	0.032
878	0.032
878	0.031
879	0.031
879	0.031
880	0.03
880	0.03
881	0.029
881	0.028
881	0.027
882	0.026
882	0.026
883	0.025
883	0.024
884	0.024
884	0.025
884	0.025
885	0.024
885	0.025
886	0.025
886	0.025
887	0.025
887	0.024
887	0.024
888	0.023
888	0.023
889	0.022
889	0.021
890	0.021
890	0.02
890	0.02
891	0.02
891	0.02
892	0.02
892	0.02
893	0.021
893	0.021
893	0.021
894	0.021
894	0.021
895	0.021
895	0.021
895	0.021
896	0.022
896	0.022
897	0.023
897	0.023
898	0.024
898	0.024
898	0.024
899	0.025
899	0.025
900	0.025
900	0.025
901	0.025
901	0.025
901	0.025
902	0.025
902	0.025
903	0.025
903	0.025
904	0.024
904	0.023
904	0.023
905	0.023
905	0.023
906	0.023
906	0.023
907	0.024
907	0.024
907	0.025
908	0.026
908	0.027
909	0.028
909	0.029
910	0.03
910	0.031
910	0.031
911	0.032
911	0.034
912	0.035
912	0.036
913	0.038
913	0.038
913	0.039
914	0.04
914	0.04
915	0.04
915	0.04
916	0.039
916	0.038
916	0.037
917	0.036
917	0.035
918	0.034
918	0.034
918	0.033
919	0.032
919	0.031
920	0.031
920	0.03
921	0.03
921	0.03
921	0.03
922	0.029
922	0.029
923	0.029
923	0.028
924	0.028
924	0.028
924	0.028
925	0.028
925	0.028
926	0.027
926	0.027
927	0.027
927	0.027
927	0.027
928	0.027
928	0.028
929	0.028
929	0.029
930	0.029
930	0.03
930	0.03
931	0.031
931	0.031
932	0.032
932	0.032
933	0.032
933	0.032
933	0.031
934	0.03
934	0.029
935	0.028
935	0.026
935	0.025
936	0.024
936	0.022
937	0.021
937	0.02
938	0.019
938	0.018
938	0.018
939	0.017
939	0.017
940	0.017
940	0.017
941	0.016
941	0.016
941	0.016
942	0.015
942	0.015
943	0.015
943	0.015
944	0.015
944	0.014
944	0.014
945	0.014
945	0.015
946	0.015
946	0.015
946	0.015
947	0.015
947	0.015
948	0.015
948	0.015
949	0.015
949	0.016
949	0.016
950	0.016
950	0.017
951	0.017
951	0.017
952	0.018
952	0.018
952	0.019
953	0.019
953	0.019
954	0.019
954	0.019
955	0.02
955	0.02
955	0.019
956	0.019
956	0.019
957	0.018
957	0.017
957	0.017
958	0.017
958	0.017
959	0.016
959	0.016
960	0.016
960	0.016
960	0.017
961	0.017
961	0.017
962	0.018
962	0.018
963	0.019
963	0.019
963	0.02
964	0.02
964	0.02
965	0.02
965	0.02
966	0.02
966	0.02
966	0.021
967	0.02
967	0.02
968	0.019
968	0.019
968	0.019
969	0.019
969	0.018
970	0.017
970	0.016
971	0.016
971	0.015
971	0.015
972	0.015
972	0.015
973	0.015
973	0.015
974	0.015
974	0.015
974	0.016
975	0.017
975	0.017
976	0.018
976	0.019
976	0.019
977	0.019
977	0.019
978	0.018
978	0.018
979	0.017
979	0.017
979	0.016
980	0.015
980	0.014
981	0.013
981	0.013
982	0.012
982	0.012
982	0.012
983	0.011
983	0.011
984	0.011
984	0.011
984	0.01
985	0.01
985	0.01
986	0.009
986	0.009
987	0.008
987	0.007
987	0.007
988	0.007
988	0.006
989	0.006
989	0.005
990	0.005
990	0.005
990	0.005
991	0.005
991	0.005
992	0.005
992	0.005
992	0.005
993	0.005
993	0.005
994	0.005
994	0.005
995	0.005
995	0.004
995	0.004
996	0.004
996	0.003
997	0.003
997	0.002
997	0.002
998	0.002
998	0.002
999	0.002
999	0.002
1000	0.002
1000	0.002
1000	0.002
1001	0.002
1001	0.002
1002	0.002
1002	0.002
1003	0.002
1003	0.002
1003	0.001
1004	0.001
1004	-0
1005	-0.001
1005	-0.002
1005	-0.002
1006	-0.003
1006	-0.004
1007	-0.005
1007	-0.005
1008	-0.005
1008	-0.006
1008	-0.006
1009	-0.005
1009	-0.005
1010	-0.004
1010	-0.004
1010	-0.003
1011	-0.003
1011	-0.003
1012	-0.002
1012	-0.001
1013	-0.001
1013	-0.001
1013	-0
1014	-0
1014	-0
1015	-0
1015	0
1016	-0
1016	0
1016	0
1017	-0
1017	-0
1018	0
1018	-0
1018	-0
1019	-0
1019	-0
1020	-0
1020	-0.001
1021	-0.001
1021	-0.002
1021	-0.002
1022	-0.003
1022	-0.003
1023	-0.003
1023	-0.003
1023	-0.003
1024	-0.004
1024	-0.004
1025	-0.004
1025	-0.004
1026	-0.004
1026	-0.004
1026	-0.004
1027	-0.004
1027	-0.004
1028	-0.004
1028	-0.004
1028	-0.004
1029	-0.004
1029	-0.004
1030	-0.005
1030	-0.005
1031	-0.005
1031	-0.005
1031	-0.005
1032	-0.005
1032	-0.005
1033	-0.006
1033	-0.006
1033	-0.006
1034	-0.006
1034	-0.006
1035	-0.006
1035	-0.007
1036	-0.007
1036	-0.007
1036	-0.008
1037	-0.007
1037	-0.007
1038	-0.007
1038	-0.007
1039	-0.006
1039	-0.005
1039	-0.005
1040	-0.004
1040	-0.003
1041	-0.003
1041	-0.003
1041	-0.003
1042	-0.003
1042	-0.004
1043	-0.004
1043	-0.005
1044	-0.005
1044	-0.006
1044	-0.007
1045	-0.008
1045	-0.009
1046	-0.01
1046	-0.01
1046	-0.011
1047	-0.011
1047	-0.011
1048	-0.011
1048	-0.012
1049	-0.012
1049	-0.013
1049	-0.013
1050	-0.014
1050	-0.015
1051	-0.016
1051	-0.017
1051	-0.017
1052	-0.018
1052	-0.019
1053	-0.02
1053	-0.02
1053	-0.02
1054	-0.021
1054	-0.021
1055	-0.02
1055	-0.02
1056	-0.02
1056	-0.02
1056	-0.02
1057	-0.02
1057	-0.021
1058	-0.021
1058	-0.021
1058	-0.021
1059	-0.021
1059	-0.021
1060	-0.022
1060	-0.021
1061	-0.021
1061	-0.021
1061	-0.02
1062	-0.02
1062	-0.02
1063	-0.02
1063	-0.02
1063	-0.021
1064	-0.021
1064	-0.021
1065	-0.021
1065	-0.021
1066	-0.021
1066	-0.022
1066	-0.023
1067	-0.023
1067	-0.024
1068	-0.024
1068	-0.025
1068	-0.025
1069	-0.026
1069	-0.027
1070	-0.027
1070	-0.028
1071	-0.028
1071	-0.028
1071	-0.028
1072	-0.028
1072	-0.028
1073	-0.027
1073	-0.027
1073	-0.026
1074	-0.026
1074	-0.025
1075	-0.025
1075	-0.025
1076	-0.026
1076	-0.026
1076	-0.027
1077	-0.027
1077	-0.028
1078	-0.029
1078	-0.03
1078	-0.031
1079	-0.032
1079	-0.033
1080	-0.034
1080	-0.034
1080	-0.036
1081	-0.036
1081	-0.037
1082	-0.038
1082	-0.039
1083	-0.039
1083	-0.04
1083	-0.041
1084	-0.042
1084	-0.042
1085	-0.043
1085	-0.043
1085	-0.044
1086	-0.044
1086	-0.045
1087	-0.045
1087	-0.046
1088	-0.047
1088	-0.048
1088	-0.049
1089	-0.051
1089	-0.052
1090	-0.052
1090	-0.053
1090	-0.055
1091	-0.056
1091	-0.057
1092	-0.057
1092	-0.057
1092	-0.059
1093	-0.06
1093	-0.059
1094	-0.06
1094	-0.061
1095	-0.063
1095	-0.063
1095	-0.063
1096	-0.065
1096	-0.067
1097	-0.068
1097	-0.07
1097	-0.071
1098	-0.072
1098	-0.075
1099	-0.075
1099	-0.076
1100	-0.078
1100	-0.081
1100	-0.083
1101	-0.086
1101	-0.088
1102	-0.09
1102	-0.092
1102	-0.094
1103	-0.096
1103	-0.1
1104	-0.103
1104	-0.106
1104	-0.108
1105	-0.109
1105	-0.113
1106	-0.118
1106	-0.119
1107	-0.125
1107	-0.13
1107	-0.134
1108	-0.135
1108	-0.136
1109	-0.14
1109	-0.143
1109	-0.147
1110	-0.148
1110	-0.15
1111	-0.161
1111	-0.153
