Data from 3.4A_17C_Absorbance__474__01431.txt Node

Date: Tue Jun 20 15:55:04 CEST 2023
User: Marek
Spectrometer: MAYP115816
Trigger mode: 0
Integration Time (sec): 2.200000E-1
Scans to average: 10
Electric dark correction enabled: true
Nonlinearity correction enabled: true
Boxcar width: 5
XAxis mode: Wavelengths
Number of Pixels in Spectrum: 2068
>>>>>Begin Spectral Data<<<<<
199	-0.746
199	-0.735
200	-0.697
200	-0.643
201	-0.615
201	-0.608
202	-0.593
202	-0.587
203	-0.588
203	-0.581
204	-0.563
204	-0.548
205	-0.524
205	-0.516
205	-0.525
206	-0.527
206	-0.521
207	-0.514
207	-0.52
208	-0.519
208	-0.524
209	-0.525
209	-0.532
210	-0.544
210	-0.55
211	-0.544
211	-0.549
212	-0.559
212	-0.566
213	-0.562
213	-0.559
213	-0.555
214	-0.561
214	-0.565
215	-0.562
215	-0.568
216	-0.576
216	-0.581
217	-0.578
217	-0.578
218	-0.585
218	-0.587
219	-0.595
219	-0.595
220	-0.597
220	-0.603
221	-0.603
221	-0.603
221	-0.596
222	-0.595
222	-0.594
223	-0.59
223	-0.593
224	-0.593
224	-0.593
225	-0.589
225	-0.591
226	-0.592
226	-0.592
227	-0.599
227	-0.61
228	-0.615
228	-0.623
229	-0.628
229	-0.626
229	-0.626
230	-0.622
230	-0.619
231	-0.617
231	-0.612
232	-0.616
232	-0.611
233	-0.611
233	-0.599
234	-0.6
234	-0.595
235	-0.599
235	-0.61
236	-0.619
236	-0.619
236	-0.619
237	-0.615
237	-0.618
238	-0.618
238	-0.622
239	-0.623
239	-0.632
240	-0.626
240	-0.623
241	-0.616
241	-0.617
242	-0.621
242	-0.629
243	-0.628
243	-0.629
243	-0.632
244	-0.631
244	-0.631
245	-0.633
245	-0.636
246	-0.647
246	-0.652
247	-0.659
247	-0.646
248	-0.644
248	-0.647
249	-0.654
249	-0.653
250	-0.654
250	-0.662
250	-0.66
251	-0.661
251	-0.658
252	-0.66
252	-0.673
253	-0.668
253	-0.68
254	-0.683
254	-0.685
255	-0.694
255	-0.693
256	-0.696
256	-0.706
257	-0.716
257	-0.712
258	-0.712
258	-0.72
258	-0.715
259	-0.71
259	-0.727
260	-0.727
260	-0.717
261	-0.728
261	-0.715
262	-0.719
262	-0.718
263	-0.708
263	-0.713
264	-0.723
264	-0.725
265	-0.717
265	-0.719
265	-0.73
266	-0.72
266	-0.72
267	-0.72
267	-0.736
268	-0.746
268	-0.74
269	-0.735
269	-0.748
270	-0.751
270	-0.75
271	-0.761
271	-0.772
272	-0.774
272	-0.776
272	-0.768
273	-0.778
273	-0.792
274	-0.783
274	-0.779
275	-0.776
275	-0.765
276	-0.768
276	-0.773
277	-0.774
277	-0.774
278	-0.781
278	-0.779
278	-0.768
279	-0.776
279	-0.79
280	-0.79
280	-0.801
281	-0.794
281	-0.786
282	-0.793
282	-0.786
283	-0.778
283	-0.793
284	-0.807
284	-0.817
285	-0.797
285	-0.804
285	-0.795
286	-0.802
286	-0.818
287	-0.816
287	-0.814
288	-0.812
288	-0.793
289	-0.79
289	-0.797
290	-0.805
290	-0.794
291	-0.799
291	-0.795
292	-0.774
292	-0.769
292	-0.771
293	-0.761
293	-0.759
294	-0.759
294	-0.747
295	-0.73
295	-0.743
296	-0.754
296	-0.751
297	-0.74
297	-0.745
298	-0.742
298	-0.758
298	-0.76
299	-0.741
299	-0.732
300	-0.731
300	-0.711
301	-0.693
301	-0.693
302	-0.705
302	-0.691
303	-0.684
303	-0.673
304	-0.657
304	-0.66
305	-0.654
305	-0.66
305	-0.675
306	-0.66
306	-0.658
307	-0.651
307	-0.662
308	-0.666
308	-0.661
309	-0.662
309	-0.659
310	-0.657
310	-0.648
311	-0.635
311	-0.652
311	-0.64
312	-0.637
312	-0.624
313	-0.614
313	-0.615
314	-0.619
314	-0.616
315	-0.612
315	-0.608
316	-0.602
316	-0.593
317	-0.586
317	-0.584
318	-0.576
318	-0.575
318	-0.564
319	-0.553
319	-0.547
320	-0.544
320	-0.542
321	-0.537
321	-0.538
322	-0.532
322	-0.524
323	-0.525
323	-0.515
324	-0.514
324	-0.504
324	-0.493
325	-0.479
325	-0.463
326	-0.456
326	-0.432
327	-0.417
327	-0.394
328	-0.364
328	-0.343
329	-0.315
329	-0.287
330	-0.261
330	-0.226
330	-0.192
331	-0.157
331	-0.123
332	-0.09
332	-0.057
333	-0.028
333	0.005
334	0.034
334	0.06
335	0.086
335	0.107
336	0.129
336	0.15
336	0.166
337	0.183
337	0.198
338	0.211
338	0.221
339	0.235
339	0.245
340	0.253
340	0.261
341	0.268
341	0.273
342	0.279
342	0.285
342	0.289
343	0.293
343	0.298
344	0.3
344	0.303
345	0.306
345	0.308
346	0.31
346	0.311
347	0.313
347	0.314
348	0.316
348	0.317
348	0.318
349	0.319
349	0.32
350	0.321
350	0.321
351	0.322
351	0.322
352	0.322
352	0.322
353	0.323
353	0.323
354	0.323
354	0.322
354	0.322
355	0.322
355	0.322
356	0.322
356	0.322
357	0.323
357	0.323
358	0.323
358	0.323
359	0.323
359	0.323
360	0.323
360	0.323
360	0.323
361	0.323
361	0.323
362	0.323
362	0.323
363	0.323
363	0.323
364	0.323
364	0.323
365	0.323
365	0.323
366	0.322
366	0.322
366	0.322
367	0.322
367	0.321
368	0.321
368	0.321
369	0.32
369	0.32
370	0.32
370	0.32
371	0.32
371	0.32
372	0.319
372	0.319
372	0.319
373	0.319
373	0.318
374	0.318
374	0.318
375	0.318
375	0.317
376	0.317
376	0.317
377	0.317
377	0.316
378	0.316
378	0.316
378	0.316
379	0.315
379	0.315
380	0.315
380	0.315
381	0.315
381	0.314
382	0.314
382	0.314
383	0.314
383	0.313
383	0.313
384	0.313
384	0.312
385	0.312
385	0.312
386	0.312
386	0.311
387	0.311
387	0.311
388	0.31
388	0.31
389	0.31
389	0.31
389	0.31
390	0.31
390	0.309
391	0.309
391	0.309
392	0.309
392	0.309
393	0.309
393	0.308
394	0.308
394	0.308
394	0.307
395	0.307
395	0.306
396	0.306
396	0.306
397	0.306
397	0.305
398	0.305
398	0.305
399	0.305
399	0.304
400	0.304
400	0.304
400	0.304
401	0.304
401	0.304
402	0.303
402	0.303
403	0.303
403	0.302
404	0.302
404	0.301
405	0.301
405	0.3
405	0.3
406	0.3
406	0.3
407	0.299
407	0.299
408	0.299
408	0.299
409	0.299
409	0.299
410	0.299
410	0.299
411	0.299
411	0.299
411	0.298
412	0.298
412	0.298
413	0.298
413	0.298
414	0.298
414	0.297
415	0.297
415	0.297
416	0.296
416	0.296
416	0.296
417	0.296
417	0.296
418	0.295
418	0.295
419	0.296
419	0.295
420	0.295
420	0.295
421	0.295
421	0.295
421	0.295
422	0.295
422	0.295
423	0.295
423	0.295
424	0.294
424	0.294
425	0.294
425	0.294
426	0.294
426	0.294
427	0.294
427	0.293
427	0.294
428	0.293
428	0.293
429	0.293
429	0.292
430	0.292
430	0.292
431	0.291
431	0.291
432	0.291
432	0.29
432	0.29
433	0.29
433	0.29
434	0.29
434	0.29
435	0.29
435	0.29
436	0.29
436	0.29
437	0.29
437	0.29
437	0.29
438	0.29
438	0.29
439	0.29
439	0.29
440	0.289
440	0.289
441	0.289
441	0.289
442	0.289
442	0.289
442	0.289
443	0.289
443	0.289
444	0.289
444	0.289
445	0.289
445	0.289
446	0.289
446	0.289
447	0.289
447	0.289
447	0.289
448	0.289
448	0.289
449	0.289
449	0.289
450	0.289
450	0.289
451	0.289
451	0.289
452	0.289
452	0.289
452	0.289
453	0.289
453	0.289
454	0.289
454	0.289
455	0.29
455	0.29
456	0.29
456	0.289
457	0.29
457	0.289
458	0.29
458	0.289
458	0.29
459	0.289
459	0.289
460	0.289
460	0.289
461	0.289
461	0.29
462	0.29
462	0.291
463	0.291
463	0.292
463	0.292
464	0.293
464	0.293
465	0.294
465	0.294
466	0.295
466	0.295
467	0.296
467	0.296
467	0.296
468	0.295
468	0.296
469	0.296
469	0.297
470	0.297
470	0.297
471	0.298
471	0.298
472	0.298
472	0.298
472	0.299
473	0.299
473	0.3
474	0.3
474	0.301
475	0.302
475	0.302
476	0.303
476	0.304
477	0.304
477	0.306
477	0.306
478	0.307
478	0.308
479	0.309
479	0.31
480	0.31
480	0.311
481	0.312
481	0.313
482	0.314
482	0.315
482	0.316
483	0.318
483	0.319
484	0.32
484	0.321
485	0.322
485	0.323
486	0.323
486	0.324
487	0.326
487	0.327
487	0.328
488	0.329
488	0.329
489	0.331
489	0.332
490	0.334
490	0.335
491	0.337
491	0.339
492	0.341
492	0.342
492	0.344
493	0.345
493	0.347
494	0.35
494	0.352
495	0.353
495	0.355
496	0.356
496	0.358
496	0.36
497	0.362
497	0.364
498	0.366
498	0.368
499	0.37
499	0.372
500	0.375
500	0.378
501	0.38
501	0.382
501	0.384
502	0.386
502	0.388
503	0.391
503	0.393
504	0.395
504	0.398
505	0.4
505	0.402
506	0.405
506	0.408
506	0.411
507	0.413
507	0.416
508	0.419
508	0.421
509	0.424
509	0.426
510	0.428
510	0.43
511	0.432
511	0.435
511	0.437
512	0.439
512	0.441
513	0.443
513	0.446
514	0.448
514	0.451
515	0.453
515	0.455
515	0.457
516	0.459
516	0.461
517	0.463
517	0.465
518	0.467
518	0.468
519	0.47
519	0.472
520	0.474
520	0.476
520	0.477
521	0.478
521	0.479
522	0.48
522	0.482
523	0.483
523	0.484
524	0.484
524	0.485
524	0.486
525	0.487
525	0.488
526	0.488
526	0.489
527	0.489
527	0.489
528	0.489
528	0.489
529	0.489
529	0.489
529	0.489
530	0.488
530	0.488
531	0.488
531	0.487
532	0.487
532	0.487
533	0.487
533	0.486
533	0.485
534	0.484
534	0.483
535	0.482
535	0.482
536	0.48
536	0.479
537	0.478
537	0.477
538	0.476
538	0.474
538	0.473
539	0.472
539	0.47
540	0.468
540	0.467
541	0.465
541	0.463
542	0.461
542	0.458
542	0.456
543	0.453
543	0.451
544	0.449
544	0.447
545	0.445
545	0.443
546	0.441
546	0.439
547	0.436
547	0.433
547	0.431
548	0.429
548	0.426
549	0.423
549	0.421
550	0.419
550	0.416
551	0.412
551	0.41
551	0.407
552	0.404
552	0.402
553	0.4
553	0.397
554	0.394
554	0.391
555	0.388
555	0.386
556	0.383
556	0.381
556	0.379
557	0.376
557	0.374
558	0.372
558	0.37
559	0.367
559	0.366
560	0.363
560	0.361
560	0.359
561	0.357
561	0.355
562	0.353
562	0.351
563	0.348
563	0.346
564	0.344
564	0.342
564	0.34
565	0.339
565	0.337
566	0.335
566	0.333
567	0.331
567	0.33
568	0.328
568	0.326
568	0.324
569	0.321
569	0.319
570	0.316
570	0.313
571	0.312
571	0.31
572	0.307
572	0.305
573	0.303
573	0.301
573	0.299
574	0.298
574	0.297
575	0.296
575	0.296
576	0.294
576	0.292
577	0.29
577	0.288
577	0.287
578	0.286
578	0.286
579	0.286
579	0.285
580	0.283
580	0.28
581	0.277
581	0.276
581	0.275
582	0.275
582	0.274
583	0.273
583	0.271
584	0.268
584	0.265
585	0.265
585	0.264
585	0.263
586	0.262
586	0.261
587	0.259
587	0.257
588	0.255
588	0.254
589	0.253
589	0.253
590	0.252
590	0.25
590	0.251
591	0.25
591	0.249
592	0.248
592	0.246
593	0.245
593	0.245
594	0.243
594	0.242
594	0.241
595	0.24
595	0.238
596	0.237
596	0.237
597	0.238
597	0.238
598	0.237
598	0.237
598	0.236
599	0.236
599	0.235
600	0.235
600	0.234
601	0.234
601	0.233
602	0.232
602	0.231
602	0.23
603	0.229
603	0.229
604	0.229
604	0.228
605	0.228
605	0.228
606	0.226
606	0.225
606	0.224
607	0.223
607	0.222
608	0.221
608	0.219
609	0.218
609	0.218
610	0.217
610	0.216
610	0.216
611	0.216
611	0.216
612	0.216
612	0.216
613	0.215
613	0.215
614	0.214
614	0.213
614	0.212
615	0.211
615	0.21
616	0.209
616	0.208
617	0.207
617	0.206
618	0.206
618	0.205
618	0.204
619	0.204
619	0.204
620	0.204
620	0.203
621	0.202
621	0.201
622	0.2
622	0.199
622	0.197
623	0.196
623	0.196
624	0.196
624	0.194
625	0.193
625	0.192
626	0.19
626	0.189
626	0.189
627	0.188
627	0.187
628	0.186
628	0.185
629	0.184
629	0.183
630	0.181
630	0.18
630	0.179
631	0.178
631	0.176
632	0.174
632	0.172
633	0.17
633	0.169
634	0.167
634	0.165
634	0.163
635	0.161
635	0.159
636	0.156
636	0.154
637	0.151
637	0.148
638	0.146
638	0.143
638	0.14
639	0.136
639	0.133
640	0.13
640	0.126
641	0.123
641	0.12
642	0.116
642	0.113
642	0.109
643	0.105
643	0.1
644	0.096
644	0.091
645	0.087
645	0.082
646	0.077
646	0.071
646	0.064
647	0.058
647	0.052
648	0.046
648	0.039
649	0.032
649	0.026
650	0.02
650	0.013
650	0.006
651	-0.003
651	-0.014
652	-0.026
652	-0.039
653	-0.051
653	-0.061
653	-0.058
654	-0.04
654	-0.035
655	-0.04
655	-0.044
656	-0.05
656	-0.056
657	-0.061
657	-0.066
657	-0.072
658	-0.079
658	-0.109
659	-0.191
659	-0.277
660	-0.317
660	-0.343
661	-0.37
661	-0.4
661	-0.432
662	-0.46
662	-0.491
663	-0.526
663	-0.564
664	-0.601
664	-0.643
665	-0.689
665	-0.735
665	-0.78
666	-0.831
666	-0.886
667	-0.943
667	-1.006
668	-1.066
668	-1.136
669	-1.204
669	-1.278
669	-1.358
670	-1.441
670	-1.554
671	-1.729
671	-2.064
672	-2.31
672	-2.473
672	-2.594
673	-2.69
673	-2.77
674	-2.828
674	-2.843
675	-2.859
675	-2.863
676	-2.859
676	-2.811
676	-2.741
677	-2.655
677	-2.551
678	-2.395
678	-2.133
679	-1.758
679	-1.59
680	-1.487
680	-1.409
680	-1.342
681	-1.293
681	-1.24
682	-1.197
682	-1.154
683	-1.11
683	-1.085
684	-1.057
684	-1.037
684	-1.013
685	-0.992
685	-0.982
686	-0.958
686	-0.943
687	-0.932
687	-0.92
687	-0.919
688	-0.902
688	-0.892
689	-0.895
689	-0.894
690	-0.88
690	-0.868
691	-0.866
691	-0.869
691	-0.869
692	-0.867
692	-0.864
693	-0.87
693	-0.88
694	-0.859
694	-0.857
695	-0.86
695	-0.854
695	-0.861
696	-0.868
696	-0.861
697	-0.854
697	-0.849
698	-0.843
698	-0.837
698	-0.85
699	-0.847
699	-0.848
700	-0.867
700	-0.86
701	-0.847
701	-0.841
702	-0.841
702	-0.841
702	-0.842
703	-0.833
703	-0.821
704	-0.83
704	-0.836
705	-0.824
705	-0.82
705	-0.814
706	-0.806
706	-0.803
707	-0.813
707	-0.815
708	-0.812
708	-0.809
709	-0.81
709	-0.804
709	-0.8
710	-0.811
710	-0.815
711	-0.815
711	-0.816
712	-0.807
712	-0.804
713	-0.808
713	-0.809
713	-0.788
714	-0.791
714	-0.795
715	-0.785
715	-0.793
716	-0.809
716	-0.817
716	-0.816
717	-0.825
717	-0.818
718	-0.812
718	-0.815
719	-0.809
719	-0.802
720	-0.798
720	-0.792
720	-0.786
721	-0.777
721	-0.782
722	-0.778
722	-0.773
723	-0.789
723	-0.801
723	-0.809
724	-0.806
724	-0.812
725	-0.807
725	-0.811
726	-0.815
726	-0.807
727	-0.807
727	-0.816
727	-0.807
728	-0.793
728	-0.788
729	-0.791
729	-0.792
730	-0.797
730	-0.788
730	-0.794
731	-0.798
731	-0.798
732	-0.798
732	-0.793
733	-0.809
733	-0.817
734	-0.825
734	-0.818
734	-0.801
735	-0.791
735	-0.787
736	-0.784
736	-0.781
737	-0.781
737	-0.77
737	-0.763
738	-0.749
738	-0.736
739	-0.738
739	-0.738
740	-0.752
740	-0.752
741	-0.763
741	-0.772
741	-0.784
742	-0.792
742	-0.806
743	-0.813
743	-0.815
744	-0.82
744	-0.829
744	-0.821
745	-0.828
745	-0.816
746	-0.809
746	-0.799
747	-0.801
747	-0.792
748	-0.793
748	-0.798
748	-0.8
749	-0.792
749	-0.799
750	-0.79
750	-0.791
751	-0.792
751	-0.79
751	-0.801
752	-0.804
752	-0.808
753	-0.808
753	-0.799
754	-0.821
754	-0.82
754	-0.828
755	-0.829
755	-0.821
756	-0.823
756	-0.809
757	-0.803
757	-0.793
758	-0.795
758	-0.794
758	-0.787
759	-0.791
759	-0.791
760	-0.788
760	-0.791
761	-0.785
761	-0.79
761	-0.79
762	-0.795
762	-0.794
763	-0.795
763	-0.797
764	-0.797
764	-0.791
764	-0.798
765	-0.796
765	-0.803
766	-0.804
766	-0.806
767	-0.821
767	-0.817
768	-0.817
768	-0.81
768	-0.806
769	-0.809
769	-0.816
770	-0.825
770	-0.829
771	-0.826
771	-0.825
771	-0.829
772	-0.833
772	-0.855
773	-0.857
773	-0.856
774	-0.856
774	-0.838
775	-0.825
775	-0.826
775	-0.829
776	-0.84
776	-0.839
777	-0.838
777	-0.821
778	-0.828
778	-0.837
778	-0.836
779	-0.844
779	-0.863
780	-0.858
780	-0.866
781	-0.855
781	-0.843
781	-0.858
782	-0.878
782	-0.881
783	-0.881
783	-0.891
784	-0.896
784	-0.887
784	-0.906
785	-0.9
785	-0.914
786	-0.918
786	-0.911
787	-0.9
787	-0.908
788	-0.899
788	-0.891
788	-0.892
789	-0.891
789	-0.881
790	-0.879
790	-0.863
791	-0.869
791	-0.864
791	-0.859
792	-0.853
792	-0.859
793	-0.862
793	-0.85
794	-0.844
794	-0.838
794	-0.846
795	-0.865
795	-0.85
796	-0.856
796	-0.849
797	-0.842
797	-0.833
797	-0.826
798	-0.846
798	-0.851
799	-0.849
799	-0.833
800	-0.83
800	-0.84
801	-0.838
801	-0.844
801	-0.842
802	-0.841
802	-0.838
803	-0.833
803	-0.826
804	-0.832
804	-0.839
804	-0.822
805	-0.802
805	-0.792
806	-0.793
806	-0.788
807	-0.79
807	-0.791
807	-0.775
808	-0.769
808	-0.764
809	-0.759
809	-0.759
810	-0.763
810	-0.759
810	-0.755
811	-0.758
811	-0.749
812	-0.743
812	-0.744
813	-0.747
813	-0.747
813	-0.743
814	-0.743
814	-0.75
815	-0.741
815	-0.736
816	-0.733
816	-0.748
817	-0.759
817	-0.764
817	-0.775
818	-0.768
818	-0.765
819	-0.775
819	-0.773
820	-0.783
820	-0.783
820	-0.781
821	-0.777
821	-0.774
822	-0.773
822	-0.759
823	-0.773
823	-0.772
823	-0.765
824	-0.762
824	-0.772
825	-0.771
825	-0.77
826	-0.764
826	-0.76
826	-0.757
827	-0.758
827	-0.744
828	-0.746
828	-0.742
829	-0.736
829	-0.722
829	-0.719
830	-0.719
830	-0.706
831	-0.699
831	-0.691
832	-0.683
832	-0.68
832	-0.672
833	-0.669
833	-0.675
834	-0.67
834	-0.665
835	-0.655
835	-0.656
835	-0.65
836	-0.645
836	-0.642
837	-0.631
837	-0.622
838	-0.61
838	-0.592
839	-0.588
839	-0.575
839	-0.567
840	-0.565
840	-0.554
841	-0.543
841	-0.535
842	-0.529
842	-0.515
842	-0.513
843	-0.511
843	-0.504
844	-0.502
844	-0.491
845	-0.476
845	-0.467
845	-0.458
846	-0.447
846	-0.435
847	-0.427
847	-0.413
848	-0.399
848	-0.382
848	-0.369
849	-0.356
849	-0.345
850	-0.334
850	-0.324
851	-0.311
851	-0.295
851	-0.286
852	-0.271
852	-0.26
853	-0.252
853	-0.241
854	-0.231
854	-0.221
854	-0.209
855	-0.196
855	-0.188
856	-0.181
856	-0.172
857	-0.165
857	-0.157
857	-0.144
858	-0.132
858	-0.124
859	-0.114
859	-0.103
860	-0.093
860	-0.079
860	-0.069
861	-0.059
861	-0.05
862	-0.042
862	-0.034
863	-0.027
863	-0.018
863	-0.012
864	-0.007
864	-0
865	0.006
865	0.011
866	0.016
866	0.021
866	0.026
867	0.031
867	0.036
868	0.039
868	0.044
869	0.048
869	0.051
869	0.053
870	0.055
870	0.057
871	0.058
871	0.058
872	0.058
872	0.059
872	0.059
873	0.059
873	0.059
874	0.059
874	0.059
875	0.059
875	0.059
875	0.059
876	0.059
876	0.06
877	0.059
877	0.059
878	0.059
878	0.058
878	0.058
879	0.057
879	0.056
880	0.055
880	0.053
881	0.052
881	0.05
881	0.05
882	0.048
882	0.047
883	0.047
883	0.046
884	0.047
884	0.047
884	0.048
885	0.048
885	0.049
886	0.049
886	0.049
887	0.049
887	0.049
887	0.049
888	0.049
888	0.048
889	0.047
889	0.046
890	0.046
890	0.045
890	0.045
891	0.045
891	0.044
892	0.045
892	0.045
893	0.045
893	0.045
893	0.045
894	0.045
894	0.046
895	0.046
895	0.046
895	0.046
896	0.047
896	0.047
897	0.047
897	0.047
898	0.048
898	0.048
898	0.048
899	0.048
899	0.049
900	0.048
900	0.048
901	0.048
901	0.047
901	0.047
902	0.047
902	0.047
903	0.047
903	0.047
904	0.046
904	0.046
904	0.046
905	0.046
905	0.046
906	0.046
906	0.046
907	0.046
907	0.046
907	0.047
908	0.047
908	0.048
909	0.049
909	0.05
910	0.05
910	0.051
910	0.052
911	0.052
911	0.053
912	0.055
912	0.056
913	0.057
913	0.057
913	0.058
914	0.059
914	0.059
915	0.058
915	0.058
916	0.058
916	0.058
916	0.057
917	0.056
917	0.056
918	0.055
918	0.055
918	0.054
919	0.054
919	0.053
920	0.053
920	0.053
921	0.053
921	0.052
921	0.053
922	0.052
922	0.052
923	0.052
923	0.052
924	0.051
924	0.051
924	0.051
925	0.051
925	0.051
926	0.05
926	0.05
927	0.05
927	0.049
927	0.049
928	0.049
928	0.049
929	0.049
929	0.05
930	0.05
930	0.05
930	0.051
931	0.051
931	0.051
932	0.052
932	0.052
933	0.052
933	0.052
933	0.051
934	0.05
934	0.049
935	0.048
935	0.047
935	0.045
936	0.044
936	0.042
937	0.04
937	0.039
938	0.039
938	0.038
938	0.038
939	0.038
939	0.037
940	0.037
940	0.037
941	0.037
941	0.036
941	0.036
942	0.036
942	0.036
943	0.035
943	0.035
944	0.035
944	0.034
944	0.034
945	0.034
945	0.034
946	0.034
946	0.034
946	0.034
947	0.034
947	0.034
948	0.034
948	0.034
949	0.035
949	0.035
949	0.036
950	0.036
950	0.037
951	0.038
951	0.038
952	0.038
952	0.039
952	0.039
953	0.039
953	0.04
954	0.039
954	0.039
955	0.039
955	0.039
955	0.038
956	0.038
956	0.038
957	0.037
957	0.037
957	0.036
958	0.036
958	0.036
959	0.036
959	0.036
960	0.036
960	0.035
960	0.036
961	0.037
961	0.037
962	0.037
962	0.038
963	0.039
963	0.039
963	0.04
964	0.04
964	0.04
965	0.041
965	0.041
966	0.041
966	0.041
966	0.041
967	0.041
967	0.04
968	0.04
968	0.039
968	0.039
969	0.039
969	0.039
970	0.038
970	0.038
971	0.038
971	0.038
971	0.038
972	0.038
972	0.038
973	0.039
973	0.039
974	0.039
974	0.039
974	0.039
975	0.039
975	0.039
976	0.039
976	0.04
976	0.039
977	0.039
977	0.038
978	0.038
978	0.037
979	0.036
979	0.035
979	0.035
980	0.034
980	0.033
981	0.033
981	0.032
982	0.032
982	0.032
982	0.032
983	0.032
983	0.031
984	0.031
984	0.031
984	0.031
985	0.03
985	0.03
986	0.029
986	0.028
987	0.027
987	0.026
987	0.025
988	0.025
988	0.024
989	0.023
989	0.023
990	0.023
990	0.022
990	0.023
991	0.023
991	0.024
992	0.024
992	0.025
992	0.025
993	0.025
993	0.025
994	0.025
994	0.025
995	0.024
995	0.024
995	0.023
996	0.023
996	0.022
997	0.021
997	0.021
997	0.02
998	0.02
998	0.02
999	0.02
999	0.02
1000	0.02
1000	0.02
1000	0.021
1001	0.021
1001	0.021
1002	0.021
1002	0.02
1003	0.02
1003	0.019
1003	0.018
1004	0.017
1004	0.016
1005	0.016
1005	0.014
1005	0.013
1006	0.012
1006	0.012
1007	0.011
1007	0.01
1008	0.01
1008	0.009
1008	0.01
1009	0.01
1009	0.01
1010	0.011
1010	0.011
1010	0.012
1011	0.012
1011	0.012
1012	0.013
1012	0.014
1013	0.015
1013	0.015
1013	0.016
1014	0.016
1014	0.017
1015	0.018
1015	0.018
1016	0.019
1016	0.019
1016	0.019
1017	0.019
1017	0.019
1018	0.019
1018	0.019
1018	0.019
1019	0.018
1019	0.018
1020	0.017
1020	0.017
1021	0.016
1021	0.016
1021	0.016
1022	0.016
1022	0.015
1023	0.016
1023	0.015
1023	0.015
1024	0.015
1024	0.015
1025	0.015
1025	0.015
1026	0.015
1026	0.015
1026	0.014
1027	0.015
1027	0.015
1028	0.015
1028	0.015
1028	0.015
1029	0.015
1029	0.015
1030	0.014
1030	0.013
1031	0.013
1031	0.013
1031	0.012
1032	0.011
1032	0.011
1033	0.01
1033	0.01
1033	0.009
1034	0.009
1034	0.008
1035	0.009
1035	0.008
1036	0.008
1036	0.008
1036	0.008
1037	0.009
1037	0.009
1038	0.009
1038	0.01
1039	0.011
1039	0.011
1039	0.012
1040	0.012
1040	0.013
1041	0.013
1041	0.013
1041	0.014
1042	0.013
1042	0.013
1043	0.013
1043	0.012
1044	0.012
1044	0.011
1044	0.011
1045	0.01
1045	0.01
1046	0.009
1046	0.009
1046	0.008
1047	0.008
1047	0.008
1048	0.008
1048	0.008
1049	0.008
1049	0.007
1049	0.007
1050	0.006
1050	0.005
1051	0.005
1051	0.004
1051	0.004
1052	0.003
1052	0.002
1053	0.001
1053	0.001
1053	0
1054	-0
1054	-0
1055	-0
1055	-0
1056	-0
1056	-0
1056	-0.001
1057	-0.001
1057	-0.001
1058	-0.002
1058	-0.002
1058	-0.002
1059	-0.002
1059	-0.002
1060	-0.003
1060	-0.002
1061	-0.003
1061	-0.003
1061	-0.002
1062	-0.003
1062	-0.003
1063	-0.003
1063	-0.003
1063	-0.004
1064	-0.005
1064	-0.005
1065	-0.005
1065	-0.006
1066	-0.006
1066	-0.007
1066	-0.008
1067	-0.008
1067	-0.009
1068	-0.01
1068	-0.01
1068	-0.01
1069	-0.011
1069	-0.012
1070	-0.012
1070	-0.013
1071	-0.013
1071	-0.013
1071	-0.013
1072	-0.013
1072	-0.013
1073	-0.012
1073	-0.012
1073	-0.012
1074	-0.011
1074	-0.011
1075	-0.011
1075	-0.012
1076	-0.012
1076	-0.013
1076	-0.013
1077	-0.014
1077	-0.015
1078	-0.016
1078	-0.017
1078	-0.018
1079	-0.019
1079	-0.019
1080	-0.02
1080	-0.02
1080	-0.022
1081	-0.023
1081	-0.023
1082	-0.024
1082	-0.026
1083	-0.027
1083	-0.028
1083	-0.029
1084	-0.03
1084	-0.031
1085	-0.033
1085	-0.034
1085	-0.034
1086	-0.035
1086	-0.036
1087	-0.037
1087	-0.037
1088	-0.039
1088	-0.04
1088	-0.041
1089	-0.042
1089	-0.043
1090	-0.044
1090	-0.045
1090	-0.046
1091	-0.048
1091	-0.048
1092	-0.049
1092	-0.048
1092	-0.049
1093	-0.05
1093	-0.05
1094	-0.051
1094	-0.051
1095	-0.053
1095	-0.053
1095	-0.053
1096	-0.054
1096	-0.056
1097	-0.057
1097	-0.059
1097	-0.06
1098	-0.062
1098	-0.064
1099	-0.065
1099	-0.066
1100	-0.068
1100	-0.07
1100	-0.072
1101	-0.075
1101	-0.078
1102	-0.079
1102	-0.082
1102	-0.084
1103	-0.085
1103	-0.089
1104	-0.093
1104	-0.096
1104	-0.097
1105	-0.099
1105	-0.102
1106	-0.107
1106	-0.11
1107	-0.116
1107	-0.12
1107	-0.125
1108	-0.126
1108	-0.128
1109	-0.132
1109	-0.137
1109	-0.142
1110	-0.143
1110	-0.147
1111	-0.155
1111	-0.147
