Data from 3.4A_17C_Absorbance__494__01451.txt Node

Date: Tue Jun 20 15:55:48 CEST 2023
User: Marek
Spectrometer: MAYP115816
Trigger mode: 0
Integration Time (sec): 2.200000E-1
Scans to average: 10
Electric dark correction enabled: true
Nonlinearity correction enabled: true
Boxcar width: 5
XAxis mode: Wavelengths
Number of Pixels in Spectrum: 2068
>>>>>Begin Spectral Data<<<<<
199	-0.766
199	-0.748
200	-0.717
200	-0.66
201	-0.631
201	-0.622
202	-0.603
202	-0.596
203	-0.595
203	-0.588
204	-0.568
204	-0.553
205	-0.53
205	-0.518
205	-0.528
206	-0.53
206	-0.526
207	-0.517
207	-0.522
208	-0.524
208	-0.529
209	-0.53
209	-0.533
210	-0.546
210	-0.553
211	-0.545
211	-0.549
212	-0.558
212	-0.568
213	-0.566
213	-0.561
213	-0.558
214	-0.566
214	-0.571
215	-0.57
215	-0.573
216	-0.584
216	-0.589
217	-0.587
217	-0.587
218	-0.595
218	-0.595
219	-0.602
219	-0.605
220	-0.61
220	-0.615
221	-0.615
221	-0.614
221	-0.606
222	-0.606
222	-0.605
223	-0.601
223	-0.603
224	-0.605
224	-0.602
225	-0.598
225	-0.599
226	-0.6
226	-0.6
227	-0.607
227	-0.616
228	-0.619
228	-0.628
229	-0.634
229	-0.63
229	-0.629
230	-0.626
230	-0.625
231	-0.622
231	-0.616
232	-0.621
232	-0.615
233	-0.615
233	-0.603
234	-0.604
234	-0.6
235	-0.604
235	-0.613
236	-0.62
236	-0.622
236	-0.623
237	-0.62
237	-0.622
238	-0.622
238	-0.624
239	-0.625
239	-0.634
240	-0.628
240	-0.623
241	-0.619
241	-0.621
242	-0.622
242	-0.63
243	-0.631
243	-0.633
243	-0.637
244	-0.635
244	-0.637
245	-0.638
245	-0.644
246	-0.653
246	-0.657
247	-0.668
247	-0.655
248	-0.655
248	-0.657
249	-0.662
249	-0.661
250	-0.659
250	-0.668
250	-0.665
251	-0.664
251	-0.658
252	-0.658
252	-0.669
253	-0.663
253	-0.674
254	-0.679
254	-0.682
255	-0.694
255	-0.692
256	-0.695
256	-0.708
257	-0.719
257	-0.715
258	-0.717
258	-0.725
258	-0.722
259	-0.716
259	-0.734
260	-0.732
260	-0.722
261	-0.732
261	-0.719
262	-0.725
262	-0.725
263	-0.716
263	-0.723
264	-0.732
264	-0.732
265	-0.722
265	-0.725
265	-0.736
266	-0.727
266	-0.727
267	-0.727
267	-0.74
268	-0.747
268	-0.739
269	-0.733
269	-0.749
270	-0.752
270	-0.751
271	-0.765
271	-0.776
272	-0.777
272	-0.779
272	-0.773
273	-0.783
273	-0.798
274	-0.788
274	-0.782
275	-0.781
275	-0.767
276	-0.769
276	-0.773
277	-0.775
277	-0.77
278	-0.775
278	-0.776
278	-0.764
279	-0.773
279	-0.788
280	-0.789
280	-0.801
281	-0.796
281	-0.789
282	-0.795
282	-0.792
283	-0.784
283	-0.797
284	-0.811
284	-0.821
285	-0.802
285	-0.808
285	-0.801
286	-0.805
286	-0.821
287	-0.818
287	-0.816
288	-0.817
288	-0.798
289	-0.798
289	-0.804
290	-0.813
290	-0.8
291	-0.805
291	-0.804
292	-0.784
292	-0.781
292	-0.785
293	-0.772
293	-0.769
294	-0.768
294	-0.754
295	-0.736
295	-0.748
296	-0.758
296	-0.75
297	-0.74
297	-0.742
298	-0.738
298	-0.756
298	-0.76
299	-0.743
299	-0.737
300	-0.733
300	-0.715
301	-0.696
301	-0.701
302	-0.71
302	-0.697
303	-0.691
303	-0.68
304	-0.664
304	-0.666
305	-0.659
305	-0.667
305	-0.684
306	-0.67
306	-0.667
307	-0.659
307	-0.67
308	-0.671
308	-0.667
309	-0.668
309	-0.664
310	-0.662
310	-0.659
311	-0.643
311	-0.661
311	-0.649
312	-0.647
312	-0.637
313	-0.628
313	-0.63
314	-0.634
314	-0.633
315	-0.629
315	-0.622
316	-0.615
316	-0.604
317	-0.598
317	-0.594
318	-0.584
318	-0.582
318	-0.569
319	-0.56
319	-0.551
320	-0.55
320	-0.549
321	-0.544
321	-0.544
322	-0.537
322	-0.531
323	-0.532
323	-0.524
324	-0.523
324	-0.51
324	-0.499
325	-0.483
325	-0.466
326	-0.458
326	-0.434
327	-0.42
327	-0.397
328	-0.367
328	-0.344
329	-0.317
329	-0.291
330	-0.263
330	-0.228
330	-0.192
331	-0.155
331	-0.122
332	-0.087
332	-0.057
333	-0.026
333	0.006
334	0.034
334	0.059
335	0.084
335	0.104
336	0.124
336	0.144
336	0.16
337	0.177
337	0.194
338	0.207
338	0.216
339	0.23
339	0.24
340	0.248
340	0.256
341	0.263
341	0.268
342	0.274
342	0.28
342	0.285
343	0.288
343	0.293
344	0.296
344	0.298
345	0.301
345	0.303
346	0.305
346	0.307
347	0.309
347	0.31
348	0.311
348	0.313
348	0.314
349	0.314
349	0.315
350	0.316
350	0.316
351	0.317
351	0.317
352	0.317
352	0.317
353	0.318
353	0.318
354	0.318
354	0.318
354	0.318
355	0.318
355	0.318
356	0.318
356	0.318
357	0.318
357	0.318
358	0.318
358	0.318
359	0.318
359	0.318
360	0.318
360	0.318
360	0.319
361	0.319
361	0.318
362	0.319
362	0.318
363	0.319
363	0.319
364	0.318
364	0.318
365	0.318
365	0.318
366	0.318
366	0.318
366	0.318
367	0.318
367	0.317
368	0.317
368	0.317
369	0.317
369	0.316
370	0.316
370	0.316
371	0.316
371	0.315
372	0.315
372	0.315
372	0.315
373	0.314
373	0.314
374	0.314
374	0.314
375	0.314
375	0.313
376	0.313
376	0.313
377	0.313
377	0.312
378	0.312
378	0.312
378	0.312
379	0.311
379	0.311
380	0.311
380	0.311
381	0.311
381	0.31
382	0.31
382	0.31
383	0.31
383	0.31
383	0.309
384	0.309
384	0.309
385	0.308
385	0.308
386	0.308
386	0.307
387	0.307
387	0.307
388	0.307
388	0.306
389	0.306
389	0.306
389	0.306
390	0.306
390	0.306
391	0.306
391	0.305
392	0.305
392	0.305
393	0.305
393	0.304
394	0.304
394	0.304
394	0.303
395	0.303
395	0.303
396	0.302
396	0.302
397	0.302
397	0.302
398	0.301
398	0.301
399	0.301
399	0.3
400	0.3
400	0.3
400	0.3
401	0.3
401	0.3
402	0.299
402	0.299
403	0.299
403	0.299
404	0.298
404	0.298
405	0.298
405	0.297
405	0.297
406	0.297
406	0.296
407	0.296
407	0.296
408	0.296
408	0.295
409	0.295
409	0.295
410	0.295
410	0.295
411	0.295
411	0.295
411	0.294
412	0.294
412	0.293
413	0.293
413	0.293
414	0.293
414	0.293
415	0.293
415	0.292
416	0.292
416	0.292
416	0.292
417	0.292
417	0.291
418	0.291
418	0.291
419	0.291
419	0.291
420	0.291
420	0.291
421	0.291
421	0.291
421	0.291
422	0.291
422	0.291
423	0.291
423	0.291
424	0.29
424	0.29
425	0.29
425	0.29
426	0.29
426	0.29
427	0.29
427	0.289
427	0.289
428	0.289
428	0.289
429	0.289
429	0.288
430	0.288
430	0.287
431	0.287
431	0.287
432	0.287
432	0.286
432	0.286
433	0.286
433	0.286
434	0.286
434	0.286
435	0.286
435	0.287
436	0.286
436	0.287
437	0.286
437	0.286
437	0.286
438	0.286
438	0.286
439	0.286
439	0.286
440	0.285
440	0.285
441	0.285
441	0.285
442	0.285
442	0.285
442	0.285
443	0.285
443	0.285
444	0.285
444	0.286
445	0.286
445	0.286
446	0.285
446	0.285
447	0.285
447	0.285
447	0.285
448	0.285
448	0.285
449	0.285
449	0.285
450	0.285
450	0.285
451	0.285
451	0.285
452	0.285
452	0.285
452	0.285
453	0.285
453	0.286
454	0.286
454	0.286
455	0.286
455	0.286
456	0.286
456	0.286
457	0.286
457	0.286
458	0.286
458	0.286
458	0.286
459	0.286
459	0.285
460	0.285
460	0.285
461	0.286
461	0.286
462	0.286
462	0.287
463	0.288
463	0.289
463	0.289
464	0.289
464	0.29
465	0.29
465	0.291
466	0.291
466	0.292
467	0.292
467	0.292
467	0.292
468	0.292
468	0.292
469	0.292
469	0.292
470	0.293
470	0.293
471	0.293
471	0.293
472	0.294
472	0.294
472	0.295
473	0.295
473	0.296
474	0.297
474	0.297
475	0.298
475	0.298
476	0.299
476	0.3
477	0.3
477	0.301
477	0.302
478	0.303
478	0.304
479	0.304
479	0.305
480	0.306
480	0.307
481	0.308
481	0.309
482	0.31
482	0.311
482	0.312
483	0.313
483	0.315
484	0.316
484	0.316
485	0.317
485	0.318
486	0.319
486	0.32
487	0.321
487	0.322
487	0.323
488	0.324
488	0.325
489	0.326
489	0.328
490	0.329
490	0.331
491	0.332
491	0.334
492	0.335
492	0.337
492	0.338
493	0.34
493	0.342
494	0.344
494	0.346
495	0.347
495	0.349
496	0.351
496	0.353
496	0.355
497	0.357
497	0.359
498	0.36
498	0.362
499	0.364
499	0.366
500	0.369
500	0.372
501	0.374
501	0.376
501	0.378
502	0.38
502	0.382
503	0.385
503	0.387
504	0.389
504	0.391
505	0.394
505	0.396
506	0.399
506	0.401
506	0.404
507	0.406
507	0.409
508	0.411
508	0.414
509	0.416
509	0.419
510	0.421
510	0.424
511	0.426
511	0.428
511	0.43
512	0.433
512	0.435
513	0.437
513	0.439
514	0.441
514	0.444
515	0.446
515	0.448
515	0.45
516	0.452
516	0.454
517	0.456
517	0.458
518	0.46
518	0.461
519	0.463
519	0.464
520	0.466
520	0.467
520	0.469
521	0.47
521	0.471
522	0.472
522	0.473
523	0.474
523	0.476
524	0.476
524	0.477
524	0.478
525	0.479
525	0.48
526	0.48
526	0.481
527	0.482
527	0.482
528	0.482
528	0.482
529	0.482
529	0.482
529	0.481
530	0.481
530	0.481
531	0.48
531	0.48
532	0.479
532	0.479
533	0.478
533	0.478
533	0.477
534	0.475
534	0.474
535	0.473
535	0.473
536	0.472
536	0.47
537	0.47
537	0.469
538	0.467
538	0.466
538	0.465
539	0.464
539	0.463
540	0.461
540	0.459
541	0.457
541	0.455
542	0.453
542	0.451
542	0.448
543	0.446
543	0.444
544	0.442
544	0.44
545	0.438
545	0.436
546	0.434
546	0.431
547	0.429
547	0.426
547	0.424
548	0.422
548	0.419
549	0.417
549	0.414
550	0.412
550	0.409
551	0.406
551	0.404
551	0.401
552	0.398
552	0.396
553	0.394
553	0.391
554	0.389
554	0.386
555	0.383
555	0.381
556	0.378
556	0.376
556	0.374
557	0.372
557	0.369
558	0.367
558	0.365
559	0.363
559	0.361
560	0.358
560	0.356
560	0.354
561	0.352
561	0.35
562	0.348
562	0.346
563	0.344
563	0.342
564	0.34
564	0.338
564	0.337
565	0.335
565	0.334
566	0.331
566	0.329
567	0.328
567	0.326
568	0.324
568	0.322
568	0.32
569	0.318
569	0.315
570	0.312
570	0.309
571	0.308
571	0.306
572	0.304
572	0.302
573	0.3
573	0.298
573	0.296
574	0.295
574	0.294
575	0.293
575	0.293
576	0.292
576	0.289
577	0.287
577	0.286
577	0.285
578	0.284
578	0.284
579	0.283
579	0.282
580	0.28
580	0.277
581	0.275
581	0.274
581	0.273
582	0.273
582	0.272
583	0.271
583	0.269
584	0.266
584	0.264
585	0.263
585	0.263
585	0.262
586	0.261
586	0.259
587	0.257
587	0.255
588	0.254
588	0.252
589	0.252
589	0.251
590	0.25
590	0.249
590	0.249
591	0.249
591	0.248
592	0.247
592	0.245
593	0.245
593	0.244
594	0.243
594	0.241
594	0.241
595	0.24
595	0.238
596	0.236
596	0.237
597	0.238
597	0.237
598	0.236
598	0.236
598	0.236
599	0.235
599	0.234
600	0.234
600	0.233
601	0.233
601	0.233
602	0.231
602	0.23
602	0.229
603	0.229
603	0.229
604	0.229
604	0.228
605	0.228
605	0.228
606	0.226
606	0.225
606	0.224
607	0.223
607	0.222
608	0.221
608	0.219
609	0.218
609	0.218
610	0.217
610	0.216
610	0.216
611	0.216
611	0.216
612	0.215
612	0.216
613	0.215
613	0.215
614	0.214
614	0.213
614	0.212
615	0.211
615	0.21
616	0.21
616	0.209
617	0.208
617	0.207
618	0.206
618	0.205
618	0.205
619	0.204
619	0.204
620	0.204
620	0.203
621	0.202
621	0.202
622	0.2
622	0.199
622	0.198
623	0.197
623	0.197
624	0.196
624	0.194
625	0.193
625	0.192
626	0.191
626	0.19
626	0.189
627	0.189
627	0.188
628	0.187
628	0.186
629	0.185
629	0.184
630	0.182
630	0.181
630	0.18
631	0.179
631	0.177
632	0.175
632	0.173
633	0.172
633	0.17
634	0.168
634	0.166
634	0.165
635	0.162
635	0.16
636	0.158
636	0.155
637	0.152
637	0.15
638	0.147
638	0.144
638	0.141
639	0.138
639	0.134
640	0.131
640	0.127
641	0.124
641	0.121
642	0.117
642	0.114
642	0.11
643	0.106
643	0.101
644	0.097
644	0.092
645	0.087
645	0.083
646	0.078
646	0.072
646	0.065
647	0.059
647	0.053
648	0.047
648	0.041
649	0.034
649	0.028
650	0.022
650	0.015
650	0.008
651	-0.001
651	-0.012
652	-0.024
652	-0.038
653	-0.049
653	-0.06
653	-0.057
654	-0.039
654	-0.035
655	-0.04
655	-0.045
656	-0.051
656	-0.057
657	-0.062
657	-0.066
657	-0.073
658	-0.08
658	-0.11
659	-0.194
659	-0.28
660	-0.319
660	-0.346
661	-0.372
661	-0.402
661	-0.434
662	-0.463
662	-0.493
663	-0.528
663	-0.567
664	-0.605
664	-0.647
665	-0.693
665	-0.741
665	-0.787
666	-0.839
666	-0.895
667	-0.951
667	-1.015
668	-1.075
668	-1.145
669	-1.214
669	-1.289
669	-1.369
670	-1.452
670	-1.565
671	-1.734
671	-2.081
672	-2.32
672	-2.48
672	-2.599
673	-2.694
673	-2.774
674	-2.825
674	-2.839
675	-2.855
675	-2.859
676	-2.855
676	-2.803
676	-2.731
677	-2.642
677	-2.535
678	-2.371
678	-2.087
679	-1.745
679	-1.59
680	-1.488
680	-1.412
680	-1.345
681	-1.297
681	-1.245
682	-1.202
682	-1.159
683	-1.116
683	-1.09
684	-1.061
684	-1.042
684	-1.019
685	-0.999
685	-0.988
686	-0.964
686	-0.949
687	-0.938
687	-0.925
687	-0.925
688	-0.908
688	-0.902
689	-0.905
689	-0.899
690	-0.886
690	-0.876
691	-0.871
691	-0.874
691	-0.874
692	-0.875
692	-0.869
693	-0.876
693	-0.885
694	-0.864
694	-0.865
695	-0.864
695	-0.857
695	-0.866
696	-0.872
696	-0.865
697	-0.857
697	-0.853
698	-0.846
698	-0.838
698	-0.852
699	-0.849
699	-0.85
700	-0.87
700	-0.863
701	-0.85
701	-0.846
702	-0.847
702	-0.845
702	-0.846
703	-0.838
703	-0.827
704	-0.835
704	-0.838
705	-0.826
705	-0.827
705	-0.822
706	-0.813
706	-0.809
707	-0.821
707	-0.825
708	-0.822
708	-0.818
709	-0.819
709	-0.818
709	-0.814
710	-0.82
710	-0.821
711	-0.822
711	-0.824
712	-0.814
712	-0.809
713	-0.813
713	-0.815
713	-0.795
714	-0.796
714	-0.798
715	-0.79
715	-0.799
716	-0.814
716	-0.821
716	-0.823
717	-0.83
717	-0.823
718	-0.817
718	-0.819
719	-0.814
719	-0.806
720	-0.803
720	-0.797
720	-0.792
721	-0.784
721	-0.787
722	-0.783
722	-0.779
723	-0.795
723	-0.806
723	-0.816
724	-0.813
724	-0.819
725	-0.814
725	-0.817
726	-0.82
726	-0.811
727	-0.814
727	-0.821
727	-0.812
728	-0.799
728	-0.793
729	-0.795
729	-0.797
730	-0.801
730	-0.793
730	-0.799
731	-0.803
731	-0.802
732	-0.804
732	-0.798
733	-0.813
733	-0.821
734	-0.83
734	-0.821
734	-0.802
735	-0.792
735	-0.786
736	-0.785
736	-0.78
737	-0.782
737	-0.772
737	-0.764
738	-0.751
738	-0.739
739	-0.741
739	-0.743
740	-0.758
740	-0.758
741	-0.767
741	-0.778
741	-0.786
742	-0.794
742	-0.81
743	-0.817
743	-0.821
744	-0.825
744	-0.832
744	-0.826
745	-0.834
745	-0.823
746	-0.817
746	-0.808
747	-0.811
747	-0.8
748	-0.799
748	-0.803
748	-0.804
749	-0.797
749	-0.802
750	-0.793
750	-0.794
751	-0.794
751	-0.79
751	-0.799
752	-0.802
752	-0.806
753	-0.807
753	-0.8
754	-0.822
754	-0.822
754	-0.832
755	-0.832
755	-0.825
756	-0.83
756	-0.818
757	-0.811
757	-0.8
758	-0.802
758	-0.801
758	-0.795
759	-0.799
759	-0.799
760	-0.796
760	-0.797
761	-0.791
761	-0.793
761	-0.795
762	-0.802
762	-0.802
763	-0.801
763	-0.806
764	-0.805
764	-0.801
764	-0.806
765	-0.804
765	-0.81
766	-0.813
766	-0.812
767	-0.829
767	-0.825
768	-0.824
768	-0.815
768	-0.808
769	-0.81
769	-0.819
770	-0.83
770	-0.834
771	-0.833
771	-0.832
771	-0.835
772	-0.839
772	-0.858
773	-0.86
773	-0.861
774	-0.86
774	-0.844
775	-0.831
775	-0.83
775	-0.832
776	-0.844
776	-0.841
777	-0.841
777	-0.825
778	-0.835
778	-0.841
778	-0.841
779	-0.849
779	-0.866
780	-0.862
780	-0.87
781	-0.859
781	-0.848
781	-0.863
782	-0.885
782	-0.884
783	-0.885
783	-0.893
784	-0.896
784	-0.888
784	-0.907
785	-0.901
785	-0.912
786	-0.918
786	-0.91
787	-0.899
787	-0.908
788	-0.9
788	-0.893
788	-0.894
789	-0.894
789	-0.885
790	-0.884
790	-0.87
791	-0.877
791	-0.871
791	-0.864
792	-0.858
792	-0.861
793	-0.866
793	-0.854
794	-0.848
794	-0.84
794	-0.847
795	-0.866
795	-0.853
796	-0.858
796	-0.856
797	-0.85
797	-0.842
797	-0.835
798	-0.855
798	-0.861
799	-0.862
799	-0.849
800	-0.844
800	-0.851
801	-0.849
801	-0.853
801	-0.849
802	-0.849
802	-0.847
803	-0.842
803	-0.83
804	-0.834
804	-0.842
804	-0.825
805	-0.806
805	-0.796
806	-0.796
806	-0.793
807	-0.794
807	-0.795
807	-0.776
808	-0.774
808	-0.766
809	-0.759
809	-0.76
810	-0.763
810	-0.76
810	-0.757
811	-0.76
811	-0.752
812	-0.744
812	-0.749
813	-0.753
813	-0.755
813	-0.752
814	-0.752
814	-0.758
815	-0.75
815	-0.744
816	-0.74
816	-0.755
817	-0.767
817	-0.77
817	-0.781
818	-0.773
818	-0.772
819	-0.783
819	-0.782
820	-0.792
820	-0.793
820	-0.792
821	-0.787
821	-0.784
822	-0.783
822	-0.77
823	-0.783
823	-0.781
823	-0.775
824	-0.773
824	-0.784
825	-0.783
825	-0.778
826	-0.773
826	-0.768
826	-0.766
827	-0.766
827	-0.754
828	-0.754
828	-0.749
829	-0.741
829	-0.726
829	-0.725
830	-0.724
830	-0.711
831	-0.707
831	-0.695
832	-0.688
832	-0.683
832	-0.675
833	-0.676
833	-0.683
834	-0.678
834	-0.672
835	-0.664
835	-0.662
835	-0.655
836	-0.653
836	-0.647
837	-0.637
837	-0.628
838	-0.616
838	-0.598
839	-0.592
839	-0.578
839	-0.57
840	-0.57
840	-0.561
841	-0.55
841	-0.543
842	-0.536
842	-0.524
842	-0.52
843	-0.517
843	-0.512
844	-0.51
844	-0.497
845	-0.483
845	-0.474
845	-0.464
846	-0.452
846	-0.439
847	-0.428
847	-0.417
848	-0.401
848	-0.384
848	-0.372
849	-0.36
849	-0.349
850	-0.339
850	-0.329
851	-0.316
851	-0.302
851	-0.293
852	-0.277
852	-0.265
853	-0.256
853	-0.245
854	-0.234
854	-0.223
854	-0.21
855	-0.198
855	-0.191
856	-0.183
856	-0.174
857	-0.165
857	-0.158
857	-0.145
858	-0.136
858	-0.128
859	-0.118
859	-0.107
860	-0.098
860	-0.083
860	-0.074
861	-0.064
861	-0.054
862	-0.045
862	-0.037
863	-0.028
863	-0.02
863	-0.013
864	-0.007
864	-0
865	0.005
865	0.01
866	0.015
866	0.02
866	0.025
867	0.03
867	0.035
868	0.039
868	0.044
869	0.048
869	0.051
869	0.053
870	0.055
870	0.057
871	0.058
871	0.059
872	0.059
872	0.059
872	0.06
873	0.06
873	0.06
874	0.06
874	0.06
875	0.06
875	0.06
875	0.06
876	0.06
876	0.06
877	0.06
877	0.06
878	0.06
878	0.06
878	0.059
879	0.059
879	0.058
880	0.057
880	0.055
881	0.053
881	0.052
881	0.051
882	0.05
882	0.049
883	0.048
883	0.047
884	0.048
884	0.048
884	0.048
885	0.049
885	0.049
886	0.049
886	0.05
887	0.05
887	0.05
887	0.05
888	0.05
888	0.049
889	0.049
889	0.048
890	0.047
890	0.047
890	0.046
891	0.046
891	0.045
892	0.046
892	0.046
893	0.046
893	0.046
893	0.046
894	0.046
894	0.047
895	0.047
895	0.047
895	0.047
896	0.047
896	0.048
897	0.048
897	0.049
898	0.049
898	0.049
898	0.049
899	0.049
899	0.049
900	0.049
900	0.049
901	0.048
901	0.048
901	0.048
902	0.048
902	0.049
903	0.049
903	0.048
904	0.048
904	0.047
904	0.047
905	0.047
905	0.047
906	0.047
906	0.048
907	0.048
907	0.048
907	0.048
908	0.049
908	0.05
909	0.05
909	0.051
910	0.051
910	0.052
910	0.052
911	0.053
911	0.054
912	0.056
912	0.057
913	0.058
913	0.059
913	0.059
914	0.06
914	0.06
915	0.06
915	0.06
916	0.059
916	0.059
916	0.058
917	0.057
917	0.057
918	0.056
918	0.056
918	0.055
919	0.055
919	0.054
920	0.054
920	0.054
921	0.054
921	0.053
921	0.053
922	0.053
922	0.053
923	0.053
923	0.052
924	0.052
924	0.052
924	0.052
925	0.052
925	0.051
926	0.051
926	0.051
927	0.05
927	0.05
927	0.05
928	0.05
928	0.05
929	0.05
929	0.05
930	0.051
930	0.051
930	0.051
931	0.052
931	0.052
932	0.053
932	0.053
933	0.053
933	0.053
933	0.052
934	0.051
934	0.05
935	0.049
935	0.048
935	0.046
936	0.045
936	0.044
937	0.042
937	0.041
938	0.04
938	0.039
938	0.039
939	0.039
939	0.038
940	0.038
940	0.038
941	0.037
941	0.037
941	0.037
942	0.036
942	0.036
943	0.036
943	0.035
944	0.034
944	0.033
944	0.033
945	0.033
945	0.034
946	0.033
946	0.033
946	0.033
947	0.033
947	0.033
948	0.033
948	0.034
949	0.034
949	0.035
949	0.036
950	0.037
950	0.037
951	0.038
951	0.038
952	0.039
952	0.039
952	0.04
953	0.04
953	0.041
954	0.041
954	0.04
955	0.041
955	0.04
955	0.04
956	0.04
956	0.039
957	0.038
957	0.037
957	0.036
958	0.036
958	0.036
959	0.036
959	0.036
960	0.036
960	0.036
960	0.037
961	0.037
961	0.038
962	0.038
962	0.039
963	0.04
963	0.04
963	0.041
964	0.041
964	0.042
965	0.042
965	0.042
966	0.043
966	0.043
966	0.043
967	0.042
967	0.042
968	0.041
968	0.04
968	0.04
969	0.04
969	0.04
970	0.039
970	0.039
971	0.039
971	0.039
971	0.039
972	0.039
972	0.04
973	0.04
973	0.041
974	0.041
974	0.041
974	0.041
975	0.042
975	0.041
976	0.041
976	0.041
976	0.041
977	0.04
977	0.039
978	0.038
978	0.037
979	0.037
979	0.036
979	0.035
980	0.034
980	0.034
981	0.033
981	0.033
982	0.033
982	0.033
982	0.033
983	0.033
983	0.032
984	0.032
984	0.032
984	0.032
985	0.032
985	0.031
986	0.031
986	0.03
987	0.029
987	0.028
987	0.027
988	0.026
988	0.025
989	0.025
989	0.024
990	0.024
990	0.023
990	0.023
991	0.024
991	0.024
992	0.025
992	0.025
992	0.025
993	0.025
993	0.025
994	0.025
994	0.025
995	0.025
995	0.024
995	0.023
996	0.023
996	0.022
997	0.021
997	0.021
997	0.021
998	0.021
998	0.021
999	0.021
999	0.021
1000	0.021
1000	0.021
1000	0.022
1001	0.022
1001	0.022
1002	0.022
1002	0.022
1003	0.021
1003	0.02
1003	0.019
1004	0.018
1004	0.017
1005	0.016
1005	0.015
1005	0.014
1006	0.013
1006	0.012
1007	0.011
1007	0.011
1008	0.01
1008	0.01
1008	0.01
1009	0.01
1009	0.01
1010	0.011
1010	0.011
1010	0.012
1011	0.012
1011	0.013
1012	0.013
1012	0.014
1013	0.015
1013	0.016
1013	0.016
1014	0.017
1014	0.018
1015	0.018
1015	0.019
1016	0.02
1016	0.02
1016	0.02
1017	0.02
1017	0.02
1018	0.02
1018	0.02
1018	0.02
1019	0.02
1019	0.019
1020	0.019
1020	0.018
1021	0.018
1021	0.017
1021	0.017
1022	0.016
1022	0.016
1023	0.016
1023	0.016
1023	0.016
1024	0.016
1024	0.016
1025	0.015
1025	0.015
1026	0.016
1026	0.016
1026	0.015
1027	0.015
1027	0.015
1028	0.015
1028	0.016
1028	0.016
1029	0.015
1029	0.015
1030	0.015
1030	0.014
1031	0.013
1031	0.013
1031	0.013
1032	0.013
1032	0.012
1033	0.012
1033	0.011
1033	0.011
1034	0.01
1034	0.01
1035	0.01
1035	0.01
1036	0.009
1036	0.009
1036	0.009
1037	0.009
1037	0.01
1038	0.01
1038	0.011
1039	0.011
1039	0.012
1039	0.013
1040	0.013
1040	0.014
1041	0.014
1041	0.015
1041	0.015
1042	0.014
1042	0.014
1043	0.014
1043	0.014
1044	0.013
1044	0.013
1044	0.012
1045	0.012
1045	0.012
1046	0.011
1046	0.01
1046	0.01
1047	0.01
1047	0.009
1048	0.009
1048	0.009
1049	0.009
1049	0.008
1049	0.008
1050	0.007
1050	0.006
1051	0.005
1051	0.004
1051	0.004
1052	0.003
1052	0.002
1053	0.001
1053	0.001
1053	0
1054	-0
1054	-0
1055	-0
1055	0
1056	0
1056	0
1056	-0
1057	-0
1057	-0.001
1058	-0.001
1058	-0.001
1058	-0.001
1059	-0.001
1059	-0.002
1060	-0.002
1060	-0.002
1061	-0.003
1061	-0.003
1061	-0.002
1062	-0.002
1062	-0.003
1063	-0.003
1063	-0.003
1063	-0.004
1064	-0.004
1064	-0.004
1065	-0.004
1065	-0.005
1066	-0.006
1066	-0.007
1066	-0.007
1067	-0.008
1067	-0.008
1068	-0.009
1068	-0.01
1068	-0.01
1069	-0.011
1069	-0.012
1070	-0.012
1070	-0.012
1071	-0.013
1071	-0.013
1071	-0.013
1072	-0.013
1072	-0.012
1073	-0.012
1073	-0.012
1073	-0.012
1074	-0.011
1074	-0.011
1075	-0.011
1075	-0.011
1076	-0.012
1076	-0.012
1076	-0.013
1077	-0.014
1077	-0.015
1078	-0.016
1078	-0.016
1078	-0.017
1079	-0.018
1079	-0.018
1080	-0.019
1080	-0.02
1080	-0.021
1081	-0.022
1081	-0.023
1082	-0.023
1082	-0.025
1083	-0.026
1083	-0.027
1083	-0.028
1084	-0.029
1084	-0.03
1085	-0.032
1085	-0.033
1085	-0.033
1086	-0.034
1086	-0.036
1087	-0.036
1087	-0.037
1088	-0.038
1088	-0.039
1088	-0.04
1089	-0.042
1089	-0.043
1090	-0.044
1090	-0.045
1090	-0.046
1091	-0.047
1091	-0.047
1092	-0.048
1092	-0.049
1092	-0.049
1093	-0.05
1093	-0.05
1094	-0.05
1094	-0.051
1095	-0.053
1095	-0.053
1095	-0.053
1096	-0.055
1096	-0.056
1097	-0.057
1097	-0.059
1097	-0.06
1098	-0.062
1098	-0.063
1099	-0.064
1099	-0.065
1100	-0.067
1100	-0.069
1100	-0.072
1101	-0.075
1101	-0.078
1102	-0.08
1102	-0.083
1102	-0.085
1103	-0.088
1103	-0.091
1104	-0.095
1104	-0.097
1104	-0.099
1105	-0.101
1105	-0.104
1106	-0.109
1106	-0.111
1107	-0.117
1107	-0.122
1107	-0.127
1108	-0.129
1108	-0.13
1109	-0.135
1109	-0.14
1109	-0.146
1110	-0.147
1110	-0.151
1111	-0.162
1111	-0.158
