Data from 3.4A_17C_Absorbance__924__01881.txt Node

Date: Tue Jun 20 16:11:34 CEST 2023
User: Marek
Spectrometer: MAYP115816
Trigger mode: 0
Integration Time (sec): 2.200000E-1
Scans to average: 10
Electric dark correction enabled: true
Nonlinearity correction enabled: true
Boxcar width: 5
XAxis mode: Wavelengths
Number of Pixels in Spectrum: 2068
>>>>>Begin Spectral Data<<<<<
199	-0.759
199	-0.748
200	-0.717
200	-0.665
201	-0.638
201	-0.629
202	-0.619
202	-0.613
203	-0.613
203	-0.605
204	-0.587
204	-0.573
205	-0.551
205	-0.541
205	-0.552
206	-0.553
206	-0.55
207	-0.538
207	-0.544
208	-0.544
208	-0.55
209	-0.55
209	-0.556
210	-0.568
210	-0.575
211	-0.567
211	-0.573
212	-0.58
212	-0.589
213	-0.585
213	-0.581
213	-0.578
214	-0.586
214	-0.587
215	-0.584
215	-0.589
216	-0.599
216	-0.603
217	-0.602
217	-0.603
218	-0.611
218	-0.612
219	-0.618
219	-0.62
220	-0.625
220	-0.632
221	-0.632
221	-0.632
221	-0.623
222	-0.622
222	-0.62
223	-0.616
223	-0.619
224	-0.621
224	-0.62
225	-0.617
225	-0.617
226	-0.618
226	-0.617
227	-0.626
227	-0.637
228	-0.641
228	-0.65
229	-0.654
229	-0.651
229	-0.652
230	-0.647
230	-0.646
231	-0.642
231	-0.637
232	-0.639
232	-0.633
233	-0.633
233	-0.621
234	-0.62
234	-0.613
235	-0.617
235	-0.629
236	-0.634
236	-0.634
236	-0.635
237	-0.634
237	-0.633
238	-0.633
238	-0.636
239	-0.639
239	-0.649
240	-0.642
240	-0.638
241	-0.634
241	-0.636
242	-0.64
242	-0.647
243	-0.649
243	-0.652
243	-0.655
244	-0.653
244	-0.653
245	-0.657
245	-0.661
246	-0.671
246	-0.675
247	-0.683
247	-0.669
248	-0.668
248	-0.671
249	-0.677
249	-0.677
250	-0.676
250	-0.684
250	-0.683
251	-0.684
251	-0.68
252	-0.681
252	-0.694
253	-0.689
253	-0.7
254	-0.706
254	-0.707
255	-0.718
255	-0.716
256	-0.718
256	-0.73
257	-0.74
257	-0.737
258	-0.739
258	-0.747
258	-0.745
259	-0.736
259	-0.754
260	-0.753
260	-0.742
261	-0.753
261	-0.739
262	-0.745
262	-0.743
263	-0.735
263	-0.739
264	-0.749
264	-0.752
265	-0.742
265	-0.746
265	-0.756
266	-0.747
266	-0.747
267	-0.746
267	-0.762
268	-0.769
268	-0.762
269	-0.754
269	-0.769
270	-0.775
270	-0.775
271	-0.788
271	-0.798
272	-0.797
272	-0.8
272	-0.792
273	-0.803
273	-0.819
274	-0.811
274	-0.804
275	-0.8
275	-0.787
276	-0.79
276	-0.797
277	-0.8
277	-0.799
278	-0.804
278	-0.803
278	-0.792
279	-0.802
279	-0.815
280	-0.818
280	-0.829
281	-0.822
281	-0.813
282	-0.82
282	-0.812
283	-0.804
283	-0.818
284	-0.831
284	-0.84
285	-0.82
285	-0.828
285	-0.82
286	-0.825
286	-0.842
287	-0.841
287	-0.841
288	-0.843
288	-0.825
289	-0.822
289	-0.829
290	-0.84
290	-0.827
291	-0.829
291	-0.828
292	-0.808
292	-0.804
292	-0.807
293	-0.794
293	-0.791
294	-0.79
294	-0.776
295	-0.758
295	-0.772
296	-0.784
296	-0.779
297	-0.768
297	-0.772
298	-0.769
298	-0.786
298	-0.789
299	-0.772
299	-0.766
300	-0.762
300	-0.743
301	-0.724
301	-0.726
302	-0.737
302	-0.722
303	-0.715
303	-0.705
304	-0.688
304	-0.691
305	-0.682
305	-0.691
305	-0.706
306	-0.69
306	-0.689
307	-0.679
307	-0.689
308	-0.692
308	-0.686
309	-0.689
309	-0.686
310	-0.685
310	-0.68
311	-0.665
311	-0.685
311	-0.673
312	-0.672
312	-0.663
313	-0.656
313	-0.657
314	-0.659
314	-0.656
315	-0.653
315	-0.646
316	-0.64
316	-0.63
317	-0.621
317	-0.617
318	-0.608
318	-0.606
318	-0.594
319	-0.586
319	-0.577
320	-0.575
320	-0.574
321	-0.571
321	-0.57
322	-0.564
322	-0.558
323	-0.559
323	-0.549
324	-0.548
324	-0.537
324	-0.528
325	-0.513
325	-0.495
326	-0.486
326	-0.462
327	-0.449
327	-0.427
328	-0.396
328	-0.374
329	-0.346
329	-0.32
330	-0.294
330	-0.261
330	-0.228
331	-0.194
331	-0.162
332	-0.131
332	-0.1
333	-0.073
333	-0.043
334	-0.016
334	0.006
335	0.031
335	0.049
336	0.069
336	0.088
336	0.102
337	0.117
337	0.132
338	0.144
338	0.152
339	0.164
339	0.173
340	0.18
340	0.187
341	0.193
341	0.197
342	0.203
342	0.208
342	0.212
343	0.215
343	0.22
344	0.222
344	0.224
345	0.227
345	0.229
346	0.231
346	0.233
347	0.234
347	0.235
348	0.237
348	0.238
348	0.239
349	0.239
349	0.24
350	0.241
350	0.241
351	0.241
351	0.242
352	0.242
352	0.242
353	0.242
353	0.242
354	0.242
354	0.242
354	0.242
355	0.242
355	0.242
356	0.242
356	0.242
357	0.242
357	0.242
358	0.242
358	0.242
359	0.242
359	0.242
360	0.242
360	0.242
360	0.242
361	0.242
361	0.242
362	0.242
362	0.242
363	0.242
363	0.242
364	0.242
364	0.242
365	0.242
365	0.242
366	0.242
366	0.242
366	0.242
367	0.242
367	0.242
368	0.242
368	0.241
369	0.241
369	0.241
370	0.241
370	0.241
371	0.241
371	0.241
372	0.241
372	0.241
372	0.241
373	0.241
373	0.241
374	0.241
374	0.241
375	0.241
375	0.24
376	0.241
376	0.24
377	0.24
377	0.24
378	0.239
378	0.239
378	0.239
379	0.239
379	0.239
380	0.239
380	0.239
381	0.239
381	0.239
382	0.238
382	0.238
383	0.238
383	0.238
383	0.238
384	0.238
384	0.237
385	0.237
385	0.237
386	0.237
386	0.237
387	0.236
387	0.236
388	0.236
388	0.236
389	0.236
389	0.236
389	0.236
390	0.236
390	0.236
391	0.236
391	0.236
392	0.236
392	0.235
393	0.235
393	0.235
394	0.235
394	0.235
394	0.234
395	0.234
395	0.234
396	0.233
396	0.233
397	0.233
397	0.233
398	0.233
398	0.233
399	0.233
399	0.233
400	0.232
400	0.232
400	0.232
401	0.232
401	0.232
402	0.232
402	0.232
403	0.232
403	0.232
404	0.232
404	0.231
405	0.231
405	0.231
405	0.23
406	0.23
406	0.23
407	0.23
407	0.23
408	0.229
408	0.229
409	0.229
409	0.229
410	0.229
410	0.229
411	0.229
411	0.229
411	0.229
412	0.228
412	0.228
413	0.228
413	0.228
414	0.228
414	0.228
415	0.227
415	0.227
416	0.227
416	0.227
416	0.227
417	0.226
417	0.226
418	0.226
418	0.226
419	0.226
419	0.226
420	0.226
420	0.226
421	0.226
421	0.226
421	0.226
422	0.226
422	0.227
423	0.227
423	0.226
424	0.226
424	0.226
425	0.226
425	0.226
426	0.226
426	0.226
427	0.226
427	0.226
427	0.226
428	0.226
428	0.226
429	0.226
429	0.225
430	0.225
430	0.225
431	0.225
431	0.224
432	0.224
432	0.224
432	0.223
433	0.223
433	0.223
434	0.223
434	0.223
435	0.223
435	0.223
436	0.223
436	0.223
437	0.223
437	0.223
437	0.223
438	0.223
438	0.223
439	0.223
439	0.223
440	0.223
440	0.223
441	0.223
441	0.223
442	0.223
442	0.223
442	0.223
443	0.223
443	0.223
444	0.223
444	0.223
445	0.223
445	0.223
446	0.223
446	0.223
447	0.223
447	0.223
447	0.223
448	0.223
448	0.223
449	0.223
449	0.223
450	0.223
450	0.222
451	0.222
451	0.222
452	0.222
452	0.222
452	0.222
453	0.222
453	0.222
454	0.222
454	0.222
455	0.222
455	0.223
456	0.223
456	0.223
457	0.223
457	0.223
458	0.223
458	0.222
458	0.222
459	0.222
459	0.221
460	0.221
460	0.221
461	0.221
461	0.221
462	0.221
462	0.222
463	0.222
463	0.223
463	0.223
464	0.223
464	0.224
465	0.224
465	0.225
466	0.225
466	0.226
467	0.226
467	0.226
467	0.225
468	0.225
468	0.225
469	0.225
469	0.225
470	0.226
470	0.225
471	0.225
471	0.225
472	0.225
472	0.226
472	0.226
473	0.227
473	0.227
474	0.228
474	0.228
475	0.228
475	0.229
476	0.229
476	0.23
477	0.23
477	0.231
477	0.231
478	0.232
478	0.232
479	0.232
479	0.233
480	0.233
480	0.233
481	0.234
481	0.234
482	0.235
482	0.236
482	0.236
483	0.237
483	0.238
484	0.239
484	0.239
485	0.24
485	0.24
486	0.241
486	0.242
487	0.242
487	0.243
487	0.244
488	0.244
488	0.244
489	0.245
489	0.247
490	0.248
490	0.248
491	0.249
491	0.25
492	0.251
492	0.251
492	0.252
493	0.253
493	0.254
494	0.255
494	0.257
495	0.258
495	0.259
496	0.26
496	0.261
496	0.262
497	0.264
497	0.265
498	0.266
498	0.268
499	0.268
499	0.27
500	0.271
500	0.273
501	0.274
501	0.275
501	0.276
502	0.277
502	0.278
503	0.28
503	0.281
504	0.283
504	0.284
505	0.286
505	0.288
506	0.29
506	0.292
506	0.293
507	0.295
507	0.297
508	0.299
508	0.301
509	0.302
509	0.304
510	0.306
510	0.307
511	0.309
511	0.311
511	0.312
512	0.314
512	0.315
513	0.316
513	0.318
514	0.319
514	0.321
515	0.322
515	0.323
515	0.324
516	0.325
516	0.327
517	0.328
517	0.329
518	0.331
518	0.331
519	0.332
519	0.333
520	0.334
520	0.335
520	0.336
521	0.336
521	0.337
522	0.338
522	0.339
523	0.339
523	0.34
524	0.341
524	0.342
524	0.342
525	0.343
525	0.344
526	0.344
526	0.345
527	0.345
527	0.346
528	0.346
528	0.346
529	0.346
529	0.346
529	0.346
530	0.346
530	0.345
531	0.345
531	0.345
532	0.344
532	0.344
533	0.344
533	0.343
533	0.343
534	0.342
534	0.342
535	0.341
535	0.341
536	0.341
536	0.34
537	0.34
537	0.34
538	0.339
538	0.338
538	0.337
539	0.337
539	0.336
540	0.335
540	0.334
541	0.333
541	0.332
542	0.331
542	0.33
542	0.329
543	0.327
543	0.326
544	0.325
544	0.323
545	0.322
545	0.321
546	0.32
546	0.319
547	0.317
547	0.316
547	0.315
548	0.314
548	0.312
549	0.311
549	0.31
550	0.309
550	0.308
551	0.306
551	0.305
551	0.303
552	0.302
552	0.301
553	0.299
553	0.298
554	0.297
554	0.295
555	0.293
555	0.292
556	0.29
556	0.289
556	0.288
557	0.287
557	0.285
558	0.284
558	0.282
559	0.281
559	0.28
560	0.279
560	0.277
560	0.276
561	0.275
561	0.274
562	0.273
562	0.271
563	0.27
563	0.268
564	0.267
564	0.267
564	0.266
565	0.265
565	0.264
566	0.263
566	0.262
567	0.261
567	0.261
568	0.26
568	0.259
568	0.257
569	0.256
569	0.255
570	0.253
570	0.251
571	0.25
571	0.25
572	0.248
572	0.247
573	0.246
573	0.244
573	0.243
574	0.242
574	0.241
575	0.241
575	0.242
576	0.241
576	0.239
577	0.238
577	0.237
577	0.237
578	0.237
578	0.238
579	0.238
579	0.239
580	0.237
580	0.234
581	0.233
581	0.232
581	0.232
582	0.232
582	0.232
583	0.232
583	0.231
584	0.229
584	0.226
585	0.227
585	0.228
585	0.228
586	0.227
586	0.226
587	0.224
587	0.223
588	0.221
588	0.221
589	0.221
589	0.22
590	0.22
590	0.219
590	0.22
591	0.22
591	0.22
592	0.219
592	0.218
593	0.218
593	0.218
594	0.218
594	0.217
594	0.216
595	0.216
595	0.215
596	0.213
596	0.214
597	0.216
597	0.216
598	0.215
598	0.215
598	0.215
599	0.215
599	0.215
600	0.214
600	0.214
601	0.215
601	0.215
602	0.214
602	0.214
602	0.214
603	0.214
603	0.215
604	0.215
604	0.215
605	0.215
605	0.216
606	0.215
606	0.214
606	0.213
607	0.213
607	0.213
608	0.212
608	0.211
609	0.21
609	0.21
610	0.209
610	0.208
610	0.209
611	0.209
611	0.208
612	0.209
612	0.209
613	0.209
613	0.21
614	0.209
614	0.208
614	0.208
615	0.207
615	0.206
616	0.207
616	0.206
617	0.206
617	0.205
618	0.204
618	0.204
618	0.204
619	0.203
619	0.203
620	0.204
620	0.204
621	0.203
621	0.203
622	0.202
622	0.202
622	0.201
623	0.2
623	0.2
624	0.2
624	0.199
625	0.198
625	0.197
626	0.196
626	0.195
626	0.195
627	0.195
627	0.194
628	0.194
628	0.193
629	0.192
629	0.191
630	0.19
630	0.189
630	0.188
631	0.187
631	0.185
632	0.184
632	0.182
633	0.181
633	0.179
634	0.178
634	0.177
634	0.176
635	0.175
635	0.173
636	0.172
636	0.17
637	0.168
637	0.166
638	0.165
638	0.163
638	0.16
639	0.157
639	0.154
640	0.151
640	0.148
641	0.145
641	0.142
642	0.139
642	0.136
642	0.132
643	0.128
643	0.124
644	0.12
644	0.115
645	0.111
645	0.107
646	0.102
646	0.096
646	0.09
647	0.085
647	0.079
648	0.072
648	0.065
649	0.058
649	0.052
650	0.045
650	0.038
650	0.03
651	0.021
651	0.01
652	-0.004
652	-0.018
653	-0.03
653	-0.041
653	-0.037
654	-0.019
654	-0.015
655	-0.021
655	-0.027
656	-0.033
656	-0.04
657	-0.045
657	-0.05
657	-0.057
658	-0.065
658	-0.097
659	-0.183
659	-0.274
660	-0.315
660	-0.342
661	-0.37
661	-0.401
661	-0.433
662	-0.462
662	-0.493
663	-0.529
663	-0.567
664	-0.605
664	-0.647
665	-0.694
665	-0.742
665	-0.788
666	-0.839
666	-0.894
667	-0.949
667	-1.012
668	-1.071
668	-1.14
669	-1.208
669	-1.28
669	-1.357
670	-1.436
670	-1.537
671	-1.667
671	-1.922
672	-2.231
672	-2.419
672	-2.552
673	-2.656
673	-2.742
674	-2.822
674	-2.848
675	-2.866
675	-2.871
676	-2.872
676	-2.848
676	-2.784
677	-2.708
677	-2.62
678	-2.493
678	-2.301
679	-1.933
679	-1.687
680	-1.564
680	-1.481
680	-1.406
681	-1.352
681	-1.293
682	-1.247
682	-1.202
683	-1.156
683	-1.129
684	-1.098
684	-1.077
684	-1.052
685	-1.031
685	-1.019
686	-0.995
686	-0.98
687	-0.969
687	-0.957
687	-0.956
688	-0.94
688	-0.93
689	-0.93
689	-0.926
690	-0.91
690	-0.899
691	-0.896
691	-0.898
691	-0.896
692	-0.895
692	-0.89
693	-0.896
693	-0.907
694	-0.888
694	-0.886
695	-0.889
695	-0.882
695	-0.889
696	-0.895
696	-0.89
697	-0.883
697	-0.878
698	-0.873
698	-0.866
698	-0.88
699	-0.88
699	-0.88
700	-0.898
700	-0.891
701	-0.879
701	-0.871
702	-0.872
702	-0.869
702	-0.867
703	-0.857
703	-0.845
704	-0.853
704	-0.856
705	-0.844
705	-0.845
705	-0.839
706	-0.833
706	-0.828
707	-0.84
707	-0.843
708	-0.84
708	-0.838
709	-0.839
709	-0.836
709	-0.832
710	-0.839
710	-0.84
711	-0.839
711	-0.842
712	-0.835
712	-0.832
713	-0.837
713	-0.836
713	-0.814
714	-0.816
714	-0.819
715	-0.811
715	-0.819
716	-0.835
716	-0.842
716	-0.842
717	-0.848
717	-0.84
718	-0.836
718	-0.838
719	-0.833
719	-0.825
720	-0.819
720	-0.815
720	-0.809
721	-0.801
721	-0.804
722	-0.801
722	-0.798
723	-0.815
723	-0.827
723	-0.837
724	-0.834
724	-0.84
725	-0.831
725	-0.835
726	-0.838
726	-0.829
727	-0.831
727	-0.839
727	-0.828
728	-0.817
728	-0.813
729	-0.815
729	-0.818
730	-0.824
730	-0.814
730	-0.818
731	-0.823
731	-0.822
732	-0.823
732	-0.82
733	-0.833
733	-0.839
734	-0.848
734	-0.839
734	-0.821
735	-0.812
735	-0.808
736	-0.806
736	-0.801
737	-0.8
737	-0.788
737	-0.78
738	-0.766
738	-0.755
739	-0.758
739	-0.76
740	-0.775
740	-0.775
741	-0.787
741	-0.797
741	-0.807
742	-0.813
742	-0.827
743	-0.834
743	-0.836
744	-0.84
744	-0.848
744	-0.841
745	-0.848
745	-0.836
746	-0.83
746	-0.822
747	-0.824
747	-0.815
748	-0.816
748	-0.821
748	-0.821
749	-0.813
749	-0.82
750	-0.811
750	-0.813
751	-0.813
751	-0.81
751	-0.822
752	-0.826
752	-0.829
753	-0.832
753	-0.824
754	-0.844
754	-0.842
754	-0.852
755	-0.85
755	-0.841
756	-0.843
756	-0.829
757	-0.821
757	-0.81
758	-0.81
758	-0.809
758	-0.803
759	-0.81
759	-0.809
760	-0.808
760	-0.811
761	-0.806
761	-0.812
761	-0.813
762	-0.82
762	-0.821
763	-0.822
763	-0.826
764	-0.825
764	-0.821
764	-0.826
765	-0.825
765	-0.831
766	-0.832
766	-0.834
767	-0.847
767	-0.844
768	-0.842
768	-0.836
768	-0.831
769	-0.834
769	-0.842
770	-0.852
770	-0.857
771	-0.854
771	-0.853
771	-0.86
772	-0.864
772	-0.884
773	-0.884
773	-0.885
774	-0.882
774	-0.863
775	-0.851
775	-0.85
775	-0.853
776	-0.864
776	-0.858
777	-0.857
777	-0.839
778	-0.847
778	-0.855
778	-0.857
779	-0.866
779	-0.882
780	-0.878
780	-0.887
781	-0.877
781	-0.868
781	-0.882
782	-0.904
782	-0.907
783	-0.906
783	-0.914
784	-0.918
784	-0.91
784	-0.928
785	-0.921
785	-0.932
786	-0.936
786	-0.927
787	-0.918
787	-0.926
788	-0.918
788	-0.911
788	-0.914
789	-0.914
789	-0.905
790	-0.905
790	-0.888
791	-0.894
791	-0.889
791	-0.882
792	-0.873
792	-0.88
793	-0.882
793	-0.868
794	-0.862
794	-0.854
794	-0.86
795	-0.88
795	-0.866
796	-0.871
796	-0.868
797	-0.862
797	-0.852
797	-0.845
798	-0.867
798	-0.871
799	-0.872
799	-0.859
800	-0.856
800	-0.865
801	-0.863
801	-0.869
801	-0.865
802	-0.864
802	-0.863
803	-0.856
803	-0.848
804	-0.855
804	-0.861
804	-0.844
805	-0.825
805	-0.816
806	-0.815
806	-0.812
807	-0.813
807	-0.813
807	-0.798
808	-0.794
808	-0.785
809	-0.78
809	-0.779
810	-0.783
810	-0.781
810	-0.777
811	-0.781
811	-0.772
812	-0.764
812	-0.765
813	-0.769
813	-0.769
813	-0.764
814	-0.765
814	-0.769
815	-0.76
815	-0.755
816	-0.751
816	-0.769
817	-0.782
817	-0.784
817	-0.794
818	-0.789
818	-0.788
819	-0.798
819	-0.795
820	-0.806
820	-0.807
820	-0.804
821	-0.799
821	-0.794
822	-0.793
822	-0.78
823	-0.793
823	-0.791
823	-0.785
824	-0.785
824	-0.795
825	-0.794
825	-0.792
826	-0.787
826	-0.782
826	-0.781
827	-0.782
827	-0.771
828	-0.771
828	-0.766
829	-0.757
829	-0.741
829	-0.739
830	-0.739
830	-0.726
831	-0.719
831	-0.71
832	-0.702
832	-0.696
832	-0.69
833	-0.689
833	-0.696
834	-0.692
834	-0.683
835	-0.673
835	-0.671
835	-0.667
836	-0.662
836	-0.656
837	-0.646
837	-0.636
838	-0.623
838	-0.605
839	-0.598
839	-0.588
839	-0.579
840	-0.578
840	-0.567
841	-0.557
841	-0.55
842	-0.542
842	-0.529
842	-0.525
843	-0.521
843	-0.516
844	-0.513
844	-0.501
845	-0.487
845	-0.476
845	-0.463
846	-0.451
846	-0.439
847	-0.429
847	-0.417
848	-0.402
848	-0.384
848	-0.371
849	-0.358
849	-0.346
850	-0.334
850	-0.324
851	-0.312
851	-0.296
851	-0.285
852	-0.268
852	-0.255
853	-0.247
853	-0.235
854	-0.223
854	-0.212
854	-0.2
855	-0.187
855	-0.177
856	-0.169
856	-0.159
857	-0.151
857	-0.142
857	-0.128
858	-0.117
858	-0.108
859	-0.097
859	-0.085
860	-0.074
860	-0.059
860	-0.048
861	-0.037
861	-0.026
862	-0.016
862	-0.007
863	0.002
863	0.013
863	0.02
864	0.027
864	0.034
865	0.041
865	0.048
866	0.054
866	0.059
866	0.065
867	0.07
867	0.076
868	0.08
868	0.086
869	0.091
869	0.094
869	0.097
870	0.099
870	0.101
871	0.102
871	0.103
872	0.104
872	0.105
872	0.105
873	0.105
873	0.105
874	0.105
874	0.104
875	0.104
875	0.104
875	0.104
876	0.103
876	0.103
877	0.102
877	0.102
878	0.101
878	0.101
878	0.1
879	0.1
879	0.099
880	0.098
880	0.097
881	0.096
881	0.095
881	0.095
882	0.093
882	0.091
883	0.09
883	0.089
884	0.088
884	0.088
884	0.088
885	0.087
885	0.087
886	0.087
886	0.087
887	0.086
887	0.086
887	0.086
888	0.086
888	0.085
889	0.084
889	0.083
890	0.083
890	0.082
890	0.082
891	0.081
891	0.081
892	0.081
892	0.081
893	0.081
893	0.081
893	0.081
894	0.082
894	0.081
895	0.081
895	0.081
895	0.082
896	0.083
896	0.083
897	0.083
897	0.083
898	0.083
898	0.084
898	0.084
899	0.084
899	0.084
900	0.085
900	0.084
901	0.084
901	0.083
901	0.083
902	0.083
902	0.083
903	0.083
903	0.083
904	0.083
904	0.083
904	0.083
905	0.084
905	0.084
906	0.085
906	0.085
907	0.085
907	0.085
907	0.086
908	0.086
908	0.086
909	0.086
909	0.085
910	0.085
910	0.085
910	0.085
911	0.085
911	0.085
912	0.086
912	0.087
913	0.088
913	0.089
913	0.09
914	0.091
914	0.092
915	0.092
915	0.093
916	0.094
916	0.094
916	0.094
917	0.095
917	0.095
918	0.095
918	0.095
918	0.095
919	0.096
919	0.096
920	0.096
920	0.097
921	0.097
921	0.097
921	0.097
922	0.097
922	0.097
923	0.097
923	0.096
924	0.095
924	0.094
924	0.093
925	0.092
925	0.09
926	0.089
926	0.087
927	0.086
927	0.084
927	0.083
928	0.083
928	0.082
929	0.082
929	0.082
930	0.082
930	0.082
930	0.083
931	0.083
931	0.084
932	0.085
932	0.086
933	0.087
933	0.087
933	0.088
934	0.088
934	0.088
935	0.088
935	0.087
935	0.086
936	0.085
936	0.083
937	0.082
937	0.081
938	0.08
938	0.078
938	0.077
939	0.076
939	0.075
940	0.074
940	0.073
941	0.073
941	0.072
941	0.072
942	0.072
942	0.072
943	0.073
943	0.072
944	0.072
944	0.071
944	0.071
945	0.07
945	0.07
946	0.07
946	0.069
946	0.068
947	0.068
947	0.068
948	0.068
948	0.069
949	0.07
949	0.071
949	0.072
950	0.073
950	0.074
951	0.076
951	0.076
952	0.077
952	0.078
952	0.079
953	0.079
953	0.079
954	0.079
954	0.079
955	0.079
955	0.079
955	0.079
956	0.078
956	0.077
957	0.076
957	0.075
957	0.073
958	0.073
958	0.072
959	0.071
959	0.07
960	0.07
960	0.069
960	0.069
961	0.069
961	0.069
962	0.069
962	0.07
963	0.07
963	0.07
963	0.07
964	0.071
964	0.071
965	0.072
965	0.073
966	0.073
966	0.074
966	0.074
967	0.075
967	0.075
968	0.075
968	0.075
968	0.075
969	0.075
969	0.075
970	0.075
970	0.075
971	0.076
971	0.076
971	0.077
972	0.078
972	0.079
973	0.079
973	0.08
974	0.08
974	0.08
974	0.08
975	0.08
975	0.08
976	0.08
976	0.08
976	0.08
977	0.079
977	0.078
978	0.077
978	0.076
979	0.075
979	0.074
979	0.073
980	0.072
980	0.071
981	0.071
981	0.071
982	0.07
982	0.07
982	0.07
983	0.07
983	0.07
984	0.071
984	0.07
984	0.07
985	0.069
985	0.069
986	0.067
986	0.066
987	0.065
987	0.064
987	0.063
988	0.061
988	0.06
989	0.059
989	0.058
990	0.057
990	0.056
990	0.056
991	0.056
991	0.056
992	0.056
992	0.056
992	0.057
993	0.057
993	0.056
994	0.056
994	0.055
995	0.055
995	0.054
995	0.053
996	0.052
996	0.051
997	0.05
997	0.049
997	0.049
998	0.048
998	0.049
999	0.049
999	0.049
1000	0.05
1000	0.05
1000	0.051
1001	0.052
1001	0.052
1002	0.053
1002	0.053
1003	0.053
1003	0.053
1003	0.053
1004	0.052
1004	0.052
1005	0.051
1005	0.05
1005	0.049
1006	0.048
1006	0.047
1007	0.046
1007	0.045
1008	0.044
1008	0.043
1008	0.043
1009	0.043
1009	0.043
1010	0.043
1010	0.043
1010	0.044
1011	0.044
1011	0.045
1012	0.046
1012	0.047
1013	0.048
1013	0.048
1013	0.049
1014	0.049
1014	0.05
1015	0.05
1015	0.051
1016	0.051
1016	0.051
1016	0.051
1017	0.05
1017	0.05
1018	0.05
1018	0.05
1018	0.049
1019	0.049
1019	0.048
1020	0.048
1020	0.047
1021	0.046
1021	0.046
1021	0.045
1022	0.045
1022	0.044
1023	0.044
1023	0.043
1023	0.043
1024	0.043
1024	0.042
1025	0.042
1025	0.042
1026	0.042
1026	0.042
1026	0.041
1027	0.042
1027	0.042
1028	0.042
1028	0.043
1028	0.043
1029	0.043
1029	0.043
1030	0.043
1030	0.043
1031	0.043
1031	0.043
1031	0.043
1032	0.043
1032	0.043
1033	0.042
1033	0.042
1033	0.042
1034	0.042
1034	0.042
1035	0.042
1035	0.042
1036	0.042
1036	0.042
1036	0.042
1037	0.043
1037	0.044
1038	0.044
1038	0.045
1039	0.045
1039	0.047
1039	0.047
1040	0.048
1040	0.048
1041	0.049
1041	0.049
1041	0.048
1042	0.048
1042	0.047
1043	0.046
1043	0.045
1044	0.044
1044	0.043
1044	0.042
1045	0.04
1045	0.039
1046	0.038
1046	0.037
1046	0.037
1047	0.037
1047	0.037
1048	0.037
1048	0.037
1049	0.037
1049	0.037
1049	0.037
1050	0.037
1050	0.036
1051	0.036
1051	0.035
1051	0.034
1052	0.034
1052	0.033
1053	0.032
1053	0.031
1053	0.031
1054	0.03
1054	0.03
1055	0.031
1055	0.031
1056	0.03
1056	0.03
1056	0.03
1057	0.03
1057	0.029
1058	0.029
1058	0.029
1058	0.029
1059	0.029
1059	0.028
1060	0.027
1060	0.027
1061	0.027
1061	0.027
1061	0.027
1062	0.027
1062	0.027
1063	0.027
1063	0.026
1063	0.026
1064	0.026
1064	0.026
1065	0.027
1065	0.026
1066	0.026
1066	0.026
1066	0.026
1067	0.026
1067	0.026
1068	0.025
1068	0.025
1068	0.025
1069	0.025
1069	0.024
1070	0.024
1070	0.024
1071	0.023
1071	0.024
1071	0.023
1072	0.023
1072	0.023
1073	0.023
1073	0.023
1073	0.022
1074	0.022
1074	0.022
1075	0.021
1075	0.02
1076	0.019
1076	0.018
1076	0.017
1077	0.015
1077	0.014
1078	0.013
1078	0.012
1078	0.011
1079	0.01
1079	0.009
1080	0.007
1080	0.006
1080	0.004
1081	0.003
1081	0.002
1082	0.001
1082	0
1083	-0.001
1083	-0.003
1083	-0.004
1084	-0.005
1084	-0.006
1085	-0.007
1085	-0.007
1085	-0.007
1086	-0.008
1086	-0.009
1087	-0.009
1087	-0.01
1088	-0.011
1088	-0.011
1088	-0.011
1089	-0.013
1089	-0.014
1090	-0.015
1090	-0.015
1090	-0.017
1091	-0.018
1091	-0.018
1092	-0.019
1092	-0.019
1092	-0.02
1093	-0.022
1093	-0.022
1094	-0.023
1094	-0.024
1095	-0.026
1095	-0.026
1095	-0.027
1096	-0.028
1096	-0.031
1097	-0.031
1097	-0.033
1097	-0.035
1098	-0.036
1098	-0.039
1099	-0.04
1099	-0.042
1100	-0.045
1100	-0.048
1100	-0.052
1101	-0.055
1101	-0.057
1102	-0.06
1102	-0.063
1102	-0.065
1103	-0.068
1103	-0.071
1104	-0.074
1104	-0.077
1104	-0.079
1105	-0.081
1105	-0.084
1106	-0.089
1106	-0.091
1107	-0.098
1107	-0.103
1107	-0.108
1108	-0.11
1108	-0.111
1109	-0.115
1109	-0.12
1109	-0.124
1110	-0.126
1110	-0.13
1111	-0.142
1111	-0.135
