Data from 3.4A_17C_Absorbance__338__01295.txt Node

Date: Tue Jun 20 15:50:05 CEST 2023
User: Marek
Spectrometer: MAYP115816
Trigger mode: 0
Integration Time (sec): 2.200000E-1
Scans to average: 10
Electric dark correction enabled: true
Nonlinearity correction enabled: true
Boxcar width: 5
XAxis mode: Wavelengths
Number of Pixels in Spectrum: 2068
>>>>>Begin Spectral Data<<<<<
199	-0.766
199	-0.747
200	-0.708
200	-0.652
201	-0.625
201	-0.616
202	-0.598
202	-0.592
203	-0.591
203	-0.584
204	-0.564
204	-0.545
205	-0.522
205	-0.512
205	-0.521
206	-0.522
206	-0.518
207	-0.511
207	-0.516
208	-0.518
208	-0.524
209	-0.525
209	-0.532
210	-0.544
210	-0.551
211	-0.544
211	-0.549
212	-0.557
212	-0.565
213	-0.562
213	-0.557
213	-0.553
214	-0.562
214	-0.566
215	-0.563
215	-0.569
216	-0.579
216	-0.586
217	-0.584
217	-0.584
218	-0.59
218	-0.592
219	-0.599
219	-0.598
220	-0.6
220	-0.607
221	-0.608
221	-0.608
221	-0.598
222	-0.596
222	-0.597
223	-0.592
223	-0.595
224	-0.595
224	-0.594
225	-0.593
225	-0.593
226	-0.591
226	-0.59
227	-0.597
227	-0.609
228	-0.61
228	-0.621
229	-0.625
229	-0.623
229	-0.623
230	-0.616
230	-0.615
231	-0.612
231	-0.608
232	-0.611
232	-0.604
233	-0.605
233	-0.594
234	-0.596
234	-0.59
235	-0.595
235	-0.608
236	-0.615
236	-0.617
236	-0.617
237	-0.615
237	-0.617
238	-0.617
238	-0.617
239	-0.619
239	-0.631
240	-0.622
240	-0.619
241	-0.614
241	-0.617
242	-0.621
242	-0.631
243	-0.631
243	-0.634
243	-0.639
244	-0.635
244	-0.635
245	-0.639
245	-0.642
246	-0.65
246	-0.652
247	-0.659
247	-0.644
248	-0.642
248	-0.644
249	-0.648
249	-0.65
250	-0.649
250	-0.657
250	-0.654
251	-0.657
251	-0.653
252	-0.655
252	-0.668
253	-0.664
253	-0.675
254	-0.681
254	-0.681
255	-0.692
255	-0.69
256	-0.693
256	-0.705
257	-0.714
257	-0.711
258	-0.71
258	-0.717
258	-0.714
259	-0.706
259	-0.723
260	-0.722
260	-0.711
261	-0.724
261	-0.709
262	-0.716
262	-0.716
263	-0.708
263	-0.714
264	-0.724
264	-0.727
265	-0.721
265	-0.722
265	-0.732
266	-0.72
266	-0.721
267	-0.719
267	-0.734
268	-0.74
268	-0.734
269	-0.727
269	-0.742
270	-0.745
270	-0.744
271	-0.758
271	-0.769
272	-0.77
272	-0.774
272	-0.767
273	-0.778
273	-0.792
274	-0.784
274	-0.778
275	-0.774
275	-0.762
276	-0.764
276	-0.77
277	-0.77
277	-0.768
278	-0.772
278	-0.772
278	-0.761
279	-0.769
279	-0.784
280	-0.785
280	-0.794
281	-0.789
281	-0.78
282	-0.787
282	-0.781
283	-0.773
283	-0.788
284	-0.8
284	-0.809
285	-0.789
285	-0.795
285	-0.787
286	-0.793
286	-0.809
287	-0.804
287	-0.802
288	-0.802
288	-0.784
289	-0.784
289	-0.792
290	-0.8
290	-0.787
291	-0.793
291	-0.789
292	-0.771
292	-0.77
292	-0.774
293	-0.763
293	-0.758
294	-0.758
294	-0.745
295	-0.73
295	-0.743
296	-0.756
296	-0.75
297	-0.737
297	-0.741
298	-0.737
298	-0.755
298	-0.759
299	-0.739
299	-0.731
300	-0.729
300	-0.71
301	-0.69
301	-0.691
302	-0.701
302	-0.688
303	-0.681
303	-0.668
304	-0.651
304	-0.654
305	-0.646
305	-0.653
305	-0.669
306	-0.653
306	-0.651
307	-0.644
307	-0.652
308	-0.655
308	-0.653
309	-0.654
309	-0.65
310	-0.647
310	-0.641
311	-0.627
311	-0.646
311	-0.634
312	-0.631
312	-0.621
313	-0.61
313	-0.61
314	-0.615
314	-0.614
315	-0.613
315	-0.605
316	-0.6
316	-0.59
317	-0.582
317	-0.578
318	-0.57
318	-0.571
318	-0.56
319	-0.549
319	-0.54
320	-0.537
320	-0.535
321	-0.532
321	-0.532
322	-0.526
322	-0.519
323	-0.521
323	-0.511
324	-0.507
324	-0.495
324	-0.485
325	-0.47
325	-0.454
326	-0.445
326	-0.421
327	-0.407
327	-0.386
328	-0.355
328	-0.332
329	-0.305
329	-0.278
330	-0.25
330	-0.215
330	-0.179
331	-0.142
331	-0.108
332	-0.075
332	-0.042
333	-0.011
333	0.023
334	0.053
334	0.079
335	0.105
335	0.126
336	0.148
336	0.169
336	0.186
337	0.203
337	0.22
338	0.233
338	0.244
339	0.257
339	0.268
340	0.276
340	0.285
341	0.292
341	0.298
342	0.305
342	0.311
342	0.316
343	0.319
343	0.324
344	0.327
344	0.329
345	0.332
345	0.335
346	0.337
346	0.339
347	0.34
347	0.341
348	0.343
348	0.344
348	0.346
349	0.346
349	0.347
350	0.348
350	0.348
351	0.349
351	0.349
352	0.349
352	0.35
353	0.35
353	0.35
354	0.35
354	0.35
354	0.35
355	0.35
355	0.35
356	0.351
356	0.35
357	0.35
357	0.35
358	0.35
358	0.35
359	0.35
359	0.35
360	0.35
360	0.35
360	0.35
361	0.35
361	0.35
362	0.35
362	0.35
363	0.35
363	0.35
364	0.35
364	0.35
365	0.35
365	0.35
366	0.35
366	0.35
366	0.35
367	0.349
367	0.349
368	0.349
368	0.348
369	0.348
369	0.348
370	0.348
370	0.348
371	0.347
371	0.347
372	0.347
372	0.346
372	0.346
373	0.346
373	0.346
374	0.346
374	0.346
375	0.346
375	0.345
376	0.345
376	0.345
377	0.344
377	0.344
378	0.344
378	0.343
378	0.343
379	0.343
379	0.342
380	0.342
380	0.342
381	0.342
381	0.341
382	0.341
382	0.34
383	0.34
383	0.34
383	0.34
384	0.339
384	0.339
385	0.338
385	0.338
386	0.338
386	0.337
387	0.337
387	0.337
388	0.336
388	0.336
389	0.336
389	0.336
389	0.336
390	0.336
390	0.335
391	0.335
391	0.335
392	0.335
392	0.335
393	0.334
393	0.334
394	0.334
394	0.333
394	0.333
395	0.332
395	0.332
396	0.331
396	0.331
397	0.33
397	0.33
398	0.329
398	0.329
399	0.329
399	0.328
400	0.328
400	0.328
400	0.328
401	0.328
401	0.328
402	0.327
402	0.327
403	0.327
403	0.327
404	0.326
404	0.326
405	0.326
405	0.325
405	0.325
406	0.324
406	0.324
407	0.324
407	0.324
408	0.323
408	0.323
409	0.323
409	0.323
410	0.323
410	0.323
411	0.323
411	0.322
411	0.322
412	0.322
412	0.321
413	0.321
413	0.321
414	0.321
414	0.32
415	0.32
415	0.32
416	0.319
416	0.319
416	0.319
417	0.319
417	0.318
418	0.318
418	0.318
419	0.318
419	0.318
420	0.318
420	0.318
421	0.318
421	0.318
421	0.318
422	0.318
422	0.317
423	0.317
423	0.317
424	0.316
424	0.316
425	0.316
425	0.316
426	0.315
426	0.315
427	0.315
427	0.315
427	0.315
428	0.315
428	0.315
429	0.315
429	0.314
430	0.314
430	0.313
431	0.313
431	0.313
432	0.313
432	0.312
432	0.312
433	0.312
433	0.312
434	0.313
434	0.313
435	0.313
435	0.314
436	0.314
436	0.314
437	0.314
437	0.313
437	0.313
438	0.313
438	0.313
439	0.313
439	0.313
440	0.312
440	0.312
441	0.312
441	0.312
442	0.312
442	0.312
442	0.312
443	0.312
443	0.312
444	0.312
444	0.312
445	0.312
445	0.312
446	0.312
446	0.312
447	0.312
447	0.312
447	0.312
448	0.312
448	0.312
449	0.312
449	0.312
450	0.312
450	0.312
451	0.312
451	0.312
452	0.312
452	0.312
452	0.313
453	0.313
453	0.313
454	0.313
454	0.313
455	0.313
455	0.313
456	0.313
456	0.313
457	0.313
457	0.313
458	0.313
458	0.313
458	0.314
459	0.314
459	0.314
460	0.313
460	0.313
461	0.313
461	0.314
462	0.314
462	0.315
463	0.315
463	0.316
463	0.316
464	0.317
464	0.317
465	0.318
465	0.318
466	0.319
466	0.319
467	0.319
467	0.319
467	0.319
468	0.319
468	0.32
469	0.32
469	0.321
470	0.322
470	0.322
471	0.323
471	0.323
472	0.323
472	0.324
472	0.325
473	0.326
473	0.326
474	0.327
474	0.328
475	0.328
475	0.329
476	0.33
476	0.331
477	0.331
477	0.332
477	0.333
478	0.334
478	0.334
479	0.335
479	0.336
480	0.337
480	0.338
481	0.339
481	0.34
482	0.342
482	0.343
482	0.344
483	0.346
483	0.348
484	0.349
484	0.35
485	0.351
485	0.352
486	0.353
486	0.355
487	0.356
487	0.357
487	0.359
488	0.36
488	0.361
489	0.362
489	0.365
490	0.366
490	0.368
491	0.37
491	0.371
492	0.373
492	0.375
492	0.377
493	0.378
493	0.38
494	0.383
494	0.385
495	0.387
495	0.389
496	0.391
496	0.393
496	0.395
497	0.398
497	0.4
498	0.402
498	0.405
499	0.407
499	0.41
500	0.413
500	0.416
501	0.419
501	0.422
501	0.424
502	0.427
502	0.429
503	0.432
503	0.434
504	0.437
504	0.439
505	0.442
505	0.445
506	0.448
506	0.451
506	0.454
507	0.456
507	0.46
508	0.463
508	0.466
509	0.469
509	0.471
510	0.474
510	0.477
511	0.479
511	0.482
511	0.484
512	0.487
512	0.489
513	0.491
513	0.494
514	0.497
514	0.5
515	0.502
515	0.504
515	0.507
516	0.509
516	0.511
517	0.514
517	0.516
518	0.518
518	0.52
519	0.521
519	0.523
520	0.525
520	0.527
520	0.529
521	0.53
521	0.532
522	0.533
522	0.534
523	0.536
523	0.537
524	0.538
524	0.539
524	0.54
525	0.541
525	0.541
526	0.542
526	0.542
527	0.543
527	0.543
528	0.543
528	0.542
529	0.542
529	0.542
529	0.542
530	0.541
530	0.541
531	0.541
531	0.541
532	0.54
532	0.539
533	0.539
533	0.538
533	0.538
534	0.537
534	0.536
535	0.534
535	0.533
536	0.532
536	0.531
537	0.529
537	0.528
538	0.526
538	0.525
538	0.523
539	0.521
539	0.519
540	0.517
540	0.514
541	0.512
541	0.51
542	0.507
542	0.505
542	0.502
543	0.499
543	0.497
544	0.494
544	0.492
545	0.49
545	0.487
546	0.485
546	0.482
547	0.479
547	0.476
547	0.473
548	0.471
548	0.467
549	0.464
549	0.461
550	0.458
550	0.455
551	0.451
551	0.447
551	0.444
552	0.441
552	0.438
553	0.435
553	0.433
554	0.43
554	0.426
555	0.423
555	0.419
556	0.416
556	0.413
556	0.41
557	0.407
557	0.405
558	0.402
558	0.399
559	0.396
559	0.393
560	0.39
560	0.387
560	0.385
561	0.382
561	0.38
562	0.377
562	0.375
563	0.372
563	0.369
564	0.367
564	0.365
564	0.363
565	0.361
565	0.359
566	0.356
566	0.354
567	0.352
567	0.349
568	0.347
568	0.344
568	0.341
569	0.338
569	0.336
570	0.332
570	0.328
571	0.326
571	0.324
572	0.321
572	0.318
573	0.316
573	0.313
573	0.311
574	0.309
574	0.308
575	0.306
575	0.305
576	0.304
576	0.301
577	0.299
577	0.297
577	0.296
578	0.295
578	0.294
579	0.294
579	0.293
580	0.29
580	0.287
581	0.284
581	0.283
581	0.282
582	0.281
582	0.28
583	0.278
583	0.276
584	0.272
584	0.269
585	0.268
585	0.267
585	0.265
586	0.263
586	0.261
587	0.259
587	0.257
588	0.255
588	0.253
589	0.252
589	0.251
590	0.25
590	0.249
590	0.249
591	0.248
591	0.247
592	0.245
592	0.243
593	0.242
593	0.241
594	0.239
594	0.238
594	0.237
595	0.236
595	0.234
596	0.232
596	0.232
597	0.233
597	0.232
598	0.231
598	0.23
598	0.229
599	0.229
599	0.227
600	0.226
600	0.225
601	0.224
601	0.223
602	0.221
602	0.22
602	0.219
603	0.218
603	0.218
604	0.217
604	0.216
605	0.216
605	0.216
606	0.214
606	0.212
606	0.211
607	0.21
607	0.21
608	0.208
608	0.207
609	0.206
609	0.205
610	0.204
610	0.202
610	0.202
611	0.201
611	0.201
612	0.201
612	0.2
613	0.2
613	0.2
614	0.198
614	0.197
614	0.196
615	0.195
615	0.194
616	0.194
616	0.193
617	0.192
617	0.19
618	0.189
618	0.188
618	0.188
619	0.187
619	0.187
620	0.187
620	0.185
621	0.184
621	0.183
622	0.181
622	0.181
622	0.179
623	0.178
623	0.178
624	0.177
624	0.176
625	0.174
625	0.174
626	0.172
626	0.171
626	0.17
627	0.169
627	0.168
628	0.167
628	0.165
629	0.164
629	0.162
630	0.16
630	0.158
630	0.157
631	0.155
631	0.153
632	0.151
632	0.149
633	0.147
633	0.145
634	0.143
634	0.141
634	0.14
635	0.137
635	0.135
636	0.133
636	0.131
637	0.129
637	0.126
638	0.124
638	0.121
638	0.118
639	0.115
639	0.112
640	0.109
640	0.105
641	0.102
641	0.098
642	0.095
642	0.092
642	0.088
643	0.084
643	0.079
644	0.075
644	0.07
645	0.066
645	0.061
646	0.056
646	0.05
646	0.044
647	0.037
647	0.031
648	0.025
648	0.019
649	0.012
649	0.006
650	0
650	-0.007
650	-0.013
651	-0.021
651	-0.032
652	-0.043
652	-0.056
653	-0.067
653	-0.077
653	-0.072
654	-0.055
654	-0.05
655	-0.054
655	-0.059
656	-0.065
656	-0.07
657	-0.075
657	-0.079
657	-0.084
658	-0.09
658	-0.118
659	-0.197
659	-0.281
660	-0.318
660	-0.342
661	-0.367
661	-0.395
661	-0.425
662	-0.451
662	-0.482
663	-0.515
663	-0.551
664	-0.587
664	-0.627
665	-0.671
665	-0.717
665	-0.761
666	-0.81
666	-0.863
667	-0.918
667	-0.979
668	-1.038
668	-1.106
669	-1.174
669	-1.248
669	-1.328
670	-1.413
670	-1.54
671	-1.768
671	-2.146
672	-2.361
672	-2.51
672	-2.623
673	-2.714
673	-2.791
674	-2.828
674	-2.841
675	-2.855
675	-2.858
676	-2.848
676	-2.782
676	-2.705
677	-2.61
677	-2.49
678	-2.303
678	-1.942
679	-1.641
679	-1.506
680	-1.412
680	-1.341
680	-1.279
681	-1.234
681	-1.185
682	-1.147
682	-1.106
683	-1.066
683	-1.045
684	-1.018
684	-1
684	-0.979
685	-0.958
685	-0.949
686	-0.928
686	-0.916
687	-0.906
687	-0.895
687	-0.895
688	-0.879
688	-0.872
689	-0.877
689	-0.874
690	-0.862
690	-0.852
691	-0.847
691	-0.85
691	-0.85
692	-0.85
692	-0.847
693	-0.854
693	-0.865
694	-0.844
694	-0.844
695	-0.847
695	-0.841
695	-0.849
696	-0.855
696	-0.848
697	-0.842
697	-0.839
698	-0.834
698	-0.827
698	-0.84
699	-0.837
699	-0.837
700	-0.856
700	-0.851
701	-0.839
701	-0.833
702	-0.831
702	-0.831
702	-0.832
703	-0.821
703	-0.811
704	-0.818
704	-0.822
705	-0.81
705	-0.81
705	-0.803
706	-0.794
706	-0.793
707	-0.804
707	-0.806
708	-0.805
708	-0.802
709	-0.803
709	-0.799
709	-0.795
710	-0.802
710	-0.805
711	-0.806
711	-0.805
712	-0.796
712	-0.795
713	-0.799
713	-0.799
713	-0.779
714	-0.782
714	-0.784
715	-0.776
715	-0.786
716	-0.802
716	-0.812
716	-0.811
717	-0.816
717	-0.808
718	-0.804
718	-0.805
719	-0.801
719	-0.795
720	-0.789
720	-0.783
720	-0.779
721	-0.77
721	-0.774
722	-0.772
722	-0.768
723	-0.784
723	-0.797
723	-0.806
724	-0.805
724	-0.811
725	-0.806
725	-0.81
726	-0.813
726	-0.804
727	-0.807
727	-0.815
727	-0.805
728	-0.791
728	-0.789
729	-0.791
729	-0.794
730	-0.799
730	-0.789
730	-0.794
731	-0.797
731	-0.796
732	-0.798
732	-0.793
733	-0.809
733	-0.815
734	-0.824
734	-0.813
734	-0.795
735	-0.786
735	-0.784
736	-0.784
736	-0.777
737	-0.777
737	-0.768
737	-0.762
738	-0.747
738	-0.735
739	-0.739
739	-0.741
740	-0.755
740	-0.753
741	-0.761
741	-0.771
741	-0.781
742	-0.785
742	-0.801
743	-0.808
743	-0.81
744	-0.81
744	-0.818
744	-0.81
745	-0.821
745	-0.811
746	-0.807
746	-0.799
747	-0.802
747	-0.791
748	-0.79
748	-0.795
748	-0.799
749	-0.791
749	-0.798
750	-0.788
750	-0.789
751	-0.787
751	-0.782
751	-0.794
752	-0.799
752	-0.803
753	-0.804
753	-0.795
754	-0.815
754	-0.814
754	-0.821
755	-0.822
755	-0.814
756	-0.818
756	-0.804
757	-0.797
757	-0.788
758	-0.789
758	-0.788
758	-0.783
759	-0.789
759	-0.791
760	-0.79
760	-0.791
761	-0.781
761	-0.788
761	-0.788
762	-0.796
762	-0.797
763	-0.796
763	-0.8
764	-0.797
764	-0.793
764	-0.797
765	-0.798
765	-0.805
766	-0.808
766	-0.808
767	-0.819
767	-0.815
768	-0.815
768	-0.809
768	-0.804
769	-0.807
769	-0.816
770	-0.825
770	-0.83
771	-0.826
771	-0.825
771	-0.829
772	-0.833
772	-0.853
773	-0.853
773	-0.854
774	-0.851
774	-0.833
775	-0.82
775	-0.819
775	-0.822
776	-0.833
776	-0.831
777	-0.831
777	-0.815
778	-0.824
778	-0.83
778	-0.83
779	-0.84
779	-0.856
780	-0.851
780	-0.86
781	-0.849
781	-0.84
781	-0.854
782	-0.874
782	-0.876
783	-0.875
783	-0.885
784	-0.889
784	-0.883
784	-0.906
785	-0.898
785	-0.91
786	-0.912
786	-0.906
787	-0.894
787	-0.902
788	-0.896
788	-0.89
788	-0.89
789	-0.89
789	-0.878
790	-0.879
790	-0.864
791	-0.872
791	-0.867
791	-0.862
792	-0.856
792	-0.86
793	-0.862
793	-0.849
794	-0.841
794	-0.834
794	-0.841
795	-0.861
795	-0.847
796	-0.85
796	-0.848
797	-0.843
797	-0.832
797	-0.825
798	-0.846
798	-0.851
799	-0.852
799	-0.836
800	-0.83
800	-0.837
801	-0.836
801	-0.839
801	-0.835
802	-0.835
802	-0.835
803	-0.828
803	-0.82
804	-0.824
804	-0.833
804	-0.817
805	-0.799
805	-0.791
806	-0.792
806	-0.788
807	-0.791
807	-0.793
807	-0.777
808	-0.772
808	-0.766
809	-0.761
809	-0.762
810	-0.765
810	-0.761
810	-0.756
811	-0.759
811	-0.75
812	-0.741
812	-0.743
813	-0.746
813	-0.748
813	-0.743
814	-0.744
814	-0.749
815	-0.739
815	-0.739
816	-0.735
816	-0.75
817	-0.761
817	-0.765
817	-0.777
818	-0.771
818	-0.767
819	-0.777
819	-0.775
820	-0.787
820	-0.783
820	-0.782
821	-0.777
821	-0.775
822	-0.774
822	-0.761
823	-0.773
823	-0.773
823	-0.767
824	-0.766
824	-0.775
825	-0.775
825	-0.773
826	-0.771
826	-0.767
826	-0.766
827	-0.766
827	-0.756
828	-0.755
828	-0.749
829	-0.743
829	-0.728
829	-0.726
830	-0.725
830	-0.71
831	-0.704
831	-0.693
832	-0.685
832	-0.68
832	-0.673
833	-0.672
833	-0.676
834	-0.671
834	-0.665
835	-0.656
835	-0.656
835	-0.649
836	-0.646
836	-0.641
837	-0.631
837	-0.621
838	-0.609
838	-0.594
839	-0.587
839	-0.574
839	-0.566
840	-0.564
840	-0.554
841	-0.544
841	-0.539
842	-0.53
842	-0.518
842	-0.515
843	-0.512
843	-0.508
844	-0.506
844	-0.493
845	-0.479
845	-0.47
845	-0.457
846	-0.445
846	-0.433
847	-0.424
847	-0.412
848	-0.397
848	-0.381
848	-0.368
849	-0.358
849	-0.348
850	-0.337
850	-0.33
851	-0.317
851	-0.303
851	-0.293
852	-0.279
852	-0.267
853	-0.257
853	-0.247
854	-0.236
854	-0.225
854	-0.213
855	-0.201
855	-0.195
856	-0.187
856	-0.179
857	-0.172
857	-0.165
857	-0.152
858	-0.142
858	-0.135
859	-0.124
859	-0.114
860	-0.105
860	-0.091
860	-0.081
861	-0.073
861	-0.063
862	-0.055
862	-0.049
863	-0.042
863	-0.034
863	-0.028
864	-0.023
864	-0.016
865	-0.01
865	-0.005
866	-0
866	0.005
866	0.009
867	0.014
867	0.018
868	0.022
868	0.026
869	0.03
869	0.033
869	0.035
870	0.037
870	0.039
871	0.041
871	0.042
872	0.042
872	0.043
872	0.043
873	0.043
873	0.043
874	0.043
874	0.042
875	0.042
875	0.042
875	0.041
876	0.041
876	0.041
877	0.041
877	0.04
878	0.04
878	0.039
878	0.039
879	0.038
879	0.038
880	0.037
880	0.036
881	0.035
881	0.035
881	0.034
882	0.033
882	0.032
883	0.032
883	0.031
884	0.031
884	0.031
884	0.032
885	0.032
885	0.032
886	0.032
886	0.032
887	0.032
887	0.031
887	0.031
888	0.03
888	0.03
889	0.029
889	0.028
890	0.027
890	0.026
890	0.026
891	0.026
891	0.025
892	0.026
892	0.027
893	0.027
893	0.027
893	0.027
894	0.028
894	0.027
895	0.027
895	0.028
895	0.028
896	0.028
896	0.029
897	0.029
897	0.029
898	0.029
898	0.029
898	0.03
899	0.031
899	0.031
900	0.031
900	0.031
901	0.031
901	0.031
901	0.031
902	0.031
902	0.031
903	0.031
903	0.03
904	0.03
904	0.029
904	0.029
905	0.029
905	0.029
906	0.03
906	0.03
907	0.03
907	0.031
907	0.031
908	0.032
908	0.033
909	0.035
909	0.036
910	0.036
910	0.037
910	0.038
911	0.039
911	0.04
912	0.042
912	0.043
913	0.044
913	0.045
913	0.046
914	0.046
914	0.046
915	0.046
915	0.046
916	0.045
916	0.044
916	0.043
917	0.042
917	0.041
918	0.041
918	0.04
918	0.039
919	0.038
919	0.037
920	0.037
920	0.036
921	0.036
921	0.036
921	0.036
922	0.035
922	0.035
923	0.035
923	0.035
924	0.034
924	0.034
924	0.034
925	0.034
925	0.034
926	0.033
926	0.033
927	0.033
927	0.033
927	0.033
928	0.033
928	0.033
929	0.034
929	0.034
930	0.035
930	0.035
930	0.036
931	0.036
931	0.037
932	0.038
932	0.038
933	0.038
933	0.037
933	0.037
934	0.036
934	0.035
935	0.034
935	0.033
935	0.032
936	0.03
936	0.029
937	0.028
937	0.027
938	0.026
938	0.025
938	0.024
939	0.023
939	0.023
940	0.023
940	0.023
941	0.022
941	0.022
941	0.022
942	0.021
942	0.021
943	0.021
943	0.021
944	0.02
944	0.02
944	0.02
945	0.02
945	0.02
946	0.02
946	0.02
946	0.021
947	0.021
947	0.021
948	0.021
948	0.021
949	0.021
949	0.022
949	0.022
950	0.022
950	0.023
951	0.023
951	0.023
952	0.023
952	0.024
952	0.024
953	0.024
953	0.025
954	0.025
954	0.025
955	0.025
955	0.025
955	0.025
956	0.025
956	0.025
957	0.024
957	0.023
957	0.023
958	0.022
958	0.022
959	0.022
959	0.022
960	0.022
960	0.021
960	0.022
961	0.022
961	0.022
962	0.023
962	0.023
963	0.024
963	0.024
963	0.024
964	0.024
964	0.024
965	0.025
965	0.025
966	0.025
966	0.025
966	0.026
967	0.026
967	0.025
968	0.025
968	0.025
968	0.024
969	0.024
969	0.024
970	0.023
970	0.022
971	0.021
971	0.02
971	0.02
972	0.019
972	0.019
973	0.019
973	0.019
974	0.019
974	0.02
974	0.021
975	0.022
975	0.022
976	0.023
976	0.024
976	0.024
977	0.024
977	0.024
978	0.024
978	0.023
979	0.022
979	0.022
979	0.021
980	0.02
980	0.019
981	0.018
981	0.018
982	0.017
982	0.017
982	0.017
983	0.016
983	0.016
984	0.016
984	0.015
984	0.015
985	0.015
985	0.015
986	0.014
986	0.014
987	0.013
987	0.012
987	0.012
988	0.012
988	0.011
989	0.011
989	0.011
990	0.01
990	0.01
990	0.01
991	0.01
991	0.01
992	0.01
992	0.01
992	0.01
993	0.01
993	0.01
994	0.01
994	0.01
995	0.01
995	0.009
995	0.009
996	0.008
996	0.008
997	0.007
997	0.007
997	0.007
998	0.007
998	0.007
999	0.007
999	0.007
1000	0.007
1000	0.007
1000	0.007
1001	0.007
1001	0.007
1002	0.007
1002	0.007
1003	0.007
1003	0.006
1003	0.006
1004	0.006
1004	0.005
1005	0.004
1005	0.003
1005	0.002
1006	0.002
1006	0.001
1007	0.001
1007	-0
1008	-0.001
1008	-0.001
1008	-0.001
1009	-0.001
1009	-0.001
1010	-0
1010	0
1010	0.001
1011	0.001
1011	0.001
1012	0.002
1012	0.003
1013	0.003
1013	0.003
1013	0.004
1014	0.004
1014	0.004
1015	0.004
1015	0.004
1016	0.004
1016	0.004
1016	0.004
1017	0.004
1017	0.004
1018	0.004
1018	0.004
1018	0.004
1019	0.004
1019	0.004
1020	0.004
1020	0.003
1021	0.003
1021	0.003
1021	0.002
1022	0.001
1022	0.001
1023	0.001
1023	0
1023	0
1024	0
1024	-0
1025	-0
1025	-0
1026	-0
1026	-0
1026	-0.001
1027	-0.001
1027	-0
1028	-0
1028	0
1028	-0
1029	-0.001
1029	-0
1030	-0.001
1030	-0.001
1031	-0.001
1031	-0
1031	-0
1032	-0.001
1032	-0.001
1033	-0.001
1033	-0.001
1033	-0.001
1034	-0.002
1034	-0.002
1035	-0.002
1035	-0.003
1036	-0.003
1036	-0.004
1036	-0.004
1037	-0.004
1037	-0.003
1038	-0.003
1038	-0.003
1039	-0.002
1039	-0.001
1039	-0
1040	-0
1040	0.001
1041	0.001
1041	0.001
1041	0.001
1042	0.001
1042	0
1043	-0
1043	-0.001
1044	-0.001
1044	-0.002
1044	-0.003
1045	-0.004
1045	-0.004
1046	-0.005
1046	-0.006
1046	-0.006
1047	-0.007
1047	-0.007
1048	-0.007
1048	-0.008
1049	-0.008
1049	-0.009
1049	-0.009
1050	-0.01
1050	-0.011
1051	-0.011
1051	-0.012
1051	-0.013
1052	-0.014
1052	-0.015
1053	-0.015
1053	-0.016
1053	-0.016
1054	-0.016
1054	-0.016
1055	-0.016
1055	-0.015
1056	-0.016
1056	-0.016
1056	-0.016
1057	-0.016
1057	-0.016
1058	-0.016
1058	-0.017
1058	-0.017
1059	-0.017
1059	-0.017
1060	-0.018
1060	-0.017
1061	-0.017
1061	-0.017
1061	-0.016
1062	-0.017
1062	-0.016
1063	-0.016
1063	-0.017
1063	-0.017
1064	-0.017
1064	-0.017
1065	-0.017
1065	-0.018
1066	-0.018
1066	-0.019
1066	-0.02
1067	-0.02
1067	-0.02
1068	-0.021
1068	-0.021
1068	-0.022
1069	-0.023
1069	-0.023
1070	-0.023
1070	-0.024
1071	-0.024
1071	-0.023
1071	-0.024
1072	-0.024
1072	-0.023
1073	-0.023
1073	-0.023
1073	-0.022
1074	-0.022
1074	-0.022
1075	-0.022
1075	-0.022
1076	-0.023
1076	-0.023
1076	-0.024
1077	-0.025
1077	-0.026
1078	-0.027
1078	-0.028
1078	-0.028
1079	-0.029
1079	-0.03
1080	-0.031
1080	-0.032
1080	-0.033
1081	-0.033
1081	-0.034
1082	-0.034
1082	-0.035
1083	-0.036
1083	-0.036
1083	-0.037
1084	-0.038
1084	-0.038
1085	-0.039
1085	-0.039
1085	-0.039
1086	-0.04
1086	-0.041
1087	-0.042
1087	-0.042
1088	-0.044
1088	-0.044
1088	-0.045
1089	-0.046
1089	-0.047
1090	-0.049
1090	-0.049
1090	-0.051
1091	-0.052
1091	-0.053
1092	-0.053
1092	-0.053
1092	-0.055
1093	-0.056
1093	-0.057
1094	-0.057
1094	-0.058
1095	-0.06
1095	-0.06
1095	-0.061
1096	-0.062
1096	-0.064
1097	-0.065
1097	-0.066
1097	-0.068
1098	-0.069
1098	-0.071
1099	-0.072
1099	-0.073
1100	-0.075
1100	-0.078
1100	-0.08
1101	-0.083
1101	-0.086
1102	-0.088
1102	-0.09
1102	-0.092
1103	-0.095
1103	-0.098
1104	-0.101
1104	-0.104
1104	-0.105
1105	-0.107
1105	-0.11
1106	-0.115
1106	-0.117
1107	-0.123
1107	-0.127
1107	-0.131
1108	-0.133
1108	-0.134
1109	-0.138
1109	-0.143
1109	-0.147
1110	-0.148
1110	-0.151
1111	-0.159
1111	-0.156
