Data from 3.4A_17C_Absorbance__370__01327.txt Node

Date: Tue Jun 20 15:51:16 CEST 2023
User: Marek
Spectrometer: MAYP115816
Trigger mode: 0
Integration Time (sec): 2.200000E-1
Scans to average: 10
Electric dark correction enabled: true
Nonlinearity correction enabled: true
Boxcar width: 5
XAxis mode: Wavelengths
Number of Pixels in Spectrum: 2068
>>>>>Begin Spectral Data<<<<<
199	-0.745
199	-0.732
200	-0.697
200	-0.64
201	-0.614
201	-0.603
202	-0.59
202	-0.585
203	-0.584
203	-0.577
204	-0.558
204	-0.542
205	-0.519
205	-0.51
205	-0.521
206	-0.524
206	-0.523
207	-0.514
207	-0.521
208	-0.522
208	-0.526
209	-0.527
209	-0.534
210	-0.548
210	-0.554
211	-0.547
211	-0.549
212	-0.554
212	-0.562
213	-0.558
213	-0.554
213	-0.555
214	-0.563
214	-0.566
215	-0.562
215	-0.567
216	-0.577
216	-0.582
217	-0.581
217	-0.583
218	-0.589
218	-0.59
219	-0.596
219	-0.596
220	-0.598
220	-0.606
221	-0.606
221	-0.606
221	-0.599
222	-0.598
222	-0.596
223	-0.592
223	-0.592
224	-0.593
224	-0.59
225	-0.587
225	-0.586
226	-0.586
226	-0.586
227	-0.595
227	-0.605
228	-0.608
228	-0.617
229	-0.624
229	-0.622
229	-0.622
230	-0.618
230	-0.618
231	-0.615
231	-0.609
232	-0.611
232	-0.606
233	-0.606
233	-0.594
234	-0.594
234	-0.589
235	-0.593
235	-0.604
236	-0.61
236	-0.611
236	-0.612
237	-0.61
237	-0.611
238	-0.612
238	-0.614
239	-0.616
239	-0.627
240	-0.62
240	-0.616
241	-0.611
241	-0.614
242	-0.616
242	-0.624
243	-0.623
243	-0.625
243	-0.63
244	-0.626
244	-0.626
245	-0.63
245	-0.636
246	-0.645
246	-0.649
247	-0.657
247	-0.645
248	-0.644
248	-0.647
249	-0.652
249	-0.654
250	-0.653
250	-0.659
250	-0.656
251	-0.658
251	-0.654
252	-0.656
252	-0.668
253	-0.664
253	-0.676
254	-0.681
254	-0.682
255	-0.692
255	-0.692
256	-0.694
256	-0.705
257	-0.716
257	-0.713
258	-0.713
258	-0.72
258	-0.717
259	-0.709
259	-0.727
260	-0.725
260	-0.713
261	-0.723
261	-0.708
262	-0.713
262	-0.714
263	-0.705
263	-0.711
264	-0.719
264	-0.721
265	-0.712
265	-0.717
265	-0.727
266	-0.719
266	-0.721
267	-0.718
267	-0.734
268	-0.741
268	-0.735
269	-0.73
269	-0.745
270	-0.749
270	-0.747
271	-0.762
271	-0.773
272	-0.772
272	-0.776
272	-0.768
273	-0.778
273	-0.793
274	-0.782
274	-0.776
275	-0.774
275	-0.76
276	-0.761
276	-0.767
277	-0.769
277	-0.766
278	-0.77
278	-0.767
278	-0.757
279	-0.766
279	-0.78
280	-0.781
280	-0.793
281	-0.787
281	-0.782
282	-0.787
282	-0.781
283	-0.775
283	-0.789
284	-0.801
284	-0.811
285	-0.792
285	-0.798
285	-0.789
286	-0.794
286	-0.808
287	-0.803
287	-0.803
288	-0.803
288	-0.786
289	-0.786
289	-0.793
290	-0.801
290	-0.791
291	-0.795
291	-0.794
292	-0.774
292	-0.773
292	-0.775
293	-0.764
293	-0.758
294	-0.758
294	-0.743
295	-0.723
295	-0.735
296	-0.748
296	-0.743
297	-0.732
297	-0.736
298	-0.734
298	-0.75
298	-0.752
299	-0.734
299	-0.727
300	-0.725
300	-0.706
301	-0.687
301	-0.688
302	-0.698
302	-0.682
303	-0.675
303	-0.665
304	-0.65
304	-0.655
305	-0.647
305	-0.656
305	-0.672
306	-0.657
306	-0.657
307	-0.649
307	-0.662
308	-0.663
308	-0.658
309	-0.66
309	-0.654
310	-0.654
310	-0.647
311	-0.633
311	-0.652
311	-0.64
312	-0.639
312	-0.625
313	-0.617
313	-0.618
314	-0.624
314	-0.62
315	-0.616
315	-0.611
316	-0.606
316	-0.594
317	-0.586
317	-0.582
318	-0.573
318	-0.571
318	-0.56
319	-0.549
319	-0.543
320	-0.542
320	-0.54
321	-0.535
321	-0.534
322	-0.527
322	-0.518
323	-0.521
323	-0.511
324	-0.508
324	-0.498
324	-0.486
325	-0.47
325	-0.452
326	-0.444
326	-0.42
327	-0.407
327	-0.386
328	-0.355
328	-0.333
329	-0.307
329	-0.277
330	-0.249
330	-0.213
330	-0.178
331	-0.141
331	-0.108
332	-0.074
332	-0.041
333	-0.009
333	0.024
334	0.054
334	0.077
335	0.104
335	0.123
336	0.145
336	0.165
336	0.182
337	0.199
337	0.215
338	0.228
338	0.238
339	0.251
339	0.262
340	0.27
340	0.278
341	0.286
341	0.291
342	0.298
342	0.304
342	0.309
343	0.312
343	0.317
344	0.32
344	0.323
345	0.327
345	0.329
346	0.331
346	0.332
347	0.334
347	0.336
348	0.337
348	0.338
348	0.339
349	0.339
349	0.34
350	0.341
350	0.342
351	0.342
351	0.343
352	0.343
352	0.343
353	0.343
353	0.343
354	0.344
354	0.343
354	0.344
355	0.343
355	0.343
356	0.343
356	0.344
357	0.345
357	0.345
358	0.345
358	0.345
359	0.344
359	0.344
360	0.344
360	0.344
360	0.344
361	0.344
361	0.344
362	0.343
362	0.343
363	0.343
363	0.343
364	0.343
364	0.343
365	0.343
365	0.343
366	0.343
366	0.342
366	0.342
367	0.343
367	0.342
368	0.342
368	0.341
369	0.341
369	0.341
370	0.341
370	0.34
371	0.34
371	0.34
372	0.34
372	0.34
372	0.34
373	0.339
373	0.339
374	0.339
374	0.339
375	0.339
375	0.339
376	0.338
376	0.338
377	0.338
377	0.337
378	0.337
378	0.337
378	0.336
379	0.336
379	0.336
380	0.335
380	0.335
381	0.335
381	0.335
382	0.334
382	0.334
383	0.334
383	0.333
383	0.333
384	0.333
384	0.332
385	0.332
385	0.332
386	0.332
386	0.331
387	0.331
387	0.331
388	0.331
388	0.33
389	0.33
389	0.33
389	0.33
390	0.33
390	0.33
391	0.329
391	0.329
392	0.329
392	0.329
393	0.329
393	0.329
394	0.328
394	0.327
394	0.327
395	0.327
395	0.326
396	0.326
396	0.325
397	0.325
397	0.324
398	0.323
398	0.323
399	0.323
399	0.323
400	0.322
400	0.322
400	0.322
401	0.322
401	0.321
402	0.321
402	0.321
403	0.321
403	0.321
404	0.32
404	0.32
405	0.319
405	0.319
405	0.318
406	0.318
406	0.318
407	0.318
407	0.318
408	0.317
408	0.317
409	0.317
409	0.317
410	0.317
410	0.317
411	0.317
411	0.317
411	0.317
412	0.316
412	0.315
413	0.315
413	0.315
414	0.314
414	0.314
415	0.314
415	0.314
416	0.313
416	0.313
416	0.313
417	0.313
417	0.313
418	0.313
418	0.313
419	0.313
419	0.313
420	0.313
420	0.313
421	0.312
421	0.312
421	0.312
422	0.312
422	0.312
423	0.312
423	0.311
424	0.311
424	0.311
425	0.31
425	0.31
426	0.31
426	0.31
427	0.31
427	0.31
427	0.31
428	0.31
428	0.31
429	0.31
429	0.31
430	0.309
430	0.309
431	0.309
431	0.308
432	0.308
432	0.308
432	0.307
433	0.307
433	0.307
434	0.307
434	0.308
435	0.308
435	0.308
436	0.308
436	0.309
437	0.309
437	0.308
437	0.308
438	0.308
438	0.308
439	0.307
439	0.307
440	0.307
440	0.307
441	0.307
441	0.307
442	0.307
442	0.307
442	0.307
443	0.307
443	0.307
444	0.307
444	0.307
445	0.307
445	0.307
446	0.307
446	0.306
447	0.306
447	0.307
447	0.306
448	0.306
448	0.306
449	0.306
449	0.307
450	0.307
450	0.307
451	0.307
451	0.307
452	0.306
452	0.306
452	0.307
453	0.307
453	0.307
454	0.307
454	0.307
455	0.307
455	0.308
456	0.308
456	0.308
457	0.308
457	0.308
458	0.308
458	0.308
458	0.308
459	0.308
459	0.308
460	0.308
460	0.308
461	0.308
461	0.308
462	0.309
462	0.309
463	0.31
463	0.31
463	0.311
464	0.311
464	0.311
465	0.312
465	0.312
466	0.312
466	0.313
467	0.313
467	0.313
467	0.313
468	0.313
468	0.314
469	0.314
469	0.315
470	0.316
470	0.316
471	0.317
471	0.317
472	0.317
472	0.318
472	0.318
473	0.319
473	0.32
474	0.321
474	0.321
475	0.322
475	0.323
476	0.323
476	0.324
477	0.325
477	0.326
477	0.327
478	0.327
478	0.328
479	0.329
479	0.33
480	0.331
480	0.332
481	0.333
481	0.333
482	0.335
482	0.336
482	0.337
483	0.339
483	0.34
484	0.341
484	0.342
485	0.343
485	0.345
486	0.346
486	0.347
487	0.348
487	0.35
487	0.351
488	0.352
488	0.353
489	0.355
489	0.357
490	0.358
490	0.36
491	0.362
491	0.364
492	0.365
492	0.367
492	0.368
493	0.37
493	0.372
494	0.374
494	0.376
495	0.378
495	0.38
496	0.382
496	0.384
496	0.387
497	0.389
497	0.391
498	0.393
498	0.396
499	0.398
499	0.401
500	0.404
500	0.407
501	0.41
501	0.412
501	0.414
502	0.417
502	0.419
503	0.422
503	0.424
504	0.426
504	0.429
505	0.431
505	0.434
506	0.437
506	0.44
506	0.443
507	0.445
507	0.448
508	0.451
508	0.454
509	0.457
509	0.46
510	0.463
510	0.465
511	0.468
511	0.47
511	0.472
512	0.475
512	0.477
513	0.479
513	0.482
514	0.485
514	0.488
515	0.49
515	0.492
515	0.494
516	0.497
516	0.499
517	0.501
517	0.503
518	0.506
518	0.507
519	0.509
519	0.51
520	0.512
520	0.514
520	0.515
521	0.517
521	0.518
522	0.519
522	0.521
523	0.522
523	0.523
524	0.524
524	0.525
524	0.526
525	0.527
525	0.528
526	0.528
526	0.529
527	0.529
527	0.53
528	0.529
528	0.529
529	0.529
529	0.529
529	0.529
530	0.528
530	0.528
531	0.528
531	0.528
532	0.527
532	0.526
533	0.526
533	0.525
533	0.524
534	0.523
534	0.522
535	0.521
535	0.52
536	0.519
536	0.517
537	0.516
537	0.515
538	0.514
538	0.512
538	0.51
539	0.508
539	0.507
540	0.504
540	0.502
541	0.5
541	0.498
542	0.495
542	0.493
542	0.49
543	0.488
543	0.486
544	0.483
544	0.481
545	0.479
545	0.477
546	0.474
546	0.471
547	0.468
547	0.465
547	0.462
548	0.46
548	0.457
549	0.454
549	0.451
550	0.448
550	0.445
551	0.441
551	0.438
551	0.435
552	0.432
552	0.43
553	0.427
553	0.424
554	0.421
554	0.418
555	0.415
555	0.412
556	0.409
556	0.406
556	0.403
557	0.401
557	0.398
558	0.395
558	0.392
559	0.389
559	0.386
560	0.383
560	0.38
560	0.378
561	0.376
561	0.374
562	0.372
562	0.369
563	0.367
563	0.365
564	0.362
564	0.36
564	0.359
565	0.356
565	0.354
566	0.352
566	0.35
567	0.347
567	0.345
568	0.343
568	0.34
568	0.338
569	0.335
569	0.332
570	0.329
570	0.326
571	0.324
571	0.321
572	0.319
572	0.316
573	0.313
573	0.311
573	0.308
574	0.307
574	0.305
575	0.304
575	0.303
576	0.302
576	0.299
577	0.297
577	0.296
577	0.295
578	0.294
578	0.293
579	0.293
579	0.292
580	0.289
580	0.286
581	0.283
581	0.282
581	0.281
582	0.28
582	0.279
583	0.278
583	0.276
584	0.272
584	0.269
585	0.268
585	0.267
585	0.266
586	0.264
586	0.262
587	0.26
587	0.257
588	0.255
588	0.254
589	0.253
589	0.252
590	0.251
590	0.25
590	0.25
591	0.25
591	0.248
592	0.246
592	0.245
593	0.244
593	0.243
594	0.241
594	0.24
594	0.239
595	0.238
595	0.236
596	0.235
596	0.235
597	0.236
597	0.235
598	0.233
598	0.233
598	0.232
599	0.231
599	0.23
600	0.229
600	0.228
601	0.227
601	0.226
602	0.224
602	0.223
602	0.222
603	0.221
603	0.221
604	0.221
604	0.22
605	0.22
605	0.219
606	0.218
606	0.216
606	0.215
607	0.214
607	0.214
608	0.213
608	0.211
609	0.21
609	0.21
610	0.208
610	0.207
610	0.206
611	0.206
611	0.206
612	0.205
612	0.205
613	0.205
613	0.204
614	0.203
614	0.202
614	0.201
615	0.2
615	0.199
616	0.198
616	0.197
617	0.197
617	0.195
618	0.194
618	0.193
618	0.192
619	0.192
619	0.192
620	0.191
620	0.19
621	0.189
621	0.188
622	0.187
622	0.186
622	0.184
623	0.183
623	0.183
624	0.183
624	0.181
625	0.18
625	0.179
626	0.178
626	0.177
626	0.176
627	0.175
627	0.174
628	0.172
628	0.171
629	0.169
629	0.168
630	0.166
630	0.164
630	0.163
631	0.161
631	0.159
632	0.157
632	0.155
633	0.153
633	0.151
634	0.149
634	0.147
634	0.145
635	0.143
635	0.141
636	0.139
636	0.137
637	0.135
637	0.132
638	0.13
638	0.127
638	0.124
639	0.121
639	0.117
640	0.114
640	0.111
641	0.107
641	0.104
642	0.1
642	0.097
642	0.093
643	0.089
643	0.084
644	0.08
644	0.075
645	0.07
645	0.066
646	0.061
646	0.055
646	0.048
647	0.042
647	0.036
648	0.03
648	0.023
649	0.017
649	0.01
650	0.004
650	-0.002
650	-0.01
651	-0.018
651	-0.029
652	-0.041
652	-0.053
653	-0.064
653	-0.074
653	-0.069
654	-0.051
654	-0.046
655	-0.051
655	-0.055
656	-0.06
656	-0.066
657	-0.07
657	-0.074
657	-0.081
658	-0.087
658	-0.117
659	-0.197
659	-0.281
660	-0.319
660	-0.345
661	-0.37
661	-0.397
661	-0.428
662	-0.456
662	-0.486
663	-0.52
663	-0.557
664	-0.594
664	-0.635
665	-0.68
665	-0.726
665	-0.772
666	-0.823
666	-0.878
667	-0.933
667	-0.995
668	-1.054
668	-1.123
669	-1.192
669	-1.267
669	-1.348
670	-1.436
670	-1.576
671	-1.818
671	-2.169
672	-2.375
672	-2.52
672	-2.631
673	-2.721
673	-2.796
674	-2.834
674	-2.846
675	-2.861
675	-2.863
676	-2.85
676	-2.784
676	-2.707
677	-2.613
677	-2.494
678	-2.309
678	-1.956
679	-1.659
679	-1.524
680	-1.429
680	-1.358
680	-1.295
681	-1.251
681	-1.201
682	-1.16
682	-1.119
683	-1.076
683	-1.054
684	-1.026
684	-1.007
684	-0.986
685	-0.966
685	-0.957
686	-0.934
686	-0.921
687	-0.911
687	-0.9
687	-0.9
688	-0.885
688	-0.877
689	-0.88
689	-0.876
690	-0.862
690	-0.852
691	-0.85
691	-0.853
691	-0.853
692	-0.852
692	-0.847
693	-0.854
693	-0.864
694	-0.844
694	-0.844
695	-0.846
695	-0.84
695	-0.847
696	-0.854
696	-0.848
697	-0.842
697	-0.839
698	-0.835
698	-0.829
698	-0.842
699	-0.842
699	-0.843
700	-0.863
700	-0.858
701	-0.844
701	-0.838
702	-0.84
702	-0.838
702	-0.837
703	-0.827
703	-0.816
704	-0.823
704	-0.826
705	-0.814
705	-0.813
705	-0.807
706	-0.8
706	-0.796
707	-0.806
707	-0.811
708	-0.809
708	-0.806
709	-0.807
709	-0.804
709	-0.801
710	-0.809
710	-0.812
711	-0.811
711	-0.812
712	-0.805
712	-0.803
713	-0.808
713	-0.808
713	-0.787
714	-0.788
714	-0.79
715	-0.782
715	-0.791
716	-0.807
716	-0.816
716	-0.817
717	-0.822
717	-0.815
718	-0.809
718	-0.812
719	-0.808
719	-0.8
720	-0.795
720	-0.789
720	-0.784
721	-0.774
721	-0.778
722	-0.775
722	-0.771
723	-0.788
723	-0.8
723	-0.808
724	-0.807
724	-0.811
725	-0.806
725	-0.809
726	-0.812
726	-0.803
727	-0.804
727	-0.812
727	-0.804
728	-0.791
728	-0.786
729	-0.788
729	-0.792
730	-0.796
730	-0.787
730	-0.793
731	-0.795
731	-0.794
732	-0.795
732	-0.788
733	-0.803
733	-0.81
734	-0.819
734	-0.81
734	-0.792
735	-0.782
735	-0.777
736	-0.776
736	-0.77
737	-0.77
737	-0.761
737	-0.754
738	-0.741
738	-0.73
739	-0.733
739	-0.732
740	-0.745
740	-0.746
741	-0.757
741	-0.767
741	-0.777
742	-0.784
742	-0.798
743	-0.805
743	-0.807
744	-0.811
744	-0.822
744	-0.817
745	-0.825
745	-0.814
746	-0.809
746	-0.8
747	-0.804
747	-0.796
748	-0.798
748	-0.802
748	-0.802
749	-0.793
749	-0.799
750	-0.79
750	-0.792
751	-0.792
751	-0.79
751	-0.8
752	-0.802
752	-0.804
753	-0.804
753	-0.797
754	-0.816
754	-0.817
754	-0.824
755	-0.823
755	-0.813
756	-0.816
756	-0.801
757	-0.795
757	-0.783
758	-0.785
758	-0.783
758	-0.779
759	-0.783
759	-0.784
760	-0.783
760	-0.787
761	-0.778
761	-0.784
761	-0.783
762	-0.789
762	-0.791
763	-0.793
763	-0.798
764	-0.796
764	-0.792
764	-0.797
765	-0.798
765	-0.806
766	-0.808
766	-0.811
767	-0.827
767	-0.822
768	-0.82
768	-0.812
768	-0.807
769	-0.809
769	-0.817
770	-0.826
770	-0.831
771	-0.828
771	-0.827
771	-0.83
772	-0.834
772	-0.855
773	-0.857
773	-0.858
774	-0.855
774	-0.837
775	-0.822
775	-0.82
775	-0.824
776	-0.834
776	-0.831
777	-0.831
777	-0.812
778	-0.82
778	-0.829
778	-0.829
779	-0.838
779	-0.855
780	-0.852
780	-0.86
781	-0.849
781	-0.84
781	-0.853
782	-0.875
782	-0.877
783	-0.876
783	-0.885
784	-0.888
784	-0.881
784	-0.9
785	-0.893
785	-0.906
786	-0.909
786	-0.901
787	-0.89
787	-0.898
788	-0.89
788	-0.882
788	-0.885
789	-0.886
789	-0.875
790	-0.875
790	-0.86
791	-0.867
791	-0.862
791	-0.855
792	-0.849
792	-0.852
793	-0.857
793	-0.843
794	-0.835
794	-0.829
794	-0.834
795	-0.853
795	-0.84
796	-0.846
796	-0.842
797	-0.835
797	-0.827
797	-0.82
798	-0.84
798	-0.846
799	-0.847
799	-0.836
800	-0.83
800	-0.838
801	-0.835
801	-0.838
801	-0.836
802	-0.834
802	-0.834
803	-0.829
803	-0.821
804	-0.826
804	-0.832
804	-0.817
805	-0.798
805	-0.789
806	-0.79
806	-0.786
807	-0.789
807	-0.788
807	-0.77
808	-0.766
808	-0.757
809	-0.752
809	-0.753
810	-0.755
810	-0.754
810	-0.75
811	-0.753
811	-0.742
812	-0.735
812	-0.738
813	-0.743
813	-0.745
813	-0.741
814	-0.742
814	-0.748
815	-0.738
815	-0.734
816	-0.73
816	-0.749
817	-0.763
817	-0.766
817	-0.775
818	-0.769
818	-0.766
819	-0.775
819	-0.774
820	-0.787
820	-0.787
820	-0.786
821	-0.78
821	-0.774
822	-0.773
822	-0.759
823	-0.771
823	-0.772
823	-0.767
824	-0.765
824	-0.775
825	-0.776
825	-0.774
826	-0.771
826	-0.767
826	-0.767
827	-0.768
827	-0.756
828	-0.756
828	-0.748
829	-0.742
829	-0.726
829	-0.721
830	-0.718
830	-0.704
831	-0.698
831	-0.688
832	-0.678
832	-0.673
832	-0.665
833	-0.666
833	-0.672
834	-0.669
834	-0.664
835	-0.658
835	-0.658
835	-0.653
836	-0.648
836	-0.644
837	-0.634
837	-0.626
838	-0.612
838	-0.596
839	-0.591
839	-0.577
839	-0.568
840	-0.565
840	-0.555
841	-0.546
841	-0.539
842	-0.532
842	-0.518
842	-0.516
843	-0.51
843	-0.505
844	-0.503
844	-0.49
845	-0.478
845	-0.469
845	-0.458
846	-0.447
846	-0.437
847	-0.427
847	-0.415
848	-0.401
848	-0.384
848	-0.372
849	-0.36
849	-0.348
850	-0.337
850	-0.328
851	-0.315
851	-0.3
851	-0.29
852	-0.275
852	-0.263
853	-0.254
853	-0.244
854	-0.234
854	-0.223
854	-0.213
855	-0.202
855	-0.194
856	-0.187
856	-0.179
857	-0.172
857	-0.164
857	-0.152
858	-0.142
858	-0.135
859	-0.125
859	-0.113
860	-0.103
860	-0.09
860	-0.08
861	-0.07
861	-0.061
862	-0.052
862	-0.045
863	-0.037
863	-0.029
863	-0.023
864	-0.018
864	-0.012
865	-0.006
865	-0.001
866	0.004
866	0.009
866	0.013
867	0.017
867	0.022
868	0.026
868	0.03
869	0.033
869	0.036
869	0.039
870	0.041
870	0.043
871	0.044
871	0.045
872	0.046
872	0.046
872	0.047
873	0.047
873	0.047
874	0.047
874	0.046
875	0.046
875	0.045
875	0.045
876	0.045
876	0.045
877	0.044
877	0.044
878	0.043
878	0.043
878	0.043
879	0.042
879	0.042
880	0.041
880	0.041
881	0.04
881	0.039
881	0.038
882	0.038
882	0.037
883	0.036
883	0.035
884	0.035
884	0.035
884	0.035
885	0.035
885	0.035
886	0.035
886	0.035
887	0.035
887	0.034
887	0.034
888	0.034
888	0.033
889	0.033
889	0.032
890	0.031
890	0.031
890	0.03
891	0.03
891	0.03
892	0.031
892	0.031
893	0.031
893	0.031
893	0.031
894	0.031
894	0.031
895	0.031
895	0.031
895	0.031
896	0.032
896	0.032
897	0.032
897	0.033
898	0.033
898	0.033
898	0.034
899	0.034
899	0.035
900	0.035
900	0.035
901	0.035
901	0.035
901	0.035
902	0.035
902	0.035
903	0.035
903	0.034
904	0.034
904	0.033
904	0.033
905	0.032
905	0.032
906	0.033
906	0.033
907	0.034
907	0.034
907	0.035
908	0.036
908	0.037
909	0.038
909	0.039
910	0.04
910	0.041
910	0.042
911	0.043
911	0.044
912	0.045
912	0.046
913	0.048
913	0.048
913	0.049
914	0.049
914	0.05
915	0.049
915	0.049
916	0.048
916	0.047
916	0.046
917	0.045
917	0.044
918	0.043
918	0.043
918	0.042
919	0.041
919	0.04
920	0.04
920	0.039
921	0.039
921	0.039
921	0.039
922	0.038
922	0.038
923	0.038
923	0.038
924	0.037
924	0.037
924	0.037
925	0.037
925	0.037
926	0.037
926	0.036
927	0.036
927	0.036
927	0.036
928	0.036
928	0.037
929	0.037
929	0.037
930	0.038
930	0.038
930	0.039
931	0.039
931	0.04
932	0.04
932	0.04
933	0.041
933	0.04
933	0.04
934	0.039
934	0.038
935	0.038
935	0.036
935	0.035
936	0.034
936	0.032
937	0.031
937	0.03
938	0.029
938	0.028
938	0.027
939	0.026
939	0.026
940	0.026
940	0.026
941	0.025
941	0.025
941	0.025
942	0.024
942	0.024
943	0.024
943	0.024
944	0.023
944	0.023
944	0.023
945	0.023
945	0.024
946	0.024
946	0.023
946	0.024
947	0.023
947	0.023
948	0.024
948	0.024
949	0.024
949	0.024
949	0.025
950	0.025
950	0.025
951	0.025
951	0.025
952	0.026
952	0.027
952	0.027
953	0.027
953	0.028
954	0.028
954	0.028
955	0.028
955	0.028
955	0.028
956	0.027
956	0.027
957	0.026
957	0.026
957	0.025
958	0.025
958	0.025
959	0.025
959	0.024
960	0.024
960	0.024
960	0.025
961	0.025
961	0.025
962	0.026
962	0.026
963	0.026
963	0.027
963	0.027
964	0.027
964	0.027
965	0.027
965	0.027
966	0.027
966	0.027
966	0.028
967	0.028
967	0.027
968	0.027
968	0.027
968	0.027
969	0.026
969	0.026
970	0.025
970	0.024
971	0.023
971	0.023
971	0.023
972	0.022
972	0.022
973	0.022
973	0.022
974	0.022
974	0.023
974	0.024
975	0.024
975	0.025
976	0.026
976	0.026
976	0.027
977	0.027
977	0.027
978	0.026
978	0.026
979	0.025
979	0.024
979	0.024
980	0.023
980	0.022
981	0.021
981	0.02
982	0.02
982	0.019
982	0.019
983	0.019
983	0.018
984	0.018
984	0.018
984	0.018
985	0.017
985	0.017
986	0.017
986	0.016
987	0.015
987	0.014
987	0.014
988	0.014
988	0.013
989	0.013
989	0.013
990	0.013
990	0.012
990	0.012
991	0.012
991	0.012
992	0.013
992	0.013
992	0.013
993	0.013
993	0.013
994	0.013
994	0.012
995	0.012
995	0.012
995	0.012
996	0.011
996	0.011
997	0.01
997	0.01
997	0.01
998	0.01
998	0.01
999	0.01
999	0.01
1000	0.01
1000	0.009
1000	0.009
1001	0.01
1001	0.01
1002	0.01
1002	0.009
1003	0.009
1003	0.008
1003	0.008
1004	0.007
1004	0.007
1005	0.006
1005	0.005
1005	0.004
1006	0.003
1006	0.003
1007	0.003
1007	0.002
1008	0.002
1008	0.001
1008	0.002
1009	0.002
1009	0.002
1010	0.003
1010	0.003
1010	0.004
1011	0.004
1011	0.004
1012	0.005
1012	0.005
1013	0.006
1013	0.006
1013	0.006
1014	0.006
1014	0.006
1015	0.006
1015	0.007
1016	0.007
1016	0.007
1016	0.007
1017	0.006
1017	0.007
1018	0.007
1018	0.006
1018	0.006
1019	0.006
1019	0.006
1020	0.005
1020	0.005
1021	0.005
1021	0.004
1021	0.004
1022	0.003
1022	0.003
1023	0.003
1023	0.003
1023	0.003
1024	0.003
1024	0.002
1025	0.002
1025	0.002
1026	0.002
1026	0.002
1026	0.002
1027	0.001
1027	0.001
1028	0.001
1028	0.002
1028	0.002
1029	0.001
1029	0.002
1030	0.001
1030	0.001
1031	0.001
1031	0.001
1031	0.002
1032	0.002
1032	0.002
1033	0.001
1033	0.001
1033	0.001
1034	0
1034	-0
1035	0
1035	-0
1036	-0.001
1036	-0.001
1036	-0.002
1037	-0.002
1037	-0.001
1038	-0.001
1038	-0.001
1039	0
1039	0.001
1039	0.001
1040	0.002
1040	0.003
1041	0.003
1041	0.003
1041	0.003
1042	0.003
1042	0.003
1043	0.002
1043	0.001
1044	0.001
1044	-0
1044	-0.001
1045	-0.002
1045	-0.002
1046	-0.003
1046	-0.004
1046	-0.005
1047	-0.005
1047	-0.006
1048	-0.006
1048	-0.006
1049	-0.006
1049	-0.007
1049	-0.007
1050	-0.008
1050	-0.009
1051	-0.01
1051	-0.011
1051	-0.011
1052	-0.012
1052	-0.013
1053	-0.014
1053	-0.014
1053	-0.014
1054	-0.015
1054	-0.015
1055	-0.014
1055	-0.014
1056	-0.014
1056	-0.014
1056	-0.014
1057	-0.014
1057	-0.014
1058	-0.015
1058	-0.015
1058	-0.015
1059	-0.015
1059	-0.015
1060	-0.016
1060	-0.015
1061	-0.015
1061	-0.015
1061	-0.015
1062	-0.015
1062	-0.015
1063	-0.015
1063	-0.015
1063	-0.015
1064	-0.016
1064	-0.016
1065	-0.016
1065	-0.017
1066	-0.017
1066	-0.017
1066	-0.018
1067	-0.018
1067	-0.019
1068	-0.019
1068	-0.019
1068	-0.02
1069	-0.02
1069	-0.021
1070	-0.021
1070	-0.022
1071	-0.022
1071	-0.022
1071	-0.022
1072	-0.022
1072	-0.021
1073	-0.021
1073	-0.021
1073	-0.021
1074	-0.02
1074	-0.02
1075	-0.02
1075	-0.02
1076	-0.022
1076	-0.022
1076	-0.023
1077	-0.024
1077	-0.025
1078	-0.026
1078	-0.027
1078	-0.028
1079	-0.028
1079	-0.028
1080	-0.03
1080	-0.03
1080	-0.031
1081	-0.032
1081	-0.032
1082	-0.032
1082	-0.033
1083	-0.034
1083	-0.035
1083	-0.035
1084	-0.036
1084	-0.036
1085	-0.037
1085	-0.037
1085	-0.037
1086	-0.038
1086	-0.039
1087	-0.039
1087	-0.039
1088	-0.041
1088	-0.042
1088	-0.042
1089	-0.044
1089	-0.045
1090	-0.046
1090	-0.047
1090	-0.049
1091	-0.05
1091	-0.051
1092	-0.052
1092	-0.052
1092	-0.053
1093	-0.054
1093	-0.054
1094	-0.054
1094	-0.055
1095	-0.056
1095	-0.057
1095	-0.057
1096	-0.059
1096	-0.061
1097	-0.062
1097	-0.064
1097	-0.065
1098	-0.067
1098	-0.069
1099	-0.07
1099	-0.071
1100	-0.074
1100	-0.076
1100	-0.078
1101	-0.081
1101	-0.084
1102	-0.086
1102	-0.089
1102	-0.091
1103	-0.094
1103	-0.097
1104	-0.1
1104	-0.103
1104	-0.105
1105	-0.107
1105	-0.11
1106	-0.115
1106	-0.117
1107	-0.123
1107	-0.128
1107	-0.132
1108	-0.134
1108	-0.136
1109	-0.139
1109	-0.144
1109	-0.149
1110	-0.151
1110	-0.155
1111	-0.165
1111	-0.161
