Data from 3.4A_17C_Absorbance__72__01029.txt Node

Date: Tue Jun 20 15:40:20 CEST 2023
User: Marek
Spectrometer: MAYP115816
Trigger mode: 0
Integration Time (sec): 2.200000E-1
Scans to average: 10
Electric dark correction enabled: true
Nonlinearity correction enabled: true
Boxcar width: 5
XAxis mode: Wavelengths
Number of Pixels in Spectrum: 2068
>>>>>Begin Spectral Data<<<<<
199	-0.763
199	-0.743
200	-0.705
200	-0.646
201	-0.614
201	-0.606
202	-0.589
202	-0.583
203	-0.58
203	-0.571
204	-0.55
204	-0.531
205	-0.507
205	-0.498
205	-0.507
206	-0.51
206	-0.506
207	-0.497
207	-0.503
208	-0.504
208	-0.51
209	-0.513
209	-0.52
210	-0.535
210	-0.54
211	-0.535
211	-0.539
212	-0.547
212	-0.557
213	-0.554
213	-0.55
213	-0.547
214	-0.553
214	-0.554
215	-0.548
215	-0.554
216	-0.563
216	-0.57
217	-0.567
217	-0.568
218	-0.575
218	-0.576
219	-0.584
219	-0.585
220	-0.59
220	-0.6
221	-0.601
221	-0.6
221	-0.59
222	-0.59
222	-0.587
223	-0.584
223	-0.586
224	-0.586
224	-0.585
225	-0.583
225	-0.584
226	-0.585
226	-0.585
227	-0.593
227	-0.604
228	-0.608
228	-0.617
229	-0.621
229	-0.62
229	-0.618
230	-0.613
230	-0.612
231	-0.608
231	-0.603
232	-0.606
232	-0.6
233	-0.599
233	-0.586
234	-0.587
234	-0.582
235	-0.587
235	-0.597
236	-0.602
236	-0.603
236	-0.603
237	-0.601
237	-0.602
238	-0.604
238	-0.605
239	-0.606
239	-0.616
240	-0.609
240	-0.605
241	-0.601
241	-0.604
242	-0.608
242	-0.615
243	-0.615
243	-0.617
243	-0.622
244	-0.619
244	-0.619
245	-0.622
245	-0.626
246	-0.635
246	-0.637
247	-0.645
247	-0.632
248	-0.632
248	-0.633
249	-0.639
249	-0.641
250	-0.643
250	-0.651
250	-0.648
251	-0.648
251	-0.644
252	-0.645
252	-0.657
253	-0.652
253	-0.663
254	-0.667
254	-0.667
255	-0.676
255	-0.675
256	-0.677
256	-0.69
257	-0.7
257	-0.696
258	-0.697
258	-0.705
258	-0.705
259	-0.698
259	-0.715
260	-0.713
260	-0.701
261	-0.712
261	-0.699
262	-0.706
262	-0.705
263	-0.694
263	-0.698
264	-0.706
264	-0.708
265	-0.699
265	-0.703
265	-0.714
266	-0.706
266	-0.704
267	-0.702
267	-0.718
268	-0.727
268	-0.724
269	-0.717
269	-0.732
270	-0.734
270	-0.732
271	-0.743
271	-0.752
272	-0.754
272	-0.756
272	-0.748
273	-0.758
273	-0.773
274	-0.764
274	-0.758
275	-0.756
275	-0.744
276	-0.748
276	-0.753
277	-0.756
277	-0.755
278	-0.759
278	-0.758
278	-0.743
279	-0.751
279	-0.765
280	-0.766
280	-0.776
281	-0.77
281	-0.763
282	-0.769
282	-0.763
283	-0.756
283	-0.771
284	-0.785
284	-0.795
285	-0.775
285	-0.782
285	-0.773
286	-0.781
286	-0.797
287	-0.793
287	-0.792
288	-0.794
288	-0.774
289	-0.775
289	-0.782
290	-0.792
290	-0.78
291	-0.783
291	-0.779
292	-0.758
292	-0.756
292	-0.76
293	-0.747
293	-0.745
294	-0.744
294	-0.73
295	-0.713
295	-0.726
296	-0.738
296	-0.733
297	-0.722
297	-0.726
298	-0.722
298	-0.74
298	-0.743
299	-0.724
299	-0.715
300	-0.712
300	-0.692
301	-0.674
301	-0.677
302	-0.688
302	-0.672
303	-0.664
303	-0.651
304	-0.633
304	-0.637
305	-0.631
305	-0.64
305	-0.654
306	-0.639
306	-0.637
307	-0.629
307	-0.64
308	-0.642
308	-0.637
309	-0.64
309	-0.637
310	-0.635
310	-0.629
311	-0.617
311	-0.634
311	-0.621
312	-0.617
312	-0.606
313	-0.598
313	-0.601
314	-0.604
314	-0.601
315	-0.598
315	-0.593
316	-0.587
316	-0.577
317	-0.572
317	-0.568
318	-0.56
318	-0.558
318	-0.547
319	-0.537
319	-0.529
320	-0.527
320	-0.523
321	-0.518
321	-0.517
322	-0.51
322	-0.503
323	-0.504
323	-0.496
324	-0.493
324	-0.482
324	-0.471
325	-0.455
325	-0.439
326	-0.43
326	-0.406
327	-0.391
327	-0.371
328	-0.338
328	-0.313
329	-0.286
329	-0.256
330	-0.227
330	-0.191
330	-0.156
331	-0.119
331	-0.085
332	-0.049
332	-0.014
333	0.017
333	0.052
334	0.084
334	0.111
335	0.138
335	0.161
336	0.184
336	0.207
336	0.226
337	0.244
337	0.261
338	0.276
338	0.287
339	0.301
339	0.313
340	0.322
340	0.331
341	0.339
341	0.345
342	0.352
342	0.358
342	0.363
343	0.367
343	0.372
344	0.376
344	0.379
345	0.382
345	0.385
346	0.387
346	0.389
347	0.391
347	0.393
348	0.394
348	0.396
348	0.397
349	0.397
349	0.398
350	0.399
350	0.4
351	0.4
351	0.401
352	0.401
352	0.401
353	0.402
353	0.402
354	0.402
354	0.402
354	0.402
355	0.402
355	0.401
356	0.402
356	0.402
357	0.401
357	0.401
358	0.401
358	0.401
359	0.401
359	0.401
360	0.401
360	0.401
360	0.401
361	0.401
361	0.4
362	0.401
362	0.4
363	0.401
363	0.401
364	0.4
364	0.4
365	0.4
365	0.4
366	0.399
366	0.399
366	0.399
367	0.399
367	0.398
368	0.398
368	0.397
369	0.397
369	0.397
370	0.397
370	0.396
371	0.396
371	0.396
372	0.395
372	0.395
372	0.395
373	0.395
373	0.394
374	0.394
374	0.394
375	0.394
375	0.393
376	0.393
376	0.392
377	0.392
377	0.391
378	0.39
378	0.39
378	0.39
379	0.389
379	0.388
380	0.388
380	0.388
381	0.388
381	0.387
382	0.387
382	0.386
383	0.386
383	0.386
383	0.385
384	0.385
384	0.384
385	0.384
385	0.383
386	0.383
386	0.382
387	0.382
387	0.381
388	0.381
388	0.381
389	0.381
389	0.38
389	0.38
390	0.38
390	0.38
391	0.379
391	0.379
392	0.378
392	0.378
393	0.378
393	0.377
394	0.377
394	0.376
394	0.375
395	0.375
395	0.374
396	0.374
396	0.374
397	0.373
397	0.372
398	0.372
398	0.371
399	0.371
399	0.371
400	0.37
400	0.37
400	0.37
401	0.369
401	0.368
402	0.368
402	0.368
403	0.367
403	0.367
404	0.367
404	0.366
405	0.365
405	0.365
405	0.365
406	0.364
406	0.364
407	0.364
407	0.364
408	0.363
408	0.363
409	0.363
409	0.363
410	0.363
410	0.363
411	0.363
411	0.362
411	0.362
412	0.361
412	0.361
413	0.36
413	0.36
414	0.359
414	0.359
415	0.359
415	0.358
416	0.358
416	0.358
416	0.357
417	0.357
417	0.357
418	0.357
418	0.357
419	0.357
419	0.357
420	0.357
420	0.357
421	0.357
421	0.356
421	0.356
422	0.356
422	0.356
423	0.355
423	0.355
424	0.355
424	0.354
425	0.354
425	0.354
426	0.354
426	0.354
427	0.354
427	0.354
427	0.354
428	0.353
428	0.353
429	0.353
429	0.353
430	0.352
430	0.352
431	0.352
431	0.351
432	0.351
432	0.351
432	0.35
433	0.35
433	0.35
434	0.351
434	0.351
435	0.352
435	0.352
436	0.352
436	0.352
437	0.352
437	0.352
437	0.352
438	0.352
438	0.351
439	0.351
439	0.351
440	0.35
440	0.35
441	0.351
441	0.351
442	0.351
442	0.351
442	0.351
443	0.351
443	0.351
444	0.351
444	0.351
445	0.351
445	0.351
446	0.351
446	0.351
447	0.351
447	0.351
447	0.351
448	0.351
448	0.351
449	0.351
449	0.351
450	0.352
450	0.352
451	0.352
451	0.352
452	0.352
452	0.352
452	0.352
453	0.353
453	0.353
454	0.353
454	0.353
455	0.353
455	0.354
456	0.354
456	0.354
457	0.354
457	0.355
458	0.355
458	0.355
458	0.355
459	0.355
459	0.355
460	0.355
460	0.355
461	0.356
461	0.356
462	0.357
462	0.357
463	0.358
463	0.359
463	0.359
464	0.36
464	0.36
465	0.361
465	0.361
466	0.362
466	0.363
467	0.363
467	0.364
467	0.364
468	0.364
468	0.365
469	0.366
469	0.367
470	0.368
470	0.368
471	0.369
471	0.369
472	0.37
472	0.371
472	0.372
473	0.373
473	0.374
474	0.375
474	0.376
475	0.377
475	0.378
476	0.379
476	0.38
477	0.381
477	0.382
477	0.384
478	0.385
478	0.386
479	0.387
479	0.389
480	0.39
480	0.391
481	0.393
481	0.394
482	0.396
482	0.398
482	0.399
483	0.402
483	0.404
484	0.406
484	0.407
485	0.409
485	0.411
486	0.412
486	0.414
487	0.416
487	0.418
487	0.419
488	0.421
488	0.423
489	0.425
489	0.428
490	0.43
490	0.433
491	0.435
491	0.438
492	0.44
492	0.442
492	0.445
493	0.447
493	0.45
494	0.453
494	0.456
495	0.459
495	0.461
496	0.464
496	0.467
496	0.47
497	0.473
497	0.476
498	0.479
498	0.482
499	0.486
499	0.489
500	0.493
500	0.497
501	0.501
501	0.504
501	0.508
502	0.511
502	0.514
503	0.518
503	0.522
504	0.525
504	0.528
505	0.532
505	0.535
506	0.539
506	0.543
506	0.547
507	0.55
507	0.554
508	0.558
508	0.562
509	0.566
509	0.569
510	0.573
510	0.576
511	0.58
511	0.583
511	0.586
512	0.589
512	0.593
513	0.595
513	0.599
514	0.602
514	0.606
515	0.609
515	0.612
515	0.615
516	0.619
516	0.622
517	0.625
517	0.627
518	0.63
518	0.632
519	0.634
519	0.636
520	0.638
520	0.64
520	0.642
521	0.643
521	0.645
522	0.647
522	0.649
523	0.65
523	0.652
524	0.653
524	0.654
524	0.655
525	0.655
525	0.656
526	0.657
526	0.657
527	0.657
527	0.657
528	0.657
528	0.656
529	0.655
529	0.655
529	0.654
530	0.653
530	0.652
531	0.651
531	0.65
532	0.648
532	0.647
533	0.646
533	0.644
533	0.643
534	0.641
534	0.639
535	0.637
535	0.635
536	0.633
536	0.63
537	0.627
537	0.624
538	0.621
538	0.618
538	0.614
539	0.611
539	0.609
540	0.605
540	0.601
541	0.597
541	0.593
542	0.59
542	0.585
542	0.581
543	0.577
543	0.573
544	0.569
544	0.564
545	0.56
545	0.556
546	0.552
546	0.547
547	0.542
547	0.537
547	0.532
548	0.528
548	0.523
549	0.518
549	0.513
550	0.508
550	0.503
551	0.497
551	0.492
551	0.486
552	0.481
552	0.477
553	0.472
553	0.467
554	0.462
554	0.457
555	0.452
555	0.447
556	0.443
556	0.438
556	0.433
557	0.428
557	0.424
558	0.419
558	0.414
559	0.408
559	0.403
560	0.398
560	0.394
560	0.39
561	0.386
561	0.382
562	0.378
562	0.373
563	0.369
563	0.365
564	0.361
564	0.357
564	0.353
565	0.349
565	0.346
566	0.341
566	0.337
567	0.333
567	0.329
568	0.325
568	0.32
568	0.316
569	0.312
569	0.307
570	0.303
570	0.298
571	0.294
571	0.291
572	0.286
572	0.282
573	0.278
573	0.274
573	0.271
574	0.268
574	0.265
575	0.262
575	0.26
576	0.257
576	0.253
577	0.25
577	0.247
577	0.245
578	0.243
578	0.241
579	0.24
579	0.238
580	0.234
580	0.23
581	0.226
581	0.223
581	0.222
582	0.22
582	0.218
583	0.215
583	0.212
584	0.208
584	0.203
585	0.201
585	0.199
585	0.197
586	0.194
586	0.192
587	0.189
587	0.186
588	0.183
588	0.181
589	0.18
589	0.178
590	0.176
590	0.174
590	0.174
591	0.172
591	0.17
592	0.168
592	0.165
593	0.164
593	0.162
594	0.16
594	0.158
594	0.157
595	0.156
595	0.153
596	0.151
596	0.15
597	0.151
597	0.149
598	0.147
598	0.146
598	0.145
599	0.144
599	0.142
600	0.14
600	0.139
601	0.138
601	0.137
602	0.135
602	0.133
602	0.132
603	0.131
603	0.13
604	0.129
604	0.128
605	0.128
605	0.127
606	0.126
606	0.124
606	0.123
607	0.121
607	0.121
608	0.119
608	0.117
609	0.116
609	0.115
610	0.114
610	0.112
610	0.112
611	0.111
611	0.111
612	0.11
612	0.11
613	0.11
613	0.109
614	0.108
614	0.106
614	0.106
615	0.105
615	0.104
616	0.103
616	0.102
617	0.101
617	0.1
618	0.099
618	0.098
618	0.098
619	0.097
619	0.097
620	0.097
620	0.096
621	0.095
621	0.094
622	0.093
622	0.092
622	0.091
623	0.09
623	0.09
624	0.09
624	0.089
625	0.088
625	0.087
626	0.086
626	0.085
626	0.085
627	0.085
627	0.084
628	0.083
628	0.082
629	0.081
629	0.08
630	0.078
630	0.077
630	0.076
631	0.075
631	0.074
632	0.073
632	0.072
633	0.071
633	0.07
634	0.07
634	0.069
634	0.068
635	0.067
635	0.067
636	0.066
636	0.065
637	0.065
637	0.064
638	0.063
638	0.062
638	0.061
639	0.06
639	0.058
640	0.057
640	0.056
641	0.055
641	0.054
642	0.053
642	0.052
642	0.05
643	0.049
643	0.047
644	0.045
644	0.043
645	0.041
645	0.039
646	0.037
646	0.033
646	0.03
647	0.026
647	0.023
648	0.019
648	0.016
649	0.012
649	0.009
650	0.005
650	0.002
650	-0.002
651	-0.007
651	-0.013
652	-0.02
652	-0.028
653	-0.034
653	-0.04
653	-0.036
654	-0.028
654	-0.03
655	-0.035
655	-0.04
656	-0.044
656	-0.049
657	-0.053
657	-0.056
657	-0.061
658	-0.066
658	-0.087
659	-0.141
659	-0.193
660	-0.217
660	-0.235
661	-0.253
661	-0.275
661	-0.297
662	-0.314
662	-0.334
663	-0.353
663	-0.376
664	-0.396
664	-0.422
665	-0.449
665	-0.474
665	-0.498
666	-0.525
666	-0.554
667	-0.583
667	-0.619
668	-0.654
668	-0.7
669	-0.746
669	-0.797
669	-0.857
670	-0.929
670	-1.085
671	-1.398
671	-1.81
672	-2.181
672	-2.388
672	-2.532
673	-2.625
673	-2.649
674	-2.666
674	-2.675
675	-2.69
675	-2.693
676	-2.687
676	-2.641
676	-2.526
677	-2.366
677	-2.104
678	-1.545
678	-1.166
679	-1.04
679	-0.973
680	-0.924
680	-0.892
680	-0.865
681	-0.854
681	-0.831
682	-0.818
682	-0.795
683	-0.773
683	-0.772
684	-0.761
684	-0.76
684	-0.754
685	-0.75
685	-0.754
686	-0.741
686	-0.74
687	-0.74
687	-0.74
687	-0.748
688	-0.741
688	-0.741
689	-0.75
689	-0.751
690	-0.742
690	-0.737
691	-0.739
691	-0.744
691	-0.748
692	-0.751
692	-0.754
693	-0.764
693	-0.778
694	-0.762
694	-0.765
695	-0.769
695	-0.764
695	-0.773
696	-0.783
696	-0.777
697	-0.772
697	-0.769
698	-0.765
698	-0.758
698	-0.775
699	-0.773
699	-0.776
700	-0.797
700	-0.793
701	-0.781
701	-0.777
702	-0.779
702	-0.779
702	-0.782
703	-0.776
703	-0.763
704	-0.773
704	-0.778
705	-0.767
705	-0.767
705	-0.765
706	-0.757
706	-0.755
707	-0.764
707	-0.769
708	-0.765
708	-0.764
709	-0.764
709	-0.76
709	-0.755
710	-0.764
710	-0.766
711	-0.767
711	-0.769
712	-0.762
712	-0.759
713	-0.764
713	-0.766
713	-0.745
714	-0.748
714	-0.752
715	-0.746
715	-0.754
716	-0.77
716	-0.777
716	-0.779
717	-0.786
717	-0.779
718	-0.775
718	-0.777
719	-0.773
719	-0.765
720	-0.757
720	-0.753
720	-0.75
721	-0.743
721	-0.746
722	-0.742
722	-0.737
723	-0.753
723	-0.767
723	-0.776
724	-0.776
724	-0.782
725	-0.776
725	-0.778
726	-0.781
726	-0.773
727	-0.777
727	-0.786
727	-0.777
728	-0.763
728	-0.759
729	-0.764
729	-0.766
730	-0.771
730	-0.761
730	-0.766
731	-0.77
731	-0.769
732	-0.772
732	-0.768
733	-0.782
733	-0.789
734	-0.794
734	-0.785
734	-0.769
735	-0.761
735	-0.759
736	-0.758
736	-0.753
737	-0.752
737	-0.742
737	-0.735
738	-0.722
738	-0.712
739	-0.717
739	-0.718
740	-0.732
740	-0.731
741	-0.741
741	-0.751
741	-0.76
742	-0.767
742	-0.782
743	-0.789
743	-0.793
744	-0.797
744	-0.803
744	-0.795
745	-0.805
745	-0.794
746	-0.789
746	-0.781
747	-0.784
747	-0.777
748	-0.778
748	-0.782
748	-0.782
749	-0.775
749	-0.783
750	-0.772
750	-0.771
751	-0.771
751	-0.768
751	-0.78
752	-0.782
752	-0.783
753	-0.785
753	-0.777
754	-0.797
754	-0.796
754	-0.805
755	-0.807
755	-0.798
756	-0.801
756	-0.788
757	-0.78
757	-0.769
758	-0.77
758	-0.769
758	-0.764
759	-0.771
759	-0.771
760	-0.768
760	-0.772
761	-0.766
761	-0.77
761	-0.768
762	-0.774
762	-0.774
763	-0.774
763	-0.781
764	-0.779
764	-0.772
764	-0.779
765	-0.776
765	-0.783
766	-0.786
766	-0.789
767	-0.806
767	-0.803
768	-0.801
768	-0.792
768	-0.789
769	-0.795
769	-0.803
770	-0.814
770	-0.819
771	-0.815
771	-0.814
771	-0.819
772	-0.822
772	-0.843
773	-0.844
773	-0.843
774	-0.841
774	-0.823
775	-0.811
775	-0.808
775	-0.812
776	-0.822
776	-0.816
777	-0.814
777	-0.795
778	-0.803
778	-0.812
778	-0.811
779	-0.818
779	-0.832
780	-0.828
780	-0.836
781	-0.825
781	-0.815
781	-0.828
782	-0.85
782	-0.85
783	-0.849
783	-0.857
784	-0.863
784	-0.857
784	-0.878
785	-0.871
785	-0.886
786	-0.891
786	-0.887
787	-0.879
787	-0.89
788	-0.882
788	-0.876
788	-0.876
789	-0.877
789	-0.864
790	-0.865
790	-0.849
791	-0.856
791	-0.85
791	-0.842
792	-0.837
792	-0.842
793	-0.845
793	-0.833
794	-0.826
794	-0.821
794	-0.828
795	-0.848
795	-0.836
796	-0.843
796	-0.839
797	-0.83
797	-0.819
797	-0.812
798	-0.832
798	-0.836
799	-0.835
799	-0.82
800	-0.815
800	-0.824
801	-0.821
801	-0.825
801	-0.822
802	-0.821
802	-0.822
803	-0.814
803	-0.808
804	-0.814
804	-0.823
804	-0.807
805	-0.787
805	-0.779
806	-0.781
806	-0.776
807	-0.779
807	-0.778
807	-0.764
808	-0.76
808	-0.752
809	-0.746
809	-0.747
810	-0.751
810	-0.748
810	-0.745
811	-0.749
811	-0.742
812	-0.734
812	-0.735
813	-0.738
813	-0.738
813	-0.733
814	-0.734
814	-0.738
815	-0.729
815	-0.724
816	-0.721
816	-0.736
817	-0.749
817	-0.753
817	-0.764
818	-0.759
818	-0.757
819	-0.767
819	-0.765
820	-0.777
820	-0.778
820	-0.776
821	-0.773
821	-0.769
822	-0.769
822	-0.755
823	-0.767
823	-0.766
823	-0.761
824	-0.761
824	-0.77
825	-0.769
825	-0.767
826	-0.761
826	-0.755
826	-0.754
827	-0.755
827	-0.744
828	-0.742
828	-0.736
829	-0.73
829	-0.716
829	-0.714
830	-0.711
830	-0.697
831	-0.692
831	-0.683
832	-0.673
832	-0.668
832	-0.663
833	-0.662
833	-0.667
834	-0.661
834	-0.655
835	-0.647
835	-0.648
835	-0.643
836	-0.638
836	-0.635
837	-0.625
837	-0.616
838	-0.603
838	-0.585
839	-0.581
839	-0.571
839	-0.562
840	-0.561
840	-0.551
841	-0.54
841	-0.534
842	-0.525
842	-0.514
842	-0.513
843	-0.51
843	-0.505
844	-0.502
844	-0.492
845	-0.48
845	-0.471
845	-0.462
846	-0.451
846	-0.443
847	-0.433
847	-0.42
848	-0.406
848	-0.39
848	-0.377
849	-0.365
849	-0.353
850	-0.343
850	-0.335
851	-0.321
851	-0.306
851	-0.299
852	-0.285
852	-0.274
853	-0.266
853	-0.256
854	-0.246
854	-0.235
854	-0.224
855	-0.213
855	-0.207
856	-0.2
856	-0.193
857	-0.185
857	-0.179
857	-0.168
858	-0.158
858	-0.153
859	-0.144
859	-0.135
860	-0.126
860	-0.113
860	-0.104
861	-0.096
861	-0.088
862	-0.08
862	-0.072
863	-0.066
863	-0.058
863	-0.053
864	-0.048
864	-0.043
865	-0.037
865	-0.032
866	-0.028
866	-0.023
866	-0.019
867	-0.015
867	-0.011
868	-0.008
868	-0.004
869	-0
869	0.002
869	0.004
870	0.006
870	0.008
871	0.009
871	0.01
872	0.011
872	0.011
872	0.012
873	0.012
873	0.012
874	0.012
874	0.012
875	0.011
875	0.011
875	0.011
876	0.011
876	0.01
877	0.01
877	0.01
878	0.009
878	0.009
878	0.008
879	0.008
879	0.007
880	0.007
880	0.006
881	0.005
881	0.005
881	0.004
882	0.003
882	0.003
883	0.002
883	0.001
884	0.001
884	0.002
884	0.002
885	0.002
885	0.002
886	0.002
886	0.002
887	0.001
887	0.001
887	0
888	-0
888	-0.001
889	-0.002
889	-0.003
890	-0.003
890	-0.004
890	-0.004
891	-0.005
891	-0.005
892	-0.004
892	-0.003
893	-0.003
893	-0.003
893	-0.003
894	-0.002
894	-0.002
895	-0.002
895	-0.002
895	-0.001
896	-0.001
896	-0.001
897	-0
897	-0
898	-0
898	0
898	0.001
899	0.001
899	0.002
900	0.002
900	0.003
901	0.002
901	0.002
901	0.002
902	0.003
902	0.003
903	0.002
903	0.002
904	0.001
904	0.001
904	0.001
905	0
905	0.001
906	0.001
906	0.002
907	0.002
907	0.003
907	0.003
908	0.005
908	0.006
909	0.007
909	0.008
910	0.009
910	0.01
910	0.01
911	0.011
911	0.013
912	0.014
912	0.016
913	0.017
913	0.018
913	0.019
914	0.019
914	0.019
915	0.019
915	0.019
916	0.018
916	0.017
916	0.016
917	0.015
917	0.015
918	0.014
918	0.013
918	0.012
919	0.012
919	0.011
920	0.01
920	0.01
921	0.01
921	0.01
921	0.01
922	0.01
922	0.009
923	0.009
923	0.009
924	0.009
924	0.009
924	0.009
925	0.008
925	0.008
926	0.008
926	0.008
927	0.007
927	0.007
927	0.007
928	0.007
928	0.008
929	0.008
929	0.009
930	0.009
930	0.009
930	0.01
931	0.01
931	0.011
932	0.012
932	0.012
933	0.012
933	0.012
933	0.012
934	0.011
934	0.011
935	0.01
935	0.009
935	0.008
936	0.006
936	0.005
937	0.004
937	0.003
938	0.002
938	0.001
938	0
939	-0
939	-0.001
940	-0.001
940	-0.001
941	-0.002
941	-0.002
941	-0.002
942	-0.003
942	-0.003
943	-0.002
943	-0.003
944	-0.003
944	-0.003
944	-0.003
945	-0.003
945	-0.003
946	-0.002
946	-0.003
946	-0.002
947	-0.002
947	-0.003
948	-0.002
948	-0.002
949	-0.002
949	-0.002
949	-0.001
950	-0.001
950	-0.001
951	-0
951	-0
952	-0
952	0
952	0.001
953	0.001
953	0.001
954	0.002
954	0.002
955	0.002
955	0.002
955	0.002
956	0.002
956	0.002
957	0.001
957	0
957	-0
958	-0.001
958	-0.001
959	-0.001
959	-0.001
960	-0.001
960	-0.001
960	-0.001
961	-0.001
961	-0
962	-0
962	0
963	0.001
963	0.001
963	0.001
964	0.001
964	0.001
965	0.001
965	0.001
966	0.002
966	0.002
966	0.002
967	0.002
967	0.002
968	0.002
968	0.002
968	0.001
969	0.001
969	0
970	-0
970	-0.001
971	-0.002
971	-0.002
971	-0.003
972	-0.003
972	-0.003
973	-0.003
973	-0.003
974	-0.003
974	-0.002
974	-0.002
975	-0.001
975	-0
976	0.001
976	0.001
976	0.002
977	0.002
977	0.002
978	0.002
978	0.001
979	0.001
979	0
979	-0
980	-0.001
980	-0.002
981	-0.003
981	-0.003
982	-0.004
982	-0.004
982	-0.004
983	-0.004
983	-0.004
984	-0.005
984	-0.005
984	-0.006
985	-0.006
985	-0.006
986	-0.006
986	-0.007
987	-0.008
987	-0.008
987	-0.009
988	-0.009
988	-0.01
989	-0.01
989	-0.01
990	-0.011
990	-0.011
990	-0.011
991	-0.011
991	-0.011
992	-0.01
992	-0.01
992	-0.01
993	-0.01
993	-0.01
994	-0.01
994	-0.011
995	-0.011
995	-0.011
995	-0.012
996	-0.012
996	-0.012
997	-0.013
997	-0.013
997	-0.013
998	-0.013
998	-0.013
999	-0.013
999	-0.013
1000	-0.013
1000	-0.013
1000	-0.013
1001	-0.013
1001	-0.013
1002	-0.013
1002	-0.013
1003	-0.013
1003	-0.014
1003	-0.014
1004	-0.015
1004	-0.015
1005	-0.016
1005	-0.017
1005	-0.018
1006	-0.019
1006	-0.019
1007	-0.02
1007	-0.02
1008	-0.021
1008	-0.021
1008	-0.021
1009	-0.021
1009	-0.02
1010	-0.02
1010	-0.019
1010	-0.019
1011	-0.018
1011	-0.018
1012	-0.018
1012	-0.017
1013	-0.016
1013	-0.016
1013	-0.016
1014	-0.016
1014	-0.016
1015	-0.016
1015	-0.016
1016	-0.016
1016	-0.016
1016	-0.016
1017	-0.016
1017	-0.015
1018	-0.015
1018	-0.015
1018	-0.015
1019	-0.015
1019	-0.015
1020	-0.015
1020	-0.016
1021	-0.016
1021	-0.017
1021	-0.017
1022	-0.018
1022	-0.018
1023	-0.018
1023	-0.019
1023	-0.019
1024	-0.019
1024	-0.019
1025	-0.019
1025	-0.02
1026	-0.019
1026	-0.019
1026	-0.02
1027	-0.02
1027	-0.02
1028	-0.02
1028	-0.019
1028	-0.019
1029	-0.019
1029	-0.019
1030	-0.019
1030	-0.019
1031	-0.02
1031	-0.019
1031	-0.019
1032	-0.019
1032	-0.018
1033	-0.019
1033	-0.019
1033	-0.019
1034	-0.019
1034	-0.02
1035	-0.02
1035	-0.02
1036	-0.021
1036	-0.021
1036	-0.021
1037	-0.021
1037	-0.02
1038	-0.02
1038	-0.02
1039	-0.019
1039	-0.018
1039	-0.018
1040	-0.017
1040	-0.016
1041	-0.016
1041	-0.016
1041	-0.016
1042	-0.016
1042	-0.017
1043	-0.017
1043	-0.018
1044	-0.018
1044	-0.019
1044	-0.02
1045	-0.021
1045	-0.022
1046	-0.023
1046	-0.023
1046	-0.024
1047	-0.024
1047	-0.025
1048	-0.025
1048	-0.025
1049	-0.026
1049	-0.026
1049	-0.026
1050	-0.027
1050	-0.028
1051	-0.029
1051	-0.03
1051	-0.03
1052	-0.031
1052	-0.032
1053	-0.033
1053	-0.033
1053	-0.033
1054	-0.034
1054	-0.034
1055	-0.033
1055	-0.033
1056	-0.033
1056	-0.033
1056	-0.033
1057	-0.033
1057	-0.033
1058	-0.033
1058	-0.034
1058	-0.034
1059	-0.034
1059	-0.034
1060	-0.035
1060	-0.034
1061	-0.035
1061	-0.034
1061	-0.034
1062	-0.034
1062	-0.034
1063	-0.033
1063	-0.033
1063	-0.034
1064	-0.034
1064	-0.033
1065	-0.034
1065	-0.034
1066	-0.035
1066	-0.035
1066	-0.036
1067	-0.036
1067	-0.037
1068	-0.037
1068	-0.038
1068	-0.038
1069	-0.039
1069	-0.039
1070	-0.039
1070	-0.039
1071	-0.039
1071	-0.039
1071	-0.039
1072	-0.039
1072	-0.039
1073	-0.038
1073	-0.038
1073	-0.038
1074	-0.037
1074	-0.037
1075	-0.037
1075	-0.038
1076	-0.039
1076	-0.039
1076	-0.04
1077	-0.041
1077	-0.042
1078	-0.043
1078	-0.043
1078	-0.044
1079	-0.045
1079	-0.045
1080	-0.046
1080	-0.046
1080	-0.047
1081	-0.048
1081	-0.048
1082	-0.049
1082	-0.049
1083	-0.05
1083	-0.05
1083	-0.051
1084	-0.052
1084	-0.052
1085	-0.053
1085	-0.053
1085	-0.053
1086	-0.054
1086	-0.054
1087	-0.055
1087	-0.055
1088	-0.056
1088	-0.057
1088	-0.057
1089	-0.058
1089	-0.06
1090	-0.061
1090	-0.062
1090	-0.064
1091	-0.065
1091	-0.065
1092	-0.066
1092	-0.067
1092	-0.068
1093	-0.069
1093	-0.07
1094	-0.07
1094	-0.071
1095	-0.072
1095	-0.073
1095	-0.073
1096	-0.074
1096	-0.076
1097	-0.076
1097	-0.078
1097	-0.079
1098	-0.081
1098	-0.083
1099	-0.084
1099	-0.086
1100	-0.087
1100	-0.089
1100	-0.092
1101	-0.095
1101	-0.097
1102	-0.099
1102	-0.101
1102	-0.103
1103	-0.104
1103	-0.107
1104	-0.11
1104	-0.113
1104	-0.115
1105	-0.117
1105	-0.12
1106	-0.125
1106	-0.126
1107	-0.131
1107	-0.136
1107	-0.141
1108	-0.143
1108	-0.144
1109	-0.146
1109	-0.15
1109	-0.153
1110	-0.156
1110	-0.158
1111	-0.169
1111	-0.165
