Data from 3.4A_17C_Absorbance__859__01816.txt Node

Date: Tue Jun 20 16:09:11 CEST 2023
User: Marek
Spectrometer: MAYP115816
Trigger mode: 0
Integration Time (sec): 2.200000E-1
Scans to average: 10
Electric dark correction enabled: true
Nonlinearity correction enabled: true
Boxcar width: 5
XAxis mode: Wavelengths
Number of Pixels in Spectrum: 2068
>>>>>Begin Spectral Data<<<<<
199	-0.772
199	-0.76
200	-0.727
200	-0.671
201	-0.645
201	-0.637
202	-0.62
202	-0.613
203	-0.611
203	-0.604
204	-0.587
204	-0.57
205	-0.547
205	-0.538
205	-0.548
206	-0.549
206	-0.546
207	-0.537
207	-0.544
208	-0.546
208	-0.55
209	-0.551
209	-0.556
210	-0.568
210	-0.575
211	-0.566
211	-0.57
212	-0.577
212	-0.586
213	-0.582
213	-0.578
213	-0.574
214	-0.581
214	-0.585
215	-0.581
215	-0.585
216	-0.596
216	-0.601
217	-0.599
217	-0.599
218	-0.607
218	-0.608
219	-0.616
219	-0.619
220	-0.622
220	-0.629
221	-0.631
221	-0.631
221	-0.622
222	-0.623
222	-0.623
223	-0.618
223	-0.621
224	-0.621
224	-0.619
225	-0.615
225	-0.618
226	-0.617
226	-0.618
227	-0.627
227	-0.636
228	-0.638
228	-0.646
229	-0.652
229	-0.65
229	-0.649
230	-0.645
230	-0.643
231	-0.639
231	-0.633
232	-0.633
232	-0.628
233	-0.63
233	-0.621
234	-0.62
234	-0.616
235	-0.621
235	-0.631
236	-0.637
236	-0.639
236	-0.639
237	-0.637
237	-0.638
238	-0.637
238	-0.638
239	-0.639
239	-0.648
240	-0.641
240	-0.638
241	-0.633
241	-0.636
242	-0.64
242	-0.648
243	-0.65
243	-0.651
243	-0.656
244	-0.653
244	-0.654
245	-0.657
245	-0.663
246	-0.672
246	-0.676
247	-0.683
247	-0.669
248	-0.668
248	-0.67
249	-0.674
249	-0.677
250	-0.676
250	-0.683
250	-0.68
251	-0.681
251	-0.678
252	-0.679
252	-0.692
253	-0.688
253	-0.7
254	-0.705
254	-0.704
255	-0.716
255	-0.716
256	-0.717
256	-0.73
257	-0.739
257	-0.736
258	-0.738
258	-0.744
258	-0.741
259	-0.736
259	-0.754
260	-0.753
260	-0.74
261	-0.754
261	-0.74
262	-0.745
262	-0.743
263	-0.734
263	-0.74
264	-0.749
264	-0.75
265	-0.741
265	-0.744
265	-0.755
266	-0.742
266	-0.743
267	-0.743
267	-0.76
268	-0.768
268	-0.761
269	-0.755
269	-0.77
270	-0.773
270	-0.771
271	-0.785
271	-0.796
272	-0.796
272	-0.8
272	-0.791
273	-0.8
273	-0.817
274	-0.808
274	-0.803
275	-0.8
275	-0.788
276	-0.79
276	-0.796
277	-0.799
277	-0.797
278	-0.801
278	-0.804
278	-0.79
279	-0.801
279	-0.814
280	-0.815
280	-0.825
281	-0.819
281	-0.81
282	-0.816
282	-0.81
283	-0.803
283	-0.816
284	-0.83
284	-0.839
285	-0.818
285	-0.825
285	-0.818
286	-0.825
286	-0.843
287	-0.84
287	-0.837
288	-0.837
288	-0.817
289	-0.816
289	-0.822
290	-0.832
290	-0.822
291	-0.826
291	-0.823
292	-0.803
292	-0.799
292	-0.804
293	-0.792
293	-0.788
294	-0.787
294	-0.774
295	-0.756
295	-0.767
296	-0.779
296	-0.773
297	-0.762
297	-0.768
298	-0.765
298	-0.781
298	-0.786
299	-0.767
299	-0.76
300	-0.756
300	-0.739
301	-0.719
301	-0.722
302	-0.733
302	-0.718
303	-0.711
303	-0.698
304	-0.682
304	-0.686
305	-0.679
305	-0.688
305	-0.702
306	-0.687
306	-0.688
307	-0.679
307	-0.69
308	-0.692
308	-0.688
309	-0.689
309	-0.686
310	-0.684
310	-0.681
311	-0.667
311	-0.684
311	-0.669
312	-0.667
312	-0.655
313	-0.646
313	-0.649
314	-0.654
314	-0.65
315	-0.647
315	-0.641
316	-0.634
316	-0.626
317	-0.619
317	-0.616
318	-0.609
318	-0.608
318	-0.597
319	-0.588
319	-0.581
320	-0.579
320	-0.577
321	-0.574
321	-0.573
322	-0.568
322	-0.559
323	-0.56
323	-0.551
324	-0.549
324	-0.536
324	-0.526
325	-0.511
325	-0.493
326	-0.485
326	-0.46
327	-0.446
327	-0.426
328	-0.395
328	-0.372
329	-0.345
329	-0.319
330	-0.292
330	-0.259
330	-0.225
331	-0.189
331	-0.158
332	-0.125
332	-0.094
333	-0.065
333	-0.035
334	-0.009
334	0.015
335	0.038
335	0.058
336	0.078
336	0.097
336	0.111
337	0.126
337	0.141
338	0.151
338	0.161
339	0.173
339	0.182
340	0.188
340	0.196
341	0.201
341	0.206
342	0.212
342	0.217
342	0.221
343	0.224
343	0.229
344	0.231
344	0.234
345	0.236
345	0.238
346	0.24
346	0.242
347	0.243
347	0.245
348	0.246
348	0.247
348	0.248
349	0.248
349	0.249
350	0.249
350	0.25
351	0.251
351	0.251
352	0.251
352	0.251
353	0.251
353	0.251
354	0.251
354	0.251
354	0.251
355	0.251
355	0.251
356	0.251
356	0.251
357	0.251
357	0.252
358	0.251
358	0.251
359	0.251
359	0.251
360	0.252
360	0.252
360	0.252
361	0.252
361	0.251
362	0.251
362	0.252
363	0.252
363	0.252
364	0.252
364	0.252
365	0.252
365	0.252
366	0.252
366	0.252
366	0.252
367	0.252
367	0.252
368	0.251
368	0.251
369	0.251
369	0.251
370	0.251
370	0.251
371	0.251
371	0.251
372	0.25
372	0.25
372	0.25
373	0.25
373	0.25
374	0.25
374	0.25
375	0.25
375	0.249
376	0.249
376	0.249
377	0.249
377	0.249
378	0.248
378	0.248
378	0.248
379	0.248
379	0.248
380	0.248
380	0.248
381	0.248
381	0.248
382	0.247
382	0.247
383	0.247
383	0.247
383	0.247
384	0.246
384	0.246
385	0.246
385	0.245
386	0.245
386	0.245
387	0.245
387	0.245
388	0.245
388	0.245
389	0.245
389	0.245
389	0.245
390	0.245
390	0.245
391	0.245
391	0.245
392	0.244
392	0.244
393	0.244
393	0.244
394	0.244
394	0.243
394	0.243
395	0.243
395	0.242
396	0.242
396	0.242
397	0.242
397	0.242
398	0.242
398	0.241
399	0.241
399	0.241
400	0.241
400	0.241
400	0.241
401	0.241
401	0.24
402	0.24
402	0.24
403	0.24
403	0.24
404	0.24
404	0.24
405	0.239
405	0.239
405	0.239
406	0.239
406	0.239
407	0.239
407	0.238
408	0.238
408	0.238
409	0.238
409	0.238
410	0.238
410	0.238
411	0.237
411	0.237
411	0.237
412	0.237
412	0.237
413	0.237
413	0.237
414	0.236
414	0.236
415	0.236
415	0.236
416	0.236
416	0.235
416	0.235
417	0.235
417	0.235
418	0.235
418	0.234
419	0.234
419	0.234
420	0.234
420	0.234
421	0.234
421	0.234
421	0.234
422	0.235
422	0.235
423	0.234
423	0.234
424	0.234
424	0.234
425	0.234
425	0.234
426	0.234
426	0.234
427	0.233
427	0.233
427	0.234
428	0.234
428	0.234
429	0.234
429	0.233
430	0.233
430	0.233
431	0.233
431	0.233
432	0.232
432	0.232
432	0.232
433	0.231
433	0.231
434	0.231
434	0.231
435	0.231
435	0.231
436	0.231
436	0.231
437	0.231
437	0.231
437	0.231
438	0.231
438	0.231
439	0.231
439	0.231
440	0.231
440	0.231
441	0.231
441	0.231
442	0.23
442	0.231
442	0.23
443	0.23
443	0.23
444	0.23
444	0.231
445	0.231
445	0.231
446	0.23
446	0.23
447	0.23
447	0.231
447	0.231
448	0.231
448	0.23
449	0.23
449	0.23
450	0.23
450	0.23
451	0.23
451	0.23
452	0.23
452	0.23
452	0.23
453	0.23
453	0.23
454	0.23
454	0.23
455	0.231
455	0.231
456	0.231
456	0.231
457	0.231
457	0.231
458	0.231
458	0.23
458	0.23
459	0.23
459	0.23
460	0.229
460	0.229
461	0.229
461	0.229
462	0.23
462	0.23
463	0.231
463	0.231
463	0.232
464	0.232
464	0.232
465	0.233
465	0.233
466	0.234
466	0.234
467	0.234
467	0.234
467	0.234
468	0.233
468	0.233
469	0.233
469	0.233
470	0.234
470	0.233
471	0.233
471	0.233
472	0.233
472	0.234
472	0.234
473	0.235
473	0.236
474	0.236
474	0.236
475	0.237
475	0.237
476	0.238
476	0.239
477	0.239
477	0.24
477	0.24
478	0.241
478	0.241
479	0.241
479	0.242
480	0.242
480	0.242
481	0.243
481	0.243
482	0.244
482	0.245
482	0.245
483	0.246
483	0.247
484	0.248
484	0.248
485	0.249
485	0.25
486	0.251
486	0.251
487	0.252
487	0.253
487	0.254
488	0.254
488	0.254
489	0.256
489	0.257
490	0.258
490	0.259
491	0.26
491	0.261
492	0.261
492	0.262
492	0.263
493	0.264
493	0.265
494	0.266
494	0.268
495	0.269
495	0.269
496	0.271
496	0.272
496	0.273
497	0.275
497	0.276
498	0.278
498	0.279
499	0.28
499	0.282
500	0.283
500	0.285
501	0.286
501	0.287
501	0.288
502	0.289
502	0.291
503	0.292
503	0.294
504	0.295
504	0.297
505	0.299
505	0.301
506	0.303
506	0.305
506	0.307
507	0.308
507	0.31
508	0.313
508	0.314
509	0.316
509	0.318
510	0.32
510	0.321
511	0.323
511	0.325
511	0.327
512	0.328
512	0.33
513	0.331
513	0.333
514	0.335
514	0.336
515	0.338
515	0.339
515	0.34
516	0.341
516	0.342
517	0.344
517	0.345
518	0.346
518	0.347
519	0.348
519	0.349
520	0.35
520	0.351
520	0.352
521	0.352
521	0.353
522	0.354
522	0.355
523	0.355
523	0.356
524	0.357
524	0.357
524	0.358
525	0.359
525	0.36
526	0.361
526	0.361
527	0.362
527	0.362
528	0.362
528	0.363
529	0.362
529	0.363
529	0.362
530	0.362
530	0.362
531	0.361
531	0.361
532	0.36
532	0.36
533	0.36
533	0.359
533	0.359
534	0.358
534	0.358
535	0.357
535	0.357
536	0.357
536	0.356
537	0.356
537	0.355
538	0.354
538	0.353
538	0.353
539	0.352
539	0.351
540	0.35
540	0.349
541	0.348
541	0.347
542	0.346
542	0.345
542	0.343
543	0.342
543	0.34
544	0.339
544	0.338
545	0.337
545	0.336
546	0.334
546	0.333
547	0.331
547	0.329
547	0.328
548	0.327
548	0.326
549	0.324
549	0.323
550	0.321
550	0.319
551	0.318
551	0.316
551	0.315
552	0.313
552	0.312
553	0.311
553	0.309
554	0.308
554	0.306
555	0.304
555	0.302
556	0.301
556	0.299
556	0.298
557	0.297
557	0.295
558	0.294
558	0.292
559	0.291
559	0.29
560	0.288
560	0.286
560	0.285
561	0.285
561	0.283
562	0.282
562	0.281
563	0.279
563	0.278
564	0.277
564	0.276
564	0.275
565	0.274
565	0.273
566	0.271
566	0.271
567	0.27
567	0.269
568	0.268
568	0.267
568	0.265
569	0.264
569	0.263
570	0.261
570	0.258
571	0.258
571	0.257
572	0.255
572	0.254
573	0.252
573	0.251
573	0.249
574	0.249
574	0.248
575	0.248
575	0.249
576	0.248
576	0.246
577	0.244
577	0.244
577	0.244
578	0.244
578	0.244
579	0.244
579	0.244
580	0.243
580	0.24
581	0.238
581	0.238
581	0.238
582	0.238
582	0.238
583	0.238
583	0.237
584	0.234
584	0.232
585	0.233
585	0.233
585	0.233
586	0.233
586	0.232
587	0.23
587	0.228
588	0.226
588	0.225
589	0.225
589	0.225
590	0.224
590	0.223
590	0.224
591	0.224
591	0.224
592	0.223
592	0.222
593	0.223
593	0.223
594	0.222
594	0.221
594	0.221
595	0.22
595	0.219
596	0.218
596	0.218
597	0.22
597	0.22
598	0.219
598	0.219
598	0.219
599	0.219
599	0.219
600	0.218
600	0.218
601	0.219
601	0.219
602	0.218
602	0.218
602	0.217
603	0.217
603	0.218
604	0.218
604	0.218
605	0.218
605	0.219
606	0.218
606	0.216
606	0.216
607	0.215
607	0.215
608	0.215
608	0.213
609	0.212
609	0.213
610	0.212
610	0.211
610	0.211
611	0.211
611	0.211
612	0.211
612	0.212
613	0.212
613	0.212
614	0.212
614	0.211
614	0.21
615	0.209
615	0.209
616	0.209
616	0.208
617	0.208
617	0.207
618	0.206
618	0.206
618	0.205
619	0.205
619	0.205
620	0.206
620	0.205
621	0.204
621	0.204
622	0.204
622	0.203
622	0.202
623	0.201
623	0.202
624	0.201
624	0.2
625	0.199
625	0.198
626	0.197
626	0.196
626	0.196
627	0.195
627	0.194
628	0.194
628	0.193
629	0.192
629	0.191
630	0.19
630	0.188
630	0.188
631	0.187
631	0.185
632	0.183
632	0.182
633	0.181
633	0.179
634	0.178
634	0.177
634	0.176
635	0.174
635	0.173
636	0.171
636	0.169
637	0.167
637	0.165
638	0.163
638	0.161
638	0.159
639	0.155
639	0.152
640	0.149
640	0.146
641	0.143
641	0.14
642	0.137
642	0.134
642	0.13
643	0.126
643	0.122
644	0.118
644	0.113
645	0.109
645	0.105
646	0.1
646	0.094
646	0.089
647	0.082
647	0.076
648	0.07
648	0.063
649	0.056
649	0.05
650	0.042
650	0.035
650	0.027
651	0.018
651	0.006
652	-0.007
652	-0.021
653	-0.033
653	-0.044
653	-0.04
654	-0.022
654	-0.017
655	-0.022
655	-0.027
656	-0.034
656	-0.041
657	-0.046
657	-0.051
657	-0.058
658	-0.066
658	-0.097
659	-0.184
659	-0.274
660	-0.316
660	-0.345
661	-0.372
661	-0.402
661	-0.435
662	-0.466
662	-0.497
663	-0.533
663	-0.572
664	-0.611
664	-0.653
665	-0.7
665	-0.747
665	-0.793
666	-0.845
666	-0.9
667	-0.956
667	-1.02
668	-1.08
668	-1.15
669	-1.218
669	-1.291
669	-1.369
670	-1.449
670	-1.554
671	-1.699
671	-1.996
672	-2.271
672	-2.445
672	-2.572
673	-2.672
673	-2.755
674	-2.834
674	-2.855
675	-2.873
675	-2.878
676	-2.877
676	-2.843
676	-2.779
677	-2.702
677	-2.612
678	-2.481
678	-2.282
679	-1.887
679	-1.673
680	-1.557
680	-1.475
680	-1.402
681	-1.348
681	-1.292
682	-1.246
682	-1.2
683	-1.155
683	-1.129
684	-1.098
684	-1.077
684	-1.052
685	-1.03
685	-1.018
686	-0.995
686	-0.978
687	-0.967
687	-0.955
687	-0.954
688	-0.936
688	-0.927
689	-0.928
689	-0.923
690	-0.908
690	-0.897
691	-0.894
691	-0.898
691	-0.899
692	-0.897
692	-0.892
693	-0.898
693	-0.907
694	-0.887
694	-0.886
695	-0.889
695	-0.882
695	-0.888
696	-0.893
696	-0.884
697	-0.877
697	-0.873
698	-0.869
698	-0.861
698	-0.873
699	-0.873
699	-0.874
700	-0.892
700	-0.886
701	-0.87
701	-0.865
702	-0.865
702	-0.862
702	-0.863
703	-0.855
703	-0.844
704	-0.851
704	-0.853
705	-0.842
705	-0.841
705	-0.837
706	-0.832
706	-0.829
707	-0.84
707	-0.843
708	-0.84
708	-0.839
709	-0.838
709	-0.836
709	-0.833
710	-0.841
710	-0.845
711	-0.843
711	-0.845
712	-0.837
712	-0.832
713	-0.838
713	-0.836
713	-0.816
714	-0.818
714	-0.821
715	-0.812
715	-0.818
716	-0.834
716	-0.843
716	-0.844
717	-0.851
717	-0.842
718	-0.837
718	-0.838
719	-0.831
719	-0.823
720	-0.818
720	-0.814
720	-0.808
721	-0.797
721	-0.801
722	-0.799
722	-0.795
723	-0.813
723	-0.826
723	-0.834
724	-0.833
724	-0.837
725	-0.829
725	-0.832
726	-0.836
726	-0.827
727	-0.828
727	-0.834
727	-0.824
728	-0.811
728	-0.808
729	-0.809
729	-0.812
730	-0.818
730	-0.809
730	-0.815
731	-0.816
731	-0.816
732	-0.82
732	-0.813
733	-0.828
733	-0.834
734	-0.844
734	-0.836
734	-0.818
735	-0.809
735	-0.805
736	-0.804
736	-0.8
737	-0.798
737	-0.79
737	-0.783
738	-0.77
738	-0.758
739	-0.761
739	-0.763
740	-0.776
740	-0.775
741	-0.785
741	-0.795
741	-0.806
742	-0.813
742	-0.829
743	-0.834
743	-0.836
744	-0.838
744	-0.844
744	-0.837
745	-0.846
745	-0.836
746	-0.832
746	-0.822
747	-0.824
747	-0.812
748	-0.814
748	-0.819
748	-0.821
749	-0.815
749	-0.821
750	-0.812
750	-0.813
751	-0.812
751	-0.809
751	-0.821
752	-0.826
752	-0.828
753	-0.829
753	-0.823
754	-0.843
754	-0.844
754	-0.851
755	-0.851
755	-0.843
756	-0.848
756	-0.835
757	-0.827
757	-0.817
758	-0.817
758	-0.815
758	-0.81
759	-0.815
759	-0.813
760	-0.812
760	-0.815
761	-0.807
761	-0.811
761	-0.812
762	-0.817
762	-0.82
763	-0.821
763	-0.824
764	-0.825
764	-0.821
764	-0.826
765	-0.823
765	-0.83
766	-0.834
766	-0.834
767	-0.85
767	-0.843
768	-0.84
768	-0.832
768	-0.825
769	-0.828
769	-0.836
770	-0.845
770	-0.849
771	-0.845
771	-0.846
771	-0.851
772	-0.855
772	-0.876
773	-0.878
773	-0.879
774	-0.879
774	-0.861
775	-0.849
775	-0.848
775	-0.852
776	-0.862
776	-0.858
777	-0.86
777	-0.842
778	-0.85
778	-0.858
778	-0.857
779	-0.868
779	-0.884
780	-0.881
780	-0.889
781	-0.879
781	-0.869
781	-0.882
782	-0.905
782	-0.907
783	-0.906
783	-0.914
784	-0.916
784	-0.91
784	-0.928
785	-0.92
785	-0.933
786	-0.936
786	-0.928
787	-0.915
787	-0.923
788	-0.916
788	-0.908
788	-0.909
789	-0.909
789	-0.898
790	-0.897
790	-0.88
791	-0.888
791	-0.884
791	-0.879
792	-0.873
792	-0.876
793	-0.879
793	-0.867
794	-0.862
794	-0.856
794	-0.863
795	-0.883
795	-0.87
796	-0.875
796	-0.871
797	-0.864
797	-0.856
797	-0.849
798	-0.869
798	-0.873
799	-0.872
799	-0.858
800	-0.853
800	-0.859
801	-0.856
801	-0.86
801	-0.857
802	-0.857
802	-0.855
803	-0.849
803	-0.841
804	-0.847
804	-0.855
804	-0.84
805	-0.82
805	-0.812
806	-0.814
806	-0.81
807	-0.812
807	-0.812
807	-0.795
808	-0.793
808	-0.785
809	-0.779
809	-0.78
810	-0.786
810	-0.781
810	-0.775
811	-0.78
811	-0.772
812	-0.767
812	-0.769
813	-0.77
813	-0.771
813	-0.766
814	-0.766
814	-0.771
815	-0.762
815	-0.758
816	-0.753
816	-0.769
817	-0.78
817	-0.784
817	-0.793
818	-0.788
818	-0.785
819	-0.796
819	-0.796
820	-0.811
820	-0.809
820	-0.809
821	-0.802
821	-0.797
822	-0.794
822	-0.783
823	-0.793
823	-0.792
823	-0.784
824	-0.781
824	-0.791
825	-0.791
825	-0.787
826	-0.784
826	-0.779
826	-0.781
827	-0.781
827	-0.773
828	-0.774
828	-0.767
829	-0.76
829	-0.742
829	-0.74
830	-0.74
830	-0.727
831	-0.721
831	-0.709
832	-0.699
832	-0.692
832	-0.684
833	-0.684
833	-0.69
834	-0.687
834	-0.68
835	-0.671
835	-0.671
835	-0.665
836	-0.661
836	-0.658
837	-0.649
837	-0.639
838	-0.626
838	-0.61
839	-0.603
839	-0.591
839	-0.582
840	-0.58
840	-0.57
841	-0.559
841	-0.551
842	-0.543
842	-0.53
842	-0.527
843	-0.522
843	-0.517
844	-0.514
844	-0.5
845	-0.486
845	-0.476
845	-0.465
846	-0.452
846	-0.441
847	-0.43
847	-0.417
848	-0.402
848	-0.384
848	-0.37
849	-0.36
849	-0.347
850	-0.336
850	-0.325
851	-0.312
851	-0.295
851	-0.286
852	-0.271
852	-0.256
853	-0.247
853	-0.236
854	-0.224
854	-0.211
854	-0.198
855	-0.186
855	-0.178
856	-0.169
856	-0.16
857	-0.151
857	-0.144
857	-0.129
858	-0.118
858	-0.11
859	-0.099
859	-0.087
860	-0.076
860	-0.061
860	-0.05
861	-0.039
861	-0.03
862	-0.02
862	-0.011
863	-0.002
863	0.008
863	0.015
864	0.021
864	0.029
865	0.036
865	0.042
866	0.048
866	0.055
866	0.06
867	0.065
867	0.071
868	0.075
868	0.08
869	0.085
869	0.088
869	0.09
870	0.093
870	0.095
871	0.096
871	0.097
872	0.098
872	0.099
872	0.1
873	0.1
873	0.1
874	0.099
874	0.099
875	0.099
875	0.098
875	0.098
876	0.098
876	0.098
877	0.097
877	0.096
878	0.096
878	0.095
878	0.095
879	0.094
879	0.093
880	0.093
880	0.092
881	0.09
881	0.089
881	0.088
882	0.087
882	0.086
883	0.084
883	0.083
884	0.082
884	0.082
884	0.081
885	0.081
885	0.081
886	0.081
886	0.081
887	0.08
887	0.08
887	0.08
888	0.08
888	0.079
889	0.079
889	0.078
890	0.077
890	0.076
890	0.076
891	0.075
891	0.075
892	0.075
892	0.075
893	0.075
893	0.075
893	0.075
894	0.075
894	0.075
895	0.075
895	0.075
895	0.075
896	0.076
896	0.076
897	0.077
897	0.077
898	0.077
898	0.077
898	0.077
899	0.078
899	0.078
900	0.078
900	0.078
901	0.078
901	0.077
901	0.077
902	0.077
902	0.077
903	0.077
903	0.078
904	0.078
904	0.078
904	0.078
905	0.079
905	0.079
906	0.08
906	0.08
907	0.08
907	0.081
907	0.081
908	0.081
908	0.081
909	0.081
909	0.081
910	0.08
910	0.08
910	0.08
911	0.08
911	0.08
912	0.081
912	0.082
913	0.083
913	0.084
913	0.085
914	0.086
914	0.087
915	0.087
915	0.088
916	0.089
916	0.089
916	0.089
917	0.09
917	0.09
918	0.09
918	0.09
918	0.091
919	0.091
919	0.091
920	0.091
920	0.092
921	0.092
921	0.092
921	0.092
922	0.092
922	0.092
923	0.091
923	0.09
924	0.09
924	0.089
924	0.088
925	0.086
925	0.085
926	0.083
926	0.082
927	0.081
927	0.08
927	0.079
928	0.078
928	0.078
929	0.077
929	0.077
930	0.077
930	0.078
930	0.078
931	0.079
931	0.079
932	0.081
932	0.082
933	0.083
933	0.083
933	0.084
934	0.084
934	0.084
935	0.084
935	0.083
935	0.082
936	0.081
936	0.079
937	0.078
937	0.076
938	0.075
938	0.073
938	0.072
939	0.071
939	0.07
940	0.069
940	0.068
941	0.067
941	0.067
941	0.067
942	0.067
942	0.067
943	0.067
943	0.066
944	0.066
944	0.065
944	0.064
945	0.064
945	0.064
946	0.064
946	0.063
946	0.063
947	0.063
947	0.063
948	0.063
948	0.064
949	0.065
949	0.066
949	0.067
950	0.068
950	0.069
951	0.07
951	0.071
952	0.072
952	0.073
952	0.073
953	0.074
953	0.074
954	0.074
954	0.074
955	0.074
955	0.074
955	0.073
956	0.073
956	0.072
957	0.07
957	0.07
957	0.069
958	0.068
958	0.067
959	0.066
959	0.066
960	0.065
960	0.065
960	0.065
961	0.065
961	0.065
962	0.064
962	0.065
963	0.065
963	0.065
963	0.066
964	0.066
964	0.067
965	0.068
965	0.068
966	0.069
966	0.069
966	0.07
967	0.07
967	0.07
968	0.07
968	0.07
968	0.07
969	0.07
969	0.07
970	0.07
970	0.07
971	0.071
971	0.072
971	0.073
972	0.074
972	0.075
973	0.075
973	0.075
974	0.076
974	0.076
974	0.076
975	0.077
975	0.077
976	0.076
976	0.076
976	0.076
977	0.075
977	0.074
978	0.073
978	0.072
979	0.071
979	0.069
979	0.069
980	0.068
980	0.067
981	0.066
981	0.066
982	0.066
982	0.065
982	0.065
983	0.065
983	0.065
984	0.066
984	0.065
984	0.065
985	0.064
985	0.064
986	0.062
986	0.061
987	0.06
987	0.059
987	0.058
988	0.056
988	0.055
989	0.054
989	0.053
990	0.052
990	0.051
990	0.051
991	0.051
991	0.051
992	0.051
992	0.051
992	0.051
993	0.051
993	0.051
994	0.051
994	0.05
995	0.05
995	0.049
995	0.048
996	0.047
996	0.046
997	0.045
997	0.044
997	0.044
998	0.043
998	0.044
999	0.043
999	0.044
1000	0.044
1000	0.045
1000	0.045
1001	0.046
1001	0.047
1002	0.047
1002	0.047
1003	0.047
1003	0.047
1003	0.047
1004	0.046
1004	0.046
1005	0.046
1005	0.045
1005	0.044
1006	0.042
1006	0.041
1007	0.04
1007	0.039
1008	0.039
1008	0.038
1008	0.038
1009	0.037
1009	0.037
1010	0.038
1010	0.038
1010	0.038
1011	0.039
1011	0.039
1012	0.04
1012	0.041
1013	0.042
1013	0.042
1013	0.043
1014	0.043
1014	0.044
1015	0.044
1015	0.045
1016	0.045
1016	0.045
1016	0.045
1017	0.045
1017	0.045
1018	0.045
1018	0.045
1018	0.044
1019	0.044
1019	0.043
1020	0.043
1020	0.042
1021	0.041
1021	0.041
1021	0.04
1022	0.04
1022	0.039
1023	0.039
1023	0.039
1023	0.038
1024	0.038
1024	0.038
1025	0.038
1025	0.038
1026	0.038
1026	0.038
1026	0.038
1027	0.037
1027	0.038
1028	0.038
1028	0.039
1028	0.039
1029	0.039
1029	0.038
1030	0.038
1030	0.038
1031	0.038
1031	0.038
1031	0.038
1032	0.038
1032	0.038
1033	0.037
1033	0.037
1033	0.037
1034	0.037
1034	0.037
1035	0.037
1035	0.037
1036	0.037
1036	0.037
1036	0.037
1037	0.038
1037	0.039
1038	0.039
1038	0.04
1039	0.041
1039	0.041
1039	0.042
1040	0.043
1040	0.044
1041	0.043
1041	0.044
1041	0.043
1042	0.043
1042	0.042
1043	0.041
1043	0.04
1044	0.039
1044	0.038
1044	0.037
1045	0.036
1045	0.035
1046	0.034
1046	0.033
1046	0.033
1047	0.033
1047	0.032
1048	0.033
1048	0.033
1049	0.033
1049	0.033
1049	0.033
1050	0.032
1050	0.032
1051	0.031
1051	0.03
1051	0.03
1052	0.029
1052	0.028
1053	0.027
1053	0.026
1053	0.026
1054	0.025
1054	0.025
1055	0.025
1055	0.026
1056	0.025
1056	0.025
1056	0.025
1057	0.025
1057	0.026
1058	0.025
1058	0.025
1058	0.025
1059	0.024
1059	0.024
1060	0.023
1060	0.023
1061	0.023
1061	0.023
1061	0.023
1062	0.022
1062	0.022
1063	0.022
1063	0.021
1063	0.021
1064	0.022
1064	0.021
1065	0.021
1065	0.021
1066	0.021
1066	0.021
1066	0.021
1067	0.021
1067	0.02
1068	0.02
1068	0.02
1068	0.019
1069	0.019
1069	0.018
1070	0.018
1070	0.018
1071	0.018
1071	0.017
1071	0.017
1072	0.017
1072	0.017
1073	0.017
1073	0.017
1073	0.017
1074	0.017
1074	0.017
1075	0.016
1075	0.015
1076	0.014
1076	0.014
1076	0.012
1077	0.011
1077	0.01
1078	0.008
1078	0.007
1078	0.006
1079	0.005
1079	0.004
1080	0.002
1080	0.001
1080	-0
1081	-0.001
1081	-0.002
1082	-0.003
1082	-0.005
1083	-0.006
1083	-0.007
1083	-0.008
1084	-0.009
1084	-0.009
1085	-0.01
1085	-0.011
1085	-0.011
1086	-0.011
1086	-0.013
1087	-0.013
1087	-0.014
1088	-0.015
1088	-0.015
1088	-0.016
1089	-0.018
1089	-0.018
1090	-0.019
1090	-0.02
1090	-0.022
1091	-0.023
1091	-0.023
1092	-0.023
1092	-0.024
1092	-0.025
1093	-0.026
1093	-0.026
1094	-0.027
1094	-0.028
1095	-0.03
1095	-0.03
1095	-0.031
1096	-0.033
1096	-0.035
1097	-0.036
1097	-0.037
1097	-0.038
1098	-0.04
1098	-0.043
1099	-0.044
1099	-0.046
1100	-0.048
1100	-0.051
1100	-0.054
1101	-0.057
1101	-0.061
1102	-0.063
1102	-0.066
1102	-0.068
1103	-0.071
1103	-0.075
1104	-0.079
1104	-0.082
1104	-0.083
1105	-0.085
1105	-0.089
1106	-0.094
1106	-0.097
1107	-0.103
1107	-0.108
1107	-0.113
1108	-0.115
1108	-0.116
1109	-0.12
1109	-0.125
1109	-0.13
1110	-0.133
1110	-0.136
1111	-0.147
1111	-0.143
