Data from 3.4A_17C_Absorbance__29__00986.txt Node

Date: Tue Jun 20 15:38:46 CEST 2023
User: Marek
Spectrometer: MAYP115816
Trigger mode: 0
Integration Time (sec): 2.200000E-1
Scans to average: 10
Electric dark correction enabled: true
Nonlinearity correction enabled: true
Boxcar width: 5
XAxis mode: Wavelengths
Number of Pixels in Spectrum: 2068
>>>>>Begin Spectral Data<<<<<
199	-0.731
199	-0.72
200	-0.687
200	-0.633
201	-0.606
201	-0.597
202	-0.581
202	-0.575
203	-0.575
203	-0.569
204	-0.551
204	-0.534
205	-0.51
205	-0.5
205	-0.508
206	-0.51
206	-0.507
207	-0.498
207	-0.504
208	-0.505
208	-0.508
209	-0.511
209	-0.517
210	-0.532
210	-0.536
211	-0.529
211	-0.532
212	-0.539
212	-0.546
213	-0.543
213	-0.537
213	-0.535
214	-0.542
214	-0.545
215	-0.542
215	-0.548
216	-0.557
216	-0.562
217	-0.562
217	-0.564
218	-0.573
218	-0.575
219	-0.582
219	-0.582
220	-0.584
220	-0.589
221	-0.59
221	-0.59
221	-0.583
222	-0.581
222	-0.579
223	-0.574
223	-0.575
224	-0.574
224	-0.573
225	-0.573
225	-0.575
226	-0.576
226	-0.577
227	-0.585
227	-0.595
228	-0.599
228	-0.608
229	-0.614
229	-0.612
229	-0.613
230	-0.606
230	-0.606
231	-0.602
231	-0.596
232	-0.6
232	-0.595
233	-0.596
233	-0.586
234	-0.586
234	-0.581
235	-0.585
235	-0.595
236	-0.6
236	-0.602
236	-0.604
237	-0.599
237	-0.599
238	-0.598
238	-0.598
239	-0.6
239	-0.609
240	-0.603
240	-0.599
241	-0.594
241	-0.596
242	-0.598
242	-0.607
243	-0.609
243	-0.612
243	-0.616
244	-0.612
244	-0.614
245	-0.617
245	-0.622
246	-0.633
246	-0.636
247	-0.643
247	-0.629
248	-0.627
248	-0.629
249	-0.637
249	-0.638
250	-0.637
250	-0.644
250	-0.64
251	-0.641
251	-0.636
252	-0.637
252	-0.65
253	-0.645
253	-0.656
254	-0.66
254	-0.661
255	-0.671
255	-0.672
256	-0.675
256	-0.687
257	-0.696
257	-0.693
258	-0.694
258	-0.701
258	-0.698
259	-0.69
259	-0.706
260	-0.706
260	-0.693
261	-0.705
261	-0.692
262	-0.698
262	-0.696
263	-0.686
263	-0.692
264	-0.702
264	-0.704
265	-0.696
265	-0.7
265	-0.71
266	-0.699
266	-0.699
267	-0.698
267	-0.716
268	-0.723
268	-0.718
269	-0.71
269	-0.725
270	-0.729
270	-0.727
271	-0.739
271	-0.75
272	-0.752
272	-0.754
272	-0.747
273	-0.757
273	-0.77
274	-0.762
274	-0.756
275	-0.752
275	-0.738
276	-0.741
276	-0.748
277	-0.749
277	-0.746
278	-0.751
278	-0.751
278	-0.738
279	-0.747
279	-0.76
280	-0.762
280	-0.776
281	-0.767
281	-0.76
282	-0.766
282	-0.76
283	-0.751
283	-0.765
284	-0.78
284	-0.789
285	-0.769
285	-0.775
285	-0.767
286	-0.776
286	-0.789
287	-0.785
287	-0.783
288	-0.784
288	-0.766
289	-0.765
289	-0.773
290	-0.784
290	-0.773
291	-0.778
291	-0.773
292	-0.754
292	-0.753
292	-0.757
293	-0.745
293	-0.741
294	-0.739
294	-0.726
295	-0.708
295	-0.72
296	-0.729
296	-0.723
297	-0.713
297	-0.716
298	-0.711
298	-0.729
298	-0.733
299	-0.715
299	-0.71
300	-0.706
300	-0.687
301	-0.67
301	-0.674
302	-0.682
302	-0.669
303	-0.663
303	-0.65
304	-0.635
304	-0.636
305	-0.626
305	-0.636
305	-0.65
306	-0.636
306	-0.635
307	-0.628
307	-0.639
308	-0.643
308	-0.64
309	-0.641
309	-0.639
310	-0.638
310	-0.631
311	-0.616
311	-0.634
311	-0.622
312	-0.62
312	-0.607
313	-0.598
313	-0.599
314	-0.604
314	-0.6
315	-0.597
315	-0.59
316	-0.585
316	-0.575
317	-0.566
317	-0.561
318	-0.554
318	-0.552
318	-0.54
319	-0.528
319	-0.521
320	-0.518
320	-0.518
321	-0.513
321	-0.512
322	-0.505
322	-0.498
323	-0.499
323	-0.49
324	-0.487
324	-0.477
324	-0.465
325	-0.45
325	-0.433
326	-0.425
326	-0.4
327	-0.385
327	-0.362
328	-0.329
328	-0.306
329	-0.278
329	-0.249
330	-0.221
330	-0.183
330	-0.146
331	-0.11
331	-0.078
332	-0.044
332	-0.01
333	0.021
333	0.057
334	0.089
334	0.115
335	0.142
335	0.163
336	0.186
336	0.208
336	0.227
337	0.245
337	0.264
338	0.278
338	0.289
339	0.303
339	0.315
340	0.324
340	0.334
341	0.342
341	0.348
342	0.356
342	0.362
342	0.366
343	0.37
343	0.375
344	0.378
344	0.381
345	0.385
345	0.387
346	0.389
346	0.391
347	0.393
347	0.394
348	0.396
348	0.398
348	0.399
349	0.4
349	0.4
350	0.401
350	0.402
351	0.402
351	0.403
352	0.403
352	0.403
353	0.404
353	0.404
354	0.404
354	0.404
354	0.404
355	0.404
355	0.404
356	0.404
356	0.404
357	0.404
357	0.404
358	0.404
358	0.404
359	0.404
359	0.404
360	0.404
360	0.404
360	0.404
361	0.404
361	0.404
362	0.404
362	0.403
363	0.403
363	0.403
364	0.403
364	0.403
365	0.402
365	0.402
366	0.402
366	0.401
366	0.401
367	0.401
367	0.401
368	0.4
368	0.4
369	0.399
369	0.399
370	0.399
370	0.399
371	0.399
371	0.398
372	0.398
372	0.398
372	0.397
373	0.397
373	0.397
374	0.397
374	0.396
375	0.396
375	0.395
376	0.394
376	0.394
377	0.394
377	0.393
378	0.393
378	0.392
378	0.392
379	0.391
379	0.391
380	0.391
380	0.391
381	0.39
381	0.39
382	0.389
382	0.388
383	0.388
383	0.388
383	0.387
384	0.387
384	0.386
385	0.385
385	0.385
386	0.384
386	0.384
387	0.384
387	0.383
388	0.383
388	0.382
389	0.382
389	0.382
389	0.382
390	0.381
390	0.381
391	0.381
391	0.38
392	0.38
392	0.38
393	0.379
393	0.379
394	0.378
394	0.378
394	0.377
395	0.377
395	0.376
396	0.376
396	0.375
397	0.375
397	0.374
398	0.374
398	0.373
399	0.373
399	0.372
400	0.372
400	0.372
400	0.371
401	0.371
401	0.37
402	0.37
402	0.37
403	0.37
403	0.369
404	0.369
404	0.368
405	0.368
405	0.367
405	0.367
406	0.366
406	0.366
407	0.366
407	0.365
408	0.365
408	0.364
409	0.364
409	0.364
410	0.364
410	0.364
411	0.364
411	0.363
411	0.363
412	0.362
412	0.362
413	0.362
413	0.362
414	0.361
414	0.361
415	0.361
415	0.36
416	0.36
416	0.36
416	0.36
417	0.359
417	0.359
418	0.359
418	0.359
419	0.359
419	0.359
420	0.358
420	0.358
421	0.358
421	0.358
421	0.358
422	0.358
422	0.358
423	0.357
423	0.357
424	0.356
424	0.356
425	0.356
425	0.356
426	0.356
426	0.356
427	0.356
427	0.356
427	0.356
428	0.356
428	0.355
429	0.355
429	0.355
430	0.354
430	0.354
431	0.353
431	0.353
432	0.353
432	0.352
432	0.352
433	0.352
433	0.352
434	0.352
434	0.352
435	0.353
435	0.353
436	0.353
436	0.353
437	0.353
437	0.353
437	0.353
438	0.353
438	0.353
439	0.353
439	0.353
440	0.352
440	0.352
441	0.352
441	0.353
442	0.352
442	0.352
442	0.353
443	0.352
443	0.353
444	0.353
444	0.353
445	0.353
445	0.353
446	0.352
446	0.352
447	0.352
447	0.352
447	0.352
448	0.352
448	0.352
449	0.352
449	0.352
450	0.353
450	0.353
451	0.353
451	0.353
452	0.353
452	0.353
452	0.353
453	0.354
453	0.354
454	0.354
454	0.354
455	0.355
455	0.355
456	0.356
456	0.356
457	0.356
457	0.356
458	0.356
458	0.356
458	0.356
459	0.357
459	0.357
460	0.357
460	0.357
461	0.357
461	0.358
462	0.358
462	0.359
463	0.36
463	0.36
463	0.361
464	0.361
464	0.362
465	0.363
465	0.363
466	0.364
466	0.365
467	0.365
467	0.366
467	0.366
468	0.366
468	0.367
469	0.368
469	0.369
470	0.369
470	0.37
471	0.37
471	0.371
472	0.372
472	0.372
472	0.374
473	0.375
473	0.376
474	0.377
474	0.378
475	0.379
475	0.38
476	0.381
476	0.383
477	0.384
477	0.385
477	0.386
478	0.387
478	0.388
479	0.39
479	0.391
480	0.392
480	0.394
481	0.396
481	0.397
482	0.399
482	0.4
482	0.402
483	0.404
483	0.407
484	0.409
484	0.41
485	0.412
485	0.413
486	0.415
486	0.417
487	0.418
487	0.42
487	0.422
488	0.424
488	0.425
489	0.428
489	0.43
490	0.433
490	0.436
491	0.438
491	0.441
492	0.443
492	0.446
492	0.448
493	0.45
493	0.453
494	0.456
494	0.459
495	0.462
495	0.465
496	0.468
496	0.471
496	0.474
497	0.477
497	0.48
498	0.483
498	0.486
499	0.489
499	0.493
500	0.497
500	0.501
501	0.505
501	0.508
501	0.511
502	0.515
502	0.518
503	0.522
503	0.526
504	0.529
504	0.532
505	0.536
505	0.54
506	0.544
506	0.547
506	0.552
507	0.555
507	0.559
508	0.563
508	0.567
509	0.571
509	0.575
510	0.579
510	0.582
511	0.585
511	0.589
511	0.592
512	0.596
512	0.599
513	0.602
513	0.605
514	0.608
514	0.612
515	0.615
515	0.618
515	0.621
516	0.624
516	0.627
517	0.63
517	0.633
518	0.635
518	0.637
519	0.639
519	0.641
520	0.643
520	0.645
520	0.647
521	0.649
521	0.65
522	0.652
522	0.653
523	0.655
523	0.656
524	0.657
524	0.658
524	0.659
525	0.66
525	0.661
526	0.661
526	0.661
527	0.662
527	0.661
528	0.661
528	0.661
529	0.661
529	0.66
529	0.659
530	0.658
530	0.657
531	0.656
531	0.655
532	0.654
532	0.652
533	0.651
533	0.649
533	0.648
534	0.646
534	0.644
535	0.641
535	0.639
536	0.637
536	0.634
537	0.631
537	0.628
538	0.625
538	0.621
538	0.618
539	0.615
539	0.612
540	0.608
540	0.604
541	0.6
541	0.596
542	0.592
542	0.588
542	0.584
543	0.58
543	0.575
544	0.571
544	0.567
545	0.562
545	0.558
546	0.553
546	0.549
547	0.544
547	0.538
547	0.533
548	0.529
548	0.524
549	0.519
549	0.514
550	0.509
550	0.503
551	0.498
551	0.492
551	0.487
552	0.482
552	0.477
553	0.472
553	0.468
554	0.462
554	0.457
555	0.452
555	0.447
556	0.442
556	0.437
556	0.432
557	0.427
557	0.422
558	0.417
558	0.412
559	0.407
559	0.402
560	0.397
560	0.392
560	0.388
561	0.384
561	0.38
562	0.375
562	0.371
563	0.367
563	0.362
564	0.358
564	0.355
564	0.351
565	0.347
565	0.343
566	0.339
566	0.335
567	0.331
567	0.327
568	0.323
568	0.318
568	0.314
569	0.309
569	0.305
570	0.299
570	0.294
571	0.291
571	0.287
572	0.283
572	0.279
573	0.275
573	0.271
573	0.267
574	0.264
574	0.261
575	0.259
575	0.257
576	0.254
576	0.25
577	0.246
577	0.244
577	0.242
578	0.239
578	0.237
579	0.236
579	0.233
580	0.229
580	0.225
581	0.222
581	0.219
581	0.217
582	0.215
582	0.213
583	0.211
583	0.208
584	0.203
584	0.199
585	0.197
585	0.195
585	0.193
586	0.19
586	0.187
587	0.184
587	0.182
588	0.179
588	0.177
589	0.176
589	0.174
590	0.172
590	0.17
590	0.17
591	0.168
591	0.166
592	0.164
592	0.161
593	0.16
593	0.158
594	0.156
594	0.154
594	0.153
595	0.151
595	0.149
596	0.146
596	0.146
597	0.146
597	0.145
598	0.143
598	0.142
598	0.141
599	0.14
599	0.138
600	0.137
600	0.135
601	0.134
601	0.133
602	0.131
602	0.13
602	0.128
603	0.127
603	0.126
604	0.125
604	0.124
605	0.124
605	0.123
606	0.122
606	0.12
606	0.119
607	0.117
607	0.117
608	0.115
608	0.114
609	0.112
609	0.112
610	0.11
610	0.109
610	0.108
611	0.108
611	0.107
612	0.107
612	0.107
613	0.106
613	0.106
614	0.104
614	0.103
614	0.102
615	0.101
615	0.1
616	0.099
616	0.098
617	0.097
617	0.096
618	0.095
618	0.094
618	0.093
619	0.093
619	0.093
620	0.093
620	0.092
621	0.091
621	0.09
622	0.089
622	0.089
622	0.087
623	0.087
623	0.087
624	0.087
624	0.085
625	0.084
625	0.084
626	0.083
626	0.082
626	0.082
627	0.081
627	0.08
628	0.079
628	0.078
629	0.077
629	0.077
630	0.075
630	0.074
630	0.074
631	0.073
631	0.072
632	0.071
632	0.07
633	0.069
633	0.068
634	0.068
634	0.067
634	0.067
635	0.066
635	0.065
636	0.064
636	0.064
637	0.063
637	0.062
638	0.062
638	0.061
638	0.06
639	0.058
639	0.057
640	0.056
640	0.055
641	0.054
641	0.053
642	0.053
642	0.052
642	0.05
643	0.049
643	0.047
644	0.046
644	0.044
645	0.042
645	0.041
646	0.038
646	0.035
646	0.031
647	0.028
647	0.025
648	0.022
648	0.019
649	0.015
649	0.012
650	0.009
650	0.005
650	0.001
651	-0.005
651	-0.011
652	-0.017
652	-0.025
653	-0.03
653	-0.036
653	-0.033
654	-0.025
654	-0.027
655	-0.032
655	-0.036
656	-0.04
656	-0.045
657	-0.048
657	-0.051
657	-0.057
658	-0.061
658	-0.082
659	-0.136
659	-0.185
660	-0.208
660	-0.225
661	-0.243
661	-0.263
661	-0.285
662	-0.302
662	-0.32
663	-0.338
663	-0.36
664	-0.38
664	-0.403
665	-0.428
665	-0.454
665	-0.475
666	-0.499
666	-0.527
667	-0.555
667	-0.588
668	-0.622
668	-0.667
669	-0.712
669	-0.759
669	-0.818
670	-0.889
670	-1.052
671	-1.373
671	-1.783
672	-2.156
672	-2.372
672	-2.52
673	-2.591
673	-2.609
674	-2.626
674	-2.635
675	-2.649
675	-2.652
676	-2.645
676	-2.598
676	-2.476
677	-2.289
677	-1.946
678	-1.379
678	-1.078
679	-0.979
679	-0.922
680	-0.88
680	-0.853
680	-0.83
681	-0.822
681	-0.802
682	-0.793
682	-0.774
683	-0.754
683	-0.754
684	-0.747
684	-0.745
684	-0.742
685	-0.739
685	-0.743
686	-0.731
686	-0.729
687	-0.728
687	-0.729
687	-0.738
688	-0.731
688	-0.731
689	-0.741
689	-0.742
690	-0.734
690	-0.728
691	-0.732
691	-0.739
691	-0.745
692	-0.749
692	-0.747
693	-0.759
693	-0.775
694	-0.758
694	-0.76
695	-0.767
695	-0.763
695	-0.773
696	-0.782
696	-0.776
697	-0.772
697	-0.771
698	-0.765
698	-0.759
698	-0.775
699	-0.774
699	-0.773
700	-0.794
700	-0.789
701	-0.776
701	-0.772
702	-0.773
702	-0.774
702	-0.777
703	-0.766
703	-0.755
704	-0.764
704	-0.771
705	-0.76
705	-0.759
705	-0.755
706	-0.75
706	-0.748
707	-0.758
707	-0.76
708	-0.759
708	-0.756
709	-0.759
709	-0.757
709	-0.751
710	-0.762
710	-0.764
711	-0.763
711	-0.764
712	-0.756
712	-0.755
713	-0.761
713	-0.763
713	-0.741
714	-0.742
714	-0.75
715	-0.742
715	-0.75
716	-0.768
716	-0.777
716	-0.778
717	-0.784
717	-0.775
718	-0.77
718	-0.773
719	-0.771
719	-0.764
720	-0.758
720	-0.754
720	-0.747
721	-0.737
721	-0.744
722	-0.741
722	-0.738
723	-0.755
723	-0.767
723	-0.774
724	-0.773
724	-0.78
725	-0.773
725	-0.777
726	-0.781
726	-0.77
727	-0.773
727	-0.781
727	-0.772
728	-0.758
728	-0.754
729	-0.755
729	-0.757
730	-0.764
730	-0.757
730	-0.764
731	-0.765
731	-0.766
732	-0.767
732	-0.761
733	-0.778
733	-0.784
734	-0.794
734	-0.786
734	-0.769
735	-0.757
735	-0.754
736	-0.754
736	-0.748
737	-0.749
737	-0.74
737	-0.733
738	-0.72
738	-0.707
739	-0.711
739	-0.71
740	-0.725
740	-0.724
741	-0.735
741	-0.747
741	-0.755
742	-0.761
742	-0.777
743	-0.783
743	-0.788
744	-0.79
744	-0.799
744	-0.791
745	-0.8
745	-0.789
746	-0.784
746	-0.775
747	-0.777
747	-0.768
748	-0.77
748	-0.774
748	-0.776
749	-0.768
749	-0.776
750	-0.767
750	-0.767
751	-0.766
751	-0.764
751	-0.777
752	-0.779
752	-0.78
753	-0.783
753	-0.776
754	-0.796
754	-0.795
754	-0.804
755	-0.803
755	-0.796
756	-0.8
756	-0.785
757	-0.778
757	-0.767
758	-0.766
758	-0.765
758	-0.762
759	-0.766
759	-0.764
760	-0.764
760	-0.766
761	-0.757
761	-0.762
761	-0.762
762	-0.769
762	-0.769
763	-0.768
763	-0.771
764	-0.772
764	-0.767
764	-0.771
765	-0.77
765	-0.779
766	-0.782
766	-0.784
767	-0.8
767	-0.796
768	-0.795
768	-0.788
768	-0.783
769	-0.787
769	-0.796
770	-0.807
770	-0.811
771	-0.808
771	-0.808
771	-0.812
772	-0.816
772	-0.836
773	-0.835
773	-0.835
774	-0.83
774	-0.811
775	-0.797
775	-0.795
775	-0.797
776	-0.808
776	-0.803
777	-0.803
777	-0.786
778	-0.796
778	-0.804
778	-0.807
779	-0.817
779	-0.833
780	-0.827
780	-0.835
781	-0.824
781	-0.815
781	-0.829
782	-0.849
782	-0.85
783	-0.848
783	-0.855
784	-0.859
784	-0.854
784	-0.876
785	-0.871
785	-0.884
786	-0.889
786	-0.883
787	-0.874
787	-0.884
788	-0.879
788	-0.873
788	-0.874
789	-0.875
789	-0.863
790	-0.863
790	-0.847
791	-0.854
791	-0.849
791	-0.843
792	-0.836
792	-0.841
793	-0.843
793	-0.831
794	-0.824
794	-0.819
794	-0.826
795	-0.846
795	-0.832
796	-0.839
796	-0.835
797	-0.827
797	-0.816
797	-0.812
798	-0.832
798	-0.836
799	-0.834
799	-0.82
800	-0.813
800	-0.823
801	-0.82
801	-0.823
801	-0.819
802	-0.819
802	-0.819
803	-0.814
803	-0.805
804	-0.813
804	-0.821
804	-0.806
805	-0.787
805	-0.779
806	-0.78
806	-0.777
807	-0.779
807	-0.779
807	-0.762
808	-0.761
808	-0.752
809	-0.747
809	-0.749
810	-0.751
810	-0.747
810	-0.744
811	-0.748
811	-0.737
812	-0.729
812	-0.731
813	-0.733
813	-0.734
813	-0.728
814	-0.729
814	-0.735
815	-0.726
815	-0.721
816	-0.718
816	-0.737
817	-0.748
817	-0.751
817	-0.761
818	-0.755
818	-0.753
819	-0.762
819	-0.76
820	-0.771
820	-0.77
820	-0.767
821	-0.761
821	-0.759
822	-0.758
822	-0.746
823	-0.756
823	-0.754
823	-0.749
824	-0.749
824	-0.76
825	-0.76
825	-0.758
826	-0.755
826	-0.749
826	-0.747
827	-0.748
827	-0.739
828	-0.739
828	-0.734
829	-0.728
829	-0.712
829	-0.71
830	-0.708
830	-0.694
831	-0.689
831	-0.679
832	-0.669
832	-0.664
832	-0.656
833	-0.656
833	-0.661
834	-0.656
834	-0.65
835	-0.643
835	-0.644
835	-0.64
836	-0.636
836	-0.633
837	-0.624
837	-0.616
838	-0.602
838	-0.585
839	-0.58
839	-0.567
839	-0.558
840	-0.555
840	-0.545
841	-0.535
841	-0.528
842	-0.52
842	-0.51
842	-0.509
843	-0.506
843	-0.502
844	-0.501
844	-0.49
845	-0.476
845	-0.467
845	-0.458
846	-0.448
846	-0.439
847	-0.428
847	-0.417
848	-0.402
848	-0.386
848	-0.374
849	-0.362
849	-0.353
850	-0.344
850	-0.335
851	-0.322
851	-0.307
851	-0.299
852	-0.284
852	-0.274
853	-0.266
853	-0.255
854	-0.246
854	-0.236
854	-0.224
855	-0.214
855	-0.208
856	-0.201
856	-0.193
857	-0.187
857	-0.18
857	-0.169
858	-0.16
858	-0.153
859	-0.144
859	-0.135
860	-0.126
860	-0.113
860	-0.104
861	-0.095
861	-0.087
862	-0.079
862	-0.073
863	-0.066
863	-0.058
863	-0.053
864	-0.048
864	-0.042
865	-0.037
865	-0.033
866	-0.029
866	-0.024
866	-0.021
867	-0.017
867	-0.013
868	-0.01
868	-0.006
869	-0.003
869	0
869	0.002
870	0.004
870	0.006
871	0.007
871	0.008
872	0.009
872	0.009
872	0.01
873	0.01
873	0.01
874	0.01
874	0.009
875	0.009
875	0.009
875	0.009
876	0.009
876	0.008
877	0.008
877	0.008
878	0.007
878	0.007
878	0.007
879	0.006
879	0.006
880	0.006
880	0.005
881	0.004
881	0.003
881	0.003
882	0.002
882	0.001
883	0.001
883	0
884	0.001
884	0.001
884	0.001
885	0.001
885	0.002
886	0.002
886	0.002
887	0.002
887	0.001
887	0.001
888	0
888	-0.001
889	-0.002
889	-0.002
890	-0.003
890	-0.004
890	-0.004
891	-0.004
891	-0.005
892	-0.003
892	-0.003
893	-0.002
893	-0.002
893	-0.002
894	-0.001
894	-0.001
895	-0.001
895	-0.001
895	-0.001
896	-0
896	-0.001
897	-0
897	-0
898	-0
898	0
898	0
899	0.001
899	0.001
900	0.002
900	0.002
901	0.002
901	0.002
901	0.002
902	0.002
902	0.002
903	0.002
903	0.002
904	0.001
904	0.001
904	0
905	-0
905	-0
906	0.001
906	0.001
907	0.001
907	0.002
907	0.002
908	0.003
908	0.004
909	0.005
909	0.006
910	0.007
910	0.008
910	0.009
911	0.01
911	0.011
912	0.013
912	0.014
913	0.016
913	0.017
913	0.017
914	0.018
914	0.018
915	0.018
915	0.018
916	0.017
916	0.017
916	0.016
917	0.015
917	0.014
918	0.013
918	0.012
918	0.012
919	0.011
919	0.01
920	0.01
920	0.01
921	0.009
921	0.009
921	0.009
922	0.009
922	0.009
923	0.008
923	0.008
924	0.008
924	0.008
924	0.008
925	0.008
925	0.007
926	0.007
926	0.007
927	0.007
927	0.006
927	0.006
928	0.006
928	0.007
929	0.007
929	0.008
930	0.008
930	0.009
930	0.009
931	0.01
931	0.01
932	0.011
932	0.011
933	0.011
933	0.011
933	0.01
934	0.01
934	0.009
935	0.008
935	0.007
935	0.006
936	0.004
936	0.003
937	0.002
937	0.001
938	0
938	-0.001
938	-0.001
939	-0.002
939	-0.002
940	-0.002
940	-0.003
941	-0.003
941	-0.003
941	-0.003
942	-0.004
942	-0.004
943	-0.004
943	-0.004
944	-0.004
944	-0.004
944	-0.004
945	-0.004
945	-0.003
946	-0.003
946	-0.003
946	-0.003
947	-0.003
947	-0.003
948	-0.003
948	-0.003
949	-0.002
949	-0.002
949	-0.002
950	-0.002
950	-0.002
951	-0.001
951	-0.001
952	-0.001
952	-0
952	0
953	0.001
953	0.001
954	0.001
954	0.002
955	0.002
955	0.002
955	0.002
956	0.002
956	0.002
957	0.001
957	0
957	-0
958	-0
958	-0
959	-0
959	-0.001
960	-0
960	-0
960	-0
961	0
961	0.001
962	0.001
962	0.001
963	0.002
963	0.002
963	0.002
964	0.002
964	0.002
965	0.003
965	0.003
966	0.003
966	0.003
966	0.003
967	0.003
967	0.003
968	0.002
968	0.002
968	0.002
969	0.001
969	0.001
970	-0
970	-0.001
971	-0.002
971	-0.002
971	-0.003
972	-0.003
972	-0.003
973	-0.003
973	-0.003
974	-0.003
974	-0.002
974	-0.002
975	-0.001
975	-0
976	0
976	0.001
976	0.001
977	0.002
977	0.001
978	0.001
978	0.001
979	0
979	-0.001
979	-0.001
980	-0.002
980	-0.003
981	-0.003
981	-0.004
982	-0.004
982	-0.004
982	-0.004
983	-0.005
983	-0.005
984	-0.005
984	-0.006
984	-0.006
985	-0.006
985	-0.006
986	-0.007
986	-0.008
987	-0.008
987	-0.009
987	-0.009
988	-0.01
988	-0.01
989	-0.01
989	-0.011
990	-0.011
990	-0.012
990	-0.012
991	-0.012
991	-0.012
992	-0.012
992	-0.012
992	-0.011
993	-0.011
993	-0.011
994	-0.012
994	-0.012
995	-0.012
995	-0.012
995	-0.013
996	-0.013
996	-0.014
997	-0.014
997	-0.015
997	-0.015
998	-0.015
998	-0.014
999	-0.014
999	-0.014
1000	-0.014
1000	-0.015
1000	-0.015
1001	-0.014
1001	-0.014
1002	-0.014
1002	-0.014
1003	-0.015
1003	-0.015
1003	-0.015
1004	-0.016
1004	-0.016
1005	-0.017
1005	-0.018
1005	-0.019
1006	-0.02
1006	-0.02
1007	-0.021
1007	-0.021
1008	-0.021
1008	-0.022
1008	-0.021
1009	-0.021
1009	-0.021
1010	-0.02
1010	-0.019
1010	-0.019
1011	-0.018
1011	-0.018
1012	-0.018
1012	-0.017
1013	-0.016
1013	-0.016
1013	-0.016
1014	-0.016
1014	-0.016
1015	-0.016
1015	-0.016
1016	-0.016
1016	-0.015
1016	-0.016
1017	-0.016
1017	-0.016
1018	-0.016
1018	-0.016
1018	-0.016
1019	-0.016
1019	-0.016
1020	-0.016
1020	-0.017
1021	-0.017
1021	-0.017
1021	-0.018
1022	-0.018
1022	-0.018
1023	-0.018
1023	-0.019
1023	-0.019
1024	-0.019
1024	-0.019
1025	-0.019
1025	-0.019
1026	-0.019
1026	-0.019
1026	-0.019
1027	-0.019
1027	-0.019
1028	-0.019
1028	-0.018
1028	-0.018
1029	-0.019
1029	-0.019
1030	-0.019
1030	-0.019
1031	-0.019
1031	-0.019
1031	-0.019
1032	-0.019
1032	-0.019
1033	-0.019
1033	-0.019
1033	-0.02
1034	-0.02
1034	-0.02
1035	-0.02
1035	-0.02
1036	-0.021
1036	-0.022
1036	-0.022
1037	-0.022
1037	-0.021
1038	-0.021
1038	-0.021
1039	-0.02
1039	-0.019
1039	-0.018
1040	-0.018
1040	-0.017
1041	-0.017
1041	-0.017
1041	-0.017
1042	-0.017
1042	-0.017
1043	-0.018
1043	-0.018
1044	-0.019
1044	-0.02
1044	-0.02
1045	-0.021
1045	-0.022
1046	-0.023
1046	-0.023
1046	-0.024
1047	-0.025
1047	-0.025
1048	-0.025
1048	-0.026
1049	-0.026
1049	-0.027
1049	-0.027
1050	-0.028
1050	-0.029
1051	-0.03
1051	-0.031
1051	-0.031
1052	-0.032
1052	-0.032
1053	-0.033
1053	-0.033
1053	-0.033
1054	-0.034
1054	-0.033
1055	-0.033
1055	-0.033
1056	-0.033
1056	-0.032
1056	-0.033
1057	-0.033
1057	-0.033
1058	-0.033
1058	-0.033
1058	-0.033
1059	-0.034
1059	-0.034
1060	-0.034
1060	-0.034
1061	-0.034
1061	-0.034
1061	-0.033
1062	-0.033
1062	-0.033
1063	-0.033
1063	-0.033
1063	-0.033
1064	-0.033
1064	-0.033
1065	-0.033
1065	-0.034
1066	-0.034
1066	-0.035
1066	-0.035
1067	-0.036
1067	-0.036
1068	-0.037
1068	-0.037
1068	-0.038
1069	-0.038
1069	-0.039
1070	-0.039
1070	-0.04
1071	-0.04
1071	-0.04
1071	-0.04
1072	-0.04
1072	-0.039
1073	-0.039
1073	-0.038
1073	-0.038
1074	-0.037
1074	-0.037
1075	-0.037
1075	-0.038
1076	-0.039
1076	-0.039
1076	-0.04
1077	-0.041
1077	-0.042
1078	-0.043
1078	-0.044
1078	-0.045
1079	-0.045
1079	-0.045
1080	-0.046
1080	-0.047
1080	-0.048
1081	-0.049
1081	-0.049
1082	-0.05
1082	-0.05
1083	-0.051
1083	-0.051
1083	-0.052
1084	-0.053
1084	-0.054
1085	-0.054
1085	-0.054
1085	-0.054
1086	-0.054
1086	-0.055
1087	-0.056
1087	-0.056
1088	-0.057
1088	-0.057
1088	-0.058
1089	-0.059
1089	-0.06
1090	-0.061
1090	-0.062
1090	-0.064
1091	-0.065
1091	-0.066
1092	-0.067
1092	-0.067
1092	-0.068
1093	-0.069
1093	-0.069
1094	-0.07
1094	-0.071
1095	-0.073
1095	-0.073
1095	-0.073
1096	-0.074
1096	-0.076
1097	-0.077
1097	-0.078
1097	-0.08
1098	-0.081
1098	-0.083
1099	-0.084
1099	-0.085
1100	-0.087
1100	-0.089
1100	-0.092
1101	-0.095
1101	-0.098
1102	-0.1
1102	-0.102
1102	-0.104
1103	-0.106
1103	-0.109
1104	-0.111
1104	-0.114
1104	-0.116
1105	-0.117
1105	-0.12
1106	-0.124
1106	-0.126
1107	-0.131
1107	-0.135
1107	-0.14
1108	-0.141
1108	-0.143
1109	-0.146
1109	-0.15
1109	-0.155
1110	-0.156
1110	-0.157
1111	-0.165
1111	-0.162
