Data from 3.4A_17C_Absorbance__788__01745.txt Node

Date: Tue Jun 20 16:06:35 CEST 2023
User: Marek
Spectrometer: MAYP115816
Trigger mode: 0
Integration Time (sec): 2.200000E-1
Scans to average: 10
Electric dark correction enabled: true
Nonlinearity correction enabled: true
Boxcar width: 5
XAxis mode: Wavelengths
Number of Pixels in Spectrum: 2068
>>>>>Begin Spectral Data<<<<<
199	-0.773
199	-0.755
200	-0.716
200	-0.663
201	-0.637
201	-0.628
202	-0.612
202	-0.605
203	-0.606
203	-0.599
204	-0.579
204	-0.563
205	-0.542
205	-0.533
205	-0.542
206	-0.542
206	-0.539
207	-0.529
207	-0.535
208	-0.535
208	-0.539
209	-0.54
209	-0.547
210	-0.559
210	-0.565
211	-0.559
211	-0.564
212	-0.573
212	-0.583
213	-0.58
213	-0.576
213	-0.574
214	-0.582
214	-0.585
215	-0.581
215	-0.586
216	-0.594
216	-0.599
217	-0.596
217	-0.596
218	-0.605
218	-0.607
219	-0.615
219	-0.615
220	-0.618
220	-0.625
221	-0.627
221	-0.629
221	-0.62
222	-0.62
222	-0.618
223	-0.613
223	-0.617
224	-0.617
224	-0.615
225	-0.612
225	-0.613
226	-0.614
226	-0.612
227	-0.621
227	-0.631
228	-0.635
228	-0.643
229	-0.646
229	-0.643
229	-0.643
230	-0.638
230	-0.638
231	-0.633
231	-0.628
232	-0.629
232	-0.624
233	-0.623
233	-0.613
234	-0.614
234	-0.609
235	-0.615
235	-0.627
236	-0.632
236	-0.633
236	-0.634
237	-0.633
237	-0.635
238	-0.636
238	-0.637
239	-0.637
239	-0.647
240	-0.639
240	-0.636
241	-0.631
241	-0.633
242	-0.637
242	-0.648
243	-0.648
243	-0.65
243	-0.655
244	-0.652
244	-0.653
245	-0.657
245	-0.659
246	-0.671
246	-0.673
247	-0.681
247	-0.665
248	-0.662
248	-0.663
249	-0.667
249	-0.668
250	-0.668
250	-0.675
250	-0.673
251	-0.673
251	-0.671
252	-0.674
252	-0.686
253	-0.685
253	-0.699
254	-0.706
254	-0.706
255	-0.715
255	-0.715
256	-0.717
256	-0.728
257	-0.737
257	-0.732
258	-0.733
258	-0.739
258	-0.735
259	-0.727
259	-0.746
260	-0.746
260	-0.733
261	-0.744
261	-0.73
262	-0.736
262	-0.734
263	-0.726
263	-0.732
264	-0.742
264	-0.742
265	-0.732
265	-0.738
265	-0.748
266	-0.739
266	-0.741
267	-0.74
267	-0.756
268	-0.763
268	-0.756
269	-0.747
269	-0.762
270	-0.767
270	-0.764
271	-0.778
271	-0.79
272	-0.789
272	-0.793
272	-0.787
273	-0.795
273	-0.811
274	-0.804
274	-0.798
275	-0.795
275	-0.782
276	-0.783
276	-0.788
277	-0.789
277	-0.785
278	-0.79
278	-0.79
278	-0.778
279	-0.786
279	-0.8
280	-0.802
280	-0.814
281	-0.809
281	-0.802
282	-0.808
282	-0.803
283	-0.797
283	-0.811
284	-0.826
284	-0.835
285	-0.817
285	-0.825
285	-0.818
286	-0.825
286	-0.839
287	-0.837
287	-0.839
288	-0.837
288	-0.819
289	-0.817
289	-0.826
290	-0.834
290	-0.822
291	-0.826
291	-0.822
292	-0.804
292	-0.8
292	-0.804
293	-0.792
293	-0.788
294	-0.786
294	-0.772
295	-0.753
295	-0.766
296	-0.777
296	-0.771
297	-0.759
297	-0.762
298	-0.757
298	-0.775
298	-0.78
299	-0.764
299	-0.757
300	-0.753
300	-0.734
301	-0.715
301	-0.717
302	-0.727
302	-0.714
303	-0.706
303	-0.694
304	-0.676
304	-0.68
305	-0.672
305	-0.682
305	-0.696
306	-0.682
306	-0.68
307	-0.674
307	-0.684
308	-0.687
308	-0.683
309	-0.684
309	-0.679
310	-0.675
310	-0.671
311	-0.657
311	-0.675
311	-0.664
312	-0.66
312	-0.649
313	-0.641
313	-0.642
314	-0.648
314	-0.648
315	-0.646
315	-0.639
316	-0.634
316	-0.625
317	-0.617
317	-0.612
318	-0.604
318	-0.601
318	-0.591
319	-0.581
319	-0.573
320	-0.571
320	-0.569
321	-0.562
321	-0.562
322	-0.557
322	-0.552
323	-0.552
323	-0.544
324	-0.542
324	-0.53
324	-0.519
325	-0.504
325	-0.487
326	-0.479
326	-0.453
327	-0.438
327	-0.416
328	-0.388
328	-0.365
329	-0.337
329	-0.311
330	-0.286
330	-0.252
330	-0.219
331	-0.186
331	-0.155
332	-0.123
332	-0.092
333	-0.062
333	-0.032
334	-0.005
334	0.02
335	0.046
335	0.064
336	0.084
336	0.104
336	0.119
337	0.134
337	0.149
338	0.161
338	0.17
339	0.182
339	0.191
340	0.198
340	0.206
341	0.212
341	0.218
342	0.224
342	0.229
342	0.233
343	0.236
343	0.241
344	0.243
344	0.246
345	0.249
345	0.251
346	0.253
346	0.255
347	0.256
347	0.257
348	0.258
348	0.26
348	0.26
349	0.261
349	0.262
350	0.262
350	0.263
351	0.263
351	0.264
352	0.264
352	0.264
353	0.264
353	0.265
354	0.265
354	0.264
354	0.264
355	0.264
355	0.264
356	0.264
356	0.264
357	0.264
357	0.264
358	0.264
358	0.264
359	0.264
359	0.264
360	0.264
360	0.264
360	0.264
361	0.264
361	0.264
362	0.264
362	0.265
363	0.265
363	0.265
364	0.265
364	0.264
365	0.264
365	0.264
366	0.264
366	0.264
366	0.264
367	0.265
367	0.264
368	0.264
368	0.264
369	0.263
369	0.263
370	0.263
370	0.263
371	0.263
371	0.263
372	0.262
372	0.262
372	0.262
373	0.262
373	0.262
374	0.262
374	0.262
375	0.262
375	0.262
376	0.262
376	0.261
377	0.261
377	0.261
378	0.261
378	0.26
378	0.26
379	0.26
379	0.26
380	0.26
380	0.26
381	0.26
381	0.259
382	0.259
382	0.259
383	0.259
383	0.259
383	0.259
384	0.258
384	0.258
385	0.258
385	0.258
386	0.257
386	0.257
387	0.257
387	0.257
388	0.257
388	0.257
389	0.257
389	0.257
389	0.257
390	0.256
390	0.256
391	0.256
391	0.256
392	0.256
392	0.256
393	0.256
393	0.255
394	0.255
394	0.255
394	0.255
395	0.255
395	0.254
396	0.254
396	0.254
397	0.254
397	0.254
398	0.253
398	0.253
399	0.253
399	0.253
400	0.253
400	0.253
400	0.253
401	0.252
401	0.252
402	0.252
402	0.252
403	0.252
403	0.252
404	0.251
404	0.251
405	0.251
405	0.251
405	0.25
406	0.25
406	0.25
407	0.25
407	0.249
408	0.249
408	0.249
409	0.249
409	0.249
410	0.248
410	0.248
411	0.248
411	0.248
411	0.248
412	0.248
412	0.248
413	0.248
413	0.248
414	0.248
414	0.247
415	0.247
415	0.247
416	0.247
416	0.247
416	0.246
417	0.246
417	0.246
418	0.246
418	0.246
419	0.246
419	0.245
420	0.245
420	0.245
421	0.245
421	0.245
421	0.245
422	0.245
422	0.245
423	0.245
423	0.245
424	0.245
424	0.245
425	0.245
425	0.245
426	0.245
426	0.245
427	0.245
427	0.245
427	0.245
428	0.245
428	0.245
429	0.245
429	0.244
430	0.244
430	0.244
431	0.244
431	0.243
432	0.243
432	0.243
432	0.242
433	0.242
433	0.242
434	0.242
434	0.242
435	0.242
435	0.242
436	0.242
436	0.242
437	0.242
437	0.242
437	0.242
438	0.242
438	0.242
439	0.242
439	0.242
440	0.242
440	0.242
441	0.242
441	0.242
442	0.242
442	0.242
442	0.242
443	0.241
443	0.241
444	0.241
444	0.241
445	0.241
445	0.242
446	0.241
446	0.241
447	0.241
447	0.241
447	0.241
448	0.241
448	0.241
449	0.241
449	0.241
450	0.241
450	0.241
451	0.241
451	0.241
452	0.241
452	0.241
452	0.241
453	0.241
453	0.241
454	0.241
454	0.241
455	0.241
455	0.242
456	0.242
456	0.242
457	0.241
457	0.241
458	0.241
458	0.241
458	0.241
459	0.241
459	0.24
460	0.24
460	0.24
461	0.24
461	0.24
462	0.241
462	0.241
463	0.242
463	0.242
463	0.243
464	0.243
464	0.244
465	0.244
465	0.245
466	0.245
466	0.245
467	0.245
467	0.245
467	0.245
468	0.245
468	0.245
469	0.245
469	0.245
470	0.245
470	0.245
471	0.245
471	0.245
472	0.245
472	0.246
472	0.246
473	0.246
473	0.247
474	0.247
474	0.247
475	0.248
475	0.249
476	0.249
476	0.25
477	0.251
477	0.251
477	0.252
478	0.252
478	0.253
479	0.253
479	0.254
480	0.254
480	0.255
481	0.255
481	0.256
482	0.256
482	0.257
482	0.258
483	0.259
483	0.26
484	0.261
484	0.261
485	0.261
485	0.262
486	0.263
486	0.264
487	0.265
487	0.266
487	0.266
488	0.267
488	0.268
489	0.269
489	0.27
490	0.271
490	0.272
491	0.273
491	0.274
492	0.275
492	0.276
492	0.277
493	0.278
493	0.279
494	0.28
494	0.282
495	0.283
495	0.284
496	0.285
496	0.287
496	0.289
497	0.29
497	0.292
498	0.293
498	0.295
499	0.296
499	0.298
500	0.299
500	0.301
501	0.303
501	0.304
501	0.305
502	0.306
502	0.308
503	0.31
503	0.311
504	0.313
504	0.314
505	0.316
505	0.318
506	0.32
506	0.322
506	0.324
507	0.326
507	0.328
508	0.33
508	0.332
509	0.335
509	0.336
510	0.338
510	0.34
511	0.342
511	0.344
511	0.346
512	0.347
512	0.349
513	0.35
513	0.352
514	0.353
514	0.355
515	0.356
515	0.357
515	0.359
516	0.36
516	0.362
517	0.363
517	0.365
518	0.366
518	0.367
519	0.369
519	0.37
520	0.371
520	0.372
520	0.373
521	0.374
521	0.375
522	0.375
522	0.376
523	0.377
523	0.378
524	0.378
524	0.379
524	0.38
525	0.381
525	0.381
526	0.382
526	0.383
527	0.383
527	0.384
528	0.384
528	0.384
529	0.384
529	0.384
529	0.384
530	0.383
530	0.383
531	0.382
531	0.382
532	0.381
532	0.381
533	0.381
533	0.38
533	0.38
534	0.379
534	0.378
535	0.378
535	0.377
536	0.377
536	0.376
537	0.375
537	0.375
538	0.374
538	0.373
538	0.372
539	0.371
539	0.371
540	0.369
540	0.368
541	0.367
541	0.366
542	0.364
542	0.363
542	0.362
543	0.36
543	0.359
544	0.357
544	0.356
545	0.355
545	0.353
546	0.352
546	0.35
547	0.349
547	0.347
547	0.345
548	0.344
548	0.343
549	0.341
549	0.34
550	0.338
550	0.336
551	0.335
551	0.333
551	0.331
552	0.329
552	0.328
553	0.326
553	0.325
554	0.323
554	0.321
555	0.319
555	0.317
556	0.315
556	0.314
556	0.312
557	0.311
557	0.31
558	0.308
558	0.307
559	0.305
559	0.304
560	0.302
560	0.301
560	0.3
561	0.299
561	0.298
562	0.296
562	0.295
563	0.293
563	0.291
564	0.29
564	0.289
564	0.287
565	0.286
565	0.285
566	0.284
566	0.282
567	0.281
567	0.28
568	0.279
568	0.278
568	0.277
569	0.275
569	0.274
570	0.272
570	0.269
571	0.268
571	0.267
572	0.266
572	0.265
573	0.263
573	0.262
573	0.26
574	0.259
574	0.259
575	0.258
575	0.259
576	0.258
576	0.256
577	0.255
577	0.254
577	0.254
578	0.254
578	0.254
579	0.254
579	0.254
580	0.252
580	0.25
581	0.248
581	0.248
581	0.248
582	0.248
582	0.247
583	0.247
583	0.246
584	0.243
584	0.241
585	0.241
585	0.242
585	0.241
586	0.24
586	0.239
587	0.237
587	0.235
588	0.234
588	0.233
589	0.233
589	0.232
590	0.232
590	0.231
590	0.232
591	0.232
591	0.232
592	0.231
592	0.23
593	0.23
593	0.23
594	0.229
594	0.228
594	0.227
595	0.227
595	0.225
596	0.224
596	0.224
597	0.226
597	0.225
598	0.225
598	0.225
598	0.225
599	0.225
599	0.224
600	0.224
600	0.224
601	0.225
601	0.224
602	0.224
602	0.223
602	0.223
603	0.223
603	0.224
604	0.224
604	0.224
605	0.224
605	0.224
606	0.223
606	0.222
606	0.221
607	0.221
607	0.22
608	0.22
608	0.218
609	0.218
609	0.218
610	0.217
610	0.216
610	0.216
611	0.216
611	0.216
612	0.217
612	0.217
613	0.217
613	0.218
614	0.217
614	0.216
614	0.216
615	0.215
615	0.214
616	0.214
616	0.213
617	0.213
617	0.212
618	0.211
618	0.21
618	0.21
619	0.209
619	0.21
620	0.21
620	0.21
621	0.209
621	0.209
622	0.208
622	0.208
622	0.206
623	0.206
623	0.206
624	0.205
624	0.204
625	0.203
625	0.202
626	0.201
626	0.2
626	0.2
627	0.199
627	0.199
628	0.198
628	0.197
629	0.196
629	0.195
630	0.194
630	0.192
630	0.192
631	0.191
631	0.189
632	0.187
632	0.186
633	0.184
633	0.182
634	0.181
634	0.18
634	0.179
635	0.177
635	0.176
636	0.174
636	0.172
637	0.17
637	0.168
638	0.166
638	0.163
638	0.16
639	0.157
639	0.153
640	0.15
640	0.146
641	0.143
641	0.14
642	0.136
642	0.133
642	0.129
643	0.125
643	0.121
644	0.117
644	0.113
645	0.108
645	0.104
646	0.099
646	0.094
646	0.088
647	0.081
647	0.075
648	0.069
648	0.062
649	0.055
649	0.048
650	0.042
650	0.034
650	0.027
651	0.018
651	0.007
652	-0.005
652	-0.019
653	-0.031
653	-0.042
653	-0.038
654	-0.021
654	-0.016
655	-0.021
655	-0.027
656	-0.034
656	-0.041
657	-0.047
657	-0.052
657	-0.059
658	-0.067
658	-0.098
659	-0.184
659	-0.275
660	-0.317
660	-0.344
661	-0.372
661	-0.402
661	-0.434
662	-0.464
662	-0.495
663	-0.53
663	-0.569
664	-0.608
664	-0.649
665	-0.696
665	-0.745
665	-0.791
666	-0.843
666	-0.899
667	-0.956
667	-1.02
668	-1.081
668	-1.151
669	-1.22
669	-1.293
669	-1.372
670	-1.452
670	-1.558
671	-1.709
671	-2.021
672	-2.285
672	-2.455
672	-2.58
673	-2.678
673	-2.76
674	-2.838
674	-2.86
675	-2.877
675	-2.882
676	-2.88
676	-2.843
676	-2.779
677	-2.701
677	-2.612
678	-2.481
678	-2.282
679	-1.885
679	-1.669
680	-1.553
680	-1.471
680	-1.398
681	-1.346
681	-1.289
682	-1.243
682	-1.197
683	-1.151
683	-1.125
684	-1.094
684	-1.072
684	-1.048
685	-1.024
685	-1.012
686	-0.987
686	-0.971
687	-0.96
687	-0.947
687	-0.947
688	-0.93
688	-0.921
689	-0.923
689	-0.919
690	-0.905
690	-0.892
691	-0.888
691	-0.89
691	-0.888
692	-0.888
692	-0.883
693	-0.889
693	-0.899
694	-0.877
694	-0.876
695	-0.88
695	-0.874
695	-0.882
696	-0.887
696	-0.881
697	-0.874
697	-0.87
698	-0.866
698	-0.857
698	-0.87
699	-0.868
699	-0.867
700	-0.886
700	-0.879
701	-0.867
701	-0.862
702	-0.861
702	-0.858
702	-0.857
703	-0.847
703	-0.837
704	-0.843
704	-0.846
705	-0.836
705	-0.836
705	-0.83
706	-0.822
706	-0.819
707	-0.831
707	-0.833
708	-0.832
708	-0.83
709	-0.832
709	-0.829
709	-0.825
710	-0.831
710	-0.834
711	-0.833
711	-0.834
712	-0.827
712	-0.824
713	-0.829
713	-0.83
713	-0.808
714	-0.81
714	-0.813
715	-0.804
715	-0.812
716	-0.828
716	-0.837
716	-0.837
717	-0.843
717	-0.835
718	-0.83
718	-0.829
719	-0.825
719	-0.817
720	-0.812
720	-0.808
720	-0.802
721	-0.793
721	-0.798
722	-0.795
722	-0.791
723	-0.808
723	-0.823
723	-0.831
724	-0.83
724	-0.835
725	-0.829
725	-0.832
726	-0.836
726	-0.826
727	-0.828
727	-0.834
727	-0.824
728	-0.811
728	-0.807
729	-0.809
729	-0.813
730	-0.817
730	-0.808
730	-0.815
731	-0.819
731	-0.819
732	-0.822
732	-0.817
733	-0.832
733	-0.839
734	-0.848
734	-0.837
734	-0.819
735	-0.811
735	-0.804
736	-0.802
736	-0.796
737	-0.795
737	-0.785
737	-0.777
738	-0.764
738	-0.75
739	-0.755
739	-0.758
740	-0.772
740	-0.772
741	-0.782
741	-0.792
741	-0.801
742	-0.807
742	-0.822
743	-0.828
743	-0.83
744	-0.833
744	-0.84
744	-0.831
745	-0.839
745	-0.829
746	-0.826
746	-0.817
747	-0.82
747	-0.812
748	-0.813
748	-0.818
748	-0.819
749	-0.811
749	-0.818
750	-0.808
750	-0.809
751	-0.809
751	-0.807
751	-0.818
752	-0.82
752	-0.822
753	-0.825
753	-0.818
754	-0.837
754	-0.838
754	-0.848
755	-0.849
755	-0.84
756	-0.842
756	-0.829
757	-0.822
757	-0.811
758	-0.809
758	-0.808
758	-0.804
759	-0.807
759	-0.805
760	-0.801
760	-0.803
761	-0.797
761	-0.8
761	-0.8
762	-0.807
762	-0.809
763	-0.809
763	-0.812
764	-0.813
764	-0.809
764	-0.817
765	-0.816
765	-0.823
766	-0.827
766	-0.829
767	-0.844
767	-0.839
768	-0.838
768	-0.829
768	-0.823
769	-0.826
769	-0.833
770	-0.842
770	-0.847
771	-0.842
771	-0.842
771	-0.847
772	-0.851
772	-0.871
773	-0.872
773	-0.872
774	-0.87
774	-0.852
775	-0.841
775	-0.839
775	-0.843
776	-0.852
776	-0.851
777	-0.851
777	-0.835
778	-0.843
778	-0.852
778	-0.853
779	-0.862
779	-0.879
780	-0.877
780	-0.884
781	-0.874
781	-0.863
781	-0.879
782	-0.9
782	-0.902
783	-0.901
783	-0.907
784	-0.912
784	-0.903
784	-0.919
785	-0.914
785	-0.925
786	-0.928
786	-0.919
787	-0.907
787	-0.915
788	-0.909
788	-0.904
788	-0.903
789	-0.904
789	-0.892
790	-0.893
790	-0.876
791	-0.883
791	-0.879
791	-0.874
792	-0.867
792	-0.873
793	-0.874
793	-0.862
794	-0.855
794	-0.849
794	-0.856
795	-0.878
795	-0.864
796	-0.868
796	-0.864
797	-0.857
797	-0.847
797	-0.841
798	-0.861
798	-0.864
799	-0.864
799	-0.848
800	-0.843
800	-0.851
801	-0.849
801	-0.852
801	-0.849
802	-0.849
802	-0.849
803	-0.843
803	-0.838
804	-0.844
804	-0.853
804	-0.836
805	-0.815
805	-0.806
806	-0.808
806	-0.805
807	-0.807
807	-0.807
807	-0.792
808	-0.787
808	-0.78
809	-0.774
809	-0.775
810	-0.78
810	-0.777
810	-0.772
811	-0.776
811	-0.767
812	-0.758
812	-0.759
813	-0.764
813	-0.762
813	-0.758
814	-0.757
814	-0.761
815	-0.753
815	-0.75
816	-0.745
816	-0.762
817	-0.776
817	-0.78
817	-0.789
818	-0.783
818	-0.78
819	-0.791
819	-0.789
820	-0.801
820	-0.801
820	-0.8
821	-0.796
821	-0.792
822	-0.792
822	-0.779
823	-0.793
823	-0.792
823	-0.787
824	-0.786
824	-0.797
825	-0.796
825	-0.792
826	-0.786
826	-0.781
826	-0.779
827	-0.781
827	-0.768
828	-0.767
828	-0.761
829	-0.755
829	-0.739
829	-0.735
830	-0.732
830	-0.718
831	-0.711
831	-0.701
832	-0.691
832	-0.687
832	-0.68
833	-0.679
833	-0.684
834	-0.679
834	-0.672
835	-0.665
835	-0.665
835	-0.66
836	-0.656
836	-0.653
837	-0.642
837	-0.633
838	-0.619
838	-0.603
839	-0.596
839	-0.585
839	-0.576
840	-0.574
840	-0.563
841	-0.551
841	-0.543
842	-0.536
842	-0.525
842	-0.522
843	-0.517
843	-0.513
844	-0.51
844	-0.498
845	-0.484
845	-0.474
845	-0.463
846	-0.452
846	-0.44
847	-0.428
847	-0.415
848	-0.4
848	-0.382
848	-0.368
849	-0.355
849	-0.343
850	-0.333
850	-0.323
851	-0.309
851	-0.291
851	-0.283
852	-0.267
852	-0.255
853	-0.246
853	-0.235
854	-0.223
854	-0.212
854	-0.199
855	-0.187
855	-0.179
856	-0.172
856	-0.162
857	-0.153
857	-0.144
857	-0.132
858	-0.12
858	-0.114
859	-0.103
859	-0.091
860	-0.08
860	-0.065
860	-0.054
861	-0.043
861	-0.034
862	-0.025
862	-0.016
863	-0.007
863	0.003
863	0.009
864	0.016
864	0.023
865	0.029
865	0.035
866	0.041
866	0.047
866	0.052
867	0.058
867	0.063
868	0.068
868	0.072
869	0.078
869	0.081
869	0.084
870	0.086
870	0.088
871	0.09
871	0.091
872	0.092
872	0.093
872	0.094
873	0.095
873	0.094
874	0.094
874	0.094
875	0.094
875	0.093
875	0.093
876	0.093
876	0.093
877	0.092
877	0.092
878	0.091
878	0.09
878	0.09
879	0.089
879	0.089
880	0.088
880	0.087
881	0.085
881	0.084
881	0.083
882	0.082
882	0.08
883	0.079
883	0.077
884	0.077
884	0.077
884	0.077
885	0.077
885	0.077
886	0.077
886	0.077
887	0.077
887	0.077
887	0.077
888	0.077
888	0.076
889	0.075
889	0.074
890	0.073
890	0.073
890	0.072
891	0.072
891	0.072
892	0.072
892	0.072
893	0.072
893	0.071
893	0.071
894	0.072
894	0.072
895	0.071
895	0.072
895	0.072
896	0.072
896	0.072
897	0.073
897	0.073
898	0.073
898	0.073
898	0.074
899	0.074
899	0.074
900	0.074
900	0.074
901	0.074
901	0.073
901	0.073
902	0.074
902	0.074
903	0.074
903	0.074
904	0.074
904	0.074
904	0.075
905	0.075
905	0.076
906	0.076
906	0.077
907	0.077
907	0.077
907	0.077
908	0.077
908	0.077
909	0.077
909	0.077
910	0.077
910	0.077
910	0.077
911	0.077
911	0.078
912	0.079
912	0.08
913	0.081
913	0.082
913	0.083
914	0.084
914	0.085
915	0.085
915	0.086
916	0.086
916	0.086
916	0.086
917	0.086
917	0.085
918	0.085
918	0.085
918	0.085
919	0.085
919	0.085
920	0.085
920	0.085
921	0.086
921	0.086
921	0.086
922	0.086
922	0.086
923	0.086
923	0.085
924	0.085
924	0.084
924	0.083
925	0.083
925	0.082
926	0.081
926	0.08
927	0.079
927	0.078
927	0.077
928	0.077
928	0.077
929	0.077
929	0.076
930	0.076
930	0.076
930	0.077
931	0.078
931	0.078
932	0.08
932	0.081
933	0.082
933	0.083
933	0.083
934	0.083
934	0.083
935	0.082
935	0.081
935	0.08
936	0.078
936	0.077
937	0.075
937	0.074
938	0.072
938	0.071
938	0.07
939	0.068
939	0.067
940	0.067
940	0.066
941	0.065
941	0.064
941	0.064
942	0.063
942	0.063
943	0.063
943	0.062
944	0.061
944	0.06
944	0.06
945	0.059
945	0.059
946	0.059
946	0.058
946	0.058
947	0.058
947	0.057
948	0.058
948	0.059
949	0.059
949	0.06
949	0.062
950	0.063
950	0.064
951	0.065
951	0.066
952	0.067
952	0.068
952	0.069
953	0.069
953	0.07
954	0.07
954	0.07
955	0.069
955	0.069
955	0.069
956	0.068
956	0.067
957	0.066
957	0.065
957	0.064
958	0.064
958	0.063
959	0.063
959	0.063
960	0.063
960	0.063
960	0.063
961	0.063
961	0.064
962	0.064
962	0.065
963	0.065
963	0.066
963	0.066
964	0.067
964	0.068
965	0.069
965	0.069
966	0.07
966	0.07
966	0.071
967	0.071
967	0.07
968	0.07
968	0.07
968	0.069
969	0.069
969	0.069
970	0.069
970	0.07
971	0.07
971	0.07
971	0.071
972	0.072
972	0.073
973	0.073
973	0.074
974	0.074
974	0.075
974	0.075
975	0.075
975	0.075
976	0.075
976	0.075
976	0.075
977	0.074
977	0.073
978	0.071
978	0.07
979	0.068
979	0.067
979	0.066
980	0.064
980	0.063
981	0.062
981	0.061
982	0.061
982	0.061
982	0.061
983	0.061
983	0.061
984	0.061
984	0.061
984	0.061
985	0.061
985	0.06
986	0.059
986	0.058
987	0.057
987	0.055
987	0.054
988	0.053
988	0.052
989	0.051
989	0.05
990	0.049
990	0.049
990	0.049
991	0.049
991	0.049
992	0.049
992	0.05
992	0.05
993	0.05
993	0.05
994	0.05
994	0.05
995	0.049
995	0.048
995	0.048
996	0.047
996	0.045
997	0.044
997	0.043
997	0.042
998	0.041
998	0.041
999	0.041
999	0.041
1000	0.041
1000	0.041
1000	0.042
1001	0.043
1001	0.043
1002	0.044
1002	0.044
1003	0.044
1003	0.043
1003	0.043
1004	0.043
1004	0.042
1005	0.041
1005	0.04
1005	0.039
1006	0.037
1006	0.036
1007	0.035
1007	0.033
1008	0.032
1008	0.031
1008	0.031
1009	0.03
1009	0.03
1010	0.03
1010	0.03
1010	0.03
1011	0.031
1011	0.031
1012	0.032
1012	0.034
1013	0.035
1013	0.036
1013	0.036
1014	0.037
1014	0.038
1015	0.039
1015	0.04
1016	0.04
1016	0.04
1016	0.04
1017	0.04
1017	0.04
1018	0.04
1018	0.039
1018	0.039
1019	0.039
1019	0.038
1020	0.038
1020	0.037
1021	0.037
1021	0.036
1021	0.036
1022	0.036
1022	0.036
1023	0.036
1023	0.036
1023	0.036
1024	0.036
1024	0.036
1025	0.036
1025	0.036
1026	0.036
1026	0.036
1026	0.036
1027	0.036
1027	0.036
1028	0.037
1028	0.037
1028	0.037
1029	0.037
1029	0.037
1030	0.037
1030	0.036
1031	0.036
1031	0.037
1031	0.036
1032	0.036
1032	0.036
1033	0.035
1033	0.034
1033	0.034
1034	0.034
1034	0.033
1035	0.033
1035	0.033
1036	0.032
1036	0.032
1036	0.033
1037	0.033
1037	0.034
1038	0.035
1038	0.036
1039	0.036
1039	0.038
1039	0.039
1040	0.04
1040	0.041
1041	0.041
1041	0.04
1041	0.041
1042	0.04
1042	0.04
1043	0.039
1043	0.039
1044	0.038
1044	0.037
1044	0.037
1045	0.036
1045	0.035
1046	0.035
1046	0.034
1046	0.034
1047	0.034
1047	0.034
1048	0.035
1048	0.035
1049	0.035
1049	0.034
1049	0.034
1050	0.034
1050	0.033
1051	0.032
1051	0.031
1051	0.031
1052	0.03
1052	0.029
1053	0.028
1053	0.027
1053	0.026
1054	0.025
1054	0.024
1055	0.024
1055	0.024
1056	0.023
1056	0.023
1056	0.023
1057	0.022
1057	0.022
1058	0.021
1058	0.02
1058	0.02
1059	0.02
1059	0.019
1060	0.018
1060	0.018
1061	0.017
1061	0.017
1061	0.017
1062	0.016
1062	0.016
1063	0.016
1063	0.015
1063	0.015
1064	0.015
1064	0.015
1065	0.015
1065	0.015
1066	0.015
1066	0.014
1066	0.014
1067	0.014
1067	0.014
1068	0.014
1068	0.013
1068	0.013
1069	0.013
1069	0.012
1070	0.012
1070	0.012
1071	0.011
1071	0.011
1071	0.011
1072	0.011
1072	0.012
1073	0.012
1073	0.012
1073	0.012
1074	0.012
1074	0.012
1075	0.012
1075	0.012
1076	0.011
1076	0.01
1076	0.008
1077	0.007
1077	0.006
1078	0.005
1078	0.003
1078	0.002
1079	0.001
1079	0
1080	-0.001
1080	-0.003
1080	-0.004
1081	-0.005
1081	-0.006
1082	-0.006
1082	-0.008
1083	-0.009
1083	-0.01
1083	-0.011
1084	-0.013
1084	-0.014
1085	-0.015
1085	-0.016
1085	-0.016
1086	-0.017
1086	-0.018
1087	-0.019
1087	-0.019
1088	-0.021
1088	-0.021
1088	-0.022
1089	-0.023
1089	-0.023
1090	-0.024
1090	-0.025
1090	-0.027
1091	-0.027
1091	-0.027
1092	-0.028
1092	-0.028
1092	-0.029
1093	-0.031
1093	-0.03
1094	-0.031
1094	-0.031
1095	-0.032
1095	-0.032
1095	-0.032
1096	-0.034
1096	-0.035
1097	-0.037
1097	-0.038
1097	-0.04
1098	-0.041
1098	-0.044
1099	-0.045
1099	-0.046
1100	-0.049
1100	-0.052
1100	-0.056
1101	-0.059
1101	-0.061
1102	-0.063
1102	-0.066
1102	-0.068
1103	-0.071
1103	-0.074
1104	-0.077
1104	-0.08
1104	-0.082
1105	-0.084
1105	-0.088
1106	-0.092
1106	-0.094
1107	-0.1
1107	-0.105
1107	-0.109
1108	-0.111
1108	-0.113
1109	-0.117
1109	-0.121
1109	-0.124
1110	-0.125
1110	-0.13
1111	-0.141
1111	-0.134
