Data from 3.4A_17C_Absorbance__477__01434.txt Node

Date: Tue Jun 20 15:55:11 CEST 2023
User: Marek
Spectrometer: MAYP115816
Trigger mode: 0
Integration Time (sec): 2.200000E-1
Scans to average: 10
Electric dark correction enabled: true
Nonlinearity correction enabled: true
Boxcar width: 5
XAxis mode: Wavelengths
Number of Pixels in Spectrum: 2068
>>>>>Begin Spectral Data<<<<<
199	-0.775
199	-0.751
200	-0.714
200	-0.66
201	-0.63
201	-0.622
202	-0.601
202	-0.592
203	-0.592
203	-0.584
204	-0.563
204	-0.547
205	-0.525
205	-0.513
205	-0.519
206	-0.521
206	-0.515
207	-0.51
207	-0.518
208	-0.518
208	-0.523
209	-0.525
209	-0.531
210	-0.545
210	-0.554
211	-0.551
211	-0.555
212	-0.564
212	-0.57
213	-0.567
213	-0.563
213	-0.56
214	-0.568
214	-0.57
215	-0.566
215	-0.571
216	-0.578
216	-0.584
217	-0.583
217	-0.587
218	-0.593
218	-0.595
219	-0.601
219	-0.603
220	-0.606
220	-0.613
221	-0.612
221	-0.613
221	-0.602
222	-0.6
222	-0.596
223	-0.592
223	-0.595
224	-0.597
224	-0.595
225	-0.592
225	-0.594
226	-0.596
226	-0.596
227	-0.606
227	-0.616
228	-0.621
228	-0.629
229	-0.634
229	-0.632
229	-0.631
230	-0.627
230	-0.623
231	-0.62
231	-0.614
232	-0.615
232	-0.609
233	-0.607
233	-0.595
234	-0.594
234	-0.589
235	-0.593
235	-0.605
236	-0.615
236	-0.615
236	-0.617
237	-0.616
237	-0.617
238	-0.621
238	-0.623
239	-0.625
239	-0.635
240	-0.628
240	-0.623
241	-0.617
241	-0.621
242	-0.624
242	-0.633
243	-0.633
243	-0.633
243	-0.637
244	-0.634
244	-0.636
245	-0.638
245	-0.641
246	-0.651
246	-0.653
247	-0.661
247	-0.646
248	-0.646
248	-0.649
249	-0.654
249	-0.655
250	-0.653
250	-0.662
250	-0.661
251	-0.661
251	-0.658
252	-0.66
252	-0.672
253	-0.666
253	-0.677
254	-0.683
254	-0.684
255	-0.697
255	-0.696
256	-0.697
256	-0.71
257	-0.718
257	-0.713
258	-0.717
258	-0.723
258	-0.721
259	-0.714
259	-0.731
260	-0.727
260	-0.717
261	-0.729
261	-0.714
262	-0.72
262	-0.719
263	-0.708
263	-0.714
264	-0.723
264	-0.725
265	-0.716
265	-0.722
265	-0.731
266	-0.721
266	-0.724
267	-0.722
267	-0.737
268	-0.745
268	-0.74
269	-0.73
269	-0.745
270	-0.75
270	-0.748
271	-0.761
271	-0.773
272	-0.774
272	-0.777
272	-0.77
273	-0.78
273	-0.794
274	-0.787
274	-0.78
275	-0.777
275	-0.765
276	-0.769
276	-0.773
277	-0.775
277	-0.772
278	-0.778
278	-0.777
278	-0.765
279	-0.775
279	-0.789
280	-0.791
280	-0.802
281	-0.796
281	-0.788
282	-0.793
282	-0.788
283	-0.78
283	-0.796
284	-0.809
284	-0.818
285	-0.799
285	-0.804
285	-0.795
286	-0.8
286	-0.816
287	-0.813
287	-0.813
288	-0.812
288	-0.794
289	-0.793
289	-0.802
290	-0.814
290	-0.803
291	-0.807
291	-0.803
292	-0.783
292	-0.782
292	-0.784
293	-0.772
293	-0.767
294	-0.766
294	-0.75
295	-0.729
295	-0.743
296	-0.754
296	-0.75
297	-0.739
297	-0.741
298	-0.736
298	-0.755
298	-0.759
299	-0.741
299	-0.733
300	-0.73
300	-0.71
301	-0.693
301	-0.697
302	-0.706
302	-0.693
303	-0.688
303	-0.674
304	-0.658
304	-0.661
305	-0.654
305	-0.665
305	-0.681
306	-0.665
306	-0.662
307	-0.654
307	-0.666
308	-0.669
308	-0.665
309	-0.666
309	-0.663
310	-0.66
310	-0.653
311	-0.639
311	-0.658
311	-0.645
312	-0.643
312	-0.632
313	-0.624
313	-0.625
314	-0.629
314	-0.627
315	-0.626
315	-0.62
316	-0.615
316	-0.603
317	-0.595
317	-0.593
318	-0.583
318	-0.579
318	-0.568
319	-0.558
319	-0.551
320	-0.548
320	-0.547
321	-0.542
321	-0.542
322	-0.536
322	-0.528
323	-0.528
323	-0.519
324	-0.517
324	-0.507
324	-0.495
325	-0.48
325	-0.463
326	-0.456
326	-0.431
327	-0.417
327	-0.396
328	-0.365
328	-0.344
329	-0.316
329	-0.287
330	-0.259
330	-0.225
330	-0.191
331	-0.154
331	-0.121
332	-0.089
332	-0.057
333	-0.028
333	0.006
334	0.034
334	0.058
335	0.083
335	0.105
336	0.127
336	0.147
336	0.163
337	0.18
337	0.197
338	0.209
338	0.219
339	0.232
339	0.242
340	0.25
340	0.258
341	0.265
341	0.271
342	0.278
342	0.283
342	0.288
343	0.292
343	0.297
344	0.299
344	0.302
345	0.305
345	0.307
346	0.309
346	0.311
347	0.312
347	0.314
348	0.315
348	0.316
348	0.317
349	0.318
349	0.319
350	0.319
350	0.32
351	0.321
351	0.321
352	0.321
352	0.321
353	0.321
353	0.322
354	0.321
354	0.321
354	0.321
355	0.321
355	0.321
356	0.321
356	0.321
357	0.323
357	0.323
358	0.322
358	0.322
359	0.322
359	0.323
360	0.323
360	0.323
360	0.323
361	0.323
361	0.323
362	0.322
362	0.322
363	0.322
363	0.322
364	0.322
364	0.322
365	0.322
365	0.321
366	0.321
366	0.321
366	0.321
367	0.321
367	0.321
368	0.32
368	0.32
369	0.32
369	0.32
370	0.32
370	0.32
371	0.319
371	0.319
372	0.319
372	0.318
372	0.318
373	0.318
373	0.318
374	0.318
374	0.318
375	0.317
375	0.317
376	0.317
376	0.317
377	0.316
377	0.316
378	0.316
378	0.315
378	0.315
379	0.315
379	0.315
380	0.315
380	0.314
381	0.314
381	0.314
382	0.313
382	0.313
383	0.313
383	0.313
383	0.313
384	0.312
384	0.312
385	0.312
385	0.311
386	0.311
386	0.311
387	0.311
387	0.311
388	0.31
388	0.31
389	0.31
389	0.31
389	0.31
390	0.31
390	0.309
391	0.309
391	0.309
392	0.308
392	0.308
393	0.308
393	0.308
394	0.307
394	0.307
394	0.307
395	0.306
395	0.306
396	0.306
396	0.305
397	0.305
397	0.305
398	0.304
398	0.304
399	0.304
399	0.304
400	0.303
400	0.303
400	0.303
401	0.303
401	0.303
402	0.302
402	0.302
403	0.302
403	0.302
404	0.301
404	0.301
405	0.3
405	0.3
405	0.299
406	0.299
406	0.299
407	0.299
407	0.299
408	0.298
408	0.298
409	0.298
409	0.298
410	0.298
410	0.298
411	0.298
411	0.297
411	0.297
412	0.297
412	0.296
413	0.296
413	0.296
414	0.296
414	0.296
415	0.296
415	0.296
416	0.296
416	0.295
416	0.295
417	0.295
417	0.295
418	0.295
418	0.295
419	0.295
419	0.295
420	0.294
420	0.294
421	0.294
421	0.294
421	0.294
422	0.294
422	0.294
423	0.294
423	0.294
424	0.293
424	0.293
425	0.293
425	0.293
426	0.293
426	0.293
427	0.293
427	0.293
427	0.293
428	0.293
428	0.292
429	0.292
429	0.291
430	0.291
430	0.291
431	0.29
431	0.29
432	0.29
432	0.29
432	0.289
433	0.289
433	0.289
434	0.289
434	0.29
435	0.29
435	0.29
436	0.29
436	0.29
437	0.29
437	0.289
437	0.289
438	0.289
438	0.289
439	0.289
439	0.289
440	0.289
440	0.289
441	0.289
441	0.289
442	0.289
442	0.288
442	0.288
443	0.288
443	0.288
444	0.289
444	0.289
445	0.289
445	0.289
446	0.288
446	0.288
447	0.288
447	0.288
447	0.288
448	0.288
448	0.288
449	0.288
449	0.288
450	0.288
450	0.288
451	0.288
451	0.288
452	0.288
452	0.288
452	0.288
453	0.289
453	0.289
454	0.289
454	0.289
455	0.289
455	0.289
456	0.289
456	0.289
457	0.289
457	0.289
458	0.289
458	0.289
458	0.289
459	0.289
459	0.289
460	0.288
460	0.288
461	0.288
461	0.289
462	0.29
462	0.29
463	0.291
463	0.292
463	0.292
464	0.292
464	0.293
465	0.293
465	0.294
466	0.295
466	0.295
467	0.295
467	0.295
467	0.295
468	0.295
468	0.295
469	0.295
469	0.296
470	0.296
470	0.296
471	0.296
471	0.296
472	0.297
472	0.297
472	0.298
473	0.299
473	0.299
474	0.3
474	0.3
475	0.301
475	0.302
476	0.302
476	0.303
477	0.304
477	0.305
477	0.306
478	0.306
478	0.307
479	0.308
479	0.309
480	0.31
480	0.31
481	0.311
481	0.312
482	0.313
482	0.314
482	0.315
483	0.317
483	0.318
484	0.319
484	0.319
485	0.32
485	0.322
486	0.322
486	0.324
487	0.324
487	0.326
487	0.327
488	0.327
488	0.328
489	0.329
489	0.331
490	0.333
490	0.334
491	0.336
491	0.338
492	0.34
492	0.341
492	0.342
493	0.344
493	0.346
494	0.348
494	0.35
495	0.352
495	0.353
496	0.355
496	0.357
496	0.359
497	0.361
497	0.363
498	0.365
498	0.367
499	0.369
499	0.371
500	0.374
500	0.377
501	0.379
501	0.381
501	0.383
502	0.385
502	0.387
503	0.39
503	0.392
504	0.394
504	0.396
505	0.399
505	0.402
506	0.404
506	0.407
506	0.41
507	0.412
507	0.414
508	0.417
508	0.419
509	0.422
509	0.425
510	0.427
510	0.429
511	0.431
511	0.433
511	0.436
512	0.438
512	0.44
513	0.442
513	0.444
514	0.447
514	0.449
515	0.451
515	0.453
515	0.455
516	0.457
516	0.459
517	0.462
517	0.464
518	0.466
518	0.467
519	0.469
519	0.47
520	0.472
520	0.474
520	0.475
521	0.476
521	0.478
522	0.479
522	0.48
523	0.481
523	0.482
524	0.483
524	0.484
524	0.485
525	0.486
525	0.487
526	0.487
526	0.488
527	0.488
527	0.488
528	0.488
528	0.488
529	0.488
529	0.488
529	0.487
530	0.487
530	0.486
531	0.486
531	0.485
532	0.485
532	0.485
533	0.485
533	0.484
533	0.483
534	0.482
534	0.481
535	0.48
535	0.48
536	0.478
536	0.477
537	0.476
537	0.475
538	0.474
538	0.472
538	0.471
539	0.47
539	0.469
540	0.467
540	0.465
541	0.463
541	0.462
542	0.46
542	0.457
542	0.455
543	0.453
543	0.45
544	0.448
544	0.446
545	0.444
545	0.442
546	0.44
546	0.437
547	0.434
547	0.432
547	0.429
548	0.427
548	0.425
549	0.422
549	0.42
550	0.418
550	0.415
551	0.412
551	0.409
551	0.406
552	0.404
552	0.401
553	0.399
553	0.396
554	0.394
554	0.39
555	0.387
555	0.385
556	0.383
556	0.38
556	0.378
557	0.376
557	0.373
558	0.371
558	0.369
559	0.367
559	0.365
560	0.362
560	0.36
560	0.358
561	0.356
561	0.354
562	0.352
562	0.35
563	0.348
563	0.346
564	0.344
564	0.342
564	0.34
565	0.338
565	0.336
566	0.334
566	0.332
567	0.331
567	0.329
568	0.327
568	0.325
568	0.322
569	0.32
569	0.318
570	0.315
570	0.312
571	0.311
571	0.309
572	0.306
572	0.305
573	0.302
573	0.3
573	0.298
574	0.297
574	0.296
575	0.295
575	0.295
576	0.293
576	0.291
577	0.289
577	0.287
577	0.287
578	0.286
578	0.285
579	0.285
579	0.284
580	0.282
580	0.279
581	0.277
581	0.275
581	0.275
582	0.275
582	0.274
583	0.273
583	0.271
584	0.268
584	0.265
585	0.264
585	0.264
585	0.263
586	0.262
586	0.26
587	0.258
587	0.256
588	0.254
588	0.253
589	0.253
589	0.252
590	0.251
590	0.25
590	0.25
591	0.25
591	0.249
592	0.247
592	0.246
593	0.246
593	0.245
594	0.243
594	0.242
594	0.241
595	0.24
595	0.238
596	0.237
596	0.237
597	0.238
597	0.238
598	0.237
598	0.237
598	0.236
599	0.236
599	0.235
600	0.234
600	0.234
601	0.233
601	0.233
602	0.231
602	0.231
602	0.23
603	0.229
603	0.229
604	0.229
604	0.228
605	0.228
605	0.228
606	0.227
606	0.225
606	0.224
607	0.223
607	0.222
608	0.221
608	0.219
609	0.218
609	0.218
610	0.217
610	0.216
610	0.215
611	0.215
611	0.215
612	0.215
612	0.215
613	0.215
613	0.215
614	0.214
614	0.213
614	0.212
615	0.211
615	0.21
616	0.21
616	0.209
617	0.208
617	0.207
618	0.206
618	0.205
618	0.204
619	0.204
619	0.204
620	0.204
620	0.203
621	0.202
621	0.201
622	0.2
622	0.199
622	0.197
623	0.196
623	0.196
624	0.195
624	0.194
625	0.192
625	0.191
626	0.19
626	0.189
626	0.189
627	0.188
627	0.187
628	0.186
628	0.185
629	0.184
629	0.183
630	0.181
630	0.18
630	0.179
631	0.178
631	0.176
632	0.174
632	0.172
633	0.171
633	0.169
634	0.167
634	0.165
634	0.163
635	0.161
635	0.159
636	0.156
636	0.154
637	0.151
637	0.148
638	0.146
638	0.143
638	0.14
639	0.136
639	0.133
640	0.13
640	0.126
641	0.123
641	0.119
642	0.116
642	0.113
642	0.109
643	0.104
643	0.1
644	0.095
644	0.091
645	0.086
645	0.081
646	0.076
646	0.07
646	0.064
647	0.058
647	0.052
648	0.046
648	0.039
649	0.032
649	0.026
650	0.02
650	0.013
650	0.006
651	-0.003
651	-0.013
652	-0.026
652	-0.04
653	-0.051
653	-0.062
653	-0.058
654	-0.04
654	-0.036
655	-0.041
655	-0.046
656	-0.051
656	-0.058
657	-0.063
657	-0.067
657	-0.074
658	-0.081
658	-0.111
659	-0.194
659	-0.281
660	-0.321
660	-0.347
661	-0.374
661	-0.403
661	-0.435
662	-0.463
662	-0.494
663	-0.528
663	-0.567
664	-0.604
664	-0.645
665	-0.692
665	-0.739
665	-0.784
666	-0.837
666	-0.892
667	-0.949
667	-1.013
668	-1.073
668	-1.143
669	-1.213
669	-1.288
669	-1.367
670	-1.452
670	-1.567
671	-1.746
671	-2.11
672	-2.338
672	-2.493
672	-2.609
673	-2.703
673	-2.781
674	-2.834
674	-2.849
675	-2.864
675	-2.868
676	-2.863
676	-2.807
676	-2.735
677	-2.648
677	-2.542
678	-2.381
678	-2.107
679	-1.746
679	-1.586
680	-1.484
680	-1.408
680	-1.342
681	-1.294
681	-1.242
682	-1.2
682	-1.156
683	-1.112
683	-1.088
684	-1.059
684	-1.038
684	-1.015
685	-0.994
685	-0.983
686	-0.959
686	-0.944
687	-0.934
687	-0.921
687	-0.92
688	-0.905
688	-0.897
689	-0.9
689	-0.897
690	-0.882
690	-0.872
691	-0.869
691	-0.87
691	-0.87
692	-0.869
692	-0.864
693	-0.872
693	-0.88
694	-0.859
694	-0.858
695	-0.859
695	-0.852
695	-0.86
696	-0.865
696	-0.858
697	-0.851
697	-0.848
698	-0.842
698	-0.836
698	-0.849
699	-0.846
699	-0.849
700	-0.868
700	-0.861
701	-0.849
701	-0.843
702	-0.844
702	-0.843
702	-0.842
703	-0.834
703	-0.823
704	-0.83
704	-0.834
705	-0.823
705	-0.823
705	-0.819
706	-0.811
706	-0.806
707	-0.817
707	-0.822
708	-0.818
708	-0.815
709	-0.816
709	-0.812
709	-0.807
710	-0.814
710	-0.817
711	-0.816
711	-0.817
712	-0.807
712	-0.802
713	-0.807
713	-0.808
713	-0.788
714	-0.787
714	-0.792
715	-0.783
715	-0.791
716	-0.808
716	-0.815
716	-0.816
717	-0.823
717	-0.816
718	-0.809
718	-0.81
719	-0.808
719	-0.801
720	-0.796
720	-0.79
720	-0.784
721	-0.776
721	-0.783
722	-0.78
722	-0.776
723	-0.793
723	-0.806
723	-0.814
724	-0.811
724	-0.816
725	-0.809
725	-0.812
726	-0.815
726	-0.806
727	-0.807
727	-0.813
727	-0.804
728	-0.789
728	-0.786
729	-0.789
729	-0.792
730	-0.799
730	-0.792
730	-0.798
731	-0.802
731	-0.803
732	-0.805
732	-0.801
733	-0.818
733	-0.823
734	-0.832
734	-0.822
734	-0.803
735	-0.792
735	-0.785
736	-0.782
736	-0.779
737	-0.776
737	-0.766
737	-0.758
738	-0.743
738	-0.733
739	-0.737
739	-0.738
740	-0.752
740	-0.752
741	-0.763
741	-0.772
741	-0.782
742	-0.788
742	-0.805
743	-0.81
743	-0.813
744	-0.816
744	-0.826
744	-0.821
745	-0.83
745	-0.82
746	-0.816
746	-0.807
747	-0.81
747	-0.799
748	-0.801
748	-0.805
748	-0.807
749	-0.798
749	-0.805
750	-0.794
750	-0.794
751	-0.794
751	-0.792
751	-0.804
752	-0.808
752	-0.812
753	-0.812
753	-0.804
754	-0.823
754	-0.823
754	-0.83
755	-0.83
755	-0.821
756	-0.822
756	-0.807
757	-0.8
757	-0.788
758	-0.79
758	-0.788
758	-0.785
759	-0.789
759	-0.788
760	-0.786
760	-0.789
761	-0.782
761	-0.785
761	-0.785
762	-0.79
762	-0.791
763	-0.792
763	-0.795
764	-0.793
764	-0.789
764	-0.797
765	-0.797
765	-0.804
766	-0.81
766	-0.812
767	-0.828
767	-0.823
768	-0.822
768	-0.814
768	-0.811
769	-0.815
769	-0.821
770	-0.829
770	-0.834
771	-0.829
771	-0.827
771	-0.832
772	-0.835
772	-0.854
773	-0.857
773	-0.854
774	-0.854
774	-0.836
775	-0.826
775	-0.826
775	-0.829
776	-0.841
776	-0.836
777	-0.837
777	-0.822
778	-0.831
778	-0.84
778	-0.839
779	-0.848
779	-0.863
780	-0.86
780	-0.87
781	-0.861
781	-0.85
781	-0.865
782	-0.887
782	-0.886
783	-0.885
783	-0.895
784	-0.897
784	-0.888
784	-0.905
785	-0.897
785	-0.909
786	-0.914
786	-0.905
787	-0.892
787	-0.902
788	-0.894
788	-0.887
788	-0.889
789	-0.889
789	-0.878
790	-0.879
790	-0.864
791	-0.871
791	-0.866
791	-0.859
792	-0.853
792	-0.858
793	-0.86
793	-0.849
794	-0.843
794	-0.836
794	-0.842
795	-0.861
795	-0.845
796	-0.85
796	-0.848
797	-0.841
797	-0.831
797	-0.823
798	-0.842
798	-0.847
799	-0.847
799	-0.834
800	-0.828
800	-0.837
801	-0.835
801	-0.839
801	-0.837
802	-0.834
802	-0.835
803	-0.83
803	-0.823
804	-0.829
804	-0.836
804	-0.82
805	-0.803
805	-0.793
806	-0.795
806	-0.791
807	-0.795
807	-0.794
807	-0.778
808	-0.773
808	-0.767
809	-0.762
809	-0.762
810	-0.765
810	-0.765
810	-0.76
811	-0.763
811	-0.754
812	-0.746
812	-0.748
813	-0.752
813	-0.753
813	-0.748
814	-0.748
814	-0.755
815	-0.744
815	-0.741
816	-0.736
816	-0.752
817	-0.765
817	-0.768
817	-0.778
818	-0.771
818	-0.768
819	-0.779
819	-0.776
820	-0.786
820	-0.787
820	-0.786
821	-0.781
821	-0.777
822	-0.776
822	-0.764
823	-0.776
823	-0.776
823	-0.769
824	-0.768
824	-0.78
825	-0.778
825	-0.775
826	-0.772
826	-0.768
826	-0.766
827	-0.767
827	-0.757
828	-0.756
828	-0.75
829	-0.743
829	-0.727
829	-0.724
830	-0.721
830	-0.707
831	-0.699
831	-0.689
832	-0.68
832	-0.675
832	-0.668
833	-0.669
833	-0.675
834	-0.67
834	-0.667
835	-0.661
835	-0.66
835	-0.655
836	-0.652
836	-0.649
837	-0.639
837	-0.63
838	-0.616
838	-0.6
839	-0.595
839	-0.581
839	-0.571
840	-0.57
840	-0.559
841	-0.547
841	-0.538
842	-0.531
842	-0.519
842	-0.517
843	-0.513
843	-0.508
844	-0.505
844	-0.494
845	-0.48
845	-0.472
845	-0.462
846	-0.449
846	-0.439
847	-0.426
847	-0.411
848	-0.397
848	-0.38
848	-0.368
849	-0.356
849	-0.345
850	-0.335
850	-0.324
851	-0.312
851	-0.296
851	-0.288
852	-0.274
852	-0.262
853	-0.252
853	-0.242
854	-0.23
854	-0.22
854	-0.208
855	-0.198
855	-0.19
856	-0.183
856	-0.175
857	-0.167
857	-0.159
857	-0.146
858	-0.135
858	-0.128
859	-0.117
859	-0.107
860	-0.097
860	-0.081
860	-0.071
861	-0.061
861	-0.052
862	-0.044
862	-0.036
863	-0.028
863	-0.019
863	-0.014
864	-0.008
864	-0.001
865	0.004
865	0.009
866	0.015
866	0.02
866	0.025
867	0.03
867	0.035
868	0.038
868	0.043
869	0.047
869	0.051
869	0.053
870	0.055
870	0.057
871	0.058
871	0.058
872	0.059
872	0.059
872	0.059
873	0.059
873	0.059
874	0.059
874	0.059
875	0.059
875	0.059
875	0.059
876	0.059
876	0.06
877	0.059
877	0.059
878	0.059
878	0.059
878	0.058
879	0.058
879	0.057
880	0.055
880	0.054
881	0.052
881	0.051
881	0.05
882	0.048
882	0.047
883	0.046
883	0.046
884	0.046
884	0.047
884	0.047
885	0.048
885	0.048
886	0.049
886	0.049
887	0.049
887	0.049
887	0.049
888	0.049
888	0.048
889	0.048
889	0.047
890	0.046
890	0.045
890	0.044
891	0.044
891	0.044
892	0.045
892	0.045
893	0.045
893	0.045
893	0.045
894	0.045
894	0.046
895	0.046
895	0.046
895	0.046
896	0.047
896	0.047
897	0.047
897	0.047
898	0.047
898	0.047
898	0.048
899	0.048
899	0.048
900	0.048
900	0.048
901	0.047
901	0.046
901	0.046
902	0.046
902	0.047
903	0.047
903	0.046
904	0.046
904	0.046
904	0.046
905	0.045
905	0.046
906	0.046
906	0.046
907	0.046
907	0.047
907	0.047
908	0.048
908	0.049
909	0.049
909	0.05
910	0.05
910	0.051
910	0.052
911	0.052
911	0.053
912	0.054
912	0.055
913	0.056
913	0.057
913	0.058
914	0.058
914	0.058
915	0.058
915	0.058
916	0.058
916	0.057
916	0.057
917	0.056
917	0.056
918	0.055
918	0.055
918	0.054
919	0.054
919	0.053
920	0.053
920	0.053
921	0.053
921	0.053
921	0.053
922	0.053
922	0.052
923	0.052
923	0.052
924	0.052
924	0.052
924	0.052
925	0.051
925	0.051
926	0.05
926	0.05
927	0.05
927	0.049
927	0.049
928	0.049
928	0.049
929	0.049
929	0.05
930	0.05
930	0.05
930	0.051
931	0.051
931	0.051
932	0.052
932	0.052
933	0.052
933	0.052
933	0.051
934	0.05
934	0.049
935	0.048
935	0.047
935	0.045
936	0.044
936	0.042
937	0.04
937	0.04
938	0.039
938	0.038
938	0.038
939	0.038
939	0.037
940	0.037
940	0.037
941	0.037
941	0.037
941	0.037
942	0.036
942	0.036
943	0.036
943	0.036
944	0.035
944	0.034
944	0.034
945	0.034
945	0.034
946	0.034
946	0.034
946	0.034
947	0.034
947	0.034
948	0.034
948	0.034
949	0.035
949	0.035
949	0.036
950	0.037
950	0.037
951	0.038
951	0.038
952	0.038
952	0.039
952	0.039
953	0.039
953	0.039
954	0.039
954	0.039
955	0.038
955	0.038
955	0.038
956	0.038
956	0.037
957	0.036
957	0.036
957	0.035
958	0.035
958	0.035
959	0.035
959	0.035
960	0.035
960	0.035
960	0.036
961	0.036
961	0.037
962	0.037
962	0.038
963	0.038
963	0.039
963	0.039
964	0.04
964	0.04
965	0.041
965	0.041
966	0.041
966	0.041
966	0.041
967	0.041
967	0.04
968	0.039
968	0.039
968	0.039
969	0.038
969	0.038
970	0.038
970	0.038
971	0.037
971	0.037
971	0.038
972	0.038
972	0.039
973	0.039
973	0.039
974	0.039
974	0.039
974	0.04
975	0.04
975	0.04
976	0.04
976	0.04
976	0.039
977	0.039
977	0.038
978	0.038
978	0.037
979	0.036
979	0.035
979	0.035
980	0.034
980	0.034
981	0.033
981	0.033
982	0.033
982	0.032
982	0.033
983	0.032
983	0.032
984	0.032
984	0.032
984	0.031
985	0.031
985	0.031
986	0.03
986	0.029
987	0.028
987	0.027
987	0.026
988	0.025
988	0.025
989	0.024
989	0.024
990	0.024
990	0.023
990	0.023
991	0.024
991	0.024
992	0.025
992	0.025
992	0.025
993	0.025
993	0.025
994	0.025
994	0.025
995	0.024
995	0.024
995	0.023
996	0.023
996	0.022
997	0.021
997	0.021
997	0.02
998	0.02
998	0.021
999	0.021
999	0.021
1000	0.021
1000	0.021
1000	0.021
1001	0.021
1001	0.021
1002	0.021
1002	0.021
1003	0.02
1003	0.019
1003	0.018
1004	0.017
1004	0.017
1005	0.015
1005	0.014
1005	0.013
1006	0.012
1006	0.011
1007	0.011
1007	0.01
1008	0.01
1008	0.009
1008	0.009
1009	0.009
1009	0.01
1010	0.01
1010	0.011
1010	0.011
1011	0.012
1011	0.012
1012	0.013
1012	0.013
1013	0.015
1013	0.015
1013	0.016
1014	0.016
1014	0.017
1015	0.018
1015	0.019
1016	0.019
1016	0.019
1016	0.019
1017	0.02
1017	0.019
1018	0.019
1018	0.019
1018	0.019
1019	0.018
1019	0.018
1020	0.018
1020	0.017
1021	0.017
1021	0.017
1021	0.017
1022	0.016
1022	0.016
1023	0.016
1023	0.016
1023	0.016
1024	0.016
1024	0.016
1025	0.016
1025	0.015
1026	0.015
1026	0.015
1026	0.015
1027	0.015
1027	0.015
1028	0.015
1028	0.015
1028	0.015
1029	0.015
1029	0.015
1030	0.014
1030	0.013
1031	0.013
1031	0.013
1031	0.012
1032	0.012
1032	0.011
1033	0.01
1033	0.01
1033	0.01
1034	0.009
1034	0.009
1035	0.009
1035	0.009
1036	0.009
1036	0.009
1036	0.009
1037	0.009
1037	0.009
1038	0.01
1038	0.01
1039	0.011
1039	0.011
1039	0.012
1040	0.012
1040	0.013
1041	0.013
1041	0.014
1041	0.014
1042	0.013
1042	0.013
1043	0.013
1043	0.013
1044	0.012
1044	0.012
1044	0.011
1045	0.011
1045	0.01
1046	0.01
1046	0.009
1046	0.009
1047	0.009
1047	0.009
1048	0.009
1048	0.009
1049	0.009
1049	0.008
1049	0.008
1050	0.007
1050	0.006
1051	0.005
1051	0.004
1051	0.004
1052	0.003
1052	0.002
1053	0.001
1053	0.001
1053	0
1054	-0
1054	-0
1055	-0
1055	0
1056	0
1056	0
1056	-0
1057	-0.001
1057	-0.001
1058	-0.001
1058	-0.001
1058	-0.002
1059	-0.002
1059	-0.002
1060	-0.003
1060	-0.003
1061	-0.003
1061	-0.003
1061	-0.003
1062	-0.003
1062	-0.003
1063	-0.003
1063	-0.004
1063	-0.004
1064	-0.004
1064	-0.004
1065	-0.005
1065	-0.005
1066	-0.006
1066	-0.007
1066	-0.008
1067	-0.008
1067	-0.009
1068	-0.01
1068	-0.011
1068	-0.011
1069	-0.012
1069	-0.013
1070	-0.013
1070	-0.013
1071	-0.014
1071	-0.014
1071	-0.014
1072	-0.013
1072	-0.013
1073	-0.013
1073	-0.012
1073	-0.012
1074	-0.012
1074	-0.011
1075	-0.012
1075	-0.012
1076	-0.013
1076	-0.013
1076	-0.014
1077	-0.015
1077	-0.016
1078	-0.017
1078	-0.017
1078	-0.018
1079	-0.019
1079	-0.02
1080	-0.021
1080	-0.021
1080	-0.022
1081	-0.023
1081	-0.024
1082	-0.024
1082	-0.026
1083	-0.027
1083	-0.028
1083	-0.03
1084	-0.031
1084	-0.032
1085	-0.033
1085	-0.034
1085	-0.034
1086	-0.036
1086	-0.037
1087	-0.037
1087	-0.038
1088	-0.039
1088	-0.04
1088	-0.04
1089	-0.042
1089	-0.043
1090	-0.044
1090	-0.045
1090	-0.047
1091	-0.048
1091	-0.048
1092	-0.049
1092	-0.049
1092	-0.051
1093	-0.052
1093	-0.052
1094	-0.052
1094	-0.052
1095	-0.054
1095	-0.053
1095	-0.053
1096	-0.054
1096	-0.056
1097	-0.057
1097	-0.059
1097	-0.06
1098	-0.061
1098	-0.064
1099	-0.065
1099	-0.066
1100	-0.068
1100	-0.071
1100	-0.073
1101	-0.076
1101	-0.078
1102	-0.08
1102	-0.083
1102	-0.085
1103	-0.087
1103	-0.091
1104	-0.094
1104	-0.097
1104	-0.099
1105	-0.101
1105	-0.104
1106	-0.109
1106	-0.112
1107	-0.117
1107	-0.121
1107	-0.125
1108	-0.126
1108	-0.128
1109	-0.131
1109	-0.135
1109	-0.139
1110	-0.14
1110	-0.143
1111	-0.151
1111	-0.144
