Data from 3.4A_17C_Absorbance__372__01329.txt Node

Date: Tue Jun 20 15:51:20 CEST 2023
User: Marek
Spectrometer: MAYP115816
Trigger mode: 0
Integration Time (sec): 2.200000E-1
Scans to average: 10
Electric dark correction enabled: true
Nonlinearity correction enabled: true
Boxcar width: 5
XAxis mode: Wavelengths
Number of Pixels in Spectrum: 2068
>>>>>Begin Spectral Data<<<<<
199	-0.759
199	-0.741
200	-0.705
200	-0.65
201	-0.62
201	-0.613
202	-0.598
202	-0.591
203	-0.591
203	-0.583
204	-0.562
204	-0.545
205	-0.52
205	-0.51
205	-0.518
206	-0.522
206	-0.517
207	-0.511
207	-0.516
208	-0.515
208	-0.521
209	-0.524
209	-0.532
210	-0.547
210	-0.555
211	-0.549
211	-0.551
212	-0.56
212	-0.565
213	-0.562
213	-0.56
213	-0.556
214	-0.563
214	-0.563
215	-0.559
215	-0.562
216	-0.572
216	-0.577
217	-0.574
217	-0.575
218	-0.582
218	-0.583
219	-0.59
219	-0.592
220	-0.596
220	-0.603
221	-0.605
221	-0.605
221	-0.599
222	-0.599
222	-0.597
223	-0.594
223	-0.598
224	-0.6
224	-0.598
225	-0.594
225	-0.596
226	-0.596
226	-0.596
227	-0.604
227	-0.613
228	-0.617
228	-0.625
229	-0.628
229	-0.625
229	-0.625
230	-0.623
230	-0.621
231	-0.618
231	-0.612
232	-0.613
232	-0.608
233	-0.608
233	-0.596
234	-0.596
234	-0.59
235	-0.596
235	-0.605
236	-0.611
236	-0.612
236	-0.613
237	-0.61
237	-0.613
238	-0.613
238	-0.616
239	-0.617
239	-0.626
240	-0.617
240	-0.614
241	-0.609
241	-0.612
242	-0.614
242	-0.624
243	-0.623
243	-0.627
243	-0.633
244	-0.629
244	-0.631
245	-0.634
245	-0.638
246	-0.648
246	-0.652
247	-0.659
247	-0.645
248	-0.644
248	-0.646
249	-0.651
249	-0.653
250	-0.652
250	-0.66
250	-0.657
251	-0.658
251	-0.655
252	-0.658
252	-0.67
253	-0.665
253	-0.675
254	-0.681
254	-0.682
255	-0.693
255	-0.692
256	-0.695
256	-0.708
257	-0.718
257	-0.714
258	-0.716
258	-0.726
258	-0.723
259	-0.714
259	-0.731
260	-0.728
260	-0.717
261	-0.728
261	-0.713
262	-0.718
262	-0.717
263	-0.707
263	-0.711
264	-0.722
264	-0.724
265	-0.714
265	-0.72
265	-0.731
266	-0.722
266	-0.723
267	-0.72
267	-0.735
268	-0.743
268	-0.736
269	-0.729
269	-0.743
270	-0.746
270	-0.743
271	-0.756
271	-0.766
272	-0.768
272	-0.771
272	-0.765
273	-0.775
273	-0.791
274	-0.781
274	-0.777
275	-0.773
275	-0.764
276	-0.766
276	-0.77
277	-0.771
277	-0.768
278	-0.774
278	-0.773
278	-0.761
279	-0.77
279	-0.784
280	-0.788
280	-0.799
281	-0.792
281	-0.785
282	-0.789
282	-0.784
283	-0.776
283	-0.79
284	-0.801
284	-0.812
285	-0.791
285	-0.798
285	-0.789
286	-0.796
286	-0.812
287	-0.809
287	-0.809
288	-0.808
288	-0.79
289	-0.789
289	-0.796
290	-0.805
290	-0.792
291	-0.795
291	-0.792
292	-0.772
292	-0.77
292	-0.773
293	-0.76
293	-0.756
294	-0.755
294	-0.742
295	-0.724
295	-0.738
296	-0.75
296	-0.746
297	-0.734
297	-0.739
298	-0.736
298	-0.755
298	-0.759
299	-0.744
299	-0.736
300	-0.733
300	-0.713
301	-0.692
301	-0.694
302	-0.703
302	-0.689
303	-0.683
303	-0.669
304	-0.652
304	-0.654
305	-0.646
305	-0.653
305	-0.668
306	-0.655
306	-0.653
307	-0.645
307	-0.655
308	-0.656
308	-0.652
309	-0.653
309	-0.649
310	-0.649
310	-0.643
311	-0.629
311	-0.645
311	-0.634
312	-0.63
312	-0.62
313	-0.614
313	-0.615
314	-0.622
314	-0.62
315	-0.618
315	-0.613
316	-0.608
316	-0.599
317	-0.59
317	-0.588
318	-0.582
318	-0.579
318	-0.57
319	-0.558
319	-0.549
320	-0.546
320	-0.544
321	-0.54
321	-0.538
322	-0.532
322	-0.523
323	-0.522
323	-0.511
324	-0.508
324	-0.498
324	-0.487
325	-0.472
325	-0.455
326	-0.446
326	-0.422
327	-0.406
327	-0.385
328	-0.356
328	-0.333
329	-0.306
329	-0.277
330	-0.25
330	-0.214
330	-0.178
331	-0.141
331	-0.108
332	-0.075
332	-0.043
333	-0.012
333	0.021
334	0.05
334	0.076
335	0.103
335	0.125
336	0.146
336	0.166
336	0.182
337	0.199
337	0.216
338	0.229
338	0.239
339	0.252
339	0.263
340	0.271
340	0.28
341	0.286
341	0.292
342	0.299
342	0.305
342	0.309
343	0.313
343	0.318
344	0.32
344	0.323
345	0.326
345	0.329
346	0.331
346	0.333
347	0.334
347	0.336
348	0.337
348	0.339
348	0.34
349	0.341
349	0.341
350	0.342
350	0.343
351	0.343
351	0.344
352	0.344
352	0.344
353	0.344
353	0.344
354	0.345
354	0.344
354	0.344
355	0.344
355	0.344
356	0.344
356	0.344
357	0.345
357	0.345
358	0.344
358	0.344
359	0.344
359	0.344
360	0.344
360	0.345
360	0.344
361	0.344
361	0.344
362	0.343
362	0.343
363	0.344
363	0.343
364	0.343
364	0.343
365	0.343
365	0.343
366	0.343
366	0.343
366	0.343
367	0.343
367	0.342
368	0.342
368	0.342
369	0.342
369	0.341
370	0.341
370	0.341
371	0.341
371	0.341
372	0.34
372	0.34
372	0.34
373	0.34
373	0.339
374	0.339
374	0.339
375	0.339
375	0.338
376	0.338
376	0.338
377	0.338
377	0.337
378	0.337
378	0.337
378	0.336
379	0.336
379	0.336
380	0.336
380	0.336
381	0.335
381	0.335
382	0.335
382	0.334
383	0.334
383	0.334
383	0.334
384	0.333
384	0.333
385	0.332
385	0.332
386	0.332
386	0.331
387	0.331
387	0.331
388	0.33
388	0.33
389	0.33
389	0.33
389	0.33
390	0.33
390	0.329
391	0.329
391	0.329
392	0.329
392	0.328
393	0.328
393	0.328
394	0.328
394	0.327
394	0.327
395	0.326
395	0.326
396	0.326
396	0.325
397	0.325
397	0.325
398	0.324
398	0.324
399	0.323
399	0.323
400	0.323
400	0.322
400	0.322
401	0.322
401	0.322
402	0.321
402	0.321
403	0.321
403	0.321
404	0.32
404	0.32
405	0.32
405	0.319
405	0.319
406	0.319
406	0.319
407	0.319
407	0.318
408	0.318
408	0.317
409	0.318
409	0.317
410	0.318
410	0.318
411	0.317
411	0.317
411	0.317
412	0.316
412	0.316
413	0.315
413	0.315
414	0.315
414	0.315
415	0.314
415	0.314
416	0.314
416	0.314
416	0.313
417	0.313
417	0.313
418	0.313
418	0.313
419	0.313
419	0.313
420	0.313
420	0.313
421	0.313
421	0.313
421	0.313
422	0.312
422	0.312
423	0.312
423	0.312
424	0.311
424	0.311
425	0.311
425	0.311
426	0.311
426	0.31
427	0.311
427	0.311
427	0.311
428	0.311
428	0.31
429	0.31
429	0.31
430	0.309
430	0.309
431	0.309
431	0.308
432	0.308
432	0.307
432	0.307
433	0.307
433	0.307
434	0.307
434	0.307
435	0.308
435	0.308
436	0.308
436	0.308
437	0.309
437	0.309
437	0.308
438	0.309
438	0.308
439	0.308
439	0.308
440	0.307
440	0.307
441	0.307
441	0.307
442	0.307
442	0.307
442	0.307
443	0.307
443	0.307
444	0.307
444	0.307
445	0.307
445	0.307
446	0.307
446	0.306
447	0.306
447	0.307
447	0.306
448	0.306
448	0.306
449	0.306
449	0.306
450	0.307
450	0.307
451	0.306
451	0.307
452	0.306
452	0.306
452	0.307
453	0.307
453	0.307
454	0.307
454	0.307
455	0.307
455	0.308
456	0.308
456	0.308
457	0.308
457	0.308
458	0.308
458	0.308
458	0.308
459	0.308
459	0.308
460	0.308
460	0.308
461	0.308
461	0.308
462	0.309
462	0.309
463	0.31
463	0.31
463	0.311
464	0.311
464	0.311
465	0.312
465	0.312
466	0.313
466	0.313
467	0.313
467	0.314
467	0.314
468	0.314
468	0.314
469	0.315
469	0.315
470	0.316
470	0.317
471	0.317
471	0.317
472	0.317
472	0.318
472	0.319
473	0.319
473	0.32
474	0.32
474	0.321
475	0.322
475	0.323
476	0.323
476	0.324
477	0.325
477	0.326
477	0.327
478	0.327
478	0.328
479	0.329
479	0.33
480	0.331
480	0.332
481	0.333
481	0.334
482	0.335
482	0.336
482	0.337
483	0.339
483	0.341
484	0.342
484	0.343
485	0.344
485	0.345
486	0.346
486	0.347
487	0.349
487	0.35
487	0.351
488	0.352
488	0.353
489	0.355
489	0.357
490	0.359
490	0.361
491	0.363
491	0.365
492	0.366
492	0.367
492	0.369
493	0.371
493	0.373
494	0.375
494	0.377
495	0.379
495	0.381
496	0.383
496	0.385
496	0.387
497	0.389
497	0.392
498	0.394
498	0.396
499	0.398
499	0.401
500	0.404
500	0.407
501	0.41
501	0.412
501	0.414
502	0.417
502	0.419
503	0.422
503	0.424
504	0.426
504	0.429
505	0.431
505	0.434
506	0.437
506	0.439
506	0.442
507	0.445
507	0.448
508	0.451
508	0.454
509	0.457
509	0.46
510	0.463
510	0.465
511	0.468
511	0.47
511	0.473
512	0.475
512	0.477
513	0.479
513	0.482
514	0.484
514	0.487
515	0.49
515	0.492
515	0.494
516	0.496
516	0.499
517	0.502
517	0.503
518	0.505
518	0.507
519	0.508
519	0.51
520	0.512
520	0.514
520	0.515
521	0.516
521	0.518
522	0.519
522	0.52
523	0.522
523	0.523
524	0.524
524	0.525
524	0.525
525	0.527
525	0.527
526	0.528
526	0.529
527	0.529
527	0.529
528	0.529
528	0.529
529	0.529
529	0.529
529	0.528
530	0.528
530	0.528
531	0.528
531	0.527
532	0.526
532	0.526
533	0.526
533	0.525
533	0.525
534	0.523
534	0.522
535	0.521
535	0.521
536	0.519
536	0.518
537	0.516
537	0.515
538	0.513
538	0.511
538	0.509
539	0.508
539	0.506
540	0.504
540	0.502
541	0.499
541	0.497
542	0.495
542	0.493
542	0.49
543	0.488
543	0.485
544	0.483
544	0.481
545	0.478
545	0.476
546	0.474
546	0.471
547	0.468
547	0.465
547	0.462
548	0.46
548	0.456
549	0.454
549	0.451
550	0.448
550	0.445
551	0.441
551	0.438
551	0.436
552	0.433
552	0.43
553	0.427
553	0.425
554	0.422
554	0.418
555	0.415
555	0.412
556	0.409
556	0.406
556	0.403
557	0.4
557	0.398
558	0.395
558	0.392
559	0.389
559	0.386
560	0.383
560	0.381
560	0.379
561	0.377
561	0.374
562	0.372
562	0.37
563	0.367
563	0.365
564	0.362
564	0.36
564	0.359
565	0.357
565	0.355
566	0.352
566	0.35
567	0.348
567	0.346
568	0.344
568	0.341
568	0.338
569	0.335
569	0.333
570	0.329
570	0.326
571	0.324
571	0.322
572	0.319
572	0.317
573	0.314
573	0.312
573	0.309
574	0.307
574	0.306
575	0.304
575	0.304
576	0.302
576	0.3
577	0.298
577	0.296
577	0.295
578	0.294
578	0.294
579	0.293
579	0.292
580	0.29
580	0.287
581	0.284
581	0.283
581	0.282
582	0.281
582	0.28
583	0.278
583	0.276
584	0.272
584	0.269
585	0.268
585	0.267
585	0.266
586	0.264
586	0.262
587	0.26
587	0.258
588	0.256
588	0.255
589	0.254
589	0.253
590	0.252
590	0.251
590	0.251
591	0.251
591	0.249
592	0.248
592	0.246
593	0.245
593	0.244
594	0.242
594	0.241
594	0.24
595	0.239
595	0.237
596	0.236
596	0.236
597	0.237
597	0.236
598	0.234
598	0.234
598	0.233
599	0.232
599	0.231
600	0.23
600	0.228
601	0.228
601	0.227
602	0.225
602	0.224
602	0.223
603	0.222
603	0.222
604	0.221
604	0.221
605	0.22
605	0.22
606	0.219
606	0.217
606	0.216
607	0.215
607	0.215
608	0.214
608	0.212
609	0.211
609	0.21
610	0.209
610	0.208
610	0.207
611	0.207
611	0.206
612	0.206
612	0.206
613	0.206
613	0.205
614	0.204
614	0.202
614	0.202
615	0.2
615	0.199
616	0.199
616	0.198
617	0.197
617	0.196
618	0.195
618	0.194
618	0.193
619	0.193
619	0.193
620	0.193
620	0.191
621	0.19
621	0.189
622	0.188
622	0.186
622	0.185
623	0.184
623	0.184
624	0.184
624	0.182
625	0.181
625	0.18
626	0.179
626	0.177
626	0.177
627	0.176
627	0.175
628	0.173
628	0.172
629	0.17
629	0.168
630	0.166
630	0.165
630	0.163
631	0.162
631	0.16
632	0.157
632	0.155
633	0.154
633	0.152
634	0.15
634	0.148
634	0.146
635	0.144
635	0.142
636	0.14
636	0.138
637	0.136
637	0.133
638	0.131
638	0.128
638	0.125
639	0.122
639	0.118
640	0.115
640	0.111
641	0.108
641	0.104
642	0.101
642	0.097
642	0.094
643	0.089
643	0.085
644	0.08
644	0.076
645	0.071
645	0.066
646	0.061
646	0.055
646	0.049
647	0.043
647	0.037
648	0.03
648	0.024
649	0.017
649	0.011
650	0.005
650	-0.001
650	-0.008
651	-0.017
651	-0.027
652	-0.039
652	-0.052
653	-0.063
653	-0.072
653	-0.068
654	-0.051
654	-0.046
655	-0.05
655	-0.055
656	-0.06
656	-0.066
657	-0.071
657	-0.075
657	-0.081
658	-0.087
658	-0.117
659	-0.197
659	-0.28
660	-0.318
660	-0.343
661	-0.37
661	-0.399
661	-0.429
662	-0.457
662	-0.486
663	-0.521
663	-0.558
664	-0.595
664	-0.635
665	-0.681
665	-0.728
665	-0.772
666	-0.822
666	-0.877
667	-0.932
667	-0.995
668	-1.054
668	-1.124
669	-1.193
669	-1.268
669	-1.348
670	-1.437
670	-1.576
671	-1.816
671	-2.168
672	-2.374
672	-2.52
672	-2.631
673	-2.72
673	-2.796
674	-2.834
674	-2.846
675	-2.861
675	-2.862
676	-2.85
676	-2.783
676	-2.707
677	-2.612
677	-2.494
678	-2.308
678	-1.955
679	-1.659
679	-1.524
680	-1.429
680	-1.357
680	-1.296
681	-1.252
681	-1.202
682	-1.162
682	-1.12
683	-1.079
683	-1.057
684	-1.029
684	-1.011
684	-0.988
685	-0.968
685	-0.957
686	-0.934
686	-0.92
687	-0.911
687	-0.898
687	-0.897
688	-0.882
688	-0.875
689	-0.878
689	-0.874
690	-0.861
690	-0.851
691	-0.848
691	-0.852
691	-0.851
692	-0.853
692	-0.851
693	-0.857
693	-0.867
694	-0.848
694	-0.847
695	-0.85
695	-0.844
695	-0.851
696	-0.858
696	-0.851
697	-0.844
697	-0.839
698	-0.834
698	-0.826
698	-0.839
699	-0.838
699	-0.839
700	-0.86
700	-0.853
701	-0.839
701	-0.834
702	-0.834
702	-0.833
702	-0.832
703	-0.824
703	-0.813
704	-0.82
704	-0.823
705	-0.809
705	-0.811
705	-0.806
706	-0.799
706	-0.796
707	-0.807
707	-0.81
708	-0.807
708	-0.805
709	-0.806
709	-0.803
709	-0.799
710	-0.806
710	-0.809
711	-0.808
711	-0.807
712	-0.798
712	-0.796
713	-0.803
713	-0.804
713	-0.785
714	-0.786
714	-0.79
715	-0.78
715	-0.788
716	-0.803
716	-0.812
716	-0.813
717	-0.818
717	-0.808
718	-0.801
718	-0.803
719	-0.799
719	-0.792
720	-0.787
720	-0.783
720	-0.778
721	-0.77
721	-0.773
722	-0.77
722	-0.767
723	-0.787
723	-0.799
723	-0.807
724	-0.806
724	-0.811
725	-0.805
725	-0.807
726	-0.811
726	-0.802
727	-0.805
727	-0.812
727	-0.801
728	-0.788
728	-0.782
729	-0.786
729	-0.789
730	-0.795
730	-0.787
730	-0.794
731	-0.798
731	-0.797
732	-0.799
732	-0.795
733	-0.809
733	-0.816
734	-0.824
734	-0.815
734	-0.795
735	-0.786
735	-0.779
736	-0.777
736	-0.774
737	-0.773
737	-0.762
737	-0.755
738	-0.742
738	-0.731
739	-0.734
739	-0.735
740	-0.75
740	-0.753
741	-0.763
741	-0.771
741	-0.78
742	-0.786
742	-0.802
743	-0.807
743	-0.808
744	-0.811
744	-0.821
744	-0.813
745	-0.822
745	-0.811
746	-0.805
746	-0.797
747	-0.8
747	-0.791
748	-0.794
748	-0.799
748	-0.8
749	-0.792
749	-0.798
750	-0.785
750	-0.786
751	-0.786
751	-0.783
751	-0.795
752	-0.799
752	-0.801
753	-0.802
753	-0.796
754	-0.816
754	-0.816
754	-0.826
755	-0.827
755	-0.819
756	-0.822
756	-0.806
757	-0.798
757	-0.788
758	-0.79
758	-0.787
758	-0.783
759	-0.786
759	-0.785
760	-0.784
760	-0.786
761	-0.778
761	-0.782
761	-0.78
762	-0.786
762	-0.786
763	-0.788
763	-0.792
764	-0.793
764	-0.787
764	-0.793
765	-0.793
765	-0.801
766	-0.804
766	-0.808
767	-0.822
767	-0.818
768	-0.816
768	-0.808
768	-0.803
769	-0.807
769	-0.814
770	-0.824
770	-0.83
771	-0.826
771	-0.826
771	-0.831
772	-0.832
772	-0.854
773	-0.856
773	-0.857
774	-0.857
774	-0.839
775	-0.826
775	-0.825
775	-0.828
776	-0.836
776	-0.833
777	-0.835
777	-0.816
778	-0.825
778	-0.832
778	-0.83
779	-0.84
779	-0.857
780	-0.851
780	-0.862
781	-0.852
781	-0.843
781	-0.856
782	-0.877
782	-0.88
783	-0.879
783	-0.887
784	-0.89
784	-0.881
784	-0.901
785	-0.891
785	-0.905
786	-0.909
786	-0.9
787	-0.889
787	-0.896
788	-0.887
788	-0.883
788	-0.885
789	-0.886
789	-0.875
790	-0.875
790	-0.859
791	-0.866
791	-0.863
791	-0.856
792	-0.851
792	-0.858
793	-0.859
793	-0.846
794	-0.84
794	-0.834
794	-0.842
795	-0.862
795	-0.847
796	-0.853
796	-0.851
797	-0.842
797	-0.832
797	-0.826
798	-0.847
798	-0.851
799	-0.851
799	-0.837
800	-0.831
800	-0.842
801	-0.839
801	-0.843
801	-0.841
802	-0.84
802	-0.838
803	-0.832
803	-0.825
804	-0.833
804	-0.839
804	-0.821
805	-0.803
805	-0.793
806	-0.795
806	-0.792
807	-0.794
807	-0.794
807	-0.778
808	-0.773
808	-0.766
809	-0.761
809	-0.764
810	-0.765
810	-0.763
810	-0.758
811	-0.76
811	-0.751
812	-0.745
812	-0.747
813	-0.751
813	-0.751
813	-0.746
814	-0.746
814	-0.751
815	-0.741
815	-0.737
816	-0.732
816	-0.75
817	-0.763
817	-0.763
817	-0.772
818	-0.766
818	-0.765
819	-0.777
819	-0.776
820	-0.788
820	-0.786
820	-0.785
821	-0.779
821	-0.775
822	-0.777
822	-0.764
823	-0.775
823	-0.772
823	-0.766
824	-0.764
824	-0.773
825	-0.772
825	-0.77
826	-0.767
826	-0.761
826	-0.76
827	-0.762
827	-0.75
828	-0.75
828	-0.743
829	-0.738
829	-0.723
829	-0.721
830	-0.718
830	-0.703
831	-0.697
831	-0.687
832	-0.677
832	-0.674
832	-0.666
833	-0.664
833	-0.668
834	-0.666
834	-0.661
835	-0.655
835	-0.655
835	-0.649
836	-0.644
836	-0.64
837	-0.631
837	-0.623
838	-0.611
838	-0.594
839	-0.588
839	-0.575
839	-0.566
840	-0.566
840	-0.556
841	-0.546
841	-0.538
842	-0.53
842	-0.52
842	-0.517
843	-0.514
843	-0.508
844	-0.505
844	-0.494
845	-0.48
845	-0.472
845	-0.462
846	-0.452
846	-0.441
847	-0.431
847	-0.418
848	-0.404
848	-0.387
848	-0.373
849	-0.361
849	-0.349
850	-0.338
850	-0.328
851	-0.315
851	-0.3
851	-0.29
852	-0.275
852	-0.263
853	-0.255
853	-0.245
854	-0.235
854	-0.225
854	-0.213
855	-0.202
855	-0.195
856	-0.188
856	-0.179
857	-0.172
857	-0.164
857	-0.151
858	-0.141
858	-0.134
859	-0.124
859	-0.114
860	-0.104
860	-0.091
860	-0.081
861	-0.071
861	-0.061
862	-0.054
862	-0.046
863	-0.039
863	-0.03
863	-0.023
864	-0.018
864	-0.012
865	-0.005
865	-0
866	0.005
866	0.01
866	0.014
867	0.019
867	0.023
868	0.027
868	0.031
869	0.035
869	0.037
869	0.04
870	0.042
870	0.044
871	0.045
871	0.046
872	0.047
872	0.047
872	0.048
873	0.048
873	0.048
874	0.047
874	0.047
875	0.047
875	0.046
875	0.046
876	0.046
876	0.046
877	0.045
877	0.045
878	0.044
878	0.044
878	0.043
879	0.043
879	0.043
880	0.042
880	0.041
881	0.04
881	0.039
881	0.039
882	0.038
882	0.037
883	0.036
883	0.035
884	0.035
884	0.036
884	0.036
885	0.036
885	0.036
886	0.036
886	0.036
887	0.036
887	0.035
887	0.035
888	0.034
888	0.033
889	0.033
889	0.032
890	0.031
890	0.03
890	0.03
891	0.03
891	0.029
892	0.03
892	0.03
893	0.031
893	0.031
893	0.031
894	0.032
894	0.032
895	0.032
895	0.032
895	0.032
896	0.033
896	0.033
897	0.033
897	0.033
898	0.033
898	0.034
898	0.034
899	0.035
899	0.035
900	0.035
900	0.035
901	0.035
901	0.035
901	0.035
902	0.035
902	0.035
903	0.035
903	0.034
904	0.034
904	0.033
904	0.033
905	0.033
905	0.033
906	0.034
906	0.034
907	0.035
907	0.035
907	0.036
908	0.037
908	0.038
909	0.039
909	0.04
910	0.041
910	0.042
910	0.042
911	0.043
911	0.045
912	0.046
912	0.047
913	0.048
913	0.049
913	0.05
914	0.05
914	0.05
915	0.05
915	0.05
916	0.049
916	0.048
916	0.047
917	0.046
917	0.045
918	0.045
918	0.044
918	0.043
919	0.042
919	0.041
920	0.041
920	0.04
921	0.04
921	0.04
921	0.04
922	0.039
922	0.039
923	0.039
923	0.039
924	0.038
924	0.038
924	0.038
925	0.038
925	0.038
926	0.037
926	0.037
927	0.037
927	0.037
927	0.037
928	0.037
928	0.037
929	0.037
929	0.038
930	0.038
930	0.039
930	0.039
931	0.04
931	0.04
932	0.041
932	0.041
933	0.041
933	0.041
933	0.041
934	0.04
934	0.039
935	0.038
935	0.037
935	0.035
936	0.034
936	0.033
937	0.031
937	0.03
938	0.029
938	0.028
938	0.027
939	0.027
939	0.027
940	0.027
940	0.027
941	0.026
941	0.025
941	0.025
942	0.025
942	0.025
943	0.025
943	0.025
944	0.025
944	0.024
944	0.024
945	0.025
945	0.025
946	0.025
946	0.025
946	0.025
947	0.025
947	0.025
948	0.025
948	0.025
949	0.025
949	0.025
949	0.025
950	0.025
950	0.026
951	0.026
951	0.026
952	0.026
952	0.027
952	0.027
953	0.028
953	0.028
954	0.028
954	0.028
955	0.028
955	0.028
955	0.028
956	0.028
956	0.028
957	0.027
957	0.026
957	0.026
958	0.025
958	0.025
959	0.025
959	0.025
960	0.025
960	0.024
960	0.024
961	0.025
961	0.025
962	0.026
962	0.026
963	0.027
963	0.027
963	0.027
964	0.027
964	0.027
965	0.028
965	0.028
966	0.028
966	0.028
966	0.029
967	0.029
967	0.028
968	0.028
968	0.028
968	0.028
969	0.028
969	0.027
970	0.026
970	0.025
971	0.024
971	0.024
971	0.023
972	0.023
972	0.023
973	0.023
973	0.023
974	0.023
974	0.024
974	0.024
975	0.025
975	0.026
976	0.026
976	0.027
976	0.027
977	0.027
977	0.027
978	0.027
978	0.026
979	0.026
979	0.025
979	0.024
980	0.023
980	0.022
981	0.021
981	0.021
982	0.02
982	0.02
982	0.02
983	0.02
983	0.019
984	0.019
984	0.019
984	0.018
985	0.018
985	0.018
986	0.017
986	0.017
987	0.016
987	0.015
987	0.015
988	0.014
988	0.014
989	0.014
989	0.014
990	0.013
990	0.013
990	0.013
991	0.013
991	0.013
992	0.013
992	0.013
992	0.014
993	0.014
993	0.013
994	0.013
994	0.013
995	0.013
995	0.012
995	0.012
996	0.011
996	0.011
997	0.01
997	0.01
997	0.01
998	0.01
998	0.01
999	0.01
999	0.01
1000	0.01
1000	0.01
1000	0.01
1001	0.01
1001	0.01
1002	0.01
1002	0.01
1003	0.01
1003	0.009
1003	0.009
1004	0.008
1004	0.008
1005	0.007
1005	0.006
1005	0.005
1006	0.004
1006	0.004
1007	0.003
1007	0.003
1008	0.002
1008	0.002
1008	0.002
1009	0.002
1009	0.003
1010	0.003
1010	0.004
1010	0.004
1011	0.004
1011	0.004
1012	0.005
1012	0.005
1013	0.006
1013	0.006
1013	0.006
1014	0.006
1014	0.006
1015	0.006
1015	0.007
1016	0.007
1016	0.007
1016	0.007
1017	0.007
1017	0.007
1018	0.007
1018	0.007
1018	0.007
1019	0.007
1019	0.007
1020	0.007
1020	0.006
1021	0.006
1021	0.006
1021	0.005
1022	0.004
1022	0.004
1023	0.004
1023	0.003
1023	0.003
1024	0.003
1024	0.002
1025	0.002
1025	0.002
1026	0.002
1026	0.002
1026	0.002
1027	0.002
1027	0.002
1028	0.002
1028	0.003
1028	0.003
1029	0.003
1029	0.003
1030	0.003
1030	0.002
1031	0.002
1031	0.003
1031	0.003
1032	0.003
1032	0.003
1033	0.002
1033	0.002
1033	0.002
1034	0.001
1034	0.001
1035	0.001
1035	-0
1036	-0.001
1036	-0.001
1036	-0.001
1037	-0.001
1037	-0.001
1038	-0.001
1038	-0
1039	0
1039	0.001
1039	0.002
1040	0.003
1040	0.004
1041	0.004
1041	0.004
1041	0.004
1042	0.003
1042	0.003
1043	0.003
1043	0.002
1044	0.001
1044	0
1044	-0.001
1045	-0.002
1045	-0.002
1046	-0.003
1046	-0.004
1046	-0.005
1047	-0.005
1047	-0.005
1048	-0.005
1048	-0.006
1049	-0.006
1049	-0.007
1049	-0.007
1050	-0.008
1050	-0.009
1051	-0.01
1051	-0.01
1051	-0.011
1052	-0.012
1052	-0.013
1053	-0.013
1053	-0.014
1053	-0.014
1054	-0.014
1054	-0.014
1055	-0.013
1055	-0.013
1056	-0.013
1056	-0.013
1056	-0.014
1057	-0.014
1057	-0.014
1058	-0.014
1058	-0.015
1058	-0.015
1059	-0.015
1059	-0.015
1060	-0.016
1060	-0.015
1061	-0.015
1061	-0.015
1061	-0.014
1062	-0.014
1062	-0.014
1063	-0.013
1063	-0.014
1063	-0.014
1064	-0.014
1064	-0.014
1065	-0.014
1065	-0.015
1066	-0.015
1066	-0.016
1066	-0.017
1067	-0.017
1067	-0.018
1068	-0.018
1068	-0.019
1068	-0.019
1069	-0.02
1069	-0.021
1070	-0.021
1070	-0.022
1071	-0.022
1071	-0.022
1071	-0.022
1072	-0.022
1072	-0.022
1073	-0.021
1073	-0.021
1073	-0.02
1074	-0.019
1074	-0.019
1075	-0.019
1075	-0.019
1076	-0.02
1076	-0.02
1076	-0.021
1077	-0.022
1077	-0.023
1078	-0.025
1078	-0.026
1078	-0.027
1079	-0.028
1079	-0.028
1080	-0.029
1080	-0.03
1080	-0.031
1081	-0.032
1081	-0.032
1082	-0.032
1082	-0.032
1083	-0.033
1083	-0.034
1083	-0.035
1084	-0.036
1084	-0.036
1085	-0.036
1085	-0.037
1085	-0.037
1086	-0.038
1086	-0.039
1087	-0.04
1087	-0.04
1088	-0.041
1088	-0.042
1088	-0.042
1089	-0.044
1089	-0.044
1090	-0.045
1090	-0.046
1090	-0.048
1091	-0.05
1091	-0.05
1092	-0.05
1092	-0.051
1092	-0.052
1093	-0.053
1093	-0.054
1094	-0.054
1094	-0.055
1095	-0.057
1095	-0.058
1095	-0.058
1096	-0.06
1096	-0.062
1097	-0.063
1097	-0.064
1097	-0.066
1098	-0.068
1098	-0.07
1099	-0.071
1099	-0.072
1100	-0.074
1100	-0.076
1100	-0.079
1101	-0.081
1101	-0.084
1102	-0.086
1102	-0.089
1102	-0.09
1103	-0.092
1103	-0.095
1104	-0.099
1104	-0.101
1104	-0.103
1105	-0.105
1105	-0.108
1106	-0.112
1106	-0.115
1107	-0.121
1107	-0.125
1107	-0.129
1108	-0.131
1108	-0.132
1109	-0.135
1109	-0.14
1109	-0.145
1110	-0.146
1110	-0.151
1111	-0.16
1111	-0.156
