Data from 3.4A_17C_Absorbance__735__01692.txt Node

Date: Tue Jun 20 16:04:39 CEST 2023
User: Marek
Spectrometer: MAYP115816
Trigger mode: 0
Integration Time (sec): 2.200000E-1
Scans to average: 10
Electric dark correction enabled: true
Nonlinearity correction enabled: true
Boxcar width: 5
XAxis mode: Wavelengths
Number of Pixels in Spectrum: 2068
>>>>>Begin Spectral Data<<<<<
199	-0.767
199	-0.752
200	-0.716
200	-0.662
201	-0.633
201	-0.624
202	-0.606
202	-0.603
203	-0.605
203	-0.598
204	-0.577
204	-0.56
205	-0.539
205	-0.529
205	-0.539
206	-0.539
206	-0.535
207	-0.528
207	-0.534
208	-0.533
208	-0.537
209	-0.54
209	-0.547
210	-0.558
210	-0.565
211	-0.558
211	-0.565
212	-0.575
212	-0.583
213	-0.578
213	-0.573
213	-0.57
214	-0.577
214	-0.58
215	-0.577
215	-0.582
216	-0.59
216	-0.594
217	-0.591
217	-0.591
218	-0.598
218	-0.601
219	-0.608
219	-0.61
220	-0.612
220	-0.619
221	-0.619
221	-0.621
221	-0.611
222	-0.611
222	-0.609
223	-0.606
223	-0.608
224	-0.61
224	-0.607
225	-0.606
225	-0.608
226	-0.608
226	-0.608
227	-0.618
227	-0.628
228	-0.633
228	-0.641
229	-0.644
229	-0.642
229	-0.644
230	-0.637
230	-0.635
231	-0.633
231	-0.627
232	-0.629
232	-0.624
233	-0.623
233	-0.612
234	-0.614
234	-0.607
235	-0.61
235	-0.625
236	-0.63
236	-0.632
236	-0.632
237	-0.632
237	-0.633
238	-0.633
238	-0.633
239	-0.634
239	-0.644
240	-0.637
240	-0.63
241	-0.626
241	-0.628
242	-0.631
242	-0.638
243	-0.638
243	-0.641
243	-0.646
244	-0.643
244	-0.644
245	-0.646
245	-0.652
246	-0.663
246	-0.666
247	-0.675
247	-0.66
248	-0.658
248	-0.661
249	-0.668
249	-0.672
250	-0.671
250	-0.682
250	-0.678
251	-0.68
251	-0.675
252	-0.675
252	-0.688
253	-0.683
253	-0.694
254	-0.698
254	-0.697
255	-0.706
255	-0.704
256	-0.707
256	-0.718
257	-0.727
257	-0.723
258	-0.723
258	-0.733
258	-0.731
259	-0.724
259	-0.742
260	-0.742
260	-0.731
261	-0.741
261	-0.726
262	-0.733
262	-0.734
263	-0.726
263	-0.731
264	-0.74
264	-0.743
265	-0.733
265	-0.735
265	-0.746
266	-0.736
266	-0.737
267	-0.736
267	-0.752
268	-0.759
268	-0.752
269	-0.745
269	-0.759
270	-0.765
270	-0.766
271	-0.778
271	-0.789
272	-0.791
272	-0.795
272	-0.788
273	-0.797
273	-0.813
274	-0.805
274	-0.798
275	-0.795
275	-0.78
276	-0.784
276	-0.789
277	-0.791
277	-0.788
278	-0.792
278	-0.793
278	-0.782
279	-0.79
279	-0.804
280	-0.805
280	-0.818
281	-0.812
281	-0.803
282	-0.81
282	-0.804
283	-0.797
283	-0.811
284	-0.824
284	-0.832
285	-0.811
285	-0.818
285	-0.81
286	-0.815
286	-0.83
287	-0.827
287	-0.826
288	-0.826
288	-0.807
289	-0.805
289	-0.814
290	-0.823
290	-0.812
291	-0.816
291	-0.815
292	-0.796
292	-0.792
292	-0.794
293	-0.783
293	-0.778
294	-0.779
294	-0.765
295	-0.748
295	-0.76
296	-0.771
296	-0.766
297	-0.754
297	-0.757
298	-0.754
298	-0.771
298	-0.774
299	-0.756
299	-0.749
300	-0.746
300	-0.728
301	-0.709
301	-0.711
302	-0.723
302	-0.71
303	-0.703
303	-0.69
304	-0.674
304	-0.677
305	-0.669
305	-0.679
305	-0.695
306	-0.68
306	-0.679
307	-0.668
307	-0.678
308	-0.682
308	-0.679
309	-0.683
309	-0.679
310	-0.677
310	-0.671
311	-0.656
311	-0.675
311	-0.662
312	-0.661
312	-0.651
313	-0.642
313	-0.644
314	-0.647
314	-0.644
315	-0.642
315	-0.635
316	-0.628
316	-0.617
317	-0.611
317	-0.608
318	-0.598
318	-0.596
318	-0.584
319	-0.573
319	-0.565
320	-0.561
320	-0.559
321	-0.555
321	-0.556
322	-0.552
322	-0.544
323	-0.547
323	-0.538
324	-0.537
324	-0.526
324	-0.516
325	-0.501
325	-0.484
326	-0.476
326	-0.451
327	-0.436
327	-0.413
328	-0.382
328	-0.358
329	-0.331
329	-0.305
330	-0.279
330	-0.246
330	-0.212
331	-0.176
331	-0.145
332	-0.112
332	-0.083
333	-0.053
333	-0.022
334	0.004
334	0.027
335	0.052
335	0.072
336	0.092
336	0.111
336	0.126
337	0.142
337	0.158
338	0.17
338	0.179
339	0.192
339	0.201
340	0.209
340	0.216
341	0.222
341	0.227
342	0.233
342	0.238
342	0.242
343	0.245
343	0.25
344	0.252
344	0.254
345	0.257
345	0.26
346	0.261
346	0.263
347	0.264
347	0.266
348	0.267
348	0.268
348	0.269
349	0.27
349	0.271
350	0.271
350	0.272
351	0.272
351	0.272
352	0.272
352	0.273
353	0.273
353	0.273
354	0.273
354	0.273
354	0.273
355	0.273
355	0.273
356	0.273
356	0.273
357	0.273
357	0.273
358	0.273
358	0.273
359	0.273
359	0.273
360	0.273
360	0.273
360	0.273
361	0.273
361	0.273
362	0.273
362	0.273
363	0.273
363	0.273
364	0.273
364	0.273
365	0.273
365	0.273
366	0.273
366	0.273
366	0.273
367	0.273
367	0.273
368	0.273
368	0.273
369	0.273
369	0.273
370	0.272
370	0.272
371	0.272
371	0.272
372	0.271
372	0.271
372	0.271
373	0.271
373	0.271
374	0.271
374	0.271
375	0.271
375	0.27
376	0.27
376	0.27
377	0.27
377	0.27
378	0.269
378	0.269
378	0.269
379	0.269
379	0.269
380	0.269
380	0.269
381	0.268
381	0.268
382	0.268
382	0.268
383	0.268
383	0.267
383	0.267
384	0.267
384	0.266
385	0.266
385	0.266
386	0.266
386	0.266
387	0.265
387	0.265
388	0.265
388	0.265
389	0.265
389	0.265
389	0.265
390	0.265
390	0.265
391	0.264
391	0.264
392	0.264
392	0.264
393	0.264
393	0.263
394	0.263
394	0.263
394	0.263
395	0.263
395	0.262
396	0.262
396	0.262
397	0.262
397	0.262
398	0.262
398	0.261
399	0.261
399	0.261
400	0.261
400	0.261
400	0.261
401	0.26
401	0.26
402	0.26
402	0.26
403	0.26
403	0.259
404	0.259
404	0.259
405	0.259
405	0.258
405	0.258
406	0.258
406	0.258
407	0.258
407	0.257
408	0.257
408	0.257
409	0.257
409	0.257
410	0.257
410	0.256
411	0.256
411	0.256
411	0.256
412	0.256
412	0.256
413	0.255
413	0.255
414	0.255
414	0.255
415	0.255
415	0.255
416	0.254
416	0.254
416	0.254
417	0.254
417	0.254
418	0.254
418	0.253
419	0.253
419	0.253
420	0.253
420	0.253
421	0.253
421	0.253
421	0.253
422	0.253
422	0.254
423	0.253
423	0.253
424	0.253
424	0.253
425	0.253
425	0.253
426	0.253
426	0.253
427	0.253
427	0.253
427	0.253
428	0.253
428	0.252
429	0.252
429	0.251
430	0.251
430	0.251
431	0.251
431	0.25
432	0.25
432	0.25
432	0.249
433	0.249
433	0.249
434	0.249
434	0.25
435	0.25
435	0.25
436	0.25
436	0.25
437	0.25
437	0.249
437	0.249
438	0.249
438	0.249
439	0.249
439	0.249
440	0.249
440	0.249
441	0.249
441	0.249
442	0.249
442	0.249
442	0.249
443	0.249
443	0.249
444	0.249
444	0.249
445	0.249
445	0.249
446	0.249
446	0.249
447	0.249
447	0.249
447	0.249
448	0.249
448	0.248
449	0.248
449	0.248
450	0.248
450	0.248
451	0.248
451	0.248
452	0.248
452	0.248
452	0.249
453	0.249
453	0.249
454	0.249
454	0.249
455	0.249
455	0.249
456	0.249
456	0.249
457	0.249
457	0.249
458	0.249
458	0.248
458	0.248
459	0.248
459	0.248
460	0.247
460	0.247
461	0.248
461	0.248
462	0.248
462	0.249
463	0.249
463	0.25
463	0.251
464	0.251
464	0.252
465	0.252
465	0.253
466	0.253
466	0.253
467	0.254
467	0.254
467	0.253
468	0.253
468	0.253
469	0.253
469	0.253
470	0.253
470	0.253
471	0.253
471	0.253
472	0.253
472	0.254
472	0.254
473	0.255
473	0.255
474	0.255
474	0.256
475	0.256
475	0.257
476	0.257
476	0.258
477	0.259
477	0.259
477	0.26
478	0.261
478	0.261
479	0.262
479	0.262
480	0.263
480	0.264
481	0.264
481	0.265
482	0.265
482	0.266
482	0.267
483	0.268
483	0.269
484	0.27
484	0.27
485	0.271
485	0.272
486	0.273
486	0.274
487	0.274
487	0.275
487	0.276
488	0.277
488	0.277
489	0.278
489	0.28
490	0.281
490	0.282
491	0.283
491	0.284
492	0.285
492	0.286
492	0.287
493	0.288
493	0.289
494	0.291
494	0.292
495	0.293
495	0.295
496	0.296
496	0.298
496	0.299
497	0.301
497	0.302
498	0.304
498	0.305
499	0.307
499	0.308
500	0.311
500	0.312
501	0.314
501	0.315
501	0.317
502	0.318
502	0.32
503	0.322
503	0.323
504	0.325
504	0.327
505	0.329
505	0.331
506	0.333
506	0.335
506	0.337
507	0.339
507	0.341
508	0.343
508	0.346
509	0.348
509	0.349
510	0.352
510	0.354
511	0.355
511	0.357
511	0.359
512	0.361
512	0.362
513	0.363
513	0.365
514	0.367
514	0.369
515	0.37
515	0.372
515	0.373
516	0.375
516	0.377
517	0.379
517	0.38
518	0.381
518	0.382
519	0.384
519	0.385
520	0.386
520	0.388
520	0.389
521	0.389
521	0.39
522	0.391
522	0.392
523	0.393
523	0.393
524	0.394
524	0.394
524	0.395
525	0.396
525	0.396
526	0.397
526	0.398
527	0.398
527	0.399
528	0.399
528	0.399
529	0.399
529	0.399
529	0.399
530	0.398
530	0.398
531	0.398
531	0.398
532	0.397
532	0.397
533	0.397
533	0.396
533	0.395
534	0.395
534	0.394
535	0.394
535	0.393
536	0.392
536	0.392
537	0.391
537	0.39
538	0.389
538	0.388
538	0.388
539	0.387
539	0.386
540	0.385
540	0.383
541	0.382
541	0.38
542	0.379
542	0.377
542	0.376
543	0.374
543	0.373
544	0.371
544	0.37
545	0.369
545	0.367
546	0.366
546	0.364
547	0.362
547	0.36
547	0.358
548	0.357
548	0.355
549	0.354
549	0.352
550	0.35
550	0.348
551	0.346
551	0.344
551	0.343
552	0.341
552	0.339
553	0.337
553	0.336
554	0.334
554	0.332
555	0.33
555	0.328
556	0.326
556	0.325
556	0.323
557	0.321
557	0.32
558	0.318
558	0.316
559	0.315
559	0.313
560	0.312
560	0.31
560	0.309
561	0.307
561	0.306
562	0.304
562	0.303
563	0.301
563	0.3
564	0.298
564	0.297
564	0.296
565	0.295
565	0.294
566	0.292
566	0.291
567	0.29
567	0.289
568	0.288
568	0.286
568	0.285
569	0.283
569	0.281
570	0.279
570	0.276
571	0.275
571	0.274
572	0.273
572	0.271
573	0.27
573	0.268
573	0.266
574	0.266
574	0.265
575	0.265
575	0.265
576	0.265
576	0.262
577	0.261
577	0.26
577	0.259
578	0.259
578	0.259
579	0.259
579	0.259
580	0.257
580	0.255
581	0.253
581	0.252
581	0.252
582	0.252
582	0.252
583	0.251
583	0.25
584	0.247
584	0.245
585	0.245
585	0.246
585	0.245
586	0.244
586	0.243
587	0.241
587	0.239
588	0.238
588	0.237
589	0.237
589	0.236
590	0.236
590	0.235
590	0.236
591	0.236
591	0.235
592	0.235
592	0.234
593	0.234
593	0.233
594	0.232
594	0.232
594	0.231
595	0.23
595	0.229
596	0.227
596	0.228
597	0.229
597	0.229
598	0.229
598	0.229
598	0.229
599	0.229
599	0.228
600	0.228
600	0.228
601	0.228
601	0.228
602	0.227
602	0.227
602	0.226
603	0.226
603	0.227
604	0.227
604	0.227
605	0.227
605	0.227
606	0.226
606	0.225
606	0.224
607	0.223
607	0.223
608	0.222
608	0.22
609	0.219
609	0.219
610	0.218
610	0.218
610	0.218
611	0.218
611	0.218
612	0.218
612	0.218
613	0.218
613	0.218
614	0.217
614	0.216
614	0.216
615	0.215
615	0.214
616	0.214
616	0.213
617	0.213
617	0.212
618	0.212
618	0.211
618	0.211
619	0.211
619	0.211
620	0.212
620	0.211
621	0.21
621	0.21
622	0.209
622	0.208
622	0.207
623	0.206
623	0.206
624	0.206
624	0.204
625	0.203
625	0.203
626	0.201
626	0.201
626	0.201
627	0.2
627	0.199
628	0.199
628	0.198
629	0.197
629	0.196
630	0.195
630	0.193
630	0.192
631	0.191
631	0.189
632	0.187
632	0.186
633	0.184
633	0.182
634	0.181
634	0.18
634	0.178
635	0.177
635	0.175
636	0.173
636	0.171
637	0.169
637	0.166
638	0.164
638	0.161
638	0.159
639	0.155
639	0.152
640	0.148
640	0.145
641	0.141
641	0.138
642	0.134
642	0.131
642	0.127
643	0.123
643	0.118
644	0.114
644	0.11
645	0.105
645	0.101
646	0.096
646	0.091
646	0.085
647	0.079
647	0.073
648	0.067
648	0.06
649	0.053
649	0.047
650	0.04
650	0.033
650	0.025
651	0.016
651	0.005
652	-0.008
652	-0.022
653	-0.034
653	-0.045
653	-0.042
654	-0.023
654	-0.018
655	-0.024
655	-0.029
656	-0.035
656	-0.043
657	-0.049
657	-0.053
657	-0.061
658	-0.068
658	-0.1
659	-0.186
659	-0.277
660	-0.318
660	-0.346
661	-0.374
661	-0.404
661	-0.435
662	-0.466
662	-0.498
663	-0.535
663	-0.574
664	-0.612
664	-0.654
665	-0.702
665	-0.75
665	-0.796
666	-0.849
666	-0.905
667	-0.962
667	-1.026
668	-1.086
668	-1.157
669	-1.226
669	-1.301
669	-1.38
670	-1.463
670	-1.575
671	-1.753
671	-2.116
672	-2.341
672	-2.495
672	-2.611
673	-2.704
673	-2.782
674	-2.855
674	-2.873
675	-2.89
675	-2.894
676	-2.89
676	-2.837
676	-2.772
677	-2.693
677	-2.601
678	-2.466
678	-2.258
679	-1.847
679	-1.652
680	-1.541
680	-1.461
680	-1.39
681	-1.338
681	-1.282
682	-1.236
682	-1.191
683	-1.145
683	-1.119
684	-1.089
684	-1.068
684	-1.043
685	-1.021
685	-1.009
686	-0.983
686	-0.969
687	-0.959
687	-0.945
687	-0.944
688	-0.927
688	-0.918
689	-0.919
689	-0.915
690	-0.9
690	-0.889
691	-0.888
691	-0.889
691	-0.887
692	-0.886
692	-0.879
693	-0.886
693	-0.895
694	-0.877
694	-0.874
695	-0.878
695	-0.872
695	-0.876
696	-0.883
696	-0.877
697	-0.872
697	-0.869
698	-0.863
698	-0.856
698	-0.869
699	-0.867
699	-0.865
700	-0.885
700	-0.879
701	-0.865
701	-0.859
702	-0.859
702	-0.858
702	-0.857
703	-0.848
703	-0.836
704	-0.843
704	-0.847
705	-0.835
705	-0.835
705	-0.829
706	-0.823
706	-0.818
707	-0.829
707	-0.834
708	-0.829
708	-0.826
709	-0.828
709	-0.824
709	-0.819
710	-0.826
710	-0.829
711	-0.828
711	-0.829
712	-0.819
712	-0.816
713	-0.823
713	-0.825
713	-0.804
714	-0.807
714	-0.811
715	-0.803
715	-0.811
716	-0.826
716	-0.835
716	-0.836
717	-0.841
717	-0.831
718	-0.824
718	-0.826
719	-0.822
719	-0.816
720	-0.81
720	-0.804
720	-0.799
721	-0.79
721	-0.793
722	-0.791
722	-0.788
723	-0.806
723	-0.819
723	-0.827
724	-0.825
724	-0.83
725	-0.825
725	-0.83
726	-0.835
726	-0.824
727	-0.826
727	-0.834
727	-0.824
728	-0.809
728	-0.804
729	-0.807
729	-0.809
730	-0.813
730	-0.804
730	-0.808
731	-0.813
731	-0.813
732	-0.813
732	-0.808
733	-0.823
733	-0.83
734	-0.837
734	-0.83
734	-0.813
735	-0.802
735	-0.796
736	-0.796
736	-0.79
737	-0.79
737	-0.781
737	-0.774
738	-0.76
738	-0.751
739	-0.753
739	-0.753
740	-0.767
740	-0.77
741	-0.78
741	-0.79
741	-0.8
742	-0.806
742	-0.819
743	-0.826
743	-0.825
744	-0.828
744	-0.836
744	-0.829
745	-0.837
745	-0.825
746	-0.821
746	-0.812
747	-0.815
747	-0.807
748	-0.809
748	-0.813
748	-0.814
749	-0.807
749	-0.813
750	-0.803
750	-0.803
751	-0.802
751	-0.799
751	-0.811
752	-0.814
752	-0.818
753	-0.821
753	-0.814
754	-0.832
754	-0.832
754	-0.838
755	-0.838
755	-0.829
756	-0.832
756	-0.819
757	-0.812
757	-0.799
758	-0.8
758	-0.799
758	-0.794
759	-0.801
759	-0.801
760	-0.801
760	-0.803
761	-0.797
761	-0.801
761	-0.8
762	-0.807
762	-0.806
763	-0.807
763	-0.812
764	-0.809
764	-0.805
764	-0.807
765	-0.806
765	-0.813
766	-0.815
766	-0.818
767	-0.833
767	-0.828
768	-0.827
768	-0.819
768	-0.814
769	-0.818
769	-0.829
770	-0.839
770	-0.843
771	-0.839
771	-0.837
771	-0.843
772	-0.846
772	-0.867
773	-0.869
773	-0.87
774	-0.869
774	-0.851
775	-0.838
775	-0.838
775	-0.842
776	-0.852
776	-0.848
777	-0.849
777	-0.832
778	-0.84
778	-0.848
778	-0.846
779	-0.856
779	-0.873
780	-0.868
780	-0.877
781	-0.867
781	-0.856
781	-0.87
782	-0.891
782	-0.892
783	-0.891
783	-0.899
784	-0.902
784	-0.895
784	-0.914
785	-0.907
785	-0.92
786	-0.925
786	-0.916
787	-0.904
787	-0.913
788	-0.907
788	-0.902
788	-0.903
789	-0.903
789	-0.893
790	-0.892
790	-0.875
791	-0.881
791	-0.878
791	-0.874
792	-0.868
792	-0.871
793	-0.872
793	-0.859
794	-0.851
794	-0.843
794	-0.851
795	-0.869
795	-0.856
796	-0.861
796	-0.858
797	-0.85
797	-0.842
797	-0.835
798	-0.857
798	-0.863
799	-0.863
799	-0.848
800	-0.845
800	-0.853
801	-0.851
801	-0.854
801	-0.85
802	-0.849
802	-0.849
803	-0.844
803	-0.836
804	-0.841
804	-0.848
804	-0.831
805	-0.814
805	-0.804
806	-0.806
806	-0.803
807	-0.806
807	-0.808
807	-0.79
808	-0.786
808	-0.78
809	-0.776
809	-0.777
810	-0.778
810	-0.774
810	-0.768
811	-0.771
811	-0.76
812	-0.753
812	-0.754
813	-0.758
813	-0.759
813	-0.755
814	-0.755
814	-0.76
815	-0.752
815	-0.75
816	-0.745
816	-0.763
817	-0.774
817	-0.777
817	-0.785
818	-0.778
818	-0.775
819	-0.786
819	-0.784
820	-0.796
820	-0.796
820	-0.794
821	-0.789
821	-0.786
822	-0.786
822	-0.774
823	-0.785
823	-0.785
823	-0.779
824	-0.779
824	-0.789
825	-0.787
825	-0.786
826	-0.782
826	-0.776
826	-0.775
827	-0.775
827	-0.765
828	-0.766
828	-0.759
829	-0.751
829	-0.734
829	-0.731
830	-0.729
830	-0.714
831	-0.708
831	-0.699
832	-0.688
832	-0.682
832	-0.674
833	-0.675
833	-0.68
834	-0.676
834	-0.671
835	-0.664
835	-0.664
835	-0.66
836	-0.654
836	-0.653
837	-0.644
837	-0.634
838	-0.621
838	-0.605
839	-0.598
839	-0.586
839	-0.574
840	-0.573
840	-0.562
841	-0.552
841	-0.543
842	-0.534
842	-0.521
842	-0.519
843	-0.515
843	-0.511
844	-0.507
844	-0.496
845	-0.482
845	-0.472
845	-0.461
846	-0.45
846	-0.438
847	-0.427
847	-0.414
848	-0.398
848	-0.38
848	-0.367
849	-0.353
849	-0.341
850	-0.33
850	-0.319
851	-0.306
851	-0.291
851	-0.281
852	-0.266
852	-0.253
853	-0.244
853	-0.235
854	-0.223
854	-0.213
854	-0.201
855	-0.189
855	-0.18
856	-0.171
856	-0.162
857	-0.154
857	-0.146
857	-0.132
858	-0.12
858	-0.113
859	-0.101
859	-0.089
860	-0.079
860	-0.064
860	-0.054
861	-0.043
861	-0.032
862	-0.024
862	-0.016
863	-0.007
863	0.002
863	0.008
864	0.013
864	0.02
865	0.026
865	0.031
866	0.037
866	0.042
866	0.048
867	0.054
867	0.059
868	0.063
868	0.068
869	0.073
869	0.076
869	0.079
870	0.081
870	0.082
871	0.083
871	0.084
872	0.085
872	0.085
872	0.087
873	0.087
873	0.087
874	0.087
874	0.086
875	0.086
875	0.086
875	0.086
876	0.087
876	0.087
877	0.086
877	0.086
878	0.085
878	0.085
878	0.085
879	0.084
879	0.083
880	0.083
880	0.081
881	0.08
881	0.078
881	0.078
882	0.076
882	0.075
883	0.074
883	0.073
884	0.073
884	0.072
884	0.072
885	0.072
885	0.072
886	0.072
886	0.072
887	0.072
887	0.071
887	0.071
888	0.071
888	0.071
889	0.07
889	0.07
890	0.07
890	0.069
890	0.069
891	0.069
891	0.068
892	0.069
892	0.069
893	0.069
893	0.069
893	0.069
894	0.07
894	0.07
895	0.069
895	0.07
895	0.07
896	0.07
896	0.071
897	0.071
897	0.071
898	0.072
898	0.072
898	0.072
899	0.072
899	0.073
900	0.073
900	0.072
901	0.072
901	0.071
901	0.071
902	0.071
902	0.071
903	0.072
903	0.071
904	0.071
904	0.072
904	0.072
905	0.072
905	0.073
906	0.073
906	0.074
907	0.074
907	0.074
907	0.074
908	0.075
908	0.075
909	0.075
909	0.075
910	0.075
910	0.075
910	0.075
911	0.076
911	0.076
912	0.077
912	0.079
913	0.08
913	0.081
913	0.082
914	0.083
914	0.083
915	0.084
915	0.084
916	0.084
916	0.084
916	0.084
917	0.083
917	0.083
918	0.082
918	0.082
918	0.081
919	0.081
919	0.081
920	0.08
920	0.08
921	0.08
921	0.08
921	0.08
922	0.08
922	0.08
923	0.08
923	0.079
924	0.079
924	0.079
924	0.079
925	0.078
925	0.078
926	0.077
926	0.076
927	0.075
927	0.075
927	0.074
928	0.074
928	0.073
929	0.073
929	0.073
930	0.073
930	0.073
930	0.074
931	0.074
931	0.075
932	0.076
932	0.076
933	0.077
933	0.077
933	0.077
934	0.076
934	0.076
935	0.075
935	0.074
935	0.072
936	0.071
936	0.069
937	0.068
937	0.066
938	0.065
938	0.064
938	0.063
939	0.062
939	0.061
940	0.061
940	0.06
941	0.059
941	0.059
941	0.059
942	0.058
942	0.058
943	0.058
943	0.057
944	0.056
944	0.055
944	0.055
945	0.055
945	0.055
946	0.055
946	0.054
946	0.054
947	0.054
947	0.053
948	0.054
948	0.055
949	0.055
949	0.056
949	0.057
950	0.058
950	0.058
951	0.06
951	0.06
952	0.061
952	0.062
952	0.063
953	0.063
953	0.064
954	0.064
954	0.064
955	0.064
955	0.064
955	0.063
956	0.062
956	0.062
957	0.06
957	0.06
957	0.059
958	0.059
958	0.058
959	0.058
959	0.058
960	0.058
960	0.058
960	0.059
961	0.059
961	0.06
962	0.061
962	0.061
963	0.062
963	0.063
963	0.064
964	0.064
964	0.065
965	0.066
965	0.066
966	0.067
966	0.067
966	0.068
967	0.067
967	0.067
968	0.066
968	0.065
968	0.065
969	0.065
969	0.065
970	0.065
970	0.064
971	0.065
971	0.065
971	0.065
972	0.066
972	0.067
973	0.068
973	0.068
974	0.068
974	0.068
974	0.068
975	0.068
975	0.068
976	0.068
976	0.068
976	0.067
977	0.067
977	0.065
978	0.064
978	0.063
979	0.062
979	0.06
979	0.059
980	0.058
980	0.057
981	0.056
981	0.056
982	0.055
982	0.055
982	0.055
983	0.055
983	0.055
984	0.055
984	0.055
984	0.055
985	0.055
985	0.054
986	0.053
986	0.052
987	0.051
987	0.05
987	0.049
988	0.048
988	0.047
989	0.046
989	0.046
990	0.045
990	0.044
990	0.045
991	0.045
991	0.045
992	0.046
992	0.046
992	0.046
993	0.047
993	0.047
994	0.046
994	0.046
995	0.046
995	0.045
995	0.044
996	0.043
996	0.042
997	0.041
997	0.04
997	0.04
998	0.039
998	0.039
999	0.039
999	0.039
1000	0.039
1000	0.039
1000	0.04
1001	0.04
1001	0.041
1002	0.041
1002	0.041
1003	0.041
1003	0.04
1003	0.039
1004	0.039
1004	0.038
1005	0.037
1005	0.036
1005	0.034
1006	0.033
1006	0.032
1007	0.03
1007	0.029
1008	0.028
1008	0.027
1008	0.027
1009	0.026
1009	0.026
1010	0.026
1010	0.026
1010	0.027
1011	0.027
1011	0.028
1012	0.029
1012	0.03
1013	0.031
1013	0.032
1013	0.033
1014	0.034
1014	0.035
1015	0.036
1015	0.037
1016	0.038
1016	0.038
1016	0.038
1017	0.038
1017	0.038
1018	0.038
1018	0.037
1018	0.037
1019	0.037
1019	0.036
1020	0.036
1020	0.035
1021	0.034
1021	0.034
1021	0.033
1022	0.033
1022	0.032
1023	0.033
1023	0.032
1023	0.032
1024	0.032
1024	0.032
1025	0.032
1025	0.033
1026	0.033
1026	0.033
1026	0.033
1027	0.033
1027	0.033
1028	0.033
1028	0.033
1028	0.033
1029	0.033
1029	0.033
1030	0.032
1030	0.031
1031	0.031
1031	0.032
1031	0.031
1032	0.031
1032	0.031
1033	0.03
1033	0.03
1033	0.03
1034	0.029
1034	0.029
1035	0.029
1035	0.028
1036	0.028
1036	0.028
1036	0.028
1037	0.028
1037	0.029
1038	0.029
1038	0.03
1039	0.031
1039	0.032
1039	0.033
1040	0.034
1040	0.035
1041	0.035
1041	0.035
1041	0.035
1042	0.035
1042	0.035
1043	0.034
1043	0.034
1044	0.033
1044	0.032
1044	0.032
1045	0.031
1045	0.031
1046	0.03
1046	0.03
1046	0.03
1047	0.03
1047	0.03
1048	0.03
1048	0.03
1049	0.03
1049	0.029
1049	0.029
1050	0.029
1050	0.028
1051	0.027
1051	0.026
1051	0.026
1052	0.025
1052	0.024
1053	0.023
1053	0.022
1053	0.021
1054	0.021
1054	0.02
1055	0.02
1055	0.02
1056	0.019
1056	0.019
1056	0.019
1057	0.019
1057	0.018
1058	0.018
1058	0.017
1058	0.017
1059	0.017
1059	0.016
1060	0.016
1060	0.016
1061	0.015
1061	0.015
1061	0.015
1062	0.014
1062	0.014
1063	0.014
1063	0.013
1063	0.013
1064	0.013
1064	0.013
1065	0.013
1065	0.012
1066	0.012
1066	0.011
1066	0.011
1067	0.011
1067	0.01
1068	0.01
1068	0.009
1068	0.009
1069	0.008
1069	0.008
1070	0.007
1070	0.007
1071	0.006
1071	0.006
1071	0.006
1072	0.006
1072	0.006
1073	0.007
1073	0.007
1073	0.006
1074	0.007
1074	0.007
1075	0.006
1075	0.006
1076	0.005
1076	0.005
1076	0.004
1077	0.003
1077	0.002
1078	0
1078	-0.001
1078	-0.002
1079	-0.003
1079	-0.004
1080	-0.005
1080	-0.006
1080	-0.007
1081	-0.008
1081	-0.009
1082	-0.009
1082	-0.01
1083	-0.011
1083	-0.012
1083	-0.013
1084	-0.015
1084	-0.016
1085	-0.018
1085	-0.019
1085	-0.02
1086	-0.021
1086	-0.022
1087	-0.023
1087	-0.023
1088	-0.024
1088	-0.025
1088	-0.024
1089	-0.026
1089	-0.026
1090	-0.027
1090	-0.027
1090	-0.029
1091	-0.03
1091	-0.03
1092	-0.031
1092	-0.031
1092	-0.032
1093	-0.033
1093	-0.032
1094	-0.033
1094	-0.033
1095	-0.035
1095	-0.035
1095	-0.035
1096	-0.036
1096	-0.038
1097	-0.039
1097	-0.04
1097	-0.042
1098	-0.044
1098	-0.047
1099	-0.048
1099	-0.05
1100	-0.052
1100	-0.055
1100	-0.058
1101	-0.06
1101	-0.063
1102	-0.065
1102	-0.067
1102	-0.07
1103	-0.073
1103	-0.076
1104	-0.079
1104	-0.082
1104	-0.085
1105	-0.087
1105	-0.091
1106	-0.095
1106	-0.098
1107	-0.103
1107	-0.107
1107	-0.111
1108	-0.114
1108	-0.116
1109	-0.119
1109	-0.123
1109	-0.126
1110	-0.127
1110	-0.132
1111	-0.14
1111	-0.139
