Data from 3.4A_17C_Absorbance__373__01330.txt Node

Date: Tue Jun 20 15:51:22 CEST 2023
User: Marek
Spectrometer: MAYP115816
Trigger mode: 0
Integration Time (sec): 2.200000E-1
Scans to average: 10
Electric dark correction enabled: true
Nonlinearity correction enabled: true
Boxcar width: 5
XAxis mode: Wavelengths
Number of Pixels in Spectrum: 2068
>>>>>Begin Spectral Data<<<<<
199	-0.773
199	-0.753
200	-0.712
200	-0.657
201	-0.626
201	-0.616
202	-0.598
202	-0.59
203	-0.589
203	-0.582
204	-0.563
204	-0.545
205	-0.522
205	-0.514
205	-0.523
206	-0.526
206	-0.521
207	-0.514
207	-0.521
208	-0.523
208	-0.527
209	-0.528
209	-0.534
210	-0.547
210	-0.552
211	-0.546
211	-0.549
212	-0.559
212	-0.566
213	-0.563
213	-0.558
213	-0.555
214	-0.56
214	-0.563
215	-0.56
215	-0.567
216	-0.575
216	-0.582
217	-0.581
217	-0.582
218	-0.589
218	-0.592
219	-0.6
219	-0.603
220	-0.606
220	-0.612
221	-0.612
221	-0.613
221	-0.603
222	-0.601
222	-0.6
223	-0.596
223	-0.596
224	-0.596
224	-0.593
225	-0.592
225	-0.594
226	-0.595
226	-0.594
227	-0.601
227	-0.609
228	-0.613
228	-0.622
229	-0.627
229	-0.624
229	-0.625
230	-0.62
230	-0.618
231	-0.614
231	-0.609
232	-0.612
232	-0.608
233	-0.608
233	-0.597
234	-0.598
234	-0.594
235	-0.596
235	-0.607
236	-0.614
236	-0.614
236	-0.612
237	-0.612
237	-0.613
238	-0.613
238	-0.614
239	-0.616
239	-0.625
240	-0.619
240	-0.616
241	-0.61
241	-0.614
242	-0.619
242	-0.627
243	-0.628
243	-0.63
243	-0.634
244	-0.631
244	-0.633
245	-0.635
245	-0.64
246	-0.649
246	-0.653
247	-0.66
247	-0.646
248	-0.643
248	-0.646
249	-0.65
249	-0.652
250	-0.651
250	-0.66
250	-0.656
251	-0.656
251	-0.65
252	-0.652
252	-0.664
253	-0.661
253	-0.672
254	-0.678
254	-0.678
255	-0.687
255	-0.687
256	-0.692
256	-0.704
257	-0.717
257	-0.714
258	-0.714
258	-0.722
258	-0.721
259	-0.713
259	-0.729
260	-0.731
260	-0.721
261	-0.73
261	-0.715
262	-0.718
262	-0.716
263	-0.707
263	-0.712
264	-0.721
264	-0.722
265	-0.714
265	-0.716
265	-0.724
266	-0.716
266	-0.718
267	-0.716
267	-0.733
268	-0.742
268	-0.735
269	-0.728
269	-0.743
270	-0.747
270	-0.744
271	-0.757
271	-0.765
272	-0.767
272	-0.772
272	-0.766
273	-0.775
273	-0.791
274	-0.783
274	-0.778
275	-0.774
275	-0.763
276	-0.767
276	-0.774
277	-0.773
277	-0.769
278	-0.773
278	-0.773
278	-0.761
279	-0.768
279	-0.781
280	-0.784
280	-0.795
281	-0.789
281	-0.782
282	-0.788
282	-0.782
283	-0.775
283	-0.789
284	-0.802
284	-0.814
285	-0.795
285	-0.801
285	-0.791
286	-0.798
286	-0.812
287	-0.81
287	-0.81
288	-0.809
288	-0.791
289	-0.79
289	-0.796
290	-0.805
290	-0.794
291	-0.798
291	-0.794
292	-0.776
292	-0.774
292	-0.778
293	-0.765
293	-0.762
294	-0.761
294	-0.746
295	-0.728
295	-0.74
296	-0.752
296	-0.746
297	-0.734
297	-0.737
298	-0.733
298	-0.752
298	-0.757
299	-0.739
299	-0.732
300	-0.728
300	-0.709
301	-0.691
301	-0.692
302	-0.703
302	-0.689
303	-0.682
303	-0.667
304	-0.649
304	-0.652
305	-0.646
305	-0.654
305	-0.669
306	-0.654
306	-0.655
307	-0.646
307	-0.656
308	-0.658
308	-0.656
309	-0.66
309	-0.656
310	-0.653
310	-0.649
311	-0.635
311	-0.652
311	-0.638
312	-0.634
312	-0.623
313	-0.615
313	-0.616
314	-0.618
314	-0.616
315	-0.614
315	-0.607
316	-0.602
316	-0.594
317	-0.587
317	-0.586
318	-0.577
318	-0.576
318	-0.566
319	-0.557
319	-0.55
320	-0.548
320	-0.546
321	-0.542
321	-0.54
322	-0.534
322	-0.526
323	-0.527
323	-0.516
324	-0.513
324	-0.5
324	-0.488
325	-0.474
325	-0.456
326	-0.447
326	-0.423
327	-0.407
327	-0.385
328	-0.355
328	-0.333
329	-0.306
329	-0.28
330	-0.253
330	-0.216
330	-0.18
331	-0.143
331	-0.109
332	-0.076
332	-0.044
333	-0.013
333	0.02
334	0.05
334	0.076
335	0.103
335	0.123
336	0.144
336	0.165
336	0.181
337	0.198
337	0.214
338	0.227
338	0.238
339	0.251
339	0.261
340	0.27
340	0.278
341	0.284
341	0.291
342	0.298
342	0.304
342	0.309
343	0.312
343	0.317
344	0.32
344	0.323
345	0.326
345	0.329
346	0.331
346	0.332
347	0.334
347	0.335
348	0.336
348	0.338
348	0.339
349	0.34
349	0.341
350	0.341
350	0.342
351	0.342
351	0.342
352	0.342
352	0.343
353	0.343
353	0.343
354	0.343
354	0.343
354	0.343
355	0.343
355	0.343
356	0.344
356	0.344
357	0.345
357	0.344
358	0.344
358	0.344
359	0.344
359	0.344
360	0.344
360	0.344
360	0.344
361	0.344
361	0.344
362	0.343
362	0.343
363	0.343
363	0.343
364	0.343
364	0.343
365	0.343
365	0.342
366	0.342
366	0.342
366	0.342
367	0.342
367	0.342
368	0.341
368	0.341
369	0.341
369	0.341
370	0.34
370	0.34
371	0.34
371	0.34
372	0.34
372	0.339
372	0.339
373	0.339
373	0.339
374	0.339
374	0.339
375	0.338
375	0.338
376	0.338
376	0.337
377	0.337
377	0.337
378	0.336
378	0.336
378	0.336
379	0.336
379	0.335
380	0.335
380	0.335
381	0.335
381	0.334
382	0.334
382	0.333
383	0.333
383	0.333
383	0.333
384	0.332
384	0.332
385	0.332
385	0.331
386	0.331
386	0.331
387	0.331
387	0.33
388	0.33
388	0.33
389	0.33
389	0.329
389	0.329
390	0.329
390	0.329
391	0.329
391	0.328
392	0.328
392	0.328
393	0.328
393	0.328
394	0.327
394	0.327
394	0.327
395	0.327
395	0.326
396	0.326
396	0.325
397	0.325
397	0.324
398	0.324
398	0.323
399	0.323
399	0.323
400	0.322
400	0.322
400	0.322
401	0.322
401	0.321
402	0.321
402	0.321
403	0.321
403	0.32
404	0.32
404	0.319
405	0.319
405	0.319
405	0.318
406	0.318
406	0.318
407	0.318
407	0.317
408	0.317
408	0.317
409	0.317
409	0.317
410	0.317
410	0.317
411	0.317
411	0.316
411	0.316
412	0.315
412	0.315
413	0.315
413	0.314
414	0.314
414	0.314
415	0.313
415	0.313
416	0.313
416	0.313
416	0.313
417	0.313
417	0.312
418	0.313
418	0.312
419	0.313
419	0.313
420	0.313
420	0.312
421	0.312
421	0.312
421	0.312
422	0.312
422	0.312
423	0.312
423	0.312
424	0.311
424	0.311
425	0.311
425	0.311
426	0.31
426	0.31
427	0.31
427	0.31
427	0.31
428	0.31
428	0.31
429	0.31
429	0.309
430	0.309
430	0.308
431	0.308
431	0.308
432	0.307
432	0.307
432	0.307
433	0.306
433	0.306
434	0.307
434	0.307
435	0.307
435	0.308
436	0.308
436	0.308
437	0.308
437	0.308
437	0.308
438	0.308
438	0.308
439	0.307
439	0.307
440	0.306
440	0.306
441	0.306
441	0.306
442	0.306
442	0.306
442	0.306
443	0.306
443	0.306
444	0.306
444	0.307
445	0.306
445	0.306
446	0.306
446	0.306
447	0.306
447	0.306
447	0.306
448	0.306
448	0.306
449	0.306
449	0.306
450	0.306
450	0.306
451	0.306
451	0.306
452	0.306
452	0.306
452	0.306
453	0.306
453	0.306
454	0.307
454	0.307
455	0.307
455	0.307
456	0.308
456	0.308
457	0.308
457	0.308
458	0.308
458	0.308
458	0.308
459	0.308
459	0.307
460	0.307
460	0.307
461	0.307
461	0.307
462	0.308
462	0.309
463	0.309
463	0.31
463	0.31
464	0.311
464	0.311
465	0.311
465	0.312
466	0.312
466	0.312
467	0.313
467	0.313
467	0.313
468	0.313
468	0.313
469	0.314
469	0.314
470	0.315
470	0.315
471	0.316
471	0.316
472	0.317
472	0.317
472	0.318
473	0.319
473	0.32
474	0.32
474	0.321
475	0.321
475	0.322
476	0.323
476	0.323
477	0.324
477	0.325
477	0.326
478	0.326
478	0.327
479	0.328
479	0.329
480	0.33
480	0.331
481	0.332
481	0.333
482	0.334
482	0.335
482	0.336
483	0.338
483	0.34
484	0.341
484	0.341
485	0.343
485	0.344
486	0.345
486	0.346
487	0.347
487	0.349
487	0.35
488	0.351
488	0.352
489	0.354
489	0.356
490	0.358
490	0.359
491	0.361
491	0.363
492	0.365
492	0.366
492	0.368
493	0.37
493	0.372
494	0.375
494	0.377
495	0.378
495	0.38
496	0.382
496	0.384
496	0.387
497	0.389
497	0.391
498	0.393
498	0.395
499	0.397
499	0.4
500	0.403
500	0.406
501	0.409
501	0.411
501	0.413
502	0.415
502	0.418
503	0.421
503	0.423
504	0.425
504	0.428
505	0.43
505	0.433
506	0.436
506	0.439
506	0.442
507	0.445
507	0.448
508	0.451
508	0.453
509	0.456
509	0.459
510	0.462
510	0.464
511	0.467
511	0.469
511	0.471
512	0.474
512	0.476
513	0.478
513	0.481
514	0.484
514	0.487
515	0.489
515	0.492
515	0.493
516	0.496
516	0.499
517	0.501
517	0.503
518	0.505
518	0.506
519	0.508
519	0.509
520	0.511
520	0.513
520	0.514
521	0.515
521	0.517
522	0.518
522	0.52
523	0.521
523	0.522
524	0.523
524	0.524
524	0.525
525	0.526
525	0.527
526	0.527
526	0.528
527	0.528
527	0.529
528	0.529
528	0.529
529	0.529
529	0.528
529	0.528
530	0.527
530	0.527
531	0.527
531	0.526
532	0.525
532	0.525
533	0.524
533	0.524
533	0.523
534	0.522
534	0.521
535	0.52
535	0.519
536	0.518
536	0.517
537	0.515
537	0.514
538	0.512
538	0.51
538	0.509
539	0.507
539	0.506
540	0.504
540	0.501
541	0.499
541	0.497
542	0.495
542	0.492
542	0.49
543	0.488
543	0.485
544	0.483
544	0.48
545	0.478
545	0.476
546	0.474
546	0.471
547	0.468
547	0.464
547	0.462
548	0.459
548	0.456
549	0.454
549	0.451
550	0.448
550	0.445
551	0.441
551	0.438
551	0.435
552	0.432
552	0.43
553	0.427
553	0.424
554	0.421
554	0.417
555	0.414
555	0.411
556	0.408
556	0.405
556	0.402
557	0.4
557	0.397
558	0.394
558	0.391
559	0.388
559	0.386
560	0.383
560	0.38
560	0.378
561	0.376
561	0.374
562	0.371
562	0.369
563	0.366
563	0.364
564	0.362
564	0.36
564	0.358
565	0.356
565	0.354
566	0.352
566	0.35
567	0.348
567	0.345
568	0.343
568	0.34
568	0.338
569	0.335
569	0.332
570	0.329
570	0.325
571	0.324
571	0.321
572	0.318
572	0.316
573	0.313
573	0.311
573	0.308
574	0.307
574	0.305
575	0.304
575	0.304
576	0.302
576	0.3
577	0.297
577	0.296
577	0.295
578	0.294
578	0.294
579	0.293
579	0.292
580	0.289
580	0.286
581	0.284
581	0.282
581	0.281
582	0.28
582	0.279
583	0.278
583	0.275
584	0.272
584	0.269
585	0.267
585	0.267
585	0.265
586	0.263
586	0.262
587	0.259
587	0.257
588	0.255
588	0.254
589	0.254
589	0.253
590	0.252
590	0.251
590	0.251
591	0.25
591	0.249
592	0.247
592	0.246
593	0.245
593	0.243
594	0.242
594	0.24
594	0.239
595	0.238
595	0.236
596	0.235
596	0.235
597	0.236
597	0.235
598	0.234
598	0.233
598	0.232
599	0.232
599	0.23
600	0.229
600	0.228
601	0.227
601	0.226
602	0.224
602	0.223
602	0.222
603	0.222
603	0.221
604	0.221
604	0.22
605	0.22
605	0.22
606	0.219
606	0.217
606	0.216
607	0.215
607	0.214
608	0.213
608	0.211
609	0.21
609	0.21
610	0.208
610	0.207
610	0.206
611	0.206
611	0.206
612	0.206
612	0.206
613	0.205
613	0.205
614	0.204
614	0.202
614	0.201
615	0.2
615	0.199
616	0.199
616	0.198
617	0.197
617	0.196
618	0.195
618	0.194
618	0.193
619	0.192
619	0.192
620	0.192
620	0.191
621	0.19
621	0.189
622	0.187
622	0.186
622	0.185
623	0.184
623	0.184
624	0.183
624	0.182
625	0.181
625	0.18
626	0.179
626	0.177
626	0.177
627	0.176
627	0.175
628	0.173
628	0.172
629	0.17
629	0.168
630	0.166
630	0.165
630	0.163
631	0.162
631	0.159
632	0.157
632	0.155
633	0.153
633	0.152
634	0.15
634	0.148
634	0.146
635	0.144
635	0.142
636	0.14
636	0.138
637	0.135
637	0.132
638	0.13
638	0.127
638	0.125
639	0.121
639	0.118
640	0.114
640	0.111
641	0.108
641	0.104
642	0.101
642	0.097
642	0.094
643	0.09
643	0.085
644	0.081
644	0.076
645	0.071
645	0.067
646	0.061
646	0.055
646	0.049
647	0.043
647	0.037
648	0.031
648	0.024
649	0.018
649	0.012
650	0.006
650	-0.001
650	-0.008
651	-0.016
651	-0.027
652	-0.039
652	-0.052
653	-0.063
653	-0.073
653	-0.069
654	-0.051
654	-0.046
655	-0.051
655	-0.056
656	-0.061
656	-0.067
657	-0.072
657	-0.076
657	-0.082
658	-0.089
658	-0.118
659	-0.198
659	-0.283
660	-0.321
660	-0.346
661	-0.372
661	-0.4
661	-0.431
662	-0.458
662	-0.487
663	-0.521
663	-0.559
664	-0.595
664	-0.635
665	-0.681
665	-0.728
665	-0.772
666	-0.823
666	-0.878
667	-0.933
667	-0.996
668	-1.055
668	-1.125
669	-1.193
669	-1.268
669	-1.348
670	-1.435
670	-1.567
671	-1.792
671	-2.157
672	-2.367
672	-2.515
672	-2.626
673	-2.717
673	-2.793
674	-2.83
674	-2.843
675	-2.857
675	-2.859
676	-2.849
676	-2.782
676	-2.706
677	-2.611
677	-2.492
678	-2.305
678	-1.947
679	-1.656
679	-1.523
680	-1.429
680	-1.357
680	-1.295
681	-1.251
681	-1.201
682	-1.161
682	-1.12
683	-1.079
683	-1.055
684	-1.028
684	-1.009
684	-0.986
685	-0.968
685	-0.958
686	-0.935
686	-0.923
687	-0.913
687	-0.902
687	-0.902
688	-0.887
688	-0.879
689	-0.884
689	-0.882
690	-0.868
690	-0.858
691	-0.855
691	-0.858
691	-0.857
692	-0.856
692	-0.852
693	-0.858
693	-0.868
694	-0.848
694	-0.847
695	-0.849
695	-0.842
695	-0.849
696	-0.855
696	-0.85
697	-0.845
697	-0.84
698	-0.835
698	-0.828
698	-0.841
699	-0.839
699	-0.841
700	-0.862
700	-0.855
701	-0.843
701	-0.836
702	-0.838
702	-0.838
702	-0.837
703	-0.828
703	-0.816
704	-0.823
704	-0.827
705	-0.815
705	-0.814
705	-0.809
706	-0.802
706	-0.796
707	-0.807
707	-0.811
708	-0.808
708	-0.805
709	-0.805
709	-0.8
709	-0.797
710	-0.805
710	-0.808
711	-0.807
711	-0.808
712	-0.798
712	-0.795
713	-0.801
713	-0.802
713	-0.783
714	-0.786
714	-0.79
715	-0.783
715	-0.79
716	-0.805
716	-0.813
716	-0.815
717	-0.82
717	-0.811
718	-0.807
718	-0.806
719	-0.804
719	-0.793
720	-0.789
720	-0.785
720	-0.78
721	-0.772
721	-0.776
722	-0.774
722	-0.769
723	-0.785
723	-0.798
723	-0.807
724	-0.807
724	-0.812
725	-0.805
725	-0.809
726	-0.812
726	-0.803
727	-0.804
727	-0.814
727	-0.805
728	-0.79
728	-0.785
729	-0.788
729	-0.791
730	-0.797
730	-0.79
730	-0.796
731	-0.799
731	-0.8
732	-0.8
732	-0.796
733	-0.812
733	-0.818
734	-0.825
734	-0.816
734	-0.797
735	-0.786
735	-0.781
736	-0.781
736	-0.775
737	-0.775
737	-0.763
737	-0.755
738	-0.741
738	-0.731
739	-0.733
739	-0.735
740	-0.749
740	-0.751
741	-0.761
741	-0.77
741	-0.781
742	-0.789
742	-0.805
743	-0.812
743	-0.812
744	-0.814
744	-0.822
744	-0.814
745	-0.822
745	-0.811
746	-0.807
746	-0.797
747	-0.8
747	-0.789
748	-0.79
748	-0.796
748	-0.799
749	-0.792
749	-0.798
750	-0.788
750	-0.788
751	-0.787
751	-0.785
751	-0.797
752	-0.802
752	-0.805
753	-0.807
753	-0.799
754	-0.819
754	-0.82
754	-0.827
755	-0.828
755	-0.82
756	-0.823
756	-0.809
757	-0.8
757	-0.789
758	-0.789
758	-0.786
758	-0.781
759	-0.784
759	-0.785
760	-0.786
760	-0.787
761	-0.781
761	-0.783
761	-0.784
762	-0.79
762	-0.792
763	-0.793
763	-0.797
764	-0.796
764	-0.79
764	-0.794
765	-0.792
765	-0.799
766	-0.803
766	-0.805
767	-0.82
767	-0.815
768	-0.813
768	-0.805
768	-0.8
769	-0.804
769	-0.813
770	-0.824
770	-0.826
771	-0.822
771	-0.821
771	-0.825
772	-0.828
772	-0.848
773	-0.851
773	-0.851
774	-0.849
774	-0.83
775	-0.818
775	-0.818
775	-0.822
776	-0.834
776	-0.831
777	-0.832
777	-0.815
778	-0.825
778	-0.832
778	-0.833
779	-0.843
779	-0.859
780	-0.856
780	-0.865
781	-0.854
781	-0.844
781	-0.857
782	-0.879
782	-0.88
783	-0.881
783	-0.887
784	-0.89
784	-0.883
784	-0.902
785	-0.895
785	-0.907
786	-0.911
786	-0.903
787	-0.892
787	-0.898
788	-0.888
788	-0.881
788	-0.881
789	-0.88
789	-0.869
790	-0.87
790	-0.854
791	-0.863
791	-0.86
791	-0.853
792	-0.85
792	-0.855
793	-0.859
793	-0.847
794	-0.84
794	-0.834
794	-0.84
795	-0.861
795	-0.846
796	-0.852
796	-0.848
797	-0.84
797	-0.832
797	-0.825
798	-0.846
798	-0.851
799	-0.852
799	-0.836
800	-0.83
800	-0.837
801	-0.835
801	-0.839
801	-0.838
802	-0.835
802	-0.835
803	-0.83
803	-0.822
804	-0.827
804	-0.836
804	-0.819
805	-0.802
805	-0.791
806	-0.793
806	-0.79
807	-0.794
807	-0.794
807	-0.778
808	-0.775
808	-0.767
809	-0.763
809	-0.764
810	-0.768
810	-0.765
810	-0.761
811	-0.764
811	-0.752
812	-0.745
812	-0.746
813	-0.749
813	-0.751
813	-0.746
814	-0.746
814	-0.75
815	-0.742
815	-0.739
816	-0.734
816	-0.752
817	-0.763
817	-0.767
817	-0.777
818	-0.77
818	-0.767
819	-0.778
819	-0.777
820	-0.787
820	-0.787
820	-0.786
821	-0.78
821	-0.776
822	-0.776
822	-0.761
823	-0.773
823	-0.773
823	-0.768
824	-0.765
824	-0.775
825	-0.772
825	-0.768
826	-0.765
826	-0.762
826	-0.76
827	-0.762
827	-0.748
828	-0.749
828	-0.744
829	-0.738
829	-0.723
829	-0.721
830	-0.719
830	-0.703
831	-0.698
831	-0.688
832	-0.679
832	-0.675
832	-0.667
833	-0.664
833	-0.671
834	-0.666
834	-0.662
835	-0.655
835	-0.656
835	-0.65
836	-0.645
836	-0.641
837	-0.633
837	-0.624
838	-0.612
838	-0.593
839	-0.588
839	-0.576
839	-0.566
840	-0.564
840	-0.553
841	-0.543
841	-0.536
842	-0.527
842	-0.515
842	-0.511
843	-0.508
843	-0.504
844	-0.503
844	-0.492
845	-0.479
845	-0.471
845	-0.46
846	-0.449
846	-0.439
847	-0.43
847	-0.418
848	-0.404
848	-0.387
848	-0.373
849	-0.36
849	-0.348
850	-0.337
850	-0.328
851	-0.316
851	-0.301
851	-0.292
852	-0.277
852	-0.265
853	-0.256
853	-0.246
854	-0.237
854	-0.227
854	-0.214
855	-0.203
855	-0.194
856	-0.187
856	-0.179
857	-0.171
857	-0.166
857	-0.154
858	-0.143
858	-0.135
859	-0.125
859	-0.115
860	-0.105
860	-0.092
860	-0.082
861	-0.073
861	-0.063
862	-0.053
862	-0.046
863	-0.038
863	-0.03
863	-0.025
864	-0.019
864	-0.013
865	-0.007
865	-0.002
866	0.003
866	0.008
866	0.013
867	0.017
867	0.022
868	0.026
868	0.03
869	0.034
869	0.037
869	0.039
870	0.042
870	0.043
871	0.045
871	0.046
872	0.047
872	0.047
872	0.048
873	0.048
873	0.048
874	0.047
874	0.047
875	0.047
875	0.046
875	0.046
876	0.046
876	0.046
877	0.045
877	0.045
878	0.044
878	0.043
878	0.043
879	0.043
879	0.042
880	0.042
880	0.041
881	0.04
881	0.04
881	0.039
882	0.038
882	0.037
883	0.036
883	0.036
884	0.036
884	0.036
884	0.036
885	0.036
885	0.036
886	0.036
886	0.036
887	0.036
887	0.035
887	0.035
888	0.035
888	0.034
889	0.033
889	0.032
890	0.032
890	0.031
890	0.03
891	0.03
891	0.03
892	0.031
892	0.031
893	0.031
893	0.031
893	0.031
894	0.032
894	0.032
895	0.032
895	0.032
895	0.032
896	0.032
896	0.033
897	0.033
897	0.033
898	0.033
898	0.034
898	0.034
899	0.035
899	0.035
900	0.035
900	0.035
901	0.035
901	0.035
901	0.035
902	0.035
902	0.036
903	0.035
903	0.035
904	0.034
904	0.034
904	0.033
905	0.033
905	0.033
906	0.033
906	0.034
907	0.034
907	0.035
907	0.035
908	0.036
908	0.037
909	0.038
909	0.039
910	0.04
910	0.041
910	0.042
911	0.043
911	0.044
912	0.045
912	0.047
913	0.048
913	0.049
913	0.049
914	0.05
914	0.05
915	0.05
915	0.05
916	0.049
916	0.048
916	0.047
917	0.046
917	0.045
918	0.044
918	0.043
918	0.042
919	0.041
919	0.041
920	0.04
920	0.04
921	0.04
921	0.039
921	0.039
922	0.039
922	0.039
923	0.038
923	0.038
924	0.038
924	0.038
924	0.038
925	0.038
925	0.037
926	0.037
926	0.037
927	0.037
927	0.037
927	0.037
928	0.037
928	0.037
929	0.038
929	0.038
930	0.039
930	0.039
930	0.04
931	0.04
931	0.04
932	0.041
932	0.041
933	0.041
933	0.041
933	0.041
934	0.04
934	0.039
935	0.038
935	0.037
935	0.036
936	0.034
936	0.033
937	0.031
937	0.03
938	0.029
938	0.028
938	0.027
939	0.027
939	0.026
940	0.026
940	0.026
941	0.026
941	0.025
941	0.025
942	0.024
942	0.024
943	0.024
943	0.024
944	0.024
944	0.023
944	0.023
945	0.023
945	0.024
946	0.024
946	0.024
946	0.024
947	0.025
947	0.025
948	0.025
948	0.025
949	0.025
949	0.025
949	0.026
950	0.026
950	0.026
951	0.027
951	0.027
952	0.027
952	0.027
952	0.027
953	0.028
953	0.028
954	0.028
954	0.029
955	0.029
955	0.029
955	0.029
956	0.028
956	0.028
957	0.027
957	0.027
957	0.026
958	0.025
958	0.025
959	0.025
959	0.025
960	0.025
960	0.025
960	0.025
961	0.026
961	0.027
962	0.027
962	0.028
963	0.028
963	0.028
963	0.028
964	0.028
964	0.028
965	0.029
965	0.029
966	0.029
966	0.029
966	0.029
967	0.029
967	0.028
968	0.028
968	0.028
968	0.028
969	0.027
969	0.027
970	0.026
970	0.025
971	0.024
971	0.024
971	0.023
972	0.023
972	0.023
973	0.023
973	0.023
974	0.023
974	0.023
974	0.024
975	0.025
975	0.025
976	0.026
976	0.026
976	0.027
977	0.027
977	0.027
978	0.026
978	0.026
979	0.026
979	0.025
979	0.024
980	0.023
980	0.022
981	0.021
981	0.021
982	0.02
982	0.02
982	0.02
983	0.019
983	0.019
984	0.018
984	0.018
984	0.018
985	0.018
985	0.018
986	0.017
986	0.016
987	0.016
987	0.015
987	0.015
988	0.014
988	0.014
989	0.014
989	0.013
990	0.013
990	0.013
990	0.012
991	0.013
991	0.013
992	0.013
992	0.013
992	0.013
993	0.013
993	0.013
994	0.013
994	0.012
995	0.012
995	0.012
995	0.012
996	0.011
996	0.011
997	0.01
997	0.01
997	0.01
998	0.01
998	0.01
999	0.01
999	0.01
1000	0.01
1000	0.009
1000	0.009
1001	0.009
1001	0.01
1002	0.01
1002	0.01
1003	0.009
1003	0.009
1003	0.009
1004	0.008
1004	0.008
1005	0.007
1005	0.006
1005	0.005
1006	0.004
1006	0.004
1007	0.003
1007	0.003
1008	0.002
1008	0.002
1008	0.002
1009	0.002
1009	0.003
1010	0.003
1010	0.004
1010	0.004
1011	0.005
1011	0.005
1012	0.005
1012	0.006
1013	0.007
1013	0.007
1013	0.007
1014	0.007
1014	0.007
1015	0.007
1015	0.008
1016	0.008
1016	0.007
1016	0.007
1017	0.007
1017	0.007
1018	0.007
1018	0.007
1018	0.007
1019	0.007
1019	0.006
1020	0.006
1020	0.006
1021	0.005
1021	0.005
1021	0.005
1022	0.004
1022	0.004
1023	0.004
1023	0.003
1023	0.003
1024	0.003
1024	0.003
1025	0.003
1025	0.003
1026	0.002
1026	0.003
1026	0.002
1027	0.002
1027	0.002
1028	0.002
1028	0.002
1028	0.002
1029	0.002
1029	0.002
1030	0.002
1030	0.001
1031	0.001
1031	0.002
1031	0.002
1032	0.003
1032	0.002
1033	0.002
1033	0.002
1033	0.002
1034	0.001
1034	0.001
1035	0.001
1035	0
1036	-0
1036	-0.001
1036	-0.001
1037	-0.001
1037	-0.001
1038	-0.001
1038	-0
1039	0.001
1039	0.001
1039	0.002
1040	0.002
1040	0.003
1041	0.004
1041	0.004
1041	0.004
1042	0.003
1042	0.003
1043	0.003
1043	0.002
1044	0.001
1044	0
1044	-0
1045	-0.002
1045	-0.002
1046	-0.003
1046	-0.004
1046	-0.004
1047	-0.005
1047	-0.005
1048	-0.005
1048	-0.005
1049	-0.005
1049	-0.006
1049	-0.007
1050	-0.007
1050	-0.008
1051	-0.009
1051	-0.01
1051	-0.01
1052	-0.011
1052	-0.012
1053	-0.013
1053	-0.014
1053	-0.014
1054	-0.014
1054	-0.014
1055	-0.013
1055	-0.013
1056	-0.013
1056	-0.014
1056	-0.014
1057	-0.014
1057	-0.014
1058	-0.014
1058	-0.014
1058	-0.014
1059	-0.015
1059	-0.015
1060	-0.015
1060	-0.015
1061	-0.015
1061	-0.014
1061	-0.014
1062	-0.014
1062	-0.014
1063	-0.014
1063	-0.014
1063	-0.014
1064	-0.014
1064	-0.014
1065	-0.015
1065	-0.015
1066	-0.016
1066	-0.016
1066	-0.016
1067	-0.017
1067	-0.018
1068	-0.018
1068	-0.019
1068	-0.019
1069	-0.02
1069	-0.021
1070	-0.021
1070	-0.022
1071	-0.022
1071	-0.022
1071	-0.022
1072	-0.022
1072	-0.022
1073	-0.021
1073	-0.02
1073	-0.02
1074	-0.02
1074	-0.02
1075	-0.019
1075	-0.02
1076	-0.02
1076	-0.02
1076	-0.021
1077	-0.022
1077	-0.024
1078	-0.025
1078	-0.026
1078	-0.027
1079	-0.027
1079	-0.028
1080	-0.029
1080	-0.03
1080	-0.031
1081	-0.031
1081	-0.032
1082	-0.032
1082	-0.033
1083	-0.033
1083	-0.034
1083	-0.034
1084	-0.035
1084	-0.036
1085	-0.036
1085	-0.037
1085	-0.037
1086	-0.037
1086	-0.038
1087	-0.039
1087	-0.04
1088	-0.041
1088	-0.042
1088	-0.043
1089	-0.044
1089	-0.045
1090	-0.046
1090	-0.047
1090	-0.049
1091	-0.05
1091	-0.05
1092	-0.051
1092	-0.051
1092	-0.052
1093	-0.053
1093	-0.053
1094	-0.054
1094	-0.056
1095	-0.057
1095	-0.058
1095	-0.058
1096	-0.06
1096	-0.061
1097	-0.062
1097	-0.064
1097	-0.065
1098	-0.067
1098	-0.069
1099	-0.07
1099	-0.072
1100	-0.073
1100	-0.075
1100	-0.078
1101	-0.082
1101	-0.084
1102	-0.086
1102	-0.088
1102	-0.09
1103	-0.092
1103	-0.095
1104	-0.098
1104	-0.102
1104	-0.104
1105	-0.105
1105	-0.108
1106	-0.113
1106	-0.115
1107	-0.122
1107	-0.127
1107	-0.131
1108	-0.133
1108	-0.135
1109	-0.139
1109	-0.144
1109	-0.148
1110	-0.151
1110	-0.153
1111	-0.163
1111	-0.158
