Data from 3.4A_17C_Absorbance__946__01903.txt Node

Date: Tue Jun 20 16:12:23 CEST 2023
User: Marek
Spectrometer: MAYP115816
Trigger mode: 0
Integration Time (sec): 2.200000E-1
Scans to average: 10
Electric dark correction enabled: true
Nonlinearity correction enabled: true
Boxcar width: 5
XAxis mode: Wavelengths
Number of Pixels in Spectrum: 2068
>>>>>Begin Spectral Data<<<<<
199	-0.776
199	-0.756
200	-0.72
200	-0.67
201	-0.644
201	-0.639
202	-0.625
202	-0.618
203	-0.617
203	-0.61
204	-0.59
204	-0.574
205	-0.554
205	-0.544
205	-0.551
206	-0.552
206	-0.547
207	-0.538
207	-0.545
208	-0.546
208	-0.549
209	-0.551
209	-0.557
210	-0.567
210	-0.575
211	-0.569
211	-0.573
212	-0.581
212	-0.588
213	-0.584
213	-0.579
213	-0.576
214	-0.584
214	-0.586
215	-0.584
215	-0.589
216	-0.597
216	-0.603
217	-0.6
217	-0.601
218	-0.608
218	-0.611
219	-0.617
219	-0.62
220	-0.625
220	-0.632
221	-0.632
221	-0.633
221	-0.625
222	-0.626
222	-0.625
223	-0.62
223	-0.624
224	-0.624
224	-0.622
225	-0.618
225	-0.619
226	-0.619
226	-0.618
227	-0.625
227	-0.636
228	-0.639
228	-0.648
229	-0.653
229	-0.651
229	-0.65
230	-0.645
230	-0.643
231	-0.64
231	-0.636
232	-0.638
232	-0.632
233	-0.634
233	-0.621
234	-0.621
234	-0.616
235	-0.62
235	-0.631
236	-0.639
236	-0.641
236	-0.641
237	-0.64
237	-0.641
238	-0.641
238	-0.645
239	-0.646
239	-0.655
240	-0.65
240	-0.646
241	-0.641
241	-0.642
242	-0.645
242	-0.653
243	-0.653
243	-0.655
243	-0.658
244	-0.655
244	-0.657
245	-0.66
245	-0.666
246	-0.676
246	-0.681
247	-0.69
247	-0.676
248	-0.675
248	-0.678
249	-0.684
249	-0.686
250	-0.685
250	-0.692
250	-0.689
251	-0.689
251	-0.685
252	-0.686
252	-0.698
253	-0.693
253	-0.704
254	-0.709
254	-0.71
255	-0.72
255	-0.72
256	-0.722
256	-0.734
257	-0.742
257	-0.738
258	-0.741
258	-0.751
258	-0.749
259	-0.742
259	-0.761
260	-0.76
260	-0.748
261	-0.759
261	-0.745
262	-0.75
262	-0.749
263	-0.738
263	-0.741
264	-0.752
264	-0.753
265	-0.742
265	-0.745
265	-0.754
266	-0.744
266	-0.747
267	-0.748
267	-0.764
268	-0.772
268	-0.767
269	-0.758
269	-0.771
270	-0.776
270	-0.776
271	-0.79
271	-0.8
272	-0.801
272	-0.803
272	-0.797
273	-0.806
273	-0.822
274	-0.815
274	-0.809
275	-0.806
275	-0.793
276	-0.795
276	-0.801
277	-0.801
277	-0.799
278	-0.803
278	-0.801
278	-0.788
279	-0.797
279	-0.811
280	-0.813
280	-0.825
281	-0.819
281	-0.811
282	-0.817
282	-0.812
283	-0.804
283	-0.82
284	-0.834
284	-0.842
285	-0.824
285	-0.829
285	-0.819
286	-0.825
286	-0.841
287	-0.839
287	-0.837
288	-0.837
288	-0.819
289	-0.816
289	-0.829
290	-0.836
290	-0.827
291	-0.829
291	-0.827
292	-0.806
292	-0.803
292	-0.808
293	-0.798
293	-0.794
294	-0.794
294	-0.777
295	-0.76
295	-0.772
296	-0.784
296	-0.779
297	-0.77
297	-0.773
298	-0.77
298	-0.786
298	-0.789
299	-0.771
299	-0.763
300	-0.761
300	-0.743
301	-0.724
301	-0.727
302	-0.734
302	-0.721
303	-0.714
303	-0.702
304	-0.686
304	-0.689
305	-0.682
305	-0.689
305	-0.705
306	-0.691
306	-0.69
307	-0.683
307	-0.695
308	-0.697
308	-0.695
309	-0.698
309	-0.695
310	-0.695
310	-0.689
311	-0.674
311	-0.693
311	-0.68
312	-0.677
312	-0.664
313	-0.658
313	-0.658
314	-0.662
314	-0.659
315	-0.655
315	-0.649
316	-0.645
316	-0.633
317	-0.625
317	-0.622
318	-0.615
318	-0.611
318	-0.601
319	-0.591
319	-0.584
320	-0.581
320	-0.579
321	-0.574
321	-0.576
322	-0.571
322	-0.564
323	-0.565
323	-0.555
324	-0.552
324	-0.54
324	-0.53
325	-0.515
325	-0.499
326	-0.489
326	-0.464
327	-0.449
327	-0.428
328	-0.398
328	-0.376
329	-0.348
329	-0.321
330	-0.296
330	-0.264
330	-0.23
331	-0.196
331	-0.165
332	-0.135
332	-0.104
333	-0.077
333	-0.046
334	-0.02
334	0.003
335	0.028
335	0.048
336	0.068
336	0.086
336	0.1
337	0.115
337	0.13
338	0.142
338	0.15
339	0.162
339	0.17
340	0.177
340	0.184
341	0.19
341	0.196
342	0.202
342	0.207
342	0.21
343	0.214
343	0.218
344	0.22
344	0.222
345	0.225
345	0.227
346	0.229
346	0.231
347	0.232
347	0.233
348	0.234
348	0.235
348	0.236
349	0.237
349	0.238
350	0.238
350	0.239
351	0.239
351	0.239
352	0.239
352	0.24
353	0.24
353	0.24
354	0.24
354	0.24
354	0.24
355	0.24
355	0.24
356	0.24
356	0.24
357	0.241
357	0.241
358	0.241
358	0.241
359	0.241
359	0.241
360	0.241
360	0.241
360	0.241
361	0.241
361	0.241
362	0.24
362	0.24
363	0.24
363	0.24
364	0.24
364	0.239
365	0.239
365	0.239
366	0.24
366	0.24
366	0.24
367	0.24
367	0.24
368	0.24
368	0.24
369	0.24
369	0.24
370	0.24
370	0.24
371	0.239
371	0.239
372	0.239
372	0.239
372	0.239
373	0.239
373	0.239
374	0.239
374	0.239
375	0.239
375	0.239
376	0.238
376	0.238
377	0.238
377	0.238
378	0.238
378	0.237
378	0.237
379	0.237
379	0.237
380	0.237
380	0.237
381	0.237
381	0.237
382	0.236
382	0.236
383	0.236
383	0.236
383	0.236
384	0.236
384	0.235
385	0.235
385	0.235
386	0.235
386	0.234
387	0.235
387	0.234
388	0.234
388	0.234
389	0.234
389	0.234
389	0.234
390	0.234
390	0.234
391	0.234
391	0.234
392	0.234
392	0.234
393	0.233
393	0.233
394	0.233
394	0.233
394	0.233
395	0.232
395	0.232
396	0.232
396	0.232
397	0.232
397	0.232
398	0.231
398	0.231
399	0.231
399	0.231
400	0.231
400	0.231
400	0.231
401	0.231
401	0.231
402	0.23
402	0.23
403	0.23
403	0.23
404	0.23
404	0.23
405	0.229
405	0.229
405	0.229
406	0.229
406	0.229
407	0.228
407	0.228
408	0.228
408	0.228
409	0.228
409	0.228
410	0.228
410	0.228
411	0.228
411	0.228
411	0.227
412	0.227
412	0.227
413	0.227
413	0.227
414	0.227
414	0.227
415	0.226
415	0.226
416	0.226
416	0.225
416	0.225
417	0.225
417	0.225
418	0.225
418	0.225
419	0.225
419	0.225
420	0.225
420	0.225
421	0.224
421	0.225
421	0.225
422	0.225
422	0.225
423	0.225
423	0.225
424	0.224
424	0.224
425	0.224
425	0.224
426	0.224
426	0.224
427	0.224
427	0.224
427	0.225
428	0.225
428	0.225
429	0.225
429	0.224
430	0.224
430	0.224
431	0.223
431	0.223
432	0.223
432	0.222
432	0.222
433	0.222
433	0.222
434	0.222
434	0.222
435	0.222
435	0.222
436	0.222
436	0.222
437	0.222
437	0.221
437	0.221
438	0.222
438	0.222
439	0.222
439	0.222
440	0.221
440	0.222
441	0.221
441	0.221
442	0.221
442	0.221
442	0.221
443	0.221
443	0.221
444	0.221
444	0.221
445	0.221
445	0.221
446	0.221
446	0.221
447	0.221
447	0.221
447	0.221
448	0.221
448	0.221
449	0.221
449	0.221
450	0.221
450	0.221
451	0.221
451	0.221
452	0.221
452	0.22
452	0.22
453	0.22
453	0.22
454	0.221
454	0.221
455	0.221
455	0.221
456	0.221
456	0.221
457	0.221
457	0.221
458	0.221
458	0.221
458	0.221
459	0.221
459	0.22
460	0.219
460	0.219
461	0.219
461	0.22
462	0.22
462	0.22
463	0.221
463	0.222
463	0.222
464	0.222
464	0.223
465	0.223
465	0.224
466	0.224
466	0.224
467	0.224
467	0.224
467	0.224
468	0.223
468	0.223
469	0.223
469	0.224
470	0.224
470	0.223
471	0.223
471	0.223
472	0.223
472	0.224
472	0.224
473	0.225
473	0.225
474	0.226
474	0.226
475	0.227
475	0.227
476	0.228
476	0.228
477	0.229
477	0.229
477	0.229
478	0.23
478	0.23
479	0.23
479	0.231
480	0.231
480	0.231
481	0.232
481	0.232
482	0.233
482	0.233
482	0.234
483	0.235
483	0.236
484	0.237
484	0.237
485	0.237
485	0.238
486	0.239
486	0.24
487	0.24
487	0.241
487	0.242
488	0.242
488	0.243
489	0.243
489	0.245
490	0.246
490	0.246
491	0.247
491	0.248
492	0.249
492	0.249
492	0.25
493	0.251
493	0.252
494	0.253
494	0.254
495	0.255
495	0.256
496	0.257
496	0.258
496	0.26
497	0.261
497	0.263
498	0.264
498	0.265
499	0.266
499	0.267
500	0.268
500	0.27
501	0.271
501	0.272
501	0.273
502	0.274
502	0.275
503	0.277
503	0.278
504	0.28
504	0.281
505	0.283
505	0.285
506	0.286
506	0.288
506	0.29
507	0.292
507	0.294
508	0.296
508	0.297
509	0.299
509	0.3
510	0.302
510	0.304
511	0.306
511	0.307
511	0.309
512	0.31
512	0.312
513	0.313
513	0.314
514	0.316
514	0.317
515	0.319
515	0.319
515	0.32
516	0.321
516	0.323
517	0.324
517	0.325
518	0.326
518	0.327
519	0.328
519	0.329
520	0.33
520	0.331
520	0.332
521	0.332
521	0.333
522	0.334
522	0.335
523	0.335
523	0.336
524	0.337
524	0.337
524	0.338
525	0.339
525	0.339
526	0.34
526	0.341
527	0.341
527	0.341
528	0.341
528	0.342
529	0.342
529	0.342
529	0.342
530	0.342
530	0.342
531	0.341
531	0.341
532	0.341
532	0.34
533	0.34
533	0.34
533	0.34
534	0.339
534	0.339
535	0.338
535	0.338
536	0.337
536	0.337
537	0.336
537	0.336
538	0.335
538	0.334
538	0.334
539	0.333
539	0.332
540	0.331
540	0.33
541	0.329
541	0.328
542	0.327
542	0.326
542	0.325
543	0.324
543	0.323
544	0.321
544	0.321
545	0.319
545	0.318
546	0.317
546	0.316
547	0.314
547	0.313
547	0.312
548	0.311
548	0.31
549	0.309
549	0.308
550	0.306
550	0.305
551	0.303
551	0.302
551	0.301
552	0.299
552	0.298
553	0.296
553	0.295
554	0.294
554	0.292
555	0.29
555	0.289
556	0.287
556	0.286
556	0.284
557	0.283
557	0.282
558	0.281
558	0.28
559	0.279
559	0.278
560	0.276
560	0.275
560	0.274
561	0.273
561	0.272
562	0.271
562	0.269
563	0.268
563	0.267
564	0.266
564	0.265
564	0.264
565	0.264
565	0.263
566	0.262
566	0.261
567	0.26
567	0.259
568	0.258
568	0.257
568	0.256
569	0.254
569	0.253
570	0.251
570	0.249
571	0.249
571	0.248
572	0.247
572	0.245
573	0.244
573	0.243
573	0.241
574	0.24
574	0.24
575	0.24
575	0.241
576	0.24
576	0.238
577	0.237
577	0.236
577	0.237
578	0.237
578	0.237
579	0.238
579	0.238
580	0.236
580	0.234
581	0.232
581	0.231
581	0.232
582	0.232
582	0.232
583	0.232
583	0.23
584	0.228
584	0.226
585	0.227
585	0.227
585	0.227
586	0.227
586	0.226
587	0.224
587	0.223
588	0.221
588	0.221
589	0.22
589	0.22
590	0.219
590	0.219
590	0.22
591	0.22
591	0.219
592	0.219
592	0.218
593	0.218
593	0.218
594	0.217
594	0.217
594	0.216
595	0.216
595	0.214
596	0.213
596	0.214
597	0.216
597	0.216
598	0.215
598	0.215
598	0.215
599	0.215
599	0.214
600	0.214
600	0.214
601	0.215
601	0.215
602	0.214
602	0.214
602	0.214
603	0.214
603	0.215
604	0.215
604	0.215
605	0.216
605	0.216
606	0.215
606	0.214
606	0.214
607	0.213
607	0.213
608	0.212
608	0.211
609	0.21
609	0.21
610	0.209
610	0.209
610	0.209
611	0.209
611	0.209
612	0.209
612	0.209
613	0.21
613	0.21
614	0.21
614	0.209
614	0.208
615	0.208
615	0.207
616	0.207
616	0.206
617	0.206
617	0.205
618	0.204
618	0.204
618	0.204
619	0.203
619	0.203
620	0.204
620	0.204
621	0.203
621	0.203
622	0.203
622	0.202
622	0.201
623	0.2
623	0.201
624	0.201
624	0.199
625	0.198
625	0.198
626	0.197
626	0.196
626	0.196
627	0.195
627	0.195
628	0.194
628	0.194
629	0.192
629	0.192
630	0.19
630	0.189
630	0.188
631	0.188
631	0.186
632	0.185
632	0.183
633	0.182
633	0.18
634	0.179
634	0.178
634	0.177
635	0.176
635	0.174
636	0.173
636	0.171
637	0.169
637	0.167
638	0.165
638	0.163
638	0.161
639	0.158
639	0.155
640	0.152
640	0.149
641	0.146
641	0.143
642	0.139
642	0.136
642	0.133
643	0.129
643	0.125
644	0.12
644	0.116
645	0.112
645	0.108
646	0.103
646	0.098
646	0.092
647	0.086
647	0.079
648	0.073
648	0.066
649	0.059
649	0.053
650	0.046
650	0.039
650	0.031
651	0.022
651	0.011
652	-0.002
652	-0.015
653	-0.028
653	-0.039
653	-0.035
654	-0.016
654	-0.012
655	-0.018
655	-0.023
656	-0.03
656	-0.037
657	-0.043
657	-0.047
657	-0.054
658	-0.062
658	-0.094
659	-0.182
659	-0.272
660	-0.312
660	-0.34
661	-0.368
661	-0.4
661	-0.432
662	-0.461
662	-0.492
663	-0.528
663	-0.567
664	-0.604
664	-0.646
665	-0.692
665	-0.739
665	-0.784
666	-0.835
666	-0.891
667	-0.946
667	-1.009
668	-1.069
668	-1.138
669	-1.206
669	-1.278
669	-1.355
670	-1.434
670	-1.535
671	-1.664
671	-1.917
672	-2.229
672	-2.417
672	-2.551
673	-2.655
673	-2.741
674	-2.822
674	-2.847
675	-2.865
675	-2.871
676	-2.872
676	-2.848
676	-2.785
677	-2.709
677	-2.621
678	-2.494
678	-2.303
679	-1.937
679	-1.69
680	-1.567
680	-1.483
680	-1.409
681	-1.354
681	-1.296
682	-1.249
682	-1.203
683	-1.158
683	-1.13
684	-1.099
684	-1.078
684	-1.052
685	-1.03
685	-1.017
686	-0.993
686	-0.977
687	-0.966
687	-0.954
687	-0.953
688	-0.936
688	-0.926
689	-0.928
689	-0.924
690	-0.91
690	-0.898
691	-0.895
691	-0.898
691	-0.897
692	-0.896
692	-0.89
693	-0.897
693	-0.907
694	-0.887
694	-0.887
695	-0.887
695	-0.881
695	-0.887
696	-0.892
696	-0.884
697	-0.877
697	-0.874
698	-0.869
698	-0.862
698	-0.877
699	-0.874
699	-0.876
700	-0.896
700	-0.892
701	-0.879
701	-0.875
702	-0.874
702	-0.872
702	-0.872
703	-0.863
703	-0.851
704	-0.858
704	-0.862
705	-0.851
705	-0.85
705	-0.843
706	-0.836
706	-0.832
707	-0.842
707	-0.845
708	-0.843
708	-0.84
709	-0.841
709	-0.836
709	-0.831
710	-0.838
710	-0.841
711	-0.84
711	-0.841
712	-0.833
712	-0.83
713	-0.836
713	-0.836
713	-0.816
714	-0.817
714	-0.821
715	-0.81
715	-0.819
716	-0.834
716	-0.842
716	-0.844
717	-0.851
717	-0.841
718	-0.836
718	-0.837
719	-0.833
719	-0.825
720	-0.823
720	-0.818
720	-0.812
721	-0.805
721	-0.808
722	-0.805
722	-0.803
723	-0.819
723	-0.833
723	-0.841
724	-0.84
724	-0.844
725	-0.837
725	-0.839
726	-0.842
726	-0.834
727	-0.835
727	-0.84
727	-0.831
728	-0.817
728	-0.815
729	-0.817
729	-0.82
730	-0.827
730	-0.817
730	-0.823
731	-0.824
731	-0.823
732	-0.826
732	-0.82
733	-0.837
733	-0.841
734	-0.849
734	-0.841
734	-0.825
735	-0.816
735	-0.812
736	-0.811
736	-0.807
737	-0.807
737	-0.796
737	-0.786
738	-0.773
738	-0.76
739	-0.762
739	-0.761
740	-0.774
740	-0.774
741	-0.786
741	-0.794
741	-0.805
742	-0.812
742	-0.827
743	-0.834
743	-0.838
744	-0.841
744	-0.849
744	-0.843
745	-0.852
745	-0.84
746	-0.836
746	-0.826
747	-0.829
747	-0.819
748	-0.819
748	-0.823
748	-0.824
749	-0.816
749	-0.821
750	-0.812
750	-0.811
751	-0.811
751	-0.809
751	-0.819
752	-0.824
752	-0.828
753	-0.83
753	-0.823
754	-0.841
754	-0.842
754	-0.85
755	-0.852
755	-0.844
756	-0.847
756	-0.834
757	-0.825
757	-0.813
758	-0.813
758	-0.814
758	-0.81
759	-0.815
759	-0.814
760	-0.812
760	-0.815
761	-0.807
761	-0.81
761	-0.81
762	-0.817
762	-0.819
763	-0.818
763	-0.823
764	-0.822
764	-0.821
764	-0.827
765	-0.825
765	-0.833
766	-0.837
766	-0.839
767	-0.853
767	-0.846
768	-0.846
768	-0.838
768	-0.832
769	-0.835
769	-0.842
770	-0.849
770	-0.854
771	-0.851
771	-0.849
771	-0.855
772	-0.86
772	-0.879
773	-0.879
773	-0.879
774	-0.877
774	-0.859
775	-0.848
775	-0.847
775	-0.85
776	-0.863
776	-0.859
777	-0.859
777	-0.843
778	-0.853
778	-0.861
778	-0.861
779	-0.87
779	-0.886
780	-0.882
780	-0.892
781	-0.881
781	-0.87
781	-0.884
782	-0.905
782	-0.905
783	-0.905
783	-0.914
784	-0.918
784	-0.912
784	-0.932
785	-0.923
785	-0.935
786	-0.938
786	-0.931
787	-0.922
787	-0.929
788	-0.921
788	-0.914
788	-0.915
789	-0.916
789	-0.905
790	-0.906
790	-0.889
791	-0.895
791	-0.889
791	-0.882
792	-0.877
792	-0.882
793	-0.885
793	-0.873
794	-0.865
794	-0.856
794	-0.862
795	-0.883
795	-0.871
796	-0.877
796	-0.874
797	-0.868
797	-0.858
797	-0.85
798	-0.87
798	-0.875
799	-0.875
799	-0.861
800	-0.856
800	-0.866
801	-0.862
801	-0.866
801	-0.863
802	-0.862
802	-0.862
803	-0.856
803	-0.847
804	-0.854
804	-0.861
804	-0.846
805	-0.825
805	-0.816
806	-0.815
806	-0.81
807	-0.812
807	-0.81
807	-0.793
808	-0.791
808	-0.784
809	-0.779
809	-0.779
810	-0.783
810	-0.78
810	-0.777
811	-0.782
811	-0.773
812	-0.767
812	-0.769
813	-0.774
813	-0.773
813	-0.769
814	-0.77
814	-0.775
815	-0.766
815	-0.762
816	-0.757
816	-0.774
817	-0.787
817	-0.793
817	-0.801
818	-0.794
818	-0.791
819	-0.801
819	-0.799
820	-0.81
820	-0.81
820	-0.809
821	-0.804
821	-0.8
822	-0.798
822	-0.788
823	-0.799
823	-0.799
823	-0.793
824	-0.791
824	-0.802
825	-0.8
825	-0.796
826	-0.792
826	-0.787
826	-0.785
827	-0.783
827	-0.772
828	-0.772
828	-0.768
829	-0.759
829	-0.742
829	-0.741
830	-0.741
830	-0.725
831	-0.719
831	-0.71
832	-0.701
832	-0.695
832	-0.687
833	-0.685
833	-0.691
834	-0.686
834	-0.68
835	-0.671
835	-0.671
835	-0.666
836	-0.661
836	-0.657
837	-0.647
837	-0.637
838	-0.623
838	-0.606
839	-0.602
839	-0.589
839	-0.578
840	-0.576
840	-0.566
841	-0.556
841	-0.549
842	-0.541
842	-0.53
842	-0.528
843	-0.523
843	-0.518
844	-0.515
844	-0.504
845	-0.489
845	-0.48
845	-0.467
846	-0.455
846	-0.443
847	-0.431
847	-0.419
848	-0.404
848	-0.386
848	-0.371
849	-0.357
849	-0.346
850	-0.334
850	-0.323
851	-0.31
851	-0.293
851	-0.282
852	-0.266
852	-0.254
853	-0.245
853	-0.234
854	-0.222
854	-0.21
854	-0.198
855	-0.186
855	-0.178
856	-0.17
856	-0.162
857	-0.153
857	-0.143
857	-0.13
858	-0.118
858	-0.111
859	-0.099
859	-0.087
860	-0.076
860	-0.06
860	-0.049
861	-0.038
861	-0.027
862	-0.017
862	-0.008
863	0.002
863	0.012
863	0.02
864	0.026
864	0.035
865	0.042
865	0.048
866	0.054
866	0.06
866	0.065
867	0.07
867	0.076
868	0.08
868	0.086
869	0.091
869	0.094
869	0.097
870	0.099
870	0.101
871	0.103
871	0.104
872	0.105
872	0.106
872	0.107
873	0.107
873	0.107
874	0.106
874	0.106
875	0.106
875	0.105
875	0.105
876	0.105
876	0.104
877	0.104
877	0.103
878	0.103
878	0.102
878	0.102
879	0.101
879	0.1
880	0.099
880	0.098
881	0.097
881	0.096
881	0.096
882	0.094
882	0.093
883	0.091
883	0.09
884	0.09
884	0.089
884	0.088
885	0.088
885	0.088
886	0.088
886	0.087
887	0.087
887	0.087
887	0.086
888	0.086
888	0.085
889	0.084
889	0.084
890	0.083
890	0.082
890	0.082
891	0.082
891	0.081
892	0.081
892	0.081
893	0.081
893	0.082
893	0.082
894	0.082
894	0.082
895	0.082
895	0.083
895	0.082
896	0.083
896	0.083
897	0.084
897	0.084
898	0.084
898	0.085
898	0.085
899	0.085
899	0.086
900	0.086
900	0.086
901	0.085
901	0.085
901	0.085
902	0.085
902	0.085
903	0.085
903	0.085
904	0.085
904	0.085
904	0.085
905	0.086
905	0.086
906	0.086
906	0.087
907	0.087
907	0.087
907	0.087
908	0.087
908	0.087
909	0.087
909	0.087
910	0.087
910	0.087
910	0.086
911	0.086
911	0.087
912	0.087
912	0.088
913	0.089
913	0.09
913	0.091
914	0.092
914	0.093
915	0.094
915	0.095
916	0.095
916	0.096
916	0.096
917	0.096
917	0.097
918	0.097
918	0.097
918	0.097
919	0.097
919	0.098
920	0.098
920	0.098
921	0.099
921	0.099
921	0.099
922	0.099
922	0.099
923	0.098
923	0.098
924	0.097
924	0.096
924	0.094
925	0.093
925	0.092
926	0.09
926	0.088
927	0.087
927	0.086
927	0.085
928	0.084
928	0.083
929	0.083
929	0.083
930	0.083
930	0.084
930	0.084
931	0.085
931	0.086
932	0.087
932	0.088
933	0.089
933	0.089
933	0.089
934	0.089
934	0.089
935	0.089
935	0.089
935	0.088
936	0.086
936	0.085
937	0.084
937	0.082
938	0.081
938	0.079
938	0.078
939	0.077
939	0.076
940	0.075
940	0.074
941	0.074
941	0.073
941	0.073
942	0.073
942	0.073
943	0.074
943	0.073
944	0.073
944	0.072
944	0.072
945	0.072
945	0.071
946	0.071
946	0.07
946	0.07
947	0.07
947	0.07
948	0.07
948	0.071
949	0.071
949	0.073
949	0.074
950	0.075
950	0.076
951	0.077
951	0.078
952	0.078
952	0.079
952	0.08
953	0.081
953	0.081
954	0.081
954	0.081
955	0.081
955	0.081
955	0.08
956	0.079
956	0.079
957	0.077
957	0.076
957	0.075
958	0.074
958	0.073
959	0.073
959	0.072
960	0.071
960	0.071
960	0.071
961	0.07
961	0.07
962	0.07
962	0.07
963	0.07
963	0.07
963	0.071
964	0.072
964	0.072
965	0.073
965	0.074
966	0.074
966	0.075
966	0.076
967	0.076
967	0.076
968	0.076
968	0.076
968	0.076
969	0.077
969	0.077
970	0.077
970	0.077
971	0.077
971	0.078
971	0.078
972	0.079
972	0.08
973	0.081
973	0.081
974	0.081
974	0.081
974	0.082
975	0.082
975	0.082
976	0.081
976	0.081
976	0.081
977	0.08
977	0.079
978	0.078
978	0.077
979	0.076
979	0.075
979	0.074
980	0.074
980	0.073
981	0.072
981	0.072
982	0.072
982	0.071
982	0.071
983	0.072
983	0.072
984	0.072
984	0.071
984	0.071
985	0.071
985	0.07
986	0.069
986	0.068
987	0.066
987	0.065
987	0.064
988	0.063
988	0.062
989	0.061
989	0.06
990	0.059
990	0.058
990	0.058
991	0.058
991	0.058
992	0.058
992	0.058
992	0.058
993	0.059
993	0.058
994	0.058
994	0.057
995	0.057
995	0.056
995	0.055
996	0.054
996	0.053
997	0.052
997	0.051
997	0.05
998	0.05
998	0.05
999	0.05
999	0.05
1000	0.051
1000	0.051
1000	0.052
1001	0.053
1001	0.054
1002	0.054
1002	0.054
1003	0.054
1003	0.054
1003	0.054
1004	0.054
1004	0.053
1005	0.053
1005	0.052
1005	0.051
1006	0.05
1006	0.049
1007	0.048
1007	0.047
1008	0.046
1008	0.045
1008	0.045
1009	0.045
1009	0.045
1010	0.045
1010	0.045
1010	0.045
1011	0.046
1011	0.046
1012	0.047
1012	0.048
1013	0.049
1013	0.05
1013	0.05
1014	0.051
1014	0.051
1015	0.052
1015	0.052
1016	0.052
1016	0.052
1016	0.052
1017	0.052
1017	0.052
1018	0.052
1018	0.052
1018	0.051
1019	0.051
1019	0.05
1020	0.05
1020	0.049
1021	0.048
1021	0.047
1021	0.047
1022	0.046
1022	0.046
1023	0.046
1023	0.045
1023	0.045
1024	0.044
1024	0.044
1025	0.044
1025	0.044
1026	0.044
1026	0.044
1026	0.044
1027	0.044
1027	0.044
1028	0.044
1028	0.045
1028	0.045
1029	0.045
1029	0.045
1030	0.045
1030	0.044
1031	0.044
1031	0.045
1031	0.045
1032	0.045
1032	0.045
1033	0.044
1033	0.044
1033	0.044
1034	0.044
1034	0.044
1035	0.044
1035	0.044
1036	0.044
1036	0.044
1036	0.044
1037	0.045
1037	0.045
1038	0.046
1038	0.046
1039	0.047
1039	0.048
1039	0.049
1040	0.05
1040	0.051
1041	0.051
1041	0.051
1041	0.051
1042	0.05
1042	0.05
1043	0.049
1043	0.048
1044	0.047
1044	0.045
1044	0.044
1045	0.042
1045	0.041
1046	0.04
1046	0.04
1046	0.039
1047	0.039
1047	0.039
1048	0.039
1048	0.039
1049	0.039
1049	0.039
1049	0.039
1050	0.038
1050	0.038
1051	0.037
1051	0.036
1051	0.036
1052	0.035
1052	0.034
1053	0.033
1053	0.033
1053	0.032
1054	0.032
1054	0.031
1055	0.032
1055	0.032
1056	0.031
1056	0.031
1056	0.031
1057	0.031
1057	0.031
1058	0.03
1058	0.03
1058	0.03
1059	0.03
1059	0.029
1060	0.028
1060	0.028
1061	0.027
1061	0.028
1061	0.028
1062	0.027
1062	0.027
1063	0.027
1063	0.026
1063	0.026
1064	0.026
1064	0.027
1065	0.027
1065	0.027
1066	0.026
1066	0.026
1066	0.026
1067	0.026
1067	0.026
1068	0.026
1068	0.026
1068	0.026
1069	0.026
1069	0.025
1070	0.025
1070	0.024
1071	0.024
1071	0.024
1071	0.023
1072	0.023
1072	0.023
1073	0.023
1073	0.023
1073	0.023
1074	0.023
1074	0.023
1075	0.022
1075	0.022
1076	0.02
1076	0.02
1076	0.018
1077	0.017
1077	0.016
1078	0.014
1078	0.013
1078	0.012
1079	0.01
1079	0.01
1080	0.008
1080	0.007
1080	0.005
1081	0.004
1081	0.003
1082	0.003
1082	0.001
1083	-0
1083	-0.001
1083	-0.002
1084	-0.003
1084	-0.003
1085	-0.004
1085	-0.005
1085	-0.005
1086	-0.006
1086	-0.007
1087	-0.008
1087	-0.008
1088	-0.009
1088	-0.01
1088	-0.01
1089	-0.011
1089	-0.012
1090	-0.013
1090	-0.013
1090	-0.015
1091	-0.016
1091	-0.016
1092	-0.016
1092	-0.017
1092	-0.018
1093	-0.019
1093	-0.019
1094	-0.02
1094	-0.021
1095	-0.023
1095	-0.024
1095	-0.025
1096	-0.027
1096	-0.029
1097	-0.031
1097	-0.032
1097	-0.034
1098	-0.036
1098	-0.039
1099	-0.04
1099	-0.042
1100	-0.045
1100	-0.048
1100	-0.052
1101	-0.055
1101	-0.058
1102	-0.061
1102	-0.063
1102	-0.065
1103	-0.068
1103	-0.072
1104	-0.074
1104	-0.078
1104	-0.079
1105	-0.081
1105	-0.083
1106	-0.089
1106	-0.09
1107	-0.097
1107	-0.102
1107	-0.107
1108	-0.109
1108	-0.111
1109	-0.115
1109	-0.119
1109	-0.125
1110	-0.128
1110	-0.13
1111	-0.141
1111	-0.135
