Data from 3.4A_17C_Absorbance__616__01573.txt Node

Date: Tue Jun 20 16:00:17 CEST 2023
User: Marek
Spectrometer: MAYP115816
Trigger mode: 0
Integration Time (sec): 2.200000E-1
Scans to average: 10
Electric dark correction enabled: true
Nonlinearity correction enabled: true
Boxcar width: 5
XAxis mode: Wavelengths
Number of Pixels in Spectrum: 2068
>>>>>Begin Spectral Data<<<<<
199	-0.769
199	-0.751
200	-0.716
200	-0.659
201	-0.633
201	-0.625
202	-0.608
202	-0.602
203	-0.6
203	-0.594
204	-0.573
204	-0.555
205	-0.533
205	-0.523
205	-0.532
206	-0.532
206	-0.527
207	-0.519
207	-0.525
208	-0.528
208	-0.531
209	-0.533
209	-0.54
210	-0.552
210	-0.559
211	-0.553
211	-0.557
212	-0.566
212	-0.573
213	-0.571
213	-0.566
213	-0.565
214	-0.571
214	-0.572
215	-0.569
215	-0.575
216	-0.585
216	-0.591
217	-0.59
217	-0.591
218	-0.597
218	-0.598
219	-0.605
219	-0.608
220	-0.612
220	-0.62
221	-0.62
221	-0.619
221	-0.611
222	-0.611
222	-0.61
223	-0.607
223	-0.61
224	-0.609
224	-0.607
225	-0.604
225	-0.603
226	-0.605
226	-0.605
227	-0.612
227	-0.621
228	-0.625
228	-0.633
229	-0.638
229	-0.636
229	-0.635
230	-0.631
230	-0.628
231	-0.625
231	-0.621
232	-0.625
232	-0.618
233	-0.618
233	-0.606
234	-0.608
234	-0.603
235	-0.607
235	-0.618
236	-0.625
236	-0.626
236	-0.625
237	-0.622
237	-0.625
238	-0.624
238	-0.626
239	-0.627
239	-0.637
240	-0.63
240	-0.627
241	-0.622
241	-0.624
242	-0.628
242	-0.635
243	-0.633
243	-0.636
243	-0.641
244	-0.639
244	-0.638
245	-0.641
245	-0.645
246	-0.655
246	-0.658
247	-0.666
247	-0.652
248	-0.653
248	-0.656
249	-0.661
249	-0.661
250	-0.659
250	-0.667
250	-0.663
251	-0.663
251	-0.66
252	-0.66
252	-0.672
253	-0.666
253	-0.677
254	-0.683
254	-0.685
255	-0.699
255	-0.697
256	-0.701
256	-0.715
257	-0.725
257	-0.722
258	-0.723
258	-0.732
258	-0.73
259	-0.723
259	-0.742
260	-0.739
260	-0.728
261	-0.738
261	-0.721
262	-0.726
262	-0.726
263	-0.718
263	-0.724
264	-0.733
264	-0.733
265	-0.723
265	-0.727
265	-0.737
266	-0.729
266	-0.732
267	-0.731
267	-0.746
268	-0.753
268	-0.747
269	-0.739
269	-0.753
270	-0.758
270	-0.756
271	-0.77
271	-0.781
272	-0.78
272	-0.784
272	-0.777
273	-0.787
273	-0.801
274	-0.793
274	-0.787
275	-0.783
275	-0.771
276	-0.773
276	-0.778
277	-0.781
277	-0.775
278	-0.781
278	-0.781
278	-0.77
279	-0.782
279	-0.795
280	-0.797
280	-0.808
281	-0.802
281	-0.796
282	-0.802
282	-0.797
283	-0.789
283	-0.803
284	-0.816
284	-0.823
285	-0.803
285	-0.81
285	-0.801
286	-0.807
286	-0.821
287	-0.818
287	-0.817
288	-0.82
288	-0.8
289	-0.798
289	-0.808
290	-0.816
290	-0.805
291	-0.81
291	-0.808
292	-0.79
292	-0.786
292	-0.79
293	-0.776
293	-0.772
294	-0.772
294	-0.758
295	-0.741
295	-0.753
296	-0.763
296	-0.758
297	-0.746
297	-0.751
298	-0.746
298	-0.765
298	-0.77
299	-0.753
299	-0.744
300	-0.74
300	-0.72
301	-0.702
301	-0.705
302	-0.714
302	-0.699
303	-0.693
303	-0.679
304	-0.663
304	-0.666
305	-0.66
305	-0.669
305	-0.684
306	-0.668
306	-0.667
307	-0.659
307	-0.671
308	-0.673
308	-0.669
309	-0.671
309	-0.666
310	-0.663
310	-0.657
311	-0.644
311	-0.663
311	-0.65
312	-0.649
312	-0.639
313	-0.631
313	-0.633
314	-0.637
314	-0.635
315	-0.632
315	-0.627
316	-0.622
316	-0.612
317	-0.603
317	-0.599
318	-0.59
318	-0.589
318	-0.578
319	-0.568
319	-0.561
320	-0.56
320	-0.557
321	-0.552
321	-0.551
322	-0.545
322	-0.54
323	-0.54
323	-0.531
324	-0.53
324	-0.517
324	-0.505
325	-0.49
325	-0.471
326	-0.462
326	-0.438
327	-0.423
327	-0.402
328	-0.372
328	-0.349
329	-0.32
329	-0.295
330	-0.268
330	-0.234
330	-0.201
331	-0.166
331	-0.133
332	-0.1
332	-0.066
333	-0.036
333	-0.004
334	0.023
334	0.047
335	0.071
335	0.091
336	0.113
336	0.132
336	0.147
337	0.162
337	0.176
338	0.188
338	0.198
339	0.21
339	0.22
340	0.228
340	0.235
341	0.241
341	0.247
342	0.253
342	0.258
342	0.263
343	0.267
343	0.271
344	0.274
344	0.276
345	0.279
345	0.282
346	0.283
346	0.285
347	0.287
347	0.288
348	0.289
348	0.291
348	0.291
349	0.292
349	0.293
350	0.293
350	0.293
351	0.294
351	0.294
352	0.294
352	0.294
353	0.295
353	0.295
354	0.295
354	0.295
354	0.295
355	0.295
355	0.295
356	0.295
356	0.295
357	0.295
357	0.295
358	0.295
358	0.295
359	0.295
359	0.294
360	0.295
360	0.295
360	0.295
361	0.295
361	0.294
362	0.294
362	0.294
363	0.295
363	0.294
364	0.294
364	0.294
365	0.294
365	0.294
366	0.294
366	0.294
366	0.294
367	0.294
367	0.294
368	0.294
368	0.294
369	0.294
369	0.294
370	0.294
370	0.293
371	0.293
371	0.293
372	0.293
372	0.292
372	0.292
373	0.292
373	0.292
374	0.292
374	0.291
375	0.291
375	0.291
376	0.291
376	0.291
377	0.291
377	0.29
378	0.29
378	0.29
378	0.29
379	0.29
379	0.289
380	0.289
380	0.289
381	0.289
381	0.289
382	0.288
382	0.288
383	0.288
383	0.288
383	0.287
384	0.287
384	0.287
385	0.286
385	0.286
386	0.286
386	0.286
387	0.285
387	0.285
388	0.285
388	0.285
389	0.285
389	0.285
389	0.285
390	0.285
390	0.284
391	0.284
391	0.284
392	0.284
392	0.284
393	0.284
393	0.283
394	0.283
394	0.283
394	0.282
395	0.282
395	0.282
396	0.281
396	0.281
397	0.281
397	0.281
398	0.281
398	0.28
399	0.28
399	0.28
400	0.28
400	0.28
400	0.28
401	0.28
401	0.279
402	0.279
402	0.279
403	0.279
403	0.278
404	0.278
404	0.278
405	0.278
405	0.277
405	0.277
406	0.277
406	0.277
407	0.276
407	0.276
408	0.276
408	0.275
409	0.275
409	0.275
410	0.275
410	0.275
411	0.275
411	0.275
411	0.274
412	0.274
412	0.274
413	0.274
413	0.274
414	0.273
414	0.273
415	0.273
415	0.273
416	0.272
416	0.272
416	0.272
417	0.272
417	0.272
418	0.272
418	0.272
419	0.272
419	0.272
420	0.272
420	0.272
421	0.272
421	0.272
421	0.272
422	0.272
422	0.272
423	0.272
423	0.271
424	0.271
424	0.271
425	0.271
425	0.271
426	0.271
426	0.271
427	0.271
427	0.271
427	0.271
428	0.271
428	0.27
429	0.27
429	0.269
430	0.269
430	0.269
431	0.269
431	0.268
432	0.268
432	0.268
432	0.267
433	0.267
433	0.267
434	0.267
434	0.267
435	0.268
435	0.268
436	0.267
436	0.268
437	0.268
437	0.267
437	0.267
438	0.267
438	0.267
439	0.267
439	0.267
440	0.267
440	0.267
441	0.267
441	0.267
442	0.267
442	0.267
442	0.266
443	0.266
443	0.266
444	0.267
444	0.267
445	0.267
445	0.267
446	0.267
446	0.266
447	0.266
447	0.266
447	0.266
448	0.266
448	0.266
449	0.266
449	0.266
450	0.266
450	0.266
451	0.266
451	0.266
452	0.266
452	0.266
452	0.266
453	0.267
453	0.267
454	0.267
454	0.267
455	0.267
455	0.267
456	0.267
456	0.267
457	0.267
457	0.267
458	0.266
458	0.266
458	0.266
459	0.266
459	0.266
460	0.266
460	0.266
461	0.266
461	0.266
462	0.267
462	0.267
463	0.268
463	0.269
463	0.269
464	0.269
464	0.27
465	0.27
465	0.271
466	0.271
466	0.271
467	0.272
467	0.272
467	0.272
468	0.271
468	0.271
469	0.272
469	0.272
470	0.272
470	0.272
471	0.273
471	0.272
472	0.273
472	0.273
472	0.273
473	0.274
473	0.275
474	0.275
474	0.276
475	0.276
475	0.277
476	0.277
476	0.278
477	0.279
477	0.28
477	0.28
478	0.281
478	0.282
479	0.283
479	0.283
480	0.284
480	0.285
481	0.285
481	0.286
482	0.287
482	0.287
482	0.288
483	0.29
483	0.291
484	0.292
484	0.292
485	0.293
485	0.294
486	0.295
486	0.296
487	0.297
487	0.298
487	0.299
488	0.299
488	0.3
489	0.301
489	0.303
490	0.304
490	0.306
491	0.307
491	0.309
492	0.31
492	0.311
492	0.312
493	0.314
493	0.315
494	0.317
494	0.319
495	0.32
495	0.321
496	0.323
496	0.324
496	0.326
497	0.328
497	0.33
498	0.331
498	0.333
499	0.334
499	0.336
500	0.339
500	0.341
501	0.343
501	0.344
501	0.346
502	0.347
502	0.349
503	0.351
503	0.353
504	0.355
504	0.357
505	0.359
505	0.362
506	0.364
506	0.366
506	0.369
507	0.371
507	0.373
508	0.376
508	0.378
509	0.38
509	0.383
510	0.385
510	0.387
511	0.389
511	0.391
511	0.393
512	0.396
512	0.397
513	0.399
513	0.401
514	0.403
514	0.405
515	0.407
515	0.408
515	0.409
516	0.411
516	0.413
517	0.415
517	0.417
518	0.418
518	0.419
519	0.421
519	0.422
520	0.423
520	0.425
520	0.427
521	0.427
521	0.428
522	0.429
522	0.43
523	0.431
523	0.432
524	0.433
524	0.434
524	0.435
525	0.436
525	0.436
526	0.437
526	0.438
527	0.438
527	0.438
528	0.438
528	0.438
529	0.438
529	0.438
529	0.438
530	0.437
530	0.437
531	0.437
531	0.436
532	0.435
532	0.435
533	0.435
533	0.434
533	0.434
534	0.433
534	0.432
535	0.432
535	0.431
536	0.43
536	0.43
537	0.429
537	0.428
538	0.427
538	0.426
538	0.425
539	0.424
539	0.423
540	0.421
540	0.42
541	0.418
541	0.416
542	0.415
542	0.413
542	0.411
543	0.409
543	0.407
544	0.405
544	0.404
545	0.402
545	0.4
546	0.398
546	0.396
547	0.394
547	0.392
547	0.39
548	0.388
548	0.386
549	0.384
549	0.382
550	0.38
550	0.378
551	0.375
551	0.373
551	0.371
552	0.369
552	0.367
553	0.365
553	0.363
554	0.361
554	0.358
555	0.356
555	0.354
556	0.352
556	0.35
556	0.348
557	0.346
557	0.344
558	0.342
558	0.34
559	0.339
559	0.337
560	0.335
560	0.333
560	0.331
561	0.33
561	0.328
562	0.326
562	0.325
563	0.323
563	0.321
564	0.319
564	0.317
564	0.316
565	0.314
565	0.313
566	0.311
566	0.31
567	0.308
567	0.307
568	0.305
568	0.303
568	0.302
569	0.3
569	0.298
570	0.295
570	0.293
571	0.292
571	0.29
572	0.289
572	0.287
573	0.285
573	0.283
573	0.282
574	0.281
574	0.28
575	0.279
575	0.28
576	0.279
576	0.276
577	0.274
577	0.273
577	0.273
578	0.272
578	0.272
579	0.272
579	0.272
580	0.27
580	0.268
581	0.265
581	0.264
581	0.265
582	0.264
582	0.264
583	0.263
583	0.262
584	0.259
584	0.256
585	0.256
585	0.256
585	0.255
586	0.254
586	0.253
587	0.251
587	0.249
588	0.247
588	0.246
589	0.246
589	0.245
590	0.244
590	0.244
590	0.244
591	0.244
591	0.243
592	0.243
592	0.242
593	0.241
593	0.241
594	0.24
594	0.239
594	0.238
595	0.237
595	0.235
596	0.234
596	0.234
597	0.236
597	0.235
598	0.235
598	0.235
598	0.234
599	0.234
599	0.233
600	0.233
600	0.233
601	0.233
601	0.233
602	0.232
602	0.231
602	0.231
603	0.23
603	0.231
604	0.23
604	0.23
605	0.23
605	0.23
606	0.229
606	0.227
606	0.226
607	0.225
607	0.225
608	0.224
608	0.222
609	0.221
609	0.221
610	0.22
610	0.219
610	0.22
611	0.22
611	0.219
612	0.219
612	0.22
613	0.22
613	0.22
614	0.219
614	0.218
614	0.217
615	0.216
615	0.215
616	0.215
616	0.215
617	0.214
617	0.213
618	0.213
618	0.212
618	0.212
619	0.211
619	0.211
620	0.212
620	0.211
621	0.21
621	0.209
622	0.208
622	0.207
622	0.206
623	0.204
623	0.204
624	0.204
624	0.202
625	0.201
625	0.2
626	0.199
626	0.198
626	0.198
627	0.198
627	0.197
628	0.196
628	0.195
629	0.194
629	0.194
630	0.192
630	0.191
630	0.19
631	0.188
631	0.187
632	0.185
632	0.183
633	0.181
633	0.179
634	0.178
634	0.176
634	0.174
635	0.172
635	0.17
636	0.168
636	0.166
637	0.163
637	0.161
638	0.158
638	0.156
638	0.153
639	0.149
639	0.145
640	0.142
640	0.138
641	0.135
641	0.131
642	0.128
642	0.124
642	0.121
643	0.116
643	0.112
644	0.108
644	0.103
645	0.099
645	0.094
646	0.089
646	0.084
646	0.078
647	0.072
647	0.066
648	0.06
648	0.053
649	0.046
649	0.04
650	0.033
650	0.026
650	0.019
651	0.01
651	-0.002
652	-0.015
652	-0.029
653	-0.042
653	-0.052
653	-0.048
654	-0.03
654	-0.025
655	-0.031
655	-0.036
656	-0.042
656	-0.048
657	-0.053
657	-0.057
657	-0.064
658	-0.072
658	-0.103
659	-0.188
659	-0.278
660	-0.317
660	-0.345
661	-0.373
661	-0.403
661	-0.435
662	-0.465
662	-0.497
663	-0.533
663	-0.572
664	-0.609
664	-0.652
665	-0.699
665	-0.748
665	-0.795
666	-0.847
666	-0.904
667	-0.96
667	-1.024
668	-1.085
668	-1.154
669	-1.224
669	-1.298
669	-1.378
670	-1.46
670	-1.571
671	-1.732
671	-2.072
672	-2.314
672	-2.476
672	-2.596
673	-2.692
673	-2.771
674	-2.837
674	-2.854
675	-2.87
675	-2.874
676	-2.871
676	-2.824
676	-2.756
677	-2.673
677	-2.575
678	-2.43
678	-2.197
679	-1.808
679	-1.631
680	-1.523
680	-1.444
680	-1.375
681	-1.325
681	-1.27
682	-1.226
682	-1.182
683	-1.138
683	-1.112
684	-1.081
684	-1.061
684	-1.036
685	-1.014
685	-1.002
686	-0.978
686	-0.962
687	-0.95
687	-0.937
687	-0.934
688	-0.918
688	-0.908
689	-0.91
689	-0.908
690	-0.893
690	-0.882
691	-0.879
691	-0.881
691	-0.882
692	-0.88
692	-0.875
693	-0.882
693	-0.892
694	-0.871
694	-0.869
695	-0.872
695	-0.865
695	-0.871
696	-0.878
696	-0.87
697	-0.863
697	-0.86
698	-0.854
698	-0.844
698	-0.857
699	-0.857
699	-0.857
700	-0.877
700	-0.871
701	-0.857
701	-0.852
702	-0.855
702	-0.852
702	-0.853
703	-0.844
703	-0.833
704	-0.84
704	-0.843
705	-0.833
705	-0.832
705	-0.828
706	-0.821
706	-0.815
707	-0.827
707	-0.83
708	-0.828
708	-0.825
709	-0.826
709	-0.821
709	-0.815
710	-0.822
710	-0.822
711	-0.82
711	-0.819
712	-0.811
712	-0.807
713	-0.811
713	-0.812
713	-0.792
714	-0.793
714	-0.796
715	-0.79
715	-0.799
716	-0.817
716	-0.827
716	-0.827
717	-0.832
717	-0.826
718	-0.82
718	-0.82
719	-0.818
719	-0.81
720	-0.805
720	-0.799
720	-0.792
721	-0.784
721	-0.788
722	-0.785
722	-0.78
723	-0.799
723	-0.813
723	-0.82
724	-0.82
724	-0.823
725	-0.818
725	-0.822
726	-0.825
726	-0.816
727	-0.82
727	-0.827
727	-0.816
728	-0.803
728	-0.799
729	-0.802
729	-0.807
730	-0.812
730	-0.803
730	-0.808
731	-0.811
731	-0.811
732	-0.813
732	-0.808
733	-0.822
733	-0.83
734	-0.837
734	-0.825
734	-0.807
735	-0.797
735	-0.792
736	-0.79
736	-0.783
737	-0.782
737	-0.77
737	-0.762
738	-0.748
738	-0.736
739	-0.74
739	-0.742
740	-0.755
740	-0.756
741	-0.768
741	-0.78
741	-0.789
742	-0.798
742	-0.814
743	-0.82
743	-0.823
744	-0.827
744	-0.834
744	-0.829
745	-0.838
745	-0.826
746	-0.82
746	-0.811
747	-0.814
747	-0.805
748	-0.805
748	-0.809
748	-0.811
749	-0.804
749	-0.81
750	-0.799
750	-0.801
751	-0.799
751	-0.796
751	-0.806
752	-0.809
752	-0.813
753	-0.815
753	-0.806
754	-0.825
754	-0.825
754	-0.833
755	-0.833
755	-0.827
756	-0.83
756	-0.815
757	-0.807
757	-0.798
758	-0.799
758	-0.798
758	-0.795
759	-0.798
759	-0.797
760	-0.795
760	-0.796
761	-0.791
761	-0.797
761	-0.798
762	-0.804
762	-0.803
763	-0.803
763	-0.806
764	-0.806
764	-0.802
764	-0.809
765	-0.808
765	-0.815
766	-0.818
766	-0.819
767	-0.833
767	-0.829
768	-0.828
768	-0.821
768	-0.814
769	-0.82
769	-0.829
770	-0.837
770	-0.84
771	-0.837
771	-0.836
771	-0.842
772	-0.847
772	-0.866
773	-0.867
773	-0.868
774	-0.864
774	-0.846
775	-0.835
775	-0.835
775	-0.835
776	-0.844
776	-0.84
777	-0.839
777	-0.822
778	-0.831
778	-0.839
778	-0.839
779	-0.847
779	-0.863
780	-0.857
780	-0.868
781	-0.861
781	-0.85
781	-0.866
782	-0.886
782	-0.889
783	-0.887
783	-0.896
784	-0.901
784	-0.893
784	-0.914
785	-0.906
785	-0.917
786	-0.922
786	-0.914
787	-0.904
787	-0.912
788	-0.904
788	-0.898
788	-0.898
789	-0.897
789	-0.887
790	-0.887
790	-0.872
791	-0.878
791	-0.873
791	-0.867
792	-0.861
792	-0.865
793	-0.869
793	-0.856
794	-0.85
794	-0.842
794	-0.849
795	-0.867
795	-0.852
796	-0.858
796	-0.852
797	-0.845
797	-0.836
797	-0.827
798	-0.848
798	-0.855
799	-0.855
799	-0.841
800	-0.836
800	-0.845
801	-0.844
801	-0.85
801	-0.848
802	-0.848
802	-0.848
803	-0.84
803	-0.83
804	-0.837
804	-0.846
804	-0.829
805	-0.811
805	-0.801
806	-0.802
806	-0.798
807	-0.8
807	-0.799
807	-0.784
808	-0.778
808	-0.771
809	-0.765
809	-0.765
810	-0.768
810	-0.765
810	-0.758
811	-0.762
811	-0.752
812	-0.746
812	-0.749
813	-0.753
813	-0.754
813	-0.75
814	-0.751
814	-0.756
815	-0.747
815	-0.744
816	-0.738
816	-0.754
817	-0.765
817	-0.769
817	-0.781
818	-0.774
818	-0.771
819	-0.78
819	-0.779
820	-0.79
820	-0.792
820	-0.792
821	-0.787
821	-0.784
822	-0.784
822	-0.771
823	-0.782
823	-0.782
823	-0.777
824	-0.773
824	-0.786
825	-0.783
825	-0.78
826	-0.776
826	-0.77
826	-0.769
827	-0.77
827	-0.759
828	-0.759
828	-0.754
829	-0.749
829	-0.731
829	-0.728
830	-0.727
830	-0.714
831	-0.709
831	-0.698
832	-0.687
832	-0.683
832	-0.675
833	-0.673
833	-0.68
834	-0.676
834	-0.671
835	-0.663
835	-0.661
835	-0.656
836	-0.652
836	-0.65
837	-0.639
837	-0.631
838	-0.619
838	-0.602
839	-0.595
839	-0.582
839	-0.572
840	-0.573
840	-0.562
841	-0.55
841	-0.543
842	-0.534
842	-0.52
842	-0.517
843	-0.513
843	-0.509
844	-0.506
844	-0.494
845	-0.478
845	-0.467
845	-0.457
846	-0.445
846	-0.434
847	-0.423
847	-0.41
848	-0.394
848	-0.378
848	-0.365
849	-0.354
849	-0.343
850	-0.334
850	-0.324
851	-0.311
851	-0.295
851	-0.286
852	-0.27
852	-0.258
853	-0.248
853	-0.236
854	-0.225
854	-0.214
854	-0.202
855	-0.191
855	-0.184
856	-0.176
856	-0.167
857	-0.159
857	-0.151
857	-0.138
858	-0.127
858	-0.12
859	-0.109
859	-0.098
860	-0.086
860	-0.071
860	-0.062
861	-0.052
861	-0.042
862	-0.033
862	-0.025
863	-0.017
863	-0.007
863	-0.002
864	0.003
864	0.009
865	0.016
865	0.022
866	0.028
866	0.033
866	0.038
867	0.043
867	0.048
868	0.053
868	0.058
869	0.062
869	0.065
869	0.067
870	0.069
870	0.071
871	0.072
871	0.073
872	0.073
872	0.074
872	0.074
873	0.075
873	0.075
874	0.074
874	0.074
875	0.074
875	0.074
875	0.074
876	0.075
876	0.075
877	0.074
877	0.074
878	0.074
878	0.073
878	0.073
879	0.072
879	0.071
880	0.07
880	0.069
881	0.067
881	0.066
881	0.065
882	0.064
882	0.062
883	0.062
883	0.061
884	0.061
884	0.061
884	0.06
885	0.06
885	0.061
886	0.061
886	0.061
887	0.061
887	0.061
887	0.061
888	0.062
888	0.061
889	0.06
889	0.06
890	0.06
890	0.059
890	0.059
891	0.059
891	0.059
892	0.059
892	0.059
893	0.059
893	0.06
893	0.06
894	0.06
894	0.06
895	0.06
895	0.059
895	0.06
896	0.06
896	0.06
897	0.061
897	0.061
898	0.061
898	0.061
898	0.061
899	0.061
899	0.062
900	0.062
900	0.062
901	0.062
901	0.061
901	0.062
902	0.062
902	0.062
903	0.062
903	0.062
904	0.062
904	0.062
904	0.062
905	0.062
905	0.062
906	0.062
906	0.063
907	0.063
907	0.063
907	0.063
908	0.063
908	0.064
909	0.064
909	0.064
910	0.064
910	0.065
910	0.065
911	0.065
911	0.066
912	0.067
912	0.068
913	0.069
913	0.07
913	0.071
914	0.072
914	0.072
915	0.072
915	0.073
916	0.073
916	0.072
916	0.072
917	0.072
917	0.071
918	0.071
918	0.07
918	0.07
919	0.07
919	0.069
920	0.069
920	0.069
921	0.069
921	0.069
921	0.069
922	0.069
922	0.069
923	0.069
923	0.069
924	0.068
924	0.068
924	0.068
925	0.068
925	0.067
926	0.067
926	0.066
927	0.066
927	0.065
927	0.065
928	0.064
928	0.064
929	0.064
929	0.064
930	0.064
930	0.064
930	0.064
931	0.065
931	0.065
932	0.066
932	0.067
933	0.067
933	0.067
933	0.067
934	0.067
934	0.066
935	0.065
935	0.064
935	0.063
936	0.061
936	0.059
937	0.058
937	0.057
938	0.056
938	0.055
938	0.054
939	0.053
939	0.052
940	0.051
940	0.051
941	0.05
941	0.05
941	0.05
942	0.049
942	0.048
943	0.048
943	0.048
944	0.047
944	0.046
944	0.046
945	0.046
945	0.046
946	0.045
946	0.045
946	0.045
947	0.045
947	0.045
948	0.045
948	0.045
949	0.046
949	0.047
949	0.048
950	0.049
950	0.05
951	0.051
951	0.051
952	0.052
952	0.053
952	0.053
953	0.054
953	0.054
954	0.054
954	0.054
955	0.054
955	0.053
955	0.053
956	0.052
956	0.052
957	0.051
957	0.05
957	0.049
958	0.049
958	0.049
959	0.049
959	0.048
960	0.048
960	0.049
960	0.049
961	0.049
961	0.05
962	0.051
962	0.051
963	0.052
963	0.052
963	0.053
964	0.054
964	0.055
965	0.055
965	0.056
966	0.056
966	0.056
966	0.057
967	0.057
967	0.056
968	0.055
968	0.055
968	0.054
969	0.054
969	0.054
970	0.053
970	0.053
971	0.053
971	0.054
971	0.054
972	0.055
972	0.056
973	0.056
973	0.057
974	0.057
974	0.057
974	0.058
975	0.058
975	0.058
976	0.058
976	0.058
976	0.058
977	0.057
977	0.056
978	0.055
978	0.053
979	0.052
979	0.051
979	0.049
980	0.048
980	0.047
981	0.047
981	0.046
982	0.046
982	0.046
982	0.046
983	0.046
983	0.046
984	0.046
984	0.046
984	0.046
985	0.045
985	0.045
986	0.043
986	0.043
987	0.041
987	0.04
987	0.039
988	0.038
988	0.037
989	0.036
989	0.036
990	0.035
990	0.035
990	0.035
991	0.035
991	0.036
992	0.036
992	0.037
992	0.037
993	0.038
993	0.038
994	0.038
994	0.037
995	0.037
995	0.036
995	0.035
996	0.035
996	0.034
997	0.032
997	0.032
997	0.031
998	0.031
998	0.031
999	0.031
999	0.031
1000	0.031
1000	0.031
1000	0.032
1001	0.032
1001	0.033
1002	0.033
1002	0.033
1003	0.032
1003	0.032
1003	0.031
1004	0.03
1004	0.029
1005	0.028
1005	0.027
1005	0.026
1006	0.024
1006	0.023
1007	0.022
1007	0.021
1008	0.02
1008	0.019
1008	0.018
1009	0.018
1009	0.018
1010	0.018
1010	0.019
1010	0.019
1011	0.019
1011	0.02
1012	0.021
1012	0.022
1013	0.023
1013	0.024
1013	0.025
1014	0.026
1014	0.026
1015	0.027
1015	0.028
1016	0.028
1016	0.029
1016	0.029
1017	0.029
1017	0.029
1018	0.029
1018	0.029
1018	0.029
1019	0.028
1019	0.028
1020	0.028
1020	0.027
1021	0.026
1021	0.026
1021	0.025
1022	0.025
1022	0.025
1023	0.025
1023	0.024
1023	0.024
1024	0.024
1024	0.024
1025	0.024
1025	0.024
1026	0.024
1026	0.024
1026	0.024
1027	0.024
1027	0.024
1028	0.024
1028	0.024
1028	0.024
1029	0.024
1029	0.024
1030	0.024
1030	0.023
1031	0.023
1031	0.024
1031	0.023
1032	0.023
1032	0.023
1033	0.022
1033	0.022
1033	0.021
1034	0.021
1034	0.021
1035	0.021
1035	0.02
1036	0.02
1036	0.019
1036	0.02
1037	0.02
1037	0.021
1038	0.021
1038	0.022
1039	0.023
1039	0.023
1039	0.024
1040	0.025
1040	0.026
1041	0.026
1041	0.027
1041	0.026
1042	0.026
1042	0.026
1043	0.026
1043	0.025
1044	0.025
1044	0.024
1044	0.024
1045	0.023
1045	0.023
1046	0.022
1046	0.022
1046	0.022
1047	0.022
1047	0.022
1048	0.022
1048	0.022
1049	0.021
1049	0.021
1049	0.021
1050	0.02
1050	0.019
1051	0.019
1051	0.018
1051	0.017
1052	0.016
1052	0.015
1053	0.015
1053	0.014
1053	0.013
1054	0.013
1054	0.012
1055	0.012
1055	0.012
1056	0.012
1056	0.011
1056	0.011
1057	0.011
1057	0.01
1058	0.01
1058	0.009
1058	0.009
1059	0.009
1059	0.008
1060	0.008
1060	0.008
1061	0.008
1061	0.008
1061	0.008
1062	0.008
1062	0.008
1063	0.008
1063	0.007
1063	0.007
1064	0.006
1064	0.006
1065	0.006
1065	0.006
1066	0.005
1066	0.004
1066	0.004
1067	0.003
1067	0.003
1068	0.003
1068	0.002
1068	0.002
1069	0.001
1069	0
1070	-0
1070	-0.001
1071	-0.001
1071	-0.001
1071	-0.002
1072	-0.002
1072	-0.001
1073	-0.001
1073	-0.001
1073	-0.001
1074	-0.001
1074	-0
1075	-0.001
1075	-0.001
1076	-0.002
1076	-0.002
1076	-0.003
1077	-0.003
1077	-0.004
1078	-0.005
1078	-0.006
1078	-0.007
1079	-0.009
1079	-0.009
1080	-0.011
1080	-0.011
1080	-0.013
1081	-0.014
1081	-0.015
1082	-0.015
1082	-0.017
1083	-0.018
1083	-0.019
1083	-0.02
1084	-0.022
1084	-0.023
1085	-0.024
1085	-0.025
1085	-0.025
1086	-0.027
1086	-0.029
1087	-0.03
1087	-0.03
1088	-0.032
1088	-0.032
1088	-0.033
1089	-0.034
1089	-0.035
1090	-0.035
1090	-0.036
1090	-0.038
1091	-0.039
1091	-0.038
1092	-0.039
1092	-0.038
1092	-0.039
1093	-0.04
1093	-0.04
1094	-0.04
1094	-0.041
1095	-0.043
1095	-0.043
1095	-0.043
1096	-0.044
1096	-0.045
1097	-0.046
1097	-0.048
1097	-0.049
1098	-0.051
1098	-0.053
1099	-0.054
1099	-0.055
1100	-0.057
1100	-0.06
1100	-0.063
1101	-0.066
1101	-0.068
1102	-0.07
1102	-0.073
1102	-0.075
1103	-0.078
1103	-0.081
1104	-0.085
1104	-0.088
1104	-0.09
1105	-0.092
1105	-0.094
1106	-0.1
1106	-0.102
1107	-0.108
1107	-0.113
1107	-0.117
1108	-0.119
1108	-0.12
1109	-0.124
1109	-0.128
1109	-0.133
1110	-0.137
1110	-0.14
1111	-0.152
1111	-0.147
