Data from 3.4A_17C_Absorbance__426__01383.txt Node

Date: Tue Jun 20 15:53:19 CEST 2023
User: Marek
Spectrometer: MAYP115816
Trigger mode: 0
Integration Time (sec): 2.200000E-1
Scans to average: 10
Electric dark correction enabled: true
Nonlinearity correction enabled: true
Boxcar width: 5
XAxis mode: Wavelengths
Number of Pixels in Spectrum: 2068
>>>>>Begin Spectral Data<<<<<
199	-0.757
199	-0.739
200	-0.706
200	-0.647
201	-0.618
201	-0.609
202	-0.591
202	-0.583
203	-0.583
203	-0.577
204	-0.557
204	-0.542
205	-0.519
205	-0.51
205	-0.519
206	-0.523
206	-0.519
207	-0.513
207	-0.52
208	-0.522
208	-0.526
209	-0.528
209	-0.533
210	-0.546
210	-0.553
211	-0.548
211	-0.552
212	-0.561
212	-0.568
213	-0.566
213	-0.56
213	-0.558
214	-0.565
214	-0.567
215	-0.563
215	-0.567
216	-0.577
216	-0.582
217	-0.58
217	-0.581
218	-0.588
218	-0.589
219	-0.596
219	-0.598
220	-0.602
220	-0.608
221	-0.607
221	-0.607
221	-0.598
222	-0.598
222	-0.596
223	-0.592
223	-0.594
224	-0.595
224	-0.594
225	-0.591
225	-0.593
226	-0.593
226	-0.593
227	-0.603
227	-0.612
228	-0.615
228	-0.624
229	-0.63
229	-0.627
229	-0.627
230	-0.622
230	-0.62
231	-0.617
231	-0.611
232	-0.612
232	-0.607
233	-0.606
233	-0.593
234	-0.594
234	-0.59
235	-0.595
235	-0.606
236	-0.614
236	-0.617
236	-0.618
237	-0.617
237	-0.617
238	-0.618
238	-0.619
239	-0.619
239	-0.629
240	-0.621
240	-0.617
241	-0.611
241	-0.613
242	-0.616
242	-0.626
243	-0.628
243	-0.631
243	-0.638
244	-0.636
244	-0.637
245	-0.639
245	-0.644
246	-0.654
246	-0.656
247	-0.664
247	-0.649
248	-0.646
248	-0.649
249	-0.653
249	-0.653
250	-0.652
250	-0.661
250	-0.658
251	-0.658
251	-0.655
252	-0.656
252	-0.668
253	-0.666
253	-0.677
254	-0.682
254	-0.683
255	-0.692
255	-0.692
256	-0.695
256	-0.708
257	-0.718
257	-0.714
258	-0.716
258	-0.722
258	-0.72
259	-0.712
259	-0.73
260	-0.731
260	-0.72
261	-0.732
261	-0.717
262	-0.722
262	-0.719
263	-0.709
263	-0.714
264	-0.724
264	-0.725
265	-0.717
265	-0.72
265	-0.73
266	-0.721
266	-0.723
267	-0.722
267	-0.738
268	-0.748
268	-0.742
269	-0.735
269	-0.75
270	-0.754
270	-0.75
271	-0.762
271	-0.771
272	-0.771
272	-0.774
272	-0.768
273	-0.777
273	-0.79
274	-0.78
274	-0.775
275	-0.772
275	-0.76
276	-0.764
276	-0.769
277	-0.771
277	-0.767
278	-0.773
278	-0.772
278	-0.763
279	-0.772
279	-0.787
280	-0.788
280	-0.802
281	-0.796
281	-0.789
282	-0.795
282	-0.789
283	-0.781
283	-0.797
284	-0.809
284	-0.82
285	-0.799
285	-0.808
285	-0.797
286	-0.803
286	-0.819
287	-0.815
287	-0.816
288	-0.815
288	-0.795
289	-0.793
289	-0.799
290	-0.807
290	-0.795
291	-0.799
291	-0.795
292	-0.774
292	-0.771
292	-0.772
293	-0.761
293	-0.756
294	-0.755
294	-0.742
295	-0.724
295	-0.737
296	-0.748
296	-0.744
297	-0.733
297	-0.738
298	-0.737
298	-0.756
298	-0.76
299	-0.743
299	-0.738
300	-0.735
300	-0.715
301	-0.698
301	-0.699
302	-0.709
302	-0.695
303	-0.685
303	-0.671
304	-0.654
304	-0.657
305	-0.648
305	-0.656
305	-0.669
306	-0.655
306	-0.653
307	-0.645
307	-0.657
308	-0.661
308	-0.657
309	-0.659
309	-0.655
310	-0.653
310	-0.648
311	-0.635
311	-0.652
311	-0.641
312	-0.637
312	-0.623
313	-0.613
313	-0.615
314	-0.621
314	-0.621
315	-0.618
315	-0.612
316	-0.607
316	-0.596
317	-0.588
317	-0.586
318	-0.577
318	-0.576
318	-0.566
319	-0.554
319	-0.545
320	-0.543
320	-0.54
321	-0.535
321	-0.536
322	-0.53
322	-0.524
323	-0.527
323	-0.518
324	-0.517
324	-0.506
324	-0.495
325	-0.48
325	-0.464
326	-0.455
326	-0.431
327	-0.417
327	-0.395
328	-0.362
328	-0.338
329	-0.309
329	-0.281
330	-0.254
330	-0.218
330	-0.182
331	-0.144
331	-0.112
332	-0.079
332	-0.047
333	-0.017
333	0.015
334	0.044
334	0.068
335	0.094
335	0.115
336	0.138
336	0.157
336	0.173
337	0.19
337	0.207
338	0.22
338	0.23
339	0.244
339	0.254
340	0.262
340	0.271
341	0.277
341	0.283
342	0.29
342	0.295
342	0.3
343	0.304
343	0.308
344	0.31
344	0.313
345	0.316
345	0.318
346	0.32
346	0.322
347	0.323
347	0.325
348	0.326
348	0.327
348	0.328
349	0.329
349	0.33
350	0.33
350	0.331
351	0.331
351	0.332
352	0.332
352	0.332
353	0.333
353	0.333
354	0.333
354	0.333
354	0.333
355	0.333
355	0.333
356	0.333
356	0.333
357	0.334
357	0.334
358	0.333
358	0.333
359	0.333
359	0.333
360	0.333
360	0.333
360	0.333
361	0.333
361	0.333
362	0.333
362	0.333
363	0.333
363	0.333
364	0.333
364	0.332
365	0.333
365	0.332
366	0.332
366	0.332
366	0.332
367	0.332
367	0.332
368	0.331
368	0.331
369	0.331
369	0.331
370	0.33
370	0.33
371	0.33
371	0.33
372	0.33
372	0.329
372	0.329
373	0.329
373	0.329
374	0.329
374	0.329
375	0.328
375	0.328
376	0.328
376	0.328
377	0.327
377	0.327
378	0.327
378	0.326
378	0.326
379	0.326
379	0.326
380	0.325
380	0.325
381	0.325
381	0.325
382	0.324
382	0.324
383	0.324
383	0.323
383	0.323
384	0.322
384	0.322
385	0.322
385	0.321
386	0.321
386	0.321
387	0.321
387	0.321
388	0.321
388	0.32
389	0.32
389	0.32
389	0.32
390	0.32
390	0.32
391	0.319
391	0.319
392	0.319
392	0.319
393	0.318
393	0.318
394	0.318
394	0.317
394	0.317
395	0.317
395	0.316
396	0.316
396	0.316
397	0.316
397	0.315
398	0.315
398	0.314
399	0.314
399	0.314
400	0.314
400	0.314
400	0.313
401	0.313
401	0.312
402	0.312
402	0.312
403	0.312
403	0.312
404	0.311
404	0.311
405	0.31
405	0.309
405	0.309
406	0.309
406	0.309
407	0.309
407	0.308
408	0.308
408	0.307
409	0.308
409	0.308
410	0.308
410	0.308
411	0.308
411	0.307
411	0.307
412	0.307
412	0.306
413	0.306
413	0.306
414	0.306
414	0.305
415	0.305
415	0.305
416	0.305
416	0.304
416	0.304
417	0.304
417	0.304
418	0.304
418	0.304
419	0.304
419	0.304
420	0.304
420	0.304
421	0.304
421	0.304
421	0.304
422	0.304
422	0.304
423	0.304
423	0.303
424	0.303
424	0.302
425	0.302
425	0.302
426	0.302
426	0.302
427	0.302
427	0.302
427	0.302
428	0.302
428	0.301
429	0.301
429	0.301
430	0.3
430	0.3
431	0.299
431	0.299
432	0.299
432	0.298
432	0.298
433	0.298
433	0.298
434	0.298
434	0.298
435	0.299
435	0.299
436	0.299
436	0.299
437	0.299
437	0.299
437	0.299
438	0.299
438	0.299
439	0.298
439	0.298
440	0.298
440	0.298
441	0.297
441	0.297
442	0.297
442	0.297
442	0.297
443	0.297
443	0.297
444	0.298
444	0.298
445	0.298
445	0.298
446	0.298
446	0.298
447	0.298
447	0.298
447	0.297
448	0.298
448	0.297
449	0.297
449	0.297
450	0.297
450	0.297
451	0.297
451	0.297
452	0.297
452	0.297
452	0.297
453	0.297
453	0.298
454	0.298
454	0.298
455	0.298
455	0.298
456	0.298
456	0.298
457	0.298
457	0.299
458	0.299
458	0.299
458	0.299
459	0.299
459	0.299
460	0.298
460	0.299
461	0.299
461	0.299
462	0.3
462	0.3
463	0.301
463	0.301
463	0.302
464	0.302
464	0.302
465	0.303
465	0.303
466	0.304
466	0.304
467	0.304
467	0.304
467	0.304
468	0.304
468	0.305
469	0.305
469	0.306
470	0.306
470	0.307
471	0.307
471	0.307
472	0.307
472	0.308
472	0.308
473	0.309
473	0.31
474	0.31
474	0.311
475	0.312
475	0.312
476	0.313
476	0.313
477	0.314
477	0.315
477	0.316
478	0.316
478	0.317
479	0.318
479	0.319
480	0.32
480	0.321
481	0.322
481	0.323
482	0.324
482	0.325
482	0.326
483	0.328
483	0.33
484	0.331
484	0.331
485	0.332
485	0.333
486	0.334
486	0.335
487	0.336
487	0.338
487	0.339
488	0.34
488	0.341
489	0.342
489	0.344
490	0.346
490	0.347
491	0.349
491	0.351
492	0.353
492	0.355
492	0.356
493	0.358
493	0.36
494	0.362
494	0.364
495	0.365
495	0.367
496	0.369
496	0.371
496	0.373
497	0.375
497	0.377
498	0.379
498	0.381
499	0.383
499	0.386
500	0.389
500	0.392
501	0.394
501	0.397
501	0.399
502	0.401
502	0.404
503	0.406
503	0.409
504	0.411
504	0.413
505	0.415
505	0.418
506	0.421
506	0.423
506	0.426
507	0.428
507	0.431
508	0.434
508	0.437
509	0.439
509	0.442
510	0.445
510	0.447
511	0.449
511	0.451
511	0.453
512	0.456
512	0.458
513	0.46
513	0.462
514	0.465
514	0.468
515	0.47
515	0.472
515	0.474
516	0.476
516	0.479
517	0.481
517	0.483
518	0.485
518	0.486
519	0.488
519	0.489
520	0.491
520	0.493
520	0.494
521	0.495
521	0.497
522	0.498
522	0.499
523	0.501
523	0.502
524	0.503
524	0.503
524	0.505
525	0.505
525	0.506
526	0.507
526	0.507
527	0.507
527	0.508
528	0.508
528	0.508
529	0.508
529	0.507
529	0.507
530	0.507
530	0.507
531	0.507
531	0.506
532	0.506
532	0.505
533	0.505
533	0.504
533	0.504
534	0.503
534	0.502
535	0.501
535	0.5
536	0.499
536	0.497
537	0.496
537	0.495
538	0.494
538	0.492
538	0.491
539	0.489
539	0.488
540	0.486
540	0.484
541	0.482
541	0.48
542	0.478
542	0.475
542	0.473
543	0.471
543	0.468
544	0.466
544	0.464
545	0.462
545	0.46
546	0.457
546	0.455
547	0.452
547	0.449
547	0.446
548	0.444
548	0.441
549	0.438
549	0.436
550	0.433
550	0.43
551	0.426
551	0.423
551	0.421
552	0.418
552	0.415
553	0.413
553	0.411
554	0.408
554	0.404
555	0.401
555	0.399
556	0.396
556	0.393
556	0.391
557	0.388
557	0.386
558	0.383
558	0.381
559	0.378
559	0.376
560	0.373
560	0.37
560	0.368
561	0.367
561	0.365
562	0.362
562	0.36
563	0.358
563	0.355
564	0.353
564	0.351
564	0.35
565	0.348
565	0.346
566	0.344
566	0.342
567	0.34
567	0.338
568	0.336
568	0.333
568	0.331
569	0.328
569	0.326
570	0.323
570	0.32
571	0.318
571	0.316
572	0.314
572	0.311
573	0.309
573	0.307
573	0.305
574	0.303
574	0.302
575	0.301
575	0.3
576	0.299
576	0.297
577	0.294
577	0.293
577	0.292
578	0.291
578	0.291
579	0.29
579	0.289
580	0.287
580	0.284
581	0.281
581	0.28
581	0.279
582	0.279
582	0.278
583	0.277
583	0.274
584	0.271
584	0.268
585	0.267
585	0.266
585	0.265
586	0.264
586	0.262
587	0.26
587	0.258
588	0.257
588	0.256
589	0.255
589	0.254
590	0.253
590	0.252
590	0.253
591	0.252
591	0.251
592	0.249
592	0.248
593	0.247
593	0.246
594	0.244
594	0.243
594	0.242
595	0.241
595	0.239
596	0.238
596	0.238
597	0.239
597	0.238
598	0.237
598	0.237
598	0.236
599	0.236
599	0.235
600	0.234
600	0.233
601	0.232
601	0.232
602	0.23
602	0.229
602	0.228
603	0.227
603	0.227
604	0.227
604	0.226
605	0.226
605	0.226
606	0.225
606	0.223
606	0.222
607	0.221
607	0.221
608	0.22
608	0.218
609	0.217
609	0.216
610	0.215
610	0.214
610	0.213
611	0.213
611	0.213
612	0.213
612	0.213
613	0.213
613	0.212
614	0.211
614	0.21
614	0.209
615	0.208
615	0.207
616	0.206
616	0.205
617	0.205
617	0.204
618	0.202
618	0.202
618	0.201
619	0.2
619	0.2
620	0.2
620	0.199
621	0.198
621	0.197
622	0.196
622	0.195
622	0.194
623	0.193
623	0.193
624	0.192
624	0.19
625	0.189
625	0.188
626	0.187
626	0.185
626	0.185
627	0.184
627	0.183
628	0.181
628	0.18
629	0.179
629	0.177
630	0.175
630	0.174
630	0.172
631	0.171
631	0.169
632	0.167
632	0.165
633	0.163
633	0.162
634	0.16
634	0.158
634	0.156
635	0.154
635	0.152
636	0.15
636	0.148
637	0.145
637	0.142
638	0.139
638	0.137
638	0.134
639	0.13
639	0.127
640	0.123
640	0.12
641	0.117
641	0.113
642	0.11
642	0.107
642	0.103
643	0.099
643	0.094
644	0.09
644	0.085
645	0.08
645	0.076
646	0.07
646	0.064
646	0.058
647	0.051
647	0.045
648	0.039
648	0.032
649	0.026
649	0.02
650	0.013
650	0.007
650	-0.001
651	-0.01
651	-0.02
652	-0.032
652	-0.045
653	-0.057
653	-0.067
653	-0.063
654	-0.045
654	-0.04
655	-0.045
655	-0.05
656	-0.056
656	-0.063
657	-0.068
657	-0.073
657	-0.078
658	-0.085
658	-0.115
659	-0.197
659	-0.282
660	-0.321
660	-0.347
661	-0.372
661	-0.401
661	-0.431
662	-0.459
662	-0.49
663	-0.525
663	-0.563
664	-0.599
664	-0.641
665	-0.687
665	-0.734
665	-0.779
666	-0.83
666	-0.886
667	-0.941
667	-1.005
668	-1.065
668	-1.134
669	-1.204
669	-1.278
669	-1.358
670	-1.444
670	-1.562
671	-1.749
671	-2.136
672	-2.354
672	-2.505
672	-2.619
673	-2.711
673	-2.788
674	-2.834
674	-2.847
675	-2.863
675	-2.866
676	-2.86
676	-2.796
676	-2.723
677	-2.632
677	-2.521
678	-2.35
678	-2.045
679	-1.713
679	-1.562
680	-1.462
680	-1.388
680	-1.323
681	-1.277
681	-1.225
682	-1.183
682	-1.14
683	-1.097
683	-1.073
684	-1.045
684	-1.026
684	-1.003
685	-0.983
685	-0.972
686	-0.948
686	-0.935
687	-0.924
687	-0.913
687	-0.912
688	-0.897
688	-0.889
689	-0.893
689	-0.889
690	-0.875
690	-0.864
691	-0.861
691	-0.865
691	-0.865
692	-0.865
692	-0.86
693	-0.866
693	-0.875
694	-0.853
694	-0.851
695	-0.853
695	-0.847
695	-0.854
696	-0.861
696	-0.853
697	-0.847
697	-0.843
698	-0.841
698	-0.833
698	-0.847
699	-0.847
699	-0.848
700	-0.868
700	-0.861
701	-0.846
701	-0.842
702	-0.841
702	-0.839
702	-0.837
703	-0.828
703	-0.815
704	-0.823
704	-0.827
705	-0.815
705	-0.815
705	-0.811
706	-0.803
706	-0.801
707	-0.812
707	-0.817
708	-0.814
708	-0.813
709	-0.812
709	-0.808
709	-0.803
710	-0.809
710	-0.813
711	-0.811
711	-0.812
712	-0.804
712	-0.8
713	-0.806
713	-0.806
713	-0.787
714	-0.789
714	-0.793
715	-0.785
715	-0.793
716	-0.81
716	-0.819
716	-0.82
717	-0.825
717	-0.815
718	-0.809
718	-0.811
719	-0.805
719	-0.8
720	-0.795
720	-0.789
720	-0.783
721	-0.773
721	-0.777
722	-0.774
722	-0.771
723	-0.788
723	-0.801
723	-0.81
724	-0.807
724	-0.812
725	-0.807
725	-0.811
726	-0.815
726	-0.805
727	-0.808
727	-0.816
727	-0.808
728	-0.793
728	-0.79
729	-0.792
729	-0.796
730	-0.802
730	-0.794
730	-0.798
731	-0.802
731	-0.801
732	-0.802
732	-0.797
733	-0.813
733	-0.818
734	-0.827
734	-0.817
734	-0.798
735	-0.788
735	-0.784
736	-0.784
736	-0.778
737	-0.778
737	-0.768
737	-0.761
738	-0.748
738	-0.737
739	-0.741
739	-0.741
740	-0.755
740	-0.755
741	-0.764
741	-0.775
741	-0.784
742	-0.792
742	-0.806
743	-0.813
743	-0.814
744	-0.815
744	-0.825
744	-0.819
745	-0.829
745	-0.818
746	-0.813
746	-0.804
747	-0.806
747	-0.795
748	-0.797
748	-0.801
748	-0.802
749	-0.797
749	-0.802
750	-0.791
750	-0.793
751	-0.791
751	-0.789
751	-0.8
752	-0.804
752	-0.807
753	-0.811
753	-0.804
754	-0.82
754	-0.821
754	-0.83
755	-0.831
755	-0.822
756	-0.824
756	-0.809
757	-0.803
757	-0.792
758	-0.79
758	-0.79
758	-0.787
759	-0.79
759	-0.788
760	-0.785
760	-0.789
761	-0.783
761	-0.787
761	-0.787
762	-0.793
762	-0.795
763	-0.794
763	-0.798
764	-0.797
764	-0.793
764	-0.799
765	-0.799
765	-0.805
766	-0.808
766	-0.809
767	-0.827
767	-0.822
768	-0.82
768	-0.813
768	-0.809
769	-0.813
769	-0.819
770	-0.829
770	-0.834
771	-0.83
771	-0.831
771	-0.833
772	-0.837
772	-0.858
773	-0.858
773	-0.858
774	-0.855
774	-0.838
775	-0.824
775	-0.823
775	-0.824
776	-0.834
776	-0.831
777	-0.831
777	-0.815
778	-0.825
778	-0.831
778	-0.832
779	-0.841
779	-0.857
780	-0.853
780	-0.863
781	-0.852
781	-0.841
781	-0.857
782	-0.878
782	-0.878
783	-0.878
783	-0.887
784	-0.891
784	-0.885
784	-0.905
785	-0.9
785	-0.911
786	-0.916
786	-0.907
787	-0.896
787	-0.903
788	-0.896
788	-0.889
788	-0.89
789	-0.89
789	-0.879
790	-0.878
790	-0.862
791	-0.868
791	-0.865
791	-0.857
792	-0.851
792	-0.856
793	-0.859
793	-0.846
794	-0.839
794	-0.83
794	-0.836
795	-0.856
795	-0.842
796	-0.847
796	-0.843
797	-0.836
797	-0.826
797	-0.819
798	-0.841
798	-0.845
799	-0.846
799	-0.832
800	-0.826
800	-0.836
801	-0.832
801	-0.838
801	-0.836
802	-0.836
802	-0.835
803	-0.828
803	-0.822
804	-0.828
804	-0.836
804	-0.821
805	-0.803
805	-0.796
806	-0.795
806	-0.791
807	-0.793
807	-0.794
807	-0.777
808	-0.771
808	-0.764
809	-0.761
809	-0.761
810	-0.764
810	-0.76
810	-0.757
811	-0.761
811	-0.75
812	-0.742
812	-0.744
813	-0.748
813	-0.749
813	-0.743
814	-0.745
814	-0.748
815	-0.74
815	-0.735
816	-0.732
816	-0.75
817	-0.765
817	-0.768
817	-0.777
818	-0.771
818	-0.768
819	-0.778
819	-0.778
820	-0.79
820	-0.79
820	-0.79
821	-0.784
821	-0.779
822	-0.778
822	-0.767
823	-0.777
823	-0.776
823	-0.77
824	-0.767
824	-0.777
825	-0.776
825	-0.771
826	-0.767
826	-0.763
826	-0.761
827	-0.762
827	-0.752
828	-0.754
828	-0.748
829	-0.742
829	-0.727
829	-0.725
830	-0.724
830	-0.71
831	-0.703
831	-0.693
832	-0.683
832	-0.677
832	-0.669
833	-0.668
833	-0.673
834	-0.667
834	-0.663
835	-0.654
835	-0.654
835	-0.648
836	-0.644
836	-0.64
837	-0.631
837	-0.62
838	-0.608
838	-0.592
839	-0.587
839	-0.574
839	-0.565
840	-0.564
840	-0.555
841	-0.545
841	-0.539
842	-0.531
842	-0.521
842	-0.519
843	-0.513
843	-0.507
844	-0.505
844	-0.493
845	-0.478
845	-0.471
845	-0.46
846	-0.447
846	-0.438
847	-0.429
847	-0.416
848	-0.402
848	-0.385
848	-0.371
849	-0.359
849	-0.348
850	-0.336
850	-0.326
851	-0.314
851	-0.297
851	-0.287
852	-0.274
852	-0.261
853	-0.253
853	-0.243
854	-0.232
854	-0.222
854	-0.209
855	-0.199
855	-0.191
856	-0.184
856	-0.176
857	-0.168
857	-0.161
857	-0.148
858	-0.137
858	-0.13
859	-0.12
859	-0.109
860	-0.098
860	-0.084
860	-0.074
861	-0.064
861	-0.055
862	-0.047
862	-0.04
863	-0.032
863	-0.023
863	-0.017
864	-0.012
864	-0.005
865	0.001
865	0.006
866	0.011
866	0.016
866	0.021
867	0.026
867	0.031
868	0.035
868	0.039
869	0.043
869	0.046
869	0.048
870	0.05
870	0.052
871	0.054
871	0.054
872	0.054
872	0.055
872	0.055
873	0.055
873	0.055
874	0.054
874	0.054
875	0.054
875	0.053
875	0.053
876	0.053
876	0.053
877	0.053
877	0.053
878	0.052
878	0.052
878	0.052
879	0.051
879	0.05
880	0.05
880	0.048
881	0.047
881	0.046
881	0.045
882	0.044
882	0.043
883	0.042
883	0.042
884	0.042
884	0.042
884	0.042
885	0.043
885	0.043
886	0.044
886	0.044
887	0.044
887	0.043
887	0.043
888	0.043
888	0.042
889	0.041
889	0.04
890	0.039
890	0.039
890	0.038
891	0.038
891	0.038
892	0.038
892	0.038
893	0.039
893	0.039
893	0.039
894	0.04
894	0.04
895	0.04
895	0.04
895	0.041
896	0.041
896	0.042
897	0.042
897	0.042
898	0.042
898	0.043
898	0.043
899	0.043
899	0.043
900	0.043
900	0.043
901	0.043
901	0.042
901	0.042
902	0.042
902	0.043
903	0.042
903	0.042
904	0.041
904	0.04
904	0.04
905	0.04
905	0.04
906	0.04
906	0.04
907	0.041
907	0.041
907	0.041
908	0.042
908	0.043
909	0.044
909	0.045
910	0.046
910	0.047
910	0.047
911	0.048
911	0.05
912	0.051
912	0.052
913	0.054
913	0.054
913	0.055
914	0.056
914	0.056
915	0.056
915	0.055
916	0.055
916	0.054
916	0.053
917	0.052
917	0.051
918	0.051
918	0.05
918	0.049
919	0.048
919	0.048
920	0.047
920	0.047
921	0.047
921	0.046
921	0.046
922	0.046
922	0.046
923	0.046
923	0.045
924	0.045
924	0.045
924	0.045
925	0.045
925	0.045
926	0.044
926	0.044
927	0.044
927	0.043
927	0.044
928	0.044
928	0.044
929	0.044
929	0.045
930	0.045
930	0.045
930	0.046
931	0.046
931	0.047
932	0.047
932	0.048
933	0.048
933	0.047
933	0.046
934	0.045
934	0.044
935	0.043
935	0.042
935	0.04
936	0.039
936	0.037
937	0.036
937	0.035
938	0.034
938	0.033
938	0.033
939	0.032
939	0.032
940	0.032
940	0.032
941	0.032
941	0.031
941	0.031
942	0.031
942	0.031
943	0.031
943	0.031
944	0.03
944	0.029
944	0.029
945	0.03
945	0.03
946	0.03
946	0.03
946	0.03
947	0.03
947	0.03
948	0.03
948	0.03
949	0.03
949	0.03
949	0.031
950	0.031
950	0.032
951	0.032
951	0.032
952	0.032
952	0.033
952	0.033
953	0.034
953	0.034
954	0.034
954	0.034
955	0.034
955	0.034
955	0.034
956	0.034
956	0.034
957	0.033
957	0.032
957	0.032
958	0.032
958	0.032
959	0.032
959	0.032
960	0.032
960	0.032
960	0.032
961	0.032
961	0.033
962	0.033
962	0.034
963	0.034
963	0.034
963	0.034
964	0.034
964	0.034
965	0.035
965	0.035
966	0.035
966	0.035
966	0.035
967	0.035
967	0.035
968	0.034
968	0.034
968	0.034
969	0.034
969	0.033
970	0.033
970	0.032
971	0.032
971	0.031
971	0.031
972	0.031
972	0.032
973	0.032
973	0.032
974	0.032
974	0.032
974	0.033
975	0.033
975	0.034
976	0.034
976	0.034
976	0.034
977	0.034
977	0.034
978	0.033
978	0.033
979	0.032
979	0.031
979	0.031
980	0.03
980	0.029
981	0.029
981	0.028
982	0.028
982	0.028
982	0.028
983	0.027
983	0.027
984	0.027
984	0.026
984	0.026
985	0.026
985	0.026
986	0.025
986	0.024
987	0.023
987	0.022
987	0.022
988	0.021
988	0.021
989	0.02
989	0.02
990	0.019
990	0.019
990	0.019
991	0.019
991	0.019
992	0.019
992	0.02
992	0.02
993	0.02
993	0.02
994	0.02
994	0.019
995	0.019
995	0.019
995	0.018
996	0.018
996	0.017
997	0.016
997	0.016
997	0.016
998	0.016
998	0.016
999	0.016
999	0.016
1000	0.016
1000	0.016
1000	0.016
1001	0.016
1001	0.017
1002	0.017
1002	0.016
1003	0.016
1003	0.015
1003	0.015
1004	0.014
1004	0.013
1005	0.012
1005	0.011
1005	0.01
1006	0.009
1006	0.008
1007	0.007
1007	0.007
1008	0.007
1008	0.006
1008	0.006
1009	0.007
1009	0.007
1010	0.008
1010	0.009
1010	0.009
1011	0.009
1011	0.01
1012	0.01
1012	0.011
1013	0.012
1013	0.012
1013	0.013
1014	0.013
1014	0.013
1015	0.014
1015	0.014
1016	0.014
1016	0.014
1016	0.014
1017	0.014
1017	0.014
1018	0.014
1018	0.014
1018	0.014
1019	0.013
1019	0.013
1020	0.012
1020	0.012
1021	0.012
1021	0.012
1021	0.011
1022	0.011
1022	0.01
1023	0.01
1023	0.01
1023	0.01
1024	0.01
1024	0.01
1025	0.009
1025	0.009
1026	0.009
1026	0.01
1026	0.009
1027	0.009
1027	0.009
1028	0.01
1028	0.01
1028	0.01
1029	0.009
1029	0.009
1030	0.009
1030	0.008
1031	0.008
1031	0.008
1031	0.008
1032	0.007
1032	0.007
1033	0.006
1033	0.006
1033	0.006
1034	0.005
1034	0.005
1035	0.005
1035	0.005
1036	0.004
1036	0.004
1036	0.004
1037	0.004
1037	0.005
1038	0.005
1038	0.006
1039	0.007
1039	0.007
1039	0.008
1040	0.009
1040	0.009
1041	0.01
1041	0.01
1041	0.009
1042	0.009
1042	0.009
1043	0.008
1043	0.008
1044	0.007
1044	0.007
1044	0.006
1045	0.005
1045	0.005
1046	0.004
1046	0.003
1046	0.003
1047	0.003
1047	0.003
1048	0.002
1048	0.002
1049	0.002
1049	0.001
1049	0.001
1050	0
1050	-0.001
1051	-0.002
1051	-0.002
1051	-0.003
1052	-0.004
1052	-0.005
1053	-0.006
1053	-0.006
1053	-0.006
1054	-0.007
1054	-0.007
1055	-0.006
1055	-0.006
1056	-0.006
1056	-0.006
1056	-0.006
1057	-0.006
1057	-0.006
1058	-0.006
1058	-0.007
1058	-0.006
1059	-0.007
1059	-0.007
1060	-0.008
1060	-0.008
1061	-0.007
1061	-0.007
1061	-0.007
1062	-0.007
1062	-0.007
1063	-0.007
1063	-0.008
1063	-0.008
1064	-0.008
1064	-0.008
1065	-0.009
1065	-0.01
1066	-0.01
1066	-0.011
1066	-0.011
1067	-0.012
1067	-0.013
1068	-0.013
1068	-0.014
1068	-0.014
1069	-0.015
1069	-0.015
1070	-0.016
1070	-0.016
1071	-0.016
1071	-0.016
1071	-0.017
1072	-0.016
1072	-0.016
1073	-0.015
1073	-0.015
1073	-0.015
1074	-0.014
1074	-0.014
1075	-0.014
1075	-0.014
1076	-0.015
1076	-0.015
1076	-0.017
1077	-0.018
1077	-0.019
1078	-0.019
1078	-0.02
1078	-0.021
1079	-0.022
1079	-0.022
1080	-0.024
1080	-0.024
1080	-0.026
1081	-0.026
1081	-0.027
1082	-0.027
1082	-0.029
1083	-0.03
1083	-0.031
1083	-0.032
1084	-0.033
1084	-0.033
1085	-0.034
1085	-0.035
1085	-0.036
1086	-0.036
1086	-0.038
1087	-0.038
1087	-0.039
1088	-0.04
1088	-0.041
1088	-0.041
1089	-0.043
1089	-0.044
1090	-0.045
1090	-0.046
1090	-0.048
1091	-0.05
1091	-0.05
1092	-0.051
1092	-0.052
1092	-0.053
1093	-0.054
1093	-0.053
1094	-0.053
1094	-0.054
1095	-0.055
1095	-0.055
1095	-0.054
1096	-0.056
1096	-0.057
1097	-0.058
1097	-0.059
1097	-0.061
1098	-0.063
1098	-0.066
1099	-0.067
1099	-0.069
1100	-0.072
1100	-0.075
1100	-0.077
1101	-0.08
1101	-0.082
1102	-0.085
1102	-0.087
1102	-0.089
1103	-0.091
1103	-0.094
1104	-0.097
1104	-0.1
1104	-0.102
1105	-0.104
1105	-0.107
1106	-0.112
1106	-0.114
1107	-0.119
1107	-0.124
1107	-0.129
1108	-0.13
1108	-0.131
1109	-0.134
1109	-0.138
1109	-0.142
1110	-0.145
1110	-0.148
1111	-0.158
1111	-0.155
