Data from 3.4A_17C_Absorbance__925__01882.txt Node

Date: Tue Jun 20 16:11:37 CEST 2023
User: Marek
Spectrometer: MAYP115816
Trigger mode: 0
Integration Time (sec): 2.200000E-1
Scans to average: 10
Electric dark correction enabled: true
Nonlinearity correction enabled: true
Boxcar width: 5
XAxis mode: Wavelengths
Number of Pixels in Spectrum: 2068
>>>>>Begin Spectral Data<<<<<
199	-0.771
199	-0.754
200	-0.719
200	-0.666
201	-0.639
201	-0.631
202	-0.619
202	-0.613
203	-0.612
203	-0.606
204	-0.585
204	-0.569
205	-0.548
205	-0.539
205	-0.547
206	-0.549
206	-0.543
207	-0.534
207	-0.542
208	-0.544
208	-0.546
209	-0.548
209	-0.555
210	-0.568
210	-0.575
211	-0.57
211	-0.573
212	-0.584
212	-0.591
213	-0.586
213	-0.582
213	-0.583
214	-0.59
214	-0.591
215	-0.588
215	-0.594
216	-0.602
216	-0.608
217	-0.608
217	-0.609
218	-0.616
218	-0.617
219	-0.624
219	-0.626
220	-0.629
220	-0.635
221	-0.634
221	-0.635
221	-0.625
222	-0.624
222	-0.622
223	-0.619
223	-0.621
224	-0.621
224	-0.618
225	-0.615
225	-0.617
226	-0.617
226	-0.618
227	-0.626
227	-0.637
228	-0.641
228	-0.65
229	-0.654
229	-0.653
229	-0.654
230	-0.648
230	-0.646
231	-0.643
231	-0.637
232	-0.64
232	-0.634
233	-0.632
233	-0.619
234	-0.62
234	-0.616
235	-0.621
235	-0.633
236	-0.64
236	-0.64
236	-0.641
237	-0.639
237	-0.64
238	-0.643
238	-0.645
239	-0.647
239	-0.655
240	-0.648
240	-0.643
241	-0.638
241	-0.642
242	-0.645
242	-0.654
243	-0.654
243	-0.656
243	-0.66
244	-0.657
244	-0.657
245	-0.66
245	-0.665
246	-0.677
246	-0.68
247	-0.688
247	-0.674
248	-0.673
248	-0.674
249	-0.678
249	-0.679
250	-0.679
250	-0.688
250	-0.685
251	-0.684
251	-0.679
252	-0.678
252	-0.69
253	-0.684
253	-0.697
254	-0.701
254	-0.702
255	-0.713
255	-0.711
256	-0.713
256	-0.726
257	-0.738
257	-0.736
258	-0.737
258	-0.746
258	-0.743
259	-0.737
259	-0.756
260	-0.753
260	-0.742
261	-0.754
261	-0.74
262	-0.745
262	-0.743
263	-0.733
263	-0.738
264	-0.751
264	-0.752
265	-0.742
265	-0.747
265	-0.756
266	-0.746
266	-0.746
267	-0.746
267	-0.761
268	-0.769
268	-0.763
269	-0.753
269	-0.767
270	-0.771
270	-0.771
271	-0.784
271	-0.795
272	-0.795
272	-0.798
272	-0.793
273	-0.803
273	-0.817
274	-0.808
274	-0.803
275	-0.8
275	-0.788
276	-0.792
276	-0.797
277	-0.8
277	-0.799
278	-0.802
278	-0.801
278	-0.79
279	-0.8
279	-0.812
280	-0.814
280	-0.826
281	-0.818
281	-0.809
282	-0.815
282	-0.808
283	-0.801
283	-0.816
284	-0.829
284	-0.838
285	-0.82
285	-0.826
285	-0.817
286	-0.822
286	-0.842
287	-0.839
287	-0.839
288	-0.839
288	-0.823
289	-0.822
289	-0.829
290	-0.839
290	-0.828
291	-0.831
291	-0.83
292	-0.809
292	-0.805
292	-0.81
293	-0.797
293	-0.792
294	-0.791
294	-0.777
295	-0.758
295	-0.773
296	-0.786
296	-0.78
297	-0.769
297	-0.774
298	-0.77
298	-0.788
298	-0.791
299	-0.774
299	-0.767
300	-0.765
300	-0.744
301	-0.725
301	-0.727
302	-0.737
302	-0.723
303	-0.715
303	-0.703
304	-0.688
304	-0.69
305	-0.681
305	-0.688
305	-0.704
306	-0.688
306	-0.688
307	-0.678
307	-0.69
308	-0.692
308	-0.688
309	-0.688
309	-0.685
310	-0.684
310	-0.681
311	-0.666
311	-0.686
311	-0.673
312	-0.67
312	-0.658
313	-0.652
313	-0.654
314	-0.66
314	-0.658
315	-0.656
315	-0.649
316	-0.643
316	-0.631
317	-0.624
317	-0.623
318	-0.614
318	-0.612
318	-0.599
319	-0.589
319	-0.58
320	-0.578
320	-0.575
321	-0.571
321	-0.571
322	-0.565
322	-0.555
323	-0.556
323	-0.545
324	-0.542
324	-0.532
324	-0.522
325	-0.507
325	-0.491
326	-0.484
326	-0.459
327	-0.445
327	-0.424
328	-0.394
328	-0.373
329	-0.349
329	-0.32
330	-0.293
330	-0.259
330	-0.227
331	-0.191
331	-0.161
332	-0.13
332	-0.1
333	-0.073
333	-0.043
334	-0.017
334	0.005
335	0.028
335	0.047
336	0.068
336	0.085
336	0.099
337	0.115
337	0.13
338	0.142
338	0.151
339	0.163
339	0.172
340	0.179
340	0.187
341	0.193
341	0.198
342	0.204
342	0.209
342	0.213
343	0.216
343	0.22
344	0.223
344	0.226
345	0.228
345	0.23
346	0.232
346	0.233
347	0.235
347	0.236
348	0.237
348	0.238
348	0.239
349	0.239
349	0.24
350	0.241
350	0.241
351	0.242
351	0.242
352	0.242
352	0.242
353	0.242
353	0.242
354	0.242
354	0.242
354	0.242
355	0.242
355	0.242
356	0.242
356	0.242
357	0.242
357	0.242
358	0.242
358	0.243
359	0.242
359	0.243
360	0.243
360	0.243
360	0.243
361	0.243
361	0.243
362	0.243
362	0.243
363	0.243
363	0.243
364	0.242
364	0.242
365	0.242
365	0.242
366	0.242
366	0.242
366	0.242
367	0.242
367	0.242
368	0.242
368	0.242
369	0.242
369	0.242
370	0.241
370	0.241
371	0.241
371	0.241
372	0.241
372	0.241
372	0.241
373	0.241
373	0.241
374	0.241
374	0.241
375	0.241
375	0.241
376	0.24
376	0.24
377	0.24
377	0.24
378	0.239
378	0.239
378	0.239
379	0.239
379	0.239
380	0.239
380	0.239
381	0.239
381	0.239
382	0.238
382	0.238
383	0.238
383	0.238
383	0.238
384	0.238
384	0.238
385	0.237
385	0.237
386	0.237
386	0.237
387	0.237
387	0.236
388	0.236
388	0.236
389	0.236
389	0.236
389	0.236
390	0.236
390	0.236
391	0.236
391	0.236
392	0.236
392	0.236
393	0.235
393	0.235
394	0.235
394	0.235
394	0.235
395	0.234
395	0.234
396	0.234
396	0.234
397	0.234
397	0.233
398	0.233
398	0.233
399	0.233
399	0.233
400	0.233
400	0.233
400	0.233
401	0.232
401	0.232
402	0.232
402	0.232
403	0.232
403	0.232
404	0.232
404	0.232
405	0.231
405	0.231
405	0.231
406	0.231
406	0.231
407	0.231
407	0.231
408	0.23
408	0.23
409	0.23
409	0.23
410	0.23
410	0.23
411	0.23
411	0.23
411	0.229
412	0.229
412	0.229
413	0.229
413	0.229
414	0.229
414	0.229
415	0.228
415	0.228
416	0.228
416	0.227
416	0.227
417	0.227
417	0.227
418	0.227
418	0.226
419	0.226
419	0.226
420	0.226
420	0.226
421	0.226
421	0.226
421	0.226
422	0.227
422	0.227
423	0.227
423	0.227
424	0.226
424	0.226
425	0.226
425	0.226
426	0.226
426	0.226
427	0.226
427	0.226
427	0.226
428	0.226
428	0.226
429	0.226
429	0.226
430	0.226
430	0.225
431	0.225
431	0.225
432	0.225
432	0.224
432	0.224
433	0.223
433	0.223
434	0.223
434	0.223
435	0.223
435	0.223
436	0.223
436	0.224
437	0.223
437	0.223
437	0.223
438	0.223
438	0.224
439	0.224
439	0.224
440	0.223
440	0.223
441	0.223
441	0.223
442	0.223
442	0.223
442	0.223
443	0.223
443	0.223
444	0.223
444	0.223
445	0.223
445	0.223
446	0.223
446	0.223
447	0.223
447	0.223
447	0.223
448	0.223
448	0.223
449	0.223
449	0.223
450	0.223
450	0.223
451	0.223
451	0.223
452	0.222
452	0.222
452	0.222
453	0.222
453	0.223
454	0.223
454	0.223
455	0.223
455	0.223
456	0.223
456	0.223
457	0.223
457	0.223
458	0.223
458	0.223
458	0.222
459	0.222
459	0.222
460	0.221
460	0.221
461	0.221
461	0.221
462	0.221
462	0.222
463	0.222
463	0.223
463	0.224
464	0.224
464	0.224
465	0.225
465	0.225
466	0.225
466	0.226
467	0.226
467	0.226
467	0.225
468	0.225
468	0.225
469	0.225
469	0.226
470	0.226
470	0.225
471	0.226
471	0.225
472	0.225
472	0.226
472	0.226
473	0.227
473	0.228
474	0.228
474	0.228
475	0.229
475	0.229
476	0.23
476	0.23
477	0.231
477	0.231
477	0.232
478	0.232
478	0.232
479	0.233
479	0.233
480	0.234
480	0.234
481	0.234
481	0.235
482	0.235
482	0.236
482	0.236
483	0.237
483	0.239
484	0.239
484	0.239
485	0.24
485	0.241
486	0.241
486	0.242
487	0.243
487	0.243
487	0.244
488	0.244
488	0.245
489	0.246
489	0.247
490	0.248
490	0.249
491	0.25
491	0.25
492	0.251
492	0.252
492	0.252
493	0.253
493	0.254
494	0.256
494	0.257
495	0.258
495	0.259
496	0.26
496	0.261
496	0.262
497	0.264
497	0.265
498	0.266
498	0.267
499	0.268
499	0.27
500	0.271
500	0.273
501	0.274
501	0.275
501	0.276
502	0.277
502	0.278
503	0.28
503	0.281
504	0.283
504	0.284
505	0.286
505	0.288
506	0.29
506	0.292
506	0.294
507	0.295
507	0.298
508	0.3
508	0.301
509	0.303
509	0.305
510	0.306
510	0.308
511	0.31
511	0.311
511	0.313
512	0.314
512	0.315
513	0.316
513	0.318
514	0.319
514	0.321
515	0.322
515	0.323
515	0.324
516	0.325
516	0.327
517	0.328
517	0.329
518	0.331
518	0.332
519	0.333
519	0.333
520	0.335
520	0.336
520	0.337
521	0.337
521	0.338
522	0.339
522	0.34
523	0.34
523	0.341
524	0.341
524	0.342
524	0.343
525	0.343
525	0.344
526	0.345
526	0.345
527	0.345
527	0.345
528	0.346
528	0.346
529	0.346
529	0.346
529	0.345
530	0.345
530	0.345
531	0.345
531	0.344
532	0.344
532	0.344
533	0.344
533	0.344
533	0.343
534	0.343
534	0.342
535	0.342
535	0.342
536	0.341
536	0.341
537	0.34
537	0.34
538	0.339
538	0.338
538	0.337
539	0.337
539	0.336
540	0.335
540	0.334
541	0.333
541	0.332
542	0.331
542	0.33
542	0.329
543	0.328
543	0.326
544	0.325
544	0.324
545	0.323
545	0.322
546	0.321
546	0.32
547	0.318
547	0.316
547	0.315
548	0.314
548	0.313
549	0.312
549	0.311
550	0.31
550	0.308
551	0.307
551	0.305
551	0.304
552	0.302
552	0.301
553	0.299
553	0.298
554	0.296
554	0.294
555	0.293
555	0.291
556	0.29
556	0.288
556	0.287
557	0.286
557	0.285
558	0.283
558	0.282
559	0.281
559	0.28
560	0.278
560	0.277
560	0.276
561	0.275
561	0.274
562	0.273
562	0.272
563	0.27
563	0.269
564	0.268
564	0.267
564	0.266
565	0.265
565	0.265
566	0.263
566	0.262
567	0.262
567	0.261
568	0.26
568	0.259
568	0.258
569	0.257
569	0.255
570	0.253
570	0.251
571	0.25
571	0.25
572	0.248
572	0.247
573	0.246
573	0.244
573	0.242
574	0.242
574	0.241
575	0.241
575	0.242
576	0.241
576	0.239
577	0.238
577	0.237
577	0.237
578	0.237
578	0.238
579	0.239
579	0.239
580	0.237
580	0.235
581	0.233
581	0.232
581	0.233
582	0.233
582	0.233
583	0.233
583	0.232
584	0.229
584	0.227
585	0.228
585	0.228
585	0.228
586	0.228
586	0.227
587	0.225
587	0.224
588	0.222
588	0.222
589	0.221
589	0.221
590	0.22
590	0.22
590	0.221
591	0.221
591	0.22
592	0.22
592	0.219
593	0.219
593	0.219
594	0.218
594	0.217
594	0.217
595	0.216
595	0.215
596	0.214
596	0.214
597	0.216
597	0.216
598	0.216
598	0.216
598	0.216
599	0.216
599	0.215
600	0.215
600	0.215
601	0.215
601	0.216
602	0.215
602	0.215
602	0.214
603	0.214
603	0.215
604	0.215
604	0.215
605	0.216
605	0.216
606	0.215
606	0.214
606	0.213
607	0.213
607	0.213
608	0.212
608	0.211
609	0.21
609	0.21
610	0.21
610	0.209
610	0.209
611	0.209
611	0.209
612	0.209
612	0.209
613	0.21
613	0.21
614	0.209
614	0.208
614	0.208
615	0.207
615	0.207
616	0.206
616	0.206
617	0.206
617	0.205
618	0.205
618	0.204
618	0.204
619	0.203
619	0.203
620	0.204
620	0.204
621	0.203
621	0.203
622	0.203
622	0.202
622	0.201
623	0.2
623	0.201
624	0.2
624	0.199
625	0.198
625	0.197
626	0.196
626	0.195
626	0.195
627	0.195
627	0.194
628	0.194
628	0.193
629	0.192
629	0.191
630	0.19
630	0.189
630	0.188
631	0.187
631	0.186
632	0.184
632	0.183
633	0.181
633	0.18
634	0.179
634	0.177
634	0.176
635	0.175
635	0.174
636	0.172
636	0.17
637	0.168
637	0.166
638	0.165
638	0.162
638	0.16
639	0.157
639	0.154
640	0.151
640	0.148
641	0.145
641	0.142
642	0.139
642	0.136
642	0.132
643	0.128
643	0.124
644	0.12
644	0.115
645	0.111
645	0.107
646	0.102
646	0.097
646	0.091
647	0.085
647	0.079
648	0.073
648	0.066
649	0.059
649	0.052
650	0.046
650	0.038
650	0.031
651	0.022
651	0.01
652	-0.003
652	-0.017
653	-0.03
653	-0.04
653	-0.037
654	-0.019
654	-0.014
655	-0.019
655	-0.025
656	-0.032
656	-0.039
657	-0.044
657	-0.049
657	-0.056
658	-0.064
658	-0.095
659	-0.182
659	-0.272
660	-0.313
660	-0.341
661	-0.368
661	-0.399
661	-0.431
662	-0.46
662	-0.49
663	-0.526
663	-0.565
664	-0.603
664	-0.646
665	-0.692
665	-0.74
665	-0.787
666	-0.838
666	-0.893
667	-0.949
667	-1.012
668	-1.072
668	-1.141
669	-1.208
669	-1.28
669	-1.357
670	-1.435
670	-1.536
671	-1.665
671	-1.913
672	-2.227
672	-2.415
672	-2.55
673	-2.654
673	-2.74
674	-2.821
674	-2.847
675	-2.865
675	-2.87
676	-2.871
676	-2.848
676	-2.785
677	-2.708
677	-2.62
678	-2.493
678	-2.301
679	-1.934
679	-1.686
680	-1.563
680	-1.48
680	-1.406
681	-1.351
681	-1.294
682	-1.247
682	-1.201
683	-1.155
683	-1.128
684	-1.097
684	-1.077
684	-1.052
685	-1.03
685	-1.019
686	-0.994
686	-0.978
687	-0.967
687	-0.954
687	-0.955
688	-0.936
688	-0.928
689	-0.928
689	-0.925
690	-0.909
690	-0.896
691	-0.894
691	-0.896
691	-0.896
692	-0.896
692	-0.889
693	-0.896
693	-0.905
694	-0.885
694	-0.883
695	-0.887
695	-0.879
695	-0.886
696	-0.893
696	-0.885
697	-0.877
697	-0.874
698	-0.87
698	-0.863
698	-0.876
699	-0.875
699	-0.875
700	-0.894
700	-0.886
701	-0.874
701	-0.869
702	-0.869
702	-0.867
702	-0.867
703	-0.858
703	-0.846
704	-0.852
704	-0.856
705	-0.845
705	-0.845
705	-0.839
706	-0.832
706	-0.828
707	-0.84
707	-0.842
708	-0.84
708	-0.838
709	-0.841
709	-0.836
709	-0.832
710	-0.84
710	-0.843
711	-0.842
711	-0.844
712	-0.834
712	-0.829
713	-0.833
713	-0.833
713	-0.812
714	-0.814
714	-0.817
715	-0.809
715	-0.815
716	-0.832
716	-0.841
716	-0.841
717	-0.849
717	-0.841
718	-0.834
718	-0.834
719	-0.829
719	-0.822
720	-0.815
720	-0.812
720	-0.806
721	-0.795
721	-0.8
722	-0.798
722	-0.793
723	-0.814
723	-0.827
723	-0.837
724	-0.837
724	-0.845
725	-0.838
725	-0.841
726	-0.846
726	-0.837
727	-0.837
727	-0.846
727	-0.835
728	-0.82
728	-0.817
729	-0.818
729	-0.82
730	-0.825
730	-0.816
730	-0.821
731	-0.824
731	-0.823
732	-0.824
732	-0.818
733	-0.836
733	-0.84
734	-0.849
734	-0.84
734	-0.822
735	-0.813
735	-0.809
736	-0.808
736	-0.801
737	-0.802
737	-0.792
737	-0.783
738	-0.769
738	-0.757
739	-0.76
739	-0.76
740	-0.773
740	-0.773
741	-0.784
741	-0.796
741	-0.806
742	-0.811
742	-0.825
743	-0.831
743	-0.834
744	-0.837
744	-0.846
744	-0.84
745	-0.848
745	-0.837
746	-0.832
746	-0.823
747	-0.827
747	-0.818
748	-0.821
748	-0.825
748	-0.827
749	-0.82
749	-0.828
750	-0.817
750	-0.818
751	-0.819
751	-0.814
751	-0.826
752	-0.829
752	-0.833
753	-0.834
753	-0.826
754	-0.844
754	-0.844
754	-0.851
755	-0.85
755	-0.841
756	-0.844
756	-0.83
757	-0.824
757	-0.811
758	-0.811
758	-0.81
758	-0.807
759	-0.812
759	-0.812
760	-0.811
760	-0.812
761	-0.807
761	-0.811
761	-0.812
762	-0.818
762	-0.819
763	-0.822
763	-0.825
764	-0.823
764	-0.818
764	-0.825
765	-0.826
765	-0.833
766	-0.834
766	-0.835
767	-0.849
767	-0.845
768	-0.841
768	-0.833
768	-0.83
769	-0.833
769	-0.842
770	-0.851
770	-0.856
771	-0.853
771	-0.852
771	-0.857
772	-0.859
772	-0.88
773	-0.881
773	-0.881
774	-0.879
774	-0.859
775	-0.848
775	-0.846
775	-0.852
776	-0.862
776	-0.859
777	-0.861
777	-0.842
778	-0.85
778	-0.858
778	-0.859
779	-0.869
779	-0.886
780	-0.883
780	-0.89
781	-0.88
781	-0.87
781	-0.883
782	-0.904
782	-0.905
783	-0.903
783	-0.911
784	-0.913
784	-0.906
784	-0.923
785	-0.915
785	-0.928
786	-0.931
786	-0.924
787	-0.914
787	-0.922
788	-0.916
788	-0.912
788	-0.913
789	-0.913
789	-0.904
790	-0.903
790	-0.887
791	-0.894
791	-0.889
791	-0.882
792	-0.879
792	-0.879
793	-0.88
793	-0.868
794	-0.861
794	-0.853
794	-0.861
795	-0.879
795	-0.865
796	-0.87
796	-0.867
797	-0.859
797	-0.85
797	-0.844
798	-0.865
798	-0.869
799	-0.871
799	-0.857
800	-0.852
800	-0.861
801	-0.858
801	-0.862
801	-0.86
802	-0.861
802	-0.861
803	-0.854
803	-0.846
804	-0.849
804	-0.857
804	-0.841
805	-0.822
805	-0.815
806	-0.813
806	-0.809
807	-0.81
807	-0.81
807	-0.793
808	-0.788
808	-0.782
809	-0.775
809	-0.776
810	-0.78
810	-0.775
810	-0.772
811	-0.776
811	-0.769
812	-0.762
812	-0.766
813	-0.769
813	-0.772
813	-0.767
814	-0.767
814	-0.772
815	-0.765
815	-0.762
816	-0.757
816	-0.774
817	-0.785
817	-0.788
817	-0.799
818	-0.792
818	-0.79
819	-0.8
819	-0.796
820	-0.808
820	-0.807
820	-0.806
821	-0.8
821	-0.796
822	-0.794
822	-0.78
823	-0.792
823	-0.792
823	-0.789
824	-0.788
824	-0.798
825	-0.795
825	-0.792
826	-0.788
826	-0.781
826	-0.782
827	-0.782
827	-0.771
828	-0.77
828	-0.763
829	-0.757
829	-0.741
829	-0.739
830	-0.736
830	-0.723
831	-0.716
831	-0.704
832	-0.696
832	-0.691
832	-0.686
833	-0.684
833	-0.688
834	-0.682
834	-0.677
835	-0.669
835	-0.668
835	-0.663
836	-0.66
836	-0.657
837	-0.645
837	-0.634
838	-0.622
838	-0.605
839	-0.6
839	-0.586
839	-0.578
840	-0.576
840	-0.567
841	-0.554
841	-0.546
842	-0.537
842	-0.526
842	-0.52
843	-0.516
843	-0.509
844	-0.508
844	-0.495
845	-0.48
845	-0.47
845	-0.462
846	-0.45
846	-0.439
847	-0.428
847	-0.415
848	-0.401
848	-0.386
848	-0.371
849	-0.359
849	-0.346
850	-0.335
850	-0.323
851	-0.31
851	-0.293
851	-0.284
852	-0.269
852	-0.256
853	-0.246
853	-0.235
854	-0.223
854	-0.212
854	-0.2
855	-0.188
855	-0.179
856	-0.171
856	-0.161
857	-0.153
857	-0.144
857	-0.13
858	-0.118
858	-0.11
859	-0.099
859	-0.086
860	-0.074
860	-0.058
860	-0.048
861	-0.037
861	-0.026
862	-0.016
862	-0.007
863	0.002
863	0.012
863	0.019
864	0.025
864	0.034
865	0.04
865	0.047
866	0.053
866	0.059
866	0.064
867	0.069
867	0.075
868	0.079
868	0.085
869	0.091
869	0.094
869	0.096
870	0.099
870	0.101
871	0.102
871	0.103
872	0.104
872	0.105
872	0.105
873	0.105
873	0.105
874	0.105
874	0.105
875	0.104
875	0.104
875	0.104
876	0.104
876	0.103
877	0.103
877	0.102
878	0.102
878	0.101
878	0.101
879	0.1
879	0.099
880	0.099
880	0.098
881	0.096
881	0.096
881	0.095
882	0.094
882	0.092
883	0.091
883	0.09
884	0.089
884	0.089
884	0.088
885	0.088
885	0.088
886	0.088
886	0.087
887	0.087
887	0.087
887	0.086
888	0.086
888	0.085
889	0.084
889	0.083
890	0.082
890	0.082
890	0.081
891	0.082
891	0.081
892	0.081
892	0.081
893	0.081
893	0.081
893	0.081
894	0.082
894	0.082
895	0.082
895	0.082
895	0.082
896	0.083
896	0.083
897	0.084
897	0.084
898	0.084
898	0.084
898	0.084
899	0.084
899	0.084
900	0.084
900	0.084
901	0.084
901	0.083
901	0.083
902	0.083
902	0.083
903	0.083
903	0.083
904	0.083
904	0.084
904	0.084
905	0.085
905	0.085
906	0.085
906	0.086
907	0.086
907	0.086
907	0.086
908	0.086
908	0.086
909	0.086
909	0.086
910	0.086
910	0.086
910	0.086
911	0.085
911	0.086
912	0.086
912	0.087
913	0.088
913	0.089
913	0.09
914	0.091
914	0.092
915	0.093
915	0.094
916	0.094
916	0.095
916	0.095
917	0.095
917	0.095
918	0.095
918	0.096
918	0.096
919	0.096
919	0.096
920	0.097
920	0.097
921	0.097
921	0.098
921	0.098
922	0.098
922	0.098
923	0.097
923	0.096
924	0.095
924	0.094
924	0.093
925	0.092
925	0.09
926	0.089
926	0.087
927	0.086
927	0.085
927	0.084
928	0.083
928	0.082
929	0.082
929	0.082
930	0.082
930	0.082
930	0.083
931	0.083
931	0.084
932	0.085
932	0.086
933	0.087
933	0.088
933	0.088
934	0.088
934	0.088
935	0.088
935	0.087
935	0.086
936	0.085
936	0.084
937	0.082
937	0.081
938	0.079
938	0.078
938	0.077
939	0.076
939	0.075
940	0.074
940	0.073
941	0.073
941	0.072
941	0.072
942	0.072
942	0.073
943	0.073
943	0.073
944	0.073
944	0.072
944	0.071
945	0.071
945	0.071
946	0.071
946	0.07
946	0.07
947	0.07
947	0.069
948	0.069
948	0.07
949	0.071
949	0.072
949	0.073
950	0.074
950	0.075
951	0.077
951	0.077
952	0.078
952	0.079
952	0.079
953	0.08
953	0.08
954	0.08
954	0.08
955	0.08
955	0.08
955	0.079
956	0.078
956	0.077
957	0.076
957	0.075
957	0.074
958	0.073
958	0.073
959	0.072
959	0.071
960	0.071
960	0.07
960	0.07
961	0.07
961	0.07
962	0.07
962	0.07
963	0.07
963	0.07
963	0.071
964	0.071
964	0.072
965	0.073
965	0.073
966	0.074
966	0.075
966	0.075
967	0.076
967	0.075
968	0.075
968	0.075
968	0.075
969	0.075
969	0.076
970	0.076
970	0.076
971	0.076
971	0.077
971	0.078
972	0.079
972	0.08
973	0.08
973	0.08
974	0.08
974	0.081
974	0.081
975	0.081
975	0.081
976	0.081
976	0.08
976	0.08
977	0.079
977	0.078
978	0.077
978	0.076
979	0.075
979	0.074
979	0.073
980	0.073
980	0.072
981	0.071
981	0.071
982	0.07
982	0.07
982	0.07
983	0.071
983	0.07
984	0.07
984	0.07
984	0.07
985	0.069
985	0.068
986	0.067
986	0.066
987	0.065
987	0.064
987	0.063
988	0.062
988	0.061
989	0.06
989	0.059
990	0.058
990	0.057
990	0.057
991	0.057
991	0.057
992	0.057
992	0.057
992	0.057
993	0.057
993	0.057
994	0.056
994	0.056
995	0.055
995	0.054
995	0.053
996	0.052
996	0.051
997	0.05
997	0.049
997	0.049
998	0.049
998	0.049
999	0.049
999	0.049
1000	0.05
1000	0.05
1000	0.051
1001	0.052
1001	0.052
1002	0.053
1002	0.053
1003	0.053
1003	0.053
1003	0.052
1004	0.052
1004	0.052
1005	0.051
1005	0.05
1005	0.049
1006	0.048
1006	0.047
1007	0.046
1007	0.045
1008	0.044
1008	0.044
1008	0.043
1009	0.043
1009	0.043
1010	0.043
1010	0.044
1010	0.044
1011	0.045
1011	0.045
1012	0.046
1012	0.047
1013	0.048
1013	0.049
1013	0.049
1014	0.05
1014	0.05
1015	0.05
1015	0.051
1016	0.051
1016	0.051
1016	0.051
1017	0.051
1017	0.05
1018	0.051
1018	0.05
1018	0.05
1019	0.05
1019	0.049
1020	0.049
1020	0.048
1021	0.047
1021	0.047
1021	0.046
1022	0.045
1022	0.045
1023	0.044
1023	0.044
1023	0.043
1024	0.043
1024	0.043
1025	0.043
1025	0.043
1026	0.043
1026	0.043
1026	0.042
1027	0.042
1027	0.042
1028	0.043
1028	0.043
1028	0.043
1029	0.043
1029	0.043
1030	0.043
1030	0.043
1031	0.043
1031	0.043
1031	0.043
1032	0.043
1032	0.043
1033	0.043
1033	0.043
1033	0.043
1034	0.043
1034	0.043
1035	0.043
1035	0.043
1036	0.043
1036	0.043
1036	0.043
1037	0.043
1037	0.044
1038	0.044
1038	0.045
1039	0.046
1039	0.046
1039	0.047
1040	0.048
1040	0.049
1041	0.049
1041	0.049
1041	0.048
1042	0.048
1042	0.048
1043	0.047
1043	0.046
1044	0.045
1044	0.043
1044	0.042
1045	0.041
1045	0.04
1046	0.039
1046	0.039
1046	0.038
1047	0.038
1047	0.037
1048	0.038
1048	0.038
1049	0.038
1049	0.038
1049	0.037
1050	0.037
1050	0.037
1051	0.036
1051	0.035
1051	0.035
1052	0.034
1052	0.033
1053	0.032
1053	0.032
1053	0.031
1054	0.031
1054	0.03
1055	0.031
1055	0.031
1056	0.031
1056	0.031
1056	0.031
1057	0.03
1057	0.03
1058	0.03
1058	0.029
1058	0.03
1059	0.029
1059	0.029
1060	0.028
1060	0.028
1061	0.027
1061	0.027
1061	0.028
1062	0.028
1062	0.028
1063	0.027
1063	0.027
1063	0.027
1064	0.027
1064	0.027
1065	0.027
1065	0.027
1066	0.027
1066	0.027
1066	0.026
1067	0.026
1067	0.026
1068	0.026
1068	0.026
1068	0.025
1069	0.025
1069	0.024
1070	0.024
1070	0.024
1071	0.023
1071	0.023
1071	0.023
1072	0.023
1072	0.023
1073	0.023
1073	0.023
1073	0.023
1074	0.022
1074	0.022
1075	0.021
1075	0.021
1076	0.019
1076	0.019
1076	0.017
1077	0.016
1077	0.014
1078	0.013
1078	0.011
1078	0.01
1079	0.009
1079	0.009
1080	0.007
1080	0.006
1080	0.004
1081	0.003
1081	0.002
1082	0.001
1082	0
1083	-0.001
1083	-0.002
1083	-0.003
1084	-0.004
1084	-0.004
1085	-0.005
1085	-0.006
1085	-0.006
1086	-0.007
1086	-0.008
1087	-0.008
1087	-0.008
1088	-0.009
1088	-0.01
1088	-0.01
1089	-0.012
1089	-0.012
1090	-0.013
1090	-0.014
1090	-0.015
1091	-0.016
1091	-0.017
1092	-0.018
1092	-0.018
1092	-0.02
1093	-0.021
1093	-0.021
1094	-0.022
1094	-0.023
1095	-0.025
1095	-0.025
1095	-0.026
1096	-0.027
1096	-0.028
1097	-0.03
1097	-0.031
1097	-0.033
1098	-0.035
1098	-0.037
1099	-0.038
1099	-0.04
1100	-0.043
1100	-0.046
1100	-0.049
1101	-0.053
1101	-0.056
1102	-0.058
1102	-0.061
1102	-0.063
1103	-0.066
1103	-0.07
1104	-0.073
1104	-0.077
1104	-0.079
1105	-0.081
1105	-0.084
1106	-0.089
1106	-0.091
1107	-0.098
1107	-0.102
1107	-0.107
1108	-0.11
1108	-0.111
1109	-0.115
1109	-0.12
1109	-0.125
1110	-0.127
1110	-0.13
1111	-0.144
1111	-0.139
