Data from 3.4A_17C_Absorbance__103__01060.txt Node

Date: Tue Jun 20 15:41:28 CEST 2023
User: Marek
Spectrometer: MAYP115816
Trigger mode: 0
Integration Time (sec): 2.200000E-1
Scans to average: 10
Electric dark correction enabled: true
Nonlinearity correction enabled: true
Boxcar width: 5
XAxis mode: Wavelengths
Number of Pixels in Spectrum: 2068
>>>>>Begin Spectral Data<<<<<
199	-0.759
199	-0.734
200	-0.703
200	-0.645
201	-0.615
201	-0.603
202	-0.586
202	-0.578
203	-0.576
203	-0.569
204	-0.548
204	-0.534
205	-0.512
205	-0.501
205	-0.51
206	-0.511
206	-0.506
207	-0.5
207	-0.507
208	-0.51
208	-0.513
209	-0.515
209	-0.518
210	-0.531
210	-0.538
211	-0.532
211	-0.538
212	-0.55
212	-0.557
213	-0.552
213	-0.549
213	-0.547
214	-0.553
214	-0.556
215	-0.554
215	-0.558
216	-0.567
216	-0.573
217	-0.571
217	-0.572
218	-0.579
218	-0.58
219	-0.588
219	-0.591
220	-0.594
220	-0.6
221	-0.599
221	-0.599
221	-0.589
222	-0.589
222	-0.587
223	-0.584
223	-0.585
224	-0.585
224	-0.583
225	-0.581
225	-0.583
226	-0.583
226	-0.582
227	-0.591
227	-0.599
228	-0.602
228	-0.61
229	-0.617
229	-0.614
229	-0.616
230	-0.61
230	-0.607
231	-0.604
231	-0.6
232	-0.601
232	-0.596
233	-0.597
233	-0.587
234	-0.585
234	-0.582
235	-0.584
235	-0.597
236	-0.604
236	-0.606
236	-0.607
237	-0.607
237	-0.607
238	-0.608
238	-0.61
239	-0.613
239	-0.622
240	-0.616
240	-0.611
241	-0.606
241	-0.609
242	-0.611
242	-0.618
243	-0.62
243	-0.622
243	-0.626
244	-0.621
244	-0.623
245	-0.626
245	-0.629
246	-0.639
246	-0.643
247	-0.651
247	-0.638
248	-0.635
248	-0.638
249	-0.643
249	-0.645
250	-0.643
250	-0.649
250	-0.647
251	-0.647
251	-0.644
252	-0.646
252	-0.657
253	-0.653
253	-0.665
254	-0.668
254	-0.669
255	-0.679
255	-0.679
256	-0.68
256	-0.693
257	-0.701
257	-0.697
258	-0.698
258	-0.705
258	-0.701
259	-0.695
259	-0.711
260	-0.71
260	-0.7
261	-0.712
261	-0.698
262	-0.704
262	-0.703
263	-0.695
263	-0.699
264	-0.709
264	-0.711
265	-0.703
265	-0.707
265	-0.717
266	-0.708
266	-0.707
267	-0.706
267	-0.722
268	-0.729
268	-0.724
269	-0.718
269	-0.731
270	-0.735
270	-0.732
271	-0.745
271	-0.755
272	-0.757
272	-0.759
272	-0.751
273	-0.76
273	-0.775
274	-0.766
274	-0.761
275	-0.757
275	-0.745
276	-0.749
276	-0.754
277	-0.755
277	-0.753
278	-0.757
278	-0.758
278	-0.745
279	-0.752
279	-0.767
280	-0.77
280	-0.778
281	-0.772
281	-0.764
282	-0.77
282	-0.763
283	-0.755
283	-0.77
284	-0.783
284	-0.793
285	-0.771
285	-0.778
285	-0.773
286	-0.777
286	-0.791
287	-0.788
287	-0.788
288	-0.786
288	-0.768
289	-0.766
289	-0.776
290	-0.786
290	-0.776
291	-0.781
291	-0.781
292	-0.763
292	-0.761
292	-0.766
293	-0.757
293	-0.753
294	-0.753
294	-0.738
295	-0.72
295	-0.732
296	-0.744
296	-0.738
297	-0.724
297	-0.728
298	-0.723
298	-0.74
298	-0.743
299	-0.725
299	-0.718
300	-0.715
300	-0.695
301	-0.675
301	-0.676
302	-0.688
302	-0.673
303	-0.666
303	-0.653
304	-0.637
304	-0.639
305	-0.631
305	-0.642
305	-0.658
306	-0.643
306	-0.643
307	-0.636
307	-0.648
308	-0.652
308	-0.649
309	-0.651
309	-0.647
310	-0.644
310	-0.636
311	-0.622
311	-0.64
311	-0.626
312	-0.622
312	-0.611
313	-0.602
313	-0.603
314	-0.605
314	-0.605
315	-0.602
315	-0.596
316	-0.591
316	-0.58
317	-0.573
317	-0.57
318	-0.562
318	-0.56
318	-0.55
319	-0.541
319	-0.533
320	-0.532
320	-0.528
321	-0.522
321	-0.522
322	-0.515
322	-0.509
323	-0.509
323	-0.499
324	-0.496
324	-0.484
324	-0.472
325	-0.457
325	-0.441
326	-0.434
326	-0.409
327	-0.394
327	-0.371
328	-0.339
328	-0.316
329	-0.287
329	-0.257
330	-0.229
330	-0.193
330	-0.158
331	-0.117
331	-0.083
332	-0.047
332	-0.014
333	0.017
333	0.052
334	0.082
334	0.109
335	0.137
335	0.16
336	0.184
336	0.204
336	0.221
337	0.24
337	0.259
338	0.273
338	0.285
339	0.299
339	0.31
340	0.319
340	0.328
341	0.335
341	0.342
342	0.35
342	0.355
342	0.361
343	0.365
343	0.37
344	0.373
344	0.376
345	0.379
345	0.382
346	0.384
346	0.387
347	0.388
347	0.39
348	0.391
348	0.393
348	0.394
349	0.394
349	0.396
350	0.397
350	0.397
351	0.398
351	0.398
352	0.398
352	0.398
353	0.399
353	0.399
354	0.4
354	0.4
354	0.399
355	0.4
355	0.399
356	0.399
356	0.4
357	0.399
357	0.399
358	0.399
358	0.399
359	0.398
359	0.398
360	0.398
360	0.398
360	0.398
361	0.398
361	0.398
362	0.398
362	0.398
363	0.398
363	0.398
364	0.398
364	0.397
365	0.397
365	0.397
366	0.397
366	0.397
366	0.397
367	0.397
367	0.396
368	0.396
368	0.395
369	0.395
369	0.395
370	0.395
370	0.394
371	0.394
371	0.394
372	0.393
372	0.392
372	0.392
373	0.392
373	0.392
374	0.391
374	0.391
375	0.391
375	0.39
376	0.39
376	0.389
377	0.389
377	0.389
378	0.388
378	0.388
378	0.388
379	0.387
379	0.387
380	0.387
380	0.386
381	0.386
381	0.386
382	0.385
382	0.385
383	0.384
383	0.384
383	0.383
384	0.383
384	0.382
385	0.382
385	0.381
386	0.381
386	0.38
387	0.38
387	0.379
388	0.379
388	0.379
389	0.378
389	0.378
389	0.377
390	0.377
390	0.377
391	0.377
391	0.377
392	0.376
392	0.376
393	0.376
393	0.375
394	0.375
394	0.374
394	0.374
395	0.373
395	0.372
396	0.372
396	0.371
397	0.371
397	0.37
398	0.37
398	0.369
399	0.369
399	0.369
400	0.368
400	0.368
400	0.368
401	0.367
401	0.367
402	0.366
402	0.366
403	0.366
403	0.365
404	0.365
404	0.364
405	0.364
405	0.363
405	0.363
406	0.363
406	0.363
407	0.362
407	0.362
408	0.362
408	0.361
409	0.361
409	0.361
410	0.361
410	0.361
411	0.361
411	0.36
411	0.36
412	0.36
412	0.359
413	0.359
413	0.358
414	0.358
414	0.358
415	0.357
415	0.357
416	0.357
416	0.356
416	0.356
417	0.356
417	0.355
418	0.355
418	0.355
419	0.355
419	0.355
420	0.355
420	0.355
421	0.355
421	0.354
421	0.354
422	0.354
422	0.354
423	0.354
423	0.353
424	0.353
424	0.353
425	0.353
425	0.352
426	0.352
426	0.352
427	0.352
427	0.352
427	0.352
428	0.352
428	0.352
429	0.352
429	0.351
430	0.351
430	0.35
431	0.35
431	0.35
432	0.349
432	0.349
432	0.349
433	0.349
433	0.349
434	0.349
434	0.349
435	0.35
435	0.35
436	0.35
436	0.35
437	0.35
437	0.35
437	0.35
438	0.35
438	0.35
439	0.349
439	0.349
440	0.349
440	0.349
441	0.349
441	0.349
442	0.349
442	0.349
442	0.349
443	0.349
443	0.349
444	0.349
444	0.349
445	0.349
445	0.349
446	0.349
446	0.349
447	0.349
447	0.349
447	0.349
448	0.349
448	0.349
449	0.349
449	0.349
450	0.349
450	0.35
451	0.35
451	0.35
452	0.35
452	0.35
452	0.35
453	0.35
453	0.35
454	0.351
454	0.351
455	0.352
455	0.352
456	0.352
456	0.352
457	0.353
457	0.353
458	0.353
458	0.353
458	0.353
459	0.353
459	0.353
460	0.353
460	0.353
461	0.353
461	0.354
462	0.354
462	0.355
463	0.356
463	0.356
463	0.357
464	0.357
464	0.358
465	0.358
465	0.359
466	0.359
466	0.36
467	0.361
467	0.361
467	0.362
468	0.362
468	0.362
469	0.363
469	0.364
470	0.365
470	0.366
471	0.367
471	0.367
472	0.368
472	0.368
472	0.369
473	0.37
473	0.371
474	0.372
474	0.373
475	0.374
475	0.375
476	0.376
476	0.378
477	0.379
477	0.38
477	0.381
478	0.382
478	0.384
479	0.385
479	0.386
480	0.387
480	0.389
481	0.39
481	0.392
482	0.393
482	0.395
482	0.396
483	0.399
483	0.401
484	0.403
484	0.404
485	0.406
485	0.408
486	0.409
486	0.411
487	0.413
487	0.414
487	0.416
488	0.418
488	0.419
489	0.422
489	0.424
490	0.427
490	0.429
491	0.432
491	0.435
492	0.437
492	0.439
492	0.442
493	0.444
493	0.447
494	0.45
494	0.453
495	0.455
495	0.458
496	0.461
496	0.464
496	0.467
497	0.47
497	0.473
498	0.476
498	0.479
499	0.482
499	0.485
500	0.489
500	0.493
501	0.497
501	0.5
501	0.503
502	0.506
502	0.509
503	0.513
503	0.517
504	0.52
504	0.523
505	0.526
505	0.53
506	0.534
506	0.538
506	0.541
507	0.545
507	0.549
508	0.553
508	0.556
509	0.56
509	0.564
510	0.568
510	0.571
511	0.574
511	0.577
511	0.581
512	0.584
512	0.587
513	0.59
513	0.594
514	0.597
514	0.601
515	0.604
515	0.607
515	0.61
516	0.613
516	0.616
517	0.619
517	0.622
518	0.624
518	0.626
519	0.628
519	0.63
520	0.632
520	0.634
520	0.636
521	0.637
521	0.639
522	0.64
522	0.642
523	0.644
523	0.646
524	0.646
524	0.647
524	0.648
525	0.649
525	0.649
526	0.65
526	0.651
527	0.651
527	0.651
528	0.65
528	0.65
529	0.649
529	0.648
529	0.648
530	0.647
530	0.646
531	0.645
531	0.645
532	0.643
532	0.642
533	0.641
533	0.639
533	0.638
534	0.636
534	0.634
535	0.633
535	0.631
536	0.628
536	0.625
537	0.622
537	0.62
538	0.617
538	0.614
538	0.61
539	0.608
539	0.605
540	0.601
540	0.597
541	0.594
541	0.59
542	0.587
542	0.583
542	0.579
543	0.574
543	0.57
544	0.566
544	0.562
545	0.558
545	0.554
546	0.55
546	0.545
547	0.54
547	0.535
547	0.531
548	0.527
548	0.522
549	0.517
549	0.513
550	0.508
550	0.503
551	0.497
551	0.492
551	0.487
552	0.482
552	0.478
553	0.473
553	0.468
554	0.464
554	0.458
555	0.453
555	0.448
556	0.444
556	0.439
556	0.434
557	0.43
557	0.425
558	0.42
558	0.416
559	0.411
559	0.406
560	0.401
560	0.397
560	0.393
561	0.389
561	0.385
562	0.381
562	0.377
563	0.373
563	0.369
564	0.365
564	0.361
564	0.357
565	0.353
565	0.35
566	0.345
566	0.341
567	0.337
567	0.333
568	0.329
568	0.325
568	0.321
569	0.316
569	0.312
570	0.307
570	0.302
571	0.299
571	0.295
572	0.291
572	0.287
573	0.284
573	0.28
573	0.276
574	0.273
574	0.27
575	0.268
575	0.266
576	0.263
576	0.259
577	0.256
577	0.253
577	0.251
578	0.249
578	0.247
579	0.246
579	0.243
580	0.24
580	0.235
581	0.232
581	0.229
581	0.228
582	0.226
582	0.224
583	0.222
583	0.219
584	0.214
584	0.21
585	0.208
585	0.206
585	0.203
586	0.201
586	0.198
587	0.195
587	0.192
588	0.19
588	0.188
589	0.186
589	0.184
590	0.182
590	0.18
590	0.18
591	0.178
591	0.176
592	0.174
592	0.172
593	0.17
593	0.168
594	0.166
594	0.165
594	0.163
595	0.162
595	0.159
596	0.157
596	0.157
597	0.157
597	0.156
598	0.154
598	0.153
598	0.152
599	0.15
599	0.149
600	0.147
600	0.146
601	0.145
601	0.143
602	0.141
602	0.14
602	0.138
603	0.137
603	0.137
604	0.136
604	0.135
605	0.134
605	0.134
606	0.132
606	0.13
606	0.129
607	0.128
607	0.127
608	0.126
608	0.124
609	0.122
609	0.122
610	0.12
610	0.119
610	0.118
611	0.117
611	0.117
612	0.116
612	0.116
613	0.116
613	0.115
614	0.114
614	0.112
614	0.111
615	0.11
615	0.109
616	0.109
616	0.108
617	0.107
617	0.106
618	0.105
618	0.104
618	0.103
619	0.103
619	0.103
620	0.103
620	0.102
621	0.101
621	0.1
622	0.099
622	0.098
622	0.097
623	0.096
623	0.096
624	0.096
624	0.094
625	0.093
625	0.093
626	0.092
626	0.091
626	0.09
627	0.09
627	0.089
628	0.088
628	0.087
629	0.085
629	0.084
630	0.083
630	0.082
630	0.081
631	0.08
631	0.079
632	0.077
632	0.076
633	0.075
633	0.074
634	0.074
634	0.073
634	0.072
635	0.071
635	0.071
636	0.07
636	0.069
637	0.068
637	0.067
638	0.066
638	0.065
638	0.064
639	0.062
639	0.061
640	0.06
640	0.058
641	0.057
641	0.056
642	0.054
642	0.053
642	0.051
643	0.049
643	0.047
644	0.045
644	0.043
645	0.041
645	0.039
646	0.036
646	0.032
646	0.028
647	0.024
647	0.021
648	0.017
648	0.014
649	0.01
649	0.007
650	0.003
650	-0.001
650	-0.005
651	-0.011
651	-0.017
652	-0.025
652	-0.033
653	-0.04
653	-0.046
653	-0.043
654	-0.034
654	-0.035
655	-0.04
655	-0.043
656	-0.048
656	-0.052
657	-0.056
657	-0.06
657	-0.065
658	-0.069
658	-0.092
659	-0.149
659	-0.203
660	-0.229
660	-0.248
661	-0.268
661	-0.289
661	-0.309
662	-0.327
662	-0.346
663	-0.367
663	-0.391
664	-0.412
664	-0.437
665	-0.464
665	-0.491
665	-0.517
666	-0.547
666	-0.581
667	-0.613
667	-0.654
668	-0.692
668	-0.742
669	-0.792
669	-0.847
669	-0.911
670	-0.985
670	-1.131
671	-1.447
671	-1.867
672	-2.207
672	-2.405
672	-2.544
673	-2.652
673	-2.681
674	-2.699
674	-2.708
675	-2.723
675	-2.727
676	-2.719
676	-2.67
676	-2.564
677	-2.421
677	-2.203
678	-1.674
678	-1.253
679	-1.107
679	-1.031
680	-0.976
680	-0.937
680	-0.907
681	-0.891
681	-0.863
682	-0.847
682	-0.823
683	-0.8
683	-0.797
684	-0.785
684	-0.782
684	-0.773
685	-0.768
685	-0.769
686	-0.758
686	-0.753
687	-0.751
687	-0.75
687	-0.759
688	-0.751
688	-0.751
689	-0.759
689	-0.761
690	-0.752
690	-0.746
691	-0.746
691	-0.755
691	-0.76
692	-0.763
692	-0.762
693	-0.772
693	-0.784
694	-0.768
694	-0.77
695	-0.775
695	-0.771
695	-0.781
696	-0.79
696	-0.785
697	-0.781
697	-0.779
698	-0.774
698	-0.768
698	-0.785
699	-0.785
699	-0.786
700	-0.807
700	-0.805
701	-0.795
701	-0.789
702	-0.79
702	-0.789
702	-0.791
703	-0.782
703	-0.768
704	-0.776
704	-0.78
705	-0.77
705	-0.768
705	-0.762
706	-0.757
706	-0.755
707	-0.766
707	-0.77
708	-0.768
708	-0.767
709	-0.769
709	-0.767
709	-0.762
710	-0.772
710	-0.774
711	-0.772
711	-0.772
712	-0.762
712	-0.761
713	-0.767
713	-0.768
713	-0.749
714	-0.751
714	-0.756
715	-0.748
715	-0.756
716	-0.775
716	-0.784
716	-0.786
717	-0.792
717	-0.784
718	-0.779
718	-0.781
719	-0.778
719	-0.769
720	-0.763
720	-0.761
720	-0.754
721	-0.745
721	-0.75
722	-0.748
722	-0.744
723	-0.76
723	-0.774
723	-0.782
724	-0.781
724	-0.788
725	-0.781
725	-0.785
726	-0.791
726	-0.781
727	-0.782
727	-0.789
727	-0.78
728	-0.767
728	-0.765
729	-0.766
729	-0.768
730	-0.772
730	-0.762
730	-0.767
731	-0.771
731	-0.771
732	-0.774
732	-0.769
733	-0.783
733	-0.789
734	-0.801
734	-0.794
734	-0.779
735	-0.771
735	-0.765
736	-0.764
736	-0.759
737	-0.758
737	-0.749
737	-0.742
738	-0.727
738	-0.711
739	-0.714
739	-0.714
740	-0.728
740	-0.728
741	-0.738
741	-0.749
741	-0.76
742	-0.768
742	-0.784
743	-0.791
743	-0.795
744	-0.8
744	-0.808
744	-0.799
745	-0.806
745	-0.796
746	-0.791
746	-0.784
747	-0.783
747	-0.771
748	-0.772
748	-0.775
748	-0.774
749	-0.767
749	-0.776
750	-0.767
750	-0.768
751	-0.768
751	-0.764
751	-0.776
752	-0.779
752	-0.785
753	-0.789
753	-0.783
754	-0.801
754	-0.802
754	-0.811
755	-0.81
755	-0.801
756	-0.805
756	-0.792
757	-0.788
757	-0.777
758	-0.777
758	-0.775
758	-0.77
759	-0.773
759	-0.773
760	-0.772
760	-0.774
761	-0.766
761	-0.77
761	-0.768
762	-0.773
762	-0.773
763	-0.776
763	-0.778
764	-0.778
764	-0.774
764	-0.78
765	-0.779
765	-0.786
766	-0.789
766	-0.792
767	-0.807
767	-0.804
768	-0.801
768	-0.794
768	-0.79
769	-0.792
769	-0.802
770	-0.811
770	-0.815
771	-0.81
771	-0.808
771	-0.813
772	-0.817
772	-0.84
773	-0.84
773	-0.839
774	-0.837
774	-0.821
775	-0.808
775	-0.807
775	-0.811
776	-0.822
776	-0.818
777	-0.817
777	-0.797
778	-0.807
778	-0.816
778	-0.815
779	-0.822
779	-0.839
780	-0.833
780	-0.843
781	-0.832
781	-0.821
781	-0.835
782	-0.857
782	-0.859
783	-0.857
783	-0.863
784	-0.867
784	-0.859
784	-0.88
785	-0.873
785	-0.886
786	-0.893
786	-0.886
787	-0.874
787	-0.883
788	-0.876
788	-0.872
788	-0.875
789	-0.876
789	-0.867
790	-0.864
790	-0.848
791	-0.853
791	-0.849
791	-0.844
792	-0.84
792	-0.845
793	-0.847
793	-0.836
794	-0.83
794	-0.822
794	-0.83
795	-0.851
795	-0.837
796	-0.843
796	-0.839
797	-0.831
797	-0.822
797	-0.815
798	-0.834
798	-0.837
799	-0.836
799	-0.822
800	-0.817
800	-0.826
801	-0.823
801	-0.827
801	-0.823
802	-0.821
802	-0.82
803	-0.815
803	-0.808
804	-0.817
804	-0.824
804	-0.808
805	-0.788
805	-0.779
806	-0.781
806	-0.777
807	-0.778
807	-0.781
807	-0.763
808	-0.759
808	-0.751
809	-0.747
809	-0.748
810	-0.753
810	-0.751
810	-0.745
811	-0.748
811	-0.74
812	-0.732
812	-0.735
813	-0.74
813	-0.74
813	-0.735
814	-0.733
814	-0.737
815	-0.728
815	-0.725
816	-0.724
816	-0.74
817	-0.752
817	-0.757
817	-0.767
818	-0.76
818	-0.759
819	-0.771
819	-0.771
820	-0.781
820	-0.782
820	-0.778
821	-0.774
821	-0.77
822	-0.768
822	-0.756
823	-0.768
823	-0.768
823	-0.762
824	-0.76
824	-0.77
825	-0.767
825	-0.767
826	-0.762
826	-0.758
826	-0.757
827	-0.757
827	-0.746
828	-0.744
828	-0.739
829	-0.731
829	-0.718
829	-0.715
830	-0.715
830	-0.701
831	-0.696
831	-0.685
832	-0.677
832	-0.672
832	-0.666
833	-0.665
833	-0.672
834	-0.665
834	-0.659
835	-0.65
835	-0.649
835	-0.643
836	-0.641
836	-0.638
837	-0.63
837	-0.621
838	-0.608
838	-0.591
839	-0.586
839	-0.575
839	-0.567
840	-0.566
840	-0.557
841	-0.546
841	-0.539
842	-0.529
842	-0.517
842	-0.513
843	-0.51
843	-0.507
844	-0.505
844	-0.492
845	-0.478
845	-0.469
845	-0.459
846	-0.446
846	-0.437
847	-0.427
847	-0.416
848	-0.402
848	-0.384
848	-0.372
849	-0.361
849	-0.351
850	-0.342
850	-0.332
851	-0.32
851	-0.307
851	-0.298
852	-0.284
852	-0.272
853	-0.265
853	-0.255
854	-0.245
854	-0.235
854	-0.224
855	-0.215
855	-0.208
856	-0.201
856	-0.194
857	-0.187
857	-0.18
857	-0.168
858	-0.159
858	-0.153
859	-0.143
859	-0.134
860	-0.124
860	-0.111
860	-0.102
861	-0.094
861	-0.086
862	-0.079
862	-0.072
863	-0.066
863	-0.057
863	-0.052
864	-0.047
864	-0.041
865	-0.036
865	-0.031
866	-0.026
866	-0.022
866	-0.018
867	-0.014
867	-0.009
868	-0.007
868	-0.003
869	0.001
869	0.003
869	0.005
870	0.007
870	0.009
871	0.011
871	0.012
872	0.012
872	0.013
872	0.013
873	0.014
873	0.014
874	0.013
874	0.013
875	0.013
875	0.012
875	0.012
876	0.012
876	0.012
877	0.011
877	0.011
878	0.011
878	0.01
878	0.01
879	0.009
879	0.009
880	0.008
880	0.008
881	0.007
881	0.006
881	0.005
882	0.005
882	0.004
883	0.003
883	0.003
884	0.003
884	0.003
884	0.003
885	0.003
885	0.003
886	0.004
886	0.003
887	0.003
887	0.003
887	0.002
888	0.002
888	0.001
889	0.001
889	-0
890	-0.001
890	-0.002
890	-0.002
891	-0.002
891	-0.002
892	-0.001
892	-0.001
893	-0.001
893	-0.001
893	-0.001
894	-0
894	0
895	0
895	0
895	0
896	0.001
896	0.001
897	0.001
897	0.001
898	0.002
898	0.002
898	0.002
899	0.003
899	0.003
900	0.003
900	0.004
901	0.004
901	0.004
901	0.004
902	0.004
902	0.004
903	0.004
903	0.004
904	0.003
904	0.003
904	0.002
905	0.002
905	0.002
906	0.002
906	0.003
907	0.003
907	0.004
907	0.005
908	0.005
908	0.007
909	0.008
909	0.009
910	0.01
910	0.011
910	0.012
911	0.012
911	0.014
912	0.015
912	0.016
913	0.018
913	0.018
913	0.019
914	0.02
914	0.02
915	0.02
915	0.02
916	0.019
916	0.018
916	0.017
917	0.016
917	0.016
918	0.015
918	0.014
918	0.013
919	0.013
919	0.012
920	0.011
920	0.011
921	0.011
921	0.011
921	0.011
922	0.011
922	0.01
923	0.01
923	0.01
924	0.01
924	0.01
924	0.01
925	0.009
925	0.009
926	0.009
926	0.009
927	0.009
927	0.009
927	0.009
928	0.009
928	0.009
929	0.01
929	0.01
930	0.01
930	0.011
930	0.011
931	0.012
931	0.012
932	0.013
932	0.013
933	0.014
933	0.013
933	0.013
934	0.012
934	0.011
935	0.011
935	0.01
935	0.008
936	0.007
936	0.006
937	0.004
937	0.003
938	0.002
938	0.001
938	0.001
939	0.001
939	0
940	0
940	-0
941	-0.001
941	-0.001
941	-0.001
942	-0.002
942	-0.002
943	-0.002
943	-0.002
944	-0.002
944	-0.003
944	-0.002
945	-0.002
945	-0.001
946	-0.001
946	-0.001
946	-0.001
947	-0.001
947	-0.001
948	-0.001
948	-0.001
949	-0.001
949	-0.001
949	-0.001
950	-0.001
950	-0
951	0
951	0
952	0
952	0.001
952	0.001
953	0.002
953	0.003
954	0.003
954	0.003
955	0.004
955	0.004
955	0.004
956	0.003
956	0.003
957	0.002
957	0.002
957	0.001
958	0.001
958	0.001
959	0.001
959	0
960	0
960	0
960	0.001
961	0.001
961	0.001
962	0.001
962	0.002
963	0.002
963	0.002
963	0.002
964	0.002
964	0.002
965	0.002
965	0.003
966	0.003
966	0.003
966	0.003
967	0.003
967	0.003
968	0.002
968	0.002
968	0.002
969	0.002
969	0.001
970	0
970	-0
971	-0.001
971	-0.001
971	-0.002
972	-0.002
972	-0.002
973	-0.002
973	-0.002
974	-0.001
974	-0.001
974	-0
975	0.001
975	0.002
976	0.002
976	0.003
976	0.003
977	0.004
977	0.003
978	0.003
978	0.002
979	0.002
979	0.001
979	0.001
980	-0
980	-0.001
981	-0.002
981	-0.003
982	-0.003
982	-0.003
982	-0.004
983	-0.004
983	-0.004
984	-0.004
984	-0.005
984	-0.005
985	-0.005
985	-0.005
986	-0.006
986	-0.006
987	-0.007
987	-0.008
987	-0.008
988	-0.008
988	-0.009
989	-0.009
989	-0.009
990	-0.01
990	-0.01
990	-0.01
991	-0.01
991	-0.01
992	-0.01
992	-0.01
992	-0.01
993	-0.01
993	-0.01
994	-0.01
994	-0.01
995	-0.01
995	-0.01
995	-0.011
996	-0.011
996	-0.012
997	-0.012
997	-0.012
997	-0.013
998	-0.013
998	-0.012
999	-0.012
999	-0.013
1000	-0.013
1000	-0.013
1000	-0.013
1001	-0.013
1001	-0.012
1002	-0.013
1002	-0.013
1003	-0.013
1003	-0.013
1003	-0.014
1004	-0.014
1004	-0.015
1005	-0.015
1005	-0.016
1005	-0.017
1006	-0.018
1006	-0.018
1007	-0.019
1007	-0.019
1008	-0.02
1008	-0.02
1008	-0.02
1009	-0.02
1009	-0.019
1010	-0.018
1010	-0.018
1010	-0.017
1011	-0.017
1011	-0.017
1012	-0.016
1012	-0.016
1013	-0.015
1013	-0.015
1013	-0.015
1014	-0.015
1014	-0.015
1015	-0.015
1015	-0.014
1016	-0.014
1016	-0.015
1016	-0.015
1017	-0.015
1017	-0.015
1018	-0.015
1018	-0.015
1018	-0.015
1019	-0.015
1019	-0.015
1020	-0.015
1020	-0.016
1021	-0.016
1021	-0.016
1021	-0.016
1022	-0.017
1022	-0.017
1023	-0.017
1023	-0.018
1023	-0.018
1024	-0.018
1024	-0.018
1025	-0.019
1025	-0.019
1026	-0.019
1026	-0.019
1026	-0.019
1027	-0.019
1027	-0.019
1028	-0.018
1028	-0.018
1028	-0.018
1029	-0.019
1029	-0.018
1030	-0.019
1030	-0.019
1031	-0.019
1031	-0.018
1031	-0.018
1032	-0.018
1032	-0.019
1033	-0.019
1033	-0.019
1033	-0.019
1034	-0.019
1034	-0.019
1035	-0.019
1035	-0.019
1036	-0.02
1036	-0.02
1036	-0.02
1037	-0.02
1037	-0.02
1038	-0.019
1038	-0.019
1039	-0.018
1039	-0.018
1039	-0.017
1040	-0.017
1040	-0.016
1041	-0.016
1041	-0.015
1041	-0.016
1042	-0.016
1042	-0.016
1043	-0.017
1043	-0.017
1044	-0.018
1044	-0.019
1044	-0.02
1045	-0.021
1045	-0.021
1046	-0.022
1046	-0.023
1046	-0.023
1047	-0.024
1047	-0.024
1048	-0.024
1048	-0.025
1049	-0.025
1049	-0.025
1049	-0.026
1050	-0.026
1050	-0.027
1051	-0.028
1051	-0.029
1051	-0.029
1052	-0.03
1052	-0.031
1053	-0.032
1053	-0.032
1053	-0.032
1054	-0.032
1054	-0.032
1055	-0.031
1055	-0.031
1056	-0.031
1056	-0.031
1056	-0.032
1057	-0.032
1057	-0.032
1058	-0.033
1058	-0.033
1058	-0.033
1059	-0.033
1059	-0.034
1060	-0.034
1060	-0.034
1061	-0.034
1061	-0.033
1061	-0.033
1062	-0.033
1062	-0.032
1063	-0.032
1063	-0.033
1063	-0.033
1064	-0.033
1064	-0.033
1065	-0.033
1065	-0.034
1066	-0.034
1066	-0.035
1066	-0.035
1067	-0.035
1067	-0.036
1068	-0.036
1068	-0.037
1068	-0.037
1069	-0.038
1069	-0.039
1070	-0.039
1070	-0.039
1071	-0.039
1071	-0.039
1071	-0.04
1072	-0.039
1072	-0.039
1073	-0.038
1073	-0.038
1073	-0.038
1074	-0.037
1074	-0.037
1075	-0.037
1075	-0.037
1076	-0.038
1076	-0.038
1076	-0.039
1077	-0.04
1077	-0.041
1078	-0.042
1078	-0.043
1078	-0.044
1079	-0.044
1079	-0.045
1080	-0.046
1080	-0.046
1080	-0.047
1081	-0.048
1081	-0.048
1082	-0.048
1082	-0.049
1083	-0.049
1083	-0.05
1083	-0.05
1084	-0.051
1084	-0.051
1085	-0.052
1085	-0.052
1085	-0.052
1086	-0.053
1086	-0.054
1087	-0.054
1087	-0.054
1088	-0.056
1088	-0.056
1088	-0.056
1089	-0.058
1089	-0.059
1090	-0.061
1090	-0.062
1090	-0.064
1091	-0.065
1091	-0.066
1092	-0.067
1092	-0.067
1092	-0.068
1093	-0.069
1093	-0.069
1094	-0.07
1094	-0.07
1095	-0.072
1095	-0.072
1095	-0.072
1096	-0.074
1096	-0.075
1097	-0.077
1097	-0.079
1097	-0.08
1098	-0.081
1098	-0.082
1099	-0.084
1099	-0.085
1100	-0.087
1100	-0.089
1100	-0.092
1101	-0.095
1101	-0.096
1102	-0.098
1102	-0.1
1102	-0.102
1103	-0.104
1103	-0.107
1104	-0.11
1104	-0.113
1104	-0.115
1105	-0.117
1105	-0.118
1106	-0.124
1106	-0.126
1107	-0.132
1107	-0.137
1107	-0.142
1108	-0.143
1108	-0.146
1109	-0.148
1109	-0.153
1109	-0.157
1110	-0.161
1110	-0.165
1111	-0.176
1111	-0.172
