Data from 3.4A_17C_Absorbance__931__01888.txt Node

Date: Tue Jun 20 16:11:50 CEST 2023
User: Marek
Spectrometer: MAYP115816
Trigger mode: 0
Integration Time (sec): 2.200000E-1
Scans to average: 10
Electric dark correction enabled: true
Nonlinearity correction enabled: true
Boxcar width: 5
XAxis mode: Wavelengths
Number of Pixels in Spectrum: 2068
>>>>>Begin Spectral Data<<<<<
199	-0.771
199	-0.764
200	-0.733
200	-0.679
201	-0.651
201	-0.644
202	-0.628
202	-0.62
203	-0.616
203	-0.609
204	-0.59
204	-0.575
205	-0.552
205	-0.54
205	-0.547
206	-0.548
206	-0.543
207	-0.533
207	-0.539
208	-0.543
208	-0.545
209	-0.547
209	-0.554
210	-0.566
210	-0.573
211	-0.568
211	-0.572
212	-0.581
212	-0.59
213	-0.588
213	-0.581
213	-0.579
214	-0.586
214	-0.589
215	-0.587
215	-0.593
216	-0.601
216	-0.607
217	-0.604
217	-0.605
218	-0.613
218	-0.616
219	-0.626
219	-0.627
220	-0.63
220	-0.637
221	-0.637
221	-0.638
221	-0.627
222	-0.628
222	-0.625
223	-0.621
223	-0.622
224	-0.621
224	-0.619
225	-0.615
225	-0.617
226	-0.616
226	-0.615
227	-0.625
227	-0.634
228	-0.639
228	-0.647
229	-0.652
229	-0.651
229	-0.652
230	-0.646
230	-0.644
231	-0.641
231	-0.636
232	-0.639
232	-0.634
233	-0.634
233	-0.622
234	-0.623
234	-0.616
235	-0.619
235	-0.632
236	-0.639
236	-0.64
236	-0.639
237	-0.638
237	-0.639
238	-0.64
238	-0.641
239	-0.643
239	-0.654
240	-0.648
240	-0.644
241	-0.639
241	-0.642
242	-0.647
242	-0.654
243	-0.654
243	-0.656
243	-0.66
244	-0.658
244	-0.659
245	-0.663
245	-0.667
246	-0.677
246	-0.68
247	-0.688
247	-0.675
248	-0.675
248	-0.677
249	-0.682
249	-0.683
250	-0.68
250	-0.689
250	-0.687
251	-0.687
251	-0.685
252	-0.684
252	-0.697
253	-0.691
253	-0.705
254	-0.711
254	-0.71
255	-0.721
255	-0.72
256	-0.721
256	-0.734
257	-0.743
257	-0.739
258	-0.74
258	-0.749
258	-0.746
259	-0.74
259	-0.759
260	-0.759
260	-0.746
261	-0.759
261	-0.744
262	-0.751
262	-0.748
263	-0.74
263	-0.746
264	-0.754
264	-0.755
265	-0.745
265	-0.748
265	-0.759
266	-0.75
266	-0.75
267	-0.75
267	-0.768
268	-0.775
268	-0.767
269	-0.761
269	-0.774
270	-0.777
270	-0.777
271	-0.79
271	-0.799
272	-0.8
272	-0.802
272	-0.795
273	-0.804
273	-0.819
274	-0.81
274	-0.806
275	-0.806
275	-0.794
276	-0.797
276	-0.802
277	-0.805
277	-0.801
278	-0.807
278	-0.807
278	-0.796
279	-0.805
279	-0.818
280	-0.82
280	-0.83
281	-0.823
281	-0.816
282	-0.822
282	-0.817
283	-0.809
283	-0.824
284	-0.838
284	-0.848
285	-0.827
285	-0.833
285	-0.826
286	-0.832
286	-0.849
287	-0.847
287	-0.846
288	-0.846
288	-0.826
289	-0.825
289	-0.834
290	-0.842
290	-0.831
291	-0.834
291	-0.832
292	-0.811
292	-0.81
292	-0.813
293	-0.801
293	-0.796
294	-0.796
294	-0.78
295	-0.764
295	-0.776
296	-0.786
296	-0.78
297	-0.766
297	-0.769
298	-0.766
298	-0.784
298	-0.788
299	-0.769
299	-0.762
300	-0.758
300	-0.74
301	-0.723
301	-0.727
302	-0.736
302	-0.721
303	-0.713
303	-0.702
304	-0.684
304	-0.688
305	-0.682
305	-0.692
305	-0.706
306	-0.691
306	-0.688
307	-0.681
307	-0.691
308	-0.694
308	-0.69
309	-0.693
309	-0.688
310	-0.685
310	-0.68
311	-0.668
311	-0.686
311	-0.674
312	-0.672
312	-0.662
313	-0.652
313	-0.653
314	-0.659
314	-0.656
315	-0.653
315	-0.645
316	-0.639
316	-0.629
317	-0.622
317	-0.621
318	-0.612
318	-0.611
318	-0.6
319	-0.589
319	-0.583
320	-0.581
320	-0.58
321	-0.574
321	-0.574
322	-0.567
322	-0.558
323	-0.56
323	-0.55
324	-0.549
324	-0.539
324	-0.527
325	-0.512
325	-0.496
326	-0.488
326	-0.463
327	-0.448
327	-0.428
328	-0.398
328	-0.376
329	-0.349
329	-0.322
330	-0.297
330	-0.263
330	-0.229
331	-0.195
331	-0.165
332	-0.133
332	-0.103
333	-0.076
333	-0.046
334	-0.019
334	0.003
335	0.026
335	0.045
336	0.065
336	0.084
336	0.099
337	0.114
337	0.129
338	0.141
338	0.15
339	0.161
339	0.171
340	0.179
340	0.187
341	0.192
341	0.197
342	0.203
342	0.207
342	0.211
343	0.214
343	0.219
344	0.221
344	0.224
345	0.226
345	0.229
346	0.23
346	0.232
347	0.233
347	0.235
348	0.236
348	0.237
348	0.238
349	0.238
349	0.239
350	0.24
350	0.24
351	0.241
351	0.241
352	0.241
352	0.241
353	0.241
353	0.242
354	0.242
354	0.242
354	0.242
355	0.242
355	0.242
356	0.242
356	0.242
357	0.243
357	0.243
358	0.243
358	0.243
359	0.243
359	0.242
360	0.242
360	0.242
360	0.242
361	0.242
361	0.242
362	0.242
362	0.242
363	0.242
363	0.242
364	0.242
364	0.242
365	0.242
365	0.242
366	0.242
366	0.242
366	0.242
367	0.242
367	0.241
368	0.241
368	0.241
369	0.241
369	0.241
370	0.241
370	0.241
371	0.241
371	0.241
372	0.241
372	0.241
372	0.241
373	0.241
373	0.241
374	0.241
374	0.241
375	0.241
375	0.24
376	0.24
376	0.24
377	0.24
377	0.24
378	0.239
378	0.239
378	0.239
379	0.239
379	0.239
380	0.239
380	0.239
381	0.238
381	0.238
382	0.238
382	0.238
383	0.238
383	0.238
383	0.237
384	0.237
384	0.237
385	0.236
385	0.236
386	0.236
386	0.236
387	0.236
387	0.236
388	0.236
388	0.236
389	0.236
389	0.236
389	0.236
390	0.236
390	0.236
391	0.236
391	0.236
392	0.235
392	0.235
393	0.235
393	0.235
394	0.235
394	0.235
394	0.234
395	0.234
395	0.234
396	0.234
396	0.233
397	0.233
397	0.233
398	0.233
398	0.233
399	0.233
399	0.233
400	0.232
400	0.232
400	0.233
401	0.232
401	0.232
402	0.232
402	0.232
403	0.232
403	0.232
404	0.232
404	0.231
405	0.231
405	0.231
405	0.231
406	0.231
406	0.23
407	0.23
407	0.23
408	0.23
408	0.23
409	0.23
409	0.23
410	0.23
410	0.23
411	0.23
411	0.23
411	0.229
412	0.229
412	0.229
413	0.229
413	0.229
414	0.228
414	0.228
415	0.228
415	0.227
416	0.227
416	0.227
416	0.227
417	0.227
417	0.226
418	0.226
418	0.226
419	0.226
419	0.226
420	0.226
420	0.226
421	0.226
421	0.226
421	0.226
422	0.226
422	0.226
423	0.226
423	0.226
424	0.226
424	0.226
425	0.226
425	0.226
426	0.226
426	0.226
427	0.226
427	0.226
427	0.226
428	0.226
428	0.226
429	0.226
429	0.225
430	0.225
430	0.225
431	0.225
431	0.224
432	0.224
432	0.224
432	0.223
433	0.223
433	0.223
434	0.223
434	0.223
435	0.223
435	0.223
436	0.223
436	0.223
437	0.223
437	0.223
437	0.223
438	0.223
438	0.223
439	0.223
439	0.223
440	0.223
440	0.223
441	0.223
441	0.223
442	0.223
442	0.223
442	0.223
443	0.223
443	0.223
444	0.223
444	0.223
445	0.223
445	0.223
446	0.223
446	0.223
447	0.223
447	0.223
447	0.223
448	0.223
448	0.223
449	0.223
449	0.222
450	0.222
450	0.222
451	0.222
451	0.222
452	0.222
452	0.222
452	0.223
453	0.223
453	0.223
454	0.223
454	0.223
455	0.223
455	0.223
456	0.223
456	0.223
457	0.223
457	0.223
458	0.222
458	0.222
458	0.222
459	0.222
459	0.221
460	0.221
460	0.221
461	0.22
461	0.221
462	0.221
462	0.221
463	0.222
463	0.223
463	0.223
464	0.223
464	0.224
465	0.224
465	0.225
466	0.225
466	0.225
467	0.226
467	0.225
467	0.225
468	0.224
468	0.224
469	0.224
469	0.225
470	0.225
470	0.225
471	0.225
471	0.224
472	0.225
472	0.225
472	0.225
473	0.226
473	0.227
474	0.227
474	0.227
475	0.228
475	0.229
476	0.229
476	0.23
477	0.23
477	0.231
477	0.231
478	0.232
478	0.232
479	0.232
479	0.233
480	0.233
480	0.233
481	0.234
481	0.234
482	0.235
482	0.235
482	0.236
483	0.237
483	0.238
484	0.239
484	0.239
485	0.239
485	0.24
486	0.241
486	0.241
487	0.242
487	0.243
487	0.243
488	0.244
488	0.244
489	0.245
489	0.246
490	0.247
490	0.248
491	0.249
491	0.25
492	0.251
492	0.251
492	0.252
493	0.253
493	0.254
494	0.255
494	0.256
495	0.257
495	0.258
496	0.259
496	0.261
496	0.262
497	0.264
497	0.265
498	0.266
498	0.267
499	0.268
499	0.27
500	0.271
500	0.272
501	0.273
501	0.274
501	0.275
502	0.276
502	0.277
503	0.279
503	0.28
504	0.282
504	0.284
505	0.285
505	0.287
506	0.289
506	0.291
506	0.293
507	0.295
507	0.297
508	0.298
508	0.3
509	0.302
509	0.303
510	0.305
510	0.307
511	0.308
511	0.31
511	0.311
512	0.313
512	0.314
513	0.315
513	0.317
514	0.318
514	0.32
515	0.321
515	0.322
515	0.323
516	0.324
516	0.326
517	0.327
517	0.328
518	0.33
518	0.33
519	0.331
519	0.332
520	0.333
520	0.334
520	0.335
521	0.336
521	0.337
522	0.337
522	0.338
523	0.339
523	0.34
524	0.34
524	0.341
524	0.342
525	0.343
525	0.343
526	0.344
526	0.344
527	0.345
527	0.345
528	0.345
528	0.345
529	0.345
529	0.345
529	0.345
530	0.345
530	0.345
531	0.344
531	0.344
532	0.343
532	0.343
533	0.343
533	0.342
533	0.342
534	0.342
534	0.341
535	0.341
535	0.341
536	0.34
536	0.34
537	0.339
537	0.339
538	0.338
538	0.338
538	0.337
539	0.336
539	0.336
540	0.335
540	0.333
541	0.332
541	0.331
542	0.33
542	0.329
542	0.328
543	0.327
543	0.326
544	0.324
544	0.323
545	0.322
545	0.321
546	0.32
546	0.318
547	0.317
547	0.315
547	0.314
548	0.313
548	0.312
549	0.311
549	0.31
550	0.309
550	0.307
551	0.305
551	0.304
551	0.303
552	0.301
552	0.3
553	0.299
553	0.297
554	0.296
554	0.294
555	0.292
555	0.291
556	0.289
556	0.288
556	0.287
557	0.286
557	0.285
558	0.283
558	0.282
559	0.281
559	0.279
560	0.278
560	0.276
560	0.276
561	0.275
561	0.274
562	0.272
562	0.271
563	0.27
563	0.268
564	0.267
564	0.266
564	0.266
565	0.265
565	0.264
566	0.263
566	0.262
567	0.261
567	0.26
568	0.26
568	0.258
568	0.257
569	0.256
569	0.254
570	0.252
570	0.25
571	0.25
571	0.249
572	0.248
572	0.246
573	0.245
573	0.244
573	0.242
574	0.242
574	0.241
575	0.241
575	0.242
576	0.241
576	0.24
577	0.238
577	0.237
577	0.237
578	0.237
578	0.238
579	0.238
579	0.238
580	0.237
580	0.235
581	0.233
581	0.232
581	0.233
582	0.233
582	0.233
583	0.233
583	0.231
584	0.229
584	0.227
585	0.227
585	0.228
585	0.228
586	0.228
586	0.227
587	0.225
587	0.223
588	0.222
588	0.221
589	0.221
589	0.221
590	0.22
590	0.219
590	0.22
591	0.221
591	0.22
592	0.219
592	0.219
593	0.219
593	0.219
594	0.218
594	0.217
594	0.217
595	0.216
595	0.215
596	0.214
596	0.215
597	0.217
597	0.216
598	0.216
598	0.216
598	0.216
599	0.216
599	0.215
600	0.215
600	0.215
601	0.216
601	0.216
602	0.215
602	0.215
602	0.214
603	0.214
603	0.215
604	0.215
604	0.215
605	0.216
605	0.216
606	0.215
606	0.214
606	0.214
607	0.213
607	0.213
608	0.213
608	0.211
609	0.211
609	0.211
610	0.21
610	0.209
610	0.209
611	0.209
611	0.209
612	0.209
612	0.21
613	0.21
613	0.21
614	0.21
614	0.209
614	0.208
615	0.208
615	0.207
616	0.207
616	0.206
617	0.206
617	0.205
618	0.205
618	0.204
618	0.204
619	0.203
619	0.204
620	0.204
620	0.204
621	0.203
621	0.203
622	0.203
622	0.202
622	0.201
623	0.201
623	0.201
624	0.201
624	0.199
625	0.198
625	0.198
626	0.197
626	0.196
626	0.196
627	0.195
627	0.195
628	0.194
628	0.194
629	0.193
629	0.192
630	0.19
630	0.189
630	0.188
631	0.187
631	0.186
632	0.184
632	0.183
633	0.182
633	0.18
634	0.179
634	0.178
634	0.177
635	0.176
635	0.174
636	0.172
636	0.171
637	0.169
637	0.167
638	0.165
638	0.163
638	0.161
639	0.158
639	0.155
640	0.152
640	0.149
641	0.146
641	0.142
642	0.139
642	0.136
642	0.132
643	0.128
643	0.124
644	0.12
644	0.116
645	0.112
645	0.107
646	0.103
646	0.097
646	0.092
647	0.086
647	0.08
648	0.073
648	0.067
649	0.06
649	0.053
650	0.046
650	0.039
650	0.031
651	0.021
651	0.01
652	-0.003
652	-0.017
653	-0.03
653	-0.041
653	-0.037
654	-0.019
654	-0.014
655	-0.02
655	-0.026
656	-0.032
656	-0.039
657	-0.044
657	-0.049
657	-0.056
658	-0.064
658	-0.096
659	-0.183
659	-0.273
660	-0.314
660	-0.342
661	-0.371
661	-0.403
661	-0.435
662	-0.464
662	-0.496
663	-0.531
663	-0.57
664	-0.607
664	-0.649
665	-0.696
665	-0.742
665	-0.788
666	-0.839
666	-0.895
667	-0.951
667	-1.014
668	-1.074
668	-1.143
669	-1.211
669	-1.284
669	-1.361
670	-1.44
670	-1.541
671	-1.672
671	-1.924
672	-2.232
672	-2.419
672	-2.553
673	-2.657
673	-2.742
674	-2.823
674	-2.846
675	-2.864
675	-2.869
676	-2.87
676	-2.846
676	-2.782
677	-2.705
677	-2.616
678	-2.488
678	-2.292
679	-1.912
679	-1.68
680	-1.56
680	-1.478
680	-1.404
681	-1.35
681	-1.293
682	-1.247
682	-1.202
683	-1.156
683	-1.13
684	-1.099
684	-1.078
684	-1.054
685	-1.031
685	-1.019
686	-0.995
686	-0.98
687	-0.966
687	-0.953
687	-0.951
688	-0.933
688	-0.925
689	-0.927
689	-0.922
690	-0.909
690	-0.897
691	-0.893
691	-0.897
691	-0.898
692	-0.899
692	-0.896
693	-0.902
693	-0.913
694	-0.894
694	-0.892
695	-0.895
695	-0.888
695	-0.896
696	-0.902
696	-0.893
697	-0.886
697	-0.882
698	-0.877
698	-0.869
698	-0.882
699	-0.88
699	-0.879
700	-0.899
700	-0.891
701	-0.878
701	-0.872
702	-0.872
702	-0.869
702	-0.868
703	-0.859
703	-0.848
704	-0.855
704	-0.859
705	-0.848
705	-0.847
705	-0.841
706	-0.833
706	-0.83
707	-0.844
707	-0.845
708	-0.843
708	-0.838
709	-0.841
709	-0.836
709	-0.83
710	-0.838
710	-0.841
711	-0.841
711	-0.842
712	-0.832
712	-0.829
713	-0.833
713	-0.835
713	-0.814
714	-0.817
714	-0.822
715	-0.814
715	-0.821
716	-0.838
716	-0.845
716	-0.845
717	-0.853
717	-0.845
718	-0.839
718	-0.841
719	-0.836
719	-0.828
720	-0.822
720	-0.819
720	-0.812
721	-0.803
721	-0.806
722	-0.803
722	-0.798
723	-0.815
723	-0.828
723	-0.836
724	-0.835
724	-0.839
725	-0.833
725	-0.837
726	-0.839
726	-0.83
727	-0.832
727	-0.839
727	-0.831
728	-0.815
728	-0.811
729	-0.814
729	-0.817
730	-0.822
730	-0.813
730	-0.821
731	-0.825
731	-0.825
732	-0.829
732	-0.825
733	-0.841
733	-0.846
734	-0.852
734	-0.843
734	-0.826
735	-0.817
735	-0.811
736	-0.809
736	-0.804
737	-0.801
737	-0.789
737	-0.781
738	-0.769
738	-0.757
739	-0.759
739	-0.759
740	-0.772
740	-0.773
741	-0.783
741	-0.791
741	-0.803
742	-0.811
742	-0.827
743	-0.833
743	-0.837
744	-0.841
744	-0.85
744	-0.843
745	-0.852
745	-0.841
746	-0.836
746	-0.826
747	-0.827
747	-0.817
748	-0.817
748	-0.823
748	-0.824
749	-0.816
749	-0.824
750	-0.815
750	-0.815
751	-0.814
751	-0.811
751	-0.823
752	-0.827
752	-0.831
753	-0.831
753	-0.824
754	-0.844
754	-0.843
754	-0.851
755	-0.852
755	-0.845
756	-0.848
756	-0.835
757	-0.827
757	-0.816
758	-0.817
758	-0.817
758	-0.811
759	-0.815
759	-0.814
760	-0.812
760	-0.817
761	-0.81
761	-0.815
761	-0.816
762	-0.822
762	-0.823
763	-0.823
763	-0.829
764	-0.829
764	-0.825
764	-0.831
765	-0.828
765	-0.835
766	-0.837
766	-0.839
767	-0.855
767	-0.851
768	-0.849
768	-0.84
768	-0.834
769	-0.837
769	-0.846
770	-0.856
770	-0.859
771	-0.855
771	-0.854
771	-0.859
772	-0.861
772	-0.883
773	-0.885
773	-0.886
774	-0.882
774	-0.866
775	-0.85
775	-0.853
775	-0.856
776	-0.868
776	-0.862
777	-0.863
777	-0.844
778	-0.853
778	-0.861
778	-0.862
779	-0.87
779	-0.887
780	-0.881
780	-0.89
781	-0.88
781	-0.87
781	-0.884
782	-0.906
782	-0.907
783	-0.907
783	-0.913
784	-0.916
784	-0.909
784	-0.928
785	-0.92
785	-0.932
786	-0.936
786	-0.929
787	-0.918
787	-0.926
788	-0.918
788	-0.914
788	-0.915
789	-0.915
789	-0.906
790	-0.904
790	-0.887
791	-0.893
791	-0.891
791	-0.885
792	-0.879
792	-0.882
793	-0.885
793	-0.873
794	-0.865
794	-0.859
794	-0.866
795	-0.886
795	-0.872
796	-0.875
796	-0.871
797	-0.864
797	-0.856
797	-0.848
798	-0.867
798	-0.872
799	-0.871
799	-0.858
800	-0.853
800	-0.862
801	-0.861
801	-0.864
801	-0.86
802	-0.859
802	-0.86
803	-0.855
803	-0.849
804	-0.855
804	-0.863
804	-0.847
805	-0.828
805	-0.818
806	-0.818
806	-0.814
807	-0.815
807	-0.812
807	-0.796
808	-0.79
808	-0.781
809	-0.774
809	-0.773
810	-0.778
810	-0.775
810	-0.772
811	-0.776
811	-0.767
812	-0.761
812	-0.763
813	-0.767
813	-0.769
813	-0.766
814	-0.768
814	-0.771
815	-0.762
815	-0.758
816	-0.756
816	-0.772
817	-0.784
817	-0.787
817	-0.796
818	-0.79
818	-0.787
819	-0.797
819	-0.796
820	-0.809
820	-0.807
820	-0.805
821	-0.8
821	-0.797
822	-0.796
822	-0.786
823	-0.797
823	-0.795
823	-0.79
824	-0.788
824	-0.796
825	-0.796
825	-0.794
826	-0.79
826	-0.784
826	-0.781
827	-0.78
827	-0.77
828	-0.769
828	-0.764
829	-0.759
829	-0.743
829	-0.742
830	-0.739
830	-0.726
831	-0.719
831	-0.71
832	-0.701
832	-0.696
832	-0.69
833	-0.688
833	-0.693
834	-0.688
834	-0.681
835	-0.675
835	-0.673
835	-0.667
836	-0.663
836	-0.658
837	-0.649
837	-0.638
838	-0.626
838	-0.608
839	-0.601
839	-0.589
839	-0.579
840	-0.578
840	-0.568
841	-0.556
841	-0.551
842	-0.543
842	-0.531
842	-0.528
843	-0.525
843	-0.52
844	-0.517
844	-0.505
845	-0.49
845	-0.48
845	-0.47
846	-0.458
846	-0.445
847	-0.435
847	-0.421
848	-0.406
848	-0.389
848	-0.374
849	-0.361
849	-0.349
850	-0.337
850	-0.325
851	-0.311
851	-0.294
851	-0.283
852	-0.265
852	-0.252
853	-0.243
853	-0.231
854	-0.221
854	-0.21
854	-0.199
855	-0.186
855	-0.179
856	-0.171
856	-0.162
857	-0.154
857	-0.145
857	-0.13
858	-0.117
858	-0.109
859	-0.097
859	-0.084
860	-0.073
860	-0.057
860	-0.046
861	-0.035
861	-0.025
862	-0.016
862	-0.007
863	0.002
863	0.013
863	0.019
864	0.025
864	0.033
865	0.04
865	0.046
866	0.053
866	0.058
866	0.064
867	0.069
867	0.075
868	0.079
868	0.085
869	0.09
869	0.094
869	0.096
870	0.099
870	0.101
871	0.103
871	0.104
872	0.104
872	0.105
872	0.106
873	0.106
873	0.105
874	0.105
874	0.105
875	0.104
875	0.104
875	0.104
876	0.104
876	0.103
877	0.103
877	0.102
878	0.101
878	0.101
878	0.1
879	0.1
879	0.099
880	0.098
880	0.097
881	0.096
881	0.095
881	0.094
882	0.093
882	0.092
883	0.091
883	0.09
884	0.089
884	0.089
884	0.088
885	0.088
885	0.088
886	0.087
886	0.087
887	0.087
887	0.087
887	0.086
888	0.086
888	0.085
889	0.084
889	0.083
890	0.082
890	0.082
890	0.081
891	0.081
891	0.081
892	0.081
892	0.081
893	0.081
893	0.081
893	0.081
894	0.082
894	0.082
895	0.082
895	0.082
895	0.082
896	0.083
896	0.083
897	0.083
897	0.083
898	0.083
898	0.084
898	0.084
899	0.085
899	0.085
900	0.085
900	0.085
901	0.085
901	0.085
901	0.084
902	0.084
902	0.085
903	0.085
903	0.084
904	0.084
904	0.084
904	0.084
905	0.085
905	0.085
906	0.086
906	0.086
907	0.086
907	0.086
907	0.086
908	0.087
908	0.087
909	0.086
909	0.086
910	0.086
910	0.086
910	0.085
911	0.085
911	0.086
912	0.086
912	0.087
913	0.088
913	0.089
913	0.09
914	0.091
914	0.092
915	0.093
915	0.094
916	0.094
916	0.095
916	0.095
917	0.096
917	0.096
918	0.096
918	0.096
918	0.096
919	0.097
919	0.097
920	0.097
920	0.098
921	0.098
921	0.098
921	0.098
922	0.098
922	0.098
923	0.097
923	0.096
924	0.096
924	0.095
924	0.093
925	0.092
925	0.091
926	0.089
926	0.088
927	0.086
927	0.085
927	0.084
928	0.083
928	0.083
929	0.083
929	0.082
930	0.082
930	0.083
930	0.083
931	0.084
931	0.085
932	0.086
932	0.087
933	0.088
933	0.088
933	0.089
934	0.089
934	0.089
935	0.089
935	0.088
935	0.087
936	0.086
936	0.084
937	0.083
937	0.081
938	0.08
938	0.079
938	0.078
939	0.076
939	0.075
940	0.074
940	0.074
941	0.073
941	0.072
941	0.073
942	0.073
942	0.073
943	0.073
943	0.073
944	0.072
944	0.072
944	0.072
945	0.071
945	0.071
946	0.071
946	0.07
946	0.07
947	0.07
947	0.069
948	0.07
948	0.071
949	0.071
949	0.072
949	0.074
950	0.075
950	0.076
951	0.077
951	0.077
952	0.078
952	0.079
952	0.079
953	0.08
953	0.08
954	0.08
954	0.08
955	0.08
955	0.079
955	0.079
956	0.079
956	0.078
957	0.076
957	0.075
957	0.074
958	0.073
958	0.072
959	0.072
959	0.071
960	0.07
960	0.07
960	0.07
961	0.069
961	0.07
962	0.07
962	0.07
963	0.07
963	0.071
963	0.071
964	0.071
964	0.072
965	0.073
965	0.074
966	0.074
966	0.075
966	0.075
967	0.076
967	0.075
968	0.075
968	0.075
968	0.076
969	0.076
969	0.076
970	0.076
970	0.076
971	0.076
971	0.077
971	0.078
972	0.079
972	0.079
973	0.08
973	0.08
974	0.081
974	0.081
974	0.081
975	0.081
975	0.081
976	0.081
976	0.081
976	0.081
977	0.08
977	0.079
978	0.078
978	0.077
979	0.076
979	0.075
979	0.074
980	0.073
980	0.072
981	0.072
981	0.071
982	0.071
982	0.071
982	0.071
983	0.071
983	0.071
984	0.071
984	0.071
984	0.07
985	0.07
985	0.069
986	0.068
986	0.067
987	0.065
987	0.064
987	0.063
988	0.062
988	0.061
989	0.06
989	0.059
990	0.058
990	0.058
990	0.058
991	0.057
991	0.057
992	0.058
992	0.058
992	0.058
993	0.058
993	0.058
994	0.057
994	0.056
995	0.056
995	0.055
995	0.054
996	0.053
996	0.052
997	0.051
997	0.05
997	0.05
998	0.049
998	0.05
999	0.05
999	0.05
1000	0.051
1000	0.051
1000	0.051
1001	0.052
1001	0.053
1002	0.053
1002	0.053
1003	0.054
1003	0.053
1003	0.053
1004	0.053
1004	0.052
1005	0.052
1005	0.051
1005	0.05
1006	0.049
1006	0.048
1007	0.047
1007	0.046
1008	0.045
1008	0.044
1008	0.044
1009	0.044
1009	0.044
1010	0.044
1010	0.044
1010	0.045
1011	0.045
1011	0.046
1012	0.046
1012	0.048
1013	0.049
1013	0.049
1013	0.05
1014	0.051
1014	0.051
1015	0.051
1015	0.052
1016	0.052
1016	0.052
1016	0.052
1017	0.052
1017	0.051
1018	0.051
1018	0.051
1018	0.05
1019	0.05
1019	0.049
1020	0.048
1020	0.048
1021	0.047
1021	0.046
1021	0.046
1022	0.045
1022	0.045
1023	0.045
1023	0.044
1023	0.044
1024	0.044
1024	0.043
1025	0.043
1025	0.043
1026	0.043
1026	0.043
1026	0.043
1027	0.043
1027	0.043
1028	0.044
1028	0.044
1028	0.044
1029	0.044
1029	0.045
1030	0.044
1030	0.044
1031	0.043
1031	0.044
1031	0.044
1032	0.044
1032	0.044
1033	0.043
1033	0.043
1033	0.043
1034	0.043
1034	0.043
1035	0.043
1035	0.043
1036	0.043
1036	0.043
1036	0.044
1037	0.044
1037	0.045
1038	0.045
1038	0.046
1039	0.047
1039	0.048
1039	0.048
1040	0.049
1040	0.05
1041	0.05
1041	0.049
1041	0.049
1042	0.049
1042	0.048
1043	0.048
1043	0.046
1044	0.045
1044	0.044
1044	0.043
1045	0.041
1045	0.041
1046	0.04
1046	0.039
1046	0.038
1047	0.038
1047	0.037
1048	0.038
1048	0.038
1049	0.038
1049	0.038
1049	0.038
1050	0.037
1050	0.037
1051	0.036
1051	0.035
1051	0.035
1052	0.034
1052	0.033
1053	0.033
1053	0.032
1053	0.032
1054	0.031
1054	0.031
1055	0.031
1055	0.031
1056	0.031
1056	0.031
1056	0.031
1057	0.03
1057	0.03
1058	0.03
1058	0.03
1058	0.03
1059	0.03
1059	0.029
1060	0.028
1060	0.028
1061	0.027
1061	0.027
1061	0.028
1062	0.027
1062	0.027
1063	0.027
1063	0.026
1063	0.027
1064	0.027
1064	0.027
1065	0.027
1065	0.027
1066	0.027
1066	0.026
1066	0.027
1067	0.026
1067	0.026
1068	0.026
1068	0.025
1068	0.025
1069	0.024
1069	0.024
1070	0.023
1070	0.023
1071	0.022
1071	0.022
1071	0.022
1072	0.022
1072	0.022
1073	0.022
1073	0.022
1073	0.022
1074	0.022
1074	0.021
1075	0.021
1075	0.02
1076	0.019
1076	0.018
1076	0.017
1077	0.016
1077	0.014
1078	0.013
1078	0.012
1078	0.011
1079	0.009
1079	0.008
1080	0.007
1080	0.006
1080	0.004
1081	0.003
1081	0.002
1082	0.001
1082	-0
1083	-0.001
1083	-0.002
1083	-0.003
1084	-0.004
1084	-0.004
1085	-0.005
1085	-0.005
1085	-0.006
1086	-0.006
1086	-0.008
1087	-0.008
1087	-0.008
1088	-0.01
1088	-0.011
1088	-0.011
1089	-0.012
1089	-0.013
1090	-0.014
1090	-0.015
1090	-0.016
1091	-0.017
1091	-0.018
1092	-0.019
1092	-0.019
1092	-0.02
1093	-0.021
1093	-0.021
1094	-0.022
1094	-0.023
1095	-0.025
1095	-0.026
1095	-0.026
1096	-0.028
1096	-0.029
1097	-0.031
1097	-0.033
1097	-0.035
1098	-0.037
1098	-0.039
1099	-0.041
1099	-0.043
1100	-0.045
1100	-0.048
1100	-0.052
1101	-0.055
1101	-0.058
1102	-0.06
1102	-0.063
1102	-0.064
1103	-0.067
1103	-0.071
1104	-0.074
1104	-0.077
1104	-0.079
1105	-0.081
1105	-0.084
1106	-0.09
1106	-0.092
1107	-0.099
1107	-0.105
1107	-0.11
1108	-0.112
1108	-0.113
1109	-0.117
1109	-0.123
1109	-0.128
1110	-0.13
1110	-0.133
1111	-0.145
1111	-0.139
