Data from 3.4A_17C_Absorbance__259__01216.txt Node

Date: Tue Jun 20 15:47:11 CEST 2023
User: Marek
Spectrometer: MAYP115816
Trigger mode: 0
Integration Time (sec): 2.200000E-1
Scans to average: 10
Electric dark correction enabled: true
Nonlinearity correction enabled: true
Boxcar width: 5
XAxis mode: Wavelengths
Number of Pixels in Spectrum: 2068
>>>>>Begin Spectral Data<<<<<
199	-0.758
199	-0.742
200	-0.705
200	-0.652
201	-0.622
201	-0.613
202	-0.595
202	-0.588
203	-0.588
203	-0.582
204	-0.562
204	-0.544
205	-0.521
205	-0.51
205	-0.518
206	-0.52
206	-0.516
207	-0.51
207	-0.517
208	-0.518
208	-0.521
209	-0.523
209	-0.53
210	-0.542
210	-0.549
211	-0.543
211	-0.548
212	-0.557
212	-0.563
213	-0.559
213	-0.553
213	-0.552
214	-0.561
214	-0.562
215	-0.56
215	-0.566
216	-0.576
216	-0.58
217	-0.577
217	-0.578
218	-0.585
218	-0.587
219	-0.593
219	-0.592
220	-0.597
220	-0.602
221	-0.602
221	-0.603
221	-0.595
222	-0.595
222	-0.594
223	-0.589
223	-0.592
224	-0.592
224	-0.591
225	-0.587
225	-0.59
226	-0.591
226	-0.59
227	-0.598
227	-0.609
228	-0.612
228	-0.621
229	-0.627
229	-0.626
229	-0.626
230	-0.621
230	-0.618
231	-0.615
231	-0.608
232	-0.611
232	-0.604
233	-0.607
233	-0.595
234	-0.595
234	-0.589
235	-0.593
235	-0.605
236	-0.613
236	-0.613
236	-0.613
237	-0.612
237	-0.612
238	-0.612
238	-0.612
239	-0.613
239	-0.623
240	-0.616
240	-0.613
241	-0.609
241	-0.615
242	-0.619
242	-0.628
243	-0.628
243	-0.629
243	-0.634
244	-0.632
244	-0.633
245	-0.635
245	-0.638
246	-0.645
246	-0.646
247	-0.654
247	-0.639
248	-0.638
248	-0.641
249	-0.647
249	-0.647
250	-0.645
250	-0.652
250	-0.649
251	-0.648
251	-0.645
252	-0.645
252	-0.657
253	-0.652
253	-0.662
254	-0.668
254	-0.669
255	-0.681
255	-0.681
256	-0.682
256	-0.694
257	-0.704
257	-0.702
258	-0.703
258	-0.713
258	-0.711
259	-0.703
259	-0.723
260	-0.72
260	-0.708
261	-0.721
261	-0.707
262	-0.714
262	-0.713
263	-0.704
263	-0.707
264	-0.716
264	-0.717
265	-0.707
265	-0.71
265	-0.721
266	-0.709
266	-0.71
267	-0.709
267	-0.724
268	-0.732
268	-0.727
269	-0.72
269	-0.736
270	-0.742
270	-0.74
271	-0.753
271	-0.767
272	-0.768
272	-0.771
272	-0.764
273	-0.774
273	-0.787
274	-0.779
274	-0.774
275	-0.77
275	-0.759
276	-0.761
276	-0.766
277	-0.769
277	-0.765
278	-0.769
278	-0.769
278	-0.758
279	-0.768
279	-0.78
280	-0.78
280	-0.79
281	-0.784
281	-0.777
282	-0.783
282	-0.777
283	-0.769
283	-0.782
284	-0.795
284	-0.804
285	-0.785
285	-0.793
285	-0.784
286	-0.789
286	-0.805
287	-0.801
287	-0.8
288	-0.801
288	-0.784
289	-0.782
289	-0.788
290	-0.8
290	-0.788
291	-0.794
291	-0.792
292	-0.772
292	-0.769
292	-0.775
293	-0.763
293	-0.759
294	-0.759
294	-0.746
295	-0.726
295	-0.738
296	-0.748
296	-0.744
297	-0.733
297	-0.736
298	-0.731
298	-0.748
298	-0.749
299	-0.731
299	-0.723
300	-0.721
300	-0.701
301	-0.682
301	-0.684
302	-0.694
302	-0.681
303	-0.673
303	-0.661
304	-0.646
304	-0.649
305	-0.643
305	-0.65
305	-0.663
306	-0.648
306	-0.647
307	-0.638
307	-0.648
308	-0.652
308	-0.647
309	-0.649
309	-0.644
310	-0.643
310	-0.637
311	-0.624
311	-0.643
311	-0.631
312	-0.63
312	-0.619
313	-0.609
313	-0.612
314	-0.619
314	-0.617
315	-0.613
315	-0.608
316	-0.603
316	-0.593
317	-0.585
317	-0.581
318	-0.573
318	-0.571
318	-0.561
319	-0.548
319	-0.539
320	-0.538
320	-0.536
321	-0.53
321	-0.529
322	-0.522
322	-0.516
323	-0.517
323	-0.508
324	-0.505
324	-0.492
324	-0.483
325	-0.468
325	-0.451
326	-0.442
326	-0.42
327	-0.406
327	-0.383
328	-0.351
328	-0.328
329	-0.299
329	-0.271
330	-0.244
330	-0.208
330	-0.17
331	-0.134
331	-0.1
332	-0.067
332	-0.034
333	-0.003
333	0.032
334	0.062
334	0.089
335	0.116
335	0.138
336	0.16
336	0.181
336	0.199
337	0.218
337	0.235
338	0.25
338	0.261
339	0.274
339	0.285
340	0.293
340	0.301
341	0.309
341	0.316
342	0.322
342	0.329
342	0.333
343	0.337
343	0.341
344	0.344
344	0.346
345	0.35
345	0.353
346	0.355
346	0.357
347	0.358
347	0.359
348	0.36
348	0.362
348	0.363
349	0.364
349	0.365
350	0.366
350	0.366
351	0.366
351	0.367
352	0.366
352	0.367
353	0.367
353	0.368
354	0.368
354	0.368
354	0.368
355	0.368
355	0.368
356	0.368
356	0.368
357	0.368
357	0.368
358	0.368
358	0.368
359	0.368
359	0.368
360	0.368
360	0.368
360	0.368
361	0.368
361	0.368
362	0.368
362	0.368
363	0.368
363	0.368
364	0.368
364	0.367
365	0.367
365	0.367
366	0.367
366	0.367
366	0.367
367	0.367
367	0.367
368	0.366
368	0.366
369	0.365
369	0.365
370	0.365
370	0.364
371	0.364
371	0.364
372	0.363
372	0.363
372	0.363
373	0.363
373	0.363
374	0.363
374	0.362
375	0.362
375	0.362
376	0.361
376	0.361
377	0.361
377	0.36
378	0.36
378	0.359
378	0.359
379	0.359
379	0.359
380	0.359
380	0.358
381	0.358
381	0.357
382	0.357
382	0.357
383	0.356
383	0.356
383	0.356
384	0.355
384	0.355
385	0.354
385	0.354
386	0.353
386	0.353
387	0.353
387	0.352
388	0.352
388	0.352
389	0.351
389	0.351
389	0.351
390	0.351
390	0.351
391	0.35
391	0.35
392	0.35
392	0.35
393	0.35
393	0.35
394	0.349
394	0.348
394	0.348
395	0.348
395	0.347
396	0.347
396	0.346
397	0.346
397	0.345
398	0.345
398	0.345
399	0.344
399	0.344
400	0.344
400	0.343
400	0.343
401	0.343
401	0.342
402	0.342
402	0.342
403	0.342
403	0.341
404	0.341
404	0.34
405	0.34
405	0.34
405	0.339
406	0.339
406	0.339
407	0.338
407	0.338
408	0.338
408	0.337
409	0.337
409	0.337
410	0.337
410	0.337
411	0.337
411	0.337
411	0.336
412	0.336
412	0.335
413	0.335
413	0.334
414	0.334
414	0.334
415	0.334
415	0.333
416	0.333
416	0.333
416	0.333
417	0.332
417	0.332
418	0.332
418	0.332
419	0.333
419	0.332
420	0.332
420	0.332
421	0.332
421	0.332
421	0.332
422	0.332
422	0.332
423	0.331
423	0.331
424	0.33
424	0.33
425	0.33
425	0.33
426	0.33
426	0.33
427	0.329
427	0.329
427	0.329
428	0.329
428	0.329
429	0.329
429	0.328
430	0.328
430	0.327
431	0.327
431	0.327
432	0.326
432	0.326
432	0.326
433	0.326
433	0.326
434	0.326
434	0.326
435	0.327
435	0.327
436	0.327
436	0.327
437	0.327
437	0.327
437	0.327
438	0.327
438	0.327
439	0.326
439	0.326
440	0.326
440	0.326
441	0.326
441	0.326
442	0.326
442	0.326
442	0.326
443	0.326
443	0.326
444	0.326
444	0.326
445	0.326
445	0.326
446	0.326
446	0.326
447	0.326
447	0.326
447	0.326
448	0.326
448	0.326
449	0.326
449	0.326
450	0.326
450	0.326
451	0.326
451	0.326
452	0.326
452	0.326
452	0.326
453	0.327
453	0.327
454	0.327
454	0.327
455	0.327
455	0.327
456	0.328
456	0.328
457	0.328
457	0.328
458	0.328
458	0.328
458	0.328
459	0.328
459	0.328
460	0.328
460	0.328
461	0.328
461	0.329
462	0.329
462	0.33
463	0.33
463	0.331
463	0.331
464	0.331
464	0.332
465	0.332
465	0.333
466	0.333
466	0.334
467	0.334
467	0.334
467	0.335
468	0.335
468	0.335
469	0.336
469	0.336
470	0.337
470	0.338
471	0.338
471	0.339
472	0.339
472	0.34
472	0.341
473	0.342
473	0.343
474	0.343
474	0.344
475	0.345
475	0.346
476	0.346
476	0.347
477	0.348
477	0.349
477	0.35
478	0.351
478	0.352
479	0.353
479	0.354
480	0.355
480	0.356
481	0.357
481	0.358
482	0.36
482	0.361
482	0.363
483	0.364
483	0.366
484	0.368
484	0.369
485	0.37
485	0.372
486	0.373
486	0.374
487	0.376
487	0.377
487	0.379
488	0.38
488	0.381
489	0.383
489	0.385
490	0.387
490	0.389
491	0.391
491	0.393
492	0.395
492	0.397
492	0.399
493	0.4
493	0.403
494	0.406
494	0.408
495	0.41
495	0.412
496	0.415
496	0.417
496	0.42
497	0.422
497	0.425
498	0.427
498	0.43
499	0.432
499	0.435
500	0.439
500	0.442
501	0.445
501	0.448
501	0.451
502	0.453
502	0.456
503	0.46
503	0.462
504	0.465
504	0.468
505	0.47
505	0.474
506	0.477
506	0.48
506	0.483
507	0.486
507	0.489
508	0.493
508	0.496
509	0.499
509	0.502
510	0.506
510	0.508
511	0.511
511	0.514
511	0.517
512	0.52
512	0.522
513	0.525
513	0.528
514	0.531
514	0.534
515	0.537
515	0.539
515	0.542
516	0.545
516	0.548
517	0.55
517	0.552
518	0.554
518	0.556
519	0.558
519	0.559
520	0.561
520	0.563
520	0.565
521	0.566
521	0.568
522	0.569
522	0.57
523	0.572
523	0.574
524	0.574
524	0.576
524	0.577
525	0.577
525	0.578
526	0.579
526	0.579
527	0.58
527	0.58
528	0.58
528	0.58
529	0.58
529	0.579
529	0.579
530	0.579
530	0.578
531	0.578
531	0.577
532	0.576
532	0.576
533	0.575
533	0.574
533	0.573
534	0.572
534	0.571
535	0.569
535	0.568
536	0.567
536	0.565
537	0.563
537	0.562
538	0.559
538	0.557
538	0.555
539	0.553
539	0.551
540	0.549
540	0.546
541	0.543
541	0.54
542	0.538
542	0.535
542	0.532
543	0.529
543	0.526
544	0.523
544	0.52
545	0.518
545	0.515
546	0.512
546	0.508
547	0.504
547	0.501
547	0.498
548	0.494
548	0.491
549	0.487
549	0.484
550	0.481
550	0.477
551	0.473
551	0.469
551	0.465
552	0.462
552	0.459
553	0.455
553	0.452
554	0.449
554	0.445
555	0.441
555	0.437
556	0.433
556	0.43
556	0.426
557	0.423
557	0.42
558	0.416
558	0.413
559	0.41
559	0.406
560	0.402
560	0.399
560	0.397
561	0.394
561	0.391
562	0.388
562	0.385
563	0.382
563	0.379
564	0.376
564	0.374
564	0.371
565	0.369
565	0.366
566	0.363
566	0.36
567	0.358
567	0.355
568	0.352
568	0.349
568	0.346
569	0.342
569	0.339
570	0.335
570	0.331
571	0.329
571	0.326
572	0.322
572	0.32
573	0.316
573	0.313
573	0.31
574	0.308
574	0.307
575	0.305
575	0.304
576	0.302
576	0.299
577	0.296
577	0.294
577	0.293
578	0.291
578	0.29
579	0.289
579	0.288
580	0.285
580	0.281
581	0.278
581	0.276
581	0.275
582	0.274
582	0.273
583	0.271
583	0.268
584	0.264
584	0.26
585	0.259
585	0.257
585	0.255
586	0.253
586	0.251
587	0.248
587	0.246
588	0.244
588	0.242
589	0.241
589	0.24
590	0.239
590	0.237
590	0.237
591	0.236
591	0.234
592	0.232
592	0.23
593	0.229
593	0.227
594	0.226
594	0.224
594	0.222
595	0.221
595	0.219
596	0.217
596	0.217
597	0.217
597	0.216
598	0.215
598	0.214
598	0.213
599	0.212
599	0.21
600	0.209
600	0.207
601	0.207
601	0.205
602	0.203
602	0.202
602	0.201
603	0.2
603	0.2
604	0.199
604	0.198
605	0.197
605	0.197
606	0.195
606	0.194
606	0.192
607	0.191
607	0.19
608	0.189
608	0.187
609	0.186
609	0.185
610	0.184
610	0.182
610	0.181
611	0.181
611	0.18
612	0.18
612	0.18
613	0.179
613	0.178
614	0.177
614	0.175
614	0.174
615	0.173
615	0.172
616	0.171
616	0.17
617	0.169
617	0.168
618	0.167
618	0.166
618	0.165
619	0.164
619	0.164
620	0.164
620	0.162
621	0.161
621	0.16
622	0.159
622	0.158
622	0.156
623	0.155
623	0.155
624	0.154
624	0.153
625	0.152
625	0.151
626	0.15
626	0.148
626	0.148
627	0.147
627	0.145
628	0.144
628	0.143
629	0.141
629	0.14
630	0.138
630	0.136
630	0.135
631	0.133
631	0.131
632	0.129
632	0.127
633	0.125
633	0.124
634	0.122
634	0.12
634	0.119
635	0.117
635	0.115
636	0.113
636	0.111
637	0.109
637	0.106
638	0.104
638	0.102
638	0.099
639	0.096
639	0.093
640	0.09
640	0.086
641	0.083
641	0.08
642	0.077
642	0.074
642	0.07
643	0.067
643	0.063
644	0.059
644	0.055
645	0.05
645	0.046
646	0.041
646	0.036
646	0.03
647	0.024
647	0.018
648	0.012
648	0.007
649	0.001
649	-0.005
650	-0.01
650	-0.016
650	-0.023
651	-0.031
651	-0.04
652	-0.051
652	-0.062
653	-0.072
653	-0.081
653	-0.076
654	-0.059
654	-0.055
655	-0.059
655	-0.063
656	-0.068
656	-0.074
657	-0.078
657	-0.081
657	-0.086
658	-0.091
658	-0.118
659	-0.193
659	-0.27
660	-0.305
660	-0.329
661	-0.351
661	-0.377
661	-0.405
662	-0.429
662	-0.457
663	-0.487
663	-0.521
664	-0.553
664	-0.59
665	-0.63
665	-0.672
665	-0.712
666	-0.759
666	-0.809
667	-0.859
667	-0.918
668	-0.973
668	-1.039
669	-1.105
669	-1.177
669	-1.254
670	-1.338
670	-1.465
671	-1.709
671	-2.117
672	-2.343
672	-2.497
672	-2.613
673	-2.707
673	-2.785
674	-2.821
674	-2.833
675	-2.847
675	-2.851
676	-2.842
676	-2.775
676	-2.697
677	-2.599
677	-2.475
678	-2.278
678	-1.881
679	-1.561
679	-1.423
680	-1.332
680	-1.265
680	-1.206
681	-1.166
681	-1.121
682	-1.086
682	-1.049
683	-1.01
683	-0.991
684	-0.968
684	-0.952
684	-0.934
685	-0.917
685	-0.91
686	-0.891
686	-0.879
687	-0.871
687	-0.862
687	-0.863
688	-0.847
688	-0.841
689	-0.846
689	-0.844
690	-0.833
690	-0.822
691	-0.821
691	-0.824
691	-0.825
692	-0.827
692	-0.826
693	-0.834
693	-0.846
694	-0.828
694	-0.828
695	-0.831
695	-0.828
695	-0.835
696	-0.843
696	-0.837
697	-0.832
697	-0.828
698	-0.825
698	-0.818
698	-0.832
699	-0.831
699	-0.833
700	-0.852
700	-0.846
701	-0.832
701	-0.825
702	-0.824
702	-0.822
702	-0.822
703	-0.813
703	-0.802
704	-0.809
704	-0.811
705	-0.8
705	-0.8
705	-0.796
706	-0.789
706	-0.787
707	-0.799
707	-0.802
708	-0.799
708	-0.795
709	-0.798
709	-0.797
709	-0.791
710	-0.797
710	-0.8
711	-0.8
711	-0.801
712	-0.791
712	-0.789
713	-0.795
713	-0.797
713	-0.775
714	-0.775
714	-0.779
715	-0.773
715	-0.779
716	-0.795
716	-0.803
716	-0.804
717	-0.809
717	-0.8
718	-0.795
718	-0.797
719	-0.792
719	-0.785
720	-0.78
720	-0.776
720	-0.769
721	-0.761
721	-0.765
722	-0.762
722	-0.759
723	-0.776
723	-0.788
723	-0.797
724	-0.796
724	-0.801
725	-0.795
725	-0.799
726	-0.803
726	-0.794
727	-0.796
727	-0.803
727	-0.794
728	-0.781
728	-0.777
729	-0.78
729	-0.785
730	-0.789
730	-0.781
730	-0.788
731	-0.791
731	-0.791
732	-0.791
732	-0.787
733	-0.802
733	-0.808
734	-0.816
734	-0.806
734	-0.789
735	-0.78
735	-0.773
736	-0.773
736	-0.768
737	-0.767
737	-0.757
737	-0.749
738	-0.736
738	-0.725
739	-0.73
739	-0.732
740	-0.744
740	-0.747
741	-0.758
741	-0.767
741	-0.778
742	-0.787
742	-0.803
743	-0.809
743	-0.811
744	-0.813
744	-0.821
744	-0.815
745	-0.821
745	-0.811
746	-0.807
746	-0.798
747	-0.798
747	-0.787
748	-0.79
748	-0.795
748	-0.796
749	-0.788
749	-0.795
750	-0.786
750	-0.785
751	-0.785
751	-0.782
751	-0.795
752	-0.798
752	-0.8
753	-0.8
753	-0.792
754	-0.811
754	-0.812
754	-0.82
755	-0.82
755	-0.812
756	-0.815
756	-0.801
757	-0.793
757	-0.783
758	-0.785
758	-0.784
758	-0.779
759	-0.783
759	-0.782
760	-0.78
760	-0.783
761	-0.776
761	-0.78
761	-0.78
762	-0.787
762	-0.788
763	-0.79
763	-0.794
764	-0.794
764	-0.79
764	-0.796
765	-0.795
765	-0.8
766	-0.804
766	-0.806
767	-0.82
767	-0.814
768	-0.812
768	-0.804
768	-0.799
769	-0.804
769	-0.811
770	-0.822
770	-0.827
771	-0.824
771	-0.822
771	-0.826
772	-0.829
772	-0.851
773	-0.853
773	-0.853
774	-0.85
774	-0.833
775	-0.821
775	-0.819
775	-0.822
776	-0.834
776	-0.83
777	-0.833
777	-0.815
778	-0.822
778	-0.83
778	-0.832
779	-0.84
779	-0.856
780	-0.852
780	-0.86
781	-0.85
781	-0.84
781	-0.853
782	-0.873
782	-0.876
783	-0.875
783	-0.882
784	-0.886
784	-0.881
784	-0.898
785	-0.893
785	-0.906
786	-0.911
786	-0.903
787	-0.893
787	-0.901
788	-0.894
788	-0.888
788	-0.887
789	-0.885
789	-0.877
790	-0.875
790	-0.857
791	-0.862
791	-0.857
791	-0.85
792	-0.844
792	-0.847
793	-0.85
793	-0.838
794	-0.832
794	-0.825
794	-0.831
795	-0.853
795	-0.841
796	-0.846
796	-0.84
797	-0.835
797	-0.825
797	-0.819
798	-0.839
798	-0.843
799	-0.843
799	-0.828
800	-0.822
800	-0.83
801	-0.829
801	-0.833
801	-0.831
802	-0.831
802	-0.829
803	-0.822
803	-0.815
804	-0.82
804	-0.829
804	-0.814
805	-0.796
805	-0.787
806	-0.791
806	-0.786
807	-0.789
807	-0.787
807	-0.773
808	-0.769
808	-0.763
809	-0.757
809	-0.758
810	-0.759
810	-0.757
810	-0.75
811	-0.752
811	-0.742
812	-0.736
812	-0.737
813	-0.739
813	-0.741
813	-0.736
814	-0.737
814	-0.743
815	-0.733
815	-0.729
816	-0.725
816	-0.742
817	-0.754
817	-0.759
817	-0.769
818	-0.763
818	-0.763
819	-0.772
819	-0.769
820	-0.78
820	-0.782
820	-0.782
821	-0.776
821	-0.773
822	-0.771
822	-0.759
823	-0.769
823	-0.766
823	-0.76
824	-0.759
824	-0.771
825	-0.769
825	-0.767
826	-0.762
826	-0.756
826	-0.755
827	-0.755
827	-0.746
828	-0.747
828	-0.742
829	-0.737
829	-0.722
829	-0.721
830	-0.717
830	-0.704
831	-0.701
831	-0.693
832	-0.684
832	-0.678
832	-0.672
833	-0.67
833	-0.675
834	-0.67
834	-0.664
835	-0.659
835	-0.658
835	-0.65
836	-0.646
836	-0.645
837	-0.635
837	-0.626
838	-0.614
838	-0.597
839	-0.591
839	-0.578
839	-0.568
840	-0.569
840	-0.56
841	-0.549
841	-0.54
842	-0.533
842	-0.52
842	-0.517
843	-0.513
843	-0.511
844	-0.507
844	-0.496
845	-0.482
845	-0.473
845	-0.463
846	-0.451
846	-0.441
847	-0.432
847	-0.419
848	-0.406
848	-0.388
848	-0.375
849	-0.364
849	-0.353
850	-0.342
850	-0.332
851	-0.319
851	-0.304
851	-0.294
852	-0.282
852	-0.269
853	-0.262
853	-0.252
854	-0.243
854	-0.233
854	-0.222
855	-0.212
855	-0.205
856	-0.198
856	-0.19
857	-0.182
857	-0.175
857	-0.163
858	-0.153
858	-0.146
859	-0.135
859	-0.125
860	-0.115
860	-0.102
860	-0.091
861	-0.082
861	-0.074
862	-0.066
862	-0.058
863	-0.05
863	-0.042
863	-0.037
864	-0.032
864	-0.026
865	-0.02
865	-0.015
866	-0.011
866	-0.006
866	-0.002
867	0.002
867	0.007
868	0.01
868	0.015
869	0.019
869	0.021
869	0.023
870	0.025
870	0.027
871	0.029
871	0.029
872	0.03
872	0.03
872	0.031
873	0.031
873	0.031
874	0.03
874	0.03
875	0.03
875	0.029
875	0.029
876	0.029
876	0.029
877	0.029
877	0.028
878	0.028
878	0.028
878	0.027
879	0.027
879	0.027
880	0.026
880	0.026
881	0.024
881	0.024
881	0.023
882	0.022
882	0.021
883	0.02
883	0.02
884	0.02
884	0.02
884	0.02
885	0.02
885	0.021
886	0.021
886	0.02
887	0.02
887	0.02
887	0.02
888	0.019
888	0.019
889	0.018
889	0.017
890	0.016
890	0.016
890	0.015
891	0.016
891	0.015
892	0.016
892	0.016
893	0.016
893	0.016
893	0.016
894	0.017
894	0.017
895	0.017
895	0.017
895	0.017
896	0.018
896	0.018
897	0.018
897	0.019
898	0.019
898	0.019
898	0.019
899	0.02
899	0.02
900	0.021
900	0.021
901	0.02
901	0.02
901	0.02
902	0.02
902	0.021
903	0.02
903	0.02
904	0.019
904	0.019
904	0.018
905	0.018
905	0.018
906	0.019
906	0.019
907	0.02
907	0.02
907	0.02
908	0.021
908	0.022
909	0.023
909	0.024
910	0.025
910	0.026
910	0.027
911	0.028
911	0.029
912	0.03
912	0.032
913	0.033
913	0.034
913	0.035
914	0.035
914	0.036
915	0.035
915	0.035
916	0.034
916	0.034
916	0.033
917	0.032
917	0.031
918	0.03
918	0.029
918	0.029
919	0.028
919	0.027
920	0.027
920	0.026
921	0.026
921	0.025
921	0.025
922	0.025
922	0.025
923	0.025
923	0.024
924	0.024
924	0.024
924	0.024
925	0.024
925	0.024
926	0.023
926	0.023
927	0.023
927	0.023
927	0.023
928	0.023
928	0.023
929	0.024
929	0.024
930	0.025
930	0.025
930	0.026
931	0.027
931	0.027
932	0.028
932	0.028
933	0.028
933	0.028
933	0.027
934	0.026
934	0.025
935	0.024
935	0.023
935	0.021
936	0.02
936	0.018
937	0.017
937	0.016
938	0.015
938	0.014
938	0.013
939	0.013
939	0.013
940	0.012
940	0.012
941	0.012
941	0.012
941	0.011
942	0.011
942	0.011
943	0.011
943	0.011
944	0.01
944	0.01
944	0.01
945	0.01
945	0.011
946	0.011
946	0.011
946	0.011
947	0.011
947	0.011
948	0.011
948	0.011
949	0.011
949	0.012
949	0.013
950	0.012
950	0.013
951	0.013
951	0.013
952	0.013
952	0.014
952	0.014
953	0.015
953	0.015
954	0.015
954	0.015
955	0.016
955	0.016
955	0.015
956	0.015
956	0.015
957	0.015
957	0.014
957	0.013
958	0.013
958	0.013
959	0.013
959	0.013
960	0.013
960	0.013
960	0.014
961	0.014
961	0.014
962	0.015
962	0.015
963	0.015
963	0.016
963	0.016
964	0.016
964	0.016
965	0.016
965	0.016
966	0.016
966	0.016
966	0.016
967	0.016
967	0.016
968	0.015
968	0.015
968	0.015
969	0.015
969	0.014
970	0.014
970	0.013
971	0.012
971	0.012
971	0.011
972	0.011
972	0.011
973	0.011
973	0.011
974	0.011
974	0.012
974	0.012
975	0.013
975	0.014
976	0.014
976	0.015
976	0.015
977	0.015
977	0.015
978	0.015
978	0.014
979	0.014
979	0.013
979	0.012
980	0.011
980	0.01
981	0.01
981	0.009
982	0.009
982	0.008
982	0.008
983	0.008
983	0.008
984	0.008
984	0.007
984	0.007
985	0.007
985	0.007
986	0.006
986	0.005
987	0.005
987	0.004
987	0.003
988	0.003
988	0.003
989	0.002
989	0.002
990	0.001
990	0.001
990	0.001
991	0.001
991	0.001
992	0.001
992	0.001
992	0.002
993	0.002
993	0.001
994	0.001
994	0.001
995	0.001
995	0.001
995	0
996	0
996	-0.001
997	-0.001
997	-0.001
997	-0.001
998	-0.002
998	-0.001
999	-0.001
999	-0.001
1000	-0.001
1000	-0.001
1000	-0.001
1001	-0.001
1001	-0.001
1002	-0.001
1002	-0.001
1003	-0.002
1003	-0.002
1003	-0.003
1004	-0.003
1004	-0.004
1005	-0.005
1005	-0.006
1005	-0.007
1006	-0.007
1006	-0.008
1007	-0.008
1007	-0.009
1008	-0.009
1008	-0.01
1008	-0.009
1009	-0.009
1009	-0.008
1010	-0.007
1010	-0.007
1010	-0.006
1011	-0.006
1011	-0.006
1012	-0.005
1012	-0.005
1013	-0.004
1013	-0.004
1013	-0.003
1014	-0.003
1014	-0.003
1015	-0.003
1015	-0.003
1016	-0.003
1016	-0.003
1016	-0.003
1017	-0.003
1017	-0.003
1018	-0.003
1018	-0.004
1018	-0.004
1019	-0.004
1019	-0.004
1020	-0.004
1020	-0.005
1021	-0.005
1021	-0.005
1021	-0.006
1022	-0.006
1022	-0.006
1023	-0.006
1023	-0.007
1023	-0.007
1024	-0.007
1024	-0.008
1025	-0.008
1025	-0.008
1026	-0.008
1026	-0.008
1026	-0.008
1027	-0.008
1027	-0.008
1028	-0.008
1028	-0.008
1028	-0.008
1029	-0.008
1029	-0.008
1030	-0.008
1030	-0.009
1031	-0.009
1031	-0.008
1031	-0.008
1032	-0.008
1032	-0.008
1033	-0.009
1033	-0.009
1033	-0.009
1034	-0.009
1034	-0.009
1035	-0.009
1035	-0.01
1036	-0.01
1036	-0.011
1036	-0.011
1037	-0.011
1037	-0.01
1038	-0.01
1038	-0.009
1039	-0.009
1039	-0.008
1039	-0.007
1040	-0.007
1040	-0.007
1041	-0.006
1041	-0.006
1041	-0.006
1042	-0.007
1042	-0.007
1043	-0.008
1043	-0.008
1044	-0.009
1044	-0.01
1044	-0.01
1045	-0.011
1045	-0.012
1046	-0.013
1046	-0.013
1046	-0.014
1047	-0.015
1047	-0.015
1048	-0.015
1048	-0.015
1049	-0.016
1049	-0.017
1049	-0.017
1050	-0.018
1050	-0.019
1051	-0.019
1051	-0.02
1051	-0.02
1052	-0.021
1052	-0.022
1053	-0.023
1053	-0.023
1053	-0.023
1054	-0.023
1054	-0.024
1055	-0.023
1055	-0.023
1056	-0.023
1056	-0.023
1056	-0.023
1057	-0.023
1057	-0.024
1058	-0.024
1058	-0.024
1058	-0.024
1059	-0.024
1059	-0.024
1060	-0.024
1060	-0.024
1061	-0.024
1061	-0.023
1061	-0.023
1062	-0.023
1062	-0.023
1063	-0.023
1063	-0.023
1063	-0.023
1064	-0.023
1064	-0.023
1065	-0.023
1065	-0.024
1066	-0.024
1066	-0.025
1066	-0.025
1067	-0.026
1067	-0.026
1068	-0.027
1068	-0.027
1068	-0.028
1069	-0.028
1069	-0.029
1070	-0.029
1070	-0.03
1071	-0.03
1071	-0.03
1071	-0.03
1072	-0.03
1072	-0.03
1073	-0.03
1073	-0.029
1073	-0.029
1074	-0.029
1074	-0.028
1075	-0.029
1075	-0.029
1076	-0.03
1076	-0.03
1076	-0.031
1077	-0.031
1077	-0.032
1078	-0.033
1078	-0.034
1078	-0.035
1079	-0.036
1079	-0.036
1080	-0.037
1080	-0.038
1080	-0.039
1081	-0.039
1081	-0.04
1082	-0.04
1082	-0.041
1083	-0.042
1083	-0.043
1083	-0.043
1084	-0.044
1084	-0.044
1085	-0.045
1085	-0.045
1085	-0.046
1086	-0.046
1086	-0.047
1087	-0.047
1087	-0.047
1088	-0.049
1088	-0.05
1088	-0.051
1089	-0.053
1089	-0.053
1090	-0.055
1090	-0.056
1090	-0.058
1091	-0.059
1091	-0.06
1092	-0.061
1092	-0.061
1092	-0.061
1093	-0.062
1093	-0.062
1094	-0.062
1094	-0.063
1095	-0.064
1095	-0.064
1095	-0.065
1096	-0.066
1096	-0.067
1097	-0.068
1097	-0.07
1097	-0.072
1098	-0.074
1098	-0.076
1099	-0.078
1099	-0.079
1100	-0.081
1100	-0.084
1100	-0.087
1101	-0.09
1101	-0.092
1102	-0.094
1102	-0.097
1102	-0.098
1103	-0.101
1103	-0.104
1104	-0.107
1104	-0.11
1104	-0.111
1105	-0.113
1105	-0.115
1106	-0.12
1106	-0.122
1107	-0.127
1107	-0.131
1107	-0.136
1108	-0.138
1108	-0.14
1109	-0.143
1109	-0.149
1109	-0.154
1110	-0.157
1110	-0.16
1111	-0.169
1111	-0.168
