Data from 3.4A_17C_Absorbance__54__01011.txt Node

Date: Tue Jun 20 15:39:41 CEST 2023
User: Marek
Spectrometer: MAYP115816
Trigger mode: 0
Integration Time (sec): 2.200000E-1
Scans to average: 10
Electric dark correction enabled: true
Nonlinearity correction enabled: true
Boxcar width: 5
XAxis mode: Wavelengths
Number of Pixels in Spectrum: 2068
>>>>>Begin Spectral Data<<<<<
199	-0.74
199	-0.732
200	-0.694
200	-0.638
201	-0.609
201	-0.602
202	-0.586
202	-0.578
203	-0.578
203	-0.569
204	-0.549
204	-0.533
205	-0.509
205	-0.499
205	-0.508
206	-0.509
206	-0.503
207	-0.494
207	-0.502
208	-0.502
208	-0.509
209	-0.51
209	-0.517
210	-0.529
210	-0.536
211	-0.529
211	-0.534
212	-0.546
212	-0.553
213	-0.549
213	-0.544
213	-0.543
214	-0.55
214	-0.553
215	-0.55
215	-0.557
216	-0.568
216	-0.573
217	-0.568
217	-0.57
218	-0.578
218	-0.58
219	-0.587
219	-0.588
220	-0.59
220	-0.597
221	-0.596
221	-0.596
221	-0.587
222	-0.588
222	-0.586
223	-0.581
223	-0.583
224	-0.582
224	-0.58
225	-0.577
225	-0.578
226	-0.578
226	-0.577
227	-0.586
227	-0.597
228	-0.599
228	-0.609
229	-0.614
229	-0.612
229	-0.613
230	-0.608
230	-0.605
231	-0.604
231	-0.599
232	-0.6
232	-0.593
233	-0.593
233	-0.58
234	-0.58
234	-0.577
235	-0.581
235	-0.593
236	-0.6
236	-0.601
236	-0.601
237	-0.6
237	-0.603
238	-0.604
238	-0.606
239	-0.608
239	-0.616
240	-0.609
240	-0.604
241	-0.599
241	-0.604
242	-0.607
242	-0.616
243	-0.615
243	-0.616
243	-0.621
244	-0.618
244	-0.618
245	-0.62
245	-0.625
246	-0.634
246	-0.635
247	-0.643
247	-0.627
248	-0.626
248	-0.629
249	-0.635
249	-0.637
250	-0.638
250	-0.647
250	-0.643
251	-0.643
251	-0.639
252	-0.641
252	-0.654
253	-0.649
253	-0.661
254	-0.665
254	-0.666
255	-0.675
255	-0.674
256	-0.676
256	-0.688
257	-0.697
257	-0.692
258	-0.694
258	-0.7
258	-0.698
259	-0.69
259	-0.708
260	-0.708
260	-0.699
261	-0.71
261	-0.699
262	-0.705
262	-0.704
263	-0.693
263	-0.7
264	-0.709
264	-0.709
265	-0.698
265	-0.7
265	-0.708
266	-0.699
266	-0.698
267	-0.698
267	-0.714
268	-0.723
268	-0.715
269	-0.709
269	-0.724
270	-0.728
270	-0.727
271	-0.742
271	-0.752
272	-0.752
272	-0.756
272	-0.75
273	-0.76
273	-0.775
274	-0.768
274	-0.762
275	-0.759
275	-0.746
276	-0.748
276	-0.753
277	-0.754
277	-0.752
278	-0.755
278	-0.754
278	-0.744
279	-0.753
279	-0.767
280	-0.768
280	-0.779
281	-0.772
281	-0.764
282	-0.77
282	-0.761
283	-0.755
283	-0.769
284	-0.782
284	-0.792
285	-0.772
285	-0.78
285	-0.772
286	-0.777
286	-0.793
287	-0.79
287	-0.791
288	-0.79
288	-0.774
289	-0.772
289	-0.779
290	-0.788
290	-0.777
291	-0.781
291	-0.779
292	-0.759
292	-0.756
292	-0.761
293	-0.75
293	-0.746
294	-0.744
294	-0.73
295	-0.713
295	-0.724
296	-0.735
296	-0.729
297	-0.717
297	-0.721
298	-0.718
298	-0.733
298	-0.735
299	-0.717
299	-0.71
300	-0.706
300	-0.687
301	-0.671
301	-0.676
302	-0.687
302	-0.672
303	-0.663
303	-0.652
304	-0.635
304	-0.637
305	-0.629
305	-0.636
305	-0.653
306	-0.635
306	-0.632
307	-0.625
307	-0.634
308	-0.636
308	-0.632
309	-0.634
309	-0.631
310	-0.631
310	-0.627
311	-0.612
311	-0.631
311	-0.618
312	-0.615
312	-0.605
313	-0.599
313	-0.601
314	-0.607
314	-0.604
315	-0.6
315	-0.594
316	-0.586
316	-0.575
317	-0.569
317	-0.566
318	-0.558
318	-0.555
318	-0.543
319	-0.532
319	-0.524
320	-0.523
320	-0.521
321	-0.515
321	-0.513
322	-0.506
322	-0.498
323	-0.499
323	-0.488
324	-0.485
324	-0.474
324	-0.464
325	-0.449
325	-0.43
326	-0.423
326	-0.399
327	-0.385
327	-0.362
328	-0.331
328	-0.308
329	-0.28
329	-0.249
330	-0.221
330	-0.185
330	-0.149
331	-0.111
331	-0.079
332	-0.044
332	-0.01
333	0.023
333	0.057
334	0.089
334	0.115
335	0.144
335	0.166
336	0.189
336	0.21
336	0.228
337	0.247
337	0.265
338	0.279
338	0.29
339	0.304
339	0.315
340	0.323
340	0.332
341	0.34
341	0.347
342	0.354
342	0.361
342	0.365
343	0.369
343	0.375
344	0.377
344	0.381
345	0.384
345	0.387
346	0.389
346	0.391
347	0.393
347	0.394
348	0.396
348	0.398
348	0.398
349	0.399
349	0.4
350	0.4
350	0.401
351	0.402
351	0.403
352	0.403
352	0.403
353	0.403
353	0.403
354	0.403
354	0.404
354	0.403
355	0.403
355	0.403
356	0.403
356	0.403
357	0.402
357	0.403
358	0.402
358	0.402
359	0.402
359	0.402
360	0.402
360	0.402
360	0.402
361	0.402
361	0.402
362	0.402
362	0.402
363	0.402
363	0.402
364	0.402
364	0.402
365	0.402
365	0.401
366	0.401
366	0.401
366	0.401
367	0.401
367	0.4
368	0.4
368	0.399
369	0.399
369	0.399
370	0.398
370	0.398
371	0.397
371	0.397
372	0.396
372	0.396
372	0.396
373	0.396
373	0.395
374	0.395
374	0.395
375	0.395
375	0.394
376	0.394
376	0.393
377	0.393
377	0.392
378	0.392
378	0.391
378	0.391
379	0.39
379	0.39
380	0.39
380	0.39
381	0.389
381	0.389
382	0.388
382	0.388
383	0.388
383	0.388
383	0.387
384	0.387
384	0.386
385	0.385
385	0.385
386	0.384
386	0.384
387	0.384
387	0.383
388	0.383
388	0.383
389	0.382
389	0.382
389	0.382
390	0.382
390	0.381
391	0.381
391	0.381
392	0.38
392	0.38
393	0.38
393	0.379
394	0.379
394	0.378
394	0.377
395	0.377
395	0.376
396	0.375
396	0.375
397	0.374
397	0.374
398	0.373
398	0.373
399	0.372
399	0.372
400	0.372
400	0.371
400	0.371
401	0.371
401	0.37
402	0.37
402	0.37
403	0.369
403	0.369
404	0.369
404	0.368
405	0.367
405	0.367
405	0.367
406	0.366
406	0.366
407	0.366
407	0.365
408	0.365
408	0.364
409	0.365
409	0.364
410	0.364
410	0.364
411	0.364
411	0.363
411	0.363
412	0.362
412	0.362
413	0.362
413	0.361
414	0.361
414	0.361
415	0.36
415	0.36
416	0.36
416	0.359
416	0.359
417	0.359
417	0.359
418	0.359
418	0.359
419	0.358
419	0.358
420	0.358
420	0.358
421	0.358
421	0.358
421	0.358
422	0.358
422	0.358
423	0.357
423	0.357
424	0.356
424	0.356
425	0.356
425	0.355
426	0.355
426	0.355
427	0.355
427	0.355
427	0.355
428	0.355
428	0.355
429	0.355
429	0.354
430	0.354
430	0.354
431	0.353
431	0.353
432	0.353
432	0.352
432	0.352
433	0.352
433	0.352
434	0.352
434	0.353
435	0.353
435	0.353
436	0.353
436	0.353
437	0.353
437	0.353
437	0.353
438	0.353
438	0.353
439	0.352
439	0.352
440	0.352
440	0.352
441	0.352
441	0.352
442	0.352
442	0.352
442	0.352
443	0.352
443	0.352
444	0.352
444	0.352
445	0.352
445	0.352
446	0.352
446	0.352
447	0.352
447	0.352
447	0.352
448	0.352
448	0.352
449	0.352
449	0.352
450	0.353
450	0.353
451	0.353
451	0.353
452	0.353
452	0.353
452	0.353
453	0.354
453	0.354
454	0.354
454	0.355
455	0.355
455	0.355
456	0.356
456	0.356
457	0.356
457	0.356
458	0.356
458	0.356
458	0.357
459	0.357
459	0.357
460	0.357
460	0.357
461	0.357
461	0.358
462	0.358
462	0.359
463	0.359
463	0.36
463	0.361
464	0.361
464	0.362
465	0.362
465	0.363
466	0.364
466	0.364
467	0.365
467	0.365
467	0.366
468	0.366
468	0.367
469	0.368
469	0.369
470	0.369
470	0.37
471	0.371
471	0.371
472	0.372
472	0.373
472	0.374
473	0.375
473	0.376
474	0.377
474	0.378
475	0.379
475	0.38
476	0.381
476	0.382
477	0.383
477	0.384
477	0.386
478	0.387
478	0.388
479	0.389
479	0.391
480	0.392
480	0.393
481	0.395
481	0.397
482	0.398
482	0.4
482	0.401
483	0.404
483	0.406
484	0.408
484	0.409
485	0.411
485	0.413
486	0.414
486	0.416
487	0.418
487	0.42
487	0.422
488	0.423
488	0.425
489	0.428
489	0.43
490	0.433
490	0.435
491	0.438
491	0.44
492	0.443
492	0.445
492	0.447
493	0.45
493	0.452
494	0.455
494	0.458
495	0.461
495	0.464
496	0.467
496	0.469
496	0.473
497	0.476
497	0.479
498	0.482
498	0.485
499	0.488
499	0.492
500	0.496
500	0.5
501	0.504
501	0.507
501	0.51
502	0.513
502	0.517
503	0.521
503	0.524
504	0.528
504	0.531
505	0.534
505	0.538
506	0.542
506	0.545
506	0.55
507	0.553
507	0.557
508	0.561
508	0.565
509	0.569
509	0.573
510	0.576
510	0.58
511	0.583
511	0.587
511	0.589
512	0.593
512	0.596
513	0.599
513	0.603
514	0.606
514	0.609
515	0.613
515	0.616
515	0.618
516	0.622
516	0.625
517	0.628
517	0.631
518	0.634
518	0.636
519	0.638
519	0.64
520	0.642
520	0.644
520	0.646
521	0.647
521	0.649
522	0.65
522	0.652
523	0.654
523	0.655
524	0.656
524	0.657
524	0.658
525	0.658
525	0.659
526	0.659
526	0.659
527	0.659
527	0.659
528	0.659
528	0.659
529	0.658
529	0.658
529	0.656
530	0.656
530	0.655
531	0.654
531	0.653
532	0.652
532	0.651
533	0.65
533	0.648
533	0.646
534	0.644
534	0.642
535	0.64
535	0.638
536	0.635
536	0.632
537	0.63
537	0.627
538	0.623
538	0.62
538	0.617
539	0.614
539	0.611
540	0.607
540	0.603
541	0.599
541	0.595
542	0.591
542	0.587
542	0.583
543	0.579
543	0.574
544	0.57
544	0.566
545	0.562
545	0.558
546	0.553
546	0.548
547	0.543
547	0.538
547	0.533
548	0.529
548	0.524
549	0.519
549	0.514
550	0.509
550	0.504
551	0.498
551	0.493
551	0.488
552	0.483
552	0.478
553	0.473
553	0.468
554	0.463
554	0.458
555	0.453
555	0.448
556	0.443
556	0.438
556	0.433
557	0.428
557	0.424
558	0.419
558	0.414
559	0.408
559	0.403
560	0.398
560	0.394
560	0.39
561	0.386
561	0.382
562	0.377
562	0.373
563	0.369
563	0.365
564	0.36
564	0.356
564	0.353
565	0.349
565	0.345
566	0.341
566	0.336
567	0.332
567	0.329
568	0.324
568	0.32
568	0.315
569	0.311
569	0.307
570	0.302
570	0.297
571	0.294
571	0.29
572	0.285
572	0.281
573	0.278
573	0.274
573	0.27
574	0.267
574	0.264
575	0.261
575	0.259
576	0.256
576	0.252
577	0.249
577	0.246
577	0.244
578	0.242
578	0.24
579	0.238
579	0.236
580	0.232
580	0.228
581	0.224
581	0.222
581	0.22
582	0.218
582	0.216
583	0.214
583	0.21
584	0.206
584	0.202
585	0.199
585	0.198
585	0.195
586	0.193
586	0.19
587	0.187
587	0.184
588	0.182
588	0.179
589	0.178
589	0.176
590	0.174
590	0.172
590	0.172
591	0.171
591	0.168
592	0.166
592	0.164
593	0.162
593	0.161
594	0.159
594	0.157
594	0.155
595	0.154
595	0.151
596	0.149
596	0.149
597	0.149
597	0.148
598	0.146
598	0.145
598	0.143
599	0.142
599	0.141
600	0.139
600	0.138
601	0.137
601	0.135
602	0.133
602	0.132
602	0.13
603	0.129
603	0.129
604	0.128
604	0.126
605	0.126
605	0.125
606	0.124
606	0.122
606	0.121
607	0.12
607	0.119
608	0.118
608	0.116
609	0.115
609	0.114
610	0.113
610	0.111
610	0.111
611	0.11
611	0.109
612	0.109
612	0.109
613	0.108
613	0.108
614	0.106
614	0.105
614	0.104
615	0.103
615	0.102
616	0.102
616	0.101
617	0.1
617	0.099
618	0.098
618	0.097
618	0.096
619	0.096
619	0.096
620	0.096
620	0.095
621	0.094
621	0.093
622	0.092
622	0.091
622	0.09
623	0.089
623	0.089
624	0.089
624	0.088
625	0.087
625	0.087
626	0.086
626	0.085
626	0.084
627	0.084
627	0.083
628	0.082
628	0.081
629	0.08
629	0.079
630	0.077
630	0.076
630	0.076
631	0.075
631	0.073
632	0.072
632	0.071
633	0.071
633	0.07
634	0.069
634	0.069
634	0.068
635	0.067
635	0.067
636	0.066
636	0.065
637	0.065
637	0.064
638	0.063
638	0.062
638	0.061
639	0.06
639	0.059
640	0.058
640	0.057
641	0.055
641	0.054
642	0.053
642	0.052
642	0.051
643	0.049
643	0.047
644	0.046
644	0.044
645	0.042
645	0.04
646	0.037
646	0.034
646	0.031
647	0.028
647	0.024
648	0.021
648	0.018
649	0.015
649	0.012
650	0.008
650	0.004
650	0
651	-0.005
651	-0.01
652	-0.017
652	-0.024
653	-0.029
653	-0.036
653	-0.032
654	-0.025
654	-0.027
655	-0.033
655	-0.037
656	-0.041
656	-0.046
657	-0.05
657	-0.054
657	-0.059
658	-0.063
658	-0.085
659	-0.138
659	-0.189
660	-0.213
660	-0.231
661	-0.25
661	-0.27
661	-0.29
662	-0.308
662	-0.327
663	-0.346
663	-0.369
664	-0.387
664	-0.411
665	-0.436
665	-0.462
665	-0.484
666	-0.509
666	-0.539
667	-0.567
667	-0.601
668	-0.636
668	-0.681
669	-0.728
669	-0.778
669	-0.838
670	-0.91
670	-1.071
671	-1.414
671	-1.833
672	-2.19
672	-2.394
672	-2.536
673	-2.617
673	-2.638
674	-2.655
674	-2.664
675	-2.679
675	-2.682
676	-2.673
676	-2.623
676	-2.503
677	-2.33
677	-2.034
678	-1.477
678	-1.125
679	-1.009
679	-0.945
680	-0.9
680	-0.869
680	-0.844
681	-0.833
681	-0.81
682	-0.8
682	-0.778
683	-0.757
683	-0.757
684	-0.75
684	-0.751
684	-0.744
685	-0.741
685	-0.745
686	-0.735
686	-0.734
687	-0.733
687	-0.733
687	-0.744
688	-0.736
688	-0.736
689	-0.744
689	-0.746
690	-0.738
690	-0.734
691	-0.737
691	-0.744
691	-0.747
692	-0.75
692	-0.748
693	-0.757
693	-0.77
694	-0.754
694	-0.758
695	-0.762
695	-0.757
695	-0.766
696	-0.775
696	-0.771
697	-0.768
697	-0.766
698	-0.762
698	-0.758
698	-0.773
699	-0.772
699	-0.777
700	-0.799
700	-0.795
701	-0.783
701	-0.778
702	-0.78
702	-0.78
702	-0.781
703	-0.771
703	-0.76
704	-0.769
704	-0.773
705	-0.762
705	-0.762
705	-0.758
706	-0.751
706	-0.749
707	-0.759
707	-0.765
708	-0.763
708	-0.762
709	-0.762
709	-0.76
709	-0.756
710	-0.764
710	-0.767
711	-0.766
711	-0.765
712	-0.756
712	-0.754
713	-0.761
713	-0.76
713	-0.741
714	-0.742
714	-0.746
715	-0.74
715	-0.75
716	-0.765
716	-0.777
716	-0.779
717	-0.786
717	-0.778
718	-0.773
718	-0.774
719	-0.771
719	-0.765
720	-0.759
720	-0.754
720	-0.749
721	-0.738
721	-0.743
722	-0.74
722	-0.736
723	-0.754
723	-0.768
723	-0.776
724	-0.776
724	-0.78
725	-0.775
725	-0.779
726	-0.783
726	-0.773
727	-0.774
727	-0.781
727	-0.771
728	-0.758
728	-0.755
729	-0.757
729	-0.761
730	-0.766
730	-0.757
730	-0.765
731	-0.768
731	-0.769
732	-0.771
732	-0.768
733	-0.784
733	-0.792
734	-0.799
734	-0.789
734	-0.773
735	-0.764
735	-0.759
736	-0.758
736	-0.754
737	-0.756
737	-0.745
737	-0.738
738	-0.723
738	-0.711
739	-0.715
739	-0.717
740	-0.73
740	-0.73
741	-0.737
741	-0.745
741	-0.754
742	-0.762
742	-0.777
743	-0.783
743	-0.785
744	-0.787
744	-0.794
744	-0.789
745	-0.797
745	-0.789
746	-0.785
746	-0.774
747	-0.777
747	-0.766
748	-0.768
748	-0.775
748	-0.778
749	-0.769
749	-0.775
750	-0.767
750	-0.767
751	-0.766
751	-0.764
751	-0.774
752	-0.778
752	-0.781
753	-0.78
753	-0.772
754	-0.792
754	-0.793
754	-0.8
755	-0.802
755	-0.794
756	-0.798
756	-0.783
757	-0.776
757	-0.767
758	-0.769
758	-0.768
758	-0.765
759	-0.767
759	-0.767
760	-0.766
760	-0.769
761	-0.761
761	-0.767
761	-0.767
762	-0.772
762	-0.772
763	-0.773
763	-0.775
764	-0.775
764	-0.772
764	-0.776
765	-0.775
765	-0.782
766	-0.784
766	-0.786
767	-0.8
767	-0.796
768	-0.794
768	-0.788
768	-0.782
769	-0.784
769	-0.793
770	-0.803
770	-0.809
771	-0.805
771	-0.805
771	-0.81
772	-0.815
772	-0.836
773	-0.838
773	-0.839
774	-0.837
774	-0.82
775	-0.808
775	-0.807
775	-0.81
776	-0.819
776	-0.816
777	-0.814
777	-0.796
778	-0.803
778	-0.812
778	-0.811
779	-0.82
779	-0.834
780	-0.83
780	-0.837
781	-0.828
781	-0.816
781	-0.83
782	-0.85
782	-0.852
783	-0.851
783	-0.859
784	-0.861
784	-0.857
784	-0.877
785	-0.87
785	-0.884
786	-0.891
786	-0.884
787	-0.875
787	-0.885
788	-0.878
788	-0.871
788	-0.874
789	-0.871
789	-0.86
790	-0.861
790	-0.845
791	-0.852
791	-0.848
791	-0.843
792	-0.837
792	-0.84
793	-0.843
793	-0.829
794	-0.824
794	-0.818
794	-0.824
795	-0.844
795	-0.831
796	-0.835
796	-0.829
797	-0.822
797	-0.814
797	-0.81
798	-0.831
798	-0.835
799	-0.835
799	-0.821
800	-0.815
800	-0.825
801	-0.821
801	-0.826
801	-0.824
802	-0.823
802	-0.821
803	-0.814
803	-0.806
804	-0.812
804	-0.819
804	-0.804
805	-0.784
805	-0.777
806	-0.779
806	-0.775
807	-0.776
807	-0.777
807	-0.762
808	-0.761
808	-0.754
809	-0.75
809	-0.75
810	-0.753
810	-0.75
810	-0.745
811	-0.749
811	-0.742
812	-0.733
812	-0.734
813	-0.738
813	-0.741
813	-0.735
814	-0.735
814	-0.739
815	-0.729
815	-0.724
816	-0.72
816	-0.735
817	-0.746
817	-0.752
817	-0.761
818	-0.751
818	-0.75
819	-0.761
819	-0.761
820	-0.773
820	-0.774
820	-0.771
821	-0.769
821	-0.766
822	-0.763
822	-0.751
823	-0.763
823	-0.765
823	-0.762
824	-0.759
824	-0.769
825	-0.768
825	-0.767
826	-0.761
826	-0.758
826	-0.756
827	-0.756
827	-0.745
828	-0.744
828	-0.736
829	-0.734
829	-0.718
829	-0.714
830	-0.713
830	-0.698
831	-0.691
831	-0.681
832	-0.673
832	-0.668
832	-0.661
833	-0.661
833	-0.665
834	-0.661
834	-0.655
835	-0.648
835	-0.648
835	-0.643
836	-0.639
836	-0.636
837	-0.627
837	-0.618
838	-0.605
838	-0.588
839	-0.583
839	-0.57
839	-0.561
840	-0.559
840	-0.551
841	-0.542
841	-0.535
842	-0.526
842	-0.513
842	-0.509
843	-0.505
843	-0.501
844	-0.501
844	-0.49
845	-0.477
845	-0.467
845	-0.456
846	-0.445
846	-0.436
847	-0.427
847	-0.416
848	-0.401
848	-0.386
848	-0.372
849	-0.361
849	-0.351
850	-0.342
850	-0.334
851	-0.321
851	-0.305
851	-0.297
852	-0.283
852	-0.272
853	-0.263
853	-0.254
854	-0.244
854	-0.234
854	-0.223
855	-0.212
855	-0.207
856	-0.201
856	-0.193
857	-0.187
857	-0.18
857	-0.168
858	-0.159
858	-0.154
859	-0.145
859	-0.135
860	-0.126
860	-0.113
860	-0.104
861	-0.095
861	-0.087
862	-0.08
862	-0.073
863	-0.067
863	-0.059
863	-0.054
864	-0.049
864	-0.043
865	-0.038
865	-0.034
866	-0.029
866	-0.025
866	-0.021
867	-0.017
867	-0.012
868	-0.009
868	-0.005
869	-0.001
869	0.001
869	0.003
870	0.005
870	0.007
871	0.009
871	0.01
872	0.01
872	0.011
872	0.011
873	0.012
873	0.012
874	0.011
874	0.011
875	0.011
875	0.01
875	0.01
876	0.01
876	0.01
877	0.01
877	0.009
878	0.008
878	0.008
878	0.008
879	0.007
879	0.007
880	0.007
880	0.006
881	0.005
881	0.004
881	0.004
882	0.003
882	0.003
883	0.002
883	0.001
884	0.001
884	0.001
884	0.002
885	0.002
885	0.002
886	0.002
886	0.002
887	0.002
887	0.001
887	0.001
888	0
888	-0
889	-0.001
889	-0.002
890	-0.003
890	-0.003
890	-0.003
891	-0.003
891	-0.004
892	-0.003
892	-0.003
893	-0.003
893	-0.002
893	-0.002
894	-0.002
894	-0.001
895	-0.002
895	-0.002
895	-0.001
896	-0.001
896	-0
897	0
897	0
898	0.001
898	0.001
898	0.002
899	0.002
899	0.002
900	0.003
900	0.003
901	0.003
901	0.003
901	0.003
902	0.003
902	0.003
903	0.003
903	0.002
904	0.002
904	0.001
904	0.001
905	0
905	0.001
906	0.001
906	0.002
907	0.002
907	0.003
907	0.003
908	0.004
908	0.005
909	0.007
909	0.008
910	0.009
910	0.01
910	0.01
911	0.011
911	0.013
912	0.014
912	0.015
913	0.017
913	0.018
913	0.018
914	0.019
914	0.019
915	0.019
915	0.019
916	0.018
916	0.018
916	0.017
917	0.016
917	0.015
918	0.014
918	0.013
918	0.013
919	0.012
919	0.011
920	0.011
920	0.011
921	0.01
921	0.01
921	0.01
922	0.01
922	0.01
923	0.009
923	0.009
924	0.009
924	0.009
924	0.009
925	0.009
925	0.008
926	0.008
926	0.008
927	0.008
927	0.007
927	0.008
928	0.008
928	0.008
929	0.008
929	0.009
930	0.009
930	0.01
930	0.01
931	0.011
931	0.011
932	0.012
932	0.012
933	0.013
933	0.013
933	0.012
934	0.011
934	0.011
935	0.01
935	0.009
935	0.007
936	0.006
936	0.005
937	0.004
937	0.002
938	0.002
938	0.001
938	0
939	-0
939	-0.001
940	-0.001
940	-0.001
941	-0.002
941	-0.002
941	-0.002
942	-0.002
942	-0.002
943	-0.002
943	-0.002
944	-0.003
944	-0.003
944	-0.003
945	-0.002
945	-0.002
946	-0.002
946	-0.002
946	-0.002
947	-0.002
947	-0.002
948	-0.002
948	-0.002
949	-0.002
949	-0.002
949	-0.001
950	-0.001
950	-0.001
951	-0
951	-0
952	0
952	0.001
952	0.001
953	0.002
953	0.002
954	0.002
954	0.003
955	0.003
955	0.003
955	0.003
956	0.002
956	0.002
957	0.001
957	0.001
957	0
958	-0
958	-0
959	-0
959	-0
960	-0
960	-0
960	0
961	0.001
961	0.001
962	0.002
962	0.002
963	0.002
963	0.002
963	0.003
964	0.003
964	0.003
965	0.003
965	0.003
966	0.003
966	0.003
966	0.003
967	0.003
967	0.003
968	0.002
968	0.002
968	0.002
969	0.001
969	0.001
970	-0
970	-0.001
971	-0.001
971	-0.002
971	-0.002
972	-0.002
972	-0.002
973	-0.002
973	-0.002
974	-0.002
974	-0.002
974	-0.001
975	-0
975	0
976	0.001
976	0.002
976	0.002
977	0.003
977	0.003
978	0.002
978	0.002
979	0.001
979	0.001
979	-0
980	-0.001
980	-0.002
981	-0.003
981	-0.003
982	-0.003
982	-0.004
982	-0.004
983	-0.004
983	-0.004
984	-0.005
984	-0.005
984	-0.005
985	-0.005
985	-0.005
986	-0.006
986	-0.007
987	-0.007
987	-0.008
987	-0.009
988	-0.009
988	-0.009
989	-0.009
989	-0.01
990	-0.01
990	-0.011
990	-0.011
991	-0.011
991	-0.01
992	-0.01
992	-0.01
992	-0.01
993	-0.01
993	-0.01
994	-0.01
994	-0.011
995	-0.011
995	-0.011
995	-0.011
996	-0.012
996	-0.012
997	-0.013
997	-0.013
997	-0.013
998	-0.013
998	-0.013
999	-0.013
999	-0.013
1000	-0.013
1000	-0.014
1000	-0.014
1001	-0.014
1001	-0.013
1002	-0.013
1002	-0.013
1003	-0.014
1003	-0.014
1003	-0.015
1004	-0.015
1004	-0.015
1005	-0.016
1005	-0.017
1005	-0.017
1006	-0.018
1006	-0.019
1007	-0.019
1007	-0.019
1008	-0.02
1008	-0.02
1008	-0.02
1009	-0.02
1009	-0.019
1010	-0.019
1010	-0.019
1010	-0.018
1011	-0.018
1011	-0.018
1012	-0.017
1012	-0.017
1013	-0.016
1013	-0.016
1013	-0.016
1014	-0.016
1014	-0.015
1015	-0.015
1015	-0.015
1016	-0.015
1016	-0.015
1016	-0.015
1017	-0.015
1017	-0.015
1018	-0.015
1018	-0.015
1018	-0.015
1019	-0.015
1019	-0.015
1020	-0.015
1020	-0.016
1021	-0.016
1021	-0.016
1021	-0.016
1022	-0.017
1022	-0.017
1023	-0.017
1023	-0.018
1023	-0.018
1024	-0.018
1024	-0.018
1025	-0.018
1025	-0.019
1026	-0.019
1026	-0.019
1026	-0.019
1027	-0.019
1027	-0.019
1028	-0.019
1028	-0.019
1028	-0.019
1029	-0.019
1029	-0.019
1030	-0.019
1030	-0.019
1031	-0.019
1031	-0.019
1031	-0.019
1032	-0.019
1032	-0.019
1033	-0.019
1033	-0.019
1033	-0.019
1034	-0.02
1034	-0.02
1035	-0.02
1035	-0.02
1036	-0.02
1036	-0.021
1036	-0.021
1037	-0.02
1037	-0.02
1038	-0.02
1038	-0.019
1039	-0.019
1039	-0.018
1039	-0.017
1040	-0.017
1040	-0.016
1041	-0.016
1041	-0.016
1041	-0.016
1042	-0.016
1042	-0.016
1043	-0.017
1043	-0.017
1044	-0.018
1044	-0.019
1044	-0.02
1045	-0.021
1045	-0.021
1046	-0.022
1046	-0.023
1046	-0.024
1047	-0.024
1047	-0.025
1048	-0.025
1048	-0.025
1049	-0.026
1049	-0.026
1049	-0.026
1050	-0.027
1050	-0.028
1051	-0.029
1051	-0.029
1051	-0.03
1052	-0.031
1052	-0.032
1053	-0.032
1053	-0.033
1053	-0.033
1054	-0.033
1054	-0.033
1055	-0.032
1055	-0.032
1056	-0.032
1056	-0.032
1056	-0.032
1057	-0.033
1057	-0.033
1058	-0.033
1058	-0.033
1058	-0.033
1059	-0.034
1059	-0.034
1060	-0.034
1060	-0.034
1061	-0.034
1061	-0.033
1061	-0.032
1062	-0.032
1062	-0.032
1063	-0.032
1063	-0.032
1063	-0.032
1064	-0.033
1064	-0.033
1065	-0.033
1065	-0.033
1066	-0.034
1066	-0.035
1066	-0.035
1067	-0.036
1067	-0.036
1068	-0.037
1068	-0.037
1068	-0.037
1069	-0.038
1069	-0.038
1070	-0.039
1070	-0.039
1071	-0.039
1071	-0.039
1071	-0.039
1072	-0.039
1072	-0.038
1073	-0.038
1073	-0.037
1073	-0.037
1074	-0.037
1074	-0.036
1075	-0.037
1075	-0.037
1076	-0.038
1076	-0.038
1076	-0.039
1077	-0.04
1077	-0.041
1078	-0.042
1078	-0.043
1078	-0.044
1079	-0.045
1079	-0.045
1080	-0.046
1080	-0.046
1080	-0.048
1081	-0.048
1081	-0.048
1082	-0.049
1082	-0.05
1083	-0.05
1083	-0.051
1083	-0.051
1084	-0.052
1084	-0.053
1085	-0.054
1085	-0.054
1085	-0.054
1086	-0.054
1086	-0.055
1087	-0.055
1087	-0.055
1088	-0.056
1088	-0.057
1088	-0.058
1089	-0.059
1089	-0.06
1090	-0.06
1090	-0.061
1090	-0.064
1091	-0.065
1091	-0.066
1092	-0.067
1092	-0.067
1092	-0.068
1093	-0.069
1093	-0.07
1094	-0.071
1094	-0.072
1095	-0.073
1095	-0.073
1095	-0.073
1096	-0.074
1096	-0.076
1097	-0.076
1097	-0.077
1097	-0.078
1098	-0.08
1098	-0.082
1099	-0.083
1099	-0.085
1100	-0.087
1100	-0.088
1100	-0.091
1101	-0.094
1101	-0.096
1102	-0.098
1102	-0.101
1102	-0.102
1103	-0.104
1103	-0.107
1104	-0.109
1104	-0.112
1104	-0.114
1105	-0.116
1105	-0.119
1106	-0.124
1106	-0.126
1107	-0.131
1107	-0.135
1107	-0.14
1108	-0.141
1108	-0.143
1109	-0.147
1109	-0.152
1109	-0.156
1110	-0.157
1110	-0.16
1111	-0.17
1111	-0.166
