Data from 3.4A_17C_Absorbance__143__01100.txt Node

Date: Tue Jun 20 15:42:56 CEST 2023
User: Marek
Spectrometer: MAYP115816
Trigger mode: 0
Integration Time (sec): 2.200000E-1
Scans to average: 10
Electric dark correction enabled: true
Nonlinearity correction enabled: true
Boxcar width: 5
XAxis mode: Wavelengths
Number of Pixels in Spectrum: 2068
>>>>>Begin Spectral Data<<<<<
199	-0.749
199	-0.733
200	-0.699
200	-0.641
201	-0.612
201	-0.603
202	-0.584
202	-0.577
203	-0.575
203	-0.569
204	-0.548
204	-0.531
205	-0.508
205	-0.498
205	-0.506
206	-0.507
206	-0.502
207	-0.495
207	-0.501
208	-0.505
208	-0.51
209	-0.512
209	-0.517
210	-0.53
210	-0.537
211	-0.532
211	-0.534
212	-0.544
212	-0.553
213	-0.55
213	-0.545
213	-0.543
214	-0.549
214	-0.552
215	-0.547
215	-0.553
216	-0.562
216	-0.569
217	-0.568
217	-0.568
218	-0.576
218	-0.577
219	-0.584
219	-0.586
220	-0.59
220	-0.597
221	-0.596
221	-0.597
221	-0.589
222	-0.587
222	-0.586
223	-0.583
223	-0.586
224	-0.587
224	-0.586
225	-0.584
225	-0.586
226	-0.588
226	-0.587
227	-0.594
227	-0.605
228	-0.607
228	-0.615
229	-0.621
229	-0.617
229	-0.617
230	-0.612
230	-0.609
231	-0.606
231	-0.601
232	-0.604
232	-0.6
233	-0.6
233	-0.587
234	-0.586
234	-0.581
235	-0.586
235	-0.597
236	-0.607
236	-0.606
236	-0.608
237	-0.605
237	-0.607
238	-0.607
238	-0.61
239	-0.611
239	-0.62
240	-0.614
240	-0.61
241	-0.603
241	-0.607
242	-0.61
242	-0.619
243	-0.618
243	-0.621
243	-0.627
244	-0.623
244	-0.624
245	-0.626
245	-0.629
246	-0.639
246	-0.642
247	-0.649
247	-0.634
248	-0.633
248	-0.635
249	-0.641
249	-0.643
250	-0.643
250	-0.651
250	-0.649
251	-0.651
251	-0.647
252	-0.647
252	-0.661
253	-0.654
253	-0.665
254	-0.669
254	-0.671
255	-0.68
255	-0.681
256	-0.682
256	-0.693
257	-0.702
257	-0.699
258	-0.7
258	-0.708
258	-0.705
259	-0.697
259	-0.712
260	-0.711
260	-0.701
261	-0.711
261	-0.696
262	-0.701
262	-0.699
263	-0.691
263	-0.695
264	-0.704
264	-0.706
265	-0.698
265	-0.701
265	-0.709
266	-0.7
266	-0.701
267	-0.699
267	-0.715
268	-0.723
268	-0.718
269	-0.711
269	-0.724
270	-0.727
270	-0.726
271	-0.74
271	-0.751
272	-0.752
272	-0.755
272	-0.751
273	-0.759
273	-0.776
274	-0.769
274	-0.761
275	-0.76
275	-0.745
276	-0.748
276	-0.752
277	-0.755
277	-0.751
278	-0.756
278	-0.756
278	-0.743
279	-0.752
279	-0.768
280	-0.771
280	-0.782
281	-0.776
281	-0.77
282	-0.775
282	-0.771
283	-0.763
283	-0.777
284	-0.79
284	-0.801
285	-0.78
285	-0.786
285	-0.779
286	-0.784
286	-0.8
287	-0.796
287	-0.795
288	-0.795
288	-0.776
289	-0.774
289	-0.782
290	-0.79
290	-0.779
291	-0.784
291	-0.78
292	-0.76
292	-0.757
292	-0.761
293	-0.748
293	-0.746
294	-0.745
294	-0.729
295	-0.712
295	-0.724
296	-0.736
296	-0.731
297	-0.721
297	-0.725
298	-0.721
298	-0.738
298	-0.741
299	-0.723
299	-0.715
300	-0.714
300	-0.695
301	-0.675
301	-0.678
302	-0.688
302	-0.675
303	-0.667
303	-0.656
304	-0.639
304	-0.642
305	-0.636
305	-0.641
305	-0.653
306	-0.637
306	-0.636
307	-0.628
307	-0.639
308	-0.643
308	-0.637
309	-0.641
309	-0.637
310	-0.634
310	-0.631
311	-0.62
311	-0.639
311	-0.625
312	-0.62
312	-0.609
313	-0.6
313	-0.603
314	-0.608
314	-0.604
315	-0.6
315	-0.592
316	-0.585
316	-0.577
317	-0.571
317	-0.57
318	-0.561
318	-0.558
318	-0.546
319	-0.533
319	-0.526
320	-0.524
320	-0.522
321	-0.518
321	-0.516
322	-0.51
322	-0.5
323	-0.501
323	-0.49
324	-0.489
324	-0.477
324	-0.469
325	-0.453
325	-0.436
326	-0.427
326	-0.401
327	-0.385
327	-0.364
328	-0.334
328	-0.311
329	-0.282
329	-0.254
330	-0.226
330	-0.19
330	-0.154
331	-0.117
331	-0.085
332	-0.051
332	-0.018
333	0.014
333	0.048
334	0.077
334	0.104
335	0.132
335	0.156
336	0.179
336	0.201
336	0.219
337	0.238
337	0.256
338	0.269
338	0.28
339	0.295
339	0.306
340	0.315
340	0.324
341	0.331
341	0.338
342	0.345
342	0.351
342	0.356
343	0.36
343	0.365
344	0.368
344	0.371
345	0.375
345	0.377
346	0.379
346	0.381
347	0.382
347	0.384
348	0.386
348	0.387
348	0.389
349	0.389
349	0.39
350	0.391
350	0.391
351	0.392
351	0.393
352	0.392
352	0.393
353	0.393
353	0.393
354	0.393
354	0.393
354	0.394
355	0.393
355	0.393
356	0.393
356	0.393
357	0.393
357	0.393
358	0.392
358	0.392
359	0.392
359	0.392
360	0.392
360	0.393
360	0.393
361	0.393
361	0.393
362	0.393
362	0.392
363	0.393
363	0.392
364	0.392
364	0.392
365	0.392
365	0.392
366	0.391
366	0.391
366	0.391
367	0.391
367	0.391
368	0.39
368	0.39
369	0.389
369	0.389
370	0.388
370	0.388
371	0.388
371	0.388
372	0.387
372	0.387
372	0.386
373	0.386
373	0.386
374	0.386
374	0.386
375	0.386
375	0.385
376	0.385
376	0.384
377	0.384
377	0.383
378	0.383
378	0.383
378	0.382
379	0.382
379	0.381
380	0.381
380	0.381
381	0.381
381	0.38
382	0.38
382	0.38
383	0.379
383	0.379
383	0.378
384	0.378
384	0.377
385	0.377
385	0.376
386	0.376
386	0.376
387	0.375
387	0.375
388	0.374
388	0.374
389	0.373
389	0.373
389	0.373
390	0.373
390	0.372
391	0.372
391	0.372
392	0.371
392	0.371
393	0.371
393	0.37
394	0.37
394	0.369
394	0.369
395	0.368
395	0.368
396	0.367
396	0.367
397	0.366
397	0.366
398	0.365
398	0.365
399	0.365
399	0.364
400	0.364
400	0.363
400	0.363
401	0.363
401	0.362
402	0.362
402	0.362
403	0.361
403	0.361
404	0.36
404	0.36
405	0.36
405	0.359
405	0.359
406	0.358
406	0.358
407	0.358
407	0.357
408	0.357
408	0.357
409	0.357
409	0.357
410	0.356
410	0.356
411	0.356
411	0.356
411	0.356
412	0.355
412	0.355
413	0.354
413	0.354
414	0.354
414	0.353
415	0.353
415	0.352
416	0.352
416	0.352
416	0.352
417	0.352
417	0.351
418	0.351
418	0.351
419	0.351
419	0.351
420	0.351
420	0.351
421	0.351
421	0.35
421	0.35
422	0.35
422	0.35
423	0.35
423	0.349
424	0.349
424	0.349
425	0.348
425	0.348
426	0.348
426	0.348
427	0.348
427	0.348
427	0.348
428	0.348
428	0.348
429	0.348
429	0.347
430	0.347
430	0.346
431	0.346
431	0.345
432	0.345
432	0.345
432	0.344
433	0.344
433	0.344
434	0.344
434	0.345
435	0.345
435	0.345
436	0.345
436	0.346
437	0.346
437	0.345
437	0.345
438	0.345
438	0.345
439	0.345
439	0.345
440	0.344
440	0.344
441	0.344
441	0.344
442	0.344
442	0.344
442	0.344
443	0.345
443	0.345
444	0.345
444	0.345
445	0.345
445	0.345
446	0.344
446	0.344
447	0.344
447	0.344
447	0.344
448	0.344
448	0.344
449	0.344
449	0.345
450	0.345
450	0.345
451	0.345
451	0.345
452	0.345
452	0.345
452	0.346
453	0.346
453	0.346
454	0.346
454	0.346
455	0.347
455	0.347
456	0.347
456	0.348
457	0.348
457	0.348
458	0.347
458	0.348
458	0.348
459	0.348
459	0.348
460	0.348
460	0.348
461	0.348
461	0.349
462	0.349
462	0.35
463	0.351
463	0.352
463	0.352
464	0.353
464	0.353
465	0.353
465	0.354
466	0.355
466	0.356
467	0.356
467	0.357
467	0.357
468	0.357
468	0.358
469	0.358
469	0.359
470	0.36
470	0.36
471	0.361
471	0.361
472	0.362
472	0.363
472	0.364
473	0.365
473	0.366
474	0.367
474	0.368
475	0.369
475	0.37
476	0.371
476	0.372
477	0.373
477	0.374
477	0.375
478	0.376
478	0.377
479	0.379
479	0.38
480	0.381
480	0.382
481	0.384
481	0.385
482	0.387
482	0.388
482	0.39
483	0.392
483	0.394
484	0.396
484	0.397
485	0.399
485	0.401
486	0.402
486	0.404
487	0.405
487	0.407
487	0.409
488	0.41
488	0.412
489	0.414
489	0.417
490	0.419
490	0.422
491	0.424
491	0.426
492	0.429
492	0.431
492	0.433
493	0.436
493	0.438
494	0.441
494	0.444
495	0.446
495	0.449
496	0.451
496	0.454
496	0.457
497	0.46
497	0.463
498	0.466
498	0.469
499	0.472
499	0.476
500	0.48
500	0.483
501	0.487
501	0.49
501	0.493
502	0.496
502	0.5
503	0.503
503	0.506
504	0.509
504	0.512
505	0.516
505	0.519
506	0.523
506	0.526
506	0.53
507	0.534
507	0.538
508	0.542
508	0.545
509	0.549
509	0.552
510	0.556
510	0.56
511	0.563
511	0.566
511	0.569
512	0.572
512	0.575
513	0.578
513	0.581
514	0.584
514	0.588
515	0.591
515	0.594
515	0.597
516	0.6
516	0.603
517	0.606
517	0.608
518	0.611
518	0.613
519	0.615
519	0.616
520	0.618
520	0.621
520	0.623
521	0.624
521	0.626
522	0.627
522	0.629
523	0.631
523	0.632
524	0.633
524	0.634
524	0.635
525	0.636
525	0.636
526	0.637
526	0.638
527	0.638
527	0.638
528	0.638
528	0.638
529	0.637
529	0.636
529	0.636
530	0.635
530	0.635
531	0.634
531	0.633
532	0.632
532	0.631
533	0.629
533	0.628
533	0.627
534	0.625
534	0.623
535	0.622
535	0.62
536	0.617
536	0.615
537	0.612
537	0.61
538	0.607
538	0.604
538	0.601
539	0.598
539	0.595
540	0.592
540	0.589
541	0.585
541	0.582
542	0.578
542	0.575
542	0.571
543	0.568
543	0.564
544	0.56
544	0.556
545	0.552
545	0.549
546	0.545
546	0.541
547	0.536
547	0.532
547	0.527
548	0.524
548	0.519
549	0.515
549	0.51
550	0.506
550	0.501
551	0.495
551	0.49
551	0.486
552	0.481
552	0.477
553	0.473
553	0.468
554	0.464
554	0.459
555	0.454
555	0.45
556	0.445
556	0.441
556	0.436
557	0.432
557	0.427
558	0.423
558	0.418
559	0.413
559	0.409
560	0.404
560	0.4
560	0.396
561	0.393
561	0.389
562	0.385
562	0.381
563	0.377
563	0.374
564	0.37
564	0.366
564	0.363
565	0.36
565	0.356
566	0.352
566	0.349
567	0.345
567	0.341
568	0.337
568	0.333
568	0.329
569	0.325
569	0.321
570	0.316
570	0.311
571	0.308
571	0.304
572	0.3
572	0.297
573	0.293
573	0.289
573	0.286
574	0.283
574	0.281
575	0.278
575	0.276
576	0.274
576	0.27
577	0.266
577	0.264
577	0.262
578	0.26
578	0.258
579	0.257
579	0.255
580	0.251
580	0.247
581	0.243
581	0.241
581	0.24
582	0.238
582	0.236
583	0.234
583	0.23
584	0.226
584	0.222
585	0.219
585	0.218
585	0.215
586	0.213
586	0.21
587	0.207
587	0.205
588	0.202
588	0.2
589	0.199
589	0.197
590	0.195
590	0.194
590	0.193
591	0.192
591	0.19
592	0.187
592	0.185
593	0.183
593	0.182
594	0.18
594	0.178
594	0.176
595	0.175
595	0.172
596	0.17
596	0.17
597	0.17
597	0.169
598	0.167
598	0.166
598	0.165
599	0.163
599	0.162
600	0.16
600	0.159
601	0.158
601	0.156
602	0.154
602	0.153
602	0.151
603	0.15
603	0.15
604	0.149
604	0.148
605	0.147
605	0.146
606	0.145
606	0.143
606	0.142
607	0.14
607	0.139
608	0.138
608	0.136
609	0.135
609	0.134
610	0.132
610	0.131
610	0.13
611	0.13
611	0.129
612	0.129
612	0.128
613	0.128
613	0.127
614	0.126
614	0.124
614	0.124
615	0.122
615	0.121
616	0.121
616	0.12
617	0.119
617	0.118
618	0.117
618	0.116
618	0.115
619	0.114
619	0.114
620	0.114
620	0.113
621	0.112
621	0.111
622	0.11
622	0.109
622	0.107
623	0.107
623	0.107
624	0.106
624	0.105
625	0.104
625	0.103
626	0.102
626	0.101
626	0.101
627	0.1
627	0.099
628	0.098
628	0.097
629	0.095
629	0.094
630	0.093
630	0.091
630	0.09
631	0.089
631	0.088
632	0.086
632	0.085
633	0.084
633	0.083
634	0.082
634	0.081
634	0.08
635	0.079
635	0.078
636	0.077
636	0.076
637	0.074
637	0.073
638	0.072
638	0.07
638	0.069
639	0.067
639	0.065
640	0.063
640	0.061
641	0.059
641	0.058
642	0.056
642	0.054
642	0.052
643	0.05
643	0.047
644	0.045
644	0.042
645	0.039
645	0.036
646	0.033
646	0.029
646	0.025
647	0.021
647	0.017
648	0.013
648	0.008
649	0.004
649	-0
650	-0.004
650	-0.009
650	-0.014
651	-0.019
651	-0.026
652	-0.035
652	-0.044
653	-0.051
653	-0.057
653	-0.053
654	-0.042
654	-0.043
655	-0.047
655	-0.051
656	-0.055
656	-0.06
657	-0.064
657	-0.067
657	-0.073
658	-0.078
658	-0.101
659	-0.161
659	-0.22
660	-0.248
660	-0.267
661	-0.287
661	-0.31
661	-0.332
662	-0.352
662	-0.371
663	-0.395
663	-0.422
664	-0.447
664	-0.475
665	-0.507
665	-0.54
665	-0.569
666	-0.604
666	-0.642
667	-0.68
667	-0.727
668	-0.77
668	-0.826
669	-0.88
669	-0.941
669	-1.011
670	-1.095
670	-1.284
671	-1.616
671	-1.982
672	-2.265
672	-2.444
672	-2.573
673	-2.674
673	-2.718
674	-2.738
674	-2.747
675	-2.762
675	-2.763
676	-2.75
676	-2.695
676	-2.596
677	-2.465
677	-2.276
678	-1.888
678	-1.411
679	-1.229
679	-1.138
680	-1.071
680	-1.023
680	-0.983
681	-0.961
681	-0.927
682	-0.905
682	-0.877
683	-0.85
683	-0.842
684	-0.828
684	-0.821
684	-0.811
685	-0.803
685	-0.803
686	-0.787
686	-0.783
687	-0.78
687	-0.778
687	-0.784
688	-0.773
688	-0.771
689	-0.779
689	-0.781
690	-0.771
690	-0.764
691	-0.765
691	-0.771
691	-0.775
692	-0.779
692	-0.777
693	-0.786
693	-0.799
694	-0.78
694	-0.782
695	-0.786
695	-0.781
695	-0.79
696	-0.797
696	-0.792
697	-0.785
697	-0.782
698	-0.779
698	-0.772
698	-0.789
699	-0.786
699	-0.788
700	-0.81
700	-0.805
701	-0.794
701	-0.787
702	-0.791
702	-0.789
702	-0.791
703	-0.783
703	-0.771
704	-0.78
704	-0.783
705	-0.773
705	-0.773
705	-0.768
706	-0.762
706	-0.758
707	-0.771
707	-0.775
708	-0.773
708	-0.771
709	-0.771
709	-0.77
709	-0.767
710	-0.775
710	-0.78
711	-0.78
711	-0.781
712	-0.773
712	-0.769
713	-0.774
713	-0.774
713	-0.754
714	-0.756
714	-0.758
715	-0.75
715	-0.755
716	-0.772
716	-0.781
716	-0.781
717	-0.787
717	-0.779
718	-0.775
718	-0.777
719	-0.774
719	-0.769
720	-0.763
720	-0.758
720	-0.753
721	-0.743
721	-0.748
722	-0.746
722	-0.745
723	-0.763
723	-0.776
723	-0.785
724	-0.783
724	-0.789
725	-0.784
725	-0.786
726	-0.791
726	-0.782
727	-0.784
727	-0.791
727	-0.78
728	-0.768
728	-0.762
729	-0.764
729	-0.768
730	-0.774
730	-0.765
730	-0.77
731	-0.773
731	-0.774
732	-0.777
732	-0.772
733	-0.788
733	-0.795
734	-0.806
734	-0.796
734	-0.779
735	-0.771
735	-0.768
736	-0.767
736	-0.762
737	-0.762
737	-0.751
737	-0.741
738	-0.727
738	-0.713
739	-0.718
739	-0.719
740	-0.731
740	-0.731
741	-0.742
741	-0.751
741	-0.759
742	-0.766
742	-0.783
743	-0.79
743	-0.793
744	-0.796
744	-0.802
744	-0.798
745	-0.804
745	-0.792
746	-0.787
746	-0.78
747	-0.783
747	-0.773
748	-0.774
748	-0.779
748	-0.78
749	-0.773
749	-0.779
750	-0.768
750	-0.77
751	-0.772
751	-0.769
751	-0.781
752	-0.784
752	-0.786
753	-0.788
753	-0.781
754	-0.799
754	-0.798
754	-0.809
755	-0.808
755	-0.798
756	-0.802
756	-0.786
757	-0.78
757	-0.77
758	-0.771
758	-0.771
758	-0.769
759	-0.777
759	-0.776
760	-0.775
760	-0.777
761	-0.771
761	-0.775
761	-0.774
762	-0.782
762	-0.783
763	-0.782
763	-0.783
764	-0.781
764	-0.778
764	-0.784
765	-0.785
765	-0.789
766	-0.791
766	-0.796
767	-0.809
767	-0.804
768	-0.804
768	-0.797
768	-0.792
769	-0.794
769	-0.801
770	-0.81
770	-0.815
771	-0.812
771	-0.81
771	-0.815
772	-0.818
772	-0.839
773	-0.839
773	-0.84
774	-0.838
774	-0.82
775	-0.809
775	-0.809
775	-0.811
776	-0.823
776	-0.819
777	-0.818
777	-0.798
778	-0.807
778	-0.814
778	-0.815
779	-0.823
779	-0.837
780	-0.834
780	-0.843
781	-0.832
781	-0.82
781	-0.837
782	-0.858
782	-0.86
783	-0.858
783	-0.865
784	-0.869
784	-0.864
784	-0.882
785	-0.875
785	-0.886
786	-0.892
786	-0.883
787	-0.872
787	-0.88
788	-0.874
788	-0.868
788	-0.871
789	-0.871
789	-0.862
790	-0.862
790	-0.847
791	-0.855
791	-0.851
791	-0.847
792	-0.843
792	-0.849
793	-0.853
793	-0.84
794	-0.833
794	-0.827
794	-0.833
795	-0.854
795	-0.84
796	-0.844
796	-0.84
797	-0.833
797	-0.82
797	-0.814
798	-0.834
798	-0.838
799	-0.837
799	-0.823
800	-0.816
800	-0.826
801	-0.824
801	-0.825
801	-0.823
802	-0.825
802	-0.824
803	-0.819
803	-0.812
804	-0.819
804	-0.828
804	-0.813
805	-0.793
805	-0.785
806	-0.789
806	-0.784
807	-0.784
807	-0.786
807	-0.768
808	-0.763
808	-0.756
809	-0.751
809	-0.752
810	-0.757
810	-0.753
810	-0.749
811	-0.753
811	-0.742
812	-0.734
812	-0.737
813	-0.741
813	-0.739
813	-0.734
814	-0.733
814	-0.739
815	-0.729
815	-0.725
816	-0.719
816	-0.738
817	-0.751
817	-0.753
817	-0.764
818	-0.759
818	-0.757
819	-0.766
819	-0.763
820	-0.776
820	-0.775
820	-0.775
821	-0.769
821	-0.765
822	-0.765
822	-0.752
823	-0.764
823	-0.765
823	-0.76
824	-0.759
824	-0.769
825	-0.769
825	-0.765
826	-0.763
826	-0.759
826	-0.758
827	-0.759
827	-0.75
828	-0.748
828	-0.742
829	-0.735
829	-0.72
829	-0.716
830	-0.717
830	-0.7
831	-0.694
831	-0.684
832	-0.674
832	-0.67
832	-0.664
833	-0.663
833	-0.667
834	-0.663
834	-0.658
835	-0.649
835	-0.65
835	-0.645
836	-0.64
836	-0.637
837	-0.626
837	-0.617
838	-0.605
838	-0.589
839	-0.583
839	-0.571
839	-0.562
840	-0.56
840	-0.551
841	-0.542
841	-0.534
842	-0.526
842	-0.513
842	-0.51
843	-0.506
843	-0.503
844	-0.502
844	-0.492
845	-0.48
845	-0.47
845	-0.459
846	-0.448
846	-0.438
847	-0.429
847	-0.418
848	-0.404
848	-0.389
848	-0.375
849	-0.363
849	-0.351
850	-0.341
850	-0.33
851	-0.319
851	-0.304
851	-0.295
852	-0.281
852	-0.269
853	-0.261
853	-0.251
854	-0.242
854	-0.233
854	-0.223
855	-0.213
855	-0.207
856	-0.2
856	-0.193
857	-0.187
857	-0.18
857	-0.168
858	-0.159
858	-0.152
859	-0.143
859	-0.133
860	-0.124
860	-0.111
860	-0.103
861	-0.094
861	-0.085
862	-0.077
862	-0.07
863	-0.063
863	-0.055
863	-0.049
864	-0.044
864	-0.038
865	-0.033
865	-0.029
866	-0.024
866	-0.02
866	-0.016
867	-0.011
867	-0.007
868	-0.004
868	-0
869	0.003
869	0.006
869	0.008
870	0.01
870	0.012
871	0.014
871	0.015
872	0.015
872	0.015
872	0.016
873	0.016
873	0.016
874	0.016
874	0.015
875	0.015
875	0.014
875	0.014
876	0.014
876	0.014
877	0.014
877	0.013
878	0.013
878	0.012
878	0.012
879	0.011
879	0.011
880	0.011
880	0.01
881	0.009
881	0.009
881	0.008
882	0.007
882	0.006
883	0.006
883	0.005
884	0.006
884	0.006
884	0.006
885	0.006
885	0.006
886	0.007
886	0.007
887	0.006
887	0.006
887	0.005
888	0.005
888	0.004
889	0.004
889	0.003
890	0.002
890	0.001
890	0.001
891	0.001
891	0
892	0.001
892	0.001
893	0.001
893	0.001
893	0.002
894	0.002
894	0.002
895	0.002
895	0.002
895	0.002
896	0.003
896	0.003
897	0.004
897	0.004
898	0.005
898	0.005
898	0.005
899	0.006
899	0.006
900	0.007
900	0.007
901	0.007
901	0.007
901	0.006
902	0.006
902	0.007
903	0.007
903	0.006
904	0.006
904	0.005
904	0.005
905	0.004
905	0.004
906	0.005
906	0.006
907	0.006
907	0.007
907	0.007
908	0.008
908	0.009
909	0.01
909	0.011
910	0.012
910	0.013
910	0.014
911	0.015
911	0.016
912	0.017
912	0.019
913	0.02
913	0.021
913	0.022
914	0.022
914	0.022
915	0.022
915	0.022
916	0.021
916	0.021
916	0.02
917	0.019
917	0.018
918	0.017
918	0.017
918	0.016
919	0.015
919	0.015
920	0.014
920	0.014
921	0.013
921	0.013
921	0.013
922	0.013
922	0.013
923	0.012
923	0.012
924	0.012
924	0.012
924	0.012
925	0.012
925	0.011
926	0.011
926	0.011
927	0.011
927	0.011
927	0.011
928	0.011
928	0.011
929	0.012
929	0.012
930	0.013
930	0.013
930	0.014
931	0.014
931	0.014
932	0.015
932	0.015
933	0.015
933	0.015
933	0.015
934	0.014
934	0.013
935	0.012
935	0.011
935	0.01
936	0.008
936	0.007
937	0.006
937	0.005
938	0.004
938	0.003
938	0.002
939	0.002
939	0.002
940	0.002
940	0.001
941	0.001
941	0
941	0.001
942	-0
942	-0
943	-0
943	-0
944	-0.001
944	-0.001
944	-0.001
945	-0.001
945	0
946	0
946	0
946	0.001
947	0.001
947	0.001
948	0.001
948	0.001
949	0.001
949	0.001
949	0.002
950	0.002
950	0.002
951	0.002
951	0.003
952	0.003
952	0.003
952	0.003
953	0.004
953	0.004
954	0.004
954	0.005
955	0.005
955	0.005
955	0.005
956	0.005
956	0.005
957	0.004
957	0.004
957	0.003
958	0.003
958	0.003
959	0.002
959	0.002
960	0.002
960	0.002
960	0.002
961	0.003
961	0.003
962	0.004
962	0.004
963	0.004
963	0.004
963	0.005
964	0.004
964	0.005
965	0.005
965	0.005
966	0.005
966	0.005
966	0.005
967	0.005
967	0.005
968	0.005
968	0.004
968	0.004
969	0.004
969	0.003
970	0.003
970	0.002
971	0.001
971	0.001
971	0
972	0
972	0
973	0
973	0
974	0
974	0.001
974	0.001
975	0.002
975	0.003
976	0.004
976	0.004
976	0.005
977	0.005
977	0.005
978	0.005
978	0.004
979	0.004
979	0.003
979	0.002
980	0.002
980	0.001
981	-0
981	-0.001
982	-0.001
982	-0.001
982	-0.001
983	-0.002
983	-0.002
984	-0.002
984	-0.003
984	-0.003
985	-0.003
985	-0.003
986	-0.004
986	-0.004
987	-0.005
987	-0.006
987	-0.006
988	-0.006
988	-0.007
989	-0.007
989	-0.007
990	-0.008
990	-0.008
990	-0.008
991	-0.008
991	-0.008
992	-0.008
992	-0.008
992	-0.008
993	-0.008
993	-0.008
994	-0.008
994	-0.008
995	-0.008
995	-0.009
995	-0.009
996	-0.009
996	-0.01
997	-0.01
997	-0.011
997	-0.011
998	-0.011
998	-0.011
999	-0.011
999	-0.011
1000	-0.011
1000	-0.011
1000	-0.011
1001	-0.011
1001	-0.011
1002	-0.011
1002	-0.011
1003	-0.011
1003	-0.012
1003	-0.012
1004	-0.012
1004	-0.013
1005	-0.014
1005	-0.014
1005	-0.015
1006	-0.016
1006	-0.016
1007	-0.017
1007	-0.017
1008	-0.017
1008	-0.018
1008	-0.018
1009	-0.017
1009	-0.017
1010	-0.016
1010	-0.016
1010	-0.015
1011	-0.015
1011	-0.015
1012	-0.015
1012	-0.014
1013	-0.013
1013	-0.013
1013	-0.013
1014	-0.013
1014	-0.013
1015	-0.012
1015	-0.012
1016	-0.012
1016	-0.012
1016	-0.012
1017	-0.012
1017	-0.012
1018	-0.012
1018	-0.012
1018	-0.012
1019	-0.013
1019	-0.013
1020	-0.013
1020	-0.013
1021	-0.014
1021	-0.014
1021	-0.014
1022	-0.015
1022	-0.015
1023	-0.016
1023	-0.016
1023	-0.016
1024	-0.016
1024	-0.016
1025	-0.017
1025	-0.017
1026	-0.017
1026	-0.017
1026	-0.017
1027	-0.017
1027	-0.017
1028	-0.017
1028	-0.016
1028	-0.016
1029	-0.017
1029	-0.017
1030	-0.017
1030	-0.017
1031	-0.017
1031	-0.016
1031	-0.016
1032	-0.016
1032	-0.016
1033	-0.017
1033	-0.017
1033	-0.017
1034	-0.018
1034	-0.018
1035	-0.018
1035	-0.018
1036	-0.019
1036	-0.019
1036	-0.019
1037	-0.019
1037	-0.019
1038	-0.019
1038	-0.018
1039	-0.017
1039	-0.016
1039	-0.015
1040	-0.015
1040	-0.014
1041	-0.014
1041	-0.014
1041	-0.014
1042	-0.014
1042	-0.014
1043	-0.015
1043	-0.015
1044	-0.016
1044	-0.017
1044	-0.018
1045	-0.019
1045	-0.019
1046	-0.02
1046	-0.021
1046	-0.021
1047	-0.022
1047	-0.022
1048	-0.022
1048	-0.023
1049	-0.023
1049	-0.024
1049	-0.024
1050	-0.025
1050	-0.026
1051	-0.027
1051	-0.028
1051	-0.028
1052	-0.029
1052	-0.03
1053	-0.031
1053	-0.031
1053	-0.031
1054	-0.031
1054	-0.031
1055	-0.03
1055	-0.03
1056	-0.031
1056	-0.031
1056	-0.031
1057	-0.031
1057	-0.031
1058	-0.031
1058	-0.032
1058	-0.032
1059	-0.032
1059	-0.033
1060	-0.033
1060	-0.032
1061	-0.032
1061	-0.032
1061	-0.031
1062	-0.031
1062	-0.031
1063	-0.031
1063	-0.031
1063	-0.031
1064	-0.032
1064	-0.032
1065	-0.032
1065	-0.032
1066	-0.033
1066	-0.033
1066	-0.034
1067	-0.035
1067	-0.035
1068	-0.035
1068	-0.036
1068	-0.037
1069	-0.037
1069	-0.038
1070	-0.038
1070	-0.038
1071	-0.038
1071	-0.038
1071	-0.038
1072	-0.038
1072	-0.038
1073	-0.037
1073	-0.037
1073	-0.036
1074	-0.036
1074	-0.036
1075	-0.036
1075	-0.036
1076	-0.036
1076	-0.037
1076	-0.037
1077	-0.038
1077	-0.039
1078	-0.04
1078	-0.041
1078	-0.042
1079	-0.043
1079	-0.043
1080	-0.045
1080	-0.045
1080	-0.046
1081	-0.047
1081	-0.047
1082	-0.047
1082	-0.048
1083	-0.049
1083	-0.049
1083	-0.05
1084	-0.051
1084	-0.051
1085	-0.052
1085	-0.052
1085	-0.052
1086	-0.053
1086	-0.054
1087	-0.055
1087	-0.055
1088	-0.056
1088	-0.057
1088	-0.057
1089	-0.058
1089	-0.059
1090	-0.06
1090	-0.061
1090	-0.063
1091	-0.064
1091	-0.065
1092	-0.065
1092	-0.066
1092	-0.067
1093	-0.067
1093	-0.068
1094	-0.069
1094	-0.07
1095	-0.072
1095	-0.072
1095	-0.072
1096	-0.073
1096	-0.074
1097	-0.075
1097	-0.076
1097	-0.078
1098	-0.08
1098	-0.081
1099	-0.082
1099	-0.082
1100	-0.085
1100	-0.087
1100	-0.09
1101	-0.092
1101	-0.095
1102	-0.097
1102	-0.099
1102	-0.101
1103	-0.103
1103	-0.106
1104	-0.109
1104	-0.113
1104	-0.114
1105	-0.116
1105	-0.119
1106	-0.124
1106	-0.127
1107	-0.132
1107	-0.136
1107	-0.141
1108	-0.143
1108	-0.145
1109	-0.148
1109	-0.152
1109	-0.155
1110	-0.158
1110	-0.16
1111	-0.169
1111	-0.165
