Data from 3.4A_17C_Absorbance__712__01669.txt Node

Date: Tue Jun 20 16:03:48 CEST 2023
User: Marek
Spectrometer: MAYP115816
Trigger mode: 0
Integration Time (sec): 2.200000E-1
Scans to average: 10
Electric dark correction enabled: true
Nonlinearity correction enabled: true
Boxcar width: 5
XAxis mode: Wavelengths
Number of Pixels in Spectrum: 2068
>>>>>Begin Spectral Data<<<<<
199	-0.765
199	-0.754
200	-0.715
200	-0.661
201	-0.632
201	-0.624
202	-0.608
202	-0.601
203	-0.601
203	-0.595
204	-0.574
204	-0.558
205	-0.535
205	-0.526
205	-0.535
206	-0.537
206	-0.533
207	-0.525
207	-0.53
208	-0.531
208	-0.536
209	-0.54
209	-0.547
210	-0.559
210	-0.567
211	-0.562
211	-0.565
212	-0.574
212	-0.582
213	-0.581
213	-0.575
213	-0.572
214	-0.578
214	-0.578
215	-0.574
215	-0.579
216	-0.587
216	-0.592
217	-0.591
217	-0.591
218	-0.598
218	-0.601
219	-0.607
219	-0.61
220	-0.613
220	-0.621
221	-0.621
221	-0.622
221	-0.615
222	-0.614
222	-0.611
223	-0.607
223	-0.609
224	-0.61
224	-0.608
225	-0.606
225	-0.608
226	-0.61
226	-0.608
227	-0.616
227	-0.625
228	-0.63
228	-0.638
229	-0.644
229	-0.641
229	-0.641
230	-0.636
230	-0.633
231	-0.629
231	-0.624
232	-0.625
232	-0.619
233	-0.62
233	-0.609
234	-0.608
234	-0.603
235	-0.608
235	-0.621
236	-0.627
236	-0.627
236	-0.627
237	-0.624
237	-0.626
238	-0.626
238	-0.627
239	-0.629
239	-0.639
240	-0.632
240	-0.626
241	-0.621
241	-0.625
242	-0.63
242	-0.639
243	-0.639
243	-0.642
243	-0.647
244	-0.644
244	-0.644
245	-0.648
245	-0.653
246	-0.664
246	-0.667
247	-0.673
247	-0.659
248	-0.659
248	-0.661
249	-0.667
249	-0.668
250	-0.666
250	-0.673
250	-0.671
251	-0.67
251	-0.666
252	-0.67
252	-0.683
253	-0.677
253	-0.686
254	-0.692
254	-0.694
255	-0.706
255	-0.705
256	-0.706
256	-0.718
257	-0.729
257	-0.725
258	-0.727
258	-0.734
258	-0.733
259	-0.726
259	-0.744
260	-0.743
260	-0.732
261	-0.744
261	-0.731
262	-0.735
262	-0.735
263	-0.727
263	-0.731
264	-0.741
264	-0.742
265	-0.732
265	-0.734
265	-0.744
266	-0.735
266	-0.734
267	-0.732
267	-0.748
268	-0.756
268	-0.75
269	-0.743
269	-0.758
270	-0.762
270	-0.762
271	-0.775
271	-0.784
272	-0.784
272	-0.79
272	-0.783
273	-0.792
273	-0.806
274	-0.798
274	-0.793
275	-0.791
275	-0.777
276	-0.78
276	-0.788
277	-0.79
277	-0.785
278	-0.791
278	-0.791
278	-0.78
279	-0.79
279	-0.801
280	-0.801
280	-0.812
281	-0.805
281	-0.796
282	-0.803
282	-0.799
283	-0.789
283	-0.804
284	-0.818
284	-0.827
285	-0.809
285	-0.815
285	-0.806
286	-0.812
286	-0.827
287	-0.823
287	-0.822
288	-0.822
288	-0.804
289	-0.801
289	-0.808
290	-0.815
290	-0.807
291	-0.811
291	-0.809
292	-0.793
292	-0.792
292	-0.797
293	-0.785
293	-0.782
294	-0.781
294	-0.769
295	-0.752
295	-0.764
296	-0.776
296	-0.771
297	-0.757
297	-0.76
298	-0.756
298	-0.773
298	-0.777
299	-0.758
299	-0.751
300	-0.748
300	-0.726
301	-0.708
301	-0.709
302	-0.718
302	-0.704
303	-0.697
303	-0.684
304	-0.667
304	-0.671
305	-0.662
305	-0.671
305	-0.688
306	-0.673
306	-0.672
307	-0.666
307	-0.677
308	-0.68
308	-0.677
309	-0.679
309	-0.675
310	-0.672
310	-0.667
311	-0.654
311	-0.672
311	-0.659
312	-0.657
312	-0.647
313	-0.638
313	-0.638
314	-0.645
314	-0.643
315	-0.641
315	-0.636
316	-0.63
316	-0.62
317	-0.615
317	-0.611
318	-0.602
318	-0.601
318	-0.589
319	-0.578
319	-0.571
320	-0.569
320	-0.565
321	-0.559
321	-0.558
322	-0.551
322	-0.542
323	-0.543
323	-0.533
324	-0.531
324	-0.521
324	-0.51
325	-0.496
325	-0.48
326	-0.471
326	-0.447
327	-0.432
327	-0.412
328	-0.382
328	-0.36
329	-0.332
329	-0.303
330	-0.277
330	-0.243
330	-0.207
331	-0.173
331	-0.141
332	-0.109
332	-0.078
333	-0.05
333	-0.019
334	0.008
334	0.032
335	0.056
335	0.078
336	0.098
336	0.117
336	0.132
337	0.147
337	0.162
338	0.174
338	0.184
339	0.196
339	0.206
340	0.213
340	0.219
341	0.225
341	0.23
342	0.236
342	0.241
342	0.245
343	0.249
343	0.254
344	0.256
344	0.258
345	0.26
345	0.263
346	0.265
346	0.267
347	0.268
347	0.269
348	0.27
348	0.271
348	0.272
349	0.273
349	0.274
350	0.275
350	0.275
351	0.276
351	0.276
352	0.276
352	0.276
353	0.276
353	0.277
354	0.277
354	0.277
354	0.277
355	0.277
355	0.277
356	0.277
356	0.277
357	0.278
357	0.278
358	0.278
358	0.278
359	0.277
359	0.278
360	0.278
360	0.278
360	0.278
361	0.278
361	0.278
362	0.277
362	0.277
363	0.277
363	0.277
364	0.277
364	0.277
365	0.277
365	0.277
366	0.277
366	0.277
366	0.277
367	0.277
367	0.277
368	0.276
368	0.276
369	0.276
369	0.276
370	0.276
370	0.275
371	0.275
371	0.275
372	0.275
372	0.275
372	0.275
373	0.275
373	0.275
374	0.275
374	0.275
375	0.275
375	0.274
376	0.274
376	0.274
377	0.274
377	0.273
378	0.273
378	0.273
378	0.273
379	0.272
379	0.272
380	0.272
380	0.272
381	0.272
381	0.272
382	0.272
382	0.271
383	0.271
383	0.271
383	0.271
384	0.27
384	0.27
385	0.27
385	0.27
386	0.27
386	0.269
387	0.269
387	0.269
388	0.269
388	0.269
389	0.269
389	0.269
389	0.268
390	0.268
390	0.268
391	0.268
391	0.268
392	0.267
392	0.267
393	0.267
393	0.267
394	0.267
394	0.266
394	0.266
395	0.266
395	0.265
396	0.265
396	0.265
397	0.265
397	0.265
398	0.265
398	0.265
399	0.264
399	0.264
400	0.264
400	0.264
400	0.264
401	0.264
401	0.263
402	0.263
402	0.263
403	0.263
403	0.263
404	0.262
404	0.262
405	0.262
405	0.261
405	0.261
406	0.261
406	0.261
407	0.261
407	0.26
408	0.26
408	0.26
409	0.26
409	0.26
410	0.26
410	0.259
411	0.259
411	0.259
411	0.259
412	0.259
412	0.259
413	0.259
413	0.259
414	0.259
414	0.258
415	0.258
415	0.258
416	0.258
416	0.257
416	0.257
417	0.257
417	0.257
418	0.257
418	0.257
419	0.257
419	0.257
420	0.257
420	0.256
421	0.256
421	0.256
421	0.256
422	0.257
422	0.257
423	0.256
423	0.256
424	0.256
424	0.256
425	0.256
425	0.256
426	0.256
426	0.256
427	0.256
427	0.256
427	0.256
428	0.255
428	0.255
429	0.255
429	0.254
430	0.254
430	0.254
431	0.254
431	0.254
432	0.253
432	0.253
432	0.253
433	0.253
433	0.253
434	0.253
434	0.253
435	0.253
435	0.253
436	0.253
436	0.253
437	0.253
437	0.253
437	0.252
438	0.252
438	0.252
439	0.252
439	0.252
440	0.252
440	0.252
441	0.252
441	0.252
442	0.252
442	0.252
442	0.252
443	0.252
443	0.252
444	0.252
444	0.252
445	0.252
445	0.252
446	0.252
446	0.252
447	0.252
447	0.252
447	0.252
448	0.252
448	0.252
449	0.251
449	0.251
450	0.252
450	0.252
451	0.252
451	0.252
452	0.252
452	0.252
452	0.252
453	0.252
453	0.252
454	0.252
454	0.252
455	0.252
455	0.252
456	0.252
456	0.252
457	0.252
457	0.252
458	0.252
458	0.252
458	0.252
459	0.252
459	0.252
460	0.251
460	0.251
461	0.251
461	0.251
462	0.252
462	0.252
463	0.253
463	0.254
463	0.254
464	0.254
464	0.255
465	0.255
465	0.256
466	0.256
466	0.256
467	0.256
467	0.256
467	0.256
468	0.255
468	0.255
469	0.256
469	0.256
470	0.256
470	0.256
471	0.257
471	0.256
472	0.256
472	0.257
472	0.257
473	0.258
473	0.258
474	0.259
474	0.259
475	0.26
475	0.26
476	0.261
476	0.262
477	0.262
477	0.263
477	0.264
478	0.264
478	0.265
479	0.265
479	0.266
480	0.266
480	0.267
481	0.268
481	0.268
482	0.269
482	0.27
482	0.27
483	0.272
483	0.273
484	0.274
484	0.274
485	0.275
485	0.276
486	0.277
486	0.278
487	0.279
487	0.279
487	0.28
488	0.281
488	0.281
489	0.282
489	0.284
490	0.285
490	0.286
491	0.287
491	0.288
492	0.289
492	0.29
492	0.291
493	0.292
493	0.294
494	0.295
494	0.297
495	0.298
495	0.3
496	0.301
496	0.302
496	0.304
497	0.306
497	0.307
498	0.309
498	0.31
499	0.312
499	0.313
500	0.316
500	0.317
501	0.319
501	0.321
501	0.322
502	0.323
502	0.325
503	0.327
503	0.328
504	0.33
504	0.332
505	0.334
505	0.336
506	0.338
506	0.34
506	0.342
507	0.345
507	0.347
508	0.349
508	0.351
509	0.353
509	0.355
510	0.358
510	0.36
511	0.361
511	0.363
511	0.365
512	0.367
512	0.369
513	0.37
513	0.372
514	0.374
514	0.376
515	0.377
515	0.378
515	0.38
516	0.382
516	0.384
517	0.385
517	0.387
518	0.388
518	0.389
519	0.391
519	0.392
520	0.393
520	0.394
520	0.396
521	0.396
521	0.397
522	0.398
522	0.399
523	0.4
523	0.401
524	0.401
524	0.402
524	0.403
525	0.404
525	0.404
526	0.405
526	0.406
527	0.406
527	0.406
528	0.406
528	0.406
529	0.406
529	0.406
529	0.406
530	0.406
530	0.406
531	0.405
531	0.405
532	0.404
532	0.404
533	0.404
533	0.403
533	0.403
534	0.402
534	0.401
535	0.4
535	0.4
536	0.399
536	0.398
537	0.398
537	0.397
538	0.396
538	0.395
538	0.394
539	0.393
539	0.393
540	0.391
540	0.39
541	0.388
541	0.387
542	0.385
542	0.384
542	0.382
543	0.38
543	0.379
544	0.377
544	0.375
545	0.374
545	0.373
546	0.371
546	0.369
547	0.367
547	0.365
547	0.363
548	0.362
548	0.36
549	0.359
549	0.357
550	0.356
550	0.354
551	0.351
551	0.35
551	0.348
552	0.346
552	0.344
553	0.342
553	0.341
554	0.339
554	0.336
555	0.334
555	0.332
556	0.331
556	0.329
556	0.327
557	0.326
557	0.324
558	0.322
558	0.321
559	0.319
559	0.318
560	0.316
560	0.314
560	0.313
561	0.312
561	0.31
562	0.309
562	0.307
563	0.305
563	0.303
564	0.302
564	0.3
564	0.299
565	0.298
565	0.297
566	0.295
566	0.294
567	0.293
567	0.292
568	0.29
568	0.289
568	0.288
569	0.286
569	0.284
570	0.282
570	0.279
571	0.278
571	0.277
572	0.276
572	0.274
573	0.272
573	0.271
573	0.269
574	0.268
574	0.268
575	0.267
575	0.268
576	0.267
576	0.265
577	0.263
577	0.262
577	0.262
578	0.261
578	0.261
579	0.261
579	0.261
580	0.259
580	0.257
581	0.255
581	0.254
581	0.254
582	0.254
582	0.254
583	0.253
583	0.252
584	0.249
584	0.247
585	0.247
585	0.247
585	0.247
586	0.246
586	0.244
587	0.242
587	0.241
588	0.239
588	0.238
589	0.238
589	0.238
590	0.237
590	0.236
590	0.237
591	0.237
591	0.237
592	0.236
592	0.235
593	0.235
593	0.234
594	0.233
594	0.232
594	0.232
595	0.231
595	0.229
596	0.228
596	0.229
597	0.23
597	0.23
598	0.23
598	0.23
598	0.23
599	0.23
599	0.229
600	0.229
600	0.229
601	0.229
601	0.229
602	0.228
602	0.227
602	0.227
603	0.227
603	0.227
604	0.227
604	0.227
605	0.227
605	0.227
606	0.226
606	0.225
606	0.224
607	0.223
607	0.223
608	0.222
608	0.22
609	0.219
609	0.219
610	0.218
610	0.218
610	0.218
611	0.218
611	0.218
612	0.218
612	0.218
613	0.218
613	0.218
614	0.217
614	0.216
614	0.216
615	0.215
615	0.214
616	0.214
616	0.214
617	0.213
617	0.213
618	0.212
618	0.212
618	0.211
619	0.211
619	0.211
620	0.212
620	0.211
621	0.21
621	0.21
622	0.209
622	0.208
622	0.207
623	0.206
623	0.206
624	0.206
624	0.204
625	0.203
625	0.203
626	0.201
626	0.2
626	0.2
627	0.2
627	0.199
628	0.198
628	0.198
629	0.197
629	0.196
630	0.195
630	0.193
630	0.192
631	0.191
631	0.189
632	0.187
632	0.186
633	0.184
633	0.182
634	0.181
634	0.179
634	0.178
635	0.176
635	0.174
636	0.172
636	0.17
637	0.168
637	0.165
638	0.163
638	0.16
638	0.157
639	0.154
639	0.15
640	0.147
640	0.143
641	0.14
641	0.136
642	0.133
642	0.129
642	0.125
643	0.121
643	0.117
644	0.113
644	0.108
645	0.104
645	0.1
646	0.095
646	0.09
646	0.084
647	0.078
647	0.073
648	0.066
648	0.06
649	0.053
649	0.046
650	0.04
650	0.032
650	0.024
651	0.015
651	0.003
652	-0.01
652	-0.024
653	-0.037
653	-0.048
653	-0.044
654	-0.026
654	-0.021
655	-0.026
655	-0.031
656	-0.038
656	-0.045
657	-0.05
657	-0.055
657	-0.062
658	-0.069
658	-0.1
659	-0.186
659	-0.277
660	-0.317
660	-0.344
661	-0.373
661	-0.404
661	-0.437
662	-0.466
662	-0.497
663	-0.534
663	-0.573
664	-0.612
664	-0.654
665	-0.702
665	-0.75
665	-0.797
666	-0.849
666	-0.905
667	-0.962
667	-1.026
668	-1.086
668	-1.156
669	-1.225
669	-1.298
669	-1.377
670	-1.46
670	-1.571
671	-1.739
671	-2.099
672	-2.331
672	-2.488
672	-2.605
673	-2.699
673	-2.778
674	-2.851
674	-2.869
675	-2.886
675	-2.89
676	-2.887
676	-2.837
676	-2.771
677	-2.692
677	-2.599
678	-2.464
678	-2.254
679	-1.843
679	-1.652
680	-1.541
680	-1.461
680	-1.39
681	-1.338
681	-1.282
682	-1.238
682	-1.191
683	-1.146
683	-1.119
684	-1.087
684	-1.066
684	-1.041
685	-1.019
685	-1.008
686	-0.982
686	-0.966
687	-0.955
687	-0.943
687	-0.942
688	-0.925
688	-0.917
689	-0.919
689	-0.914
690	-0.899
690	-0.888
691	-0.885
691	-0.887
691	-0.888
692	-0.888
692	-0.884
693	-0.891
693	-0.9
694	-0.879
694	-0.879
695	-0.881
695	-0.874
695	-0.88
696	-0.887
696	-0.88
697	-0.872
697	-0.868
698	-0.861
698	-0.854
698	-0.869
699	-0.865
699	-0.865
700	-0.885
700	-0.88
701	-0.865
701	-0.857
702	-0.857
702	-0.855
702	-0.856
703	-0.846
703	-0.834
704	-0.842
704	-0.846
705	-0.833
705	-0.833
705	-0.828
706	-0.822
706	-0.818
707	-0.831
707	-0.833
708	-0.83
708	-0.825
709	-0.829
709	-0.826
709	-0.822
710	-0.83
710	-0.832
711	-0.829
711	-0.83
712	-0.821
712	-0.818
713	-0.824
713	-0.826
713	-0.804
714	-0.808
714	-0.812
715	-0.803
715	-0.811
716	-0.829
716	-0.839
716	-0.838
717	-0.844
717	-0.836
718	-0.831
718	-0.832
719	-0.825
719	-0.818
720	-0.811
720	-0.806
720	-0.799
721	-0.789
721	-0.794
722	-0.792
722	-0.788
723	-0.805
723	-0.818
723	-0.826
724	-0.823
724	-0.829
725	-0.823
725	-0.826
726	-0.828
726	-0.818
727	-0.821
727	-0.828
727	-0.817
728	-0.803
728	-0.799
729	-0.802
729	-0.805
730	-0.811
730	-0.801
730	-0.806
731	-0.81
731	-0.808
732	-0.811
732	-0.808
733	-0.823
733	-0.831
734	-0.839
734	-0.83
734	-0.813
735	-0.803
735	-0.8
736	-0.798
736	-0.793
737	-0.791
737	-0.781
737	-0.773
738	-0.761
738	-0.749
739	-0.751
739	-0.752
740	-0.766
740	-0.767
741	-0.779
741	-0.789
741	-0.797
742	-0.803
742	-0.819
743	-0.823
743	-0.827
744	-0.832
744	-0.839
744	-0.834
745	-0.84
745	-0.827
746	-0.823
746	-0.815
747	-0.818
747	-0.809
748	-0.81
748	-0.813
748	-0.814
749	-0.805
749	-0.809
750	-0.801
750	-0.802
751	-0.801
751	-0.797
751	-0.809
752	-0.813
752	-0.817
753	-0.817
753	-0.811
754	-0.83
754	-0.831
754	-0.84
755	-0.843
755	-0.835
756	-0.84
756	-0.823
757	-0.816
757	-0.804
758	-0.804
758	-0.803
758	-0.799
759	-0.804
759	-0.803
760	-0.8
760	-0.803
761	-0.796
761	-0.803
761	-0.802
762	-0.809
762	-0.81
763	-0.811
763	-0.814
764	-0.813
764	-0.808
764	-0.815
765	-0.814
765	-0.819
766	-0.821
766	-0.823
767	-0.839
767	-0.835
768	-0.832
768	-0.825
768	-0.82
769	-0.825
769	-0.832
770	-0.841
770	-0.847
771	-0.842
771	-0.84
771	-0.844
772	-0.846
772	-0.869
773	-0.871
773	-0.87
774	-0.868
774	-0.85
775	-0.838
775	-0.836
775	-0.841
776	-0.853
776	-0.849
777	-0.85
777	-0.831
778	-0.839
778	-0.849
778	-0.849
779	-0.858
779	-0.874
780	-0.871
780	-0.88
781	-0.869
781	-0.859
781	-0.873
782	-0.894
782	-0.894
783	-0.892
783	-0.9
784	-0.903
784	-0.897
784	-0.916
785	-0.909
785	-0.922
786	-0.926
786	-0.919
787	-0.907
787	-0.916
788	-0.91
788	-0.904
788	-0.905
789	-0.904
789	-0.894
790	-0.893
790	-0.877
791	-0.884
791	-0.878
791	-0.874
792	-0.87
792	-0.873
793	-0.875
793	-0.864
794	-0.857
794	-0.849
794	-0.856
795	-0.875
795	-0.864
796	-0.869
796	-0.865
797	-0.856
797	-0.848
797	-0.842
798	-0.862
798	-0.867
799	-0.868
799	-0.851
800	-0.847
800	-0.853
801	-0.851
801	-0.855
801	-0.854
802	-0.852
802	-0.851
803	-0.844
803	-0.837
804	-0.84
804	-0.85
804	-0.833
805	-0.815
805	-0.805
806	-0.806
806	-0.801
807	-0.803
807	-0.803
807	-0.785
808	-0.779
808	-0.774
809	-0.767
809	-0.77
810	-0.772
810	-0.769
810	-0.765
811	-0.768
811	-0.757
812	-0.751
812	-0.754
813	-0.758
813	-0.759
813	-0.757
814	-0.755
814	-0.761
815	-0.751
815	-0.745
816	-0.741
816	-0.76
817	-0.771
817	-0.775
817	-0.786
818	-0.779
818	-0.778
819	-0.788
819	-0.786
820	-0.799
820	-0.8
820	-0.8
821	-0.793
821	-0.788
822	-0.786
822	-0.773
823	-0.784
823	-0.782
823	-0.777
824	-0.775
824	-0.783
825	-0.781
825	-0.777
826	-0.774
826	-0.77
826	-0.771
827	-0.771
827	-0.759
828	-0.758
828	-0.753
829	-0.748
829	-0.734
829	-0.732
830	-0.732
830	-0.718
831	-0.711
831	-0.7
832	-0.69
832	-0.688
832	-0.681
833	-0.679
833	-0.682
834	-0.677
834	-0.672
835	-0.664
835	-0.665
835	-0.66
836	-0.655
836	-0.651
837	-0.639
837	-0.63
838	-0.616
838	-0.601
839	-0.594
839	-0.58
839	-0.57
840	-0.568
840	-0.558
841	-0.548
841	-0.542
842	-0.533
842	-0.522
842	-0.519
843	-0.514
843	-0.509
844	-0.508
844	-0.497
845	-0.481
845	-0.473
845	-0.463
846	-0.451
846	-0.441
847	-0.431
847	-0.418
848	-0.403
848	-0.387
848	-0.373
849	-0.36
849	-0.348
850	-0.337
850	-0.328
851	-0.313
851	-0.297
851	-0.287
852	-0.271
852	-0.258
853	-0.248
853	-0.235
854	-0.224
854	-0.213
854	-0.2
855	-0.188
855	-0.18
856	-0.172
856	-0.163
857	-0.155
857	-0.146
857	-0.133
858	-0.123
858	-0.115
859	-0.103
859	-0.091
860	-0.081
860	-0.066
860	-0.055
861	-0.045
861	-0.035
862	-0.027
862	-0.02
863	-0.011
863	-0.002
863	0.004
864	0.009
864	0.017
865	0.023
865	0.029
866	0.034
866	0.04
866	0.045
867	0.051
867	0.056
868	0.06
868	0.065
869	0.071
869	0.074
869	0.076
870	0.078
870	0.08
871	0.081
871	0.082
872	0.082
872	0.083
872	0.084
873	0.084
873	0.084
874	0.084
874	0.084
875	0.084
875	0.084
875	0.084
876	0.085
876	0.085
877	0.084
877	0.084
878	0.083
878	0.083
878	0.082
879	0.082
879	0.081
880	0.08
880	0.079
881	0.077
881	0.076
881	0.075
882	0.074
882	0.073
883	0.072
883	0.071
884	0.071
884	0.07
884	0.07
885	0.07
885	0.07
886	0.071
886	0.07
887	0.07
887	0.07
887	0.07
888	0.07
888	0.069
889	0.069
889	0.069
890	0.068
890	0.068
890	0.067
891	0.068
891	0.067
892	0.068
892	0.068
893	0.068
893	0.068
893	0.068
894	0.068
894	0.068
895	0.068
895	0.068
895	0.068
896	0.069
896	0.068
897	0.069
897	0.069
898	0.069
898	0.069
898	0.07
899	0.07
899	0.07
900	0.07
900	0.07
901	0.07
901	0.069
901	0.069
902	0.069
902	0.07
903	0.07
903	0.07
904	0.07
904	0.07
904	0.07
905	0.07
905	0.07
906	0.071
906	0.072
907	0.072
907	0.072
907	0.072
908	0.072
908	0.073
909	0.073
909	0.073
910	0.073
910	0.073
910	0.073
911	0.074
911	0.074
912	0.076
912	0.077
913	0.078
913	0.079
913	0.08
914	0.081
914	0.081
915	0.082
915	0.082
916	0.082
916	0.082
916	0.081
917	0.081
917	0.08
918	0.08
918	0.079
918	0.079
919	0.079
919	0.079
920	0.078
920	0.078
921	0.078
921	0.078
921	0.079
922	0.079
922	0.078
923	0.078
923	0.078
924	0.077
924	0.077
924	0.077
925	0.076
925	0.076
926	0.075
926	0.074
927	0.074
927	0.073
927	0.073
928	0.072
928	0.072
929	0.072
929	0.072
930	0.072
930	0.072
930	0.073
931	0.073
931	0.073
932	0.074
932	0.075
933	0.075
933	0.075
933	0.075
934	0.074
934	0.074
935	0.073
935	0.072
935	0.071
936	0.069
936	0.068
937	0.066
937	0.065
938	0.064
938	0.062
938	0.061
939	0.06
939	0.06
940	0.059
940	0.058
941	0.057
941	0.057
941	0.056
942	0.056
942	0.055
943	0.056
943	0.055
944	0.054
944	0.053
944	0.053
945	0.053
945	0.053
946	0.052
946	0.052
946	0.052
947	0.051
947	0.051
948	0.051
948	0.052
949	0.053
949	0.054
949	0.055
950	0.056
950	0.057
951	0.058
951	0.059
952	0.059
952	0.06
952	0.061
953	0.061
953	0.062
954	0.062
954	0.062
955	0.062
955	0.061
955	0.06
956	0.06
956	0.059
957	0.058
957	0.057
957	0.057
958	0.056
958	0.056
959	0.056
959	0.056
960	0.056
960	0.056
960	0.057
961	0.057
961	0.058
962	0.058
962	0.059
963	0.06
963	0.061
963	0.062
964	0.063
964	0.064
965	0.064
965	0.065
966	0.065
966	0.065
966	0.066
967	0.065
967	0.065
968	0.064
968	0.063
968	0.063
969	0.063
969	0.062
970	0.062
970	0.062
971	0.063
971	0.063
971	0.063
972	0.064
972	0.065
973	0.065
973	0.066
974	0.066
974	0.066
974	0.066
975	0.066
975	0.066
976	0.066
976	0.066
976	0.065
977	0.065
977	0.064
978	0.062
978	0.061
979	0.06
979	0.059
979	0.057
980	0.056
980	0.055
981	0.054
981	0.054
982	0.053
982	0.053
982	0.053
983	0.053
983	0.053
984	0.053
984	0.053
984	0.053
985	0.052
985	0.052
986	0.051
986	0.05
987	0.049
987	0.048
987	0.047
988	0.046
988	0.045
989	0.044
989	0.044
990	0.043
990	0.043
990	0.043
991	0.043
991	0.043
992	0.044
992	0.044
992	0.044
993	0.045
993	0.045
994	0.044
994	0.044
995	0.044
995	0.043
995	0.042
996	0.041
996	0.04
997	0.039
997	0.039
997	0.038
998	0.038
998	0.038
999	0.037
999	0.037
1000	0.038
1000	0.038
1000	0.038
1001	0.038
1001	0.039
1002	0.039
1002	0.039
1003	0.039
1003	0.038
1003	0.038
1004	0.037
1004	0.036
1005	0.035
1005	0.034
1005	0.033
1006	0.031
1006	0.03
1007	0.029
1007	0.028
1008	0.027
1008	0.026
1008	0.025
1009	0.025
1009	0.025
1010	0.025
1010	0.025
1010	0.026
1011	0.026
1011	0.027
1012	0.027
1012	0.029
1013	0.03
1013	0.031
1013	0.032
1014	0.033
1014	0.034
1015	0.035
1015	0.035
1016	0.036
1016	0.036
1016	0.036
1017	0.036
1017	0.036
1018	0.036
1018	0.036
1018	0.036
1019	0.035
1019	0.035
1020	0.035
1020	0.034
1021	0.033
1021	0.033
1021	0.032
1022	0.032
1022	0.032
1023	0.032
1023	0.031
1023	0.031
1024	0.031
1024	0.031
1025	0.031
1025	0.031
1026	0.03
1026	0.03
1026	0.03
1027	0.03
1027	0.03
1028	0.03
1028	0.031
1028	0.031
1029	0.03
1029	0.03
1030	0.03
1030	0.03
1031	0.029
1031	0.03
1031	0.03
1032	0.029
1032	0.029
1033	0.028
1033	0.028
1033	0.028
1034	0.027
1034	0.027
1035	0.027
1035	0.027
1036	0.026
1036	0.026
1036	0.026
1037	0.026
1037	0.027
1038	0.027
1038	0.028
1039	0.029
1039	0.03
1039	0.031
1040	0.032
1040	0.033
1041	0.033
1041	0.033
1041	0.033
1042	0.033
1042	0.032
1043	0.032
1043	0.032
1044	0.031
1044	0.03
1044	0.03
1045	0.029
1045	0.029
1046	0.028
1046	0.028
1046	0.028
1047	0.028
1047	0.028
1048	0.028
1048	0.028
1049	0.028
1049	0.028
1049	0.028
1050	0.027
1050	0.026
1051	0.026
1051	0.025
1051	0.024
1052	0.023
1052	0.022
1053	0.021
1053	0.02
1053	0.019
1054	0.019
1054	0.018
1055	0.018
1055	0.018
1056	0.018
1056	0.017
1056	0.017
1057	0.016
1057	0.016
1058	0.016
1058	0.016
1058	0.016
1059	0.015
1059	0.015
1060	0.014
1060	0.014
1061	0.014
1061	0.014
1061	0.014
1062	0.014
1062	0.013
1063	0.014
1063	0.013
1063	0.013
1064	0.013
1064	0.013
1065	0.013
1065	0.012
1066	0.012
1066	0.011
1066	0.011
1067	0.01
1067	0.01
1068	0.009
1068	0.009
1068	0.008
1069	0.007
1069	0.007
1070	0.006
1070	0.006
1071	0.006
1071	0.005
1071	0.005
1072	0.005
1072	0.005
1073	0.006
1073	0.006
1073	0.006
1074	0.006
1074	0.007
1075	0.006
1075	0.006
1076	0.005
1076	0.005
1076	0.004
1077	0.003
1077	0.001
1078	0
1078	-0.001
1078	-0.002
1079	-0.003
1079	-0.004
1080	-0.005
1080	-0.006
1080	-0.008
1081	-0.009
1081	-0.01
1082	-0.01
1082	-0.012
1083	-0.013
1083	-0.014
1083	-0.016
1084	-0.017
1084	-0.018
1085	-0.019
1085	-0.019
1085	-0.02
1086	-0.021
1086	-0.022
1087	-0.023
1087	-0.023
1088	-0.025
1088	-0.025
1088	-0.026
1089	-0.028
1089	-0.028
1090	-0.029
1090	-0.03
1090	-0.032
1091	-0.033
1091	-0.033
1092	-0.033
1092	-0.033
1092	-0.034
1093	-0.035
1093	-0.034
1094	-0.035
1094	-0.036
1095	-0.037
1095	-0.037
1095	-0.037
1096	-0.038
1096	-0.039
1097	-0.04
1097	-0.042
1097	-0.043
1098	-0.046
1098	-0.047
1099	-0.048
1099	-0.05
1100	-0.052
1100	-0.054
1100	-0.058
1101	-0.061
1101	-0.064
1102	-0.066
1102	-0.069
1102	-0.07
1103	-0.073
1103	-0.077
1104	-0.08
1104	-0.083
1104	-0.085
1105	-0.087
1105	-0.09
1106	-0.095
1106	-0.097
1107	-0.102
1107	-0.106
1107	-0.112
1108	-0.112
1108	-0.114
1109	-0.118
1109	-0.122
1109	-0.126
1110	-0.126
1110	-0.13
1111	-0.141
1111	-0.139
