Data from 3.4A_17C_Absorbance__942__01899.txt Node

Date: Tue Jun 20 16:12:14 CEST 2023
User: Marek
Spectrometer: MAYP115816
Trigger mode: 0
Integration Time (sec): 2.200000E-1
Scans to average: 10
Electric dark correction enabled: true
Nonlinearity correction enabled: true
Boxcar width: 5
XAxis mode: Wavelengths
Number of Pixels in Spectrum: 2068
>>>>>Begin Spectral Data<<<<<
199	-0.787
199	-0.766
200	-0.728
200	-0.679
201	-0.65
201	-0.641
202	-0.626
202	-0.618
203	-0.616
203	-0.608
204	-0.589
204	-0.571
205	-0.549
205	-0.54
205	-0.546
206	-0.547
206	-0.543
207	-0.535
207	-0.539
208	-0.541
208	-0.546
209	-0.547
209	-0.553
210	-0.566
210	-0.573
211	-0.567
211	-0.572
212	-0.58
212	-0.588
213	-0.586
213	-0.583
213	-0.58
214	-0.587
214	-0.59
215	-0.586
215	-0.591
216	-0.599
216	-0.604
217	-0.603
217	-0.604
218	-0.612
218	-0.613
219	-0.62
219	-0.623
220	-0.626
220	-0.635
221	-0.635
221	-0.635
221	-0.625
222	-0.624
222	-0.622
223	-0.619
223	-0.619
224	-0.619
224	-0.616
225	-0.612
225	-0.613
226	-0.614
226	-0.615
227	-0.623
227	-0.633
228	-0.638
228	-0.646
229	-0.651
229	-0.65
229	-0.65
230	-0.647
230	-0.643
231	-0.641
231	-0.636
232	-0.639
232	-0.633
233	-0.633
233	-0.621
234	-0.621
234	-0.616
235	-0.62
235	-0.632
236	-0.641
236	-0.641
236	-0.642
237	-0.639
237	-0.642
238	-0.643
238	-0.642
239	-0.646
239	-0.656
240	-0.65
240	-0.646
241	-0.64
241	-0.642
242	-0.645
242	-0.653
243	-0.652
243	-0.653
243	-0.659
244	-0.656
244	-0.656
245	-0.657
245	-0.661
246	-0.67
246	-0.674
247	-0.683
247	-0.669
248	-0.669
248	-0.671
249	-0.678
249	-0.681
250	-0.681
250	-0.691
250	-0.688
251	-0.69
251	-0.688
252	-0.688
252	-0.701
253	-0.697
253	-0.708
254	-0.712
254	-0.712
255	-0.72
255	-0.718
256	-0.721
256	-0.732
257	-0.74
257	-0.737
258	-0.739
258	-0.746
258	-0.743
259	-0.737
259	-0.753
260	-0.753
260	-0.74
261	-0.751
261	-0.737
262	-0.742
262	-0.741
263	-0.732
263	-0.737
264	-0.748
264	-0.75
265	-0.742
265	-0.745
265	-0.755
266	-0.746
266	-0.748
267	-0.749
267	-0.766
268	-0.774
268	-0.767
269	-0.759
269	-0.773
270	-0.777
270	-0.777
271	-0.793
271	-0.803
272	-0.802
272	-0.805
272	-0.797
273	-0.806
273	-0.821
274	-0.812
274	-0.807
275	-0.803
275	-0.791
276	-0.793
276	-0.799
277	-0.803
277	-0.801
278	-0.805
278	-0.805
278	-0.794
279	-0.804
279	-0.817
280	-0.82
280	-0.831
281	-0.825
281	-0.816
282	-0.822
282	-0.816
283	-0.809
283	-0.823
284	-0.837
284	-0.846
285	-0.826
285	-0.832
285	-0.822
286	-0.826
286	-0.842
287	-0.84
287	-0.839
288	-0.839
288	-0.822
289	-0.82
289	-0.828
290	-0.837
290	-0.828
291	-0.831
291	-0.829
292	-0.811
292	-0.806
292	-0.809
293	-0.797
293	-0.793
294	-0.793
294	-0.778
295	-0.761
295	-0.773
296	-0.785
296	-0.779
297	-0.767
297	-0.77
298	-0.767
298	-0.784
298	-0.787
299	-0.769
299	-0.762
300	-0.759
300	-0.74
301	-0.723
301	-0.726
302	-0.736
302	-0.723
303	-0.715
303	-0.705
304	-0.689
304	-0.691
305	-0.685
305	-0.692
305	-0.707
306	-0.692
306	-0.69
307	-0.683
307	-0.692
308	-0.695
308	-0.69
309	-0.692
309	-0.687
310	-0.685
310	-0.679
311	-0.664
311	-0.681
311	-0.669
312	-0.666
312	-0.657
313	-0.65
313	-0.651
314	-0.654
314	-0.653
315	-0.649
315	-0.644
316	-0.64
316	-0.631
317	-0.624
317	-0.619
318	-0.611
318	-0.608
318	-0.599
319	-0.59
319	-0.582
320	-0.58
320	-0.579
321	-0.573
321	-0.573
322	-0.566
322	-0.56
323	-0.561
323	-0.551
324	-0.548
324	-0.537
324	-0.525
325	-0.511
325	-0.494
326	-0.486
326	-0.461
327	-0.447
327	-0.425
328	-0.395
328	-0.374
329	-0.347
329	-0.321
330	-0.297
330	-0.263
330	-0.231
331	-0.196
331	-0.166
332	-0.134
332	-0.104
333	-0.076
333	-0.046
334	-0.02
334	0.003
335	0.028
335	0.047
336	0.067
336	0.085
336	0.1
337	0.115
337	0.13
338	0.141
338	0.15
339	0.162
339	0.171
340	0.178
340	0.185
341	0.191
341	0.196
342	0.202
342	0.207
342	0.21
343	0.214
343	0.217
344	0.22
344	0.222
345	0.225
345	0.227
346	0.229
346	0.231
347	0.232
347	0.233
348	0.234
348	0.236
348	0.236
349	0.237
349	0.238
350	0.238
350	0.239
351	0.239
351	0.24
352	0.24
352	0.24
353	0.24
353	0.24
354	0.24
354	0.24
354	0.24
355	0.24
355	0.24
356	0.24
356	0.24
357	0.241
357	0.241
358	0.241
358	0.241
359	0.241
359	0.241
360	0.241
360	0.241
360	0.241
361	0.241
361	0.241
362	0.24
362	0.24
363	0.24
363	0.24
364	0.24
364	0.24
365	0.24
365	0.24
366	0.24
366	0.24
366	0.24
367	0.24
367	0.24
368	0.24
368	0.24
369	0.24
369	0.24
370	0.24
370	0.24
371	0.239
371	0.239
372	0.239
372	0.239
372	0.239
373	0.239
373	0.239
374	0.239
374	0.239
375	0.239
375	0.239
376	0.239
376	0.238
377	0.238
377	0.238
378	0.238
378	0.237
378	0.237
379	0.237
379	0.237
380	0.237
380	0.237
381	0.237
381	0.237
382	0.237
382	0.237
383	0.237
383	0.236
383	0.236
384	0.236
384	0.236
385	0.235
385	0.235
386	0.235
386	0.235
387	0.235
387	0.235
388	0.235
388	0.234
389	0.235
389	0.235
389	0.235
390	0.235
390	0.235
391	0.235
391	0.234
392	0.234
392	0.234
393	0.234
393	0.234
394	0.233
394	0.233
394	0.233
395	0.233
395	0.232
396	0.232
396	0.232
397	0.232
397	0.232
398	0.232
398	0.232
399	0.232
399	0.232
400	0.231
400	0.231
400	0.231
401	0.231
401	0.231
402	0.231
402	0.23
403	0.23
403	0.23
404	0.23
404	0.23
405	0.23
405	0.229
405	0.229
406	0.229
406	0.229
407	0.229
407	0.229
408	0.228
408	0.228
409	0.228
409	0.228
410	0.228
410	0.228
411	0.228
411	0.228
411	0.228
412	0.227
412	0.227
413	0.227
413	0.227
414	0.227
414	0.227
415	0.226
415	0.226
416	0.226
416	0.226
416	0.225
417	0.225
417	0.225
418	0.225
418	0.225
419	0.225
419	0.225
420	0.225
420	0.225
421	0.225
421	0.225
421	0.225
422	0.225
422	0.225
423	0.225
423	0.225
424	0.225
424	0.224
425	0.224
425	0.224
426	0.225
426	0.225
427	0.224
427	0.224
427	0.225
428	0.225
428	0.225
429	0.225
429	0.224
430	0.224
430	0.224
431	0.224
431	0.223
432	0.223
432	0.223
432	0.222
433	0.222
433	0.222
434	0.222
434	0.222
435	0.222
435	0.222
436	0.222
436	0.222
437	0.222
437	0.222
437	0.221
438	0.222
438	0.222
439	0.222
439	0.222
440	0.221
440	0.221
441	0.222
441	0.222
442	0.221
442	0.222
442	0.222
443	0.221
443	0.221
444	0.221
444	0.222
445	0.222
445	0.222
446	0.221
446	0.221
447	0.221
447	0.222
447	0.222
448	0.222
448	0.221
449	0.221
449	0.221
450	0.221
450	0.221
451	0.221
451	0.221
452	0.221
452	0.22
452	0.22
453	0.221
453	0.221
454	0.221
454	0.221
455	0.221
455	0.221
456	0.222
456	0.222
457	0.222
457	0.222
458	0.222
458	0.221
458	0.221
459	0.221
459	0.22
460	0.22
460	0.22
461	0.22
461	0.22
462	0.22
462	0.22
463	0.221
463	0.222
463	0.222
464	0.222
464	0.222
465	0.223
465	0.223
466	0.224
466	0.224
467	0.224
467	0.224
467	0.224
468	0.223
468	0.223
469	0.223
469	0.224
470	0.224
470	0.224
471	0.224
471	0.224
472	0.224
472	0.224
472	0.224
473	0.225
473	0.225
474	0.226
474	0.226
475	0.226
475	0.227
476	0.227
476	0.228
477	0.229
477	0.229
477	0.23
478	0.23
478	0.23
479	0.231
479	0.231
480	0.231
480	0.232
481	0.232
481	0.232
482	0.233
482	0.233
482	0.234
483	0.235
483	0.237
484	0.237
484	0.237
485	0.238
485	0.238
486	0.239
486	0.24
487	0.241
487	0.241
487	0.242
488	0.242
488	0.243
489	0.243
489	0.245
490	0.246
490	0.246
491	0.247
491	0.248
492	0.249
492	0.25
492	0.25
493	0.251
493	0.252
494	0.254
494	0.255
495	0.256
495	0.256
496	0.257
496	0.259
496	0.26
497	0.262
497	0.263
498	0.264
498	0.265
499	0.266
499	0.267
500	0.269
500	0.27
501	0.271
501	0.272
501	0.273
502	0.274
502	0.275
503	0.277
503	0.279
504	0.28
504	0.281
505	0.283
505	0.285
506	0.287
506	0.288
506	0.29
507	0.292
507	0.294
508	0.296
508	0.298
509	0.299
509	0.301
510	0.303
510	0.304
511	0.306
511	0.308
511	0.309
512	0.311
512	0.312
513	0.313
513	0.315
514	0.316
514	0.318
515	0.319
515	0.32
515	0.321
516	0.322
516	0.324
517	0.325
517	0.326
518	0.327
518	0.328
519	0.329
519	0.33
520	0.331
520	0.332
520	0.333
521	0.333
521	0.334
522	0.335
522	0.336
523	0.336
523	0.337
524	0.337
524	0.338
524	0.339
525	0.34
525	0.34
526	0.341
526	0.342
527	0.342
527	0.342
528	0.342
528	0.343
529	0.343
529	0.343
529	0.343
530	0.343
530	0.342
531	0.342
531	0.341
532	0.341
532	0.341
533	0.34
533	0.34
533	0.34
534	0.339
534	0.339
535	0.338
535	0.338
536	0.338
536	0.337
537	0.337
537	0.336
538	0.336
538	0.335
538	0.334
539	0.334
539	0.333
540	0.332
540	0.331
541	0.33
541	0.329
542	0.328
542	0.327
542	0.326
543	0.325
543	0.323
544	0.322
544	0.321
545	0.32
545	0.319
546	0.318
546	0.316
547	0.314
547	0.313
547	0.312
548	0.311
548	0.31
549	0.308
549	0.307
550	0.306
550	0.305
551	0.303
551	0.302
551	0.301
552	0.299
552	0.298
553	0.297
553	0.296
554	0.294
554	0.292
555	0.29
555	0.289
556	0.288
556	0.286
556	0.285
557	0.284
557	0.283
558	0.281
558	0.28
559	0.279
559	0.278
560	0.276
560	0.275
560	0.274
561	0.273
561	0.272
562	0.271
562	0.269
563	0.268
563	0.267
564	0.266
564	0.265
564	0.264
565	0.264
565	0.263
566	0.262
566	0.261
567	0.26
567	0.26
568	0.259
568	0.257
568	0.256
569	0.255
569	0.254
570	0.252
570	0.249
571	0.249
571	0.248
572	0.247
572	0.246
573	0.244
573	0.243
573	0.241
574	0.241
574	0.24
575	0.24
575	0.241
576	0.24
576	0.238
577	0.237
577	0.236
577	0.236
578	0.236
578	0.237
579	0.237
579	0.238
580	0.236
580	0.234
581	0.232
581	0.231
581	0.232
582	0.232
582	0.232
583	0.232
583	0.23
584	0.228
584	0.226
585	0.227
585	0.227
585	0.228
586	0.227
586	0.226
587	0.224
587	0.223
588	0.221
588	0.221
589	0.22
589	0.22
590	0.219
590	0.219
590	0.219
591	0.22
591	0.219
592	0.219
592	0.218
593	0.218
593	0.218
594	0.217
594	0.217
594	0.216
595	0.216
595	0.214
596	0.213
596	0.214
597	0.216
597	0.216
598	0.215
598	0.215
598	0.215
599	0.215
599	0.215
600	0.214
600	0.215
601	0.215
601	0.215
602	0.214
602	0.214
602	0.213
603	0.214
603	0.214
604	0.215
604	0.215
605	0.215
605	0.216
606	0.215
606	0.214
606	0.213
607	0.213
607	0.213
608	0.212
608	0.211
609	0.21
609	0.21
610	0.21
610	0.209
610	0.209
611	0.209
611	0.209
612	0.209
612	0.21
613	0.21
613	0.21
614	0.209
614	0.209
614	0.208
615	0.207
615	0.207
616	0.207
616	0.206
617	0.206
617	0.205
618	0.204
618	0.204
618	0.203
619	0.203
619	0.203
620	0.204
620	0.203
621	0.203
621	0.203
622	0.202
622	0.202
622	0.201
623	0.2
623	0.2
624	0.2
624	0.199
625	0.198
625	0.198
626	0.197
626	0.196
626	0.195
627	0.195
627	0.194
628	0.194
628	0.193
629	0.192
629	0.191
630	0.19
630	0.189
630	0.188
631	0.187
631	0.186
632	0.184
632	0.183
633	0.182
633	0.18
634	0.179
634	0.178
634	0.177
635	0.175
635	0.174
636	0.172
636	0.17
637	0.169
637	0.167
638	0.165
638	0.163
638	0.16
639	0.158
639	0.154
640	0.152
640	0.148
641	0.146
641	0.142
642	0.139
642	0.136
642	0.132
643	0.128
643	0.124
644	0.12
644	0.116
645	0.111
645	0.107
646	0.102
646	0.097
646	0.091
647	0.085
647	0.079
648	0.073
648	0.066
649	0.059
649	0.052
650	0.046
650	0.038
650	0.031
651	0.022
651	0.01
652	-0.002
652	-0.016
653	-0.029
653	-0.039
653	-0.036
654	-0.017
654	-0.014
655	-0.019
655	-0.025
656	-0.032
656	-0.039
657	-0.045
657	-0.05
657	-0.057
658	-0.064
658	-0.095
659	-0.182
659	-0.272
660	-0.313
660	-0.34
661	-0.368
661	-0.399
661	-0.431
662	-0.46
662	-0.492
663	-0.526
663	-0.566
664	-0.605
664	-0.647
665	-0.693
665	-0.74
665	-0.785
666	-0.836
666	-0.891
667	-0.947
667	-1.01
668	-1.07
668	-1.138
669	-1.206
669	-1.278
669	-1.355
670	-1.434
670	-1.535
671	-1.665
671	-1.919
672	-2.23
672	-2.417
672	-2.551
673	-2.656
673	-2.741
674	-2.822
674	-2.847
675	-2.865
675	-2.87
676	-2.872
676	-2.847
676	-2.784
677	-2.708
677	-2.62
678	-2.492
678	-2.299
679	-1.929
679	-1.687
680	-1.566
680	-1.482
680	-1.408
681	-1.354
681	-1.296
682	-1.249
682	-1.203
683	-1.157
683	-1.13
684	-1.099
684	-1.077
684	-1.053
685	-1.031
685	-1.019
686	-0.993
686	-0.978
687	-0.967
687	-0.953
687	-0.951
688	-0.932
688	-0.922
689	-0.925
689	-0.921
690	-0.905
690	-0.893
691	-0.891
691	-0.893
691	-0.893
692	-0.893
692	-0.89
693	-0.897
693	-0.908
694	-0.886
694	-0.886
695	-0.888
695	-0.882
695	-0.889
696	-0.895
696	-0.888
697	-0.881
697	-0.875
698	-0.869
698	-0.862
698	-0.876
699	-0.871
699	-0.872
700	-0.89
700	-0.884
701	-0.869
701	-0.862
702	-0.864
702	-0.864
702	-0.866
703	-0.857
703	-0.846
704	-0.853
704	-0.859
705	-0.848
705	-0.846
705	-0.842
706	-0.835
706	-0.83
707	-0.841
707	-0.843
708	-0.839
708	-0.837
709	-0.839
709	-0.834
709	-0.83
710	-0.838
710	-0.841
711	-0.84
711	-0.841
712	-0.831
712	-0.827
713	-0.832
713	-0.831
713	-0.812
714	-0.813
714	-0.816
715	-0.808
715	-0.816
716	-0.832
716	-0.839
716	-0.839
717	-0.845
717	-0.837
718	-0.833
718	-0.834
719	-0.829
719	-0.823
720	-0.817
720	-0.812
720	-0.805
721	-0.797
721	-0.802
722	-0.802
722	-0.798
723	-0.814
723	-0.825
723	-0.836
724	-0.834
724	-0.839
725	-0.834
725	-0.839
726	-0.843
726	-0.833
727	-0.833
727	-0.841
727	-0.832
728	-0.821
728	-0.814
729	-0.816
729	-0.819
730	-0.824
730	-0.815
730	-0.82
731	-0.824
731	-0.823
732	-0.826
732	-0.82
733	-0.834
733	-0.842
734	-0.851
734	-0.841
734	-0.825
735	-0.815
735	-0.811
736	-0.808
736	-0.805
737	-0.803
737	-0.793
737	-0.784
738	-0.771
738	-0.758
739	-0.761
739	-0.762
740	-0.774
740	-0.774
741	-0.785
741	-0.794
741	-0.803
742	-0.81
742	-0.826
743	-0.831
743	-0.833
744	-0.836
744	-0.844
744	-0.839
745	-0.846
745	-0.834
746	-0.83
746	-0.821
747	-0.824
747	-0.813
748	-0.815
748	-0.822
748	-0.823
749	-0.815
749	-0.821
750	-0.811
750	-0.812
751	-0.809
751	-0.806
751	-0.819
752	-0.822
752	-0.826
753	-0.826
753	-0.82
754	-0.84
754	-0.839
754	-0.846
755	-0.847
755	-0.841
756	-0.845
756	-0.83
757	-0.824
757	-0.813
758	-0.813
758	-0.811
758	-0.805
759	-0.809
759	-0.811
760	-0.809
760	-0.811
761	-0.804
761	-0.807
761	-0.806
762	-0.812
762	-0.814
763	-0.815
763	-0.817
764	-0.818
764	-0.814
764	-0.819
765	-0.82
765	-0.826
766	-0.83
766	-0.832
767	-0.848
767	-0.843
768	-0.841
768	-0.835
768	-0.829
769	-0.832
769	-0.841
770	-0.849
770	-0.853
771	-0.85
771	-0.85
771	-0.855
772	-0.859
772	-0.879
773	-0.88
773	-0.882
774	-0.881
774	-0.862
775	-0.85
775	-0.85
775	-0.854
776	-0.865
776	-0.862
777	-0.861
777	-0.845
778	-0.856
778	-0.863
778	-0.862
779	-0.872
779	-0.889
780	-0.886
780	-0.894
781	-0.884
781	-0.873
781	-0.889
782	-0.908
782	-0.91
783	-0.909
783	-0.916
784	-0.919
784	-0.913
784	-0.932
785	-0.925
785	-0.935
786	-0.938
786	-0.93
787	-0.92
787	-0.928
788	-0.921
788	-0.916
788	-0.918
789	-0.917
789	-0.905
790	-0.905
790	-0.889
791	-0.896
791	-0.89
791	-0.884
792	-0.878
792	-0.882
793	-0.884
793	-0.871
794	-0.864
794	-0.858
794	-0.863
795	-0.884
795	-0.871
796	-0.877
796	-0.872
797	-0.864
797	-0.853
797	-0.846
798	-0.867
798	-0.87
799	-0.871
799	-0.858
800	-0.853
800	-0.861
801	-0.86
801	-0.863
801	-0.86
802	-0.861
802	-0.86
803	-0.853
803	-0.845
804	-0.851
804	-0.858
804	-0.841
805	-0.822
805	-0.811
806	-0.812
806	-0.81
807	-0.811
807	-0.812
807	-0.795
808	-0.793
808	-0.785
809	-0.779
809	-0.78
810	-0.784
810	-0.783
810	-0.779
811	-0.779
811	-0.77
812	-0.763
812	-0.763
813	-0.767
813	-0.767
813	-0.764
814	-0.765
814	-0.77
815	-0.76
815	-0.758
816	-0.756
816	-0.773
817	-0.786
817	-0.792
817	-0.801
818	-0.795
818	-0.792
819	-0.8
819	-0.799
820	-0.809
820	-0.807
820	-0.806
821	-0.8
821	-0.796
822	-0.794
822	-0.783
823	-0.795
823	-0.794
823	-0.788
824	-0.786
824	-0.798
825	-0.798
825	-0.793
826	-0.788
826	-0.783
826	-0.782
827	-0.781
827	-0.769
828	-0.769
828	-0.763
829	-0.756
829	-0.74
829	-0.737
830	-0.737
830	-0.725
831	-0.718
831	-0.708
832	-0.698
832	-0.693
832	-0.686
833	-0.683
833	-0.69
834	-0.686
834	-0.681
835	-0.671
835	-0.67
835	-0.664
836	-0.66
836	-0.657
837	-0.647
837	-0.639
838	-0.629
838	-0.609
839	-0.602
839	-0.589
839	-0.58
840	-0.578
840	-0.568
841	-0.558
841	-0.551
842	-0.542
842	-0.528
842	-0.524
843	-0.522
843	-0.517
844	-0.515
844	-0.503
845	-0.489
845	-0.48
845	-0.468
846	-0.455
846	-0.445
847	-0.434
847	-0.421
848	-0.405
848	-0.387
848	-0.372
849	-0.36
849	-0.346
850	-0.334
850	-0.324
851	-0.31
851	-0.293
851	-0.284
852	-0.267
852	-0.252
853	-0.244
853	-0.235
854	-0.222
854	-0.211
854	-0.198
855	-0.187
855	-0.179
856	-0.169
856	-0.16
857	-0.152
857	-0.143
857	-0.129
858	-0.117
858	-0.109
859	-0.098
859	-0.085
860	-0.073
860	-0.058
860	-0.048
861	-0.036
861	-0.026
862	-0.016
862	-0.007
863	0.002
863	0.012
863	0.019
864	0.025
864	0.034
865	0.041
865	0.047
866	0.054
866	0.059
866	0.065
867	0.07
867	0.076
868	0.081
868	0.086
869	0.091
869	0.094
869	0.097
870	0.099
870	0.101
871	0.103
871	0.104
872	0.105
872	0.105
872	0.106
873	0.106
873	0.106
874	0.105
874	0.105
875	0.105
875	0.105
875	0.104
876	0.104
876	0.104
877	0.103
877	0.103
878	0.102
878	0.102
878	0.101
879	0.101
879	0.1
880	0.1
880	0.099
881	0.097
881	0.096
881	0.096
882	0.094
882	0.092
883	0.091
883	0.09
884	0.089
884	0.089
884	0.088
885	0.088
885	0.088
886	0.088
886	0.087
887	0.087
887	0.086
887	0.086
888	0.086
888	0.084
889	0.084
889	0.083
890	0.082
890	0.081
890	0.081
891	0.081
891	0.08
892	0.081
892	0.081
893	0.081
893	0.082
893	0.082
894	0.082
894	0.082
895	0.082
895	0.082
895	0.083
896	0.083
896	0.083
897	0.083
897	0.084
898	0.084
898	0.084
898	0.084
899	0.085
899	0.085
900	0.085
900	0.085
901	0.085
901	0.084
901	0.084
902	0.084
902	0.084
903	0.084
903	0.084
904	0.084
904	0.084
904	0.084
905	0.085
905	0.085
906	0.086
906	0.086
907	0.086
907	0.087
907	0.087
908	0.087
908	0.087
909	0.087
909	0.087
910	0.087
910	0.086
910	0.086
911	0.086
911	0.087
912	0.087
912	0.088
913	0.089
913	0.09
913	0.091
914	0.092
914	0.093
915	0.093
915	0.094
916	0.095
916	0.095
916	0.096
917	0.096
917	0.096
918	0.096
918	0.097
918	0.097
919	0.097
919	0.098
920	0.098
920	0.098
921	0.098
921	0.099
921	0.099
922	0.099
922	0.098
923	0.098
923	0.097
924	0.096
924	0.095
924	0.094
925	0.093
925	0.091
926	0.09
926	0.088
927	0.087
927	0.085
927	0.085
928	0.084
928	0.083
929	0.083
929	0.083
930	0.083
930	0.084
930	0.084
931	0.085
931	0.086
932	0.087
932	0.088
933	0.089
933	0.089
933	0.089
934	0.089
934	0.089
935	0.089
935	0.088
935	0.087
936	0.086
936	0.085
937	0.083
937	0.082
938	0.081
938	0.079
938	0.078
939	0.077
939	0.076
940	0.075
940	0.074
941	0.074
941	0.073
941	0.073
942	0.073
942	0.073
943	0.073
943	0.073
944	0.073
944	0.072
944	0.072
945	0.072
945	0.071
946	0.071
946	0.07
946	0.07
947	0.07
947	0.07
948	0.071
948	0.071
949	0.072
949	0.073
949	0.074
950	0.075
950	0.076
951	0.077
951	0.077
952	0.078
952	0.079
952	0.079
953	0.08
953	0.08
954	0.08
954	0.08
955	0.08
955	0.08
955	0.08
956	0.079
956	0.078
957	0.077
957	0.077
957	0.075
958	0.074
958	0.074
959	0.073
959	0.072
960	0.071
960	0.071
960	0.071
961	0.07
961	0.07
962	0.07
962	0.07
963	0.07
963	0.071
963	0.071
964	0.072
964	0.072
965	0.073
965	0.074
966	0.074
966	0.075
966	0.076
967	0.076
967	0.076
968	0.076
968	0.075
968	0.076
969	0.076
969	0.076
970	0.076
970	0.076
971	0.077
971	0.078
971	0.078
972	0.08
972	0.08
973	0.081
973	0.081
974	0.081
974	0.082
974	0.082
975	0.082
975	0.082
976	0.082
976	0.081
976	0.081
977	0.08
977	0.079
978	0.078
978	0.077
979	0.076
979	0.075
979	0.074
980	0.074
980	0.073
981	0.072
981	0.072
982	0.072
982	0.072
982	0.072
983	0.072
983	0.072
984	0.072
984	0.071
984	0.071
985	0.071
985	0.07
986	0.069
986	0.068
987	0.066
987	0.065
987	0.064
988	0.063
988	0.062
989	0.061
989	0.06
990	0.059
990	0.058
990	0.058
991	0.058
991	0.058
992	0.058
992	0.058
992	0.058
993	0.058
993	0.058
994	0.057
994	0.056
995	0.056
995	0.055
995	0.054
996	0.053
996	0.052
997	0.051
997	0.05
997	0.05
998	0.049
998	0.05
999	0.05
999	0.05
1000	0.051
1000	0.051
1000	0.052
1001	0.053
1001	0.053
1002	0.054
1002	0.054
1003	0.054
1003	0.054
1003	0.054
1004	0.054
1004	0.053
1005	0.053
1005	0.052
1005	0.051
1006	0.05
1006	0.049
1007	0.048
1007	0.046
1008	0.046
1008	0.045
1008	0.044
1009	0.044
1009	0.044
1010	0.044
1010	0.044
1010	0.045
1011	0.045
1011	0.046
1012	0.047
1012	0.048
1013	0.049
1013	0.05
1013	0.05
1014	0.051
1014	0.051
1015	0.052
1015	0.053
1016	0.053
1016	0.053
1016	0.053
1017	0.052
1017	0.052
1018	0.052
1018	0.052
1018	0.051
1019	0.051
1019	0.05
1020	0.05
1020	0.048
1021	0.048
1021	0.047
1021	0.047
1022	0.046
1022	0.045
1023	0.045
1023	0.045
1023	0.044
1024	0.044
1024	0.044
1025	0.044
1025	0.044
1026	0.044
1026	0.044
1026	0.044
1027	0.044
1027	0.044
1028	0.044
1028	0.045
1028	0.045
1029	0.045
1029	0.045
1030	0.045
1030	0.045
1031	0.044
1031	0.045
1031	0.045
1032	0.045
1032	0.045
1033	0.044
1033	0.044
1033	0.044
1034	0.044
1034	0.044
1035	0.044
1035	0.044
1036	0.044
1036	0.044
1036	0.044
1037	0.045
1037	0.046
1038	0.046
1038	0.046
1039	0.047
1039	0.049
1039	0.05
1040	0.05
1040	0.051
1041	0.051
1041	0.05
1041	0.05
1042	0.049
1042	0.049
1043	0.048
1043	0.047
1044	0.045
1044	0.044
1044	0.043
1045	0.042
1045	0.041
1046	0.04
1046	0.039
1046	0.039
1047	0.038
1047	0.038
1048	0.038
1048	0.038
1049	0.038
1049	0.038
1049	0.038
1050	0.038
1050	0.037
1051	0.037
1051	0.036
1051	0.036
1052	0.035
1052	0.034
1053	0.033
1053	0.033
1053	0.032
1054	0.032
1054	0.031
1055	0.031
1055	0.032
1056	0.031
1056	0.031
1056	0.031
1057	0.031
1057	0.031
1058	0.031
1058	0.03
1058	0.03
1059	0.03
1059	0.029
1060	0.028
1060	0.028
1061	0.027
1061	0.027
1061	0.028
1062	0.027
1062	0.027
1063	0.027
1063	0.026
1063	0.026
1064	0.026
1064	0.027
1065	0.027
1065	0.027
1066	0.027
1066	0.026
1066	0.027
1067	0.027
1067	0.027
1068	0.027
1068	0.026
1068	0.026
1069	0.025
1069	0.025
1070	0.024
1070	0.024
1071	0.024
1071	0.024
1071	0.023
1072	0.023
1072	0.023
1073	0.023
1073	0.023
1073	0.023
1074	0.022
1074	0.022
1075	0.021
1075	0.021
1076	0.02
1076	0.019
1076	0.018
1077	0.016
1077	0.015
1078	0.014
1078	0.013
1078	0.011
1079	0.01
1079	0.009
1080	0.008
1080	0.007
1080	0.005
1081	0.004
1081	0.003
1082	0.002
1082	0.001
1083	-0
1083	-0.001
1083	-0.002
1084	-0.003
1084	-0.004
1085	-0.005
1085	-0.005
1085	-0.006
1086	-0.006
1086	-0.007
1087	-0.008
1087	-0.008
1088	-0.009
1088	-0.01
1088	-0.01
1089	-0.011
1089	-0.011
1090	-0.012
1090	-0.013
1090	-0.014
1091	-0.016
1091	-0.016
1092	-0.017
1092	-0.017
1092	-0.018
1093	-0.019
1093	-0.019
1094	-0.02
1094	-0.022
1095	-0.024
1095	-0.024
1095	-0.025
1096	-0.027
1096	-0.028
1097	-0.03
1097	-0.032
1097	-0.033
1098	-0.035
1098	-0.038
1099	-0.04
1099	-0.042
1100	-0.045
1100	-0.047
1100	-0.05
1101	-0.054
1101	-0.057
1102	-0.061
1102	-0.064
1102	-0.066
1103	-0.07
1103	-0.072
1104	-0.076
1104	-0.08
1104	-0.083
1105	-0.085
1105	-0.087
1106	-0.094
1106	-0.095
1107	-0.101
1107	-0.105
1107	-0.11
1108	-0.112
1108	-0.113
1109	-0.116
1109	-0.121
1109	-0.125
1110	-0.127
1110	-0.128
1111	-0.138
1111	-0.133
