Data from 3.4A_17C_Absorbance__926__01883.txt Node

Date: Tue Jun 20 16:11:39 CEST 2023
User: Marek
Spectrometer: MAYP115816
Trigger mode: 0
Integration Time (sec): 2.200000E-1
Scans to average: 10
Electric dark correction enabled: true
Nonlinearity correction enabled: true
Boxcar width: 5
XAxis mode: Wavelengths
Number of Pixels in Spectrum: 2068
>>>>>Begin Spectral Data<<<<<
199	-0.782
199	-0.762
200	-0.727
200	-0.672
201	-0.644
201	-0.638
202	-0.62
202	-0.614
203	-0.615
203	-0.608
204	-0.586
204	-0.572
205	-0.55
205	-0.542
205	-0.551
206	-0.553
206	-0.549
207	-0.543
207	-0.549
208	-0.549
208	-0.553
209	-0.556
209	-0.561
210	-0.574
210	-0.58
211	-0.573
211	-0.577
212	-0.586
212	-0.592
213	-0.589
213	-0.584
213	-0.582
214	-0.588
214	-0.591
215	-0.589
215	-0.596
216	-0.606
216	-0.612
217	-0.607
217	-0.608
218	-0.616
218	-0.618
219	-0.624
219	-0.626
220	-0.63
220	-0.635
221	-0.634
221	-0.634
221	-0.625
222	-0.625
222	-0.624
223	-0.62
223	-0.622
224	-0.624
224	-0.622
225	-0.618
225	-0.619
226	-0.619
226	-0.618
227	-0.626
227	-0.637
228	-0.64
228	-0.648
229	-0.652
229	-0.648
229	-0.648
230	-0.645
230	-0.643
231	-0.641
231	-0.636
232	-0.639
232	-0.635
233	-0.634
233	-0.624
234	-0.623
234	-0.62
235	-0.624
235	-0.635
236	-0.643
236	-0.643
236	-0.643
237	-0.641
237	-0.641
238	-0.642
238	-0.643
239	-0.645
239	-0.656
240	-0.649
240	-0.644
241	-0.638
241	-0.641
242	-0.645
242	-0.653
243	-0.653
243	-0.656
243	-0.66
244	-0.657
244	-0.657
245	-0.661
245	-0.665
246	-0.676
246	-0.678
247	-0.686
247	-0.672
248	-0.671
248	-0.674
249	-0.677
249	-0.68
250	-0.679
250	-0.687
250	-0.684
251	-0.684
251	-0.682
252	-0.683
252	-0.695
253	-0.692
253	-0.705
254	-0.712
254	-0.715
255	-0.726
255	-0.725
256	-0.726
256	-0.738
257	-0.746
257	-0.742
258	-0.744
258	-0.751
258	-0.748
259	-0.741
259	-0.758
260	-0.756
260	-0.744
261	-0.755
261	-0.742
262	-0.747
262	-0.747
263	-0.737
263	-0.742
264	-0.75
264	-0.751
265	-0.74
265	-0.744
265	-0.756
266	-0.747
266	-0.746
267	-0.747
267	-0.763
268	-0.771
268	-0.767
269	-0.759
269	-0.774
270	-0.777
270	-0.776
271	-0.788
271	-0.798
272	-0.801
272	-0.802
272	-0.796
273	-0.808
273	-0.821
274	-0.814
274	-0.809
275	-0.806
275	-0.796
276	-0.8
276	-0.806
277	-0.807
277	-0.805
278	-0.809
278	-0.807
278	-0.796
279	-0.806
279	-0.818
280	-0.82
280	-0.831
281	-0.825
281	-0.818
282	-0.826
282	-0.82
283	-0.812
283	-0.827
284	-0.842
284	-0.851
285	-0.831
285	-0.838
285	-0.828
286	-0.833
286	-0.848
287	-0.844
287	-0.843
288	-0.844
288	-0.825
289	-0.822
289	-0.83
290	-0.838
290	-0.829
291	-0.832
291	-0.831
292	-0.812
292	-0.809
292	-0.813
293	-0.8
293	-0.797
294	-0.794
294	-0.78
295	-0.763
295	-0.774
296	-0.787
296	-0.781
297	-0.769
297	-0.773
298	-0.769
298	-0.786
298	-0.791
299	-0.773
299	-0.766
300	-0.763
300	-0.744
301	-0.724
301	-0.726
302	-0.738
302	-0.724
303	-0.718
303	-0.707
304	-0.69
304	-0.694
305	-0.688
305	-0.696
305	-0.712
306	-0.697
306	-0.696
307	-0.687
307	-0.697
308	-0.697
308	-0.693
309	-0.695
309	-0.69
310	-0.686
310	-0.681
311	-0.666
311	-0.685
311	-0.673
312	-0.671
312	-0.662
313	-0.655
313	-0.655
314	-0.66
314	-0.658
315	-0.657
315	-0.651
316	-0.645
316	-0.634
317	-0.626
317	-0.624
318	-0.615
318	-0.612
318	-0.603
319	-0.591
319	-0.584
320	-0.58
320	-0.578
321	-0.574
321	-0.574
322	-0.567
322	-0.558
323	-0.56
323	-0.551
324	-0.549
324	-0.539
324	-0.529
325	-0.514
325	-0.498
326	-0.49
326	-0.465
327	-0.452
327	-0.432
328	-0.401
328	-0.378
329	-0.352
329	-0.325
330	-0.299
330	-0.265
330	-0.232
331	-0.195
331	-0.163
332	-0.131
332	-0.101
333	-0.073
333	-0.043
334	-0.016
334	0.008
335	0.033
335	0.052
336	0.072
336	0.089
336	0.104
337	0.119
337	0.133
338	0.144
338	0.153
339	0.165
339	0.173
340	0.18
340	0.187
341	0.193
341	0.197
342	0.203
342	0.208
342	0.212
343	0.216
343	0.22
344	0.223
344	0.226
345	0.228
345	0.23
346	0.231
346	0.234
347	0.234
347	0.235
348	0.236
348	0.238
348	0.238
349	0.239
349	0.239
350	0.24
350	0.24
351	0.241
351	0.241
352	0.241
352	0.241
353	0.242
353	0.242
354	0.242
354	0.242
354	0.242
355	0.242
355	0.242
356	0.242
356	0.242
357	0.242
357	0.242
358	0.242
358	0.242
359	0.242
359	0.242
360	0.242
360	0.242
360	0.242
361	0.242
361	0.242
362	0.242
362	0.242
363	0.242
363	0.242
364	0.242
364	0.242
365	0.242
365	0.242
366	0.242
366	0.242
366	0.242
367	0.242
367	0.242
368	0.242
368	0.242
369	0.242
369	0.242
370	0.241
370	0.241
371	0.241
371	0.241
372	0.241
372	0.24
372	0.24
373	0.24
373	0.24
374	0.24
374	0.24
375	0.24
375	0.24
376	0.24
376	0.24
377	0.24
377	0.24
378	0.239
378	0.239
378	0.239
379	0.239
379	0.239
380	0.239
380	0.239
381	0.239
381	0.239
382	0.238
382	0.238
383	0.238
383	0.238
383	0.238
384	0.237
384	0.237
385	0.237
385	0.237
386	0.236
386	0.236
387	0.236
387	0.236
388	0.236
388	0.236
389	0.236
389	0.236
389	0.236
390	0.236
390	0.236
391	0.236
391	0.236
392	0.235
392	0.235
393	0.235
393	0.235
394	0.235
394	0.235
394	0.235
395	0.234
395	0.234
396	0.234
396	0.234
397	0.234
397	0.233
398	0.233
398	0.233
399	0.233
399	0.233
400	0.232
400	0.233
400	0.233
401	0.232
401	0.232
402	0.232
402	0.232
403	0.232
403	0.232
404	0.232
404	0.231
405	0.231
405	0.231
405	0.231
406	0.231
406	0.231
407	0.23
407	0.23
408	0.23
408	0.23
409	0.23
409	0.23
410	0.23
410	0.229
411	0.229
411	0.229
411	0.229
412	0.229
412	0.228
413	0.228
413	0.228
414	0.228
414	0.228
415	0.228
415	0.227
416	0.227
416	0.227
416	0.227
417	0.227
417	0.227
418	0.227
418	0.227
419	0.227
419	0.226
420	0.226
420	0.226
421	0.226
421	0.226
421	0.226
422	0.226
422	0.226
423	0.226
423	0.226
424	0.226
424	0.226
425	0.226
425	0.226
426	0.226
426	0.226
427	0.226
427	0.226
427	0.226
428	0.226
428	0.226
429	0.226
429	0.225
430	0.225
430	0.225
431	0.224
431	0.224
432	0.224
432	0.223
432	0.223
433	0.223
433	0.223
434	0.223
434	0.223
435	0.223
435	0.223
436	0.223
436	0.223
437	0.223
437	0.223
437	0.223
438	0.223
438	0.223
439	0.223
439	0.223
440	0.223
440	0.223
441	0.223
441	0.223
442	0.223
442	0.223
442	0.223
443	0.223
443	0.223
444	0.223
444	0.223
445	0.223
445	0.223
446	0.223
446	0.222
447	0.222
447	0.223
447	0.222
448	0.223
448	0.223
449	0.222
449	0.222
450	0.222
450	0.222
451	0.222
451	0.222
452	0.222
452	0.222
452	0.222
453	0.222
453	0.222
454	0.222
454	0.222
455	0.223
455	0.223
456	0.223
456	0.223
457	0.223
457	0.223
458	0.223
458	0.222
458	0.223
459	0.222
459	0.222
460	0.221
460	0.221
461	0.221
461	0.221
462	0.222
462	0.222
463	0.223
463	0.223
463	0.224
464	0.224
464	0.224
465	0.225
465	0.225
466	0.225
466	0.225
467	0.226
467	0.225
467	0.225
468	0.225
468	0.225
469	0.225
469	0.225
470	0.225
470	0.225
471	0.225
471	0.225
472	0.225
472	0.225
472	0.226
473	0.226
473	0.227
474	0.227
474	0.227
475	0.228
475	0.229
476	0.229
476	0.23
477	0.23
477	0.231
477	0.231
478	0.232
478	0.232
479	0.232
479	0.233
480	0.233
480	0.233
481	0.234
481	0.234
482	0.235
482	0.235
482	0.236
483	0.237
483	0.238
484	0.239
484	0.239
485	0.239
485	0.24
486	0.241
486	0.242
487	0.242
487	0.243
487	0.244
488	0.244
488	0.244
489	0.245
489	0.247
490	0.248
490	0.248
491	0.249
491	0.25
492	0.251
492	0.251
492	0.252
493	0.253
493	0.254
494	0.256
494	0.257
495	0.258
495	0.258
496	0.26
496	0.261
496	0.262
497	0.264
497	0.265
498	0.266
498	0.267
499	0.268
499	0.27
500	0.271
500	0.273
501	0.274
501	0.275
501	0.276
502	0.277
502	0.278
503	0.28
503	0.281
504	0.282
504	0.284
505	0.286
505	0.288
506	0.29
506	0.291
506	0.293
507	0.295
507	0.297
508	0.299
508	0.301
509	0.302
509	0.304
510	0.306
510	0.307
511	0.309
511	0.311
511	0.312
512	0.314
512	0.315
513	0.316
513	0.317
514	0.319
514	0.32
515	0.322
515	0.323
515	0.323
516	0.325
516	0.326
517	0.328
517	0.329
518	0.33
518	0.331
519	0.332
519	0.333
520	0.334
520	0.335
520	0.336
521	0.337
521	0.337
522	0.338
522	0.339
523	0.339
523	0.34
524	0.34
524	0.341
524	0.342
525	0.343
525	0.343
526	0.344
526	0.344
527	0.345
527	0.345
528	0.345
528	0.345
529	0.345
529	0.345
529	0.345
530	0.345
530	0.345
531	0.344
531	0.344
532	0.343
532	0.343
533	0.343
533	0.343
533	0.342
534	0.342
534	0.342
535	0.341
535	0.341
536	0.341
536	0.34
537	0.34
537	0.339
538	0.339
538	0.338
538	0.337
539	0.337
539	0.336
540	0.335
540	0.334
541	0.333
541	0.332
542	0.331
542	0.33
542	0.329
543	0.328
543	0.326
544	0.325
544	0.324
545	0.323
545	0.322
546	0.321
546	0.319
547	0.317
547	0.316
547	0.314
548	0.314
548	0.312
549	0.311
549	0.31
550	0.309
550	0.307
551	0.306
551	0.304
551	0.303
552	0.301
552	0.3
553	0.299
553	0.298
554	0.296
554	0.294
555	0.292
555	0.291
556	0.29
556	0.288
556	0.287
557	0.286
557	0.285
558	0.283
558	0.282
559	0.281
559	0.28
560	0.278
560	0.277
560	0.276
561	0.275
561	0.274
562	0.272
562	0.271
563	0.269
563	0.268
564	0.267
564	0.266
564	0.265
565	0.264
565	0.264
566	0.262
566	0.262
567	0.261
567	0.26
568	0.259
568	0.258
568	0.257
569	0.256
569	0.254
570	0.253
570	0.25
571	0.25
571	0.249
572	0.248
572	0.247
573	0.245
573	0.244
573	0.242
574	0.242
574	0.241
575	0.241
575	0.242
576	0.241
576	0.239
577	0.238
577	0.237
577	0.237
578	0.237
578	0.238
579	0.238
579	0.239
580	0.237
580	0.234
581	0.233
581	0.232
581	0.232
582	0.232
582	0.232
583	0.232
583	0.231
584	0.229
584	0.227
585	0.227
585	0.228
585	0.228
586	0.228
586	0.227
587	0.225
587	0.223
588	0.222
588	0.221
589	0.221
589	0.221
590	0.22
590	0.219
590	0.22
591	0.22
591	0.22
592	0.219
592	0.218
593	0.218
593	0.218
594	0.218
594	0.217
594	0.216
595	0.216
595	0.215
596	0.213
596	0.214
597	0.216
597	0.216
598	0.216
598	0.216
598	0.216
599	0.216
599	0.215
600	0.215
600	0.215
601	0.215
601	0.215
602	0.214
602	0.214
602	0.214
603	0.214
603	0.215
604	0.215
604	0.215
605	0.215
605	0.216
606	0.215
606	0.214
606	0.213
607	0.213
607	0.213
608	0.212
608	0.211
609	0.21
609	0.21
610	0.21
610	0.209
610	0.209
611	0.209
611	0.209
612	0.209
612	0.209
613	0.21
613	0.21
614	0.209
614	0.208
614	0.208
615	0.207
615	0.206
616	0.206
616	0.206
617	0.205
617	0.205
618	0.204
618	0.204
618	0.203
619	0.203
619	0.203
620	0.204
620	0.203
621	0.203
621	0.203
622	0.202
622	0.202
622	0.2
623	0.2
623	0.2
624	0.2
624	0.199
625	0.198
625	0.197
626	0.196
626	0.195
626	0.195
627	0.195
627	0.194
628	0.194
628	0.193
629	0.192
629	0.191
630	0.19
630	0.188
630	0.188
631	0.187
631	0.186
632	0.184
632	0.182
633	0.181
633	0.18
634	0.179
634	0.177
634	0.177
635	0.175
635	0.174
636	0.172
636	0.17
637	0.168
637	0.166
638	0.165
638	0.163
638	0.16
639	0.157
639	0.154
640	0.151
640	0.148
641	0.145
641	0.142
642	0.139
642	0.136
642	0.132
643	0.128
643	0.123
644	0.119
644	0.115
645	0.11
645	0.106
646	0.101
646	0.096
646	0.09
647	0.084
647	0.078
648	0.071
648	0.064
649	0.058
649	0.051
650	0.044
650	0.037
650	0.029
651	0.02
651	0.008
652	-0.005
652	-0.018
653	-0.031
653	-0.042
653	-0.037
654	-0.019
654	-0.015
655	-0.02
655	-0.026
656	-0.032
656	-0.04
657	-0.046
657	-0.051
657	-0.058
658	-0.066
658	-0.099
659	-0.185
659	-0.275
660	-0.316
660	-0.343
661	-0.371
661	-0.401
661	-0.434
662	-0.463
662	-0.493
663	-0.529
663	-0.567
664	-0.606
664	-0.648
665	-0.695
665	-0.742
665	-0.788
666	-0.839
666	-0.895
667	-0.951
667	-1.015
668	-1.074
668	-1.143
669	-1.211
669	-1.283
669	-1.36
670	-1.439
670	-1.542
671	-1.674
671	-1.938
672	-2.24
672	-2.424
672	-2.556
673	-2.659
673	-2.745
674	-2.825
674	-2.849
675	-2.867
675	-2.872
676	-2.873
676	-2.846
676	-2.783
677	-2.706
677	-2.618
678	-2.489
678	-2.295
679	-1.919
679	-1.683
680	-1.562
680	-1.479
680	-1.406
681	-1.35
681	-1.293
682	-1.246
682	-1.2
683	-1.155
683	-1.129
684	-1.098
684	-1.077
684	-1.054
685	-1.031
685	-1.02
686	-0.997
686	-0.981
687	-0.971
687	-0.958
687	-0.958
688	-0.94
688	-0.932
689	-0.933
689	-0.928
690	-0.913
690	-0.902
691	-0.899
691	-0.903
691	-0.9
692	-0.899
692	-0.894
693	-0.901
693	-0.909
694	-0.889
694	-0.887
695	-0.889
695	-0.882
695	-0.888
696	-0.894
696	-0.887
697	-0.881
697	-0.877
698	-0.872
698	-0.864
698	-0.878
699	-0.877
699	-0.877
700	-0.895
700	-0.889
701	-0.875
701	-0.87
702	-0.871
702	-0.87
702	-0.87
703	-0.863
703	-0.85
704	-0.857
704	-0.862
705	-0.853
705	-0.852
705	-0.846
706	-0.838
706	-0.834
707	-0.844
707	-0.846
708	-0.842
708	-0.84
709	-0.84
709	-0.836
709	-0.831
710	-0.838
710	-0.84
711	-0.84
711	-0.842
712	-0.832
712	-0.829
713	-0.835
713	-0.836
713	-0.818
714	-0.821
714	-0.823
715	-0.815
715	-0.823
716	-0.839
716	-0.847
716	-0.849
717	-0.855
717	-0.845
718	-0.839
718	-0.84
719	-0.834
719	-0.827
720	-0.822
720	-0.818
720	-0.811
721	-0.802
721	-0.806
722	-0.804
722	-0.801
723	-0.818
723	-0.831
723	-0.84
724	-0.839
724	-0.846
725	-0.839
725	-0.842
726	-0.846
726	-0.837
727	-0.838
727	-0.846
727	-0.837
728	-0.823
728	-0.82
729	-0.821
729	-0.822
730	-0.827
730	-0.818
730	-0.824
731	-0.826
731	-0.826
732	-0.827
732	-0.823
733	-0.838
733	-0.842
734	-0.852
734	-0.843
734	-0.825
735	-0.815
735	-0.809
736	-0.808
736	-0.802
737	-0.801
737	-0.791
737	-0.783
738	-0.77
738	-0.758
739	-0.76
739	-0.763
740	-0.778
740	-0.779
741	-0.791
741	-0.801
741	-0.81
742	-0.818
742	-0.834
743	-0.841
743	-0.843
744	-0.846
744	-0.854
744	-0.847
745	-0.854
745	-0.842
746	-0.836
746	-0.828
747	-0.83
747	-0.819
748	-0.819
748	-0.825
748	-0.828
749	-0.82
749	-0.825
750	-0.816
750	-0.818
751	-0.818
751	-0.815
751	-0.825
752	-0.829
752	-0.833
753	-0.833
753	-0.824
754	-0.843
754	-0.844
754	-0.853
755	-0.853
755	-0.843
756	-0.846
756	-0.833
757	-0.827
757	-0.815
758	-0.815
758	-0.814
758	-0.81
759	-0.816
759	-0.815
760	-0.812
760	-0.815
761	-0.808
761	-0.812
761	-0.812
762	-0.819
762	-0.82
763	-0.821
763	-0.826
764	-0.823
764	-0.819
764	-0.825
765	-0.826
765	-0.833
766	-0.834
766	-0.835
767	-0.851
767	-0.846
768	-0.845
768	-0.835
768	-0.831
769	-0.834
769	-0.843
770	-0.851
770	-0.855
771	-0.852
771	-0.853
771	-0.857
772	-0.86
772	-0.88
773	-0.882
773	-0.882
774	-0.88
774	-0.862
775	-0.85
775	-0.85
775	-0.853
776	-0.863
776	-0.86
777	-0.86
777	-0.842
778	-0.852
778	-0.861
778	-0.862
779	-0.87
779	-0.885
780	-0.881
780	-0.889
781	-0.878
781	-0.869
781	-0.883
782	-0.905
782	-0.905
783	-0.905
783	-0.912
784	-0.917
784	-0.91
784	-0.931
785	-0.925
785	-0.936
786	-0.941
786	-0.933
787	-0.921
787	-0.928
788	-0.921
788	-0.912
788	-0.914
789	-0.914
789	-0.902
790	-0.899
790	-0.886
791	-0.891
791	-0.886
791	-0.881
792	-0.878
792	-0.883
793	-0.887
793	-0.873
794	-0.867
794	-0.863
794	-0.872
795	-0.891
795	-0.878
796	-0.884
796	-0.88
797	-0.872
797	-0.861
797	-0.853
798	-0.875
798	-0.876
799	-0.874
799	-0.858
800	-0.854
800	-0.863
801	-0.86
801	-0.864
801	-0.861
802	-0.862
802	-0.861
803	-0.855
803	-0.849
804	-0.855
804	-0.863
804	-0.845
805	-0.826
805	-0.816
806	-0.817
806	-0.815
807	-0.815
807	-0.815
807	-0.797
808	-0.793
808	-0.786
809	-0.779
809	-0.782
810	-0.784
810	-0.781
810	-0.777
811	-0.78
811	-0.771
812	-0.765
812	-0.77
813	-0.773
813	-0.774
813	-0.772
814	-0.772
814	-0.779
815	-0.77
815	-0.766
816	-0.762
816	-0.779
817	-0.791
817	-0.795
817	-0.803
818	-0.797
818	-0.794
819	-0.804
819	-0.802
820	-0.813
820	-0.813
820	-0.812
821	-0.805
821	-0.801
822	-0.8
822	-0.789
823	-0.799
823	-0.798
823	-0.793
824	-0.791
824	-0.801
825	-0.799
825	-0.797
826	-0.794
826	-0.789
826	-0.787
827	-0.786
827	-0.775
828	-0.775
828	-0.77
829	-0.764
829	-0.749
829	-0.747
830	-0.742
830	-0.728
831	-0.723
831	-0.713
832	-0.705
832	-0.702
832	-0.694
833	-0.691
833	-0.698
834	-0.692
834	-0.686
835	-0.681
835	-0.68
835	-0.674
836	-0.669
836	-0.665
837	-0.655
837	-0.647
838	-0.634
838	-0.616
839	-0.61
839	-0.597
839	-0.587
840	-0.586
840	-0.576
841	-0.565
841	-0.558
842	-0.548
842	-0.535
842	-0.531
843	-0.526
843	-0.52
844	-0.516
844	-0.504
845	-0.489
845	-0.478
845	-0.467
846	-0.454
846	-0.443
847	-0.432
847	-0.42
848	-0.405
848	-0.388
848	-0.375
849	-0.362
849	-0.35
850	-0.34
850	-0.329
851	-0.315
851	-0.298
851	-0.287
852	-0.27
852	-0.258
853	-0.249
853	-0.238
854	-0.225
854	-0.213
854	-0.2
855	-0.189
855	-0.181
856	-0.173
856	-0.164
857	-0.156
857	-0.146
857	-0.131
858	-0.119
858	-0.112
859	-0.101
859	-0.088
860	-0.075
860	-0.059
860	-0.048
861	-0.037
861	-0.027
862	-0.017
862	-0.009
863	0.001
863	0.012
863	0.019
864	0.025
864	0.033
865	0.04
865	0.046
866	0.053
866	0.059
866	0.064
867	0.069
867	0.075
868	0.08
868	0.085
869	0.09
869	0.093
869	0.096
870	0.098
870	0.1
871	0.102
871	0.103
872	0.104
872	0.104
872	0.105
873	0.105
873	0.105
874	0.105
874	0.104
875	0.104
875	0.104
875	0.104
876	0.104
876	0.103
877	0.103
877	0.102
878	0.101
878	0.101
878	0.1
879	0.1
879	0.099
880	0.099
880	0.098
881	0.097
881	0.096
881	0.095
882	0.093
882	0.092
883	0.09
883	0.089
884	0.088
884	0.088
884	0.087
885	0.087
885	0.087
886	0.086
886	0.086
887	0.086
887	0.086
887	0.085
888	0.085
888	0.084
889	0.083
889	0.082
890	0.082
890	0.081
890	0.081
891	0.081
891	0.08
892	0.081
892	0.081
893	0.081
893	0.081
893	0.081
894	0.082
894	0.082
895	0.082
895	0.082
895	0.082
896	0.082
896	0.083
897	0.083
897	0.083
898	0.083
898	0.083
898	0.083
899	0.084
899	0.084
900	0.084
900	0.084
901	0.084
901	0.083
901	0.083
902	0.083
902	0.084
903	0.083
903	0.083
904	0.083
904	0.083
904	0.084
905	0.084
905	0.085
906	0.085
906	0.086
907	0.086
907	0.086
907	0.086
908	0.086
908	0.086
909	0.086
909	0.086
910	0.085
910	0.085
910	0.085
911	0.085
911	0.085
912	0.086
912	0.087
913	0.088
913	0.089
913	0.09
914	0.091
914	0.092
915	0.093
915	0.093
916	0.094
916	0.094
916	0.095
917	0.095
917	0.095
918	0.095
918	0.096
918	0.096
919	0.096
919	0.096
920	0.097
920	0.097
921	0.098
921	0.098
921	0.098
922	0.098
922	0.098
923	0.097
923	0.096
924	0.095
924	0.094
924	0.093
925	0.092
925	0.09
926	0.088
926	0.087
927	0.086
927	0.084
927	0.083
928	0.083
928	0.082
929	0.082
929	0.082
930	0.082
930	0.082
930	0.083
931	0.083
931	0.084
932	0.085
932	0.086
933	0.087
933	0.088
933	0.088
934	0.088
934	0.088
935	0.088
935	0.087
935	0.086
936	0.085
936	0.084
937	0.082
937	0.081
938	0.08
938	0.078
938	0.077
939	0.076
939	0.075
940	0.074
940	0.074
941	0.073
941	0.072
941	0.073
942	0.073
942	0.073
943	0.073
943	0.073
944	0.072
944	0.071
944	0.071
945	0.07
945	0.07
946	0.07
946	0.069
946	0.069
947	0.069
947	0.069
948	0.07
948	0.07
949	0.071
949	0.072
949	0.073
950	0.074
950	0.075
951	0.076
951	0.077
952	0.078
952	0.079
952	0.079
953	0.079
953	0.079
954	0.079
954	0.079
955	0.079
955	0.079
955	0.078
956	0.077
956	0.076
957	0.075
957	0.074
957	0.073
958	0.073
958	0.072
959	0.071
959	0.071
960	0.07
960	0.07
960	0.069
961	0.069
961	0.069
962	0.069
962	0.069
963	0.069
963	0.069
963	0.07
964	0.07
964	0.071
965	0.072
965	0.073
966	0.074
966	0.074
966	0.074
967	0.075
967	0.075
968	0.074
968	0.074
968	0.074
969	0.074
969	0.075
970	0.075
970	0.075
971	0.075
971	0.076
971	0.077
972	0.078
972	0.079
973	0.08
973	0.08
974	0.08
974	0.081
974	0.081
975	0.081
975	0.081
976	0.08
976	0.08
976	0.08
977	0.079
977	0.078
978	0.077
978	0.076
979	0.075
979	0.074
979	0.074
980	0.073
980	0.072
981	0.071
981	0.071
982	0.071
982	0.071
982	0.07
983	0.07
983	0.07
984	0.07
984	0.07
984	0.069
985	0.069
985	0.068
986	0.067
986	0.066
987	0.065
987	0.064
987	0.063
988	0.061
988	0.06
989	0.059
989	0.059
990	0.058
990	0.057
990	0.057
991	0.057
991	0.057
992	0.057
992	0.057
992	0.057
993	0.057
993	0.057
994	0.056
994	0.055
995	0.055
995	0.054
995	0.053
996	0.052
996	0.051
997	0.05
997	0.049
997	0.049
998	0.049
998	0.049
999	0.049
999	0.049
1000	0.05
1000	0.05
1000	0.051
1001	0.052
1001	0.052
1002	0.053
1002	0.053
1003	0.053
1003	0.053
1003	0.053
1004	0.053
1004	0.052
1005	0.051
1005	0.05
1005	0.049
1006	0.048
1006	0.047
1007	0.046
1007	0.045
1008	0.045
1008	0.044
1008	0.043
1009	0.043
1009	0.043
1010	0.043
1010	0.044
1010	0.044
1011	0.045
1011	0.045
1012	0.046
1012	0.047
1013	0.048
1013	0.048
1013	0.049
1014	0.049
1014	0.05
1015	0.05
1015	0.051
1016	0.051
1016	0.051
1016	0.051
1017	0.051
1017	0.051
1018	0.051
1018	0.05
1018	0.05
1019	0.05
1019	0.049
1020	0.049
1020	0.047
1021	0.047
1021	0.046
1021	0.045
1022	0.044
1022	0.044
1023	0.044
1023	0.043
1023	0.043
1024	0.042
1024	0.042
1025	0.042
1025	0.042
1026	0.042
1026	0.042
1026	0.042
1027	0.042
1027	0.042
1028	0.043
1028	0.043
1028	0.043
1029	0.043
1029	0.044
1030	0.043
1030	0.043
1031	0.043
1031	0.043
1031	0.043
1032	0.043
1032	0.043
1033	0.042
1033	0.042
1033	0.043
1034	0.042
1034	0.042
1035	0.043
1035	0.042
1036	0.042
1036	0.042
1036	0.042
1037	0.043
1037	0.044
1038	0.044
1038	0.045
1039	0.046
1039	0.047
1039	0.048
1040	0.048
1040	0.049
1041	0.05
1041	0.049
1041	0.049
1042	0.048
1042	0.048
1043	0.047
1043	0.045
1044	0.044
1044	0.043
1044	0.042
1045	0.04
1045	0.039
1046	0.038
1046	0.037
1046	0.037
1047	0.036
1047	0.036
1048	0.037
1048	0.037
1049	0.037
1049	0.036
1049	0.036
1050	0.036
1050	0.035
1051	0.034
1051	0.034
1051	0.034
1052	0.033
1052	0.033
1053	0.032
1053	0.031
1053	0.031
1054	0.03
1054	0.03
1055	0.031
1055	0.031
1056	0.031
1056	0.031
1056	0.03
1057	0.03
1057	0.03
1058	0.029
1058	0.029
1058	0.029
1059	0.029
1059	0.028
1060	0.027
1060	0.027
1061	0.027
1061	0.027
1061	0.027
1062	0.027
1062	0.027
1063	0.027
1063	0.026
1063	0.026
1064	0.026
1064	0.026
1065	0.027
1065	0.026
1066	0.026
1066	0.026
1066	0.026
1067	0.026
1067	0.026
1068	0.025
1068	0.025
1068	0.025
1069	0.025
1069	0.024
1070	0.024
1070	0.024
1071	0.023
1071	0.023
1071	0.022
1072	0.022
1072	0.022
1073	0.022
1073	0.022
1073	0.022
1074	0.022
1074	0.021
1075	0.02
1075	0.02
1076	0.018
1076	0.018
1076	0.017
1077	0.016
1077	0.014
1078	0.013
1078	0.011
1078	0.01
1079	0.009
1079	0.008
1080	0.006
1080	0.006
1080	0.004
1081	0.002
1081	0.002
1082	0.001
1082	-0.001
1083	-0.002
1083	-0.003
1083	-0.004
1084	-0.005
1084	-0.005
1085	-0.006
1085	-0.007
1085	-0.007
1086	-0.008
1086	-0.009
1087	-0.009
1087	-0.009
1088	-0.01
1088	-0.011
1088	-0.012
1089	-0.013
1089	-0.014
1090	-0.015
1090	-0.015
1090	-0.017
1091	-0.018
1091	-0.018
1092	-0.02
1092	-0.02
1092	-0.021
1093	-0.022
1093	-0.022
1094	-0.023
1094	-0.024
1095	-0.025
1095	-0.026
1095	-0.026
1096	-0.028
1096	-0.03
1097	-0.031
1097	-0.033
1097	-0.034
1098	-0.036
1098	-0.039
1099	-0.04
1099	-0.042
1100	-0.045
1100	-0.048
1100	-0.052
1101	-0.055
1101	-0.058
1102	-0.06
1102	-0.063
1102	-0.065
1103	-0.068
1103	-0.072
1104	-0.075
1104	-0.078
1104	-0.08
1105	-0.081
1105	-0.085
1106	-0.09
1106	-0.093
1107	-0.1
1107	-0.105
1107	-0.111
1108	-0.114
1108	-0.115
1109	-0.119
1109	-0.123
1109	-0.13
1110	-0.133
1110	-0.137
1111	-0.148
1111	-0.144
