Data from 40_to5_30sec_70mins_Absorbance__19__00019.txt Node

Date: Mon Jun 26 17:29:45 CEST 2023
User: Marek
Spectrometer: MAYP115816
Trigger mode: 0
Integration Time (sec): 2.500000E-1
Scans to average: 10
Electric dark correction enabled: true
Nonlinearity correction enabled: true
Boxcar width: 5
XAxis mode: Wavelengths
Number of Pixels in Spectrum: 2068
>>>>>Begin Spectral Data<<<<<
199	-0.653
199	-0.615
200	-0.579
200	-0.516
201	-0.481
201	-0.464
202	-0.433
202	-0.421
203	-0.415
203	-0.409
204	-0.401
204	-0.385
205	-0.373
205	-0.359
205	-0.362
206	-0.356
206	-0.357
207	-0.359
207	-0.362
208	-0.365
208	-0.368
209	-0.362
209	-0.364
210	-0.366
210	-0.373
211	-0.375
211	-0.389
212	-0.393
212	-0.391
213	-0.395
213	-0.389
213	-0.399
214	-0.401
214	-0.403
215	-0.404
215	-0.411
216	-0.411
216	-0.409
217	-0.408
217	-0.416
218	-0.421
218	-0.427
219	-0.417
219	-0.421
220	-0.429
220	-0.438
221	-0.441
221	-0.448
221	-0.451
222	-0.455
222	-0.458
223	-0.456
223	-0.46
224	-0.466
224	-0.469
225	-0.463
225	-0.459
226	-0.452
226	-0.45
227	-0.445
227	-0.449
228	-0.446
228	-0.45
229	-0.451
229	-0.45
229	-0.445
230	-0.443
230	-0.445
231	-0.447
231	-0.442
232	-0.452
232	-0.454
233	-0.452
233	-0.444
234	-0.447
234	-0.449
235	-0.448
235	-0.453
236	-0.456
236	-0.455
236	-0.455
237	-0.446
237	-0.446
238	-0.446
238	-0.447
239	-0.442
239	-0.439
240	-0.441
240	-0.446
241	-0.442
241	-0.445
242	-0.448
242	-0.454
243	-0.445
243	-0.451
243	-0.453
244	-0.457
244	-0.461
245	-0.469
245	-0.47
246	-0.484
246	-0.483
247	-0.492
247	-0.492
248	-0.496
248	-0.497
249	-0.5
249	-0.504
250	-0.498
250	-0.5
250	-0.493
251	-0.485
251	-0.491
252	-0.487
252	-0.486
253	-0.49
253	-0.493
254	-0.494
254	-0.487
255	-0.494
255	-0.486
256	-0.491
256	-0.494
257	-0.492
257	-0.496
258	-0.5
258	-0.502
258	-0.498
259	-0.506
259	-0.519
260	-0.522
260	-0.531
261	-0.539
261	-0.534
262	-0.531
262	-0.524
263	-0.513
263	-0.513
264	-0.521
264	-0.512
265	-0.51
265	-0.511
265	-0.501
266	-0.497
266	-0.497
267	-0.496
267	-0.504
268	-0.514
268	-0.518
269	-0.516
269	-0.521
270	-0.52
270	-0.537
271	-0.547
271	-0.548
272	-0.554
272	-0.562
272	-0.56
273	-0.571
273	-0.573
274	-0.573
274	-0.574
275	-0.579
275	-0.56
276	-0.561
276	-0.572
277	-0.573
277	-0.567
278	-0.575
278	-0.57
278	-0.565
279	-0.566
279	-0.574
280	-0.573
280	-0.583
281	-0.578
281	-0.577
282	-0.578
282	-0.588
283	-0.582
283	-0.577
284	-0.577
284	-0.581
285	-0.573
285	-0.583
285	-0.574
286	-0.575
286	-0.563
287	-0.562
287	-0.555
288	-0.547
288	-0.55
289	-0.55
289	-0.553
290	-0.549
290	-0.534
291	-0.531
291	-0.523
292	-0.529
292	-0.528
292	-0.537
293	-0.543
293	-0.536
294	-0.538
294	-0.533
295	-0.527
295	-0.536
296	-0.549
296	-0.549
297	-0.546
297	-0.541
298	-0.531
298	-0.532
298	-0.531
299	-0.515
299	-0.505
300	-0.508
300	-0.492
301	-0.489
301	-0.493
302	-0.492
302	-0.486
303	-0.475
303	-0.466
304	-0.459
304	-0.458
305	-0.455
305	-0.461
305	-0.466
306	-0.446
306	-0.443
307	-0.439
307	-0.439
308	-0.439
308	-0.435
309	-0.442
309	-0.438
310	-0.439
310	-0.431
311	-0.425
311	-0.423
311	-0.423
312	-0.414
312	-0.414
313	-0.409
313	-0.408
314	-0.404
314	-0.404
315	-0.401
315	-0.393
316	-0.386
316	-0.386
317	-0.375
317	-0.372
318	-0.361
318	-0.358
318	-0.351
319	-0.341
319	-0.337
320	-0.332
320	-0.332
321	-0.325
321	-0.324
322	-0.321
322	-0.319
323	-0.318
323	-0.314
324	-0.308
324	-0.302
324	-0.295
325	-0.282
325	-0.265
326	-0.256
326	-0.232
327	-0.215
327	-0.194
328	-0.166
328	-0.142
329	-0.114
329	-0.087
330	-0.059
330	-0.026
330	0.002
331	0.033
331	0.062
332	0.091
332	0.12
333	0.145
333	0.174
334	0.198
334	0.219
335	0.24
335	0.26
336	0.277
336	0.294
336	0.306
337	0.321
337	0.334
338	0.345
338	0.352
339	0.362
339	0.37
340	0.376
340	0.381
341	0.386
341	0.39
342	0.394
342	0.398
342	0.401
343	0.403
343	0.407
344	0.408
344	0.409
345	0.41
345	0.411
346	0.412
346	0.412
347	0.413
347	0.412
348	0.412
348	0.413
348	0.412
349	0.412
349	0.412
350	0.412
350	0.412
351	0.412
351	0.412
352	0.411
352	0.411
353	0.41
353	0.409
354	0.409
354	0.408
354	0.407
355	0.406
355	0.405
356	0.405
356	0.404
357	0.403
357	0.402
358	0.401
358	0.4
359	0.4
359	0.399
360	0.399
360	0.399
360	0.398
361	0.397
361	0.397
362	0.397
362	0.396
363	0.396
363	0.395
364	0.395
364	0.394
365	0.393
365	0.393
366	0.392
366	0.392
366	0.391
367	0.391
367	0.39
368	0.39
368	0.389
369	0.389
369	0.388
370	0.388
370	0.387
371	0.387
371	0.386
372	0.386
372	0.385
372	0.384
373	0.384
373	0.383
374	0.383
374	0.382
375	0.381
375	0.381
376	0.38
376	0.379
377	0.379
377	0.379
378	0.378
378	0.378
378	0.378
379	0.377
379	0.377
380	0.377
380	0.376
381	0.376
381	0.376
382	0.375
382	0.374
383	0.374
383	0.373
383	0.372
384	0.372
384	0.371
385	0.37
385	0.37
386	0.369
386	0.369
387	0.368
387	0.368
388	0.368
388	0.367
389	0.367
389	0.367
389	0.366
390	0.366
390	0.366
391	0.366
391	0.365
392	0.365
392	0.365
393	0.364
393	0.364
394	0.363
394	0.363
394	0.363
395	0.362
395	0.362
396	0.361
396	0.361
397	0.36
397	0.36
398	0.359
398	0.359
399	0.358
399	0.358
400	0.357
400	0.357
400	0.356
401	0.356
401	0.355
402	0.355
402	0.355
403	0.354
403	0.354
404	0.354
404	0.353
405	0.353
405	0.353
405	0.352
406	0.352
406	0.352
407	0.351
407	0.351
408	0.351
408	0.35
409	0.35
409	0.35
410	0.35
410	0.349
411	0.349
411	0.349
411	0.349
412	0.348
412	0.348
413	0.347
413	0.347
414	0.347
414	0.346
415	0.346
415	0.345
416	0.345
416	0.344
416	0.344
417	0.344
417	0.344
418	0.344
418	0.344
419	0.343
419	0.343
420	0.343
420	0.343
421	0.343
421	0.343
421	0.343
422	0.343
422	0.343
423	0.343
423	0.343
424	0.343
424	0.342
425	0.342
425	0.342
426	0.342
426	0.342
427	0.342
427	0.342
427	0.342
428	0.342
428	0.342
429	0.342
429	0.342
430	0.342
430	0.342
431	0.342
431	0.342
432	0.342
432	0.341
432	0.341
433	0.34
433	0.34
434	0.34
434	0.339
435	0.339
435	0.339
436	0.339
436	0.339
437	0.339
437	0.34
437	0.34
438	0.34
438	0.34
439	0.34
439	0.34
440	0.34
440	0.339
441	0.339
441	0.339
442	0.339
442	0.339
442	0.339
443	0.339
443	0.339
444	0.339
444	0.339
445	0.339
445	0.34
446	0.34
446	0.34
447	0.341
447	0.341
447	0.341
448	0.341
448	0.342
449	0.342
449	0.343
450	0.343
450	0.343
451	0.343
451	0.343
452	0.344
452	0.344
452	0.344
453	0.345
453	0.345
454	0.345
454	0.346
455	0.346
455	0.346
456	0.347
456	0.347
457	0.348
457	0.348
458	0.348
458	0.348
458	0.349
459	0.349
459	0.349
460	0.349
460	0.35
461	0.351
461	0.351
462	0.352
462	0.352
463	0.353
463	0.354
463	0.355
464	0.355
464	0.356
465	0.357
465	0.358
466	0.359
466	0.359
467	0.36
467	0.361
467	0.362
468	0.363
468	0.363
469	0.364
469	0.365
470	0.366
470	0.367
471	0.368
471	0.369
472	0.37
472	0.371
472	0.372
473	0.373
473	0.374
474	0.376
474	0.377
475	0.378
475	0.379
476	0.381
476	0.382
477	0.383
477	0.385
477	0.386
478	0.388
478	0.389
479	0.391
479	0.392
480	0.394
480	0.396
481	0.398
481	0.4
482	0.402
482	0.404
482	0.405
483	0.408
483	0.41
484	0.412
484	0.413
485	0.416
485	0.418
486	0.42
486	0.422
487	0.424
487	0.427
487	0.429
488	0.431
488	0.434
489	0.437
489	0.441
490	0.443
490	0.446
491	0.45
491	0.452
492	0.455
492	0.458
492	0.461
493	0.464
493	0.468
494	0.471
494	0.475
495	0.478
495	0.481
496	0.484
496	0.488
496	0.491
497	0.495
497	0.499
498	0.502
498	0.505
499	0.509
499	0.513
500	0.518
500	0.522
501	0.526
501	0.529
501	0.533
502	0.536
502	0.54
503	0.545
503	0.548
504	0.552
504	0.556
505	0.56
505	0.563
506	0.568
506	0.572
506	0.576
507	0.58
507	0.584
508	0.588
508	0.592
509	0.597
509	0.601
510	0.605
510	0.61
511	0.613
511	0.617
511	0.621
512	0.626
512	0.629
513	0.632
513	0.636
514	0.64
514	0.644
515	0.647
515	0.65
515	0.654
516	0.658
516	0.661
517	0.665
517	0.668
518	0.671
518	0.673
519	0.675
519	0.677
520	0.679
520	0.681
520	0.683
521	0.684
521	0.686
522	0.686
522	0.688
523	0.689
523	0.691
524	0.692
524	0.693
524	0.694
525	0.695
525	0.695
526	0.695
526	0.695
527	0.695
527	0.695
528	0.695
528	0.694
529	0.693
529	0.692
529	0.691
530	0.69
530	0.689
531	0.687
531	0.686
532	0.685
532	0.683
533	0.681
533	0.679
533	0.676
534	0.674
534	0.671
535	0.669
535	0.666
536	0.663
536	0.659
537	0.655
537	0.652
538	0.648
538	0.644
538	0.64
539	0.636
539	0.632
540	0.627
540	0.623
541	0.618
541	0.614
542	0.609
542	0.604
542	0.599
543	0.594
543	0.589
544	0.584
544	0.579
545	0.574
545	0.569
546	0.563
546	0.557
547	0.552
547	0.546
547	0.541
548	0.536
548	0.531
549	0.525
549	0.52
550	0.514
550	0.508
551	0.502
551	0.497
551	0.491
552	0.486
552	0.48
553	0.475
553	0.469
554	0.463
554	0.457
555	0.452
555	0.446
556	0.441
556	0.435
556	0.429
557	0.423
557	0.418
558	0.412
558	0.406
559	0.4
559	0.394
560	0.389
560	0.384
560	0.379
561	0.375
561	0.37
562	0.365
562	0.359
563	0.354
563	0.348
564	0.343
564	0.337
564	0.332
565	0.326
565	0.321
566	0.315
566	0.309
567	0.304
567	0.299
568	0.295
568	0.29
568	0.285
569	0.281
569	0.276
570	0.272
570	0.267
571	0.264
571	0.259
572	0.255
572	0.251
573	0.246
573	0.242
573	0.239
574	0.235
574	0.232
575	0.228
575	0.225
576	0.222
576	0.218
577	0.215
577	0.212
577	0.209
578	0.206
578	0.203
579	0.2
579	0.196
580	0.191
580	0.187
581	0.183
581	0.18
581	0.177
582	0.174
582	0.172
583	0.169
583	0.166
584	0.162
584	0.159
585	0.157
585	0.155
585	0.152
586	0.149
586	0.147
587	0.145
587	0.142
588	0.14
588	0.138
589	0.137
589	0.136
590	0.134
590	0.133
590	0.132
591	0.13
591	0.127
592	0.125
592	0.122
593	0.121
593	0.118
594	0.116
594	0.113
594	0.111
595	0.109
595	0.107
596	0.105
596	0.105
597	0.104
597	0.102
598	0.1
598	0.099
598	0.098
599	0.096
599	0.094
600	0.092
600	0.09
601	0.088
601	0.086
602	0.084
602	0.082
602	0.081
603	0.08
603	0.079
604	0.079
604	0.079
605	0.079
605	0.079
606	0.078
606	0.076
606	0.075
607	0.074
607	0.072
608	0.07
608	0.068
609	0.067
609	0.066
610	0.064
610	0.063
610	0.062
611	0.062
611	0.063
612	0.063
612	0.063
613	0.063
613	0.063
614	0.061
614	0.06
614	0.059
615	0.058
615	0.057
616	0.056
616	0.054
617	0.053
617	0.052
618	0.051
618	0.05
618	0.05
619	0.05
619	0.051
620	0.051
620	0.05
621	0.05
621	0.049
622	0.048
622	0.047
622	0.046
623	0.045
623	0.045
624	0.044
624	0.042
625	0.041
625	0.041
626	0.04
626	0.039
626	0.039
627	0.039
627	0.038
628	0.038
628	0.038
629	0.037
629	0.037
630	0.036
630	0.035
630	0.035
631	0.035
631	0.034
632	0.032
632	0.031
633	0.031
633	0.03
634	0.03
634	0.029
634	0.028
635	0.027
635	0.026
636	0.025
636	0.024
637	0.024
637	0.023
638	0.021
638	0.02
638	0.019
639	0.017
639	0.015
640	0.014
640	0.012
641	0.011
641	0.009
642	0.007
642	0.005
642	0.003
643	0.001
643	-0.001
644	-0.003
644	-0.005
645	-0.006
645	-0.008
646	-0.01
646	-0.012
646	-0.013
647	-0.014
647	-0.016
648	-0.017
648	-0.02
649	-0.022
649	-0.024
650	-0.026
650	-0.029
650	-0.032
651	-0.035
651	-0.039
652	-0.044
652	-0.048
653	-0.052
653	-0.055
653	-0.055
654	-0.055
654	-0.061
655	-0.065
655	-0.067
656	-0.07
656	-0.073
657	-0.076
657	-0.078
657	-0.08
658	-0.084
658	-0.097
659	-0.124
659	-0.144
660	-0.157
660	-0.17
661	-0.18
661	-0.195
661	-0.21
662	-0.221
662	-0.237
663	-0.25
663	-0.268
664	-0.279
664	-0.3
665	-0.318
665	-0.333
665	-0.356
666	-0.375
666	-0.397
667	-0.424
667	-0.45
668	-0.48
668	-0.517
669	-0.559
669	-0.598
669	-0.635
670	-0.611
670	-0.54
671	-0.75
671	-1.333
672	-1.875
672	-2.19
672	-2.373
673	-2.459
673	-2.488
674	-2.5
674	-2.506
675	-2.558
675	-2.695
676	-2.838
676	-2.76
676	-2.513
677	-2.256
677	-1.902
678	-1.377
678	-0.993
679	-0.862
679	-0.798
680	-0.745
680	-0.708
680	-0.677
681	-0.66
681	-0.645
682	-0.629
682	-0.608
683	-0.584
683	-0.585
684	-0.585
684	-0.584
684	-0.584
685	-0.59
685	-0.584
686	-0.576
686	-0.562
687	-0.568
687	-0.573
687	-0.57
688	-0.557
688	-0.557
689	-0.551
689	-0.56
690	-0.55
690	-0.561
691	-0.568
691	-0.579
691	-0.577
692	-0.575
692	-0.58
693	-0.588
693	-0.601
694	-0.599
694	-0.59
695	-0.599
695	-0.592
695	-0.591
696	-0.586
696	-0.588
697	-0.593
697	-0.592
698	-0.591
698	-0.57
698	-0.577
699	-0.568
699	-0.566
700	-0.563
700	-0.569
701	-0.574
701	-0.58
702	-0.578
702	-0.581
702	-0.589
703	-0.593
703	-0.597
704	-0.603
704	-0.603
705	-0.601
705	-0.599
705	-0.601
706	-0.594
706	-0.588
707	-0.592
707	-0.582
708	-0.586
708	-0.583
709	-0.591
709	-0.588
709	-0.584
710	-0.583
710	-0.584
711	-0.578
711	-0.586
712	-0.579
712	-0.584
713	-0.583
713	-0.588
713	-0.589
714	-0.584
714	-0.582
715	-0.587
715	-0.588
716	-0.607
716	-0.607
716	-0.61
717	-0.602
717	-0.605
718	-0.595
718	-0.585
719	-0.604
719	-0.61
720	-0.601
720	-0.609
720	-0.593
721	-0.591
721	-0.595
722	-0.594
722	-0.585
723	-0.58
723	-0.587
723	-0.58
724	-0.58
724	-0.58
725	-0.568
725	-0.57
726	-0.569
726	-0.566
727	-0.573
727	-0.572
727	-0.582
728	-0.577
728	-0.569
729	-0.575
729	-0.581
730	-0.589
730	-0.593
730	-0.597
731	-0.6
731	-0.601
732	-0.612
732	-0.608
733	-0.613
733	-0.616
734	-0.607
734	-0.607
734	-0.598
735	-0.606
735	-0.607
736	-0.606
736	-0.608
737	-0.605
737	-0.614
737	-0.619
738	-0.625
738	-0.621
739	-0.615
739	-0.632
740	-0.625
740	-0.622
741	-0.626
741	-0.628
741	-0.624
742	-0.621
742	-0.611
743	-0.603
743	-0.601
744	-0.596
744	-0.576
744	-0.573
745	-0.577
745	-0.569
746	-0.561
746	-0.567
747	-0.564
747	-0.562
748	-0.565
748	-0.576
748	-0.587
749	-0.597
749	-0.606
750	-0.594
750	-0.599
751	-0.599
751	-0.604
751	-0.604
752	-0.608
752	-0.612
753	-0.605
753	-0.604
754	-0.609
754	-0.599
754	-0.601
755	-0.592
755	-0.586
756	-0.577
756	-0.579
757	-0.574
757	-0.566
758	-0.573
758	-0.568
758	-0.567
759	-0.57
759	-0.573
760	-0.591
760	-0.599
761	-0.603
761	-0.594
761	-0.605
762	-0.606
762	-0.605
763	-0.606
763	-0.607
764	-0.604
764	-0.616
764	-0.603
765	-0.611
765	-0.602
766	-0.618
766	-0.628
767	-0.634
767	-0.626
768	-0.631
768	-0.632
768	-0.628
769	-0.623
769	-0.622
770	-0.631
770	-0.636
771	-0.63
771	-0.622
771	-0.63
772	-0.641
772	-0.649
773	-0.642
773	-0.653
774	-0.652
774	-0.659
775	-0.64
775	-0.645
775	-0.647
776	-0.639
776	-0.632
777	-0.632
777	-0.638
778	-0.637
778	-0.63
778	-0.635
779	-0.629
779	-0.639
780	-0.659
780	-0.674
781	-0.68
781	-0.686
781	-0.703
782	-0.696
782	-0.704
783	-0.702
783	-0.707
784	-0.719
784	-0.711
784	-0.694
785	-0.673
785	-0.671
786	-0.666
786	-0.657
787	-0.649
787	-0.65
788	-0.652
788	-0.643
788	-0.645
789	-0.65
789	-0.659
790	-0.66
790	-0.661
791	-0.657
791	-0.65
791	-0.656
792	-0.649
792	-0.651
793	-0.649
793	-0.647
794	-0.645
794	-0.625
794	-0.642
795	-0.634
795	-0.637
796	-0.638
796	-0.636
797	-0.635
797	-0.649
797	-0.643
798	-0.635
798	-0.636
799	-0.638
799	-0.621
800	-0.621
800	-0.625
801	-0.626
801	-0.62
801	-0.618
802	-0.611
802	-0.613
803	-0.612
803	-0.607
804	-0.608
804	-0.614
804	-0.618
805	-0.605
805	-0.592
806	-0.594
806	-0.589
807	-0.59
807	-0.586
807	-0.578
808	-0.569
808	-0.566
809	-0.555
809	-0.549
810	-0.564
810	-0.559
810	-0.559
811	-0.561
811	-0.555
812	-0.555
812	-0.562
813	-0.569
813	-0.575
813	-0.583
814	-0.586
814	-0.571
815	-0.577
815	-0.577
816	-0.568
816	-0.566
817	-0.566
817	-0.576
817	-0.578
818	-0.566
818	-0.569
819	-0.576
819	-0.583
820	-0.588
820	-0.591
820	-0.599
821	-0.604
821	-0.613
822	-0.604
822	-0.608
823	-0.614
823	-0.612
823	-0.607
824	-0.604
824	-0.607
825	-0.601
825	-0.596
826	-0.587
826	-0.579
826	-0.584
827	-0.577
827	-0.567
828	-0.556
828	-0.552
829	-0.548
829	-0.534
829	-0.54
830	-0.53
830	-0.525
831	-0.524
831	-0.517
832	-0.511
832	-0.509
832	-0.509
833	-0.507
833	-0.51
834	-0.507
834	-0.495
835	-0.502
835	-0.496
835	-0.487
836	-0.478
836	-0.473
837	-0.467
837	-0.461
838	-0.461
838	-0.449
839	-0.442
839	-0.436
839	-0.429
840	-0.429
840	-0.426
841	-0.424
841	-0.414
842	-0.41
842	-0.401
842	-0.389
843	-0.383
843	-0.38
844	-0.374
844	-0.363
845	-0.355
845	-0.347
845	-0.335
846	-0.332
846	-0.323
847	-0.315
847	-0.308
848	-0.298
848	-0.287
848	-0.278
849	-0.271
849	-0.261
850	-0.254
850	-0.248
851	-0.24
851	-0.229
851	-0.224
852	-0.214
852	-0.206
853	-0.201
853	-0.197
854	-0.189
854	-0.182
854	-0.175
855	-0.169
855	-0.164
856	-0.161
856	-0.153
857	-0.149
857	-0.144
857	-0.136
858	-0.13
858	-0.127
859	-0.123
859	-0.118
860	-0.113
860	-0.106
860	-0.1
861	-0.096
861	-0.092
862	-0.087
862	-0.083
863	-0.079
863	-0.074
863	-0.071
864	-0.068
864	-0.063
865	-0.061
865	-0.058
866	-0.055
866	-0.053
866	-0.05
867	-0.048
867	-0.045
868	-0.042
868	-0.039
869	-0.036
869	-0.033
869	-0.031
870	-0.029
870	-0.028
871	-0.026
871	-0.025
872	-0.025
872	-0.025
872	-0.025
873	-0.027
873	-0.029
874	-0.032
874	-0.034
875	-0.037
875	-0.039
875	-0.041
876	-0.043
876	-0.046
877	-0.048
877	-0.051
878	-0.053
878	-0.055
878	-0.056
879	-0.056
879	-0.057
880	-0.057
880	-0.056
881	-0.056
881	-0.055
881	-0.054
882	-0.054
882	-0.055
883	-0.055
883	-0.056
884	-0.056
884	-0.057
884	-0.057
885	-0.057
885	-0.058
886	-0.058
886	-0.059
887	-0.059
887	-0.059
887	-0.059
888	-0.059
888	-0.059
889	-0.058
889	-0.058
890	-0.057
890	-0.057
890	-0.057
891	-0.056
891	-0.056
892	-0.056
892	-0.056
893	-0.056
893	-0.056
893	-0.056
894	-0.057
894	-0.057
895	-0.058
895	-0.058
895	-0.059
896	-0.059
896	-0.059
897	-0.06
897	-0.059
898	-0.059
898	-0.058
898	-0.057
899	-0.056
899	-0.054
900	-0.053
900	-0.052
901	-0.051
901	-0.05
901	-0.049
902	-0.048
902	-0.046
903	-0.045
903	-0.044
904	-0.042
904	-0.041
904	-0.04
905	-0.039
905	-0.038
906	-0.038
906	-0.037
907	-0.036
907	-0.036
907	-0.036
908	-0.036
908	-0.036
909	-0.035
909	-0.035
910	-0.035
910	-0.034
910	-0.033
911	-0.033
911	-0.032
912	-0.032
912	-0.031
913	-0.031
913	-0.032
913	-0.032
914	-0.033
914	-0.034
915	-0.035
915	-0.036
916	-0.037
916	-0.037
916	-0.038
917	-0.038
917	-0.039
918	-0.039
918	-0.038
918	-0.038
919	-0.037
919	-0.037
920	-0.036
920	-0.036
921	-0.036
921	-0.036
921	-0.036
922	-0.036
922	-0.036
923	-0.036
923	-0.037
924	-0.038
924	-0.038
924	-0.039
925	-0.04
925	-0.04
926	-0.041
926	-0.041
927	-0.042
927	-0.042
927	-0.042
928	-0.042
928	-0.042
929	-0.041
929	-0.041
930	-0.041
930	-0.041
930	-0.04
931	-0.04
931	-0.04
932	-0.039
932	-0.039
933	-0.04
933	-0.04
933	-0.041
934	-0.042
934	-0.043
935	-0.044
935	-0.045
935	-0.046
936	-0.047
936	-0.048
937	-0.049
937	-0.05
938	-0.05
938	-0.05
938	-0.05
939	-0.05
939	-0.049
940	-0.049
940	-0.048
941	-0.048
941	-0.048
941	-0.047
942	-0.046
942	-0.046
943	-0.046
943	-0.045
944	-0.045
944	-0.044
944	-0.043
945	-0.043
945	-0.042
946	-0.041
946	-0.04
946	-0.039
947	-0.039
947	-0.039
948	-0.039
948	-0.039
949	-0.039
949	-0.039
949	-0.039
950	-0.04
950	-0.04
951	-0.04
951	-0.04
952	-0.039
952	-0.038
952	-0.037
953	-0.036
953	-0.034
954	-0.033
954	-0.031
955	-0.028
955	-0.026
955	-0.025
956	-0.022
956	-0.02
957	-0.018
957	-0.016
957	-0.015
958	-0.013
958	-0.012
959	-0.011
959	-0.01
960	-0.01
960	-0.009
960	-0.009
961	-0.01
961	-0.01
962	-0.011
962	-0.011
963	-0.012
963	-0.012
963	-0.013
964	-0.013
964	-0.013
965	-0.013
965	-0.014
966	-0.014
966	-0.013
966	-0.013
967	-0.014
967	-0.014
968	-0.015
968	-0.016
968	-0.016
969	-0.017
969	-0.017
970	-0.018
970	-0.018
971	-0.019
971	-0.019
971	-0.019
972	-0.019
972	-0.019
973	-0.019
973	-0.019
974	-0.019
974	-0.019
974	-0.019
975	-0.02
975	-0.02
976	-0.021
976	-0.021
976	-0.022
977	-0.023
977	-0.023
978	-0.024
978	-0.025
979	-0.026
979	-0.026
979	-0.027
980	-0.027
980	-0.027
981	-0.028
981	-0.029
982	-0.029
982	-0.03
982	-0.031
983	-0.031
983	-0.032
984	-0.033
984	-0.034
984	-0.035
985	-0.036
985	-0.037
986	-0.037
986	-0.038
987	-0.038
987	-0.038
987	-0.038
988	-0.038
988	-0.038
989	-0.037
989	-0.037
990	-0.036
990	-0.035
990	-0.035
991	-0.035
991	-0.035
992	-0.035
992	-0.035
992	-0.036
993	-0.037
993	-0.037
994	-0.038
994	-0.039
995	-0.04
995	-0.041
995	-0.042
996	-0.042
996	-0.043
997	-0.045
997	-0.046
997	-0.047
998	-0.048
998	-0.049
999	-0.05
999	-0.051
1000	-0.052
1000	-0.053
1000	-0.054
1001	-0.055
1001	-0.055
1002	-0.056
1002	-0.056
1003	-0.057
1003	-0.058
1003	-0.058
1004	-0.059
1004	-0.06
1005	-0.061
1005	-0.063
1005	-0.064
1006	-0.065
1006	-0.066
1007	-0.067
1007	-0.068
1008	-0.069
1008	-0.07
1008	-0.07
1009	-0.071
1009	-0.071
1010	-0.071
1010	-0.071
1010	-0.071
1011	-0.071
1011	-0.071
1012	-0.071
1012	-0.071
1013	-0.071
1013	-0.071
1013	-0.071
1014	-0.071
1014	-0.071
1015	-0.072
1015	-0.072
1016	-0.072
1016	-0.073
1016	-0.073
1017	-0.073
1017	-0.073
1018	-0.073
1018	-0.073
1018	-0.073
1019	-0.073
1019	-0.073
1020	-0.074
1020	-0.073
1021	-0.073
1021	-0.073
1021	-0.073
1022	-0.074
1022	-0.074
1023	-0.075
1023	-0.075
1023	-0.075
1024	-0.075
1024	-0.075
1025	-0.075
1025	-0.075
1026	-0.075
1026	-0.074
1026	-0.073
1027	-0.073
1027	-0.072
1028	-0.07
1028	-0.07
1028	-0.069
1029	-0.068
1029	-0.067
1030	-0.067
1030	-0.066
1031	-0.066
1031	-0.066
1031	-0.065
1032	-0.065
1032	-0.065
1033	-0.066
1033	-0.066
1033	-0.067
1034	-0.068
1034	-0.068
1035	-0.069
1035	-0.07
1036	-0.07
1036	-0.071
1036	-0.071
1037	-0.072
1037	-0.072
1038	-0.072
1038	-0.072
1039	-0.072
1039	-0.072
1039	-0.071
1040	-0.071
1040	-0.071
1041	-0.071
1041	-0.071
1041	-0.071
1042	-0.071
1042	-0.071
1043	-0.071
1043	-0.071
1044	-0.071
1044	-0.071
1044	-0.071
1045	-0.071
1045	-0.071
1046	-0.071
1046	-0.071
1046	-0.071
1047	-0.07
1047	-0.07
1048	-0.069
1048	-0.069
1049	-0.069
1049	-0.069
1049	-0.07
1050	-0.07
1050	-0.071
1051	-0.071
1051	-0.072
1051	-0.073
1052	-0.073
1052	-0.074
1053	-0.074
1053	-0.075
1053	-0.075
1054	-0.075
1054	-0.075
1055	-0.074
1055	-0.074
1056	-0.073
1056	-0.073
1056	-0.073
1057	-0.072
1057	-0.072
1058	-0.072
1058	-0.072
1058	-0.072
1059	-0.072
1059	-0.072
1060	-0.072
1060	-0.072
1061	-0.072
1061	-0.071
1061	-0.071
1062	-0.07
1062	-0.07
1063	-0.069
1063	-0.069
1063	-0.068
1064	-0.067
1064	-0.066
1065	-0.066
1065	-0.066
1066	-0.065
1066	-0.065
1066	-0.065
1067	-0.065
1067	-0.065
1068	-0.065
1068	-0.065
1068	-0.066
1069	-0.066
1069	-0.066
1070	-0.066
1070	-0.067
1071	-0.067
1071	-0.068
1071	-0.068
1072	-0.068
1072	-0.068
1073	-0.068
1073	-0.068
1073	-0.068
1074	-0.068
1074	-0.068
1075	-0.068
1075	-0.068
1076	-0.069
1076	-0.069
1076	-0.07
1077	-0.071
1077	-0.072
1078	-0.073
1078	-0.073
1078	-0.074
1079	-0.075
1079	-0.075
1080	-0.076
1080	-0.077
1080	-0.078
1081	-0.078
1081	-0.079
1082	-0.078
1082	-0.079
1083	-0.079
1083	-0.08
1083	-0.08
1084	-0.081
1084	-0.081
1085	-0.081
1085	-0.081
1085	-0.081
1086	-0.08
1086	-0.081
1087	-0.081
1087	-0.081
1088	-0.082
1088	-0.082
1088	-0.083
1089	-0.083
1089	-0.084
1090	-0.085
1090	-0.086
1090	-0.088
1091	-0.089
1091	-0.09
1092	-0.091
1092	-0.091
1092	-0.092
1093	-0.094
1093	-0.094
1094	-0.095
1094	-0.097
1095	-0.098
1095	-0.099
1095	-0.101
1096	-0.103
1096	-0.105
1097	-0.106
1097	-0.108
1097	-0.109
1098	-0.111
1098	-0.113
1099	-0.113
1099	-0.114
1100	-0.115
1100	-0.116
1100	-0.117
1101	-0.118
1101	-0.12
1102	-0.12
1102	-0.121
1102	-0.122
1103	-0.123
1103	-0.123
1104	-0.124
1104	-0.124
1104	-0.124
1105	-0.125
1105	-0.127
1106	-0.129
1106	-0.131
1107	-0.134
1107	-0.135
1107	-0.137
1108	-0.139
1108	-0.14
1109	-0.142
1109	-0.146
1109	-0.146
1110	-0.146
1110	-0.148
1111	-0.151
1111	-0.148
