Data from 40_to5_30sec_70mins_Absorbance__85__00085.txt Node

Date: Mon Jun 26 18:02:45 CEST 2023
User: Marek
Spectrometer: MAYP115816
Trigger mode: 0
Integration Time (sec): 2.500000E-1
Scans to average: 10
Electric dark correction enabled: true
Nonlinearity correction enabled: true
Boxcar width: 5
XAxis mode: Wavelengths
Number of Pixels in Spectrum: 2068
>>>>>Begin Spectral Data<<<<<
199	-0.913
199	-0.88
200	-0.838
200	-0.77
201	-0.732
201	-0.711
202	-0.679
202	-0.664
203	-0.659
203	-0.654
204	-0.643
204	-0.623
205	-0.609
205	-0.592
205	-0.595
206	-0.589
206	-0.59
207	-0.593
207	-0.595
208	-0.598
208	-0.598
209	-0.591
209	-0.595
210	-0.594
210	-0.603
211	-0.604
211	-0.62
212	-0.624
212	-0.623
213	-0.627
213	-0.621
213	-0.633
214	-0.633
214	-0.636
215	-0.638
215	-0.647
216	-0.648
216	-0.644
217	-0.644
217	-0.65
218	-0.657
218	-0.663
219	-0.651
219	-0.658
220	-0.666
220	-0.676
221	-0.676
221	-0.683
221	-0.685
222	-0.686
222	-0.689
223	-0.687
223	-0.691
224	-0.702
224	-0.704
225	-0.699
225	-0.695
226	-0.692
226	-0.689
227	-0.688
227	-0.692
228	-0.691
228	-0.697
229	-0.7
229	-0.695
229	-0.689
230	-0.688
230	-0.687
231	-0.689
231	-0.684
232	-0.692
232	-0.695
233	-0.692
233	-0.684
234	-0.687
234	-0.689
235	-0.691
235	-0.696
236	-0.7
236	-0.699
236	-0.7
237	-0.694
237	-0.696
238	-0.695
238	-0.698
239	-0.688
239	-0.686
240	-0.687
240	-0.69
241	-0.688
241	-0.695
242	-0.694
242	-0.7
243	-0.691
243	-0.699
243	-0.699
244	-0.703
244	-0.708
245	-0.72
245	-0.721
246	-0.734
246	-0.732
247	-0.746
247	-0.747
248	-0.753
248	-0.751
249	-0.755
249	-0.762
250	-0.754
250	-0.758
250	-0.75
251	-0.741
251	-0.749
252	-0.743
252	-0.743
253	-0.744
253	-0.751
254	-0.754
254	-0.746
255	-0.754
255	-0.746
256	-0.749
256	-0.756
257	-0.754
257	-0.759
258	-0.759
258	-0.764
258	-0.76
259	-0.77
259	-0.787
260	-0.789
260	-0.799
261	-0.809
261	-0.803
262	-0.801
262	-0.796
263	-0.786
263	-0.787
264	-0.793
264	-0.784
265	-0.779
265	-0.779
265	-0.769
266	-0.766
266	-0.768
267	-0.769
267	-0.776
268	-0.787
268	-0.791
269	-0.792
269	-0.8
270	-0.799
270	-0.823
271	-0.833
271	-0.835
272	-0.842
272	-0.852
272	-0.85
273	-0.86
273	-0.865
274	-0.866
274	-0.868
275	-0.873
275	-0.852
276	-0.856
276	-0.867
277	-0.868
277	-0.86
278	-0.87
278	-0.865
278	-0.858
279	-0.859
279	-0.861
280	-0.864
280	-0.873
281	-0.867
281	-0.863
282	-0.863
282	-0.875
283	-0.871
283	-0.866
284	-0.867
284	-0.871
285	-0.863
285	-0.87
285	-0.862
286	-0.862
286	-0.849
287	-0.848
287	-0.838
288	-0.83
288	-0.837
289	-0.835
289	-0.838
290	-0.837
290	-0.822
291	-0.82
291	-0.814
292	-0.823
292	-0.823
292	-0.829
293	-0.833
293	-0.825
294	-0.826
294	-0.818
295	-0.811
295	-0.82
296	-0.833
296	-0.831
297	-0.826
297	-0.822
298	-0.813
298	-0.814
298	-0.814
299	-0.802
299	-0.794
300	-0.794
300	-0.78
301	-0.777
301	-0.782
302	-0.782
302	-0.778
303	-0.766
303	-0.758
304	-0.749
304	-0.745
305	-0.743
305	-0.751
305	-0.758
306	-0.736
306	-0.732
307	-0.727
307	-0.725
308	-0.725
308	-0.721
309	-0.728
309	-0.724
310	-0.726
310	-0.718
311	-0.709
311	-0.709
311	-0.705
312	-0.694
312	-0.694
313	-0.688
313	-0.689
314	-0.683
314	-0.683
315	-0.677
315	-0.669
316	-0.662
316	-0.663
317	-0.655
317	-0.653
318	-0.646
318	-0.64
318	-0.634
319	-0.624
319	-0.62
320	-0.618
320	-0.621
321	-0.613
321	-0.611
322	-0.607
322	-0.605
323	-0.599
323	-0.596
324	-0.59
324	-0.585
324	-0.578
325	-0.562
325	-0.544
326	-0.537
326	-0.512
327	-0.493
327	-0.47
328	-0.445
328	-0.419
329	-0.392
329	-0.364
330	-0.336
330	-0.301
330	-0.271
331	-0.238
331	-0.209
332	-0.18
332	-0.151
333	-0.125
333	-0.096
334	-0.07
334	-0.046
335	-0.023
335	-0.004
336	0.015
336	0.032
336	0.047
337	0.063
337	0.077
338	0.09
338	0.099
339	0.111
339	0.121
340	0.129
340	0.136
341	0.143
341	0.149
342	0.155
342	0.16
342	0.164
343	0.167
343	0.172
344	0.174
344	0.176
345	0.179
345	0.182
346	0.184
346	0.185
347	0.187
347	0.189
348	0.19
348	0.192
348	0.193
349	0.194
349	0.195
350	0.196
350	0.197
351	0.198
351	0.199
352	0.199
352	0.2
353	0.2
353	0.201
354	0.201
354	0.201
354	0.201
355	0.201
355	0.201
356	0.201
356	0.201
357	0.201
357	0.201
358	0.201
358	0.201
359	0.202
359	0.202
360	0.202
360	0.203
360	0.203
361	0.203
361	0.204
362	0.204
362	0.205
363	0.205
363	0.205
364	0.205
364	0.206
365	0.206
365	0.206
366	0.206
366	0.206
366	0.207
367	0.207
367	0.207
368	0.207
368	0.207
369	0.207
369	0.207
370	0.207
370	0.207
371	0.208
371	0.208
372	0.208
372	0.208
372	0.208
373	0.208
373	0.208
374	0.208
374	0.208
375	0.208
375	0.208
376	0.208
376	0.208
377	0.208
377	0.209
378	0.209
378	0.209
378	0.209
379	0.209
379	0.21
380	0.21
380	0.21
381	0.21
381	0.21
382	0.21
382	0.209
383	0.209
383	0.209
383	0.209
384	0.209
384	0.209
385	0.209
385	0.209
386	0.209
386	0.209
387	0.209
387	0.209
388	0.209
388	0.209
389	0.209
389	0.21
389	0.21
390	0.21
390	0.21
391	0.21
391	0.21
392	0.21
392	0.21
393	0.21
393	0.21
394	0.21
394	0.21
394	0.21
395	0.21
395	0.21
396	0.209
396	0.209
397	0.209
397	0.209
398	0.209
398	0.209
399	0.209
399	0.209
400	0.209
400	0.209
400	0.209
401	0.209
401	0.209
402	0.209
402	0.21
403	0.21
403	0.21
404	0.21
404	0.21
405	0.21
405	0.21
405	0.209
406	0.209
406	0.209
407	0.209
407	0.209
408	0.208
408	0.208
409	0.208
409	0.208
410	0.208
410	0.209
411	0.209
411	0.209
411	0.209
412	0.209
412	0.209
413	0.209
413	0.209
414	0.209
414	0.209
415	0.209
415	0.208
416	0.208
416	0.208
416	0.208
417	0.207
417	0.207
418	0.207
418	0.207
419	0.207
419	0.207
420	0.207
420	0.207
421	0.207
421	0.207
421	0.208
422	0.208
422	0.208
423	0.208
423	0.208
424	0.208
424	0.207
425	0.207
425	0.207
426	0.207
426	0.207
427	0.207
427	0.207
427	0.207
428	0.208
428	0.208
429	0.208
429	0.208
430	0.208
430	0.207
431	0.207
431	0.207
432	0.207
432	0.206
432	0.206
433	0.205
433	0.205
434	0.205
434	0.205
435	0.205
435	0.205
436	0.205
436	0.205
437	0.205
437	0.206
437	0.206
438	0.206
438	0.206
439	0.206
439	0.206
440	0.205
440	0.205
441	0.205
441	0.204
442	0.204
442	0.204
442	0.204
443	0.203
443	0.203
444	0.203
444	0.203
445	0.203
445	0.204
446	0.204
446	0.204
447	0.204
447	0.204
447	0.204
448	0.204
448	0.204
449	0.204
449	0.204
450	0.204
450	0.204
451	0.204
451	0.204
452	0.204
452	0.204
452	0.204
453	0.204
453	0.204
454	0.204
454	0.203
455	0.203
455	0.204
456	0.204
456	0.204
457	0.203
457	0.203
458	0.203
458	0.203
458	0.203
459	0.203
459	0.203
460	0.203
460	0.202
461	0.202
461	0.203
462	0.203
462	0.203
463	0.203
463	0.203
463	0.203
464	0.204
464	0.204
465	0.204
465	0.204
466	0.204
466	0.204
467	0.204
467	0.204
467	0.204
468	0.203
468	0.203
469	0.203
469	0.203
470	0.203
470	0.203
471	0.203
471	0.203
472	0.202
472	0.203
472	0.203
473	0.203
473	0.203
474	0.203
474	0.203
475	0.204
475	0.204
476	0.204
476	0.204
477	0.205
477	0.205
477	0.205
478	0.206
478	0.206
479	0.206
479	0.207
480	0.207
480	0.207
481	0.207
481	0.207
482	0.207
482	0.208
482	0.208
483	0.209
483	0.21
484	0.21
484	0.209
485	0.21
485	0.21
486	0.21
486	0.21
487	0.211
487	0.211
487	0.211
488	0.211
488	0.211
489	0.212
489	0.213
490	0.214
490	0.215
491	0.216
491	0.217
492	0.217
492	0.218
492	0.219
493	0.219
493	0.22
494	0.221
494	0.222
495	0.223
495	0.223
496	0.224
496	0.225
496	0.226
497	0.226
497	0.227
498	0.228
498	0.228
499	0.229
499	0.23
500	0.231
500	0.232
501	0.233
501	0.234
501	0.234
502	0.235
502	0.236
503	0.237
503	0.238
504	0.239
504	0.24
505	0.241
505	0.242
506	0.243
506	0.244
506	0.245
507	0.246
507	0.247
508	0.248
508	0.25
509	0.251
509	0.252
510	0.253
510	0.255
511	0.256
511	0.257
511	0.258
512	0.259
512	0.26
513	0.261
513	0.263
514	0.264
514	0.265
515	0.266
515	0.267
515	0.268
516	0.27
516	0.272
517	0.273
517	0.275
518	0.276
518	0.276
519	0.277
519	0.278
520	0.279
520	0.28
520	0.281
521	0.282
521	0.283
522	0.283
522	0.284
523	0.285
523	0.287
524	0.287
524	0.288
524	0.289
525	0.29
525	0.291
526	0.293
526	0.294
527	0.295
527	0.296
528	0.297
528	0.298
529	0.299
529	0.3
529	0.301
530	0.302
530	0.303
531	0.304
531	0.305
532	0.306
532	0.307
533	0.308
533	0.308
533	0.309
534	0.31
534	0.31
535	0.311
535	0.313
536	0.313
536	0.314
537	0.315
537	0.316
538	0.317
538	0.318
538	0.319
539	0.32
539	0.321
540	0.321
540	0.322
541	0.322
541	0.323
542	0.324
542	0.324
542	0.325
543	0.325
543	0.326
544	0.326
544	0.327
545	0.328
545	0.33
546	0.33
546	0.331
547	0.331
547	0.331
547	0.332
548	0.333
548	0.333
549	0.334
549	0.335
550	0.336
550	0.336
551	0.336
551	0.338
551	0.339
552	0.34
552	0.341
553	0.341
553	0.342
554	0.342
554	0.342
555	0.342
555	0.342
556	0.343
556	0.342
556	0.342
557	0.343
557	0.343
558	0.344
558	0.344
559	0.346
559	0.347
560	0.347
560	0.348
560	0.349
561	0.351
561	0.352
562	0.352
562	0.351
563	0.351
563	0.351
564	0.35
564	0.35
564	0.35
565	0.35
565	0.349
566	0.348
566	0.348
567	0.348
567	0.349
568	0.349
568	0.349
568	0.35
569	0.351
569	0.351
570	0.351
570	0.351
571	0.352
571	0.352
572	0.351
572	0.351
573	0.351
573	0.351
573	0.35
574	0.351
574	0.351
575	0.351
575	0.353
576	0.353
576	0.352
577	0.352
577	0.352
577	0.353
578	0.354
578	0.355
579	0.356
579	0.356
580	0.355
580	0.352
581	0.351
581	0.351
581	0.352
582	0.353
582	0.353
583	0.353
583	0.352
584	0.35
584	0.349
585	0.35
585	0.352
585	0.352
586	0.352
586	0.352
587	0.351
587	0.35
588	0.349
588	0.349
589	0.35
589	0.352
590	0.352
590	0.353
590	0.355
591	0.356
591	0.356
592	0.355
592	0.355
593	0.355
593	0.355
594	0.354
594	0.353
594	0.352
595	0.352
595	0.351
596	0.351
596	0.353
597	0.355
597	0.355
598	0.355
598	0.355
598	0.355
599	0.355
599	0.354
600	0.353
600	0.351
601	0.351
601	0.349
602	0.348
602	0.348
602	0.347
603	0.348
603	0.349
604	0.351
604	0.352
605	0.354
605	0.355
606	0.355
606	0.354
606	0.354
607	0.353
607	0.353
608	0.351
608	0.349
609	0.348
609	0.348
610	0.346
610	0.345
610	0.346
611	0.346
611	0.347
612	0.348
612	0.349
613	0.35
613	0.351
614	0.349
614	0.348
614	0.348
615	0.347
615	0.346
616	0.345
616	0.344
617	0.344
617	0.342
618	0.341
618	0.34
618	0.34
619	0.34
619	0.341
620	0.342
620	0.341
621	0.341
621	0.34
622	0.338
622	0.337
622	0.335
623	0.334
623	0.333
624	0.332
624	0.33
625	0.328
625	0.328
626	0.327
626	0.326
626	0.326
627	0.326
627	0.325
628	0.325
628	0.323
629	0.322
629	0.32
630	0.317
630	0.315
630	0.312
631	0.31
631	0.306
632	0.303
632	0.299
633	0.296
633	0.292
634	0.289
634	0.287
634	0.284
635	0.28
635	0.276
636	0.273
636	0.268
637	0.264
637	0.259
638	0.253
638	0.248
638	0.242
639	0.235
639	0.228
640	0.222
640	0.215
641	0.208
641	0.202
642	0.195
642	0.189
642	0.182
643	0.175
643	0.168
644	0.16
644	0.152
645	0.144
645	0.136
646	0.128
646	0.119
646	0.111
647	0.102
647	0.093
648	0.084
648	0.074
649	0.064
649	0.054
650	0.044
650	0.034
650	0.023
651	0.009
651	-0.007
652	-0.025
652	-0.044
653	-0.061
653	-0.075
653	-0.07
654	-0.046
654	-0.038
655	-0.044
655	-0.051
656	-0.059
656	-0.068
657	-0.075
657	-0.08
657	-0.088
658	-0.098
658	-0.138
659	-0.244
659	-0.349
660	-0.394
660	-0.426
661	-0.454
661	-0.489
661	-0.525
662	-0.56
662	-0.596
663	-0.635
663	-0.679
664	-0.718
664	-0.766
665	-0.816
665	-0.864
665	-0.922
666	-0.978
666	-1.036
667	-1.098
667	-1.161
668	-1.225
668	-1.294
669	-1.368
669	-1.44
669	-1.524
670	-1.58
670	-1.613
671	-1.762
671	-2.041
672	-2.274
672	-2.449
672	-2.563
673	-2.654
673	-2.733
674	-2.797
674	-2.816
675	-2.869
675	-3.002
676	-3.131
676	-3.033
676	-2.831
677	-2.686
677	-2.587
678	-2.474
678	-2.299
679	-1.993
679	-1.816
680	-1.699
680	-1.611
680	-1.535
681	-1.476
681	-1.425
682	-1.376
682	-1.328
683	-1.277
683	-1.249
684	-1.224
684	-1.202
684	-1.182
685	-1.166
685	-1.141
686	-1.115
686	-1.083
687	-1.073
687	-1.065
687	-1.05
688	-1.024
688	-1.011
689	-0.992
689	-0.995
690	-0.98
690	-0.983
691	-0.987
691	-0.992
691	-0.985
692	-0.978
692	-0.975
693	-0.978
693	-0.986
694	-0.986
694	-0.973
695	-0.975
695	-0.964
695	-0.957
696	-0.95
696	-0.951
697	-0.952
697	-0.949
698	-0.947
698	-0.923
698	-0.923
699	-0.912
699	-0.907
700	-0.904
700	-0.908
701	-0.909
701	-0.913
702	-0.909
702	-0.911
702	-0.919
703	-0.92
703	-0.924
704	-0.929
704	-0.928
705	-0.924
705	-0.921
705	-0.924
706	-0.914
706	-0.91
707	-0.912
707	-0.897
708	-0.902
708	-0.898
709	-0.906
709	-0.902
709	-0.899
710	-0.9
710	-0.899
711	-0.893
711	-0.899
712	-0.889
712	-0.894
713	-0.891
713	-0.897
713	-0.897
714	-0.889
714	-0.884
715	-0.887
715	-0.888
716	-0.907
716	-0.909
716	-0.914
717	-0.905
717	-0.908
718	-0.894
718	-0.884
719	-0.902
719	-0.911
720	-0.899
720	-0.907
720	-0.889
721	-0.883
721	-0.885
722	-0.884
722	-0.875
723	-0.87
723	-0.878
723	-0.87
724	-0.869
724	-0.868
725	-0.855
725	-0.858
726	-0.859
726	-0.854
727	-0.861
727	-0.858
727	-0.869
728	-0.861
728	-0.854
729	-0.86
729	-0.867
730	-0.877
730	-0.876
730	-0.882
731	-0.887
731	-0.887
732	-0.897
732	-0.891
733	-0.894
733	-0.896
734	-0.883
734	-0.882
734	-0.873
735	-0.881
735	-0.881
736	-0.876
736	-0.88
737	-0.881
737	-0.887
737	-0.893
738	-0.9
738	-0.898
739	-0.892
739	-0.909
740	-0.903
740	-0.9
741	-0.907
741	-0.906
741	-0.9
742	-0.898
742	-0.888
743	-0.878
743	-0.876
744	-0.872
744	-0.849
744	-0.844
745	-0.85
745	-0.841
746	-0.833
746	-0.837
747	-0.834
747	-0.835
748	-0.837
748	-0.849
748	-0.857
749	-0.865
749	-0.878
750	-0.861
750	-0.863
751	-0.861
751	-0.87
751	-0.87
752	-0.872
752	-0.877
753	-0.872
753	-0.873
754	-0.881
754	-0.867
754	-0.869
755	-0.864
755	-0.862
756	-0.853
756	-0.852
757	-0.846
757	-0.836
758	-0.843
758	-0.835
758	-0.834
759	-0.84
759	-0.843
760	-0.861
760	-0.869
761	-0.873
761	-0.865
761	-0.88
762	-0.883
762	-0.879
763	-0.88
763	-0.882
764	-0.879
764	-0.889
764	-0.878
765	-0.883
765	-0.871
766	-0.887
766	-0.895
767	-0.904
767	-0.897
768	-0.904
768	-0.904
768	-0.899
769	-0.895
769	-0.894
770	-0.907
770	-0.911
771	-0.906
771	-0.9
771	-0.908
772	-0.92
772	-0.927
773	-0.923
773	-0.935
774	-0.937
774	-0.942
775	-0.922
775	-0.928
775	-0.93
776	-0.92
776	-0.914
777	-0.916
777	-0.924
778	-0.921
778	-0.914
778	-0.918
779	-0.914
779	-0.925
780	-0.947
780	-0.963
781	-0.971
781	-0.975
781	-0.991
782	-0.985
782	-0.991
783	-0.99
783	-0.996
784	-1.007
784	-0.997
784	-0.983
785	-0.961
785	-0.958
786	-0.952
786	-0.94
787	-0.931
787	-0.932
788	-0.934
788	-0.922
788	-0.926
789	-0.931
789	-0.938
790	-0.938
790	-0.939
791	-0.938
791	-0.93
791	-0.937
792	-0.932
792	-0.93
793	-0.929
793	-0.925
794	-0.921
794	-0.9
794	-0.915
795	-0.905
795	-0.906
796	-0.909
796	-0.905
797	-0.901
797	-0.917
797	-0.909
798	-0.9
798	-0.901
799	-0.902
799	-0.887
800	-0.888
800	-0.888
801	-0.885
801	-0.878
801	-0.878
802	-0.87
802	-0.871
803	-0.869
803	-0.863
804	-0.866
804	-0.871
804	-0.873
805	-0.861
805	-0.847
806	-0.848
806	-0.84
807	-0.839
807	-0.837
807	-0.827
808	-0.817
808	-0.813
809	-0.798
809	-0.793
810	-0.807
810	-0.804
810	-0.804
811	-0.807
811	-0.799
812	-0.796
812	-0.803
813	-0.81
813	-0.816
813	-0.826
814	-0.828
814	-0.816
815	-0.82
815	-0.821
816	-0.813
816	-0.814
817	-0.818
817	-0.829
817	-0.833
818	-0.822
818	-0.824
819	-0.832
819	-0.838
820	-0.844
820	-0.846
820	-0.852
821	-0.856
821	-0.863
822	-0.854
822	-0.854
823	-0.859
823	-0.857
823	-0.851
824	-0.849
824	-0.852
825	-0.846
825	-0.841
826	-0.831
826	-0.822
826	-0.826
827	-0.819
827	-0.809
828	-0.794
828	-0.79
829	-0.784
829	-0.767
829	-0.77
830	-0.758
830	-0.752
831	-0.75
831	-0.743
832	-0.737
832	-0.73
832	-0.731
833	-0.727
833	-0.731
834	-0.726
834	-0.715
835	-0.721
835	-0.712
835	-0.703
836	-0.689
836	-0.683
837	-0.676
837	-0.67
838	-0.669
838	-0.654
839	-0.645
839	-0.636
839	-0.626
840	-0.625
840	-0.618
841	-0.616
841	-0.602
842	-0.596
842	-0.58
842	-0.562
843	-0.553
843	-0.546
844	-0.54
844	-0.526
845	-0.513
845	-0.503
845	-0.486
846	-0.478
846	-0.465
847	-0.453
847	-0.443
848	-0.427
848	-0.412
848	-0.396
849	-0.382
849	-0.368
850	-0.352
850	-0.342
851	-0.33
851	-0.313
851	-0.302
852	-0.284
852	-0.272
853	-0.263
853	-0.254
854	-0.241
854	-0.227
854	-0.215
855	-0.203
855	-0.191
856	-0.183
856	-0.172
857	-0.164
857	-0.155
857	-0.139
858	-0.126
858	-0.118
859	-0.107
859	-0.095
860	-0.083
860	-0.067
860	-0.054
861	-0.041
861	-0.029
862	-0.017
862	-0.008
863	0.003
863	0.014
863	0.022
864	0.03
864	0.039
865	0.047
865	0.054
866	0.061
866	0.067
866	0.073
867	0.079
867	0.085
868	0.089
868	0.095
869	0.1
869	0.103
869	0.106
870	0.109
870	0.112
871	0.114
871	0.115
872	0.115
872	0.115
872	0.115
873	0.114
873	0.113
874	0.112
874	0.11
875	0.109
875	0.108
875	0.106
876	0.105
876	0.104
877	0.103
877	0.102
878	0.101
878	0.101
878	0.101
879	0.101
879	0.101
880	0.102
880	0.103
881	0.103
881	0.103
881	0.104
882	0.103
882	0.102
883	0.101
883	0.099
884	0.098
884	0.097
884	0.096
885	0.094
885	0.093
886	0.092
886	0.09
887	0.089
887	0.088
887	0.087
888	0.086
888	0.085
889	0.084
889	0.083
890	0.083
890	0.083
890	0.082
891	0.082
891	0.082
892	0.082
892	0.082
893	0.081
893	0.081
893	0.081
894	0.08
894	0.079
895	0.078
895	0.078
895	0.077
896	0.076
896	0.076
897	0.075
897	0.075
898	0.075
898	0.076
898	0.077
899	0.078
899	0.08
900	0.081
900	0.082
901	0.083
901	0.085
901	0.086
902	0.088
902	0.089
903	0.09
903	0.091
904	0.092
904	0.093
904	0.094
905	0.095
905	0.095
906	0.095
906	0.095
907	0.096
907	0.096
907	0.096
908	0.095
908	0.095
909	0.095
909	0.095
910	0.095
910	0.096
910	0.097
911	0.097
911	0.098
912	0.099
912	0.099
913	0.099
913	0.099
913	0.099
914	0.098
914	0.097
915	0.096
915	0.095
916	0.094
916	0.093
916	0.093
917	0.092
917	0.092
918	0.091
918	0.091
918	0.091
919	0.092
919	0.092
920	0.093
920	0.094
921	0.094
921	0.094
921	0.094
922	0.094
922	0.095
923	0.095
923	0.094
924	0.094
924	0.094
924	0.093
925	0.093
925	0.092
926	0.092
926	0.091
927	0.09
927	0.09
927	0.089
928	0.089
928	0.089
929	0.088
929	0.088
930	0.088
930	0.087
930	0.087
931	0.087
931	0.087
932	0.087
932	0.087
933	0.086
933	0.085
933	0.084
934	0.083
934	0.082
935	0.08
935	0.079
935	0.077
936	0.076
936	0.074
937	0.073
937	0.071
938	0.07
938	0.068
938	0.067
939	0.066
939	0.065
940	0.064
940	0.063
941	0.062
941	0.061
941	0.061
942	0.06
942	0.059
943	0.059
943	0.057
944	0.057
944	0.056
944	0.056
945	0.056
945	0.056
946	0.056
946	0.056
946	0.056
947	0.057
947	0.057
948	0.058
948	0.058
949	0.057
949	0.057
949	0.057
950	0.057
950	0.057
951	0.057
951	0.057
952	0.057
952	0.056
952	0.056
953	0.056
953	0.057
954	0.057
954	0.058
955	0.06
955	0.061
955	0.062
956	0.064
956	0.065
957	0.067
957	0.069
957	0.07
958	0.071
958	0.072
959	0.072
959	0.072
960	0.072
960	0.072
960	0.072
961	0.072
961	0.072
962	0.071
962	0.072
963	0.071
963	0.071
963	0.071
964	0.072
964	0.072
965	0.072
965	0.072
966	0.072
966	0.073
966	0.073
967	0.072
967	0.072
968	0.07
968	0.069
968	0.068
969	0.067
969	0.066
970	0.065
970	0.064
971	0.063
971	0.062
971	0.062
972	0.062
972	0.063
973	0.063
973	0.064
974	0.064
974	0.065
974	0.065
975	0.066
975	0.066
976	0.066
976	0.066
976	0.066
977	0.066
977	0.065
978	0.065
978	0.065
979	0.064
979	0.064
979	0.064
980	0.064
980	0.063
981	0.063
981	0.063
982	0.062
982	0.062
982	0.061
983	0.061
983	0.06
984	0.059
984	0.058
984	0.058
985	0.057
985	0.057
986	0.056
986	0.056
987	0.056
987	0.057
987	0.057
988	0.057
988	0.058
989	0.058
989	0.059
990	0.06
990	0.06
990	0.06
991	0.061
991	0.061
992	0.06
992	0.06
992	0.06
993	0.059
993	0.058
994	0.058
994	0.057
995	0.056
995	0.056
995	0.055
996	0.055
996	0.054
997	0.054
997	0.053
997	0.053
998	0.053
998	0.053
999	0.052
999	0.052
1000	0.051
1000	0.051
1000	0.05
1001	0.05
1001	0.05
1002	0.05
1002	0.049
1003	0.048
1003	0.047
1003	0.046
1004	0.045
1004	0.044
1005	0.043
1005	0.041
1005	0.039
1006	0.037
1006	0.036
1007	0.035
1007	0.034
1008	0.032
1008	0.031
1008	0.031
1009	0.03
1009	0.03
1010	0.03
1010	0.031
1010	0.031
1011	0.031
1011	0.031
1012	0.031
1012	0.031
1013	0.031
1013	0.03
1013	0.03
1014	0.03
1014	0.03
1015	0.03
1015	0.03
1016	0.03
1016	0.029
1016	0.03
1017	0.03
1017	0.03
1018	0.031
1018	0.031
1018	0.032
1019	0.032
1019	0.032
1020	0.032
1020	0.032
1021	0.032
1021	0.032
1021	0.032
1022	0.032
1022	0.032
1023	0.031
1023	0.031
1023	0.03
1024	0.03
1024	0.03
1025	0.029
1025	0.029
1026	0.029
1026	0.03
1026	0.03
1027	0.03
1027	0.03
1028	0.03
1028	0.031
1028	0.031
1029	0.031
1029	0.031
1030	0.031
1030	0.031
1031	0.031
1031	0.031
1031	0.031
1032	0.031
1032	0.031
1033	0.03
1033	0.029
1033	0.029
1034	0.028
1034	0.027
1035	0.026
1035	0.025
1036	0.024
1036	0.023
1036	0.023
1037	0.023
1037	0.023
1038	0.023
1038	0.023
1039	0.023
1039	0.023
1039	0.023
1040	0.024
1040	0.024
1041	0.024
1041	0.024
1041	0.024
1042	0.023
1042	0.023
1043	0.023
1043	0.022
1044	0.021
1044	0.021
1044	0.021
1045	0.02
1045	0.019
1046	0.018
1046	0.018
1046	0.018
1047	0.018
1047	0.018
1048	0.018
1048	0.018
1049	0.018
1049	0.017
1049	0.017
1050	0.016
1050	0.015
1051	0.015
1051	0.014
1051	0.013
1052	0.012
1052	0.011
1053	0.01
1053	0.01
1053	0.01
1054	0.009
1054	0.01
1055	0.01
1055	0.01
1056	0.01
1056	0.009
1056	0.008
1057	0.008
1057	0.008
1058	0.007
1058	0.006
1058	0.006
1059	0.005
1059	0.004
1060	0.004
1060	0.003
1061	0.003
1061	0.003
1061	0.003
1062	0.003
1062	0.004
1063	0.004
1063	0.004
1063	0.005
1064	0.005
1064	0.006
1065	0.006
1065	0.007
1066	0.007
1066	0.007
1066	0.008
1067	0.008
1067	0.008
1068	0.007
1068	0.007
1068	0.006
1069	0.006
1069	0.005
1070	0.004
1070	0.004
1071	0.003
1071	0.002
1071	0.001
1072	0.001
1072	0.001
1073	0
1073	0
1073	-0
1074	-0
1074	-0.001
1075	-0.002
1075	-0.003
1076	-0.004
1076	-0.005
1076	-0.007
1077	-0.008
1077	-0.01
1078	-0.012
1078	-0.013
1078	-0.014
1079	-0.016
1079	-0.016
1080	-0.017
1080	-0.018
1080	-0.019
1081	-0.019
1081	-0.019
1082	-0.019
1082	-0.019
1083	-0.02
1083	-0.021
1083	-0.021
1084	-0.022
1084	-0.022
1085	-0.023
1085	-0.023
1085	-0.024
1086	-0.024
1086	-0.026
1087	-0.027
1087	-0.027
1088	-0.029
1088	-0.03
1088	-0.03
1089	-0.032
1089	-0.034
1090	-0.036
1090	-0.038
1090	-0.04
1091	-0.041
1091	-0.043
1092	-0.044
1092	-0.045
1092	-0.047
1093	-0.049
1093	-0.049
1094	-0.05
1094	-0.052
1095	-0.054
1095	-0.056
1095	-0.058
1096	-0.06
1096	-0.063
1097	-0.065
1097	-0.068
1097	-0.069
1098	-0.074
1098	-0.076
1099	-0.078
1099	-0.079
1100	-0.082
1100	-0.084
1100	-0.088
1101	-0.089
1101	-0.093
1102	-0.095
1102	-0.097
1102	-0.099
1103	-0.102
1103	-0.104
1104	-0.106
1104	-0.109
1104	-0.11
1105	-0.112
1105	-0.115
1106	-0.12
1106	-0.123
1107	-0.129
1107	-0.133
1107	-0.137
1108	-0.138
1108	-0.14
1109	-0.143
1109	-0.15
1109	-0.153
1110	-0.155
1110	-0.159
1111	-0.164
1111	-0.159
