Data from 40_to5_30sec_70mins_Absorbance__83__00083.txt Node

Date: Mon Jun 26 18:01:45 CEST 2023
User: Marek
Spectrometer: MAYP115816
Trigger mode: 0
Integration Time (sec): 2.500000E-1
Scans to average: 10
Electric dark correction enabled: true
Nonlinearity correction enabled: true
Boxcar width: 5
XAxis mode: Wavelengths
Number of Pixels in Spectrum: 2068
>>>>>Begin Spectral Data<<<<<
199	-0.898
199	-0.867
200	-0.834
200	-0.768
201	-0.731
201	-0.709
202	-0.677
202	-0.667
203	-0.66
203	-0.656
204	-0.645
204	-0.627
205	-0.613
205	-0.595
205	-0.597
206	-0.589
206	-0.592
207	-0.594
207	-0.592
208	-0.594
208	-0.594
209	-0.586
209	-0.59
210	-0.589
210	-0.597
211	-0.597
211	-0.611
212	-0.616
212	-0.614
213	-0.619
213	-0.613
213	-0.624
214	-0.627
214	-0.631
215	-0.631
215	-0.64
216	-0.644
216	-0.641
217	-0.64
217	-0.646
218	-0.652
218	-0.658
219	-0.649
219	-0.653
220	-0.658
220	-0.67
221	-0.671
221	-0.677
221	-0.681
222	-0.684
222	-0.688
223	-0.686
223	-0.689
224	-0.697
224	-0.699
225	-0.697
225	-0.692
226	-0.688
226	-0.685
227	-0.682
227	-0.686
228	-0.684
228	-0.689
229	-0.694
229	-0.69
229	-0.684
230	-0.682
230	-0.684
231	-0.686
231	-0.681
232	-0.69
232	-0.691
233	-0.689
233	-0.681
234	-0.683
234	-0.684
235	-0.686
235	-0.69
236	-0.693
236	-0.692
236	-0.694
237	-0.686
237	-0.687
238	-0.687
238	-0.689
239	-0.681
239	-0.681
240	-0.682
240	-0.687
241	-0.683
241	-0.688
242	-0.69
242	-0.697
243	-0.689
243	-0.698
243	-0.699
244	-0.701
244	-0.707
245	-0.718
245	-0.72
246	-0.735
246	-0.733
247	-0.743
247	-0.743
248	-0.749
248	-0.747
249	-0.75
249	-0.757
250	-0.749
250	-0.75
250	-0.743
251	-0.734
251	-0.742
252	-0.738
252	-0.737
253	-0.738
253	-0.741
254	-0.744
254	-0.736
255	-0.746
255	-0.74
256	-0.741
256	-0.747
257	-0.745
257	-0.749
258	-0.751
258	-0.757
258	-0.754
259	-0.764
259	-0.78
260	-0.781
260	-0.791
261	-0.801
261	-0.796
262	-0.793
262	-0.789
263	-0.78
263	-0.78
264	-0.786
264	-0.778
265	-0.774
265	-0.774
265	-0.766
266	-0.765
266	-0.764
267	-0.765
267	-0.775
268	-0.786
268	-0.788
269	-0.79
269	-0.798
270	-0.797
270	-0.819
271	-0.829
271	-0.829
272	-0.837
272	-0.845
272	-0.842
273	-0.853
273	-0.859
274	-0.858
274	-0.861
275	-0.866
275	-0.845
276	-0.846
276	-0.858
277	-0.86
277	-0.853
278	-0.862
278	-0.856
278	-0.85
279	-0.851
279	-0.853
280	-0.856
280	-0.864
281	-0.859
281	-0.857
282	-0.857
282	-0.871
283	-0.865
283	-0.857
284	-0.858
284	-0.863
285	-0.855
285	-0.863
285	-0.856
286	-0.856
286	-0.843
287	-0.842
287	-0.832
288	-0.824
288	-0.831
289	-0.83
289	-0.834
290	-0.833
290	-0.819
291	-0.815
291	-0.807
292	-0.814
292	-0.815
292	-0.822
293	-0.827
293	-0.822
294	-0.822
294	-0.813
295	-0.808
295	-0.816
296	-0.829
296	-0.83
297	-0.828
297	-0.822
298	-0.811
298	-0.812
298	-0.813
299	-0.799
299	-0.791
300	-0.789
300	-0.773
301	-0.771
301	-0.775
302	-0.774
302	-0.77
303	-0.76
303	-0.751
304	-0.741
304	-0.739
305	-0.738
305	-0.748
305	-0.755
306	-0.734
306	-0.731
307	-0.725
307	-0.724
308	-0.726
308	-0.721
309	-0.726
309	-0.722
310	-0.722
310	-0.714
311	-0.704
311	-0.705
311	-0.702
312	-0.692
312	-0.69
313	-0.683
313	-0.683
314	-0.678
314	-0.678
315	-0.672
315	-0.662
316	-0.655
316	-0.655
317	-0.647
317	-0.644
318	-0.636
318	-0.631
318	-0.625
319	-0.619
319	-0.613
320	-0.61
320	-0.613
321	-0.607
321	-0.604
322	-0.599
322	-0.598
323	-0.593
323	-0.589
324	-0.584
324	-0.576
324	-0.57
325	-0.556
325	-0.54
326	-0.531
326	-0.507
327	-0.488
327	-0.466
328	-0.44
328	-0.417
329	-0.389
329	-0.363
330	-0.336
330	-0.301
330	-0.269
331	-0.237
331	-0.207
332	-0.178
332	-0.15
333	-0.123
333	-0.093
334	-0.066
334	-0.041
335	-0.018
335	0.002
336	0.021
336	0.04
336	0.055
337	0.07
337	0.085
338	0.098
338	0.108
339	0.119
339	0.129
340	0.136
340	0.143
341	0.15
341	0.154
342	0.161
342	0.166
342	0.171
343	0.174
343	0.178
344	0.181
344	0.184
345	0.187
345	0.189
346	0.192
346	0.193
347	0.195
347	0.196
348	0.198
348	0.199
348	0.201
349	0.201
349	0.202
350	0.203
350	0.204
351	0.205
351	0.205
352	0.206
352	0.206
353	0.207
353	0.207
354	0.208
354	0.208
354	0.208
355	0.208
355	0.208
356	0.209
356	0.209
357	0.209
357	0.208
358	0.208
358	0.208
359	0.209
359	0.209
360	0.209
360	0.21
360	0.21
361	0.21
361	0.21
362	0.211
362	0.212
363	0.212
363	0.213
364	0.213
364	0.213
365	0.213
365	0.214
366	0.214
366	0.214
366	0.214
367	0.214
367	0.214
368	0.214
368	0.214
369	0.214
369	0.214
370	0.214
370	0.214
371	0.214
371	0.215
372	0.215
372	0.215
372	0.215
373	0.215
373	0.215
374	0.215
374	0.215
375	0.215
375	0.215
376	0.215
376	0.215
377	0.215
377	0.216
378	0.216
378	0.216
378	0.216
379	0.216
379	0.216
380	0.217
380	0.217
381	0.217
381	0.217
382	0.217
382	0.217
383	0.216
383	0.216
383	0.216
384	0.216
384	0.216
385	0.216
385	0.216
386	0.216
386	0.216
387	0.216
387	0.216
388	0.216
388	0.216
389	0.216
389	0.216
389	0.217
390	0.217
390	0.217
391	0.217
391	0.217
392	0.217
392	0.217
393	0.217
393	0.217
394	0.217
394	0.217
394	0.216
395	0.216
395	0.216
396	0.216
396	0.216
397	0.216
397	0.216
398	0.216
398	0.216
399	0.216
399	0.216
400	0.216
400	0.216
400	0.216
401	0.216
401	0.216
402	0.216
402	0.216
403	0.216
403	0.216
404	0.216
404	0.216
405	0.216
405	0.216
405	0.216
406	0.216
406	0.216
407	0.216
407	0.215
408	0.215
408	0.215
409	0.215
409	0.215
410	0.215
410	0.215
411	0.215
411	0.215
411	0.215
412	0.215
412	0.216
413	0.216
413	0.216
414	0.216
414	0.215
415	0.215
415	0.215
416	0.214
416	0.214
416	0.214
417	0.214
417	0.213
418	0.213
418	0.213
419	0.213
419	0.213
420	0.213
420	0.214
421	0.214
421	0.214
421	0.214
422	0.214
422	0.214
423	0.214
423	0.214
424	0.214
424	0.214
425	0.214
425	0.213
426	0.213
426	0.213
427	0.213
427	0.213
427	0.213
428	0.214
428	0.214
429	0.214
429	0.214
430	0.214
430	0.214
431	0.213
431	0.213
432	0.213
432	0.213
432	0.212
433	0.211
433	0.211
434	0.211
434	0.211
435	0.211
435	0.211
436	0.211
436	0.211
437	0.211
437	0.212
437	0.212
438	0.212
438	0.212
439	0.212
439	0.211
440	0.211
440	0.211
441	0.211
441	0.21
442	0.21
442	0.21
442	0.21
443	0.209
443	0.209
444	0.209
444	0.209
445	0.209
445	0.21
446	0.21
446	0.21
447	0.21
447	0.21
447	0.21
448	0.21
448	0.21
449	0.21
449	0.21
450	0.21
450	0.21
451	0.21
451	0.21
452	0.21
452	0.21
452	0.21
453	0.21
453	0.21
454	0.21
454	0.21
455	0.21
455	0.21
456	0.21
456	0.21
457	0.209
457	0.209
458	0.209
458	0.209
458	0.209
459	0.209
459	0.209
460	0.208
460	0.208
461	0.208
461	0.209
462	0.209
462	0.209
463	0.209
463	0.209
463	0.21
464	0.209
464	0.209
465	0.209
465	0.21
466	0.21
466	0.21
467	0.21
467	0.21
467	0.21
468	0.209
468	0.209
469	0.209
469	0.209
470	0.209
470	0.209
471	0.209
471	0.209
472	0.209
472	0.209
472	0.209
473	0.209
473	0.209
474	0.209
474	0.21
475	0.21
475	0.21
476	0.21
476	0.211
477	0.211
477	0.211
477	0.212
478	0.212
478	0.212
479	0.212
479	0.213
480	0.213
480	0.213
481	0.213
481	0.213
482	0.213
482	0.214
482	0.214
483	0.215
483	0.215
484	0.215
484	0.215
485	0.215
485	0.216
486	0.216
486	0.216
487	0.217
487	0.217
487	0.217
488	0.217
488	0.218
489	0.219
489	0.22
490	0.221
490	0.221
491	0.222
491	0.223
492	0.224
492	0.225
492	0.225
493	0.226
493	0.227
494	0.228
494	0.229
495	0.23
495	0.23
496	0.231
496	0.231
496	0.232
497	0.233
497	0.234
498	0.235
498	0.235
499	0.236
499	0.237
500	0.238
500	0.239
501	0.24
501	0.241
501	0.242
502	0.242
502	0.243
503	0.245
503	0.245
504	0.246
504	0.247
505	0.248
505	0.249
506	0.25
506	0.252
506	0.253
507	0.254
507	0.255
508	0.256
508	0.258
509	0.259
509	0.26
510	0.261
510	0.263
511	0.264
511	0.265
511	0.266
512	0.267
512	0.268
513	0.27
513	0.271
514	0.272
514	0.274
515	0.275
515	0.276
515	0.277
516	0.279
516	0.281
517	0.282
517	0.284
518	0.285
518	0.285
519	0.286
519	0.287
520	0.289
520	0.29
520	0.291
521	0.291
521	0.292
522	0.293
522	0.294
523	0.295
523	0.296
524	0.297
524	0.298
524	0.299
525	0.3
525	0.301
526	0.303
526	0.304
527	0.305
527	0.306
528	0.307
528	0.308
529	0.309
529	0.31
529	0.312
530	0.313
530	0.314
531	0.315
531	0.316
532	0.317
532	0.318
533	0.319
533	0.319
533	0.32
534	0.32
534	0.321
535	0.322
535	0.323
536	0.324
536	0.325
537	0.326
537	0.327
538	0.328
538	0.329
538	0.33
539	0.331
539	0.332
540	0.332
540	0.333
541	0.334
541	0.335
542	0.335
542	0.336
542	0.337
543	0.337
543	0.338
544	0.339
544	0.339
545	0.341
545	0.342
546	0.342
546	0.342
547	0.343
547	0.343
547	0.344
548	0.345
548	0.345
549	0.346
549	0.347
550	0.348
550	0.348
551	0.349
551	0.35
551	0.352
552	0.353
552	0.353
553	0.354
553	0.355
554	0.355
554	0.355
555	0.355
555	0.355
556	0.355
556	0.355
556	0.356
557	0.356
557	0.356
558	0.357
558	0.358
559	0.359
559	0.36
560	0.361
560	0.361
560	0.363
561	0.364
561	0.365
562	0.365
562	0.365
563	0.364
563	0.364
564	0.364
564	0.364
564	0.364
565	0.363
565	0.363
566	0.362
566	0.362
567	0.362
567	0.363
568	0.363
568	0.363
568	0.363
569	0.364
569	0.365
570	0.365
570	0.364
571	0.365
571	0.365
572	0.365
572	0.365
573	0.365
573	0.365
573	0.365
574	0.365
574	0.365
575	0.366
575	0.367
576	0.368
576	0.367
577	0.366
577	0.367
577	0.368
578	0.368
578	0.369
579	0.37
579	0.371
580	0.369
580	0.367
581	0.366
581	0.366
581	0.366
582	0.367
582	0.367
583	0.367
583	0.367
584	0.364
584	0.363
585	0.364
585	0.366
585	0.366
586	0.366
586	0.367
587	0.365
587	0.365
588	0.364
588	0.364
589	0.365
589	0.366
590	0.367
590	0.367
590	0.369
591	0.37
591	0.369
592	0.369
592	0.368
593	0.369
593	0.369
594	0.368
594	0.367
594	0.366
595	0.366
595	0.365
596	0.365
596	0.367
597	0.369
597	0.369
598	0.368
598	0.369
598	0.369
599	0.368
599	0.367
600	0.366
600	0.365
601	0.364
601	0.363
602	0.361
602	0.361
602	0.36
603	0.361
603	0.362
604	0.363
604	0.364
605	0.366
605	0.367
606	0.367
606	0.366
606	0.366
607	0.365
607	0.365
608	0.363
608	0.361
609	0.361
609	0.36
610	0.358
610	0.357
610	0.357
611	0.358
611	0.359
612	0.36
612	0.361
613	0.362
613	0.362
614	0.361
614	0.36
614	0.359
615	0.359
615	0.357
616	0.357
616	0.355
617	0.354
617	0.353
618	0.352
618	0.351
618	0.351
619	0.351
619	0.351
620	0.352
620	0.351
621	0.351
621	0.35
622	0.348
622	0.347
622	0.345
623	0.343
623	0.343
624	0.341
624	0.339
625	0.338
625	0.337
626	0.335
626	0.335
626	0.335
627	0.334
627	0.334
628	0.333
628	0.332
629	0.33
629	0.328
630	0.325
630	0.322
630	0.319
631	0.317
631	0.313
632	0.31
632	0.306
633	0.302
633	0.298
634	0.296
634	0.293
634	0.289
635	0.286
635	0.282
636	0.278
636	0.274
637	0.269
637	0.263
638	0.258
638	0.252
638	0.246
639	0.239
639	0.232
640	0.225
640	0.218
641	0.211
641	0.204
642	0.197
642	0.191
642	0.184
643	0.177
643	0.169
644	0.161
644	0.153
645	0.144
645	0.136
646	0.128
646	0.119
646	0.11
647	0.102
647	0.093
648	0.083
648	0.074
649	0.063
649	0.053
650	0.043
650	0.034
650	0.022
651	0.008
651	-0.008
652	-0.027
652	-0.046
653	-0.064
653	-0.078
653	-0.074
654	-0.05
654	-0.042
655	-0.048
655	-0.055
656	-0.063
656	-0.071
657	-0.078
657	-0.083
657	-0.091
658	-0.1
658	-0.139
659	-0.245
659	-0.349
660	-0.395
660	-0.427
661	-0.456
661	-0.492
661	-0.529
662	-0.564
662	-0.601
663	-0.64
663	-0.685
664	-0.725
664	-0.773
665	-0.823
665	-0.871
665	-0.929
666	-0.985
666	-1.043
667	-1.104
667	-1.168
668	-1.232
668	-1.301
669	-1.375
669	-1.448
669	-1.531
670	-1.586
670	-1.618
671	-1.754
671	-2.036
672	-2.271
672	-2.446
672	-2.561
673	-2.652
673	-2.731
674	-2.796
674	-2.815
675	-2.868
675	-3.001
676	-3.132
676	-3.033
676	-2.832
677	-2.687
677	-2.589
678	-2.476
678	-2.302
679	-2
679	-1.825
680	-1.708
680	-1.619
680	-1.542
681	-1.483
681	-1.432
682	-1.382
682	-1.334
683	-1.283
683	-1.255
684	-1.231
684	-1.209
684	-1.188
685	-1.172
685	-1.147
686	-1.121
686	-1.09
687	-1.079
687	-1.071
687	-1.054
688	-1.028
688	-1.015
689	-0.994
689	-0.998
690	-0.981
690	-0.983
691	-0.987
691	-0.992
691	-0.984
692	-0.976
692	-0.974
693	-0.977
693	-0.987
694	-0.985
694	-0.971
695	-0.974
695	-0.962
695	-0.956
696	-0.948
696	-0.948
697	-0.95
697	-0.947
698	-0.944
698	-0.918
698	-0.919
699	-0.909
699	-0.906
700	-0.902
700	-0.905
701	-0.907
701	-0.91
702	-0.906
702	-0.908
702	-0.916
703	-0.918
703	-0.921
704	-0.927
704	-0.926
705	-0.923
705	-0.919
705	-0.923
706	-0.915
706	-0.91
707	-0.909
707	-0.895
708	-0.9
708	-0.897
709	-0.903
709	-0.898
709	-0.893
710	-0.894
710	-0.894
711	-0.886
711	-0.893
712	-0.886
712	-0.892
713	-0.889
713	-0.894
713	-0.894
714	-0.887
714	-0.884
715	-0.887
715	-0.887
716	-0.906
716	-0.906
716	-0.911
717	-0.9
717	-0.902
718	-0.889
718	-0.877
719	-0.897
719	-0.904
720	-0.893
720	-0.9
720	-0.884
721	-0.877
721	-0.878
722	-0.879
722	-0.87
723	-0.865
723	-0.872
723	-0.864
724	-0.864
724	-0.863
725	-0.852
725	-0.854
726	-0.856
726	-0.851
727	-0.856
727	-0.855
727	-0.866
728	-0.86
728	-0.852
729	-0.858
729	-0.864
730	-0.873
730	-0.874
730	-0.878
731	-0.883
731	-0.883
732	-0.891
732	-0.886
733	-0.89
733	-0.89
734	-0.878
734	-0.878
734	-0.869
735	-0.876
735	-0.877
736	-0.872
736	-0.877
737	-0.876
737	-0.881
737	-0.886
738	-0.893
738	-0.889
739	-0.882
739	-0.897
740	-0.891
740	-0.89
741	-0.898
741	-0.898
741	-0.892
742	-0.89
742	-0.88
743	-0.872
743	-0.87
744	-0.866
744	-0.845
744	-0.842
745	-0.848
745	-0.839
746	-0.831
746	-0.837
747	-0.835
747	-0.835
748	-0.838
748	-0.85
748	-0.859
749	-0.866
749	-0.876
750	-0.859
750	-0.861
751	-0.857
751	-0.866
751	-0.867
752	-0.871
752	-0.876
753	-0.871
753	-0.87
754	-0.878
754	-0.866
754	-0.868
755	-0.864
755	-0.86
756	-0.85
756	-0.849
757	-0.84
757	-0.83
758	-0.837
758	-0.828
758	-0.829
759	-0.834
759	-0.838
760	-0.854
760	-0.863
761	-0.868
761	-0.859
761	-0.876
762	-0.877
762	-0.874
763	-0.877
763	-0.879
764	-0.874
764	-0.885
764	-0.873
765	-0.878
765	-0.867
766	-0.883
766	-0.89
767	-0.899
767	-0.89
768	-0.897
768	-0.896
768	-0.893
769	-0.89
769	-0.89
770	-0.903
770	-0.906
771	-0.902
771	-0.897
771	-0.905
772	-0.919
772	-0.925
773	-0.921
773	-0.931
774	-0.93
774	-0.934
775	-0.914
775	-0.92
775	-0.923
776	-0.912
776	-0.905
777	-0.906
777	-0.912
778	-0.91
778	-0.903
778	-0.91
779	-0.905
779	-0.916
780	-0.936
780	-0.952
781	-0.962
781	-0.968
781	-0.984
782	-0.981
782	-0.986
783	-0.986
783	-0.992
784	-1.004
784	-0.996
784	-0.981
785	-0.96
785	-0.956
786	-0.95
786	-0.94
787	-0.927
787	-0.928
788	-0.928
788	-0.917
788	-0.919
789	-0.924
789	-0.931
790	-0.93
790	-0.93
791	-0.928
791	-0.922
791	-0.93
792	-0.924
792	-0.923
793	-0.921
793	-0.919
794	-0.915
794	-0.895
794	-0.912
795	-0.903
795	-0.905
796	-0.907
796	-0.903
797	-0.902
797	-0.917
797	-0.911
798	-0.902
798	-0.903
799	-0.905
799	-0.888
800	-0.889
800	-0.888
801	-0.886
801	-0.878
801	-0.876
802	-0.869
802	-0.87
803	-0.867
803	-0.86
804	-0.862
804	-0.869
804	-0.872
805	-0.86
805	-0.846
806	-0.848
806	-0.84
807	-0.839
807	-0.835
807	-0.827
808	-0.818
808	-0.813
809	-0.799
809	-0.792
810	-0.806
810	-0.802
810	-0.802
811	-0.804
811	-0.797
812	-0.796
812	-0.802
813	-0.808
813	-0.815
813	-0.823
814	-0.825
814	-0.813
815	-0.816
815	-0.816
816	-0.808
816	-0.808
817	-0.81
817	-0.823
817	-0.828
818	-0.817
818	-0.82
819	-0.829
819	-0.835
820	-0.845
820	-0.847
820	-0.854
821	-0.859
821	-0.864
822	-0.855
822	-0.855
823	-0.86
823	-0.858
823	-0.851
824	-0.849
824	-0.853
825	-0.847
825	-0.841
826	-0.83
826	-0.821
826	-0.825
827	-0.818
827	-0.806
828	-0.792
828	-0.788
829	-0.781
829	-0.762
829	-0.765
830	-0.753
830	-0.749
831	-0.749
831	-0.737
832	-0.73
832	-0.726
832	-0.727
833	-0.723
833	-0.727
834	-0.723
834	-0.713
835	-0.718
835	-0.71
835	-0.7
836	-0.691
836	-0.683
837	-0.676
837	-0.669
838	-0.666
838	-0.651
839	-0.641
839	-0.63
839	-0.621
840	-0.619
840	-0.612
841	-0.609
841	-0.597
842	-0.591
842	-0.578
842	-0.561
843	-0.552
843	-0.546
844	-0.539
844	-0.525
845	-0.511
845	-0.502
845	-0.486
846	-0.479
846	-0.465
847	-0.452
847	-0.443
848	-0.427
848	-0.411
848	-0.396
849	-0.384
849	-0.369
850	-0.354
850	-0.345
851	-0.329
851	-0.312
851	-0.301
852	-0.283
852	-0.27
853	-0.261
853	-0.252
854	-0.238
854	-0.225
854	-0.213
855	-0.201
855	-0.191
856	-0.182
856	-0.172
857	-0.162
857	-0.153
857	-0.138
858	-0.125
858	-0.116
859	-0.106
859	-0.093
860	-0.081
860	-0.065
860	-0.053
861	-0.042
861	-0.031
862	-0.02
862	-0.01
863	-0
863	0.011
863	0.019
864	0.027
864	0.036
865	0.044
865	0.051
866	0.058
866	0.064
866	0.071
867	0.077
867	0.083
868	0.087
868	0.092
869	0.098
869	0.101
869	0.104
870	0.106
870	0.109
871	0.111
871	0.111
872	0.111
872	0.111
872	0.112
873	0.111
873	0.11
874	0.108
874	0.107
875	0.106
875	0.104
875	0.103
876	0.102
876	0.101
877	0.1
877	0.099
878	0.098
878	0.097
878	0.097
879	0.098
879	0.098
880	0.098
880	0.099
881	0.099
881	0.099
881	0.099
882	0.099
882	0.098
883	0.097
883	0.095
884	0.094
884	0.093
884	0.091
885	0.09
885	0.089
886	0.088
886	0.086
887	0.084
887	0.083
887	0.082
888	0.082
888	0.081
889	0.08
889	0.08
890	0.079
890	0.08
890	0.079
891	0.08
891	0.079
892	0.079
892	0.079
893	0.078
893	0.078
893	0.078
894	0.077
894	0.076
895	0.075
895	0.074
895	0.074
896	0.073
896	0.073
897	0.072
897	0.072
898	0.073
898	0.073
898	0.074
899	0.076
899	0.077
900	0.078
900	0.079
901	0.08
901	0.081
901	0.083
902	0.084
902	0.086
903	0.087
903	0.088
904	0.089
904	0.09
904	0.09
905	0.091
905	0.092
906	0.092
906	0.092
907	0.092
907	0.093
907	0.092
908	0.092
908	0.091
909	0.091
909	0.091
910	0.091
910	0.092
910	0.093
911	0.094
911	0.094
912	0.095
912	0.095
913	0.095
913	0.095
913	0.095
914	0.094
914	0.094
915	0.093
915	0.092
916	0.091
916	0.09
916	0.089
917	0.088
917	0.088
918	0.088
918	0.087
918	0.088
919	0.088
919	0.088
920	0.089
920	0.09
921	0.09
921	0.09
921	0.091
922	0.091
922	0.091
923	0.091
923	0.091
924	0.09
924	0.09
924	0.09
925	0.089
925	0.089
926	0.088
926	0.088
927	0.087
927	0.086
927	0.086
928	0.086
928	0.085
929	0.085
929	0.085
930	0.084
930	0.084
930	0.084
931	0.083
931	0.083
932	0.083
932	0.083
933	0.082
933	0.081
933	0.08
934	0.079
934	0.078
935	0.077
935	0.075
935	0.074
936	0.072
936	0.071
937	0.069
937	0.067
938	0.066
938	0.065
938	0.063
939	0.062
939	0.062
940	0.061
940	0.06
941	0.059
941	0.058
941	0.058
942	0.057
942	0.056
943	0.056
943	0.055
944	0.054
944	0.053
944	0.053
945	0.053
945	0.053
946	0.053
946	0.053
946	0.054
947	0.054
947	0.054
948	0.054
948	0.055
949	0.054
949	0.055
949	0.055
950	0.054
950	0.054
951	0.054
951	0.053
952	0.053
952	0.053
952	0.053
953	0.053
953	0.054
954	0.054
954	0.055
955	0.056
955	0.057
955	0.058
956	0.06
956	0.062
957	0.063
957	0.065
957	0.066
958	0.067
958	0.067
959	0.068
959	0.068
960	0.068
960	0.067
960	0.067
961	0.068
961	0.067
962	0.067
962	0.067
963	0.067
963	0.067
963	0.067
964	0.067
964	0.068
965	0.068
965	0.068
966	0.068
966	0.068
966	0.068
967	0.068
967	0.067
968	0.066
968	0.065
968	0.064
969	0.063
969	0.062
970	0.061
970	0.06
971	0.059
971	0.058
971	0.057
972	0.058
972	0.058
973	0.059
973	0.059
974	0.06
974	0.061
974	0.061
975	0.062
975	0.062
976	0.063
976	0.063
976	0.063
977	0.062
977	0.062
978	0.061
978	0.061
979	0.061
979	0.061
979	0.06
980	0.06
980	0.06
981	0.06
981	0.059
982	0.058
982	0.058
982	0.058
983	0.057
983	0.056
984	0.055
984	0.055
984	0.054
985	0.054
985	0.053
986	0.053
986	0.053
987	0.053
987	0.053
987	0.054
988	0.054
988	0.055
989	0.055
989	0.056
990	0.056
990	0.057
990	0.057
991	0.057
991	0.057
992	0.057
992	0.056
992	0.056
993	0.055
993	0.055
994	0.054
994	0.053
995	0.053
995	0.053
995	0.052
996	0.052
996	0.052
997	0.051
997	0.051
997	0.051
998	0.051
998	0.05
999	0.049
999	0.049
1000	0.048
1000	0.048
1000	0.047
1001	0.047
1001	0.047
1002	0.046
1002	0.046
1003	0.045
1003	0.044
1003	0.044
1004	0.043
1004	0.042
1005	0.04
1005	0.039
1005	0.037
1006	0.035
1006	0.034
1007	0.033
1007	0.031
1008	0.03
1008	0.029
1008	0.028
1009	0.028
1009	0.028
1010	0.028
1010	0.028
1010	0.028
1011	0.028
1011	0.028
1012	0.028
1012	0.028
1013	0.028
1013	0.027
1013	0.027
1014	0.027
1014	0.027
1015	0.027
1015	0.027
1016	0.027
1016	0.027
1016	0.027
1017	0.027
1017	0.027
1018	0.028
1018	0.028
1018	0.028
1019	0.029
1019	0.029
1020	0.029
1020	0.029
1021	0.029
1021	0.029
1021	0.029
1022	0.028
1022	0.028
1023	0.028
1023	0.028
1023	0.027
1024	0.027
1024	0.027
1025	0.026
1025	0.026
1026	0.027
1026	0.027
1026	0.027
1027	0.027
1027	0.027
1028	0.027
1028	0.028
1028	0.028
1029	0.028
1029	0.029
1030	0.029
1030	0.028
1031	0.029
1031	0.029
1031	0.028
1032	0.028
1032	0.028
1033	0.027
1033	0.027
1033	0.026
1034	0.025
1034	0.024
1035	0.024
1035	0.022
1036	0.022
1036	0.021
1036	0.021
1037	0.02
1037	0.02
1038	0.02
1038	0.02
1039	0.02
1039	0.02
1039	0.02
1040	0.021
1040	0.021
1041	0.021
1041	0.021
1041	0.021
1042	0.02
1042	0.02
1043	0.02
1043	0.019
1044	0.019
1044	0.018
1044	0.018
1045	0.017
1045	0.016
1046	0.016
1046	0.015
1046	0.015
1047	0.015
1047	0.015
1048	0.015
1048	0.015
1049	0.015
1049	0.014
1049	0.014
1050	0.013
1050	0.012
1051	0.011
1051	0.011
1051	0.01
1052	0.01
1052	0.009
1053	0.008
1053	0.008
1053	0.008
1054	0.007
1054	0.007
1055	0.007
1055	0.008
1056	0.007
1056	0.006
1056	0.006
1057	0.005
1057	0.005
1058	0.004
1058	0.003
1058	0.003
1059	0.002
1059	0.001
1060	0
1060	-0
1061	-0
1061	0
1061	0
1062	-0
1062	0.001
1063	0.001
1063	0.001
1063	0.001
1064	0.002
1064	0.002
1065	0.003
1065	0.003
1066	0.003
1066	0.004
1066	0.004
1067	0.004
1067	0.004
1068	0.004
1068	0.004
1068	0.003
1069	0.003
1069	0.002
1070	0.002
1070	0.001
1071	0
1071	-0
1071	-0.001
1072	-0.001
1072	-0.002
1073	-0.002
1073	-0.002
1073	-0.003
1074	-0.003
1074	-0.003
1075	-0.004
1075	-0.005
1076	-0.006
1076	-0.007
1076	-0.009
1077	-0.011
1077	-0.013
1078	-0.015
1078	-0.016
1078	-0.017
1079	-0.018
1079	-0.019
1080	-0.02
1080	-0.021
1080	-0.021
1081	-0.021
1081	-0.021
1082	-0.021
1082	-0.021
1083	-0.022
1083	-0.023
1083	-0.024
1084	-0.024
1084	-0.024
1085	-0.025
1085	-0.026
1085	-0.026
1086	-0.027
1086	-0.029
1087	-0.029
1087	-0.029
1088	-0.031
1088	-0.032
1088	-0.032
1089	-0.035
1089	-0.036
1090	-0.038
1090	-0.04
1090	-0.042
1091	-0.044
1091	-0.045
1092	-0.047
1092	-0.048
1092	-0.049
1093	-0.052
1093	-0.052
1094	-0.053
1094	-0.054
1095	-0.057
1095	-0.058
1095	-0.059
1096	-0.061
1096	-0.065
1097	-0.066
1097	-0.069
1097	-0.071
1098	-0.074
1098	-0.077
1099	-0.079
1099	-0.081
1100	-0.084
1100	-0.087
1100	-0.09
1101	-0.092
1101	-0.095
1102	-0.097
1102	-0.1
1102	-0.101
1103	-0.104
1103	-0.107
1104	-0.109
1104	-0.112
1104	-0.113
1105	-0.115
1105	-0.118
1106	-0.123
1106	-0.126
1107	-0.132
1107	-0.136
1107	-0.14
1108	-0.141
1108	-0.143
1109	-0.146
1109	-0.152
1109	-0.155
1110	-0.157
1110	-0.159
1111	-0.164
1111	-0.155
