Data from 40_to5_30sec_70mins_Absorbance__122__00122.txt Node

Date: Mon Jun 26 18:21:15 CEST 2023
User: Marek
Spectrometer: MAYP115816
Trigger mode: 0
Integration Time (sec): 2.500000E-1
Scans to average: 10
Electric dark correction enabled: true
Nonlinearity correction enabled: true
Boxcar width: 5
XAxis mode: Wavelengths
Number of Pixels in Spectrum: 2068
>>>>>Begin Spectral Data<<<<<
199	-0.961
199	-0.919
200	-0.879
200	-0.811
201	-0.77
201	-0.747
202	-0.716
202	-0.704
203	-0.696
203	-0.691
204	-0.677
204	-0.658
205	-0.643
205	-0.625
205	-0.628
206	-0.623
206	-0.625
207	-0.628
207	-0.627
208	-0.63
208	-0.63
209	-0.625
209	-0.628
210	-0.628
210	-0.636
211	-0.637
211	-0.652
212	-0.657
212	-0.654
213	-0.659
213	-0.653
213	-0.666
214	-0.669
214	-0.672
215	-0.674
215	-0.683
216	-0.685
216	-0.68
217	-0.68
217	-0.686
218	-0.693
218	-0.699
219	-0.687
219	-0.692
220	-0.7
220	-0.711
221	-0.712
221	-0.719
221	-0.722
222	-0.724
222	-0.729
223	-0.727
223	-0.731
224	-0.739
224	-0.741
225	-0.736
225	-0.731
226	-0.727
226	-0.724
227	-0.721
227	-0.725
228	-0.721
228	-0.725
229	-0.73
229	-0.728
229	-0.721
230	-0.718
230	-0.719
231	-0.722
231	-0.715
232	-0.725
232	-0.727
233	-0.726
233	-0.718
234	-0.718
234	-0.718
235	-0.721
235	-0.728
236	-0.732
236	-0.732
236	-0.735
237	-0.726
237	-0.727
238	-0.726
238	-0.729
239	-0.722
239	-0.72
240	-0.72
240	-0.723
241	-0.718
241	-0.722
242	-0.725
242	-0.732
243	-0.724
243	-0.733
243	-0.734
244	-0.737
244	-0.743
245	-0.751
245	-0.754
246	-0.767
246	-0.765
247	-0.775
247	-0.776
248	-0.782
248	-0.78
249	-0.783
249	-0.789
250	-0.781
250	-0.785
250	-0.777
251	-0.77
251	-0.779
252	-0.775
252	-0.773
253	-0.776
253	-0.781
254	-0.784
254	-0.777
255	-0.786
255	-0.779
256	-0.782
256	-0.787
257	-0.784
257	-0.789
258	-0.789
258	-0.793
258	-0.789
259	-0.798
259	-0.814
260	-0.816
260	-0.826
261	-0.834
261	-0.829
262	-0.828
262	-0.822
263	-0.814
263	-0.814
264	-0.82
264	-0.811
265	-0.809
265	-0.81
265	-0.801
266	-0.799
266	-0.8
267	-0.8
267	-0.809
268	-0.821
268	-0.824
269	-0.826
269	-0.833
270	-0.831
270	-0.851
271	-0.861
271	-0.863
272	-0.87
272	-0.879
272	-0.875
273	-0.885
273	-0.888
274	-0.887
274	-0.891
275	-0.896
275	-0.876
276	-0.879
276	-0.889
277	-0.892
277	-0.883
278	-0.891
278	-0.884
278	-0.881
279	-0.881
279	-0.884
280	-0.887
280	-0.893
281	-0.888
281	-0.885
282	-0.885
282	-0.9
283	-0.895
283	-0.891
284	-0.891
284	-0.896
285	-0.886
285	-0.894
285	-0.886
286	-0.885
286	-0.872
287	-0.87
287	-0.861
288	-0.853
288	-0.858
289	-0.856
289	-0.86
290	-0.859
290	-0.844
291	-0.841
291	-0.835
292	-0.843
292	-0.844
292	-0.851
293	-0.856
293	-0.85
294	-0.852
294	-0.845
295	-0.839
295	-0.848
296	-0.861
296	-0.861
297	-0.859
297	-0.854
298	-0.844
298	-0.843
298	-0.844
299	-0.83
299	-0.82
300	-0.82
300	-0.805
301	-0.802
301	-0.806
302	-0.806
302	-0.801
303	-0.791
303	-0.782
304	-0.773
304	-0.77
305	-0.771
305	-0.78
305	-0.786
306	-0.765
306	-0.762
307	-0.756
307	-0.753
308	-0.754
308	-0.749
309	-0.756
309	-0.749
310	-0.749
310	-0.74
311	-0.733
311	-0.73
311	-0.727
312	-0.717
312	-0.718
313	-0.71
313	-0.713
314	-0.708
314	-0.709
315	-0.703
315	-0.693
316	-0.685
316	-0.686
317	-0.678
317	-0.673
318	-0.665
318	-0.658
318	-0.649
319	-0.64
319	-0.634
320	-0.632
320	-0.635
321	-0.628
321	-0.624
322	-0.62
322	-0.618
323	-0.613
323	-0.61
324	-0.605
324	-0.596
324	-0.589
325	-0.573
325	-0.555
326	-0.544
326	-0.519
327	-0.499
327	-0.473
328	-0.444
328	-0.417
329	-0.384
329	-0.353
330	-0.321
330	-0.281
330	-0.245
331	-0.206
331	-0.169
332	-0.134
332	-0.097
333	-0.062
333	-0.023
334	0.011
334	0.043
335	0.076
335	0.104
336	0.132
336	0.158
336	0.18
337	0.203
337	0.224
338	0.245
338	0.259
339	0.278
339	0.293
340	0.304
340	0.315
341	0.325
341	0.334
342	0.344
342	0.353
342	0.359
343	0.364
343	0.372
344	0.375
344	0.379
345	0.384
345	0.387
346	0.39
346	0.392
347	0.394
347	0.396
348	0.398
348	0.4
348	0.401
349	0.402
349	0.404
350	0.405
350	0.406
351	0.407
351	0.407
352	0.407
352	0.407
353	0.407
353	0.407
354	0.407
354	0.407
354	0.406
355	0.406
355	0.405
356	0.405
356	0.405
357	0.405
357	0.404
358	0.404
358	0.404
359	0.403
359	0.403
360	0.404
360	0.404
360	0.404
361	0.403
361	0.403
362	0.403
362	0.403
363	0.403
363	0.403
364	0.402
364	0.402
365	0.402
365	0.401
366	0.401
366	0.4
366	0.4
367	0.399
367	0.399
368	0.398
368	0.398
369	0.398
369	0.398
370	0.397
370	0.397
371	0.397
371	0.396
372	0.396
372	0.395
372	0.395
373	0.395
373	0.394
374	0.394
374	0.393
375	0.392
375	0.392
376	0.391
376	0.391
377	0.391
377	0.39
378	0.39
378	0.39
378	0.39
379	0.389
379	0.389
380	0.389
380	0.388
381	0.388
381	0.387
382	0.387
382	0.386
383	0.386
383	0.385
383	0.385
384	0.384
384	0.383
385	0.383
385	0.382
386	0.382
386	0.381
387	0.381
387	0.38
388	0.38
388	0.379
389	0.379
389	0.378
389	0.378
390	0.378
390	0.377
391	0.377
391	0.377
392	0.377
392	0.377
393	0.376
393	0.376
394	0.376
394	0.375
394	0.375
395	0.374
395	0.374
396	0.373
396	0.372
397	0.372
397	0.372
398	0.371
398	0.371
399	0.37
399	0.37
400	0.369
400	0.369
400	0.369
401	0.368
401	0.368
402	0.368
402	0.367
403	0.367
403	0.367
404	0.367
404	0.366
405	0.366
405	0.366
405	0.365
406	0.365
406	0.365
407	0.364
407	0.364
408	0.363
408	0.362
409	0.362
409	0.362
410	0.362
410	0.362
411	0.362
411	0.361
411	0.361
412	0.361
412	0.36
413	0.36
413	0.36
414	0.36
414	0.359
415	0.359
415	0.358
416	0.358
416	0.357
416	0.356
417	0.356
417	0.356
418	0.355
418	0.355
419	0.355
419	0.355
420	0.355
420	0.355
421	0.355
421	0.355
421	0.355
422	0.355
422	0.355
423	0.355
423	0.355
424	0.355
424	0.354
425	0.354
425	0.354
426	0.354
426	0.354
427	0.354
427	0.354
427	0.354
428	0.354
428	0.354
429	0.354
429	0.354
430	0.354
430	0.354
431	0.353
431	0.353
432	0.353
432	0.353
432	0.352
433	0.351
433	0.351
434	0.351
434	0.351
435	0.351
435	0.351
436	0.351
436	0.351
437	0.351
437	0.351
437	0.352
438	0.352
438	0.352
439	0.352
439	0.352
440	0.352
440	0.352
441	0.351
441	0.351
442	0.351
442	0.351
442	0.351
443	0.351
443	0.351
444	0.351
444	0.351
445	0.351
445	0.352
446	0.352
446	0.352
447	0.352
447	0.352
447	0.353
448	0.353
448	0.353
449	0.354
449	0.354
450	0.354
450	0.354
451	0.355
451	0.355
452	0.355
452	0.355
452	0.356
453	0.356
453	0.356
454	0.356
454	0.357
455	0.357
455	0.358
456	0.359
456	0.359
457	0.359
457	0.36
458	0.36
458	0.36
458	0.361
459	0.361
459	0.361
460	0.361
460	0.361
461	0.362
461	0.362
462	0.363
462	0.364
463	0.365
463	0.366
463	0.367
464	0.367
464	0.368
465	0.369
465	0.37
466	0.37
466	0.371
467	0.372
467	0.373
467	0.374
468	0.374
468	0.374
469	0.375
469	0.376
470	0.378
470	0.378
471	0.379
471	0.38
472	0.381
472	0.382
472	0.383
473	0.385
473	0.386
474	0.387
474	0.388
475	0.39
475	0.391
476	0.392
476	0.394
477	0.395
477	0.397
477	0.398
478	0.399
478	0.401
479	0.403
479	0.404
480	0.406
480	0.407
481	0.409
481	0.411
482	0.412
482	0.414
482	0.416
483	0.419
483	0.422
484	0.424
484	0.425
485	0.427
485	0.43
486	0.432
486	0.434
487	0.436
487	0.439
487	0.441
488	0.443
488	0.445
489	0.448
489	0.452
490	0.455
490	0.458
491	0.461
491	0.465
492	0.468
492	0.471
492	0.474
493	0.476
493	0.48
494	0.484
494	0.488
495	0.491
495	0.494
496	0.497
496	0.5
496	0.504
497	0.507
497	0.511
498	0.515
498	0.518
499	0.522
499	0.526
500	0.53
500	0.535
501	0.539
501	0.543
501	0.547
502	0.551
502	0.555
503	0.559
503	0.563
504	0.567
504	0.57
505	0.574
505	0.578
506	0.582
506	0.586
506	0.59
507	0.594
507	0.598
508	0.603
508	0.607
509	0.611
509	0.615
510	0.619
510	0.623
511	0.627
511	0.631
511	0.635
512	0.639
512	0.643
513	0.646
513	0.65
514	0.654
514	0.658
515	0.662
515	0.666
515	0.669
516	0.673
516	0.677
517	0.68
517	0.683
518	0.686
518	0.688
519	0.69
519	0.692
520	0.694
520	0.696
520	0.698
521	0.698
521	0.7
522	0.701
522	0.703
523	0.705
523	0.707
524	0.709
524	0.71
524	0.71
525	0.711
525	0.711
526	0.712
526	0.712
527	0.712
527	0.712
528	0.711
528	0.71
529	0.709
529	0.708
529	0.708
530	0.707
530	0.706
531	0.704
531	0.703
532	0.701
532	0.699
533	0.698
533	0.695
533	0.693
534	0.69
534	0.687
535	0.684
535	0.682
536	0.679
536	0.676
537	0.672
537	0.669
538	0.665
538	0.662
538	0.658
539	0.654
539	0.65
540	0.646
540	0.641
541	0.637
541	0.632
542	0.627
542	0.622
542	0.616
543	0.611
543	0.606
544	0.601
544	0.596
545	0.591
545	0.587
546	0.582
546	0.576
547	0.57
547	0.564
547	0.559
548	0.554
548	0.549
549	0.543
549	0.538
550	0.532
550	0.526
551	0.52
551	0.514
551	0.508
552	0.503
552	0.498
553	0.492
553	0.487
554	0.48
554	0.473
555	0.467
555	0.461
556	0.455
556	0.449
556	0.443
557	0.437
557	0.432
558	0.427
558	0.421
559	0.416
559	0.411
560	0.405
560	0.4
560	0.396
561	0.392
561	0.387
562	0.381
562	0.375
563	0.369
563	0.363
564	0.357
564	0.352
564	0.346
565	0.341
565	0.335
566	0.328
566	0.323
567	0.318
567	0.313
568	0.309
568	0.304
568	0.3
569	0.296
569	0.291
570	0.287
570	0.282
571	0.279
571	0.274
572	0.27
572	0.265
573	0.26
573	0.256
573	0.251
574	0.248
574	0.244
575	0.241
575	0.238
576	0.235
576	0.229
577	0.225
577	0.223
577	0.22
578	0.217
578	0.215
579	0.212
579	0.209
580	0.203
580	0.197
581	0.192
581	0.189
581	0.187
582	0.185
582	0.182
583	0.18
583	0.176
584	0.171
584	0.166
585	0.164
585	0.163
585	0.161
586	0.158
586	0.156
587	0.153
587	0.15
588	0.147
588	0.145
589	0.143
589	0.142
590	0.141
590	0.139
590	0.139
591	0.138
591	0.135
592	0.132
592	0.129
593	0.128
593	0.126
594	0.123
594	0.121
594	0.118
595	0.116
595	0.113
596	0.111
596	0.111
597	0.111
597	0.11
598	0.108
598	0.107
598	0.105
599	0.103
599	0.101
600	0.099
600	0.097
601	0.095
601	0.093
602	0.09
602	0.088
602	0.086
603	0.086
603	0.086
604	0.085
604	0.085
605	0.086
605	0.087
606	0.085
606	0.083
606	0.082
607	0.081
607	0.079
608	0.078
608	0.075
609	0.074
609	0.072
610	0.07
610	0.068
610	0.067
611	0.067
611	0.067
612	0.068
612	0.068
613	0.068
613	0.068
614	0.066
614	0.065
614	0.064
615	0.063
615	0.061
616	0.06
616	0.059
617	0.058
617	0.056
618	0.054
618	0.053
618	0.053
619	0.053
619	0.054
620	0.055
620	0.054
621	0.053
621	0.053
622	0.052
622	0.051
622	0.049
623	0.048
623	0.048
624	0.048
624	0.046
625	0.045
625	0.044
626	0.044
626	0.043
626	0.044
627	0.044
627	0.044
628	0.044
628	0.043
629	0.042
629	0.041
630	0.04
630	0.039
630	0.039
631	0.038
631	0.037
632	0.035
632	0.034
633	0.034
633	0.034
634	0.034
634	0.035
634	0.034
635	0.034
635	0.033
636	0.033
636	0.032
637	0.031
637	0.029
638	0.028
638	0.026
638	0.024
639	0.022
639	0.02
640	0.018
640	0.016
641	0.014
641	0.012
642	0.011
642	0.009
642	0.008
643	0.006
643	0.004
644	0.002
644	-0
645	-0.002
645	-0.004
646	-0.007
646	-0.01
646	-0.012
647	-0.015
647	-0.018
648	-0.021
648	-0.025
649	-0.029
649	-0.033
650	-0.037
650	-0.041
650	-0.047
651	-0.053
651	-0.06
652	-0.067
652	-0.075
653	-0.081
653	-0.088
653	-0.084
654	-0.08
654	-0.087
655	-0.094
655	-0.099
656	-0.105
656	-0.111
657	-0.115
657	-0.119
657	-0.125
658	-0.131
658	-0.156
659	-0.211
659	-0.252
660	-0.275
660	-0.293
661	-0.31
661	-0.331
661	-0.354
662	-0.371
662	-0.389
663	-0.405
663	-0.425
664	-0.437
664	-0.46
665	-0.478
665	-0.493
665	-0.514
666	-0.53
666	-0.546
667	-0.565
667	-0.582
668	-0.604
668	-0.633
669	-0.662
669	-0.683
669	-0.702
670	-0.647
670	-0.464
671	-0.133
671	-0.183
672	-1.08
672	-1.759
672	-2.127
673	-2.333
673	-2.428
674	-2.454
674	-2.463
675	-2.516
675	-2.656
676	-2.808
676	-2.764
676	-2.607
677	-2.455
677	-2.266
678	-1.939
678	-1.437
679	-1.121
679	-1.004
680	-0.948
680	-0.916
680	-0.893
681	-0.881
681	-0.873
682	-0.864
682	-0.845
683	-0.825
683	-0.831
684	-0.835
684	-0.838
684	-0.841
685	-0.85
685	-0.847
686	-0.84
686	-0.828
687	-0.834
687	-0.846
687	-0.846
688	-0.833
688	-0.834
689	-0.827
689	-0.838
690	-0.831
690	-0.84
691	-0.851
691	-0.862
691	-0.861
692	-0.859
692	-0.862
693	-0.871
693	-0.886
694	-0.888
694	-0.881
695	-0.888
695	-0.883
695	-0.881
696	-0.877
696	-0.882
697	-0.889
697	-0.888
698	-0.889
698	-0.867
698	-0.872
699	-0.862
699	-0.859
700	-0.856
700	-0.861
701	-0.866
701	-0.871
702	-0.867
702	-0.872
702	-0.883
703	-0.887
703	-0.891
704	-0.9
704	-0.902
705	-0.901
705	-0.899
705	-0.901
706	-0.896
706	-0.892
707	-0.895
707	-0.88
708	-0.884
708	-0.881
709	-0.89
709	-0.887
709	-0.883
710	-0.883
710	-0.885
711	-0.878
711	-0.885
712	-0.876
712	-0.884
713	-0.881
713	-0.888
713	-0.887
714	-0.879
714	-0.878
715	-0.882
715	-0.884
716	-0.902
716	-0.903
716	-0.909
717	-0.898
717	-0.901
718	-0.89
718	-0.879
719	-0.898
719	-0.905
720	-0.895
720	-0.903
720	-0.887
721	-0.882
721	-0.886
722	-0.886
722	-0.876
723	-0.872
723	-0.878
723	-0.871
724	-0.87
724	-0.87
725	-0.858
725	-0.859
726	-0.861
726	-0.854
727	-0.863
727	-0.863
727	-0.873
728	-0.869
728	-0.862
729	-0.869
729	-0.875
730	-0.885
730	-0.887
730	-0.894
731	-0.9
731	-0.901
732	-0.909
732	-0.905
733	-0.909
733	-0.911
734	-0.899
734	-0.9
734	-0.889
735	-0.897
735	-0.896
736	-0.891
736	-0.896
737	-0.897
737	-0.904
737	-0.909
738	-0.916
738	-0.913
739	-0.908
739	-0.926
740	-0.921
740	-0.92
741	-0.928
741	-0.928
741	-0.92
742	-0.919
742	-0.91
743	-0.902
743	-0.901
744	-0.897
744	-0.874
744	-0.871
745	-0.877
745	-0.869
746	-0.861
746	-0.866
747	-0.863
747	-0.863
748	-0.865
748	-0.877
748	-0.886
749	-0.893
749	-0.903
750	-0.885
750	-0.888
751	-0.885
751	-0.893
751	-0.893
752	-0.897
752	-0.901
753	-0.894
753	-0.893
754	-0.901
754	-0.888
754	-0.89
755	-0.885
755	-0.882
756	-0.872
756	-0.872
757	-0.865
757	-0.857
758	-0.864
758	-0.856
758	-0.855
759	-0.861
759	-0.867
760	-0.884
760	-0.893
761	-0.897
761	-0.888
761	-0.901
762	-0.903
762	-0.901
763	-0.904
763	-0.905
764	-0.903
764	-0.913
764	-0.902
765	-0.908
765	-0.899
766	-0.917
766	-0.925
767	-0.934
767	-0.926
768	-0.931
768	-0.932
768	-0.926
769	-0.922
769	-0.922
770	-0.933
770	-0.938
771	-0.932
771	-0.926
771	-0.935
772	-0.948
772	-0.955
773	-0.951
773	-0.963
774	-0.963
774	-0.967
775	-0.948
775	-0.952
775	-0.954
776	-0.943
776	-0.934
777	-0.933
777	-0.941
778	-0.939
778	-0.931
778	-0.937
779	-0.932
779	-0.943
780	-0.964
780	-0.979
781	-0.987
781	-0.992
781	-1.008
782	-1.002
782	-1.006
783	-1.004
783	-1.01
784	-1.02
784	-1.011
784	-0.996
785	-0.976
785	-0.975
786	-0.972
786	-0.964
787	-0.953
787	-0.956
788	-0.959
788	-0.949
788	-0.954
789	-0.959
789	-0.968
790	-0.968
790	-0.967
791	-0.964
791	-0.956
791	-0.965
792	-0.96
792	-0.96
793	-0.957
793	-0.955
794	-0.951
794	-0.931
794	-0.949
795	-0.94
795	-0.942
796	-0.946
796	-0.944
797	-0.942
797	-0.957
797	-0.951
798	-0.942
798	-0.943
799	-0.944
799	-0.928
800	-0.929
800	-0.928
801	-0.925
801	-0.917
801	-0.915
802	-0.907
802	-0.909
803	-0.906
803	-0.902
804	-0.905
804	-0.91
804	-0.913
805	-0.901
805	-0.888
806	-0.889
806	-0.884
807	-0.882
807	-0.878
807	-0.87
808	-0.858
808	-0.854
809	-0.842
809	-0.836
810	-0.852
810	-0.848
810	-0.849
811	-0.85
811	-0.843
812	-0.841
812	-0.847
813	-0.855
813	-0.862
813	-0.87
814	-0.872
814	-0.86
815	-0.863
815	-0.862
816	-0.855
816	-0.856
817	-0.859
817	-0.872
817	-0.876
818	-0.864
818	-0.867
819	-0.874
819	-0.88
820	-0.888
820	-0.891
820	-0.897
821	-0.901
821	-0.909
822	-0.898
822	-0.899
823	-0.904
823	-0.903
823	-0.898
824	-0.895
824	-0.899
825	-0.892
825	-0.888
826	-0.878
826	-0.869
826	-0.872
827	-0.865
827	-0.854
828	-0.84
828	-0.836
829	-0.831
829	-0.812
829	-0.816
830	-0.804
830	-0.799
831	-0.796
831	-0.789
832	-0.782
832	-0.778
832	-0.779
833	-0.775
833	-0.778
834	-0.775
834	-0.765
835	-0.768
835	-0.761
835	-0.752
836	-0.738
836	-0.732
837	-0.725
837	-0.717
838	-0.715
838	-0.701
839	-0.692
839	-0.682
839	-0.674
840	-0.673
840	-0.666
841	-0.666
841	-0.654
842	-0.648
842	-0.635
842	-0.619
843	-0.609
843	-0.604
844	-0.599
844	-0.587
845	-0.575
845	-0.566
845	-0.552
846	-0.544
846	-0.532
847	-0.52
847	-0.511
848	-0.498
848	-0.484
848	-0.471
849	-0.459
849	-0.445
850	-0.429
850	-0.422
851	-0.409
851	-0.393
851	-0.384
852	-0.367
852	-0.354
853	-0.346
853	-0.338
854	-0.327
854	-0.317
854	-0.308
855	-0.297
855	-0.288
856	-0.282
856	-0.273
857	-0.265
857	-0.257
857	-0.244
858	-0.232
858	-0.225
859	-0.216
859	-0.204
860	-0.195
860	-0.181
860	-0.17
861	-0.16
861	-0.151
862	-0.142
862	-0.134
863	-0.126
863	-0.117
863	-0.11
864	-0.104
864	-0.096
865	-0.09
865	-0.085
866	-0.079
866	-0.074
866	-0.069
867	-0.064
867	-0.058
868	-0.054
868	-0.05
869	-0.045
869	-0.042
869	-0.039
870	-0.036
870	-0.033
871	-0.031
871	-0.03
872	-0.029
872	-0.03
872	-0.03
873	-0.032
873	-0.035
874	-0.037
874	-0.04
875	-0.043
875	-0.045
875	-0.047
876	-0.049
876	-0.052
877	-0.054
877	-0.056
878	-0.058
878	-0.059
878	-0.06
879	-0.059
879	-0.059
880	-0.058
880	-0.057
881	-0.057
881	-0.056
881	-0.056
882	-0.056
882	-0.056
883	-0.057
883	-0.058
884	-0.059
884	-0.059
884	-0.06
885	-0.06
885	-0.06
886	-0.061
886	-0.061
887	-0.062
887	-0.063
887	-0.063
888	-0.063
888	-0.064
889	-0.065
889	-0.065
890	-0.065
890	-0.065
890	-0.065
891	-0.065
891	-0.065
892	-0.064
892	-0.064
893	-0.064
893	-0.064
893	-0.064
894	-0.064
894	-0.065
895	-0.065
895	-0.065
895	-0.065
896	-0.065
896	-0.065
897	-0.065
897	-0.064
898	-0.063
898	-0.062
898	-0.061
899	-0.059
899	-0.058
900	-0.056
900	-0.055
901	-0.054
901	-0.052
901	-0.051
902	-0.05
902	-0.049
903	-0.047
903	-0.046
904	-0.045
904	-0.044
904	-0.043
905	-0.042
905	-0.042
906	-0.041
906	-0.041
907	-0.04
907	-0.039
907	-0.039
908	-0.039
908	-0.039
909	-0.039
909	-0.038
910	-0.038
910	-0.037
910	-0.035
911	-0.034
911	-0.033
912	-0.032
912	-0.031
913	-0.03
913	-0.03
913	-0.03
914	-0.03
914	-0.03
915	-0.031
915	-0.031
916	-0.032
916	-0.032
916	-0.033
917	-0.033
917	-0.034
918	-0.034
918	-0.034
918	-0.033
919	-0.033
919	-0.033
920	-0.032
920	-0.032
921	-0.032
921	-0.032
921	-0.032
922	-0.032
922	-0.032
923	-0.033
923	-0.034
924	-0.034
924	-0.035
924	-0.036
925	-0.036
925	-0.037
926	-0.038
926	-0.038
927	-0.039
927	-0.04
927	-0.04
928	-0.04
928	-0.041
929	-0.041
929	-0.041
930	-0.041
930	-0.041
930	-0.042
931	-0.042
931	-0.042
932	-0.042
932	-0.042
933	-0.043
933	-0.043
933	-0.045
934	-0.046
934	-0.047
935	-0.048
935	-0.049
935	-0.05
936	-0.051
936	-0.052
937	-0.053
937	-0.054
938	-0.054
938	-0.055
938	-0.055
939	-0.056
939	-0.055
940	-0.055
940	-0.055
941	-0.055
941	-0.055
941	-0.054
942	-0.054
942	-0.054
943	-0.054
943	-0.054
944	-0.054
944	-0.054
944	-0.054
945	-0.053
945	-0.053
946	-0.052
946	-0.051
946	-0.05
947	-0.049
947	-0.049
948	-0.048
948	-0.047
949	-0.048
949	-0.047
949	-0.047
950	-0.047
950	-0.047
951	-0.046
951	-0.047
952	-0.047
952	-0.047
952	-0.047
953	-0.047
953	-0.045
954	-0.044
954	-0.043
955	-0.041
955	-0.039
955	-0.037
956	-0.034
956	-0.032
957	-0.03
957	-0.028
957	-0.027
958	-0.025
958	-0.024
959	-0.024
959	-0.024
960	-0.023
960	-0.023
960	-0.023
961	-0.023
961	-0.022
962	-0.022
962	-0.022
963	-0.022
963	-0.022
963	-0.022
964	-0.022
964	-0.022
965	-0.022
965	-0.022
966	-0.022
966	-0.022
966	-0.021
967	-0.021
967	-0.022
968	-0.023
968	-0.024
968	-0.024
969	-0.026
969	-0.027
970	-0.027
970	-0.029
971	-0.03
971	-0.031
971	-0.032
972	-0.032
972	-0.032
973	-0.031
973	-0.031
974	-0.03
974	-0.03
974	-0.03
975	-0.029
975	-0.029
976	-0.029
976	-0.029
976	-0.029
977	-0.029
977	-0.03
978	-0.031
978	-0.031
979	-0.032
979	-0.032
979	-0.033
980	-0.034
980	-0.034
981	-0.035
981	-0.036
982	-0.036
982	-0.037
982	-0.038
983	-0.038
983	-0.039
984	-0.04
984	-0.042
984	-0.043
985	-0.043
985	-0.044
986	-0.045
986	-0.045
987	-0.045
987	-0.045
987	-0.045
988	-0.045
988	-0.044
989	-0.044
989	-0.043
990	-0.043
990	-0.043
990	-0.043
991	-0.043
991	-0.044
992	-0.044
992	-0.045
992	-0.046
993	-0.047
993	-0.048
994	-0.049
994	-0.05
995	-0.051
995	-0.051
995	-0.052
996	-0.053
996	-0.054
997	-0.055
997	-0.055
997	-0.056
998	-0.056
998	-0.056
999	-0.057
999	-0.057
1000	-0.058
1000	-0.058
1000	-0.058
1001	-0.058
1001	-0.059
1002	-0.059
1002	-0.059
1003	-0.06
1003	-0.061
1003	-0.061
1004	-0.062
1004	-0.063
1005	-0.065
1005	-0.066
1005	-0.068
1006	-0.069
1006	-0.071
1007	-0.072
1007	-0.073
1008	-0.074
1008	-0.075
1008	-0.076
1009	-0.076
1009	-0.076
1010	-0.076
1010	-0.076
1010	-0.076
1011	-0.076
1011	-0.076
1012	-0.076
1012	-0.076
1013	-0.076
1013	-0.076
1013	-0.076
1014	-0.077
1014	-0.077
1015	-0.077
1015	-0.077
1016	-0.077
1016	-0.078
1016	-0.078
1017	-0.078
1017	-0.077
1018	-0.077
1018	-0.077
1018	-0.077
1019	-0.076
1019	-0.077
1020	-0.077
1020	-0.077
1021	-0.078
1021	-0.078
1021	-0.078
1022	-0.079
1022	-0.079
1023	-0.079
1023	-0.08
1023	-0.08
1024	-0.08
1024	-0.08
1025	-0.08
1025	-0.079
1026	-0.079
1026	-0.078
1026	-0.077
1027	-0.077
1027	-0.077
1028	-0.076
1028	-0.076
1028	-0.075
1029	-0.075
1029	-0.074
1030	-0.074
1030	-0.074
1031	-0.073
1031	-0.073
1031	-0.073
1032	-0.073
1032	-0.073
1033	-0.073
1033	-0.073
1033	-0.074
1034	-0.075
1034	-0.076
1035	-0.076
1035	-0.077
1036	-0.078
1036	-0.078
1036	-0.079
1037	-0.079
1037	-0.079
1038	-0.079
1038	-0.079
1039	-0.078
1039	-0.078
1039	-0.078
1040	-0.077
1040	-0.077
1041	-0.076
1041	-0.077
1041	-0.077
1042	-0.077
1042	-0.078
1043	-0.078
1043	-0.078
1044	-0.079
1044	-0.08
1044	-0.08
1045	-0.081
1045	-0.082
1046	-0.082
1046	-0.083
1046	-0.082
1047	-0.082
1047	-0.082
1048	-0.082
1048	-0.082
1049	-0.083
1049	-0.084
1049	-0.084
1050	-0.084
1050	-0.085
1051	-0.086
1051	-0.087
1051	-0.087
1052	-0.088
1052	-0.089
1053	-0.09
1053	-0.09
1053	-0.09
1054	-0.09
1054	-0.09
1055	-0.09
1055	-0.09
1056	-0.09
1056	-0.09
1056	-0.091
1057	-0.091
1057	-0.091
1058	-0.092
1058	-0.092
1058	-0.093
1059	-0.094
1059	-0.094
1060	-0.095
1060	-0.095
1061	-0.095
1061	-0.094
1061	-0.094
1062	-0.094
1062	-0.093
1063	-0.092
1063	-0.092
1063	-0.091
1064	-0.09
1064	-0.089
1065	-0.089
1065	-0.088
1066	-0.087
1066	-0.087
1066	-0.086
1067	-0.085
1067	-0.085
1068	-0.084
1068	-0.084
1068	-0.084
1069	-0.085
1069	-0.085
1070	-0.085
1070	-0.086
1071	-0.086
1071	-0.087
1071	-0.087
1072	-0.088
1072	-0.088
1073	-0.089
1073	-0.089
1073	-0.09
1074	-0.09
1074	-0.09
1075	-0.092
1075	-0.092
1076	-0.094
1076	-0.095
1076	-0.096
1077	-0.098
1077	-0.1
1078	-0.101
1078	-0.102
1078	-0.103
1079	-0.104
1079	-0.104
1080	-0.105
1080	-0.105
1080	-0.106
1081	-0.106
1081	-0.106
1082	-0.106
1082	-0.106
1083	-0.106
1083	-0.107
1083	-0.107
1084	-0.108
1084	-0.109
1085	-0.109
1085	-0.11
1085	-0.11
1086	-0.111
1086	-0.112
1087	-0.112
1087	-0.113
1088	-0.114
1088	-0.115
1088	-0.115
1089	-0.117
1089	-0.118
1090	-0.12
1090	-0.122
1090	-0.124
1091	-0.125
1091	-0.127
1092	-0.129
1092	-0.129
1092	-0.131
1093	-0.133
1093	-0.133
1094	-0.134
1094	-0.136
1095	-0.138
1095	-0.139
1095	-0.14
1096	-0.143
1096	-0.146
1097	-0.147
1097	-0.15
1097	-0.152
1098	-0.155
1098	-0.158
1099	-0.159
1099	-0.161
1100	-0.163
1100	-0.165
1100	-0.168
1101	-0.169
1101	-0.173
1102	-0.174
1102	-0.176
1102	-0.177
1103	-0.18
1103	-0.182
1104	-0.185
1104	-0.187
1104	-0.188
1105	-0.19
1105	-0.194
1106	-0.199
1106	-0.201
1107	-0.206
1107	-0.21
1107	-0.213
1108	-0.215
1108	-0.216
1109	-0.22
1109	-0.226
1109	-0.229
1110	-0.228
1110	-0.229
1111	-0.235
1111	-0.231
