Data from 40_to5_30sec_70mins_Absorbance__71__00071.txt Node

Date: Mon Jun 26 17:55:45 CEST 2023
User: Marek
Spectrometer: MAYP115816
Trigger mode: 0
Integration Time (sec): 2.500000E-1
Scans to average: 10
Electric dark correction enabled: true
Nonlinearity correction enabled: true
Boxcar width: 5
XAxis mode: Wavelengths
Number of Pixels in Spectrum: 2068
>>>>>Begin Spectral Data<<<<<
199	-0.879
199	-0.847
200	-0.808
200	-0.744
201	-0.708
201	-0.689
202	-0.659
202	-0.644
203	-0.64
203	-0.635
204	-0.625
204	-0.606
205	-0.592
205	-0.573
205	-0.575
206	-0.567
206	-0.566
207	-0.568
207	-0.571
208	-0.572
208	-0.571
209	-0.566
209	-0.57
210	-0.569
210	-0.578
211	-0.58
211	-0.596
212	-0.602
212	-0.6
213	-0.604
213	-0.596
213	-0.609
214	-0.609
214	-0.613
215	-0.614
215	-0.623
216	-0.625
216	-0.621
217	-0.618
217	-0.624
218	-0.631
218	-0.638
219	-0.627
219	-0.632
220	-0.639
220	-0.65
221	-0.652
221	-0.658
221	-0.662
222	-0.666
222	-0.67
223	-0.67
223	-0.673
224	-0.681
224	-0.685
225	-0.68
225	-0.676
226	-0.673
226	-0.67
227	-0.667
227	-0.672
228	-0.668
228	-0.673
229	-0.678
229	-0.674
229	-0.667
230	-0.665
230	-0.665
231	-0.666
231	-0.662
232	-0.671
232	-0.672
233	-0.669
233	-0.659
234	-0.663
234	-0.664
235	-0.666
235	-0.671
236	-0.675
236	-0.673
236	-0.673
237	-0.664
237	-0.666
238	-0.667
238	-0.67
239	-0.66
239	-0.659
240	-0.659
240	-0.663
241	-0.66
241	-0.665
242	-0.667
242	-0.674
243	-0.666
243	-0.674
243	-0.675
244	-0.679
244	-0.685
245	-0.696
245	-0.698
246	-0.712
246	-0.711
247	-0.722
247	-0.721
248	-0.726
248	-0.723
249	-0.727
249	-0.732
250	-0.723
250	-0.727
250	-0.718
251	-0.711
251	-0.72
252	-0.715
252	-0.715
253	-0.718
253	-0.725
254	-0.728
254	-0.722
255	-0.731
255	-0.724
256	-0.726
256	-0.731
257	-0.728
257	-0.733
258	-0.736
258	-0.74
258	-0.736
259	-0.744
259	-0.762
260	-0.764
260	-0.775
261	-0.786
261	-0.782
262	-0.779
262	-0.773
263	-0.764
263	-0.763
264	-0.768
264	-0.761
265	-0.756
265	-0.756
265	-0.745
266	-0.743
266	-0.745
267	-0.745
267	-0.754
268	-0.765
268	-0.77
269	-0.771
269	-0.776
270	-0.775
270	-0.795
271	-0.808
271	-0.808
272	-0.813
272	-0.823
272	-0.819
273	-0.829
273	-0.834
274	-0.834
274	-0.836
275	-0.842
275	-0.822
276	-0.823
276	-0.834
277	-0.837
277	-0.83
278	-0.839
278	-0.834
278	-0.828
279	-0.828
279	-0.83
280	-0.833
280	-0.84
281	-0.834
281	-0.829
282	-0.83
282	-0.842
283	-0.836
283	-0.83
284	-0.83
284	-0.835
285	-0.829
285	-0.837
285	-0.829
286	-0.83
286	-0.819
287	-0.819
287	-0.809
288	-0.802
288	-0.809
289	-0.808
289	-0.81
290	-0.809
290	-0.792
291	-0.79
291	-0.784
292	-0.791
292	-0.79
292	-0.798
293	-0.803
293	-0.795
294	-0.794
294	-0.787
295	-0.78
295	-0.791
296	-0.804
296	-0.804
297	-0.8
297	-0.794
298	-0.785
298	-0.784
298	-0.785
299	-0.774
299	-0.766
300	-0.766
300	-0.751
301	-0.747
301	-0.751
302	-0.751
302	-0.747
303	-0.737
303	-0.728
304	-0.721
304	-0.717
305	-0.715
305	-0.723
305	-0.729
306	-0.709
306	-0.705
307	-0.699
307	-0.697
308	-0.698
308	-0.694
309	-0.701
309	-0.696
310	-0.696
310	-0.688
311	-0.679
311	-0.678
311	-0.675
312	-0.664
312	-0.664
313	-0.656
313	-0.658
314	-0.651
314	-0.653
315	-0.649
315	-0.639
316	-0.631
316	-0.63
317	-0.623
317	-0.619
318	-0.612
318	-0.607
318	-0.599
319	-0.59
319	-0.583
320	-0.581
320	-0.582
321	-0.576
321	-0.574
322	-0.568
322	-0.568
323	-0.563
323	-0.558
324	-0.553
324	-0.548
324	-0.542
325	-0.526
325	-0.509
326	-0.499
326	-0.474
327	-0.456
327	-0.434
328	-0.406
328	-0.382
329	-0.354
329	-0.325
330	-0.294
330	-0.259
330	-0.227
331	-0.194
331	-0.163
332	-0.132
332	-0.101
333	-0.073
333	-0.04
334	-0.012
334	0.014
335	0.038
335	0.059
336	0.081
336	0.101
336	0.118
337	0.135
337	0.151
338	0.166
338	0.176
339	0.19
339	0.2
340	0.208
340	0.217
341	0.224
341	0.23
342	0.237
342	0.243
342	0.248
343	0.252
343	0.257
344	0.26
344	0.263
345	0.266
345	0.268
346	0.271
346	0.273
347	0.274
347	0.276
348	0.278
348	0.28
348	0.281
349	0.282
349	0.283
350	0.284
350	0.285
351	0.286
351	0.286
352	0.286
352	0.287
353	0.287
353	0.287
354	0.288
354	0.288
354	0.288
355	0.288
355	0.288
356	0.288
356	0.288
357	0.289
357	0.289
358	0.289
358	0.289
359	0.289
359	0.289
360	0.289
360	0.289
360	0.289
361	0.289
361	0.289
362	0.289
362	0.289
363	0.289
363	0.29
364	0.29
364	0.29
365	0.29
365	0.29
366	0.29
366	0.29
366	0.291
367	0.291
367	0.291
368	0.291
368	0.291
369	0.291
369	0.291
370	0.291
370	0.291
371	0.291
371	0.291
372	0.291
372	0.291
372	0.291
373	0.291
373	0.291
374	0.291
374	0.291
375	0.29
375	0.29
376	0.29
376	0.29
377	0.291
377	0.291
378	0.291
378	0.291
378	0.291
379	0.291
379	0.291
380	0.291
380	0.291
381	0.291
381	0.291
382	0.291
382	0.29
383	0.29
383	0.29
383	0.29
384	0.289
384	0.289
385	0.289
385	0.289
386	0.289
386	0.289
387	0.289
387	0.289
388	0.289
388	0.289
389	0.289
389	0.289
389	0.289
390	0.289
390	0.289
391	0.289
391	0.289
392	0.289
392	0.289
393	0.288
393	0.289
394	0.288
394	0.288
394	0.288
395	0.288
395	0.288
396	0.288
396	0.287
397	0.287
397	0.287
398	0.287
398	0.287
399	0.287
399	0.287
400	0.287
400	0.286
400	0.287
401	0.286
401	0.286
402	0.286
402	0.286
403	0.286
403	0.286
404	0.286
404	0.286
405	0.286
405	0.286
405	0.285
406	0.285
406	0.285
407	0.285
407	0.285
408	0.284
408	0.284
409	0.284
409	0.284
410	0.284
410	0.284
411	0.284
411	0.284
411	0.284
412	0.284
412	0.284
413	0.284
413	0.284
414	0.283
414	0.283
415	0.283
415	0.282
416	0.282
416	0.282
416	0.281
417	0.281
417	0.281
418	0.28
418	0.28
419	0.28
419	0.28
420	0.28
420	0.28
421	0.28
421	0.28
421	0.28
422	0.28
422	0.281
423	0.281
423	0.28
424	0.28
424	0.28
425	0.28
425	0.28
426	0.28
426	0.28
427	0.28
427	0.28
427	0.28
428	0.28
428	0.28
429	0.28
429	0.28
430	0.28
430	0.279
431	0.279
431	0.279
432	0.278
432	0.278
432	0.277
433	0.277
433	0.277
434	0.276
434	0.276
435	0.276
435	0.276
436	0.276
436	0.276
437	0.276
437	0.276
437	0.276
438	0.277
438	0.277
439	0.277
439	0.276
440	0.276
440	0.276
441	0.275
441	0.275
442	0.275
442	0.275
442	0.274
443	0.274
443	0.274
444	0.274
444	0.274
445	0.274
445	0.274
446	0.275
446	0.275
447	0.275
447	0.274
447	0.274
448	0.275
448	0.275
449	0.275
449	0.275
450	0.275
450	0.274
451	0.274
451	0.274
452	0.273
452	0.273
452	0.273
453	0.273
453	0.273
454	0.273
454	0.273
455	0.273
455	0.274
456	0.274
456	0.274
457	0.274
457	0.274
458	0.273
458	0.273
458	0.273
459	0.273
459	0.273
460	0.273
460	0.272
461	0.272
461	0.273
462	0.273
462	0.274
463	0.274
463	0.274
463	0.274
464	0.274
464	0.274
465	0.274
465	0.275
466	0.275
466	0.275
467	0.275
467	0.274
467	0.274
468	0.274
468	0.274
469	0.274
469	0.274
470	0.275
470	0.275
471	0.275
471	0.275
472	0.275
472	0.275
472	0.275
473	0.276
473	0.276
474	0.276
474	0.276
475	0.277
475	0.277
476	0.277
476	0.278
477	0.278
477	0.278
477	0.279
478	0.279
478	0.28
479	0.281
479	0.281
480	0.281
480	0.281
481	0.282
481	0.283
482	0.283
482	0.284
482	0.284
483	0.286
483	0.287
484	0.287
484	0.287
485	0.288
485	0.288
486	0.289
486	0.289
487	0.29
487	0.291
487	0.291
488	0.291
488	0.292
489	0.293
489	0.295
490	0.296
490	0.297
491	0.299
491	0.3
492	0.301
492	0.302
492	0.303
493	0.305
493	0.306
494	0.308
494	0.309
495	0.31
495	0.312
496	0.313
496	0.314
496	0.316
497	0.317
497	0.318
498	0.32
498	0.321
499	0.322
499	0.324
500	0.326
500	0.328
501	0.329
501	0.331
501	0.332
502	0.333
502	0.335
503	0.337
503	0.339
504	0.34
504	0.342
505	0.343
505	0.345
506	0.347
506	0.349
506	0.351
507	0.353
507	0.354
508	0.356
508	0.358
509	0.36
509	0.362
510	0.364
510	0.366
511	0.368
511	0.37
511	0.372
512	0.374
512	0.376
513	0.378
513	0.38
514	0.382
514	0.384
515	0.386
515	0.388
515	0.39
516	0.393
516	0.395
517	0.397
517	0.399
518	0.401
518	0.403
519	0.405
519	0.406
520	0.408
520	0.41
520	0.411
521	0.412
521	0.414
522	0.415
522	0.417
523	0.419
523	0.421
524	0.422
524	0.424
524	0.425
525	0.427
525	0.428
526	0.43
526	0.432
527	0.434
527	0.435
528	0.437
528	0.438
529	0.439
529	0.441
529	0.442
530	0.444
530	0.446
531	0.447
531	0.448
532	0.45
532	0.451
533	0.453
533	0.454
533	0.455
534	0.456
534	0.456
535	0.458
535	0.459
536	0.46
536	0.461
537	0.463
537	0.464
538	0.465
538	0.467
538	0.468
539	0.47
539	0.471
540	0.472
540	0.472
541	0.473
541	0.474
542	0.475
542	0.476
542	0.477
543	0.477
543	0.478
544	0.478
544	0.479
545	0.481
545	0.482
546	0.483
546	0.483
547	0.483
547	0.484
547	0.485
548	0.486
548	0.486
549	0.487
549	0.488
550	0.488
550	0.489
551	0.489
551	0.49
551	0.491
552	0.492
552	0.493
553	0.493
553	0.494
554	0.494
554	0.493
555	0.493
555	0.494
556	0.494
556	0.493
556	0.493
557	0.494
557	0.494
558	0.495
558	0.495
559	0.496
559	0.497
560	0.498
560	0.498
560	0.499
561	0.501
561	0.502
562	0.502
562	0.501
563	0.5
563	0.5
564	0.499
564	0.499
564	0.499
565	0.498
565	0.497
566	0.496
566	0.495
567	0.495
567	0.495
568	0.496
568	0.495
568	0.496
569	0.496
569	0.496
570	0.496
570	0.495
571	0.496
571	0.496
572	0.495
572	0.494
573	0.494
573	0.493
573	0.493
574	0.493
574	0.493
575	0.493
575	0.494
576	0.494
576	0.492
577	0.492
577	0.492
577	0.493
578	0.492
578	0.493
579	0.493
579	0.493
580	0.491
580	0.489
581	0.487
581	0.487
581	0.487
582	0.487
582	0.487
583	0.486
583	0.485
584	0.483
584	0.481
585	0.481
585	0.482
585	0.481
586	0.481
586	0.48
587	0.479
587	0.477
588	0.476
588	0.476
589	0.476
589	0.476
590	0.476
590	0.476
590	0.477
591	0.477
591	0.476
592	0.474
592	0.473
593	0.473
593	0.472
594	0.47
594	0.468
594	0.467
595	0.466
595	0.464
596	0.463
596	0.464
597	0.465
597	0.464
598	0.463
598	0.462
598	0.461
599	0.46
599	0.458
600	0.456
600	0.455
601	0.453
601	0.451
602	0.449
602	0.448
602	0.446
603	0.446
603	0.446
604	0.446
604	0.446
605	0.447
605	0.447
606	0.446
606	0.444
606	0.443
607	0.441
607	0.44
608	0.438
608	0.435
609	0.434
609	0.432
610	0.429
610	0.427
610	0.426
611	0.426
611	0.426
612	0.426
612	0.426
613	0.425
613	0.425
614	0.423
614	0.421
614	0.42
615	0.418
615	0.417
616	0.415
616	0.413
617	0.411
617	0.409
618	0.407
618	0.405
618	0.403
619	0.402
619	0.402
620	0.401
620	0.4
621	0.398
621	0.396
622	0.393
622	0.391
622	0.388
623	0.385
623	0.384
624	0.382
624	0.379
625	0.376
625	0.374
626	0.372
626	0.37
626	0.369
627	0.367
627	0.365
628	0.363
628	0.361
629	0.357
629	0.354
630	0.35
630	0.345
630	0.341
631	0.337
631	0.332
632	0.327
632	0.321
633	0.316
633	0.31
634	0.306
634	0.301
634	0.296
635	0.291
635	0.285
636	0.279
636	0.273
637	0.266
637	0.259
638	0.251
638	0.243
638	0.235
639	0.227
639	0.217
640	0.208
640	0.199
641	0.191
641	0.182
642	0.173
642	0.165
642	0.156
643	0.147
643	0.137
644	0.127
644	0.117
645	0.107
645	0.098
646	0.088
646	0.078
646	0.068
647	0.058
647	0.048
648	0.037
648	0.026
649	0.015
649	0.005
650	-0.005
650	-0.016
650	-0.028
651	-0.042
651	-0.059
652	-0.077
652	-0.098
653	-0.115
653	-0.13
653	-0.124
654	-0.098
654	-0.087
655	-0.092
655	-0.097
656	-0.105
656	-0.113
657	-0.118
657	-0.123
657	-0.129
658	-0.138
658	-0.179
659	-0.287
659	-0.395
660	-0.44
660	-0.471
661	-0.5
661	-0.535
661	-0.571
662	-0.606
662	-0.644
663	-0.684
663	-0.73
664	-0.771
664	-0.821
665	-0.873
665	-0.924
665	-0.983
666	-1.041
666	-1.101
667	-1.164
667	-1.23
668	-1.295
668	-1.365
669	-1.44
669	-1.514
669	-1.598
670	-1.655
670	-1.686
671	-1.806
671	-2.065
672	-2.291
672	-2.46
672	-2.571
673	-2.66
673	-2.737
674	-2.801
674	-2.822
675	-2.876
675	-3.009
676	-3.139
676	-3.042
676	-2.843
677	-2.7
677	-2.606
678	-2.5
678	-2.337
679	-2.071
679	-1.891
680	-1.77
680	-1.68
680	-1.601
681	-1.539
681	-1.486
682	-1.434
682	-1.383
683	-1.33
683	-1.299
684	-1.272
684	-1.247
684	-1.224
685	-1.206
685	-1.178
686	-1.151
686	-1.118
687	-1.106
687	-1.096
687	-1.078
688	-1.051
688	-1.036
689	-1.015
689	-1.018
690	-1
690	-1.001
691	-1.003
691	-1.006
691	-0.998
692	-0.989
692	-0.986
693	-0.987
693	-0.995
694	-0.992
694	-0.977
695	-0.98
695	-0.969
695	-0.962
696	-0.953
696	-0.953
697	-0.953
697	-0.949
698	-0.946
698	-0.919
698	-0.918
699	-0.905
699	-0.9
700	-0.894
700	-0.898
701	-0.9
701	-0.904
702	-0.9
702	-0.903
702	-0.91
703	-0.913
703	-0.917
704	-0.923
704	-0.923
705	-0.919
705	-0.914
705	-0.916
706	-0.907
706	-0.902
707	-0.903
707	-0.887
708	-0.893
708	-0.889
709	-0.895
709	-0.89
709	-0.886
710	-0.886
710	-0.887
711	-0.881
711	-0.885
712	-0.877
712	-0.883
713	-0.878
713	-0.885
713	-0.886
714	-0.879
714	-0.875
715	-0.879
715	-0.879
716	-0.898
716	-0.9
716	-0.904
717	-0.893
717	-0.896
718	-0.882
718	-0.869
719	-0.886
719	-0.894
720	-0.884
720	-0.89
720	-0.871
721	-0.864
721	-0.866
722	-0.866
722	-0.857
723	-0.852
723	-0.858
723	-0.85
724	-0.849
724	-0.847
725	-0.835
725	-0.836
726	-0.839
726	-0.835
727	-0.84
727	-0.84
727	-0.851
728	-0.845
728	-0.837
729	-0.843
729	-0.849
730	-0.859
730	-0.861
730	-0.866
731	-0.87
731	-0.87
732	-0.876
732	-0.871
733	-0.874
733	-0.877
734	-0.867
734	-0.865
734	-0.854
735	-0.861
735	-0.86
736	-0.856
736	-0.861
737	-0.861
737	-0.865
737	-0.871
738	-0.876
738	-0.871
739	-0.865
739	-0.881
740	-0.875
740	-0.871
741	-0.878
741	-0.879
741	-0.875
742	-0.875
742	-0.865
743	-0.856
743	-0.855
744	-0.85
744	-0.83
744	-0.827
745	-0.833
745	-0.826
746	-0.818
746	-0.822
747	-0.819
747	-0.818
748	-0.821
748	-0.835
748	-0.844
749	-0.85
749	-0.861
750	-0.843
750	-0.845
751	-0.842
751	-0.851
751	-0.85
752	-0.853
752	-0.858
753	-0.851
753	-0.851
754	-0.859
754	-0.846
754	-0.848
755	-0.841
755	-0.837
756	-0.828
756	-0.83
757	-0.824
757	-0.814
758	-0.821
758	-0.814
758	-0.814
759	-0.818
759	-0.824
760	-0.842
760	-0.85
761	-0.856
761	-0.845
761	-0.858
762	-0.86
762	-0.857
763	-0.86
763	-0.862
764	-0.858
764	-0.869
764	-0.858
765	-0.862
765	-0.849
766	-0.866
766	-0.874
767	-0.881
767	-0.874
768	-0.88
768	-0.879
768	-0.877
769	-0.873
769	-0.872
770	-0.886
770	-0.892
771	-0.887
771	-0.879
771	-0.888
772	-0.901
772	-0.908
773	-0.904
773	-0.916
774	-0.916
774	-0.92
775	-0.899
775	-0.903
775	-0.905
776	-0.897
776	-0.893
777	-0.893
777	-0.901
778	-0.898
778	-0.889
778	-0.895
779	-0.891
779	-0.903
780	-0.926
780	-0.943
781	-0.953
781	-0.957
781	-0.972
782	-0.968
782	-0.974
783	-0.974
783	-0.98
784	-0.992
784	-0.982
784	-0.965
785	-0.943
785	-0.937
786	-0.933
786	-0.922
787	-0.911
787	-0.91
788	-0.91
788	-0.898
788	-0.9
789	-0.906
789	-0.913
790	-0.913
790	-0.914
791	-0.912
791	-0.904
791	-0.911
792	-0.906
792	-0.906
793	-0.903
793	-0.902
794	-0.897
794	-0.876
794	-0.893
795	-0.884
795	-0.883
796	-0.886
796	-0.882
797	-0.88
797	-0.895
797	-0.888
798	-0.882
798	-0.883
799	-0.885
799	-0.87
800	-0.869
800	-0.869
801	-0.868
801	-0.86
801	-0.858
802	-0.85
802	-0.85
803	-0.847
803	-0.84
804	-0.842
804	-0.849
804	-0.851
805	-0.838
805	-0.825
806	-0.827
806	-0.821
807	-0.82
807	-0.818
807	-0.809
808	-0.801
808	-0.798
809	-0.784
809	-0.778
810	-0.794
810	-0.79
810	-0.789
811	-0.793
811	-0.785
812	-0.784
812	-0.79
813	-0.796
813	-0.801
813	-0.809
814	-0.811
814	-0.797
815	-0.798
815	-0.798
816	-0.791
816	-0.792
817	-0.792
817	-0.803
817	-0.808
818	-0.797
818	-0.801
819	-0.809
819	-0.815
820	-0.826
820	-0.83
820	-0.835
821	-0.839
821	-0.847
822	-0.839
822	-0.839
823	-0.845
823	-0.844
823	-0.837
824	-0.834
824	-0.837
825	-0.829
825	-0.825
826	-0.814
826	-0.805
826	-0.81
827	-0.802
827	-0.791
828	-0.775
828	-0.771
829	-0.766
829	-0.748
829	-0.752
830	-0.739
830	-0.734
831	-0.731
831	-0.721
832	-0.714
832	-0.709
832	-0.712
833	-0.709
833	-0.711
834	-0.706
834	-0.695
835	-0.701
835	-0.694
835	-0.684
836	-0.671
836	-0.666
837	-0.658
837	-0.65
838	-0.648
838	-0.634
839	-0.625
839	-0.615
839	-0.605
840	-0.604
840	-0.601
841	-0.599
841	-0.588
842	-0.582
842	-0.571
842	-0.553
843	-0.543
843	-0.539
844	-0.532
844	-0.52
845	-0.508
845	-0.498
845	-0.483
846	-0.474
846	-0.46
847	-0.448
847	-0.44
848	-0.427
848	-0.412
848	-0.397
849	-0.384
849	-0.37
850	-0.356
850	-0.348
851	-0.334
851	-0.318
851	-0.307
852	-0.291
852	-0.278
853	-0.269
853	-0.261
854	-0.25
854	-0.238
854	-0.226
855	-0.214
855	-0.204
856	-0.196
856	-0.187
857	-0.178
857	-0.17
857	-0.157
858	-0.145
858	-0.137
859	-0.127
859	-0.116
860	-0.106
860	-0.093
860	-0.082
861	-0.07
861	-0.06
862	-0.051
862	-0.042
863	-0.033
863	-0.024
863	-0.017
864	-0.011
864	-0.002
865	0.005
865	0.01
866	0.015
866	0.02
866	0.026
867	0.031
867	0.036
868	0.04
868	0.045
869	0.049
869	0.052
869	0.055
870	0.057
870	0.06
871	0.062
871	0.062
872	0.063
872	0.062
872	0.063
873	0.062
873	0.06
874	0.058
874	0.056
875	0.055
875	0.054
875	0.052
876	0.051
876	0.05
877	0.049
877	0.048
878	0.047
878	0.046
878	0.047
879	0.047
879	0.048
880	0.048
880	0.049
881	0.049
881	0.05
881	0.05
882	0.05
882	0.049
883	0.047
883	0.046
884	0.045
884	0.045
884	0.043
885	0.042
885	0.041
886	0.04
886	0.039
887	0.038
887	0.037
887	0.036
888	0.036
888	0.035
889	0.034
889	0.034
890	0.034
890	0.034
890	0.033
891	0.034
891	0.033
892	0.033
892	0.033
893	0.032
893	0.032
893	0.032
894	0.031
894	0.03
895	0.029
895	0.028
895	0.027
896	0.027
896	0.026
897	0.026
897	0.025
898	0.025
898	0.026
898	0.027
899	0.028
899	0.029
900	0.03
900	0.032
901	0.033
901	0.034
901	0.035
902	0.037
902	0.039
903	0.04
903	0.041
904	0.042
904	0.042
904	0.043
905	0.044
905	0.044
906	0.045
906	0.045
907	0.045
907	0.045
907	0.045
908	0.045
908	0.045
909	0.045
909	0.045
910	0.045
910	0.045
910	0.046
911	0.046
911	0.047
912	0.047
912	0.047
913	0.047
913	0.047
913	0.047
914	0.046
914	0.046
915	0.045
915	0.044
916	0.043
916	0.042
916	0.041
917	0.041
917	0.041
918	0.041
918	0.041
918	0.041
919	0.042
919	0.042
920	0.043
920	0.044
921	0.044
921	0.044
921	0.045
922	0.045
922	0.045
923	0.045
923	0.045
924	0.044
924	0.044
924	0.044
925	0.043
925	0.043
926	0.042
926	0.042
927	0.041
927	0.041
927	0.04
928	0.04
928	0.039
929	0.039
929	0.039
930	0.038
930	0.038
930	0.038
931	0.037
931	0.037
932	0.037
932	0.037
933	0.036
933	0.035
933	0.034
934	0.033
934	0.032
935	0.03
935	0.029
935	0.027
936	0.026
936	0.025
937	0.023
937	0.022
938	0.021
938	0.019
938	0.018
939	0.017
939	0.017
940	0.016
940	0.016
941	0.015
941	0.014
941	0.014
942	0.013
942	0.012
943	0.012
943	0.011
944	0.011
944	0.01
944	0.01
945	0.01
945	0.01
946	0.01
946	0.011
946	0.011
947	0.012
947	0.012
948	0.012
948	0.012
949	0.011
949	0.012
949	0.012
950	0.011
950	0.011
951	0.011
951	0.011
952	0.01
952	0.01
952	0.01
953	0.01
953	0.011
954	0.012
954	0.013
955	0.014
955	0.016
955	0.017
956	0.019
956	0.02
957	0.022
957	0.024
957	0.025
958	0.026
958	0.027
959	0.028
959	0.028
960	0.028
960	0.028
960	0.028
961	0.028
961	0.028
962	0.027
962	0.027
963	0.027
963	0.027
963	0.027
964	0.027
964	0.027
965	0.027
965	0.027
966	0.027
966	0.027
966	0.027
967	0.026
967	0.026
968	0.024
968	0.023
968	0.022
969	0.021
969	0.02
970	0.019
970	0.018
971	0.017
971	0.017
971	0.016
972	0.016
972	0.017
973	0.017
973	0.018
974	0.018
974	0.019
974	0.019
975	0.02
975	0.02
976	0.02
976	0.02
976	0.02
977	0.02
977	0.02
978	0.019
978	0.019
979	0.019
979	0.019
979	0.018
980	0.018
980	0.018
981	0.018
981	0.018
982	0.017
982	0.017
982	0.017
983	0.016
983	0.016
984	0.015
984	0.015
984	0.014
985	0.014
985	0.014
986	0.014
986	0.014
987	0.014
987	0.014
987	0.014
988	0.015
988	0.015
989	0.016
989	0.017
990	0.017
990	0.017
990	0.018
991	0.018
991	0.018
992	0.018
992	0.017
992	0.017
993	0.016
993	0.016
994	0.015
994	0.014
995	0.014
995	0.014
995	0.013
996	0.013
996	0.012
997	0.012
997	0.011
997	0.011
998	0.01
998	0.01
999	0.009
999	0.008
1000	0.008
1000	0.007
1000	0.007
1001	0.006
1001	0.006
1002	0.005
1002	0.005
1003	0.004
1003	0.003
1003	0.002
1004	0.002
1004	0
1005	-0.001
1005	-0.002
1005	-0.004
1006	-0.006
1006	-0.007
1007	-0.008
1007	-0.009
1008	-0.01
1008	-0.011
1008	-0.012
1009	-0.012
1009	-0.013
1010	-0.012
1010	-0.012
1010	-0.012
1011	-0.012
1011	-0.012
1012	-0.012
1012	-0.012
1013	-0.012
1013	-0.013
1013	-0.013
1014	-0.013
1014	-0.013
1015	-0.013
1015	-0.013
1016	-0.013
1016	-0.013
1016	-0.013
1017	-0.013
1017	-0.012
1018	-0.011
1018	-0.011
1018	-0.011
1019	-0.01
1019	-0.01
1020	-0.01
1020	-0.01
1021	-0.01
1021	-0.01
1021	-0.01
1022	-0.01
1022	-0.01
1023	-0.011
1023	-0.011
1023	-0.011
1024	-0.011
1024	-0.012
1025	-0.012
1025	-0.012
1026	-0.012
1026	-0.012
1026	-0.012
1027	-0.012
1027	-0.011
1028	-0.011
1028	-0.01
1028	-0.01
1029	-0.01
1029	-0.009
1030	-0.009
1030	-0.009
1031	-0.008
1031	-0.008
1031	-0.008
1032	-0.009
1032	-0.009
1033	-0.009
1033	-0.01
1033	-0.011
1034	-0.012
1034	-0.013
1035	-0.013
1035	-0.015
1036	-0.015
1036	-0.016
1036	-0.016
1037	-0.017
1037	-0.017
1038	-0.017
1038	-0.017
1039	-0.017
1039	-0.017
1039	-0.017
1040	-0.016
1040	-0.016
1041	-0.015
1041	-0.015
1041	-0.016
1042	-0.016
1042	-0.016
1043	-0.016
1043	-0.017
1044	-0.017
1044	-0.018
1044	-0.018
1045	-0.019
1045	-0.02
1046	-0.02
1046	-0.021
1046	-0.021
1047	-0.021
1047	-0.021
1048	-0.021
1048	-0.021
1049	-0.021
1049	-0.021
1049	-0.022
1050	-0.023
1050	-0.023
1051	-0.024
1051	-0.025
1051	-0.026
1052	-0.027
1052	-0.028
1053	-0.028
1053	-0.029
1053	-0.029
1054	-0.029
1054	-0.029
1055	-0.029
1055	-0.028
1056	-0.029
1056	-0.029
1056	-0.03
1057	-0.03
1057	-0.03
1058	-0.031
1058	-0.032
1058	-0.032
1059	-0.033
1059	-0.034
1060	-0.034
1060	-0.035
1061	-0.035
1061	-0.035
1061	-0.035
1062	-0.035
1062	-0.034
1063	-0.034
1063	-0.034
1063	-0.033
1064	-0.033
1064	-0.032
1065	-0.032
1065	-0.031
1066	-0.031
1066	-0.031
1066	-0.03
1067	-0.03
1067	-0.03
1068	-0.03
1068	-0.03
1068	-0.031
1069	-0.031
1069	-0.032
1070	-0.032
1070	-0.032
1071	-0.033
1071	-0.034
1071	-0.034
1072	-0.035
1072	-0.035
1073	-0.035
1073	-0.035
1073	-0.036
1074	-0.036
1074	-0.036
1075	-0.037
1075	-0.038
1076	-0.039
1076	-0.04
1076	-0.041
1077	-0.043
1077	-0.044
1078	-0.046
1078	-0.047
1078	-0.048
1079	-0.049
1079	-0.05
1080	-0.051
1080	-0.051
1080	-0.052
1081	-0.052
1081	-0.052
1082	-0.052
1082	-0.052
1083	-0.053
1083	-0.053
1083	-0.054
1084	-0.054
1084	-0.055
1085	-0.055
1085	-0.056
1085	-0.056
1086	-0.057
1086	-0.058
1087	-0.058
1087	-0.059
1088	-0.06
1088	-0.061
1088	-0.061
1089	-0.063
1089	-0.065
1090	-0.067
1090	-0.068
1090	-0.07
1091	-0.072
1091	-0.073
1092	-0.075
1092	-0.075
1092	-0.077
1093	-0.079
1093	-0.079
1094	-0.08
1094	-0.082
1095	-0.084
1095	-0.085
1095	-0.087
1096	-0.089
1096	-0.092
1097	-0.094
1097	-0.097
1097	-0.099
1098	-0.102
1098	-0.105
1099	-0.106
1099	-0.108
1100	-0.11
1100	-0.112
1100	-0.115
1101	-0.117
1101	-0.12
1102	-0.122
1102	-0.124
1102	-0.126
1103	-0.128
1103	-0.13
1104	-0.133
1104	-0.135
1104	-0.136
1105	-0.137
1105	-0.14
1106	-0.145
1106	-0.147
1107	-0.152
1107	-0.155
1107	-0.159
1108	-0.161
1108	-0.162
1109	-0.166
1109	-0.172
1109	-0.175
1110	-0.176
1110	-0.177
1111	-0.185
1111	-0.18
