Data from 40_to5_30sec_70mins_Absorbance__61__00061.txt Node

Date: Mon Jun 26 17:50:45 CEST 2023
User: Marek
Spectrometer: MAYP115816
Trigger mode: 0
Integration Time (sec): 2.500000E-1
Scans to average: 10
Electric dark correction enabled: true
Nonlinearity correction enabled: true
Boxcar width: 5
XAxis mode: Wavelengths
Number of Pixels in Spectrum: 2068
>>>>>Begin Spectral Data<<<<<
199	-0.892
199	-0.855
200	-0.809
200	-0.742
201	-0.701
201	-0.68
202	-0.648
202	-0.634
203	-0.627
203	-0.621
204	-0.606
204	-0.585
205	-0.57
205	-0.556
205	-0.557
206	-0.551
206	-0.551
207	-0.554
207	-0.556
208	-0.558
208	-0.56
209	-0.555
209	-0.56
210	-0.56
210	-0.565
211	-0.566
211	-0.58
212	-0.584
212	-0.584
213	-0.588
213	-0.583
213	-0.592
214	-0.594
214	-0.595
215	-0.596
215	-0.605
216	-0.609
216	-0.607
217	-0.605
217	-0.609
218	-0.615
218	-0.62
219	-0.611
219	-0.616
220	-0.623
220	-0.634
221	-0.635
221	-0.642
221	-0.644
222	-0.648
222	-0.653
223	-0.651
223	-0.654
224	-0.661
224	-0.665
225	-0.661
225	-0.657
226	-0.652
226	-0.647
227	-0.645
227	-0.648
228	-0.646
228	-0.65
229	-0.657
229	-0.653
229	-0.646
230	-0.644
230	-0.645
231	-0.649
231	-0.646
232	-0.653
232	-0.656
233	-0.654
233	-0.646
234	-0.647
234	-0.65
235	-0.652
235	-0.658
236	-0.662
236	-0.659
236	-0.661
237	-0.654
237	-0.655
238	-0.654
238	-0.657
239	-0.65
239	-0.647
240	-0.648
240	-0.651
241	-0.646
241	-0.652
242	-0.652
242	-0.659
243	-0.65
243	-0.658
243	-0.658
244	-0.661
244	-0.666
245	-0.677
245	-0.679
246	-0.694
246	-0.691
247	-0.703
247	-0.701
248	-0.708
248	-0.706
249	-0.711
249	-0.716
250	-0.708
250	-0.71
250	-0.702
251	-0.693
251	-0.703
252	-0.698
252	-0.698
253	-0.7
253	-0.705
254	-0.706
254	-0.698
255	-0.707
255	-0.701
256	-0.704
256	-0.71
257	-0.707
257	-0.713
258	-0.714
258	-0.719
258	-0.718
259	-0.726
259	-0.743
260	-0.746
260	-0.756
261	-0.764
261	-0.758
262	-0.757
262	-0.75
263	-0.741
263	-0.74
264	-0.743
264	-0.738
265	-0.734
265	-0.732
265	-0.722
266	-0.722
266	-0.722
267	-0.722
267	-0.732
268	-0.743
268	-0.745
269	-0.746
269	-0.752
270	-0.751
270	-0.774
271	-0.785
271	-0.784
272	-0.791
272	-0.799
272	-0.797
273	-0.807
273	-0.812
274	-0.812
274	-0.813
275	-0.817
275	-0.798
276	-0.799
276	-0.811
277	-0.812
277	-0.806
278	-0.814
278	-0.806
278	-0.801
279	-0.802
279	-0.805
280	-0.808
280	-0.814
281	-0.809
281	-0.807
282	-0.809
282	-0.822
283	-0.818
283	-0.814
284	-0.814
284	-0.819
285	-0.811
285	-0.819
285	-0.811
286	-0.811
286	-0.796
287	-0.791
287	-0.782
288	-0.772
288	-0.777
289	-0.777
289	-0.781
290	-0.779
290	-0.764
291	-0.761
291	-0.755
292	-0.765
292	-0.768
292	-0.774
293	-0.779
293	-0.772
294	-0.77
294	-0.762
295	-0.757
295	-0.765
296	-0.778
296	-0.778
297	-0.773
297	-0.767
298	-0.759
298	-0.76
298	-0.761
299	-0.749
299	-0.74
300	-0.74
300	-0.726
301	-0.724
301	-0.729
302	-0.73
302	-0.726
303	-0.714
303	-0.707
304	-0.697
304	-0.693
305	-0.693
305	-0.701
305	-0.706
306	-0.685
306	-0.68
307	-0.674
307	-0.672
308	-0.673
308	-0.668
309	-0.675
309	-0.671
310	-0.671
310	-0.661
311	-0.652
311	-0.651
311	-0.648
312	-0.637
312	-0.637
313	-0.629
313	-0.63
314	-0.625
314	-0.626
315	-0.619
315	-0.612
316	-0.605
316	-0.608
317	-0.6
317	-0.598
318	-0.59
318	-0.586
318	-0.578
319	-0.568
319	-0.563
320	-0.561
320	-0.563
321	-0.555
321	-0.551
322	-0.546
322	-0.545
323	-0.538
323	-0.533
324	-0.528
324	-0.523
324	-0.515
325	-0.5
325	-0.481
326	-0.473
326	-0.446
327	-0.427
327	-0.401
328	-0.374
328	-0.348
329	-0.316
329	-0.285
330	-0.254
330	-0.214
330	-0.18
331	-0.142
331	-0.109
332	-0.074
332	-0.04
333	-0.009
333	0.027
334	0.058
334	0.087
335	0.115
335	0.139
336	0.163
336	0.186
336	0.205
337	0.224
337	0.243
338	0.26
338	0.272
339	0.288
339	0.3
340	0.31
340	0.32
341	0.328
341	0.335
342	0.344
342	0.351
342	0.357
343	0.36
343	0.367
344	0.37
344	0.373
345	0.377
345	0.379
346	0.382
346	0.384
347	0.385
347	0.387
348	0.389
348	0.391
348	0.392
349	0.393
349	0.394
350	0.395
350	0.396
351	0.397
351	0.397
352	0.397
352	0.397
353	0.398
353	0.398
354	0.398
354	0.397
354	0.397
355	0.397
355	0.397
356	0.397
356	0.397
357	0.398
357	0.397
358	0.397
358	0.397
359	0.397
359	0.397
360	0.397
360	0.396
360	0.396
361	0.396
361	0.396
362	0.395
362	0.395
363	0.395
363	0.395
364	0.395
364	0.395
365	0.395
365	0.394
366	0.394
366	0.393
366	0.393
367	0.393
367	0.392
368	0.392
368	0.392
369	0.391
369	0.391
370	0.39
370	0.39
371	0.39
371	0.389
372	0.389
372	0.389
372	0.388
373	0.388
373	0.387
374	0.387
374	0.386
375	0.386
375	0.386
376	0.385
376	0.385
377	0.384
377	0.384
378	0.384
378	0.383
378	0.383
379	0.383
379	0.383
380	0.382
380	0.382
381	0.382
381	0.381
382	0.381
382	0.38
383	0.379
383	0.379
383	0.378
384	0.378
384	0.377
385	0.377
385	0.376
386	0.376
386	0.375
387	0.375
387	0.375
388	0.374
388	0.374
389	0.374
389	0.373
389	0.373
390	0.373
390	0.372
391	0.372
391	0.372
392	0.371
392	0.371
393	0.37
393	0.37
394	0.37
394	0.369
394	0.369
395	0.368
395	0.368
396	0.367
396	0.366
397	0.366
397	0.366
398	0.365
398	0.365
399	0.365
399	0.364
400	0.364
400	0.363
400	0.363
401	0.363
401	0.363
402	0.362
402	0.362
403	0.362
403	0.361
404	0.361
404	0.361
405	0.36
405	0.36
405	0.359
406	0.359
406	0.359
407	0.358
407	0.358
408	0.358
408	0.357
409	0.357
409	0.357
410	0.356
410	0.356
411	0.356
411	0.356
411	0.355
412	0.355
412	0.355
413	0.354
413	0.354
414	0.354
414	0.354
415	0.353
415	0.353
416	0.352
416	0.352
416	0.351
417	0.351
417	0.351
418	0.35
418	0.35
419	0.35
419	0.35
420	0.35
420	0.35
421	0.35
421	0.35
421	0.35
422	0.35
422	0.35
423	0.35
423	0.35
424	0.349
424	0.349
425	0.349
425	0.349
426	0.349
426	0.348
427	0.348
427	0.348
427	0.348
428	0.348
428	0.348
429	0.349
429	0.348
430	0.348
430	0.348
431	0.348
431	0.348
432	0.348
432	0.348
432	0.347
433	0.346
433	0.346
434	0.346
434	0.346
435	0.346
435	0.346
436	0.346
436	0.346
437	0.346
437	0.346
437	0.346
438	0.347
438	0.346
439	0.346
439	0.346
440	0.346
440	0.346
441	0.346
441	0.345
442	0.345
442	0.345
442	0.345
443	0.345
443	0.345
444	0.345
444	0.345
445	0.346
445	0.346
446	0.347
446	0.347
447	0.347
447	0.348
447	0.348
448	0.348
448	0.348
449	0.349
449	0.349
450	0.349
450	0.349
451	0.35
451	0.35
452	0.35
452	0.35
452	0.35
453	0.351
453	0.351
454	0.351
454	0.351
455	0.352
455	0.352
456	0.353
456	0.353
457	0.354
457	0.354
458	0.354
458	0.355
458	0.355
459	0.355
459	0.355
460	0.355
460	0.356
461	0.356
461	0.357
462	0.357
462	0.358
463	0.359
463	0.36
463	0.361
464	0.362
464	0.362
465	0.363
465	0.364
466	0.365
466	0.365
467	0.366
467	0.367
467	0.367
468	0.368
468	0.368
469	0.369
469	0.37
470	0.371
470	0.372
471	0.373
471	0.374
472	0.375
472	0.376
472	0.377
473	0.379
473	0.38
474	0.381
474	0.382
475	0.383
475	0.385
476	0.386
476	0.387
477	0.388
477	0.39
477	0.391
478	0.393
478	0.395
479	0.396
479	0.398
480	0.4
480	0.401
481	0.403
481	0.405
482	0.407
482	0.409
482	0.411
483	0.413
483	0.416
484	0.418
484	0.419
485	0.421
485	0.424
486	0.426
486	0.428
487	0.43
487	0.432
487	0.435
488	0.437
488	0.439
489	0.442
489	0.446
490	0.449
490	0.452
491	0.456
491	0.459
492	0.462
492	0.465
492	0.468
493	0.471
493	0.474
494	0.478
494	0.482
495	0.485
495	0.488
496	0.491
496	0.495
496	0.499
497	0.503
497	0.506
498	0.51
498	0.514
499	0.518
499	0.522
500	0.526
500	0.531
501	0.535
501	0.539
501	0.542
502	0.546
502	0.55
503	0.554
503	0.558
504	0.562
504	0.566
505	0.57
505	0.574
506	0.579
506	0.583
506	0.588
507	0.592
507	0.596
508	0.601
508	0.605
509	0.609
509	0.613
510	0.618
510	0.622
511	0.626
511	0.63
511	0.634
512	0.638
512	0.642
513	0.646
513	0.65
514	0.654
514	0.658
515	0.661
515	0.665
515	0.668
516	0.672
516	0.676
517	0.68
517	0.682
518	0.685
518	0.687
519	0.69
519	0.692
520	0.694
520	0.696
520	0.698
521	0.699
521	0.701
522	0.702
522	0.704
523	0.705
523	0.708
524	0.709
524	0.71
524	0.71
525	0.711
525	0.711
526	0.712
526	0.712
527	0.713
527	0.713
528	0.712
528	0.712
529	0.711
529	0.711
529	0.71
530	0.709
530	0.708
531	0.706
531	0.705
532	0.703
532	0.701
533	0.699
533	0.696
533	0.694
534	0.691
534	0.688
535	0.685
535	0.683
536	0.68
536	0.676
537	0.672
537	0.669
538	0.665
538	0.662
538	0.658
539	0.654
539	0.65
540	0.646
540	0.642
541	0.637
541	0.633
542	0.628
542	0.623
542	0.618
543	0.612
543	0.607
544	0.602
544	0.597
545	0.592
545	0.587
546	0.581
546	0.575
547	0.57
547	0.564
547	0.559
548	0.554
548	0.548
549	0.543
549	0.538
550	0.532
550	0.525
551	0.519
551	0.513
551	0.508
552	0.502
552	0.496
553	0.491
553	0.485
554	0.479
554	0.473
555	0.467
555	0.461
556	0.456
556	0.449
556	0.444
557	0.438
557	0.433
558	0.427
558	0.421
559	0.415
559	0.41
560	0.404
560	0.399
560	0.394
561	0.39
561	0.385
562	0.379
562	0.374
563	0.367
563	0.362
564	0.356
564	0.351
564	0.345
565	0.339
565	0.333
566	0.327
566	0.322
567	0.316
567	0.311
568	0.306
568	0.301
568	0.297
569	0.292
569	0.288
570	0.283
570	0.278
571	0.275
571	0.271
572	0.266
572	0.262
573	0.258
573	0.253
573	0.249
574	0.246
574	0.243
575	0.239
575	0.236
576	0.233
576	0.228
577	0.224
577	0.221
577	0.218
578	0.215
578	0.212
579	0.21
579	0.206
580	0.201
580	0.195
581	0.191
581	0.188
581	0.186
582	0.183
582	0.181
583	0.178
583	0.175
584	0.17
584	0.166
585	0.164
585	0.163
585	0.16
586	0.158
586	0.155
587	0.152
587	0.149
588	0.146
588	0.144
589	0.143
589	0.142
590	0.14
590	0.139
590	0.138
591	0.136
591	0.133
592	0.131
592	0.128
593	0.127
593	0.125
594	0.122
594	0.12
594	0.117
595	0.115
595	0.113
596	0.111
596	0.11
597	0.11
597	0.108
598	0.107
598	0.105
598	0.104
599	0.102
599	0.1
600	0.097
600	0.095
601	0.094
601	0.092
602	0.089
602	0.088
602	0.086
603	0.085
603	0.085
604	0.085
604	0.085
605	0.085
605	0.085
606	0.084
606	0.082
606	0.08
607	0.079
607	0.077
608	0.075
608	0.073
609	0.071
609	0.07
610	0.068
610	0.066
610	0.066
611	0.066
611	0.067
612	0.067
612	0.067
613	0.067
613	0.067
614	0.066
614	0.064
614	0.063
615	0.062
615	0.061
616	0.06
616	0.058
617	0.057
617	0.056
618	0.055
618	0.054
618	0.053
619	0.054
619	0.054
620	0.054
620	0.054
621	0.053
621	0.052
622	0.051
622	0.05
622	0.049
623	0.047
623	0.047
624	0.046
624	0.045
625	0.044
625	0.043
626	0.043
626	0.043
626	0.043
627	0.044
627	0.044
628	0.044
628	0.044
629	0.043
629	0.043
630	0.041
630	0.04
630	0.04
631	0.039
631	0.038
632	0.036
632	0.035
633	0.034
633	0.033
634	0.033
634	0.033
634	0.032
635	0.031
635	0.03
636	0.03
636	0.029
637	0.028
637	0.027
638	0.026
638	0.024
638	0.023
639	0.021
639	0.02
640	0.018
640	0.017
641	0.015
641	0.014
642	0.012
642	0.011
642	0.009
643	0.008
643	0.006
644	0.004
644	0.002
645	0
645	-0.001
646	-0.003
646	-0.005
646	-0.007
647	-0.009
647	-0.012
648	-0.014
648	-0.017
649	-0.02
649	-0.023
650	-0.026
650	-0.029
650	-0.034
651	-0.039
651	-0.045
652	-0.051
652	-0.058
653	-0.064
653	-0.07
653	-0.068
654	-0.065
654	-0.073
655	-0.079
655	-0.084
656	-0.089
656	-0.094
657	-0.098
657	-0.101
657	-0.107
658	-0.112
658	-0.134
659	-0.182
659	-0.217
660	-0.237
660	-0.254
661	-0.269
661	-0.291
661	-0.311
662	-0.328
662	-0.345
663	-0.36
663	-0.381
664	-0.392
664	-0.414
665	-0.431
665	-0.445
665	-0.467
666	-0.483
666	-0.5
667	-0.521
667	-0.541
668	-0.563
668	-0.593
669	-0.626
669	-0.651
669	-0.675
670	-0.623
670	-0.445
671	-0.206
671	-0.593
672	-1.328
672	-1.896
672	-2.194
673	-2.377
673	-2.449
674	-2.469
674	-2.476
675	-2.529
675	-2.668
676	-2.819
676	-2.771
676	-2.6
677	-2.422
677	-2.214
678	-1.817
678	-1.286
679	-1.027
679	-0.945
680	-0.894
680	-0.86
680	-0.835
681	-0.823
681	-0.811
682	-0.802
682	-0.784
683	-0.761
683	-0.766
684	-0.77
684	-0.772
684	-0.775
685	-0.784
685	-0.781
686	-0.772
686	-0.759
687	-0.763
687	-0.774
687	-0.773
688	-0.758
688	-0.757
689	-0.752
689	-0.765
690	-0.755
690	-0.765
691	-0.777
691	-0.787
691	-0.787
692	-0.785
692	-0.79
693	-0.8
693	-0.815
694	-0.816
694	-0.806
695	-0.815
695	-0.807
695	-0.804
696	-0.801
696	-0.805
697	-0.811
697	-0.81
698	-0.811
698	-0.789
698	-0.795
699	-0.786
699	-0.784
700	-0.783
700	-0.79
701	-0.794
701	-0.8
702	-0.798
702	-0.803
702	-0.812
703	-0.815
703	-0.818
704	-0.827
704	-0.828
705	-0.826
705	-0.825
705	-0.828
706	-0.821
706	-0.816
707	-0.818
707	-0.805
708	-0.811
708	-0.807
709	-0.814
709	-0.811
709	-0.807
710	-0.806
710	-0.808
711	-0.803
711	-0.81
712	-0.802
712	-0.807
713	-0.807
713	-0.815
713	-0.817
714	-0.809
714	-0.807
715	-0.813
715	-0.814
716	-0.831
716	-0.835
716	-0.839
717	-0.83
717	-0.831
718	-0.818
718	-0.807
719	-0.828
719	-0.834
720	-0.822
720	-0.83
720	-0.814
721	-0.807
721	-0.81
722	-0.812
722	-0.802
723	-0.799
723	-0.807
723	-0.799
724	-0.801
724	-0.801
725	-0.788
725	-0.792
726	-0.794
726	-0.791
727	-0.797
727	-0.796
727	-0.806
728	-0.799
728	-0.792
729	-0.797
729	-0.802
730	-0.813
730	-0.815
730	-0.82
731	-0.824
731	-0.825
732	-0.834
732	-0.829
733	-0.832
733	-0.832
734	-0.822
734	-0.823
734	-0.814
735	-0.823
735	-0.823
736	-0.818
736	-0.823
737	-0.823
737	-0.831
737	-0.837
738	-0.846
738	-0.843
739	-0.839
739	-0.854
740	-0.849
740	-0.847
741	-0.856
741	-0.855
741	-0.849
742	-0.848
742	-0.838
743	-0.828
743	-0.826
744	-0.82
744	-0.799
744	-0.793
745	-0.799
745	-0.79
746	-0.783
746	-0.787
747	-0.784
747	-0.783
748	-0.787
748	-0.8
748	-0.809
749	-0.816
749	-0.827
750	-0.812
750	-0.814
751	-0.811
751	-0.818
751	-0.818
752	-0.821
752	-0.824
753	-0.819
753	-0.818
754	-0.826
754	-0.814
754	-0.814
755	-0.808
755	-0.805
756	-0.798
756	-0.8
757	-0.793
757	-0.785
758	-0.791
758	-0.782
758	-0.781
759	-0.787
759	-0.793
760	-0.81
760	-0.818
761	-0.823
761	-0.814
761	-0.828
762	-0.829
762	-0.827
763	-0.833
763	-0.836
764	-0.832
764	-0.839
764	-0.828
765	-0.835
765	-0.824
766	-0.841
766	-0.849
767	-0.858
767	-0.849
768	-0.853
768	-0.852
768	-0.849
769	-0.848
769	-0.847
770	-0.858
770	-0.863
771	-0.858
771	-0.851
771	-0.859
772	-0.874
772	-0.881
773	-0.875
773	-0.885
774	-0.887
774	-0.89
775	-0.871
775	-0.876
775	-0.877
776	-0.867
776	-0.86
777	-0.859
777	-0.866
778	-0.865
778	-0.859
778	-0.864
779	-0.86
779	-0.868
780	-0.888
780	-0.904
781	-0.913
781	-0.917
781	-0.932
782	-0.928
782	-0.933
783	-0.932
783	-0.935
784	-0.946
784	-0.94
784	-0.928
785	-0.906
785	-0.903
786	-0.9
786	-0.891
787	-0.882
787	-0.882
788	-0.884
788	-0.874
788	-0.878
789	-0.884
789	-0.889
790	-0.89
790	-0.891
791	-0.889
791	-0.881
791	-0.887
792	-0.885
792	-0.883
793	-0.882
793	-0.88
794	-0.877
794	-0.86
794	-0.876
795	-0.865
795	-0.866
796	-0.87
796	-0.865
797	-0.863
797	-0.879
797	-0.872
798	-0.863
798	-0.863
799	-0.863
799	-0.847
800	-0.85
800	-0.849
801	-0.848
801	-0.842
801	-0.84
802	-0.833
802	-0.834
803	-0.832
803	-0.827
804	-0.829
804	-0.836
804	-0.838
805	-0.826
805	-0.812
806	-0.814
806	-0.809
807	-0.808
807	-0.803
807	-0.794
808	-0.784
808	-0.781
809	-0.768
809	-0.762
810	-0.777
810	-0.774
810	-0.775
811	-0.777
811	-0.769
812	-0.769
812	-0.776
813	-0.783
813	-0.789
813	-0.798
814	-0.801
814	-0.788
815	-0.789
815	-0.788
816	-0.781
816	-0.78
817	-0.782
817	-0.793
817	-0.797
818	-0.786
818	-0.789
819	-0.798
819	-0.804
820	-0.814
820	-0.817
820	-0.823
821	-0.827
821	-0.835
822	-0.827
822	-0.827
823	-0.833
823	-0.829
823	-0.822
824	-0.819
824	-0.822
825	-0.815
825	-0.811
826	-0.8
826	-0.793
826	-0.796
827	-0.791
827	-0.781
828	-0.768
828	-0.764
829	-0.758
829	-0.741
829	-0.745
830	-0.735
830	-0.731
831	-0.727
831	-0.718
832	-0.709
832	-0.704
832	-0.706
833	-0.702
833	-0.704
834	-0.701
834	-0.69
835	-0.695
835	-0.687
835	-0.678
836	-0.667
836	-0.663
837	-0.656
837	-0.648
838	-0.647
838	-0.634
839	-0.626
839	-0.618
839	-0.607
840	-0.607
840	-0.6
841	-0.598
841	-0.587
842	-0.581
842	-0.571
842	-0.555
843	-0.546
843	-0.542
844	-0.538
844	-0.528
845	-0.517
845	-0.509
845	-0.496
846	-0.489
846	-0.476
847	-0.465
847	-0.456
848	-0.443
848	-0.43
848	-0.416
849	-0.405
849	-0.393
850	-0.38
850	-0.373
851	-0.362
851	-0.348
851	-0.339
852	-0.326
852	-0.316
853	-0.308
853	-0.301
854	-0.291
854	-0.28
854	-0.27
855	-0.26
855	-0.251
856	-0.245
856	-0.236
857	-0.229
857	-0.221
857	-0.21
858	-0.2
858	-0.193
859	-0.186
859	-0.177
860	-0.169
860	-0.158
860	-0.149
861	-0.14
861	-0.133
862	-0.126
862	-0.119
863	-0.112
863	-0.105
863	-0.099
864	-0.094
864	-0.088
865	-0.083
865	-0.079
866	-0.074
866	-0.069
866	-0.065
867	-0.061
867	-0.057
868	-0.053
868	-0.05
869	-0.046
869	-0.043
869	-0.041
870	-0.039
870	-0.036
871	-0.035
871	-0.034
872	-0.034
872	-0.033
872	-0.033
873	-0.034
873	-0.036
874	-0.038
874	-0.04
875	-0.041
875	-0.042
875	-0.044
876	-0.045
876	-0.046
877	-0.048
877	-0.049
878	-0.05
878	-0.051
878	-0.051
879	-0.05
879	-0.05
880	-0.05
880	-0.049
881	-0.049
881	-0.049
881	-0.048
882	-0.048
882	-0.048
883	-0.049
883	-0.05
884	-0.05
884	-0.051
884	-0.052
885	-0.053
885	-0.053
886	-0.054
886	-0.055
887	-0.056
887	-0.057
887	-0.058
888	-0.058
888	-0.058
889	-0.059
889	-0.059
890	-0.059
890	-0.058
890	-0.059
891	-0.058
891	-0.059
892	-0.058
892	-0.058
893	-0.059
893	-0.058
893	-0.059
894	-0.059
894	-0.06
895	-0.061
895	-0.061
895	-0.062
896	-0.062
896	-0.063
897	-0.063
897	-0.062
898	-0.062
898	-0.062
898	-0.061
899	-0.059
899	-0.058
900	-0.057
900	-0.056
901	-0.055
901	-0.053
901	-0.052
902	-0.05
902	-0.049
903	-0.047
903	-0.046
904	-0.045
904	-0.044
904	-0.043
905	-0.042
905	-0.041
906	-0.04
906	-0.039
907	-0.039
907	-0.039
907	-0.039
908	-0.039
908	-0.039
909	-0.039
909	-0.038
910	-0.038
910	-0.037
910	-0.037
911	-0.036
911	-0.035
912	-0.035
912	-0.035
913	-0.034
913	-0.034
913	-0.035
914	-0.035
914	-0.036
915	-0.037
915	-0.038
916	-0.039
916	-0.039
916	-0.04
917	-0.04
917	-0.04
918	-0.04
918	-0.04
918	-0.039
919	-0.039
919	-0.038
920	-0.037
920	-0.036
921	-0.036
921	-0.036
921	-0.035
922	-0.035
922	-0.035
923	-0.035
923	-0.035
924	-0.036
924	-0.036
924	-0.036
925	-0.037
925	-0.037
926	-0.038
926	-0.038
927	-0.038
927	-0.039
927	-0.039
928	-0.039
928	-0.039
929	-0.039
929	-0.039
930	-0.039
930	-0.04
930	-0.04
931	-0.04
931	-0.04
932	-0.039
932	-0.04
933	-0.04
933	-0.041
933	-0.043
934	-0.044
934	-0.045
935	-0.047
935	-0.048
935	-0.05
936	-0.051
936	-0.052
937	-0.054
937	-0.055
938	-0.056
938	-0.056
938	-0.057
939	-0.058
939	-0.057
940	-0.057
940	-0.057
941	-0.057
941	-0.058
941	-0.058
942	-0.058
942	-0.058
943	-0.059
943	-0.059
944	-0.059
944	-0.059
944	-0.059
945	-0.059
945	-0.059
946	-0.058
946	-0.058
946	-0.057
947	-0.057
947	-0.057
948	-0.056
948	-0.056
949	-0.057
949	-0.057
949	-0.057
950	-0.057
950	-0.057
951	-0.058
951	-0.058
952	-0.058
952	-0.057
952	-0.057
953	-0.056
953	-0.055
954	-0.054
954	-0.052
955	-0.051
955	-0.049
955	-0.047
956	-0.045
956	-0.043
957	-0.041
957	-0.039
957	-0.038
958	-0.036
958	-0.036
959	-0.035
959	-0.034
960	-0.034
960	-0.034
960	-0.034
961	-0.034
961	-0.034
962	-0.035
962	-0.035
963	-0.036
963	-0.037
963	-0.037
964	-0.037
964	-0.037
965	-0.037
965	-0.037
966	-0.037
966	-0.037
966	-0.037
967	-0.037
967	-0.038
968	-0.039
968	-0.04
968	-0.041
969	-0.041
969	-0.042
970	-0.043
970	-0.043
971	-0.044
971	-0.045
971	-0.045
972	-0.045
972	-0.044
973	-0.044
973	-0.043
974	-0.043
974	-0.042
974	-0.042
975	-0.041
975	-0.041
976	-0.041
976	-0.041
976	-0.041
977	-0.041
977	-0.041
978	-0.042
978	-0.042
979	-0.042
979	-0.042
979	-0.042
980	-0.043
980	-0.043
981	-0.043
981	-0.043
982	-0.043
982	-0.044
982	-0.044
983	-0.044
983	-0.045
984	-0.045
984	-0.046
984	-0.047
985	-0.047
985	-0.047
986	-0.047
986	-0.047
987	-0.047
987	-0.047
987	-0.047
988	-0.047
988	-0.046
989	-0.046
989	-0.045
990	-0.044
990	-0.044
990	-0.043
991	-0.043
991	-0.043
992	-0.043
992	-0.043
992	-0.043
993	-0.043
993	-0.044
994	-0.045
994	-0.045
995	-0.046
995	-0.046
995	-0.046
996	-0.047
996	-0.048
997	-0.048
997	-0.049
997	-0.049
998	-0.05
998	-0.05
999	-0.051
999	-0.052
1000	-0.052
1000	-0.053
1000	-0.054
1001	-0.054
1001	-0.054
1002	-0.055
1002	-0.056
1003	-0.057
1003	-0.058
1003	-0.058
1004	-0.059
1004	-0.06
1005	-0.062
1005	-0.063
1005	-0.065
1006	-0.066
1006	-0.067
1007	-0.068
1007	-0.069
1008	-0.07
1008	-0.071
1008	-0.072
1009	-0.072
1009	-0.072
1010	-0.071
1010	-0.071
1010	-0.071
1011	-0.07
1011	-0.07
1012	-0.07
1012	-0.07
1013	-0.07
1013	-0.071
1013	-0.071
1014	-0.071
1014	-0.072
1015	-0.072
1015	-0.072
1016	-0.072
1016	-0.073
1016	-0.073
1017	-0.073
1017	-0.072
1018	-0.072
1018	-0.071
1018	-0.071
1019	-0.07
1019	-0.07
1020	-0.07
1020	-0.069
1021	-0.069
1021	-0.069
1021	-0.069
1022	-0.069
1022	-0.069
1023	-0.07
1023	-0.07
1023	-0.07
1024	-0.07
1024	-0.071
1025	-0.071
1025	-0.071
1026	-0.07
1026	-0.07
1026	-0.069
1027	-0.069
1027	-0.068
1028	-0.067
1028	-0.066
1028	-0.066
1029	-0.065
1029	-0.064
1030	-0.063
1030	-0.063
1031	-0.063
1031	-0.063
1031	-0.063
1032	-0.062
1032	-0.063
1033	-0.063
1033	-0.064
1033	-0.065
1034	-0.066
1034	-0.067
1035	-0.067
1035	-0.068
1036	-0.069
1036	-0.07
1036	-0.07
1037	-0.07
1037	-0.07
1038	-0.071
1038	-0.07
1039	-0.07
1039	-0.07
1039	-0.07
1040	-0.07
1040	-0.069
1041	-0.069
1041	-0.069
1041	-0.069
1042	-0.069
1042	-0.069
1043	-0.07
1043	-0.07
1044	-0.07
1044	-0.07
1044	-0.07
1045	-0.071
1045	-0.071
1046	-0.072
1046	-0.072
1046	-0.072
1047	-0.071
1047	-0.071
1048	-0.071
1048	-0.071
1049	-0.072
1049	-0.072
1049	-0.073
1050	-0.073
1050	-0.074
1051	-0.075
1051	-0.076
1051	-0.076
1052	-0.077
1052	-0.078
1053	-0.078
1053	-0.079
1053	-0.079
1054	-0.079
1054	-0.079
1055	-0.079
1055	-0.078
1056	-0.078
1056	-0.079
1056	-0.079
1057	-0.079
1057	-0.08
1058	-0.08
1058	-0.08
1058	-0.08
1059	-0.081
1059	-0.082
1060	-0.082
1060	-0.082
1061	-0.082
1061	-0.081
1061	-0.081
1062	-0.08
1062	-0.08
1063	-0.079
1063	-0.079
1063	-0.078
1064	-0.077
1064	-0.077
1065	-0.077
1065	-0.076
1066	-0.076
1066	-0.076
1066	-0.075
1067	-0.075
1067	-0.075
1068	-0.075
1068	-0.075
1068	-0.075
1069	-0.076
1069	-0.076
1070	-0.077
1070	-0.077
1071	-0.078
1071	-0.079
1071	-0.079
1072	-0.079
1072	-0.08
1073	-0.08
1073	-0.08
1073	-0.08
1074	-0.08
1074	-0.08
1075	-0.081
1075	-0.081
1076	-0.082
1076	-0.083
1076	-0.084
1077	-0.085
1077	-0.087
1078	-0.088
1078	-0.089
1078	-0.089
1079	-0.091
1079	-0.091
1080	-0.092
1080	-0.093
1080	-0.093
1081	-0.093
1081	-0.094
1082	-0.093
1082	-0.094
1083	-0.095
1083	-0.095
1083	-0.096
1084	-0.096
1084	-0.097
1085	-0.097
1085	-0.097
1085	-0.097
1086	-0.097
1086	-0.098
1087	-0.099
1087	-0.099
1088	-0.1
1088	-0.1
1088	-0.101
1089	-0.103
1089	-0.104
1090	-0.106
1090	-0.108
1090	-0.11
1091	-0.111
1091	-0.112
1092	-0.114
1092	-0.115
1092	-0.117
1093	-0.118
1093	-0.118
1094	-0.119
1094	-0.12
1095	-0.122
1095	-0.123
1095	-0.125
1096	-0.128
1096	-0.13
1097	-0.132
1097	-0.134
1097	-0.137
1098	-0.14
1098	-0.143
1099	-0.144
1099	-0.146
1100	-0.148
1100	-0.15
1100	-0.152
1101	-0.154
1101	-0.156
1102	-0.158
1102	-0.159
1102	-0.16
1103	-0.162
1103	-0.163
1104	-0.166
1104	-0.167
1104	-0.168
1105	-0.17
1105	-0.172
1106	-0.176
1106	-0.178
1107	-0.183
1107	-0.186
1107	-0.19
1108	-0.19
1108	-0.192
1109	-0.194
1109	-0.2
1109	-0.202
1110	-0.203
1110	-0.205
1111	-0.21
1111	-0.206
