Data from 40_to5_30sec_70mins_Absorbance__18__00018.txt Node

Date: Mon Jun 26 17:29:15 CEST 2023
User: Marek
Spectrometer: MAYP115816
Trigger mode: 0
Integration Time (sec): 2.500000E-1
Scans to average: 10
Electric dark correction enabled: true
Nonlinearity correction enabled: true
Boxcar width: 5
XAxis mode: Wavelengths
Number of Pixels in Spectrum: 2068
>>>>>Begin Spectral Data<<<<<
199	-0.663
199	-0.628
200	-0.585
200	-0.525
201	-0.487
201	-0.466
202	-0.436
202	-0.422
203	-0.414
203	-0.41
204	-0.398
204	-0.38
205	-0.367
205	-0.354
205	-0.356
206	-0.351
206	-0.351
207	-0.354
207	-0.358
208	-0.36
208	-0.361
209	-0.357
209	-0.36
210	-0.359
210	-0.365
211	-0.365
211	-0.377
212	-0.381
212	-0.38
213	-0.385
213	-0.378
213	-0.386
214	-0.385
214	-0.389
215	-0.389
215	-0.395
216	-0.397
216	-0.395
217	-0.399
217	-0.403
218	-0.407
218	-0.415
219	-0.405
219	-0.409
220	-0.417
220	-0.427
221	-0.431
221	-0.437
221	-0.438
222	-0.438
222	-0.443
223	-0.444
223	-0.446
224	-0.454
224	-0.46
225	-0.456
225	-0.451
226	-0.446
226	-0.445
227	-0.443
227	-0.443
228	-0.439
228	-0.443
229	-0.447
229	-0.445
229	-0.439
230	-0.437
230	-0.438
231	-0.44
231	-0.435
232	-0.444
232	-0.449
233	-0.449
233	-0.44
234	-0.439
234	-0.44
235	-0.443
235	-0.445
236	-0.451
236	-0.448
236	-0.449
237	-0.441
237	-0.441
238	-0.439
238	-0.441
239	-0.435
239	-0.432
240	-0.43
240	-0.433
241	-0.429
241	-0.435
242	-0.435
242	-0.44
243	-0.433
243	-0.441
243	-0.442
244	-0.446
244	-0.451
245	-0.46
245	-0.461
246	-0.473
246	-0.469
247	-0.48
247	-0.481
248	-0.486
248	-0.482
249	-0.485
249	-0.491
250	-0.484
250	-0.487
250	-0.481
251	-0.474
251	-0.483
252	-0.476
252	-0.475
253	-0.475
253	-0.479
254	-0.479
254	-0.468
255	-0.477
255	-0.469
256	-0.473
256	-0.476
257	-0.472
257	-0.478
258	-0.479
258	-0.485
258	-0.481
259	-0.49
259	-0.505
260	-0.507
260	-0.516
261	-0.522
261	-0.519
262	-0.519
262	-0.513
263	-0.506
263	-0.504
264	-0.512
264	-0.506
265	-0.501
265	-0.501
265	-0.493
266	-0.491
266	-0.488
267	-0.489
267	-0.496
268	-0.505
268	-0.508
269	-0.508
269	-0.512
270	-0.513
270	-0.533
271	-0.542
271	-0.544
272	-0.551
272	-0.554
272	-0.551
273	-0.558
273	-0.562
274	-0.56
274	-0.566
275	-0.568
275	-0.548
276	-0.55
276	-0.557
277	-0.561
277	-0.555
278	-0.564
278	-0.561
278	-0.555
279	-0.555
279	-0.557
280	-0.561
280	-0.568
281	-0.563
281	-0.562
282	-0.561
282	-0.572
283	-0.567
283	-0.56
284	-0.56
284	-0.565
285	-0.558
285	-0.565
285	-0.557
286	-0.555
286	-0.541
287	-0.538
287	-0.531
288	-0.525
288	-0.533
289	-0.532
289	-0.537
290	-0.534
290	-0.519
291	-0.517
291	-0.513
292	-0.519
292	-0.521
292	-0.53
293	-0.533
293	-0.525
294	-0.525
294	-0.517
295	-0.513
295	-0.524
296	-0.537
296	-0.539
297	-0.541
297	-0.537
298	-0.526
298	-0.526
298	-0.526
299	-0.514
299	-0.505
300	-0.507
300	-0.492
301	-0.487
301	-0.488
302	-0.488
302	-0.482
303	-0.47
303	-0.46
304	-0.452
304	-0.449
305	-0.446
305	-0.451
305	-0.458
306	-0.439
306	-0.438
307	-0.431
307	-0.431
308	-0.432
308	-0.428
309	-0.435
309	-0.429
310	-0.43
310	-0.423
311	-0.413
311	-0.41
311	-0.409
312	-0.4
312	-0.398
313	-0.394
313	-0.397
314	-0.392
314	-0.393
315	-0.387
315	-0.38
316	-0.374
316	-0.375
317	-0.366
317	-0.361
318	-0.353
318	-0.348
318	-0.343
319	-0.336
319	-0.33
320	-0.33
320	-0.33
321	-0.324
321	-0.324
322	-0.318
322	-0.32
323	-0.315
323	-0.313
324	-0.306
324	-0.299
324	-0.294
325	-0.28
325	-0.263
326	-0.253
326	-0.228
327	-0.21
327	-0.186
328	-0.161
328	-0.135
329	-0.108
329	-0.082
330	-0.053
330	-0.017
330	0.012
331	0.042
331	0.07
332	0.097
332	0.124
333	0.149
333	0.177
334	0.201
334	0.223
335	0.245
335	0.262
336	0.28
336	0.297
336	0.31
337	0.323
337	0.336
338	0.348
338	0.355
339	0.365
339	0.372
340	0.377
340	0.382
341	0.386
341	0.39
342	0.395
342	0.398
342	0.401
343	0.403
343	0.406
344	0.407
344	0.408
345	0.41
345	0.412
346	0.412
346	0.412
347	0.412
347	0.412
348	0.413
348	0.413
348	0.413
349	0.413
349	0.413
350	0.413
350	0.412
351	0.412
351	0.412
352	0.411
352	0.411
353	0.41
353	0.41
354	0.409
354	0.408
354	0.407
355	0.406
355	0.405
356	0.404
356	0.404
357	0.402
357	0.401
358	0.4
358	0.4
359	0.399
359	0.399
360	0.398
360	0.398
360	0.398
361	0.397
361	0.397
362	0.397
362	0.396
363	0.396
363	0.395
364	0.395
364	0.394
365	0.394
365	0.393
366	0.392
366	0.392
366	0.391
367	0.391
367	0.39
368	0.389
368	0.389
369	0.388
369	0.388
370	0.387
370	0.387
371	0.387
371	0.386
372	0.385
372	0.385
372	0.384
373	0.384
373	0.383
374	0.383
374	0.382
375	0.382
375	0.381
376	0.38
376	0.379
377	0.379
377	0.379
378	0.378
378	0.378
378	0.378
379	0.377
379	0.377
380	0.377
380	0.376
381	0.376
381	0.376
382	0.375
382	0.374
383	0.374
383	0.373
383	0.373
384	0.372
384	0.371
385	0.371
385	0.37
386	0.37
386	0.369
387	0.368
387	0.368
388	0.367
388	0.367
389	0.367
389	0.366
389	0.366
390	0.366
390	0.365
391	0.365
391	0.365
392	0.365
392	0.364
393	0.364
393	0.364
394	0.363
394	0.363
394	0.363
395	0.362
395	0.362
396	0.361
396	0.361
397	0.36
397	0.36
398	0.359
398	0.359
399	0.358
399	0.358
400	0.358
400	0.357
400	0.357
401	0.356
401	0.356
402	0.356
402	0.355
403	0.355
403	0.354
404	0.354
404	0.354
405	0.353
405	0.353
405	0.352
406	0.352
406	0.352
407	0.351
407	0.351
408	0.351
408	0.35
409	0.35
409	0.35
410	0.35
410	0.35
411	0.349
411	0.349
411	0.349
412	0.348
412	0.348
413	0.347
413	0.347
414	0.346
414	0.346
415	0.346
415	0.345
416	0.345
416	0.344
416	0.344
417	0.344
417	0.344
418	0.343
418	0.343
419	0.343
419	0.343
420	0.343
420	0.343
421	0.343
421	0.343
421	0.343
422	0.343
422	0.343
423	0.343
423	0.342
424	0.342
424	0.342
425	0.342
425	0.342
426	0.341
426	0.341
427	0.341
427	0.341
427	0.341
428	0.341
428	0.342
429	0.342
429	0.342
430	0.342
430	0.342
431	0.342
431	0.342
432	0.341
432	0.341
432	0.341
433	0.34
433	0.34
434	0.34
434	0.34
435	0.339
435	0.339
436	0.339
436	0.339
437	0.339
437	0.339
437	0.34
438	0.34
438	0.34
439	0.34
439	0.339
440	0.339
440	0.339
441	0.339
441	0.339
442	0.338
442	0.339
442	0.339
443	0.339
443	0.338
444	0.338
444	0.339
445	0.339
445	0.339
446	0.34
446	0.34
447	0.341
447	0.341
447	0.341
448	0.342
448	0.342
449	0.343
449	0.343
450	0.344
450	0.344
451	0.344
451	0.344
452	0.344
452	0.345
452	0.345
453	0.345
453	0.345
454	0.346
454	0.346
455	0.346
455	0.347
456	0.347
456	0.347
457	0.348
457	0.348
458	0.348
458	0.349
458	0.349
459	0.349
459	0.349
460	0.35
460	0.35
461	0.351
461	0.351
462	0.352
462	0.353
463	0.353
463	0.354
463	0.355
464	0.356
464	0.356
465	0.357
465	0.358
466	0.359
466	0.359
467	0.36
467	0.361
467	0.362
468	0.362
468	0.363
469	0.364
469	0.365
470	0.366
470	0.367
471	0.368
471	0.369
472	0.37
472	0.371
472	0.372
473	0.373
473	0.375
474	0.376
474	0.377
475	0.378
475	0.38
476	0.381
476	0.382
477	0.383
477	0.385
477	0.386
478	0.388
478	0.389
479	0.391
479	0.393
480	0.394
480	0.396
481	0.397
481	0.399
482	0.401
482	0.403
482	0.405
483	0.407
483	0.41
484	0.411
484	0.413
485	0.415
485	0.418
486	0.42
486	0.422
487	0.424
487	0.426
487	0.428
488	0.431
488	0.433
489	0.437
489	0.44
490	0.443
490	0.446
491	0.449
491	0.452
492	0.455
492	0.458
492	0.461
493	0.464
493	0.468
494	0.471
494	0.475
495	0.478
495	0.482
496	0.485
496	0.488
496	0.491
497	0.495
497	0.498
498	0.502
498	0.505
499	0.509
499	0.513
500	0.517
500	0.521
501	0.525
501	0.529
501	0.533
502	0.537
502	0.541
503	0.545
503	0.548
504	0.552
504	0.556
505	0.559
505	0.563
506	0.568
506	0.572
506	0.576
507	0.58
507	0.584
508	0.588
508	0.593
509	0.597
509	0.601
510	0.605
510	0.609
511	0.612
511	0.617
511	0.62
512	0.625
512	0.628
513	0.632
513	0.636
514	0.639
514	0.644
515	0.647
515	0.651
515	0.654
516	0.658
516	0.662
517	0.665
517	0.668
518	0.671
518	0.673
519	0.675
519	0.677
520	0.679
520	0.68
520	0.682
521	0.683
521	0.684
522	0.685
522	0.687
523	0.688
523	0.69
524	0.691
524	0.692
524	0.693
525	0.694
525	0.694
526	0.695
526	0.695
527	0.695
527	0.695
528	0.695
528	0.694
529	0.693
529	0.692
529	0.692
530	0.691
530	0.689
531	0.688
531	0.687
532	0.685
532	0.683
533	0.681
533	0.679
533	0.676
534	0.673
534	0.671
535	0.668
535	0.665
536	0.662
536	0.658
537	0.654
537	0.651
538	0.647
538	0.643
538	0.639
539	0.635
539	0.631
540	0.626
540	0.622
541	0.617
541	0.613
542	0.608
542	0.603
542	0.598
543	0.593
543	0.588
544	0.583
544	0.578
545	0.573
545	0.568
546	0.563
546	0.557
547	0.552
547	0.546
547	0.541
548	0.537
548	0.531
549	0.526
549	0.521
550	0.515
550	0.509
551	0.503
551	0.497
551	0.492
552	0.486
552	0.48
553	0.475
553	0.469
554	0.463
554	0.457
555	0.451
555	0.446
556	0.44
556	0.434
556	0.429
557	0.423
557	0.417
558	0.412
558	0.405
559	0.399
559	0.394
560	0.388
560	0.383
560	0.379
561	0.374
561	0.369
562	0.364
562	0.359
563	0.354
563	0.349
564	0.343
564	0.338
564	0.332
565	0.327
565	0.321
566	0.315
566	0.309
567	0.304
567	0.299
568	0.295
568	0.29
568	0.285
569	0.281
569	0.276
570	0.271
570	0.267
571	0.263
571	0.259
572	0.255
572	0.25
573	0.246
573	0.242
573	0.238
574	0.235
574	0.232
575	0.228
575	0.225
576	0.222
576	0.218
577	0.214
577	0.212
577	0.209
578	0.206
578	0.203
579	0.2
579	0.196
580	0.191
580	0.187
581	0.183
581	0.18
581	0.177
582	0.174
582	0.172
583	0.169
583	0.166
584	0.162
584	0.159
585	0.157
585	0.154
585	0.152
586	0.149
586	0.147
587	0.145
587	0.142
588	0.14
588	0.138
589	0.137
589	0.136
590	0.134
590	0.133
590	0.132
591	0.13
591	0.127
592	0.125
592	0.123
593	0.121
593	0.118
594	0.116
594	0.113
594	0.111
595	0.109
595	0.107
596	0.105
596	0.104
597	0.103
597	0.102
598	0.1
598	0.099
598	0.098
599	0.096
599	0.094
600	0.092
600	0.09
601	0.088
601	0.086
602	0.084
602	0.082
602	0.081
603	0.08
603	0.08
604	0.08
604	0.079
605	0.08
605	0.079
606	0.078
606	0.077
606	0.075
607	0.074
607	0.073
608	0.071
608	0.069
609	0.067
609	0.066
610	0.064
610	0.063
610	0.063
611	0.063
611	0.063
612	0.063
612	0.063
613	0.063
613	0.063
614	0.061
614	0.06
614	0.059
615	0.058
615	0.057
616	0.056
616	0.054
617	0.054
617	0.053
618	0.051
618	0.051
618	0.05
619	0.05
619	0.051
620	0.051
620	0.051
621	0.05
621	0.049
622	0.049
622	0.048
622	0.046
623	0.045
623	0.045
624	0.044
624	0.043
625	0.042
625	0.041
626	0.04
626	0.04
626	0.04
627	0.039
627	0.039
628	0.039
628	0.038
629	0.037
629	0.037
630	0.036
630	0.035
630	0.035
631	0.035
631	0.034
632	0.032
632	0.031
633	0.03
633	0.03
634	0.03
634	0.029
634	0.028
635	0.028
635	0.027
636	0.026
636	0.025
637	0.024
637	0.023
638	0.022
638	0.021
638	0.019
639	0.017
639	0.016
640	0.014
640	0.012
641	0.011
641	0.009
642	0.007
642	0.005
642	0.003
643	0.002
643	-0.001
644	-0.002
644	-0.004
645	-0.006
645	-0.008
646	-0.009
646	-0.011
646	-0.012
647	-0.014
647	-0.015
648	-0.017
648	-0.019
649	-0.021
649	-0.023
650	-0.025
650	-0.028
650	-0.032
651	-0.035
651	-0.039
652	-0.043
652	-0.048
653	-0.051
653	-0.056
653	-0.054
654	-0.054
654	-0.059
655	-0.063
655	-0.065
656	-0.068
656	-0.071
657	-0.073
657	-0.076
657	-0.079
658	-0.081
658	-0.095
659	-0.122
659	-0.144
660	-0.156
660	-0.168
661	-0.177
661	-0.191
661	-0.206
662	-0.218
662	-0.233
663	-0.247
663	-0.262
664	-0.273
664	-0.292
665	-0.309
665	-0.324
665	-0.347
666	-0.368
666	-0.391
667	-0.417
667	-0.444
668	-0.475
668	-0.512
669	-0.555
669	-0.595
669	-0.635
670	-0.619
670	-0.607
671	-0.83
671	-1.359
672	-1.884
672	-2.196
672	-2.377
673	-2.461
673	-2.488
674	-2.499
674	-2.505
675	-2.557
675	-2.693
676	-2.835
676	-2.756
676	-2.508
677	-2.248
677	-1.884
678	-1.33
678	-0.969
679	-0.853
679	-0.789
680	-0.735
680	-0.698
680	-0.668
681	-0.652
681	-0.637
682	-0.622
682	-0.601
683	-0.58
683	-0.58
684	-0.58
684	-0.578
684	-0.579
685	-0.583
685	-0.578
686	-0.568
686	-0.554
687	-0.557
687	-0.561
687	-0.559
688	-0.546
688	-0.543
689	-0.537
689	-0.547
690	-0.539
690	-0.547
691	-0.557
691	-0.567
691	-0.565
692	-0.565
692	-0.567
693	-0.576
693	-0.588
694	-0.59
694	-0.578
695	-0.587
695	-0.582
695	-0.578
696	-0.574
696	-0.576
697	-0.58
697	-0.58
698	-0.579
698	-0.56
698	-0.566
699	-0.559
699	-0.556
700	-0.553
700	-0.562
701	-0.566
701	-0.573
702	-0.57
702	-0.575
702	-0.584
703	-0.585
703	-0.584
704	-0.588
704	-0.589
705	-0.587
705	-0.582
705	-0.583
706	-0.576
706	-0.575
707	-0.577
707	-0.564
708	-0.573
708	-0.573
709	-0.585
709	-0.581
709	-0.578
710	-0.579
710	-0.581
711	-0.575
711	-0.58
712	-0.571
712	-0.576
713	-0.572
713	-0.579
713	-0.574
714	-0.569
714	-0.565
715	-0.568
715	-0.571
716	-0.59
716	-0.592
716	-0.599
717	-0.592
717	-0.594
718	-0.583
718	-0.574
719	-0.594
719	-0.601
720	-0.593
720	-0.602
720	-0.585
721	-0.582
721	-0.585
722	-0.586
722	-0.577
723	-0.571
723	-0.578
723	-0.569
724	-0.57
724	-0.567
725	-0.554
725	-0.556
726	-0.557
726	-0.553
727	-0.559
727	-0.558
727	-0.569
728	-0.567
728	-0.56
729	-0.569
729	-0.575
730	-0.586
730	-0.587
730	-0.592
731	-0.596
731	-0.597
732	-0.606
732	-0.6
733	-0.602
733	-0.606
734	-0.593
734	-0.594
734	-0.585
735	-0.592
735	-0.593
736	-0.587
736	-0.592
737	-0.591
737	-0.599
737	-0.605
738	-0.611
738	-0.607
739	-0.603
739	-0.622
740	-0.616
740	-0.616
741	-0.626
741	-0.626
741	-0.62
742	-0.619
742	-0.61
743	-0.602
743	-0.601
744	-0.594
744	-0.57
744	-0.569
745	-0.573
745	-0.562
746	-0.555
746	-0.559
747	-0.557
747	-0.557
748	-0.561
748	-0.572
748	-0.583
749	-0.59
749	-0.598
750	-0.582
750	-0.586
751	-0.582
751	-0.589
751	-0.587
752	-0.59
752	-0.595
753	-0.591
753	-0.59
754	-0.598
754	-0.588
754	-0.59
755	-0.586
755	-0.585
756	-0.576
756	-0.578
757	-0.573
757	-0.563
758	-0.57
758	-0.561
758	-0.561
759	-0.565
759	-0.569
760	-0.584
760	-0.59
761	-0.594
761	-0.586
761	-0.596
762	-0.598
762	-0.592
763	-0.596
763	-0.597
764	-0.591
764	-0.602
764	-0.589
765	-0.596
765	-0.585
766	-0.601
766	-0.611
767	-0.618
767	-0.609
768	-0.614
768	-0.613
768	-0.611
769	-0.606
769	-0.608
770	-0.619
770	-0.624
771	-0.618
771	-0.61
771	-0.616
772	-0.629
772	-0.635
773	-0.63
773	-0.642
774	-0.644
774	-0.646
775	-0.63
775	-0.633
775	-0.635
776	-0.626
776	-0.621
777	-0.623
777	-0.63
778	-0.628
778	-0.62
778	-0.624
779	-0.62
779	-0.627
780	-0.647
780	-0.662
781	-0.668
781	-0.669
781	-0.683
782	-0.678
782	-0.683
783	-0.683
783	-0.688
784	-0.7
784	-0.693
784	-0.681
785	-0.659
785	-0.657
786	-0.658
786	-0.65
787	-0.642
787	-0.644
788	-0.644
788	-0.636
788	-0.638
789	-0.645
789	-0.651
790	-0.653
790	-0.656
791	-0.653
791	-0.647
791	-0.654
792	-0.65
792	-0.65
793	-0.645
793	-0.643
794	-0.639
794	-0.619
794	-0.634
795	-0.623
795	-0.626
796	-0.628
796	-0.625
797	-0.624
797	-0.64
797	-0.633
798	-0.625
798	-0.626
799	-0.629
799	-0.615
800	-0.616
800	-0.614
801	-0.612
801	-0.608
801	-0.607
802	-0.601
802	-0.602
803	-0.6
803	-0.593
804	-0.596
804	-0.603
804	-0.608
805	-0.6
805	-0.59
806	-0.589
806	-0.584
807	-0.582
807	-0.58
807	-0.572
808	-0.564
808	-0.559
809	-0.544
809	-0.539
810	-0.553
810	-0.549
810	-0.551
811	-0.552
811	-0.548
812	-0.549
812	-0.555
813	-0.563
813	-0.569
813	-0.579
814	-0.582
814	-0.568
815	-0.57
815	-0.569
816	-0.561
816	-0.56
817	-0.561
817	-0.571
817	-0.574
818	-0.564
818	-0.567
819	-0.575
819	-0.58
820	-0.587
820	-0.589
820	-0.594
821	-0.598
821	-0.603
822	-0.595
822	-0.596
823	-0.602
823	-0.6
823	-0.594
824	-0.591
824	-0.597
825	-0.592
825	-0.588
826	-0.577
826	-0.571
826	-0.576
827	-0.57
827	-0.56
828	-0.546
828	-0.542
829	-0.539
829	-0.522
829	-0.527
830	-0.518
830	-0.514
831	-0.512
831	-0.503
832	-0.5
832	-0.496
832	-0.497
833	-0.495
833	-0.497
834	-0.494
834	-0.484
835	-0.49
835	-0.485
835	-0.477
836	-0.468
836	-0.463
837	-0.458
837	-0.453
838	-0.45
838	-0.439
839	-0.433
839	-0.426
839	-0.419
840	-0.417
840	-0.413
841	-0.414
841	-0.407
842	-0.401
842	-0.392
842	-0.38
843	-0.373
843	-0.369
844	-0.365
844	-0.355
845	-0.349
845	-0.343
845	-0.331
846	-0.324
846	-0.315
847	-0.306
847	-0.301
848	-0.291
848	-0.282
848	-0.274
849	-0.265
849	-0.255
850	-0.246
850	-0.24
851	-0.234
851	-0.224
851	-0.219
852	-0.208
852	-0.202
853	-0.197
853	-0.193
854	-0.186
854	-0.179
854	-0.173
855	-0.168
855	-0.161
856	-0.157
856	-0.151
857	-0.148
857	-0.142
857	-0.135
858	-0.128
858	-0.125
859	-0.12
859	-0.114
860	-0.11
860	-0.104
860	-0.098
861	-0.093
861	-0.089
862	-0.085
862	-0.081
863	-0.078
863	-0.073
863	-0.069
864	-0.066
864	-0.063
865	-0.06
865	-0.058
866	-0.055
866	-0.052
866	-0.049
867	-0.046
867	-0.043
868	-0.041
868	-0.038
869	-0.035
869	-0.033
869	-0.031
870	-0.029
870	-0.027
871	-0.026
871	-0.026
872	-0.025
872	-0.025
872	-0.025
873	-0.027
873	-0.029
874	-0.031
874	-0.034
875	-0.036
875	-0.038
875	-0.04
876	-0.043
876	-0.045
877	-0.047
877	-0.05
878	-0.053
878	-0.054
878	-0.055
879	-0.056
879	-0.057
880	-0.057
880	-0.056
881	-0.056
881	-0.055
881	-0.054
882	-0.054
882	-0.055
883	-0.055
883	-0.056
884	-0.056
884	-0.056
884	-0.056
885	-0.057
885	-0.057
886	-0.057
886	-0.058
887	-0.059
887	-0.059
887	-0.059
888	-0.059
888	-0.059
889	-0.059
889	-0.059
890	-0.058
890	-0.058
890	-0.058
891	-0.057
891	-0.057
892	-0.056
892	-0.056
893	-0.056
893	-0.056
893	-0.056
894	-0.057
894	-0.057
895	-0.058
895	-0.058
895	-0.059
896	-0.059
896	-0.059
897	-0.059
897	-0.059
898	-0.059
898	-0.058
898	-0.057
899	-0.056
899	-0.055
900	-0.054
900	-0.053
901	-0.052
901	-0.051
901	-0.05
902	-0.048
902	-0.047
903	-0.045
903	-0.044
904	-0.043
904	-0.042
904	-0.04
905	-0.039
905	-0.039
906	-0.038
906	-0.037
907	-0.036
907	-0.036
907	-0.035
908	-0.035
908	-0.035
909	-0.035
909	-0.035
910	-0.034
910	-0.034
910	-0.033
911	-0.032
911	-0.031
912	-0.031
912	-0.031
913	-0.031
913	-0.031
913	-0.032
914	-0.033
914	-0.034
915	-0.035
915	-0.036
916	-0.036
916	-0.037
916	-0.038
917	-0.038
917	-0.038
918	-0.038
918	-0.038
918	-0.038
919	-0.037
919	-0.037
920	-0.036
920	-0.036
921	-0.035
921	-0.035
921	-0.035
922	-0.035
922	-0.035
923	-0.036
923	-0.037
924	-0.037
924	-0.038
924	-0.039
925	-0.039
925	-0.04
926	-0.041
926	-0.041
927	-0.042
927	-0.042
927	-0.042
928	-0.042
928	-0.042
929	-0.041
929	-0.041
930	-0.041
930	-0.041
930	-0.041
931	-0.04
931	-0.04
932	-0.04
932	-0.04
933	-0.04
933	-0.04
933	-0.041
934	-0.042
934	-0.042
935	-0.043
935	-0.045
935	-0.046
936	-0.047
936	-0.048
937	-0.049
937	-0.049
938	-0.049
938	-0.05
938	-0.049
939	-0.049
939	-0.049
940	-0.048
940	-0.048
941	-0.047
941	-0.047
941	-0.046
942	-0.046
942	-0.045
943	-0.045
943	-0.045
944	-0.044
944	-0.044
944	-0.043
945	-0.042
945	-0.041
946	-0.04
946	-0.039
946	-0.039
947	-0.038
947	-0.038
948	-0.038
948	-0.038
949	-0.039
949	-0.039
949	-0.039
950	-0.039
950	-0.039
951	-0.039
951	-0.039
952	-0.039
952	-0.038
952	-0.037
953	-0.035
953	-0.033
954	-0.031
954	-0.029
955	-0.027
955	-0.025
955	-0.023
956	-0.021
956	-0.019
957	-0.017
957	-0.015
957	-0.013
958	-0.012
958	-0.011
959	-0.01
959	-0.009
960	-0.009
960	-0.008
960	-0.008
961	-0.008
961	-0.009
962	-0.01
962	-0.01
963	-0.011
963	-0.011
963	-0.012
964	-0.013
964	-0.013
965	-0.013
965	-0.013
966	-0.013
966	-0.013
966	-0.013
967	-0.013
967	-0.014
968	-0.015
968	-0.015
968	-0.016
969	-0.016
969	-0.017
970	-0.017
970	-0.017
971	-0.018
971	-0.018
971	-0.019
972	-0.018
972	-0.018
973	-0.018
973	-0.018
974	-0.018
974	-0.018
974	-0.018
975	-0.019
975	-0.019
976	-0.02
976	-0.02
976	-0.021
977	-0.022
977	-0.023
978	-0.024
978	-0.025
979	-0.025
979	-0.026
979	-0.026
980	-0.026
980	-0.027
981	-0.028
981	-0.028
982	-0.029
982	-0.03
982	-0.03
983	-0.031
983	-0.032
984	-0.033
984	-0.034
984	-0.035
985	-0.036
985	-0.036
986	-0.037
986	-0.037
987	-0.037
987	-0.037
987	-0.038
988	-0.038
988	-0.037
989	-0.037
989	-0.036
990	-0.035
990	-0.035
990	-0.035
991	-0.034
991	-0.035
992	-0.035
992	-0.035
992	-0.035
993	-0.036
993	-0.037
994	-0.038
994	-0.039
995	-0.039
995	-0.04
995	-0.041
996	-0.042
996	-0.043
997	-0.044
997	-0.045
997	-0.046
998	-0.047
998	-0.048
999	-0.05
999	-0.05
1000	-0.051
1000	-0.052
1000	-0.053
1001	-0.054
1001	-0.054
1002	-0.055
1002	-0.056
1003	-0.056
1003	-0.057
1003	-0.058
1004	-0.058
1004	-0.06
1005	-0.061
1005	-0.062
1005	-0.063
1006	-0.065
1006	-0.066
1007	-0.067
1007	-0.067
1008	-0.068
1008	-0.069
1008	-0.07
1009	-0.07
1009	-0.07
1010	-0.07
1010	-0.07
1010	-0.07
1011	-0.07
1011	-0.07
1012	-0.07
1012	-0.07
1013	-0.07
1013	-0.07
1013	-0.07
1014	-0.071
1014	-0.071
1015	-0.071
1015	-0.071
1016	-0.072
1016	-0.072
1016	-0.072
1017	-0.073
1017	-0.073
1018	-0.073
1018	-0.073
1018	-0.073
1019	-0.073
1019	-0.073
1020	-0.074
1020	-0.074
1021	-0.074
1021	-0.074
1021	-0.074
1022	-0.074
1022	-0.074
1023	-0.075
1023	-0.075
1023	-0.075
1024	-0.075
1024	-0.075
1025	-0.075
1025	-0.075
1026	-0.074
1026	-0.074
1026	-0.073
1027	-0.072
1027	-0.072
1028	-0.071
1028	-0.07
1028	-0.069
1029	-0.068
1029	-0.067
1030	-0.067
1030	-0.066
1031	-0.066
1031	-0.066
1031	-0.066
1032	-0.065
1032	-0.066
1033	-0.066
1033	-0.066
1033	-0.067
1034	-0.068
1034	-0.069
1035	-0.069
1035	-0.07
1036	-0.071
1036	-0.071
1036	-0.071
1037	-0.071
1037	-0.071
1038	-0.072
1038	-0.071
1039	-0.071
1039	-0.071
1039	-0.071
1040	-0.071
1040	-0.071
1041	-0.071
1041	-0.071
1041	-0.071
1042	-0.071
1042	-0.071
1043	-0.071
1043	-0.071
1044	-0.071
1044	-0.071
1044	-0.071
1045	-0.072
1045	-0.071
1046	-0.072
1046	-0.071
1046	-0.071
1047	-0.07
1047	-0.07
1048	-0.07
1048	-0.069
1049	-0.069
1049	-0.069
1049	-0.069
1050	-0.07
1050	-0.07
1051	-0.07
1051	-0.071
1051	-0.072
1052	-0.072
1052	-0.073
1053	-0.074
1053	-0.074
1053	-0.074
1054	-0.074
1054	-0.074
1055	-0.074
1055	-0.073
1056	-0.073
1056	-0.072
1056	-0.072
1057	-0.072
1057	-0.072
1058	-0.072
1058	-0.071
1058	-0.071
1059	-0.071
1059	-0.072
1060	-0.072
1060	-0.071
1061	-0.071
1061	-0.071
1061	-0.07
1062	-0.07
1062	-0.069
1063	-0.068
1063	-0.068
1063	-0.067
1064	-0.066
1064	-0.066
1065	-0.066
1065	-0.066
1066	-0.065
1066	-0.065
1066	-0.065
1067	-0.065
1067	-0.065
1068	-0.065
1068	-0.065
1068	-0.066
1069	-0.066
1069	-0.066
1070	-0.066
1070	-0.067
1071	-0.067
1071	-0.067
1071	-0.067
1072	-0.068
1072	-0.067
1073	-0.067
1073	-0.067
1073	-0.067
1074	-0.067
1074	-0.067
1075	-0.068
1075	-0.068
1076	-0.068
1076	-0.069
1076	-0.07
1077	-0.071
1077	-0.072
1078	-0.073
1078	-0.074
1078	-0.074
1079	-0.075
1079	-0.076
1080	-0.076
1080	-0.077
1080	-0.077
1081	-0.077
1081	-0.078
1082	-0.078
1082	-0.078
1083	-0.079
1083	-0.079
1083	-0.08
1084	-0.08
1084	-0.081
1085	-0.081
1085	-0.081
1085	-0.081
1086	-0.081
1086	-0.081
1087	-0.081
1087	-0.081
1088	-0.082
1088	-0.081
1088	-0.082
1089	-0.082
1089	-0.083
1090	-0.084
1090	-0.085
1090	-0.086
1091	-0.087
1091	-0.088
1092	-0.089
1092	-0.09
1092	-0.092
1093	-0.093
1093	-0.093
1094	-0.094
1094	-0.095
1095	-0.097
1095	-0.098
1095	-0.1
1096	-0.101
1096	-0.104
1097	-0.105
1097	-0.106
1097	-0.108
1098	-0.11
1098	-0.111
1099	-0.112
1099	-0.113
1100	-0.114
1100	-0.115
1100	-0.116
1101	-0.116
1101	-0.118
1102	-0.119
1102	-0.119
1102	-0.12
1103	-0.121
1103	-0.121
1104	-0.122
1104	-0.123
1104	-0.124
1105	-0.125
1105	-0.127
1106	-0.129
1106	-0.13
1107	-0.133
1107	-0.134
1107	-0.137
1108	-0.137
1108	-0.138
1109	-0.139
1109	-0.143
1109	-0.142
1110	-0.142
1110	-0.142
1111	-0.148
1111	-0.141
