Data from 40_to5_30sec_70mins_Absorbance__48__00048.txt Node

Date: Mon Jun 26 17:44:15 CEST 2023
User: Marek
Spectrometer: MAYP115816
Trigger mode: 0
Integration Time (sec): 2.500000E-1
Scans to average: 10
Electric dark correction enabled: true
Nonlinearity correction enabled: true
Boxcar width: 5
XAxis mode: Wavelengths
Number of Pixels in Spectrum: 2068
>>>>>Begin Spectral Data<<<<<
199	-0.836
199	-0.804
200	-0.76
200	-0.691
201	-0.653
201	-0.632
202	-0.599
202	-0.586
203	-0.579
203	-0.574
204	-0.564
204	-0.545
205	-0.531
205	-0.516
205	-0.519
206	-0.513
206	-0.515
207	-0.518
207	-0.52
208	-0.522
208	-0.524
209	-0.518
209	-0.521
210	-0.52
210	-0.525
211	-0.527
211	-0.544
212	-0.548
212	-0.548
213	-0.553
213	-0.548
213	-0.558
214	-0.559
214	-0.564
215	-0.566
215	-0.575
216	-0.578
216	-0.573
217	-0.572
217	-0.577
218	-0.584
218	-0.589
219	-0.576
219	-0.581
220	-0.587
220	-0.597
221	-0.599
221	-0.605
221	-0.607
222	-0.609
222	-0.613
223	-0.613
223	-0.616
224	-0.625
224	-0.629
225	-0.626
225	-0.621
226	-0.617
226	-0.614
227	-0.612
227	-0.616
228	-0.613
228	-0.617
229	-0.621
229	-0.617
229	-0.611
230	-0.607
230	-0.608
231	-0.611
231	-0.605
232	-0.614
232	-0.616
233	-0.614
233	-0.603
234	-0.605
234	-0.608
235	-0.61
235	-0.616
236	-0.621
236	-0.621
236	-0.622
237	-0.613
237	-0.614
238	-0.614
238	-0.617
239	-0.61
239	-0.609
240	-0.609
240	-0.613
241	-0.607
241	-0.611
242	-0.613
242	-0.621
243	-0.613
243	-0.621
243	-0.621
244	-0.625
244	-0.629
245	-0.637
245	-0.639
246	-0.653
246	-0.651
247	-0.662
247	-0.66
248	-0.666
248	-0.665
249	-0.668
249	-0.673
250	-0.668
250	-0.671
250	-0.665
251	-0.657
251	-0.667
252	-0.662
252	-0.663
253	-0.664
253	-0.669
254	-0.671
254	-0.663
255	-0.67
255	-0.661
256	-0.664
256	-0.668
257	-0.663
257	-0.667
258	-0.669
258	-0.673
258	-0.671
259	-0.681
259	-0.699
260	-0.701
260	-0.713
261	-0.721
261	-0.717
262	-0.714
262	-0.708
263	-0.699
263	-0.696
264	-0.702
264	-0.695
265	-0.691
265	-0.692
265	-0.68
266	-0.678
266	-0.677
267	-0.678
267	-0.688
268	-0.698
268	-0.704
269	-0.704
269	-0.711
270	-0.71
270	-0.731
271	-0.743
271	-0.744
272	-0.753
272	-0.761
272	-0.758
273	-0.768
273	-0.77
274	-0.769
274	-0.77
275	-0.775
275	-0.755
276	-0.756
276	-0.766
277	-0.765
277	-0.759
278	-0.769
278	-0.764
278	-0.76
279	-0.759
279	-0.762
280	-0.763
280	-0.77
281	-0.765
281	-0.763
282	-0.766
282	-0.776
283	-0.771
283	-0.766
284	-0.768
284	-0.774
285	-0.765
285	-0.773
285	-0.765
286	-0.764
286	-0.751
287	-0.75
287	-0.743
288	-0.733
288	-0.739
289	-0.737
289	-0.74
290	-0.739
290	-0.723
291	-0.72
291	-0.715
292	-0.723
292	-0.723
292	-0.729
293	-0.735
293	-0.728
294	-0.728
294	-0.718
295	-0.714
295	-0.725
296	-0.738
296	-0.736
297	-0.734
297	-0.727
298	-0.719
298	-0.718
298	-0.716
299	-0.703
299	-0.698
300	-0.698
300	-0.682
301	-0.68
301	-0.685
302	-0.684
302	-0.68
303	-0.669
303	-0.66
304	-0.653
304	-0.65
305	-0.647
305	-0.656
305	-0.662
306	-0.642
306	-0.639
307	-0.633
307	-0.631
308	-0.631
308	-0.627
309	-0.634
309	-0.629
310	-0.629
310	-0.619
311	-0.61
311	-0.608
311	-0.606
312	-0.596
312	-0.596
313	-0.591
313	-0.59
314	-0.584
314	-0.586
315	-0.581
315	-0.573
316	-0.564
316	-0.566
317	-0.557
317	-0.554
318	-0.544
318	-0.537
318	-0.531
319	-0.523
319	-0.516
320	-0.514
320	-0.515
321	-0.509
321	-0.505
322	-0.501
322	-0.499
323	-0.494
323	-0.492
324	-0.486
324	-0.48
324	-0.473
325	-0.457
325	-0.44
326	-0.431
326	-0.406
327	-0.387
327	-0.361
328	-0.334
328	-0.307
329	-0.278
329	-0.248
330	-0.217
330	-0.179
330	-0.144
331	-0.109
331	-0.075
332	-0.042
332	-0.009
333	0.022
333	0.056
334	0.088
334	0.116
335	0.145
335	0.167
336	0.19
336	0.213
336	0.231
337	0.249
337	0.266
338	0.283
338	0.295
339	0.309
339	0.32
340	0.328
340	0.337
341	0.345
341	0.351
342	0.359
342	0.366
342	0.371
343	0.375
343	0.38
344	0.383
344	0.386
345	0.389
345	0.391
346	0.393
346	0.395
347	0.396
347	0.397
348	0.398
348	0.4
348	0.401
349	0.402
349	0.402
350	0.403
350	0.404
351	0.404
351	0.404
352	0.404
352	0.404
353	0.404
353	0.404
354	0.404
354	0.403
354	0.403
355	0.402
355	0.402
356	0.402
356	0.401
357	0.4
357	0.4
358	0.399
358	0.399
359	0.399
359	0.399
360	0.399
360	0.399
360	0.399
361	0.398
361	0.398
362	0.398
362	0.398
363	0.398
363	0.397
364	0.397
364	0.396
365	0.396
365	0.395
366	0.395
366	0.394
366	0.394
367	0.394
367	0.393
368	0.393
368	0.393
369	0.392
369	0.392
370	0.392
370	0.391
371	0.391
371	0.391
372	0.39
372	0.39
372	0.389
373	0.389
373	0.388
374	0.388
374	0.387
375	0.386
375	0.386
376	0.386
376	0.385
377	0.385
377	0.385
378	0.384
378	0.384
378	0.384
379	0.384
379	0.383
380	0.383
380	0.383
381	0.382
381	0.382
382	0.381
382	0.38
383	0.38
383	0.379
383	0.378
384	0.378
384	0.377
385	0.377
385	0.376
386	0.376
386	0.375
387	0.375
387	0.374
388	0.374
388	0.374
389	0.373
389	0.373
389	0.372
390	0.372
390	0.371
391	0.371
391	0.371
392	0.371
392	0.37
393	0.37
393	0.37
394	0.37
394	0.369
394	0.369
395	0.368
395	0.368
396	0.367
396	0.367
397	0.366
397	0.366
398	0.365
398	0.365
399	0.364
399	0.364
400	0.363
400	0.363
400	0.363
401	0.362
401	0.362
402	0.362
402	0.361
403	0.361
403	0.361
404	0.361
404	0.36
405	0.36
405	0.359
405	0.359
406	0.359
406	0.358
407	0.358
407	0.358
408	0.357
408	0.357
409	0.356
409	0.356
410	0.356
410	0.356
411	0.356
411	0.355
411	0.355
412	0.355
412	0.354
413	0.354
413	0.354
414	0.354
414	0.353
415	0.353
415	0.352
416	0.352
416	0.351
416	0.351
417	0.351
417	0.35
418	0.35
418	0.35
419	0.349
419	0.349
420	0.349
420	0.349
421	0.349
421	0.349
421	0.349
422	0.349
422	0.349
423	0.349
423	0.349
424	0.349
424	0.348
425	0.348
425	0.348
426	0.348
426	0.348
427	0.347
427	0.347
427	0.347
428	0.348
428	0.348
429	0.348
429	0.348
430	0.348
430	0.348
431	0.348
431	0.347
432	0.347
432	0.347
432	0.346
433	0.346
433	0.345
434	0.345
434	0.345
435	0.345
435	0.345
436	0.345
436	0.346
437	0.346
437	0.346
437	0.346
438	0.346
438	0.347
439	0.346
439	0.346
440	0.346
440	0.346
441	0.345
441	0.345
442	0.345
442	0.345
442	0.345
443	0.345
443	0.345
444	0.345
444	0.345
445	0.345
445	0.346
446	0.346
446	0.347
447	0.347
447	0.347
447	0.347
448	0.348
448	0.348
449	0.348
449	0.349
450	0.349
450	0.349
451	0.349
451	0.349
452	0.349
452	0.349
452	0.35
453	0.35
453	0.35
454	0.35
454	0.351
455	0.351
455	0.352
456	0.352
456	0.353
457	0.353
457	0.353
458	0.354
458	0.354
458	0.355
459	0.355
459	0.355
460	0.355
460	0.355
461	0.356
461	0.357
462	0.358
462	0.359
463	0.359
463	0.36
463	0.361
464	0.362
464	0.363
465	0.363
465	0.364
466	0.365
466	0.365
467	0.366
467	0.366
467	0.367
468	0.367
468	0.368
469	0.369
469	0.37
470	0.371
470	0.372
471	0.373
471	0.374
472	0.375
472	0.376
472	0.377
473	0.378
473	0.379
474	0.38
474	0.382
475	0.383
475	0.384
476	0.386
476	0.387
477	0.388
477	0.39
477	0.392
478	0.394
478	0.395
479	0.397
479	0.399
480	0.4
480	0.402
481	0.404
481	0.406
482	0.407
482	0.409
482	0.411
483	0.414
483	0.416
484	0.418
484	0.419
485	0.422
485	0.424
486	0.426
486	0.428
487	0.43
487	0.433
487	0.435
488	0.437
488	0.439
489	0.442
489	0.446
490	0.449
490	0.452
491	0.455
491	0.458
492	0.461
492	0.464
492	0.468
493	0.471
493	0.474
494	0.478
494	0.482
495	0.485
495	0.488
496	0.492
496	0.495
496	0.499
497	0.502
497	0.506
498	0.51
498	0.514
499	0.517
499	0.521
500	0.526
500	0.53
501	0.534
501	0.538
501	0.542
502	0.546
502	0.55
503	0.554
503	0.558
504	0.562
504	0.565
505	0.569
505	0.573
506	0.578
506	0.582
506	0.586
507	0.591
507	0.595
508	0.599
508	0.604
509	0.608
509	0.612
510	0.617
510	0.621
511	0.625
511	0.629
511	0.633
512	0.637
512	0.641
513	0.645
513	0.649
514	0.653
514	0.657
515	0.661
515	0.664
515	0.667
516	0.671
516	0.674
517	0.678
517	0.681
518	0.683
518	0.685
519	0.688
519	0.69
520	0.692
520	0.694
520	0.697
521	0.698
521	0.699
522	0.7
522	0.702
523	0.704
523	0.706
524	0.707
524	0.708
524	0.709
525	0.709
525	0.709
526	0.709
526	0.71
527	0.71
527	0.71
528	0.709
528	0.709
529	0.708
529	0.708
529	0.707
530	0.706
530	0.705
531	0.704
531	0.702
532	0.701
532	0.699
533	0.697
533	0.694
533	0.691
534	0.689
534	0.686
535	0.683
535	0.68
536	0.677
536	0.674
537	0.67
537	0.666
538	0.662
538	0.659
538	0.655
539	0.651
539	0.647
540	0.642
540	0.638
541	0.633
541	0.629
542	0.624
542	0.619
542	0.613
543	0.608
543	0.603
544	0.598
544	0.594
545	0.589
545	0.584
546	0.579
546	0.573
547	0.567
547	0.562
547	0.557
548	0.552
548	0.546
549	0.541
549	0.535
550	0.529
550	0.523
551	0.517
551	0.511
551	0.505
552	0.499
552	0.494
553	0.488
553	0.483
554	0.476
554	0.47
555	0.464
555	0.458
556	0.452
556	0.446
556	0.441
557	0.435
557	0.43
558	0.424
558	0.418
559	0.413
559	0.407
560	0.402
560	0.396
560	0.392
561	0.387
561	0.382
562	0.377
562	0.372
563	0.365
563	0.36
564	0.354
564	0.349
564	0.343
565	0.337
565	0.331
566	0.325
566	0.319
567	0.314
567	0.309
568	0.304
568	0.299
568	0.295
569	0.29
569	0.286
570	0.281
570	0.277
571	0.273
571	0.269
572	0.264
572	0.26
573	0.256
573	0.251
573	0.247
574	0.244
574	0.241
575	0.237
575	0.234
576	0.23
576	0.226
577	0.222
577	0.219
577	0.216
578	0.213
578	0.21
579	0.208
579	0.204
580	0.199
580	0.194
581	0.189
581	0.186
581	0.184
582	0.182
582	0.179
583	0.177
583	0.173
584	0.169
584	0.165
585	0.163
585	0.161
585	0.159
586	0.156
586	0.154
587	0.151
587	0.148
588	0.145
588	0.143
589	0.141
589	0.14
590	0.139
590	0.137
590	0.136
591	0.135
591	0.132
592	0.129
592	0.127
593	0.125
593	0.123
594	0.12
594	0.118
594	0.116
595	0.114
595	0.111
596	0.109
596	0.109
597	0.109
597	0.107
598	0.105
598	0.104
598	0.102
599	0.1
599	0.098
600	0.096
600	0.094
601	0.092
601	0.09
602	0.088
602	0.087
602	0.085
603	0.084
603	0.084
604	0.084
604	0.084
605	0.084
605	0.084
606	0.083
606	0.081
606	0.08
607	0.078
607	0.077
608	0.075
608	0.072
609	0.071
609	0.07
610	0.067
610	0.066
610	0.065
611	0.066
611	0.066
612	0.066
612	0.066
613	0.066
613	0.066
614	0.065
614	0.063
614	0.063
615	0.062
615	0.061
616	0.059
616	0.058
617	0.057
617	0.056
618	0.054
618	0.054
618	0.053
619	0.053
619	0.054
620	0.054
620	0.054
621	0.053
621	0.052
622	0.051
622	0.05
622	0.048
623	0.047
623	0.047
624	0.046
624	0.044
625	0.044
625	0.043
626	0.042
626	0.042
626	0.043
627	0.043
627	0.043
628	0.044
628	0.044
629	0.043
629	0.042
630	0.041
630	0.04
630	0.04
631	0.039
631	0.038
632	0.036
632	0.035
633	0.034
633	0.033
634	0.032
634	0.032
634	0.032
635	0.031
635	0.03
636	0.029
636	0.029
637	0.028
637	0.027
638	0.026
638	0.024
638	0.023
639	0.021
639	0.02
640	0.018
640	0.017
641	0.015
641	0.014
642	0.012
642	0.01
642	0.009
643	0.007
643	0.004
644	0.002
644	0
645	-0.001
645	-0.003
646	-0.005
646	-0.007
646	-0.009
647	-0.011
647	-0.013
648	-0.015
648	-0.017
649	-0.02
649	-0.023
650	-0.026
650	-0.029
650	-0.034
651	-0.038
651	-0.044
652	-0.05
652	-0.056
653	-0.061
653	-0.067
653	-0.064
654	-0.061
654	-0.068
655	-0.074
655	-0.077
656	-0.082
656	-0.087
657	-0.091
657	-0.094
657	-0.098
658	-0.102
658	-0.122
659	-0.166
659	-0.198
660	-0.217
660	-0.233
661	-0.247
661	-0.266
661	-0.285
662	-0.301
662	-0.318
663	-0.333
663	-0.353
664	-0.364
664	-0.385
665	-0.403
665	-0.418
665	-0.44
666	-0.458
666	-0.475
667	-0.496
667	-0.517
668	-0.54
668	-0.572
669	-0.605
669	-0.632
669	-0.657
670	-0.604
670	-0.429
671	-0.259
671	-0.736
672	-1.436
672	-1.962
672	-2.23
673	-2.396
673	-2.455
674	-2.472
674	-2.479
675	-2.531
675	-2.67
676	-2.821
676	-2.769
676	-2.59
677	-2.394
677	-2.168
678	-1.722
678	-1.205
679	-0.983
679	-0.908
680	-0.859
680	-0.825
680	-0.799
681	-0.787
681	-0.776
682	-0.767
682	-0.749
683	-0.728
683	-0.734
684	-0.739
684	-0.742
684	-0.744
685	-0.751
685	-0.749
686	-0.74
686	-0.726
687	-0.73
687	-0.739
687	-0.736
688	-0.722
688	-0.72
689	-0.712
689	-0.723
690	-0.713
690	-0.722
691	-0.734
691	-0.745
691	-0.744
692	-0.742
692	-0.748
693	-0.759
693	-0.773
694	-0.777
694	-0.767
695	-0.776
695	-0.77
695	-0.767
696	-0.764
696	-0.768
697	-0.771
697	-0.771
698	-0.771
698	-0.749
698	-0.754
699	-0.746
699	-0.745
700	-0.743
700	-0.751
701	-0.755
701	-0.758
702	-0.756
702	-0.762
702	-0.771
703	-0.775
703	-0.778
704	-0.786
704	-0.785
705	-0.784
705	-0.778
705	-0.781
706	-0.775
706	-0.772
707	-0.776
707	-0.762
708	-0.767
708	-0.763
709	-0.771
709	-0.771
709	-0.767
710	-0.769
710	-0.77
711	-0.765
711	-0.771
712	-0.762
712	-0.768
713	-0.766
713	-0.774
713	-0.774
714	-0.765
714	-0.763
715	-0.767
715	-0.769
716	-0.789
716	-0.793
716	-0.797
717	-0.787
717	-0.789
718	-0.777
718	-0.768
719	-0.788
719	-0.795
720	-0.784
720	-0.791
720	-0.772
721	-0.765
721	-0.767
722	-0.769
722	-0.761
723	-0.756
723	-0.763
723	-0.755
724	-0.754
724	-0.753
725	-0.741
725	-0.746
726	-0.749
726	-0.745
727	-0.751
727	-0.75
727	-0.761
728	-0.756
728	-0.747
729	-0.756
729	-0.762
730	-0.772
730	-0.773
730	-0.776
731	-0.78
731	-0.782
732	-0.79
732	-0.785
733	-0.788
733	-0.791
734	-0.781
734	-0.782
734	-0.773
735	-0.782
735	-0.781
736	-0.778
736	-0.782
737	-0.782
737	-0.79
737	-0.795
738	-0.804
738	-0.798
739	-0.792
739	-0.808
740	-0.803
740	-0.803
741	-0.812
741	-0.81
741	-0.803
742	-0.802
742	-0.793
743	-0.783
743	-0.782
744	-0.778
744	-0.757
744	-0.753
745	-0.758
745	-0.749
746	-0.743
746	-0.746
747	-0.743
747	-0.742
748	-0.746
748	-0.758
748	-0.767
749	-0.775
749	-0.785
750	-0.77
750	-0.773
751	-0.772
751	-0.78
751	-0.78
752	-0.784
752	-0.786
753	-0.782
753	-0.781
754	-0.788
754	-0.776
754	-0.777
755	-0.771
755	-0.768
756	-0.758
756	-0.759
757	-0.753
757	-0.744
758	-0.75
758	-0.743
758	-0.745
759	-0.751
759	-0.755
760	-0.772
760	-0.779
761	-0.785
761	-0.774
761	-0.788
762	-0.788
762	-0.785
763	-0.789
763	-0.79
764	-0.785
764	-0.796
764	-0.786
765	-0.792
765	-0.781
766	-0.799
766	-0.807
767	-0.818
767	-0.808
768	-0.813
768	-0.812
768	-0.808
769	-0.803
769	-0.802
770	-0.815
770	-0.82
771	-0.813
771	-0.806
771	-0.813
772	-0.828
772	-0.836
773	-0.828
773	-0.841
774	-0.842
774	-0.847
775	-0.826
775	-0.831
775	-0.835
776	-0.825
776	-0.82
777	-0.818
777	-0.825
778	-0.824
778	-0.816
778	-0.821
779	-0.817
779	-0.827
780	-0.845
780	-0.859
781	-0.868
781	-0.87
781	-0.886
782	-0.881
782	-0.886
783	-0.886
783	-0.892
784	-0.903
784	-0.895
784	-0.883
785	-0.863
785	-0.86
786	-0.857
786	-0.849
787	-0.839
787	-0.84
788	-0.842
788	-0.832
788	-0.836
789	-0.84
789	-0.849
790	-0.849
790	-0.849
791	-0.848
791	-0.84
791	-0.848
792	-0.843
792	-0.844
793	-0.841
793	-0.839
794	-0.837
794	-0.815
794	-0.834
795	-0.825
795	-0.828
796	-0.831
796	-0.828
797	-0.828
797	-0.841
797	-0.835
798	-0.825
798	-0.826
799	-0.828
799	-0.811
800	-0.813
800	-0.811
801	-0.81
801	-0.801
801	-0.799
802	-0.791
802	-0.79
803	-0.788
803	-0.782
804	-0.787
804	-0.791
804	-0.794
805	-0.782
805	-0.769
806	-0.772
806	-0.766
807	-0.766
807	-0.765
807	-0.756
808	-0.747
808	-0.741
809	-0.73
809	-0.724
810	-0.74
810	-0.737
810	-0.737
811	-0.74
811	-0.732
812	-0.731
812	-0.739
813	-0.746
813	-0.754
813	-0.761
814	-0.763
814	-0.75
815	-0.751
815	-0.751
816	-0.743
816	-0.743
817	-0.744
817	-0.754
817	-0.76
818	-0.747
818	-0.75
819	-0.759
819	-0.766
820	-0.776
820	-0.778
820	-0.784
821	-0.788
821	-0.797
822	-0.788
822	-0.788
823	-0.793
823	-0.793
823	-0.787
824	-0.784
824	-0.785
825	-0.781
825	-0.776
826	-0.765
826	-0.756
826	-0.759
827	-0.753
827	-0.743
828	-0.728
828	-0.724
829	-0.719
829	-0.702
829	-0.704
830	-0.692
830	-0.688
831	-0.687
831	-0.679
832	-0.672
832	-0.669
832	-0.671
833	-0.667
833	-0.669
834	-0.665
834	-0.655
835	-0.661
835	-0.654
835	-0.644
836	-0.633
836	-0.628
837	-0.621
837	-0.612
838	-0.61
838	-0.598
839	-0.59
839	-0.581
839	-0.573
840	-0.573
840	-0.568
841	-0.566
841	-0.555
842	-0.55
842	-0.541
842	-0.526
843	-0.517
843	-0.513
844	-0.509
844	-0.498
845	-0.486
845	-0.479
845	-0.465
846	-0.459
846	-0.446
847	-0.435
847	-0.427
848	-0.415
848	-0.402
848	-0.389
849	-0.378
849	-0.366
850	-0.353
850	-0.345
851	-0.335
851	-0.32
851	-0.312
852	-0.298
852	-0.288
853	-0.281
853	-0.274
854	-0.264
854	-0.255
854	-0.248
855	-0.24
855	-0.231
856	-0.226
856	-0.218
857	-0.212
857	-0.206
857	-0.195
858	-0.187
858	-0.181
859	-0.174
859	-0.165
860	-0.157
860	-0.147
860	-0.139
861	-0.132
861	-0.125
862	-0.118
862	-0.112
863	-0.106
863	-0.099
863	-0.094
864	-0.089
864	-0.083
865	-0.078
865	-0.074
866	-0.069
866	-0.065
866	-0.061
867	-0.057
867	-0.053
868	-0.05
868	-0.046
869	-0.043
869	-0.04
869	-0.038
870	-0.036
870	-0.033
871	-0.032
871	-0.031
872	-0.03
872	-0.03
872	-0.03
873	-0.031
873	-0.033
874	-0.036
874	-0.038
875	-0.039
875	-0.041
875	-0.043
876	-0.044
876	-0.046
877	-0.048
877	-0.05
878	-0.051
878	-0.052
878	-0.052
879	-0.052
879	-0.052
880	-0.051
880	-0.051
881	-0.051
881	-0.05
881	-0.049
882	-0.049
882	-0.049
883	-0.05
883	-0.051
884	-0.052
884	-0.052
884	-0.053
885	-0.053
885	-0.054
886	-0.054
886	-0.055
887	-0.056
887	-0.057
887	-0.057
888	-0.057
888	-0.058
889	-0.058
889	-0.058
890	-0.058
890	-0.058
890	-0.058
891	-0.057
891	-0.057
892	-0.056
892	-0.056
893	-0.057
893	-0.057
893	-0.057
894	-0.057
894	-0.058
895	-0.059
895	-0.059
895	-0.06
896	-0.06
896	-0.061
897	-0.061
897	-0.061
898	-0.061
898	-0.06
898	-0.059
899	-0.058
899	-0.057
900	-0.056
900	-0.055
901	-0.054
901	-0.053
901	-0.051
902	-0.05
902	-0.048
903	-0.047
903	-0.046
904	-0.044
904	-0.043
904	-0.042
905	-0.041
905	-0.04
906	-0.039
906	-0.039
907	-0.038
907	-0.038
907	-0.037
908	-0.037
908	-0.037
909	-0.037
909	-0.037
910	-0.037
910	-0.036
910	-0.035
911	-0.035
911	-0.034
912	-0.034
912	-0.033
913	-0.033
913	-0.033
913	-0.034
914	-0.034
914	-0.035
915	-0.036
915	-0.037
916	-0.038
916	-0.038
916	-0.039
917	-0.039
917	-0.039
918	-0.039
918	-0.039
918	-0.039
919	-0.038
919	-0.037
920	-0.036
920	-0.036
921	-0.035
921	-0.035
921	-0.035
922	-0.035
922	-0.035
923	-0.035
923	-0.035
924	-0.035
924	-0.035
924	-0.036
925	-0.036
925	-0.037
926	-0.037
926	-0.037
927	-0.037
927	-0.038
927	-0.038
928	-0.038
928	-0.038
929	-0.038
929	-0.038
930	-0.038
930	-0.038
930	-0.038
931	-0.038
931	-0.038
932	-0.038
932	-0.038
933	-0.039
933	-0.04
933	-0.041
934	-0.042
934	-0.044
935	-0.045
935	-0.046
935	-0.048
936	-0.049
936	-0.05
937	-0.052
937	-0.053
938	-0.054
938	-0.055
938	-0.055
939	-0.055
939	-0.055
940	-0.054
940	-0.055
941	-0.055
941	-0.055
941	-0.055
942	-0.054
942	-0.055
943	-0.055
943	-0.056
944	-0.055
944	-0.056
944	-0.056
945	-0.055
945	-0.055
946	-0.054
946	-0.054
946	-0.053
947	-0.053
947	-0.053
948	-0.052
948	-0.052
949	-0.052
949	-0.052
949	-0.052
950	-0.052
950	-0.052
951	-0.052
951	-0.052
952	-0.052
952	-0.051
952	-0.051
953	-0.05
953	-0.049
954	-0.047
954	-0.046
955	-0.044
955	-0.042
955	-0.041
956	-0.038
956	-0.036
957	-0.034
957	-0.032
957	-0.03
958	-0.029
958	-0.028
959	-0.026
959	-0.026
960	-0.025
960	-0.025
960	-0.025
961	-0.025
961	-0.025
962	-0.026
962	-0.026
963	-0.027
963	-0.027
963	-0.027
964	-0.028
964	-0.028
965	-0.028
965	-0.028
966	-0.029
966	-0.029
966	-0.029
967	-0.029
967	-0.03
968	-0.031
968	-0.032
968	-0.033
969	-0.034
969	-0.034
970	-0.035
970	-0.036
971	-0.037
971	-0.037
971	-0.038
972	-0.038
972	-0.037
973	-0.036
973	-0.036
974	-0.035
974	-0.035
974	-0.035
975	-0.034
975	-0.034
976	-0.034
976	-0.034
976	-0.034
977	-0.034
977	-0.035
978	-0.036
978	-0.036
979	-0.036
979	-0.036
979	-0.036
980	-0.037
980	-0.037
981	-0.037
981	-0.038
982	-0.038
982	-0.039
982	-0.039
983	-0.04
983	-0.041
984	-0.041
984	-0.042
984	-0.043
985	-0.044
985	-0.044
986	-0.044
986	-0.044
987	-0.044
987	-0.044
987	-0.044
988	-0.044
988	-0.044
989	-0.043
989	-0.042
990	-0.042
990	-0.042
990	-0.041
991	-0.041
991	-0.041
992	-0.041
992	-0.042
992	-0.042
993	-0.042
993	-0.043
994	-0.044
994	-0.045
995	-0.045
995	-0.046
995	-0.046
996	-0.047
996	-0.048
997	-0.048
997	-0.049
997	-0.05
998	-0.05
998	-0.051
999	-0.052
999	-0.053
1000	-0.053
1000	-0.054
1000	-0.055
1001	-0.055
1001	-0.055
1002	-0.056
1002	-0.056
1003	-0.057
1003	-0.058
1003	-0.058
1004	-0.059
1004	-0.06
1005	-0.062
1005	-0.063
1005	-0.065
1006	-0.066
1006	-0.067
1007	-0.068
1007	-0.069
1008	-0.07
1008	-0.071
1008	-0.072
1009	-0.072
1009	-0.072
1010	-0.072
1010	-0.071
1010	-0.071
1011	-0.071
1011	-0.071
1012	-0.071
1012	-0.071
1013	-0.071
1013	-0.071
1013	-0.072
1014	-0.072
1014	-0.072
1015	-0.072
1015	-0.072
1016	-0.073
1016	-0.073
1016	-0.073
1017	-0.073
1017	-0.073
1018	-0.072
1018	-0.071
1018	-0.071
1019	-0.07
1019	-0.07
1020	-0.07
1020	-0.07
1021	-0.069
1021	-0.069
1021	-0.069
1022	-0.069
1022	-0.069
1023	-0.069
1023	-0.07
1023	-0.07
1024	-0.07
1024	-0.071
1025	-0.071
1025	-0.07
1026	-0.07
1026	-0.07
1026	-0.069
1027	-0.069
1027	-0.069
1028	-0.068
1028	-0.067
1028	-0.066
1029	-0.065
1029	-0.064
1030	-0.064
1030	-0.063
1031	-0.063
1031	-0.063
1031	-0.062
1032	-0.062
1032	-0.063
1033	-0.063
1033	-0.064
1033	-0.065
1034	-0.066
1034	-0.067
1035	-0.067
1035	-0.069
1036	-0.069
1036	-0.07
1036	-0.07
1037	-0.071
1037	-0.071
1038	-0.071
1038	-0.071
1039	-0.071
1039	-0.07
1039	-0.07
1040	-0.07
1040	-0.069
1041	-0.069
1041	-0.069
1041	-0.069
1042	-0.069
1042	-0.069
1043	-0.069
1043	-0.069
1044	-0.07
1044	-0.07
1044	-0.07
1045	-0.071
1045	-0.071
1046	-0.071
1046	-0.071
1046	-0.071
1047	-0.071
1047	-0.071
1048	-0.071
1048	-0.07
1049	-0.071
1049	-0.071
1049	-0.072
1050	-0.072
1050	-0.073
1051	-0.074
1051	-0.075
1051	-0.075
1052	-0.076
1052	-0.077
1053	-0.078
1053	-0.078
1053	-0.078
1054	-0.079
1054	-0.078
1055	-0.078
1055	-0.078
1056	-0.078
1056	-0.078
1056	-0.078
1057	-0.078
1057	-0.078
1058	-0.079
1058	-0.079
1058	-0.079
1059	-0.08
1059	-0.08
1060	-0.081
1060	-0.081
1061	-0.081
1061	-0.08
1061	-0.08
1062	-0.079
1062	-0.079
1063	-0.078
1063	-0.078
1063	-0.077
1064	-0.076
1064	-0.075
1065	-0.075
1065	-0.074
1066	-0.074
1066	-0.074
1066	-0.073
1067	-0.073
1067	-0.073
1068	-0.073
1068	-0.073
1068	-0.073
1069	-0.073
1069	-0.074
1070	-0.074
1070	-0.075
1071	-0.075
1071	-0.076
1071	-0.076
1072	-0.077
1072	-0.076
1073	-0.077
1073	-0.077
1073	-0.077
1074	-0.077
1074	-0.077
1075	-0.078
1075	-0.078
1076	-0.079
1076	-0.08
1076	-0.081
1077	-0.082
1077	-0.083
1078	-0.085
1078	-0.085
1078	-0.086
1079	-0.087
1079	-0.088
1080	-0.088
1080	-0.089
1080	-0.09
1081	-0.09
1081	-0.09
1082	-0.09
1082	-0.09
1083	-0.091
1083	-0.091
1083	-0.092
1084	-0.092
1084	-0.093
1085	-0.093
1085	-0.093
1085	-0.094
1086	-0.093
1086	-0.095
1087	-0.094
1087	-0.095
1088	-0.096
1088	-0.096
1088	-0.097
1089	-0.098
1089	-0.099
1090	-0.101
1090	-0.102
1090	-0.104
1091	-0.106
1091	-0.107
1092	-0.108
1092	-0.109
1092	-0.111
1093	-0.114
1093	-0.114
1094	-0.115
1094	-0.117
1095	-0.119
1095	-0.12
1095	-0.122
1096	-0.124
1096	-0.126
1097	-0.128
1097	-0.13
1097	-0.13
1098	-0.134
1098	-0.136
1099	-0.137
1099	-0.138
1100	-0.14
1100	-0.142
1100	-0.144
1101	-0.145
1101	-0.148
1102	-0.15
1102	-0.151
1102	-0.153
1103	-0.155
1103	-0.156
1104	-0.157
1104	-0.159
1104	-0.159
1105	-0.161
1105	-0.163
1106	-0.167
1106	-0.169
1107	-0.173
1107	-0.176
1107	-0.179
1108	-0.181
1108	-0.182
1109	-0.184
1109	-0.19
1109	-0.193
1110	-0.194
1110	-0.195
1111	-0.201
1111	-0.196
