Data from 17c-1-8a_Absorbance__543__05922.txt Node

Date: Thu Jan 25 17:26:50 CET 2024
User: Marek
Spectrometer: MAYP115816
Trigger mode: 0
Integration Time (sec): 2.000000E-1
Scans to average: 10
Electric dark correction enabled: true
Nonlinearity correction enabled: true
Boxcar width: 5
XAxis mode: Wavelengths
Number of Pixels in Spectrum: 2068
>>>>>Begin Spectral Data<<<<<
199	-0.551
199	-0.505
200	-0.432
200	-0.367
201	-0.33
201	-0.307
202	-0.281
202	-0.273
203	-0.266
203	-0.261
204	-0.251
204	-0.234
205	-0.219
205	-0.211
205	-0.21
206	-0.21
206	-0.212
207	-0.212
207	-0.212
208	-0.211
208	-0.211
209	-0.207
209	-0.211
210	-0.212
210	-0.214
211	-0.214
211	-0.216
212	-0.216
212	-0.216
213	-0.216
213	-0.218
213	-0.221
214	-0.221
214	-0.219
215	-0.218
215	-0.218
216	-0.218
216	-0.22
217	-0.217
217	-0.218
218	-0.218
218	-0.217
219	-0.214
219	-0.215
220	-0.218
220	-0.219
221	-0.22
221	-0.222
221	-0.218
222	-0.216
222	-0.215
223	-0.213
223	-0.212
224	-0.21
224	-0.203
225	-0.195
225	-0.19
226	-0.183
226	-0.174
227	-0.165
227	-0.161
228	-0.148
228	-0.138
229	-0.123
229	-0.105
229	-0.09
230	-0.074
230	-0.056
231	-0.036
231	-0.014
232	0.006
232	0.028
233	0.047
233	0.067
234	0.082
234	0.098
235	0.112
235	0.124
236	0.136
236	0.145
236	0.154
237	0.162
237	0.167
238	0.173
238	0.177
239	0.182
239	0.185
240	0.188
240	0.191
241	0.193
241	0.195
242	0.196
242	0.198
243	0.2
243	0.201
243	0.202
244	0.204
244	0.205
245	0.206
245	0.207
246	0.209
246	0.21
247	0.211
247	0.212
248	0.214
248	0.215
249	0.216
249	0.217
250	0.218
250	0.219
250	0.221
251	0.222
251	0.223
252	0.224
252	0.225
253	0.226
253	0.226
254	0.228
254	0.229
255	0.229
255	0.23
256	0.231
256	0.232
257	0.233
257	0.233
258	0.234
258	0.234
258	0.234
259	0.235
259	0.235
260	0.235
260	0.234
261	0.234
261	0.234
262	0.233
262	0.233
263	0.232
263	0.232
264	0.231
264	0.23
265	0.23
265	0.229
265	0.228
266	0.227
266	0.225
267	0.224
267	0.223
268	0.222
268	0.22
269	0.219
269	0.217
270	0.216
270	0.214
271	0.212
271	0.21
272	0.209
272	0.207
272	0.205
273	0.203
273	0.202
274	0.2
274	0.198
275	0.196
275	0.194
276	0.193
276	0.191
277	0.189
277	0.187
278	0.185
278	0.183
278	0.181
279	0.179
279	0.177
280	0.175
280	0.173
281	0.171
281	0.169
282	0.166
282	0.164
283	0.163
283	0.161
284	0.16
284	0.158
285	0.157
285	0.155
285	0.154
286	0.152
286	0.151
287	0.149
287	0.148
288	0.146
288	0.145
289	0.144
289	0.142
290	0.141
290	0.14
291	0.139
291	0.138
292	0.137
292	0.136
292	0.135
293	0.134
293	0.133
294	0.132
294	0.131
295	0.131
295	0.13
296	0.129
296	0.129
297	0.128
297	0.128
298	0.127
298	0.127
298	0.126
299	0.126
299	0.125
300	0.125
300	0.125
301	0.124
301	0.124
302	0.123
302	0.123
303	0.123
303	0.123
304	0.122
304	0.122
305	0.121
305	0.121
305	0.121
306	0.12
306	0.12
307	0.12
307	0.12
308	0.119
308	0.119
309	0.119
309	0.119
310	0.118
310	0.118
311	0.118
311	0.118
311	0.118
312	0.117
312	0.117
313	0.117
313	0.116
314	0.116
314	0.116
315	0.115
315	0.115
316	0.115
316	0.115
317	0.114
317	0.114
318	0.114
318	0.113
318	0.113
319	0.113
319	0.113
320	0.112
320	0.112
321	0.111
321	0.111
322	0.111
322	0.111
323	0.11
323	0.11
324	0.11
324	0.109
324	0.109
325	0.109
325	0.109
326	0.108
326	0.108
327	0.108
327	0.108
328	0.107
328	0.107
329	0.107
329	0.107
330	0.106
330	0.106
330	0.106
331	0.106
331	0.105
332	0.105
332	0.105
333	0.104
333	0.104
334	0.104
334	0.104
335	0.103
335	0.103
336	0.103
336	0.103
336	0.102
337	0.102
337	0.102
338	0.102
338	0.101
339	0.101
339	0.101
340	0.101
340	0.101
341	0.1
341	0.1
342	0.1
342	0.099
342	0.099
343	0.099
343	0.099
344	0.098
344	0.098
345	0.098
345	0.097
346	0.097
346	0.097
347	0.097
347	0.097
348	0.096
348	0.096
348	0.096
349	0.096
349	0.096
350	0.096
350	0.096
351	0.096
351	0.096
352	0.095
352	0.095
353	0.096
353	0.095
354	0.095
354	0.095
354	0.095
355	0.095
355	0.095
356	0.095
356	0.094
357	0.094
357	0.094
358	0.094
358	0.094
359	0.094
359	0.094
360	0.094
360	0.094
360	0.094
361	0.094
361	0.094
362	0.094
362	0.094
363	0.094
363	0.094
364	0.094
364	0.094
365	0.094
365	0.094
366	0.094
366	0.094
366	0.094
367	0.094
367	0.093
368	0.093
368	0.093
369	0.093
369	0.093
370	0.093
370	0.093
371	0.093
371	0.093
372	0.093
372	0.093
372	0.093
373	0.093
373	0.093
374	0.093
374	0.093
375	0.093
375	0.093
376	0.093
376	0.093
377	0.093
377	0.093
378	0.093
378	0.093
378	0.093
379	0.093
379	0.093
380	0.093
380	0.093
381	0.093
381	0.093
382	0.093
382	0.093
383	0.093
383	0.092
383	0.092
384	0.092
384	0.092
385	0.092
385	0.092
386	0.092
386	0.092
387	0.092
387	0.092
388	0.092
388	0.092
389	0.092
389	0.092
389	0.092
390	0.092
390	0.092
391	0.092
391	0.092
392	0.092
392	0.092
393	0.092
393	0.092
394	0.092
394	0.091
394	0.091
395	0.091
395	0.091
396	0.091
396	0.091
397	0.091
397	0.091
398	0.091
398	0.091
399	0.09
399	0.09
400	0.09
400	0.09
400	0.09
401	0.09
401	0.09
402	0.089
402	0.089
403	0.09
403	0.09
404	0.09
404	0.089
405	0.089
405	0.089
405	0.089
406	0.089
406	0.089
407	0.089
407	0.089
408	0.089
408	0.089
409	0.089
409	0.089
410	0.089
410	0.089
411	0.089
411	0.089
411	0.089
412	0.089
412	0.089
413	0.089
413	0.089
414	0.089
414	0.089
415	0.089
415	0.088
416	0.088
416	0.088
416	0.088
417	0.088
417	0.089
418	0.089
418	0.089
419	0.089
419	0.089
420	0.089
420	0.089
421	0.089
421	0.089
421	0.089
422	0.089
422	0.089
423	0.089
423	0.089
424	0.088
424	0.088
425	0.088
425	0.088
426	0.088
426	0.088
427	0.088
427	0.088
427	0.088
428	0.088
428	0.088
429	0.088
429	0.088
430	0.088
430	0.088
431	0.088
431	0.088
432	0.087
432	0.087
432	0.087
433	0.086
433	0.087
434	0.087
434	0.087
435	0.087
435	0.087
436	0.087
436	0.087
437	0.087
437	0.087
437	0.087
438	0.087
438	0.087
439	0.087
439	0.086
440	0.086
440	0.086
441	0.086
441	0.086
442	0.086
442	0.086
442	0.086
443	0.086
443	0.086
444	0.086
444	0.086
445	0.086
445	0.086
446	0.086
446	0.086
447	0.086
447	0.086
447	0.086
448	0.086
448	0.086
449	0.086
449	0.086
450	0.087
450	0.087
451	0.087
451	0.086
452	0.086
452	0.086
452	0.086
453	0.087
453	0.087
454	0.086
454	0.087
455	0.087
455	0.087
456	0.087
456	0.087
457	0.087
457	0.087
458	0.087
458	0.087
458	0.087
459	0.087
459	0.087
460	0.086
460	0.086
461	0.086
461	0.086
462	0.086
462	0.087
463	0.087
463	0.087
463	0.087
464	0.087
464	0.087
465	0.087
465	0.087
466	0.087
466	0.088
467	0.088
467	0.087
467	0.087
468	0.087
468	0.087
469	0.087
469	0.087
470	0.087
470	0.087
471	0.087
471	0.087
472	0.087
472	0.087
472	0.088
473	0.088
473	0.088
474	0.089
474	0.089
475	0.089
475	0.089
476	0.09
476	0.09
477	0.091
477	0.091
477	0.091
478	0.091
478	0.092
479	0.092
479	0.092
480	0.092
480	0.092
481	0.092
481	0.092
482	0.092
482	0.093
482	0.093
483	0.094
483	0.095
484	0.095
484	0.095
485	0.095
485	0.095
486	0.095
486	0.095
487	0.096
487	0.096
487	0.096
488	0.096
488	0.096
489	0.096
489	0.097
490	0.098
490	0.098
491	0.099
491	0.1
492	0.1
492	0.101
492	0.101
493	0.102
493	0.102
494	0.103
494	0.104
495	0.104
495	0.104
496	0.105
496	0.106
496	0.106
497	0.107
497	0.107
498	0.107
498	0.108
499	0.108
499	0.109
500	0.11
500	0.111
501	0.112
501	0.112
501	0.113
502	0.113
502	0.114
503	0.115
503	0.115
504	0.115
504	0.115
505	0.116
505	0.116
506	0.117
506	0.117
506	0.118
507	0.118
507	0.119
508	0.12
508	0.12
509	0.121
509	0.121
510	0.122
510	0.123
511	0.123
511	0.124
511	0.124
512	0.125
512	0.125
513	0.125
513	0.126
514	0.126
514	0.126
515	0.127
515	0.127
515	0.127
516	0.127
516	0.128
517	0.128
517	0.128
518	0.128
518	0.128
519	0.129
519	0.129
520	0.129
520	0.13
520	0.13
521	0.13
521	0.129
522	0.129
522	0.129
523	0.129
523	0.129
524	0.129
524	0.129
524	0.128
525	0.128
525	0.128
526	0.128
526	0.128
527	0.128
527	0.127
528	0.127
528	0.127
529	0.126
529	0.126
529	0.126
530	0.126
530	0.125
531	0.125
531	0.125
532	0.125
532	0.125
533	0.124
533	0.124
533	0.123
534	0.123
534	0.122
535	0.122
535	0.121
536	0.121
536	0.12
537	0.119
537	0.119
538	0.118
538	0.118
538	0.117
539	0.117
539	0.116
540	0.115
540	0.114
541	0.114
541	0.113
542	0.113
542	0.113
542	0.112
543	0.112
543	0.111
544	0.111
544	0.111
545	0.11
545	0.11
546	0.11
546	0.109
547	0.107
547	0.106
547	0.105
548	0.105
548	0.104
549	0.103
549	0.103
550	0.102
550	0.101
551	0.1
551	0.1
551	0.1
552	0.1
552	0.099
553	0.099
553	0.099
554	0.098
554	0.097
555	0.096
555	0.095
556	0.094
556	0.093
556	0.092
557	0.092
557	0.091
558	0.09
558	0.09
559	0.089
559	0.089
560	0.089
560	0.088
560	0.088
561	0.089
561	0.088
562	0.088
562	0.087
563	0.086
563	0.085
564	0.083
564	0.083
564	0.082
565	0.081
565	0.081
566	0.079
566	0.079
567	0.078
567	0.078
568	0.078
568	0.077
568	0.077
569	0.077
569	0.077
570	0.076
570	0.075
571	0.075
571	0.075
572	0.074
572	0.074
573	0.073
573	0.072
573	0.071
574	0.071
574	0.071
575	0.071
575	0.072
576	0.072
576	0.07
577	0.069
577	0.069
577	0.069
578	0.069
578	0.07
579	0.071
579	0.071
580	0.069
580	0.067
581	0.065
581	0.065
581	0.065
582	0.066
582	0.066
583	0.067
583	0.066
584	0.064
584	0.062
585	0.063
585	0.064
585	0.065
586	0.065
586	0.065
587	0.063
587	0.062
588	0.061
588	0.06
589	0.06
589	0.06
590	0.06
590	0.06
590	0.061
591	0.061
591	0.061
592	0.06
592	0.059
593	0.06
593	0.06
594	0.06
594	0.06
594	0.06
595	0.06
595	0.06
596	0.06
596	0.062
597	0.064
597	0.065
598	0.065
598	0.065
598	0.065
599	0.065
599	0.064
600	0.063
600	0.062
601	0.062
601	0.061
602	0.059
602	0.059
602	0.059
603	0.059
603	0.06
604	0.06
604	0.061
605	0.061
605	0.062
606	0.062
606	0.06
606	0.06
607	0.06
607	0.061
608	0.06
608	0.059
609	0.059
609	0.059
610	0.059
610	0.058
610	0.059
611	0.06
611	0.061
612	0.061
612	0.062
613	0.063
613	0.063
614	0.063
614	0.063
614	0.063
615	0.063
615	0.063
616	0.063
616	0.063
617	0.063
617	0.062
618	0.062
618	0.062
618	0.062
619	0.063
619	0.064
620	0.065
620	0.065
621	0.065
621	0.065
622	0.065
622	0.065
622	0.064
623	0.064
623	0.065
624	0.065
624	0.064
625	0.064
625	0.065
626	0.065
626	0.066
626	0.067
627	0.068
627	0.068
628	0.069
628	0.069
629	0.07
629	0.07
630	0.07
630	0.07
630	0.07
631	0.071
631	0.071
632	0.07
632	0.071
633	0.072
633	0.072
634	0.073
634	0.074
634	0.075
635	0.076
635	0.076
636	0.077
636	0.078
637	0.079
637	0.08
638	0.08
638	0.081
638	0.081
639	0.081
639	0.081
640	0.082
640	0.083
641	0.084
641	0.085
642	0.087
642	0.088
642	0.089
643	0.09
643	0.091
644	0.093
644	0.094
645	0.095
645	0.096
646	0.097
646	0.098
646	0.099
647	0.099
647	0.1
648	0.1
648	0.101
649	0.102
649	0.103
650	0.104
650	0.105
650	0.106
651	0.107
651	0.108
652	0.108
652	0.109
653	0.111
653	0.117
653	0.122
654	0.099
654	0.08
655	0.08
655	0.081
656	0.082
656	0.084
657	0.085
657	0.087
657	0.088
658	0.085
658	0.08
659	0.101
659	0.129
660	0.137
660	0.138
661	0.139
661	0.14
661	0.141
662	0.143
662	0.144
663	0.145
663	0.147
664	0.148
664	0.149
665	0.15
665	0.152
665	0.153
666	0.154
666	0.155
667	0.156
667	0.158
668	0.159
668	0.16
669	0.161
669	0.163
669	0.165
670	0.166
670	0.166
671	0.167
671	0.168
672	0.169
672	0.17
672	0.171
673	0.172
673	0.173
674	0.174
674	0.175
675	0.176
675	0.177
676	0.179
676	0.18
676	0.18
677	0.181
677	0.182
678	0.182
678	0.181
679	0.181
679	0.182
680	0.182
680	0.182
680	0.181
681	0.182
681	0.183
682	0.183
682	0.183
683	0.184
683	0.185
684	0.186
684	0.185
684	0.185
685	0.186
685	0.186
686	0.186
686	0.185
687	0.184
687	0.184
687	0.184
688	0.183
688	0.183
689	0.183
689	0.183
690	0.183
690	0.182
691	0.182
691	0.183
691	0.183
692	0.182
692	0.181
693	0.181
693	0.181
694	0.18
694	0.18
695	0.181
695	0.182
695	0.181
696	0.18
696	0.179
697	0.179
697	0.178
698	0.177
698	0.176
698	0.176
699	0.175
699	0.173
700	0.171
700	0.17
701	0.169
701	0.168
702	0.167
702	0.166
702	0.165
703	0.163
703	0.162
704	0.161
704	0.16
705	0.159
705	0.158
705	0.157
706	0.156
706	0.155
707	0.154
707	0.153
708	0.153
708	0.153
709	0.153
709	0.152
709	0.151
710	0.15
710	0.15
711	0.15
711	0.15
712	0.149
712	0.148
713	0.147
713	0.145
713	0.144
714	0.143
714	0.142
715	0.14
715	0.139
716	0.137
716	0.136
716	0.134
717	0.133
717	0.131
718	0.129
718	0.128
719	0.127
719	0.126
720	0.124
720	0.123
720	0.122
721	0.12
721	0.119
722	0.118
722	0.116
723	0.116
723	0.115
723	0.113
724	0.112
724	0.111
725	0.11
725	0.109
726	0.109
726	0.108
727	0.107
727	0.106
727	0.105
728	0.104
728	0.103
729	0.103
729	0.102
730	0.101
730	0.1
730	0.099
731	0.099
731	0.098
732	0.098
732	0.097
733	0.096
733	0.095
734	0.094
734	0.093
734	0.092
735	0.091
735	0.09
736	0.088
736	0.088
737	0.087
737	0.087
737	0.085
738	0.084
738	0.082
739	0.082
739	0.081
740	0.081
740	0.081
741	0.081
741	0.08
741	0.079
742	0.078
742	0.078
743	0.079
743	0.079
744	0.078
744	0.078
744	0.078
745	0.077
745	0.076
746	0.075
746	0.075
747	0.073
747	0.072
748	0.071
748	0.069
748	0.068
749	0.066
749	0.065
750	0.064
750	0.063
751	0.062
751	0.062
751	0.061
752	0.061
752	0.06
753	0.06
753	0.06
754	0.06
754	0.059
754	0.059
755	0.058
755	0.058
756	0.056
756	0.055
757	0.054
757	0.053
758	0.052
758	0.051
758	0.051
759	0.05
759	0.048
760	0.047
760	0.046
761	0.045
761	0.045
761	0.044
762	0.043
762	0.043
763	0.042
763	0.041
764	0.04
764	0.039
764	0.039
765	0.039
765	0.039
766	0.039
766	0.039
767	0.038
767	0.037
768	0.036
768	0.036
768	0.036
769	0.036
769	0.036
770	0.034
770	0.034
771	0.032
771	0.031
771	0.03
772	0.03
772	0.029
773	0.029
773	0.028
774	0.026
774	0.025
775	0.024
775	0.022
775	0.021
776	0.019
776	0.018
777	0.016
777	0.015
778	0.013
778	0.012
778	0.011
779	0.011
779	0.011
780	0.01
780	0.009
781	0.008
781	0.007
781	0.005
782	0.003
782	0.001
783	-0.001
783	-0.004
784	-0.007
784	-0.01
784	-0.013
785	-0.016
785	-0.02
786	-0.023
786	-0.025
787	-0.028
787	-0.03
788	-0.034
788	-0.038
788	-0.041
789	-0.046
789	-0.049
790	-0.052
790	-0.056
791	-0.06
791	-0.064
791	-0.068
792	-0.07
792	-0.069
793	-0.072
793	-0.076
794	-0.081
794	-0.088
794	-0.096
795	-0.104
795	-0.11
796	-0.116
796	-0.122
797	-0.131
797	-0.142
797	-0.149
798	-0.155
798	-0.16
799	-0.163
799	-0.165
800	-0.165
800	-0.167
801	-0.17
801	-0.171
801	-0.171
802	-0.172
802	-0.173
803	-0.173
803	-0.173
804	-0.172
804	-0.166
804	-0.159
805	-0.155
805	-0.152
806	-0.15
806	-0.149
807	-0.147
807	-0.146
807	-0.146
808	-0.145
808	-0.146
809	-0.15
809	-0.154
810	-0.154
810	-0.151
810	-0.149
811	-0.145
811	-0.138
812	-0.129
812	-0.12
813	-0.111
813	-0.102
813	-0.092
814	-0.083
814	-0.075
815	-0.067
815	-0.059
816	-0.053
816	-0.048
817	-0.044
817	-0.04
817	-0.035
818	-0.03
818	-0.026
819	-0.022
819	-0.019
820	-0.017
820	-0.015
820	-0.012
821	-0.009
821	-0.007
822	-0.005
822	-0.004
823	-0.002
823	-0.001
823	-0
824	0.001
824	0.003
825	0.004
825	0.005
826	0.006
826	0.006
826	0.007
827	0.007
827	0.006
828	0.006
828	0.006
829	0.006
829	0.006
829	0.006
830	0.006
830	0.006
831	0.008
831	0.01
832	0.011
832	0.013
832	0.014
833	0.015
833	0.016
834	0.017
834	0.017
835	0.017
835	0.017
835	0.016
836	0.015
836	0.015
837	0.014
837	0.013
838	0.013
838	0.012
839	0.012
839	0.011
839	0.011
840	0.011
840	0.011
841	0.011
841	0.01
842	0.01
842	0.01
842	0.01
843	0.01
843	0.01
844	0.011
844	0.011
845	0.012
845	0.012
845	0.013
846	0.014
846	0.014
847	0.015
847	0.016
848	0.017
848	0.017
848	0.018
849	0.018
849	0.019
850	0.019
850	0.018
851	0.019
851	0.019
851	0.018
852	0.018
852	0.017
853	0.016
853	0.015
854	0.014
854	0.013
854	0.013
855	0.012
855	0.011
856	0.011
856	0.01
857	0.01
857	0.011
857	0.011
858	0.011
858	0.012
859	0.012
859	0.013
860	0.014
860	0.014
860	0.015
861	0.016
861	0.016
862	0.016
862	0.016
863	0.016
863	0.017
863	0.017
864	0.017
864	0.017
865	0.017
865	0.017
866	0.017
866	0.017
866	0.017
867	0.017
867	0.017
868	0.017
868	0.016
869	0.016
869	0.015
869	0.015
870	0.014
870	0.014
871	0.013
871	0.013
872	0.012
872	0.012
872	0.011
873	0.011
873	0.011
874	0.011
874	0.01
875	0.01
875	0.01
875	0.01
876	0.009
876	0.009
877	0.009
877	0.009
878	0.009
878	0.009
878	0.01
879	0.01
879	0.01
880	0.01
880	0.01
881	0.01
881	0.01
881	0.01
882	0.01
882	0.01
883	0.01
883	0.011
884	0.011
884	0.011
884	0.012
885	0.012
885	0.012
886	0.012
886	0.012
887	0.012
887	0.012
887	0.011
888	0.011
888	0.011
889	0.011
889	0.012
890	0.013
890	0.013
890	0.014
891	0.014
891	0.015
892	0.016
892	0.016
893	0.017
893	0.018
893	0.019
894	0.02
894	0.02
895	0.02
895	0.02
895	0.02
896	0.02
896	0.019
897	0.019
897	0.018
898	0.018
898	0.017
898	0.016
899	0.016
899	0.016
900	0.015
900	0.015
901	0.015
901	0.014
901	0.014
902	0.014
902	0.014
903	0.014
903	0.013
904	0.013
904	0.013
904	0.013
905	0.014
905	0.014
906	0.014
906	0.014
907	0.014
907	0.014
907	0.014
908	0.013
908	0.013
909	0.012
909	0.011
910	0.011
910	0.01
910	0.009
911	0.009
911	0.009
912	0.009
912	0.01
913	0.011
913	0.011
913	0.012
914	0.013
914	0.014
915	0.014
915	0.015
916	0.016
916	0.016
916	0.017
917	0.017
917	0.017
918	0.018
918	0.018
918	0.018
919	0.018
919	0.018
920	0.018
920	0.017
921	0.017
921	0.016
921	0.016
922	0.015
922	0.014
923	0.014
923	0.013
924	0.012
924	0.012
924	0.011
925	0.011
925	0.011
926	0.011
926	0.01
927	0.01
927	0.01
927	0.01
928	0.01
928	0.01
929	0.01
929	0.01
930	0.011
930	0.011
930	0.01
931	0.01
931	0.011
932	0.011
932	0.011
933	0.011
933	0.01
933	0.01
934	0.01
934	0.01
935	0.009
935	0.009
935	0.009
936	0.008
936	0.007
937	0.007
937	0.006
938	0.005
938	0.004
938	0.003
939	0.002
939	0.002
940	0.001
940	0.002
941	0.002
941	0.003
941	0.004
942	0.005
942	0.006
943	0.007
943	0.008
944	0.009
944	0.01
944	0.011
945	0.012
945	0.012
946	0.013
946	0.013
946	0.014
947	0.014
947	0.015
948	0.015
948	0.015
949	0.014
949	0.014
949	0.013
950	0.012
950	0.012
951	0.011
951	0.01
952	0.009
952	0.009
952	0.008
953	0.007
953	0.007
954	0.007
954	0.007
955	0.007
955	0.007
955	0.007
956	0.008
956	0.009
957	0.009
957	0.009
957	0.01
958	0.01
958	0.011
959	0.011
959	0.011
960	0.012
960	0.012
960	0.012
961	0.012
961	0.011
962	0.012
962	0.012
963	0.011
963	0.011
963	0.011
964	0.011
964	0.011
965	0.011
965	0.011
966	0.011
966	0.012
966	0.012
967	0.012
967	0.012
968	0.013
968	0.013
968	0.013
969	0.013
969	0.013
970	0.012
970	0.012
971	0.012
971	0.011
971	0.011
972	0.011
972	0.011
973	0.01
973	0.01
974	0.01
974	0.01
974	0.01
975	0.009
975	0.009
976	0.008
976	0.008
976	0.007
977	0.006
977	0.005
978	0.004
978	0.003
979	0.002
979	0
979	-0
980	-0.001
980	-0.002
981	-0.003
981	-0.003
982	-0.003
982	-0.004
982	-0.004
983	-0.004
983	-0.004
984	-0.004
984	-0.004
984	-0.003
985	-0.003
985	-0.003
986	-0.004
986	-0.004
987	-0.004
987	-0.005
987	-0.005
988	-0.005
988	-0.005
989	-0.005
989	-0.005
990	-0.006
990	-0.006
990	-0.006
991	-0.005
991	-0.005
992	-0.005
992	-0.005
992	-0.006
993	-0.006
993	-0.006
994	-0.006
994	-0.007
995	-0.007
995	-0.007
995	-0.008
996	-0.008
996	-0.008
997	-0.009
997	-0.009
997	-0.009
998	-0.008
998	-0.008
999	-0.007
999	-0.007
1000	-0.006
1000	-0.005
1000	-0.005
1001	-0.004
1001	-0.003
1002	-0.003
1002	-0.003
1003	-0.003
1003	-0.003
1003	-0.003
1004	-0.003
1004	-0.004
1005	-0.005
1005	-0.006
1005	-0.006
1006	-0.007
1006	-0.007
1007	-0.008
1007	-0.008
1008	-0.009
1008	-0.009
1008	-0.009
1009	-0.008
1009	-0.008
1010	-0.008
1010	-0.007
1010	-0.006
1011	-0.006
1011	-0.005
1012	-0.004
1012	-0.004
1013	-0.003
1013	-0.003
1013	-0.002
1014	-0.002
1014	-0.002
1015	-0.002
1015	-0.003
1016	-0.003
1016	-0.004
1016	-0.005
1017	-0.005
1017	-0.006
1018	-0.006
1018	-0.006
1018	-0.007
1019	-0.007
1019	-0.007
1020	-0.007
1020	-0.007
1021	-0.007
1021	-0.007
1021	-0.007
1022	-0.007
1022	-0.007
1023	-0.007
1023	-0.007
1023	-0.007
1024	-0.007
1024	-0.007
1025	-0.007
1025	-0.007
1026	-0.007
1026	-0.007
1026	-0.007
1027	-0.007
1027	-0.008
1028	-0.008
1028	-0.008
1028	-0.008
1029	-0.009
1029	-0.009
1030	-0.01
1030	-0.01
1031	-0.01
1031	-0.01
1031	-0.011
1032	-0.011
1032	-0.011
1033	-0.012
1033	-0.012
1033	-0.012
1034	-0.012
1034	-0.013
1035	-0.013
1035	-0.014
1036	-0.015
1036	-0.015
1036	-0.015
1037	-0.015
1037	-0.016
1038	-0.016
1038	-0.016
1039	-0.016
1039	-0.016
1039	-0.016
1040	-0.016
1040	-0.016
1041	-0.017
1041	-0.017
1041	-0.017
1042	-0.017
1042	-0.017
1043	-0.017
1043	-0.017
1044	-0.017
1044	-0.017
1044	-0.017
1045	-0.017
1045	-0.017
1046	-0.017
1046	-0.016
1046	-0.015
1047	-0.014
1047	-0.014
1048	-0.013
1048	-0.012
1049	-0.012
1049	-0.011
1049	-0.011
1050	-0.011
1050	-0.012
1051	-0.012
1051	-0.013
1051	-0.014
1052	-0.015
1052	-0.016
1053	-0.017
1053	-0.019
1053	-0.02
1054	-0.021
1054	-0.022
1055	-0.023
1055	-0.024
1056	-0.025
1056	-0.026
1056	-0.027
1057	-0.029
1057	-0.03
1058	-0.03
1058	-0.031
1058	-0.032
1059	-0.033
1059	-0.033
1060	-0.034
1060	-0.034
1061	-0.034
1061	-0.034
1061	-0.033
1062	-0.033
1062	-0.032
1063	-0.032
1063	-0.032
1063	-0.031
1064	-0.031
1064	-0.03
1065	-0.03
1065	-0.029
1066	-0.029
1066	-0.028
1066	-0.027
1067	-0.026
1067	-0.025
1068	-0.025
1068	-0.024
1068	-0.024
1069	-0.024
1069	-0.024
1070	-0.024
1070	-0.025
1071	-0.025
1071	-0.026
1071	-0.027
1072	-0.027
1072	-0.028
1073	-0.028
1073	-0.028
1073	-0.029
1074	-0.029
1074	-0.029
1075	-0.03
1075	-0.031
1076	-0.033
1076	-0.034
1076	-0.036
1077	-0.037
1077	-0.039
1078	-0.04
1078	-0.041
1078	-0.042
1079	-0.043
1079	-0.043
1080	-0.044
1080	-0.044
1080	-0.044
1081	-0.044
1081	-0.044
1082	-0.044
1082	-0.045
1083	-0.045
1083	-0.045
1083	-0.045
1084	-0.046
1084	-0.046
1085	-0.046
1085	-0.046
1085	-0.046
1086	-0.047
1086	-0.047
1087	-0.047
1087	-0.047
1088	-0.048
1088	-0.048
1088	-0.048
1089	-0.049
1089	-0.05
1090	-0.051
1090	-0.051
1090	-0.052
1091	-0.052
1091	-0.052
1092	-0.053
1092	-0.053
1092	-0.054
1093	-0.055
1093	-0.055
1094	-0.055
1094	-0.056
1095	-0.056
1095	-0.057
1095	-0.058
1096	-0.058
1096	-0.058
1097	-0.059
1097	-0.06
1097	-0.061
1098	-0.062
1098	-0.063
1099	-0.064
1099	-0.065
1100	-0.066
1100	-0.067
1100	-0.07
1101	-0.072
1101	-0.074
1102	-0.075
1102	-0.077
1102	-0.078
1103	-0.08
1103	-0.082
1104	-0.085
1104	-0.088
1104	-0.089
1105	-0.092
1105	-0.093
1106	-0.096
1106	-0.098
1107	-0.102
1107	-0.104
1107	-0.108
1108	-0.109
1108	-0.11
1109	-0.111
1109	-0.115
1109	-0.117
1110	-0.119
1110	-0.122
1111	-0.126
1111	-0.116
