Data from 17c-1-8a_Absorbance__1860__07239.txt Node

Date: Thu Jan 25 18:10:44 CET 2024
User: Marek
Spectrometer: MAYP115816
Trigger mode: 0
Integration Time (sec): 2.000000E-1
Scans to average: 10
Electric dark correction enabled: true
Nonlinearity correction enabled: true
Boxcar width: 5
XAxis mode: Wavelengths
Number of Pixels in Spectrum: 2068
>>>>>Begin Spectral Data<<<<<
199	-0.568
199	-0.517
200	-0.438
200	-0.376
201	-0.34
201	-0.317
202	-0.291
202	-0.282
203	-0.274
203	-0.268
204	-0.258
204	-0.241
205	-0.227
205	-0.222
205	-0.22
206	-0.219
206	-0.221
207	-0.221
207	-0.221
208	-0.22
208	-0.218
209	-0.213
209	-0.215
210	-0.218
210	-0.216
211	-0.218
211	-0.219
212	-0.22
212	-0.219
213	-0.222
213	-0.223
213	-0.228
214	-0.23
214	-0.229
215	-0.227
215	-0.23
216	-0.229
216	-0.232
217	-0.228
217	-0.229
218	-0.227
218	-0.225
219	-0.22
219	-0.222
220	-0.224
220	-0.225
221	-0.224
221	-0.225
221	-0.221
222	-0.219
222	-0.219
223	-0.215
223	-0.215
224	-0.213
224	-0.204
225	-0.197
225	-0.193
226	-0.187
226	-0.177
227	-0.166
227	-0.162
228	-0.147
228	-0.137
229	-0.122
229	-0.104
229	-0.087
230	-0.069
230	-0.049
231	-0.026
231	-0.002
232	0.018
232	0.043
233	0.063
233	0.084
234	0.103
234	0.121
235	0.138
235	0.153
236	0.167
236	0.177
236	0.188
237	0.198
237	0.205
238	0.212
238	0.218
239	0.224
239	0.228
240	0.232
240	0.236
241	0.238
241	0.241
242	0.243
242	0.245
243	0.247
243	0.249
243	0.251
244	0.253
244	0.254
245	0.255
245	0.257
246	0.259
246	0.26
247	0.261
247	0.263
248	0.264
248	0.265
249	0.266
249	0.267
250	0.268
250	0.27
250	0.271
251	0.272
251	0.273
252	0.274
252	0.275
253	0.276
253	0.277
254	0.278
254	0.279
255	0.28
255	0.281
256	0.282
256	0.282
257	0.283
257	0.284
258	0.284
258	0.284
258	0.284
259	0.285
259	0.285
260	0.285
260	0.284
261	0.284
261	0.284
262	0.283
262	0.283
263	0.283
263	0.282
264	0.281
264	0.28
265	0.279
265	0.278
265	0.277
266	0.276
266	0.275
267	0.274
267	0.272
268	0.271
268	0.269
269	0.268
269	0.266
270	0.265
270	0.263
271	0.261
271	0.259
272	0.257
272	0.256
272	0.254
273	0.252
273	0.25
274	0.248
274	0.246
275	0.244
275	0.242
276	0.24
276	0.238
277	0.236
277	0.234
278	0.232
278	0.229
278	0.227
279	0.224
279	0.222
280	0.22
280	0.218
281	0.215
281	0.213
282	0.211
282	0.209
283	0.207
283	0.206
284	0.204
284	0.202
285	0.201
285	0.199
285	0.197
286	0.195
286	0.194
287	0.192
287	0.191
288	0.189
288	0.188
289	0.186
289	0.185
290	0.183
290	0.182
291	0.181
291	0.18
292	0.178
292	0.177
292	0.176
293	0.175
293	0.174
294	0.173
294	0.172
295	0.171
295	0.171
296	0.17
296	0.169
297	0.168
297	0.168
298	0.167
298	0.166
298	0.166
299	0.165
299	0.165
300	0.164
300	0.164
301	0.164
301	0.163
302	0.163
302	0.162
303	0.162
303	0.161
304	0.161
304	0.16
305	0.16
305	0.159
305	0.159
306	0.158
306	0.158
307	0.158
307	0.157
308	0.157
308	0.157
309	0.156
309	0.156
310	0.156
310	0.155
311	0.155
311	0.155
311	0.154
312	0.154
312	0.153
313	0.153
313	0.153
314	0.152
314	0.152
315	0.151
315	0.151
316	0.151
316	0.15
317	0.15
317	0.149
318	0.149
318	0.149
318	0.148
319	0.148
319	0.148
320	0.147
320	0.147
321	0.146
321	0.146
322	0.146
322	0.145
323	0.145
323	0.145
324	0.144
324	0.144
324	0.143
325	0.143
325	0.143
326	0.142
326	0.142
327	0.142
327	0.141
328	0.141
328	0.141
329	0.14
329	0.14
330	0.14
330	0.139
330	0.139
331	0.139
331	0.138
332	0.138
332	0.138
333	0.137
333	0.137
334	0.137
334	0.136
335	0.136
335	0.135
336	0.135
336	0.135
336	0.135
337	0.134
337	0.134
338	0.134
338	0.133
339	0.133
339	0.133
340	0.132
340	0.132
341	0.132
341	0.131
342	0.131
342	0.131
342	0.13
343	0.13
343	0.13
344	0.129
344	0.129
345	0.129
345	0.129
346	0.128
346	0.128
347	0.128
347	0.128
348	0.128
348	0.128
348	0.127
349	0.127
349	0.127
350	0.127
350	0.127
351	0.127
351	0.126
352	0.126
352	0.126
353	0.126
353	0.126
354	0.126
354	0.126
354	0.126
355	0.125
355	0.125
356	0.125
356	0.125
357	0.124
357	0.124
358	0.124
358	0.124
359	0.124
359	0.124
360	0.124
360	0.124
360	0.124
361	0.124
361	0.124
362	0.124
362	0.124
363	0.124
363	0.124
364	0.124
364	0.124
365	0.124
365	0.124
366	0.124
366	0.124
366	0.124
367	0.124
367	0.124
368	0.124
368	0.124
369	0.124
369	0.124
370	0.124
370	0.124
371	0.123
371	0.123
372	0.123
372	0.123
372	0.123
373	0.123
373	0.123
374	0.123
374	0.122
375	0.122
375	0.122
376	0.122
376	0.122
377	0.122
377	0.122
378	0.122
378	0.122
378	0.122
379	0.122
379	0.122
380	0.122
380	0.122
381	0.121
381	0.121
382	0.121
382	0.121
383	0.121
383	0.121
383	0.12
384	0.12
384	0.12
385	0.12
385	0.12
386	0.12
386	0.12
387	0.12
387	0.12
388	0.12
388	0.12
389	0.12
389	0.12
389	0.12
390	0.12
390	0.12
391	0.12
391	0.12
392	0.12
392	0.12
393	0.12
393	0.119
394	0.119
394	0.119
394	0.119
395	0.119
395	0.119
396	0.118
396	0.118
397	0.118
397	0.118
398	0.118
398	0.118
399	0.118
399	0.118
400	0.118
400	0.118
400	0.118
401	0.118
401	0.117
402	0.118
402	0.117
403	0.117
403	0.117
404	0.117
404	0.117
405	0.117
405	0.117
405	0.117
406	0.117
406	0.116
407	0.116
407	0.116
408	0.116
408	0.116
409	0.116
409	0.116
410	0.116
410	0.116
411	0.116
411	0.116
411	0.116
412	0.116
412	0.116
413	0.116
413	0.115
414	0.115
414	0.115
415	0.115
415	0.115
416	0.115
416	0.115
416	0.115
417	0.114
417	0.114
418	0.114
418	0.114
419	0.114
419	0.115
420	0.115
420	0.115
421	0.115
421	0.115
421	0.115
422	0.115
422	0.115
423	0.115
423	0.115
424	0.114
424	0.114
425	0.114
425	0.114
426	0.114
426	0.114
427	0.114
427	0.114
427	0.114
428	0.114
428	0.114
429	0.114
429	0.113
430	0.113
430	0.113
431	0.113
431	0.113
432	0.113
432	0.113
432	0.112
433	0.112
433	0.112
434	0.112
434	0.112
435	0.112
435	0.112
436	0.112
436	0.112
437	0.112
437	0.112
437	0.112
438	0.113
438	0.113
439	0.112
439	0.112
440	0.112
440	0.112
441	0.112
441	0.112
442	0.112
442	0.112
442	0.112
443	0.112
443	0.111
444	0.111
444	0.111
445	0.112
445	0.112
446	0.112
446	0.112
447	0.112
447	0.112
447	0.112
448	0.112
448	0.112
449	0.112
449	0.112
450	0.112
450	0.112
451	0.112
451	0.112
452	0.112
452	0.112
452	0.112
453	0.112
453	0.112
454	0.112
454	0.112
455	0.113
455	0.113
456	0.113
456	0.113
457	0.112
457	0.112
458	0.112
458	0.112
458	0.112
459	0.112
459	0.112
460	0.112
460	0.112
461	0.112
461	0.112
462	0.112
462	0.112
463	0.112
463	0.113
463	0.113
464	0.113
464	0.113
465	0.113
465	0.113
466	0.113
466	0.114
467	0.114
467	0.113
467	0.113
468	0.113
468	0.113
469	0.113
469	0.114
470	0.114
470	0.114
471	0.113
471	0.113
472	0.113
472	0.114
472	0.114
473	0.114
473	0.114
474	0.115
474	0.115
475	0.115
475	0.116
476	0.117
476	0.117
477	0.118
477	0.119
477	0.119
478	0.119
478	0.12
479	0.12
479	0.12
480	0.12
480	0.12
481	0.12
481	0.121
482	0.121
482	0.121
482	0.122
483	0.122
483	0.123
484	0.124
484	0.124
485	0.124
485	0.124
486	0.125
486	0.125
487	0.125
487	0.126
487	0.126
488	0.126
488	0.126
489	0.126
489	0.127
490	0.128
490	0.129
491	0.13
491	0.13
492	0.131
492	0.132
492	0.132
493	0.133
493	0.134
494	0.135
494	0.136
495	0.137
495	0.137
496	0.138
496	0.139
496	0.14
497	0.141
497	0.141
498	0.142
498	0.142
499	0.143
499	0.143
500	0.145
500	0.146
501	0.146
501	0.147
501	0.148
502	0.149
502	0.15
503	0.151
503	0.152
504	0.152
504	0.153
505	0.154
505	0.155
506	0.156
506	0.156
506	0.157
507	0.158
507	0.159
508	0.159
508	0.16
509	0.161
509	0.162
510	0.163
510	0.163
511	0.163
511	0.164
511	0.165
512	0.166
512	0.166
513	0.167
513	0.168
514	0.168
514	0.169
515	0.169
515	0.17
515	0.17
516	0.17
516	0.171
517	0.171
517	0.172
518	0.172
518	0.172
519	0.172
519	0.172
520	0.172
520	0.173
520	0.173
521	0.173
521	0.173
522	0.173
522	0.173
523	0.173
523	0.173
524	0.173
524	0.172
524	0.172
525	0.172
525	0.171
526	0.171
526	0.171
527	0.171
527	0.17
528	0.17
528	0.17
529	0.169
529	0.169
529	0.168
530	0.168
530	0.168
531	0.167
531	0.167
532	0.166
532	0.166
533	0.165
533	0.165
533	0.164
534	0.163
534	0.162
535	0.161
535	0.161
536	0.16
536	0.159
537	0.158
537	0.157
538	0.156
538	0.155
538	0.154
539	0.154
539	0.153
540	0.152
540	0.151
541	0.15
541	0.149
542	0.148
542	0.147
542	0.146
543	0.146
543	0.145
544	0.144
544	0.143
545	0.143
545	0.143
546	0.142
546	0.141
547	0.139
547	0.138
547	0.137
548	0.136
548	0.135
549	0.134
549	0.133
550	0.132
550	0.13
551	0.128
551	0.127
551	0.126
552	0.125
552	0.124
553	0.124
553	0.123
554	0.122
554	0.121
555	0.119
555	0.119
556	0.118
556	0.116
556	0.116
557	0.115
557	0.114
558	0.113
558	0.112
559	0.112
559	0.111
560	0.11
560	0.109
560	0.109
561	0.109
561	0.108
562	0.107
562	0.106
563	0.104
563	0.103
564	0.102
564	0.1
564	0.099
565	0.098
565	0.097
566	0.096
566	0.094
567	0.094
567	0.093
568	0.093
568	0.092
568	0.092
569	0.092
569	0.091
570	0.09
570	0.089
571	0.089
571	0.088
572	0.087
572	0.087
573	0.086
573	0.085
573	0.083
574	0.083
574	0.083
575	0.083
575	0.084
576	0.083
576	0.082
577	0.081
577	0.08
577	0.08
578	0.08
578	0.08
579	0.081
579	0.081
580	0.079
580	0.077
581	0.075
581	0.074
581	0.075
582	0.075
582	0.075
583	0.076
583	0.075
584	0.073
584	0.071
585	0.071
585	0.072
585	0.073
586	0.073
586	0.072
587	0.071
587	0.07
588	0.069
588	0.068
589	0.068
589	0.068
590	0.068
590	0.068
590	0.069
591	0.069
591	0.068
592	0.067
592	0.066
593	0.067
593	0.067
594	0.067
594	0.066
594	0.066
595	0.067
595	0.066
596	0.066
596	0.069
597	0.071
597	0.071
598	0.071
598	0.071
598	0.071
599	0.071
599	0.07
600	0.07
600	0.069
601	0.069
601	0.068
602	0.066
602	0.066
602	0.066
603	0.066
603	0.067
604	0.067
604	0.067
605	0.068
605	0.068
606	0.067
606	0.066
606	0.066
607	0.066
607	0.066
608	0.066
608	0.065
609	0.065
609	0.065
610	0.065
610	0.065
610	0.066
611	0.067
611	0.068
612	0.069
612	0.07
613	0.07
613	0.071
614	0.071
614	0.071
614	0.071
615	0.071
615	0.071
616	0.071
616	0.071
617	0.071
617	0.07
618	0.07
618	0.07
618	0.07
619	0.071
619	0.072
620	0.073
620	0.073
621	0.073
621	0.074
622	0.074
622	0.074
622	0.074
623	0.074
623	0.075
624	0.076
624	0.075
625	0.075
625	0.076
626	0.076
626	0.077
626	0.078
627	0.079
627	0.08
628	0.08
628	0.081
629	0.082
629	0.082
630	0.082
630	0.083
630	0.084
631	0.084
631	0.085
632	0.085
632	0.086
633	0.087
633	0.087
634	0.089
634	0.089
634	0.09
635	0.091
635	0.091
636	0.092
636	0.093
637	0.094
637	0.094
638	0.095
638	0.095
638	0.096
639	0.097
639	0.098
640	0.099
640	0.1
641	0.101
641	0.103
642	0.104
642	0.106
642	0.108
643	0.109
643	0.111
644	0.112
644	0.114
645	0.115
645	0.116
646	0.117
646	0.118
646	0.119
647	0.12
647	0.121
648	0.121
648	0.122
649	0.124
649	0.125
650	0.126
650	0.128
650	0.13
651	0.131
651	0.132
652	0.134
652	0.136
653	0.138
653	0.144
653	0.149
654	0.119
654	0.097
655	0.097
655	0.099
656	0.1
656	0.102
657	0.104
657	0.105
657	0.106
658	0.104
658	0.099
659	0.125
659	0.161
660	0.169
660	0.171
661	0.172
661	0.174
661	0.176
662	0.178
662	0.18
663	0.182
663	0.184
664	0.185
664	0.187
665	0.188
665	0.19
665	0.192
666	0.193
666	0.195
667	0.196
667	0.198
668	0.2
668	0.202
669	0.204
669	0.206
669	0.208
670	0.209
670	0.21
671	0.211
671	0.212
672	0.214
672	0.215
672	0.216
673	0.218
673	0.22
674	0.221
674	0.222
675	0.224
675	0.225
676	0.227
676	0.228
676	0.229
677	0.23
677	0.231
678	0.23
678	0.23
679	0.23
679	0.23
680	0.23
680	0.23
680	0.229
681	0.229
681	0.23
682	0.23
682	0.23
683	0.231
683	0.232
684	0.232
684	0.231
684	0.231
685	0.231
685	0.231
686	0.231
686	0.231
687	0.231
687	0.231
687	0.231
688	0.23
688	0.23
689	0.23
689	0.23
690	0.23
690	0.229
691	0.229
691	0.229
691	0.228
692	0.227
692	0.226
693	0.226
693	0.226
694	0.225
694	0.225
695	0.225
695	0.226
695	0.225
696	0.223
696	0.223
697	0.222
697	0.221
698	0.22
698	0.219
698	0.218
699	0.216
699	0.214
700	0.212
700	0.211
701	0.21
701	0.208
702	0.207
702	0.206
702	0.204
703	0.202
703	0.201
704	0.2
704	0.199
705	0.198
705	0.196
705	0.194
706	0.193
706	0.192
707	0.19
707	0.189
708	0.188
708	0.187
709	0.187
709	0.185
709	0.184
710	0.182
710	0.182
711	0.181
711	0.18
712	0.179
712	0.178
713	0.177
713	0.175
713	0.174
714	0.172
714	0.171
715	0.17
715	0.168
716	0.167
716	0.165
716	0.163
717	0.162
717	0.16
718	0.158
718	0.156
719	0.155
719	0.154
720	0.152
720	0.15
720	0.148
721	0.146
721	0.145
722	0.143
722	0.141
723	0.14
723	0.138
723	0.137
724	0.135
724	0.134
725	0.132
725	0.131
726	0.13
726	0.129
727	0.128
727	0.127
727	0.126
728	0.124
728	0.123
729	0.123
729	0.122
730	0.12
730	0.119
730	0.118
731	0.117
731	0.116
732	0.115
732	0.114
733	0.113
733	0.112
734	0.11
734	0.109
734	0.108
735	0.107
735	0.105
736	0.104
736	0.103
737	0.102
737	0.101
737	0.1
738	0.098
738	0.097
739	0.096
739	0.095
740	0.094
740	0.093
741	0.093
741	0.091
741	0.09
742	0.088
742	0.088
743	0.088
743	0.088
744	0.087
744	0.087
744	0.086
745	0.085
745	0.085
746	0.085
746	0.084
747	0.083
747	0.082
748	0.081
748	0.08
748	0.078
749	0.076
749	0.075
750	0.074
750	0.072
751	0.072
751	0.071
751	0.07
752	0.069
752	0.069
753	0.068
753	0.067
754	0.066
754	0.065
754	0.064
755	0.062
755	0.061
756	0.059
756	0.056
757	0.055
757	0.054
758	0.054
758	0.053
758	0.052
759	0.052
759	0.051
760	0.05
760	0.049
761	0.049
761	0.049
761	0.049
762	0.048
762	0.048
763	0.048
763	0.046
764	0.045
764	0.045
764	0.045
765	0.045
765	0.044
766	0.044
766	0.043
767	0.043
767	0.041
768	0.04
768	0.039
768	0.039
769	0.038
769	0.038
770	0.037
770	0.036
771	0.035
771	0.034
771	0.033
772	0.032
772	0.032
773	0.031
773	0.03
774	0.029
774	0.027
775	0.026
775	0.025
775	0.023
776	0.021
776	0.019
777	0.017
777	0.016
778	0.014
778	0.013
778	0.012
779	0.011
779	0.011
780	0.01
780	0.009
781	0.008
781	0.007
781	0.006
782	0.004
782	0.002
783	0
783	-0.002
784	-0.004
784	-0.007
784	-0.01
785	-0.013
785	-0.016
786	-0.019
786	-0.021
787	-0.024
787	-0.026
788	-0.03
788	-0.033
788	-0.037
789	-0.041
789	-0.044
790	-0.048
790	-0.051
791	-0.056
791	-0.06
791	-0.065
792	-0.067
792	-0.066
793	-0.07
793	-0.074
794	-0.079
794	-0.086
794	-0.093
795	-0.101
795	-0.107
796	-0.113
796	-0.12
797	-0.129
797	-0.14
797	-0.147
798	-0.154
798	-0.158
799	-0.162
799	-0.164
800	-0.165
800	-0.167
801	-0.17
801	-0.171
801	-0.171
802	-0.172
802	-0.173
803	-0.173
803	-0.173
804	-0.172
804	-0.166
804	-0.159
805	-0.155
805	-0.152
806	-0.15
806	-0.149
807	-0.147
807	-0.146
807	-0.146
808	-0.145
808	-0.146
809	-0.15
809	-0.154
810	-0.154
810	-0.151
810	-0.149
811	-0.145
811	-0.138
812	-0.13
812	-0.12
813	-0.111
813	-0.102
813	-0.092
814	-0.083
814	-0.074
815	-0.066
815	-0.059
816	-0.052
816	-0.048
817	-0.043
817	-0.039
817	-0.034
818	-0.03
818	-0.026
819	-0.023
819	-0.02
820	-0.018
820	-0.016
820	-0.014
821	-0.011
821	-0.009
822	-0.007
822	-0.005
823	-0.004
823	-0.003
823	-0.001
824	0.001
824	0.003
825	0.005
825	0.007
826	0.008
826	0.008
826	0.009
827	0.009
827	0.009
828	0.009
828	0.008
829	0.008
829	0.008
829	0.008
830	0.007
830	0.008
831	0.01
831	0.011
832	0.012
832	0.013
832	0.014
833	0.015
833	0.016
834	0.016
834	0.016
835	0.015
835	0.014
835	0.013
836	0.013
836	0.012
837	0.011
837	0.011
838	0.01
838	0.01
839	0.01
839	0.009
839	0.009
840	0.009
840	0.009
841	0.008
841	0.008
842	0.008
842	0.008
842	0.007
843	0.007
843	0.007
844	0.008
844	0.008
845	0.008
845	0.008
845	0.009
846	0.009
846	0.01
847	0.01
847	0.011
848	0.012
848	0.012
848	0.012
849	0.013
849	0.013
850	0.014
850	0.014
851	0.014
851	0.015
851	0.014
852	0.014
852	0.014
853	0.013
853	0.012
854	0.012
854	0.011
854	0.01
855	0.01
855	0.01
856	0.009
856	0.009
857	0.01
857	0.01
857	0.011
858	0.011
858	0.012
859	0.013
859	0.014
860	0.014
860	0.015
860	0.015
861	0.015
861	0.015
862	0.015
862	0.014
863	0.014
863	0.013
863	0.013
864	0.013
864	0.012
865	0.013
865	0.012
866	0.013
866	0.013
866	0.013
867	0.014
867	0.014
868	0.014
868	0.015
869	0.015
869	0.014
869	0.013
870	0.013
870	0.012
871	0.011
871	0.011
872	0.01
872	0.009
872	0.008
873	0.008
873	0.008
874	0.008
874	0.007
875	0.007
875	0.007
875	0.006
876	0.006
876	0.006
877	0.006
877	0.006
878	0.006
878	0.005
878	0.005
879	0.005
879	0.005
880	0.005
880	0.006
881	0.006
881	0.006
881	0.007
882	0.007
882	0.007
883	0.007
883	0.008
884	0.008
884	0.008
884	0.008
885	0.008
885	0.008
886	0.008
886	0.009
887	0.008
887	0.008
887	0.008
888	0.007
888	0.007
889	0.008
889	0.008
890	0.009
890	0.009
890	0.009
891	0.01
891	0.01
892	0.011
892	0.012
893	0.013
893	0.013
893	0.014
894	0.014
894	0.014
895	0.013
895	0.013
895	0.013
896	0.012
896	0.011
897	0.011
897	0.01
898	0.009
898	0.008
898	0.008
899	0.008
899	0.008
900	0.007
900	0.007
901	0.007
901	0.007
901	0.008
902	0.008
902	0.008
903	0.008
903	0.008
904	0.008
904	0.008
904	0.009
905	0.009
905	0.01
906	0.011
906	0.011
907	0.011
907	0.012
907	0.012
908	0.012
908	0.012
909	0.012
909	0.011
910	0.011
910	0.01
910	0.01
911	0.009
911	0.009
912	0.01
912	0.01
913	0.01
913	0.011
913	0.011
914	0.012
914	0.012
915	0.013
915	0.014
916	0.014
916	0.015
916	0.015
917	0.016
917	0.017
918	0.017
918	0.017
918	0.018
919	0.018
919	0.018
920	0.017
920	0.017
921	0.016
921	0.015
921	0.014
922	0.013
922	0.012
923	0.011
923	0.01
924	0.009
924	0.008
924	0.008
925	0.007
925	0.007
926	0.007
926	0.006
927	0.006
927	0.006
927	0.006
928	0.006
928	0.006
929	0.006
929	0.007
930	0.007
930	0.007
930	0.006
931	0.006
931	0.006
932	0.006
932	0.006
933	0.006
933	0.006
933	0.006
934	0.006
934	0.006
935	0.006
935	0.006
935	0.006
936	0.005
936	0.005
937	0.005
937	0.005
938	0.004
938	0.004
938	0.003
939	0.003
939	0.003
940	0.003
940	0.003
941	0.004
941	0.004
941	0.004
942	0.005
942	0.005
943	0.005
943	0.005
944	0.005
944	0.005
944	0.005
945	0.006
945	0.006
946	0.006
946	0.006
946	0.007
947	0.007
947	0.008
948	0.008
948	0.008
949	0.008
949	0.008
949	0.008
950	0.008
950	0.007
951	0.007
951	0.007
952	0.006
952	0.006
952	0.005
953	0.005
953	0.005
954	0.004
954	0.004
955	0.004
955	0.004
955	0.004
956	0.005
956	0.005
957	0.006
957	0.006
957	0.006
958	0.007
958	0.007
959	0.008
959	0.008
960	0.009
960	0.009
960	0.009
961	0.009
961	0.009
962	0.009
962	0.009
963	0.009
963	0.009
963	0.008
964	0.008
964	0.007
965	0.007
965	0.007
966	0.007
966	0.007
966	0.007
967	0.007
967	0.007
968	0.007
968	0.008
968	0.008
969	0.008
969	0.008
970	0.008
970	0.008
971	0.007
971	0.007
971	0.007
972	0.006
972	0.006
973	0.006
973	0.006
974	0.006
974	0.005
974	0.005
975	0.004
975	0.004
976	0.004
976	0.003
976	0.002
977	0.002
977	0.001
978	0
978	-0.001
979	-0.001
979	-0.002
979	-0.003
980	-0.003
980	-0.004
981	-0.004
981	-0.005
982	-0.005
982	-0.005
982	-0.005
983	-0.005
983	-0.005
984	-0.005
984	-0.005
984	-0.005
985	-0.005
985	-0.006
986	-0.007
986	-0.007
987	-0.008
987	-0.009
987	-0.009
988	-0.009
988	-0.01
989	-0.01
989	-0.01
990	-0.01
990	-0.009
990	-0.008
991	-0.007
991	-0.007
992	-0.006
992	-0.006
992	-0.005
993	-0.005
993	-0.005
994	-0.005
994	-0.005
995	-0.006
995	-0.006
995	-0.007
996	-0.007
996	-0.008
997	-0.009
997	-0.009
997	-0.009
998	-0.009
998	-0.009
999	-0.009
999	-0.009
1000	-0.008
1000	-0.008
1000	-0.007
1001	-0.006
1001	-0.005
1002	-0.005
1002	-0.005
1003	-0.005
1003	-0.005
1003	-0.005
1004	-0.005
1004	-0.006
1005	-0.006
1005	-0.007
1005	-0.008
1006	-0.009
1006	-0.009
1007	-0.01
1007	-0.01
1008	-0.01
1008	-0.01
1008	-0.01
1009	-0.01
1009	-0.009
1010	-0.009
1010	-0.009
1010	-0.008
1011	-0.007
1011	-0.007
1012	-0.006
1012	-0.006
1013	-0.006
1013	-0.005
1013	-0.005
1014	-0.005
1014	-0.006
1015	-0.006
1015	-0.006
1016	-0.007
1016	-0.007
1016	-0.008
1017	-0.009
1017	-0.009
1018	-0.01
1018	-0.01
1018	-0.011
1019	-0.011
1019	-0.012
1020	-0.012
1020	-0.013
1021	-0.013
1021	-0.013
1021	-0.013
1022	-0.014
1022	-0.014
1023	-0.013
1023	-0.014
1023	-0.014
1024	-0.014
1024	-0.014
1025	-0.014
1025	-0.014
1026	-0.014
1026	-0.014
1026	-0.014
1027	-0.014
1027	-0.014
1028	-0.014
1028	-0.014
1028	-0.014
1029	-0.014
1029	-0.014
1030	-0.015
1030	-0.015
1031	-0.016
1031	-0.016
1031	-0.016
1032	-0.016
1032	-0.017
1033	-0.017
1033	-0.017
1033	-0.017
1034	-0.017
1034	-0.017
1035	-0.017
1035	-0.018
1036	-0.018
1036	-0.018
1036	-0.018
1037	-0.017
1037	-0.017
1038	-0.018
1038	-0.018
1039	-0.018
1039	-0.017
1039	-0.017
1040	-0.018
1040	-0.018
1041	-0.018
1041	-0.018
1041	-0.018
1042	-0.019
1042	-0.019
1043	-0.019
1043	-0.02
1044	-0.02
1044	-0.02
1044	-0.02
1045	-0.02
1045	-0.02
1046	-0.02
1046	-0.02
1046	-0.019
1047	-0.018
1047	-0.017
1048	-0.016
1048	-0.015
1049	-0.015
1049	-0.014
1049	-0.014
1050	-0.014
1050	-0.014
1051	-0.015
1051	-0.016
1051	-0.016
1052	-0.017
1052	-0.019
1053	-0.02
1053	-0.022
1053	-0.023
1054	-0.024
1054	-0.025
1055	-0.026
1055	-0.027
1056	-0.027
1056	-0.029
1056	-0.03
1057	-0.031
1057	-0.032
1058	-0.032
1058	-0.033
1058	-0.033
1059	-0.034
1059	-0.035
1060	-0.036
1060	-0.036
1061	-0.037
1061	-0.037
1061	-0.037
1062	-0.037
1062	-0.037
1063	-0.037
1063	-0.037
1063	-0.037
1064	-0.036
1064	-0.035
1065	-0.035
1065	-0.034
1066	-0.033
1066	-0.032
1066	-0.031
1067	-0.031
1067	-0.03
1068	-0.029
1068	-0.029
1068	-0.028
1069	-0.028
1069	-0.029
1070	-0.029
1070	-0.03
1071	-0.03
1071	-0.03
1071	-0.031
1072	-0.032
1072	-0.032
1073	-0.032
1073	-0.033
1073	-0.033
1074	-0.033
1074	-0.033
1075	-0.034
1075	-0.035
1076	-0.037
1076	-0.037
1076	-0.039
1077	-0.04
1077	-0.041
1078	-0.043
1078	-0.044
1078	-0.045
1079	-0.046
1079	-0.046
1080	-0.048
1080	-0.047
1080	-0.048
1081	-0.047
1081	-0.048
1082	-0.048
1082	-0.048
1083	-0.049
1083	-0.049
1083	-0.049
1084	-0.049
1084	-0.049
1085	-0.049
1085	-0.049
1085	-0.05
1086	-0.05
1086	-0.051
1087	-0.05
1087	-0.05
1088	-0.051
1088	-0.052
1088	-0.052
1089	-0.052
1089	-0.053
1090	-0.054
1090	-0.054
1090	-0.055
1091	-0.056
1091	-0.056
1092	-0.056
1092	-0.056
1092	-0.057
1093	-0.057
1093	-0.057
1094	-0.058
1094	-0.058
1095	-0.06
1095	-0.06
1095	-0.061
1096	-0.061
1096	-0.062
1097	-0.063
1097	-0.064
1097	-0.065
1098	-0.066
1098	-0.067
1099	-0.068
1099	-0.069
1100	-0.07
1100	-0.071
1100	-0.074
1101	-0.076
1101	-0.079
1102	-0.08
1102	-0.082
1102	-0.084
1103	-0.086
1103	-0.088
1104	-0.09
1104	-0.092
1104	-0.094
1105	-0.096
1105	-0.098
1106	-0.101
1106	-0.103
1107	-0.108
1107	-0.11
1107	-0.114
1108	-0.115
1108	-0.117
1109	-0.119
1109	-0.123
1109	-0.125
1110	-0.127
1110	-0.13
1111	-0.134
1111	-0.129
