Data from 17c-1-8a_Absorbance__172__05551.txt Node

Date: Thu Jan 25 17:14:28 CET 2024
User: Marek
Spectrometer: MAYP115816
Trigger mode: 0
Integration Time (sec): 2.000000E-1
Scans to average: 10
Electric dark correction enabled: true
Nonlinearity correction enabled: true
Boxcar width: 5
XAxis mode: Wavelengths
Number of Pixels in Spectrum: 2068
>>>>>Begin Spectral Data<<<<<
199	-0.524
199	-0.483
200	-0.412
200	-0.351
201	-0.316
201	-0.292
202	-0.268
202	-0.26
203	-0.252
203	-0.248
204	-0.238
204	-0.222
205	-0.208
205	-0.201
205	-0.201
206	-0.201
206	-0.203
207	-0.203
207	-0.204
208	-0.202
208	-0.2
209	-0.196
209	-0.199
210	-0.201
210	-0.201
211	-0.2
211	-0.2
212	-0.202
212	-0.2
213	-0.2
213	-0.204
213	-0.207
214	-0.208
214	-0.208
215	-0.206
215	-0.208
216	-0.208
216	-0.211
217	-0.208
217	-0.209
218	-0.209
218	-0.206
219	-0.203
219	-0.204
220	-0.207
220	-0.207
221	-0.207
221	-0.209
221	-0.206
222	-0.204
222	-0.204
223	-0.201
223	-0.202
224	-0.2
224	-0.194
225	-0.186
225	-0.183
226	-0.177
226	-0.169
227	-0.159
227	-0.156
228	-0.144
228	-0.135
229	-0.121
229	-0.105
229	-0.09
230	-0.075
230	-0.058
231	-0.04
231	-0.02
232	-0.003
232	0.016
233	0.033
233	0.051
234	0.065
234	0.079
235	0.092
235	0.102
236	0.112
236	0.12
236	0.128
237	0.134
237	0.138
238	0.143
238	0.146
239	0.15
239	0.153
240	0.155
240	0.158
241	0.16
241	0.161
242	0.163
242	0.164
243	0.166
243	0.167
243	0.169
244	0.17
244	0.171
245	0.172
245	0.172
246	0.174
246	0.175
247	0.176
247	0.177
248	0.178
248	0.179
249	0.18
249	0.181
250	0.182
250	0.183
250	0.185
251	0.186
251	0.187
252	0.188
252	0.189
253	0.19
253	0.191
254	0.192
254	0.193
255	0.194
255	0.195
256	0.196
256	0.197
257	0.198
257	0.198
258	0.198
258	0.199
258	0.199
259	0.199
259	0.199
260	0.2
260	0.2
261	0.2
261	0.199
262	0.199
262	0.198
263	0.198
263	0.198
264	0.197
264	0.196
265	0.196
265	0.195
265	0.194
266	0.193
266	0.192
267	0.191
267	0.19
268	0.189
268	0.187
269	0.186
269	0.185
270	0.183
270	0.182
271	0.18
271	0.178
272	0.177
272	0.175
272	0.174
273	0.172
273	0.17
274	0.168
274	0.166
275	0.165
275	0.163
276	0.162
276	0.16
277	0.158
277	0.156
278	0.154
278	0.152
278	0.15
279	0.148
279	0.146
280	0.144
280	0.142
281	0.14
281	0.138
282	0.137
282	0.135
283	0.134
283	0.132
284	0.13
284	0.129
285	0.128
285	0.126
285	0.125
286	0.123
286	0.122
287	0.121
287	0.119
288	0.118
288	0.117
289	0.116
289	0.115
290	0.114
290	0.113
291	0.112
291	0.111
292	0.11
292	0.109
292	0.108
293	0.107
293	0.106
294	0.106
294	0.105
295	0.104
295	0.104
296	0.103
296	0.103
297	0.102
297	0.101
298	0.101
298	0.101
298	0.1
299	0.1
299	0.1
300	0.099
300	0.099
301	0.099
301	0.099
302	0.098
302	0.098
303	0.098
303	0.098
304	0.098
304	0.097
305	0.097
305	0.097
305	0.096
306	0.096
306	0.096
307	0.096
307	0.096
308	0.095
308	0.095
309	0.095
309	0.095
310	0.095
310	0.095
311	0.095
311	0.094
311	0.094
312	0.094
312	0.094
313	0.093
313	0.093
314	0.093
314	0.093
315	0.093
315	0.092
316	0.092
316	0.092
317	0.092
317	0.091
318	0.091
318	0.091
318	0.091
319	0.091
319	0.09
320	0.09
320	0.09
321	0.09
321	0.09
322	0.089
322	0.089
323	0.089
323	0.089
324	0.089
324	0.089
324	0.088
325	0.088
325	0.088
326	0.088
326	0.088
327	0.088
327	0.087
328	0.087
328	0.087
329	0.087
329	0.086
330	0.086
330	0.086
330	0.086
331	0.085
331	0.085
332	0.085
332	0.084
333	0.084
333	0.084
334	0.084
334	0.083
335	0.083
335	0.083
336	0.083
336	0.083
336	0.083
337	0.083
337	0.083
338	0.082
338	0.082
339	0.082
339	0.082
340	0.082
340	0.081
341	0.081
341	0.081
342	0.081
342	0.08
342	0.08
343	0.08
343	0.08
344	0.08
344	0.079
345	0.079
345	0.079
346	0.079
346	0.079
347	0.079
347	0.079
348	0.078
348	0.078
348	0.078
349	0.078
349	0.078
350	0.078
350	0.078
351	0.077
351	0.077
352	0.077
352	0.077
353	0.077
353	0.077
354	0.077
354	0.077
354	0.077
355	0.076
355	0.076
356	0.076
356	0.076
357	0.075
357	0.075
358	0.075
358	0.075
359	0.076
359	0.076
360	0.076
360	0.076
360	0.076
361	0.076
361	0.076
362	0.077
362	0.076
363	0.076
363	0.076
364	0.076
364	0.076
365	0.076
365	0.076
366	0.076
366	0.076
366	0.076
367	0.076
367	0.076
368	0.076
368	0.076
369	0.076
369	0.076
370	0.076
370	0.076
371	0.076
371	0.076
372	0.076
372	0.076
372	0.076
373	0.076
373	0.075
374	0.076
374	0.076
375	0.075
375	0.075
376	0.075
376	0.075
377	0.076
377	0.075
378	0.075
378	0.075
378	0.075
379	0.075
379	0.075
380	0.075
380	0.075
381	0.075
381	0.075
382	0.075
382	0.075
383	0.075
383	0.075
383	0.075
384	0.075
384	0.075
385	0.075
385	0.075
386	0.075
386	0.075
387	0.075
387	0.075
388	0.075
388	0.075
389	0.075
389	0.075
389	0.075
390	0.075
390	0.075
391	0.075
391	0.075
392	0.075
392	0.075
393	0.075
393	0.075
394	0.075
394	0.075
394	0.075
395	0.075
395	0.075
396	0.075
396	0.075
397	0.075
397	0.075
398	0.074
398	0.074
399	0.074
399	0.074
400	0.074
400	0.074
400	0.074
401	0.074
401	0.074
402	0.073
402	0.074
403	0.074
403	0.074
404	0.074
404	0.074
405	0.074
405	0.074
405	0.074
406	0.074
406	0.074
407	0.074
407	0.074
408	0.073
408	0.073
409	0.073
409	0.073
410	0.073
410	0.073
411	0.074
411	0.074
411	0.074
412	0.074
412	0.074
413	0.074
413	0.074
414	0.074
414	0.074
415	0.073
415	0.073
416	0.073
416	0.073
416	0.073
417	0.073
417	0.073
418	0.073
418	0.073
419	0.073
419	0.073
420	0.073
420	0.073
421	0.073
421	0.073
421	0.073
422	0.073
422	0.073
423	0.073
423	0.073
424	0.073
424	0.072
425	0.072
425	0.072
426	0.073
426	0.073
427	0.073
427	0.073
427	0.073
428	0.073
428	0.073
429	0.073
429	0.073
430	0.073
430	0.073
431	0.073
431	0.072
432	0.072
432	0.072
432	0.072
433	0.071
433	0.071
434	0.071
434	0.072
435	0.072
435	0.072
436	0.072
436	0.072
437	0.072
437	0.072
437	0.072
438	0.072
438	0.072
439	0.072
439	0.072
440	0.071
440	0.072
441	0.072
441	0.072
442	0.072
442	0.072
442	0.072
443	0.072
443	0.072
444	0.072
444	0.071
445	0.072
445	0.072
446	0.072
446	0.072
447	0.072
447	0.072
447	0.072
448	0.072
448	0.072
449	0.072
449	0.072
450	0.072
450	0.072
451	0.072
451	0.072
452	0.072
452	0.072
452	0.072
453	0.072
453	0.071
454	0.071
454	0.072
455	0.072
455	0.072
456	0.072
456	0.072
457	0.072
457	0.072
458	0.072
458	0.072
458	0.072
459	0.072
459	0.071
460	0.071
460	0.071
461	0.071
461	0.071
462	0.071
462	0.071
463	0.071
463	0.072
463	0.072
464	0.072
464	0.072
465	0.072
465	0.072
466	0.072
466	0.072
467	0.072
467	0.072
467	0.071
468	0.071
468	0.071
469	0.071
469	0.072
470	0.072
470	0.072
471	0.072
471	0.071
472	0.071
472	0.071
472	0.072
473	0.072
473	0.072
474	0.072
474	0.072
475	0.073
475	0.073
476	0.073
476	0.074
477	0.074
477	0.075
477	0.075
478	0.075
478	0.076
479	0.076
479	0.076
480	0.076
480	0.076
481	0.075
481	0.075
482	0.075
482	0.075
482	0.076
483	0.076
483	0.077
484	0.077
484	0.077
485	0.077
485	0.077
486	0.077
486	0.077
487	0.077
487	0.077
487	0.077
488	0.077
488	0.077
489	0.077
489	0.078
490	0.078
490	0.079
491	0.079
491	0.08
492	0.08
492	0.081
492	0.081
493	0.081
493	0.082
494	0.082
494	0.083
495	0.083
495	0.083
496	0.084
496	0.084
496	0.085
497	0.085
497	0.085
498	0.086
498	0.086
499	0.086
499	0.087
500	0.088
500	0.088
501	0.089
501	0.089
501	0.09
502	0.09
502	0.09
503	0.091
503	0.091
504	0.091
504	0.091
505	0.091
505	0.092
506	0.092
506	0.093
506	0.093
507	0.093
507	0.094
508	0.094
508	0.095
509	0.095
509	0.095
510	0.096
510	0.096
511	0.096
511	0.097
511	0.097
512	0.098
512	0.098
513	0.098
513	0.099
514	0.099
514	0.1
515	0.1
515	0.1
515	0.1
516	0.1
516	0.101
517	0.101
517	0.101
518	0.101
518	0.101
519	0.101
519	0.101
520	0.101
520	0.102
520	0.102
521	0.102
521	0.102
522	0.102
522	0.102
523	0.102
523	0.102
524	0.102
524	0.102
524	0.102
525	0.102
525	0.101
526	0.101
526	0.101
527	0.101
527	0.1
528	0.1
528	0.1
529	0.099
529	0.099
529	0.099
530	0.099
530	0.099
531	0.099
531	0.098
532	0.098
532	0.099
533	0.099
533	0.098
533	0.098
534	0.098
534	0.097
535	0.097
535	0.097
536	0.096
536	0.096
537	0.095
537	0.095
538	0.094
538	0.093
538	0.093
539	0.093
539	0.093
540	0.092
540	0.092
541	0.092
541	0.092
542	0.092
542	0.092
542	0.092
543	0.092
543	0.092
544	0.092
544	0.092
545	0.092
545	0.092
546	0.092
546	0.091
547	0.091
547	0.09
547	0.089
548	0.089
548	0.088
549	0.088
549	0.087
550	0.087
550	0.086
551	0.085
551	0.085
551	0.085
552	0.084
552	0.084
553	0.084
553	0.084
554	0.084
554	0.083
555	0.082
555	0.082
556	0.082
556	0.081
556	0.081
557	0.081
557	0.08
558	0.079
558	0.079
559	0.079
559	0.079
560	0.079
560	0.079
560	0.079
561	0.08
561	0.079
562	0.079
562	0.079
563	0.078
563	0.077
564	0.076
564	0.076
564	0.075
565	0.075
565	0.074
566	0.073
566	0.073
567	0.073
567	0.073
568	0.072
568	0.072
568	0.072
569	0.072
569	0.072
570	0.071
570	0.07
571	0.07
571	0.07
572	0.069
572	0.069
573	0.068
573	0.068
573	0.067
574	0.067
574	0.067
575	0.067
575	0.069
576	0.069
576	0.068
577	0.067
577	0.067
577	0.067
578	0.067
578	0.068
579	0.069
579	0.069
580	0.068
580	0.066
581	0.065
581	0.064
581	0.065
582	0.065
582	0.066
583	0.066
583	0.065
584	0.064
584	0.062
585	0.063
585	0.064
585	0.065
586	0.065
586	0.064
587	0.063
587	0.062
588	0.061
588	0.061
589	0.061
589	0.061
590	0.061
590	0.061
590	0.062
591	0.063
591	0.062
592	0.062
592	0.061
593	0.062
593	0.062
594	0.062
594	0.061
594	0.061
595	0.061
595	0.061
596	0.061
596	0.062
597	0.064
597	0.064
598	0.064
598	0.064
598	0.064
599	0.064
599	0.063
600	0.062
600	0.061
601	0.061
601	0.06
602	0.059
602	0.059
602	0.059
603	0.059
603	0.061
604	0.061
604	0.062
605	0.062
605	0.063
606	0.062
606	0.061
606	0.061
607	0.061
607	0.061
608	0.06
608	0.059
609	0.059
609	0.059
610	0.059
610	0.058
610	0.059
611	0.06
611	0.061
612	0.062
612	0.063
613	0.064
613	0.065
614	0.065
614	0.065
614	0.065
615	0.065
615	0.064
616	0.064
616	0.064
617	0.064
617	0.063
618	0.063
618	0.063
618	0.063
619	0.064
619	0.064
620	0.065
620	0.065
621	0.065
621	0.065
622	0.065
622	0.065
622	0.065
623	0.064
623	0.065
624	0.065
624	0.064
625	0.064
625	0.064
626	0.064
626	0.064
626	0.065
627	0.066
627	0.066
628	0.066
628	0.066
629	0.066
629	0.067
630	0.066
630	0.066
630	0.067
631	0.067
631	0.068
632	0.067
632	0.068
633	0.068
633	0.069
634	0.07
634	0.07
634	0.071
635	0.072
635	0.072
636	0.073
636	0.074
637	0.074
637	0.075
638	0.075
638	0.075
638	0.076
639	0.076
639	0.076
640	0.077
640	0.078
641	0.078
641	0.079
642	0.08
642	0.081
642	0.082
643	0.083
643	0.084
644	0.085
644	0.085
645	0.086
645	0.086
646	0.087
646	0.088
646	0.088
647	0.089
647	0.089
648	0.09
648	0.09
649	0.091
649	0.092
650	0.093
650	0.094
650	0.095
651	0.096
651	0.097
652	0.098
652	0.099
653	0.101
653	0.105
653	0.108
654	0.087
654	0.071
655	0.07
655	0.071
656	0.073
656	0.074
657	0.075
657	0.076
657	0.076
658	0.074
658	0.07
659	0.088
659	0.112
660	0.119
660	0.12
661	0.121
661	0.122
661	0.123
662	0.125
662	0.126
663	0.127
663	0.128
664	0.129
664	0.13
665	0.131
665	0.132
665	0.133
666	0.134
666	0.135
667	0.136
667	0.137
668	0.138
668	0.139
669	0.14
669	0.141
669	0.142
670	0.142
670	0.143
671	0.143
671	0.144
672	0.145
672	0.146
672	0.147
673	0.148
673	0.149
674	0.15
674	0.15
675	0.151
675	0.152
676	0.154
676	0.154
676	0.154
677	0.155
677	0.155
678	0.155
678	0.155
679	0.155
679	0.155
680	0.155
680	0.155
680	0.155
681	0.155
681	0.156
682	0.156
682	0.156
683	0.157
683	0.158
684	0.158
684	0.158
684	0.158
685	0.158
685	0.158
686	0.158
686	0.158
687	0.157
687	0.157
687	0.157
688	0.157
688	0.157
689	0.157
689	0.157
690	0.157
690	0.156
691	0.156
691	0.156
691	0.156
692	0.155
692	0.155
693	0.155
693	0.155
694	0.154
694	0.154
695	0.155
695	0.156
695	0.155
696	0.154
696	0.154
697	0.154
697	0.153
698	0.152
698	0.151
698	0.151
699	0.15
699	0.148
700	0.146
700	0.146
701	0.145
701	0.144
702	0.143
702	0.143
702	0.142
703	0.141
703	0.14
704	0.139
704	0.139
705	0.138
705	0.137
705	0.136
706	0.135
706	0.135
707	0.134
707	0.133
708	0.133
708	0.133
709	0.133
709	0.132
709	0.132
710	0.132
710	0.132
711	0.132
711	0.132
712	0.132
712	0.131
713	0.13
713	0.13
713	0.129
714	0.128
714	0.127
715	0.126
715	0.125
716	0.124
716	0.123
716	0.121
717	0.12
717	0.119
718	0.118
718	0.117
719	0.116
719	0.115
720	0.114
720	0.113
720	0.112
721	0.111
721	0.11
722	0.109
722	0.107
723	0.106
723	0.105
723	0.104
724	0.103
724	0.102
725	0.101
725	0.101
726	0.1
726	0.1
727	0.099
727	0.099
727	0.098
728	0.097
728	0.097
729	0.097
729	0.096
730	0.096
730	0.095
730	0.094
731	0.094
731	0.094
732	0.093
732	0.093
733	0.092
733	0.091
734	0.09
734	0.089
734	0.088
735	0.088
735	0.087
736	0.085
736	0.085
737	0.084
737	0.084
737	0.083
738	0.082
738	0.081
739	0.081
739	0.08
740	0.08
740	0.08
741	0.08
741	0.078
741	0.077
742	0.076
742	0.077
743	0.077
743	0.077
744	0.077
744	0.076
744	0.076
745	0.075
745	0.074
746	0.074
746	0.074
747	0.073
747	0.072
748	0.071
748	0.07
748	0.068
749	0.067
749	0.066
750	0.065
750	0.064
751	0.063
751	0.062
751	0.062
752	0.061
752	0.061
753	0.06
753	0.06
754	0.059
754	0.058
754	0.058
755	0.057
755	0.056
756	0.055
756	0.053
757	0.051
757	0.051
758	0.05
758	0.049
758	0.049
759	0.049
759	0.047
760	0.046
760	0.046
761	0.045
761	0.046
761	0.046
762	0.045
762	0.045
763	0.045
763	0.043
764	0.043
764	0.043
764	0.043
765	0.042
765	0.042
766	0.042
766	0.042
767	0.042
767	0.041
768	0.04
768	0.04
768	0.039
769	0.039
769	0.038
770	0.037
770	0.036
771	0.034
771	0.033
771	0.031
772	0.031
772	0.03
773	0.028
773	0.027
774	0.025
774	0.024
775	0.023
775	0.021
775	0.019
776	0.018
776	0.016
777	0.014
777	0.013
778	0.012
778	0.011
778	0.011
779	0.011
779	0.011
780	0.01
780	0.009
781	0.008
781	0.007
781	0.005
782	0.003
782	0.001
783	-0.001
783	-0.004
784	-0.008
784	-0.011
784	-0.014
785	-0.018
785	-0.022
786	-0.025
786	-0.028
787	-0.031
787	-0.033
788	-0.037
788	-0.041
788	-0.045
789	-0.049
789	-0.052
790	-0.055
790	-0.059
791	-0.063
791	-0.068
791	-0.073
792	-0.075
792	-0.073
793	-0.076
793	-0.08
794	-0.086
794	-0.093
794	-0.102
795	-0.11
795	-0.116
796	-0.12
796	-0.127
797	-0.135
797	-0.146
797	-0.153
798	-0.159
798	-0.163
799	-0.165
799	-0.165
800	-0.165
800	-0.167
801	-0.17
801	-0.171
801	-0.171
802	-0.172
802	-0.173
803	-0.173
803	-0.173
804	-0.172
804	-0.166
804	-0.159
805	-0.155
805	-0.152
806	-0.15
806	-0.149
807	-0.147
807	-0.146
807	-0.146
808	-0.145
808	-0.146
809	-0.15
809	-0.155
810	-0.156
810	-0.154
810	-0.152
811	-0.149
811	-0.143
812	-0.135
812	-0.126
813	-0.117
813	-0.108
813	-0.098
814	-0.089
814	-0.08
815	-0.071
815	-0.063
816	-0.056
816	-0.05
817	-0.046
817	-0.041
817	-0.036
818	-0.031
818	-0.026
819	-0.022
819	-0.019
820	-0.017
820	-0.014
820	-0.011
821	-0.008
821	-0.005
822	-0.003
822	-0.001
823	0.001
823	0.002
823	0.004
824	0.006
824	0.008
825	0.01
825	0.011
826	0.012
826	0.013
826	0.013
827	0.013
827	0.013
828	0.012
828	0.012
829	0.011
829	0.011
829	0.011
830	0.01
830	0.011
831	0.012
831	0.013
832	0.015
832	0.016
832	0.018
833	0.019
833	0.02
834	0.02
834	0.021
835	0.021
835	0.02
835	0.02
836	0.019
836	0.019
837	0.019
837	0.018
838	0.018
838	0.018
839	0.018
839	0.018
839	0.018
840	0.018
840	0.018
841	0.018
841	0.018
842	0.017
842	0.017
842	0.017
843	0.017
843	0.017
844	0.017
844	0.017
845	0.017
845	0.017
845	0.017
846	0.018
846	0.018
847	0.019
847	0.019
848	0.02
848	0.02
848	0.021
849	0.021
849	0.021
850	0.022
850	0.021
851	0.022
851	0.022
851	0.021
852	0.02
852	0.02
853	0.019
853	0.018
854	0.018
854	0.017
854	0.017
855	0.017
855	0.016
856	0.016
856	0.017
857	0.017
857	0.018
857	0.019
858	0.02
858	0.021
859	0.022
859	0.023
860	0.024
860	0.025
860	0.025
861	0.026
861	0.026
862	0.025
862	0.025
863	0.025
863	0.025
863	0.025
864	0.025
864	0.025
865	0.025
865	0.025
866	0.025
866	0.025
866	0.026
867	0.026
867	0.026
868	0.026
868	0.026
869	0.026
869	0.026
869	0.025
870	0.024
870	0.024
871	0.023
871	0.022
872	0.021
872	0.02
872	0.019
873	0.018
873	0.017
874	0.016
874	0.015
875	0.015
875	0.014
875	0.013
876	0.012
876	0.012
877	0.012
877	0.012
878	0.012
878	0.012
878	0.013
879	0.013
879	0.014
880	0.014
880	0.015
881	0.015
881	0.016
881	0.016
882	0.016
882	0.016
883	0.016
883	0.016
884	0.016
884	0.016
884	0.016
885	0.016
885	0.016
886	0.016
886	0.015
887	0.015
887	0.015
887	0.014
888	0.014
888	0.014
889	0.014
889	0.015
890	0.015
890	0.016
890	0.017
891	0.017
891	0.018
892	0.018
892	0.019
893	0.02
893	0.02
893	0.02
894	0.02
894	0.02
895	0.02
895	0.019
895	0.019
896	0.018
896	0.018
897	0.017
897	0.016
898	0.016
898	0.015
898	0.014
899	0.014
899	0.014
900	0.014
900	0.013
901	0.013
901	0.014
901	0.014
902	0.014
902	0.015
903	0.015
903	0.015
904	0.016
904	0.017
904	0.017
905	0.018
905	0.019
906	0.02
906	0.02
907	0.02
907	0.02
907	0.02
908	0.02
908	0.02
909	0.019
909	0.019
910	0.018
910	0.018
910	0.017
911	0.017
911	0.017
912	0.017
912	0.018
913	0.019
913	0.019
913	0.02
914	0.02
914	0.021
915	0.021
915	0.022
916	0.022
916	0.023
916	0.023
917	0.024
917	0.024
918	0.025
918	0.025
918	0.025
919	0.025
919	0.025
920	0.024
920	0.023
921	0.022
921	0.021
921	0.019
922	0.018
922	0.017
923	0.016
923	0.015
924	0.014
924	0.014
924	0.013
925	0.013
925	0.013
926	0.014
926	0.014
927	0.014
927	0.014
927	0.015
928	0.015
928	0.015
929	0.016
929	0.017
930	0.017
930	0.017
930	0.017
931	0.016
931	0.017
932	0.016
932	0.016
933	0.016
933	0.016
933	0.015
934	0.015
934	0.015
935	0.014
935	0.014
935	0.014
936	0.014
936	0.014
937	0.014
937	0.014
938	0.013
938	0.012
938	0.012
939	0.011
939	0.011
940	0.011
940	0.011
941	0.012
941	0.012
941	0.013
942	0.013
942	0.014
943	0.014
943	0.015
944	0.015
944	0.016
944	0.016
945	0.016
945	0.017
946	0.018
946	0.018
946	0.018
947	0.019
947	0.019
948	0.02
948	0.02
949	0.02
949	0.02
949	0.019
950	0.019
950	0.018
951	0.018
951	0.017
952	0.016
952	0.015
952	0.015
953	0.014
953	0.014
954	0.013
954	0.013
955	0.013
955	0.013
955	0.013
956	0.014
956	0.014
957	0.014
957	0.014
957	0.014
958	0.014
958	0.014
959	0.014
959	0.014
960	0.014
960	0.013
960	0.013
961	0.013
961	0.012
962	0.012
962	0.012
963	0.012
963	0.012
963	0.012
964	0.011
964	0.011
965	0.012
965	0.012
966	0.012
966	0.013
966	0.013
967	0.014
967	0.014
968	0.014
968	0.015
968	0.015
969	0.016
969	0.016
970	0.016
970	0.015
971	0.015
971	0.015
971	0.015
972	0.015
972	0.015
973	0.014
973	0.014
974	0.014
974	0.013
974	0.013
975	0.013
975	0.012
976	0.012
976	0.011
976	0.011
977	0.01
977	0.009
978	0.008
978	0.007
979	0.007
979	0.006
979	0.005
980	0.005
980	0.004
981	0.004
981	0.003
982	0.003
982	0.003
982	0.002
983	0.002
983	0.002
984	0.002
984	0.002
984	0.002
985	0.002
985	0.001
986	0.001
986	0
987	-0
987	-0.001
987	-0.001
988	-0.001
988	-0.001
989	-0.001
989	-0.001
990	-0.001
990	-0.001
990	-0.001
991	-0.001
991	-0.001
992	-0.001
992	-0.001
992	-0.001
993	-0.001
993	-0.001
994	-0.001
994	-0.001
995	-0.001
995	-0.001
995	-0.001
996	-0.001
996	-0.001
997	-0.002
997	-0.002
997	-0.002
998	-0.002
998	-0.002
999	-0.001
999	-0.001
1000	-0.001
1000	-0
1000	0
1001	0.001
1001	0.002
1002	0.002
1002	0.002
1003	0.002
1003	0.002
1003	0.002
1004	0.001
1004	0.001
1005	-0
1005	-0.001
1005	-0.002
1006	-0.003
1006	-0.003
1007	-0.004
1007	-0.005
1008	-0.005
1008	-0.005
1008	-0.005
1009	-0.005
1009	-0.005
1010	-0.005
1010	-0.004
1010	-0.004
1011	-0.003
1011	-0.003
1012	-0.002
1012	-0.002
1013	-0.001
1013	-0.001
1013	-0.001
1014	-0.001
1014	-0.001
1015	-0.002
1015	-0.002
1016	-0.003
1016	-0.004
1016	-0.005
1017	-0.005
1017	-0.006
1018	-0.007
1018	-0.007
1018	-0.007
1019	-0.007
1019	-0.007
1020	-0.007
1020	-0.007
1021	-0.007
1021	-0.007
1021	-0.006
1022	-0.006
1022	-0.006
1023	-0.005
1023	-0.006
1023	-0.006
1024	-0.006
1024	-0.006
1025	-0.006
1025	-0.007
1026	-0.007
1026	-0.007
1026	-0.008
1027	-0.008
1027	-0.009
1028	-0.009
1028	-0.009
1028	-0.01
1029	-0.01
1029	-0.011
1030	-0.011
1030	-0.011
1031	-0.011
1031	-0.011
1031	-0.012
1032	-0.012
1032	-0.012
1033	-0.011
1033	-0.011
1033	-0.011
1034	-0.011
1034	-0.011
1035	-0.011
1035	-0.011
1036	-0.011
1036	-0.011
1036	-0.011
1037	-0.011
1037	-0.011
1038	-0.011
1038	-0.011
1039	-0.011
1039	-0.011
1039	-0.011
1040	-0.011
1040	-0.012
1041	-0.012
1041	-0.012
1041	-0.013
1042	-0.013
1042	-0.013
1043	-0.014
1043	-0.014
1044	-0.014
1044	-0.015
1044	-0.015
1045	-0.015
1045	-0.015
1046	-0.015
1046	-0.015
1046	-0.014
1047	-0.014
1047	-0.013
1048	-0.012
1048	-0.011
1049	-0.011
1049	-0.01
1049	-0.01
1050	-0.01
1050	-0.011
1051	-0.011
1051	-0.012
1051	-0.013
1052	-0.014
1052	-0.015
1053	-0.017
1053	-0.018
1053	-0.02
1054	-0.021
1054	-0.021
1055	-0.022
1055	-0.023
1056	-0.024
1056	-0.024
1056	-0.025
1057	-0.026
1057	-0.027
1058	-0.027
1058	-0.027
1058	-0.028
1059	-0.028
1059	-0.029
1060	-0.029
1060	-0.029
1061	-0.029
1061	-0.03
1061	-0.029
1062	-0.029
1062	-0.029
1063	-0.029
1063	-0.029
1063	-0.029
1064	-0.028
1064	-0.028
1065	-0.027
1065	-0.027
1066	-0.026
1066	-0.025
1066	-0.024
1067	-0.023
1067	-0.023
1068	-0.022
1068	-0.021
1068	-0.021
1069	-0.021
1069	-0.021
1070	-0.022
1070	-0.022
1071	-0.022
1071	-0.022
1071	-0.023
1072	-0.023
1072	-0.024
1073	-0.023
1073	-0.024
1073	-0.024
1074	-0.023
1074	-0.024
1075	-0.024
1075	-0.025
1076	-0.027
1076	-0.027
1076	-0.029
1077	-0.03
1077	-0.031
1078	-0.032
1078	-0.033
1078	-0.035
1079	-0.036
1079	-0.035
1080	-0.036
1080	-0.036
1080	-0.037
1081	-0.037
1081	-0.037
1082	-0.037
1082	-0.038
1083	-0.038
1083	-0.038
1083	-0.038
1084	-0.038
1084	-0.038
1085	-0.038
1085	-0.038
1085	-0.038
1086	-0.038
1086	-0.038
1087	-0.037
1087	-0.038
1088	-0.038
1088	-0.039
1088	-0.039
1089	-0.04
1089	-0.041
1090	-0.042
1090	-0.043
1090	-0.043
1091	-0.045
1091	-0.045
1092	-0.046
1092	-0.046
1092	-0.047
1093	-0.048
1093	-0.048
1094	-0.048
1094	-0.049
1095	-0.05
1095	-0.05
1095	-0.05
1096	-0.051
1096	-0.051
1097	-0.052
1097	-0.053
1097	-0.053
1098	-0.054
1098	-0.056
1099	-0.056
1099	-0.057
1100	-0.059
1100	-0.06
1100	-0.062
1101	-0.065
1101	-0.067
1102	-0.068
1102	-0.07
1102	-0.071
1103	-0.074
1103	-0.075
1104	-0.077
1104	-0.078
1104	-0.08
1105	-0.082
1105	-0.084
1106	-0.087
1106	-0.089
1107	-0.093
1107	-0.095
1107	-0.098
1108	-0.099
1108	-0.1
1109	-0.103
1109	-0.107
1109	-0.109
1110	-0.11
1110	-0.112
1111	-0.115
1111	-0.108
