Data from 17c-1-8a_Absorbance__2100__07479.txt Node

Date: Thu Jan 25 18:18:45 CET 2024
User: Marek
Spectrometer: MAYP115816
Trigger mode: 0
Integration Time (sec): 2.000000E-1
Scans to average: 10
Electric dark correction enabled: true
Nonlinearity correction enabled: true
Boxcar width: 5
XAxis mode: Wavelengths
Number of Pixels in Spectrum: 2068
>>>>>Begin Spectral Data<<<<<
199	-0.563
199	-0.509
200	-0.433
200	-0.371
201	-0.333
201	-0.305
202	-0.28
202	-0.272
203	-0.264
203	-0.258
204	-0.246
204	-0.229
205	-0.215
205	-0.207
205	-0.207
206	-0.207
206	-0.21
207	-0.211
207	-0.211
208	-0.21
208	-0.21
209	-0.206
209	-0.21
210	-0.212
210	-0.212
211	-0.213
211	-0.214
212	-0.214
212	-0.211
213	-0.211
213	-0.213
213	-0.218
214	-0.218
214	-0.216
215	-0.214
215	-0.215
216	-0.214
216	-0.216
217	-0.215
217	-0.215
218	-0.214
218	-0.211
219	-0.206
219	-0.207
220	-0.21
220	-0.212
221	-0.213
221	-0.212
221	-0.211
222	-0.208
222	-0.21
223	-0.207
223	-0.207
224	-0.205
224	-0.198
225	-0.188
225	-0.184
226	-0.177
226	-0.168
227	-0.156
227	-0.151
228	-0.136
228	-0.125
229	-0.111
229	-0.093
229	-0.076
230	-0.057
230	-0.036
231	-0.015
231	0.009
232	0.028
232	0.052
233	0.073
233	0.096
234	0.114
234	0.132
235	0.147
235	0.161
236	0.174
236	0.185
236	0.195
237	0.204
237	0.211
238	0.218
238	0.224
239	0.229
239	0.233
240	0.237
240	0.24
241	0.243
241	0.245
242	0.247
242	0.249
243	0.251
243	0.253
243	0.254
244	0.256
244	0.257
245	0.258
245	0.26
246	0.261
246	0.263
247	0.264
247	0.265
248	0.266
248	0.267
249	0.268
249	0.269
250	0.271
250	0.272
250	0.274
251	0.275
251	0.276
252	0.277
252	0.278
253	0.28
253	0.281
254	0.282
254	0.283
255	0.283
255	0.284
256	0.285
256	0.285
257	0.286
257	0.286
258	0.287
258	0.287
258	0.287
259	0.287
259	0.287
260	0.288
260	0.287
261	0.287
261	0.287
262	0.286
262	0.286
263	0.285
263	0.285
264	0.284
264	0.283
265	0.282
265	0.281
265	0.28
266	0.279
266	0.278
267	0.277
267	0.275
268	0.274
268	0.272
269	0.271
269	0.269
270	0.268
270	0.266
271	0.264
271	0.262
272	0.26
272	0.258
272	0.256
273	0.254
273	0.252
274	0.25
274	0.248
275	0.246
275	0.244
276	0.242
276	0.24
277	0.238
277	0.236
278	0.234
278	0.231
278	0.229
279	0.227
279	0.225
280	0.222
280	0.22
281	0.218
281	0.216
282	0.214
282	0.212
283	0.21
283	0.208
284	0.206
284	0.204
285	0.203
285	0.201
285	0.199
286	0.198
286	0.196
287	0.194
287	0.193
288	0.191
288	0.19
289	0.188
289	0.187
290	0.186
290	0.184
291	0.183
291	0.182
292	0.18
292	0.179
292	0.178
293	0.177
293	0.176
294	0.175
294	0.174
295	0.173
295	0.173
296	0.172
296	0.171
297	0.171
297	0.17
298	0.169
298	0.169
298	0.168
299	0.168
299	0.167
300	0.167
300	0.166
301	0.166
301	0.165
302	0.165
302	0.164
303	0.164
303	0.163
304	0.163
304	0.163
305	0.162
305	0.162
305	0.161
306	0.161
306	0.16
307	0.16
307	0.16
308	0.159
308	0.159
309	0.158
309	0.158
310	0.158
310	0.157
311	0.157
311	0.157
311	0.156
312	0.156
312	0.155
313	0.155
313	0.155
314	0.154
314	0.154
315	0.153
315	0.153
316	0.153
316	0.152
317	0.152
317	0.152
318	0.151
318	0.151
318	0.15
319	0.15
319	0.15
320	0.149
320	0.149
321	0.148
321	0.148
322	0.148
322	0.147
323	0.147
323	0.146
324	0.146
324	0.145
324	0.145
325	0.144
325	0.144
326	0.144
326	0.144
327	0.143
327	0.143
328	0.142
328	0.142
329	0.142
329	0.141
330	0.141
330	0.141
330	0.14
331	0.14
331	0.14
332	0.139
332	0.139
333	0.139
333	0.138
334	0.138
334	0.138
335	0.137
335	0.137
336	0.137
336	0.136
336	0.136
337	0.136
337	0.136
338	0.135
338	0.135
339	0.135
339	0.134
340	0.134
340	0.134
341	0.133
341	0.133
342	0.133
342	0.132
342	0.132
343	0.132
343	0.131
344	0.131
344	0.131
345	0.131
345	0.131
346	0.13
346	0.13
347	0.13
347	0.13
348	0.129
348	0.129
348	0.129
349	0.129
349	0.129
350	0.129
350	0.129
351	0.128
351	0.128
352	0.128
352	0.128
353	0.128
353	0.128
354	0.128
354	0.127
354	0.127
355	0.127
355	0.126
356	0.126
356	0.126
357	0.125
357	0.125
358	0.125
358	0.125
359	0.125
359	0.125
360	0.126
360	0.126
360	0.126
361	0.126
361	0.126
362	0.127
362	0.126
363	0.126
363	0.126
364	0.126
364	0.126
365	0.126
365	0.126
366	0.126
366	0.125
366	0.125
367	0.125
367	0.125
368	0.125
368	0.125
369	0.125
369	0.125
370	0.125
370	0.125
371	0.125
371	0.125
372	0.124
372	0.124
372	0.124
373	0.124
373	0.124
374	0.124
374	0.124
375	0.124
375	0.124
376	0.124
376	0.124
377	0.123
377	0.123
378	0.123
378	0.123
378	0.123
379	0.123
379	0.123
380	0.123
380	0.123
381	0.123
381	0.123
382	0.123
382	0.123
383	0.123
383	0.122
383	0.122
384	0.122
384	0.122
385	0.122
385	0.122
386	0.122
386	0.121
387	0.121
387	0.121
388	0.121
388	0.122
389	0.122
389	0.121
389	0.121
390	0.121
390	0.122
391	0.121
391	0.122
392	0.121
392	0.121
393	0.121
393	0.121
394	0.121
394	0.121
394	0.121
395	0.121
395	0.12
396	0.12
396	0.12
397	0.12
397	0.12
398	0.12
398	0.119
399	0.119
399	0.119
400	0.119
400	0.119
400	0.119
401	0.119
401	0.118
402	0.118
402	0.118
403	0.118
403	0.118
404	0.118
404	0.118
405	0.118
405	0.118
405	0.118
406	0.118
406	0.118
407	0.118
407	0.118
408	0.118
408	0.118
409	0.118
409	0.118
410	0.118
410	0.118
411	0.118
411	0.118
411	0.118
412	0.118
412	0.117
413	0.117
413	0.117
414	0.117
414	0.117
415	0.117
415	0.116
416	0.116
416	0.116
416	0.116
417	0.116
417	0.116
418	0.116
418	0.116
419	0.116
419	0.116
420	0.117
420	0.117
421	0.116
421	0.116
421	0.116
422	0.116
422	0.116
423	0.116
423	0.116
424	0.115
424	0.115
425	0.115
425	0.115
426	0.115
426	0.115
427	0.115
427	0.115
427	0.115
428	0.115
428	0.115
429	0.115
429	0.114
430	0.114
430	0.114
431	0.114
431	0.114
432	0.114
432	0.114
432	0.114
433	0.113
433	0.113
434	0.114
434	0.114
435	0.114
435	0.114
436	0.114
436	0.114
437	0.114
437	0.114
437	0.114
438	0.114
438	0.114
439	0.114
439	0.114
440	0.113
440	0.113
441	0.113
441	0.113
442	0.113
442	0.113
442	0.113
443	0.113
443	0.113
444	0.113
444	0.113
445	0.113
445	0.113
446	0.113
446	0.113
447	0.113
447	0.113
447	0.113
448	0.113
448	0.113
449	0.113
449	0.113
450	0.113
450	0.113
451	0.114
451	0.114
452	0.114
452	0.114
452	0.114
453	0.114
453	0.114
454	0.114
454	0.114
455	0.114
455	0.115
456	0.115
456	0.114
457	0.114
457	0.114
458	0.114
458	0.114
458	0.114
459	0.114
459	0.113
460	0.113
460	0.113
461	0.113
461	0.113
462	0.113
462	0.113
463	0.113
463	0.114
463	0.114
464	0.114
464	0.114
465	0.114
465	0.114
466	0.114
466	0.114
467	0.114
467	0.114
467	0.114
468	0.114
468	0.114
469	0.114
469	0.114
470	0.115
470	0.115
471	0.115
471	0.115
472	0.115
472	0.115
472	0.115
473	0.116
473	0.116
474	0.116
474	0.117
475	0.117
475	0.118
476	0.118
476	0.119
477	0.12
477	0.12
477	0.12
478	0.121
478	0.121
479	0.121
479	0.121
480	0.121
480	0.121
481	0.121
481	0.121
482	0.122
482	0.122
482	0.123
483	0.123
483	0.124
484	0.125
484	0.125
485	0.125
485	0.125
486	0.126
486	0.126
487	0.126
487	0.127
487	0.127
488	0.127
488	0.127
489	0.128
489	0.129
490	0.129
490	0.13
491	0.131
491	0.131
492	0.132
492	0.133
492	0.133
493	0.134
493	0.135
494	0.137
494	0.138
495	0.138
495	0.139
496	0.14
496	0.141
496	0.142
497	0.142
497	0.143
498	0.143
498	0.144
499	0.145
499	0.145
500	0.146
500	0.147
501	0.148
501	0.149
501	0.15
502	0.151
502	0.152
503	0.153
503	0.154
504	0.154
504	0.155
505	0.156
505	0.156
506	0.157
506	0.158
506	0.159
507	0.159
507	0.16
508	0.161
508	0.162
509	0.163
509	0.164
510	0.165
510	0.165
511	0.166
511	0.167
511	0.168
512	0.168
512	0.169
513	0.169
513	0.17
514	0.171
514	0.172
515	0.172
515	0.172
515	0.172
516	0.173
516	0.173
517	0.174
517	0.174
518	0.174
518	0.174
519	0.174
519	0.174
520	0.175
520	0.175
520	0.175
521	0.175
521	0.175
522	0.175
522	0.175
523	0.175
523	0.175
524	0.175
524	0.174
524	0.174
525	0.174
525	0.173
526	0.173
526	0.173
527	0.172
527	0.172
528	0.172
528	0.172
529	0.171
529	0.171
529	0.17
530	0.17
530	0.169
531	0.169
531	0.169
532	0.168
532	0.168
533	0.168
533	0.167
533	0.166
534	0.165
534	0.164
535	0.164
535	0.163
536	0.162
536	0.161
537	0.16
537	0.159
538	0.158
538	0.157
538	0.156
539	0.156
539	0.155
540	0.154
540	0.153
541	0.151
541	0.151
542	0.15
542	0.15
542	0.149
543	0.148
543	0.147
544	0.146
544	0.146
545	0.145
545	0.145
546	0.144
546	0.143
547	0.141
547	0.139
547	0.138
548	0.137
548	0.136
549	0.135
549	0.134
550	0.133
550	0.131
551	0.13
551	0.129
551	0.128
552	0.127
552	0.126
553	0.126
553	0.125
554	0.124
554	0.122
555	0.121
555	0.12
556	0.119
556	0.117
556	0.116
557	0.116
557	0.115
558	0.114
558	0.113
559	0.113
559	0.112
560	0.111
560	0.11
560	0.11
561	0.11
561	0.109
562	0.108
562	0.107
563	0.106
563	0.104
564	0.103
564	0.102
564	0.101
565	0.1
565	0.098
566	0.097
566	0.096
567	0.095
567	0.094
568	0.094
568	0.093
568	0.093
569	0.092
569	0.092
570	0.091
570	0.089
571	0.089
571	0.088
572	0.087
572	0.086
573	0.085
573	0.084
573	0.083
574	0.083
574	0.083
575	0.083
575	0.084
576	0.084
576	0.082
577	0.081
577	0.081
577	0.081
578	0.08
578	0.081
579	0.081
579	0.081
580	0.079
580	0.077
581	0.075
581	0.075
581	0.075
582	0.075
582	0.075
583	0.076
583	0.075
584	0.073
584	0.071
585	0.072
585	0.073
585	0.073
586	0.073
586	0.073
587	0.071
587	0.07
588	0.069
588	0.068
589	0.068
589	0.068
590	0.068
590	0.068
590	0.069
591	0.069
591	0.068
592	0.067
592	0.066
593	0.067
593	0.067
594	0.066
594	0.066
594	0.066
595	0.066
595	0.066
596	0.066
596	0.067
597	0.07
597	0.07
598	0.07
598	0.07
598	0.071
599	0.07
599	0.07
600	0.069
600	0.068
601	0.068
601	0.067
602	0.066
602	0.066
602	0.065
603	0.066
603	0.067
604	0.067
604	0.068
605	0.068
605	0.069
606	0.068
606	0.068
606	0.067
607	0.067
607	0.067
608	0.067
608	0.066
609	0.065
609	0.065
610	0.065
610	0.065
610	0.066
611	0.067
611	0.068
612	0.069
612	0.07
613	0.071
613	0.072
614	0.071
614	0.071
614	0.071
615	0.071
615	0.071
616	0.071
616	0.07
617	0.07
617	0.07
618	0.069
618	0.069
618	0.07
619	0.07
619	0.071
620	0.073
620	0.073
621	0.073
621	0.074
622	0.074
622	0.074
622	0.074
623	0.074
623	0.075
624	0.075
624	0.075
625	0.075
625	0.076
626	0.076
626	0.077
626	0.078
627	0.079
627	0.079
628	0.08
628	0.081
629	0.081
629	0.081
630	0.081
630	0.081
630	0.082
631	0.083
631	0.083
632	0.083
632	0.084
633	0.085
633	0.086
634	0.088
634	0.089
634	0.09
635	0.091
635	0.092
636	0.093
636	0.094
637	0.095
637	0.095
638	0.096
638	0.097
638	0.097
639	0.098
639	0.099
640	0.1
640	0.101
641	0.102
641	0.103
642	0.105
642	0.107
642	0.108
643	0.109
643	0.111
644	0.112
644	0.114
645	0.115
645	0.116
646	0.117
646	0.118
646	0.119
647	0.12
647	0.121
648	0.121
648	0.122
649	0.124
649	0.125
650	0.127
650	0.129
650	0.13
651	0.132
651	0.134
652	0.135
652	0.137
653	0.14
653	0.146
653	0.15
654	0.12
654	0.097
655	0.098
655	0.1
656	0.101
656	0.103
657	0.104
657	0.105
657	0.106
658	0.104
658	0.099
659	0.126
659	0.162
660	0.17
660	0.171
661	0.173
661	0.175
661	0.177
662	0.179
662	0.181
663	0.183
663	0.185
664	0.186
664	0.188
665	0.189
665	0.191
665	0.193
666	0.194
666	0.195
667	0.197
667	0.199
668	0.2
668	0.202
669	0.203
669	0.205
669	0.207
670	0.208
670	0.209
671	0.21
671	0.211
672	0.213
672	0.214
672	0.216
673	0.217
673	0.219
674	0.22
674	0.222
675	0.223
675	0.225
676	0.227
676	0.228
676	0.229
677	0.23
677	0.23
678	0.23
678	0.229
679	0.229
679	0.23
680	0.229
680	0.229
680	0.229
681	0.229
681	0.229
682	0.23
682	0.23
683	0.231
683	0.232
684	0.232
684	0.231
684	0.231
685	0.232
685	0.232
686	0.232
686	0.231
687	0.231
687	0.23
687	0.23
688	0.229
688	0.229
689	0.229
689	0.229
690	0.228
690	0.228
691	0.228
691	0.228
691	0.227
692	0.226
692	0.226
693	0.226
693	0.225
694	0.224
694	0.224
695	0.225
695	0.225
695	0.224
696	0.223
696	0.222
697	0.221
697	0.22
698	0.219
698	0.218
698	0.217
699	0.215
699	0.213
700	0.211
700	0.21
701	0.209
701	0.208
702	0.206
702	0.205
702	0.204
703	0.202
703	0.201
704	0.199
704	0.198
705	0.197
705	0.195
705	0.194
706	0.192
706	0.191
707	0.19
707	0.188
708	0.187
708	0.187
709	0.186
709	0.184
709	0.183
710	0.182
710	0.181
711	0.181
711	0.179
712	0.178
712	0.177
713	0.176
713	0.175
713	0.174
714	0.173
714	0.171
715	0.17
715	0.169
716	0.167
716	0.165
716	0.163
717	0.162
717	0.16
718	0.158
718	0.156
719	0.155
719	0.154
720	0.152
720	0.151
720	0.149
721	0.147
721	0.146
722	0.144
722	0.143
723	0.142
723	0.141
723	0.139
724	0.138
724	0.137
725	0.135
725	0.135
726	0.134
726	0.133
727	0.132
727	0.131
727	0.13
728	0.129
728	0.127
729	0.126
729	0.125
730	0.123
730	0.122
730	0.121
731	0.119
731	0.118
732	0.117
732	0.115
733	0.114
733	0.113
734	0.111
734	0.11
734	0.108
735	0.108
735	0.106
736	0.105
736	0.104
737	0.103
737	0.103
737	0.101
738	0.099
738	0.098
739	0.097
739	0.096
740	0.095
740	0.094
741	0.093
741	0.092
741	0.09
742	0.089
742	0.088
743	0.088
743	0.087
744	0.087
744	0.086
744	0.085
745	0.084
745	0.083
746	0.083
746	0.082
747	0.082
747	0.081
748	0.08
748	0.079
748	0.077
749	0.076
749	0.075
750	0.074
750	0.073
751	0.073
751	0.072
751	0.072
752	0.071
752	0.07
753	0.069
753	0.069
754	0.068
754	0.066
754	0.065
755	0.064
755	0.062
756	0.06
756	0.058
757	0.057
757	0.056
758	0.055
758	0.053
758	0.053
759	0.052
759	0.05
760	0.049
760	0.048
761	0.048
761	0.048
761	0.048
762	0.047
762	0.047
763	0.047
763	0.046
764	0.045
764	0.045
764	0.045
765	0.045
765	0.045
766	0.045
766	0.044
767	0.044
767	0.042
768	0.041
768	0.041
768	0.041
769	0.04
769	0.039
770	0.038
770	0.037
771	0.036
771	0.034
771	0.033
772	0.032
772	0.032
773	0.03
773	0.029
774	0.027
774	0.026
775	0.025
775	0.023
775	0.021
776	0.019
776	0.018
777	0.016
777	0.015
778	0.013
778	0.012
778	0.011
779	0.011
779	0.011
780	0.009
780	0.008
781	0.008
781	0.006
781	0.005
782	0.003
782	0.001
783	-0.001
783	-0.003
784	-0.006
784	-0.009
784	-0.011
785	-0.014
785	-0.017
786	-0.02
786	-0.023
787	-0.025
787	-0.028
788	-0.031
788	-0.035
788	-0.038
789	-0.042
789	-0.045
790	-0.048
790	-0.052
791	-0.056
791	-0.061
791	-0.065
792	-0.067
792	-0.066
793	-0.069
793	-0.073
794	-0.078
794	-0.085
794	-0.092
795	-0.099
795	-0.106
796	-0.112
796	-0.119
797	-0.128
797	-0.139
797	-0.146
798	-0.153
798	-0.158
799	-0.161
799	-0.164
800	-0.165
800	-0.167
801	-0.17
801	-0.171
801	-0.171
802	-0.172
802	-0.173
803	-0.173
803	-0.173
804	-0.172
804	-0.166
804	-0.159
805	-0.155
805	-0.152
806	-0.15
806	-0.149
807	-0.147
807	-0.146
807	-0.146
808	-0.145
808	-0.146
809	-0.15
809	-0.154
810	-0.154
810	-0.152
810	-0.149
811	-0.145
811	-0.139
812	-0.13
812	-0.121
813	-0.112
813	-0.102
813	-0.092
814	-0.083
814	-0.075
815	-0.066
815	-0.059
816	-0.053
816	-0.048
817	-0.043
817	-0.039
817	-0.035
818	-0.03
818	-0.026
819	-0.023
819	-0.021
820	-0.019
820	-0.017
820	-0.014
821	-0.012
821	-0.01
822	-0.008
822	-0.006
823	-0.004
823	-0.003
823	-0.002
824	0
824	0.002
825	0.004
825	0.006
826	0.007
826	0.008
826	0.008
827	0.008
827	0.008
828	0.007
828	0.007
829	0.006
829	0.006
829	0.006
830	0.005
830	0.006
831	0.007
831	0.008
832	0.009
832	0.011
832	0.012
833	0.013
833	0.014
834	0.014
834	0.014
835	0.014
835	0.013
835	0.013
836	0.012
836	0.011
837	0.011
837	0.011
838	0.01
838	0.01
839	0.01
839	0.01
839	0.009
840	0.009
840	0.009
841	0.009
841	0.009
842	0.009
842	0.009
842	0.008
843	0.008
843	0.009
844	0.009
844	0.01
845	0.01
845	0.01
845	0.011
846	0.011
846	0.012
847	0.012
847	0.013
848	0.014
848	0.014
848	0.014
849	0.015
849	0.015
850	0.015
850	0.015
851	0.015
851	0.015
851	0.014
852	0.013
852	0.013
853	0.012
853	0.011
854	0.01
854	0.009
854	0.009
855	0.008
855	0.008
856	0.008
856	0.008
857	0.008
857	0.009
857	0.009
858	0.011
858	0.012
859	0.013
859	0.014
860	0.015
860	0.016
860	0.016
861	0.017
861	0.017
862	0.016
862	0.016
863	0.016
863	0.015
863	0.015
864	0.015
864	0.015
865	0.015
865	0.015
866	0.015
866	0.015
866	0.016
867	0.017
867	0.017
868	0.017
868	0.017
869	0.017
869	0.017
869	0.017
870	0.016
870	0.015
871	0.015
871	0.014
872	0.012
872	0.011
872	0.01
873	0.009
873	0.008
874	0.007
874	0.007
875	0.006
875	0.005
875	0.004
876	0.004
876	0.003
877	0.003
877	0.003
878	0.003
878	0.003
878	0.004
879	0.004
879	0.005
880	0.005
880	0.006
881	0.006
881	0.006
881	0.007
882	0.007
882	0.007
883	0.007
883	0.007
884	0.008
884	0.008
884	0.008
885	0.008
885	0.008
886	0.008
886	0.008
887	0.008
887	0.008
887	0.008
888	0.007
888	0.008
889	0.008
889	0.008
890	0.009
890	0.01
890	0.011
891	0.011
891	0.012
892	0.013
892	0.013
893	0.014
893	0.015
893	0.016
894	0.016
894	0.016
895	0.016
895	0.016
895	0.016
896	0.015
896	0.015
897	0.014
897	0.014
898	0.013
898	0.012
898	0.012
899	0.011
899	0.011
900	0.011
900	0.01
901	0.01
901	0.01
901	0.01
902	0.01
902	0.01
903	0.01
903	0.009
904	0.009
904	0.009
904	0.009
905	0.009
905	0.01
906	0.01
906	0.011
907	0.011
907	0.011
907	0.011
908	0.011
908	0.011
909	0.012
909	0.012
910	0.012
910	0.011
910	0.011
911	0.011
911	0.011
912	0.011
912	0.011
913	0.012
913	0.012
913	0.012
914	0.013
914	0.013
915	0.013
915	0.014
916	0.015
916	0.015
916	0.016
917	0.017
917	0.017
918	0.017
918	0.018
918	0.018
919	0.018
919	0.018
920	0.017
920	0.016
921	0.015
921	0.014
921	0.013
922	0.012
922	0.011
923	0.01
923	0.008
924	0.008
924	0.007
924	0.006
925	0.006
925	0.006
926	0.005
926	0.005
927	0.005
927	0.005
927	0.005
928	0.006
928	0.006
929	0.006
929	0.007
930	0.007
930	0.007
930	0.007
931	0.006
931	0.006
932	0.006
932	0.006
933	0.006
933	0.006
933	0.006
934	0.006
934	0.006
935	0.006
935	0.006
935	0.006
936	0.006
936	0.006
937	0.006
937	0.006
938	0.005
938	0.005
938	0.005
939	0.004
939	0.004
940	0.004
940	0.005
941	0.005
941	0.005
941	0.006
942	0.006
942	0.006
943	0.007
943	0.007
944	0.007
944	0.007
944	0.007
945	0.007
945	0.007
946	0.008
946	0.008
946	0.008
947	0.008
947	0.008
948	0.009
948	0.009
949	0.009
949	0.009
949	0.009
950	0.009
950	0.009
951	0.009
951	0.008
952	0.008
952	0.008
952	0.008
953	0.007
953	0.007
954	0.007
954	0.007
955	0.007
955	0.007
955	0.008
956	0.008
956	0.009
957	0.009
957	0.009
957	0.009
958	0.009
958	0.009
959	0.01
959	0.01
960	0.01
960	0.009
960	0.009
961	0.009
961	0.009
962	0.008
962	0.008
963	0.008
963	0.007
963	0.007
964	0.006
964	0.006
965	0.006
965	0.006
966	0.006
966	0.007
966	0.007
967	0.007
967	0.007
968	0.008
968	0.008
968	0.008
969	0.008
969	0.008
970	0.008
970	0.008
971	0.008
971	0.008
971	0.008
972	0.008
972	0.008
973	0.008
973	0.008
974	0.008
974	0.008
974	0.007
975	0.007
975	0.006
976	0.005
976	0.005
976	0.004
977	0.003
977	0.002
978	0.001
978	-0
979	-0.001
979	-0.002
979	-0.003
980	-0.004
980	-0.004
981	-0.005
981	-0.006
982	-0.006
982	-0.007
982	-0.007
983	-0.007
983	-0.007
984	-0.007
984	-0.007
984	-0.007
985	-0.007
985	-0.007
986	-0.007
986	-0.008
987	-0.008
987	-0.008
987	-0.009
988	-0.009
988	-0.009
989	-0.009
989	-0.009
990	-0.008
990	-0.008
990	-0.008
991	-0.007
991	-0.007
992	-0.007
992	-0.006
992	-0.007
993	-0.007
993	-0.007
994	-0.007
994	-0.008
995	-0.008
995	-0.008
995	-0.009
996	-0.009
996	-0.01
997	-0.01
997	-0.01
997	-0.01
998	-0.01
998	-0.009
999	-0.009
999	-0.008
1000	-0.008
1000	-0.007
1000	-0.006
1001	-0.005
1001	-0.004
1002	-0.004
1002	-0.004
1003	-0.004
1003	-0.004
1003	-0.004
1004	-0.004
1004	-0.005
1005	-0.006
1005	-0.006
1005	-0.007
1006	-0.008
1006	-0.009
1007	-0.009
1007	-0.01
1008	-0.01
1008	-0.01
1008	-0.01
1009	-0.01
1009	-0.01
1010	-0.01
1010	-0.009
1010	-0.009
1011	-0.008
1011	-0.008
1012	-0.007
1012	-0.007
1013	-0.007
1013	-0.006
1013	-0.006
1014	-0.006
1014	-0.006
1015	-0.006
1015	-0.007
1016	-0.007
1016	-0.007
1016	-0.008
1017	-0.009
1017	-0.009
1018	-0.01
1018	-0.01
1018	-0.011
1019	-0.011
1019	-0.012
1020	-0.012
1020	-0.012
1021	-0.013
1021	-0.013
1021	-0.013
1022	-0.013
1022	-0.013
1023	-0.013
1023	-0.013
1023	-0.013
1024	-0.014
1024	-0.014
1025	-0.014
1025	-0.014
1026	-0.014
1026	-0.014
1026	-0.014
1027	-0.014
1027	-0.014
1028	-0.014
1028	-0.014
1028	-0.014
1029	-0.014
1029	-0.014
1030	-0.014
1030	-0.014
1031	-0.015
1031	-0.015
1031	-0.015
1032	-0.015
1032	-0.015
1033	-0.015
1033	-0.015
1033	-0.015
1034	-0.016
1034	-0.016
1035	-0.016
1035	-0.016
1036	-0.016
1036	-0.016
1036	-0.016
1037	-0.016
1037	-0.015
1038	-0.015
1038	-0.015
1039	-0.015
1039	-0.015
1039	-0.015
1040	-0.016
1040	-0.016
1041	-0.016
1041	-0.017
1041	-0.017
1042	-0.018
1042	-0.018
1043	-0.019
1043	-0.019
1044	-0.019
1044	-0.02
1044	-0.019
1045	-0.019
1045	-0.02
1046	-0.019
1046	-0.019
1046	-0.018
1047	-0.017
1047	-0.016
1048	-0.015
1048	-0.014
1049	-0.014
1049	-0.013
1049	-0.013
1050	-0.013
1050	-0.014
1051	-0.014
1051	-0.015
1051	-0.016
1052	-0.017
1052	-0.019
1053	-0.02
1053	-0.022
1053	-0.023
1054	-0.024
1054	-0.025
1055	-0.026
1055	-0.027
1056	-0.028
1056	-0.029
1056	-0.03
1057	-0.032
1057	-0.033
1058	-0.033
1058	-0.034
1058	-0.035
1059	-0.036
1059	-0.036
1060	-0.037
1060	-0.038
1061	-0.038
1061	-0.038
1061	-0.038
1062	-0.038
1062	-0.038
1063	-0.037
1063	-0.038
1063	-0.037
1064	-0.037
1064	-0.036
1065	-0.036
1065	-0.035
1066	-0.034
1066	-0.033
1066	-0.032
1067	-0.032
1067	-0.031
1068	-0.029
1068	-0.029
1068	-0.028
1069	-0.028
1069	-0.028
1070	-0.028
1070	-0.028
1071	-0.028
1071	-0.028
1071	-0.029
1072	-0.029
1072	-0.029
1073	-0.029
1073	-0.029
1073	-0.029
1074	-0.029
1074	-0.029
1075	-0.031
1075	-0.031
1076	-0.033
1076	-0.034
1076	-0.035
1077	-0.037
1077	-0.039
1078	-0.04
1078	-0.041
1078	-0.042
1079	-0.043
1079	-0.044
1080	-0.045
1080	-0.045
1080	-0.046
1081	-0.045
1081	-0.046
1082	-0.046
1082	-0.047
1083	-0.047
1083	-0.048
1083	-0.048
1084	-0.048
1084	-0.048
1085	-0.048
1085	-0.048
1085	-0.049
1086	-0.049
1086	-0.05
1087	-0.049
1087	-0.049
1088	-0.05
1088	-0.05
1088	-0.05
1089	-0.05
1089	-0.051
1090	-0.052
1090	-0.052
1090	-0.052
1091	-0.052
1091	-0.052
1092	-0.053
1092	-0.053
1092	-0.054
1093	-0.054
1093	-0.055
1094	-0.055
1094	-0.055
1095	-0.057
1095	-0.058
1095	-0.058
1096	-0.06
1096	-0.06
1097	-0.061
1097	-0.063
1097	-0.064
1098	-0.065
1098	-0.067
1099	-0.069
1099	-0.07
1100	-0.071
1100	-0.071
1100	-0.073
1101	-0.076
1101	-0.078
1102	-0.079
1102	-0.08
1102	-0.082
1103	-0.083
1103	-0.085
1104	-0.087
1104	-0.089
1104	-0.091
1105	-0.094
1105	-0.096
1106	-0.099
1106	-0.101
1107	-0.105
1107	-0.107
1107	-0.112
1108	-0.112
1108	-0.114
1109	-0.116
1109	-0.12
1109	-0.122
1110	-0.123
1110	-0.124
1111	-0.128
1111	-0.125
