Data from 17c-1-8a_Absorbance__472__05851.txt Node

Date: Thu Jan 25 17:24:28 CET 2024
User: Marek
Spectrometer: MAYP115816
Trigger mode: 0
Integration Time (sec): 2.000000E-1
Scans to average: 10
Electric dark correction enabled: true
Nonlinearity correction enabled: true
Boxcar width: 5
XAxis mode: Wavelengths
Number of Pixels in Spectrum: 2068
>>>>>Begin Spectral Data<<<<<
199	-0.543
199	-0.489
200	-0.414
200	-0.354
201	-0.32
201	-0.294
202	-0.269
202	-0.263
203	-0.257
203	-0.251
204	-0.24
204	-0.223
205	-0.21
205	-0.204
205	-0.204
206	-0.203
206	-0.207
207	-0.207
207	-0.207
208	-0.204
208	-0.206
209	-0.203
209	-0.206
210	-0.209
210	-0.21
211	-0.21
211	-0.211
212	-0.211
212	-0.21
213	-0.211
213	-0.214
213	-0.216
214	-0.217
214	-0.217
215	-0.215
215	-0.216
216	-0.216
216	-0.219
217	-0.216
217	-0.216
218	-0.214
218	-0.212
219	-0.208
219	-0.208
220	-0.211
220	-0.211
221	-0.212
221	-0.213
221	-0.208
222	-0.208
222	-0.208
223	-0.205
223	-0.205
224	-0.204
224	-0.197
225	-0.189
225	-0.186
226	-0.179
226	-0.171
227	-0.162
227	-0.158
228	-0.146
228	-0.136
229	-0.122
229	-0.106
229	-0.091
230	-0.076
230	-0.058
231	-0.038
231	-0.017
232	0.001
232	0.023
233	0.042
233	0.061
234	0.077
234	0.093
235	0.107
235	0.119
236	0.13
236	0.139
236	0.147
237	0.155
237	0.16
238	0.165
238	0.17
239	0.174
239	0.178
240	0.18
240	0.183
241	0.185
241	0.187
242	0.188
242	0.19
243	0.191
243	0.193
243	0.194
244	0.195
244	0.196
245	0.197
245	0.198
246	0.199
246	0.2
247	0.202
247	0.203
248	0.204
248	0.205
249	0.206
249	0.207
250	0.208
250	0.21
250	0.211
251	0.212
251	0.213
252	0.214
252	0.215
253	0.216
253	0.217
254	0.219
254	0.22
255	0.22
255	0.221
256	0.222
256	0.223
257	0.223
257	0.224
258	0.224
258	0.224
258	0.225
259	0.225
259	0.225
260	0.225
260	0.225
261	0.225
261	0.225
262	0.224
262	0.224
263	0.223
263	0.223
264	0.222
264	0.221
265	0.22
265	0.219
265	0.218
266	0.217
266	0.216
267	0.215
267	0.214
268	0.213
268	0.211
269	0.21
269	0.209
270	0.207
270	0.205
271	0.204
271	0.202
272	0.2
272	0.198
272	0.197
273	0.195
273	0.193
274	0.191
274	0.189
275	0.187
275	0.186
276	0.184
276	0.182
277	0.18
277	0.178
278	0.176
278	0.174
278	0.172
279	0.17
279	0.168
280	0.166
280	0.164
281	0.162
281	0.16
282	0.158
282	0.157
283	0.155
283	0.153
284	0.152
284	0.15
285	0.149
285	0.147
285	0.145
286	0.144
286	0.143
287	0.141
287	0.14
288	0.138
288	0.137
289	0.136
289	0.134
290	0.133
290	0.132
291	0.131
291	0.13
292	0.129
292	0.128
292	0.127
293	0.126
293	0.125
294	0.124
294	0.123
295	0.123
295	0.122
296	0.122
296	0.121
297	0.12
297	0.12
298	0.119
298	0.119
298	0.118
299	0.118
299	0.118
300	0.117
300	0.117
301	0.116
301	0.116
302	0.116
302	0.116
303	0.115
303	0.115
304	0.115
304	0.114
305	0.114
305	0.114
305	0.113
306	0.113
306	0.113
307	0.113
307	0.112
308	0.112
308	0.112
309	0.112
309	0.111
310	0.111
310	0.111
311	0.111
311	0.11
311	0.11
312	0.11
312	0.11
313	0.11
313	0.109
314	0.109
314	0.109
315	0.108
315	0.108
316	0.108
316	0.108
317	0.107
317	0.107
318	0.107
318	0.107
318	0.106
319	0.106
319	0.106
320	0.106
320	0.105
321	0.105
321	0.105
322	0.104
322	0.104
323	0.104
323	0.103
324	0.103
324	0.103
324	0.102
325	0.102
325	0.102
326	0.102
326	0.102
327	0.101
327	0.101
328	0.101
328	0.101
329	0.101
329	0.1
330	0.1
330	0.1
330	0.1
331	0.099
331	0.099
332	0.099
332	0.098
333	0.098
333	0.098
334	0.097
334	0.097
335	0.097
335	0.097
336	0.096
336	0.096
336	0.096
337	0.096
337	0.096
338	0.095
338	0.095
339	0.095
339	0.095
340	0.094
340	0.094
341	0.094
341	0.094
342	0.093
342	0.093
342	0.093
343	0.093
343	0.093
344	0.092
344	0.092
345	0.092
345	0.092
346	0.092
346	0.091
347	0.091
347	0.091
348	0.091
348	0.091
348	0.091
349	0.09
349	0.09
350	0.09
350	0.09
351	0.09
351	0.09
352	0.09
352	0.09
353	0.09
353	0.09
354	0.09
354	0.089
354	0.089
355	0.089
355	0.089
356	0.089
356	0.089
357	0.088
357	0.088
358	0.088
358	0.088
359	0.088
359	0.088
360	0.088
360	0.088
360	0.088
361	0.088
361	0.088
362	0.088
362	0.088
363	0.088
363	0.088
364	0.088
364	0.088
365	0.088
365	0.088
366	0.088
366	0.088
366	0.088
367	0.088
367	0.088
368	0.088
368	0.088
369	0.088
369	0.088
370	0.088
370	0.088
371	0.088
371	0.088
372	0.088
372	0.087
372	0.087
373	0.087
373	0.087
374	0.087
374	0.087
375	0.087
375	0.087
376	0.087
376	0.087
377	0.087
377	0.087
378	0.087
378	0.087
378	0.087
379	0.087
379	0.087
380	0.087
380	0.087
381	0.087
381	0.087
382	0.087
382	0.087
383	0.087
383	0.087
383	0.087
384	0.086
384	0.086
385	0.086
385	0.086
386	0.086
386	0.086
387	0.086
387	0.086
388	0.086
388	0.086
389	0.086
389	0.086
389	0.086
390	0.086
390	0.086
391	0.086
391	0.086
392	0.086
392	0.086
393	0.086
393	0.086
394	0.086
394	0.086
394	0.086
395	0.086
395	0.086
396	0.086
396	0.086
397	0.086
397	0.086
398	0.085
398	0.085
399	0.085
399	0.085
400	0.085
400	0.085
400	0.085
401	0.085
401	0.085
402	0.084
402	0.084
403	0.084
403	0.085
404	0.085
404	0.084
405	0.084
405	0.084
405	0.084
406	0.084
406	0.084
407	0.084
407	0.084
408	0.084
408	0.084
409	0.084
409	0.084
410	0.084
410	0.084
411	0.084
411	0.084
411	0.084
412	0.084
412	0.084
413	0.084
413	0.084
414	0.084
414	0.084
415	0.083
415	0.083
416	0.083
416	0.083
416	0.083
417	0.083
417	0.083
418	0.083
418	0.083
419	0.083
419	0.083
420	0.084
420	0.084
421	0.083
421	0.083
421	0.083
422	0.083
422	0.083
423	0.083
423	0.083
424	0.083
424	0.083
425	0.083
425	0.082
426	0.083
426	0.083
427	0.083
427	0.083
427	0.083
428	0.083
428	0.083
429	0.083
429	0.083
430	0.082
430	0.082
431	0.082
431	0.082
432	0.082
432	0.082
432	0.082
433	0.081
433	0.081
434	0.082
434	0.082
435	0.082
435	0.082
436	0.082
436	0.082
437	0.082
437	0.082
437	0.082
438	0.082
438	0.082
439	0.082
439	0.081
440	0.081
440	0.081
441	0.081
441	0.081
442	0.081
442	0.081
442	0.081
443	0.081
443	0.081
444	0.081
444	0.081
445	0.081
445	0.081
446	0.081
446	0.081
447	0.081
447	0.081
447	0.081
448	0.081
448	0.081
449	0.081
449	0.081
450	0.082
450	0.082
451	0.082
451	0.082
452	0.082
452	0.082
452	0.082
453	0.082
453	0.082
454	0.082
454	0.082
455	0.082
455	0.082
456	0.082
456	0.082
457	0.082
457	0.082
458	0.082
458	0.081
458	0.082
459	0.081
459	0.081
460	0.081
460	0.081
461	0.081
461	0.081
462	0.081
462	0.081
463	0.082
463	0.082
463	0.082
464	0.082
464	0.082
465	0.082
465	0.082
466	0.082
466	0.082
467	0.083
467	0.082
467	0.082
468	0.082
468	0.082
469	0.082
469	0.082
470	0.082
470	0.082
471	0.082
471	0.082
472	0.082
472	0.082
472	0.082
473	0.083
473	0.083
474	0.083
474	0.083
475	0.084
475	0.084
476	0.084
476	0.085
477	0.085
477	0.086
477	0.086
478	0.086
478	0.086
479	0.087
479	0.087
480	0.087
480	0.087
481	0.086
481	0.087
482	0.087
482	0.087
482	0.087
483	0.088
483	0.089
484	0.089
484	0.089
485	0.089
485	0.089
486	0.089
486	0.089
487	0.09
487	0.09
487	0.09
488	0.09
488	0.089
489	0.09
489	0.091
490	0.091
490	0.092
491	0.092
491	0.093
492	0.093
492	0.094
492	0.094
493	0.094
493	0.095
494	0.096
494	0.097
495	0.097
495	0.097
496	0.098
496	0.099
496	0.099
497	0.1
497	0.1
498	0.101
498	0.101
499	0.101
499	0.102
500	0.103
500	0.104
501	0.104
501	0.105
501	0.105
502	0.105
502	0.106
503	0.107
503	0.107
504	0.107
504	0.107
505	0.108
505	0.108
506	0.109
506	0.109
506	0.11
507	0.11
507	0.111
508	0.112
508	0.112
509	0.113
509	0.113
510	0.114
510	0.114
511	0.114
511	0.115
511	0.115
512	0.116
512	0.116
513	0.116
513	0.117
514	0.117
514	0.118
515	0.118
515	0.118
515	0.118
516	0.119
516	0.119
517	0.119
517	0.119
518	0.119
518	0.119
519	0.119
519	0.119
520	0.12
520	0.12
520	0.121
521	0.121
521	0.121
522	0.121
522	0.12
523	0.12
523	0.121
524	0.12
524	0.12
524	0.12
525	0.119
525	0.119
526	0.119
526	0.119
527	0.118
527	0.119
528	0.119
528	0.118
529	0.118
529	0.118
529	0.117
530	0.117
530	0.117
531	0.117
531	0.117
532	0.117
532	0.117
533	0.116
533	0.116
533	0.115
534	0.115
534	0.114
535	0.114
535	0.114
536	0.113
536	0.113
537	0.112
537	0.112
538	0.111
538	0.11
538	0.11
539	0.11
539	0.109
540	0.108
540	0.107
541	0.107
541	0.106
542	0.106
542	0.106
542	0.105
543	0.105
543	0.104
544	0.104
544	0.104
545	0.104
545	0.104
546	0.103
546	0.102
547	0.101
547	0.1
547	0.099
548	0.099
548	0.099
549	0.098
549	0.097
550	0.097
550	0.096
551	0.095
551	0.095
551	0.094
552	0.094
552	0.094
553	0.094
553	0.093
554	0.093
554	0.092
555	0.091
555	0.09
556	0.09
556	0.089
556	0.088
557	0.088
557	0.087
558	0.086
558	0.086
559	0.085
559	0.085
560	0.085
560	0.084
560	0.084
561	0.085
561	0.085
562	0.084
562	0.083
563	0.082
563	0.081
564	0.08
564	0.079
564	0.079
565	0.078
565	0.077
566	0.076
566	0.075
567	0.075
567	0.075
568	0.075
568	0.075
568	0.075
569	0.075
569	0.075
570	0.074
570	0.072
571	0.073
571	0.073
572	0.072
572	0.071
573	0.071
573	0.07
573	0.069
574	0.068
574	0.068
575	0.068
575	0.07
576	0.07
576	0.068
577	0.067
577	0.067
577	0.067
578	0.067
578	0.068
579	0.069
579	0.069
580	0.068
580	0.065
581	0.063
581	0.063
581	0.064
582	0.064
582	0.065
583	0.065
583	0.065
584	0.063
584	0.061
585	0.062
585	0.063
585	0.064
586	0.064
586	0.063
587	0.062
587	0.06
588	0.059
588	0.059
589	0.059
589	0.059
590	0.059
590	0.059
590	0.06
591	0.06
591	0.06
592	0.059
592	0.059
593	0.059
593	0.059
594	0.059
594	0.059
594	0.059
595	0.059
595	0.058
596	0.059
596	0.061
597	0.064
597	0.064
598	0.064
598	0.064
598	0.064
599	0.064
599	0.063
600	0.062
600	0.061
601	0.061
601	0.06
602	0.059
602	0.058
602	0.058
603	0.058
603	0.059
604	0.059
604	0.06
605	0.06
605	0.061
606	0.06
606	0.059
606	0.059
607	0.059
607	0.06
608	0.059
608	0.058
609	0.058
609	0.058
610	0.058
610	0.057
610	0.058
611	0.059
611	0.06
612	0.06
612	0.061
613	0.062
613	0.062
614	0.062
614	0.062
614	0.062
615	0.062
615	0.062
616	0.062
616	0.062
617	0.062
617	0.061
618	0.061
618	0.061
618	0.061
619	0.062
619	0.063
620	0.064
620	0.064
621	0.064
621	0.064
622	0.064
622	0.064
622	0.063
623	0.063
623	0.063
624	0.063
624	0.063
625	0.062
625	0.063
626	0.063
626	0.064
626	0.065
627	0.066
627	0.067
628	0.067
628	0.068
629	0.068
629	0.068
630	0.068
630	0.068
630	0.069
631	0.069
631	0.069
632	0.069
632	0.069
633	0.07
633	0.071
634	0.071
634	0.072
634	0.073
635	0.074
635	0.074
636	0.075
636	0.076
637	0.077
637	0.077
638	0.078
638	0.078
638	0.079
639	0.079
639	0.079
640	0.08
640	0.081
641	0.082
641	0.083
642	0.084
642	0.085
642	0.086
643	0.087
643	0.088
644	0.09
644	0.091
645	0.092
645	0.092
646	0.093
646	0.094
646	0.095
647	0.095
647	0.096
648	0.097
648	0.097
649	0.098
649	0.099
650	0.1
650	0.101
650	0.102
651	0.102
651	0.103
652	0.104
652	0.105
653	0.106
653	0.112
653	0.117
654	0.094
654	0.077
655	0.076
655	0.077
656	0.079
656	0.081
657	0.082
657	0.083
657	0.084
658	0.082
658	0.076
659	0.096
659	0.123
660	0.131
660	0.132
661	0.133
661	0.134
661	0.135
662	0.137
662	0.138
663	0.139
663	0.14
664	0.141
664	0.142
665	0.144
665	0.145
665	0.146
666	0.147
666	0.148
667	0.149
667	0.15
668	0.151
668	0.153
669	0.154
669	0.155
669	0.156
670	0.157
670	0.158
671	0.158
671	0.159
672	0.16
672	0.161
672	0.162
673	0.163
673	0.165
674	0.166
674	0.166
675	0.167
675	0.169
676	0.171
676	0.171
676	0.171
677	0.172
677	0.173
678	0.173
678	0.173
679	0.173
679	0.173
680	0.173
680	0.173
680	0.173
681	0.173
681	0.174
682	0.174
682	0.175
683	0.175
683	0.176
684	0.177
684	0.177
684	0.176
685	0.177
685	0.177
686	0.177
686	0.176
687	0.175
687	0.175
687	0.174
688	0.174
688	0.173
689	0.174
689	0.174
690	0.174
690	0.173
691	0.173
691	0.173
691	0.173
692	0.172
692	0.172
693	0.172
693	0.172
694	0.171
694	0.171
695	0.172
695	0.173
695	0.172
696	0.171
696	0.171
697	0.171
697	0.17
698	0.169
698	0.168
698	0.167
699	0.167
699	0.165
700	0.163
700	0.162
701	0.162
701	0.16
702	0.159
702	0.158
702	0.157
703	0.156
703	0.154
704	0.153
704	0.153
705	0.152
705	0.151
705	0.15
706	0.149
706	0.148
707	0.148
707	0.147
708	0.147
708	0.147
709	0.147
709	0.146
709	0.144
710	0.144
710	0.144
711	0.144
711	0.144
712	0.143
712	0.142
713	0.141
713	0.14
713	0.138
714	0.137
714	0.136
715	0.135
715	0.134
716	0.132
716	0.131
716	0.129
717	0.128
717	0.126
718	0.125
718	0.123
719	0.122
719	0.121
720	0.12
720	0.119
720	0.117
721	0.116
721	0.115
722	0.114
722	0.112
723	0.111
723	0.111
723	0.109
724	0.108
724	0.107
725	0.106
725	0.105
726	0.105
726	0.104
727	0.103
727	0.103
727	0.102
728	0.101
728	0.1
729	0.1
729	0.099
730	0.098
730	0.097
730	0.096
731	0.096
731	0.095
732	0.095
732	0.094
733	0.093
733	0.092
734	0.091
734	0.09
734	0.089
735	0.089
735	0.087
736	0.086
736	0.085
737	0.085
737	0.085
737	0.084
738	0.082
738	0.081
739	0.08
739	0.08
740	0.079
740	0.079
741	0.079
741	0.078
741	0.077
742	0.076
742	0.077
743	0.077
743	0.077
744	0.077
744	0.077
744	0.076
745	0.076
745	0.075
746	0.074
746	0.074
747	0.073
747	0.072
748	0.07
748	0.069
748	0.067
749	0.066
749	0.064
750	0.063
750	0.062
751	0.061
751	0.061
751	0.061
752	0.06
752	0.059
753	0.059
753	0.059
754	0.059
754	0.058
754	0.058
755	0.057
755	0.057
756	0.056
756	0.054
757	0.053
757	0.053
758	0.052
758	0.051
758	0.051
759	0.05
759	0.048
760	0.046
760	0.045
761	0.045
761	0.045
761	0.044
762	0.043
762	0.043
763	0.042
763	0.04
764	0.039
764	0.039
764	0.039
765	0.039
765	0.038
766	0.039
766	0.039
767	0.038
767	0.037
768	0.036
768	0.036
768	0.037
769	0.036
769	0.036
770	0.035
770	0.034
771	0.033
771	0.031
771	0.03
772	0.03
772	0.03
773	0.029
773	0.028
774	0.026
774	0.025
775	0.024
775	0.023
775	0.021
776	0.019
776	0.018
777	0.016
777	0.015
778	0.013
778	0.012
778	0.012
779	0.012
779	0.011
780	0.01
780	0.009
781	0.008
781	0.007
781	0.006
782	0.003
782	0.001
783	-0.001
783	-0.003
784	-0.007
784	-0.01
784	-0.013
785	-0.016
785	-0.019
786	-0.022
786	-0.025
787	-0.027
787	-0.03
788	-0.034
788	-0.038
788	-0.041
789	-0.046
789	-0.049
790	-0.052
790	-0.056
791	-0.06
791	-0.064
791	-0.069
792	-0.071
792	-0.069
793	-0.072
793	-0.076
794	-0.082
794	-0.089
794	-0.096
795	-0.104
795	-0.111
796	-0.116
796	-0.123
797	-0.132
797	-0.143
797	-0.15
798	-0.156
798	-0.16
799	-0.163
799	-0.165
800	-0.165
800	-0.167
801	-0.17
801	-0.171
801	-0.171
802	-0.172
802	-0.173
803	-0.173
803	-0.173
804	-0.172
804	-0.166
804	-0.159
805	-0.155
805	-0.152
806	-0.15
806	-0.149
807	-0.147
807	-0.146
807	-0.146
808	-0.145
808	-0.146
809	-0.15
809	-0.154
810	-0.154
810	-0.152
810	-0.149
811	-0.145
811	-0.138
812	-0.129
812	-0.12
813	-0.111
813	-0.102
813	-0.092
814	-0.083
814	-0.074
815	-0.066
815	-0.059
816	-0.053
816	-0.048
817	-0.044
817	-0.039
817	-0.034
818	-0.03
818	-0.025
819	-0.021
819	-0.019
820	-0.017
820	-0.014
820	-0.011
821	-0.009
821	-0.006
822	-0.005
822	-0.003
823	-0.001
823	-0
823	0.001
824	0.002
824	0.004
825	0.005
825	0.007
826	0.007
826	0.007
826	0.008
827	0.008
827	0.008
828	0.007
828	0.007
829	0.007
829	0.007
829	0.007
830	0.007
830	0.007
831	0.009
831	0.011
832	0.012
832	0.014
832	0.015
833	0.016
833	0.017
834	0.018
834	0.018
835	0.018
835	0.018
835	0.017
836	0.016
836	0.016
837	0.015
837	0.014
838	0.014
838	0.013
839	0.013
839	0.013
839	0.012
840	0.012
840	0.012
841	0.012
841	0.011
842	0.011
842	0.011
842	0.011
843	0.011
843	0.011
844	0.012
844	0.013
845	0.013
845	0.014
845	0.015
846	0.015
846	0.016
847	0.017
847	0.018
848	0.019
848	0.019
848	0.02
849	0.02
849	0.02
850	0.021
850	0.02
851	0.021
851	0.021
851	0.02
852	0.019
852	0.019
853	0.018
853	0.017
854	0.016
854	0.015
854	0.014
855	0.013
855	0.012
856	0.012
856	0.012
857	0.012
857	0.012
857	0.012
858	0.013
858	0.013
859	0.014
859	0.014
860	0.015
860	0.016
860	0.016
861	0.017
861	0.017
862	0.017
862	0.018
863	0.018
863	0.018
863	0.018
864	0.018
864	0.018
865	0.018
865	0.018
866	0.018
866	0.018
866	0.018
867	0.018
867	0.018
868	0.018
868	0.018
869	0.017
869	0.017
869	0.016
870	0.016
870	0.015
871	0.015
871	0.014
872	0.013
872	0.013
872	0.013
873	0.012
873	0.012
874	0.012
874	0.012
875	0.012
875	0.011
875	0.011
876	0.011
876	0.011
877	0.01
877	0.01
878	0.01
878	0.01
878	0.01
879	0.01
879	0.01
880	0.01
880	0.011
881	0.011
881	0.011
881	0.011
882	0.011
882	0.011
883	0.011
883	0.012
884	0.012
884	0.012
884	0.013
885	0.013
885	0.013
886	0.013
886	0.013
887	0.013
887	0.012
887	0.012
888	0.012
888	0.012
889	0.012
889	0.013
890	0.014
890	0.014
890	0.015
891	0.016
891	0.016
892	0.017
892	0.018
893	0.019
893	0.02
893	0.021
894	0.021
894	0.021
895	0.021
895	0.021
895	0.021
896	0.021
896	0.021
897	0.021
897	0.02
898	0.019
898	0.019
898	0.018
899	0.017
899	0.017
900	0.017
900	0.016
901	0.016
901	0.016
901	0.016
902	0.016
902	0.016
903	0.015
903	0.015
904	0.015
904	0.015
904	0.015
905	0.015
905	0.016
906	0.016
906	0.016
907	0.016
907	0.016
907	0.015
908	0.015
908	0.014
909	0.014
909	0.013
910	0.012
910	0.012
910	0.011
911	0.01
911	0.01
912	0.011
912	0.011
913	0.012
913	0.013
913	0.013
914	0.014
914	0.014
915	0.015
915	0.016
916	0.016
916	0.017
916	0.017
917	0.018
917	0.018
918	0.018
918	0.019
918	0.019
919	0.019
919	0.019
920	0.019
920	0.019
921	0.018
921	0.018
921	0.017
922	0.016
922	0.016
923	0.015
923	0.014
924	0.013
924	0.013
924	0.013
925	0.012
925	0.012
926	0.012
926	0.012
927	0.011
927	0.011
927	0.011
928	0.011
928	0.011
929	0.011
929	0.012
930	0.012
930	0.012
930	0.012
931	0.012
931	0.012
932	0.012
932	0.012
933	0.012
933	0.012
933	0.012
934	0.011
934	0.011
935	0.011
935	0.01
935	0.01
936	0.009
936	0.008
937	0.008
937	0.007
938	0.006
938	0.005
938	0.004
939	0.003
939	0.003
940	0.003
940	0.003
941	0.004
941	0.004
941	0.005
942	0.006
942	0.007
943	0.008
943	0.009
944	0.01
944	0.011
944	0.012
945	0.013
945	0.014
946	0.014
946	0.015
946	0.015
947	0.015
947	0.015
948	0.015
948	0.015
949	0.015
949	0.015
949	0.014
950	0.013
950	0.013
951	0.012
951	0.011
952	0.01
952	0.01
952	0.009
953	0.009
953	0.009
954	0.008
954	0.008
955	0.008
955	0.008
955	0.009
956	0.01
956	0.01
957	0.011
957	0.011
957	0.011
958	0.012
958	0.012
959	0.013
959	0.013
960	0.013
960	0.013
960	0.013
961	0.013
961	0.013
962	0.013
962	0.013
963	0.013
963	0.013
963	0.012
964	0.012
964	0.012
965	0.012
965	0.012
966	0.013
966	0.013
966	0.013
967	0.013
967	0.013
968	0.014
968	0.014
968	0.014
969	0.014
969	0.014
970	0.014
970	0.013
971	0.013
971	0.013
971	0.012
972	0.012
972	0.012
973	0.012
973	0.011
974	0.011
974	0.011
974	0.011
975	0.01
975	0.01
976	0.009
976	0.009
976	0.008
977	0.007
977	0.006
978	0.005
978	0.004
979	0.003
979	0.002
979	0.001
980	0
980	-0.001
981	-0.001
981	-0.002
982	-0.002
982	-0.002
982	-0.002
983	-0.002
983	-0.002
984	-0.003
984	-0.002
984	-0.002
985	-0.002
985	-0.002
986	-0.003
986	-0.003
987	-0.003
987	-0.004
987	-0.004
988	-0.004
988	-0.004
989	-0.004
989	-0.004
990	-0.004
990	-0.004
990	-0.004
991	-0.004
991	-0.004
992	-0.004
992	-0.004
992	-0.005
993	-0.005
993	-0.005
994	-0.006
994	-0.006
995	-0.007
995	-0.007
995	-0.007
996	-0.007
996	-0.008
997	-0.008
997	-0.008
997	-0.008
998	-0.007
998	-0.007
999	-0.006
999	-0.005
1000	-0.005
1000	-0.004
1000	-0.003
1001	-0.002
1001	-0.002
1002	-0.001
1002	-0.001
1003	-0.001
1003	-0.001
1003	-0.002
1004	-0.002
1004	-0.003
1005	-0.003
1005	-0.004
1005	-0.005
1006	-0.005
1006	-0.006
1007	-0.006
1007	-0.006
1008	-0.006
1008	-0.007
1008	-0.007
1009	-0.007
1009	-0.006
1010	-0.006
1010	-0.005
1010	-0.005
1011	-0.004
1011	-0.004
1012	-0.003
1012	-0.002
1013	-0.001
1013	-0.001
1013	-0.001
1014	-0
1014	-0.001
1015	-0.001
1015	-0.001
1016	-0.002
1016	-0.002
1016	-0.003
1017	-0.004
1017	-0.004
1018	-0.005
1018	-0.005
1018	-0.005
1019	-0.006
1019	-0.006
1020	-0.006
1020	-0.006
1021	-0.006
1021	-0.006
1021	-0.006
1022	-0.006
1022	-0.006
1023	-0.006
1023	-0.006
1023	-0.006
1024	-0.005
1024	-0.006
1025	-0.006
1025	-0.005
1026	-0.005
1026	-0.006
1026	-0.006
1027	-0.006
1027	-0.006
1028	-0.006
1028	-0.007
1028	-0.007
1029	-0.007
1029	-0.008
1030	-0.008
1030	-0.009
1031	-0.009
1031	-0.009
1031	-0.009
1032	-0.009
1032	-0.01
1033	-0.01
1033	-0.01
1033	-0.01
1034	-0.011
1034	-0.011
1035	-0.012
1035	-0.012
1036	-0.013
1036	-0.013
1036	-0.014
1037	-0.014
1037	-0.014
1038	-0.015
1038	-0.015
1039	-0.015
1039	-0.015
1039	-0.015
1040	-0.015
1040	-0.015
1041	-0.015
1041	-0.015
1041	-0.016
1042	-0.016
1042	-0.016
1043	-0.016
1043	-0.016
1044	-0.016
1044	-0.016
1044	-0.016
1045	-0.016
1045	-0.015
1046	-0.015
1046	-0.015
1046	-0.014
1047	-0.014
1047	-0.013
1048	-0.012
1048	-0.011
1049	-0.011
1049	-0.01
1049	-0.01
1050	-0.01
1050	-0.011
1051	-0.011
1051	-0.012
1051	-0.012
1052	-0.013
1052	-0.015
1053	-0.016
1053	-0.018
1053	-0.019
1054	-0.02
1054	-0.021
1055	-0.022
1055	-0.023
1056	-0.024
1056	-0.025
1056	-0.026
1057	-0.027
1057	-0.028
1058	-0.029
1058	-0.03
1058	-0.03
1059	-0.031
1059	-0.032
1060	-0.032
1060	-0.032
1061	-0.032
1061	-0.032
1061	-0.031
1062	-0.031
1062	-0.031
1063	-0.03
1063	-0.03
1063	-0.03
1064	-0.029
1064	-0.028
1065	-0.028
1065	-0.028
1066	-0.027
1066	-0.026
1066	-0.025
1067	-0.025
1067	-0.024
1068	-0.023
1068	-0.022
1068	-0.022
1069	-0.022
1069	-0.022
1070	-0.022
1070	-0.023
1071	-0.023
1071	-0.024
1071	-0.025
1072	-0.025
1072	-0.026
1073	-0.026
1073	-0.027
1073	-0.027
1074	-0.027
1074	-0.028
1075	-0.028
1075	-0.029
1076	-0.031
1076	-0.031
1076	-0.033
1077	-0.034
1077	-0.036
1078	-0.037
1078	-0.038
1078	-0.039
1079	-0.04
1079	-0.04
1080	-0.041
1080	-0.041
1080	-0.041
1081	-0.04
1081	-0.04
1082	-0.04
1082	-0.041
1083	-0.041
1083	-0.041
1083	-0.041
1084	-0.041
1084	-0.041
1085	-0.042
1085	-0.042
1085	-0.042
1086	-0.043
1086	-0.044
1087	-0.043
1087	-0.044
1088	-0.045
1088	-0.045
1088	-0.046
1089	-0.047
1089	-0.048
1090	-0.049
1090	-0.049
1090	-0.049
1091	-0.05
1091	-0.051
1092	-0.051
1092	-0.051
1092	-0.052
1093	-0.052
1093	-0.052
1094	-0.052
1094	-0.053
1095	-0.054
1095	-0.055
1095	-0.055
1096	-0.055
1096	-0.055
1097	-0.056
1097	-0.057
1097	-0.058
1098	-0.06
1098	-0.06
1099	-0.062
1099	-0.062
1100	-0.062
1100	-0.064
1100	-0.066
1101	-0.068
1101	-0.071
1102	-0.072
1102	-0.073
1102	-0.075
1103	-0.077
1103	-0.079
1104	-0.081
1104	-0.083
1104	-0.086
1105	-0.088
1105	-0.09
1106	-0.092
1106	-0.095
1107	-0.099
1107	-0.101
1107	-0.105
1108	-0.106
1108	-0.108
1109	-0.11
1109	-0.113
1109	-0.115
1110	-0.116
1110	-0.12
1111	-0.123
1111	-0.118
