Data from 17c-1-8a_Absorbance__732__06111.txt Node

Date: Thu Jan 25 17:33:08 CET 2024
User: Marek
Spectrometer: MAYP115816
Trigger mode: 0
Integration Time (sec): 2.000000E-1
Scans to average: 10
Electric dark correction enabled: true
Nonlinearity correction enabled: true
Boxcar width: 5
XAxis mode: Wavelengths
Number of Pixels in Spectrum: 2068
>>>>>Begin Spectral Data<<<<<
199	-0.576
199	-0.518
200	-0.442
200	-0.375
201	-0.34
201	-0.312
202	-0.287
202	-0.279
203	-0.271
203	-0.267
204	-0.255
204	-0.237
205	-0.223
205	-0.216
205	-0.218
206	-0.217
206	-0.22
207	-0.221
207	-0.221
208	-0.219
208	-0.218
209	-0.214
209	-0.22
210	-0.222
210	-0.222
211	-0.222
211	-0.223
212	-0.224
212	-0.223
213	-0.222
213	-0.226
213	-0.23
214	-0.23
214	-0.228
215	-0.226
215	-0.228
216	-0.228
216	-0.23
217	-0.227
217	-0.227
218	-0.225
218	-0.222
219	-0.219
219	-0.221
220	-0.224
220	-0.225
221	-0.224
221	-0.225
221	-0.223
222	-0.222
222	-0.221
223	-0.22
223	-0.219
224	-0.217
224	-0.209
225	-0.2
225	-0.197
226	-0.192
226	-0.183
227	-0.171
227	-0.166
228	-0.154
228	-0.142
229	-0.128
229	-0.111
229	-0.094
230	-0.077
230	-0.058
231	-0.036
231	-0.014
232	0.004
232	0.027
233	0.047
233	0.068
234	0.085
234	0.102
235	0.118
235	0.13
236	0.143
236	0.153
236	0.163
237	0.172
237	0.178
238	0.185
238	0.19
239	0.195
239	0.199
240	0.202
240	0.205
241	0.207
241	0.21
242	0.212
242	0.213
243	0.215
243	0.217
243	0.218
244	0.22
244	0.221
245	0.222
245	0.223
246	0.225
246	0.226
247	0.227
247	0.228
248	0.23
248	0.231
249	0.232
249	0.233
250	0.234
250	0.236
250	0.237
251	0.238
251	0.239
252	0.241
252	0.242
253	0.243
253	0.244
254	0.245
254	0.246
255	0.246
255	0.247
256	0.248
256	0.249
257	0.25
257	0.25
258	0.25
258	0.251
258	0.251
259	0.251
259	0.251
260	0.251
260	0.251
261	0.251
261	0.251
262	0.25
262	0.25
263	0.249
263	0.249
264	0.248
264	0.247
265	0.247
265	0.246
265	0.245
266	0.244
266	0.242
267	0.241
267	0.24
268	0.239
268	0.237
269	0.236
269	0.234
270	0.232
270	0.231
271	0.229
271	0.227
272	0.225
272	0.223
272	0.221
273	0.219
273	0.218
274	0.216
274	0.214
275	0.212
275	0.21
276	0.208
276	0.206
277	0.205
277	0.203
278	0.201
278	0.199
278	0.196
279	0.194
279	0.192
280	0.19
280	0.188
281	0.185
281	0.183
282	0.181
282	0.18
283	0.178
283	0.176
284	0.175
284	0.173
285	0.172
285	0.17
285	0.168
286	0.167
286	0.165
287	0.164
287	0.162
288	0.161
288	0.159
289	0.158
289	0.156
290	0.155
290	0.154
291	0.153
291	0.152
292	0.151
292	0.15
292	0.149
293	0.148
293	0.147
294	0.146
294	0.145
295	0.145
295	0.144
296	0.143
296	0.143
297	0.142
297	0.141
298	0.141
298	0.14
298	0.139
299	0.139
299	0.139
300	0.138
300	0.138
301	0.137
301	0.137
302	0.136
302	0.136
303	0.136
303	0.135
304	0.135
304	0.135
305	0.135
305	0.134
305	0.134
306	0.133
306	0.133
307	0.133
307	0.132
308	0.132
308	0.132
309	0.132
309	0.131
310	0.131
310	0.131
311	0.13
311	0.13
311	0.13
312	0.13
312	0.129
313	0.129
313	0.129
314	0.128
314	0.128
315	0.128
315	0.127
316	0.127
316	0.127
317	0.127
317	0.126
318	0.126
318	0.125
318	0.125
319	0.125
319	0.125
320	0.124
320	0.124
321	0.124
321	0.123
322	0.123
322	0.123
323	0.122
323	0.122
324	0.122
324	0.121
324	0.121
325	0.12
325	0.12
326	0.12
326	0.12
327	0.119
327	0.119
328	0.119
328	0.118
329	0.118
329	0.118
330	0.118
330	0.118
330	0.117
331	0.117
331	0.117
332	0.116
332	0.116
333	0.116
333	0.115
334	0.115
334	0.115
335	0.114
335	0.114
336	0.114
336	0.114
336	0.113
337	0.113
337	0.113
338	0.112
338	0.112
339	0.112
339	0.111
340	0.111
340	0.111
341	0.111
341	0.11
342	0.11
342	0.11
342	0.109
343	0.109
343	0.109
344	0.109
344	0.109
345	0.108
345	0.108
346	0.108
346	0.108
347	0.108
347	0.107
348	0.107
348	0.107
348	0.107
349	0.107
349	0.107
350	0.106
350	0.106
351	0.106
351	0.106
352	0.106
352	0.106
353	0.106
353	0.106
354	0.106
354	0.105
354	0.105
355	0.105
355	0.105
356	0.105
356	0.105
357	0.104
357	0.104
358	0.104
358	0.104
359	0.104
359	0.104
360	0.104
360	0.104
360	0.104
361	0.104
361	0.104
362	0.105
362	0.105
363	0.104
363	0.104
364	0.104
364	0.104
365	0.104
365	0.104
366	0.104
366	0.104
366	0.104
367	0.104
367	0.104
368	0.104
368	0.104
369	0.104
369	0.104
370	0.104
370	0.104
371	0.104
371	0.104
372	0.104
372	0.103
372	0.103
373	0.103
373	0.103
374	0.103
374	0.103
375	0.103
375	0.103
376	0.103
376	0.103
377	0.103
377	0.103
378	0.103
378	0.103
378	0.103
379	0.103
379	0.103
380	0.103
380	0.103
381	0.103
381	0.103
382	0.102
382	0.102
383	0.102
383	0.102
383	0.102
384	0.102
384	0.102
385	0.101
385	0.101
386	0.101
386	0.101
387	0.101
387	0.101
388	0.101
388	0.102
389	0.102
389	0.102
389	0.102
390	0.102
390	0.102
391	0.102
391	0.102
392	0.101
392	0.101
393	0.101
393	0.101
394	0.101
394	0.101
394	0.101
395	0.1
395	0.1
396	0.1
396	0.1
397	0.1
397	0.1
398	0.1
398	0.1
399	0.099
399	0.099
400	0.099
400	0.099
400	0.099
401	0.099
401	0.099
402	0.099
402	0.099
403	0.099
403	0.099
404	0.099
404	0.099
405	0.099
405	0.099
405	0.099
406	0.099
406	0.099
407	0.099
407	0.099
408	0.099
408	0.099
409	0.098
409	0.099
410	0.098
410	0.099
411	0.098
411	0.098
411	0.098
412	0.098
412	0.098
413	0.098
413	0.098
414	0.098
414	0.098
415	0.097
415	0.097
416	0.097
416	0.097
416	0.097
417	0.097
417	0.097
418	0.097
418	0.097
419	0.097
419	0.098
420	0.098
420	0.098
421	0.098
421	0.097
421	0.097
422	0.097
422	0.097
423	0.097
423	0.097
424	0.097
424	0.097
425	0.097
425	0.097
426	0.097
426	0.097
427	0.097
427	0.097
427	0.097
428	0.097
428	0.097
429	0.096
429	0.096
430	0.096
430	0.096
431	0.096
431	0.096
432	0.096
432	0.095
432	0.095
433	0.095
433	0.095
434	0.095
434	0.095
435	0.095
435	0.096
436	0.096
436	0.096
437	0.096
437	0.096
437	0.096
438	0.096
438	0.096
439	0.095
439	0.095
440	0.095
440	0.095
441	0.095
441	0.095
442	0.095
442	0.095
442	0.095
443	0.095
443	0.095
444	0.095
444	0.095
445	0.095
445	0.095
446	0.095
446	0.095
447	0.095
447	0.095
447	0.095
448	0.095
448	0.095
449	0.095
449	0.095
450	0.095
450	0.095
451	0.096
451	0.096
452	0.096
452	0.095
452	0.095
453	0.096
453	0.096
454	0.096
454	0.096
455	0.096
455	0.096
456	0.096
456	0.096
457	0.096
457	0.095
458	0.095
458	0.095
458	0.095
459	0.095
459	0.095
460	0.095
460	0.095
461	0.094
461	0.095
462	0.095
462	0.095
463	0.095
463	0.095
463	0.096
464	0.096
464	0.096
465	0.096
465	0.096
466	0.096
466	0.096
467	0.096
467	0.096
467	0.096
468	0.096
468	0.096
469	0.096
469	0.096
470	0.096
470	0.096
471	0.096
471	0.096
472	0.096
472	0.096
472	0.097
473	0.097
473	0.097
474	0.097
474	0.098
475	0.098
475	0.098
476	0.099
476	0.099
477	0.1
477	0.1
477	0.101
478	0.101
478	0.101
479	0.102
479	0.102
480	0.102
480	0.102
481	0.102
481	0.102
482	0.103
482	0.103
482	0.103
483	0.104
483	0.105
484	0.105
484	0.105
485	0.105
485	0.105
486	0.105
486	0.105
487	0.106
487	0.106
487	0.106
488	0.106
488	0.106
489	0.106
489	0.108
490	0.108
490	0.109
491	0.11
491	0.111
492	0.111
492	0.112
492	0.112
493	0.112
493	0.113
494	0.114
494	0.115
495	0.115
495	0.116
496	0.116
496	0.117
496	0.118
497	0.118
497	0.119
498	0.119
498	0.12
499	0.12
499	0.121
500	0.122
500	0.123
501	0.124
501	0.124
501	0.125
502	0.125
502	0.126
503	0.127
503	0.128
504	0.128
504	0.129
505	0.13
505	0.13
506	0.131
506	0.131
506	0.132
507	0.132
507	0.133
508	0.134
508	0.134
509	0.135
509	0.135
510	0.136
510	0.137
511	0.137
511	0.138
511	0.138
512	0.139
512	0.14
513	0.14
513	0.141
514	0.141
514	0.142
515	0.142
515	0.142
515	0.142
516	0.143
516	0.143
517	0.144
517	0.144
518	0.144
518	0.144
519	0.144
519	0.144
520	0.145
520	0.145
520	0.145
521	0.145
521	0.145
522	0.145
522	0.145
523	0.145
523	0.145
524	0.145
524	0.145
524	0.144
525	0.144
525	0.144
526	0.144
526	0.144
527	0.143
527	0.143
528	0.143
528	0.143
529	0.142
529	0.142
529	0.141
530	0.141
530	0.141
531	0.141
531	0.14
532	0.14
532	0.14
533	0.139
533	0.139
533	0.138
534	0.137
534	0.137
535	0.136
535	0.136
536	0.135
536	0.134
537	0.133
537	0.133
538	0.132
538	0.131
538	0.13
539	0.13
539	0.129
540	0.128
540	0.127
541	0.126
541	0.126
542	0.125
542	0.125
542	0.124
543	0.124
543	0.123
544	0.123
544	0.123
545	0.122
545	0.122
546	0.122
546	0.12
547	0.119
547	0.118
547	0.117
548	0.116
548	0.115
549	0.114
549	0.113
550	0.113
550	0.111
551	0.11
551	0.109
551	0.109
552	0.108
552	0.108
553	0.107
553	0.107
554	0.106
554	0.105
555	0.104
555	0.103
556	0.103
556	0.102
556	0.101
557	0.1
557	0.1
558	0.098
558	0.098
559	0.097
559	0.097
560	0.096
560	0.095
560	0.095
561	0.095
561	0.094
562	0.094
562	0.093
563	0.092
563	0.091
564	0.09
564	0.089
564	0.088
565	0.087
565	0.086
566	0.085
566	0.084
567	0.083
567	0.083
568	0.082
568	0.082
568	0.081
569	0.081
569	0.081
570	0.08
570	0.079
571	0.079
571	0.079
572	0.078
572	0.077
573	0.077
573	0.076
573	0.075
574	0.074
574	0.074
575	0.074
575	0.075
576	0.075
576	0.074
577	0.073
577	0.072
577	0.073
578	0.073
578	0.073
579	0.073
579	0.074
580	0.072
580	0.07
581	0.068
581	0.068
581	0.068
582	0.068
582	0.068
583	0.069
583	0.068
584	0.066
584	0.064
585	0.065
585	0.067
585	0.067
586	0.067
586	0.067
587	0.066
587	0.065
588	0.063
588	0.063
589	0.063
589	0.063
590	0.063
590	0.062
590	0.063
591	0.063
591	0.063
592	0.062
592	0.061
593	0.062
593	0.062
594	0.062
594	0.061
594	0.061
595	0.062
595	0.061
596	0.061
596	0.063
597	0.065
597	0.066
598	0.065
598	0.066
598	0.065
599	0.065
599	0.065
600	0.064
600	0.063
601	0.063
601	0.062
602	0.061
602	0.061
602	0.06
603	0.06
603	0.061
604	0.061
604	0.062
605	0.062
605	0.063
606	0.062
606	0.061
606	0.061
607	0.061
607	0.061
608	0.061
608	0.06
609	0.059
609	0.06
610	0.059
610	0.059
610	0.06
611	0.061
611	0.062
612	0.062
612	0.063
613	0.064
613	0.065
614	0.065
614	0.065
614	0.065
615	0.065
615	0.065
616	0.065
616	0.065
617	0.065
617	0.064
618	0.064
618	0.064
618	0.065
619	0.065
619	0.066
620	0.067
620	0.067
621	0.067
621	0.067
622	0.067
622	0.067
622	0.067
623	0.067
623	0.067
624	0.067
624	0.067
625	0.067
625	0.067
626	0.068
626	0.068
626	0.069
627	0.07
627	0.071
628	0.072
628	0.072
629	0.073
629	0.073
630	0.073
630	0.073
630	0.074
631	0.075
631	0.075
632	0.075
632	0.076
633	0.077
633	0.078
634	0.079
634	0.08
634	0.08
635	0.081
635	0.081
636	0.082
636	0.083
637	0.083
637	0.083
638	0.084
638	0.084
638	0.085
639	0.085
639	0.085
640	0.086
640	0.087
641	0.088
641	0.09
642	0.091
642	0.093
642	0.094
643	0.096
643	0.097
644	0.099
644	0.101
645	0.102
645	0.103
646	0.104
646	0.105
646	0.106
647	0.106
647	0.107
648	0.107
648	0.108
649	0.109
649	0.11
650	0.111
650	0.112
650	0.113
651	0.114
651	0.115
652	0.116
652	0.117
653	0.119
653	0.125
653	0.129
654	0.104
654	0.085
655	0.085
655	0.086
656	0.088
656	0.09
657	0.091
657	0.092
657	0.093
658	0.091
658	0.087
659	0.11
659	0.14
660	0.148
660	0.149
661	0.15
661	0.152
661	0.153
662	0.155
662	0.157
663	0.158
663	0.16
664	0.161
664	0.162
665	0.163
665	0.165
665	0.166
666	0.168
666	0.169
667	0.17
667	0.171
668	0.173
668	0.174
669	0.176
669	0.177
669	0.179
670	0.18
670	0.181
671	0.182
671	0.183
672	0.185
672	0.186
672	0.187
673	0.188
673	0.19
674	0.191
674	0.192
675	0.193
675	0.194
676	0.196
676	0.197
676	0.197
677	0.198
677	0.199
678	0.199
678	0.198
679	0.198
679	0.199
680	0.199
680	0.198
680	0.198
681	0.198
681	0.199
682	0.199
682	0.2
683	0.201
683	0.201
684	0.202
684	0.201
684	0.201
685	0.202
685	0.202
686	0.202
686	0.201
687	0.201
687	0.2
687	0.2
688	0.2
688	0.199
689	0.2
689	0.2
690	0.199
690	0.198
691	0.198
691	0.198
691	0.197
692	0.197
692	0.196
693	0.196
693	0.196
694	0.195
694	0.194
695	0.195
695	0.196
695	0.195
696	0.194
696	0.194
697	0.193
697	0.193
698	0.192
698	0.191
698	0.19
699	0.189
699	0.187
700	0.185
700	0.184
701	0.183
701	0.182
702	0.18
702	0.179
702	0.178
703	0.177
703	0.175
704	0.174
704	0.174
705	0.173
705	0.172
705	0.17
706	0.169
706	0.168
707	0.167
707	0.166
708	0.165
708	0.165
709	0.165
709	0.164
709	0.162
710	0.161
710	0.161
711	0.161
711	0.16
712	0.159
712	0.158
713	0.157
713	0.156
713	0.154
714	0.153
714	0.152
715	0.15
715	0.149
716	0.147
716	0.146
716	0.144
717	0.143
717	0.141
718	0.139
718	0.138
719	0.137
719	0.136
720	0.134
720	0.133
720	0.132
721	0.13
721	0.128
722	0.127
722	0.125
723	0.124
723	0.122
723	0.12
724	0.119
724	0.117
725	0.116
725	0.115
726	0.114
726	0.113
727	0.113
727	0.112
727	0.111
728	0.11
728	0.109
729	0.109
729	0.108
730	0.107
730	0.106
730	0.105
731	0.105
731	0.104
732	0.103
732	0.102
733	0.101
733	0.1
734	0.099
734	0.097
734	0.096
735	0.095
735	0.093
736	0.092
736	0.091
737	0.09
737	0.09
737	0.089
738	0.087
738	0.085
739	0.085
739	0.084
740	0.083
740	0.083
741	0.083
741	0.082
741	0.081
742	0.08
742	0.08
743	0.081
743	0.081
744	0.081
744	0.081
744	0.08
745	0.08
745	0.079
746	0.079
746	0.078
747	0.077
747	0.076
748	0.074
748	0.072
748	0.07
749	0.069
749	0.067
750	0.066
750	0.065
751	0.064
751	0.063
751	0.063
752	0.062
752	0.061
753	0.061
753	0.06
754	0.06
754	0.059
754	0.058
755	0.057
755	0.056
756	0.055
756	0.053
757	0.052
757	0.052
758	0.051
758	0.05
758	0.05
759	0.05
759	0.048
760	0.047
760	0.046
761	0.046
761	0.046
761	0.046
762	0.045
762	0.044
763	0.044
763	0.042
764	0.042
764	0.041
764	0.041
765	0.041
765	0.04
766	0.04
766	0.039
767	0.038
767	0.037
768	0.036
768	0.036
768	0.035
769	0.035
769	0.034
770	0.033
770	0.032
771	0.031
771	0.03
771	0.029
772	0.029
772	0.028
773	0.027
773	0.026
774	0.025
774	0.023
775	0.022
775	0.021
775	0.019
776	0.017
776	0.016
777	0.014
777	0.013
778	0.011
778	0.01
778	0.01
779	0.01
779	0.009
780	0.009
780	0.008
781	0.008
781	0.007
781	0.005
782	0.004
782	0.002
783	-0
783	-0.002
784	-0.005
784	-0.008
784	-0.011
785	-0.015
785	-0.018
786	-0.021
786	-0.024
787	-0.026
787	-0.029
788	-0.032
788	-0.036
788	-0.04
789	-0.044
789	-0.047
790	-0.05
790	-0.054
791	-0.058
791	-0.063
791	-0.068
792	-0.07
792	-0.068
793	-0.072
793	-0.076
794	-0.081
794	-0.088
794	-0.096
795	-0.104
795	-0.11
796	-0.116
796	-0.122
797	-0.131
797	-0.143
797	-0.15
798	-0.156
798	-0.16
799	-0.163
799	-0.165
800	-0.165
800	-0.167
801	-0.17
801	-0.171
801	-0.171
802	-0.172
802	-0.173
803	-0.173
803	-0.173
804	-0.172
804	-0.166
804	-0.159
805	-0.155
805	-0.152
806	-0.15
806	-0.149
807	-0.147
807	-0.146
807	-0.146
808	-0.145
808	-0.146
809	-0.15
809	-0.154
810	-0.154
810	-0.152
810	-0.149
811	-0.145
811	-0.139
812	-0.13
812	-0.121
813	-0.112
813	-0.103
813	-0.093
814	-0.083
814	-0.075
815	-0.067
815	-0.06
816	-0.053
816	-0.048
817	-0.044
817	-0.04
817	-0.035
818	-0.031
818	-0.027
819	-0.023
819	-0.02
820	-0.018
820	-0.016
820	-0.013
821	-0.01
821	-0.008
822	-0.006
822	-0.005
823	-0.003
823	-0.002
823	-0.001
824	0.001
824	0.003
825	0.004
825	0.006
826	0.007
826	0.007
826	0.007
827	0.008
827	0.007
828	0.007
828	0.007
829	0.007
829	0.007
829	0.007
830	0.007
830	0.007
831	0.009
831	0.011
832	0.012
832	0.013
832	0.015
833	0.016
833	0.016
834	0.017
834	0.017
835	0.016
835	0.016
835	0.015
836	0.014
836	0.013
837	0.012
837	0.012
838	0.011
838	0.011
839	0.01
839	0.01
839	0.01
840	0.009
840	0.009
841	0.009
841	0.008
842	0.007
842	0.007
842	0.006
843	0.006
843	0.006
844	0.006
844	0.006
845	0.006
845	0.007
845	0.007
846	0.008
846	0.009
847	0.01
847	0.011
848	0.011
848	0.012
848	0.013
849	0.013
849	0.014
850	0.015
850	0.015
851	0.015
851	0.015
851	0.015
852	0.015
852	0.015
853	0.014
853	0.013
854	0.013
854	0.012
854	0.012
855	0.011
855	0.011
856	0.01
856	0.01
857	0.01
857	0.01
857	0.011
858	0.011
858	0.012
859	0.012
859	0.012
860	0.013
860	0.013
860	0.013
861	0.014
861	0.014
862	0.013
862	0.013
863	0.013
863	0.013
863	0.013
864	0.013
864	0.013
865	0.014
865	0.014
866	0.014
866	0.014
866	0.014
867	0.015
867	0.015
868	0.015
868	0.015
869	0.015
869	0.014
869	0.013
870	0.013
870	0.012
871	0.012
871	0.011
872	0.01
872	0.01
872	0.009
873	0.009
873	0.009
874	0.009
874	0.009
875	0.009
875	0.009
875	0.009
876	0.008
876	0.008
877	0.008
877	0.008
878	0.007
878	0.007
878	0.006
879	0.006
879	0.006
880	0.006
880	0.006
881	0.006
881	0.006
881	0.007
882	0.007
882	0.007
883	0.007
883	0.008
884	0.008
884	0.008
884	0.008
885	0.008
885	0.008
886	0.008
886	0.008
887	0.008
887	0.008
887	0.008
888	0.007
888	0.007
889	0.008
889	0.008
890	0.009
890	0.009
890	0.01
891	0.011
891	0.011
892	0.012
892	0.013
893	0.014
893	0.014
893	0.015
894	0.015
894	0.015
895	0.014
895	0.014
895	0.013
896	0.013
896	0.012
897	0.011
897	0.011
898	0.01
898	0.009
898	0.008
899	0.008
899	0.008
900	0.008
900	0.008
901	0.008
901	0.008
901	0.008
902	0.008
902	0.008
903	0.008
903	0.008
904	0.008
904	0.008
904	0.008
905	0.009
905	0.009
906	0.01
906	0.011
907	0.011
907	0.011
907	0.011
908	0.011
908	0.011
909	0.011
909	0.01
910	0.01
910	0.009
910	0.008
911	0.008
911	0.007
912	0.008
912	0.008
913	0.009
913	0.009
913	0.01
914	0.011
914	0.011
915	0.012
915	0.013
916	0.013
916	0.014
916	0.015
917	0.015
917	0.015
918	0.016
918	0.016
918	0.016
919	0.016
919	0.015
920	0.015
920	0.014
921	0.013
921	0.012
921	0.011
922	0.011
922	0.01
923	0.009
923	0.008
924	0.008
924	0.007
924	0.007
925	0.007
925	0.007
926	0.007
926	0.008
927	0.007
927	0.007
927	0.007
928	0.008
928	0.008
929	0.008
929	0.008
930	0.008
930	0.008
930	0.007
931	0.007
931	0.007
932	0.007
932	0.006
933	0.006
933	0.006
933	0.006
934	0.005
934	0.005
935	0.005
935	0.005
935	0.005
936	0.005
936	0.005
937	0.004
937	0.004
938	0.004
938	0.004
938	0.003
939	0.003
939	0.003
940	0.003
940	0.004
941	0.004
941	0.004
941	0.005
942	0.005
942	0.005
943	0.006
943	0.006
944	0.006
944	0.007
944	0.007
945	0.007
945	0.008
946	0.008
946	0.008
946	0.009
947	0.009
947	0.009
948	0.009
948	0.009
949	0.009
949	0.009
949	0.009
950	0.008
950	0.007
951	0.007
951	0.006
952	0.006
952	0.005
952	0.005
953	0.004
953	0.004
954	0.003
954	0.003
955	0.003
955	0.003
955	0.003
956	0.004
956	0.004
957	0.004
957	0.005
957	0.005
958	0.005
958	0.006
959	0.006
959	0.007
960	0.007
960	0.008
960	0.008
961	0.008
961	0.009
962	0.009
962	0.009
963	0.01
963	0.009
963	0.009
964	0.009
964	0.009
965	0.009
965	0.009
966	0.008
966	0.009
966	0.009
967	0.009
967	0.009
968	0.009
968	0.009
968	0.009
969	0.009
969	0.009
970	0.009
970	0.009
971	0.008
971	0.008
971	0.008
972	0.008
972	0.008
973	0.008
973	0.007
974	0.007
974	0.007
974	0.007
975	0.007
975	0.007
976	0.006
976	0.006
976	0.006
977	0.005
977	0.004
978	0.003
978	0.002
979	0.001
979	-0
979	-0.001
980	-0.002
980	-0.003
981	-0.004
981	-0.004
982	-0.004
982	-0.004
982	-0.005
983	-0.005
983	-0.005
984	-0.005
984	-0.005
984	-0.004
985	-0.005
985	-0.005
986	-0.006
986	-0.007
987	-0.007
987	-0.008
987	-0.008
988	-0.008
988	-0.009
989	-0.009
989	-0.009
990	-0.009
990	-0.009
990	-0.008
991	-0.008
991	-0.007
992	-0.007
992	-0.007
992	-0.007
993	-0.007
993	-0.007
994	-0.007
994	-0.007
995	-0.008
995	-0.008
995	-0.008
996	-0.009
996	-0.009
997	-0.01
997	-0.01
997	-0.01
998	-0.01
998	-0.01
999	-0.009
999	-0.009
1000	-0.008
1000	-0.008
1000	-0.007
1001	-0.006
1001	-0.006
1002	-0.005
1002	-0.005
1003	-0.005
1003	-0.005
1003	-0.005
1004	-0.005
1004	-0.006
1005	-0.006
1005	-0.007
1005	-0.007
1006	-0.008
1006	-0.008
1007	-0.008
1007	-0.008
1008	-0.008
1008	-0.008
1008	-0.008
1009	-0.008
1009	-0.008
1010	-0.007
1010	-0.007
1010	-0.006
1011	-0.006
1011	-0.005
1012	-0.005
1012	-0.004
1013	-0.004
1013	-0.004
1013	-0.003
1014	-0.004
1014	-0.004
1015	-0.004
1015	-0.005
1016	-0.005
1016	-0.006
1016	-0.007
1017	-0.008
1017	-0.009
1018	-0.009
1018	-0.01
1018	-0.01
1019	-0.011
1019	-0.011
1020	-0.012
1020	-0.011
1021	-0.011
1021	-0.011
1021	-0.011
1022	-0.011
1022	-0.011
1023	-0.011
1023	-0.011
1023	-0.01
1024	-0.01
1024	-0.011
1025	-0.011
1025	-0.01
1026	-0.01
1026	-0.01
1026	-0.011
1027	-0.011
1027	-0.011
1028	-0.011
1028	-0.011
1028	-0.012
1029	-0.012
1029	-0.012
1030	-0.012
1030	-0.013
1031	-0.013
1031	-0.013
1031	-0.013
1032	-0.014
1032	-0.014
1033	-0.014
1033	-0.014
1033	-0.015
1034	-0.015
1034	-0.015
1035	-0.016
1035	-0.016
1036	-0.016
1036	-0.017
1036	-0.017
1037	-0.017
1037	-0.017
1038	-0.017
1038	-0.017
1039	-0.017
1039	-0.017
1039	-0.017
1040	-0.018
1040	-0.018
1041	-0.018
1041	-0.018
1041	-0.018
1042	-0.019
1042	-0.019
1043	-0.019
1043	-0.019
1044	-0.018
1044	-0.019
1044	-0.018
1045	-0.018
1045	-0.018
1046	-0.018
1046	-0.018
1046	-0.017
1047	-0.017
1047	-0.016
1048	-0.015
1048	-0.015
1049	-0.014
1049	-0.014
1049	-0.014
1050	-0.014
1050	-0.015
1051	-0.015
1051	-0.016
1051	-0.017
1052	-0.018
1052	-0.019
1053	-0.02
1053	-0.021
1053	-0.023
1054	-0.024
1054	-0.024
1055	-0.025
1055	-0.026
1056	-0.026
1056	-0.027
1056	-0.028
1057	-0.03
1057	-0.03
1058	-0.031
1058	-0.032
1058	-0.033
1059	-0.033
1059	-0.034
1060	-0.035
1060	-0.035
1061	-0.036
1061	-0.036
1061	-0.036
1062	-0.036
1062	-0.035
1063	-0.035
1063	-0.035
1063	-0.035
1064	-0.034
1064	-0.033
1065	-0.032
1065	-0.032
1066	-0.031
1066	-0.03
1066	-0.029
1067	-0.029
1067	-0.028
1068	-0.028
1068	-0.027
1068	-0.028
1069	-0.028
1069	-0.028
1070	-0.029
1070	-0.029
1071	-0.03
1071	-0.03
1071	-0.031
1072	-0.032
1072	-0.032
1073	-0.032
1073	-0.033
1073	-0.033
1074	-0.033
1074	-0.033
1075	-0.034
1075	-0.035
1076	-0.036
1076	-0.037
1076	-0.039
1077	-0.04
1077	-0.042
1078	-0.043
1078	-0.044
1078	-0.045
1079	-0.046
1079	-0.046
1080	-0.047
1080	-0.047
1080	-0.047
1081	-0.046
1081	-0.047
1082	-0.047
1082	-0.047
1083	-0.047
1083	-0.047
1083	-0.047
1084	-0.048
1084	-0.047
1085	-0.048
1085	-0.048
1085	-0.049
1086	-0.049
1086	-0.049
1087	-0.049
1087	-0.049
1088	-0.049
1088	-0.05
1088	-0.05
1089	-0.051
1089	-0.052
1090	-0.053
1090	-0.053
1090	-0.054
1091	-0.054
1091	-0.055
1092	-0.055
1092	-0.055
1092	-0.056
1093	-0.057
1093	-0.057
1094	-0.057
1094	-0.057
1095	-0.058
1095	-0.059
1095	-0.06
1096	-0.06
1096	-0.061
1097	-0.062
1097	-0.063
1097	-0.064
1098	-0.065
1098	-0.067
1099	-0.069
1099	-0.069
1100	-0.069
1100	-0.071
1100	-0.073
1101	-0.076
1101	-0.078
1102	-0.079
1102	-0.081
1102	-0.082
1103	-0.084
1103	-0.086
1104	-0.089
1104	-0.092
1104	-0.094
1105	-0.096
1105	-0.098
1106	-0.101
1106	-0.103
1107	-0.107
1107	-0.109
1107	-0.113
1108	-0.114
1108	-0.115
1109	-0.117
1109	-0.119
1109	-0.123
1110	-0.124
1110	-0.126
1111	-0.131
1111	-0.124
