Data from 15c-100ul-ns-20ul-nr-full-exp-7ul-bp_Absorbance__7__04345.txt Node

Date: Mon Jan 15 15:13:03 CET 2024
User: Marek
Spectrometer: MAYP115816
Trigger mode: 0
Integration Time (sec): 2.000000E-1
Scans to average: 10
Electric dark correction enabled: true
Nonlinearity correction enabled: true
Boxcar width: 5
XAxis mode: Wavelengths
Number of Pixels in Spectrum: 2068
>>>>>Begin Spectral Data<<<<<
199	-2.106
199	-1.974
200	-1.83
200	-1.718
201	-1.643
201	-1.592
202	-1.52
202	-1.463
203	-1.411
203	-1.37
204	-1.341
204	-1.318
205	-1.297
205	-1.288
205	-1.285
206	-1.284
206	-1.282
207	-1.278
207	-1.274
208	-1.273
208	-1.267
209	-1.266
209	-1.264
210	-1.263
210	-1.261
211	-1.259
211	-1.257
212	-1.254
212	-1.254
213	-1.253
213	-1.252
213	-1.252
214	-1.251
214	-1.252
215	-1.251
215	-1.251
216	-1.25
216	-1.249
217	-1.248
217	-1.247
218	-1.246
218	-1.242
219	-1.241
219	-1.239
220	-1.234
220	-1.23
221	-1.226
221	-1.221
221	-1.216
222	-1.212
222	-1.207
223	-1.199
223	-1.195
224	-1.189
224	-1.181
225	-1.173
225	-1.161
226	-1.151
226	-1.14
227	-1.125
227	-1.108
228	-1.089
228	-1.069
229	-1.045
229	-1.015
229	-0.986
230	-0.954
230	-0.919
231	-0.88
231	-0.841
232	-0.8
232	-0.755
233	-0.71
233	-0.664
234	-0.618
234	-0.572
235	-0.526
235	-0.48
236	-0.437
236	-0.394
236	-0.352
237	-0.313
237	-0.276
238	-0.241
238	-0.208
239	-0.177
239	-0.148
240	-0.122
240	-0.098
241	-0.076
241	-0.056
242	-0.037
242	-0.02
243	-0.004
243	0.01
243	0.023
244	0.035
244	0.046
245	0.056
245	0.065
246	0.074
246	0.081
247	0.088
247	0.095
248	0.101
248	0.107
249	0.112
249	0.117
250	0.121
250	0.126
250	0.13
251	0.133
251	0.137
252	0.14
252	0.144
253	0.146
253	0.149
254	0.151
254	0.154
255	0.156
255	0.158
256	0.16
256	0.162
257	0.163
257	0.165
258	0.166
258	0.167
258	0.168
259	0.168
259	0.169
260	0.17
260	0.17
261	0.17
261	0.17
262	0.17
262	0.171
263	0.171
263	0.171
264	0.171
264	0.171
265	0.171
265	0.17
265	0.17
266	0.169
266	0.169
267	0.169
267	0.168
268	0.167
268	0.166
269	0.166
269	0.164
270	0.164
270	0.163
271	0.162
271	0.161
272	0.16
272	0.159
272	0.158
273	0.157
273	0.156
274	0.155
274	0.154
275	0.153
275	0.152
276	0.151
276	0.149
277	0.148
277	0.147
278	0.146
278	0.145
278	0.143
279	0.141
279	0.14
280	0.139
280	0.138
281	0.137
281	0.136
282	0.134
282	0.134
283	0.133
283	0.132
284	0.132
284	0.131
285	0.131
285	0.13
285	0.129
286	0.129
286	0.128
287	0.128
287	0.127
288	0.126
288	0.126
289	0.125
289	0.124
290	0.124
290	0.123
291	0.123
291	0.122
292	0.122
292	0.121
292	0.12
293	0.12
293	0.119
294	0.119
294	0.118
295	0.118
295	0.117
296	0.117
296	0.117
297	0.117
297	0.116
298	0.116
298	0.116
298	0.115
299	0.115
299	0.115
300	0.114
300	0.114
301	0.114
301	0.113
302	0.113
302	0.113
303	0.113
303	0.112
304	0.112
304	0.112
305	0.112
305	0.111
305	0.111
306	0.111
306	0.11
307	0.11
307	0.109
308	0.109
308	0.109
309	0.108
309	0.108
310	0.107
310	0.107
311	0.107
311	0.106
311	0.106
312	0.105
312	0.105
313	0.105
313	0.104
314	0.104
314	0.103
315	0.103
315	0.103
316	0.102
316	0.102
317	0.102
317	0.101
318	0.101
318	0.1
318	0.1
319	0.099
319	0.099
320	0.098
320	0.098
321	0.097
321	0.097
322	0.096
322	0.096
323	0.095
323	0.095
324	0.094
324	0.094
324	0.094
325	0.093
325	0.093
326	0.092
326	0.092
327	0.091
327	0.091
328	0.09
328	0.09
329	0.089
329	0.089
330	0.089
330	0.088
330	0.088
331	0.087
331	0.087
332	0.086
332	0.086
333	0.086
333	0.085
334	0.085
334	0.084
335	0.084
335	0.083
336	0.083
336	0.082
336	0.082
337	0.081
337	0.081
338	0.08
338	0.08
339	0.079
339	0.079
340	0.078
340	0.078
341	0.078
341	0.077
342	0.077
342	0.077
342	0.076
343	0.076
343	0.075
344	0.075
344	0.074
345	0.074
345	0.073
346	0.073
346	0.072
347	0.072
347	0.071
348	0.071
348	0.07
348	0.07
349	0.069
349	0.069
350	0.068
350	0.067
351	0.067
351	0.066
352	0.066
352	0.065
353	0.064
353	0.064
354	0.063
354	0.062
354	0.062
355	0.061
355	0.06
356	0.06
356	0.06
357	0.059
357	0.059
358	0.06
358	0.06
359	0.06
359	0.061
360	0.061
360	0.062
360	0.062
361	0.062
361	0.062
362	0.062
362	0.062
363	0.062
363	0.062
364	0.062
364	0.061
365	0.061
365	0.061
366	0.061
366	0.061
366	0.06
367	0.06
367	0.06
368	0.06
368	0.059
369	0.059
369	0.059
370	0.058
370	0.058
371	0.058
371	0.058
372	0.057
372	0.057
372	0.057
373	0.057
373	0.057
374	0.057
374	0.057
375	0.057
375	0.057
376	0.057
376	0.058
377	0.058
377	0.058
378	0.058
378	0.059
378	0.059
379	0.059
379	0.059
380	0.059
380	0.059
381	0.059
381	0.059
382	0.059
382	0.059
383	0.058
383	0.058
383	0.058
384	0.058
384	0.058
385	0.057
385	0.057
386	0.057
386	0.057
387	0.057
387	0.057
388	0.057
388	0.057
389	0.057
389	0.057
389	0.057
390	0.057
390	0.058
391	0.058
391	0.058
392	0.058
392	0.058
393	0.058
393	0.058
394	0.058
394	0.058
394	0.058
395	0.058
395	0.057
396	0.057
396	0.057
397	0.057
397	0.058
398	0.058
398	0.058
399	0.058
399	0.058
400	0.058
400	0.057
400	0.057
401	0.057
401	0.056
402	0.055
402	0.055
403	0.055
403	0.055
404	0.055
404	0.055
405	0.054
405	0.054
405	0.054
406	0.054
406	0.054
407	0.054
407	0.054
408	0.054
408	0.053
409	0.053
409	0.053
410	0.053
410	0.052
411	0.052
411	0.052
411	0.052
412	0.052
412	0.051
413	0.051
413	0.051
414	0.05
414	0.05
415	0.05
415	0.049
416	0.049
416	0.048
416	0.048
417	0.048
417	0.048
418	0.048
418	0.048
419	0.049
419	0.049
420	0.05
420	0.05
421	0.051
421	0.051
421	0.052
422	0.052
422	0.052
423	0.052
423	0.052
424	0.051
424	0.05
425	0.05
425	0.049
426	0.049
426	0.048
427	0.048
427	0.048
427	0.049
428	0.05
428	0.05
429	0.051
429	0.051
430	0.051
430	0.051
431	0.051
431	0.05
432	0.05
432	0.049
432	0.048
433	0.046
433	0.046
434	0.045
434	0.045
435	0.045
435	0.045
436	0.045
436	0.045
437	0.045
437	0.045
437	0.045
438	0.045
438	0.045
439	0.045
439	0.044
440	0.044
440	0.044
441	0.044
441	0.044
442	0.044
442	0.045
442	0.045
443	0.045
443	0.046
444	0.046
444	0.046
445	0.046
445	0.046
446	0.046
446	0.046
447	0.046
447	0.045
447	0.045
448	0.045
448	0.045
449	0.044
449	0.044
450	0.044
450	0.043
451	0.043
451	0.042
452	0.042
452	0.041
452	0.04
453	0.04
453	0.039
454	0.039
454	0.039
455	0.038
455	0.038
456	0.038
456	0.038
457	0.038
457	0.038
458	0.038
458	0.038
458	0.038
459	0.038
459	0.038
460	0.038
460	0.037
461	0.036
461	0.036
462	0.035
462	0.035
463	0.035
463	0.036
463	0.036
464	0.036
464	0.036
465	0.036
465	0.036
466	0.036
466	0.035
467	0.035
467	0.034
467	0.033
468	0.031
468	0.029
469	0.028
469	0.027
470	0.026
470	0.025
471	0.025
471	0.025
472	0.025
472	0.025
472	0.025
473	0.026
473	0.027
474	0.028
474	0.029
475	0.029
475	0.03
476	0.03
476	0.029
477	0.029
477	0.029
477	0.029
478	0.029
478	0.029
479	0.029
479	0.029
480	0.029
480	0.03
481	0.03
481	0.031
482	0.031
482	0.032
482	0.033
483	0.035
483	0.037
484	0.039
484	0.04
485	0.041
485	0.042
486	0.042
486	0.042
487	0.043
487	0.042
487	0.042
488	0.041
488	0.039
489	0.037
489	0.036
490	0.034
490	0.034
491	0.033
491	0.033
492	0.033
492	0.033
492	0.033
493	0.033
493	0.034
494	0.035
494	0.037
495	0.038
495	0.039
496	0.04
496	0.04
496	0.041
497	0.041
497	0.042
498	0.042
498	0.042
499	0.041
499	0.041
500	0.041
500	0.041
501	0.042
501	0.042
501	0.043
502	0.043
502	0.044
503	0.045
503	0.045
504	0.046
504	0.045
505	0.045
505	0.045
506	0.045
506	0.045
506	0.045
507	0.044
507	0.045
508	0.045
508	0.045
509	0.045
509	0.045
510	0.046
510	0.046
511	0.046
511	0.046
511	0.046
512	0.046
512	0.045
513	0.044
513	0.043
514	0.042
514	0.043
515	0.042
515	0.041
515	0.04
516	0.039
516	0.038
517	0.038
517	0.038
518	0.038
518	0.038
519	0.038
519	0.037
520	0.037
520	0.036
520	0.034
521	0.033
521	0.031
522	0.029
522	0.026
523	0.024
523	0.022
524	0.021
524	0.02
524	0.02
525	0.02
525	0.021
526	0.023
526	0.025
527	0.028
527	0.031
528	0.034
528	0.037
529	0.039
529	0.041
529	0.043
530	0.044
530	0.045
531	0.047
531	0.047
532	0.048
532	0.048
533	0.048
533	0.049
533	0.049
534	0.049
534	0.048
535	0.048
535	0.048
536	0.049
536	0.049
537	0.049
537	0.049
538	0.049
538	0.049
538	0.048
539	0.048
539	0.048
540	0.048
540	0.048
541	0.047
541	0.046
542	0.046
542	0.045
542	0.045
543	0.045
543	0.045
544	0.045
544	0.045
545	0.045
545	0.046
546	0.047
546	0.047
547	0.047
547	0.046
547	0.045
548	0.044
548	0.043
549	0.042
549	0.041
550	0.041
550	0.04
551	0.039
551	0.038
551	0.037
552	0.038
552	0.038
553	0.038
553	0.039
554	0.04
554	0.039
555	0.039
555	0.038
556	0.037
556	0.035
556	0.034
557	0.033
557	0.032
558	0.031
558	0.03
559	0.03
559	0.03
560	0.031
560	0.031
560	0.032
561	0.033
561	0.034
562	0.035
562	0.035
563	0.035
563	0.034
564	0.033
564	0.031
564	0.031
565	0.03
565	0.03
566	0.03
566	0.03
567	0.031
567	0.032
568	0.034
568	0.036
568	0.039
569	0.042
569	0.044
570	0.046
570	0.046
571	0.048
571	0.05
572	0.051
572	0.051
573	0.052
573	0.052
573	0.052
574	0.052
574	0.052
575	0.053
575	0.055
576	0.056
576	0.056
577	0.056
577	0.055
577	0.055
578	0.055
578	0.056
579	0.059
579	0.061
580	0.061
580	0.059
581	0.057
581	0.056
581	0.056
582	0.056
582	0.057
583	0.058
583	0.058
584	0.055
584	0.052
585	0.052
585	0.052
585	0.053
586	0.053
586	0.053
587	0.052
587	0.05
588	0.048
588	0.046
589	0.046
589	0.045
590	0.045
590	0.044
590	0.046
591	0.047
591	0.048
592	0.048
592	0.048
593	0.048
593	0.049
594	0.048
594	0.048
594	0.047
595	0.047
595	0.046
596	0.045
596	0.046
597	0.049
597	0.051
598	0.052
598	0.054
598	0.055
599	0.056
599	0.056
600	0.055
600	0.054
601	0.053
601	0.052
602	0.05
602	0.049
602	0.048
603	0.047
603	0.047
604	0.048
604	0.049
605	0.051
605	0.053
606	0.054
606	0.053
606	0.053
607	0.052
607	0.052
608	0.052
608	0.05
609	0.049
609	0.049
610	0.048
610	0.046
610	0.047
611	0.048
611	0.049
612	0.05
612	0.052
613	0.054
613	0.055
614	0.055
614	0.054
614	0.054
615	0.054
615	0.053
616	0.052
616	0.051
617	0.05
617	0.049
618	0.048
618	0.047
618	0.046
619	0.046
619	0.046
620	0.048
620	0.049
621	0.05
621	0.05
622	0.051
622	0.051
622	0.051
623	0.051
623	0.052
624	0.052
624	0.051
625	0.051
625	0.05
626	0.05
626	0.05
626	0.05
627	0.05
627	0.05
628	0.051
628	0.051
629	0.051
629	0.051
630	0.051
630	0.05
630	0.05
631	0.05
631	0.051
632	0.05
632	0.05
633	0.051
633	0.051
634	0.053
634	0.054
634	0.056
635	0.058
635	0.058
636	0.059
636	0.06
637	0.06
637	0.061
638	0.061
638	0.062
638	0.062
639	0.062
639	0.062
640	0.062
640	0.063
641	0.063
641	0.064
642	0.065
642	0.067
642	0.068
643	0.068
643	0.069
644	0.07
644	0.072
645	0.073
645	0.074
646	0.076
646	0.078
646	0.08
647	0.082
647	0.084
648	0.086
648	0.087
649	0.089
649	0.09
650	0.092
650	0.094
650	0.095
651	0.096
651	0.098
652	0.099
652	0.1
653	0.103
653	0.111
653	0.127
654	0.106
654	0.09
655	0.092
655	0.094
656	0.095
656	0.096
657	0.098
657	0.099
657	0.1
658	0.096
658	0.085
659	0.104
659	0.129
660	0.132
660	0.133
661	0.134
661	0.135
661	0.137
662	0.139
662	0.142
663	0.144
663	0.146
664	0.148
664	0.15
665	0.152
665	0.153
665	0.155
666	0.157
666	0.158
667	0.16
667	0.162
668	0.163
668	0.165
669	0.166
669	0.169
669	0.172
670	0.175
670	0.177
671	0.178
671	0.179
672	0.18
672	0.181
672	0.182
673	0.183
673	0.184
674	0.184
674	0.184
675	0.184
675	0.185
676	0.187
676	0.189
676	0.19
677	0.192
677	0.194
678	0.195
678	0.196
679	0.196
679	0.197
680	0.198
680	0.199
680	0.199
681	0.199
681	0.199
682	0.2
682	0.201
683	0.202
683	0.204
684	0.206
684	0.206
684	0.206
685	0.207
685	0.208
686	0.209
686	0.209
687	0.21
687	0.209
687	0.209
688	0.209
688	0.208
689	0.209
689	0.211
690	0.211
690	0.21
691	0.21
691	0.21
691	0.21
692	0.21
692	0.209
693	0.209
693	0.209
694	0.208
694	0.207
695	0.207
695	0.209
695	0.211
696	0.211
696	0.211
697	0.211
697	0.211
698	0.211
698	0.21
698	0.209
699	0.209
699	0.207
700	0.205
700	0.203
701	0.203
701	0.202
702	0.201
702	0.2
702	0.199
703	0.198
703	0.197
704	0.196
704	0.196
705	0.196
705	0.196
705	0.195
706	0.194
706	0.193
707	0.192
707	0.19
708	0.189
708	0.187
709	0.186
709	0.184
709	0.181
710	0.178
710	0.176
711	0.175
711	0.174
712	0.173
712	0.172
713	0.171
713	0.171
713	0.169
714	0.168
714	0.167
715	0.166
715	0.165
716	0.163
716	0.162
716	0.161
717	0.159
717	0.157
718	0.155
718	0.153
719	0.152
719	0.151
720	0.149
720	0.147
720	0.145
721	0.142
721	0.14
722	0.138
722	0.136
723	0.134
723	0.133
723	0.132
724	0.13
724	0.129
725	0.128
725	0.127
726	0.126
726	0.126
727	0.125
727	0.125
727	0.124
728	0.123
728	0.122
729	0.122
729	0.122
730	0.121
730	0.12
730	0.119
731	0.118
731	0.118
732	0.117
732	0.115
733	0.114
733	0.112
734	0.11
734	0.107
734	0.106
735	0.104
735	0.102
736	0.1
736	0.098
737	0.096
737	0.096
737	0.094
738	0.092
738	0.09
739	0.088
739	0.086
740	0.084
740	0.082
741	0.081
741	0.078
741	0.075
742	0.071
742	0.068
743	0.065
743	0.063
744	0.061
744	0.06
744	0.058
745	0.056
745	0.054
746	0.053
746	0.052
747	0.052
747	0.052
748	0.051
748	0.051
748	0.051
749	0.05
749	0.05
750	0.051
750	0.05
751	0.051
751	0.051
751	0.052
752	0.052
752	0.052
753	0.052
753	0.052
754	0.052
754	0.052
754	0.052
755	0.052
755	0.053
756	0.053
756	0.051
757	0.049
757	0.049
758	0.048
758	0.047
758	0.046
759	0.045
759	0.042
760	0.04
760	0.037
761	0.035
761	0.033
761	0.032
762	0.03
762	0.029
763	0.028
763	0.026
764	0.023
764	0.02
764	0.017
765	0.014
765	0.012
766	0.01
766	0.009
767	0.008
767	0.005
768	0.002
768	-0.001
768	-0.002
769	-0.003
769	-0.003
770	-0.004
770	-0.006
771	-0.008
771	-0.012
771	-0.015
772	-0.017
772	-0.02
773	-0.022
773	-0.026
774	-0.03
774	-0.034
775	-0.038
775	-0.042
775	-0.047
776	-0.052
776	-0.056
777	-0.061
777	-0.066
778	-0.072
778	-0.077
778	-0.082
779	-0.085
779	-0.087
780	-0.089
780	-0.093
781	-0.096
781	-0.099
781	-0.101
782	-0.104
782	-0.107
783	-0.11
783	-0.111
784	-0.113
784	-0.116
784	-0.118
785	-0.12
785	-0.122
786	-0.122
786	-0.12
787	-0.116
787	-0.112
788	-0.11
788	-0.111
788	-0.111
789	-0.113
789	-0.112
790	-0.108
790	-0.107
791	-0.107
791	-0.108
791	-0.11
792	-0.105
792	-0.095
793	-0.09
793	-0.087
794	-0.086
794	-0.088
794	-0.092
795	-0.094
795	-0.095
796	-0.095
796	-0.098
797	-0.106
797	-0.116
797	-0.122
798	-0.126
798	-0.129
799	-0.13
799	-0.13
800	-0.13
800	-0.132
801	-0.135
801	-0.136
801	-0.137
802	-0.138
802	-0.14
803	-0.141
803	-0.141
804	-0.14
804	-0.135
804	-0.128
805	-0.124
805	-0.122
806	-0.119
806	-0.118
807	-0.117
807	-0.116
807	-0.116
808	-0.116
808	-0.117
809	-0.122
809	-0.127
810	-0.131
810	-0.133
810	-0.136
811	-0.138
811	-0.138
812	-0.134
812	-0.13
813	-0.13
813	-0.13
813	-0.13
814	-0.13
814	-0.13
815	-0.127
815	-0.125
816	-0.123
816	-0.124
817	-0.128
817	-0.131
817	-0.132
818	-0.132
818	-0.129
819	-0.124
819	-0.122
820	-0.123
820	-0.125
820	-0.126
821	-0.125
821	-0.123
822	-0.119
822	-0.115
823	-0.111
823	-0.108
823	-0.106
824	-0.102
824	-0.094
825	-0.084
825	-0.073
826	-0.063
826	-0.056
826	-0.048
827	-0.042
827	-0.035
828	-0.029
828	-0.025
829	-0.02
829	-0.016
829	-0.013
830	-0.011
830	-0.009
831	-0.006
831	-0.003
832	-0.001
832	0
832	0.002
833	0.003
833	0.005
834	0.006
834	0.007
835	0.009
835	0.009
835	0.01
836	0.011
836	0.012
837	0.012
837	0.013
838	0.013
838	0.013
839	0.014
839	0.014
839	0.015
840	0.016
840	0.016
841	0.017
841	0.018
842	0.02
842	0.021
842	0.023
843	0.024
843	0.025
844	0.027
844	0.028
845	0.029
845	0.029
845	0.03
846	0.03
846	0.031
847	0.031
847	0.031
848	0.031
848	0.031
848	0.031
849	0.031
849	0.031
850	0.031
850	0.031
851	0.031
851	0.031
851	0.032
852	0.032
852	0.033
853	0.034
853	0.035
854	0.036
854	0.037
854	0.038
855	0.039
855	0.04
856	0.041
856	0.042
857	0.043
857	0.043
857	0.044
858	0.044
858	0.044
859	0.044
859	0.044
860	0.044
860	0.044
860	0.044
861	0.044
861	0.045
862	0.045
862	0.046
863	0.046
863	0.047
863	0.047
864	0.047
864	0.047
865	0.047
865	0.047
866	0.047
866	0.047
866	0.047
867	0.047
867	0.047
868	0.048
868	0.049
869	0.049
869	0.05
869	0.05
870	0.051
870	0.052
871	0.053
871	0.053
872	0.054
872	0.054
872	0.054
873	0.054
873	0.055
874	0.055
874	0.055
875	0.056
875	0.056
875	0.056
876	0.056
876	0.055
877	0.055
877	0.055
878	0.054
878	0.054
878	0.053
879	0.053
879	0.052
880	0.052
880	0.051
881	0.051
881	0.051
881	0.052
882	0.052
882	0.052
883	0.053
883	0.053
884	0.053
884	0.054
884	0.054
885	0.054
885	0.055
886	0.055
886	0.055
887	0.055
887	0.055
887	0.055
888	0.056
888	0.056
889	0.057
889	0.058
890	0.059
890	0.06
890	0.06
891	0.061
891	0.061
892	0.061
892	0.061
893	0.061
893	0.06
893	0.06
894	0.059
894	0.058
895	0.057
895	0.057
895	0.055
896	0.055
896	0.054
897	0.053
897	0.053
898	0.053
898	0.052
898	0.052
899	0.051
899	0.051
900	0.051
900	0.051
901	0.051
901	0.051
901	0.051
902	0.051
902	0.051
903	0.051
903	0.051
904	0.051
904	0.05
904	0.05
905	0.05
905	0.05
906	0.049
906	0.049
907	0.048
907	0.047
907	0.047
908	0.046
908	0.046
909	0.046
909	0.046
910	0.046
910	0.046
910	0.046
911	0.046
911	0.047
912	0.047
912	0.047
913	0.047
913	0.047
913	0.047
914	0.046
914	0.046
915	0.045
915	0.044
916	0.043
916	0.043
916	0.043
917	0.043
917	0.043
918	0.044
918	0.045
918	0.046
919	0.047
919	0.048
920	0.05
920	0.051
921	0.053
921	0.054
921	0.055
922	0.056
922	0.057
923	0.058
923	0.058
924	0.059
924	0.06
924	0.06
925	0.061
925	0.061
926	0.061
926	0.062
927	0.062
927	0.061
927	0.061
928	0.061
928	0.061
929	0.061
929	0.061
930	0.061
930	0.06
930	0.059
931	0.058
931	0.057
932	0.056
932	0.055
933	0.054
933	0.053
933	0.052
934	0.051
934	0.05
935	0.049
935	0.048
935	0.047
936	0.047
936	0.047
937	0.047
937	0.047
938	0.047
938	0.047
938	0.048
939	0.049
939	0.05
940	0.051
940	0.052
941	0.053
941	0.054
941	0.055
942	0.056
942	0.057
943	0.057
943	0.058
944	0.058
944	0.058
944	0.058
945	0.059
945	0.059
946	0.059
946	0.058
946	0.058
947	0.058
947	0.057
948	0.057
948	0.057
949	0.056
949	0.056
949	0.056
950	0.055
950	0.055
951	0.055
951	0.054
952	0.054
952	0.054
952	0.054
953	0.054
953	0.054
954	0.054
954	0.054
955	0.054
955	0.054
955	0.054
956	0.054
956	0.054
957	0.054
957	0.054
957	0.053
958	0.053
958	0.052
959	0.052
959	0.051
960	0.05
960	0.049
960	0.048
961	0.047
961	0.047
962	0.046
962	0.046
963	0.046
963	0.046
963	0.047
964	0.047
964	0.048
965	0.049
965	0.049
966	0.05
966	0.051
966	0.052
967	0.053
967	0.054
968	0.054
968	0.054
968	0.054
969	0.054
969	0.054
970	0.054
970	0.053
971	0.053
971	0.052
971	0.052
972	0.051
972	0.051
973	0.05
973	0.05
974	0.049
974	0.049
974	0.048
975	0.047
975	0.046
976	0.045
976	0.045
976	0.043
977	0.042
977	0.041
978	0.04
978	0.039
979	0.038
979	0.038
979	0.037
980	0.037
980	0.037
981	0.038
981	0.038
982	0.039
982	0.041
982	0.042
983	0.043
983	0.045
984	0.046
984	0.047
984	0.048
985	0.049
985	0.05
986	0.049
986	0.049
987	0.049
987	0.048
987	0.047
988	0.046
988	0.045
989	0.044
989	0.043
990	0.042
990	0.042
990	0.041
991	0.041
991	0.04
992	0.04
992	0.04
992	0.039
993	0.038
993	0.038
994	0.037
994	0.036
995	0.035
995	0.035
995	0.034
996	0.033
996	0.032
997	0.032
997	0.032
997	0.032
998	0.033
998	0.034
999	0.035
999	0.036
1000	0.037
1000	0.038
1000	0.039
1001	0.041
1001	0.042
1002	0.042
1002	0.043
1003	0.044
1003	0.044
1003	0.044
1004	0.044
1004	0.044
1005	0.044
1005	0.044
1005	0.044
1006	0.044
1006	0.045
1007	0.045
1007	0.045
1008	0.045
1008	0.046
1008	0.046
1009	0.046
1009	0.047
1010	0.048
1010	0.049
1010	0.049
1011	0.05
1011	0.05
1012	0.05
1012	0.05
1013	0.05
1013	0.05
1013	0.049
1014	0.048
1014	0.048
1015	0.047
1015	0.046
1016	0.045
1016	0.044
1016	0.044
1017	0.043
1017	0.043
1018	0.043
1018	0.042
1018	0.042
1019	0.042
1019	0.042
1020	0.042
1020	0.042
1021	0.042
1021	0.042
1021	0.042
1022	0.042
1022	0.042
1023	0.042
1023	0.041
1023	0.041
1024	0.04
1024	0.039
1025	0.039
1025	0.038
1026	0.038
1026	0.037
1026	0.037
1027	0.037
1027	0.037
1028	0.037
1028	0.037
1028	0.038
1029	0.038
1029	0.039
1030	0.039
1030	0.04
1031	0.041
1031	0.041
1031	0.042
1032	0.043
1032	0.043
1033	0.043
1033	0.044
1033	0.044
1034	0.043
1034	0.043
1035	0.043
1035	0.043
1036	0.042
1036	0.042
1036	0.042
1037	0.042
1037	0.042
1038	0.041
1038	0.042
1039	0.042
1039	0.042
1039	0.042
1040	0.042
1040	0.042
1041	0.042
1041	0.041
1041	0.041
1042	0.04
1042	0.04
1043	0.039
1043	0.038
1044	0.038
1044	0.037
1044	0.037
1045	0.036
1045	0.036
1046	0.036
1046	0.036
1046	0.036
1047	0.037
1047	0.038
1048	0.039
1048	0.039
1049	0.039
1049	0.039
1049	0.039
1050	0.039
1050	0.039
1051	0.039
1051	0.04
1051	0.041
1052	0.042
1052	0.043
1053	0.044
1053	0.045
1053	0.047
1054	0.048
1054	0.05
1055	0.052
1055	0.054
1056	0.055
1056	0.055
1056	0.056
1057	0.056
1057	0.056
1058	0.057
1058	0.057
1058	0.058
1059	0.058
1059	0.058
1060	0.059
1060	0.059
1061	0.06
1061	0.061
1061	0.062
1062	0.063
1062	0.063
1063	0.064
1063	0.064
1063	0.064
1064	0.065
1064	0.065
1065	0.066
1065	0.066
1066	0.067
1066	0.067
1066	0.068
1067	0.068
1067	0.069
1068	0.07
1068	0.07
1068	0.071
1069	0.071
1069	0.071
1070	0.072
1070	0.073
1071	0.074
1071	0.075
1071	0.076
1072	0.078
1072	0.08
1073	0.082
1073	0.084
1073	0.086
1074	0.088
1074	0.09
1075	0.091
1075	0.092
1076	0.093
1076	0.096
1076	0.097
1077	0.098
1077	0.1
1078	0.102
1078	0.105
1078	0.107
1079	0.109
1079	0.112
1080	0.115
1080	0.117
1080	0.119
1081	0.122
1081	0.125
1082	0.128
1082	0.13
1083	0.132
1083	0.135
1083	0.139
1084	0.142
1084	0.146
1085	0.149
1085	0.152
1085	0.156
1086	0.159
1086	0.161
1087	0.164
1087	0.168
1088	0.171
1088	0.174
1088	0.179
1089	0.183
1089	0.188
1090	0.194
1090	0.2
1090	0.207
1091	0.216
1091	0.227
1092	0.236
1092	0.249
1092	0.26
1093	0.27
1093	0.286
1094	0.299
1094	0.314
1095	0.328
1095	0.347
1095	0.369
1096	0.39
1096	0.413
1097	0.44
1097	0.468
1097	0.505
1098	0.54
1098	0.584
1099	0.639
1099	0.707
1100	0.786
1100	0.887
1100	1.027
1101	1.267
1101	1.859
1102	-0
1102	-0
1102	-0
1103	-0
1103	-0
1104	-0
1104	-0
1104	-0
1105	-0
1105	-0
1106	-0
1106	-0
1107	-0
1107	-0
1107	-0
1108	-0
1108	-0
1109	-0
1109	-0
1109	-0
1110	-0
1110	-0
1111	-0
1111	-0
