Data from 15c-100ul-ns-20ul-nr-full-exp-7ul-bp_Absorbance__70__04408.txt Node

Date: Mon Jan 15 15:15:09 CET 2024
User: Marek
Spectrometer: MAYP115816
Trigger mode: 0
Integration Time (sec): 2.000000E-1
Scans to average: 10
Electric dark correction enabled: true
Nonlinearity correction enabled: true
Boxcar width: 5
XAxis mode: Wavelengths
Number of Pixels in Spectrum: 2068
>>>>>Begin Spectral Data<<<<<
199	-1.845
199	-1.716
200	-1.574
200	-1.465
201	-1.392
201	-1.342
202	-1.273
202	-1.219
203	-1.17
203	-1.132
204	-1.103
204	-1.081
205	-1.06
205	-1.052
205	-1.05
206	-1.048
206	-1.047
207	-1.043
207	-1.04
208	-1.039
208	-1.034
209	-1.033
209	-1.031
210	-1.031
210	-1.029
211	-1.027
211	-1.025
212	-1.022
212	-1.022
213	-1.021
213	-1.02
213	-1.021
214	-1.019
214	-1.021
215	-1.02
215	-1.02
216	-1.02
216	-1.019
217	-1.018
217	-1.018
218	-1.016
218	-1.012
219	-1.011
219	-1.009
220	-1.005
220	-1.001
221	-0.997
221	-0.992
221	-0.987
222	-0.982
222	-0.977
223	-0.969
223	-0.966
224	-0.961
224	-0.953
225	-0.944
225	-0.933
226	-0.924
226	-0.912
227	-0.898
227	-0.881
228	-0.863
228	-0.843
229	-0.819
229	-0.791
229	-0.763
230	-0.731
230	-0.697
231	-0.66
231	-0.621
232	-0.582
232	-0.54
233	-0.496
233	-0.453
234	-0.409
234	-0.366
235	-0.323
235	-0.282
236	-0.242
236	-0.203
236	-0.166
237	-0.131
237	-0.098
238	-0.068
238	-0.04
239	-0.014
239	0.01
240	0.031
240	0.051
241	0.069
241	0.085
242	0.1
242	0.113
243	0.125
243	0.136
243	0.145
244	0.155
244	0.163
245	0.169
245	0.176
246	0.182
246	0.188
247	0.193
247	0.197
248	0.202
248	0.206
249	0.21
249	0.213
250	0.216
250	0.219
250	0.223
251	0.225
251	0.228
252	0.23
252	0.232
253	0.234
253	0.236
254	0.238
254	0.24
255	0.241
255	0.242
256	0.243
256	0.244
257	0.245
257	0.246
258	0.247
258	0.248
258	0.248
259	0.248
259	0.248
260	0.248
260	0.248
261	0.248
261	0.248
262	0.248
262	0.247
263	0.247
263	0.246
264	0.246
264	0.245
265	0.245
265	0.244
265	0.243
266	0.242
266	0.241
267	0.24
267	0.239
268	0.238
268	0.236
269	0.235
269	0.234
270	0.232
270	0.23
271	0.229
271	0.227
272	0.226
272	0.225
272	0.223
273	0.222
273	0.22
274	0.218
274	0.216
275	0.215
275	0.214
276	0.212
276	0.21
277	0.208
277	0.207
278	0.205
278	0.204
278	0.201
279	0.199
279	0.196
280	0.194
280	0.192
281	0.191
281	0.189
282	0.187
282	0.185
283	0.183
283	0.181
284	0.18
284	0.179
285	0.178
285	0.177
285	0.176
286	0.174
286	0.173
287	0.172
287	0.171
288	0.169
288	0.168
289	0.167
289	0.166
290	0.165
290	0.164
291	0.162
291	0.161
292	0.161
292	0.16
292	0.159
293	0.158
293	0.157
294	0.156
294	0.155
295	0.154
295	0.153
296	0.153
296	0.152
297	0.151
297	0.15
298	0.15
298	0.149
298	0.148
299	0.147
299	0.147
300	0.146
300	0.146
301	0.145
301	0.144
302	0.144
302	0.143
303	0.143
303	0.142
304	0.142
304	0.142
305	0.141
305	0.14
305	0.14
306	0.139
306	0.139
307	0.138
307	0.137
308	0.137
308	0.136
309	0.136
309	0.135
310	0.134
310	0.134
311	0.133
311	0.133
311	0.132
312	0.132
312	0.131
313	0.131
313	0.13
314	0.129
314	0.129
315	0.128
315	0.128
316	0.127
316	0.127
317	0.126
317	0.126
318	0.125
318	0.125
318	0.124
319	0.123
319	0.123
320	0.122
320	0.122
321	0.121
321	0.12
322	0.12
322	0.119
323	0.119
323	0.118
324	0.118
324	0.117
324	0.117
325	0.116
325	0.115
326	0.115
326	0.114
327	0.114
327	0.113
328	0.113
328	0.112
329	0.112
329	0.111
330	0.11
330	0.11
330	0.109
331	0.109
331	0.108
332	0.108
332	0.108
333	0.107
333	0.106
334	0.106
334	0.105
335	0.105
335	0.105
336	0.104
336	0.103
336	0.103
337	0.102
337	0.102
338	0.101
338	0.101
339	0.1
339	0.1
340	0.099
340	0.099
341	0.098
341	0.098
342	0.098
342	0.097
342	0.097
343	0.096
343	0.096
344	0.096
344	0.095
345	0.095
345	0.094
346	0.094
346	0.093
347	0.093
347	0.093
348	0.092
348	0.092
348	0.091
349	0.091
349	0.091
350	0.09
350	0.09
351	0.089
351	0.089
352	0.089
352	0.088
353	0.088
353	0.087
354	0.087
354	0.086
354	0.086
355	0.085
355	0.085
356	0.085
356	0.085
357	0.084
357	0.084
358	0.084
358	0.084
359	0.084
359	0.085
360	0.085
360	0.085
360	0.085
361	0.085
361	0.085
362	0.085
362	0.085
363	0.085
363	0.085
364	0.084
364	0.084
365	0.084
365	0.084
366	0.084
366	0.084
366	0.083
367	0.083
367	0.083
368	0.083
368	0.082
369	0.082
369	0.082
370	0.082
370	0.081
371	0.081
371	0.081
372	0.081
372	0.081
372	0.08
373	0.08
373	0.081
374	0.081
374	0.081
375	0.081
375	0.08
376	0.08
376	0.08
377	0.08
377	0.08
378	0.08
378	0.08
378	0.08
379	0.08
379	0.08
380	0.08
380	0.081
381	0.08
381	0.08
382	0.08
382	0.08
383	0.08
383	0.08
383	0.079
384	0.079
384	0.079
385	0.078
385	0.078
386	0.078
386	0.078
387	0.078
387	0.078
388	0.078
388	0.078
389	0.077
389	0.078
389	0.078
390	0.078
390	0.078
391	0.078
391	0.078
392	0.078
392	0.078
393	0.078
393	0.078
394	0.078
394	0.078
394	0.078
395	0.077
395	0.077
396	0.077
396	0.077
397	0.077
397	0.077
398	0.076
398	0.076
399	0.076
399	0.076
400	0.076
400	0.076
400	0.075
401	0.075
401	0.074
402	0.074
402	0.074
403	0.073
403	0.074
404	0.073
404	0.073
405	0.073
405	0.073
405	0.073
406	0.073
406	0.073
407	0.073
407	0.073
408	0.072
408	0.072
409	0.072
409	0.072
410	0.072
410	0.072
411	0.072
411	0.072
411	0.071
412	0.071
412	0.071
413	0.07
413	0.07
414	0.07
414	0.069
415	0.069
415	0.068
416	0.068
416	0.068
416	0.067
417	0.067
417	0.067
418	0.067
418	0.067
419	0.068
419	0.068
420	0.069
420	0.069
421	0.069
421	0.069
421	0.07
422	0.07
422	0.07
423	0.07
423	0.069
424	0.069
424	0.068
425	0.068
425	0.067
426	0.067
426	0.067
427	0.067
427	0.067
427	0.067
428	0.068
428	0.068
429	0.069
429	0.069
430	0.069
430	0.069
431	0.068
431	0.068
432	0.068
432	0.067
432	0.066
433	0.065
433	0.065
434	0.064
434	0.064
435	0.064
435	0.064
436	0.064
436	0.064
437	0.064
437	0.064
437	0.064
438	0.064
438	0.064
439	0.064
439	0.064
440	0.064
440	0.064
441	0.064
441	0.064
442	0.064
442	0.064
442	0.064
443	0.064
443	0.064
444	0.064
444	0.064
445	0.064
445	0.065
446	0.065
446	0.065
447	0.065
447	0.065
447	0.065
448	0.064
448	0.064
449	0.064
449	0.063
450	0.063
450	0.063
451	0.063
451	0.062
452	0.062
452	0.062
452	0.061
453	0.061
453	0.061
454	0.061
454	0.061
455	0.06
455	0.06
456	0.06
456	0.06
457	0.06
457	0.06
458	0.061
458	0.061
458	0.061
459	0.061
459	0.061
460	0.061
460	0.06
461	0.06
461	0.06
462	0.06
462	0.06
463	0.06
463	0.061
463	0.061
464	0.061
464	0.061
465	0.061
465	0.061
466	0.061
466	0.061
467	0.061
467	0.06
467	0.059
468	0.058
468	0.057
469	0.056
469	0.056
470	0.056
470	0.056
471	0.056
471	0.056
472	0.056
472	0.056
472	0.057
473	0.058
473	0.058
474	0.059
474	0.059
475	0.06
475	0.06
476	0.06
476	0.06
477	0.06
477	0.06
477	0.061
478	0.061
478	0.061
479	0.061
479	0.061
480	0.062
480	0.062
481	0.063
481	0.063
482	0.064
482	0.065
482	0.066
483	0.068
483	0.07
484	0.071
484	0.072
485	0.073
485	0.073
486	0.074
486	0.074
487	0.074
487	0.075
487	0.075
488	0.074
488	0.073
489	0.073
489	0.073
490	0.072
490	0.072
491	0.073
491	0.073
492	0.074
492	0.074
492	0.075
493	0.076
493	0.077
494	0.079
494	0.08
495	0.082
495	0.083
496	0.084
496	0.085
496	0.086
497	0.087
497	0.088
498	0.089
498	0.089
499	0.089
499	0.09
500	0.091
500	0.091
501	0.092
501	0.093
501	0.094
502	0.095
502	0.096
503	0.097
503	0.097
504	0.098
504	0.098
505	0.099
505	0.099
506	0.1
506	0.1
506	0.101
507	0.101
507	0.102
508	0.103
508	0.104
509	0.105
509	0.105
510	0.106
510	0.107
511	0.107
511	0.108
511	0.109
512	0.109
512	0.109
513	0.108
513	0.108
514	0.108
514	0.109
515	0.109
515	0.108
515	0.107
516	0.107
516	0.107
517	0.107
517	0.108
518	0.108
518	0.108
519	0.108
519	0.107
520	0.107
520	0.107
520	0.106
521	0.105
521	0.103
522	0.101
522	0.1
523	0.098
523	0.097
524	0.097
524	0.096
524	0.096
525	0.097
525	0.098
526	0.099
526	0.101
527	0.103
527	0.105
528	0.107
528	0.108
529	0.109
529	0.11
529	0.11
530	0.111
530	0.112
531	0.112
531	0.112
532	0.111
532	0.111
533	0.111
533	0.111
533	0.11
534	0.109
534	0.108
535	0.108
535	0.107
536	0.107
536	0.106
537	0.106
537	0.105
538	0.104
538	0.103
538	0.102
539	0.101
539	0.1
540	0.099
540	0.098
541	0.096
541	0.095
542	0.094
542	0.093
542	0.092
543	0.092
543	0.091
544	0.09
544	0.089
545	0.089
545	0.088
546	0.088
546	0.087
547	0.086
547	0.084
547	0.083
548	0.082
548	0.08
549	0.079
549	0.078
550	0.076
550	0.074
551	0.072
551	0.071
551	0.07
552	0.069
552	0.068
553	0.067
553	0.067
554	0.066
554	0.065
555	0.063
555	0.062
556	0.06
556	0.058
556	0.057
557	0.055
557	0.054
558	0.052
558	0.051
559	0.05
559	0.049
560	0.048
560	0.047
560	0.047
561	0.047
561	0.048
562	0.047
562	0.046
563	0.045
563	0.043
564	0.042
564	0.04
564	0.039
565	0.038
565	0.037
566	0.036
566	0.035
567	0.035
567	0.035
568	0.035
568	0.036
568	0.036
569	0.037
569	0.038
570	0.037
570	0.036
571	0.037
571	0.037
572	0.036
572	0.036
573	0.035
573	0.034
573	0.032
574	0.032
574	0.031
575	0.031
575	0.033
576	0.033
576	0.031
577	0.03
577	0.029
577	0.029
578	0.029
578	0.03
579	0.031
579	0.032
580	0.031
580	0.028
581	0.026
581	0.025
581	0.025
582	0.026
582	0.026
583	0.027
583	0.025
584	0.022
584	0.019
585	0.019
585	0.02
585	0.02
586	0.02
586	0.019
587	0.018
587	0.016
588	0.014
588	0.013
589	0.013
589	0.013
590	0.013
590	0.013
590	0.014
591	0.015
591	0.015
592	0.015
592	0.014
593	0.014
593	0.014
594	0.013
594	0.012
594	0.012
595	0.012
595	0.01
596	0.01
596	0.011
597	0.014
597	0.015
598	0.015
598	0.016
598	0.017
599	0.017
599	0.017
600	0.016
600	0.015
601	0.014
601	0.013
602	0.012
602	0.011
602	0.01
603	0.01
603	0.01
604	0.011
604	0.012
605	0.013
605	0.014
606	0.015
606	0.014
606	0.013
607	0.013
607	0.013
608	0.013
608	0.011
609	0.011
609	0.011
610	0.011
610	0.01
610	0.011
611	0.012
611	0.013
612	0.015
612	0.016
613	0.017
613	0.018
614	0.018
614	0.017
614	0.017
615	0.016
615	0.016
616	0.016
616	0.015
617	0.015
617	0.014
618	0.014
618	0.013
618	0.014
619	0.015
619	0.016
620	0.018
620	0.019
621	0.019
621	0.02
622	0.021
622	0.021
622	0.021
623	0.021
623	0.022
624	0.022
624	0.022
625	0.021
625	0.022
626	0.022
626	0.022
626	0.022
627	0.023
627	0.024
628	0.025
628	0.025
629	0.026
629	0.026
630	0.026
630	0.026
630	0.027
631	0.028
631	0.029
632	0.029
632	0.03
633	0.031
633	0.032
634	0.034
634	0.036
634	0.038
635	0.039
635	0.039
636	0.041
636	0.042
637	0.042
637	0.043
638	0.044
638	0.045
638	0.046
639	0.046
639	0.047
640	0.048
640	0.049
641	0.05
641	0.051
642	0.053
642	0.054
642	0.056
643	0.057
643	0.058
644	0.06
644	0.062
645	0.064
645	0.066
646	0.068
646	0.071
646	0.073
647	0.075
647	0.077
648	0.078
648	0.08
649	0.081
649	0.083
650	0.085
650	0.086
650	0.088
651	0.089
651	0.091
652	0.093
652	0.096
653	0.099
653	0.107
653	0.12
654	0.099
654	0.084
655	0.084
655	0.086
656	0.087
656	0.089
657	0.091
657	0.092
657	0.093
658	0.09
658	0.081
659	0.101
659	0.128
660	0.135
660	0.137
661	0.138
661	0.141
661	0.143
662	0.146
662	0.149
663	0.152
663	0.154
664	0.157
664	0.159
665	0.161
665	0.164
665	0.166
666	0.168
666	0.17
667	0.172
667	0.174
668	0.176
668	0.178
669	0.18
669	0.182
669	0.185
670	0.188
670	0.19
671	0.191
671	0.193
672	0.194
672	0.195
672	0.197
673	0.198
673	0.199
674	0.2
674	0.201
675	0.202
675	0.203
676	0.206
676	0.207
676	0.209
677	0.211
677	0.212
678	0.213
678	0.214
679	0.214
679	0.215
680	0.216
680	0.217
680	0.217
681	0.217
681	0.218
682	0.218
682	0.219
683	0.22
683	0.222
684	0.223
684	0.223
684	0.223
685	0.224
685	0.224
686	0.225
686	0.225
687	0.225
687	0.224
687	0.224
688	0.224
688	0.223
689	0.224
689	0.225
690	0.225
690	0.224
691	0.224
691	0.224
691	0.223
692	0.222
692	0.221
693	0.22
693	0.22
694	0.219
694	0.217
695	0.217
695	0.219
695	0.219
696	0.218
696	0.218
697	0.218
697	0.218
698	0.217
698	0.216
698	0.215
699	0.214
699	0.212
700	0.21
700	0.209
701	0.208
701	0.206
702	0.204
702	0.203
702	0.202
703	0.201
703	0.199
704	0.198
704	0.197
705	0.196
705	0.194
705	0.193
706	0.191
706	0.19
707	0.188
707	0.186
708	0.184
708	0.182
709	0.18
709	0.178
709	0.175
710	0.172
710	0.17
711	0.169
711	0.167
712	0.165
712	0.164
713	0.162
713	0.161
713	0.159
714	0.157
714	0.156
715	0.155
715	0.153
716	0.151
716	0.15
716	0.148
717	0.146
717	0.144
718	0.142
718	0.139
719	0.138
719	0.136
720	0.134
720	0.131
720	0.129
721	0.126
721	0.124
722	0.121
722	0.119
723	0.117
723	0.116
723	0.114
724	0.112
724	0.11
725	0.108
725	0.107
726	0.106
726	0.105
727	0.103
727	0.102
727	0.101
728	0.099
728	0.098
729	0.098
729	0.097
730	0.096
730	0.094
730	0.093
731	0.092
731	0.091
732	0.089
732	0.088
733	0.085
733	0.083
734	0.081
734	0.079
734	0.077
735	0.076
735	0.073
736	0.071
736	0.069
737	0.068
737	0.067
737	0.065
738	0.063
738	0.061
739	0.059
739	0.057
740	0.055
740	0.054
741	0.053
741	0.05
741	0.047
742	0.044
742	0.042
743	0.04
743	0.039
744	0.037
744	0.036
744	0.034
745	0.032
745	0.03
746	0.029
746	0.028
747	0.027
747	0.026
748	0.025
748	0.024
748	0.023
749	0.022
749	0.022
750	0.021
750	0.021
751	0.02
751	0.02
751	0.021
752	0.02
752	0.019
753	0.019
753	0.019
754	0.019
754	0.018
754	0.018
755	0.018
755	0.017
756	0.016
756	0.014
757	0.013
757	0.012
758	0.011
758	0.01
758	0.009
759	0.008
759	0.006
760	0.004
760	0.002
761	0.001
761	0
761	-0.001
762	-0.002
762	-0.003
763	-0.004
763	-0.006
764	-0.008
764	-0.011
764	-0.013
765	-0.015
765	-0.017
766	-0.018
766	-0.019
767	-0.02
767	-0.023
768	-0.025
768	-0.027
768	-0.027
769	-0.028
769	-0.028
770	-0.03
770	-0.031
771	-0.033
771	-0.035
771	-0.037
772	-0.039
772	-0.04
773	-0.042
773	-0.044
774	-0.046
774	-0.048
775	-0.05
775	-0.053
775	-0.056
776	-0.058
776	-0.061
777	-0.064
777	-0.066
778	-0.069
778	-0.072
778	-0.074
779	-0.076
779	-0.077
780	-0.08
780	-0.084
781	-0.087
781	-0.091
781	-0.095
782	-0.099
782	-0.104
783	-0.109
783	-0.113
784	-0.116
784	-0.12
784	-0.122
785	-0.125
785	-0.127
786	-0.127
786	-0.125
787	-0.12
787	-0.116
788	-0.115
788	-0.115
788	-0.116
789	-0.117
789	-0.116
790	-0.113
790	-0.111
791	-0.111
791	-0.113
791	-0.115
792	-0.11
792	-0.1
793	-0.095
793	-0.091
794	-0.09
794	-0.092
794	-0.096
795	-0.099
795	-0.099
796	-0.1
796	-0.102
797	-0.11
797	-0.12
797	-0.126
798	-0.131
798	-0.134
799	-0.134
799	-0.134
800	-0.134
800	-0.136
801	-0.139
801	-0.141
801	-0.141
802	-0.143
802	-0.144
803	-0.145
803	-0.145
804	-0.144
804	-0.139
804	-0.133
805	-0.129
805	-0.126
806	-0.124
806	-0.123
807	-0.122
807	-0.121
807	-0.121
808	-0.121
808	-0.122
809	-0.126
809	-0.132
810	-0.135
810	-0.138
810	-0.141
811	-0.143
811	-0.143
812	-0.139
812	-0.135
813	-0.134
813	-0.134
813	-0.135
814	-0.135
814	-0.135
815	-0.132
815	-0.129
816	-0.128
816	-0.128
817	-0.133
817	-0.136
817	-0.137
818	-0.136
818	-0.133
819	-0.129
819	-0.126
820	-0.127
820	-0.127
820	-0.126
821	-0.123
821	-0.119
822	-0.115
822	-0.11
823	-0.105
823	-0.102
823	-0.1
824	-0.097
824	-0.09
825	-0.084
825	-0.078
826	-0.072
826	-0.068
826	-0.064
827	-0.06
827	-0.057
828	-0.054
828	-0.051
829	-0.049
829	-0.046
829	-0.045
830	-0.044
830	-0.043
831	-0.042
831	-0.041
832	-0.04
832	-0.039
832	-0.039
833	-0.038
833	-0.038
834	-0.037
834	-0.037
835	-0.036
835	-0.036
835	-0.036
836	-0.035
836	-0.035
837	-0.035
837	-0.035
838	-0.035
838	-0.035
839	-0.035
839	-0.035
839	-0.035
840	-0.035
840	-0.035
841	-0.034
841	-0.034
842	-0.033
842	-0.032
842	-0.031
843	-0.03
843	-0.029
844	-0.029
844	-0.028
845	-0.028
845	-0.027
845	-0.027
846	-0.027
846	-0.027
847	-0.027
847	-0.027
848	-0.028
848	-0.029
848	-0.029
849	-0.03
849	-0.03
850	-0.031
850	-0.031
851	-0.031
851	-0.031
851	-0.032
852	-0.031
852	-0.031
853	-0.03
853	-0.03
854	-0.029
854	-0.028
854	-0.027
855	-0.026
855	-0.025
856	-0.024
856	-0.023
857	-0.022
857	-0.022
857	-0.022
858	-0.022
858	-0.022
859	-0.022
859	-0.022
860	-0.022
860	-0.022
860	-0.022
861	-0.022
861	-0.022
862	-0.022
862	-0.022
863	-0.021
863	-0.021
863	-0.02
864	-0.02
864	-0.02
865	-0.02
865	-0.02
866	-0.021
866	-0.021
866	-0.021
867	-0.021
867	-0.021
868	-0.02
868	-0.02
869	-0.019
869	-0.019
869	-0.019
870	-0.018
870	-0.017
871	-0.016
871	-0.016
872	-0.016
872	-0.016
872	-0.015
873	-0.015
873	-0.015
874	-0.015
874	-0.014
875	-0.014
875	-0.014
875	-0.014
876	-0.014
876	-0.015
877	-0.015
877	-0.015
878	-0.016
878	-0.016
878	-0.017
879	-0.017
879	-0.018
880	-0.018
880	-0.018
881	-0.018
881	-0.018
881	-0.018
882	-0.017
882	-0.017
883	-0.016
883	-0.016
884	-0.015
884	-0.015
884	-0.015
885	-0.014
885	-0.014
886	-0.013
886	-0.013
887	-0.013
887	-0.013
887	-0.013
888	-0.013
888	-0.013
889	-0.012
889	-0.011
890	-0.01
890	-0.01
890	-0.009
891	-0.009
891	-0.009
892	-0.009
892	-0.009
893	-0.01
893	-0.01
893	-0.011
894	-0.012
894	-0.013
895	-0.013
895	-0.014
895	-0.015
896	-0.016
896	-0.016
897	-0.017
897	-0.017
898	-0.017
898	-0.018
898	-0.018
899	-0.018
899	-0.019
900	-0.019
900	-0.019
901	-0.019
901	-0.019
901	-0.019
902	-0.019
902	-0.019
903	-0.018
903	-0.019
904	-0.019
904	-0.019
904	-0.019
905	-0.019
905	-0.02
906	-0.02
906	-0.021
907	-0.022
907	-0.022
907	-0.023
908	-0.024
908	-0.024
909	-0.025
909	-0.025
910	-0.025
910	-0.024
910	-0.024
911	-0.024
911	-0.024
912	-0.023
912	-0.023
913	-0.023
913	-0.023
913	-0.023
914	-0.024
914	-0.024
915	-0.025
915	-0.025
916	-0.026
916	-0.026
916	-0.026
917	-0.026
917	-0.026
918	-0.025
918	-0.024
918	-0.023
919	-0.022
919	-0.02
920	-0.019
920	-0.017
921	-0.016
921	-0.015
921	-0.014
922	-0.013
922	-0.011
923	-0.01
923	-0.01
924	-0.009
924	-0.008
924	-0.008
925	-0.008
925	-0.007
926	-0.007
926	-0.006
927	-0.006
927	-0.006
927	-0.006
928	-0.006
928	-0.006
929	-0.006
929	-0.006
930	-0.006
930	-0.007
930	-0.007
931	-0.008
931	-0.009
932	-0.01
932	-0.011
933	-0.012
933	-0.013
933	-0.014
934	-0.016
934	-0.017
935	-0.018
935	-0.019
935	-0.02
936	-0.021
936	-0.021
937	-0.021
937	-0.022
938	-0.022
938	-0.022
938	-0.022
939	-0.021
939	-0.021
940	-0.02
940	-0.019
941	-0.019
941	-0.018
941	-0.017
942	-0.016
942	-0.015
943	-0.015
943	-0.014
944	-0.014
944	-0.014
944	-0.014
945	-0.013
945	-0.013
946	-0.013
946	-0.014
946	-0.014
947	-0.014
947	-0.015
948	-0.015
948	-0.015
949	-0.016
949	-0.016
949	-0.016
950	-0.016
950	-0.015
951	-0.015
951	-0.015
952	-0.015
952	-0.015
952	-0.014
953	-0.014
953	-0.014
954	-0.014
954	-0.014
955	-0.014
955	-0.013
955	-0.013
956	-0.012
956	-0.012
957	-0.012
957	-0.012
957	-0.012
958	-0.013
958	-0.013
959	-0.013
959	-0.014
960	-0.015
960	-0.016
960	-0.017
961	-0.018
961	-0.018
962	-0.019
962	-0.019
963	-0.019
963	-0.019
963	-0.019
964	-0.018
964	-0.018
965	-0.017
965	-0.016
966	-0.015
966	-0.014
966	-0.013
967	-0.012
967	-0.011
968	-0.011
968	-0.011
968	-0.01
969	-0.01
969	-0.01
970	-0.01
970	-0.011
971	-0.011
971	-0.011
971	-0.012
972	-0.012
972	-0.013
973	-0.013
973	-0.014
974	-0.015
974	-0.015
974	-0.016
975	-0.017
975	-0.018
976	-0.019
976	-0.02
976	-0.021
977	-0.023
977	-0.024
978	-0.025
978	-0.026
979	-0.027
979	-0.028
979	-0.028
980	-0.028
980	-0.028
981	-0.028
981	-0.027
982	-0.026
982	-0.024
982	-0.023
983	-0.022
983	-0.02
984	-0.019
984	-0.017
984	-0.016
985	-0.015
985	-0.015
986	-0.015
986	-0.015
987	-0.016
987	-0.016
987	-0.017
988	-0.018
988	-0.019
989	-0.02
989	-0.021
990	-0.022
990	-0.023
990	-0.024
991	-0.024
991	-0.024
992	-0.025
992	-0.025
992	-0.026
993	-0.026
993	-0.026
994	-0.027
994	-0.028
995	-0.028
995	-0.029
995	-0.029
996	-0.03
996	-0.031
997	-0.031
997	-0.031
997	-0.031
998	-0.031
998	-0.031
999	-0.03
999	-0.029
1000	-0.028
1000	-0.027
1000	-0.026
1001	-0.025
1001	-0.024
1002	-0.024
1002	-0.023
1003	-0.022
1003	-0.022
1003	-0.022
1004	-0.022
1004	-0.022
1005	-0.022
1005	-0.022
1005	-0.022
1006	-0.022
1006	-0.022
1007	-0.022
1007	-0.022
1008	-0.022
1008	-0.022
1008	-0.021
1009	-0.021
1009	-0.02
1010	-0.019
1010	-0.019
1010	-0.018
1011	-0.018
1011	-0.018
1012	-0.018
1012	-0.018
1013	-0.018
1013	-0.018
1013	-0.019
1014	-0.019
1014	-0.02
1015	-0.021
1015	-0.021
1016	-0.022
1016	-0.023
1016	-0.024
1017	-0.024
1017	-0.025
1018	-0.025
1018	-0.025
1018	-0.025
1019	-0.025
1019	-0.025
1020	-0.026
1020	-0.025
1021	-0.026
1021	-0.026
1021	-0.026
1022	-0.026
1022	-0.026
1023	-0.027
1023	-0.027
1023	-0.028
1024	-0.028
1024	-0.029
1025	-0.03
1025	-0.031
1026	-0.031
1026	-0.032
1026	-0.032
1027	-0.032
1027	-0.032
1028	-0.032
1028	-0.032
1028	-0.031
1029	-0.031
1029	-0.03
1030	-0.03
1030	-0.029
1031	-0.028
1031	-0.028
1031	-0.027
1032	-0.026
1032	-0.026
1033	-0.025
1033	-0.025
1033	-0.025
1034	-0.025
1034	-0.026
1035	-0.026
1035	-0.026
1036	-0.027
1036	-0.027
1036	-0.027
1037	-0.028
1037	-0.028
1038	-0.028
1038	-0.028
1039	-0.028
1039	-0.028
1039	-0.028
1040	-0.028
1040	-0.029
1041	-0.029
1041	-0.03
1041	-0.031
1042	-0.031
1042	-0.032
1043	-0.033
1043	-0.034
1044	-0.035
1044	-0.036
1044	-0.037
1045	-0.037
1045	-0.038
1046	-0.038
1046	-0.038
1046	-0.038
1047	-0.038
1047	-0.037
1048	-0.037
1048	-0.037
1049	-0.037
1049	-0.037
1049	-0.037
1050	-0.038
1050	-0.038
1051	-0.038
1051	-0.038
1051	-0.038
1052	-0.037
1052	-0.037
1053	-0.036
1053	-0.035
1053	-0.034
1054	-0.033
1054	-0.031
1055	-0.029
1055	-0.028
1056	-0.028
1056	-0.028
1056	-0.028
1057	-0.028
1057	-0.028
1058	-0.028
1058	-0.028
1058	-0.028
1059	-0.028
1059	-0.029
1060	-0.029
1060	-0.029
1061	-0.028
1061	-0.028
1061	-0.027
1062	-0.027
1062	-0.027
1063	-0.027
1063	-0.028
1063	-0.028
1064	-0.028
1064	-0.027
1065	-0.027
1065	-0.028
1066	-0.027
1066	-0.027
1066	-0.028
1067	-0.028
1067	-0.027
1068	-0.027
1068	-0.027
1068	-0.027
1069	-0.027
1069	-0.028
1070	-0.028
1070	-0.028
1071	-0.027
1071	-0.027
1071	-0.027
1072	-0.026
1072	-0.026
1073	-0.025
1073	-0.024
1073	-0.024
1074	-0.022
1074	-0.022
1075	-0.021
1075	-0.021
1076	-0.021
1076	-0.02
1076	-0.02
1077	-0.02
1077	-0.019
1078	-0.018
1078	-0.017
1078	-0.016
1079	-0.015
1079	-0.013
1080	-0.012
1080	-0.011
1080	-0.01
1081	-0.008
1081	-0.007
1082	-0.006
1082	-0.005
1083	-0.004
1083	-0.003
1083	-0.002
1084	-0.002
1084	-0
1085	0
1085	0.002
1085	0.003
1086	0.003
1086	0.003
1087	0.004
1087	0.005
1088	0.005
1088	0.006
1088	0.006
1089	0.007
1089	0.008
1090	0.009
1090	0.011
1090	0.012
1091	0.015
1091	0.018
1092	0.02
1092	0.025
1092	0.027
1093	0.03
1093	0.035
1094	0.039
1094	0.043
1095	0.046
1095	0.05
1095	0.055
1096	0.06
1096	0.065
1097	0.071
1097	0.076
1097	0.083
1098	0.089
1098	0.096
1099	0.104
1099	0.113
1100	0.122
1100	0.132
1100	0.142
1101	0.153
1101	0.164
1102	0.178
1102	0.193
1102	0.211
1103	0.228
1103	0.248
1104	0.27
1104	0.294
1104	0.323
1105	0.354
1105	0.386
1106	0.422
1106	0.469
1107	0.521
1107	0.606
1107	0.732
1108	1.878
1108	-0
1109	-0
1109	-0
1109	-0
1110	-0
1110	-0
1111	-0
1111	-0
