Data from 15c-100ul-ns-20ul-nr-full-exp-7ul-bp_Absorbance__405__04743.txt Node

Date: Mon Jan 15 15:26:19 CET 2024
User: Marek
Spectrometer: MAYP115816
Trigger mode: 0
Integration Time (sec): 2.000000E-1
Scans to average: 10
Electric dark correction enabled: true
Nonlinearity correction enabled: true
Boxcar width: 5
XAxis mode: Wavelengths
Number of Pixels in Spectrum: 2068
>>>>>Begin Spectral Data<<<<<
199	-1.949
199	-1.818
200	-1.675
200	-1.565
201	-1.491
201	-1.441
202	-1.37
202	-1.315
203	-1.266
203	-1.226
204	-1.197
204	-1.175
205	-1.153
205	-1.145
205	-1.142
206	-1.141
206	-1.139
207	-1.135
207	-1.131
208	-1.13
208	-1.125
209	-1.124
209	-1.123
210	-1.123
210	-1.121
211	-1.119
211	-1.117
212	-1.114
212	-1.114
213	-1.113
213	-1.112
213	-1.113
214	-1.111
214	-1.112
215	-1.111
215	-1.111
216	-1.11
216	-1.11
217	-1.109
217	-1.108
218	-1.106
218	-1.103
219	-1.101
219	-1.1
220	-1.095
220	-1.091
221	-1.086
221	-1.081
221	-1.076
222	-1.071
222	-1.066
223	-1.058
223	-1.055
224	-1.049
224	-1.041
225	-1.032
225	-1.021
226	-1.011
226	-1
227	-0.985
227	-0.969
228	-0.95
228	-0.93
229	-0.905
229	-0.876
229	-0.847
230	-0.815
230	-0.78
231	-0.741
231	-0.702
232	-0.661
232	-0.617
233	-0.572
233	-0.526
234	-0.48
234	-0.434
235	-0.388
235	-0.343
236	-0.3
236	-0.257
236	-0.216
237	-0.176
237	-0.14
238	-0.105
238	-0.072
239	-0.041
239	-0.013
240	0.013
240	0.036
241	0.058
241	0.078
242	0.096
242	0.113
243	0.128
243	0.142
243	0.154
244	0.166
244	0.176
245	0.186
245	0.195
246	0.203
246	0.21
247	0.217
247	0.223
248	0.229
248	0.235
249	0.24
249	0.244
250	0.248
250	0.253
250	0.257
251	0.26
251	0.263
252	0.267
252	0.27
253	0.272
253	0.274
254	0.277
254	0.279
255	0.281
255	0.283
256	0.284
256	0.286
257	0.287
257	0.288
258	0.289
258	0.29
258	0.291
259	0.292
259	0.292
260	0.293
260	0.293
261	0.293
261	0.293
262	0.293
262	0.293
263	0.292
263	0.292
264	0.292
264	0.291
265	0.291
265	0.29
265	0.29
266	0.289
266	0.288
267	0.287
267	0.286
268	0.285
268	0.284
269	0.283
269	0.281
270	0.28
270	0.278
271	0.277
271	0.275
272	0.274
272	0.273
272	0.271
273	0.27
273	0.268
274	0.267
274	0.266
275	0.264
275	0.263
276	0.261
276	0.259
277	0.258
277	0.256
278	0.254
278	0.253
278	0.25
279	0.248
279	0.245
280	0.244
280	0.242
281	0.24
281	0.238
282	0.237
282	0.235
283	0.234
283	0.232
284	0.231
284	0.23
285	0.229
285	0.228
285	0.227
286	0.225
286	0.224
287	0.223
287	0.222
288	0.22
288	0.219
289	0.218
289	0.217
290	0.215
290	0.214
291	0.213
291	0.212
292	0.211
292	0.21
292	0.209
293	0.207
293	0.206
294	0.205
294	0.205
295	0.204
295	0.203
296	0.202
296	0.201
297	0.201
297	0.2
298	0.199
298	0.198
298	0.198
299	0.197
299	0.196
300	0.196
300	0.195
301	0.194
301	0.193
302	0.193
302	0.192
303	0.191
303	0.191
304	0.19
304	0.189
305	0.189
305	0.188
305	0.187
306	0.187
306	0.186
307	0.185
307	0.184
308	0.184
308	0.183
309	0.182
309	0.181
310	0.181
310	0.18
311	0.18
311	0.179
311	0.178
312	0.178
312	0.177
313	0.176
313	0.176
314	0.175
314	0.174
315	0.173
315	0.172
316	0.172
316	0.171
317	0.171
317	0.17
318	0.169
318	0.168
318	0.168
319	0.167
319	0.166
320	0.165
320	0.165
321	0.164
321	0.163
322	0.162
322	0.162
323	0.161
323	0.16
324	0.16
324	0.159
324	0.158
325	0.158
325	0.157
326	0.156
326	0.156
327	0.155
327	0.155
328	0.154
328	0.153
329	0.153
329	0.152
330	0.151
330	0.151
330	0.15
331	0.149
331	0.149
332	0.148
332	0.147
333	0.147
333	0.146
334	0.145
334	0.145
335	0.144
335	0.144
336	0.143
336	0.142
336	0.141
337	0.141
337	0.14
338	0.14
338	0.139
339	0.139
339	0.138
340	0.137
340	0.137
341	0.136
341	0.136
342	0.135
342	0.135
342	0.134
343	0.134
343	0.134
344	0.133
344	0.132
345	0.132
345	0.131
346	0.131
346	0.13
347	0.13
347	0.129
348	0.129
348	0.128
348	0.128
349	0.127
349	0.127
350	0.126
350	0.125
351	0.125
351	0.124
352	0.123
352	0.123
353	0.122
353	0.122
354	0.121
354	0.12
354	0.12
355	0.119
355	0.119
356	0.118
356	0.118
357	0.118
357	0.118
358	0.118
358	0.118
359	0.118
359	0.119
360	0.119
360	0.119
360	0.119
361	0.119
361	0.119
362	0.119
362	0.119
363	0.119
363	0.119
364	0.118
364	0.118
365	0.118
365	0.117
366	0.117
366	0.117
366	0.117
367	0.117
367	0.117
368	0.116
368	0.116
369	0.115
369	0.115
370	0.115
370	0.114
371	0.114
371	0.114
372	0.113
372	0.113
372	0.113
373	0.113
373	0.113
374	0.113
374	0.113
375	0.113
375	0.113
376	0.112
376	0.113
377	0.113
377	0.113
378	0.113
378	0.113
378	0.113
379	0.113
379	0.113
380	0.113
380	0.113
381	0.113
381	0.113
382	0.112
382	0.112
383	0.112
383	0.112
383	0.111
384	0.111
384	0.11
385	0.11
385	0.11
386	0.11
386	0.11
387	0.11
387	0.109
388	0.109
388	0.109
389	0.109
389	0.109
389	0.109
390	0.109
390	0.109
391	0.109
391	0.109
392	0.109
392	0.109
393	0.109
393	0.109
394	0.109
394	0.109
394	0.108
395	0.108
395	0.108
396	0.107
396	0.107
397	0.107
397	0.108
398	0.107
398	0.107
399	0.107
399	0.107
400	0.107
400	0.106
400	0.106
401	0.106
401	0.105
402	0.104
402	0.104
403	0.104
403	0.103
404	0.103
404	0.103
405	0.103
405	0.103
405	0.102
406	0.102
406	0.103
407	0.103
407	0.102
408	0.102
408	0.102
409	0.101
409	0.101
410	0.101
410	0.101
411	0.101
411	0.101
411	0.1
412	0.1
412	0.1
413	0.099
413	0.099
414	0.098
414	0.098
415	0.098
415	0.097
416	0.097
416	0.096
416	0.096
417	0.096
417	0.095
418	0.096
418	0.096
419	0.096
419	0.097
420	0.097
420	0.098
421	0.098
421	0.098
421	0.099
422	0.099
422	0.099
423	0.099
423	0.098
424	0.097
424	0.096
425	0.096
425	0.095
426	0.095
426	0.095
427	0.095
427	0.095
427	0.095
428	0.096
428	0.096
429	0.097
429	0.097
430	0.097
430	0.097
431	0.097
431	0.096
432	0.096
432	0.095
432	0.094
433	0.093
433	0.092
434	0.092
434	0.092
435	0.092
435	0.092
436	0.092
436	0.092
437	0.092
437	0.092
437	0.092
438	0.092
438	0.092
439	0.091
439	0.091
440	0.091
440	0.091
441	0.091
441	0.091
442	0.091
442	0.091
442	0.091
443	0.092
443	0.092
444	0.092
444	0.092
445	0.092
445	0.092
446	0.092
446	0.092
447	0.092
447	0.092
447	0.092
448	0.091
448	0.091
449	0.091
449	0.09
450	0.09
450	0.09
451	0.089
451	0.089
452	0.089
452	0.088
452	0.088
453	0.087
453	0.087
454	0.086
454	0.086
455	0.086
455	0.086
456	0.086
456	0.086
457	0.086
457	0.086
458	0.086
458	0.087
458	0.087
459	0.087
459	0.087
460	0.087
460	0.086
461	0.086
461	0.085
462	0.085
462	0.085
463	0.086
463	0.086
463	0.087
464	0.087
464	0.087
465	0.087
465	0.087
466	0.087
466	0.087
467	0.087
467	0.086
467	0.085
468	0.084
468	0.083
469	0.082
469	0.081
470	0.081
470	0.081
471	0.081
471	0.081
472	0.081
472	0.081
472	0.082
473	0.083
473	0.084
474	0.084
474	0.085
475	0.086
475	0.086
476	0.086
476	0.086
477	0.086
477	0.086
477	0.086
478	0.086
478	0.086
479	0.087
479	0.087
480	0.088
480	0.089
481	0.09
481	0.09
482	0.091
482	0.093
482	0.094
483	0.096
483	0.098
484	0.1
484	0.101
485	0.102
485	0.103
486	0.104
486	0.104
487	0.105
487	0.105
487	0.105
488	0.104
488	0.103
489	0.102
489	0.102
490	0.101
490	0.101
491	0.101
491	0.102
492	0.102
492	0.103
492	0.104
493	0.104
493	0.106
494	0.108
494	0.11
495	0.112
495	0.113
496	0.114
496	0.115
496	0.117
497	0.118
497	0.119
498	0.12
498	0.12
499	0.121
499	0.121
500	0.121
500	0.122
501	0.124
501	0.125
501	0.126
502	0.127
502	0.128
503	0.129
503	0.13
504	0.131
504	0.132
505	0.132
505	0.133
506	0.134
506	0.134
506	0.135
507	0.135
507	0.136
508	0.137
508	0.137
509	0.138
509	0.139
510	0.14
510	0.141
511	0.141
511	0.141
511	0.142
512	0.142
512	0.143
513	0.143
513	0.142
514	0.142
514	0.142
515	0.141
515	0.141
515	0.14
516	0.14
516	0.14
517	0.141
517	0.141
518	0.141
518	0.141
519	0.141
519	0.14
520	0.139
520	0.138
520	0.136
521	0.134
521	0.133
522	0.13
522	0.128
523	0.127
523	0.126
524	0.126
524	0.127
524	0.128
525	0.13
525	0.132
526	0.134
526	0.136
527	0.139
527	0.141
528	0.143
528	0.144
529	0.145
529	0.146
529	0.146
530	0.147
530	0.147
531	0.147
531	0.147
532	0.146
532	0.146
533	0.146
533	0.145
533	0.144
534	0.144
534	0.143
535	0.142
535	0.141
536	0.141
536	0.14
537	0.139
537	0.139
538	0.138
538	0.136
538	0.135
539	0.134
539	0.133
540	0.132
540	0.131
541	0.129
541	0.128
542	0.127
542	0.125
542	0.124
543	0.123
543	0.122
544	0.121
544	0.12
545	0.119
545	0.119
546	0.118
546	0.117
547	0.116
547	0.113
547	0.112
548	0.11
548	0.108
549	0.107
549	0.105
550	0.103
550	0.101
551	0.098
551	0.097
551	0.095
552	0.094
552	0.093
553	0.092
553	0.092
554	0.091
554	0.09
555	0.088
555	0.086
556	0.084
556	0.082
556	0.08
557	0.078
557	0.076
558	0.074
558	0.072
559	0.071
559	0.069
560	0.068
560	0.067
560	0.067
561	0.067
561	0.067
562	0.067
562	0.066
563	0.064
563	0.062
564	0.06
564	0.058
564	0.057
565	0.055
565	0.054
566	0.053
566	0.052
567	0.051
567	0.051
568	0.052
568	0.052
568	0.053
569	0.054
569	0.055
570	0.055
570	0.054
571	0.054
571	0.054
572	0.054
572	0.054
573	0.053
573	0.052
573	0.051
574	0.05
574	0.05
575	0.05
575	0.051
576	0.051
576	0.05
577	0.048
577	0.047
577	0.047
578	0.046
578	0.047
579	0.048
579	0.049
580	0.047
580	0.045
581	0.042
581	0.041
581	0.04
582	0.041
582	0.041
583	0.041
583	0.04
584	0.037
584	0.033
585	0.033
585	0.033
585	0.033
586	0.033
586	0.033
587	0.031
587	0.028
588	0.026
588	0.025
589	0.024
589	0.024
590	0.024
590	0.023
590	0.025
591	0.026
591	0.025
592	0.025
592	0.024
593	0.024
593	0.024
594	0.023
594	0.022
594	0.022
595	0.021
595	0.02
596	0.019
596	0.02
597	0.023
597	0.024
598	0.025
598	0.026
598	0.026
599	0.026
599	0.026
600	0.024
600	0.023
601	0.023
601	0.021
602	0.019
602	0.018
602	0.017
603	0.016
603	0.017
604	0.017
604	0.018
605	0.02
605	0.021
606	0.022
606	0.021
606	0.021
607	0.02
607	0.02
608	0.02
608	0.019
609	0.018
609	0.018
610	0.018
610	0.016
610	0.017
611	0.018
611	0.019
612	0.02
612	0.022
613	0.023
613	0.024
614	0.024
614	0.023
614	0.023
615	0.022
615	0.022
616	0.022
616	0.021
617	0.02
617	0.019
618	0.019
618	0.018
618	0.018
619	0.019
619	0.02
620	0.022
620	0.023
621	0.024
621	0.024
622	0.025
622	0.025
622	0.025
623	0.025
623	0.026
624	0.027
624	0.026
625	0.026
625	0.026
626	0.026
626	0.026
626	0.027
627	0.028
627	0.028
628	0.029
628	0.03
629	0.03
629	0.031
630	0.03
630	0.03
630	0.031
631	0.032
631	0.032
632	0.032
632	0.033
633	0.033
633	0.034
634	0.036
634	0.038
634	0.04
635	0.041
635	0.042
636	0.044
636	0.045
637	0.046
637	0.047
638	0.048
638	0.049
638	0.05
639	0.05
639	0.051
640	0.051
640	0.052
641	0.053
641	0.054
642	0.055
642	0.057
642	0.058
643	0.06
643	0.061
644	0.063
644	0.064
645	0.066
645	0.068
646	0.071
646	0.073
646	0.076
647	0.078
647	0.081
648	0.083
648	0.085
649	0.087
649	0.089
650	0.091
650	0.094
650	0.096
651	0.097
651	0.099
652	0.101
652	0.103
653	0.107
653	0.115
653	0.13
654	0.108
654	0.091
655	0.092
655	0.094
656	0.096
656	0.098
657	0.099
657	0.101
657	0.102
658	0.099
658	0.089
659	0.111
659	0.139
660	0.146
660	0.148
661	0.15
661	0.152
661	0.154
662	0.157
662	0.161
663	0.164
663	0.166
664	0.169
664	0.172
665	0.174
665	0.177
665	0.18
666	0.182
666	0.184
667	0.186
667	0.189
668	0.191
668	0.193
669	0.196
669	0.199
669	0.203
670	0.206
670	0.208
671	0.21
671	0.212
672	0.214
672	0.215
672	0.216
673	0.218
673	0.219
674	0.22
674	0.22
675	0.221
675	0.223
676	0.225
676	0.227
676	0.229
677	0.231
677	0.232
678	0.234
678	0.234
679	0.235
679	0.236
680	0.237
680	0.238
680	0.238
681	0.238
681	0.239
682	0.239
682	0.241
683	0.242
683	0.244
684	0.246
684	0.247
684	0.247
685	0.248
685	0.249
686	0.25
686	0.251
687	0.251
687	0.251
687	0.25
688	0.249
688	0.249
689	0.25
689	0.251
690	0.251
690	0.25
691	0.25
691	0.249
691	0.249
692	0.248
692	0.248
693	0.247
693	0.247
694	0.246
694	0.244
695	0.245
695	0.247
695	0.247
696	0.246
696	0.246
697	0.246
697	0.245
698	0.244
698	0.243
698	0.241
699	0.241
699	0.238
700	0.235
700	0.234
701	0.232
701	0.23
702	0.229
702	0.228
702	0.226
703	0.225
703	0.223
704	0.222
704	0.221
705	0.22
705	0.219
705	0.217
706	0.216
706	0.215
707	0.213
707	0.211
708	0.208
708	0.207
709	0.205
709	0.202
709	0.199
710	0.196
710	0.194
711	0.192
711	0.19
712	0.188
712	0.186
713	0.185
713	0.184
713	0.182
714	0.18
714	0.178
715	0.176
715	0.175
716	0.172
716	0.171
716	0.169
717	0.167
717	0.165
718	0.162
718	0.159
719	0.157
719	0.155
720	0.153
720	0.15
720	0.147
721	0.143
721	0.14
722	0.138
722	0.135
723	0.133
723	0.131
723	0.128
724	0.126
724	0.124
725	0.123
725	0.121
726	0.12
726	0.119
727	0.117
727	0.116
727	0.115
728	0.113
728	0.112
729	0.112
729	0.11
730	0.109
730	0.107
730	0.106
731	0.104
731	0.103
732	0.101
732	0.099
733	0.097
733	0.095
734	0.093
734	0.09
734	0.088
735	0.087
735	0.084
736	0.082
736	0.08
737	0.078
737	0.077
737	0.075
738	0.072
738	0.069
739	0.067
739	0.065
740	0.063
740	0.061
741	0.06
741	0.057
741	0.054
742	0.05
742	0.048
743	0.046
743	0.043
744	0.041
744	0.04
744	0.037
745	0.035
745	0.033
746	0.032
746	0.031
747	0.03
747	0.029
748	0.028
748	0.027
748	0.026
749	0.025
749	0.025
750	0.025
750	0.024
751	0.024
751	0.024
751	0.024
752	0.023
752	0.022
753	0.021
753	0.021
754	0.02
754	0.02
754	0.019
755	0.019
755	0.019
756	0.018
756	0.016
757	0.015
757	0.014
758	0.013
758	0.012
758	0.011
759	0.01
759	0.008
760	0.006
760	0.004
761	0.003
761	0.002
761	0.001
762	-0
762	-0.001
763	-0.002
763	-0.004
764	-0.007
764	-0.009
764	-0.012
765	-0.014
765	-0.017
766	-0.018
766	-0.019
767	-0.021
767	-0.024
768	-0.027
768	-0.029
768	-0.03
769	-0.03
769	-0.031
770	-0.032
770	-0.033
771	-0.035
771	-0.038
771	-0.04
772	-0.041
772	-0.043
773	-0.044
773	-0.047
774	-0.049
774	-0.051
775	-0.054
775	-0.056
775	-0.059
776	-0.062
776	-0.064
777	-0.067
777	-0.07
778	-0.074
778	-0.077
778	-0.08
779	-0.082
779	-0.083
780	-0.085
780	-0.089
781	-0.092
781	-0.096
781	-0.099
782	-0.102
782	-0.106
783	-0.11
783	-0.113
784	-0.116
784	-0.119
784	-0.121
785	-0.123
785	-0.125
786	-0.125
786	-0.123
787	-0.119
787	-0.115
788	-0.113
788	-0.114
788	-0.114
789	-0.116
789	-0.115
790	-0.111
790	-0.11
791	-0.11
791	-0.111
791	-0.113
792	-0.108
792	-0.099
793	-0.093
793	-0.09
794	-0.089
794	-0.091
794	-0.095
795	-0.097
795	-0.098
796	-0.098
796	-0.101
797	-0.109
797	-0.119
797	-0.125
798	-0.13
798	-0.132
799	-0.133
799	-0.133
800	-0.133
800	-0.135
801	-0.138
801	-0.139
801	-0.14
802	-0.142
802	-0.143
803	-0.144
803	-0.144
804	-0.143
804	-0.138
804	-0.131
805	-0.127
805	-0.125
806	-0.123
806	-0.121
807	-0.12
807	-0.119
807	-0.119
808	-0.119
808	-0.12
809	-0.125
809	-0.13
810	-0.134
810	-0.136
810	-0.139
811	-0.142
811	-0.141
812	-0.137
812	-0.134
813	-0.133
813	-0.133
813	-0.133
814	-0.134
814	-0.133
815	-0.131
815	-0.128
816	-0.126
816	-0.127
817	-0.131
817	-0.135
817	-0.135
818	-0.135
818	-0.132
819	-0.127
819	-0.125
820	-0.126
820	-0.128
820	-0.129
821	-0.129
821	-0.127
822	-0.124
822	-0.121
823	-0.117
823	-0.116
823	-0.116
824	-0.114
824	-0.109
825	-0.102
825	-0.094
826	-0.087
826	-0.082
826	-0.077
827	-0.072
827	-0.068
828	-0.064
828	-0.06
829	-0.057
829	-0.054
829	-0.052
830	-0.051
830	-0.049
831	-0.047
831	-0.046
832	-0.044
832	-0.043
832	-0.042
833	-0.041
833	-0.04
834	-0.039
834	-0.038
835	-0.038
835	-0.037
835	-0.037
836	-0.036
836	-0.036
837	-0.036
837	-0.036
838	-0.036
838	-0.036
839	-0.036
839	-0.037
839	-0.037
840	-0.037
840	-0.037
841	-0.036
841	-0.036
842	-0.035
842	-0.035
842	-0.034
843	-0.033
843	-0.033
844	-0.032
844	-0.031
845	-0.03
845	-0.029
845	-0.029
846	-0.028
846	-0.028
847	-0.028
847	-0.027
848	-0.027
848	-0.028
848	-0.027
849	-0.028
849	-0.028
850	-0.028
850	-0.029
851	-0.029
851	-0.029
851	-0.029
852	-0.029
852	-0.029
853	-0.029
853	-0.029
854	-0.028
854	-0.027
854	-0.027
855	-0.026
855	-0.026
856	-0.025
856	-0.024
857	-0.023
857	-0.023
857	-0.022
858	-0.021
858	-0.021
859	-0.021
859	-0.02
860	-0.02
860	-0.019
860	-0.019
861	-0.019
861	-0.018
862	-0.019
862	-0.018
863	-0.018
863	-0.018
863	-0.018
864	-0.019
864	-0.019
865	-0.019
865	-0.019
866	-0.02
866	-0.02
866	-0.02
867	-0.02
867	-0.019
868	-0.019
868	-0.018
869	-0.017
869	-0.016
869	-0.016
870	-0.015
870	-0.014
871	-0.013
871	-0.012
872	-0.012
872	-0.012
872	-0.011
873	-0.011
873	-0.011
874	-0.011
874	-0.01
875	-0.01
875	-0.01
875	-0.011
876	-0.011
876	-0.011
877	-0.011
877	-0.012
878	-0.013
878	-0.013
878	-0.014
879	-0.015
879	-0.015
880	-0.016
880	-0.017
881	-0.017
881	-0.017
881	-0.016
882	-0.016
882	-0.015
883	-0.015
883	-0.014
884	-0.013
884	-0.012
884	-0.012
885	-0.011
885	-0.01
886	-0.01
886	-0.01
887	-0.009
887	-0.009
887	-0.009
888	-0.009
888	-0.008
889	-0.008
889	-0.007
890	-0.006
890	-0.005
890	-0.005
891	-0.005
891	-0.004
892	-0.004
892	-0.004
893	-0.005
893	-0.005
893	-0.005
894	-0.006
894	-0.007
895	-0.008
895	-0.009
895	-0.01
896	-0.01
896	-0.011
897	-0.011
897	-0.011
898	-0.012
898	-0.012
898	-0.011
899	-0.011
899	-0.011
900	-0.011
900	-0.011
901	-0.011
901	-0.011
901	-0.011
902	-0.011
902	-0.011
903	-0.012
903	-0.012
904	-0.012
904	-0.013
904	-0.014
905	-0.014
905	-0.015
906	-0.016
906	-0.016
907	-0.017
907	-0.018
907	-0.018
908	-0.019
908	-0.019
909	-0.02
909	-0.019
910	-0.019
910	-0.019
910	-0.019
911	-0.018
911	-0.018
912	-0.018
912	-0.017
913	-0.017
913	-0.017
913	-0.018
914	-0.018
914	-0.019
915	-0.019
915	-0.02
916	-0.02
916	-0.02
916	-0.02
917	-0.02
917	-0.019
918	-0.019
918	-0.018
918	-0.016
919	-0.015
919	-0.013
920	-0.011
920	-0.01
921	-0.008
921	-0.007
921	-0.006
922	-0.005
922	-0.004
923	-0.003
923	-0.002
924	-0.001
924	-0.001
924	-0
925	-0
925	0
926	0
926	0
927	0
927	-0
927	-0
928	-0
928	-0
929	-0
929	-0
930	-0.001
930	-0.001
930	-0.002
931	-0.003
931	-0.004
932	-0.005
932	-0.006
933	-0.007
933	-0.009
933	-0.01
934	-0.011
934	-0.012
935	-0.013
935	-0.014
935	-0.015
936	-0.015
936	-0.016
937	-0.016
937	-0.016
938	-0.016
938	-0.016
938	-0.016
939	-0.015
939	-0.014
940	-0.014
940	-0.013
941	-0.012
941	-0.012
941	-0.011
942	-0.01
942	-0.009
943	-0.009
943	-0.008
944	-0.008
944	-0.008
944	-0.008
945	-0.007
945	-0.007
946	-0.006
946	-0.007
946	-0.006
947	-0.006
947	-0.007
948	-0.007
948	-0.007
949	-0.007
949	-0.007
949	-0.007
950	-0.007
950	-0.007
951	-0.007
951	-0.007
952	-0.007
952	-0.007
952	-0.006
953	-0.006
953	-0.005
954	-0.005
954	-0.005
955	-0.005
955	-0.005
955	-0.005
956	-0.004
956	-0.004
957	-0.004
957	-0.005
957	-0.005
958	-0.006
958	-0.006
959	-0.007
959	-0.007
960	-0.008
960	-0.009
960	-0.01
961	-0.011
961	-0.011
962	-0.012
962	-0.012
963	-0.012
963	-0.011
963	-0.011
964	-0.011
964	-0.01
965	-0.009
965	-0.008
966	-0.007
966	-0.006
966	-0.005
967	-0.004
967	-0.003
968	-0.003
968	-0.003
968	-0.002
969	-0.002
969	-0.002
970	-0.002
970	-0.003
971	-0.003
971	-0.004
971	-0.004
972	-0.005
972	-0.005
973	-0.005
973	-0.006
974	-0.007
974	-0.008
974	-0.008
975	-0.009
975	-0.01
976	-0.011
976	-0.012
976	-0.014
977	-0.015
977	-0.017
978	-0.018
978	-0.019
979	-0.02
979	-0.021
979	-0.021
980	-0.021
980	-0.021
981	-0.021
981	-0.02
982	-0.019
982	-0.018
982	-0.017
983	-0.015
983	-0.014
984	-0.012
984	-0.011
984	-0.01
985	-0.009
985	-0.008
986	-0.009
986	-0.009
987	-0.009
987	-0.01
987	-0.01
988	-0.011
988	-0.012
989	-0.013
989	-0.014
990	-0.016
990	-0.017
990	-0.017
991	-0.017
991	-0.018
992	-0.018
992	-0.018
992	-0.019
993	-0.019
993	-0.02
994	-0.02
994	-0.021
995	-0.021
995	-0.022
995	-0.023
996	-0.024
996	-0.025
997	-0.025
997	-0.025
997	-0.025
998	-0.025
998	-0.025
999	-0.024
999	-0.024
1000	-0.023
1000	-0.022
1000	-0.021
1001	-0.021
1001	-0.02
1002	-0.02
1002	-0.019
1003	-0.019
1003	-0.019
1003	-0.018
1004	-0.018
1004	-0.018
1005	-0.018
1005	-0.017
1005	-0.017
1006	-0.017
1006	-0.016
1007	-0.016
1007	-0.015
1008	-0.015
1008	-0.014
1008	-0.014
1009	-0.013
1009	-0.013
1010	-0.012
1010	-0.012
1010	-0.011
1011	-0.011
1011	-0.011
1012	-0.011
1012	-0.011
1013	-0.011
1013	-0.011
1013	-0.012
1014	-0.013
1014	-0.013
1015	-0.014
1015	-0.014
1016	-0.015
1016	-0.016
1016	-0.017
1017	-0.018
1017	-0.018
1018	-0.018
1018	-0.018
1018	-0.018
1019	-0.018
1019	-0.019
1020	-0.019
1020	-0.019
1021	-0.019
1021	-0.019
1021	-0.02
1022	-0.02
1022	-0.02
1023	-0.021
1023	-0.021
1023	-0.022
1024	-0.023
1024	-0.024
1025	-0.024
1025	-0.025
1026	-0.025
1026	-0.026
1026	-0.026
1027	-0.026
1027	-0.026
1028	-0.025
1028	-0.025
1028	-0.024
1029	-0.023
1029	-0.023
1030	-0.022
1030	-0.021
1031	-0.021
1031	-0.02
1031	-0.02
1032	-0.019
1032	-0.019
1033	-0.018
1033	-0.018
1033	-0.019
1034	-0.019
1034	-0.02
1035	-0.02
1035	-0.021
1036	-0.022
1036	-0.022
1036	-0.023
1037	-0.023
1037	-0.024
1038	-0.024
1038	-0.025
1039	-0.024
1039	-0.024
1039	-0.024
1040	-0.024
1040	-0.024
1041	-0.024
1041	-0.024
1041	-0.025
1042	-0.025
1042	-0.026
1043	-0.026
1043	-0.027
1044	-0.027
1044	-0.028
1044	-0.028
1045	-0.029
1045	-0.03
1046	-0.03
1046	-0.03
1046	-0.03
1047	-0.029
1047	-0.029
1048	-0.028
1048	-0.028
1049	-0.028
1049	-0.028
1049	-0.028
1050	-0.028
1050	-0.028
1051	-0.028
1051	-0.028
1051	-0.028
1052	-0.027
1052	-0.027
1053	-0.026
1053	-0.025
1053	-0.024
1054	-0.022
1054	-0.021
1055	-0.019
1055	-0.018
1056	-0.018
1056	-0.018
1056	-0.018
1057	-0.018
1057	-0.018
1058	-0.018
1058	-0.018
1058	-0.017
1059	-0.017
1059	-0.018
1060	-0.018
1060	-0.017
1061	-0.017
1061	-0.016
1061	-0.016
1062	-0.015
1062	-0.015
1063	-0.015
1063	-0.015
1063	-0.015
1064	-0.014
1064	-0.014
1065	-0.013
1065	-0.014
1066	-0.013
1066	-0.013
1066	-0.013
1067	-0.013
1067	-0.013
1068	-0.013
1068	-0.012
1068	-0.013
1069	-0.013
1069	-0.013
1070	-0.012
1070	-0.012
1071	-0.011
1071	-0.01
1071	-0.01
1072	-0.009
1072	-0.008
1073	-0.007
1073	-0.005
1073	-0.004
1074	-0.003
1074	-0.002
1075	-0.001
1075	-0.001
1076	-0
1076	0.001
1076	0.001
1077	0.001
1077	0.002
1078	0.002
1078	0.004
1078	0.004
1079	0.005
1079	0.007
1080	0.008
1080	0.009
1080	0.01
1081	0.012
1081	0.014
1082	0.016
1082	0.016
1083	0.018
1083	0.019
1083	0.021
1084	0.022
1084	0.024
1085	0.026
1085	0.027
1085	0.03
1086	0.031
1086	0.032
1087	0.034
1087	0.036
1088	0.037
1088	0.039
1088	0.041
1089	0.042
1089	0.044
1090	0.046
1090	0.048
1090	0.051
1091	0.054
1091	0.058
1092	0.062
1092	0.067
1092	0.071
1093	0.075
1093	0.081
1094	0.086
1094	0.092
1095	0.098
1095	0.105
1095	0.113
1096	0.12
1096	0.129
1097	0.138
1097	0.146
1097	0.158
1098	0.168
1098	0.18
1099	0.193
1099	0.208
1100	0.223
1100	0.24
1100	0.257
1101	0.275
1101	0.297
1102	0.324
1102	0.351
1102	0.384
1103	0.42
1103	0.463
1104	0.513
1104	0.573
1104	0.654
1105	0.749
1105	0.878
1106	1.057
1106	1.449
1107	-0
1107	-0
1107	-0
1108	-0
1108	-0
1109	-0
1109	-0
1109	-0
1110	-0
1110	-0
1111	-0
1111	-0
