Data from 15c-100ul-ns-20ul-nr-full-exp-7ul-bp_Absorbance__754__05092.txt Node

Date: Mon Jan 15 15:37:57 CET 2024
User: Marek
Spectrometer: MAYP115816
Trigger mode: 0
Integration Time (sec): 2.000000E-1
Scans to average: 10
Electric dark correction enabled: true
Nonlinearity correction enabled: true
Boxcar width: 5
XAxis mode: Wavelengths
Number of Pixels in Spectrum: 2068
>>>>>Begin Spectral Data<<<<<
199	-1.664
199	-1.539
200	-1.4
200	-1.293
201	-1.222
201	-1.174
202	-1.107
202	-1.056
203	-1.01
203	-0.975
204	-0.948
204	-0.926
205	-0.906
205	-0.898
205	-0.895
206	-0.894
206	-0.893
207	-0.889
207	-0.886
208	-0.886
208	-0.881
209	-0.879
209	-0.878
210	-0.878
210	-0.876
211	-0.874
211	-0.873
212	-0.871
212	-0.871
213	-0.871
213	-0.869
213	-0.87
214	-0.868
214	-0.869
215	-0.868
215	-0.869
216	-0.869
216	-0.869
217	-0.868
217	-0.867
218	-0.866
218	-0.862
219	-0.86
219	-0.859
220	-0.855
220	-0.852
221	-0.848
221	-0.843
221	-0.838
222	-0.833
222	-0.828
223	-0.82
223	-0.818
224	-0.812
224	-0.804
225	-0.794
225	-0.784
226	-0.774
226	-0.763
227	-0.748
227	-0.733
228	-0.714
228	-0.695
229	-0.67
229	-0.642
229	-0.614
230	-0.583
230	-0.549
231	-0.511
231	-0.472
232	-0.434
232	-0.391
233	-0.347
233	-0.303
234	-0.26
234	-0.218
235	-0.175
235	-0.135
236	-0.095
236	-0.057
236	-0.02
237	0.014
237	0.045
238	0.075
238	0.102
239	0.128
239	0.151
240	0.172
240	0.191
241	0.208
241	0.223
242	0.237
242	0.249
243	0.262
243	0.272
243	0.281
244	0.29
244	0.297
245	0.304
245	0.31
246	0.316
246	0.322
247	0.327
247	0.331
248	0.336
248	0.339
249	0.343
249	0.346
250	0.349
250	0.352
250	0.355
251	0.357
251	0.359
252	0.362
252	0.363
253	0.365
253	0.367
254	0.369
254	0.371
255	0.372
255	0.373
256	0.374
256	0.375
257	0.376
257	0.376
258	0.377
258	0.377
258	0.378
259	0.378
259	0.378
260	0.378
260	0.378
261	0.378
261	0.378
262	0.377
262	0.377
263	0.376
263	0.376
264	0.375
264	0.374
265	0.373
265	0.372
265	0.371
266	0.37
266	0.369
267	0.367
267	0.366
268	0.364
268	0.363
269	0.361
269	0.359
270	0.357
270	0.356
271	0.353
271	0.351
272	0.35
272	0.348
272	0.346
273	0.344
273	0.342
274	0.34
274	0.339
275	0.336
275	0.334
276	0.333
276	0.331
277	0.329
277	0.327
278	0.324
278	0.322
278	0.32
279	0.317
279	0.314
280	0.312
280	0.309
281	0.307
281	0.304
282	0.302
282	0.299
283	0.297
283	0.295
284	0.293
284	0.292
285	0.291
285	0.289
285	0.287
286	0.285
286	0.284
287	0.282
287	0.281
288	0.279
288	0.277
289	0.276
289	0.274
290	0.272
290	0.271
291	0.269
291	0.268
292	0.267
292	0.265
292	0.264
293	0.262
293	0.261
294	0.26
294	0.259
295	0.258
295	0.256
296	0.255
296	0.254
297	0.253
297	0.252
298	0.251
298	0.25
298	0.249
299	0.248
299	0.248
300	0.247
300	0.246
301	0.245
301	0.244
302	0.243
302	0.242
303	0.241
303	0.241
304	0.24
304	0.239
305	0.238
305	0.238
305	0.237
306	0.236
306	0.235
307	0.234
307	0.233
308	0.232
308	0.232
309	0.231
309	0.23
310	0.229
310	0.228
311	0.227
311	0.227
311	0.226
312	0.225
312	0.224
313	0.224
313	0.223
314	0.222
314	0.221
315	0.22
315	0.22
316	0.219
316	0.218
317	0.218
317	0.217
318	0.216
318	0.215
318	0.214
319	0.214
319	0.213
320	0.212
320	0.211
321	0.211
321	0.21
322	0.209
322	0.208
323	0.208
323	0.207
324	0.206
324	0.205
324	0.205
325	0.204
325	0.203
326	0.202
326	0.202
327	0.201
327	0.2
328	0.2
328	0.199
329	0.198
329	0.198
330	0.197
330	0.196
330	0.195
331	0.195
331	0.194
332	0.193
332	0.193
333	0.192
333	0.191
334	0.191
334	0.19
335	0.189
335	0.189
336	0.188
336	0.187
336	0.187
337	0.186
337	0.185
338	0.185
338	0.184
339	0.184
339	0.183
340	0.183
340	0.182
341	0.182
341	0.181
342	0.181
342	0.18
342	0.18
343	0.179
343	0.179
344	0.178
344	0.178
345	0.178
345	0.177
346	0.176
346	0.176
347	0.176
347	0.175
348	0.175
348	0.174
348	0.174
349	0.173
349	0.173
350	0.173
350	0.172
351	0.172
351	0.172
352	0.171
352	0.171
353	0.17
353	0.17
354	0.169
354	0.169
354	0.168
355	0.168
355	0.167
356	0.167
356	0.167
357	0.167
357	0.167
358	0.167
358	0.167
359	0.167
359	0.167
360	0.167
360	0.167
360	0.167
361	0.167
361	0.167
362	0.166
362	0.166
363	0.166
363	0.166
364	0.166
364	0.165
365	0.165
365	0.165
366	0.165
366	0.165
366	0.165
367	0.164
367	0.164
368	0.164
368	0.163
369	0.163
369	0.163
370	0.162
370	0.162
371	0.162
371	0.162
372	0.161
372	0.161
372	0.161
373	0.161
373	0.161
374	0.161
374	0.161
375	0.16
375	0.16
376	0.16
376	0.16
377	0.16
377	0.16
378	0.16
378	0.16
378	0.16
379	0.16
379	0.16
380	0.16
380	0.16
381	0.16
381	0.159
382	0.159
382	0.159
383	0.158
383	0.158
383	0.158
384	0.157
384	0.157
385	0.156
385	0.156
386	0.156
386	0.156
387	0.156
387	0.156
388	0.156
388	0.156
389	0.155
389	0.155
389	0.155
390	0.155
390	0.155
391	0.155
391	0.155
392	0.155
392	0.155
393	0.155
393	0.154
394	0.154
394	0.154
394	0.154
395	0.153
395	0.153
396	0.153
396	0.153
397	0.153
397	0.152
398	0.152
398	0.152
399	0.152
399	0.152
400	0.152
400	0.152
400	0.151
401	0.151
401	0.15
402	0.149
402	0.149
403	0.149
403	0.149
404	0.149
404	0.148
405	0.148
405	0.148
405	0.148
406	0.148
406	0.148
407	0.148
407	0.147
408	0.147
408	0.147
409	0.147
409	0.147
410	0.147
410	0.147
411	0.146
411	0.146
411	0.146
412	0.145
412	0.145
413	0.145
413	0.144
414	0.144
414	0.143
415	0.143
415	0.142
416	0.142
416	0.142
416	0.141
417	0.141
417	0.141
418	0.141
418	0.141
419	0.142
419	0.142
420	0.142
420	0.143
421	0.143
421	0.143
421	0.143
422	0.143
422	0.143
423	0.143
423	0.142
424	0.142
424	0.141
425	0.141
425	0.14
426	0.14
426	0.14
427	0.14
427	0.14
427	0.141
428	0.141
428	0.141
429	0.142
429	0.142
430	0.142
430	0.141
431	0.141
431	0.141
432	0.14
432	0.14
432	0.139
433	0.138
433	0.138
434	0.137
434	0.137
435	0.137
435	0.137
436	0.137
436	0.137
437	0.137
437	0.137
437	0.137
438	0.137
438	0.137
439	0.137
439	0.137
440	0.137
440	0.137
441	0.137
441	0.137
442	0.137
442	0.137
442	0.137
443	0.137
443	0.137
444	0.137
444	0.137
445	0.137
445	0.137
446	0.137
446	0.137
447	0.137
447	0.137
447	0.137
448	0.137
448	0.137
449	0.136
449	0.136
450	0.136
450	0.135
451	0.135
451	0.135
452	0.135
452	0.134
452	0.134
453	0.134
453	0.133
454	0.133
454	0.133
455	0.134
455	0.134
456	0.134
456	0.134
457	0.134
457	0.134
458	0.134
458	0.134
458	0.135
459	0.135
459	0.135
460	0.134
460	0.134
461	0.134
461	0.134
462	0.134
462	0.134
463	0.135
463	0.135
463	0.136
464	0.136
464	0.136
465	0.136
465	0.137
466	0.137
466	0.137
467	0.137
467	0.136
467	0.136
468	0.135
468	0.134
469	0.134
469	0.133
470	0.133
470	0.133
471	0.134
471	0.134
472	0.134
472	0.134
472	0.135
473	0.136
473	0.137
474	0.138
474	0.138
475	0.139
475	0.139
476	0.14
476	0.14
477	0.14
477	0.141
477	0.141
478	0.141
478	0.142
479	0.142
479	0.143
480	0.144
480	0.144
481	0.145
481	0.146
482	0.147
482	0.148
482	0.149
483	0.15
483	0.153
484	0.154
484	0.155
485	0.156
485	0.156
486	0.157
486	0.158
487	0.158
487	0.159
487	0.159
488	0.159
488	0.159
489	0.159
489	0.16
490	0.16
490	0.161
491	0.161
491	0.162
492	0.163
492	0.164
492	0.165
493	0.167
493	0.168
494	0.17
494	0.173
495	0.175
495	0.176
496	0.178
496	0.179
496	0.181
497	0.182
497	0.184
498	0.185
498	0.186
499	0.186
499	0.187
500	0.189
500	0.19
501	0.192
501	0.193
501	0.194
502	0.195
502	0.197
503	0.199
503	0.2
504	0.201
504	0.203
505	0.204
505	0.205
506	0.206
506	0.207
506	0.209
507	0.21
507	0.211
508	0.212
508	0.213
509	0.215
509	0.216
510	0.217
510	0.218
511	0.219
511	0.22
511	0.221
512	0.222
512	0.223
513	0.223
513	0.223
514	0.224
514	0.224
515	0.225
515	0.225
515	0.225
516	0.225
516	0.226
517	0.227
517	0.227
518	0.227
518	0.227
519	0.227
519	0.227
520	0.226
520	0.226
520	0.225
521	0.224
521	0.223
522	0.221
522	0.221
523	0.221
523	0.221
524	0.222
524	0.222
524	0.223
525	0.224
525	0.226
526	0.227
526	0.228
527	0.229
527	0.231
528	0.231
528	0.232
529	0.232
529	0.232
529	0.232
530	0.232
530	0.232
531	0.231
531	0.231
532	0.23
532	0.229
533	0.228
533	0.227
533	0.226
534	0.224
534	0.223
535	0.221
535	0.221
536	0.22
536	0.219
537	0.218
537	0.217
538	0.215
538	0.214
538	0.212
539	0.211
539	0.21
540	0.208
540	0.206
541	0.204
541	0.202
542	0.201
542	0.199
542	0.197
543	0.195
543	0.194
544	0.192
544	0.191
545	0.19
545	0.189
546	0.187
546	0.186
547	0.183
547	0.181
547	0.179
548	0.177
548	0.175
549	0.173
549	0.171
550	0.168
550	0.166
551	0.163
551	0.161
551	0.159
552	0.157
552	0.155
553	0.154
553	0.153
554	0.151
554	0.149
555	0.147
555	0.144
556	0.142
556	0.14
556	0.137
557	0.135
557	0.133
558	0.131
558	0.129
559	0.126
559	0.125
560	0.123
560	0.121
560	0.12
561	0.119
561	0.118
562	0.117
562	0.115
563	0.113
563	0.111
564	0.109
564	0.107
564	0.105
565	0.104
565	0.102
566	0.1
566	0.098
567	0.097
567	0.096
568	0.096
568	0.095
568	0.095
569	0.095
569	0.094
570	0.093
570	0.091
571	0.09
571	0.09
572	0.088
572	0.087
573	0.086
573	0.084
573	0.082
574	0.081
574	0.08
575	0.08
575	0.08
576	0.08
576	0.078
577	0.076
577	0.075
577	0.074
578	0.074
578	0.074
579	0.075
579	0.076
580	0.073
580	0.07
581	0.067
581	0.066
581	0.066
582	0.067
582	0.067
583	0.067
583	0.065
584	0.061
584	0.057
585	0.057
585	0.058
585	0.058
586	0.057
586	0.057
587	0.055
587	0.052
588	0.05
588	0.05
589	0.05
589	0.05
590	0.05
590	0.049
590	0.05
591	0.051
591	0.05
592	0.05
592	0.048
593	0.048
593	0.048
594	0.047
594	0.046
594	0.045
595	0.045
595	0.043
596	0.042
596	0.044
597	0.046
597	0.047
598	0.047
598	0.047
598	0.048
599	0.047
599	0.047
600	0.045
600	0.044
601	0.044
601	0.043
602	0.041
602	0.04
602	0.039
603	0.038
603	0.039
604	0.04
604	0.04
605	0.042
605	0.043
606	0.043
606	0.042
606	0.041
607	0.041
607	0.041
608	0.041
608	0.039
609	0.039
609	0.04
610	0.039
610	0.038
610	0.039
611	0.04
611	0.042
612	0.043
612	0.045
613	0.046
613	0.047
614	0.046
614	0.045
614	0.045
615	0.045
615	0.044
616	0.045
616	0.044
617	0.044
617	0.043
618	0.042
618	0.042
618	0.042
619	0.043
619	0.045
620	0.047
620	0.048
621	0.048
621	0.049
622	0.05
622	0.05
622	0.05
623	0.05
623	0.052
624	0.052
624	0.051
625	0.051
625	0.052
626	0.052
626	0.052
626	0.053
627	0.054
627	0.055
628	0.056
628	0.057
629	0.058
629	0.058
630	0.058
630	0.058
630	0.06
631	0.061
631	0.061
632	0.062
632	0.062
633	0.064
633	0.065
634	0.067
634	0.068
634	0.07
635	0.072
635	0.073
636	0.074
636	0.075
637	0.076
637	0.077
638	0.078
638	0.079
638	0.08
639	0.081
639	0.082
640	0.083
640	0.084
641	0.085
641	0.086
642	0.088
642	0.089
642	0.091
643	0.092
643	0.094
644	0.095
644	0.097
645	0.099
645	0.102
646	0.105
646	0.107
646	0.11
647	0.113
647	0.115
648	0.117
648	0.119
649	0.121
649	0.124
650	0.126
650	0.128
650	0.13
651	0.132
651	0.134
652	0.137
652	0.139
653	0.143
653	0.152
653	0.164
654	0.133
654	0.11
655	0.111
655	0.113
656	0.115
656	0.117
657	0.119
657	0.121
657	0.122
658	0.12
658	0.111
659	0.139
659	0.179
660	0.187
660	0.19
661	0.192
661	0.195
661	0.198
662	0.201
662	0.204
663	0.208
663	0.21
664	0.213
664	0.216
665	0.219
665	0.222
665	0.224
666	0.227
666	0.23
667	0.232
667	0.235
668	0.238
668	0.241
669	0.243
669	0.246
669	0.25
670	0.253
670	0.256
671	0.258
671	0.26
672	0.262
672	0.264
672	0.265
673	0.267
673	0.269
674	0.271
674	0.272
675	0.273
675	0.276
676	0.278
676	0.28
676	0.282
677	0.284
677	0.285
678	0.286
678	0.287
679	0.287
679	0.288
680	0.289
680	0.29
680	0.29
681	0.29
681	0.291
682	0.292
682	0.293
683	0.295
683	0.297
684	0.299
684	0.299
684	0.3
685	0.301
685	0.301
686	0.302
686	0.302
687	0.303
687	0.302
687	0.302
688	0.301
688	0.301
689	0.302
689	0.303
690	0.302
690	0.301
691	0.301
691	0.3
691	0.3
692	0.299
692	0.298
693	0.297
693	0.297
694	0.296
694	0.294
695	0.295
695	0.296
695	0.295
696	0.295
696	0.294
697	0.294
697	0.293
698	0.292
698	0.29
698	0.289
699	0.288
699	0.285
700	0.283
700	0.281
701	0.28
701	0.278
702	0.276
702	0.274
702	0.272
703	0.27
703	0.269
704	0.267
704	0.266
705	0.264
705	0.262
705	0.26
706	0.258
706	0.256
707	0.254
707	0.251
708	0.249
708	0.247
709	0.244
709	0.241
709	0.238
710	0.235
710	0.233
711	0.231
711	0.229
712	0.227
712	0.225
713	0.223
713	0.221
713	0.219
714	0.217
714	0.215
715	0.214
715	0.212
716	0.209
716	0.208
716	0.205
717	0.203
717	0.2
718	0.197
718	0.195
719	0.192
719	0.19
720	0.187
720	0.184
720	0.181
721	0.177
721	0.174
722	0.171
722	0.168
723	0.166
723	0.164
723	0.161
724	0.159
724	0.157
725	0.155
725	0.154
726	0.152
726	0.151
727	0.149
727	0.148
727	0.147
728	0.145
728	0.143
729	0.142
729	0.141
730	0.139
730	0.137
730	0.136
731	0.134
731	0.133
732	0.131
732	0.129
733	0.126
733	0.124
734	0.122
734	0.119
734	0.117
735	0.115
735	0.113
736	0.11
736	0.108
737	0.107
737	0.105
737	0.103
738	0.1
738	0.098
739	0.096
739	0.094
740	0.092
740	0.091
741	0.089
741	0.087
741	0.084
742	0.081
742	0.079
743	0.077
743	0.075
744	0.074
744	0.072
744	0.07
745	0.067
745	0.065
746	0.063
746	0.062
747	0.06
747	0.059
748	0.058
748	0.057
748	0.055
749	0.054
749	0.054
750	0.053
750	0.052
751	0.052
751	0.051
751	0.051
752	0.05
752	0.049
753	0.048
753	0.047
754	0.047
754	0.045
754	0.045
755	0.044
755	0.044
756	0.042
756	0.04
757	0.039
757	0.038
758	0.037
758	0.036
758	0.035
759	0.034
759	0.032
760	0.03
760	0.028
761	0.028
761	0.027
761	0.027
762	0.025
762	0.024
763	0.023
763	0.02
764	0.018
764	0.016
764	0.013
765	0.011
765	0.009
766	0.007
766	0.006
767	0.004
767	0.001
768	-0.002
768	-0.003
768	-0.004
769	-0.004
769	-0.005
770	-0.006
770	-0.008
771	-0.009
771	-0.012
771	-0.014
772	-0.015
772	-0.016
773	-0.017
773	-0.019
774	-0.021
774	-0.023
775	-0.025
775	-0.027
775	-0.029
776	-0.032
776	-0.034
777	-0.036
777	-0.038
778	-0.041
778	-0.044
778	-0.046
779	-0.047
779	-0.049
780	-0.051
780	-0.053
781	-0.056
781	-0.06
781	-0.064
782	-0.069
782	-0.074
783	-0.08
783	-0.085
784	-0.092
784	-0.098
784	-0.103
785	-0.11
785	-0.115
786	-0.119
786	-0.119
787	-0.117
787	-0.115
788	-0.116
788	-0.117
788	-0.118
789	-0.119
789	-0.118
790	-0.115
790	-0.113
791	-0.113
791	-0.115
791	-0.117
792	-0.112
792	-0.102
793	-0.097
793	-0.093
794	-0.092
794	-0.094
794	-0.098
795	-0.101
795	-0.101
796	-0.101
796	-0.104
797	-0.112
797	-0.122
797	-0.128
798	-0.133
798	-0.136
799	-0.136
799	-0.136
800	-0.136
800	-0.138
801	-0.141
801	-0.143
801	-0.143
802	-0.145
802	-0.146
803	-0.147
803	-0.147
804	-0.146
804	-0.141
804	-0.135
805	-0.131
805	-0.128
806	-0.126
806	-0.125
807	-0.123
807	-0.123
807	-0.123
808	-0.123
808	-0.124
809	-0.128
809	-0.134
810	-0.137
810	-0.14
810	-0.143
811	-0.145
811	-0.145
812	-0.141
812	-0.137
813	-0.136
813	-0.136
813	-0.137
814	-0.137
814	-0.136
815	-0.134
815	-0.131
816	-0.13
816	-0.13
817	-0.135
817	-0.138
817	-0.138
818	-0.136
818	-0.133
819	-0.128
819	-0.125
820	-0.123
820	-0.121
820	-0.117
821	-0.112
821	-0.106
822	-0.1
822	-0.094
823	-0.088
823	-0.084
823	-0.081
824	-0.077
824	-0.072
825	-0.067
825	-0.062
826	-0.057
826	-0.054
826	-0.051
827	-0.048
827	-0.045
828	-0.043
828	-0.04
829	-0.038
829	-0.036
829	-0.035
830	-0.034
830	-0.033
831	-0.031
831	-0.03
832	-0.03
832	-0.029
832	-0.028
833	-0.028
833	-0.027
834	-0.027
834	-0.027
835	-0.027
835	-0.027
835	-0.027
836	-0.027
836	-0.027
837	-0.027
837	-0.026
838	-0.027
838	-0.027
839	-0.027
839	-0.027
839	-0.028
840	-0.028
840	-0.028
841	-0.027
841	-0.027
842	-0.026
842	-0.026
842	-0.026
843	-0.025
843	-0.024
844	-0.023
844	-0.023
845	-0.022
845	-0.022
845	-0.021
846	-0.021
846	-0.021
847	-0.021
847	-0.021
848	-0.022
848	-0.022
848	-0.023
849	-0.023
849	-0.024
850	-0.024
850	-0.026
851	-0.026
851	-0.026
851	-0.027
852	-0.027
852	-0.026
853	-0.026
853	-0.026
854	-0.025
854	-0.024
854	-0.024
855	-0.023
855	-0.022
856	-0.022
856	-0.021
857	-0.02
857	-0.019
857	-0.019
858	-0.018
858	-0.018
859	-0.019
859	-0.019
860	-0.019
860	-0.018
860	-0.018
861	-0.018
861	-0.018
862	-0.019
862	-0.019
863	-0.019
863	-0.019
863	-0.019
864	-0.02
864	-0.02
865	-0.02
865	-0.02
866	-0.021
866	-0.021
866	-0.02
867	-0.02
867	-0.02
868	-0.019
868	-0.018
869	-0.017
869	-0.017
869	-0.016
870	-0.015
870	-0.014
871	-0.014
871	-0.013
872	-0.013
872	-0.013
872	-0.012
873	-0.012
873	-0.012
874	-0.012
874	-0.012
875	-0.012
875	-0.012
875	-0.013
876	-0.013
876	-0.013
877	-0.014
877	-0.014
878	-0.015
878	-0.015
878	-0.016
879	-0.016
879	-0.017
880	-0.017
880	-0.018
881	-0.018
881	-0.018
881	-0.017
882	-0.017
882	-0.016
883	-0.016
883	-0.015
884	-0.015
884	-0.014
884	-0.014
885	-0.013
885	-0.013
886	-0.013
886	-0.013
887	-0.013
887	-0.013
887	-0.013
888	-0.013
888	-0.013
889	-0.012
889	-0.011
890	-0.01
890	-0.01
890	-0.009
891	-0.009
891	-0.009
892	-0.009
892	-0.009
893	-0.009
893	-0.01
893	-0.01
894	-0.011
894	-0.013
895	-0.014
895	-0.015
895	-0.016
896	-0.017
896	-0.017
897	-0.018
897	-0.018
898	-0.018
898	-0.018
898	-0.018
899	-0.018
899	-0.018
900	-0.018
900	-0.018
901	-0.018
901	-0.017
901	-0.017
902	-0.017
902	-0.017
903	-0.017
903	-0.017
904	-0.017
904	-0.018
904	-0.018
905	-0.018
905	-0.019
906	-0.019
906	-0.02
907	-0.02
907	-0.021
907	-0.021
908	-0.022
908	-0.022
909	-0.022
909	-0.022
910	-0.022
910	-0.022
910	-0.022
911	-0.022
911	-0.022
912	-0.021
912	-0.021
913	-0.022
913	-0.022
913	-0.022
914	-0.023
914	-0.023
915	-0.024
915	-0.025
916	-0.025
916	-0.025
916	-0.025
917	-0.025
917	-0.024
918	-0.023
918	-0.022
918	-0.021
919	-0.02
919	-0.018
920	-0.017
920	-0.015
921	-0.014
921	-0.013
921	-0.012
922	-0.011
922	-0.01
923	-0.009
923	-0.008
924	-0.008
924	-0.007
924	-0.007
925	-0.007
925	-0.006
926	-0.006
926	-0.006
927	-0.006
927	-0.006
927	-0.006
928	-0.006
928	-0.006
929	-0.005
929	-0.005
930	-0.006
930	-0.006
930	-0.007
931	-0.008
931	-0.01
932	-0.011
932	-0.012
933	-0.014
933	-0.015
933	-0.017
934	-0.018
934	-0.02
935	-0.021
935	-0.022
935	-0.022
936	-0.023
936	-0.023
937	-0.023
937	-0.023
938	-0.024
938	-0.024
938	-0.023
939	-0.023
939	-0.022
940	-0.021
940	-0.021
941	-0.02
941	-0.02
941	-0.019
942	-0.018
942	-0.018
943	-0.017
943	-0.017
944	-0.017
944	-0.017
944	-0.017
945	-0.017
945	-0.017
946	-0.016
946	-0.017
946	-0.017
947	-0.017
947	-0.017
948	-0.017
948	-0.017
949	-0.017
949	-0.017
949	-0.016
950	-0.016
950	-0.016
951	-0.016
951	-0.016
952	-0.016
952	-0.015
952	-0.015
953	-0.014
953	-0.014
954	-0.014
954	-0.014
955	-0.014
955	-0.013
955	-0.013
956	-0.013
956	-0.012
957	-0.012
957	-0.013
957	-0.013
958	-0.013
958	-0.014
959	-0.014
959	-0.014
960	-0.015
960	-0.016
960	-0.017
961	-0.018
961	-0.019
962	-0.019
962	-0.019
963	-0.019
963	-0.019
963	-0.018
964	-0.018
964	-0.017
965	-0.016
965	-0.015
966	-0.014
966	-0.013
966	-0.012
967	-0.011
967	-0.011
968	-0.011
968	-0.011
968	-0.011
969	-0.011
969	-0.011
970	-0.011
970	-0.012
971	-0.012
971	-0.013
971	-0.013
972	-0.013
972	-0.014
973	-0.014
973	-0.015
974	-0.015
974	-0.016
974	-0.016
975	-0.017
975	-0.018
976	-0.019
976	-0.02
976	-0.021
977	-0.023
977	-0.024
978	-0.025
978	-0.027
979	-0.028
979	-0.028
979	-0.028
980	-0.029
980	-0.029
981	-0.029
981	-0.028
982	-0.027
982	-0.026
982	-0.024
983	-0.023
983	-0.022
984	-0.02
984	-0.019
984	-0.018
985	-0.017
985	-0.016
986	-0.016
986	-0.017
987	-0.017
987	-0.017
987	-0.018
988	-0.019
988	-0.02
989	-0.021
989	-0.022
990	-0.023
990	-0.024
990	-0.025
991	-0.025
991	-0.026
992	-0.026
992	-0.027
992	-0.027
993	-0.028
993	-0.028
994	-0.029
994	-0.03
995	-0.031
995	-0.031
995	-0.032
996	-0.033
996	-0.034
997	-0.034
997	-0.035
997	-0.035
998	-0.034
998	-0.034
999	-0.033
999	-0.033
1000	-0.032
1000	-0.031
1000	-0.03
1001	-0.03
1001	-0.029
1002	-0.028
1002	-0.028
1003	-0.027
1003	-0.027
1003	-0.027
1004	-0.027
1004	-0.027
1005	-0.027
1005	-0.027
1005	-0.026
1006	-0.026
1006	-0.025
1007	-0.025
1007	-0.025
1008	-0.024
1008	-0.024
1008	-0.023
1009	-0.023
1009	-0.022
1010	-0.022
1010	-0.021
1010	-0.021
1011	-0.021
1011	-0.021
1012	-0.021
1012	-0.021
1013	-0.02
1013	-0.021
1013	-0.022
1014	-0.022
1014	-0.023
1015	-0.024
1015	-0.025
1016	-0.026
1016	-0.026
1016	-0.027
1017	-0.028
1017	-0.029
1018	-0.029
1018	-0.029
1018	-0.029
1019	-0.029
1019	-0.029
1020	-0.029
1020	-0.029
1021	-0.03
1021	-0.03
1021	-0.03
1022	-0.03
1022	-0.031
1023	-0.031
1023	-0.032
1023	-0.032
1024	-0.033
1024	-0.034
1025	-0.034
1025	-0.035
1026	-0.035
1026	-0.036
1026	-0.036
1027	-0.036
1027	-0.036
1028	-0.036
1028	-0.035
1028	-0.035
1029	-0.034
1029	-0.034
1030	-0.034
1030	-0.034
1031	-0.033
1031	-0.033
1031	-0.032
1032	-0.032
1032	-0.032
1033	-0.032
1033	-0.032
1033	-0.033
1034	-0.033
1034	-0.034
1035	-0.035
1035	-0.036
1036	-0.036
1036	-0.037
1036	-0.038
1037	-0.038
1037	-0.039
1038	-0.04
1038	-0.04
1039	-0.04
1039	-0.04
1039	-0.039
1040	-0.04
1040	-0.039
1041	-0.04
1041	-0.04
1041	-0.04
1042	-0.041
1042	-0.041
1043	-0.042
1043	-0.043
1044	-0.044
1044	-0.044
1044	-0.045
1045	-0.046
1045	-0.047
1046	-0.048
1046	-0.048
1046	-0.048
1047	-0.048
1047	-0.048
1048	-0.048
1048	-0.048
1049	-0.048
1049	-0.048
1049	-0.048
1050	-0.048
1050	-0.049
1051	-0.049
1051	-0.049
1051	-0.049
1052	-0.048
1052	-0.048
1053	-0.047
1053	-0.046
1053	-0.045
1054	-0.044
1054	-0.042
1055	-0.04
1055	-0.039
1056	-0.039
1056	-0.039
1056	-0.039
1057	-0.039
1057	-0.039
1058	-0.039
1058	-0.04
1058	-0.04
1059	-0.04
1059	-0.04
1060	-0.041
1060	-0.04
1061	-0.04
1061	-0.039
1061	-0.039
1062	-0.039
1062	-0.039
1063	-0.039
1063	-0.04
1063	-0.04
1064	-0.04
1064	-0.04
1065	-0.04
1065	-0.041
1066	-0.041
1066	-0.042
1066	-0.042
1067	-0.042
1067	-0.042
1068	-0.043
1068	-0.043
1068	-0.044
1069	-0.044
1069	-0.045
1070	-0.045
1070	-0.045
1071	-0.045
1071	-0.045
1071	-0.045
1072	-0.045
1072	-0.045
1073	-0.045
1073	-0.044
1073	-0.044
1074	-0.043
1074	-0.043
1075	-0.043
1075	-0.043
1076	-0.043
1076	-0.043
1076	-0.043
1077	-0.043
1077	-0.043
1078	-0.043
1078	-0.043
1078	-0.043
1079	-0.042
1079	-0.042
1080	-0.041
1080	-0.04
1080	-0.04
1081	-0.039
1081	-0.037
1082	-0.037
1082	-0.036
1083	-0.036
1083	-0.036
1083	-0.034
1084	-0.034
1084	-0.034
1085	-0.033
1085	-0.033
1085	-0.032
1086	-0.032
1086	-0.033
1087	-0.032
1087	-0.031
1088	-0.031
1088	-0.032
1088	-0.031
1089	-0.031
1089	-0.031
1090	-0.031
1090	-0.031
1090	-0.031
1091	-0.03
1091	-0.028
1092	-0.028
1092	-0.026
1092	-0.025
1093	-0.024
1093	-0.021
1094	-0.019
1094	-0.017
1095	-0.016
1095	-0.014
1095	-0.011
1096	-0.009
1096	-0.007
1097	-0.003
1097	-0.002
1097	0.002
1098	0.004
1098	0.007
1099	0.011
1099	0.015
1100	0.018
1100	0.022
1100	0.025
1101	0.029
1101	0.033
1102	0.04
1102	0.044
1102	0.051
1103	0.057
1103	0.064
1104	0.072
1104	0.081
1104	0.092
1105	0.103
1105	0.111
1106	0.12
1106	0.132
1107	0.144
1107	0.162
1107	0.185
1108	0.264
1108	0.383
1109	0.603
1109	1.44
1109	-0
1110	-0
1110	-0
1111	-0
1111	-0
