Data from 15c-100ul-ns-20ul-nr-full-exp-7ul-bp_Absorbance__782__05120.txt Node

Date: Mon Jan 15 15:38:53 CET 2024
User: Marek
Spectrometer: MAYP115816
Trigger mode: 0
Integration Time (sec): 2.000000E-1
Scans to average: 10
Electric dark correction enabled: true
Nonlinearity correction enabled: true
Boxcar width: 5
XAxis mode: Wavelengths
Number of Pixels in Spectrum: 2068
>>>>>Begin Spectral Data<<<<<
199	-1.951
199	-1.821
200	-1.678
200	-1.567
201	-1.494
201	-1.443
202	-1.372
202	-1.317
203	-1.267
203	-1.228
204	-1.199
204	-1.176
205	-1.155
205	-1.146
205	-1.143
206	-1.142
206	-1.14
207	-1.136
207	-1.132
208	-1.131
208	-1.125
209	-1.124
209	-1.122
210	-1.121
210	-1.12
211	-1.118
211	-1.116
212	-1.113
212	-1.113
213	-1.112
213	-1.111
213	-1.111
214	-1.11
214	-1.111
215	-1.11
215	-1.111
216	-1.11
216	-1.109
217	-1.108
217	-1.107
218	-1.106
218	-1.103
219	-1.101
219	-1.1
220	-1.095
220	-1.091
221	-1.087
221	-1.082
221	-1.077
222	-1.072
222	-1.067
223	-1.059
223	-1.055
224	-1.05
224	-1.042
225	-1.033
225	-1.022
226	-1.012
226	-1.001
227	-0.986
227	-0.97
228	-0.95
228	-0.93
229	-0.906
229	-0.877
229	-0.848
230	-0.816
230	-0.78
231	-0.741
231	-0.701
232	-0.66
232	-0.615
233	-0.569
233	-0.522
234	-0.476
234	-0.429
235	-0.382
235	-0.337
236	-0.292
236	-0.249
236	-0.206
237	-0.166
237	-0.128
238	-0.092
238	-0.058
239	-0.026
239	0.003
240	0.029
240	0.054
241	0.077
241	0.099
242	0.118
242	0.136
243	0.153
243	0.167
243	0.181
244	0.193
244	0.205
245	0.216
245	0.225
246	0.234
246	0.242
247	0.249
247	0.256
248	0.263
248	0.268
249	0.274
249	0.279
250	0.283
250	0.288
250	0.292
251	0.296
251	0.3
252	0.303
252	0.306
253	0.309
253	0.312
254	0.314
254	0.317
255	0.319
255	0.321
256	0.322
256	0.324
257	0.325
257	0.327
258	0.328
258	0.329
258	0.33
259	0.331
259	0.331
260	0.332
260	0.332
261	0.332
261	0.333
262	0.332
262	0.332
263	0.332
263	0.332
264	0.332
264	0.331
265	0.331
265	0.33
265	0.329
266	0.329
266	0.328
267	0.327
267	0.327
268	0.325
268	0.324
269	0.323
269	0.321
270	0.32
270	0.319
271	0.317
271	0.315
272	0.314
272	0.313
272	0.311
273	0.31
273	0.308
274	0.307
274	0.305
275	0.304
275	0.302
276	0.3
276	0.299
277	0.297
277	0.295
278	0.293
278	0.292
278	0.289
279	0.287
279	0.284
280	0.283
280	0.281
281	0.279
281	0.277
282	0.275
282	0.274
283	0.273
283	0.271
284	0.27
284	0.269
285	0.268
285	0.266
285	0.265
286	0.264
286	0.262
287	0.261
287	0.26
288	0.258
288	0.257
289	0.256
289	0.255
290	0.253
290	0.252
291	0.251
291	0.25
292	0.249
292	0.248
292	0.247
293	0.246
293	0.245
294	0.244
294	0.243
295	0.242
295	0.241
296	0.24
296	0.238
297	0.238
297	0.237
298	0.236
298	0.235
298	0.234
299	0.234
299	0.233
300	0.232
300	0.232
301	0.231
301	0.23
302	0.229
302	0.228
303	0.228
303	0.227
304	0.226
304	0.226
305	0.225
305	0.224
305	0.223
306	0.223
306	0.222
307	0.221
307	0.22
308	0.219
308	0.218
309	0.217
309	0.217
310	0.216
310	0.215
311	0.214
311	0.214
311	0.213
312	0.212
312	0.211
313	0.21
313	0.21
314	0.209
314	0.208
315	0.207
315	0.206
316	0.206
316	0.205
317	0.204
317	0.203
318	0.202
318	0.202
318	0.201
319	0.2
319	0.199
320	0.198
320	0.198
321	0.197
321	0.196
322	0.195
322	0.194
323	0.194
323	0.193
324	0.192
324	0.191
324	0.191
325	0.19
325	0.189
326	0.188
326	0.188
327	0.187
327	0.186
328	0.185
328	0.185
329	0.184
329	0.183
330	0.182
330	0.182
330	0.181
331	0.18
331	0.18
332	0.179
332	0.179
333	0.178
333	0.177
334	0.176
334	0.176
335	0.175
335	0.174
336	0.173
336	0.173
336	0.172
337	0.171
337	0.17
338	0.17
338	0.169
339	0.169
339	0.168
340	0.167
340	0.167
341	0.166
341	0.165
342	0.165
342	0.165
342	0.164
343	0.163
343	0.163
344	0.162
344	0.162
345	0.161
345	0.161
346	0.16
346	0.16
347	0.16
347	0.159
348	0.158
348	0.158
348	0.157
349	0.156
349	0.156
350	0.155
350	0.155
351	0.154
351	0.153
352	0.153
352	0.152
353	0.151
353	0.151
354	0.15
354	0.149
354	0.148
355	0.148
355	0.147
356	0.147
356	0.147
357	0.146
357	0.146
358	0.146
358	0.146
359	0.147
359	0.147
360	0.148
360	0.148
360	0.148
361	0.148
361	0.148
362	0.148
362	0.148
363	0.148
363	0.147
364	0.147
364	0.147
365	0.146
365	0.146
366	0.146
366	0.146
366	0.146
367	0.145
367	0.145
368	0.145
368	0.144
369	0.144
369	0.143
370	0.143
370	0.142
371	0.142
371	0.142
372	0.141
372	0.141
372	0.14
373	0.14
373	0.14
374	0.14
374	0.14
375	0.14
375	0.14
376	0.14
376	0.14
377	0.14
377	0.14
378	0.14
378	0.14
378	0.141
379	0.141
379	0.141
380	0.141
380	0.141
381	0.14
381	0.14
382	0.14
382	0.139
383	0.139
383	0.138
383	0.138
384	0.137
384	0.137
385	0.137
385	0.137
386	0.137
386	0.137
387	0.136
387	0.136
388	0.136
388	0.136
389	0.136
389	0.135
389	0.135
390	0.136
390	0.136
391	0.136
391	0.136
392	0.136
392	0.136
393	0.136
393	0.136
394	0.136
394	0.136
394	0.135
395	0.135
395	0.134
396	0.134
396	0.134
397	0.134
397	0.134
398	0.134
398	0.134
399	0.134
399	0.133
400	0.133
400	0.133
400	0.133
401	0.132
401	0.131
402	0.13
402	0.13
403	0.13
403	0.13
404	0.129
404	0.129
405	0.129
405	0.128
405	0.128
406	0.128
406	0.128
407	0.128
407	0.128
408	0.127
408	0.127
409	0.127
409	0.126
410	0.126
410	0.126
411	0.126
411	0.126
411	0.125
412	0.125
412	0.124
413	0.124
413	0.124
414	0.123
414	0.123
415	0.122
415	0.122
416	0.121
416	0.121
416	0.12
417	0.12
417	0.12
418	0.12
418	0.12
419	0.121
419	0.121
420	0.122
420	0.122
421	0.123
421	0.123
421	0.123
422	0.124
422	0.124
423	0.123
423	0.123
424	0.122
424	0.121
425	0.121
425	0.12
426	0.12
426	0.119
427	0.119
427	0.119
427	0.12
428	0.12
428	0.121
429	0.121
429	0.122
430	0.122
430	0.122
431	0.121
431	0.121
432	0.12
432	0.12
432	0.119
433	0.117
433	0.117
434	0.116
434	0.116
435	0.116
435	0.116
436	0.116
436	0.116
437	0.116
437	0.116
437	0.116
438	0.116
438	0.116
439	0.116
439	0.115
440	0.115
440	0.115
441	0.115
441	0.115
442	0.115
442	0.116
442	0.116
443	0.116
443	0.116
444	0.116
444	0.116
445	0.116
445	0.116
446	0.116
446	0.116
447	0.116
447	0.116
447	0.116
448	0.115
448	0.115
449	0.115
449	0.114
450	0.114
450	0.114
451	0.113
451	0.113
452	0.112
452	0.112
452	0.111
453	0.111
453	0.111
454	0.11
454	0.11
455	0.11
455	0.11
456	0.11
456	0.11
457	0.11
457	0.11
458	0.11
458	0.11
458	0.111
459	0.111
459	0.111
460	0.11
460	0.11
461	0.11
461	0.109
462	0.109
462	0.109
463	0.11
463	0.11
463	0.111
464	0.111
464	0.111
465	0.111
465	0.111
466	0.111
466	0.111
467	0.111
467	0.111
467	0.11
468	0.108
468	0.107
469	0.106
469	0.105
470	0.105
470	0.104
471	0.104
471	0.104
472	0.105
472	0.105
472	0.106
473	0.107
473	0.108
474	0.108
474	0.109
475	0.11
475	0.11
476	0.111
476	0.111
477	0.111
477	0.111
477	0.111
478	0.112
478	0.112
479	0.112
479	0.113
480	0.113
480	0.114
481	0.115
481	0.116
482	0.117
482	0.118
482	0.119
483	0.121
483	0.124
484	0.126
484	0.128
485	0.129
485	0.13
486	0.131
486	0.132
487	0.132
487	0.133
487	0.133
488	0.132
488	0.131
489	0.13
489	0.129
490	0.129
490	0.129
491	0.129
491	0.129
492	0.13
492	0.131
492	0.132
493	0.133
493	0.134
494	0.137
494	0.139
495	0.141
495	0.143
496	0.144
496	0.146
496	0.147
497	0.148
497	0.149
498	0.15
498	0.151
499	0.151
499	0.152
500	0.153
500	0.154
501	0.155
501	0.156
501	0.157
502	0.159
502	0.16
503	0.161
503	0.163
504	0.163
504	0.164
505	0.165
505	0.165
506	0.166
506	0.167
506	0.168
507	0.169
507	0.17
508	0.17
508	0.171
509	0.172
509	0.173
510	0.174
510	0.175
511	0.175
511	0.176
511	0.176
512	0.177
512	0.177
513	0.177
513	0.177
514	0.176
514	0.176
515	0.176
515	0.175
515	0.175
516	0.175
516	0.175
517	0.176
517	0.176
518	0.176
518	0.176
519	0.175
519	0.173
520	0.172
520	0.171
520	0.169
521	0.167
521	0.165
522	0.163
522	0.162
523	0.161
523	0.161
524	0.163
524	0.164
524	0.166
525	0.169
525	0.171
526	0.173
526	0.175
527	0.178
527	0.179
528	0.181
528	0.182
529	0.182
529	0.183
529	0.183
530	0.183
530	0.183
531	0.183
531	0.183
532	0.182
532	0.181
533	0.181
533	0.18
533	0.18
534	0.179
534	0.178
535	0.177
535	0.177
536	0.177
536	0.176
537	0.175
537	0.174
538	0.173
538	0.171
538	0.17
539	0.169
539	0.168
540	0.167
540	0.165
541	0.163
541	0.161
542	0.16
542	0.158
542	0.156
543	0.155
543	0.154
544	0.152
544	0.151
545	0.15
545	0.149
546	0.149
546	0.148
547	0.146
547	0.144
547	0.142
548	0.14
548	0.138
549	0.136
549	0.134
550	0.132
550	0.13
551	0.127
551	0.125
551	0.123
552	0.122
552	0.12
553	0.119
553	0.118
554	0.118
554	0.116
555	0.114
555	0.112
556	0.109
556	0.107
556	0.104
557	0.102
557	0.1
558	0.098
558	0.096
559	0.094
559	0.092
560	0.091
560	0.09
560	0.089
561	0.089
561	0.089
562	0.088
562	0.087
563	0.085
563	0.083
564	0.081
564	0.079
564	0.077
565	0.076
565	0.074
566	0.073
566	0.071
567	0.071
567	0.071
568	0.071
568	0.071
568	0.072
569	0.073
569	0.074
570	0.073
570	0.072
571	0.072
571	0.072
572	0.071
572	0.071
573	0.07
573	0.069
573	0.067
574	0.066
574	0.066
575	0.065
575	0.066
576	0.067
576	0.065
577	0.063
577	0.062
577	0.062
578	0.061
578	0.061
579	0.063
579	0.064
580	0.062
580	0.059
581	0.056
581	0.055
581	0.055
582	0.055
582	0.055
583	0.055
583	0.054
584	0.05
584	0.046
585	0.046
585	0.046
585	0.046
586	0.046
586	0.045
587	0.043
587	0.041
588	0.038
588	0.037
589	0.036
589	0.036
590	0.036
590	0.035
590	0.036
591	0.037
591	0.037
592	0.036
592	0.035
593	0.035
593	0.035
594	0.034
594	0.033
594	0.032
595	0.032
595	0.031
596	0.03
596	0.031
597	0.033
597	0.034
598	0.035
598	0.036
598	0.036
599	0.036
599	0.036
600	0.034
600	0.033
601	0.032
601	0.031
602	0.029
602	0.028
602	0.026
603	0.026
603	0.027
604	0.027
604	0.028
605	0.029
605	0.031
606	0.031
606	0.03
606	0.029
607	0.029
607	0.029
608	0.029
608	0.027
609	0.026
609	0.026
610	0.026
610	0.025
610	0.025
611	0.026
611	0.028
612	0.029
612	0.031
613	0.032
613	0.033
614	0.033
614	0.032
614	0.032
615	0.031
615	0.031
616	0.031
616	0.03
617	0.029
617	0.028
618	0.027
618	0.027
618	0.027
619	0.027
619	0.028
620	0.03
620	0.031
621	0.032
621	0.033
622	0.033
622	0.034
622	0.034
623	0.034
623	0.035
624	0.036
624	0.035
625	0.035
625	0.035
626	0.035
626	0.035
626	0.036
627	0.037
627	0.037
628	0.038
628	0.039
629	0.039
629	0.04
630	0.039
630	0.039
630	0.04
631	0.041
631	0.041
632	0.042
632	0.042
633	0.043
633	0.044
634	0.046
634	0.047
634	0.049
635	0.051
635	0.052
636	0.053
636	0.054
637	0.055
637	0.056
638	0.057
638	0.058
638	0.059
639	0.06
639	0.06
640	0.061
640	0.062
641	0.063
641	0.064
642	0.065
642	0.067
642	0.068
643	0.07
643	0.071
644	0.073
644	0.075
645	0.077
645	0.079
646	0.082
646	0.085
646	0.088
647	0.09
647	0.093
648	0.095
648	0.097
649	0.1
649	0.102
650	0.104
650	0.107
650	0.109
651	0.111
651	0.113
652	0.115
652	0.117
653	0.121
653	0.129
653	0.145
654	0.119
654	0.1
655	0.101
655	0.103
656	0.106
656	0.108
657	0.11
657	0.111
657	0.112
658	0.11
658	0.099
659	0.123
659	0.156
660	0.162
660	0.164
661	0.166
661	0.168
661	0.171
662	0.174
662	0.177
663	0.18
663	0.184
664	0.187
664	0.189
665	0.192
665	0.195
665	0.198
666	0.2
666	0.203
667	0.205
667	0.207
668	0.21
668	0.213
669	0.215
669	0.218
669	0.222
670	0.226
670	0.229
671	0.231
671	0.233
672	0.235
672	0.236
672	0.238
673	0.239
673	0.241
674	0.242
674	0.243
675	0.244
675	0.246
676	0.248
676	0.25
676	0.252
677	0.254
677	0.256
678	0.257
678	0.258
679	0.259
679	0.26
680	0.261
680	0.261
680	0.261
681	0.261
681	0.262
682	0.263
682	0.264
683	0.266
683	0.269
684	0.27
684	0.271
684	0.272
685	0.273
685	0.274
686	0.275
686	0.275
687	0.276
687	0.275
687	0.275
688	0.274
688	0.274
689	0.275
689	0.276
690	0.276
690	0.276
691	0.275
691	0.275
691	0.274
692	0.274
692	0.273
693	0.272
693	0.272
694	0.271
694	0.269
695	0.27
695	0.271
695	0.272
696	0.271
696	0.271
697	0.271
697	0.27
698	0.269
698	0.268
698	0.266
699	0.265
699	0.263
700	0.26
700	0.258
701	0.257
701	0.255
702	0.253
702	0.252
702	0.25
703	0.248
703	0.247
704	0.245
704	0.244
705	0.244
705	0.242
705	0.24
706	0.239
706	0.237
707	0.235
707	0.233
708	0.23
708	0.228
709	0.226
709	0.223
709	0.22
710	0.216
710	0.214
711	0.212
711	0.21
712	0.208
712	0.207
713	0.205
713	0.204
713	0.202
714	0.2
714	0.198
715	0.196
715	0.194
716	0.192
716	0.19
716	0.187
717	0.185
717	0.183
718	0.18
718	0.177
719	0.175
719	0.173
720	0.17
720	0.167
720	0.164
721	0.16
721	0.157
722	0.154
722	0.151
723	0.149
723	0.147
723	0.144
724	0.142
724	0.14
725	0.138
725	0.137
726	0.135
726	0.134
727	0.132
727	0.131
727	0.13
728	0.128
728	0.127
729	0.126
729	0.125
730	0.123
730	0.121
730	0.12
731	0.118
731	0.117
732	0.115
732	0.113
733	0.111
733	0.108
734	0.106
734	0.103
734	0.101
735	0.099
735	0.097
736	0.094
736	0.092
737	0.09
737	0.088
737	0.086
738	0.084
738	0.081
739	0.079
739	0.077
740	0.074
740	0.073
741	0.071
741	0.068
741	0.065
742	0.061
742	0.059
743	0.057
743	0.054
744	0.052
744	0.05
744	0.048
745	0.045
745	0.043
746	0.041
746	0.04
747	0.039
747	0.038
748	0.037
748	0.036
748	0.035
749	0.034
749	0.034
750	0.033
750	0.033
751	0.032
751	0.032
751	0.032
752	0.032
752	0.031
753	0.03
753	0.029
754	0.029
754	0.028
754	0.028
755	0.027
755	0.027
756	0.026
756	0.024
757	0.022
757	0.022
758	0.021
758	0.02
758	0.019
759	0.018
759	0.016
760	0.014
760	0.012
761	0.01
761	0.01
761	0.009
762	0.007
762	0.006
763	0.005
763	0.002
764	-0.001
764	-0.003
764	-0.006
765	-0.008
765	-0.011
766	-0.013
766	-0.014
767	-0.015
767	-0.018
768	-0.021
768	-0.023
768	-0.024
769	-0.025
769	-0.025
770	-0.026
770	-0.027
771	-0.03
771	-0.032
771	-0.034
772	-0.036
772	-0.037
773	-0.039
773	-0.041
774	-0.043
774	-0.046
775	-0.048
775	-0.051
775	-0.054
776	-0.057
776	-0.059
777	-0.062
777	-0.065
778	-0.068
778	-0.072
778	-0.075
779	-0.077
779	-0.078
780	-0.081
780	-0.085
781	-0.088
781	-0.092
781	-0.096
782	-0.1
782	-0.105
783	-0.109
783	-0.112
784	-0.115
784	-0.118
784	-0.12
785	-0.123
785	-0.125
786	-0.125
786	-0.123
787	-0.119
787	-0.115
788	-0.113
788	-0.114
788	-0.114
789	-0.116
789	-0.115
790	-0.111
790	-0.11
791	-0.11
791	-0.111
791	-0.113
792	-0.108
792	-0.099
793	-0.093
793	-0.09
794	-0.089
794	-0.091
794	-0.095
795	-0.097
795	-0.098
796	-0.098
796	-0.101
797	-0.109
797	-0.119
797	-0.125
798	-0.13
798	-0.132
799	-0.133
799	-0.133
800	-0.133
800	-0.135
801	-0.138
801	-0.139
801	-0.14
802	-0.142
802	-0.143
803	-0.144
803	-0.144
804	-0.143
804	-0.138
804	-0.131
805	-0.127
805	-0.125
806	-0.123
806	-0.121
807	-0.12
807	-0.119
807	-0.119
808	-0.119
808	-0.12
809	-0.125
809	-0.13
810	-0.134
810	-0.136
810	-0.139
811	-0.142
811	-0.141
812	-0.137
812	-0.134
813	-0.133
813	-0.133
813	-0.133
814	-0.134
814	-0.133
815	-0.131
815	-0.128
816	-0.126
816	-0.127
817	-0.131
817	-0.135
817	-0.135
818	-0.135
818	-0.132
819	-0.127
819	-0.125
820	-0.126
820	-0.128
820	-0.13
821	-0.13
821	-0.128
822	-0.126
822	-0.123
823	-0.12
823	-0.119
823	-0.12
824	-0.118
824	-0.113
825	-0.106
825	-0.098
826	-0.091
826	-0.085
826	-0.079
827	-0.074
827	-0.07
828	-0.066
828	-0.062
829	-0.058
829	-0.055
829	-0.053
830	-0.052
830	-0.05
831	-0.047
831	-0.046
832	-0.044
832	-0.043
832	-0.041
833	-0.04
833	-0.04
834	-0.039
834	-0.038
835	-0.037
835	-0.037
835	-0.037
836	-0.036
836	-0.036
837	-0.036
837	-0.035
838	-0.035
838	-0.036
839	-0.036
839	-0.036
839	-0.036
840	-0.036
840	-0.036
841	-0.036
841	-0.035
842	-0.035
842	-0.034
842	-0.034
843	-0.033
843	-0.032
844	-0.031
844	-0.03
845	-0.029
845	-0.029
845	-0.028
846	-0.027
846	-0.027
847	-0.027
847	-0.026
848	-0.026
848	-0.027
848	-0.026
849	-0.027
849	-0.027
850	-0.027
850	-0.028
851	-0.028
851	-0.028
851	-0.028
852	-0.028
852	-0.028
853	-0.027
853	-0.027
854	-0.027
854	-0.026
854	-0.025
855	-0.024
855	-0.024
856	-0.023
856	-0.022
857	-0.021
857	-0.02
857	-0.02
858	-0.019
858	-0.019
859	-0.019
859	-0.019
860	-0.018
860	-0.018
860	-0.018
861	-0.018
861	-0.018
862	-0.018
862	-0.018
863	-0.018
863	-0.018
863	-0.018
864	-0.018
864	-0.019
865	-0.019
865	-0.019
866	-0.019
866	-0.02
866	-0.019
867	-0.019
867	-0.018
868	-0.018
868	-0.017
869	-0.016
869	-0.015
869	-0.015
870	-0.014
870	-0.013
871	-0.012
871	-0.011
872	-0.01
872	-0.01
872	-0.01
873	-0.009
873	-0.009
874	-0.009
874	-0.009
875	-0.009
875	-0.009
875	-0.009
876	-0.009
876	-0.01
877	-0.01
877	-0.011
878	-0.011
878	-0.012
878	-0.012
879	-0.013
879	-0.014
880	-0.014
880	-0.015
881	-0.015
881	-0.015
881	-0.015
882	-0.014
882	-0.014
883	-0.013
883	-0.012
884	-0.012
884	-0.011
884	-0.011
885	-0.01
885	-0.01
886	-0.009
886	-0.009
887	-0.009
887	-0.009
887	-0.009
888	-0.009
888	-0.008
889	-0.008
889	-0.007
890	-0.006
890	-0.005
890	-0.005
891	-0.004
891	-0.004
892	-0.004
892	-0.004
893	-0.004
893	-0.004
893	-0.005
894	-0.006
894	-0.007
895	-0.008
895	-0.009
895	-0.01
896	-0.011
896	-0.012
897	-0.012
897	-0.012
898	-0.013
898	-0.013
898	-0.012
899	-0.012
899	-0.012
900	-0.012
900	-0.012
901	-0.012
901	-0.012
901	-0.012
902	-0.012
902	-0.012
903	-0.012
903	-0.012
904	-0.012
904	-0.013
904	-0.013
905	-0.014
905	-0.014
906	-0.015
906	-0.015
907	-0.016
907	-0.016
907	-0.017
908	-0.017
908	-0.018
909	-0.018
909	-0.018
910	-0.017
910	-0.017
910	-0.017
911	-0.017
911	-0.017
912	-0.016
912	-0.016
913	-0.016
913	-0.016
913	-0.016
914	-0.017
914	-0.017
915	-0.018
915	-0.019
916	-0.019
916	-0.019
916	-0.019
917	-0.019
917	-0.018
918	-0.017
918	-0.016
918	-0.015
919	-0.014
919	-0.012
920	-0.01
920	-0.009
921	-0.008
921	-0.007
921	-0.006
922	-0.004
922	-0.003
923	-0.002
923	-0.002
924	-0.001
924	-0.001
924	-0
925	-0
925	0
926	0.001
926	0.001
927	0.001
927	0
927	0
928	0
928	0
929	0
929	0
930	0
930	-0
930	-0.001
931	-0.002
931	-0.003
932	-0.005
932	-0.006
933	-0.007
933	-0.008
933	-0.01
934	-0.011
934	-0.012
935	-0.013
935	-0.014
935	-0.015
936	-0.015
936	-0.016
937	-0.016
937	-0.016
938	-0.016
938	-0.016
938	-0.015
939	-0.015
939	-0.014
940	-0.013
940	-0.012
941	-0.012
941	-0.011
941	-0.01
942	-0.009
942	-0.009
943	-0.008
943	-0.008
944	-0.008
944	-0.008
944	-0.007
945	-0.007
945	-0.007
946	-0.007
946	-0.007
946	-0.007
947	-0.007
947	-0.007
948	-0.007
948	-0.007
949	-0.007
949	-0.007
949	-0.007
950	-0.007
950	-0.007
951	-0.007
951	-0.007
952	-0.007
952	-0.007
952	-0.006
953	-0.006
953	-0.006
954	-0.005
954	-0.005
955	-0.005
955	-0.005
955	-0.005
956	-0.004
956	-0.004
957	-0.004
957	-0.004
957	-0.005
958	-0.005
958	-0.006
959	-0.006
959	-0.007
960	-0.007
960	-0.008
960	-0.009
961	-0.01
961	-0.01
962	-0.011
962	-0.011
963	-0.011
963	-0.01
963	-0.01
964	-0.01
964	-0.009
965	-0.008
965	-0.007
966	-0.006
966	-0.005
966	-0.004
967	-0.004
967	-0.003
968	-0.003
968	-0.003
968	-0.003
969	-0.003
969	-0.003
970	-0.003
970	-0.004
971	-0.004
971	-0.004
971	-0.005
972	-0.005
972	-0.006
973	-0.006
973	-0.007
974	-0.008
974	-0.008
974	-0.009
975	-0.01
975	-0.011
976	-0.012
976	-0.013
976	-0.014
977	-0.016
977	-0.017
978	-0.018
978	-0.019
979	-0.02
979	-0.021
979	-0.021
980	-0.021
980	-0.021
981	-0.021
981	-0.02
982	-0.019
982	-0.017
982	-0.016
983	-0.015
983	-0.013
984	-0.012
984	-0.01
984	-0.009
985	-0.008
985	-0.008
986	-0.008
986	-0.008
987	-0.008
987	-0.009
987	-0.009
988	-0.01
988	-0.011
989	-0.012
989	-0.014
990	-0.015
990	-0.016
990	-0.016
991	-0.017
991	-0.017
992	-0.017
992	-0.018
992	-0.018
993	-0.019
993	-0.019
994	-0.02
994	-0.021
995	-0.021
995	-0.022
995	-0.023
996	-0.024
996	-0.025
997	-0.025
997	-0.026
997	-0.026
998	-0.025
998	-0.025
999	-0.025
999	-0.024
1000	-0.024
1000	-0.023
1000	-0.022
1001	-0.021
1001	-0.02
1002	-0.02
1002	-0.019
1003	-0.019
1003	-0.018
1003	-0.018
1004	-0.018
1004	-0.018
1005	-0.017
1005	-0.017
1005	-0.017
1006	-0.016
1006	-0.016
1007	-0.015
1007	-0.015
1008	-0.014
1008	-0.013
1008	-0.012
1009	-0.012
1009	-0.011
1010	-0.011
1010	-0.01
1010	-0.01
1011	-0.01
1011	-0.01
1012	-0.01
1012	-0.01
1013	-0.01
1013	-0.01
1013	-0.011
1014	-0.012
1014	-0.013
1015	-0.013
1015	-0.014
1016	-0.015
1016	-0.015
1016	-0.016
1017	-0.017
1017	-0.017
1018	-0.017
1018	-0.018
1018	-0.018
1019	-0.018
1019	-0.018
1020	-0.018
1020	-0.018
1021	-0.018
1021	-0.018
1021	-0.019
1022	-0.019
1022	-0.019
1023	-0.019
1023	-0.02
1023	-0.021
1024	-0.021
1024	-0.022
1025	-0.023
1025	-0.023
1026	-0.024
1026	-0.024
1026	-0.024
1027	-0.024
1027	-0.024
1028	-0.023
1028	-0.023
1028	-0.022
1029	-0.022
1029	-0.021
1030	-0.021
1030	-0.021
1031	-0.02
1031	-0.02
1031	-0.019
1032	-0.019
1032	-0.019
1033	-0.019
1033	-0.019
1033	-0.019
1034	-0.02
1034	-0.02
1035	-0.021
1035	-0.022
1036	-0.022
1036	-0.023
1036	-0.023
1037	-0.024
1037	-0.024
1038	-0.025
1038	-0.025
1039	-0.025
1039	-0.024
1039	-0.024
1040	-0.024
1040	-0.024
1041	-0.024
1041	-0.024
1041	-0.024
1042	-0.024
1042	-0.025
1043	-0.025
1043	-0.026
1044	-0.027
1044	-0.027
1044	-0.028
1045	-0.028
1045	-0.029
1046	-0.029
1046	-0.03
1046	-0.03
1047	-0.029
1047	-0.029
1048	-0.029
1048	-0.028
1049	-0.029
1049	-0.029
1049	-0.029
1050	-0.029
1050	-0.029
1051	-0.029
1051	-0.029
1051	-0.028
1052	-0.027
1052	-0.027
1053	-0.026
1053	-0.025
1053	-0.023
1054	-0.022
1054	-0.02
1055	-0.019
1055	-0.018
1056	-0.017
1056	-0.017
1056	-0.017
1057	-0.017
1057	-0.017
1058	-0.017
1058	-0.017
1058	-0.017
1059	-0.016
1059	-0.016
1060	-0.016
1060	-0.015
1061	-0.015
1061	-0.014
1061	-0.013
1062	-0.013
1062	-0.013
1063	-0.013
1063	-0.013
1063	-0.013
1064	-0.013
1064	-0.012
1065	-0.012
1065	-0.012
1066	-0.012
1066	-0.012
1066	-0.012
1067	-0.012
1067	-0.012
1068	-0.012
1068	-0.011
1068	-0.011
1069	-0.012
1069	-0.012
1070	-0.012
1070	-0.012
1071	-0.011
1071	-0.011
1071	-0.011
1072	-0.009
1072	-0.008
1073	-0.007
1073	-0.006
1073	-0.005
1074	-0.004
1074	-0.003
1075	-0.002
1075	-0.002
1076	-0.001
1076	-0
1076	-0
1077	-0
1077	0
1078	0.001
1078	0.002
1078	0.003
1079	0.004
1079	0.006
1080	0.007
1080	0.009
1080	0.009
1081	0.011
1081	0.013
1082	0.015
1082	0.015
1083	0.016
1083	0.017
1083	0.019
1084	0.021
1084	0.022
1085	0.024
1085	0.026
1085	0.028
1086	0.03
1086	0.031
1087	0.033
1087	0.035
1088	0.036
1088	0.037
1088	0.039
1089	0.041
1089	0.043
1090	0.045
1090	0.048
1090	0.05
1091	0.054
1091	0.058
1092	0.062
1092	0.067
1092	0.071
1093	0.076
1093	0.081
1094	0.087
1094	0.093
1095	0.098
1095	0.105
1095	0.113
1096	0.12
1096	0.129
1097	0.139
1097	0.148
1097	0.159
1098	0.169
1098	0.181
1099	0.194
1099	0.208
1100	0.222
1100	0.238
1100	0.256
1101	0.275
1101	0.296
1102	0.322
1102	0.351
1102	0.385
1103	0.422
1103	0.465
1104	0.518
1104	0.579
1104	0.662
1105	0.761
1105	0.883
1106	1.063
1106	1.462
1107	-0
1107	-0
1107	-0
1108	-0
1108	-0
1109	-0
1109	-0
1109	-0
1110	-0
1110	-0
1111	-0
1111	-0
