Data from 15c-100ul-ns-20ul-nr-full-exp-7ul-bp_Absorbance__484__04822.txt Node

Date: Mon Jan 15 15:28:57 CET 2024
User: Marek
Spectrometer: MAYP115816
Trigger mode: 0
Integration Time (sec): 2.000000E-1
Scans to average: 10
Electric dark correction enabled: true
Nonlinearity correction enabled: true
Boxcar width: 5
XAxis mode: Wavelengths
Number of Pixels in Spectrum: 2068
>>>>>Begin Spectral Data<<<<<
199	-1.942
199	-1.811
200	-1.668
200	-1.558
201	-1.484
201	-1.433
202	-1.362
202	-1.307
203	-1.258
203	-1.218
204	-1.19
204	-1.167
205	-1.146
205	-1.137
205	-1.134
206	-1.133
206	-1.132
207	-1.128
207	-1.125
208	-1.123
208	-1.117
209	-1.116
209	-1.114
210	-1.113
210	-1.112
211	-1.11
211	-1.108
212	-1.106
212	-1.105
213	-1.104
213	-1.103
213	-1.103
214	-1.102
214	-1.103
215	-1.102
215	-1.102
216	-1.101
216	-1.101
217	-1.1
217	-1.099
218	-1.099
218	-1.095
219	-1.093
219	-1.092
220	-1.087
220	-1.082
221	-1.078
221	-1.074
221	-1.068
222	-1.064
222	-1.059
223	-1.05
223	-1.047
224	-1.041
224	-1.033
225	-1.025
225	-1.013
226	-1.004
226	-0.993
227	-0.978
227	-0.961
228	-0.942
228	-0.922
229	-0.897
229	-0.868
229	-0.839
230	-0.807
230	-0.772
231	-0.733
231	-0.693
232	-0.652
232	-0.608
233	-0.563
233	-0.516
234	-0.47
234	-0.424
235	-0.379
235	-0.334
236	-0.29
236	-0.247
236	-0.206
237	-0.167
237	-0.13
238	-0.095
238	-0.062
239	-0.031
239	-0.003
240	0.023
240	0.047
241	0.069
241	0.09
242	0.108
242	0.126
243	0.142
243	0.156
243	0.168
244	0.18
244	0.191
245	0.201
245	0.21
246	0.218
246	0.225
247	0.232
247	0.238
248	0.244
248	0.249
249	0.254
249	0.259
250	0.263
250	0.267
250	0.272
251	0.275
251	0.278
252	0.282
252	0.285
253	0.288
253	0.29
254	0.293
254	0.295
255	0.297
255	0.299
256	0.3
256	0.302
257	0.303
257	0.304
258	0.305
258	0.307
258	0.307
259	0.308
259	0.308
260	0.309
260	0.309
261	0.309
261	0.309
262	0.309
262	0.309
263	0.309
263	0.309
264	0.308
264	0.308
265	0.307
265	0.307
265	0.306
266	0.305
266	0.304
267	0.303
267	0.303
268	0.302
268	0.3
269	0.299
269	0.298
270	0.297
270	0.295
271	0.294
271	0.293
272	0.291
272	0.29
272	0.288
273	0.286
273	0.285
274	0.283
274	0.282
275	0.28
275	0.278
276	0.277
276	0.275
277	0.273
277	0.272
278	0.27
278	0.268
278	0.266
279	0.264
279	0.261
280	0.26
280	0.258
281	0.256
281	0.255
282	0.253
282	0.251
283	0.25
283	0.248
284	0.247
284	0.246
285	0.245
285	0.243
285	0.242
286	0.241
286	0.239
287	0.238
287	0.237
288	0.235
288	0.234
289	0.233
289	0.232
290	0.231
290	0.23
291	0.229
291	0.227
292	0.226
292	0.225
292	0.224
293	0.223
293	0.222
294	0.221
294	0.22
295	0.219
295	0.218
296	0.217
296	0.216
297	0.215
297	0.215
298	0.214
298	0.213
298	0.212
299	0.211
299	0.21
300	0.21
300	0.209
301	0.208
301	0.207
302	0.207
302	0.206
303	0.205
303	0.205
304	0.204
304	0.204
305	0.203
305	0.202
305	0.201
306	0.201
306	0.2
307	0.199
307	0.198
308	0.197
308	0.197
309	0.196
309	0.195
310	0.194
310	0.194
311	0.193
311	0.192
311	0.192
312	0.191
312	0.19
313	0.19
313	0.189
314	0.188
314	0.187
315	0.186
315	0.186
316	0.185
316	0.184
317	0.183
317	0.183
318	0.182
318	0.181
318	0.18
319	0.18
319	0.179
320	0.178
320	0.177
321	0.176
321	0.176
322	0.175
322	0.174
323	0.173
323	0.173
324	0.172
324	0.171
324	0.171
325	0.17
325	0.169
326	0.168
326	0.168
327	0.167
327	0.166
328	0.166
328	0.165
329	0.164
329	0.164
330	0.163
330	0.162
330	0.162
331	0.161
331	0.161
332	0.16
332	0.16
333	0.159
333	0.158
334	0.157
334	0.157
335	0.156
335	0.155
336	0.155
336	0.154
336	0.153
337	0.153
337	0.152
338	0.151
338	0.151
339	0.151
339	0.15
340	0.149
340	0.149
341	0.148
341	0.148
342	0.147
342	0.147
342	0.146
343	0.145
343	0.145
344	0.144
344	0.144
345	0.143
345	0.143
346	0.142
346	0.142
347	0.141
347	0.14
348	0.14
348	0.139
348	0.139
349	0.138
349	0.138
350	0.137
350	0.137
351	0.136
351	0.136
352	0.135
352	0.135
353	0.134
353	0.133
354	0.132
354	0.132
354	0.131
355	0.13
355	0.13
356	0.13
356	0.13
357	0.13
357	0.13
358	0.13
358	0.13
359	0.13
359	0.13
360	0.131
360	0.131
360	0.131
361	0.131
361	0.131
362	0.13
362	0.13
363	0.13
363	0.13
364	0.13
364	0.129
365	0.129
365	0.129
366	0.129
366	0.128
366	0.128
367	0.128
367	0.128
368	0.128
368	0.127
369	0.127
369	0.126
370	0.126
370	0.126
371	0.125
371	0.125
372	0.125
372	0.124
372	0.124
373	0.124
373	0.124
374	0.124
374	0.124
375	0.124
375	0.123
376	0.123
376	0.123
377	0.124
377	0.124
378	0.124
378	0.124
378	0.124
379	0.124
379	0.124
380	0.124
380	0.124
381	0.124
381	0.124
382	0.123
382	0.123
383	0.123
383	0.122
383	0.122
384	0.121
384	0.121
385	0.121
385	0.12
386	0.12
386	0.12
387	0.12
387	0.12
388	0.12
388	0.119
389	0.119
389	0.119
389	0.12
390	0.12
390	0.12
391	0.12
391	0.12
392	0.12
392	0.12
393	0.12
393	0.12
394	0.12
394	0.119
394	0.119
395	0.119
395	0.118
396	0.118
396	0.118
397	0.118
397	0.118
398	0.117
398	0.117
399	0.117
399	0.117
400	0.117
400	0.117
400	0.117
401	0.116
401	0.115
402	0.115
402	0.114
403	0.114
403	0.114
404	0.114
404	0.114
405	0.113
405	0.113
405	0.113
406	0.113
406	0.113
407	0.113
407	0.113
408	0.112
408	0.112
409	0.112
409	0.111
410	0.111
410	0.111
411	0.111
411	0.111
411	0.11
412	0.109
412	0.109
413	0.109
413	0.108
414	0.108
414	0.108
415	0.107
415	0.107
416	0.106
416	0.106
416	0.106
417	0.105
417	0.105
418	0.105
418	0.106
419	0.106
419	0.107
420	0.107
420	0.108
421	0.108
421	0.108
421	0.108
422	0.109
422	0.109
423	0.108
423	0.108
424	0.107
424	0.106
425	0.106
425	0.105
426	0.105
426	0.105
427	0.105
427	0.105
427	0.105
428	0.106
428	0.106
429	0.107
429	0.107
430	0.107
430	0.107
431	0.107
431	0.106
432	0.106
432	0.105
432	0.104
433	0.103
433	0.102
434	0.102
434	0.102
435	0.101
435	0.101
436	0.101
436	0.102
437	0.101
437	0.101
437	0.101
438	0.101
438	0.101
439	0.101
439	0.101
440	0.101
440	0.101
441	0.101
441	0.101
442	0.101
442	0.101
442	0.101
443	0.101
443	0.102
444	0.102
444	0.102
445	0.102
445	0.102
446	0.102
446	0.102
447	0.102
447	0.101
447	0.101
448	0.101
448	0.101
449	0.1
449	0.1
450	0.099
450	0.099
451	0.099
451	0.098
452	0.098
452	0.098
452	0.097
453	0.097
453	0.097
454	0.096
454	0.096
455	0.096
455	0.096
456	0.096
456	0.096
457	0.096
457	0.096
458	0.096
458	0.096
458	0.097
459	0.097
459	0.097
460	0.097
460	0.096
461	0.096
461	0.095
462	0.095
462	0.096
463	0.096
463	0.097
463	0.097
464	0.097
464	0.097
465	0.097
465	0.098
466	0.098
466	0.098
467	0.098
467	0.097
467	0.096
468	0.095
468	0.093
469	0.092
469	0.092
470	0.091
470	0.091
471	0.091
471	0.091
472	0.091
472	0.091
472	0.092
473	0.093
473	0.094
474	0.095
474	0.095
475	0.096
475	0.096
476	0.097
476	0.097
477	0.097
477	0.097
477	0.098
478	0.098
478	0.098
479	0.098
479	0.099
480	0.099
480	0.1
481	0.1
481	0.101
482	0.102
482	0.103
482	0.104
483	0.106
483	0.109
484	0.11
484	0.112
485	0.113
485	0.114
486	0.114
486	0.115
487	0.116
487	0.116
487	0.116
488	0.116
488	0.114
489	0.114
489	0.113
490	0.113
490	0.113
491	0.113
491	0.114
492	0.114
492	0.114
492	0.115
493	0.116
493	0.117
494	0.119
494	0.122
495	0.124
495	0.125
496	0.126
496	0.127
496	0.129
497	0.13
497	0.131
498	0.132
498	0.132
499	0.133
499	0.133
500	0.134
500	0.135
501	0.136
501	0.137
501	0.138
502	0.139
502	0.141
503	0.142
503	0.143
504	0.144
504	0.145
505	0.145
505	0.146
506	0.147
506	0.147
506	0.148
507	0.149
507	0.15
508	0.15
508	0.151
509	0.152
509	0.153
510	0.154
510	0.155
511	0.155
511	0.155
511	0.156
512	0.156
512	0.157
513	0.157
513	0.157
514	0.156
514	0.156
515	0.155
515	0.155
515	0.154
516	0.154
516	0.154
517	0.155
517	0.155
518	0.155
518	0.155
519	0.154
519	0.153
520	0.152
520	0.151
520	0.149
521	0.147
521	0.145
522	0.142
522	0.14
523	0.139
523	0.138
524	0.139
524	0.14
524	0.141
525	0.143
525	0.145
526	0.148
526	0.15
527	0.153
527	0.156
528	0.157
528	0.159
529	0.16
529	0.16
529	0.161
530	0.161
530	0.161
531	0.161
531	0.162
532	0.161
532	0.16
533	0.16
533	0.159
533	0.159
534	0.158
534	0.157
535	0.156
535	0.156
536	0.155
536	0.154
537	0.154
537	0.153
538	0.152
538	0.15
538	0.149
539	0.148
539	0.147
540	0.146
540	0.144
541	0.142
541	0.141
542	0.139
542	0.138
542	0.137
543	0.136
543	0.135
544	0.133
544	0.132
545	0.132
545	0.131
546	0.131
546	0.13
547	0.128
547	0.126
547	0.124
548	0.123
548	0.121
549	0.119
549	0.117
550	0.115
550	0.113
551	0.11
551	0.108
551	0.107
552	0.106
552	0.105
553	0.104
553	0.103
554	0.102
554	0.101
555	0.099
555	0.097
556	0.095
556	0.092
556	0.09
557	0.088
557	0.086
558	0.084
558	0.082
559	0.08
559	0.079
560	0.078
560	0.077
560	0.076
561	0.076
561	0.076
562	0.076
562	0.075
563	0.073
563	0.071
564	0.069
564	0.067
564	0.065
565	0.064
565	0.063
566	0.062
566	0.06
567	0.06
567	0.06
568	0.06
568	0.06
568	0.061
569	0.062
569	0.063
570	0.063
570	0.061
571	0.062
571	0.062
572	0.061
572	0.061
573	0.06
573	0.059
573	0.058
574	0.057
574	0.056
575	0.056
575	0.057
576	0.058
576	0.056
577	0.054
577	0.053
577	0.053
578	0.052
578	0.053
579	0.054
579	0.055
580	0.053
580	0.051
581	0.048
581	0.047
581	0.046
582	0.047
582	0.047
583	0.047
583	0.046
584	0.042
584	0.039
585	0.038
585	0.039
585	0.039
586	0.038
586	0.038
587	0.036
587	0.034
588	0.031
588	0.03
589	0.03
589	0.03
590	0.029
590	0.028
590	0.03
591	0.031
591	0.03
592	0.03
592	0.029
593	0.029
593	0.029
594	0.028
594	0.027
594	0.026
595	0.026
595	0.024
596	0.023
596	0.025
597	0.027
597	0.028
598	0.029
598	0.03
598	0.03
599	0.031
599	0.03
600	0.029
600	0.028
601	0.027
601	0.026
602	0.024
602	0.023
602	0.021
603	0.021
603	0.021
604	0.022
604	0.023
605	0.024
605	0.026
606	0.026
606	0.025
606	0.024
607	0.024
607	0.024
608	0.024
608	0.023
609	0.022
609	0.022
610	0.021
610	0.02
610	0.021
611	0.022
611	0.023
612	0.025
612	0.026
613	0.027
613	0.028
614	0.028
614	0.027
614	0.027
615	0.026
615	0.026
616	0.026
616	0.025
617	0.024
617	0.023
618	0.022
618	0.022
618	0.022
619	0.023
619	0.024
620	0.026
620	0.027
621	0.027
621	0.028
622	0.029
622	0.029
622	0.029
623	0.029
623	0.03
624	0.031
624	0.03
625	0.03
625	0.03
626	0.03
626	0.03
626	0.031
627	0.032
627	0.033
628	0.034
628	0.034
629	0.035
629	0.035
630	0.035
630	0.034
630	0.035
631	0.036
631	0.037
632	0.037
632	0.037
633	0.038
633	0.039
634	0.041
634	0.043
634	0.045
635	0.046
635	0.047
636	0.049
636	0.05
637	0.051
637	0.052
638	0.053
638	0.054
638	0.055
639	0.055
639	0.056
640	0.057
640	0.057
641	0.058
641	0.059
642	0.06
642	0.062
642	0.063
643	0.064
643	0.066
644	0.067
644	0.069
645	0.071
645	0.074
646	0.076
646	0.079
646	0.082
647	0.084
647	0.087
648	0.089
648	0.091
649	0.093
649	0.096
650	0.098
650	0.1
650	0.102
651	0.104
651	0.106
652	0.107
652	0.11
653	0.113
653	0.122
653	0.136
654	0.113
654	0.095
655	0.096
655	0.098
656	0.1
656	0.102
657	0.104
657	0.105
657	0.106
658	0.104
658	0.094
659	0.116
659	0.147
660	0.153
660	0.155
661	0.157
661	0.159
661	0.162
662	0.165
662	0.168
663	0.171
663	0.174
664	0.177
664	0.18
665	0.182
665	0.185
665	0.188
666	0.19
666	0.192
667	0.194
667	0.197
668	0.199
668	0.202
669	0.204
669	0.207
669	0.211
670	0.214
670	0.217
671	0.219
671	0.221
672	0.223
672	0.224
672	0.226
673	0.227
673	0.229
674	0.23
674	0.23
675	0.231
675	0.233
676	0.235
676	0.238
676	0.239
677	0.241
677	0.243
678	0.244
678	0.245
679	0.246
679	0.247
680	0.248
680	0.248
680	0.248
681	0.248
681	0.249
682	0.249
682	0.251
683	0.252
683	0.255
684	0.256
684	0.257
684	0.257
685	0.258
685	0.26
686	0.261
686	0.261
687	0.261
687	0.261
687	0.26
688	0.26
688	0.259
689	0.26
689	0.261
690	0.261
690	0.26
691	0.26
691	0.26
691	0.26
692	0.259
692	0.258
693	0.258
693	0.258
694	0.257
694	0.255
695	0.256
695	0.257
695	0.257
696	0.257
696	0.256
697	0.256
697	0.255
698	0.254
698	0.253
698	0.252
699	0.251
699	0.248
700	0.246
700	0.244
701	0.243
701	0.241
702	0.239
702	0.238
702	0.236
703	0.234
703	0.233
704	0.231
704	0.23
705	0.229
705	0.228
705	0.226
706	0.225
706	0.223
707	0.221
707	0.219
708	0.217
708	0.215
709	0.213
709	0.21
709	0.207
710	0.204
710	0.202
711	0.2
711	0.198
712	0.196
712	0.195
713	0.193
713	0.192
713	0.19
714	0.188
714	0.186
715	0.184
715	0.182
716	0.18
716	0.178
716	0.176
717	0.174
717	0.171
718	0.169
718	0.166
719	0.164
719	0.162
720	0.16
720	0.157
720	0.154
721	0.15
721	0.147
722	0.145
722	0.142
723	0.139
723	0.138
723	0.135
724	0.133
724	0.131
725	0.129
725	0.128
726	0.126
726	0.125
727	0.124
727	0.122
727	0.121
728	0.119
728	0.118
729	0.118
729	0.116
730	0.115
730	0.113
730	0.112
731	0.11
731	0.109
732	0.107
732	0.105
733	0.103
733	0.101
734	0.098
734	0.096
734	0.094
735	0.092
735	0.09
736	0.087
736	0.085
737	0.083
737	0.082
737	0.08
738	0.078
738	0.075
739	0.073
739	0.071
740	0.069
740	0.067
741	0.065
741	0.063
741	0.06
742	0.056
742	0.053
743	0.051
743	0.049
744	0.047
744	0.045
744	0.043
745	0.041
745	0.038
746	0.037
746	0.036
747	0.035
747	0.034
748	0.033
748	0.032
748	0.031
749	0.03
749	0.029
750	0.029
750	0.028
751	0.028
751	0.028
751	0.028
752	0.027
752	0.026
753	0.025
753	0.025
754	0.024
754	0.023
754	0.023
755	0.023
755	0.023
756	0.022
756	0.02
757	0.018
757	0.018
758	0.017
758	0.016
758	0.015
759	0.014
759	0.012
760	0.01
760	0.008
761	0.006
761	0.006
761	0.005
762	0.003
762	0.002
763	0.001
763	-0.001
764	-0.004
764	-0.006
764	-0.009
765	-0.011
765	-0.014
766	-0.015
766	-0.016
767	-0.018
767	-0.021
768	-0.024
768	-0.026
768	-0.026
769	-0.027
769	-0.028
770	-0.029
770	-0.03
771	-0.032
771	-0.034
771	-0.037
772	-0.038
772	-0.04
773	-0.041
773	-0.043
774	-0.046
774	-0.048
775	-0.05
775	-0.053
775	-0.056
776	-0.059
776	-0.061
777	-0.064
777	-0.067
778	-0.071
778	-0.074
778	-0.077
779	-0.079
779	-0.08
780	-0.083
780	-0.087
781	-0.09
781	-0.094
781	-0.097
782	-0.101
782	-0.105
783	-0.11
783	-0.112
784	-0.116
784	-0.119
784	-0.121
785	-0.123
785	-0.125
786	-0.125
786	-0.123
787	-0.119
787	-0.115
788	-0.113
788	-0.114
788	-0.114
789	-0.116
789	-0.115
790	-0.112
790	-0.11
791	-0.11
791	-0.111
791	-0.113
792	-0.109
792	-0.099
793	-0.093
793	-0.09
794	-0.089
794	-0.091
794	-0.095
795	-0.098
795	-0.098
796	-0.098
796	-0.101
797	-0.109
797	-0.119
797	-0.125
798	-0.13
798	-0.132
799	-0.133
799	-0.133
800	-0.133
800	-0.135
801	-0.138
801	-0.139
801	-0.14
802	-0.142
802	-0.143
803	-0.144
803	-0.144
804	-0.143
804	-0.138
804	-0.131
805	-0.127
805	-0.125
806	-0.123
806	-0.121
807	-0.12
807	-0.12
807	-0.119
808	-0.119
808	-0.12
809	-0.125
809	-0.13
810	-0.134
810	-0.136
810	-0.139
811	-0.142
811	-0.142
812	-0.137
812	-0.134
813	-0.133
813	-0.133
813	-0.133
814	-0.134
814	-0.133
815	-0.131
815	-0.128
816	-0.126
816	-0.127
817	-0.131
817	-0.135
817	-0.135
818	-0.135
818	-0.132
819	-0.127
819	-0.125
820	-0.126
820	-0.128
820	-0.129
821	-0.129
821	-0.126
822	-0.124
822	-0.12
823	-0.117
823	-0.116
823	-0.116
824	-0.114
824	-0.108
825	-0.101
825	-0.093
826	-0.087
826	-0.082
826	-0.077
827	-0.072
827	-0.068
828	-0.064
828	-0.06
829	-0.057
829	-0.054
829	-0.052
830	-0.051
830	-0.049
831	-0.047
831	-0.046
832	-0.044
832	-0.043
832	-0.042
833	-0.041
833	-0.04
834	-0.039
834	-0.038
835	-0.038
835	-0.037
835	-0.037
836	-0.037
836	-0.036
837	-0.036
837	-0.036
838	-0.036
838	-0.036
839	-0.036
839	-0.036
839	-0.036
840	-0.036
840	-0.036
841	-0.035
841	-0.035
842	-0.034
842	-0.034
842	-0.033
843	-0.032
843	-0.032
844	-0.031
844	-0.03
845	-0.029
845	-0.029
845	-0.028
846	-0.028
846	-0.028
847	-0.027
847	-0.027
848	-0.027
848	-0.027
848	-0.027
849	-0.027
849	-0.027
850	-0.028
850	-0.029
851	-0.029
851	-0.029
851	-0.029
852	-0.029
852	-0.028
853	-0.028
853	-0.028
854	-0.027
854	-0.027
854	-0.026
855	-0.025
855	-0.025
856	-0.024
856	-0.023
857	-0.022
857	-0.022
857	-0.021
858	-0.02
858	-0.02
859	-0.02
859	-0.02
860	-0.019
860	-0.019
860	-0.019
861	-0.019
861	-0.018
862	-0.019
862	-0.019
863	-0.018
863	-0.018
863	-0.018
864	-0.019
864	-0.019
865	-0.019
865	-0.019
866	-0.02
866	-0.02
866	-0.02
867	-0.019
867	-0.019
868	-0.018
868	-0.018
869	-0.017
869	-0.016
869	-0.015
870	-0.014
870	-0.013
871	-0.012
871	-0.011
872	-0.011
872	-0.011
872	-0.011
873	-0.01
873	-0.01
874	-0.01
874	-0.01
875	-0.01
875	-0.01
875	-0.01
876	-0.011
876	-0.011
877	-0.011
877	-0.012
878	-0.013
878	-0.013
878	-0.014
879	-0.015
879	-0.015
880	-0.016
880	-0.017
881	-0.017
881	-0.017
881	-0.016
882	-0.016
882	-0.015
883	-0.014
883	-0.014
884	-0.013
884	-0.012
884	-0.011
885	-0.011
885	-0.01
886	-0.01
886	-0.01
887	-0.01
887	-0.01
887	-0.01
888	-0.009
888	-0.009
889	-0.008
889	-0.007
890	-0.006
890	-0.005
890	-0.004
891	-0.004
891	-0.003
892	-0.003
892	-0.003
893	-0.004
893	-0.004
893	-0.005
894	-0.006
894	-0.007
895	-0.008
895	-0.009
895	-0.01
896	-0.011
896	-0.011
897	-0.012
897	-0.012
898	-0.012
898	-0.012
898	-0.012
899	-0.012
899	-0.011
900	-0.012
900	-0.011
901	-0.011
901	-0.011
901	-0.011
902	-0.011
902	-0.011
903	-0.011
903	-0.012
904	-0.012
904	-0.013
904	-0.013
905	-0.014
905	-0.014
906	-0.015
906	-0.015
907	-0.016
907	-0.017
907	-0.017
908	-0.018
908	-0.018
909	-0.018
909	-0.018
910	-0.018
910	-0.017
910	-0.017
911	-0.017
911	-0.017
912	-0.016
912	-0.016
913	-0.016
913	-0.017
913	-0.017
914	-0.017
914	-0.018
915	-0.019
915	-0.019
916	-0.02
916	-0.02
916	-0.02
917	-0.02
917	-0.019
918	-0.018
918	-0.017
918	-0.016
919	-0.014
919	-0.013
920	-0.011
920	-0.009
921	-0.008
921	-0.007
921	-0.006
922	-0.005
922	-0.004
923	-0.003
923	-0.003
924	-0.002
924	-0.001
924	-0.001
925	-0.001
925	-0
926	0
926	0
927	0
927	0
927	0
928	0
928	0
929	0
929	0
930	-0
930	-0.001
930	-0.002
931	-0.003
931	-0.004
932	-0.005
932	-0.006
933	-0.008
933	-0.009
933	-0.01
934	-0.012
934	-0.013
935	-0.014
935	-0.015
935	-0.015
936	-0.016
936	-0.016
937	-0.016
937	-0.016
938	-0.016
938	-0.016
938	-0.016
939	-0.015
939	-0.015
940	-0.014
940	-0.013
941	-0.012
941	-0.012
941	-0.011
942	-0.01
942	-0.009
943	-0.009
943	-0.008
944	-0.008
944	-0.008
944	-0.007
945	-0.007
945	-0.006
946	-0.006
946	-0.006
946	-0.006
947	-0.006
947	-0.006
948	-0.006
948	-0.006
949	-0.006
949	-0.006
949	-0.006
950	-0.006
950	-0.006
951	-0.006
951	-0.006
952	-0.006
952	-0.006
952	-0.006
953	-0.005
953	-0.005
954	-0.005
954	-0.005
955	-0.005
955	-0.005
955	-0.005
956	-0.004
956	-0.004
957	-0.004
957	-0.004
957	-0.005
958	-0.005
958	-0.006
959	-0.006
959	-0.007
960	-0.008
960	-0.008
960	-0.009
961	-0.01
961	-0.011
962	-0.012
962	-0.012
963	-0.012
963	-0.011
963	-0.011
964	-0.011
964	-0.01
965	-0.009
965	-0.008
966	-0.007
966	-0.006
966	-0.004
967	-0.003
967	-0.003
968	-0.003
968	-0.003
968	-0.003
969	-0.003
969	-0.003
970	-0.003
970	-0.004
971	-0.004
971	-0.005
971	-0.005
972	-0.006
972	-0.006
973	-0.007
973	-0.007
974	-0.008
974	-0.008
974	-0.009
975	-0.01
975	-0.011
976	-0.011
976	-0.012
976	-0.014
977	-0.015
977	-0.016
978	-0.018
978	-0.019
979	-0.02
979	-0.02
979	-0.02
980	-0.021
980	-0.021
981	-0.02
981	-0.02
982	-0.019
982	-0.017
982	-0.016
983	-0.015
983	-0.013
984	-0.012
984	-0.01
984	-0.009
985	-0.008
985	-0.008
986	-0.008
986	-0.008
987	-0.009
987	-0.01
987	-0.01
988	-0.011
988	-0.012
989	-0.014
989	-0.015
990	-0.016
990	-0.017
990	-0.018
991	-0.018
991	-0.019
992	-0.019
992	-0.019
992	-0.019
993	-0.02
993	-0.02
994	-0.021
994	-0.022
995	-0.022
995	-0.023
995	-0.024
996	-0.024
996	-0.025
997	-0.026
997	-0.026
997	-0.026
998	-0.026
998	-0.026
999	-0.025
999	-0.024
1000	-0.024
1000	-0.023
1000	-0.022
1001	-0.022
1001	-0.021
1002	-0.02
1002	-0.02
1003	-0.019
1003	-0.019
1003	-0.019
1004	-0.019
1004	-0.018
1005	-0.018
1005	-0.018
1005	-0.017
1006	-0.017
1006	-0.016
1007	-0.016
1007	-0.015
1008	-0.015
1008	-0.014
1008	-0.013
1009	-0.013
1009	-0.012
1010	-0.012
1010	-0.012
1010	-0.011
1011	-0.011
1011	-0.011
1012	-0.011
1012	-0.011
1013	-0.011
1013	-0.012
1013	-0.012
1014	-0.013
1014	-0.014
1015	-0.014
1015	-0.015
1016	-0.016
1016	-0.017
1016	-0.018
1017	-0.018
1017	-0.019
1018	-0.019
1018	-0.019
1018	-0.019
1019	-0.019
1019	-0.019
1020	-0.019
1020	-0.019
1021	-0.019
1021	-0.019
1021	-0.02
1022	-0.02
1022	-0.02
1023	-0.02
1023	-0.021
1023	-0.022
1024	-0.022
1024	-0.023
1025	-0.024
1025	-0.024
1026	-0.024
1026	-0.025
1026	-0.025
1027	-0.025
1027	-0.025
1028	-0.024
1028	-0.024
1028	-0.023
1029	-0.022
1029	-0.022
1030	-0.022
1030	-0.021
1031	-0.021
1031	-0.02
1031	-0.02
1032	-0.019
1032	-0.019
1033	-0.019
1033	-0.019
1033	-0.019
1034	-0.02
1034	-0.021
1035	-0.021
1035	-0.022
1036	-0.022
1036	-0.023
1036	-0.023
1037	-0.024
1037	-0.024
1038	-0.025
1038	-0.025
1039	-0.025
1039	-0.024
1039	-0.024
1040	-0.024
1040	-0.024
1041	-0.024
1041	-0.025
1041	-0.025
1042	-0.025
1042	-0.026
1043	-0.027
1043	-0.027
1044	-0.028
1044	-0.028
1044	-0.029
1045	-0.03
1045	-0.03
1046	-0.031
1046	-0.031
1046	-0.031
1047	-0.031
1047	-0.03
1048	-0.03
1048	-0.03
1049	-0.03
1049	-0.03
1049	-0.03
1050	-0.03
1050	-0.03
1051	-0.03
1051	-0.03
1051	-0.029
1052	-0.028
1052	-0.028
1053	-0.027
1053	-0.026
1053	-0.025
1054	-0.023
1054	-0.022
1055	-0.02
1055	-0.019
1056	-0.018
1056	-0.018
1056	-0.018
1057	-0.018
1057	-0.018
1058	-0.018
1058	-0.018
1058	-0.017
1059	-0.017
1059	-0.017
1060	-0.017
1060	-0.016
1061	-0.016
1061	-0.015
1061	-0.015
1062	-0.014
1062	-0.014
1063	-0.014
1063	-0.014
1063	-0.014
1064	-0.014
1064	-0.013
1065	-0.013
1065	-0.013
1066	-0.013
1066	-0.013
1066	-0.013
1067	-0.013
1067	-0.013
1068	-0.013
1068	-0.013
1068	-0.013
1069	-0.013
1069	-0.014
1070	-0.013
1070	-0.013
1071	-0.012
1071	-0.011
1071	-0.011
1072	-0.01
1072	-0.009
1073	-0.008
1073	-0.007
1073	-0.006
1074	-0.004
1074	-0.003
1075	-0.003
1075	-0.003
1076	-0.002
1076	-0.001
1076	-0.001
1077	-0
1077	-0
1078	0
1078	0.002
1078	0.003
1079	0.004
1079	0.005
1080	0.007
1080	0.008
1080	0.009
1081	0.01
1081	0.012
1082	0.014
1082	0.015
1083	0.016
1083	0.017
1083	0.019
1084	0.02
1084	0.022
1085	0.024
1085	0.026
1085	0.027
1086	0.029
1086	0.03
1087	0.032
1087	0.034
1088	0.034
1088	0.036
1088	0.038
1089	0.039
1089	0.041
1090	0.042
1090	0.045
1090	0.047
1091	0.051
1091	0.055
1092	0.058
1092	0.064
1092	0.069
1093	0.073
1093	0.079
1094	0.084
1094	0.091
1095	0.096
1095	0.102
1095	0.11
1096	0.117
1096	0.125
1097	0.134
1097	0.143
1097	0.153
1098	0.164
1098	0.176
1099	0.187
1099	0.203
1100	0.219
1100	0.234
1100	0.251
1101	0.27
1101	0.29
1102	0.315
1102	0.343
1102	0.375
1103	0.408
1103	0.45
1104	0.497
1104	0.552
1104	0.626
1105	0.717
1105	0.827
1106	0.977
1106	1.262
1107	3.26
1107	-0
1107	-0
1108	-0
1108	-0
1109	-0
1109	-0
1109	-0
1110	-0
1110	-0
1111	-0
1111	-0
