Data from 15c-100ul-ns-20ul-nr-full-exp-7ul-bp_Absorbance__200__04538.txt Node

Date: Mon Jan 15 15:19:29 CET 2024
User: Marek
Spectrometer: MAYP115816
Trigger mode: 0
Integration Time (sec): 2.000000E-1
Scans to average: 10
Electric dark correction enabled: true
Nonlinearity correction enabled: true
Boxcar width: 5
XAxis mode: Wavelengths
Number of Pixels in Spectrum: 2068
>>>>>Begin Spectral Data<<<<<
199	-2.033
199	-1.902
200	-1.758
200	-1.647
201	-1.573
201	-1.522
202	-1.451
202	-1.394
203	-1.344
203	-1.303
204	-1.275
204	-1.252
205	-1.23
205	-1.221
205	-1.218
206	-1.217
206	-1.215
207	-1.211
207	-1.208
208	-1.207
208	-1.201
209	-1.2
209	-1.198
210	-1.198
210	-1.196
211	-1.194
211	-1.192
212	-1.189
212	-1.189
213	-1.189
213	-1.187
213	-1.187
214	-1.186
214	-1.187
215	-1.186
215	-1.186
216	-1.185
216	-1.184
217	-1.183
217	-1.183
218	-1.181
218	-1.177
219	-1.175
219	-1.174
220	-1.17
220	-1.165
221	-1.161
221	-1.155
221	-1.15
222	-1.146
222	-1.14
223	-1.133
223	-1.13
224	-1.124
224	-1.116
225	-1.107
225	-1.096
226	-1.086
226	-1.075
227	-1.06
227	-1.044
228	-1.024
228	-1.004
229	-0.979
229	-0.95
229	-0.922
230	-0.889
230	-0.854
231	-0.816
231	-0.776
232	-0.734
232	-0.69
233	-0.644
233	-0.598
234	-0.551
234	-0.505
235	-0.458
235	-0.412
236	-0.368
236	-0.324
236	-0.282
237	-0.242
237	-0.204
238	-0.168
238	-0.134
239	-0.103
239	-0.073
240	-0.047
240	-0.022
241	0.001
241	0.022
242	0.041
242	0.059
243	0.075
243	0.089
243	0.102
244	0.115
244	0.126
245	0.137
245	0.146
246	0.155
246	0.163
247	0.17
247	0.177
248	0.184
248	0.19
249	0.195
249	0.2
250	0.205
250	0.209
250	0.214
251	0.218
251	0.222
252	0.225
252	0.228
253	0.231
253	0.234
254	0.237
254	0.239
255	0.241
255	0.243
256	0.245
256	0.247
257	0.248
257	0.249
258	0.251
258	0.252
258	0.252
259	0.253
259	0.254
260	0.254
260	0.255
261	0.255
261	0.255
262	0.255
262	0.255
263	0.255
263	0.255
264	0.254
264	0.254
265	0.254
265	0.253
265	0.253
266	0.252
266	0.252
267	0.251
267	0.25
268	0.249
268	0.248
269	0.247
269	0.246
270	0.245
270	0.243
271	0.242
271	0.241
272	0.24
272	0.238
272	0.237
273	0.235
273	0.234
274	0.233
274	0.232
275	0.23
275	0.229
276	0.228
276	0.226
277	0.225
277	0.223
278	0.222
278	0.22
278	0.218
279	0.216
279	0.214
280	0.212
280	0.211
281	0.209
281	0.207
282	0.206
282	0.204
283	0.203
283	0.202
284	0.201
284	0.201
285	0.199
285	0.198
285	0.197
286	0.196
286	0.195
287	0.194
287	0.193
288	0.192
288	0.191
289	0.19
289	0.188
290	0.188
290	0.187
291	0.186
291	0.185
292	0.184
292	0.183
292	0.182
293	0.181
293	0.18
294	0.179
294	0.178
295	0.178
295	0.177
296	0.176
296	0.175
297	0.175
297	0.174
298	0.173
298	0.173
298	0.172
299	0.171
299	0.171
300	0.17
300	0.169
301	0.169
301	0.168
302	0.167
302	0.167
303	0.166
303	0.166
304	0.165
304	0.165
305	0.164
305	0.164
305	0.163
306	0.162
306	0.162
307	0.161
307	0.16
308	0.16
308	0.159
309	0.158
309	0.157
310	0.157
310	0.156
311	0.156
311	0.155
311	0.154
312	0.154
312	0.154
313	0.153
313	0.152
314	0.151
314	0.151
315	0.15
315	0.149
316	0.149
316	0.148
317	0.147
317	0.146
318	0.146
318	0.145
318	0.145
319	0.144
319	0.143
320	0.143
320	0.142
321	0.141
321	0.14
322	0.139
322	0.139
323	0.138
323	0.137
324	0.137
324	0.136
324	0.135
325	0.135
325	0.134
326	0.134
326	0.133
327	0.132
327	0.132
328	0.131
328	0.131
329	0.13
329	0.13
330	0.129
330	0.128
330	0.128
331	0.127
331	0.126
332	0.126
332	0.125
333	0.125
333	0.124
334	0.123
334	0.122
335	0.122
335	0.121
336	0.121
336	0.12
336	0.119
337	0.119
337	0.118
338	0.118
338	0.117
339	0.117
339	0.116
340	0.116
340	0.115
341	0.114
341	0.114
342	0.113
342	0.113
342	0.112
343	0.112
343	0.111
344	0.111
344	0.11
345	0.11
345	0.109
346	0.109
346	0.108
347	0.108
347	0.107
348	0.106
348	0.106
348	0.106
349	0.105
349	0.104
350	0.104
350	0.103
351	0.103
351	0.102
352	0.101
352	0.101
353	0.1
353	0.099
354	0.099
354	0.098
354	0.097
355	0.096
355	0.096
356	0.095
356	0.095
357	0.095
357	0.095
358	0.095
358	0.095
359	0.095
359	0.096
360	0.096
360	0.097
360	0.097
361	0.097
361	0.097
362	0.097
362	0.097
363	0.097
363	0.096
364	0.096
364	0.096
365	0.096
365	0.095
366	0.095
366	0.095
366	0.095
367	0.095
367	0.094
368	0.094
368	0.094
369	0.093
369	0.093
370	0.092
370	0.092
371	0.092
371	0.091
372	0.091
372	0.091
372	0.091
373	0.09
373	0.09
374	0.09
374	0.09
375	0.09
375	0.09
376	0.09
376	0.09
377	0.091
377	0.091
378	0.091
378	0.091
378	0.091
379	0.091
379	0.091
380	0.091
380	0.091
381	0.091
381	0.091
382	0.09
382	0.09
383	0.09
383	0.089
383	0.089
384	0.088
384	0.088
385	0.088
385	0.088
386	0.088
386	0.088
387	0.088
387	0.088
388	0.088
388	0.087
389	0.087
389	0.087
389	0.087
390	0.087
390	0.088
391	0.088
391	0.088
392	0.088
392	0.088
393	0.088
393	0.088
394	0.088
394	0.088
394	0.088
395	0.087
395	0.087
396	0.086
396	0.086
397	0.086
397	0.086
398	0.086
398	0.086
399	0.086
399	0.086
400	0.086
400	0.086
400	0.085
401	0.085
401	0.084
402	0.083
402	0.083
403	0.083
403	0.082
404	0.082
404	0.082
405	0.082
405	0.082
405	0.081
406	0.081
406	0.081
407	0.081
407	0.081
408	0.081
408	0.081
409	0.08
409	0.08
410	0.08
410	0.08
411	0.08
411	0.079
411	0.079
412	0.079
412	0.078
413	0.078
413	0.077
414	0.077
414	0.077
415	0.076
415	0.076
416	0.075
416	0.075
416	0.074
417	0.074
417	0.074
418	0.074
418	0.074
419	0.075
419	0.076
420	0.076
420	0.077
421	0.077
421	0.077
421	0.078
422	0.078
422	0.078
423	0.078
423	0.078
424	0.077
424	0.076
425	0.075
425	0.075
426	0.074
426	0.074
427	0.074
427	0.074
427	0.075
428	0.075
428	0.076
429	0.076
429	0.076
430	0.076
430	0.076
431	0.076
431	0.076
432	0.075
432	0.074
432	0.073
433	0.072
433	0.071
434	0.071
434	0.07
435	0.07
435	0.07
436	0.07
436	0.07
437	0.07
437	0.07
437	0.071
438	0.071
438	0.07
439	0.07
439	0.07
440	0.07
440	0.07
441	0.07
441	0.07
442	0.07
442	0.07
442	0.07
443	0.071
443	0.071
444	0.071
444	0.071
445	0.071
445	0.071
446	0.071
446	0.071
447	0.071
447	0.071
447	0.071
448	0.07
448	0.07
449	0.07
449	0.069
450	0.069
450	0.069
451	0.068
451	0.068
452	0.067
452	0.067
452	0.067
453	0.066
453	0.066
454	0.065
454	0.065
455	0.065
455	0.065
456	0.065
456	0.065
457	0.065
457	0.065
458	0.065
458	0.065
458	0.065
459	0.065
459	0.065
460	0.065
460	0.064
461	0.064
461	0.063
462	0.063
462	0.063
463	0.064
463	0.064
463	0.065
464	0.065
464	0.065
465	0.065
465	0.065
466	0.065
466	0.065
467	0.065
467	0.064
467	0.063
468	0.062
468	0.06
469	0.059
469	0.058
470	0.058
470	0.057
471	0.057
471	0.057
472	0.058
472	0.058
472	0.059
473	0.059
473	0.06
474	0.061
474	0.062
475	0.062
475	0.063
476	0.063
476	0.063
477	0.063
477	0.063
477	0.063
478	0.063
478	0.063
479	0.063
479	0.064
480	0.064
480	0.065
481	0.066
481	0.067
482	0.067
482	0.069
482	0.07
483	0.072
483	0.074
484	0.076
484	0.078
485	0.079
485	0.08
486	0.081
486	0.081
487	0.081
487	0.082
487	0.082
488	0.081
488	0.079
489	0.078
489	0.077
490	0.076
490	0.076
491	0.076
491	0.076
492	0.076
492	0.077
492	0.077
493	0.078
493	0.079
494	0.081
494	0.083
495	0.085
495	0.086
496	0.088
496	0.089
496	0.09
497	0.091
497	0.091
498	0.092
498	0.092
499	0.092
499	0.093
500	0.093
500	0.094
501	0.095
501	0.096
501	0.097
502	0.098
502	0.099
503	0.1
503	0.101
504	0.102
504	0.102
505	0.103
505	0.103
506	0.104
506	0.104
506	0.105
507	0.105
507	0.106
508	0.106
508	0.106
509	0.107
509	0.108
510	0.109
510	0.109
511	0.11
511	0.11
511	0.11
512	0.11
512	0.11
513	0.11
513	0.11
514	0.109
514	0.109
515	0.108
515	0.107
515	0.106
516	0.106
516	0.106
517	0.106
517	0.107
518	0.107
518	0.107
519	0.106
519	0.105
520	0.104
520	0.102
520	0.101
521	0.099
521	0.096
522	0.093
522	0.091
523	0.089
523	0.088
524	0.088
524	0.088
524	0.089
525	0.091
525	0.093
526	0.096
526	0.098
527	0.101
527	0.104
528	0.106
528	0.108
529	0.11
529	0.111
529	0.111
530	0.112
530	0.112
531	0.113
531	0.113
532	0.112
532	0.112
533	0.112
533	0.112
533	0.111
534	0.11
534	0.109
535	0.109
535	0.108
536	0.108
536	0.108
537	0.107
537	0.107
538	0.106
538	0.105
538	0.104
539	0.103
539	0.103
540	0.102
540	0.101
541	0.099
541	0.097
542	0.096
542	0.095
542	0.094
543	0.093
543	0.092
544	0.091
544	0.09
545	0.09
545	0.089
546	0.089
546	0.089
547	0.087
547	0.086
547	0.084
548	0.082
548	0.081
549	0.079
549	0.077
550	0.075
550	0.074
551	0.071
551	0.07
551	0.068
552	0.067
552	0.067
553	0.066
553	0.066
554	0.065
554	0.064
555	0.063
555	0.061
556	0.059
556	0.057
556	0.054
557	0.052
557	0.051
558	0.049
558	0.048
559	0.046
559	0.045
560	0.045
560	0.044
560	0.043
561	0.044
561	0.044
562	0.044
562	0.043
563	0.042
563	0.04
564	0.038
564	0.036
564	0.035
565	0.034
565	0.033
566	0.032
566	0.031
567	0.031
567	0.031
568	0.032
568	0.033
568	0.034
569	0.036
569	0.037
570	0.038
570	0.037
571	0.038
571	0.038
572	0.038
572	0.038
573	0.038
573	0.037
573	0.036
574	0.035
574	0.034
575	0.034
575	0.036
576	0.036
576	0.035
577	0.034
577	0.032
577	0.032
578	0.032
578	0.032
579	0.034
579	0.035
580	0.034
580	0.032
581	0.029
581	0.028
581	0.028
582	0.028
582	0.029
583	0.029
583	0.028
584	0.025
584	0.021
585	0.021
585	0.021
585	0.021
586	0.021
586	0.021
587	0.019
587	0.017
588	0.014
588	0.013
589	0.012
589	0.012
590	0.011
590	0.011
590	0.012
591	0.013
591	0.013
592	0.013
592	0.012
593	0.012
593	0.012
594	0.011
594	0.01
594	0.01
595	0.009
595	0.008
596	0.007
596	0.008
597	0.011
597	0.012
598	0.013
598	0.014
598	0.015
599	0.015
599	0.015
600	0.014
600	0.013
601	0.012
601	0.011
602	0.009
602	0.008
602	0.006
603	0.005
603	0.006
604	0.007
604	0.008
605	0.009
605	0.011
606	0.011
606	0.01
606	0.01
607	0.01
607	0.01
608	0.009
608	0.008
609	0.007
609	0.007
610	0.006
610	0.005
610	0.006
611	0.007
611	0.008
612	0.009
612	0.011
613	0.012
613	0.014
614	0.013
614	0.012
614	0.012
615	0.011
615	0.011
616	0.011
616	0.01
617	0.009
617	0.008
618	0.007
618	0.006
618	0.006
619	0.007
619	0.008
620	0.01
620	0.011
621	0.011
621	0.012
622	0.013
622	0.013
622	0.013
623	0.013
623	0.014
624	0.015
624	0.014
625	0.014
625	0.014
626	0.014
626	0.014
626	0.014
627	0.015
627	0.016
628	0.016
628	0.017
629	0.017
629	0.017
630	0.017
630	0.017
630	0.017
631	0.018
631	0.018
632	0.018
632	0.018
633	0.019
633	0.02
634	0.021
634	0.023
634	0.025
635	0.027
635	0.028
636	0.029
636	0.03
637	0.031
637	0.032
638	0.033
638	0.034
638	0.035
639	0.035
639	0.036
640	0.036
640	0.037
641	0.038
641	0.039
642	0.04
642	0.042
642	0.043
643	0.044
643	0.045
644	0.047
644	0.048
645	0.05
645	0.052
646	0.055
646	0.057
646	0.06
647	0.063
647	0.065
648	0.067
648	0.069
649	0.071
649	0.074
650	0.076
650	0.078
650	0.08
651	0.081
651	0.083
652	0.085
652	0.087
653	0.09
653	0.099
653	0.114
654	0.096
654	0.081
655	0.083
655	0.085
656	0.087
656	0.088
657	0.09
657	0.092
657	0.093
658	0.09
658	0.08
659	0.098
659	0.122
660	0.128
660	0.129
661	0.131
661	0.133
661	0.135
662	0.138
662	0.141
663	0.144
663	0.147
664	0.15
664	0.152
665	0.155
665	0.157
665	0.159
666	0.162
666	0.164
667	0.166
667	0.168
668	0.17
668	0.172
669	0.175
669	0.178
669	0.181
670	0.185
670	0.187
671	0.189
671	0.191
672	0.192
672	0.194
672	0.195
673	0.196
673	0.198
674	0.199
674	0.199
675	0.2
675	0.201
676	0.203
676	0.206
676	0.207
677	0.209
677	0.211
678	0.212
678	0.213
679	0.214
679	0.215
680	0.216
680	0.217
680	0.217
681	0.217
681	0.217
682	0.218
682	0.219
683	0.221
683	0.223
684	0.225
684	0.225
684	0.226
685	0.227
685	0.228
686	0.229
686	0.229
687	0.229
687	0.229
687	0.229
688	0.228
688	0.228
689	0.228
689	0.229
690	0.229
690	0.229
691	0.228
691	0.228
691	0.228
692	0.227
692	0.227
693	0.227
693	0.226
694	0.226
694	0.224
695	0.224
695	0.226
695	0.226
696	0.226
696	0.226
697	0.225
697	0.225
698	0.224
698	0.222
698	0.221
699	0.22
699	0.218
700	0.215
700	0.214
701	0.212
701	0.211
702	0.209
702	0.208
702	0.207
703	0.206
703	0.205
704	0.203
704	0.203
705	0.202
705	0.201
705	0.199
706	0.198
706	0.197
707	0.195
707	0.193
708	0.19
708	0.189
709	0.187
709	0.184
709	0.181
710	0.178
710	0.176
711	0.174
711	0.172
712	0.17
712	0.169
713	0.168
713	0.166
713	0.165
714	0.163
714	0.161
715	0.16
715	0.158
716	0.156
716	0.155
716	0.153
717	0.151
717	0.149
718	0.146
718	0.143
719	0.141
719	0.14
720	0.137
720	0.135
720	0.131
721	0.128
721	0.125
722	0.122
722	0.119
723	0.117
723	0.115
723	0.113
724	0.111
724	0.109
725	0.108
725	0.106
726	0.105
726	0.104
727	0.103
727	0.102
727	0.101
728	0.1
728	0.098
729	0.098
729	0.097
730	0.096
730	0.094
730	0.093
731	0.091
731	0.09
732	0.089
732	0.087
733	0.084
733	0.082
734	0.08
734	0.077
734	0.075
735	0.073
735	0.071
736	0.068
736	0.067
737	0.065
737	0.064
737	0.062
738	0.059
738	0.057
739	0.055
739	0.053
740	0.05
740	0.048
741	0.047
741	0.044
741	0.04
742	0.036
742	0.033
743	0.031
743	0.029
744	0.027
744	0.025
744	0.023
745	0.021
745	0.019
746	0.018
746	0.017
747	0.016
747	0.016
748	0.015
748	0.014
748	0.014
749	0.013
749	0.013
750	0.012
750	0.012
751	0.012
751	0.012
751	0.012
752	0.011
752	0.01
753	0.01
753	0.01
754	0.009
754	0.009
754	0.008
755	0.008
755	0.008
756	0.007
756	0.005
757	0.004
757	0.004
758	0.003
758	0.001
758	0.001
759	-0
759	-0.003
760	-0.005
760	-0.007
761	-0.009
761	-0.009
761	-0.011
762	-0.012
762	-0.013
763	-0.014
763	-0.016
764	-0.019
764	-0.021
764	-0.024
765	-0.026
765	-0.028
766	-0.03
766	-0.031
767	-0.032
767	-0.035
768	-0.038
768	-0.04
768	-0.041
769	-0.042
769	-0.042
770	-0.043
770	-0.044
771	-0.046
771	-0.049
771	-0.051
772	-0.053
772	-0.055
773	-0.056
773	-0.058
774	-0.061
774	-0.064
775	-0.066
775	-0.069
775	-0.072
776	-0.075
776	-0.078
777	-0.081
777	-0.084
778	-0.088
778	-0.092
778	-0.095
779	-0.097
779	-0.097
780	-0.098
780	-0.1
781	-0.102
781	-0.104
781	-0.106
782	-0.107
782	-0.11
783	-0.112
783	-0.113
784	-0.115
784	-0.118
784	-0.12
785	-0.122
785	-0.124
786	-0.124
786	-0.122
787	-0.117
787	-0.113
788	-0.112
788	-0.112
788	-0.113
789	-0.114
789	-0.113
790	-0.11
790	-0.108
791	-0.108
791	-0.11
791	-0.112
792	-0.107
792	-0.097
793	-0.092
793	-0.088
794	-0.087
794	-0.089
794	-0.093
795	-0.096
795	-0.096
796	-0.097
796	-0.099
797	-0.107
797	-0.117
797	-0.123
798	-0.128
798	-0.131
799	-0.131
799	-0.131
800	-0.131
800	-0.133
801	-0.136
801	-0.138
801	-0.138
802	-0.14
802	-0.141
803	-0.142
803	-0.142
804	-0.141
804	-0.136
804	-0.13
805	-0.126
805	-0.123
806	-0.121
806	-0.12
807	-0.119
807	-0.118
807	-0.118
808	-0.118
808	-0.119
809	-0.123
809	-0.129
810	-0.132
810	-0.135
810	-0.138
811	-0.14
811	-0.14
812	-0.136
812	-0.132
813	-0.131
813	-0.131
813	-0.132
814	-0.132
814	-0.132
815	-0.129
815	-0.126
816	-0.125
816	-0.125
817	-0.13
817	-0.133
817	-0.134
818	-0.133
818	-0.13
819	-0.126
819	-0.123
820	-0.125
820	-0.127
820	-0.128
821	-0.128
821	-0.128
822	-0.127
822	-0.125
823	-0.123
823	-0.123
823	-0.124
824	-0.123
824	-0.119
825	-0.113
825	-0.106
826	-0.099
826	-0.093
826	-0.088
827	-0.082
827	-0.078
828	-0.073
828	-0.069
829	-0.066
829	-0.063
829	-0.061
830	-0.059
830	-0.058
831	-0.055
831	-0.054
832	-0.052
832	-0.051
832	-0.05
833	-0.048
833	-0.047
834	-0.046
834	-0.045
835	-0.044
835	-0.044
835	-0.043
836	-0.043
836	-0.042
837	-0.042
837	-0.042
838	-0.042
838	-0.042
839	-0.042
839	-0.042
839	-0.042
840	-0.041
840	-0.041
841	-0.04
841	-0.04
842	-0.039
842	-0.038
842	-0.038
843	-0.037
843	-0.036
844	-0.035
844	-0.034
845	-0.033
845	-0.032
845	-0.032
846	-0.031
846	-0.031
847	-0.03
847	-0.03
848	-0.03
848	-0.03
848	-0.03
849	-0.03
849	-0.03
850	-0.031
850	-0.032
851	-0.032
851	-0.031
851	-0.032
852	-0.032
852	-0.031
853	-0.03
853	-0.03
854	-0.029
854	-0.029
854	-0.028
855	-0.027
855	-0.026
856	-0.025
856	-0.024
857	-0.023
857	-0.023
857	-0.022
858	-0.021
858	-0.021
859	-0.021
859	-0.02
860	-0.02
860	-0.019
860	-0.019
861	-0.019
861	-0.018
862	-0.018
862	-0.018
863	-0.018
863	-0.018
863	-0.018
864	-0.019
864	-0.019
865	-0.019
865	-0.02
866	-0.02
866	-0.02
866	-0.02
867	-0.02
867	-0.02
868	-0.019
868	-0.019
869	-0.018
869	-0.017
869	-0.016
870	-0.015
870	-0.013
871	-0.012
871	-0.012
872	-0.011
872	-0.011
872	-0.01
873	-0.01
873	-0.01
874	-0.01
874	-0.01
875	-0.01
875	-0.01
875	-0.01
876	-0.011
876	-0.011
877	-0.011
877	-0.012
878	-0.013
878	-0.013
878	-0.013
879	-0.014
879	-0.015
880	-0.015
880	-0.016
881	-0.016
881	-0.016
881	-0.015
882	-0.014
882	-0.014
883	-0.013
883	-0.012
884	-0.012
884	-0.011
884	-0.01
885	-0.01
885	-0.009
886	-0.009
886	-0.009
887	-0.009
887	-0.009
887	-0.008
888	-0.008
888	-0.008
889	-0.007
889	-0.006
890	-0.005
890	-0.005
890	-0.004
891	-0.004
891	-0.003
892	-0.003
892	-0.003
893	-0.003
893	-0.004
893	-0.004
894	-0.005
894	-0.006
895	-0.006
895	-0.007
895	-0.008
896	-0.009
896	-0.009
897	-0.01
897	-0.01
898	-0.01
898	-0.01
898	-0.01
899	-0.01
899	-0.01
900	-0.011
900	-0.01
901	-0.01
901	-0.01
901	-0.01
902	-0.01
902	-0.01
903	-0.011
903	-0.011
904	-0.011
904	-0.012
904	-0.012
905	-0.013
905	-0.013
906	-0.014
906	-0.015
907	-0.015
907	-0.016
907	-0.016
908	-0.017
908	-0.017
909	-0.018
909	-0.017
910	-0.017
910	-0.017
910	-0.017
911	-0.016
911	-0.016
912	-0.016
912	-0.015
913	-0.015
913	-0.015
913	-0.016
914	-0.016
914	-0.017
915	-0.017
915	-0.018
916	-0.018
916	-0.018
916	-0.018
917	-0.018
917	-0.017
918	-0.017
918	-0.016
918	-0.014
919	-0.013
919	-0.011
920	-0.01
920	-0.008
921	-0.007
921	-0.006
921	-0.005
922	-0.003
922	-0.002
923	-0.001
923	-0
924	0.001
924	0.001
924	0.002
925	0.002
925	0.003
926	0.003
926	0.003
927	0.003
927	0.003
927	0.003
928	0.003
928	0.003
929	0.003
929	0.003
930	0.003
930	0.002
930	0.001
931	0
931	-0
932	-0.001
932	-0.002
933	-0.004
933	-0.005
933	-0.006
934	-0.008
934	-0.009
935	-0.01
935	-0.011
935	-0.012
936	-0.012
936	-0.013
937	-0.013
937	-0.013
938	-0.013
938	-0.013
938	-0.012
939	-0.012
939	-0.011
940	-0.01
940	-0.009
941	-0.008
941	-0.007
941	-0.006
942	-0.006
942	-0.005
943	-0.004
943	-0.004
944	-0.004
944	-0.004
944	-0.004
945	-0.003
945	-0.003
946	-0.003
946	-0.003
946	-0.003
947	-0.003
947	-0.003
948	-0.003
948	-0.003
949	-0.004
949	-0.003
949	-0.003
950	-0.003
950	-0.003
951	-0.003
951	-0.004
952	-0.004
952	-0.003
952	-0.003
953	-0.003
953	-0.002
954	-0.002
954	-0.002
955	-0.002
955	-0.002
955	-0.002
956	-0.001
956	-0.001
957	-0.001
957	-0.001
957	-0.002
958	-0.002
958	-0.003
959	-0.003
959	-0.004
960	-0.004
960	-0.005
960	-0.006
961	-0.007
961	-0.008
962	-0.009
962	-0.009
963	-0.009
963	-0.009
963	-0.008
964	-0.008
964	-0.007
965	-0.006
965	-0.005
966	-0.004
966	-0.003
966	-0.002
967	-0.001
967	-0
968	-0
968	0
968	0.001
969	0.001
969	0.001
970	0.001
970	0.001
971	0
971	-0
971	-0.001
972	-0.001
972	-0.001
973	-0.002
973	-0.003
974	-0.004
974	-0.005
974	-0.006
975	-0.007
975	-0.008
976	-0.009
976	-0.01
976	-0.011
977	-0.013
977	-0.015
978	-0.016
978	-0.017
979	-0.018
979	-0.019
979	-0.019
980	-0.019
980	-0.019
981	-0.019
981	-0.018
982	-0.017
982	-0.016
982	-0.014
983	-0.013
983	-0.012
984	-0.01
984	-0.009
984	-0.007
985	-0.007
985	-0.006
986	-0.006
986	-0.006
987	-0.006
987	-0.007
987	-0.007
988	-0.008
988	-0.008
989	-0.01
989	-0.011
990	-0.012
990	-0.013
990	-0.013
991	-0.013
991	-0.014
992	-0.014
992	-0.014
992	-0.015
993	-0.015
993	-0.016
994	-0.016
994	-0.017
995	-0.018
995	-0.019
995	-0.019
996	-0.02
996	-0.021
997	-0.021
997	-0.022
997	-0.022
998	-0.021
998	-0.021
999	-0.02
999	-0.02
1000	-0.019
1000	-0.018
1000	-0.017
1001	-0.016
1001	-0.016
1002	-0.015
1002	-0.015
1003	-0.014
1003	-0.014
1003	-0.014
1004	-0.014
1004	-0.014
1005	-0.013
1005	-0.013
1005	-0.013
1006	-0.012
1006	-0.012
1007	-0.011
1007	-0.011
1008	-0.01
1008	-0.01
1008	-0.009
1009	-0.008
1009	-0.008
1010	-0.007
1010	-0.007
1010	-0.007
1011	-0.006
1011	-0.007
1012	-0.006
1012	-0.007
1013	-0.007
1013	-0.007
1013	-0.008
1014	-0.009
1014	-0.01
1015	-0.01
1015	-0.011
1016	-0.012
1016	-0.012
1016	-0.013
1017	-0.014
1017	-0.014
1018	-0.014
1018	-0.014
1018	-0.014
1019	-0.014
1019	-0.014
1020	-0.014
1020	-0.014
1021	-0.014
1021	-0.014
1021	-0.014
1022	-0.014
1022	-0.014
1023	-0.015
1023	-0.015
1023	-0.016
1024	-0.017
1024	-0.017
1025	-0.018
1025	-0.019
1026	-0.019
1026	-0.019
1026	-0.019
1027	-0.019
1027	-0.019
1028	-0.019
1028	-0.018
1028	-0.017
1029	-0.017
1029	-0.016
1030	-0.015
1030	-0.015
1031	-0.014
1031	-0.014
1031	-0.013
1032	-0.013
1032	-0.012
1033	-0.012
1033	-0.012
1033	-0.012
1034	-0.012
1034	-0.013
1035	-0.013
1035	-0.014
1036	-0.014
1036	-0.015
1036	-0.015
1037	-0.016
1037	-0.016
1038	-0.017
1038	-0.017
1039	-0.017
1039	-0.017
1039	-0.017
1040	-0.017
1040	-0.017
1041	-0.017
1041	-0.017
1041	-0.017
1042	-0.018
1042	-0.018
1043	-0.019
1043	-0.019
1044	-0.02
1044	-0.02
1044	-0.021
1045	-0.021
1045	-0.022
1046	-0.022
1046	-0.022
1046	-0.022
1047	-0.022
1047	-0.021
1048	-0.021
1048	-0.02
1049	-0.02
1049	-0.02
1049	-0.02
1050	-0.02
1050	-0.02
1051	-0.02
1051	-0.019
1051	-0.018
1052	-0.017
1052	-0.017
1053	-0.016
1053	-0.014
1053	-0.013
1054	-0.012
1054	-0.011
1055	-0.009
1055	-0.008
1056	-0.008
1056	-0.007
1056	-0.008
1057	-0.007
1057	-0.007
1058	-0.006
1058	-0.006
1058	-0.006
1059	-0.006
1059	-0.005
1060	-0.005
1060	-0.005
1061	-0.004
1061	-0.003
1061	-0.003
1062	-0.002
1062	-0.002
1063	-0.002
1063	-0.002
1063	-0.003
1064	-0.002
1064	-0.001
1065	-0.001
1065	-0.001
1066	-0.001
1066	-0
1066	0
1067	0.001
1067	0.002
1068	0.002
1068	0.002
1068	0.003
1069	0.003
1069	0.003
1070	0.004
1070	0.004
1071	0.005
1071	0.006
1071	0.007
1072	0.008
1072	0.01
1073	0.011
1073	0.013
1073	0.014
1074	0.016
1074	0.017
1075	0.018
1075	0.019
1076	0.02
1076	0.021
1076	0.022
1077	0.023
1077	0.024
1078	0.025
1078	0.026
1078	0.028
1079	0.03
1079	0.032
1080	0.034
1080	0.036
1080	0.037
1081	0.039
1081	0.041
1082	0.043
1082	0.045
1083	0.046
1083	0.047
1083	0.05
1084	0.052
1084	0.055
1085	0.057
1085	0.06
1085	0.062
1086	0.065
1086	0.065
1087	0.069
1087	0.071
1088	0.073
1088	0.075
1088	0.078
1089	0.08
1089	0.083
1090	0.085
1090	0.09
1090	0.094
1091	0.099
1091	0.105
1092	0.11
1092	0.118
1092	0.124
1093	0.13
1093	0.14
1094	0.147
1094	0.156
1095	0.164
1095	0.174
1095	0.186
1096	0.197
1096	0.21
1097	0.225
1097	0.238
1097	0.256
1098	0.273
1098	0.294
1099	0.315
1099	0.339
1100	0.365
1100	0.394
1100	0.428
1101	0.467
1101	0.51
1102	0.564
1102	0.628
1102	0.714
1103	0.817
1103	0.974
1104	1.25
1104	2.206
1104	-0
1105	-0
1105	-0
1106	-0
1106	-0
1107	-0
1107	-0
1107	-0
1108	-0
1108	-0
1109	-0
1109	-0
1109	-0
1110	-0
1110	-0
1111	-0
1111	-0
