Data from 15c-100ul-ns-20ul-nr-full-exp-7ul-bp_Absorbance__705__05043.txt Node

Date: Mon Jan 15 15:36:19 CET 2024
User: Marek
Spectrometer: MAYP115816
Trigger mode: 0
Integration Time (sec): 2.000000E-1
Scans to average: 10
Electric dark correction enabled: true
Nonlinearity correction enabled: true
Boxcar width: 5
XAxis mode: Wavelengths
Number of Pixels in Spectrum: 2068
>>>>>Begin Spectral Data<<<<<
199	-1.942
199	-1.812
200	-1.669
200	-1.558
201	-1.485
201	-1.434
202	-1.363
202	-1.308
203	-1.258
203	-1.219
204	-1.19
204	-1.167
205	-1.146
205	-1.137
205	-1.134
206	-1.133
206	-1.131
207	-1.127
207	-1.123
208	-1.122
208	-1.116
209	-1.115
209	-1.114
210	-1.113
210	-1.112
211	-1.111
211	-1.109
212	-1.106
212	-1.105
213	-1.105
213	-1.104
213	-1.104
214	-1.103
214	-1.104
215	-1.103
215	-1.103
216	-1.102
216	-1.101
217	-1.1
217	-1.1
218	-1.098
218	-1.094
219	-1.092
219	-1.091
220	-1.086
220	-1.082
221	-1.078
221	-1.073
221	-1.068
222	-1.063
222	-1.058
223	-1.05
223	-1.047
224	-1.041
224	-1.032
225	-1.024
225	-1.013
226	-1.003
226	-0.991
227	-0.976
227	-0.96
228	-0.941
228	-0.921
229	-0.896
229	-0.867
229	-0.838
230	-0.806
230	-0.772
231	-0.732
231	-0.693
232	-0.652
232	-0.607
233	-0.562
233	-0.516
234	-0.469
234	-0.423
235	-0.377
235	-0.331
236	-0.287
236	-0.244
236	-0.202
237	-0.162
237	-0.125
238	-0.089
238	-0.056
239	-0.024
239	0.005
240	0.032
240	0.056
241	0.079
241	0.1
242	0.119
242	0.136
243	0.152
243	0.167
243	0.18
244	0.192
244	0.203
245	0.213
245	0.222
246	0.231
246	0.238
247	0.245
247	0.252
248	0.258
248	0.264
249	0.269
249	0.274
250	0.279
250	0.283
250	0.288
251	0.291
251	0.295
252	0.299
252	0.301
253	0.304
253	0.307
254	0.309
254	0.312
255	0.313
255	0.315
256	0.317
256	0.319
257	0.32
257	0.321
258	0.322
258	0.323
258	0.324
259	0.325
259	0.325
260	0.326
260	0.326
261	0.326
261	0.326
262	0.326
262	0.326
263	0.326
263	0.326
264	0.325
264	0.325
265	0.324
265	0.324
265	0.323
266	0.323
266	0.322
267	0.321
267	0.32
268	0.319
268	0.318
269	0.317
269	0.315
270	0.314
270	0.312
271	0.311
271	0.309
272	0.308
272	0.306
272	0.305
273	0.303
273	0.302
274	0.3
274	0.299
275	0.298
275	0.296
276	0.294
276	0.293
277	0.291
277	0.289
278	0.287
278	0.286
278	0.283
279	0.281
279	0.278
280	0.277
280	0.275
281	0.273
281	0.271
282	0.269
282	0.267
283	0.266
283	0.264
284	0.263
284	0.263
285	0.261
285	0.26
285	0.259
286	0.257
286	0.256
287	0.255
287	0.253
288	0.252
288	0.251
289	0.249
289	0.248
290	0.247
290	0.246
291	0.244
291	0.243
292	0.242
292	0.241
292	0.24
293	0.239
293	0.238
294	0.237
294	0.236
295	0.235
295	0.234
296	0.233
296	0.232
297	0.231
297	0.23
298	0.229
298	0.228
298	0.228
299	0.227
299	0.226
300	0.225
300	0.225
301	0.224
301	0.223
302	0.222
302	0.221
303	0.221
303	0.22
304	0.219
304	0.219
305	0.218
305	0.217
305	0.216
306	0.215
306	0.215
307	0.214
307	0.213
308	0.212
308	0.211
309	0.21
309	0.21
310	0.209
310	0.208
311	0.208
311	0.207
311	0.206
312	0.205
312	0.205
313	0.204
313	0.203
314	0.202
314	0.201
315	0.201
315	0.2
316	0.199
316	0.198
317	0.198
317	0.197
318	0.196
318	0.195
318	0.194
319	0.194
319	0.193
320	0.192
320	0.191
321	0.19
321	0.189
322	0.189
322	0.188
323	0.187
323	0.186
324	0.185
324	0.185
324	0.184
325	0.183
325	0.183
326	0.182
326	0.181
327	0.181
327	0.18
328	0.179
328	0.179
329	0.178
329	0.177
330	0.176
330	0.176
330	0.175
331	0.174
331	0.174
332	0.173
332	0.172
333	0.171
333	0.171
334	0.17
334	0.169
335	0.169
335	0.168
336	0.167
336	0.167
336	0.166
337	0.165
337	0.165
338	0.164
338	0.163
339	0.163
339	0.162
340	0.162
340	0.161
341	0.16
341	0.16
342	0.159
342	0.159
342	0.158
343	0.157
343	0.157
344	0.156
344	0.156
345	0.155
345	0.155
346	0.155
346	0.154
347	0.153
347	0.153
348	0.152
348	0.152
348	0.151
349	0.15
349	0.15
350	0.149
350	0.149
351	0.148
351	0.148
352	0.147
352	0.147
353	0.146
353	0.145
354	0.145
354	0.144
354	0.143
355	0.142
355	0.142
356	0.142
356	0.141
357	0.141
357	0.141
358	0.141
358	0.141
359	0.141
359	0.141
360	0.142
360	0.142
360	0.142
361	0.142
361	0.142
362	0.142
362	0.142
363	0.142
363	0.142
364	0.141
364	0.141
365	0.141
365	0.14
366	0.14
366	0.14
366	0.14
367	0.139
367	0.139
368	0.139
368	0.138
369	0.138
369	0.137
370	0.137
370	0.137
371	0.136
371	0.136
372	0.136
372	0.135
372	0.135
373	0.135
373	0.135
374	0.135
374	0.135
375	0.135
375	0.135
376	0.135
376	0.135
377	0.135
377	0.135
378	0.135
378	0.135
378	0.135
379	0.135
379	0.135
380	0.135
380	0.135
381	0.135
381	0.135
382	0.134
382	0.134
383	0.133
383	0.133
383	0.133
384	0.132
384	0.132
385	0.132
385	0.131
386	0.131
386	0.131
387	0.131
387	0.131
388	0.131
388	0.13
389	0.13
389	0.13
389	0.13
390	0.13
390	0.131
391	0.131
391	0.131
392	0.131
392	0.131
393	0.131
393	0.131
394	0.13
394	0.13
394	0.13
395	0.129
395	0.129
396	0.128
396	0.128
397	0.128
397	0.128
398	0.128
398	0.128
399	0.128
399	0.128
400	0.128
400	0.128
400	0.128
401	0.127
401	0.126
402	0.125
402	0.125
403	0.125
403	0.124
404	0.124
404	0.124
405	0.124
405	0.124
405	0.123
406	0.123
406	0.123
407	0.123
407	0.123
408	0.123
408	0.122
409	0.122
409	0.121
410	0.121
410	0.121
411	0.121
411	0.121
411	0.12
412	0.12
412	0.119
413	0.119
413	0.119
414	0.118
414	0.118
415	0.118
415	0.117
416	0.117
416	0.116
416	0.116
417	0.116
417	0.116
418	0.116
418	0.116
419	0.116
419	0.117
420	0.117
420	0.118
421	0.118
421	0.118
421	0.119
422	0.119
422	0.119
423	0.119
423	0.118
424	0.117
424	0.117
425	0.116
425	0.115
426	0.115
426	0.115
427	0.115
427	0.115
427	0.115
428	0.116
428	0.116
429	0.117
429	0.117
430	0.117
430	0.117
431	0.117
431	0.116
432	0.116
432	0.115
432	0.114
433	0.113
433	0.112
434	0.112
434	0.112
435	0.111
435	0.111
436	0.111
436	0.111
437	0.111
437	0.111
437	0.111
438	0.111
438	0.111
439	0.11
439	0.11
440	0.11
440	0.11
441	0.11
441	0.11
442	0.11
442	0.11
442	0.111
443	0.111
443	0.111
444	0.111
444	0.111
445	0.112
445	0.112
446	0.112
446	0.112
447	0.111
447	0.111
447	0.111
448	0.111
448	0.111
449	0.11
449	0.11
450	0.11
450	0.109
451	0.109
451	0.108
452	0.108
452	0.108
452	0.107
453	0.107
453	0.106
454	0.106
454	0.106
455	0.105
455	0.105
456	0.105
456	0.105
457	0.105
457	0.105
458	0.106
458	0.106
458	0.106
459	0.106
459	0.106
460	0.106
460	0.105
461	0.105
461	0.105
462	0.105
462	0.105
463	0.105
463	0.106
463	0.106
464	0.106
464	0.107
465	0.107
465	0.107
466	0.107
466	0.107
467	0.107
467	0.106
467	0.105
468	0.104
468	0.103
469	0.102
469	0.101
470	0.1
470	0.1
471	0.1
471	0.1
472	0.1
472	0.1
472	0.101
473	0.102
473	0.103
474	0.104
474	0.104
475	0.105
475	0.106
476	0.106
476	0.106
477	0.106
477	0.106
477	0.107
478	0.107
478	0.107
479	0.107
479	0.108
480	0.109
480	0.11
481	0.111
481	0.111
482	0.112
482	0.114
482	0.115
483	0.117
483	0.119
484	0.122
484	0.123
485	0.124
485	0.125
486	0.126
486	0.126
487	0.127
487	0.127
487	0.127
488	0.127
488	0.126
489	0.125
489	0.124
490	0.124
490	0.124
491	0.124
491	0.124
492	0.125
492	0.126
492	0.126
493	0.127
493	0.129
494	0.131
494	0.133
495	0.135
495	0.137
496	0.138
496	0.14
496	0.141
497	0.142
497	0.143
498	0.144
498	0.145
499	0.145
499	0.145
500	0.146
500	0.147
501	0.148
501	0.149
501	0.151
502	0.152
502	0.153
503	0.155
503	0.156
504	0.157
504	0.157
505	0.158
505	0.159
506	0.16
506	0.161
506	0.161
507	0.162
507	0.162
508	0.163
508	0.164
509	0.165
509	0.166
510	0.167
510	0.168
511	0.168
511	0.168
511	0.169
512	0.169
512	0.17
513	0.17
513	0.17
514	0.169
514	0.169
515	0.169
515	0.168
515	0.168
516	0.168
516	0.169
517	0.169
517	0.169
518	0.17
518	0.169
519	0.169
519	0.168
520	0.167
520	0.165
520	0.163
521	0.161
521	0.159
522	0.157
522	0.155
523	0.154
523	0.154
524	0.155
524	0.156
524	0.158
525	0.16
525	0.162
526	0.165
526	0.167
527	0.17
527	0.172
528	0.173
528	0.175
529	0.175
529	0.176
529	0.176
530	0.176
530	0.176
531	0.176
531	0.176
532	0.175
532	0.175
533	0.175
533	0.174
533	0.173
534	0.172
534	0.171
535	0.17
535	0.17
536	0.17
536	0.169
537	0.168
537	0.167
538	0.166
538	0.165
538	0.163
539	0.162
539	0.162
540	0.16
540	0.159
541	0.157
541	0.155
542	0.154
542	0.152
542	0.151
543	0.15
543	0.148
544	0.147
544	0.146
545	0.145
545	0.144
546	0.144
546	0.143
547	0.141
547	0.139
547	0.137
548	0.135
548	0.133
549	0.13
549	0.128
550	0.126
550	0.124
551	0.121
551	0.119
551	0.117
552	0.116
552	0.115
553	0.114
553	0.113
554	0.113
554	0.111
555	0.109
555	0.107
556	0.105
556	0.102
556	0.1
557	0.098
557	0.096
558	0.094
558	0.092
559	0.09
559	0.089
560	0.087
560	0.086
560	0.085
561	0.085
561	0.085
562	0.084
562	0.083
563	0.081
563	0.079
564	0.077
564	0.075
564	0.073
565	0.072
565	0.071
566	0.069
566	0.068
567	0.067
567	0.067
568	0.067
568	0.068
568	0.068
569	0.069
569	0.07
570	0.07
570	0.069
571	0.069
571	0.069
572	0.069
572	0.068
573	0.067
573	0.066
573	0.065
574	0.064
574	0.063
575	0.063
575	0.064
576	0.064
576	0.062
577	0.061
577	0.059
577	0.059
578	0.058
578	0.059
579	0.06
579	0.061
580	0.059
580	0.056
581	0.053
581	0.052
581	0.052
582	0.052
582	0.052
583	0.053
583	0.051
584	0.048
584	0.044
585	0.043
585	0.044
585	0.044
586	0.043
586	0.043
587	0.041
587	0.038
588	0.036
588	0.035
589	0.034
589	0.034
590	0.034
590	0.033
590	0.034
591	0.035
591	0.035
592	0.034
592	0.033
593	0.033
593	0.033
594	0.032
594	0.031
594	0.03
595	0.03
595	0.029
596	0.028
596	0.029
597	0.031
597	0.032
598	0.033
598	0.034
598	0.034
599	0.034
599	0.034
600	0.032
600	0.031
601	0.031
601	0.029
602	0.027
602	0.026
602	0.025
603	0.024
603	0.025
604	0.026
604	0.026
605	0.028
605	0.029
606	0.029
606	0.028
606	0.028
607	0.027
607	0.028
608	0.027
608	0.026
609	0.025
609	0.025
610	0.024
610	0.023
610	0.024
611	0.025
611	0.026
612	0.027
612	0.029
613	0.03
613	0.031
614	0.031
614	0.03
614	0.03
615	0.03
615	0.029
616	0.029
616	0.029
617	0.028
617	0.027
618	0.026
618	0.026
618	0.026
619	0.026
619	0.027
620	0.029
620	0.03
621	0.031
621	0.032
622	0.032
622	0.033
622	0.033
623	0.033
623	0.034
624	0.035
624	0.034
625	0.034
625	0.034
626	0.034
626	0.034
626	0.035
627	0.036
627	0.037
628	0.038
628	0.038
629	0.039
629	0.039
630	0.039
630	0.039
630	0.039
631	0.04
631	0.041
632	0.041
632	0.041
633	0.042
633	0.043
634	0.045
634	0.046
634	0.048
635	0.05
635	0.051
636	0.052
636	0.053
637	0.054
637	0.055
638	0.057
638	0.058
638	0.059
639	0.059
639	0.06
640	0.061
640	0.061
641	0.062
641	0.063
642	0.065
642	0.066
642	0.067
643	0.069
643	0.07
644	0.072
644	0.073
645	0.075
645	0.078
646	0.08
646	0.083
646	0.086
647	0.089
647	0.091
648	0.093
648	0.096
649	0.098
649	0.1
650	0.103
650	0.105
650	0.107
651	0.109
651	0.111
652	0.113
652	0.116
653	0.119
653	0.128
653	0.143
654	0.118
654	0.099
655	0.1
655	0.102
656	0.104
656	0.106
657	0.108
657	0.11
657	0.111
658	0.108
658	0.098
659	0.122
659	0.154
660	0.16
660	0.162
661	0.164
661	0.166
661	0.169
662	0.172
662	0.175
663	0.179
663	0.181
664	0.184
664	0.187
665	0.19
665	0.193
665	0.195
666	0.198
666	0.2
667	0.202
667	0.205
668	0.207
668	0.21
669	0.213
669	0.216
669	0.219
670	0.223
670	0.225
671	0.228
671	0.229
672	0.231
672	0.233
672	0.234
673	0.236
673	0.237
674	0.238
674	0.239
675	0.24
675	0.241
676	0.244
676	0.246
676	0.248
677	0.249
677	0.251
678	0.253
678	0.254
679	0.254
679	0.255
680	0.257
680	0.257
680	0.257
681	0.257
681	0.258
682	0.259
682	0.26
683	0.262
683	0.264
684	0.266
684	0.266
684	0.267
685	0.268
685	0.269
686	0.27
686	0.27
687	0.27
687	0.27
687	0.27
688	0.27
688	0.269
689	0.27
689	0.271
690	0.271
690	0.271
691	0.27
691	0.27
691	0.27
692	0.269
692	0.268
693	0.268
693	0.267
694	0.266
694	0.265
695	0.265
695	0.267
695	0.267
696	0.267
696	0.266
697	0.266
697	0.265
698	0.264
698	0.263
698	0.261
699	0.26
699	0.258
700	0.255
700	0.253
701	0.252
701	0.25
702	0.248
702	0.247
702	0.245
703	0.243
703	0.242
704	0.24
704	0.239
705	0.238
705	0.237
705	0.235
706	0.233
706	0.232
707	0.23
707	0.228
708	0.226
708	0.224
709	0.221
709	0.219
709	0.215
710	0.212
710	0.21
711	0.208
711	0.205
712	0.204
712	0.202
713	0.201
713	0.199
713	0.198
714	0.196
714	0.194
715	0.192
715	0.19
716	0.188
716	0.186
716	0.184
717	0.181
717	0.179
718	0.176
718	0.173
719	0.171
719	0.169
720	0.166
720	0.163
720	0.16
721	0.156
721	0.153
722	0.15
722	0.147
723	0.145
723	0.143
723	0.141
724	0.138
724	0.136
725	0.134
725	0.133
726	0.132
726	0.131
727	0.129
727	0.128
727	0.127
728	0.125
728	0.123
729	0.122
729	0.121
730	0.12
730	0.118
730	0.116
731	0.115
731	0.113
732	0.112
732	0.11
733	0.108
733	0.106
734	0.103
734	0.101
734	0.099
735	0.097
735	0.094
736	0.092
736	0.09
737	0.088
737	0.086
737	0.085
738	0.082
738	0.079
739	0.077
739	0.075
740	0.073
740	0.071
741	0.069
741	0.067
741	0.064
742	0.06
742	0.057
743	0.055
743	0.053
744	0.051
744	0.049
744	0.046
745	0.044
745	0.042
746	0.04
746	0.039
747	0.038
747	0.037
748	0.036
748	0.035
748	0.034
749	0.033
749	0.033
750	0.032
750	0.031
751	0.031
751	0.031
751	0.031
752	0.03
752	0.029
753	0.028
753	0.027
754	0.027
754	0.026
754	0.026
755	0.026
755	0.026
756	0.025
756	0.023
757	0.022
757	0.021
758	0.021
758	0.02
758	0.019
759	0.018
759	0.015
760	0.013
760	0.011
761	0.01
761	0.009
761	0.008
762	0.006
762	0.005
763	0.004
763	0.001
764	-0.002
764	-0.004
764	-0.007
765	-0.009
765	-0.012
766	-0.013
766	-0.014
767	-0.016
767	-0.019
768	-0.022
768	-0.024
768	-0.024
769	-0.025
769	-0.025
770	-0.026
770	-0.028
771	-0.03
771	-0.032
771	-0.034
772	-0.036
772	-0.037
773	-0.039
773	-0.041
774	-0.044
774	-0.046
775	-0.049
775	-0.051
775	-0.054
776	-0.057
776	-0.06
777	-0.063
777	-0.066
778	-0.069
778	-0.072
778	-0.076
779	-0.077
779	-0.079
780	-0.082
780	-0.085
781	-0.089
781	-0.093
781	-0.097
782	-0.1
782	-0.105
783	-0.109
783	-0.112
784	-0.115
784	-0.118
784	-0.121
785	-0.123
785	-0.125
786	-0.125
786	-0.123
787	-0.119
787	-0.115
788	-0.113
788	-0.114
788	-0.114
789	-0.116
789	-0.115
790	-0.112
790	-0.11
791	-0.11
791	-0.111
791	-0.113
792	-0.109
792	-0.099
793	-0.093
793	-0.09
794	-0.089
794	-0.091
794	-0.095
795	-0.098
795	-0.098
796	-0.098
796	-0.101
797	-0.109
797	-0.119
797	-0.125
798	-0.13
798	-0.132
799	-0.133
799	-0.133
800	-0.133
800	-0.135
801	-0.138
801	-0.139
801	-0.14
802	-0.142
802	-0.143
803	-0.144
803	-0.144
804	-0.143
804	-0.138
804	-0.131
805	-0.127
805	-0.125
806	-0.123
806	-0.121
807	-0.12
807	-0.12
807	-0.119
808	-0.119
808	-0.12
809	-0.125
809	-0.13
810	-0.134
810	-0.136
810	-0.139
811	-0.142
811	-0.142
812	-0.137
812	-0.134
813	-0.133
813	-0.133
813	-0.133
814	-0.134
814	-0.133
815	-0.131
815	-0.128
816	-0.126
816	-0.127
817	-0.131
817	-0.135
817	-0.135
818	-0.135
818	-0.132
819	-0.127
819	-0.125
820	-0.126
820	-0.128
820	-0.13
821	-0.129
821	-0.127
822	-0.125
822	-0.121
823	-0.118
823	-0.117
823	-0.117
824	-0.115
824	-0.11
825	-0.103
825	-0.095
826	-0.088
826	-0.083
826	-0.078
827	-0.073
827	-0.069
828	-0.065
828	-0.062
829	-0.058
829	-0.055
829	-0.053
830	-0.051
830	-0.05
831	-0.047
831	-0.045
832	-0.044
832	-0.043
832	-0.042
833	-0.041
833	-0.04
834	-0.039
834	-0.039
835	-0.038
835	-0.038
835	-0.038
836	-0.037
836	-0.037
837	-0.037
837	-0.037
838	-0.036
838	-0.036
839	-0.037
839	-0.037
839	-0.037
840	-0.036
840	-0.036
841	-0.036
841	-0.035
842	-0.035
842	-0.034
842	-0.034
843	-0.033
843	-0.032
844	-0.031
844	-0.03
845	-0.03
845	-0.029
845	-0.028
846	-0.028
846	-0.028
847	-0.027
847	-0.027
848	-0.027
848	-0.027
848	-0.026
849	-0.026
849	-0.026
850	-0.027
850	-0.027
851	-0.027
851	-0.027
851	-0.027
852	-0.027
852	-0.027
853	-0.027
853	-0.027
854	-0.026
854	-0.025
854	-0.025
855	-0.024
855	-0.024
856	-0.023
856	-0.023
857	-0.022
857	-0.021
857	-0.021
858	-0.021
858	-0.02
859	-0.02
859	-0.02
860	-0.02
860	-0.019
860	-0.019
861	-0.019
861	-0.019
862	-0.019
862	-0.019
863	-0.019
863	-0.019
863	-0.019
864	-0.019
864	-0.019
865	-0.019
865	-0.019
866	-0.02
866	-0.02
866	-0.019
867	-0.019
867	-0.019
868	-0.018
868	-0.017
869	-0.016
869	-0.015
869	-0.015
870	-0.014
870	-0.013
871	-0.012
871	-0.011
872	-0.011
872	-0.011
872	-0.01
873	-0.01
873	-0.01
874	-0.01
874	-0.01
875	-0.01
875	-0.01
875	-0.01
876	-0.01
876	-0.01
877	-0.01
877	-0.011
878	-0.011
878	-0.012
878	-0.012
879	-0.013
879	-0.014
880	-0.015
880	-0.015
881	-0.016
881	-0.016
881	-0.015
882	-0.015
882	-0.014
883	-0.013
883	-0.013
884	-0.012
884	-0.011
884	-0.011
885	-0.01
885	-0.01
886	-0.009
886	-0.009
887	-0.009
887	-0.009
887	-0.009
888	-0.009
888	-0.008
889	-0.007
889	-0.006
890	-0.005
890	-0.005
890	-0.004
891	-0.003
891	-0.003
892	-0.003
892	-0.003
893	-0.003
893	-0.003
893	-0.004
894	-0.005
894	-0.006
895	-0.007
895	-0.008
895	-0.009
896	-0.01
896	-0.011
897	-0.011
897	-0.011
898	-0.012
898	-0.012
898	-0.011
899	-0.011
899	-0.011
900	-0.011
900	-0.011
901	-0.011
901	-0.01
901	-0.01
902	-0.01
902	-0.01
903	-0.011
903	-0.011
904	-0.011
904	-0.012
904	-0.012
905	-0.013
905	-0.013
906	-0.014
906	-0.014
907	-0.015
907	-0.015
907	-0.016
908	-0.017
908	-0.017
909	-0.017
909	-0.017
910	-0.017
910	-0.016
910	-0.016
911	-0.016
911	-0.016
912	-0.015
912	-0.015
913	-0.015
913	-0.016
913	-0.016
914	-0.016
914	-0.017
915	-0.018
915	-0.018
916	-0.019
916	-0.019
916	-0.019
917	-0.019
917	-0.018
918	-0.017
918	-0.016
918	-0.015
919	-0.013
919	-0.012
920	-0.01
920	-0.008
921	-0.007
921	-0.006
921	-0.005
922	-0.004
922	-0.003
923	-0.002
923	-0.002
924	-0.001
924	-0.001
924	-0
925	-0
925	0
926	0
926	0.001
927	0
927	0
927	0
928	0
928	-0
929	0
929	0
930	-0
930	-0.001
930	-0.002
931	-0.003
931	-0.004
932	-0.005
932	-0.006
933	-0.007
933	-0.009
933	-0.01
934	-0.011
934	-0.013
935	-0.014
935	-0.015
935	-0.015
936	-0.016
936	-0.016
937	-0.016
937	-0.016
938	-0.016
938	-0.015
938	-0.015
939	-0.014
939	-0.014
940	-0.013
940	-0.012
941	-0.011
941	-0.011
941	-0.01
942	-0.009
942	-0.009
943	-0.008
943	-0.008
944	-0.008
944	-0.008
944	-0.007
945	-0.007
945	-0.006
946	-0.006
946	-0.006
946	-0.006
947	-0.006
947	-0.006
948	-0.006
948	-0.006
949	-0.006
949	-0.006
949	-0.006
950	-0.006
950	-0.006
951	-0.006
951	-0.006
952	-0.006
952	-0.006
952	-0.006
953	-0.005
953	-0.005
954	-0.005
954	-0.005
955	-0.005
955	-0.005
955	-0.005
956	-0.005
956	-0.004
957	-0.004
957	-0.005
957	-0.005
958	-0.006
958	-0.006
959	-0.007
959	-0.007
960	-0.008
960	-0.009
960	-0.01
961	-0.011
961	-0.011
962	-0.012
962	-0.012
963	-0.012
963	-0.011
963	-0.011
964	-0.01
964	-0.01
965	-0.009
965	-0.008
966	-0.007
966	-0.005
966	-0.004
967	-0.003
967	-0.003
968	-0.003
968	-0.003
968	-0.003
969	-0.003
969	-0.003
970	-0.003
970	-0.004
971	-0.004
971	-0.005
971	-0.005
972	-0.006
972	-0.006
973	-0.006
973	-0.007
974	-0.007
974	-0.008
974	-0.008
975	-0.009
975	-0.01
976	-0.011
976	-0.012
976	-0.013
977	-0.014
977	-0.015
978	-0.016
978	-0.017
979	-0.018
979	-0.019
979	-0.019
980	-0.019
980	-0.019
981	-0.018
981	-0.018
982	-0.017
982	-0.015
982	-0.014
983	-0.012
983	-0.011
984	-0.01
984	-0.008
984	-0.007
985	-0.006
985	-0.006
986	-0.006
986	-0.007
987	-0.007
987	-0.008
987	-0.008
988	-0.009
988	-0.01
989	-0.011
989	-0.013
990	-0.014
990	-0.015
990	-0.016
991	-0.016
991	-0.017
992	-0.017
992	-0.018
992	-0.018
993	-0.019
993	-0.02
994	-0.02
994	-0.021
995	-0.022
995	-0.022
995	-0.023
996	-0.024
996	-0.025
997	-0.026
997	-0.026
997	-0.027
998	-0.026
998	-0.026
999	-0.026
999	-0.025
1000	-0.025
1000	-0.024
1000	-0.023
1001	-0.022
1001	-0.021
1002	-0.021
1002	-0.02
1003	-0.02
1003	-0.02
1003	-0.019
1004	-0.019
1004	-0.018
1005	-0.018
1005	-0.018
1005	-0.017
1006	-0.017
1006	-0.016
1007	-0.016
1007	-0.015
1008	-0.015
1008	-0.014
1008	-0.013
1009	-0.013
1009	-0.012
1010	-0.011
1010	-0.011
1010	-0.01
1011	-0.01
1011	-0.01
1012	-0.009
1012	-0.01
1013	-0.009
1013	-0.01
1013	-0.011
1014	-0.011
1014	-0.012
1015	-0.013
1015	-0.013
1016	-0.014
1016	-0.015
1016	-0.016
1017	-0.017
1017	-0.017
1018	-0.017
1018	-0.018
1018	-0.017
1019	-0.017
1019	-0.018
1020	-0.018
1020	-0.018
1021	-0.018
1021	-0.018
1021	-0.019
1022	-0.019
1022	-0.019
1023	-0.02
1023	-0.021
1023	-0.021
1024	-0.022
1024	-0.023
1025	-0.024
1025	-0.024
1026	-0.024
1026	-0.025
1026	-0.025
1027	-0.025
1027	-0.025
1028	-0.024
1028	-0.024
1028	-0.023
1029	-0.022
1029	-0.022
1030	-0.022
1030	-0.021
1031	-0.021
1031	-0.02
1031	-0.02
1032	-0.019
1032	-0.019
1033	-0.019
1033	-0.019
1033	-0.019
1034	-0.02
1034	-0.02
1035	-0.021
1035	-0.022
1036	-0.022
1036	-0.023
1036	-0.023
1037	-0.024
1037	-0.024
1038	-0.025
1038	-0.025
1039	-0.025
1039	-0.024
1039	-0.024
1040	-0.024
1040	-0.024
1041	-0.024
1041	-0.024
1041	-0.024
1042	-0.025
1042	-0.025
1043	-0.026
1043	-0.027
1044	-0.027
1044	-0.028
1044	-0.029
1045	-0.029
1045	-0.03
1046	-0.031
1046	-0.031
1046	-0.031
1047	-0.031
1047	-0.03
1048	-0.03
1048	-0.03
1049	-0.03
1049	-0.03
1049	-0.031
1050	-0.03
1050	-0.031
1051	-0.031
1051	-0.03
1051	-0.03
1052	-0.029
1052	-0.028
1053	-0.027
1053	-0.026
1053	-0.024
1054	-0.023
1054	-0.021
1055	-0.02
1055	-0.019
1056	-0.018
1056	-0.018
1056	-0.018
1057	-0.018
1057	-0.017
1058	-0.017
1058	-0.017
1058	-0.017
1059	-0.016
1059	-0.017
1060	-0.016
1060	-0.016
1061	-0.015
1061	-0.015
1061	-0.014
1062	-0.014
1062	-0.014
1063	-0.013
1063	-0.014
1063	-0.014
1064	-0.014
1064	-0.013
1065	-0.013
1065	-0.013
1066	-0.013
1066	-0.013
1066	-0.013
1067	-0.013
1067	-0.013
1068	-0.013
1068	-0.013
1068	-0.013
1069	-0.013
1069	-0.014
1070	-0.014
1070	-0.014
1071	-0.013
1071	-0.013
1071	-0.013
1072	-0.011
1072	-0.01
1073	-0.01
1073	-0.008
1073	-0.007
1074	-0.006
1074	-0.005
1075	-0.004
1075	-0.004
1076	-0.003
1076	-0.003
1076	-0.003
1077	-0.003
1077	-0.002
1078	-0.001
1078	-0
1078	0.001
1079	0.002
1079	0.004
1080	0.005
1080	0.007
1080	0.008
1081	0.009
1081	0.011
1082	0.013
1082	0.014
1083	0.015
1083	0.017
1083	0.018
1084	0.02
1084	0.022
1085	0.023
1085	0.025
1085	0.027
1086	0.028
1086	0.029
1087	0.032
1087	0.033
1088	0.034
1088	0.036
1088	0.037
1089	0.039
1089	0.041
1090	0.043
1090	0.045
1090	0.047
1091	0.05
1091	0.054
1092	0.057
1092	0.062
1092	0.066
1093	0.07
1093	0.076
1094	0.082
1094	0.087
1095	0.092
1095	0.099
1095	0.107
1096	0.114
1096	0.123
1097	0.133
1097	0.141
1097	0.152
1098	0.162
1098	0.173
1099	0.187
1099	0.2
1100	0.215
1100	0.231
1100	0.247
1101	0.265
1101	0.284
1102	0.309
1102	0.336
1102	0.368
1103	0.401
1103	0.441
1104	0.49
1104	0.545
1104	0.617
1105	0.702
1105	0.807
1106	0.947
1106	1.215
1107	2.143
1107	-0
1107	-0
1108	-0
1108	-0
1109	-0
1109	-0
1109	-0
1110	-0
1110	-0
1111	-0
1111	-0
