Data from 15c-100ul-ns-20ul-nr-full-exp-7ul-bp_Absorbance__785__05123.txt Node

Date: Mon Jan 15 15:38:59 CET 2024
User: Marek
Spectrometer: MAYP115816
Trigger mode: 0
Integration Time (sec): 2.000000E-1
Scans to average: 10
Electric dark correction enabled: true
Nonlinearity correction enabled: true
Boxcar width: 5
XAxis mode: Wavelengths
Number of Pixels in Spectrum: 2068
>>>>>Begin Spectral Data<<<<<
199	-1.948
199	-1.818
200	-1.675
200	-1.565
201	-1.491
201	-1.441
202	-1.37
202	-1.314
203	-1.265
203	-1.225
204	-1.197
204	-1.174
205	-1.152
205	-1.144
205	-1.141
206	-1.139
206	-1.138
207	-1.133
207	-1.13
208	-1.129
208	-1.124
209	-1.122
209	-1.121
210	-1.12
210	-1.119
211	-1.117
211	-1.115
212	-1.113
212	-1.112
213	-1.112
213	-1.11
213	-1.111
214	-1.109
214	-1.11
215	-1.11
215	-1.11
216	-1.11
216	-1.109
217	-1.108
217	-1.107
218	-1.106
218	-1.102
219	-1.101
219	-1.1
220	-1.095
220	-1.09
221	-1.086
221	-1.081
221	-1.076
222	-1.071
222	-1.066
223	-1.058
223	-1.055
224	-1.049
224	-1.04
225	-1.032
225	-1.02
226	-1.01
226	-1
227	-0.984
227	-0.968
228	-0.948
228	-0.928
229	-0.904
229	-0.875
229	-0.846
230	-0.814
230	-0.779
231	-0.74
231	-0.7
232	-0.659
232	-0.615
233	-0.569
233	-0.522
234	-0.476
234	-0.43
235	-0.383
235	-0.337
236	-0.293
236	-0.249
236	-0.208
237	-0.168
237	-0.13
238	-0.094
238	-0.061
239	-0.029
239	-0
240	0.026
240	0.051
241	0.073
241	0.094
242	0.113
242	0.131
243	0.147
243	0.161
243	0.174
244	0.187
244	0.198
245	0.208
245	0.217
246	0.226
246	0.234
247	0.241
247	0.247
248	0.253
248	0.259
249	0.265
249	0.269
250	0.274
250	0.278
250	0.283
251	0.286
251	0.29
252	0.293
252	0.296
253	0.299
253	0.302
254	0.304
254	0.307
255	0.308
255	0.311
256	0.312
256	0.314
257	0.315
257	0.317
258	0.318
258	0.319
258	0.32
259	0.32
259	0.321
260	0.321
260	0.322
261	0.322
261	0.322
262	0.322
262	0.321
263	0.321
263	0.321
264	0.32
264	0.32
265	0.32
265	0.319
265	0.318
266	0.318
266	0.317
267	0.316
267	0.315
268	0.314
268	0.313
269	0.312
269	0.31
270	0.309
270	0.308
271	0.306
271	0.304
272	0.303
272	0.302
272	0.301
273	0.299
273	0.298
274	0.296
274	0.295
275	0.293
275	0.291
276	0.29
276	0.288
277	0.286
277	0.284
278	0.282
278	0.28
278	0.278
279	0.275
279	0.273
280	0.272
280	0.27
281	0.268
281	0.266
282	0.265
282	0.263
283	0.262
283	0.26
284	0.259
284	0.258
285	0.257
285	0.256
285	0.254
286	0.253
286	0.252
287	0.25
287	0.249
288	0.247
288	0.246
289	0.245
289	0.243
290	0.242
290	0.241
291	0.24
291	0.239
292	0.238
292	0.237
292	0.236
293	0.235
293	0.234
294	0.233
294	0.232
295	0.231
295	0.23
296	0.229
296	0.228
297	0.227
297	0.226
298	0.225
298	0.224
298	0.223
299	0.223
299	0.222
300	0.221
300	0.221
301	0.22
301	0.219
302	0.218
302	0.217
303	0.217
303	0.216
304	0.216
304	0.215
305	0.214
305	0.213
305	0.213
306	0.212
306	0.211
307	0.21
307	0.209
308	0.208
308	0.208
309	0.207
309	0.206
310	0.205
310	0.205
311	0.204
311	0.203
311	0.202
312	0.201
312	0.201
313	0.2
313	0.199
314	0.198
314	0.197
315	0.197
315	0.196
316	0.195
316	0.195
317	0.194
317	0.193
318	0.192
318	0.191
318	0.191
319	0.19
319	0.189
320	0.188
320	0.187
321	0.186
321	0.185
322	0.185
322	0.184
323	0.183
323	0.183
324	0.182
324	0.181
324	0.18
325	0.18
325	0.179
326	0.178
326	0.178
327	0.177
327	0.176
328	0.176
328	0.175
329	0.174
329	0.173
330	0.173
330	0.172
330	0.171
331	0.17
331	0.17
332	0.169
332	0.168
333	0.168
333	0.167
334	0.166
334	0.165
335	0.165
335	0.164
336	0.164
336	0.163
336	0.162
337	0.162
337	0.161
338	0.16
338	0.16
339	0.159
339	0.159
340	0.158
340	0.158
341	0.157
341	0.156
342	0.156
342	0.155
342	0.155
343	0.154
343	0.154
344	0.153
344	0.153
345	0.152
345	0.151
346	0.151
346	0.15
347	0.15
347	0.149
348	0.149
348	0.148
348	0.148
349	0.147
349	0.147
350	0.146
350	0.146
351	0.145
351	0.144
352	0.144
352	0.143
353	0.142
353	0.142
354	0.141
354	0.14
354	0.139
355	0.138
355	0.138
356	0.138
356	0.138
357	0.138
357	0.138
358	0.138
358	0.137
359	0.138
359	0.138
360	0.138
360	0.139
360	0.139
361	0.139
361	0.139
362	0.138
362	0.138
363	0.138
363	0.138
364	0.138
364	0.137
365	0.137
365	0.137
366	0.137
366	0.137
366	0.136
367	0.136
367	0.136
368	0.135
368	0.135
369	0.134
369	0.134
370	0.134
370	0.133
371	0.133
371	0.133
372	0.132
372	0.132
372	0.132
373	0.131
373	0.131
374	0.132
374	0.131
375	0.131
375	0.131
376	0.131
376	0.131
377	0.131
377	0.131
378	0.131
378	0.131
378	0.131
379	0.131
379	0.131
380	0.131
380	0.131
381	0.131
381	0.131
382	0.131
382	0.13
383	0.13
383	0.13
383	0.129
384	0.129
384	0.128
385	0.128
385	0.128
386	0.128
386	0.128
387	0.127
387	0.127
388	0.127
388	0.127
389	0.127
389	0.127
389	0.127
390	0.127
390	0.127
391	0.127
391	0.127
392	0.127
392	0.127
393	0.127
393	0.127
394	0.127
394	0.126
394	0.126
395	0.126
395	0.125
396	0.125
396	0.125
397	0.125
397	0.125
398	0.125
398	0.125
399	0.125
399	0.125
400	0.124
400	0.124
400	0.124
401	0.123
401	0.122
402	0.122
402	0.121
403	0.121
403	0.121
404	0.12
404	0.12
405	0.12
405	0.12
405	0.12
406	0.119
406	0.12
407	0.12
407	0.119
408	0.119
408	0.119
409	0.118
409	0.118
410	0.118
410	0.118
411	0.118
411	0.117
411	0.117
412	0.116
412	0.116
413	0.116
413	0.115
414	0.115
414	0.114
415	0.114
415	0.114
416	0.113
416	0.113
416	0.113
417	0.112
417	0.112
418	0.112
418	0.112
419	0.113
419	0.113
420	0.114
420	0.114
421	0.114
421	0.115
421	0.115
422	0.115
422	0.115
423	0.115
423	0.114
424	0.114
424	0.113
425	0.112
425	0.111
426	0.111
426	0.111
427	0.111
427	0.111
427	0.112
428	0.112
428	0.113
429	0.113
429	0.113
430	0.113
430	0.113
431	0.113
431	0.112
432	0.112
432	0.111
432	0.11
433	0.109
433	0.108
434	0.108
434	0.108
435	0.108
435	0.108
436	0.107
436	0.108
437	0.108
437	0.107
437	0.107
438	0.107
438	0.107
439	0.107
439	0.107
440	0.106
440	0.106
441	0.106
441	0.106
442	0.107
442	0.107
442	0.107
443	0.107
443	0.108
444	0.108
444	0.108
445	0.108
445	0.108
446	0.108
446	0.108
447	0.107
447	0.107
447	0.107
448	0.107
448	0.107
449	0.106
449	0.106
450	0.106
450	0.105
451	0.105
451	0.105
452	0.104
452	0.104
452	0.103
453	0.103
453	0.102
454	0.102
454	0.102
455	0.102
455	0.102
456	0.102
456	0.102
457	0.102
457	0.102
458	0.102
458	0.102
458	0.103
459	0.103
459	0.103
460	0.102
460	0.101
461	0.101
461	0.101
462	0.1
462	0.101
463	0.101
463	0.102
463	0.102
464	0.102
464	0.102
465	0.103
465	0.103
466	0.103
466	0.103
467	0.103
467	0.102
467	0.101
468	0.1
468	0.098
469	0.097
469	0.097
470	0.096
470	0.096
471	0.096
471	0.096
472	0.096
472	0.097
472	0.097
473	0.098
473	0.099
474	0.1
474	0.101
475	0.101
475	0.102
476	0.102
476	0.102
477	0.102
477	0.102
477	0.102
478	0.102
478	0.102
479	0.103
479	0.103
480	0.104
480	0.105
481	0.106
481	0.106
482	0.107
482	0.108
482	0.11
483	0.112
483	0.115
484	0.117
484	0.118
485	0.119
485	0.12
486	0.121
486	0.121
487	0.122
487	0.123
487	0.123
488	0.122
488	0.121
489	0.12
489	0.119
490	0.119
490	0.119
491	0.119
491	0.12
492	0.12
492	0.121
492	0.122
493	0.123
493	0.124
494	0.126
494	0.128
495	0.13
495	0.131
496	0.133
496	0.134
496	0.136
497	0.137
497	0.138
498	0.139
498	0.14
499	0.14
499	0.14
500	0.141
500	0.142
501	0.144
501	0.145
501	0.146
502	0.147
502	0.148
503	0.15
503	0.151
504	0.152
504	0.153
505	0.153
505	0.154
506	0.155
506	0.156
506	0.156
507	0.157
507	0.158
508	0.158
508	0.159
509	0.16
509	0.161
510	0.162
510	0.162
511	0.162
511	0.163
511	0.163
512	0.164
512	0.165
513	0.165
513	0.164
514	0.163
514	0.163
515	0.163
515	0.162
515	0.162
516	0.162
516	0.162
517	0.162
517	0.163
518	0.163
518	0.162
519	0.162
519	0.161
520	0.159
520	0.158
520	0.156
521	0.154
521	0.152
522	0.15
522	0.148
523	0.147
523	0.147
524	0.148
524	0.15
524	0.152
525	0.154
525	0.157
526	0.159
526	0.161
527	0.164
527	0.166
528	0.167
528	0.169
529	0.169
529	0.17
529	0.17
530	0.17
530	0.17
531	0.17
531	0.17
532	0.17
532	0.169
533	0.169
533	0.168
533	0.168
534	0.167
534	0.166
535	0.165
535	0.164
536	0.164
536	0.163
537	0.162
537	0.162
538	0.16
538	0.159
538	0.158
539	0.157
539	0.156
540	0.155
540	0.153
541	0.151
541	0.149
542	0.148
542	0.146
542	0.145
543	0.144
543	0.142
544	0.141
544	0.14
545	0.139
545	0.139
546	0.138
546	0.137
547	0.136
547	0.133
547	0.131
548	0.13
548	0.127
549	0.125
549	0.124
550	0.121
550	0.119
551	0.117
551	0.114
551	0.113
552	0.112
552	0.11
553	0.11
553	0.109
554	0.108
554	0.106
555	0.105
555	0.103
556	0.1
556	0.098
556	0.095
557	0.093
557	0.091
558	0.089
558	0.087
559	0.085
559	0.084
560	0.083
560	0.082
560	0.081
561	0.081
561	0.081
562	0.08
562	0.079
563	0.077
563	0.075
564	0.073
564	0.071
564	0.069
565	0.068
565	0.067
566	0.065
566	0.064
567	0.063
567	0.063
568	0.064
568	0.064
568	0.065
569	0.066
569	0.067
570	0.066
570	0.065
571	0.066
571	0.066
572	0.065
572	0.065
573	0.064
573	0.063
573	0.061
574	0.06
574	0.06
575	0.06
575	0.061
576	0.061
576	0.059
577	0.058
577	0.056
577	0.056
578	0.056
578	0.056
579	0.057
579	0.058
580	0.056
580	0.054
581	0.051
581	0.049
581	0.049
582	0.049
582	0.049
583	0.05
583	0.048
584	0.045
584	0.041
585	0.041
585	0.041
585	0.041
586	0.041
586	0.04
587	0.038
587	0.036
588	0.033
588	0.032
589	0.032
589	0.032
590	0.031
590	0.03
590	0.032
591	0.033
591	0.032
592	0.032
592	0.031
593	0.031
593	0.031
594	0.03
594	0.029
594	0.028
595	0.028
595	0.026
596	0.025
596	0.027
597	0.029
597	0.03
598	0.031
598	0.032
598	0.032
599	0.032
599	0.031
600	0.03
600	0.029
601	0.028
601	0.027
602	0.025
602	0.024
602	0.023
603	0.022
603	0.023
604	0.023
604	0.024
605	0.026
605	0.027
606	0.027
606	0.026
606	0.026
607	0.025
607	0.025
608	0.025
608	0.023
609	0.023
609	0.023
610	0.022
610	0.021
610	0.021
611	0.023
611	0.024
612	0.025
612	0.027
613	0.028
613	0.029
614	0.029
614	0.028
614	0.028
615	0.028
615	0.027
616	0.027
616	0.026
617	0.026
617	0.025
618	0.024
618	0.023
618	0.023
619	0.024
619	0.025
620	0.027
620	0.028
621	0.029
621	0.029
622	0.03
622	0.03
622	0.03
623	0.031
623	0.032
624	0.032
624	0.032
625	0.031
625	0.031
626	0.031
626	0.032
626	0.032
627	0.033
627	0.034
628	0.035
628	0.035
629	0.036
629	0.036
630	0.036
630	0.036
630	0.036
631	0.037
631	0.038
632	0.038
632	0.038
633	0.039
633	0.04
634	0.041
634	0.043
634	0.045
635	0.046
635	0.048
636	0.049
636	0.05
637	0.051
637	0.052
638	0.053
638	0.054
638	0.055
639	0.055
639	0.056
640	0.057
640	0.058
641	0.058
641	0.059
642	0.061
642	0.062
642	0.063
643	0.065
643	0.066
644	0.068
644	0.07
645	0.072
645	0.074
646	0.077
646	0.08
646	0.083
647	0.085
647	0.088
648	0.09
648	0.092
649	0.094
649	0.097
650	0.099
650	0.101
650	0.103
651	0.105
651	0.107
652	0.109
652	0.111
653	0.115
653	0.123
653	0.139
654	0.114
654	0.096
655	0.097
655	0.099
656	0.101
656	0.103
657	0.105
657	0.107
657	0.108
658	0.105
658	0.095
659	0.118
659	0.149
660	0.155
660	0.157
661	0.159
661	0.161
661	0.164
662	0.167
662	0.17
663	0.173
663	0.176
664	0.179
664	0.182
665	0.185
665	0.187
665	0.19
666	0.192
666	0.195
667	0.197
667	0.199
668	0.202
668	0.204
669	0.207
669	0.21
669	0.214
670	0.217
670	0.22
671	0.222
671	0.224
672	0.226
672	0.228
672	0.229
673	0.231
673	0.232
674	0.234
674	0.235
675	0.235
675	0.237
676	0.239
676	0.242
676	0.243
677	0.245
677	0.246
678	0.248
678	0.248
679	0.249
679	0.25
680	0.251
680	0.252
680	0.252
681	0.252
681	0.253
682	0.254
682	0.255
683	0.257
683	0.259
684	0.261
684	0.261
684	0.262
685	0.263
685	0.264
686	0.265
686	0.265
687	0.265
687	0.265
687	0.265
688	0.264
688	0.264
689	0.265
689	0.266
690	0.266
690	0.266
691	0.265
691	0.265
691	0.265
692	0.264
692	0.263
693	0.263
693	0.263
694	0.262
694	0.26
695	0.26
695	0.262
695	0.262
696	0.262
696	0.261
697	0.261
697	0.261
698	0.26
698	0.258
698	0.257
699	0.256
699	0.254
700	0.251
700	0.249
701	0.248
701	0.246
702	0.244
702	0.242
702	0.241
703	0.239
703	0.238
704	0.236
704	0.235
705	0.234
705	0.233
705	0.231
706	0.23
706	0.228
707	0.226
707	0.224
708	0.222
708	0.219
709	0.217
709	0.215
709	0.211
710	0.208
710	0.206
711	0.204
711	0.202
712	0.2
712	0.198
713	0.197
713	0.196
713	0.194
714	0.192
714	0.19
715	0.188
715	0.186
716	0.184
716	0.182
716	0.18
717	0.178
717	0.175
718	0.172
718	0.17
719	0.168
719	0.166
720	0.163
720	0.16
720	0.157
721	0.153
721	0.15
722	0.147
722	0.144
723	0.142
723	0.14
723	0.138
724	0.136
724	0.134
725	0.132
725	0.13
726	0.129
726	0.128
727	0.126
727	0.125
727	0.124
728	0.122
728	0.121
729	0.12
729	0.119
730	0.117
730	0.116
730	0.114
731	0.113
731	0.111
732	0.11
732	0.108
733	0.105
733	0.103
734	0.101
734	0.098
734	0.096
735	0.094
735	0.091
736	0.089
736	0.087
737	0.085
737	0.084
737	0.082
738	0.079
738	0.076
739	0.074
739	0.072
740	0.07
740	0.068
741	0.066
741	0.064
741	0.06
742	0.057
742	0.054
743	0.052
743	0.05
744	0.048
744	0.046
744	0.044
745	0.041
745	0.039
746	0.037
746	0.036
747	0.035
747	0.034
748	0.033
748	0.032
748	0.031
749	0.03
749	0.03
750	0.03
750	0.029
751	0.029
751	0.029
751	0.029
752	0.028
752	0.027
753	0.027
753	0.026
754	0.026
754	0.025
754	0.024
755	0.024
755	0.024
756	0.023
756	0.021
757	0.019
757	0.019
758	0.018
758	0.017
758	0.016
759	0.015
759	0.013
760	0.011
760	0.008
761	0.007
761	0.007
761	0.006
762	0.004
762	0.003
763	0.002
763	-0.001
764	-0.003
764	-0.006
764	-0.008
765	-0.011
765	-0.014
766	-0.015
766	-0.016
767	-0.018
767	-0.021
768	-0.024
768	-0.026
768	-0.027
769	-0.028
769	-0.028
770	-0.029
770	-0.03
771	-0.032
771	-0.035
771	-0.037
772	-0.039
772	-0.04
773	-0.041
773	-0.044
774	-0.046
774	-0.049
775	-0.051
775	-0.053
775	-0.056
776	-0.059
776	-0.062
777	-0.065
777	-0.068
778	-0.071
778	-0.074
778	-0.078
779	-0.08
779	-0.081
780	-0.083
780	-0.087
781	-0.091
781	-0.094
781	-0.098
782	-0.101
782	-0.106
783	-0.11
783	-0.112
784	-0.116
784	-0.119
784	-0.121
785	-0.123
785	-0.125
786	-0.125
786	-0.123
787	-0.119
787	-0.115
788	-0.113
788	-0.114
788	-0.114
789	-0.116
789	-0.115
790	-0.111
790	-0.11
791	-0.11
791	-0.111
791	-0.113
792	-0.108
792	-0.099
793	-0.093
793	-0.09
794	-0.089
794	-0.091
794	-0.095
795	-0.097
795	-0.098
796	-0.098
796	-0.101
797	-0.109
797	-0.119
797	-0.125
798	-0.13
798	-0.132
799	-0.133
799	-0.133
800	-0.133
800	-0.135
801	-0.138
801	-0.139
801	-0.14
802	-0.142
802	-0.143
803	-0.144
803	-0.144
804	-0.143
804	-0.138
804	-0.131
805	-0.127
805	-0.125
806	-0.123
806	-0.121
807	-0.12
807	-0.119
807	-0.119
808	-0.119
808	-0.12
809	-0.125
809	-0.13
810	-0.134
810	-0.136
810	-0.139
811	-0.142
811	-0.142
812	-0.137
812	-0.134
813	-0.133
813	-0.133
813	-0.133
814	-0.134
814	-0.133
815	-0.131
815	-0.128
816	-0.126
816	-0.127
817	-0.131
817	-0.135
817	-0.135
818	-0.135
818	-0.132
819	-0.127
819	-0.125
820	-0.126
820	-0.128
820	-0.13
821	-0.13
821	-0.128
822	-0.126
822	-0.123
823	-0.12
823	-0.119
823	-0.119
824	-0.118
824	-0.112
825	-0.105
825	-0.097
826	-0.09
826	-0.085
826	-0.079
827	-0.074
827	-0.07
828	-0.066
828	-0.062
829	-0.059
829	-0.056
829	-0.054
830	-0.052
830	-0.05
831	-0.048
831	-0.046
832	-0.045
832	-0.044
832	-0.042
833	-0.041
833	-0.041
834	-0.04
834	-0.039
835	-0.038
835	-0.038
835	-0.037
836	-0.037
836	-0.037
837	-0.037
837	-0.036
838	-0.036
838	-0.037
839	-0.037
839	-0.037
839	-0.037
840	-0.037
840	-0.037
841	-0.037
841	-0.036
842	-0.036
842	-0.035
842	-0.035
843	-0.034
843	-0.033
844	-0.032
844	-0.031
845	-0.03
845	-0.03
845	-0.029
846	-0.028
846	-0.028
847	-0.028
847	-0.028
848	-0.028
848	-0.028
848	-0.028
849	-0.028
849	-0.028
850	-0.029
850	-0.029
851	-0.029
851	-0.029
851	-0.029
852	-0.029
852	-0.029
853	-0.029
853	-0.028
854	-0.027
854	-0.027
854	-0.026
855	-0.025
855	-0.024
856	-0.024
856	-0.023
857	-0.022
857	-0.021
857	-0.02
858	-0.02
858	-0.02
859	-0.019
859	-0.019
860	-0.019
860	-0.019
860	-0.018
861	-0.018
861	-0.018
862	-0.019
862	-0.019
863	-0.019
863	-0.019
863	-0.019
864	-0.019
864	-0.019
865	-0.02
865	-0.02
866	-0.02
866	-0.021
866	-0.02
867	-0.02
867	-0.019
868	-0.019
868	-0.018
869	-0.017
869	-0.016
869	-0.015
870	-0.014
870	-0.014
871	-0.013
871	-0.012
872	-0.011
872	-0.011
872	-0.011
873	-0.01
873	-0.01
874	-0.01
874	-0.01
875	-0.01
875	-0.01
875	-0.01
876	-0.01
876	-0.011
877	-0.011
877	-0.012
878	-0.012
878	-0.013
878	-0.013
879	-0.014
879	-0.015
880	-0.015
880	-0.016
881	-0.016
881	-0.016
881	-0.016
882	-0.015
882	-0.015
883	-0.014
883	-0.013
884	-0.013
884	-0.012
884	-0.011
885	-0.011
885	-0.01
886	-0.01
886	-0.01
887	-0.01
887	-0.01
887	-0.01
888	-0.01
888	-0.009
889	-0.008
889	-0.007
890	-0.007
890	-0.006
890	-0.005
891	-0.005
891	-0.005
892	-0.005
892	-0.005
893	-0.005
893	-0.006
893	-0.006
894	-0.007
894	-0.008
895	-0.009
895	-0.01
895	-0.011
896	-0.012
896	-0.012
897	-0.013
897	-0.013
898	-0.013
898	-0.013
898	-0.013
899	-0.013
899	-0.013
900	-0.013
900	-0.013
901	-0.012
901	-0.012
901	-0.012
902	-0.012
902	-0.012
903	-0.012
903	-0.013
904	-0.013
904	-0.013
904	-0.014
905	-0.014
905	-0.015
906	-0.015
906	-0.016
907	-0.016
907	-0.017
907	-0.018
908	-0.018
908	-0.018
909	-0.018
909	-0.018
910	-0.018
910	-0.018
910	-0.018
911	-0.018
911	-0.017
912	-0.017
912	-0.017
913	-0.017
913	-0.017
913	-0.017
914	-0.018
914	-0.018
915	-0.019
915	-0.019
916	-0.02
916	-0.02
916	-0.02
917	-0.019
917	-0.019
918	-0.018
918	-0.017
918	-0.016
919	-0.014
919	-0.013
920	-0.011
920	-0.01
921	-0.008
921	-0.007
921	-0.006
922	-0.005
922	-0.004
923	-0.003
923	-0.002
924	-0.002
924	-0.001
924	-0.001
925	-0.001
925	-0
926	-0
926	-0
927	-0
927	-0
927	-0.001
928	-0.001
928	-0.001
929	-0.001
929	-0.001
930	-0.001
930	-0.001
930	-0.002
931	-0.003
931	-0.004
932	-0.005
932	-0.006
933	-0.007
933	-0.008
933	-0.01
934	-0.011
934	-0.013
935	-0.014
935	-0.015
935	-0.016
936	-0.016
936	-0.017
937	-0.017
937	-0.017
938	-0.017
938	-0.016
938	-0.016
939	-0.015
939	-0.014
940	-0.014
940	-0.013
941	-0.012
941	-0.011
941	-0.01
942	-0.01
942	-0.009
943	-0.009
943	-0.009
944	-0.008
944	-0.008
944	-0.008
945	-0.008
945	-0.007
946	-0.007
946	-0.007
946	-0.007
947	-0.007
947	-0.008
948	-0.008
948	-0.008
949	-0.008
949	-0.008
949	-0.008
950	-0.007
950	-0.008
951	-0.007
951	-0.008
952	-0.008
952	-0.007
952	-0.007
953	-0.006
953	-0.006
954	-0.006
954	-0.006
955	-0.006
955	-0.006
955	-0.005
956	-0.005
956	-0.005
957	-0.005
957	-0.005
957	-0.006
958	-0.006
958	-0.007
959	-0.007
959	-0.008
960	-0.008
960	-0.009
960	-0.01
961	-0.011
961	-0.012
962	-0.012
962	-0.012
963	-0.012
963	-0.011
963	-0.011
964	-0.011
964	-0.01
965	-0.009
965	-0.008
966	-0.007
966	-0.006
966	-0.005
967	-0.004
967	-0.004
968	-0.004
968	-0.004
968	-0.004
969	-0.004
969	-0.004
970	-0.004
970	-0.004
971	-0.005
971	-0.005
971	-0.005
972	-0.006
972	-0.006
973	-0.007
973	-0.007
974	-0.008
974	-0.009
974	-0.009
975	-0.01
975	-0.011
976	-0.012
976	-0.013
976	-0.014
977	-0.016
977	-0.017
978	-0.019
978	-0.02
979	-0.021
979	-0.021
979	-0.022
980	-0.022
980	-0.022
981	-0.021
981	-0.021
982	-0.019
982	-0.018
982	-0.017
983	-0.015
983	-0.014
984	-0.012
984	-0.011
984	-0.01
985	-0.009
985	-0.009
986	-0.009
986	-0.009
987	-0.009
987	-0.01
987	-0.01
988	-0.011
988	-0.012
989	-0.013
989	-0.014
990	-0.015
990	-0.016
990	-0.017
991	-0.017
991	-0.018
992	-0.018
992	-0.018
992	-0.019
993	-0.02
993	-0.02
994	-0.021
994	-0.021
995	-0.022
995	-0.023
995	-0.024
996	-0.024
996	-0.025
997	-0.026
997	-0.026
997	-0.026
998	-0.026
998	-0.025
999	-0.025
999	-0.024
1000	-0.024
1000	-0.023
1000	-0.022
1001	-0.021
1001	-0.021
1002	-0.02
1002	-0.02
1003	-0.019
1003	-0.019
1003	-0.019
1004	-0.018
1004	-0.018
1005	-0.018
1005	-0.017
1005	-0.017
1006	-0.017
1006	-0.016
1007	-0.016
1007	-0.015
1008	-0.015
1008	-0.014
1008	-0.013
1009	-0.013
1009	-0.012
1010	-0.011
1010	-0.011
1010	-0.01
1011	-0.01
1011	-0.01
1012	-0.01
1012	-0.01
1013	-0.01
1013	-0.011
1013	-0.011
1014	-0.012
1014	-0.013
1015	-0.014
1015	-0.015
1016	-0.016
1016	-0.016
1016	-0.017
1017	-0.018
1017	-0.018
1018	-0.018
1018	-0.019
1018	-0.018
1019	-0.018
1019	-0.018
1020	-0.018
1020	-0.018
1021	-0.019
1021	-0.019
1021	-0.019
1022	-0.019
1022	-0.02
1023	-0.02
1023	-0.021
1023	-0.021
1024	-0.022
1024	-0.023
1025	-0.024
1025	-0.024
1026	-0.024
1026	-0.025
1026	-0.025
1027	-0.025
1027	-0.025
1028	-0.024
1028	-0.024
1028	-0.023
1029	-0.023
1029	-0.022
1030	-0.022
1030	-0.021
1031	-0.021
1031	-0.02
1031	-0.02
1032	-0.019
1032	-0.019
1033	-0.019
1033	-0.019
1033	-0.02
1034	-0.02
1034	-0.021
1035	-0.021
1035	-0.022
1036	-0.023
1036	-0.023
1036	-0.024
1037	-0.024
1037	-0.024
1038	-0.025
1038	-0.025
1039	-0.025
1039	-0.025
1039	-0.024
1040	-0.024
1040	-0.024
1041	-0.025
1041	-0.025
1041	-0.025
1042	-0.025
1042	-0.026
1043	-0.026
1043	-0.027
1044	-0.028
1044	-0.028
1044	-0.029
1045	-0.029
1045	-0.03
1046	-0.03
1046	-0.031
1046	-0.031
1047	-0.03
1047	-0.03
1048	-0.029
1048	-0.029
1049	-0.029
1049	-0.029
1049	-0.029
1050	-0.03
1050	-0.03
1051	-0.03
1051	-0.03
1051	-0.029
1052	-0.028
1052	-0.028
1053	-0.027
1053	-0.026
1053	-0.025
1054	-0.024
1054	-0.022
1055	-0.02
1055	-0.019
1056	-0.018
1056	-0.018
1056	-0.018
1057	-0.018
1057	-0.018
1058	-0.017
1058	-0.017
1058	-0.017
1059	-0.017
1059	-0.017
1060	-0.017
1060	-0.016
1061	-0.015
1061	-0.014
1061	-0.014
1062	-0.014
1062	-0.014
1063	-0.013
1063	-0.013
1063	-0.013
1064	-0.013
1064	-0.013
1065	-0.013
1065	-0.013
1066	-0.013
1066	-0.013
1066	-0.013
1067	-0.013
1067	-0.013
1068	-0.013
1068	-0.013
1068	-0.013
1069	-0.014
1069	-0.014
1070	-0.013
1070	-0.013
1071	-0.012
1071	-0.011
1071	-0.011
1072	-0.01
1072	-0.009
1073	-0.008
1073	-0.006
1073	-0.006
1074	-0.004
1074	-0.003
1075	-0.003
1075	-0.002
1076	-0.002
1076	-0.001
1076	-0.001
1077	-0.001
1077	-0
1078	-0
1078	0.001
1078	0.002
1079	0.003
1079	0.005
1080	0.006
1080	0.008
1080	0.009
1081	0.01
1081	0.012
1082	0.014
1082	0.015
1083	0.017
1083	0.017
1083	0.019
1084	0.02
1084	0.022
1085	0.024
1085	0.026
1085	0.028
1086	0.029
1086	0.03
1087	0.032
1087	0.034
1088	0.035
1088	0.037
1088	0.039
1089	0.041
1089	0.042
1090	0.044
1090	0.046
1090	0.048
1091	0.051
1091	0.055
1092	0.059
1092	0.064
1092	0.068
1093	0.072
1093	0.078
1094	0.083
1094	0.089
1095	0.095
1095	0.102
1095	0.11
1096	0.117
1096	0.126
1097	0.135
1097	0.144
1097	0.156
1098	0.167
1098	0.178
1099	0.191
1099	0.206
1100	0.222
1100	0.238
1100	0.256
1101	0.274
1101	0.294
1102	0.321
1102	0.348
1102	0.381
1103	0.413
1103	0.456
1104	0.508
1104	0.566
1104	0.646
1105	0.742
1105	0.86
1106	1.027
1106	1.366
1107	-0
1107	-0
1107	-0
1108	-0
1108	-0
1109	-0
1109	-0
1109	-0
1110	-0
1110	-0
1111	-0
1111	-0
