Data from 15c-100ul-ns-20ul-nr-full-exp-7ul-bp_Absorbance__502__04840.txt Node

Date: Mon Jan 15 15:29:33 CET 2024
User: Marek
Spectrometer: MAYP115816
Trigger mode: 0
Integration Time (sec): 2.000000E-1
Scans to average: 10
Electric dark correction enabled: true
Nonlinearity correction enabled: true
Boxcar width: 5
XAxis mode: Wavelengths
Number of Pixels in Spectrum: 2068
>>>>>Begin Spectral Data<<<<<
199	-1.942
199	-1.812
200	-1.669
200	-1.559
201	-1.485
201	-1.435
202	-1.364
202	-1.309
203	-1.259
203	-1.219
204	-1.191
204	-1.168
205	-1.147
205	-1.138
205	-1.136
206	-1.134
206	-1.133
207	-1.129
207	-1.125
208	-1.124
208	-1.119
209	-1.117
209	-1.116
210	-1.115
210	-1.114
211	-1.112
211	-1.109
212	-1.107
212	-1.107
213	-1.106
213	-1.105
213	-1.105
214	-1.104
214	-1.105
215	-1.104
215	-1.104
216	-1.103
216	-1.102
217	-1.101
217	-1.101
218	-1.1
218	-1.096
219	-1.094
219	-1.093
220	-1.088
220	-1.084
221	-1.08
221	-1.075
221	-1.07
222	-1.065
222	-1.06
223	-1.053
223	-1.049
224	-1.044
224	-1.036
225	-1.027
225	-1.015
226	-1.006
226	-0.994
227	-0.98
227	-0.964
228	-0.944
228	-0.924
229	-0.899
229	-0.87
229	-0.841
230	-0.809
230	-0.774
231	-0.735
231	-0.695
232	-0.654
232	-0.61
233	-0.565
233	-0.518
234	-0.472
234	-0.426
235	-0.38
235	-0.335
236	-0.292
236	-0.249
236	-0.207
237	-0.168
237	-0.132
238	-0.096
238	-0.063
239	-0.032
239	-0.004
240	0.022
240	0.046
241	0.068
241	0.088
242	0.107
242	0.124
243	0.14
243	0.154
243	0.167
244	0.179
244	0.19
245	0.199
245	0.208
246	0.217
246	0.225
247	0.232
247	0.238
248	0.244
248	0.25
249	0.255
249	0.259
250	0.264
250	0.268
250	0.272
251	0.276
251	0.279
252	0.282
252	0.285
253	0.288
253	0.29
254	0.292
254	0.295
255	0.297
255	0.299
256	0.3
256	0.302
257	0.303
257	0.304
258	0.305
258	0.306
258	0.307
259	0.308
259	0.308
260	0.309
260	0.309
261	0.309
261	0.309
262	0.309
262	0.309
263	0.309
263	0.309
264	0.308
264	0.308
265	0.308
265	0.307
265	0.306
266	0.306
266	0.305
267	0.304
267	0.303
268	0.301
268	0.3
269	0.299
269	0.297
270	0.296
270	0.295
271	0.293
271	0.292
272	0.291
272	0.289
272	0.288
273	0.286
273	0.285
274	0.283
274	0.282
275	0.28
275	0.278
276	0.277
276	0.275
277	0.273
277	0.272
278	0.27
278	0.268
278	0.266
279	0.263
279	0.261
280	0.259
280	0.258
281	0.256
281	0.254
282	0.252
282	0.251
283	0.249
283	0.248
284	0.247
284	0.246
285	0.244
285	0.243
285	0.242
286	0.24
286	0.239
287	0.238
287	0.236
288	0.235
288	0.234
289	0.233
289	0.231
290	0.23
290	0.229
291	0.228
291	0.227
292	0.226
292	0.225
292	0.223
293	0.223
293	0.222
294	0.221
294	0.22
295	0.219
295	0.218
296	0.217
296	0.216
297	0.215
297	0.215
298	0.214
298	0.213
298	0.212
299	0.211
299	0.211
300	0.21
300	0.209
301	0.208
301	0.207
302	0.207
302	0.206
303	0.205
303	0.205
304	0.204
304	0.203
305	0.203
305	0.202
305	0.201
306	0.2
306	0.2
307	0.199
307	0.198
308	0.197
308	0.196
309	0.196
309	0.195
310	0.194
310	0.194
311	0.193
311	0.192
311	0.191
312	0.191
312	0.19
313	0.19
313	0.189
314	0.188
314	0.187
315	0.186
315	0.186
316	0.185
316	0.184
317	0.183
317	0.183
318	0.182
318	0.181
318	0.181
319	0.18
319	0.179
320	0.178
320	0.177
321	0.176
321	0.176
322	0.175
322	0.174
323	0.173
323	0.172
324	0.172
324	0.171
324	0.17
325	0.17
325	0.169
326	0.168
326	0.168
327	0.167
327	0.166
328	0.166
328	0.165
329	0.164
329	0.164
330	0.163
330	0.163
330	0.162
331	0.161
331	0.161
332	0.16
332	0.159
333	0.159
333	0.158
334	0.157
334	0.156
335	0.156
335	0.155
336	0.155
336	0.154
336	0.153
337	0.152
337	0.152
338	0.151
338	0.15
339	0.15
339	0.15
340	0.149
340	0.148
341	0.148
341	0.147
342	0.147
342	0.146
342	0.146
343	0.145
343	0.145
344	0.144
344	0.144
345	0.143
345	0.143
346	0.142
346	0.142
347	0.141
347	0.14
348	0.14
348	0.14
348	0.139
349	0.138
349	0.138
350	0.137
350	0.137
351	0.136
351	0.136
352	0.135
352	0.135
353	0.134
353	0.133
354	0.133
354	0.132
354	0.131
355	0.13
355	0.13
356	0.13
356	0.13
357	0.129
357	0.129
358	0.129
358	0.129
359	0.129
359	0.13
360	0.13
360	0.13
360	0.13
361	0.13
361	0.13
362	0.13
362	0.13
363	0.13
363	0.13
364	0.129
364	0.129
365	0.129
365	0.129
366	0.129
366	0.128
366	0.128
367	0.128
367	0.128
368	0.127
368	0.127
369	0.127
369	0.126
370	0.126
370	0.126
371	0.125
371	0.125
372	0.124
372	0.124
372	0.124
373	0.124
373	0.124
374	0.124
374	0.124
375	0.124
375	0.123
376	0.123
376	0.124
377	0.124
377	0.124
378	0.124
378	0.124
378	0.124
379	0.124
379	0.123
380	0.124
380	0.124
381	0.123
381	0.123
382	0.123
382	0.122
383	0.122
383	0.122
383	0.121
384	0.121
384	0.121
385	0.121
385	0.12
386	0.12
386	0.12
387	0.12
387	0.12
388	0.119
388	0.119
389	0.119
389	0.119
389	0.119
390	0.119
390	0.119
391	0.119
391	0.119
392	0.119
392	0.119
393	0.119
393	0.119
394	0.119
394	0.119
394	0.118
395	0.118
395	0.117
396	0.117
396	0.117
397	0.117
397	0.117
398	0.117
398	0.117
399	0.117
399	0.117
400	0.117
400	0.117
400	0.117
401	0.116
401	0.115
402	0.114
402	0.114
403	0.114
403	0.114
404	0.113
404	0.113
405	0.113
405	0.113
405	0.112
406	0.112
406	0.112
407	0.112
407	0.112
408	0.112
408	0.111
409	0.111
409	0.111
410	0.111
410	0.111
411	0.111
411	0.11
411	0.11
412	0.109
412	0.109
413	0.108
413	0.108
414	0.108
414	0.107
415	0.107
415	0.107
416	0.106
416	0.106
416	0.105
417	0.105
417	0.105
418	0.105
418	0.106
419	0.106
419	0.107
420	0.107
420	0.107
421	0.108
421	0.108
421	0.108
422	0.109
422	0.109
423	0.108
423	0.108
424	0.107
424	0.106
425	0.105
425	0.105
426	0.104
426	0.104
427	0.104
427	0.104
427	0.105
428	0.105
428	0.106
429	0.106
429	0.106
430	0.106
430	0.106
431	0.106
431	0.105
432	0.105
432	0.104
432	0.103
433	0.102
433	0.102
434	0.101
434	0.101
435	0.101
435	0.101
436	0.101
436	0.101
437	0.101
437	0.101
437	0.101
438	0.101
438	0.1
439	0.1
439	0.1
440	0.1
440	0.1
441	0.1
441	0.1
442	0.1
442	0.1
442	0.1
443	0.1
443	0.101
444	0.101
444	0.101
445	0.101
445	0.101
446	0.101
446	0.101
447	0.101
447	0.101
447	0.1
448	0.1
448	0.1
449	0.1
449	0.099
450	0.099
450	0.099
451	0.098
451	0.098
452	0.098
452	0.097
452	0.097
453	0.097
453	0.096
454	0.096
454	0.096
455	0.096
455	0.095
456	0.095
456	0.095
457	0.095
457	0.095
458	0.095
458	0.095
458	0.096
459	0.096
459	0.096
460	0.095
460	0.095
461	0.095
461	0.094
462	0.094
462	0.095
463	0.095
463	0.095
463	0.096
464	0.096
464	0.096
465	0.096
465	0.096
466	0.096
466	0.096
467	0.096
467	0.095
467	0.095
468	0.093
468	0.092
469	0.091
469	0.09
470	0.09
470	0.09
471	0.09
471	0.09
472	0.09
472	0.09
472	0.091
473	0.092
473	0.093
474	0.093
474	0.094
475	0.095
475	0.095
476	0.095
476	0.095
477	0.096
477	0.096
477	0.096
478	0.096
478	0.096
479	0.097
479	0.098
480	0.098
480	0.099
481	0.1
481	0.1
482	0.101
482	0.102
482	0.104
483	0.105
483	0.108
484	0.11
484	0.111
485	0.112
485	0.113
486	0.114
486	0.115
487	0.115
487	0.116
487	0.116
488	0.115
488	0.114
489	0.113
489	0.113
490	0.112
490	0.112
491	0.112
491	0.113
492	0.113
492	0.114
492	0.114
493	0.115
493	0.117
494	0.119
494	0.121
495	0.122
495	0.124
496	0.125
496	0.126
496	0.128
497	0.129
497	0.13
498	0.131
498	0.131
499	0.131
499	0.132
500	0.133
500	0.134
501	0.135
501	0.136
501	0.137
502	0.138
502	0.139
503	0.141
503	0.142
504	0.143
504	0.143
505	0.144
505	0.144
506	0.145
506	0.146
506	0.147
507	0.147
507	0.148
508	0.149
508	0.15
509	0.15
509	0.151
510	0.152
510	0.153
511	0.153
511	0.154
511	0.154
512	0.155
512	0.155
513	0.155
513	0.155
514	0.155
514	0.155
515	0.154
515	0.154
515	0.153
516	0.153
516	0.154
517	0.154
517	0.154
518	0.155
518	0.155
519	0.154
519	0.153
520	0.152
520	0.151
520	0.149
521	0.147
521	0.145
522	0.143
522	0.141
523	0.14
523	0.139
524	0.14
524	0.14
524	0.142
525	0.144
525	0.146
526	0.148
526	0.15
527	0.153
527	0.155
528	0.156
528	0.158
529	0.159
529	0.16
529	0.16
530	0.161
530	0.161
531	0.161
531	0.161
532	0.16
532	0.16
533	0.159
533	0.159
533	0.158
534	0.158
534	0.157
535	0.156
535	0.156
536	0.156
536	0.155
537	0.154
537	0.153
538	0.152
538	0.151
538	0.15
539	0.149
539	0.148
540	0.146
540	0.145
541	0.143
541	0.141
542	0.14
542	0.138
542	0.137
543	0.136
543	0.135
544	0.133
544	0.132
545	0.131
545	0.131
546	0.13
546	0.129
547	0.128
547	0.126
547	0.124
548	0.122
548	0.12
549	0.118
549	0.117
550	0.115
550	0.112
551	0.11
551	0.108
551	0.106
552	0.105
552	0.104
553	0.103
553	0.102
554	0.102
554	0.1
555	0.098
555	0.096
556	0.094
556	0.092
556	0.089
557	0.087
557	0.085
558	0.084
558	0.081
559	0.08
559	0.078
560	0.077
560	0.076
560	0.076
561	0.075
561	0.075
562	0.075
562	0.074
563	0.072
563	0.07
564	0.068
564	0.066
564	0.064
565	0.063
565	0.062
566	0.06
566	0.059
567	0.059
567	0.059
568	0.059
568	0.06
568	0.06
569	0.061
569	0.062
570	0.062
570	0.061
571	0.061
571	0.061
572	0.061
572	0.06
573	0.059
573	0.058
573	0.057
574	0.056
574	0.056
575	0.055
575	0.057
576	0.057
576	0.055
577	0.054
577	0.053
577	0.052
578	0.052
578	0.052
579	0.054
579	0.055
580	0.053
580	0.05
581	0.047
581	0.046
581	0.046
582	0.046
582	0.046
583	0.047
583	0.045
584	0.042
584	0.038
585	0.038
585	0.038
585	0.038
586	0.038
586	0.037
587	0.035
587	0.033
588	0.031
588	0.029
589	0.029
589	0.029
590	0.028
590	0.028
590	0.029
591	0.03
591	0.03
592	0.029
592	0.028
593	0.028
593	0.028
594	0.027
594	0.026
594	0.026
595	0.025
595	0.024
596	0.023
596	0.024
597	0.027
597	0.028
598	0.029
598	0.03
598	0.03
599	0.031
599	0.03
600	0.029
600	0.027
601	0.027
601	0.025
602	0.023
602	0.022
602	0.021
603	0.02
603	0.021
604	0.022
604	0.022
605	0.024
605	0.025
606	0.025
606	0.024
606	0.024
607	0.024
607	0.024
608	0.023
608	0.022
609	0.021
609	0.021
610	0.021
610	0.02
610	0.02
611	0.021
611	0.023
612	0.024
612	0.026
613	0.027
613	0.028
614	0.028
614	0.027
614	0.027
615	0.026
615	0.026
616	0.026
616	0.025
617	0.024
617	0.023
618	0.022
618	0.022
618	0.022
619	0.022
619	0.023
620	0.025
620	0.026
621	0.027
621	0.028
622	0.028
622	0.029
622	0.029
623	0.029
623	0.03
624	0.031
624	0.03
625	0.03
625	0.03
626	0.03
626	0.03
626	0.031
627	0.032
627	0.032
628	0.033
628	0.034
629	0.034
629	0.035
630	0.034
630	0.034
630	0.035
631	0.035
631	0.036
632	0.036
632	0.036
633	0.037
633	0.038
634	0.04
634	0.042
634	0.044
635	0.046
635	0.047
636	0.048
636	0.049
637	0.05
637	0.051
638	0.053
638	0.054
638	0.055
639	0.055
639	0.055
640	0.056
640	0.057
641	0.057
641	0.059
642	0.06
642	0.061
642	0.063
643	0.064
643	0.065
644	0.067
644	0.069
645	0.071
645	0.073
646	0.076
646	0.078
646	0.081
647	0.084
647	0.086
648	0.088
648	0.091
649	0.093
649	0.095
650	0.097
650	0.1
650	0.101
651	0.103
651	0.105
652	0.107
652	0.109
653	0.113
653	0.121
653	0.136
654	0.113
654	0.095
655	0.096
655	0.098
656	0.1
656	0.102
657	0.104
657	0.105
657	0.106
658	0.104
658	0.094
659	0.116
659	0.146
660	0.153
660	0.155
661	0.157
661	0.159
661	0.162
662	0.165
662	0.168
663	0.171
663	0.174
664	0.177
664	0.179
665	0.182
665	0.185
665	0.187
666	0.19
666	0.192
667	0.194
667	0.197
668	0.199
668	0.202
669	0.204
669	0.207
669	0.211
670	0.214
670	0.216
671	0.219
671	0.22
672	0.222
672	0.223
672	0.225
673	0.226
673	0.228
674	0.229
674	0.23
675	0.231
675	0.232
676	0.235
676	0.237
676	0.238
677	0.24
677	0.242
678	0.243
678	0.244
679	0.245
679	0.246
680	0.247
680	0.248
680	0.248
681	0.248
681	0.248
682	0.249
682	0.25
683	0.252
683	0.254
684	0.256
684	0.256
684	0.257
685	0.258
685	0.259
686	0.26
686	0.26
687	0.26
687	0.26
687	0.26
688	0.259
688	0.259
689	0.26
689	0.261
690	0.261
690	0.26
691	0.259
691	0.259
691	0.259
692	0.258
692	0.257
693	0.257
693	0.257
694	0.256
694	0.254
695	0.255
695	0.256
695	0.257
696	0.256
696	0.256
697	0.255
697	0.254
698	0.253
698	0.252
698	0.251
699	0.25
699	0.247
700	0.245
700	0.243
701	0.242
701	0.24
702	0.238
702	0.237
702	0.236
703	0.234
703	0.232
704	0.231
704	0.23
705	0.229
705	0.228
705	0.226
706	0.224
706	0.223
707	0.221
707	0.218
708	0.216
708	0.214
709	0.212
709	0.21
709	0.206
710	0.203
710	0.201
711	0.199
711	0.197
712	0.195
712	0.194
713	0.192
713	0.191
713	0.189
714	0.187
714	0.186
715	0.184
715	0.182
716	0.18
716	0.178
716	0.176
717	0.174
717	0.171
718	0.169
718	0.166
719	0.164
719	0.162
720	0.159
720	0.156
720	0.153
721	0.15
721	0.147
722	0.144
722	0.141
723	0.139
723	0.137
723	0.135
724	0.132
724	0.13
725	0.128
725	0.127
726	0.126
726	0.125
727	0.123
727	0.122
727	0.121
728	0.119
728	0.118
729	0.117
729	0.116
730	0.115
730	0.113
730	0.111
731	0.11
731	0.108
732	0.107
732	0.105
733	0.103
733	0.1
734	0.098
734	0.095
734	0.093
735	0.092
735	0.089
736	0.087
736	0.085
737	0.083
737	0.082
737	0.08
738	0.077
738	0.074
739	0.072
739	0.07
740	0.068
740	0.066
741	0.065
741	0.062
741	0.059
742	0.055
742	0.052
743	0.051
743	0.048
744	0.046
744	0.045
744	0.042
745	0.04
745	0.038
746	0.036
746	0.035
747	0.034
747	0.033
748	0.033
748	0.032
748	0.031
749	0.03
749	0.029
750	0.029
750	0.028
751	0.027
751	0.027
751	0.027
752	0.027
752	0.026
753	0.025
753	0.025
754	0.024
754	0.023
754	0.023
755	0.023
755	0.022
756	0.021
756	0.019
757	0.018
757	0.018
758	0.017
758	0.016
758	0.015
759	0.014
759	0.012
760	0.01
760	0.008
761	0.006
761	0.006
761	0.005
762	0.003
762	0.003
763	0.001
763	-0.001
764	-0.004
764	-0.006
764	-0.009
765	-0.011
765	-0.013
766	-0.015
766	-0.016
767	-0.018
767	-0.021
768	-0.024
768	-0.025
768	-0.026
769	-0.027
769	-0.027
770	-0.028
770	-0.03
771	-0.032
771	-0.034
771	-0.037
772	-0.038
772	-0.04
773	-0.041
773	-0.043
774	-0.046
774	-0.048
775	-0.05
775	-0.053
775	-0.056
776	-0.059
776	-0.061
777	-0.064
777	-0.067
778	-0.071
778	-0.074
778	-0.077
779	-0.079
779	-0.08
780	-0.083
780	-0.086
781	-0.09
781	-0.094
781	-0.097
782	-0.101
782	-0.105
783	-0.109
783	-0.112
784	-0.116
784	-0.119
784	-0.121
785	-0.123
785	-0.125
786	-0.125
786	-0.123
787	-0.119
787	-0.115
788	-0.113
788	-0.114
788	-0.114
789	-0.116
789	-0.115
790	-0.111
790	-0.11
791	-0.11
791	-0.111
791	-0.113
792	-0.108
792	-0.099
793	-0.093
793	-0.09
794	-0.089
794	-0.091
794	-0.095
795	-0.098
795	-0.098
796	-0.098
796	-0.101
797	-0.109
797	-0.119
797	-0.125
798	-0.13
798	-0.132
799	-0.133
799	-0.133
800	-0.133
800	-0.135
801	-0.138
801	-0.139
801	-0.14
802	-0.142
802	-0.143
803	-0.144
803	-0.144
804	-0.143
804	-0.138
804	-0.131
805	-0.127
805	-0.125
806	-0.123
806	-0.121
807	-0.12
807	-0.119
807	-0.119
808	-0.119
808	-0.12
809	-0.125
809	-0.13
810	-0.134
810	-0.136
810	-0.139
811	-0.142
811	-0.142
812	-0.137
812	-0.134
813	-0.133
813	-0.133
813	-0.133
814	-0.134
814	-0.133
815	-0.131
815	-0.128
816	-0.126
816	-0.127
817	-0.131
817	-0.135
817	-0.135
818	-0.135
818	-0.132
819	-0.127
819	-0.125
820	-0.126
820	-0.128
820	-0.129
821	-0.129
821	-0.127
822	-0.124
822	-0.121
823	-0.117
823	-0.116
823	-0.116
824	-0.114
824	-0.108
825	-0.101
825	-0.094
826	-0.087
826	-0.082
826	-0.077
827	-0.072
827	-0.068
828	-0.064
828	-0.061
829	-0.058
829	-0.055
829	-0.053
830	-0.052
830	-0.05
831	-0.048
831	-0.046
832	-0.045
832	-0.043
832	-0.042
833	-0.041
833	-0.04
834	-0.039
834	-0.038
835	-0.038
835	-0.037
835	-0.037
836	-0.037
836	-0.036
837	-0.036
837	-0.036
838	-0.036
838	-0.036
839	-0.036
839	-0.036
839	-0.036
840	-0.036
840	-0.036
841	-0.035
841	-0.035
842	-0.034
842	-0.034
842	-0.033
843	-0.032
843	-0.031
844	-0.031
844	-0.03
845	-0.029
845	-0.029
845	-0.028
846	-0.028
846	-0.028
847	-0.027
847	-0.027
848	-0.027
848	-0.027
848	-0.027
849	-0.028
849	-0.028
850	-0.028
850	-0.029
851	-0.029
851	-0.029
851	-0.029
852	-0.029
852	-0.029
853	-0.028
853	-0.028
854	-0.028
854	-0.027
854	-0.026
855	-0.026
855	-0.025
856	-0.024
856	-0.023
857	-0.022
857	-0.022
857	-0.021
858	-0.021
858	-0.02
859	-0.02
859	-0.02
860	-0.02
860	-0.019
860	-0.019
861	-0.019
861	-0.019
862	-0.019
862	-0.019
863	-0.019
863	-0.018
863	-0.019
864	-0.019
864	-0.019
865	-0.019
865	-0.019
866	-0.02
866	-0.02
866	-0.02
867	-0.02
867	-0.019
868	-0.019
868	-0.018
869	-0.017
869	-0.016
869	-0.015
870	-0.014
870	-0.013
871	-0.012
871	-0.011
872	-0.011
872	-0.011
872	-0.01
873	-0.01
873	-0.01
874	-0.01
874	-0.01
875	-0.01
875	-0.01
875	-0.01
876	-0.011
876	-0.011
877	-0.011
877	-0.012
878	-0.013
878	-0.013
878	-0.014
879	-0.015
879	-0.016
880	-0.016
880	-0.017
881	-0.017
881	-0.017
881	-0.016
882	-0.016
882	-0.015
883	-0.014
883	-0.014
884	-0.013
884	-0.012
884	-0.012
885	-0.011
885	-0.011
886	-0.011
886	-0.01
887	-0.01
887	-0.01
887	-0.01
888	-0.01
888	-0.009
889	-0.008
889	-0.007
890	-0.006
890	-0.005
890	-0.005
891	-0.004
891	-0.004
892	-0.004
892	-0.004
893	-0.004
893	-0.005
893	-0.006
894	-0.006
894	-0.008
895	-0.009
895	-0.009
895	-0.011
896	-0.012
896	-0.012
897	-0.013
897	-0.013
898	-0.013
898	-0.013
898	-0.013
899	-0.013
899	-0.012
900	-0.012
900	-0.012
901	-0.012
901	-0.012
901	-0.012
902	-0.012
902	-0.012
903	-0.012
903	-0.012
904	-0.012
904	-0.013
904	-0.013
905	-0.014
905	-0.014
906	-0.015
906	-0.015
907	-0.016
907	-0.016
907	-0.017
908	-0.018
908	-0.018
909	-0.018
909	-0.018
910	-0.018
910	-0.017
910	-0.017
911	-0.017
911	-0.016
912	-0.016
912	-0.016
913	-0.016
913	-0.017
913	-0.017
914	-0.017
914	-0.018
915	-0.019
915	-0.019
916	-0.02
916	-0.02
916	-0.02
917	-0.02
917	-0.019
918	-0.018
918	-0.017
918	-0.016
919	-0.015
919	-0.013
920	-0.012
920	-0.01
921	-0.009
921	-0.008
921	-0.007
922	-0.006
922	-0.005
923	-0.004
923	-0.003
924	-0.002
924	-0.002
924	-0.002
925	-0.001
925	-0.001
926	-0
926	0
927	0
927	0
927	0
928	0
928	0
929	0.001
929	0
930	0
930	-0
930	-0.001
931	-0.002
931	-0.004
932	-0.005
932	-0.006
933	-0.007
933	-0.009
933	-0.01
934	-0.012
934	-0.013
935	-0.014
935	-0.015
935	-0.016
936	-0.016
936	-0.016
937	-0.017
937	-0.017
938	-0.017
938	-0.017
938	-0.016
939	-0.016
939	-0.015
940	-0.014
940	-0.013
941	-0.013
941	-0.012
941	-0.011
942	-0.01
942	-0.01
943	-0.009
943	-0.009
944	-0.009
944	-0.008
944	-0.008
945	-0.007
945	-0.007
946	-0.006
946	-0.006
946	-0.006
947	-0.006
947	-0.007
948	-0.007
948	-0.007
949	-0.007
949	-0.007
949	-0.007
950	-0.007
950	-0.007
951	-0.007
951	-0.007
952	-0.007
952	-0.007
952	-0.006
953	-0.006
953	-0.006
954	-0.006
954	-0.006
955	-0.006
955	-0.005
955	-0.005
956	-0.004
956	-0.004
957	-0.004
957	-0.005
957	-0.005
958	-0.006
958	-0.006
959	-0.006
959	-0.007
960	-0.008
960	-0.009
960	-0.01
961	-0.011
961	-0.011
962	-0.012
962	-0.012
963	-0.012
963	-0.012
963	-0.011
964	-0.011
964	-0.01
965	-0.009
965	-0.008
966	-0.007
966	-0.006
966	-0.005
967	-0.004
967	-0.003
968	-0.003
968	-0.003
968	-0.003
969	-0.003
969	-0.003
970	-0.003
970	-0.004
971	-0.004
971	-0.005
971	-0.006
972	-0.006
972	-0.007
973	-0.007
973	-0.008
974	-0.009
974	-0.009
974	-0.01
975	-0.011
975	-0.011
976	-0.012
976	-0.013
976	-0.015
977	-0.016
977	-0.017
978	-0.018
978	-0.019
979	-0.02
979	-0.021
979	-0.021
980	-0.022
980	-0.022
981	-0.021
981	-0.02
982	-0.019
982	-0.018
982	-0.016
983	-0.015
983	-0.014
984	-0.012
984	-0.011
984	-0.01
985	-0.009
985	-0.008
986	-0.008
986	-0.009
987	-0.009
987	-0.01
987	-0.01
988	-0.011
988	-0.012
989	-0.014
989	-0.015
990	-0.016
990	-0.017
990	-0.018
991	-0.018
991	-0.019
992	-0.019
992	-0.019
992	-0.02
993	-0.02
993	-0.021
994	-0.021
994	-0.022
995	-0.022
995	-0.023
995	-0.024
996	-0.025
996	-0.025
997	-0.026
997	-0.026
997	-0.026
998	-0.026
998	-0.026
999	-0.025
999	-0.025
1000	-0.024
1000	-0.023
1000	-0.023
1001	-0.022
1001	-0.021
1002	-0.021
1002	-0.02
1003	-0.02
1003	-0.02
1003	-0.019
1004	-0.019
1004	-0.018
1005	-0.018
1005	-0.018
1005	-0.017
1006	-0.017
1006	-0.016
1007	-0.016
1007	-0.015
1008	-0.015
1008	-0.014
1008	-0.014
1009	-0.013
1009	-0.012
1010	-0.012
1010	-0.012
1010	-0.011
1011	-0.011
1011	-0.011
1012	-0.011
1012	-0.011
1013	-0.011
1013	-0.012
1013	-0.012
1014	-0.013
1014	-0.014
1015	-0.014
1015	-0.015
1016	-0.016
1016	-0.017
1016	-0.018
1017	-0.018
1017	-0.019
1018	-0.019
1018	-0.019
1018	-0.019
1019	-0.019
1019	-0.019
1020	-0.019
1020	-0.019
1021	-0.019
1021	-0.019
1021	-0.019
1022	-0.019
1022	-0.02
1023	-0.02
1023	-0.02
1023	-0.021
1024	-0.022
1024	-0.023
1025	-0.023
1025	-0.024
1026	-0.024
1026	-0.025
1026	-0.025
1027	-0.025
1027	-0.025
1028	-0.024
1028	-0.024
1028	-0.023
1029	-0.022
1029	-0.022
1030	-0.021
1030	-0.021
1031	-0.02
1031	-0.02
1031	-0.019
1032	-0.019
1032	-0.019
1033	-0.019
1033	-0.019
1033	-0.019
1034	-0.02
1034	-0.02
1035	-0.021
1035	-0.022
1036	-0.022
1036	-0.023
1036	-0.023
1037	-0.024
1037	-0.024
1038	-0.025
1038	-0.025
1039	-0.025
1039	-0.025
1039	-0.025
1040	-0.025
1040	-0.025
1041	-0.025
1041	-0.025
1041	-0.025
1042	-0.026
1042	-0.026
1043	-0.027
1043	-0.028
1044	-0.028
1044	-0.029
1044	-0.03
1045	-0.03
1045	-0.031
1046	-0.032
1046	-0.032
1046	-0.032
1047	-0.031
1047	-0.031
1048	-0.031
1048	-0.03
1049	-0.031
1049	-0.031
1049	-0.031
1050	-0.031
1050	-0.031
1051	-0.031
1051	-0.03
1051	-0.029
1052	-0.028
1052	-0.028
1053	-0.027
1053	-0.026
1053	-0.024
1054	-0.023
1054	-0.022
1055	-0.02
1055	-0.019
1056	-0.019
1056	-0.018
1056	-0.019
1057	-0.018
1057	-0.018
1058	-0.018
1058	-0.018
1058	-0.017
1059	-0.017
1059	-0.017
1060	-0.017
1060	-0.017
1061	-0.016
1061	-0.016
1061	-0.015
1062	-0.015
1062	-0.015
1063	-0.015
1063	-0.015
1063	-0.015
1064	-0.015
1064	-0.014
1065	-0.014
1065	-0.014
1066	-0.014
1066	-0.014
1066	-0.014
1067	-0.014
1067	-0.013
1068	-0.013
1068	-0.013
1068	-0.013
1069	-0.013
1069	-0.014
1070	-0.013
1070	-0.013
1071	-0.012
1071	-0.011
1071	-0.011
1072	-0.01
1072	-0.009
1073	-0.008
1073	-0.006
1073	-0.006
1074	-0.004
1074	-0.003
1075	-0.003
1075	-0.002
1076	-0.002
1076	-0
1076	0
1077	0
1077	0.001
1078	0.002
1078	0.003
1078	0.004
1079	0.005
1079	0.007
1080	0.008
1080	0.01
1080	0.01
1081	0.012
1081	0.014
1082	0.016
1082	0.017
1083	0.018
1083	0.019
1083	0.021
1084	0.022
1084	0.024
1085	0.025
1085	0.027
1085	0.029
1086	0.031
1086	0.031
1087	0.033
1087	0.035
1088	0.036
1088	0.037
1088	0.039
1089	0.04
1089	0.042
1090	0.044
1090	0.046
1090	0.049
1091	0.053
1091	0.057
1092	0.06
1092	0.065
1092	0.069
1093	0.074
1093	0.08
1094	0.085
1094	0.091
1095	0.097
1095	0.104
1095	0.112
1096	0.119
1096	0.128
1097	0.138
1097	0.147
1097	0.157
1098	0.168
1098	0.18
1099	0.192
1099	0.206
1100	0.22
1100	0.237
1100	0.254
1101	0.271
1101	0.291
1102	0.317
1102	0.345
1102	0.376
1103	0.409
1103	0.45
1104	0.498
1104	0.555
1104	0.627
1105	0.718
1105	0.828
1106	0.984
1106	1.255
1107	2.731
1107	-0
1107	-0
1108	-0
1108	-0
1109	-0
1109	-0
1109	-0
1110	-0
1110	-0
1111	-0
1111	-0
