Data from 15c-100ul-ns-20ul-nr-full-exp-7ul-bp_Absorbance__585__04923.txt Node

Date: Mon Jan 15 15:32:19 CET 2024
User: Marek
Spectrometer: MAYP115816
Trigger mode: 0
Integration Time (sec): 2.000000E-1
Scans to average: 10
Electric dark correction enabled: true
Nonlinearity correction enabled: true
Boxcar width: 5
XAxis mode: Wavelengths
Number of Pixels in Spectrum: 2068
>>>>>Begin Spectral Data<<<<<
199	-1.938
199	-1.809
200	-1.666
200	-1.555
201	-1.482
201	-1.432
202	-1.361
202	-1.306
203	-1.256
203	-1.217
204	-1.188
204	-1.166
205	-1.144
205	-1.135
205	-1.133
206	-1.132
206	-1.13
207	-1.126
207	-1.123
208	-1.122
208	-1.116
209	-1.115
209	-1.113
210	-1.113
210	-1.111
211	-1.109
211	-1.107
212	-1.104
212	-1.104
213	-1.103
213	-1.101
213	-1.102
214	-1.101
214	-1.101
215	-1.1
215	-1.101
216	-1.1
216	-1.099
217	-1.098
217	-1.097
218	-1.096
218	-1.093
219	-1.091
219	-1.09
220	-1.085
220	-1.08
221	-1.076
221	-1.071
221	-1.066
222	-1.061
222	-1.056
223	-1.048
223	-1.045
224	-1.039
224	-1.03
225	-1.021
225	-1.01
226	-1.001
226	-0.99
227	-0.975
227	-0.958
228	-0.939
228	-0.919
229	-0.895
229	-0.865
229	-0.837
230	-0.805
230	-0.77
231	-0.732
231	-0.691
232	-0.65
232	-0.606
233	-0.561
233	-0.515
234	-0.469
234	-0.423
235	-0.377
235	-0.332
236	-0.288
236	-0.244
236	-0.203
237	-0.164
237	-0.127
238	-0.091
238	-0.058
239	-0.027
239	0.002
240	0.028
240	0.052
241	0.074
241	0.095
242	0.113
242	0.131
243	0.146
243	0.16
243	0.173
244	0.185
244	0.196
245	0.205
245	0.214
246	0.223
246	0.23
247	0.237
247	0.244
248	0.25
248	0.256
249	0.261
249	0.265
250	0.27
250	0.274
250	0.279
251	0.282
251	0.286
252	0.289
252	0.292
253	0.295
253	0.298
254	0.3
254	0.303
255	0.304
255	0.306
256	0.308
256	0.309
257	0.31
257	0.312
258	0.312
258	0.313
258	0.314
259	0.315
259	0.315
260	0.316
260	0.316
261	0.316
261	0.316
262	0.316
262	0.316
263	0.316
263	0.316
264	0.315
264	0.315
265	0.314
265	0.314
265	0.313
266	0.312
266	0.312
267	0.311
267	0.31
268	0.309
268	0.308
269	0.306
269	0.305
270	0.303
270	0.302
271	0.3
271	0.299
272	0.298
272	0.296
272	0.295
273	0.293
273	0.292
274	0.29
274	0.289
275	0.287
275	0.286
276	0.284
276	0.282
277	0.281
277	0.279
278	0.277
278	0.275
278	0.273
279	0.27
279	0.268
280	0.266
280	0.265
281	0.263
281	0.261
282	0.259
282	0.257
283	0.256
283	0.254
284	0.253
284	0.252
285	0.251
285	0.249
285	0.248
286	0.247
286	0.246
287	0.244
287	0.243
288	0.242
288	0.241
289	0.24
289	0.238
290	0.237
290	0.236
291	0.235
291	0.234
292	0.232
292	0.231
292	0.23
293	0.229
293	0.228
294	0.227
294	0.226
295	0.225
295	0.224
296	0.223
296	0.222
297	0.221
297	0.22
298	0.22
298	0.219
298	0.218
299	0.217
299	0.217
300	0.216
300	0.215
301	0.214
301	0.213
302	0.213
302	0.212
303	0.211
303	0.211
304	0.21
304	0.209
305	0.209
305	0.208
305	0.207
306	0.206
306	0.206
307	0.205
307	0.204
308	0.203
308	0.203
309	0.202
309	0.201
310	0.2
310	0.2
311	0.199
311	0.198
311	0.197
312	0.197
312	0.196
313	0.195
313	0.194
314	0.194
314	0.193
315	0.192
315	0.191
316	0.19
316	0.19
317	0.189
317	0.188
318	0.188
318	0.187
318	0.186
319	0.185
319	0.185
320	0.184
320	0.183
321	0.182
321	0.181
322	0.181
322	0.18
323	0.179
323	0.178
324	0.178
324	0.177
324	0.176
325	0.175
325	0.175
326	0.174
326	0.173
327	0.173
327	0.172
328	0.171
328	0.171
329	0.17
329	0.169
330	0.168
330	0.168
330	0.167
331	0.166
331	0.166
332	0.165
332	0.165
333	0.164
333	0.163
334	0.162
334	0.162
335	0.161
335	0.16
336	0.16
336	0.159
336	0.158
337	0.158
337	0.157
338	0.156
338	0.156
339	0.155
339	0.155
340	0.154
340	0.154
341	0.153
341	0.152
342	0.152
342	0.151
342	0.151
343	0.15
343	0.15
344	0.149
344	0.149
345	0.148
345	0.148
346	0.147
346	0.147
347	0.146
347	0.146
348	0.145
348	0.145
348	0.144
349	0.144
349	0.143
350	0.143
350	0.142
351	0.142
351	0.141
352	0.14
352	0.14
353	0.139
353	0.138
354	0.138
354	0.137
354	0.136
355	0.136
355	0.135
356	0.135
356	0.135
357	0.135
357	0.134
358	0.135
358	0.135
359	0.135
359	0.135
360	0.135
360	0.136
360	0.136
361	0.136
361	0.136
362	0.135
362	0.135
363	0.135
363	0.135
364	0.135
364	0.134
365	0.134
365	0.134
366	0.134
366	0.133
366	0.133
367	0.133
367	0.133
368	0.132
368	0.132
369	0.131
369	0.131
370	0.131
370	0.13
371	0.13
371	0.13
372	0.129
372	0.129
372	0.129
373	0.129
373	0.129
374	0.129
374	0.129
375	0.129
375	0.128
376	0.128
376	0.128
377	0.128
377	0.128
378	0.129
378	0.129
378	0.129
379	0.129
379	0.129
380	0.129
380	0.129
381	0.128
381	0.128
382	0.128
382	0.128
383	0.127
383	0.127
383	0.126
384	0.126
384	0.125
385	0.125
385	0.125
386	0.125
386	0.125
387	0.125
387	0.125
388	0.124
388	0.124
389	0.124
389	0.124
389	0.124
390	0.124
390	0.124
391	0.124
391	0.124
392	0.124
392	0.124
393	0.124
393	0.124
394	0.124
394	0.124
394	0.123
395	0.123
395	0.123
396	0.122
396	0.122
397	0.122
397	0.122
398	0.122
398	0.122
399	0.122
399	0.122
400	0.122
400	0.122
400	0.121
401	0.121
401	0.12
402	0.119
402	0.119
403	0.119
403	0.119
404	0.119
404	0.118
405	0.118
405	0.118
405	0.117
406	0.117
406	0.117
407	0.117
407	0.117
408	0.117
408	0.116
409	0.116
409	0.115
410	0.115
410	0.115
411	0.115
411	0.115
411	0.114
412	0.114
412	0.113
413	0.113
413	0.113
414	0.112
414	0.112
415	0.112
415	0.111
416	0.111
416	0.111
416	0.11
417	0.11
417	0.11
418	0.11
418	0.11
419	0.11
419	0.111
420	0.112
420	0.112
421	0.112
421	0.113
421	0.113
422	0.113
422	0.113
423	0.113
423	0.112
424	0.112
424	0.111
425	0.11
425	0.11
426	0.109
426	0.109
427	0.109
427	0.109
427	0.11
428	0.11
428	0.111
429	0.111
429	0.111
430	0.112
430	0.111
431	0.111
431	0.111
432	0.11
432	0.109
432	0.108
433	0.107
433	0.107
434	0.106
434	0.106
435	0.106
435	0.106
436	0.106
436	0.106
437	0.106
437	0.106
437	0.106
438	0.106
438	0.106
439	0.106
439	0.105
440	0.105
440	0.105
441	0.105
441	0.105
442	0.105
442	0.105
442	0.105
443	0.106
443	0.106
444	0.106
444	0.106
445	0.106
445	0.106
446	0.106
446	0.106
447	0.106
447	0.106
447	0.105
448	0.105
448	0.105
449	0.105
449	0.104
450	0.104
450	0.104
451	0.103
451	0.103
452	0.103
452	0.102
452	0.101
453	0.101
453	0.101
454	0.1
454	0.1
455	0.1
455	0.1
456	0.1
456	0.1
457	0.1
457	0.1
458	0.101
458	0.101
458	0.101
459	0.101
459	0.101
460	0.101
460	0.101
461	0.1
461	0.1
462	0.1
462	0.1
463	0.1
463	0.101
463	0.101
464	0.101
464	0.102
465	0.102
465	0.102
466	0.102
466	0.102
467	0.102
467	0.101
467	0.1
468	0.099
468	0.098
469	0.097
469	0.096
470	0.096
470	0.095
471	0.095
471	0.095
472	0.095
472	0.095
472	0.096
473	0.097
473	0.098
474	0.099
474	0.099
475	0.1
475	0.1
476	0.101
476	0.101
477	0.101
477	0.101
477	0.101
478	0.101
478	0.102
479	0.102
479	0.102
480	0.103
480	0.103
481	0.104
481	0.105
482	0.106
482	0.107
482	0.108
483	0.11
483	0.113
484	0.115
484	0.116
485	0.117
485	0.118
486	0.119
486	0.12
487	0.12
487	0.121
487	0.121
488	0.12
488	0.119
489	0.118
489	0.118
490	0.118
490	0.118
491	0.118
491	0.118
492	0.119
492	0.12
492	0.12
493	0.122
493	0.123
494	0.125
494	0.127
495	0.129
495	0.13
496	0.131
496	0.133
496	0.134
497	0.135
497	0.136
498	0.137
498	0.137
499	0.138
499	0.138
500	0.139
500	0.14
501	0.142
501	0.143
501	0.144
502	0.145
502	0.147
503	0.148
503	0.15
504	0.151
504	0.151
505	0.152
505	0.152
506	0.153
506	0.154
506	0.155
507	0.155
507	0.156
508	0.156
508	0.157
509	0.158
509	0.159
510	0.16
510	0.16
511	0.161
511	0.161
511	0.161
512	0.162
512	0.162
513	0.162
513	0.162
514	0.161
514	0.161
515	0.161
515	0.16
515	0.16
516	0.16
516	0.16
517	0.161
517	0.161
518	0.162
518	0.161
519	0.161
519	0.16
520	0.158
520	0.156
520	0.154
521	0.152
521	0.15
522	0.148
522	0.146
523	0.145
523	0.145
524	0.146
524	0.148
524	0.15
525	0.152
525	0.154
526	0.157
526	0.159
527	0.161
527	0.163
528	0.165
528	0.167
529	0.167
529	0.168
529	0.168
530	0.168
530	0.168
531	0.169
531	0.169
532	0.168
532	0.168
533	0.167
533	0.167
533	0.166
534	0.165
534	0.164
535	0.163
535	0.163
536	0.163
536	0.162
537	0.161
537	0.16
538	0.159
538	0.157
538	0.156
539	0.155
539	0.154
540	0.153
540	0.152
541	0.15
541	0.148
542	0.146
542	0.145
542	0.143
543	0.143
543	0.141
544	0.14
544	0.139
545	0.138
545	0.137
546	0.137
546	0.136
547	0.134
547	0.132
547	0.13
548	0.128
548	0.126
549	0.124
549	0.122
550	0.12
550	0.118
551	0.115
551	0.113
551	0.112
552	0.11
552	0.109
553	0.108
553	0.107
554	0.106
554	0.105
555	0.103
555	0.101
556	0.099
556	0.097
556	0.094
557	0.092
557	0.09
558	0.088
558	0.086
559	0.085
559	0.083
560	0.082
560	0.081
560	0.08
561	0.08
561	0.08
562	0.079
562	0.078
563	0.076
563	0.075
564	0.072
564	0.071
564	0.069
565	0.068
565	0.067
566	0.065
566	0.064
567	0.063
567	0.063
568	0.063
568	0.064
568	0.064
569	0.065
569	0.066
570	0.065
570	0.065
571	0.065
571	0.065
572	0.064
572	0.064
573	0.063
573	0.062
573	0.061
574	0.06
574	0.059
575	0.059
575	0.06
576	0.06
576	0.059
577	0.057
577	0.056
577	0.055
578	0.055
578	0.055
579	0.056
579	0.057
580	0.056
580	0.053
581	0.05
581	0.049
581	0.049
582	0.049
582	0.049
583	0.05
583	0.048
584	0.045
584	0.041
585	0.04
585	0.041
585	0.041
586	0.041
586	0.04
587	0.038
587	0.036
588	0.033
588	0.032
589	0.031
589	0.031
590	0.031
590	0.03
590	0.032
591	0.032
591	0.032
592	0.032
592	0.031
593	0.031
593	0.031
594	0.03
594	0.029
594	0.028
595	0.028
595	0.026
596	0.025
596	0.026
597	0.029
597	0.03
598	0.031
598	0.032
598	0.032
599	0.032
599	0.032
600	0.031
600	0.029
601	0.029
601	0.028
602	0.025
602	0.024
602	0.023
603	0.022
603	0.023
604	0.024
604	0.024
605	0.026
605	0.027
606	0.027
606	0.026
606	0.026
607	0.026
607	0.026
608	0.025
608	0.024
609	0.023
609	0.023
610	0.022
610	0.021
610	0.022
611	0.023
611	0.024
612	0.026
612	0.027
613	0.029
613	0.03
614	0.029
614	0.029
614	0.029
615	0.028
615	0.028
616	0.027
616	0.027
617	0.026
617	0.025
618	0.024
618	0.024
618	0.024
619	0.024
619	0.025
620	0.027
620	0.028
621	0.029
621	0.03
622	0.03
622	0.031
622	0.031
623	0.031
623	0.032
624	0.032
624	0.032
625	0.031
625	0.032
626	0.032
626	0.032
626	0.033
627	0.033
627	0.034
628	0.035
628	0.036
629	0.036
629	0.036
630	0.036
630	0.036
630	0.037
631	0.038
631	0.038
632	0.038
632	0.038
633	0.039
633	0.04
634	0.042
634	0.044
634	0.046
635	0.047
635	0.048
636	0.049
636	0.051
637	0.052
637	0.053
638	0.054
638	0.055
638	0.056
639	0.057
639	0.057
640	0.058
640	0.059
641	0.06
641	0.061
642	0.062
642	0.063
642	0.065
643	0.066
643	0.067
644	0.069
644	0.071
645	0.073
645	0.075
646	0.077
646	0.08
646	0.083
647	0.086
647	0.088
648	0.09
648	0.093
649	0.095
649	0.097
650	0.1
650	0.102
650	0.104
651	0.106
651	0.108
652	0.11
652	0.112
653	0.116
653	0.124
653	0.139
654	0.115
654	0.096
655	0.098
655	0.1
656	0.102
656	0.104
657	0.106
657	0.107
657	0.108
658	0.106
658	0.096
659	0.119
659	0.15
660	0.156
660	0.158
661	0.16
661	0.162
661	0.165
662	0.168
662	0.171
663	0.174
663	0.177
664	0.18
664	0.182
665	0.185
665	0.188
665	0.19
666	0.193
666	0.195
667	0.197
667	0.2
668	0.202
668	0.205
669	0.207
669	0.21
669	0.214
670	0.217
670	0.22
671	0.222
671	0.224
672	0.226
672	0.227
672	0.229
673	0.23
673	0.232
674	0.233
674	0.234
675	0.235
675	0.237
676	0.239
676	0.241
676	0.243
677	0.245
677	0.246
678	0.248
678	0.249
679	0.249
679	0.25
680	0.251
680	0.252
680	0.252
681	0.252
681	0.252
682	0.253
682	0.254
683	0.256
683	0.258
684	0.26
684	0.26
684	0.261
685	0.262
685	0.263
686	0.264
686	0.264
687	0.264
687	0.264
687	0.264
688	0.263
688	0.263
689	0.264
689	0.265
690	0.265
690	0.264
691	0.264
691	0.263
691	0.263
692	0.262
692	0.261
693	0.261
693	0.261
694	0.26
694	0.258
695	0.259
695	0.26
695	0.26
696	0.26
696	0.259
697	0.259
697	0.258
698	0.257
698	0.256
698	0.255
699	0.254
699	0.251
700	0.248
700	0.247
701	0.245
701	0.244
702	0.242
702	0.241
702	0.239
703	0.238
703	0.236
704	0.235
704	0.234
705	0.233
705	0.231
705	0.229
706	0.228
706	0.226
707	0.224
707	0.222
708	0.22
708	0.218
709	0.215
709	0.212
709	0.209
710	0.206
710	0.204
711	0.202
711	0.2
712	0.198
712	0.196
713	0.195
713	0.194
713	0.192
714	0.19
714	0.189
715	0.187
715	0.185
716	0.183
716	0.181
716	0.179
717	0.177
717	0.174
718	0.171
718	0.169
719	0.167
719	0.165
720	0.162
720	0.159
720	0.156
721	0.152
721	0.149
722	0.146
722	0.143
723	0.141
723	0.139
723	0.136
724	0.134
724	0.132
725	0.13
725	0.129
726	0.128
726	0.127
727	0.125
727	0.124
727	0.123
728	0.121
728	0.12
729	0.119
729	0.118
730	0.117
730	0.115
730	0.113
731	0.112
731	0.11
732	0.109
732	0.107
733	0.105
733	0.102
734	0.1
734	0.097
734	0.095
735	0.094
735	0.091
736	0.089
736	0.087
737	0.085
737	0.084
737	0.082
738	0.079
738	0.076
739	0.074
739	0.072
740	0.07
740	0.068
741	0.066
741	0.064
741	0.061
742	0.057
742	0.054
743	0.052
743	0.05
744	0.048
744	0.046
744	0.044
745	0.042
745	0.04
746	0.038
746	0.037
747	0.036
747	0.035
748	0.034
748	0.033
748	0.032
749	0.031
749	0.03
750	0.03
750	0.029
751	0.029
751	0.029
751	0.029
752	0.028
752	0.027
753	0.026
753	0.026
754	0.025
754	0.024
754	0.024
755	0.024
755	0.023
756	0.022
756	0.02
757	0.019
757	0.019
758	0.018
758	0.017
758	0.016
759	0.015
759	0.013
760	0.011
760	0.009
761	0.008
761	0.007
761	0.006
762	0.004
762	0.003
763	0.002
763	-0
764	-0.003
764	-0.005
764	-0.008
765	-0.01
765	-0.013
766	-0.014
766	-0.015
767	-0.017
767	-0.02
768	-0.023
768	-0.025
768	-0.026
769	-0.026
769	-0.027
770	-0.028
770	-0.029
771	-0.031
771	-0.034
771	-0.036
772	-0.037
772	-0.039
773	-0.04
773	-0.043
774	-0.045
774	-0.048
775	-0.05
775	-0.053
775	-0.056
776	-0.058
776	-0.061
777	-0.064
777	-0.066
778	-0.07
778	-0.073
778	-0.076
779	-0.078
779	-0.079
780	-0.082
780	-0.086
781	-0.089
781	-0.093
781	-0.097
782	-0.1
782	-0.105
783	-0.109
783	-0.112
784	-0.115
784	-0.119
784	-0.121
785	-0.123
785	-0.125
786	-0.125
786	-0.123
787	-0.119
787	-0.115
788	-0.114
788	-0.114
788	-0.115
789	-0.116
789	-0.115
790	-0.112
790	-0.11
791	-0.11
791	-0.112
791	-0.114
792	-0.109
792	-0.099
793	-0.093
793	-0.09
794	-0.089
794	-0.091
794	-0.095
795	-0.098
795	-0.098
796	-0.098
796	-0.101
797	-0.109
797	-0.119
797	-0.125
798	-0.13
798	-0.133
799	-0.133
799	-0.133
800	-0.133
800	-0.135
801	-0.138
801	-0.139
801	-0.14
802	-0.142
802	-0.143
803	-0.144
803	-0.144
804	-0.143
804	-0.138
804	-0.131
805	-0.127
805	-0.125
806	-0.123
806	-0.121
807	-0.12
807	-0.12
807	-0.119
808	-0.119
808	-0.12
809	-0.125
809	-0.13
810	-0.134
810	-0.136
810	-0.139
811	-0.142
811	-0.142
812	-0.137
812	-0.134
813	-0.133
813	-0.133
813	-0.133
814	-0.134
814	-0.133
815	-0.131
815	-0.128
816	-0.126
816	-0.127
817	-0.131
817	-0.135
817	-0.136
818	-0.135
818	-0.132
819	-0.127
819	-0.125
820	-0.126
820	-0.129
820	-0.13
821	-0.129
821	-0.127
822	-0.125
822	-0.121
823	-0.118
823	-0.117
823	-0.117
824	-0.115
824	-0.11
825	-0.102
825	-0.095
826	-0.088
826	-0.083
826	-0.078
827	-0.073
827	-0.069
828	-0.065
828	-0.062
829	-0.059
829	-0.056
829	-0.054
830	-0.053
830	-0.051
831	-0.048
831	-0.047
832	-0.046
832	-0.044
832	-0.043
833	-0.042
833	-0.041
834	-0.04
834	-0.039
835	-0.039
835	-0.038
835	-0.038
836	-0.038
836	-0.037
837	-0.037
837	-0.037
838	-0.036
838	-0.037
839	-0.037
839	-0.037
839	-0.037
840	-0.037
840	-0.037
841	-0.036
841	-0.036
842	-0.035
842	-0.034
842	-0.034
843	-0.033
843	-0.032
844	-0.031
844	-0.03
845	-0.03
845	-0.029
845	-0.028
846	-0.028
846	-0.028
847	-0.028
847	-0.028
848	-0.028
848	-0.028
848	-0.028
849	-0.028
849	-0.028
850	-0.028
850	-0.029
851	-0.029
851	-0.029
851	-0.029
852	-0.029
852	-0.029
853	-0.029
853	-0.029
854	-0.028
854	-0.027
854	-0.027
855	-0.026
855	-0.026
856	-0.025
856	-0.024
857	-0.023
857	-0.023
857	-0.022
858	-0.022
858	-0.021
859	-0.021
859	-0.021
860	-0.021
860	-0.02
860	-0.02
861	-0.02
861	-0.019
862	-0.019
862	-0.019
863	-0.019
863	-0.019
863	-0.019
864	-0.019
864	-0.019
865	-0.019
865	-0.019
866	-0.02
866	-0.02
866	-0.019
867	-0.019
867	-0.019
868	-0.018
868	-0.018
869	-0.017
869	-0.016
869	-0.015
870	-0.014
870	-0.013
871	-0.012
871	-0.012
872	-0.011
872	-0.011
872	-0.011
873	-0.01
873	-0.01
874	-0.01
874	-0.01
875	-0.01
875	-0.01
875	-0.011
876	-0.011
876	-0.011
877	-0.012
877	-0.012
878	-0.013
878	-0.013
878	-0.014
879	-0.014
879	-0.015
880	-0.016
880	-0.016
881	-0.016
881	-0.016
881	-0.016
882	-0.015
882	-0.014
883	-0.014
883	-0.013
884	-0.013
884	-0.012
884	-0.012
885	-0.011
885	-0.011
886	-0.011
886	-0.011
887	-0.011
887	-0.011
887	-0.011
888	-0.01
888	-0.01
889	-0.009
889	-0.008
890	-0.007
890	-0.006
890	-0.005
891	-0.005
891	-0.005
892	-0.004
892	-0.005
893	-0.005
893	-0.006
893	-0.006
894	-0.007
894	-0.009
895	-0.01
895	-0.011
895	-0.012
896	-0.013
896	-0.014
897	-0.014
897	-0.014
898	-0.014
898	-0.014
898	-0.014
899	-0.014
899	-0.014
900	-0.014
900	-0.014
901	-0.013
901	-0.013
901	-0.012
902	-0.012
902	-0.012
903	-0.012
903	-0.012
904	-0.012
904	-0.013
904	-0.013
905	-0.014
905	-0.014
906	-0.015
906	-0.015
907	-0.016
907	-0.017
907	-0.017
908	-0.018
908	-0.018
909	-0.018
909	-0.018
910	-0.018
910	-0.018
910	-0.017
911	-0.017
911	-0.017
912	-0.016
912	-0.016
913	-0.016
913	-0.016
913	-0.017
914	-0.017
914	-0.018
915	-0.019
915	-0.019
916	-0.02
916	-0.02
916	-0.02
917	-0.02
917	-0.019
918	-0.019
918	-0.018
918	-0.016
919	-0.015
919	-0.014
920	-0.012
920	-0.011
921	-0.009
921	-0.009
921	-0.008
922	-0.007
922	-0.006
923	-0.005
923	-0.004
924	-0.003
924	-0.002
924	-0.002
925	-0.001
925	-0.001
926	-0
926	-0
927	-0
927	-0
927	0
928	0
928	0
929	0
929	0
930	0
930	-0
930	-0.001
931	-0.003
931	-0.004
932	-0.005
932	-0.006
933	-0.008
933	-0.009
933	-0.011
934	-0.012
934	-0.014
935	-0.015
935	-0.016
935	-0.016
936	-0.017
936	-0.017
937	-0.017
937	-0.017
938	-0.017
938	-0.017
938	-0.017
939	-0.016
939	-0.015
940	-0.015
940	-0.014
941	-0.013
941	-0.013
941	-0.012
942	-0.011
942	-0.01
943	-0.01
943	-0.009
944	-0.009
944	-0.009
944	-0.009
945	-0.008
945	-0.008
946	-0.007
946	-0.008
946	-0.008
947	-0.008
947	-0.008
948	-0.008
948	-0.008
949	-0.008
949	-0.008
949	-0.008
950	-0.008
950	-0.008
951	-0.007
951	-0.007
952	-0.007
952	-0.007
952	-0.007
953	-0.007
953	-0.006
954	-0.006
954	-0.006
955	-0.006
955	-0.006
955	-0.006
956	-0.005
956	-0.005
957	-0.005
957	-0.005
957	-0.005
958	-0.006
958	-0.006
959	-0.007
959	-0.007
960	-0.008
960	-0.009
960	-0.01
961	-0.011
961	-0.011
962	-0.012
962	-0.012
963	-0.012
963	-0.012
963	-0.012
964	-0.011
964	-0.01
965	-0.01
965	-0.009
966	-0.008
966	-0.006
966	-0.005
967	-0.005
967	-0.004
968	-0.004
968	-0.004
968	-0.004
969	-0.004
969	-0.004
970	-0.005
970	-0.005
971	-0.006
971	-0.006
971	-0.007
972	-0.007
972	-0.008
973	-0.008
973	-0.009
974	-0.009
974	-0.01
974	-0.011
975	-0.011
975	-0.012
976	-0.013
976	-0.014
976	-0.015
977	-0.016
977	-0.017
978	-0.019
978	-0.02
979	-0.02
979	-0.021
979	-0.021
980	-0.021
980	-0.021
981	-0.021
981	-0.02
982	-0.019
982	-0.018
982	-0.016
983	-0.015
983	-0.014
984	-0.012
984	-0.011
984	-0.01
985	-0.009
985	-0.008
986	-0.009
986	-0.009
987	-0.009
987	-0.01
987	-0.01
988	-0.011
988	-0.012
989	-0.013
989	-0.015
990	-0.016
990	-0.017
990	-0.017
991	-0.018
991	-0.018
992	-0.018
992	-0.019
992	-0.019
993	-0.02
993	-0.02
994	-0.021
994	-0.022
995	-0.022
995	-0.023
995	-0.024
996	-0.025
996	-0.025
997	-0.026
997	-0.026
997	-0.027
998	-0.026
998	-0.026
999	-0.026
999	-0.025
1000	-0.025
1000	-0.024
1000	-0.023
1001	-0.023
1001	-0.022
1002	-0.021
1002	-0.021
1003	-0.02
1003	-0.02
1003	-0.02
1004	-0.019
1004	-0.019
1005	-0.019
1005	-0.018
1005	-0.018
1006	-0.017
1006	-0.017
1007	-0.016
1007	-0.016
1008	-0.015
1008	-0.015
1008	-0.014
1009	-0.013
1009	-0.013
1010	-0.012
1010	-0.012
1010	-0.012
1011	-0.011
1011	-0.011
1012	-0.011
1012	-0.011
1013	-0.011
1013	-0.012
1013	-0.012
1014	-0.013
1014	-0.014
1015	-0.014
1015	-0.015
1016	-0.016
1016	-0.017
1016	-0.017
1017	-0.018
1017	-0.019
1018	-0.019
1018	-0.019
1018	-0.019
1019	-0.019
1019	-0.019
1020	-0.019
1020	-0.019
1021	-0.019
1021	-0.019
1021	-0.019
1022	-0.019
1022	-0.019
1023	-0.02
1023	-0.02
1023	-0.021
1024	-0.021
1024	-0.022
1025	-0.023
1025	-0.023
1026	-0.024
1026	-0.024
1026	-0.024
1027	-0.024
1027	-0.024
1028	-0.024
1028	-0.023
1028	-0.022
1029	-0.022
1029	-0.021
1030	-0.021
1030	-0.021
1031	-0.02
1031	-0.02
1031	-0.019
1032	-0.019
1032	-0.019
1033	-0.019
1033	-0.019
1033	-0.019
1034	-0.02
1034	-0.021
1035	-0.021
1035	-0.022
1036	-0.022
1036	-0.023
1036	-0.024
1037	-0.024
1037	-0.025
1038	-0.025
1038	-0.025
1039	-0.025
1039	-0.025
1039	-0.025
1040	-0.025
1040	-0.025
1041	-0.025
1041	-0.025
1041	-0.025
1042	-0.026
1042	-0.026
1043	-0.027
1043	-0.028
1044	-0.029
1044	-0.029
1044	-0.03
1045	-0.031
1045	-0.031
1046	-0.032
1046	-0.032
1046	-0.032
1047	-0.032
1047	-0.032
1048	-0.031
1048	-0.031
1049	-0.032
1049	-0.032
1049	-0.032
1050	-0.032
1050	-0.032
1051	-0.032
1051	-0.031
1051	-0.03
1052	-0.03
1052	-0.029
1053	-0.028
1053	-0.027
1053	-0.025
1054	-0.024
1054	-0.022
1055	-0.021
1055	-0.02
1056	-0.019
1056	-0.019
1056	-0.019
1057	-0.019
1057	-0.019
1058	-0.019
1058	-0.019
1058	-0.019
1059	-0.019
1059	-0.019
1060	-0.018
1060	-0.018
1061	-0.018
1061	-0.017
1061	-0.016
1062	-0.016
1062	-0.016
1063	-0.016
1063	-0.016
1063	-0.016
1064	-0.016
1064	-0.015
1065	-0.015
1065	-0.015
1066	-0.015
1066	-0.015
1066	-0.015
1067	-0.015
1067	-0.015
1068	-0.015
1068	-0.015
1068	-0.015
1069	-0.015
1069	-0.015
1070	-0.015
1070	-0.014
1071	-0.014
1071	-0.013
1071	-0.013
1072	-0.012
1072	-0.01
1073	-0.01
1073	-0.008
1073	-0.007
1074	-0.006
1074	-0.005
1075	-0.004
1075	-0.004
1076	-0.004
1076	-0.002
1076	-0.003
1077	-0.002
1077	-0.001
1078	-0.001
1078	0.001
1078	0.002
1079	0.003
1079	0.005
1080	0.006
1080	0.008
1080	0.009
1081	0.011
1081	0.013
1082	0.014
1082	0.015
1083	0.016
1083	0.017
1083	0.019
1084	0.02
1084	0.022
1085	0.023
1085	0.025
1085	0.027
1086	0.028
1086	0.029
1087	0.031
1087	0.032
1088	0.033
1088	0.034
1088	0.036
1089	0.037
1089	0.039
1090	0.041
1090	0.043
1090	0.045
1091	0.049
1091	0.053
1092	0.057
1092	0.062
1092	0.066
1093	0.07
1093	0.076
1094	0.082
1094	0.087
1095	0.092
1095	0.098
1095	0.106
1096	0.113
1096	0.121
1097	0.131
1097	0.138
1097	0.149
1098	0.158
1098	0.17
1099	0.182
1099	0.197
1100	0.211
1100	0.226
1100	0.243
1101	0.26
1101	0.28
1102	0.305
1102	0.331
1102	0.364
1103	0.396
1103	0.437
1104	0.484
1104	0.538
1104	0.607
1105	0.69
1105	0.793
1106	0.923
1106	1.168
1107	1.831
1107	-0
1107	-0
1108	-0
1108	-0
1109	-0
1109	-0
1109	-0
1110	-0
1110	-0
1111	-0
1111	-0
