Data from 15c-100ul-ns-20ul-nr-full-exp-7ul-bp_Absorbance__308__04646.txt Node

Date: Mon Jan 15 15:23:05 CET 2024
User: Marek
Spectrometer: MAYP115816
Trigger mode: 0
Integration Time (sec): 2.000000E-1
Scans to average: 10
Electric dark correction enabled: true
Nonlinearity correction enabled: true
Boxcar width: 5
XAxis mode: Wavelengths
Number of Pixels in Spectrum: 2068
>>>>>Begin Spectral Data<<<<<
199	-1.837
199	-1.708
200	-1.566
200	-1.456
201	-1.384
201	-1.334
202	-1.265
202	-1.211
203	-1.163
203	-1.125
204	-1.097
204	-1.075
205	-1.054
205	-1.046
205	-1.043
206	-1.042
206	-1.04
207	-1.036
207	-1.032
208	-1.031
208	-1.026
209	-1.025
209	-1.023
210	-1.023
210	-1.021
211	-1.02
211	-1.018
212	-1.016
212	-1.016
213	-1.015
213	-1.014
213	-1.014
214	-1.013
214	-1.014
215	-1.013
215	-1.013
216	-1.013
216	-1.012
217	-1.011
217	-1.01
218	-1.009
218	-1.005
219	-1.004
219	-1.003
220	-0.998
220	-0.994
221	-0.99
221	-0.985
221	-0.98
222	-0.975
222	-0.97
223	-0.963
223	-0.959
224	-0.954
224	-0.945
225	-0.937
225	-0.926
226	-0.916
226	-0.905
227	-0.89
227	-0.874
228	-0.854
228	-0.835
229	-0.81
229	-0.781
229	-0.753
230	-0.72
230	-0.686
231	-0.648
231	-0.609
232	-0.569
232	-0.526
233	-0.482
233	-0.437
234	-0.392
234	-0.348
235	-0.304
235	-0.262
236	-0.22
236	-0.18
236	-0.141
237	-0.104
237	-0.07
238	-0.038
238	-0.008
239	0.02
239	0.046
240	0.069
240	0.09
241	0.11
241	0.127
242	0.143
242	0.158
243	0.172
243	0.183
243	0.194
244	0.204
244	0.213
245	0.221
245	0.228
246	0.235
246	0.241
247	0.246
247	0.252
248	0.257
248	0.262
249	0.266
249	0.27
250	0.274
250	0.277
250	0.281
251	0.284
251	0.287
252	0.29
252	0.292
253	0.294
253	0.296
254	0.298
254	0.3
255	0.301
255	0.303
256	0.304
256	0.305
257	0.306
257	0.307
258	0.308
258	0.309
258	0.309
259	0.31
259	0.31
260	0.311
260	0.311
261	0.31
261	0.311
262	0.31
262	0.31
263	0.309
263	0.309
264	0.308
264	0.308
265	0.307
265	0.306
265	0.305
266	0.304
266	0.303
267	0.302
267	0.301
268	0.3
268	0.299
269	0.297
269	0.296
270	0.294
270	0.293
271	0.291
271	0.289
272	0.288
272	0.286
272	0.285
273	0.283
273	0.281
274	0.28
274	0.278
275	0.276
275	0.275
276	0.273
276	0.271
277	0.269
277	0.268
278	0.266
278	0.264
278	0.262
279	0.259
279	0.256
280	0.255
280	0.253
281	0.25
281	0.248
282	0.246
282	0.244
283	0.243
283	0.241
284	0.24
284	0.239
285	0.237
285	0.236
285	0.235
286	0.233
286	0.232
287	0.23
287	0.229
288	0.228
288	0.226
289	0.225
289	0.224
290	0.222
290	0.221
291	0.22
291	0.219
292	0.217
292	0.216
292	0.215
293	0.214
293	0.213
294	0.212
294	0.211
295	0.21
295	0.209
296	0.208
296	0.207
297	0.206
297	0.206
298	0.205
298	0.204
298	0.203
299	0.202
299	0.202
300	0.201
300	0.2
301	0.199
301	0.199
302	0.198
302	0.197
303	0.197
303	0.196
304	0.196
304	0.195
305	0.194
305	0.193
305	0.193
306	0.192
306	0.191
307	0.191
307	0.19
308	0.189
308	0.188
309	0.187
309	0.187
310	0.186
310	0.185
311	0.185
311	0.184
311	0.183
312	0.183
312	0.182
313	0.181
313	0.181
314	0.18
314	0.179
315	0.179
315	0.178
316	0.177
316	0.177
317	0.176
317	0.175
318	0.175
318	0.174
318	0.173
319	0.172
319	0.172
320	0.171
320	0.17
321	0.17
321	0.169
322	0.168
322	0.167
323	0.167
323	0.166
324	0.165
324	0.165
324	0.164
325	0.163
325	0.163
326	0.162
326	0.161
327	0.161
327	0.16
328	0.16
328	0.159
329	0.158
329	0.158
330	0.157
330	0.156
330	0.156
331	0.155
331	0.154
332	0.154
332	0.153
333	0.153
333	0.152
334	0.151
334	0.151
335	0.15
335	0.149
336	0.149
336	0.148
336	0.148
337	0.147
337	0.146
338	0.146
338	0.145
339	0.145
339	0.145
340	0.144
340	0.144
341	0.143
341	0.142
342	0.142
342	0.141
342	0.141
343	0.14
343	0.14
344	0.139
344	0.139
345	0.139
345	0.138
346	0.138
346	0.137
347	0.137
347	0.136
348	0.136
348	0.135
348	0.135
349	0.134
349	0.134
350	0.134
350	0.133
351	0.132
351	0.132
352	0.131
352	0.131
353	0.13
353	0.13
354	0.129
354	0.129
354	0.128
355	0.128
355	0.127
356	0.127
356	0.127
357	0.127
357	0.127
358	0.127
358	0.127
359	0.127
359	0.127
360	0.127
360	0.127
360	0.127
361	0.127
361	0.127
362	0.127
362	0.127
363	0.127
363	0.127
364	0.126
364	0.126
365	0.126
365	0.125
366	0.125
366	0.125
366	0.125
367	0.125
367	0.125
368	0.124
368	0.124
369	0.124
369	0.123
370	0.123
370	0.123
371	0.123
371	0.122
372	0.122
372	0.122
372	0.122
373	0.122
373	0.122
374	0.122
374	0.122
375	0.121
375	0.121
376	0.121
376	0.121
377	0.121
377	0.121
378	0.121
378	0.121
378	0.121
379	0.121
379	0.121
380	0.121
380	0.121
381	0.121
381	0.121
382	0.121
382	0.12
383	0.12
383	0.12
383	0.119
384	0.119
384	0.119
385	0.118
385	0.118
386	0.118
386	0.118
387	0.118
387	0.118
388	0.118
388	0.117
389	0.117
389	0.117
389	0.117
390	0.118
390	0.118
391	0.118
391	0.118
392	0.118
392	0.118
393	0.117
393	0.117
394	0.117
394	0.117
394	0.117
395	0.116
395	0.116
396	0.116
396	0.116
397	0.116
397	0.116
398	0.116
398	0.116
399	0.116
399	0.115
400	0.115
400	0.115
400	0.115
401	0.114
401	0.113
402	0.113
402	0.112
403	0.112
403	0.112
404	0.112
404	0.112
405	0.111
405	0.111
405	0.111
406	0.111
406	0.111
407	0.111
407	0.111
408	0.111
408	0.11
409	0.11
409	0.109
410	0.11
410	0.109
411	0.109
411	0.109
411	0.109
412	0.108
412	0.108
413	0.108
413	0.107
414	0.107
414	0.107
415	0.106
415	0.106
416	0.106
416	0.105
416	0.105
417	0.105
417	0.104
418	0.104
418	0.105
419	0.105
419	0.106
420	0.106
420	0.106
421	0.106
421	0.106
421	0.107
422	0.107
422	0.107
423	0.107
423	0.106
424	0.106
424	0.105
425	0.104
425	0.104
426	0.104
426	0.104
427	0.104
427	0.104
427	0.104
428	0.105
428	0.105
429	0.106
429	0.106
430	0.106
430	0.106
431	0.105
431	0.105
432	0.104
432	0.104
432	0.103
433	0.102
433	0.101
434	0.101
434	0.101
435	0.101
435	0.101
436	0.101
436	0.101
437	0.101
437	0.101
437	0.101
438	0.101
438	0.101
439	0.101
439	0.1
440	0.1
440	0.1
441	0.1
441	0.1
442	0.1
442	0.1
442	0.1
443	0.101
443	0.101
444	0.101
444	0.101
445	0.101
445	0.101
446	0.101
446	0.101
447	0.101
447	0.1
447	0.101
448	0.1
448	0.1
449	0.1
449	0.099
450	0.099
450	0.099
451	0.099
451	0.099
452	0.098
452	0.098
452	0.097
453	0.097
453	0.097
454	0.096
454	0.096
455	0.096
455	0.096
456	0.096
456	0.096
457	0.096
457	0.096
458	0.097
458	0.097
458	0.097
459	0.097
459	0.097
460	0.097
460	0.096
461	0.096
461	0.096
462	0.096
462	0.096
463	0.097
463	0.097
463	0.098
464	0.098
464	0.098
465	0.098
465	0.098
466	0.098
466	0.098
467	0.098
467	0.098
467	0.097
468	0.096
468	0.095
469	0.094
469	0.094
470	0.094
470	0.094
471	0.094
471	0.094
472	0.094
472	0.094
472	0.095
473	0.096
473	0.096
474	0.097
474	0.098
475	0.098
475	0.099
476	0.099
476	0.099
477	0.099
477	0.099
477	0.099
478	0.099
478	0.1
479	0.1
479	0.101
480	0.101
480	0.102
481	0.102
481	0.103
482	0.104
482	0.105
482	0.106
483	0.108
483	0.11
484	0.112
484	0.113
485	0.114
485	0.115
486	0.115
486	0.116
487	0.116
487	0.117
487	0.117
488	0.116
488	0.115
489	0.115
489	0.115
490	0.115
490	0.115
491	0.115
491	0.116
492	0.117
492	0.117
492	0.118
493	0.119
493	0.12
494	0.122
494	0.124
495	0.126
495	0.127
496	0.129
496	0.13
496	0.132
497	0.133
497	0.134
498	0.135
498	0.136
499	0.136
499	0.137
500	0.138
500	0.138
501	0.14
501	0.141
501	0.142
502	0.143
502	0.144
503	0.145
503	0.146
504	0.147
504	0.148
505	0.148
505	0.149
506	0.15
506	0.151
506	0.152
507	0.152
507	0.153
508	0.154
508	0.155
509	0.156
509	0.157
510	0.158
510	0.159
511	0.159
511	0.16
511	0.16
512	0.161
512	0.161
513	0.161
513	0.161
514	0.161
514	0.162
515	0.161
515	0.161
515	0.16
516	0.16
516	0.161
517	0.161
517	0.162
518	0.162
518	0.162
519	0.162
519	0.161
520	0.161
520	0.16
520	0.159
521	0.158
521	0.156
522	0.154
522	0.153
523	0.151
523	0.15
524	0.15
524	0.151
524	0.151
525	0.152
525	0.154
526	0.156
526	0.158
527	0.16
527	0.162
528	0.163
528	0.165
529	0.165
529	0.166
529	0.166
530	0.167
530	0.167
531	0.167
531	0.167
532	0.166
532	0.165
533	0.165
533	0.164
533	0.164
534	0.163
534	0.162
535	0.161
535	0.16
536	0.16
536	0.159
537	0.158
537	0.157
538	0.156
538	0.155
538	0.153
539	0.152
539	0.151
540	0.15
540	0.149
541	0.147
541	0.145
542	0.144
542	0.143
542	0.141
543	0.14
543	0.139
544	0.138
544	0.137
545	0.136
545	0.135
546	0.135
546	0.133
547	0.132
547	0.13
547	0.128
548	0.126
548	0.124
549	0.122
549	0.121
550	0.119
550	0.117
551	0.114
551	0.112
551	0.111
552	0.109
552	0.108
553	0.107
553	0.106
554	0.105
554	0.104
555	0.102
555	0.1
556	0.098
556	0.096
556	0.094
557	0.092
557	0.09
558	0.088
558	0.087
559	0.085
559	0.084
560	0.083
560	0.081
560	0.081
561	0.081
561	0.08
562	0.079
562	0.078
563	0.076
563	0.075
564	0.073
564	0.071
564	0.07
565	0.068
565	0.067
566	0.066
566	0.064
567	0.064
567	0.063
568	0.063
568	0.063
568	0.064
569	0.064
569	0.064
570	0.064
570	0.062
571	0.062
571	0.062
572	0.061
572	0.061
573	0.06
573	0.059
573	0.057
574	0.056
574	0.056
575	0.056
575	0.057
576	0.057
576	0.055
577	0.053
577	0.052
577	0.052
578	0.051
578	0.052
579	0.053
579	0.054
580	0.052
580	0.049
581	0.047
581	0.046
581	0.046
582	0.046
582	0.046
583	0.046
583	0.045
584	0.042
584	0.038
585	0.038
585	0.039
585	0.039
586	0.039
586	0.038
587	0.036
587	0.034
588	0.032
588	0.031
589	0.03
589	0.031
590	0.03
590	0.03
590	0.031
591	0.032
591	0.032
592	0.031
592	0.03
593	0.03
593	0.03
594	0.029
594	0.028
594	0.027
595	0.027
595	0.025
596	0.025
596	0.026
597	0.029
597	0.03
598	0.03
598	0.031
598	0.032
599	0.032
599	0.031
600	0.03
600	0.029
601	0.028
601	0.027
602	0.025
602	0.024
602	0.023
603	0.022
603	0.023
604	0.024
604	0.024
605	0.026
605	0.027
606	0.027
606	0.026
606	0.026
607	0.026
607	0.026
608	0.025
608	0.024
609	0.023
609	0.024
610	0.023
610	0.022
610	0.023
611	0.024
611	0.025
612	0.027
612	0.028
613	0.03
613	0.031
614	0.03
614	0.03
614	0.03
615	0.029
615	0.028
616	0.028
616	0.028
617	0.027
617	0.026
618	0.025
618	0.025
618	0.026
619	0.026
619	0.028
620	0.03
620	0.031
621	0.031
621	0.032
622	0.033
622	0.033
622	0.033
623	0.033
623	0.034
624	0.035
624	0.034
625	0.034
625	0.034
626	0.034
626	0.034
626	0.035
627	0.036
627	0.037
628	0.037
628	0.038
629	0.039
629	0.039
630	0.039
630	0.039
630	0.04
631	0.04
631	0.041
632	0.041
632	0.042
633	0.043
633	0.044
634	0.046
634	0.047
634	0.049
635	0.051
635	0.052
636	0.053
636	0.054
637	0.055
637	0.056
638	0.057
638	0.058
638	0.059
639	0.06
639	0.06
640	0.062
640	0.062
641	0.063
641	0.064
642	0.066
642	0.067
642	0.069
643	0.07
643	0.071
644	0.073
644	0.075
645	0.077
645	0.079
646	0.081
646	0.084
646	0.087
647	0.089
647	0.091
648	0.093
648	0.095
649	0.097
649	0.1
650	0.102
650	0.104
650	0.106
651	0.107
651	0.109
652	0.111
652	0.114
653	0.117
653	0.126
653	0.139
654	0.115
654	0.096
655	0.097
655	0.099
656	0.101
656	0.103
657	0.104
657	0.106
657	0.107
658	0.104
658	0.095
659	0.119
659	0.15
660	0.157
660	0.16
661	0.161
661	0.164
661	0.166
662	0.169
662	0.173
663	0.176
663	0.178
664	0.181
664	0.183
665	0.186
665	0.189
665	0.191
666	0.194
666	0.196
667	0.198
667	0.201
668	0.203
668	0.205
669	0.208
669	0.211
669	0.215
670	0.218
670	0.22
671	0.222
671	0.223
672	0.225
672	0.227
672	0.228
673	0.23
673	0.231
674	0.232
674	0.233
675	0.234
675	0.236
676	0.239
676	0.241
676	0.243
677	0.244
677	0.246
678	0.247
678	0.248
679	0.249
679	0.25
680	0.251
680	0.252
680	0.251
681	0.252
681	0.252
682	0.253
682	0.254
683	0.256
683	0.258
684	0.259
684	0.26
684	0.26
685	0.261
685	0.262
686	0.263
686	0.264
687	0.264
687	0.264
687	0.263
688	0.263
688	0.262
689	0.263
689	0.264
690	0.264
690	0.263
691	0.262
691	0.262
691	0.261
692	0.261
692	0.26
693	0.259
693	0.259
694	0.258
694	0.256
695	0.257
695	0.259
695	0.259
696	0.258
696	0.258
697	0.257
697	0.256
698	0.255
698	0.254
698	0.252
699	0.251
699	0.249
700	0.246
700	0.245
701	0.244
701	0.242
702	0.24
702	0.239
702	0.237
703	0.236
703	0.234
704	0.233
704	0.232
705	0.231
705	0.229
705	0.227
706	0.226
706	0.224
707	0.222
707	0.22
708	0.218
708	0.216
709	0.214
709	0.211
709	0.208
710	0.205
710	0.203
711	0.201
711	0.199
712	0.197
712	0.195
713	0.194
713	0.192
713	0.19
714	0.188
714	0.187
715	0.185
715	0.183
716	0.181
716	0.18
716	0.177
717	0.175
717	0.173
718	0.17
718	0.168
719	0.166
719	0.164
720	0.161
720	0.158
720	0.155
721	0.152
721	0.149
722	0.147
722	0.144
723	0.141
723	0.14
723	0.137
724	0.135
724	0.133
725	0.131
725	0.13
726	0.129
726	0.127
727	0.126
727	0.125
727	0.124
728	0.122
728	0.121
729	0.12
729	0.119
730	0.117
730	0.116
730	0.114
731	0.113
731	0.111
732	0.11
732	0.108
733	0.105
733	0.103
734	0.101
734	0.099
734	0.097
735	0.095
735	0.092
736	0.09
736	0.088
737	0.087
737	0.086
737	0.083
738	0.081
738	0.078
739	0.076
739	0.074
740	0.072
740	0.07
741	0.069
741	0.066
741	0.063
742	0.06
742	0.057
743	0.056
743	0.054
744	0.052
744	0.05
744	0.048
745	0.046
745	0.044
746	0.042
746	0.041
747	0.04
747	0.039
748	0.038
748	0.037
748	0.036
749	0.035
749	0.034
750	0.034
750	0.033
751	0.033
751	0.033
751	0.033
752	0.032
752	0.031
753	0.031
753	0.03
754	0.03
754	0.029
754	0.028
755	0.028
755	0.027
756	0.026
756	0.024
757	0.023
757	0.022
758	0.021
758	0.02
758	0.019
759	0.018
759	0.016
760	0.014
760	0.012
761	0.011
761	0.011
761	0.01
762	0.008
762	0.008
763	0.007
763	0.005
764	0.002
764	-0
764	-0.002
765	-0.005
765	-0.007
766	-0.008
766	-0.009
767	-0.011
767	-0.014
768	-0.017
768	-0.019
768	-0.02
769	-0.02
769	-0.021
770	-0.022
770	-0.023
771	-0.025
771	-0.028
771	-0.03
772	-0.032
772	-0.033
773	-0.034
773	-0.036
774	-0.039
774	-0.041
775	-0.043
775	-0.045
775	-0.048
776	-0.05
776	-0.053
777	-0.055
777	-0.058
778	-0.061
778	-0.065
778	-0.067
779	-0.069
779	-0.07
780	-0.073
780	-0.076
781	-0.08
781	-0.085
781	-0.089
782	-0.094
782	-0.1
783	-0.105
783	-0.109
784	-0.113
784	-0.117
784	-0.12
785	-0.124
785	-0.127
786	-0.127
786	-0.125
787	-0.12
787	-0.116
788	-0.115
788	-0.115
788	-0.116
789	-0.117
789	-0.117
790	-0.113
790	-0.111
791	-0.112
791	-0.113
791	-0.115
792	-0.11
792	-0.1
793	-0.095
793	-0.091
794	-0.09
794	-0.092
794	-0.097
795	-0.099
795	-0.099
796	-0.1
796	-0.102
797	-0.11
797	-0.12
797	-0.126
798	-0.131
798	-0.134
799	-0.135
799	-0.134
800	-0.134
800	-0.136
801	-0.14
801	-0.141
801	-0.141
802	-0.143
802	-0.145
803	-0.145
803	-0.146
804	-0.144
804	-0.139
804	-0.133
805	-0.129
805	-0.126
806	-0.124
806	-0.123
807	-0.122
807	-0.121
807	-0.121
808	-0.121
808	-0.122
809	-0.126
809	-0.132
810	-0.135
810	-0.138
810	-0.141
811	-0.143
811	-0.143
812	-0.139
812	-0.135
813	-0.134
813	-0.135
813	-0.135
814	-0.135
814	-0.135
815	-0.132
815	-0.129
816	-0.128
816	-0.128
817	-0.133
817	-0.136
817	-0.137
818	-0.137
818	-0.134
819	-0.129
819	-0.126
820	-0.127
820	-0.127
820	-0.126
821	-0.123
821	-0.119
822	-0.114
822	-0.109
823	-0.104
823	-0.101
823	-0.1
824	-0.096
824	-0.09
825	-0.083
825	-0.077
826	-0.072
826	-0.067
826	-0.063
827	-0.059
827	-0.056
828	-0.053
828	-0.05
829	-0.047
829	-0.045
829	-0.043
830	-0.042
830	-0.041
831	-0.04
831	-0.038
832	-0.038
832	-0.037
832	-0.036
833	-0.035
833	-0.034
834	-0.034
834	-0.033
835	-0.033
835	-0.033
835	-0.032
836	-0.032
836	-0.032
837	-0.032
837	-0.031
838	-0.032
838	-0.032
839	-0.032
839	-0.032
839	-0.032
840	-0.032
840	-0.032
841	-0.032
841	-0.031
842	-0.031
842	-0.03
842	-0.03
843	-0.029
843	-0.028
844	-0.028
844	-0.027
845	-0.026
845	-0.026
845	-0.025
846	-0.025
846	-0.025
847	-0.025
847	-0.025
848	-0.025
848	-0.025
848	-0.025
849	-0.026
849	-0.026
850	-0.027
850	-0.027
851	-0.028
851	-0.028
851	-0.028
852	-0.028
852	-0.028
853	-0.028
853	-0.027
854	-0.027
854	-0.026
854	-0.025
855	-0.025
855	-0.024
856	-0.023
856	-0.022
857	-0.021
857	-0.021
857	-0.02
858	-0.02
858	-0.019
859	-0.019
859	-0.019
860	-0.019
860	-0.018
860	-0.018
861	-0.018
861	-0.018
862	-0.018
862	-0.018
863	-0.018
863	-0.018
863	-0.019
864	-0.019
864	-0.019
865	-0.02
865	-0.02
866	-0.02
866	-0.021
866	-0.021
867	-0.021
867	-0.02
868	-0.02
868	-0.019
869	-0.018
869	-0.017
869	-0.017
870	-0.016
870	-0.015
871	-0.014
871	-0.013
872	-0.012
872	-0.012
872	-0.011
873	-0.011
873	-0.011
874	-0.011
874	-0.011
875	-0.011
875	-0.011
875	-0.011
876	-0.011
876	-0.012
877	-0.012
877	-0.013
878	-0.014
878	-0.014
878	-0.015
879	-0.016
879	-0.017
880	-0.017
880	-0.018
881	-0.018
881	-0.018
881	-0.017
882	-0.017
882	-0.016
883	-0.015
883	-0.015
884	-0.014
884	-0.013
884	-0.012
885	-0.012
885	-0.011
886	-0.011
886	-0.011
887	-0.011
887	-0.011
887	-0.011
888	-0.011
888	-0.01
889	-0.01
889	-0.009
890	-0.008
890	-0.008
890	-0.007
891	-0.007
891	-0.006
892	-0.006
892	-0.006
893	-0.007
893	-0.007
893	-0.008
894	-0.009
894	-0.01
895	-0.011
895	-0.011
895	-0.012
896	-0.013
896	-0.014
897	-0.014
897	-0.015
898	-0.015
898	-0.015
898	-0.015
899	-0.015
899	-0.015
900	-0.015
900	-0.015
901	-0.015
901	-0.015
901	-0.015
902	-0.015
902	-0.015
903	-0.015
903	-0.016
904	-0.016
904	-0.016
904	-0.017
905	-0.017
905	-0.018
906	-0.019
906	-0.019
907	-0.02
907	-0.02
907	-0.021
908	-0.021
908	-0.021
909	-0.021
909	-0.021
910	-0.021
910	-0.021
910	-0.02
911	-0.02
911	-0.02
912	-0.019
912	-0.019
913	-0.019
913	-0.019
913	-0.02
914	-0.02
914	-0.021
915	-0.021
915	-0.022
916	-0.022
916	-0.023
916	-0.023
917	-0.023
917	-0.022
918	-0.021
918	-0.02
918	-0.019
919	-0.018
919	-0.016
920	-0.014
920	-0.013
921	-0.011
921	-0.01
921	-0.009
922	-0.008
922	-0.007
923	-0.006
923	-0.005
924	-0.004
924	-0.004
924	-0.004
925	-0.003
925	-0.003
926	-0.003
926	-0.002
927	-0.003
927	-0.003
927	-0.003
928	-0.003
928	-0.003
929	-0.003
929	-0.003
930	-0.003
930	-0.004
930	-0.005
931	-0.006
931	-0.007
932	-0.008
932	-0.009
933	-0.011
933	-0.012
933	-0.013
934	-0.014
934	-0.016
935	-0.017
935	-0.018
935	-0.018
936	-0.019
936	-0.019
937	-0.019
937	-0.019
938	-0.02
938	-0.02
938	-0.019
939	-0.019
939	-0.018
940	-0.017
940	-0.017
941	-0.016
941	-0.016
941	-0.015
942	-0.014
942	-0.013
943	-0.013
943	-0.013
944	-0.012
944	-0.012
944	-0.012
945	-0.011
945	-0.011
946	-0.011
946	-0.011
946	-0.011
947	-0.011
947	-0.011
948	-0.011
948	-0.011
949	-0.011
949	-0.011
949	-0.011
950	-0.011
950	-0.011
951	-0.01
951	-0.011
952	-0.01
952	-0.01
952	-0.01
953	-0.01
953	-0.009
954	-0.009
954	-0.009
955	-0.009
955	-0.009
955	-0.009
956	-0.009
956	-0.008
957	-0.009
957	-0.009
957	-0.009
958	-0.01
958	-0.01
959	-0.01
959	-0.011
960	-0.011
960	-0.012
960	-0.013
961	-0.014
961	-0.015
962	-0.015
962	-0.015
963	-0.015
963	-0.015
963	-0.015
964	-0.014
964	-0.013
965	-0.013
965	-0.012
966	-0.01
966	-0.009
966	-0.008
967	-0.007
967	-0.006
968	-0.006
968	-0.006
968	-0.006
969	-0.006
969	-0.006
970	-0.006
970	-0.006
971	-0.007
971	-0.007
971	-0.008
972	-0.008
972	-0.008
973	-0.009
973	-0.01
974	-0.011
974	-0.011
974	-0.012
975	-0.013
975	-0.014
976	-0.016
976	-0.017
976	-0.018
977	-0.02
977	-0.021
978	-0.023
978	-0.024
979	-0.025
979	-0.025
979	-0.026
980	-0.026
980	-0.026
981	-0.025
981	-0.025
982	-0.024
982	-0.022
982	-0.021
983	-0.02
983	-0.018
984	-0.017
984	-0.015
984	-0.014
985	-0.013
985	-0.013
986	-0.013
986	-0.013
987	-0.014
987	-0.014
987	-0.015
988	-0.016
988	-0.017
989	-0.018
989	-0.019
990	-0.02
990	-0.021
990	-0.022
991	-0.022
991	-0.022
992	-0.022
992	-0.023
992	-0.023
993	-0.024
993	-0.024
994	-0.025
994	-0.026
995	-0.026
995	-0.027
995	-0.028
996	-0.029
996	-0.03
997	-0.03
997	-0.03
997	-0.03
998	-0.03
998	-0.03
999	-0.029
999	-0.028
1000	-0.028
1000	-0.027
1000	-0.026
1001	-0.025
1001	-0.025
1002	-0.024
1002	-0.024
1003	-0.023
1003	-0.023
1003	-0.023
1004	-0.022
1004	-0.022
1005	-0.022
1005	-0.022
1005	-0.021
1006	-0.021
1006	-0.02
1007	-0.02
1007	-0.02
1008	-0.019
1008	-0.018
1008	-0.018
1009	-0.017
1009	-0.017
1010	-0.016
1010	-0.016
1010	-0.016
1011	-0.016
1011	-0.015
1012	-0.015
1012	-0.015
1013	-0.016
1013	-0.016
1013	-0.017
1014	-0.018
1014	-0.018
1015	-0.019
1015	-0.02
1016	-0.021
1016	-0.022
1016	-0.023
1017	-0.023
1017	-0.024
1018	-0.024
1018	-0.024
1018	-0.024
1019	-0.024
1019	-0.024
1020	-0.024
1020	-0.024
1021	-0.024
1021	-0.024
1021	-0.024
1022	-0.025
1022	-0.025
1023	-0.025
1023	-0.026
1023	-0.026
1024	-0.027
1024	-0.028
1025	-0.029
1025	-0.029
1026	-0.03
1026	-0.03
1026	-0.03
1027	-0.03
1027	-0.03
1028	-0.03
1028	-0.029
1028	-0.029
1029	-0.028
1029	-0.027
1030	-0.027
1030	-0.026
1031	-0.026
1031	-0.025
1031	-0.025
1032	-0.024
1032	-0.024
1033	-0.024
1033	-0.024
1033	-0.024
1034	-0.025
1034	-0.026
1035	-0.026
1035	-0.027
1036	-0.028
1036	-0.028
1036	-0.029
1037	-0.029
1037	-0.03
1038	-0.031
1038	-0.031
1039	-0.031
1039	-0.031
1039	-0.031
1040	-0.031
1040	-0.031
1041	-0.031
1041	-0.031
1041	-0.032
1042	-0.032
1042	-0.033
1043	-0.033
1043	-0.034
1044	-0.035
1044	-0.036
1044	-0.036
1045	-0.037
1045	-0.038
1046	-0.038
1046	-0.039
1046	-0.039
1047	-0.038
1047	-0.038
1048	-0.038
1048	-0.038
1049	-0.038
1049	-0.038
1049	-0.038
1050	-0.039
1050	-0.039
1051	-0.039
1051	-0.039
1051	-0.038
1052	-0.037
1052	-0.036
1053	-0.036
1053	-0.035
1053	-0.034
1054	-0.032
1054	-0.031
1055	-0.029
1055	-0.028
1056	-0.028
1056	-0.028
1056	-0.028
1057	-0.028
1057	-0.028
1058	-0.028
1058	-0.028
1058	-0.028
1059	-0.028
1059	-0.029
1060	-0.028
1060	-0.028
1061	-0.028
1061	-0.028
1061	-0.027
1062	-0.027
1062	-0.027
1063	-0.027
1063	-0.028
1063	-0.028
1064	-0.028
1064	-0.027
1065	-0.027
1065	-0.027
1066	-0.027
1066	-0.027
1066	-0.027
1067	-0.027
1067	-0.027
1068	-0.027
1068	-0.027
1068	-0.027
1069	-0.028
1069	-0.028
1070	-0.027
1070	-0.027
1071	-0.027
1071	-0.026
1071	-0.027
1072	-0.026
1072	-0.025
1073	-0.024
1073	-0.023
1073	-0.023
1074	-0.021
1074	-0.021
1075	-0.021
1075	-0.02
1076	-0.02
1076	-0.019
1076	-0.019
1077	-0.019
1077	-0.018
1078	-0.018
1078	-0.017
1078	-0.017
1079	-0.016
1079	-0.015
1080	-0.014
1080	-0.013
1080	-0.013
1081	-0.012
1081	-0.01
1082	-0.009
1082	-0.008
1083	-0.008
1083	-0.007
1083	-0.006
1084	-0.005
1084	-0.004
1085	-0.003
1085	-0.002
1085	-0
1086	0.001
1086	0.001
1087	0.003
1087	0.004
1088	0.005
1088	0.005
1088	0.006
1089	0.007
1089	0.009
1090	0.01
1090	0.011
1090	0.012
1091	0.015
1091	0.018
1092	0.019
1092	0.023
1092	0.026
1093	0.029
1093	0.033
1094	0.036
1094	0.04
1095	0.043
1095	0.047
1095	0.052
1096	0.056
1096	0.061
1097	0.068
1097	0.072
1097	0.079
1098	0.085
1098	0.092
1099	0.099
1099	0.107
1100	0.116
1100	0.125
1100	0.134
1101	0.144
1101	0.154
1102	0.167
1102	0.181
1102	0.198
1103	0.214
1103	0.233
1104	0.256
1104	0.279
1104	0.308
1105	0.338
1105	0.368
1106	0.404
1106	0.447
1107	0.495
1107	0.571
1107	0.681
1108	1.383
1108	-0
1109	-0
1109	-0
1109	-0
1110	-0
1110	-0
1111	-0
1111	-0
