Data from 15c-100ul-ns-20ul-nr-full-exp-7ul-bp_Absorbance__449__04787.txt Node

Date: Mon Jan 15 15:27:47 CET 2024
User: Marek
Spectrometer: MAYP115816
Trigger mode: 0
Integration Time (sec): 2.000000E-1
Scans to average: 10
Electric dark correction enabled: true
Nonlinearity correction enabled: true
Boxcar width: 5
XAxis mode: Wavelengths
Number of Pixels in Spectrum: 2068
>>>>>Begin Spectral Data<<<<<
199	-1.94
199	-1.81
200	-1.667
200	-1.556
201	-1.483
201	-1.432
202	-1.362
202	-1.306
203	-1.257
203	-1.217
204	-1.189
204	-1.166
205	-1.145
205	-1.136
205	-1.134
206	-1.132
206	-1.131
207	-1.127
207	-1.124
208	-1.122
208	-1.117
209	-1.115
209	-1.113
210	-1.113
210	-1.111
211	-1.109
211	-1.106
212	-1.104
212	-1.104
213	-1.103
213	-1.102
213	-1.102
214	-1.101
214	-1.102
215	-1.101
215	-1.102
216	-1.101
216	-1.1
217	-1.099
217	-1.099
218	-1.098
218	-1.093
219	-1.091
219	-1.09
220	-1.086
220	-1.081
221	-1.077
221	-1.072
221	-1.067
222	-1.063
222	-1.057
223	-1.05
223	-1.046
224	-1.041
224	-1.033
225	-1.024
225	-1.013
226	-1.003
226	-0.992
227	-0.977
227	-0.96
228	-0.941
228	-0.921
229	-0.897
229	-0.868
229	-0.839
230	-0.807
230	-0.772
231	-0.733
231	-0.693
232	-0.652
232	-0.608
233	-0.563
233	-0.516
234	-0.47
234	-0.424
235	-0.378
235	-0.333
236	-0.289
236	-0.246
236	-0.205
237	-0.166
237	-0.129
238	-0.094
238	-0.061
239	-0.03
239	-0.001
240	0.025
240	0.049
241	0.071
241	0.091
242	0.11
242	0.127
243	0.143
243	0.157
243	0.17
244	0.182
244	0.193
245	0.202
245	0.211
246	0.219
246	0.227
247	0.234
247	0.24
248	0.246
248	0.252
249	0.257
249	0.261
250	0.265
250	0.27
250	0.274
251	0.278
251	0.281
252	0.284
252	0.287
253	0.29
253	0.292
254	0.295
254	0.297
255	0.299
255	0.301
256	0.303
256	0.304
257	0.306
257	0.307
258	0.308
258	0.309
258	0.31
259	0.31
259	0.311
260	0.311
260	0.312
261	0.312
261	0.312
262	0.312
262	0.311
263	0.311
263	0.311
264	0.311
264	0.31
265	0.31
265	0.309
265	0.309
266	0.308
266	0.307
267	0.306
267	0.306
268	0.304
268	0.303
269	0.302
269	0.3
270	0.299
270	0.297
271	0.295
271	0.294
272	0.293
272	0.291
272	0.29
273	0.288
273	0.287
274	0.285
274	0.284
275	0.282
275	0.281
276	0.279
276	0.278
277	0.276
277	0.274
278	0.272
278	0.271
278	0.268
279	0.266
279	0.264
280	0.262
280	0.26
281	0.259
281	0.257
282	0.255
282	0.253
283	0.252
283	0.25
284	0.249
284	0.248
285	0.247
285	0.245
285	0.244
286	0.243
286	0.242
287	0.24
287	0.239
288	0.238
288	0.237
289	0.235
289	0.234
290	0.233
290	0.232
291	0.231
291	0.23
292	0.228
292	0.227
292	0.226
293	0.225
293	0.224
294	0.223
294	0.222
295	0.221
295	0.22
296	0.219
296	0.218
297	0.218
297	0.217
298	0.216
298	0.215
298	0.214
299	0.214
299	0.213
300	0.212
300	0.212
301	0.211
301	0.21
302	0.209
302	0.209
303	0.208
303	0.207
304	0.207
304	0.206
305	0.205
305	0.204
305	0.204
306	0.203
306	0.202
307	0.202
307	0.201
308	0.2
308	0.199
309	0.199
309	0.198
310	0.197
310	0.196
311	0.196
311	0.195
311	0.194
312	0.194
312	0.193
313	0.192
313	0.191
314	0.19
314	0.19
315	0.189
315	0.188
316	0.187
316	0.187
317	0.186
317	0.185
318	0.184
318	0.184
318	0.183
319	0.182
319	0.182
320	0.181
320	0.18
321	0.179
321	0.178
322	0.178
322	0.177
323	0.176
323	0.175
324	0.175
324	0.174
324	0.173
325	0.172
325	0.172
326	0.171
326	0.17
327	0.17
327	0.169
328	0.168
328	0.168
329	0.167
329	0.166
330	0.166
330	0.165
330	0.164
331	0.164
331	0.163
332	0.162
332	0.162
333	0.161
333	0.16
334	0.159
334	0.159
335	0.158
335	0.157
336	0.157
336	0.156
336	0.155
337	0.155
337	0.154
338	0.154
338	0.153
339	0.153
339	0.152
340	0.151
340	0.151
341	0.15
341	0.15
342	0.149
342	0.149
342	0.148
343	0.148
343	0.147
344	0.147
344	0.146
345	0.146
345	0.145
346	0.145
346	0.144
347	0.144
347	0.143
348	0.143
348	0.142
348	0.142
349	0.141
349	0.14
350	0.14
350	0.139
351	0.139
351	0.138
352	0.137
352	0.137
353	0.136
353	0.136
354	0.135
354	0.134
354	0.133
355	0.133
355	0.132
356	0.132
356	0.132
357	0.132
357	0.132
358	0.132
358	0.132
359	0.132
359	0.132
360	0.133
360	0.133
360	0.133
361	0.133
361	0.133
362	0.133
362	0.132
363	0.132
363	0.132
364	0.132
364	0.132
365	0.132
365	0.131
366	0.131
366	0.131
366	0.131
367	0.131
367	0.13
368	0.13
368	0.129
369	0.129
369	0.129
370	0.128
370	0.128
371	0.128
371	0.127
372	0.127
372	0.127
372	0.127
373	0.127
373	0.127
374	0.127
374	0.127
375	0.126
375	0.126
376	0.126
376	0.126
377	0.126
377	0.126
378	0.126
378	0.126
378	0.126
379	0.126
379	0.126
380	0.126
380	0.126
381	0.126
381	0.126
382	0.126
382	0.125
383	0.125
383	0.124
383	0.124
384	0.124
384	0.123
385	0.123
385	0.123
386	0.123
386	0.123
387	0.123
387	0.122
388	0.122
388	0.122
389	0.122
389	0.121
389	0.122
390	0.122
390	0.122
391	0.122
391	0.122
392	0.122
392	0.122
393	0.122
393	0.122
394	0.122
394	0.122
394	0.122
395	0.121
395	0.12
396	0.12
396	0.12
397	0.12
397	0.12
398	0.12
398	0.12
399	0.12
399	0.12
400	0.119
400	0.119
400	0.119
401	0.118
401	0.118
402	0.117
402	0.117
403	0.116
403	0.116
404	0.116
404	0.116
405	0.116
405	0.116
405	0.115
406	0.115
406	0.115
407	0.115
407	0.115
408	0.115
408	0.114
409	0.114
409	0.114
410	0.114
410	0.113
411	0.113
411	0.113
411	0.113
412	0.112
412	0.112
413	0.112
413	0.111
414	0.111
414	0.111
415	0.11
415	0.11
416	0.109
416	0.109
416	0.108
417	0.108
417	0.108
418	0.108
418	0.108
419	0.109
419	0.109
420	0.11
420	0.11
421	0.11
421	0.111
421	0.111
422	0.111
422	0.111
423	0.111
423	0.11
424	0.11
424	0.109
425	0.108
425	0.107
426	0.107
426	0.107
427	0.107
427	0.107
427	0.107
428	0.108
428	0.108
429	0.109
429	0.109
430	0.109
430	0.109
431	0.109
431	0.109
432	0.108
432	0.107
432	0.106
433	0.105
433	0.105
434	0.104
434	0.104
435	0.104
435	0.104
436	0.104
436	0.104
437	0.104
437	0.104
437	0.104
438	0.104
438	0.103
439	0.103
439	0.103
440	0.103
440	0.103
441	0.103
441	0.103
442	0.103
442	0.103
442	0.103
443	0.103
443	0.104
444	0.104
444	0.104
445	0.104
445	0.104
446	0.104
446	0.104
447	0.104
447	0.103
447	0.103
448	0.103
448	0.103
449	0.103
449	0.102
450	0.102
450	0.102
451	0.101
451	0.101
452	0.101
452	0.1
452	0.1
453	0.099
453	0.099
454	0.099
454	0.098
455	0.098
455	0.098
456	0.098
456	0.098
457	0.098
457	0.098
458	0.098
458	0.098
458	0.099
459	0.099
459	0.099
460	0.098
460	0.097
461	0.097
461	0.097
462	0.097
462	0.097
463	0.097
463	0.098
463	0.099
464	0.099
464	0.099
465	0.099
465	0.099
466	0.099
466	0.099
467	0.099
467	0.099
467	0.098
468	0.097
468	0.096
469	0.095
469	0.094
470	0.094
470	0.093
471	0.093
471	0.093
472	0.093
472	0.094
472	0.094
473	0.095
473	0.096
474	0.097
474	0.098
475	0.098
475	0.099
476	0.099
476	0.099
477	0.099
477	0.099
477	0.099
478	0.099
478	0.1
479	0.1
479	0.101
480	0.101
480	0.102
481	0.103
481	0.104
482	0.105
482	0.106
482	0.107
483	0.109
483	0.112
484	0.113
484	0.115
485	0.116
485	0.117
486	0.117
486	0.118
487	0.118
487	0.119
487	0.119
488	0.118
488	0.117
489	0.116
489	0.116
490	0.115
490	0.115
491	0.115
491	0.116
492	0.116
492	0.117
492	0.118
493	0.119
493	0.12
494	0.122
494	0.124
495	0.126
495	0.128
496	0.129
496	0.13
496	0.132
497	0.133
497	0.134
498	0.135
498	0.135
499	0.136
499	0.136
500	0.137
500	0.138
501	0.139
501	0.14
501	0.141
502	0.142
502	0.143
503	0.145
503	0.146
504	0.147
504	0.147
505	0.148
505	0.149
506	0.15
506	0.151
506	0.151
507	0.152
507	0.152
508	0.153
508	0.153
509	0.154
509	0.155
510	0.156
510	0.157
511	0.157
511	0.158
511	0.158
512	0.159
512	0.159
513	0.16
513	0.16
514	0.159
514	0.159
515	0.159
515	0.158
515	0.157
516	0.157
516	0.158
517	0.159
517	0.159
518	0.159
518	0.159
519	0.158
519	0.157
520	0.156
520	0.155
520	0.154
521	0.152
521	0.15
522	0.147
522	0.145
523	0.144
523	0.143
524	0.144
524	0.145
524	0.146
525	0.148
525	0.15
526	0.152
526	0.155
527	0.157
527	0.159
528	0.161
528	0.163
529	0.164
529	0.164
529	0.165
530	0.165
530	0.165
531	0.165
531	0.165
532	0.165
532	0.164
533	0.164
533	0.164
533	0.163
534	0.162
534	0.161
535	0.16
535	0.16
536	0.159
536	0.158
537	0.157
537	0.157
538	0.156
538	0.154
538	0.153
539	0.152
539	0.151
540	0.15
540	0.148
541	0.147
541	0.145
542	0.144
542	0.142
542	0.141
543	0.14
543	0.138
544	0.137
544	0.136
545	0.135
545	0.135
546	0.135
546	0.133
547	0.132
547	0.13
547	0.128
548	0.126
548	0.124
549	0.122
549	0.121
550	0.118
550	0.116
551	0.114
551	0.112
551	0.11
552	0.109
552	0.107
553	0.106
553	0.106
554	0.105
554	0.103
555	0.102
555	0.1
556	0.097
556	0.095
556	0.092
557	0.09
557	0.088
558	0.086
558	0.084
559	0.083
559	0.082
560	0.081
560	0.079
560	0.079
561	0.079
561	0.079
562	0.078
562	0.077
563	0.075
563	0.073
564	0.071
564	0.069
564	0.067
565	0.066
565	0.065
566	0.063
566	0.062
567	0.062
567	0.062
568	0.062
568	0.063
568	0.063
569	0.064
569	0.065
570	0.065
570	0.064
571	0.064
571	0.064
572	0.063
572	0.063
573	0.062
573	0.061
573	0.059
574	0.058
574	0.058
575	0.057
575	0.059
576	0.059
576	0.057
577	0.056
577	0.054
577	0.054
578	0.054
578	0.054
579	0.056
579	0.057
580	0.055
580	0.052
581	0.049
581	0.048
581	0.048
582	0.048
582	0.048
583	0.049
583	0.047
584	0.044
584	0.04
585	0.039
585	0.04
585	0.04
586	0.04
586	0.039
587	0.037
587	0.035
588	0.033
588	0.031
589	0.031
589	0.031
590	0.03
590	0.03
590	0.031
591	0.032
591	0.032
592	0.031
592	0.03
593	0.03
593	0.03
594	0.029
594	0.028
594	0.028
595	0.027
595	0.026
596	0.025
596	0.026
597	0.029
597	0.03
598	0.03
598	0.031
598	0.032
599	0.032
599	0.031
600	0.03
600	0.029
601	0.028
601	0.027
602	0.025
602	0.023
602	0.022
603	0.021
603	0.022
604	0.023
604	0.023
605	0.025
605	0.026
606	0.027
606	0.026
606	0.025
607	0.025
607	0.025
608	0.025
608	0.024
609	0.023
609	0.023
610	0.022
610	0.021
610	0.022
611	0.023
611	0.024
612	0.026
612	0.027
613	0.029
613	0.03
614	0.029
614	0.028
614	0.028
615	0.028
615	0.027
616	0.027
616	0.027
617	0.026
617	0.025
618	0.024
618	0.024
618	0.024
619	0.024
619	0.025
620	0.027
620	0.028
621	0.029
621	0.029
622	0.03
622	0.03
622	0.03
623	0.03
623	0.031
624	0.032
624	0.032
625	0.031
625	0.032
626	0.032
626	0.032
626	0.033
627	0.033
627	0.034
628	0.035
628	0.036
629	0.036
629	0.036
630	0.036
630	0.036
630	0.036
631	0.037
631	0.038
632	0.038
632	0.038
633	0.039
633	0.04
634	0.042
634	0.044
634	0.046
635	0.047
635	0.049
636	0.05
636	0.051
637	0.052
637	0.053
638	0.054
638	0.055
638	0.056
639	0.056
639	0.057
640	0.058
640	0.058
641	0.059
641	0.06
642	0.061
642	0.063
642	0.064
643	0.066
643	0.067
644	0.069
644	0.071
645	0.073
645	0.075
646	0.077
646	0.08
646	0.083
647	0.086
647	0.088
648	0.09
648	0.092
649	0.094
649	0.097
650	0.099
650	0.101
650	0.103
651	0.105
651	0.107
652	0.109
652	0.111
653	0.115
653	0.124
653	0.139
654	0.114
654	0.096
655	0.097
655	0.099
656	0.101
656	0.103
657	0.105
657	0.107
657	0.108
658	0.105
658	0.095
659	0.118
659	0.149
660	0.155
660	0.157
661	0.159
661	0.161
661	0.164
662	0.167
662	0.17
663	0.173
663	0.176
664	0.179
664	0.182
665	0.185
665	0.187
665	0.19
666	0.192
666	0.195
667	0.197
667	0.199
668	0.202
668	0.204
669	0.207
669	0.21
669	0.213
670	0.217
670	0.219
671	0.221
671	0.223
672	0.225
672	0.226
672	0.228
673	0.229
673	0.231
674	0.232
674	0.233
675	0.234
675	0.235
676	0.238
676	0.24
676	0.241
677	0.243
677	0.245
678	0.247
678	0.248
679	0.248
679	0.249
680	0.251
680	0.251
680	0.251
681	0.251
681	0.252
682	0.252
682	0.254
683	0.256
683	0.258
684	0.26
684	0.26
684	0.261
685	0.262
685	0.263
686	0.264
686	0.264
687	0.264
687	0.264
687	0.264
688	0.263
688	0.263
689	0.264
689	0.265
690	0.265
690	0.264
691	0.264
691	0.264
691	0.263
692	0.262
692	0.262
693	0.261
693	0.261
694	0.26
694	0.258
695	0.259
695	0.26
695	0.261
696	0.26
696	0.26
697	0.259
697	0.258
698	0.257
698	0.256
698	0.254
699	0.253
699	0.251
700	0.248
700	0.246
701	0.245
701	0.243
702	0.242
702	0.24
702	0.239
703	0.237
703	0.236
704	0.234
704	0.234
705	0.233
705	0.231
705	0.229
706	0.228
706	0.227
707	0.225
707	0.223
708	0.22
708	0.219
709	0.217
709	0.214
709	0.21
710	0.207
710	0.205
711	0.203
711	0.201
712	0.199
712	0.197
713	0.196
713	0.194
713	0.192
714	0.19
714	0.189
715	0.187
715	0.185
716	0.183
716	0.181
716	0.179
717	0.177
717	0.175
718	0.172
718	0.169
719	0.167
719	0.165
720	0.162
720	0.159
720	0.156
721	0.152
721	0.149
722	0.147
722	0.144
723	0.141
723	0.14
723	0.137
724	0.135
724	0.133
725	0.131
725	0.13
726	0.129
726	0.127
727	0.126
727	0.125
727	0.123
728	0.122
728	0.12
729	0.12
729	0.118
730	0.117
730	0.115
730	0.113
731	0.112
731	0.11
732	0.109
732	0.107
733	0.105
733	0.103
734	0.1
734	0.098
734	0.096
735	0.094
735	0.091
736	0.089
736	0.087
737	0.085
737	0.084
737	0.082
738	0.079
738	0.076
739	0.074
739	0.072
740	0.07
740	0.068
741	0.066
741	0.064
741	0.061
742	0.057
742	0.054
743	0.052
743	0.05
744	0.048
744	0.046
744	0.044
745	0.042
745	0.04
746	0.038
746	0.037
747	0.036
747	0.035
748	0.034
748	0.033
748	0.032
749	0.031
749	0.031
750	0.03
750	0.029
751	0.029
751	0.029
751	0.029
752	0.028
752	0.027
753	0.026
753	0.026
754	0.025
754	0.025
754	0.024
755	0.024
755	0.024
756	0.023
756	0.021
757	0.02
757	0.019
758	0.018
758	0.017
758	0.016
759	0.015
759	0.013
760	0.011
760	0.009
761	0.008
761	0.007
761	0.006
762	0.005
762	0.004
763	0.003
763	0
764	-0.003
764	-0.005
764	-0.008
765	-0.01
765	-0.013
766	-0.014
766	-0.015
767	-0.017
767	-0.02
768	-0.023
768	-0.025
768	-0.025
769	-0.026
769	-0.026
770	-0.028
770	-0.029
771	-0.031
771	-0.033
771	-0.036
772	-0.037
772	-0.039
773	-0.04
773	-0.042
774	-0.045
774	-0.047
775	-0.05
775	-0.052
775	-0.055
776	-0.058
776	-0.06
777	-0.063
777	-0.066
778	-0.07
778	-0.073
778	-0.076
779	-0.078
779	-0.08
780	-0.083
780	-0.086
781	-0.09
781	-0.094
781	-0.097
782	-0.101
782	-0.105
783	-0.11
783	-0.112
784	-0.116
784	-0.119
784	-0.121
785	-0.123
785	-0.125
786	-0.125
786	-0.123
787	-0.119
787	-0.115
788	-0.114
788	-0.114
788	-0.115
789	-0.116
789	-0.115
790	-0.112
790	-0.11
791	-0.11
791	-0.111
791	-0.114
792	-0.109
792	-0.099
793	-0.093
793	-0.09
794	-0.089
794	-0.091
794	-0.095
795	-0.098
795	-0.098
796	-0.098
796	-0.101
797	-0.109
797	-0.119
797	-0.125
798	-0.13
798	-0.132
799	-0.133
799	-0.133
800	-0.133
800	-0.135
801	-0.138
801	-0.139
801	-0.14
802	-0.142
802	-0.143
803	-0.144
803	-0.144
804	-0.143
804	-0.138
804	-0.131
805	-0.127
805	-0.125
806	-0.123
806	-0.121
807	-0.12
807	-0.12
807	-0.119
808	-0.119
808	-0.12
809	-0.125
809	-0.13
810	-0.134
810	-0.136
810	-0.139
811	-0.142
811	-0.142
812	-0.137
812	-0.134
813	-0.133
813	-0.133
813	-0.133
814	-0.134
814	-0.133
815	-0.131
815	-0.128
816	-0.126
816	-0.127
817	-0.131
817	-0.135
817	-0.136
818	-0.135
818	-0.132
819	-0.127
819	-0.125
820	-0.126
820	-0.128
820	-0.13
821	-0.129
821	-0.126
822	-0.124
822	-0.12
823	-0.117
823	-0.116
823	-0.116
824	-0.114
824	-0.108
825	-0.101
825	-0.093
826	-0.086
826	-0.081
826	-0.076
827	-0.071
827	-0.067
828	-0.063
828	-0.06
829	-0.056
829	-0.053
829	-0.051
830	-0.05
830	-0.049
831	-0.046
831	-0.045
832	-0.043
832	-0.042
832	-0.041
833	-0.04
833	-0.039
834	-0.038
834	-0.038
835	-0.037
835	-0.036
835	-0.036
836	-0.036
836	-0.035
837	-0.035
837	-0.035
838	-0.035
838	-0.035
839	-0.035
839	-0.035
839	-0.036
840	-0.035
840	-0.035
841	-0.035
841	-0.035
842	-0.034
842	-0.034
842	-0.033
843	-0.033
843	-0.032
844	-0.031
844	-0.03
845	-0.029
845	-0.029
845	-0.028
846	-0.027
846	-0.027
847	-0.027
847	-0.026
848	-0.026
848	-0.026
848	-0.026
849	-0.026
849	-0.027
850	-0.027
850	-0.028
851	-0.028
851	-0.028
851	-0.028
852	-0.028
852	-0.028
853	-0.027
853	-0.027
854	-0.027
854	-0.026
854	-0.025
855	-0.025
855	-0.024
856	-0.024
856	-0.023
857	-0.022
857	-0.021
857	-0.021
858	-0.02
858	-0.02
859	-0.02
859	-0.019
860	-0.019
860	-0.018
860	-0.018
861	-0.018
861	-0.018
862	-0.018
862	-0.018
863	-0.018
863	-0.018
863	-0.018
864	-0.018
864	-0.019
865	-0.019
865	-0.019
866	-0.019
866	-0.02
866	-0.02
867	-0.019
867	-0.019
868	-0.019
868	-0.018
869	-0.017
869	-0.016
869	-0.015
870	-0.014
870	-0.013
871	-0.013
871	-0.012
872	-0.011
872	-0.011
872	-0.011
873	-0.01
873	-0.01
874	-0.01
874	-0.01
875	-0.01
875	-0.01
875	-0.01
876	-0.01
876	-0.01
877	-0.011
877	-0.011
878	-0.012
878	-0.012
878	-0.013
879	-0.014
879	-0.015
880	-0.016
880	-0.016
881	-0.017
881	-0.017
881	-0.016
882	-0.016
882	-0.015
883	-0.014
883	-0.014
884	-0.013
884	-0.012
884	-0.011
885	-0.01
885	-0.01
886	-0.009
886	-0.009
887	-0.009
887	-0.009
887	-0.008
888	-0.008
888	-0.008
889	-0.007
889	-0.006
890	-0.005
890	-0.004
890	-0.004
891	-0.003
891	-0.003
892	-0.003
892	-0.003
893	-0.003
893	-0.004
893	-0.004
894	-0.005
894	-0.006
895	-0.007
895	-0.008
895	-0.009
896	-0.01
896	-0.01
897	-0.011
897	-0.011
898	-0.011
898	-0.011
898	-0.011
899	-0.011
899	-0.011
900	-0.011
900	-0.011
901	-0.011
901	-0.01
901	-0.01
902	-0.01
902	-0.011
903	-0.011
903	-0.011
904	-0.012
904	-0.012
904	-0.013
905	-0.014
905	-0.014
906	-0.015
906	-0.016
907	-0.016
907	-0.017
907	-0.018
908	-0.018
908	-0.018
909	-0.018
909	-0.018
910	-0.018
910	-0.018
910	-0.017
911	-0.017
911	-0.017
912	-0.017
912	-0.016
913	-0.016
913	-0.016
913	-0.017
914	-0.017
914	-0.018
915	-0.019
915	-0.019
916	-0.02
916	-0.02
916	-0.02
917	-0.019
917	-0.019
918	-0.018
918	-0.017
918	-0.015
919	-0.014
919	-0.012
920	-0.01
920	-0.009
921	-0.007
921	-0.006
921	-0.005
922	-0.004
922	-0.003
923	-0.002
923	-0.002
924	-0.001
924	-0.001
924	-0.001
925	-0
925	-0
926	0
926	0
927	0
927	0
927	0
928	0
928	0
929	0
929	-0
930	-0
930	-0.001
930	-0.002
931	-0.003
931	-0.004
932	-0.005
932	-0.006
933	-0.008
933	-0.009
933	-0.01
934	-0.011
934	-0.013
935	-0.013
935	-0.014
935	-0.015
936	-0.015
936	-0.016
937	-0.016
937	-0.015
938	-0.016
938	-0.015
938	-0.015
939	-0.014
939	-0.014
940	-0.013
940	-0.012
941	-0.012
941	-0.011
941	-0.01
942	-0.01
942	-0.009
943	-0.008
943	-0.008
944	-0.008
944	-0.008
944	-0.007
945	-0.007
945	-0.006
946	-0.006
946	-0.006
946	-0.006
947	-0.006
947	-0.006
948	-0.006
948	-0.006
949	-0.006
949	-0.006
949	-0.006
950	-0.006
950	-0.006
951	-0.006
951	-0.006
952	-0.006
952	-0.006
952	-0.005
953	-0.005
953	-0.005
954	-0.005
954	-0.005
955	-0.005
955	-0.005
955	-0.005
956	-0.005
956	-0.005
957	-0.005
957	-0.005
957	-0.006
958	-0.006
958	-0.007
959	-0.007
959	-0.007
960	-0.008
960	-0.009
960	-0.01
961	-0.011
961	-0.011
962	-0.012
962	-0.012
963	-0.012
963	-0.011
963	-0.011
964	-0.01
964	-0.01
965	-0.009
965	-0.008
966	-0.007
966	-0.005
966	-0.004
967	-0.003
967	-0.003
968	-0.002
968	-0.002
968	-0.002
969	-0.002
969	-0.002
970	-0.002
970	-0.002
971	-0.003
971	-0.004
971	-0.004
972	-0.005
972	-0.005
973	-0.006
973	-0.006
974	-0.007
974	-0.008
974	-0.009
975	-0.009
975	-0.01
976	-0.011
976	-0.012
976	-0.013
977	-0.015
977	-0.016
978	-0.017
978	-0.018
979	-0.019
979	-0.02
979	-0.02
980	-0.02
980	-0.02
981	-0.02
981	-0.019
982	-0.018
982	-0.017
982	-0.015
983	-0.014
983	-0.013
984	-0.012
984	-0.01
984	-0.009
985	-0.008
985	-0.008
986	-0.008
986	-0.008
987	-0.009
987	-0.009
987	-0.01
988	-0.011
988	-0.012
989	-0.013
989	-0.015
990	-0.016
990	-0.017
990	-0.017
991	-0.018
991	-0.018
992	-0.018
992	-0.019
992	-0.019
993	-0.019
993	-0.02
994	-0.02
994	-0.021
995	-0.022
995	-0.022
995	-0.023
996	-0.024
996	-0.025
997	-0.025
997	-0.026
997	-0.026
998	-0.026
998	-0.026
999	-0.025
999	-0.025
1000	-0.024
1000	-0.023
1000	-0.022
1001	-0.022
1001	-0.021
1002	-0.02
1002	-0.02
1003	-0.019
1003	-0.019
1003	-0.019
1004	-0.018
1004	-0.018
1005	-0.018
1005	-0.017
1005	-0.017
1006	-0.016
1006	-0.016
1007	-0.015
1007	-0.015
1008	-0.014
1008	-0.014
1008	-0.013
1009	-0.013
1009	-0.012
1010	-0.012
1010	-0.011
1010	-0.011
1011	-0.011
1011	-0.011
1012	-0.011
1012	-0.011
1013	-0.011
1013	-0.012
1013	-0.012
1014	-0.013
1014	-0.013
1015	-0.014
1015	-0.015
1016	-0.015
1016	-0.016
1016	-0.017
1017	-0.018
1017	-0.018
1018	-0.018
1018	-0.019
1018	-0.018
1019	-0.018
1019	-0.018
1020	-0.019
1020	-0.019
1021	-0.019
1021	-0.019
1021	-0.019
1022	-0.02
1022	-0.02
1023	-0.02
1023	-0.021
1023	-0.022
1024	-0.022
1024	-0.023
1025	-0.024
1025	-0.025
1026	-0.025
1026	-0.025
1026	-0.026
1027	-0.026
1027	-0.026
1028	-0.025
1028	-0.025
1028	-0.024
1029	-0.024
1029	-0.023
1030	-0.023
1030	-0.022
1031	-0.021
1031	-0.021
1031	-0.02
1032	-0.02
1032	-0.019
1033	-0.019
1033	-0.019
1033	-0.019
1034	-0.02
1034	-0.021
1035	-0.021
1035	-0.022
1036	-0.022
1036	-0.023
1036	-0.024
1037	-0.024
1037	-0.025
1038	-0.025
1038	-0.025
1039	-0.025
1039	-0.025
1039	-0.025
1040	-0.025
1040	-0.025
1041	-0.025
1041	-0.025
1041	-0.025
1042	-0.025
1042	-0.026
1043	-0.026
1043	-0.027
1044	-0.028
1044	-0.028
1044	-0.029
1045	-0.029
1045	-0.03
1046	-0.03
1046	-0.03
1046	-0.03
1047	-0.03
1047	-0.029
1048	-0.029
1048	-0.029
1049	-0.029
1049	-0.029
1049	-0.029
1050	-0.029
1050	-0.029
1051	-0.029
1051	-0.029
1051	-0.029
1052	-0.028
1052	-0.028
1053	-0.027
1053	-0.025
1053	-0.024
1054	-0.023
1054	-0.022
1055	-0.02
1055	-0.019
1056	-0.019
1056	-0.018
1056	-0.018
1057	-0.018
1057	-0.018
1058	-0.018
1058	-0.018
1058	-0.017
1059	-0.017
1059	-0.018
1060	-0.017
1060	-0.017
1061	-0.016
1061	-0.015
1061	-0.015
1062	-0.014
1062	-0.014
1063	-0.014
1063	-0.014
1063	-0.015
1064	-0.014
1064	-0.014
1065	-0.014
1065	-0.014
1066	-0.014
1066	-0.014
1066	-0.014
1067	-0.014
1067	-0.014
1068	-0.013
1068	-0.013
1068	-0.013
1069	-0.013
1069	-0.013
1070	-0.013
1070	-0.012
1071	-0.012
1071	-0.011
1071	-0.01
1072	-0.01
1072	-0.009
1073	-0.007
1073	-0.006
1073	-0.005
1074	-0.004
1074	-0.003
1075	-0.002
1075	-0.002
1076	-0.002
1076	-0
1076	0
1077	0
1077	0.001
1078	0.001
1078	0.002
1078	0.003
1079	0.004
1079	0.006
1080	0.007
1080	0.008
1080	0.009
1081	0.01
1081	0.012
1082	0.013
1082	0.014
1083	0.015
1083	0.016
1083	0.019
1084	0.02
1084	0.022
1085	0.023
1085	0.025
1085	0.027
1086	0.029
1086	0.029
1087	0.032
1087	0.034
1088	0.035
1088	0.036
1088	0.038
1089	0.039
1089	0.042
1090	0.044
1090	0.046
1090	0.048
1091	0.051
1091	0.056
1092	0.059
1092	0.064
1092	0.068
1093	0.073
1093	0.079
1094	0.084
1094	0.089
1095	0.095
1095	0.101
1095	0.11
1096	0.116
1096	0.124
1097	0.134
1097	0.142
1097	0.153
1098	0.162
1098	0.173
1099	0.186
1099	0.2
1100	0.215
1100	0.23
1100	0.248
1101	0.266
1101	0.284
1102	0.31
1102	0.336
1102	0.368
1103	0.401
1103	0.44
1104	0.487
1104	0.54
1104	0.611
1105	0.692
1105	0.797
1106	0.938
1106	1.185
1107	1.979
1107	-0
1107	-0
1108	-0
1108	-0
1109	-0
1109	-0
1109	-0
1110	-0
1110	-0
1111	-0
1111	-0
