Data from 15c-100ul-ns-20ul-nr-full-exp-7ul-bp_Absorbance__314__04652.txt Node

Date: Mon Jan 15 15:23:17 CET 2024
User: Marek
Spectrometer: MAYP115816
Trigger mode: 0
Integration Time (sec): 2.000000E-1
Scans to average: 10
Electric dark correction enabled: true
Nonlinearity correction enabled: true
Boxcar width: 5
XAxis mode: Wavelengths
Number of Pixels in Spectrum: 2068
>>>>>Begin Spectral Data<<<<<
199	-0.593
199	-0.566
200	-0.491
200	-0.428
201	-0.389
201	-0.366
202	-0.343
202	-0.34
203	-0.33
203	-0.328
204	-0.31
204	-0.296
205	-0.28
205	-0.274
205	-0.277
206	-0.278
206	-0.283
207	-0.282
207	-0.281
208	-0.284
208	-0.282
209	-0.282
209	-0.287
210	-0.289
210	-0.289
211	-0.288
211	-0.29
212	-0.291
212	-0.292
213	-0.293
213	-0.293
213	-0.296
214	-0.296
214	-0.296
215	-0.295
215	-0.299
216	-0.301
216	-0.304
217	-0.301
217	-0.302
218	-0.302
218	-0.299
219	-0.296
219	-0.298
220	-0.297
220	-0.298
221	-0.296
221	-0.295
221	-0.29
222	-0.288
222	-0.286
223	-0.278
223	-0.278
224	-0.278
224	-0.267
225	-0.259
225	-0.25
226	-0.244
226	-0.231
227	-0.218
227	-0.208
228	-0.192
228	-0.179
229	-0.157
229	-0.131
229	-0.109
230	-0.083
230	-0.053
231	-0.022
231	0.008
232	0.034
232	0.066
233	0.095
233	0.126
234	0.151
234	0.177
235	0.2
235	0.22
236	0.238
236	0.256
236	0.272
237	0.287
237	0.299
238	0.311
238	0.321
239	0.33
239	0.337
240	0.343
240	0.348
241	0.352
241	0.356
242	0.359
242	0.361
243	0.364
243	0.365
243	0.367
244	0.368
244	0.37
245	0.371
245	0.372
246	0.373
246	0.374
247	0.375
247	0.376
248	0.377
248	0.378
249	0.378
249	0.379
250	0.38
250	0.381
250	0.382
251	0.382
251	0.383
252	0.384
252	0.384
253	0.385
253	0.385
254	0.385
254	0.386
255	0.386
255	0.386
256	0.386
256	0.386
257	0.387
257	0.386
258	0.386
258	0.386
258	0.386
259	0.385
259	0.385
260	0.384
260	0.384
261	0.383
261	0.382
262	0.381
262	0.38
263	0.379
263	0.378
264	0.377
264	0.376
265	0.374
265	0.373
265	0.371
266	0.37
266	0.368
267	0.366
267	0.364
268	0.363
268	0.361
269	0.359
269	0.356
270	0.354
270	0.352
271	0.349
271	0.347
272	0.345
272	0.343
272	0.341
273	0.338
273	0.336
274	0.333
274	0.331
275	0.329
275	0.326
276	0.324
276	0.322
277	0.319
277	0.317
278	0.315
278	0.313
278	0.31
279	0.306
279	0.303
280	0.3
280	0.297
281	0.294
281	0.291
282	0.288
282	0.285
283	0.282
283	0.28
284	0.278
284	0.276
285	0.274
285	0.272
285	0.27
286	0.268
286	0.266
287	0.264
287	0.262
288	0.26
288	0.258
289	0.257
289	0.255
290	0.253
290	0.251
291	0.25
291	0.248
292	0.247
292	0.245
292	0.244
293	0.242
293	0.241
294	0.239
294	0.238
295	0.237
295	0.236
296	0.234
296	0.233
297	0.232
297	0.231
298	0.23
298	0.229
298	0.228
299	0.227
299	0.226
300	0.225
300	0.224
301	0.223
301	0.223
302	0.222
302	0.221
303	0.22
303	0.219
304	0.219
304	0.218
305	0.217
305	0.216
305	0.216
306	0.215
306	0.214
307	0.213
307	0.212
308	0.212
308	0.211
309	0.21
309	0.209
310	0.209
310	0.208
311	0.207
311	0.207
311	0.206
312	0.205
312	0.205
313	0.204
313	0.203
314	0.203
314	0.202
315	0.201
315	0.201
316	0.2
316	0.199
317	0.199
317	0.198
318	0.197
318	0.197
318	0.196
319	0.195
319	0.195
320	0.194
320	0.193
321	0.192
321	0.192
322	0.191
322	0.19
323	0.19
323	0.189
324	0.188
324	0.188
324	0.187
325	0.186
325	0.186
326	0.185
326	0.185
327	0.184
327	0.183
328	0.183
328	0.182
329	0.182
329	0.181
330	0.181
330	0.18
330	0.18
331	0.179
331	0.179
332	0.178
332	0.177
333	0.177
333	0.176
334	0.176
334	0.175
335	0.175
335	0.174
336	0.174
336	0.173
336	0.173
337	0.172
337	0.172
338	0.171
338	0.171
339	0.17
339	0.17
340	0.169
340	0.169
341	0.168
341	0.168
342	0.168
342	0.167
342	0.167
343	0.167
343	0.166
344	0.166
344	0.166
345	0.165
345	0.165
346	0.164
346	0.164
347	0.164
347	0.163
348	0.163
348	0.163
348	0.162
349	0.162
349	0.162
350	0.162
350	0.162
351	0.161
351	0.161
352	0.161
352	0.161
353	0.16
353	0.16
354	0.16
354	0.16
354	0.16
355	0.159
355	0.159
356	0.159
356	0.159
357	0.159
357	0.159
358	0.159
358	0.159
359	0.158
359	0.158
360	0.158
360	0.158
360	0.158
361	0.158
361	0.157
362	0.157
362	0.157
363	0.157
363	0.157
364	0.157
364	0.157
365	0.157
365	0.157
366	0.157
366	0.156
366	0.156
367	0.156
367	0.156
368	0.156
368	0.156
369	0.155
369	0.155
370	0.155
370	0.155
371	0.155
371	0.155
372	0.154
372	0.154
372	0.154
373	0.154
373	0.154
374	0.154
374	0.154
375	0.153
375	0.153
376	0.153
376	0.153
377	0.153
377	0.153
378	0.153
378	0.153
378	0.153
379	0.153
379	0.152
380	0.152
380	0.152
381	0.152
381	0.152
382	0.152
382	0.151
383	0.151
383	0.151
383	0.151
384	0.15
384	0.15
385	0.15
385	0.15
386	0.15
386	0.149
387	0.149
387	0.149
388	0.149
388	0.149
389	0.149
389	0.149
389	0.149
390	0.149
390	0.149
391	0.148
391	0.148
392	0.148
392	0.148
393	0.148
393	0.148
394	0.147
394	0.147
394	0.147
395	0.146
395	0.146
396	0.146
396	0.146
397	0.146
397	0.145
398	0.145
398	0.145
399	0.145
399	0.145
400	0.145
400	0.145
400	0.145
401	0.144
401	0.144
402	0.143
402	0.143
403	0.143
403	0.143
404	0.143
404	0.143
405	0.143
405	0.143
405	0.143
406	0.143
406	0.143
407	0.143
407	0.143
408	0.143
408	0.142
409	0.142
409	0.142
410	0.142
410	0.142
411	0.142
411	0.141
411	0.141
412	0.141
412	0.14
413	0.14
413	0.14
414	0.14
414	0.139
415	0.139
415	0.138
416	0.138
416	0.138
416	0.138
417	0.138
417	0.138
418	0.138
418	0.138
419	0.138
419	0.138
420	0.138
420	0.138
421	0.138
421	0.138
421	0.138
422	0.138
422	0.138
423	0.138
423	0.138
424	0.137
424	0.137
425	0.137
425	0.137
426	0.137
426	0.137
427	0.137
427	0.137
427	0.137
428	0.137
428	0.138
429	0.138
429	0.138
430	0.137
430	0.137
431	0.137
431	0.137
432	0.136
432	0.136
432	0.135
433	0.135
433	0.135
434	0.135
434	0.135
435	0.135
435	0.134
436	0.134
436	0.134
437	0.134
437	0.134
437	0.134
438	0.134
438	0.134
439	0.134
439	0.134
440	0.134
440	0.134
441	0.135
441	0.135
442	0.135
442	0.135
442	0.135
443	0.135
443	0.135
444	0.134
444	0.135
445	0.135
445	0.135
446	0.134
446	0.134
447	0.134
447	0.134
447	0.134
448	0.134
448	0.134
449	0.134
449	0.134
450	0.134
450	0.134
451	0.133
451	0.133
452	0.134
452	0.134
452	0.133
453	0.134
453	0.133
454	0.133
454	0.134
455	0.134
455	0.134
456	0.134
456	0.134
457	0.135
457	0.135
458	0.135
458	0.135
458	0.136
459	0.136
459	0.136
460	0.135
460	0.135
461	0.136
461	0.136
462	0.136
462	0.137
463	0.137
463	0.138
463	0.138
464	0.138
464	0.138
465	0.138
465	0.138
466	0.138
466	0.138
467	0.138
467	0.138
467	0.137
468	0.137
468	0.137
469	0.138
469	0.138
470	0.139
470	0.139
471	0.14
471	0.14
472	0.141
472	0.141
472	0.142
473	0.143
473	0.143
474	0.143
474	0.143
475	0.144
475	0.144
476	0.144
476	0.144
477	0.145
477	0.145
477	0.145
478	0.145
478	0.146
479	0.146
479	0.147
480	0.148
480	0.148
481	0.149
481	0.15
482	0.151
482	0.152
482	0.153
483	0.154
483	0.156
484	0.156
484	0.156
485	0.157
485	0.157
486	0.157
486	0.158
487	0.159
487	0.159
487	0.16
488	0.16
488	0.16
489	0.161
489	0.163
490	0.164
490	0.165
491	0.167
491	0.168
492	0.169
492	0.17
492	0.171
493	0.173
493	0.174
494	0.176
494	0.178
495	0.18
495	0.181
496	0.183
496	0.185
496	0.186
497	0.188
497	0.19
498	0.191
498	0.192
499	0.193
499	0.195
500	0.196
500	0.198
501	0.199
501	0.2
501	0.201
502	0.202
502	0.203
503	0.205
503	0.206
504	0.207
504	0.208
505	0.21
505	0.211
506	0.213
506	0.214
506	0.216
507	0.217
507	0.219
508	0.221
508	0.222
509	0.224
509	0.225
510	0.227
510	0.228
511	0.229
511	0.231
511	0.233
512	0.234
512	0.235
513	0.236
513	0.236
514	0.237
514	0.239
515	0.24
515	0.24
515	0.241
516	0.242
516	0.243
517	0.244
517	0.244
518	0.245
518	0.245
519	0.245
519	0.246
520	0.246
520	0.247
520	0.247
521	0.247
521	0.247
522	0.247
522	0.248
523	0.248
523	0.249
524	0.249
524	0.249
524	0.248
525	0.248
525	0.248
526	0.248
526	0.247
527	0.247
527	0.247
528	0.246
528	0.246
529	0.245
529	0.245
529	0.244
530	0.244
530	0.243
531	0.242
531	0.241
532	0.24
532	0.239
533	0.238
533	0.237
533	0.235
534	0.234
534	0.232
535	0.231
535	0.23
536	0.229
536	0.228
537	0.226
537	0.225
538	0.223
538	0.222
538	0.22
539	0.219
539	0.217
540	0.216
540	0.214
541	0.211
541	0.21
542	0.208
542	0.207
542	0.205
543	0.204
543	0.202
544	0.2
544	0.199
545	0.197
545	0.196
546	0.194
546	0.192
547	0.189
547	0.187
547	0.185
548	0.183
548	0.182
549	0.18
549	0.178
550	0.176
550	0.173
551	0.17
551	0.169
551	0.167
552	0.165
552	0.163
553	0.162
553	0.16
554	0.158
554	0.156
555	0.154
555	0.152
556	0.15
556	0.148
556	0.146
557	0.144
557	0.143
558	0.141
558	0.139
559	0.137
559	0.135
560	0.133
560	0.13
560	0.129
561	0.128
561	0.127
562	0.125
562	0.123
563	0.121
563	0.119
564	0.117
564	0.115
564	0.114
565	0.112
565	0.111
566	0.109
566	0.107
567	0.106
567	0.104
568	0.103
568	0.101
568	0.1
569	0.099
569	0.097
570	0.095
570	0.092
571	0.091
571	0.09
572	0.088
572	0.086
573	0.085
573	0.083
573	0.08
574	0.079
574	0.079
575	0.078
575	0.079
576	0.078
576	0.075
577	0.073
577	0.072
577	0.072
578	0.072
578	0.072
579	0.073
579	0.073
580	0.07
580	0.066
581	0.064
581	0.063
581	0.064
582	0.064
582	0.064
583	0.064
583	0.062
584	0.059
584	0.056
585	0.056
585	0.058
585	0.058
586	0.057
586	0.056
587	0.054
587	0.052
588	0.05
588	0.05
589	0.051
589	0.051
590	0.051
590	0.051
590	0.053
591	0.053
591	0.052
592	0.052
592	0.05
593	0.05
593	0.05
594	0.049
594	0.048
594	0.047
595	0.047
595	0.046
596	0.045
596	0.048
597	0.05
597	0.05
598	0.05
598	0.051
598	0.051
599	0.05
599	0.049
600	0.048
600	0.047
601	0.046
601	0.045
602	0.043
602	0.043
602	0.042
603	0.042
603	0.043
604	0.044
604	0.044
605	0.045
605	0.046
606	0.046
606	0.045
606	0.044
607	0.044
607	0.045
608	0.044
608	0.043
609	0.043
609	0.044
610	0.043
610	0.043
610	0.044
611	0.046
611	0.047
612	0.049
612	0.05
613	0.051
613	0.052
614	0.051
614	0.05
614	0.05
615	0.05
615	0.049
616	0.05
616	0.049
617	0.049
617	0.049
618	0.049
618	0.05
618	0.05
619	0.052
619	0.054
620	0.056
620	0.056
621	0.057
621	0.058
622	0.058
622	0.059
622	0.058
623	0.059
623	0.06
624	0.06
624	0.06
625	0.06
625	0.06
626	0.061
626	0.061
626	0.063
627	0.064
627	0.065
628	0.066
628	0.067
629	0.068
629	0.068
630	0.069
630	0.069
630	0.07
631	0.072
631	0.072
632	0.073
632	0.074
633	0.076
633	0.077
634	0.079
634	0.081
634	0.083
635	0.084
635	0.085
636	0.086
636	0.088
637	0.088
637	0.089
638	0.09
638	0.091
638	0.092
639	0.093
639	0.094
640	0.096
640	0.097
641	0.098
641	0.099
642	0.101
642	0.102
642	0.104
643	0.105
643	0.107
644	0.109
644	0.11
645	0.113
645	0.115
646	0.118
646	0.12
646	0.123
647	0.125
647	0.127
648	0.128
648	0.13
649	0.132
649	0.135
650	0.137
650	0.138
650	0.14
651	0.142
651	0.144
652	0.146
652	0.149
653	0.153
653	0.161
653	0.171
654	0.137
654	0.112
655	0.112
655	0.114
656	0.116
656	0.118
657	0.12
657	0.121
657	0.123
658	0.12
658	0.113
659	0.143
659	0.185
660	0.196
660	0.199
661	0.202
661	0.205
661	0.208
662	0.211
662	0.214
663	0.217
663	0.22
664	0.223
664	0.226
665	0.229
665	0.232
665	0.234
666	0.237
666	0.239
667	0.242
667	0.244
668	0.247
668	0.249
669	0.252
669	0.255
669	0.259
670	0.261
670	0.263
671	0.265
671	0.266
672	0.268
672	0.27
672	0.272
673	0.274
673	0.276
674	0.277
674	0.278
675	0.28
675	0.283
676	0.286
676	0.288
676	0.289
677	0.291
677	0.293
678	0.293
678	0.294
679	0.294
679	0.295
680	0.296
680	0.296
680	0.296
681	0.297
681	0.298
682	0.298
682	0.299
683	0.301
683	0.303
684	0.303
684	0.303
684	0.304
685	0.305
685	0.305
686	0.306
686	0.306
687	0.306
687	0.306
687	0.306
688	0.305
688	0.305
689	0.306
689	0.306
690	0.305
690	0.304
691	0.303
691	0.302
691	0.301
692	0.3
692	0.299
693	0.299
693	0.298
694	0.296
694	0.295
695	0.296
695	0.297
695	0.296
696	0.294
696	0.294
697	0.293
697	0.292
698	0.291
698	0.289
698	0.288
699	0.287
699	0.284
700	0.282
700	0.281
701	0.28
701	0.277
702	0.275
702	0.274
702	0.272
703	0.27
703	0.268
704	0.267
704	0.266
705	0.264
705	0.261
705	0.259
706	0.257
706	0.255
707	0.253
707	0.25
708	0.248
708	0.246
709	0.244
709	0.241
709	0.237
710	0.235
710	0.233
711	0.231
711	0.229
712	0.227
712	0.225
713	0.223
713	0.221
713	0.219
714	0.217
714	0.215
715	0.213
715	0.211
716	0.209
716	0.208
716	0.205
717	0.203
717	0.201
718	0.198
718	0.196
719	0.194
719	0.191
720	0.188
720	0.186
720	0.182
721	0.179
721	0.177
722	0.174
722	0.171
723	0.169
723	0.167
723	0.165
724	0.163
724	0.161
725	0.159
725	0.158
726	0.157
726	0.155
727	0.154
727	0.152
727	0.151
728	0.149
728	0.148
729	0.147
729	0.145
730	0.143
730	0.142
730	0.14
731	0.139
731	0.137
732	0.135
732	0.133
733	0.131
733	0.129
734	0.127
734	0.125
734	0.123
735	0.122
735	0.119
736	0.117
736	0.115
737	0.114
737	0.113
737	0.111
738	0.108
738	0.106
739	0.105
739	0.103
740	0.101
740	0.1
741	0.099
741	0.097
741	0.095
742	0.092
742	0.091
743	0.091
743	0.089
744	0.088
744	0.086
744	0.084
745	0.083
745	0.081
746	0.079
746	0.078
747	0.077
747	0.075
748	0.074
748	0.072
748	0.071
749	0.069
749	0.069
750	0.068
750	0.067
751	0.067
751	0.066
751	0.066
752	0.065
752	0.064
753	0.063
753	0.063
754	0.062
754	0.061
754	0.061
755	0.06
755	0.059
756	0.056
756	0.054
757	0.053
757	0.053
758	0.052
758	0.051
758	0.05
759	0.049
759	0.047
760	0.046
760	0.045
761	0.046
761	0.046
761	0.046
762	0.045
762	0.045
763	0.044
763	0.042
764	0.041
764	0.039
764	0.038
765	0.036
765	0.035
766	0.034
766	0.033
767	0.032
767	0.029
768	0.028
768	0.027
768	0.027
769	0.027
769	0.026
770	0.025
770	0.025
771	0.024
771	0.022
771	0.021
772	0.021
772	0.021
773	0.021
773	0.021
774	0.02
774	0.02
775	0.02
775	0.019
775	0.019
776	0.018
776	0.018
777	0.018
777	0.017
778	0.017
778	0.016
778	0.017
779	0.017
779	0.018
780	0.017
780	0.017
781	0.017
781	0.017
781	0.016
782	0.016
782	0.016
783	0.015
783	0.014
784	0.013
784	0.011
784	0.01
785	0.01
785	0.009
786	0.008
786	0.009
787	0.009
787	0.008
788	0.008
788	0.008
788	0.008
789	0.009
789	0.01
790	0.01
790	0.01
791	0.01
791	0.01
791	0.01
792	0.011
792	0.01
793	0.008
793	0.008
794	0.007
794	0.006
794	0.006
795	0.006
795	0.006
796	0.005
796	0.004
797	0.003
797	0.004
797	0.004
798	0.003
798	0.003
799	0.002
799	0.001
800	-0
800	-0.002
801	-0.003
801	-0.004
801	-0.005
802	-0.007
802	-0.007
803	-0.008
803	-0.008
804	-0.008
804	-0.007
804	-0.007
805	-0.006
805	-0.005
806	-0.005
806	-0.004
807	-0.003
807	-0.002
807	-0.001
808	-0.001
808	-0.001
809	-0.001
809	-0
810	0
810	-0
810	-0
811	-0
811	0
812	0.001
812	-0
813	-0.001
813	-0.001
813	-0.001
814	-0.002
814	-0.002
815	-0.002
815	-0.002
816	-0.003
816	-0.004
817	-0.005
817	-0.005
817	-0.005
818	-0.005
818	-0.005
819	-0.005
819	-0.006
820	-0.007
820	-0.008
820	-0.008
821	-0.008
821	-0.008
822	-0.008
822	-0.009
823	-0.009
823	-0.01
823	-0.01
824	-0.01
824	-0.01
825	-0.01
825	-0.009
826	-0.009
826	-0.01
826	-0.009
827	-0.009
827	-0.009
828	-0.009
828	-0.009
829	-0.009
829	-0.009
829	-0.009
830	-0.009
830	-0.009
831	-0.009
831	-0.009
832	-0.009
832	-0.009
832	-0.01
833	-0.01
833	-0.01
834	-0.011
834	-0.011
835	-0.011
835	-0.012
835	-0.012
836	-0.012
836	-0.012
837	-0.013
837	-0.013
838	-0.013
838	-0.014
839	-0.014
839	-0.015
839	-0.015
840	-0.016
840	-0.016
841	-0.016
841	-0.016
842	-0.016
842	-0.016
842	-0.016
843	-0.015
843	-0.015
844	-0.015
844	-0.015
845	-0.014
845	-0.014
845	-0.014
846	-0.015
846	-0.015
847	-0.015
847	-0.016
848	-0.016
848	-0.017
848	-0.018
849	-0.019
849	-0.02
850	-0.021
850	-0.022
851	-0.023
851	-0.023
851	-0.024
852	-0.024
852	-0.024
853	-0.024
853	-0.024
854	-0.024
854	-0.023
854	-0.023
855	-0.022
855	-0.022
856	-0.021
856	-0.02
857	-0.019
857	-0.019
857	-0.019
858	-0.018
858	-0.018
859	-0.018
859	-0.018
860	-0.018
860	-0.018
860	-0.018
861	-0.018
861	-0.018
862	-0.018
862	-0.019
863	-0.019
863	-0.019
863	-0.019
864	-0.02
864	-0.02
865	-0.02
865	-0.021
866	-0.022
866	-0.022
866	-0.022
867	-0.022
867	-0.022
868	-0.022
868	-0.021
869	-0.02
869	-0.02
869	-0.019
870	-0.018
870	-0.017
871	-0.017
871	-0.016
872	-0.016
872	-0.015
872	-0.015
873	-0.015
873	-0.015
874	-0.014
874	-0.014
875	-0.014
875	-0.014
875	-0.015
876	-0.015
876	-0.016
877	-0.016
877	-0.017
878	-0.018
878	-0.018
878	-0.019
879	-0.02
879	-0.021
880	-0.022
880	-0.022
881	-0.022
881	-0.022
881	-0.021
882	-0.021
882	-0.02
883	-0.019
883	-0.019
884	-0.018
884	-0.017
884	-0.017
885	-0.016
885	-0.016
886	-0.016
886	-0.016
887	-0.016
887	-0.016
887	-0.016
888	-0.016
888	-0.015
889	-0.015
889	-0.014
890	-0.013
890	-0.013
890	-0.013
891	-0.012
891	-0.012
892	-0.012
892	-0.012
893	-0.013
893	-0.014
893	-0.014
894	-0.016
894	-0.017
895	-0.018
895	-0.019
895	-0.02
896	-0.021
896	-0.021
897	-0.022
897	-0.022
898	-0.022
898	-0.022
898	-0.022
899	-0.022
899	-0.022
900	-0.022
900	-0.022
901	-0.022
901	-0.022
901	-0.022
902	-0.022
902	-0.023
903	-0.023
903	-0.023
904	-0.024
904	-0.024
904	-0.024
905	-0.025
905	-0.026
906	-0.026
906	-0.026
907	-0.027
907	-0.028
907	-0.028
908	-0.029
908	-0.029
909	-0.029
909	-0.029
910	-0.029
910	-0.029
910	-0.029
911	-0.028
911	-0.028
912	-0.028
912	-0.027
913	-0.027
913	-0.027
913	-0.028
914	-0.028
914	-0.029
915	-0.029
915	-0.03
916	-0.031
916	-0.031
916	-0.031
917	-0.031
917	-0.03
918	-0.029
918	-0.028
918	-0.027
919	-0.026
919	-0.024
920	-0.023
920	-0.021
921	-0.02
921	-0.019
921	-0.018
922	-0.017
922	-0.016
923	-0.015
923	-0.014
924	-0.013
924	-0.013
924	-0.013
925	-0.012
925	-0.012
926	-0.012
926	-0.011
927	-0.012
927	-0.012
927	-0.012
928	-0.012
928	-0.012
929	-0.012
929	-0.012
930	-0.012
930	-0.013
930	-0.014
931	-0.015
931	-0.016
932	-0.017
932	-0.019
933	-0.02
933	-0.021
933	-0.023
934	-0.024
934	-0.026
935	-0.027
935	-0.028
935	-0.029
936	-0.03
936	-0.03
937	-0.031
937	-0.031
938	-0.031
938	-0.032
938	-0.032
939	-0.031
939	-0.031
940	-0.03
940	-0.03
941	-0.029
941	-0.029
941	-0.028
942	-0.028
942	-0.027
943	-0.027
943	-0.027
944	-0.026
944	-0.026
944	-0.026
945	-0.026
945	-0.025
946	-0.025
946	-0.025
946	-0.025
947	-0.025
947	-0.025
948	-0.025
948	-0.025
949	-0.025
949	-0.025
949	-0.024
950	-0.024
950	-0.024
951	-0.023
951	-0.023
952	-0.023
952	-0.023
952	-0.022
953	-0.022
953	-0.021
954	-0.022
954	-0.022
955	-0.022
955	-0.022
955	-0.021
956	-0.021
956	-0.021
957	-0.021
957	-0.021
957	-0.021
958	-0.022
958	-0.022
959	-0.022
959	-0.023
960	-0.023
960	-0.024
960	-0.025
961	-0.026
961	-0.026
962	-0.027
962	-0.027
963	-0.026
963	-0.026
963	-0.026
964	-0.025
964	-0.025
965	-0.024
965	-0.023
966	-0.022
966	-0.021
966	-0.019
967	-0.019
967	-0.018
968	-0.018
968	-0.017
968	-0.017
969	-0.017
969	-0.017
970	-0.017
970	-0.018
971	-0.018
971	-0.019
971	-0.02
972	-0.02
972	-0.021
973	-0.021
973	-0.022
974	-0.023
974	-0.024
974	-0.025
975	-0.026
975	-0.026
976	-0.028
976	-0.029
976	-0.03
977	-0.032
977	-0.033
978	-0.035
978	-0.036
979	-0.037
979	-0.037
979	-0.038
980	-0.038
980	-0.038
981	-0.038
981	-0.037
982	-0.036
982	-0.035
982	-0.034
983	-0.033
983	-0.031
984	-0.03
984	-0.029
984	-0.027
985	-0.026
985	-0.026
986	-0.026
986	-0.026
987	-0.026
987	-0.027
987	-0.027
988	-0.028
988	-0.029
989	-0.03
989	-0.031
990	-0.033
990	-0.034
990	-0.034
991	-0.034
991	-0.035
992	-0.035
992	-0.036
992	-0.036
993	-0.036
993	-0.037
994	-0.038
994	-0.039
995	-0.039
995	-0.04
995	-0.041
996	-0.042
996	-0.042
997	-0.043
997	-0.043
997	-0.044
998	-0.043
998	-0.043
999	-0.042
999	-0.042
1000	-0.041
1000	-0.04
1000	-0.039
1001	-0.038
1001	-0.038
1002	-0.037
1002	-0.037
1003	-0.037
1003	-0.036
1003	-0.036
1004	-0.036
1004	-0.036
1005	-0.036
1005	-0.036
1005	-0.036
1006	-0.035
1006	-0.035
1007	-0.035
1007	-0.034
1008	-0.034
1008	-0.033
1008	-0.033
1009	-0.033
1009	-0.032
1010	-0.032
1010	-0.032
1010	-0.031
1011	-0.031
1011	-0.031
1012	-0.031
1012	-0.031
1013	-0.031
1013	-0.032
1013	-0.032
1014	-0.033
1014	-0.034
1015	-0.035
1015	-0.036
1016	-0.037
1016	-0.038
1016	-0.039
1017	-0.039
1017	-0.04
1018	-0.041
1018	-0.041
1018	-0.041
1019	-0.041
1019	-0.041
1020	-0.042
1020	-0.042
1021	-0.042
1021	-0.042
1021	-0.042
1022	-0.042
1022	-0.042
1023	-0.042
1023	-0.043
1023	-0.044
1024	-0.044
1024	-0.045
1025	-0.046
1025	-0.046
1026	-0.047
1026	-0.047
1026	-0.048
1027	-0.048
1027	-0.048
1028	-0.048
1028	-0.047
1028	-0.047
1029	-0.047
1029	-0.047
1030	-0.046
1030	-0.046
1031	-0.046
1031	-0.045
1031	-0.045
1032	-0.045
1032	-0.044
1033	-0.044
1033	-0.044
1033	-0.045
1034	-0.045
1034	-0.046
1035	-0.047
1035	-0.047
1036	-0.048
1036	-0.049
1036	-0.05
1037	-0.051
1037	-0.052
1038	-0.052
1038	-0.053
1039	-0.053
1039	-0.053
1039	-0.053
1040	-0.053
1040	-0.053
1041	-0.054
1041	-0.054
1041	-0.055
1042	-0.055
1042	-0.056
1043	-0.057
1043	-0.058
1044	-0.059
1044	-0.06
1044	-0.061
1045	-0.062
1045	-0.063
1046	-0.064
1046	-0.064
1046	-0.065
1047	-0.065
1047	-0.065
1048	-0.065
1048	-0.065
1049	-0.065
1049	-0.065
1049	-0.065
1050	-0.066
1050	-0.066
1051	-0.066
1051	-0.067
1051	-0.066
1052	-0.066
1052	-0.066
1053	-0.066
1053	-0.065
1053	-0.064
1054	-0.064
1054	-0.063
1055	-0.061
1055	-0.061
1056	-0.06
1056	-0.06
1056	-0.061
1057	-0.061
1057	-0.061
1058	-0.062
1058	-0.062
1058	-0.063
1059	-0.063
1059	-0.064
1060	-0.065
1060	-0.065
1061	-0.065
1061	-0.065
1061	-0.065
1062	-0.065
1062	-0.066
1063	-0.066
1063	-0.066
1063	-0.067
1064	-0.068
1064	-0.068
1065	-0.068
1065	-0.069
1066	-0.069
1066	-0.07
1066	-0.071
1067	-0.071
1067	-0.071
1068	-0.072
1068	-0.072
1068	-0.073
1069	-0.074
1069	-0.075
1070	-0.075
1070	-0.076
1071	-0.076
1071	-0.076
1071	-0.077
1072	-0.077
1072	-0.077
1073	-0.077
1073	-0.076
1073	-0.077
1074	-0.076
1074	-0.076
1075	-0.076
1075	-0.077
1076	-0.077
1076	-0.078
1076	-0.079
1077	-0.08
1077	-0.08
1078	-0.081
1078	-0.081
1078	-0.082
1079	-0.082
1079	-0.082
1080	-0.083
1080	-0.082
1080	-0.083
1081	-0.083
1081	-0.082
1082	-0.082
1082	-0.082
1083	-0.083
1083	-0.083
1083	-0.083
1084	-0.083
1084	-0.083
1085	-0.084
1085	-0.084
1085	-0.084
1086	-0.085
1086	-0.086
1087	-0.086
1087	-0.086
1088	-0.088
1088	-0.089
1088	-0.089
1089	-0.091
1089	-0.093
1090	-0.094
1090	-0.096
1090	-0.097
1091	-0.098
1091	-0.099
1092	-0.101
1092	-0.101
1092	-0.102
1093	-0.103
1093	-0.103
1094	-0.103
1094	-0.104
1095	-0.106
1095	-0.107
1095	-0.107
1096	-0.109
1096	-0.109
1097	-0.11
1097	-0.112
1097	-0.113
1098	-0.114
1098	-0.115
1099	-0.116
1099	-0.117
1100	-0.118
1100	-0.119
1100	-0.121
1101	-0.124
1101	-0.126
1102	-0.128
1102	-0.13
1102	-0.132
1103	-0.135
1103	-0.137
1104	-0.138
1104	-0.141
1104	-0.142
1105	-0.144
1105	-0.147
1106	-0.15
1106	-0.152
1107	-0.157
1107	-0.159
1107	-0.162
1108	-0.163
1108	-0.166
1109	-0.169
1109	-0.174
1109	-0.178
1110	-0.178
1110	-0.181
1111	-0.185
1111	-0.178
