Data from 15c-100ul-ns-20ul-nr-full-exp-7ul-bp_Absorbance__737__05075.txt Node

Date: Mon Jan 15 15:37:23 CET 2024
User: Marek
Spectrometer: MAYP115816
Trigger mode: 0
Integration Time (sec): 2.000000E-1
Scans to average: 10
Electric dark correction enabled: true
Nonlinearity correction enabled: true
Boxcar width: 5
XAxis mode: Wavelengths
Number of Pixels in Spectrum: 2068
>>>>>Begin Spectral Data<<<<<
199	-1.663
199	-1.537
200	-1.398
200	-1.291
201	-1.22
201	-1.172
202	-1.105
202	-1.055
203	-1.01
203	-0.974
204	-0.947
204	-0.926
205	-0.906
205	-0.898
205	-0.895
206	-0.895
206	-0.894
207	-0.89
207	-0.887
208	-0.886
208	-0.881
209	-0.88
209	-0.879
210	-0.879
210	-0.877
211	-0.875
211	-0.873
212	-0.871
212	-0.87
213	-0.87
213	-0.869
213	-0.87
214	-0.869
214	-0.87
215	-0.869
215	-0.87
216	-0.87
216	-0.869
217	-0.868
217	-0.868
218	-0.867
218	-0.863
219	-0.861
219	-0.86
220	-0.856
220	-0.852
221	-0.848
221	-0.844
221	-0.839
222	-0.835
222	-0.829
223	-0.822
223	-0.819
224	-0.814
224	-0.805
225	-0.796
225	-0.786
226	-0.776
226	-0.765
227	-0.75
227	-0.734
228	-0.715
228	-0.696
229	-0.672
229	-0.643
229	-0.615
230	-0.584
230	-0.549
231	-0.511
231	-0.473
232	-0.434
232	-0.391
233	-0.348
233	-0.304
234	-0.261
234	-0.218
235	-0.176
235	-0.136
236	-0.097
236	-0.059
236	-0.022
237	0.012
237	0.043
238	0.073
238	0.101
239	0.126
239	0.15
240	0.17
240	0.189
241	0.206
241	0.222
242	0.235
242	0.248
243	0.26
243	0.27
243	0.279
244	0.287
244	0.295
245	0.301
245	0.307
246	0.313
246	0.318
247	0.323
247	0.327
248	0.331
248	0.335
249	0.339
249	0.342
250	0.345
250	0.348
250	0.351
251	0.353
251	0.356
252	0.359
252	0.361
253	0.362
253	0.364
254	0.366
254	0.367
255	0.368
255	0.37
256	0.371
256	0.372
257	0.373
257	0.373
258	0.374
258	0.374
258	0.374
259	0.375
259	0.374
260	0.375
260	0.374
261	0.374
261	0.374
262	0.373
262	0.373
263	0.372
263	0.372
264	0.371
264	0.37
265	0.369
265	0.368
265	0.367
266	0.366
266	0.365
267	0.363
267	0.362
268	0.36
268	0.359
269	0.357
269	0.355
270	0.354
270	0.352
271	0.35
271	0.348
272	0.346
272	0.344
272	0.343
273	0.341
273	0.339
274	0.337
274	0.335
275	0.333
275	0.331
276	0.329
276	0.327
277	0.325
277	0.322
278	0.32
278	0.318
278	0.316
279	0.312
279	0.31
280	0.307
280	0.305
281	0.302
281	0.3
282	0.297
282	0.295
283	0.293
283	0.291
284	0.289
284	0.288
285	0.286
285	0.285
285	0.283
286	0.281
286	0.28
287	0.278
287	0.276
288	0.275
288	0.273
289	0.272
289	0.27
290	0.268
290	0.267
291	0.265
291	0.264
292	0.262
292	0.261
292	0.26
293	0.258
293	0.257
294	0.255
294	0.254
295	0.253
295	0.252
296	0.251
296	0.25
297	0.249
297	0.248
298	0.247
298	0.246
298	0.245
299	0.244
299	0.243
300	0.242
300	0.242
301	0.241
301	0.24
302	0.239
302	0.238
303	0.237
303	0.236
304	0.235
304	0.235
305	0.234
305	0.233
305	0.232
306	0.231
306	0.23
307	0.23
307	0.229
308	0.228
308	0.227
309	0.226
309	0.225
310	0.224
310	0.224
311	0.223
311	0.222
311	0.222
312	0.221
312	0.22
313	0.219
313	0.218
314	0.218
314	0.217
315	0.216
315	0.215
316	0.214
316	0.214
317	0.213
317	0.212
318	0.211
318	0.211
318	0.21
319	0.209
319	0.208
320	0.208
320	0.207
321	0.206
321	0.205
322	0.204
322	0.204
323	0.203
323	0.202
324	0.201
324	0.201
324	0.2
325	0.199
325	0.198
326	0.198
326	0.197
327	0.197
327	0.196
328	0.195
328	0.195
329	0.194
329	0.193
330	0.192
330	0.192
330	0.191
331	0.19
331	0.19
332	0.189
332	0.188
333	0.188
333	0.187
334	0.186
334	0.186
335	0.185
335	0.185
336	0.184
336	0.183
336	0.183
337	0.182
337	0.181
338	0.181
338	0.18
339	0.18
339	0.179
340	0.179
340	0.178
341	0.178
341	0.177
342	0.177
342	0.176
342	0.176
343	0.175
343	0.175
344	0.174
344	0.174
345	0.173
345	0.173
346	0.172
346	0.172
347	0.172
347	0.171
348	0.171
348	0.17
348	0.17
349	0.169
349	0.169
350	0.168
350	0.168
351	0.167
351	0.167
352	0.166
352	0.166
353	0.165
353	0.165
354	0.164
354	0.164
354	0.163
355	0.163
355	0.162
356	0.162
356	0.163
357	0.163
357	0.162
358	0.162
358	0.162
359	0.162
359	0.162
360	0.162
360	0.163
360	0.162
361	0.162
361	0.162
362	0.162
362	0.161
363	0.161
363	0.161
364	0.161
364	0.161
365	0.161
365	0.161
366	0.16
366	0.16
366	0.16
367	0.16
367	0.16
368	0.159
368	0.159
369	0.158
369	0.158
370	0.158
370	0.158
371	0.157
371	0.157
372	0.157
372	0.157
372	0.157
373	0.157
373	0.156
374	0.156
374	0.156
375	0.156
375	0.156
376	0.156
376	0.156
377	0.156
377	0.156
378	0.156
378	0.156
378	0.156
379	0.156
379	0.156
380	0.155
380	0.155
381	0.155
381	0.155
382	0.154
382	0.154
383	0.154
383	0.154
383	0.153
384	0.153
384	0.153
385	0.152
385	0.152
386	0.152
386	0.152
387	0.152
387	0.151
388	0.151
388	0.151
389	0.151
389	0.15
389	0.151
390	0.151
390	0.151
391	0.151
391	0.151
392	0.15
392	0.15
393	0.15
393	0.15
394	0.15
394	0.15
394	0.149
395	0.149
395	0.148
396	0.148
396	0.148
397	0.148
397	0.148
398	0.148
398	0.147
399	0.147
399	0.147
400	0.147
400	0.147
400	0.147
401	0.146
401	0.145
402	0.145
402	0.145
403	0.145
403	0.144
404	0.144
404	0.144
405	0.144
405	0.144
405	0.144
406	0.144
406	0.144
407	0.144
407	0.144
408	0.143
408	0.143
409	0.143
409	0.143
410	0.143
410	0.143
411	0.142
411	0.142
411	0.142
412	0.141
412	0.141
413	0.14
413	0.14
414	0.14
414	0.139
415	0.139
415	0.138
416	0.138
416	0.138
416	0.138
417	0.137
417	0.137
418	0.137
418	0.137
419	0.138
419	0.138
420	0.138
420	0.139
421	0.139
421	0.139
421	0.139
422	0.139
422	0.139
423	0.139
423	0.138
424	0.138
424	0.137
425	0.136
425	0.136
426	0.136
426	0.136
427	0.136
427	0.136
427	0.136
428	0.137
428	0.137
429	0.138
429	0.137
430	0.137
430	0.137
431	0.137
431	0.137
432	0.136
432	0.135
432	0.135
433	0.134
433	0.133
434	0.133
434	0.133
435	0.133
435	0.133
436	0.133
436	0.133
437	0.133
437	0.133
437	0.133
438	0.133
438	0.133
439	0.132
439	0.132
440	0.132
440	0.132
441	0.132
441	0.132
442	0.132
442	0.132
442	0.132
443	0.132
443	0.132
444	0.132
444	0.133
445	0.133
445	0.133
446	0.133
446	0.133
447	0.133
447	0.132
447	0.132
448	0.132
448	0.132
449	0.132
449	0.131
450	0.131
450	0.131
451	0.131
451	0.131
452	0.13
452	0.13
452	0.13
453	0.13
453	0.13
454	0.13
454	0.13
455	0.13
455	0.13
456	0.13
456	0.13
457	0.13
457	0.13
458	0.13
458	0.13
458	0.131
459	0.131
459	0.131
460	0.13
460	0.13
461	0.13
461	0.13
462	0.13
462	0.13
463	0.131
463	0.131
463	0.132
464	0.132
464	0.132
465	0.132
465	0.132
466	0.132
466	0.132
467	0.132
467	0.132
467	0.131
468	0.13
468	0.13
469	0.129
469	0.129
470	0.129
470	0.129
471	0.129
471	0.13
472	0.13
472	0.13
472	0.131
473	0.132
473	0.132
474	0.133
474	0.133
475	0.134
475	0.134
476	0.135
476	0.135
477	0.136
477	0.136
477	0.136
478	0.137
478	0.137
479	0.137
479	0.138
480	0.139
480	0.139
481	0.14
481	0.141
482	0.142
482	0.143
482	0.144
483	0.146
483	0.148
484	0.15
484	0.15
485	0.151
485	0.152
486	0.153
486	0.153
487	0.154
487	0.155
487	0.155
488	0.155
488	0.154
489	0.154
489	0.155
490	0.155
490	0.156
491	0.157
491	0.157
492	0.158
492	0.159
492	0.16
493	0.161
493	0.163
494	0.165
494	0.167
495	0.169
495	0.171
496	0.172
496	0.174
496	0.176
497	0.177
497	0.179
498	0.18
498	0.181
499	0.181
499	0.182
500	0.184
500	0.185
501	0.186
501	0.187
501	0.189
502	0.19
502	0.191
503	0.193
503	0.194
504	0.195
504	0.196
505	0.197
505	0.198
506	0.2
506	0.201
506	0.202
507	0.203
507	0.204
508	0.205
508	0.207
509	0.208
509	0.209
510	0.211
510	0.212
511	0.213
511	0.214
511	0.214
512	0.216
512	0.216
513	0.217
513	0.217
514	0.217
514	0.218
515	0.218
515	0.218
515	0.218
516	0.218
516	0.219
517	0.22
517	0.22
518	0.221
518	0.221
519	0.22
519	0.22
520	0.219
520	0.219
520	0.218
521	0.217
521	0.216
522	0.214
522	0.214
523	0.214
523	0.213
524	0.214
524	0.215
524	0.216
525	0.217
525	0.218
526	0.219
526	0.22
527	0.222
527	0.223
528	0.223
528	0.224
529	0.224
529	0.224
529	0.224
530	0.224
530	0.224
531	0.224
531	0.224
532	0.222
532	0.222
533	0.221
533	0.22
533	0.219
534	0.217
534	0.216
535	0.215
535	0.214
536	0.213
536	0.212
537	0.211
537	0.209
538	0.208
538	0.206
538	0.205
539	0.204
539	0.203
540	0.201
540	0.2
541	0.197
541	0.196
542	0.194
542	0.192
542	0.19
543	0.189
543	0.188
544	0.186
544	0.185
545	0.184
545	0.182
546	0.181
546	0.179
547	0.177
547	0.175
547	0.173
548	0.171
548	0.169
549	0.167
549	0.164
550	0.162
550	0.159
551	0.157
551	0.155
551	0.153
552	0.151
552	0.149
553	0.148
553	0.147
554	0.145
554	0.143
555	0.141
555	0.139
556	0.137
556	0.134
556	0.132
557	0.13
557	0.128
558	0.126
558	0.124
559	0.122
559	0.12
560	0.118
560	0.116
560	0.115
561	0.115
561	0.114
562	0.113
562	0.111
563	0.109
563	0.107
564	0.105
564	0.103
564	0.101
565	0.1
565	0.099
566	0.097
566	0.095
567	0.094
567	0.093
568	0.093
568	0.092
568	0.091
569	0.091
569	0.091
570	0.089
570	0.087
571	0.087
571	0.086
572	0.085
572	0.084
573	0.082
573	0.081
573	0.079
574	0.078
574	0.077
575	0.077
575	0.078
576	0.077
576	0.075
577	0.073
577	0.072
577	0.072
578	0.071
578	0.072
579	0.073
579	0.073
580	0.071
580	0.067
581	0.064
581	0.063
581	0.063
582	0.064
582	0.064
583	0.064
583	0.062
584	0.058
584	0.055
585	0.055
585	0.055
585	0.055
586	0.055
586	0.054
587	0.052
587	0.05
588	0.048
588	0.047
589	0.047
589	0.047
590	0.047
590	0.046
590	0.048
591	0.049
591	0.048
592	0.047
592	0.046
593	0.046
593	0.046
594	0.045
594	0.044
594	0.043
595	0.043
595	0.041
596	0.04
596	0.042
597	0.045
597	0.045
598	0.045
598	0.046
598	0.046
599	0.046
599	0.045
600	0.044
600	0.043
601	0.042
601	0.041
602	0.039
602	0.038
602	0.037
603	0.037
603	0.038
604	0.038
604	0.039
605	0.04
605	0.041
606	0.041
606	0.04
606	0.039
607	0.039
607	0.039
608	0.039
608	0.038
609	0.037
609	0.038
610	0.037
610	0.036
610	0.037
611	0.039
611	0.04
612	0.041
612	0.043
613	0.044
613	0.045
614	0.044
614	0.043
614	0.043
615	0.043
615	0.043
616	0.043
616	0.042
617	0.042
617	0.041
618	0.041
618	0.041
618	0.041
619	0.042
619	0.044
620	0.046
620	0.047
621	0.047
621	0.048
622	0.048
622	0.049
622	0.049
623	0.049
623	0.05
624	0.05
624	0.05
625	0.049
625	0.05
626	0.05
626	0.05
626	0.052
627	0.053
627	0.054
628	0.055
628	0.056
629	0.056
629	0.057
630	0.057
630	0.057
630	0.058
631	0.059
631	0.06
632	0.06
632	0.061
633	0.062
633	0.063
634	0.065
634	0.067
634	0.069
635	0.07
635	0.071
636	0.072
636	0.074
637	0.074
637	0.075
638	0.077
638	0.078
638	0.079
639	0.079
639	0.08
640	0.081
640	0.082
641	0.083
641	0.084
642	0.086
642	0.088
642	0.089
643	0.09
643	0.092
644	0.094
644	0.096
645	0.098
645	0.1
646	0.102
646	0.105
646	0.108
647	0.111
647	0.113
648	0.115
648	0.117
649	0.119
649	0.122
650	0.124
650	0.126
650	0.128
651	0.13
651	0.132
652	0.134
652	0.137
653	0.141
653	0.149
653	0.162
654	0.131
654	0.108
655	0.109
655	0.111
656	0.113
656	0.115
657	0.117
657	0.119
657	0.12
658	0.118
658	0.108
659	0.137
659	0.175
660	0.183
660	0.186
661	0.188
661	0.191
661	0.194
662	0.197
662	0.201
663	0.204
663	0.207
664	0.21
664	0.212
665	0.215
665	0.218
665	0.221
666	0.224
666	0.226
667	0.229
667	0.231
668	0.234
668	0.237
669	0.24
669	0.243
669	0.246
670	0.249
670	0.252
671	0.254
671	0.255
672	0.257
672	0.259
672	0.261
673	0.262
673	0.264
674	0.266
674	0.267
675	0.269
675	0.271
676	0.273
676	0.276
676	0.277
677	0.279
677	0.28
678	0.281
678	0.282
679	0.282
679	0.283
680	0.284
680	0.285
680	0.285
681	0.285
681	0.286
682	0.287
682	0.288
683	0.29
683	0.292
684	0.293
684	0.294
684	0.294
685	0.295
685	0.296
686	0.297
686	0.297
687	0.297
687	0.297
687	0.297
688	0.296
688	0.296
689	0.297
689	0.298
690	0.297
690	0.296
691	0.296
691	0.295
691	0.294
692	0.293
692	0.292
693	0.292
693	0.292
694	0.29
694	0.289
695	0.29
695	0.291
695	0.29
696	0.289
696	0.289
697	0.289
697	0.288
698	0.287
698	0.285
698	0.284
699	0.283
699	0.28
700	0.278
700	0.276
701	0.275
701	0.273
702	0.271
702	0.269
702	0.267
703	0.265
703	0.264
704	0.262
704	0.261
705	0.259
705	0.257
705	0.255
706	0.253
706	0.251
707	0.249
707	0.247
708	0.244
708	0.242
709	0.24
709	0.237
709	0.233
710	0.23
710	0.228
711	0.226
711	0.224
712	0.222
712	0.22
713	0.219
713	0.217
713	0.215
714	0.213
714	0.211
715	0.209
715	0.207
716	0.205
716	0.203
716	0.201
717	0.198
717	0.196
718	0.193
718	0.19
719	0.188
719	0.186
720	0.183
720	0.18
720	0.176
721	0.173
721	0.17
722	0.167
722	0.164
723	0.162
723	0.16
723	0.157
724	0.155
724	0.153
725	0.151
725	0.15
726	0.149
726	0.147
727	0.146
727	0.144
727	0.143
728	0.141
728	0.14
729	0.139
729	0.137
730	0.136
730	0.134
730	0.133
731	0.131
731	0.129
732	0.128
732	0.126
733	0.123
733	0.121
734	0.119
734	0.116
734	0.114
735	0.113
735	0.11
736	0.108
736	0.106
737	0.104
737	0.103
737	0.101
738	0.098
738	0.095
739	0.094
739	0.092
740	0.09
740	0.089
741	0.087
741	0.085
741	0.082
742	0.079
742	0.077
743	0.076
743	0.074
744	0.072
744	0.07
744	0.068
745	0.065
745	0.063
746	0.062
746	0.06
747	0.059
747	0.058
748	0.057
748	0.055
748	0.054
749	0.053
749	0.052
750	0.051
750	0.05
751	0.05
751	0.05
751	0.049
752	0.048
752	0.047
753	0.046
753	0.046
754	0.045
754	0.044
754	0.043
755	0.043
755	0.042
756	0.041
756	0.038
757	0.037
757	0.037
758	0.036
758	0.035
758	0.034
759	0.033
759	0.031
760	0.029
760	0.027
761	0.026
761	0.026
761	0.025
762	0.024
762	0.023
763	0.022
763	0.019
764	0.017
764	0.014
764	0.012
765	0.01
765	0.007
766	0.006
766	0.004
767	0.003
767	-0
768	-0.003
768	-0.004
768	-0.005
769	-0.006
769	-0.006
770	-0.007
770	-0.009
771	-0.01
771	-0.012
771	-0.014
772	-0.015
772	-0.017
773	-0.018
773	-0.02
774	-0.022
774	-0.024
775	-0.026
775	-0.028
775	-0.03
776	-0.033
776	-0.035
777	-0.037
777	-0.039
778	-0.042
778	-0.045
778	-0.047
779	-0.048
779	-0.049
780	-0.052
780	-0.054
781	-0.057
781	-0.061
781	-0.065
782	-0.069
782	-0.075
783	-0.08
783	-0.086
784	-0.092
784	-0.098
784	-0.104
785	-0.11
785	-0.115
786	-0.119
786	-0.119
787	-0.117
787	-0.115
788	-0.116
788	-0.117
788	-0.118
789	-0.119
789	-0.118
790	-0.115
790	-0.113
791	-0.113
791	-0.115
791	-0.117
792	-0.112
792	-0.102
793	-0.097
793	-0.093
794	-0.092
794	-0.094
794	-0.098
795	-0.101
795	-0.101
796	-0.101
796	-0.104
797	-0.112
797	-0.122
797	-0.128
798	-0.133
798	-0.136
799	-0.136
799	-0.136
800	-0.136
800	-0.138
801	-0.141
801	-0.143
801	-0.143
802	-0.145
802	-0.146
803	-0.147
803	-0.147
804	-0.146
804	-0.141
804	-0.135
805	-0.131
805	-0.128
806	-0.126
806	-0.125
807	-0.123
807	-0.123
807	-0.123
808	-0.123
808	-0.124
809	-0.128
809	-0.134
810	-0.137
810	-0.14
810	-0.143
811	-0.145
811	-0.145
812	-0.141
812	-0.137
813	-0.136
813	-0.136
813	-0.137
814	-0.137
814	-0.136
815	-0.134
815	-0.131
816	-0.13
816	-0.13
817	-0.135
817	-0.138
817	-0.138
818	-0.136
818	-0.132
819	-0.128
819	-0.124
820	-0.122
820	-0.12
820	-0.117
821	-0.112
821	-0.106
822	-0.099
822	-0.093
823	-0.088
823	-0.084
823	-0.081
824	-0.076
824	-0.072
825	-0.067
825	-0.062
826	-0.057
826	-0.054
826	-0.051
827	-0.048
827	-0.045
828	-0.043
828	-0.041
829	-0.038
829	-0.036
829	-0.035
830	-0.034
830	-0.033
831	-0.031
831	-0.03
832	-0.03
832	-0.029
832	-0.028
833	-0.028
833	-0.028
834	-0.027
834	-0.027
835	-0.027
835	-0.027
835	-0.027
836	-0.027
836	-0.027
837	-0.027
837	-0.027
838	-0.027
838	-0.027
839	-0.027
839	-0.028
839	-0.028
840	-0.028
840	-0.028
841	-0.027
841	-0.027
842	-0.026
842	-0.026
842	-0.026
843	-0.025
843	-0.024
844	-0.023
844	-0.023
845	-0.022
845	-0.022
845	-0.021
846	-0.021
846	-0.021
847	-0.021
847	-0.021
848	-0.022
848	-0.022
848	-0.022
849	-0.023
849	-0.024
850	-0.024
850	-0.025
851	-0.026
851	-0.026
851	-0.026
852	-0.027
852	-0.026
853	-0.026
853	-0.026
854	-0.026
854	-0.025
854	-0.024
855	-0.023
855	-0.023
856	-0.022
856	-0.021
857	-0.02
857	-0.02
857	-0.02
858	-0.019
858	-0.019
859	-0.019
859	-0.019
860	-0.019
860	-0.019
860	-0.019
861	-0.019
861	-0.019
862	-0.019
862	-0.019
863	-0.019
863	-0.019
863	-0.02
864	-0.02
864	-0.02
865	-0.02
865	-0.02
866	-0.02
866	-0.02
866	-0.02
867	-0.02
867	-0.02
868	-0.019
868	-0.018
869	-0.017
869	-0.017
869	-0.016
870	-0.015
870	-0.015
871	-0.014
871	-0.013
872	-0.013
872	-0.013
872	-0.013
873	-0.012
873	-0.012
874	-0.013
874	-0.012
875	-0.012
875	-0.012
875	-0.013
876	-0.013
876	-0.013
877	-0.014
877	-0.014
878	-0.015
878	-0.015
878	-0.016
879	-0.016
879	-0.017
880	-0.018
880	-0.018
881	-0.018
881	-0.018
881	-0.018
882	-0.017
882	-0.016
883	-0.016
883	-0.015
884	-0.014
884	-0.014
884	-0.014
885	-0.013
885	-0.013
886	-0.013
886	-0.013
887	-0.013
887	-0.013
887	-0.013
888	-0.013
888	-0.013
889	-0.012
889	-0.011
890	-0.01
890	-0.01
890	-0.009
891	-0.009
891	-0.009
892	-0.009
892	-0.009
893	-0.009
893	-0.01
893	-0.011
894	-0.012
894	-0.013
895	-0.014
895	-0.015
895	-0.016
896	-0.017
896	-0.017
897	-0.018
897	-0.018
898	-0.018
898	-0.018
898	-0.018
899	-0.018
899	-0.018
900	-0.018
900	-0.018
901	-0.017
901	-0.017
901	-0.017
902	-0.017
902	-0.017
903	-0.017
903	-0.017
904	-0.017
904	-0.018
904	-0.018
905	-0.018
905	-0.019
906	-0.019
906	-0.02
907	-0.02
907	-0.021
907	-0.021
908	-0.022
908	-0.022
909	-0.022
909	-0.022
910	-0.022
910	-0.022
910	-0.022
911	-0.022
911	-0.021
912	-0.021
912	-0.021
913	-0.021
913	-0.022
913	-0.022
914	-0.023
914	-0.023
915	-0.024
915	-0.025
916	-0.025
916	-0.025
916	-0.025
917	-0.025
917	-0.024
918	-0.023
918	-0.022
918	-0.021
919	-0.02
919	-0.018
920	-0.017
920	-0.015
921	-0.014
921	-0.013
921	-0.012
922	-0.011
922	-0.01
923	-0.009
923	-0.009
924	-0.008
924	-0.008
924	-0.007
925	-0.007
925	-0.007
926	-0.006
926	-0.006
927	-0.006
927	-0.006
927	-0.006
928	-0.006
928	-0.006
929	-0.006
929	-0.006
930	-0.006
930	-0.007
930	-0.008
931	-0.009
931	-0.01
932	-0.011
932	-0.013
933	-0.014
933	-0.015
933	-0.017
934	-0.018
934	-0.02
935	-0.021
935	-0.022
935	-0.023
936	-0.023
936	-0.023
937	-0.023
937	-0.023
938	-0.023
938	-0.023
938	-0.023
939	-0.023
939	-0.022
940	-0.021
940	-0.021
941	-0.02
941	-0.02
941	-0.019
942	-0.019
942	-0.018
943	-0.018
943	-0.018
944	-0.018
944	-0.018
944	-0.018
945	-0.017
945	-0.017
946	-0.017
946	-0.017
946	-0.017
947	-0.017
947	-0.017
948	-0.017
948	-0.017
949	-0.017
949	-0.016
949	-0.016
950	-0.016
950	-0.015
951	-0.015
951	-0.015
952	-0.015
952	-0.015
952	-0.014
953	-0.014
953	-0.014
954	-0.014
954	-0.014
955	-0.014
955	-0.014
955	-0.014
956	-0.013
956	-0.013
957	-0.013
957	-0.013
957	-0.013
958	-0.013
958	-0.014
959	-0.014
959	-0.014
960	-0.015
960	-0.016
960	-0.017
961	-0.018
961	-0.019
962	-0.019
962	-0.019
963	-0.019
963	-0.019
963	-0.019
964	-0.018
964	-0.017
965	-0.016
965	-0.015
966	-0.014
966	-0.013
966	-0.012
967	-0.011
967	-0.011
968	-0.011
968	-0.011
968	-0.011
969	-0.011
969	-0.011
970	-0.011
970	-0.011
971	-0.012
971	-0.012
971	-0.013
972	-0.013
972	-0.013
973	-0.014
973	-0.014
974	-0.015
974	-0.015
974	-0.016
975	-0.017
975	-0.018
976	-0.019
976	-0.02
976	-0.021
977	-0.022
977	-0.024
978	-0.025
978	-0.026
979	-0.027
979	-0.028
979	-0.028
980	-0.028
980	-0.028
981	-0.028
981	-0.027
982	-0.026
982	-0.025
982	-0.023
983	-0.022
983	-0.021
984	-0.019
984	-0.018
984	-0.017
985	-0.016
985	-0.015
986	-0.015
986	-0.016
987	-0.016
987	-0.017
987	-0.017
988	-0.018
988	-0.019
989	-0.02
989	-0.022
990	-0.023
990	-0.024
990	-0.024
991	-0.025
991	-0.025
992	-0.025
992	-0.026
992	-0.027
993	-0.027
993	-0.028
994	-0.029
994	-0.029
995	-0.03
995	-0.031
995	-0.032
996	-0.033
996	-0.033
997	-0.034
997	-0.034
997	-0.034
998	-0.034
998	-0.034
999	-0.033
999	-0.033
1000	-0.032
1000	-0.031
1000	-0.031
1001	-0.03
1001	-0.029
1002	-0.029
1002	-0.028
1003	-0.028
1003	-0.028
1003	-0.027
1004	-0.027
1004	-0.027
1005	-0.027
1005	-0.027
1005	-0.027
1006	-0.026
1006	-0.026
1007	-0.025
1007	-0.025
1008	-0.024
1008	-0.024
1008	-0.023
1009	-0.023
1009	-0.022
1010	-0.022
1010	-0.021
1010	-0.021
1011	-0.021
1011	-0.02
1012	-0.02
1012	-0.02
1013	-0.02
1013	-0.021
1013	-0.022
1014	-0.022
1014	-0.023
1015	-0.024
1015	-0.025
1016	-0.026
1016	-0.026
1016	-0.027
1017	-0.028
1017	-0.028
1018	-0.029
1018	-0.029
1018	-0.029
1019	-0.029
1019	-0.029
1020	-0.029
1020	-0.029
1021	-0.03
1021	-0.03
1021	-0.03
1022	-0.03
1022	-0.031
1023	-0.031
1023	-0.032
1023	-0.032
1024	-0.033
1024	-0.034
1025	-0.034
1025	-0.035
1026	-0.035
1026	-0.036
1026	-0.036
1027	-0.036
1027	-0.036
1028	-0.036
1028	-0.035
1028	-0.035
1029	-0.035
1029	-0.035
1030	-0.034
1030	-0.034
1031	-0.034
1031	-0.033
1031	-0.033
1032	-0.032
1032	-0.032
1033	-0.032
1033	-0.032
1033	-0.032
1034	-0.033
1034	-0.034
1035	-0.034
1035	-0.035
1036	-0.036
1036	-0.036
1036	-0.037
1037	-0.038
1037	-0.038
1038	-0.039
1038	-0.039
1039	-0.039
1039	-0.039
1039	-0.039
1040	-0.039
1040	-0.039
1041	-0.039
1041	-0.04
1041	-0.04
1042	-0.04
1042	-0.041
1043	-0.042
1043	-0.043
1044	-0.044
1044	-0.045
1044	-0.045
1045	-0.046
1045	-0.047
1046	-0.048
1046	-0.048
1046	-0.048
1047	-0.048
1047	-0.048
1048	-0.048
1048	-0.047
1049	-0.048
1049	-0.048
1049	-0.048
1050	-0.048
1050	-0.049
1051	-0.049
1051	-0.049
1051	-0.048
1052	-0.048
1052	-0.047
1053	-0.047
1053	-0.046
1053	-0.045
1054	-0.044
1054	-0.042
1055	-0.041
1055	-0.04
1056	-0.04
1056	-0.039
1056	-0.039
1057	-0.04
1057	-0.039
1058	-0.04
1058	-0.04
1058	-0.04
1059	-0.04
1059	-0.041
1060	-0.041
1060	-0.041
1061	-0.041
1061	-0.04
1061	-0.04
1062	-0.04
1062	-0.04
1063	-0.04
1063	-0.04
1063	-0.04
1064	-0.04
1064	-0.04
1065	-0.04
1065	-0.041
1066	-0.041
1066	-0.042
1066	-0.042
1067	-0.043
1067	-0.043
1068	-0.043
1068	-0.043
1068	-0.044
1069	-0.044
1069	-0.045
1070	-0.045
1070	-0.045
1071	-0.045
1071	-0.045
1071	-0.045
1072	-0.045
1072	-0.045
1073	-0.044
1073	-0.044
1073	-0.044
1074	-0.043
1074	-0.043
1075	-0.043
1075	-0.043
1076	-0.043
1076	-0.043
1076	-0.044
1077	-0.044
1077	-0.044
1078	-0.044
1078	-0.043
1078	-0.043
1079	-0.043
1079	-0.042
1080	-0.041
1080	-0.04
1080	-0.04
1081	-0.039
1081	-0.038
1082	-0.036
1082	-0.036
1083	-0.036
1083	-0.036
1083	-0.035
1084	-0.035
1084	-0.034
1085	-0.033
1085	-0.032
1085	-0.032
1086	-0.031
1086	-0.032
1087	-0.032
1087	-0.031
1088	-0.031
1088	-0.031
1088	-0.031
1089	-0.031
1089	-0.031
1090	-0.032
1090	-0.032
1090	-0.032
1091	-0.031
1091	-0.029
1092	-0.029
1092	-0.027
1092	-0.026
1093	-0.025
1093	-0.022
1094	-0.02
1094	-0.018
1095	-0.017
1095	-0.015
1095	-0.012
1096	-0.011
1096	-0.009
1097	-0.005
1097	-0.004
1097	-0
1098	0.002
1098	0.005
1099	0.009
1099	0.013
1100	0.016
1100	0.02
1100	0.024
1101	0.029
1101	0.033
1102	0.039
1102	0.044
1102	0.05
1103	0.055
1103	0.064
1104	0.073
1104	0.081
1104	0.092
1105	0.104
1105	0.113
1106	0.122
1106	0.135
1107	0.146
1107	0.165
1107	0.189
1108	0.268
1108	0.388
1109	0.612
1109	1.509
1109	-0
1110	-0
1110	-0
1111	-0
1111	-0
