Data from 15c-100ul-ns-20ul-nr-full-exp-7ul-bp_Absorbance__237__04575.txt Node

Date: Mon Jan 15 15:20:43 CET 2024
User: Marek
Spectrometer: MAYP115816
Trigger mode: 0
Integration Time (sec): 2.000000E-1
Scans to average: 10
Electric dark correction enabled: true
Nonlinearity correction enabled: true
Boxcar width: 5
XAxis mode: Wavelengths
Number of Pixels in Spectrum: 2068
>>>>>Begin Spectral Data<<<<<
199	-1.828
199	-1.7
200	-1.558
200	-1.449
201	-1.377
201	-1.327
202	-1.258
202	-1.204
203	-1.156
203	-1.117
204	-1.089
204	-1.067
205	-1.046
205	-1.037
205	-1.035
206	-1.033
206	-1.032
207	-1.028
207	-1.025
208	-1.024
208	-1.019
209	-1.018
209	-1.016
210	-1.016
210	-1.014
211	-1.013
211	-1.011
212	-1.009
212	-1.008
213	-1.007
213	-1.005
213	-1.006
214	-1.005
214	-1.006
215	-1.005
215	-1.006
216	-1.005
216	-1.005
217	-1.003
217	-1.003
218	-1.002
218	-0.998
219	-0.996
219	-0.995
220	-0.991
220	-0.987
221	-0.983
221	-0.978
221	-0.973
222	-0.969
222	-0.964
223	-0.956
223	-0.953
224	-0.947
224	-0.939
225	-0.93
225	-0.919
226	-0.909
226	-0.898
227	-0.883
227	-0.867
228	-0.848
228	-0.828
229	-0.804
229	-0.775
229	-0.747
230	-0.715
230	-0.681
231	-0.643
231	-0.604
232	-0.564
232	-0.521
233	-0.477
233	-0.432
234	-0.387
234	-0.344
235	-0.299
235	-0.257
236	-0.215
236	-0.175
236	-0.137
237	-0.1
237	-0.066
238	-0.034
238	-0.005
239	0.023
239	0.049
240	0.071
240	0.092
241	0.111
241	0.129
242	0.145
242	0.159
243	0.173
243	0.184
243	0.195
244	0.205
244	0.214
245	0.221
245	0.229
246	0.236
246	0.242
247	0.248
247	0.253
248	0.258
248	0.262
249	0.266
249	0.27
250	0.273
250	0.277
250	0.281
251	0.283
251	0.286
252	0.289
252	0.291
253	0.294
253	0.296
254	0.297
254	0.299
255	0.301
255	0.303
256	0.304
256	0.305
257	0.306
257	0.307
258	0.308
258	0.308
258	0.309
259	0.309
259	0.309
260	0.31
260	0.31
261	0.31
261	0.31
262	0.309
262	0.309
263	0.309
263	0.308
264	0.308
264	0.307
265	0.306
265	0.305
265	0.305
266	0.304
266	0.303
267	0.302
267	0.3
268	0.299
268	0.298
269	0.296
269	0.295
270	0.293
270	0.292
271	0.29
271	0.288
272	0.287
272	0.285
272	0.284
273	0.282
273	0.28
274	0.279
274	0.277
275	0.275
275	0.274
276	0.272
276	0.27
277	0.268
277	0.267
278	0.265
278	0.263
278	0.26
279	0.257
279	0.255
280	0.253
280	0.251
281	0.249
281	0.247
282	0.245
282	0.243
283	0.241
283	0.24
284	0.239
284	0.238
285	0.236
285	0.235
285	0.233
286	0.232
286	0.23
287	0.229
287	0.228
288	0.226
288	0.225
289	0.224
289	0.222
290	0.221
290	0.22
291	0.218
291	0.217
292	0.216
292	0.215
292	0.214
293	0.213
293	0.211
294	0.21
294	0.209
295	0.208
295	0.207
296	0.207
296	0.206
297	0.205
297	0.204
298	0.203
298	0.202
298	0.201
299	0.201
299	0.2
300	0.199
300	0.199
301	0.198
301	0.197
302	0.196
302	0.196
303	0.195
303	0.194
304	0.194
304	0.193
305	0.193
305	0.192
305	0.191
306	0.191
306	0.19
307	0.189
307	0.188
308	0.188
308	0.187
309	0.186
309	0.185
310	0.184
310	0.184
311	0.183
311	0.182
311	0.182
312	0.181
312	0.18
313	0.18
313	0.179
314	0.178
314	0.178
315	0.177
315	0.176
316	0.176
316	0.175
317	0.174
317	0.174
318	0.173
318	0.172
318	0.172
319	0.171
319	0.17
320	0.169
320	0.169
321	0.168
321	0.167
322	0.166
322	0.166
323	0.165
323	0.164
324	0.163
324	0.163
324	0.162
325	0.161
325	0.161
326	0.16
326	0.159
327	0.159
327	0.158
328	0.158
328	0.157
329	0.156
329	0.156
330	0.155
330	0.155
330	0.154
331	0.154
331	0.153
332	0.153
332	0.152
333	0.151
333	0.151
334	0.15
334	0.149
335	0.149
335	0.148
336	0.148
336	0.147
336	0.146
337	0.145
337	0.145
338	0.144
338	0.144
339	0.143
339	0.143
340	0.142
340	0.142
341	0.141
341	0.141
342	0.14
342	0.14
342	0.139
343	0.139
343	0.138
344	0.138
344	0.137
345	0.137
345	0.136
346	0.136
346	0.136
347	0.135
347	0.135
348	0.134
348	0.134
348	0.133
349	0.133
349	0.132
350	0.132
350	0.132
351	0.131
351	0.131
352	0.13
352	0.13
353	0.129
353	0.129
354	0.128
354	0.127
354	0.127
355	0.126
355	0.126
356	0.126
356	0.126
357	0.126
357	0.125
358	0.125
358	0.125
359	0.126
359	0.126
360	0.126
360	0.126
360	0.126
361	0.126
361	0.126
362	0.126
362	0.126
363	0.126
363	0.125
364	0.125
364	0.125
365	0.125
365	0.124
366	0.124
366	0.124
366	0.124
367	0.124
367	0.123
368	0.123
368	0.123
369	0.122
369	0.122
370	0.122
370	0.122
371	0.121
371	0.121
372	0.121
372	0.12
372	0.12
373	0.12
373	0.12
374	0.12
374	0.12
375	0.12
375	0.12
376	0.12
376	0.12
377	0.12
377	0.12
378	0.12
378	0.12
378	0.12
379	0.12
379	0.12
380	0.12
380	0.12
381	0.12
381	0.12
382	0.12
382	0.119
383	0.119
383	0.119
383	0.118
384	0.118
384	0.117
385	0.117
385	0.117
386	0.117
386	0.117
387	0.117
387	0.117
388	0.116
388	0.116
389	0.116
389	0.116
389	0.116
390	0.116
390	0.116
391	0.116
391	0.116
392	0.116
392	0.116
393	0.116
393	0.116
394	0.116
394	0.116
394	0.116
395	0.115
395	0.115
396	0.115
396	0.114
397	0.114
397	0.114
398	0.114
398	0.114
399	0.114
399	0.114
400	0.114
400	0.113
400	0.113
401	0.113
401	0.112
402	0.112
402	0.111
403	0.111
403	0.111
404	0.111
404	0.11
405	0.11
405	0.11
405	0.11
406	0.11
406	0.11
407	0.11
407	0.11
408	0.109
408	0.109
409	0.109
409	0.109
410	0.109
410	0.109
411	0.109
411	0.108
411	0.108
412	0.107
412	0.107
413	0.107
413	0.106
414	0.106
414	0.105
415	0.105
415	0.104
416	0.104
416	0.104
416	0.103
417	0.103
417	0.103
418	0.103
418	0.103
419	0.104
419	0.104
420	0.105
420	0.105
421	0.105
421	0.105
421	0.106
422	0.106
422	0.106
423	0.106
423	0.106
424	0.105
424	0.104
425	0.104
425	0.103
426	0.103
426	0.103
427	0.103
427	0.103
427	0.103
428	0.104
428	0.104
429	0.105
429	0.105
430	0.105
430	0.104
431	0.104
431	0.104
432	0.103
432	0.103
432	0.102
433	0.101
433	0.1
434	0.1
434	0.1
435	0.1
435	0.1
436	0.1
436	0.099
437	0.099
437	0.099
437	0.099
438	0.099
438	0.099
439	0.099
439	0.099
440	0.099
440	0.099
441	0.099
441	0.099
442	0.099
442	0.099
442	0.099
443	0.1
443	0.1
444	0.1
444	0.1
445	0.1
445	0.1
446	0.1
446	0.1
447	0.1
447	0.1
447	0.1
448	0.1
448	0.1
449	0.099
449	0.099
450	0.099
450	0.098
451	0.098
451	0.098
452	0.097
452	0.097
452	0.096
453	0.096
453	0.096
454	0.096
454	0.096
455	0.096
455	0.096
456	0.096
456	0.096
457	0.096
457	0.096
458	0.096
458	0.096
458	0.097
459	0.097
459	0.097
460	0.096
460	0.096
461	0.096
461	0.095
462	0.095
462	0.096
463	0.096
463	0.096
463	0.097
464	0.097
464	0.097
465	0.097
465	0.097
466	0.097
466	0.097
467	0.097
467	0.097
467	0.096
468	0.095
468	0.094
469	0.093
469	0.093
470	0.093
470	0.093
471	0.093
471	0.093
472	0.093
472	0.093
472	0.094
473	0.095
473	0.096
474	0.096
474	0.097
475	0.097
475	0.098
476	0.098
476	0.098
477	0.098
477	0.099
477	0.099
478	0.099
478	0.099
479	0.099
479	0.1
480	0.101
480	0.101
481	0.102
481	0.103
482	0.103
482	0.104
482	0.105
483	0.107
483	0.11
484	0.111
484	0.112
485	0.113
485	0.114
486	0.115
486	0.115
487	0.116
487	0.116
487	0.116
488	0.116
488	0.115
489	0.114
489	0.114
490	0.114
490	0.114
491	0.115
491	0.115
492	0.116
492	0.117
492	0.117
493	0.118
493	0.12
494	0.122
494	0.124
495	0.126
495	0.127
496	0.128
496	0.129
496	0.131
497	0.132
497	0.133
498	0.134
498	0.134
499	0.135
499	0.136
500	0.136
500	0.138
501	0.139
501	0.14
501	0.141
502	0.142
502	0.143
503	0.144
503	0.145
504	0.147
504	0.147
505	0.148
505	0.149
506	0.15
506	0.15
506	0.151
507	0.152
507	0.153
508	0.154
508	0.155
509	0.155
509	0.156
510	0.157
510	0.158
511	0.159
511	0.16
511	0.16
512	0.161
512	0.161
513	0.161
513	0.161
514	0.162
514	0.162
515	0.162
515	0.161
515	0.161
516	0.161
516	0.161
517	0.162
517	0.162
518	0.163
518	0.163
519	0.163
519	0.162
520	0.161
520	0.161
520	0.16
521	0.158
521	0.156
522	0.154
522	0.152
523	0.151
523	0.15
524	0.15
524	0.15
524	0.151
525	0.152
525	0.153
526	0.155
526	0.157
527	0.159
527	0.161
528	0.162
528	0.164
529	0.165
529	0.165
529	0.166
530	0.166
530	0.166
531	0.166
531	0.166
532	0.165
532	0.165
533	0.165
533	0.164
533	0.164
534	0.163
534	0.162
535	0.16
535	0.16
536	0.16
536	0.159
537	0.158
537	0.157
538	0.156
538	0.154
538	0.153
539	0.152
539	0.151
540	0.15
540	0.149
541	0.147
541	0.145
542	0.144
542	0.142
542	0.141
543	0.14
543	0.139
544	0.137
544	0.136
545	0.135
545	0.135
546	0.134
546	0.133
547	0.131
547	0.129
547	0.127
548	0.126
548	0.124
549	0.122
549	0.12
550	0.118
550	0.116
551	0.114
551	0.112
551	0.11
552	0.109
552	0.108
553	0.107
553	0.106
554	0.105
554	0.103
555	0.102
555	0.1
556	0.098
556	0.096
556	0.094
557	0.092
557	0.09
558	0.088
558	0.086
559	0.084
559	0.083
560	0.082
560	0.081
560	0.08
561	0.08
561	0.079
562	0.079
562	0.078
563	0.076
563	0.074
564	0.072
564	0.07
564	0.068
565	0.067
565	0.066
566	0.064
566	0.063
567	0.063
567	0.062
568	0.062
568	0.062
568	0.063
569	0.063
569	0.063
570	0.063
570	0.061
571	0.061
571	0.061
572	0.06
572	0.06
573	0.059
573	0.058
573	0.056
574	0.055
574	0.055
575	0.054
575	0.055
576	0.055
576	0.054
577	0.052
577	0.051
577	0.051
578	0.05
578	0.051
579	0.052
579	0.053
580	0.051
580	0.048
581	0.045
581	0.044
581	0.044
582	0.044
582	0.045
583	0.045
583	0.044
584	0.04
584	0.037
585	0.037
585	0.037
585	0.037
586	0.037
586	0.036
587	0.035
587	0.033
588	0.03
588	0.029
589	0.029
589	0.029
590	0.029
590	0.029
590	0.03
591	0.031
591	0.03
592	0.03
592	0.029
593	0.029
593	0.029
594	0.028
594	0.027
594	0.026
595	0.026
595	0.025
596	0.024
596	0.025
597	0.028
597	0.028
598	0.029
598	0.03
598	0.03
599	0.03
599	0.029
600	0.028
600	0.027
601	0.027
601	0.026
602	0.024
602	0.023
602	0.021
603	0.021
603	0.022
604	0.022
604	0.023
605	0.024
605	0.026
606	0.026
606	0.025
606	0.024
607	0.024
607	0.024
608	0.024
608	0.023
609	0.022
609	0.023
610	0.022
610	0.021
610	0.022
611	0.023
611	0.025
612	0.026
612	0.028
613	0.029
613	0.03
614	0.029
614	0.029
614	0.029
615	0.028
615	0.028
616	0.028
616	0.027
617	0.026
617	0.025
618	0.025
618	0.025
618	0.025
619	0.026
619	0.027
620	0.029
620	0.03
621	0.03
621	0.031
622	0.032
622	0.032
622	0.032
623	0.032
623	0.033
624	0.034
624	0.033
625	0.032
625	0.033
626	0.033
626	0.033
626	0.034
627	0.035
627	0.035
628	0.036
628	0.037
629	0.037
629	0.038
630	0.038
630	0.038
630	0.039
631	0.04
631	0.04
632	0.04
632	0.041
633	0.042
633	0.043
634	0.045
634	0.047
634	0.049
635	0.05
635	0.051
636	0.052
636	0.054
637	0.054
637	0.055
638	0.056
638	0.057
638	0.058
639	0.059
639	0.06
640	0.061
640	0.062
641	0.063
641	0.064
642	0.065
642	0.067
642	0.068
643	0.069
643	0.071
644	0.072
644	0.074
645	0.076
645	0.078
646	0.081
646	0.083
646	0.086
647	0.088
647	0.09
648	0.092
648	0.094
649	0.096
649	0.098
650	0.101
650	0.103
650	0.104
651	0.106
651	0.108
652	0.11
652	0.112
653	0.116
653	0.124
653	0.138
654	0.113
654	0.094
655	0.095
655	0.097
656	0.1
656	0.101
657	0.103
657	0.105
657	0.106
658	0.103
658	0.094
659	0.117
659	0.149
660	0.156
660	0.158
661	0.16
661	0.162
661	0.165
662	0.168
662	0.171
663	0.174
663	0.177
664	0.18
664	0.182
665	0.185
665	0.188
665	0.19
666	0.192
666	0.195
667	0.197
667	0.199
668	0.202
668	0.204
669	0.207
669	0.209
669	0.213
670	0.216
670	0.218
671	0.22
671	0.222
672	0.224
672	0.225
672	0.227
673	0.228
673	0.23
674	0.231
674	0.232
675	0.233
675	0.235
676	0.237
676	0.24
676	0.241
677	0.243
677	0.245
678	0.246
678	0.247
679	0.247
679	0.248
680	0.249
680	0.25
680	0.249
681	0.25
681	0.25
682	0.251
682	0.252
683	0.254
683	0.256
684	0.257
684	0.257
684	0.258
685	0.259
685	0.26
686	0.261
686	0.261
687	0.261
687	0.261
687	0.261
688	0.26
688	0.26
689	0.261
689	0.261
690	0.261
690	0.26
691	0.259
691	0.259
691	0.258
692	0.258
692	0.257
693	0.256
693	0.256
694	0.255
694	0.254
695	0.254
695	0.255
695	0.255
696	0.254
696	0.254
697	0.253
697	0.253
698	0.252
698	0.25
698	0.249
699	0.248
699	0.246
700	0.243
700	0.242
701	0.241
701	0.239
702	0.237
702	0.236
702	0.235
703	0.233
703	0.231
704	0.23
704	0.229
705	0.228
705	0.226
705	0.224
706	0.223
706	0.221
707	0.219
707	0.217
708	0.215
708	0.213
709	0.211
709	0.208
709	0.205
710	0.202
710	0.2
711	0.198
711	0.196
712	0.194
712	0.192
713	0.191
713	0.189
713	0.187
714	0.185
714	0.184
715	0.182
715	0.18
716	0.178
716	0.177
716	0.175
717	0.173
717	0.171
718	0.168
718	0.166
719	0.164
719	0.162
720	0.159
720	0.156
720	0.153
721	0.15
721	0.147
722	0.144
722	0.141
723	0.139
723	0.137
723	0.135
724	0.133
724	0.131
725	0.129
725	0.127
726	0.126
726	0.125
727	0.124
727	0.123
727	0.121
728	0.12
728	0.118
729	0.118
729	0.117
730	0.116
730	0.114
730	0.112
731	0.111
731	0.109
732	0.108
732	0.106
733	0.103
733	0.101
734	0.099
734	0.097
734	0.094
735	0.093
735	0.09
736	0.088
736	0.086
737	0.084
737	0.083
737	0.081
738	0.078
738	0.076
739	0.074
739	0.072
740	0.07
740	0.068
741	0.066
741	0.064
741	0.061
742	0.058
742	0.055
743	0.054
743	0.052
744	0.05
744	0.048
744	0.046
745	0.044
745	0.042
746	0.041
746	0.04
747	0.039
747	0.038
748	0.037
748	0.036
748	0.035
749	0.034
749	0.033
750	0.033
750	0.032
751	0.032
751	0.032
751	0.032
752	0.031
752	0.03
753	0.03
753	0.029
754	0.029
754	0.028
754	0.027
755	0.027
755	0.026
756	0.025
756	0.023
757	0.022
757	0.021
758	0.02
758	0.019
758	0.018
759	0.017
759	0.014
760	0.013
760	0.011
761	0.01
761	0.009
761	0.008
762	0.007
762	0.006
763	0.005
763	0.003
764	0.001
764	-0.001
764	-0.003
765	-0.006
765	-0.008
766	-0.009
766	-0.01
767	-0.012
767	-0.015
768	-0.018
768	-0.019
768	-0.02
769	-0.021
769	-0.022
770	-0.023
770	-0.024
771	-0.026
771	-0.029
771	-0.031
772	-0.032
772	-0.034
773	-0.035
773	-0.037
774	-0.039
774	-0.041
775	-0.043
775	-0.046
775	-0.048
776	-0.05
776	-0.053
777	-0.055
777	-0.058
778	-0.061
778	-0.064
778	-0.066
779	-0.068
779	-0.07
780	-0.072
780	-0.076
781	-0.079
781	-0.084
781	-0.089
782	-0.093
782	-0.099
783	-0.104
783	-0.108
784	-0.113
784	-0.117
784	-0.12
785	-0.124
785	-0.127
786	-0.127
786	-0.125
787	-0.12
787	-0.116
788	-0.115
788	-0.115
788	-0.116
789	-0.118
789	-0.117
790	-0.113
790	-0.111
791	-0.112
791	-0.113
791	-0.115
792	-0.11
792	-0.1
793	-0.095
793	-0.091
794	-0.09
794	-0.093
794	-0.097
795	-0.099
795	-0.099
796	-0.1
796	-0.102
797	-0.11
797	-0.12
797	-0.126
798	-0.131
798	-0.134
799	-0.135
799	-0.134
800	-0.134
800	-0.136
801	-0.14
801	-0.141
801	-0.142
802	-0.143
802	-0.145
803	-0.145
803	-0.146
804	-0.144
804	-0.14
804	-0.133
805	-0.129
805	-0.127
806	-0.124
806	-0.123
807	-0.122
807	-0.121
807	-0.121
808	-0.121
808	-0.122
809	-0.126
809	-0.132
810	-0.135
810	-0.138
810	-0.141
811	-0.143
811	-0.143
812	-0.139
812	-0.135
813	-0.135
813	-0.135
813	-0.135
814	-0.135
814	-0.135
815	-0.132
815	-0.13
816	-0.128
816	-0.128
817	-0.133
817	-0.136
817	-0.137
818	-0.137
818	-0.134
819	-0.129
819	-0.126
820	-0.127
820	-0.127
820	-0.126
821	-0.123
821	-0.118
822	-0.114
822	-0.109
823	-0.103
823	-0.1
823	-0.099
824	-0.095
824	-0.089
825	-0.083
825	-0.076
826	-0.071
826	-0.067
826	-0.063
827	-0.059
827	-0.056
828	-0.053
828	-0.05
829	-0.048
829	-0.046
829	-0.044
830	-0.043
830	-0.042
831	-0.041
831	-0.039
832	-0.039
832	-0.037
832	-0.037
833	-0.036
833	-0.035
834	-0.035
834	-0.034
835	-0.033
835	-0.033
835	-0.033
836	-0.032
836	-0.032
837	-0.032
837	-0.032
838	-0.032
838	-0.032
839	-0.032
839	-0.033
839	-0.033
840	-0.033
840	-0.032
841	-0.032
841	-0.032
842	-0.031
842	-0.031
842	-0.03
843	-0.029
843	-0.029
844	-0.028
844	-0.027
845	-0.027
845	-0.026
845	-0.025
846	-0.025
846	-0.025
847	-0.025
847	-0.025
848	-0.025
848	-0.026
848	-0.026
849	-0.026
849	-0.027
850	-0.027
850	-0.028
851	-0.029
851	-0.029
851	-0.029
852	-0.03
852	-0.029
853	-0.029
853	-0.029
854	-0.028
854	-0.027
854	-0.027
855	-0.026
855	-0.025
856	-0.024
856	-0.023
857	-0.022
857	-0.022
857	-0.021
858	-0.021
858	-0.02
859	-0.02
859	-0.02
860	-0.02
860	-0.019
860	-0.019
861	-0.019
861	-0.019
862	-0.019
862	-0.019
863	-0.018
863	-0.019
863	-0.019
864	-0.019
864	-0.019
865	-0.02
865	-0.02
866	-0.021
866	-0.021
866	-0.021
867	-0.022
867	-0.021
868	-0.021
868	-0.02
869	-0.019
869	-0.018
869	-0.017
870	-0.016
870	-0.015
871	-0.014
871	-0.014
872	-0.013
872	-0.013
872	-0.012
873	-0.012
873	-0.012
874	-0.012
874	-0.012
875	-0.012
875	-0.012
875	-0.013
876	-0.013
876	-0.014
877	-0.014
877	-0.015
878	-0.015
878	-0.016
878	-0.016
879	-0.017
879	-0.017
880	-0.018
880	-0.018
881	-0.018
881	-0.018
881	-0.017
882	-0.017
882	-0.016
883	-0.015
883	-0.015
884	-0.014
884	-0.013
884	-0.013
885	-0.012
885	-0.012
886	-0.012
886	-0.012
887	-0.012
887	-0.012
887	-0.012
888	-0.011
888	-0.011
889	-0.01
889	-0.009
890	-0.009
890	-0.008
890	-0.008
891	-0.007
891	-0.007
892	-0.007
892	-0.007
893	-0.008
893	-0.008
893	-0.009
894	-0.009
894	-0.01
895	-0.011
895	-0.012
895	-0.013
896	-0.014
896	-0.014
897	-0.015
897	-0.015
898	-0.015
898	-0.015
898	-0.015
899	-0.015
899	-0.015
900	-0.015
900	-0.015
901	-0.015
901	-0.015
901	-0.015
902	-0.015
902	-0.015
903	-0.016
903	-0.016
904	-0.016
904	-0.017
904	-0.017
905	-0.018
905	-0.018
906	-0.019
906	-0.019
907	-0.02
907	-0.021
907	-0.021
908	-0.022
908	-0.022
909	-0.022
909	-0.022
910	-0.022
910	-0.022
910	-0.021
911	-0.021
911	-0.021
912	-0.02
912	-0.02
913	-0.02
913	-0.02
913	-0.02
914	-0.021
914	-0.021
915	-0.022
915	-0.023
916	-0.023
916	-0.024
916	-0.024
917	-0.023
917	-0.023
918	-0.022
918	-0.021
918	-0.02
919	-0.018
919	-0.017
920	-0.015
920	-0.013
921	-0.012
921	-0.011
921	-0.01
922	-0.009
922	-0.007
923	-0.006
923	-0.005
924	-0.005
924	-0.004
924	-0.004
925	-0.004
925	-0.003
926	-0.003
926	-0.003
927	-0.003
927	-0.003
927	-0.003
928	-0.003
928	-0.003
929	-0.003
929	-0.003
930	-0.003
930	-0.004
930	-0.004
931	-0.005
931	-0.006
932	-0.007
932	-0.009
933	-0.01
933	-0.011
933	-0.013
934	-0.014
934	-0.016
935	-0.017
935	-0.018
935	-0.019
936	-0.019
936	-0.02
937	-0.02
937	-0.02
938	-0.021
938	-0.02
938	-0.02
939	-0.02
939	-0.019
940	-0.018
940	-0.018
941	-0.017
941	-0.016
941	-0.015
942	-0.015
942	-0.014
943	-0.013
943	-0.013
944	-0.013
944	-0.013
944	-0.013
945	-0.012
945	-0.012
946	-0.012
946	-0.012
946	-0.012
947	-0.012
947	-0.012
948	-0.012
948	-0.012
949	-0.012
949	-0.012
949	-0.012
950	-0.012
950	-0.012
951	-0.012
951	-0.012
952	-0.012
952	-0.011
952	-0.011
953	-0.011
953	-0.01
954	-0.01
954	-0.01
955	-0.01
955	-0.01
955	-0.009
956	-0.009
956	-0.009
957	-0.009
957	-0.009
957	-0.009
958	-0.01
958	-0.01
959	-0.011
959	-0.011
960	-0.012
960	-0.012
960	-0.014
961	-0.015
961	-0.015
962	-0.016
962	-0.016
963	-0.016
963	-0.016
963	-0.016
964	-0.015
964	-0.014
965	-0.014
965	-0.013
966	-0.012
966	-0.01
966	-0.009
967	-0.008
967	-0.007
968	-0.007
968	-0.007
968	-0.006
969	-0.006
969	-0.006
970	-0.006
970	-0.006
971	-0.007
971	-0.007
971	-0.008
972	-0.008
972	-0.009
973	-0.009
973	-0.01
974	-0.011
974	-0.012
974	-0.013
975	-0.014
975	-0.015
976	-0.016
976	-0.017
976	-0.019
977	-0.02
977	-0.022
978	-0.023
978	-0.025
979	-0.026
979	-0.026
979	-0.027
980	-0.027
980	-0.027
981	-0.027
981	-0.026
982	-0.025
982	-0.024
982	-0.023
983	-0.021
983	-0.02
984	-0.018
984	-0.017
984	-0.016
985	-0.015
985	-0.014
986	-0.014
986	-0.014
987	-0.014
987	-0.015
987	-0.015
988	-0.016
988	-0.017
989	-0.018
989	-0.019
990	-0.02
990	-0.021
990	-0.021
991	-0.022
991	-0.022
992	-0.022
992	-0.023
992	-0.023
993	-0.024
993	-0.024
994	-0.025
994	-0.026
995	-0.026
995	-0.027
995	-0.028
996	-0.028
996	-0.029
997	-0.03
997	-0.03
997	-0.03
998	-0.03
998	-0.029
999	-0.029
999	-0.028
1000	-0.027
1000	-0.026
1000	-0.026
1001	-0.025
1001	-0.024
1002	-0.024
1002	-0.024
1003	-0.023
1003	-0.023
1003	-0.023
1004	-0.023
1004	-0.022
1005	-0.022
1005	-0.022
1005	-0.022
1006	-0.022
1006	-0.021
1007	-0.021
1007	-0.02
1008	-0.02
1008	-0.019
1008	-0.019
1009	-0.018
1009	-0.018
1010	-0.017
1010	-0.017
1010	-0.017
1011	-0.017
1011	-0.017
1012	-0.016
1012	-0.017
1013	-0.017
1013	-0.017
1013	-0.018
1014	-0.019
1014	-0.02
1015	-0.02
1015	-0.021
1016	-0.022
1016	-0.023
1016	-0.023
1017	-0.024
1017	-0.025
1018	-0.025
1018	-0.025
1018	-0.025
1019	-0.025
1019	-0.025
1020	-0.025
1020	-0.025
1021	-0.025
1021	-0.025
1021	-0.026
1022	-0.026
1022	-0.026
1023	-0.026
1023	-0.027
1023	-0.027
1024	-0.028
1024	-0.029
1025	-0.029
1025	-0.03
1026	-0.03
1026	-0.03
1026	-0.031
1027	-0.031
1027	-0.031
1028	-0.03
1028	-0.029
1028	-0.029
1029	-0.028
1029	-0.028
1030	-0.027
1030	-0.027
1031	-0.026
1031	-0.026
1031	-0.026
1032	-0.025
1032	-0.025
1033	-0.025
1033	-0.025
1033	-0.025
1034	-0.026
1034	-0.027
1035	-0.027
1035	-0.028
1036	-0.028
1036	-0.029
1036	-0.029
1037	-0.03
1037	-0.03
1038	-0.031
1038	-0.031
1039	-0.031
1039	-0.031
1039	-0.031
1040	-0.031
1040	-0.031
1041	-0.032
1041	-0.032
1041	-0.032
1042	-0.033
1042	-0.034
1043	-0.034
1043	-0.035
1044	-0.036
1044	-0.037
1044	-0.037
1045	-0.038
1045	-0.039
1046	-0.039
1046	-0.039
1046	-0.039
1047	-0.039
1047	-0.038
1048	-0.038
1048	-0.038
1049	-0.038
1049	-0.038
1049	-0.038
1050	-0.038
1050	-0.038
1051	-0.039
1051	-0.038
1051	-0.038
1052	-0.037
1052	-0.037
1053	-0.036
1053	-0.035
1053	-0.034
1054	-0.033
1054	-0.032
1055	-0.03
1055	-0.03
1056	-0.029
1056	-0.029
1056	-0.03
1057	-0.03
1057	-0.03
1058	-0.03
1058	-0.03
1058	-0.03
1059	-0.03
1059	-0.03
1060	-0.03
1060	-0.03
1061	-0.03
1061	-0.029
1061	-0.029
1062	-0.029
1062	-0.029
1063	-0.029
1063	-0.029
1063	-0.03
1064	-0.029
1064	-0.029
1065	-0.029
1065	-0.029
1066	-0.029
1066	-0.029
1066	-0.029
1067	-0.029
1067	-0.029
1068	-0.029
1068	-0.029
1068	-0.03
1069	-0.03
1069	-0.03
1070	-0.03
1070	-0.03
1071	-0.029
1071	-0.029
1071	-0.029
1072	-0.028
1072	-0.027
1073	-0.027
1073	-0.025
1073	-0.025
1074	-0.023
1074	-0.022
1075	-0.022
1075	-0.022
1076	-0.021
1076	-0.02
1076	-0.02
1077	-0.02
1077	-0.019
1078	-0.019
1078	-0.018
1078	-0.018
1079	-0.017
1079	-0.016
1080	-0.016
1080	-0.014
1080	-0.014
1081	-0.013
1081	-0.012
1082	-0.011
1082	-0.01
1083	-0.009
1083	-0.009
1083	-0.007
1084	-0.006
1084	-0.005
1085	-0.005
1085	-0.003
1085	-0.002
1086	-0.001
1086	-0.001
1087	0
1087	0.002
1088	0.002
1088	0.003
1088	0.003
1089	0.004
1089	0.005
1090	0.006
1090	0.008
1090	0.009
1091	0.012
1091	0.014
1092	0.016
1092	0.019
1092	0.022
1093	0.025
1093	0.029
1094	0.032
1094	0.036
1095	0.039
1095	0.042
1095	0.047
1096	0.052
1096	0.057
1097	0.063
1097	0.068
1097	0.074
1098	0.079
1098	0.086
1099	0.093
1099	0.101
1100	0.11
1100	0.118
1100	0.127
1101	0.136
1101	0.147
1102	0.159
1102	0.172
1102	0.188
1103	0.203
1103	0.222
1104	0.243
1104	0.264
1104	0.292
1105	0.32
1105	0.348
1106	0.378
1106	0.418
1107	0.466
1107	0.535
1107	0.635
1108	1.162
1108	-0
1109	-0
1109	-0
1109	-0
1110	-0
1110	-0
1111	-0
1111	-0
