Data from 15c-100ul-ns-20ul-nr-full-exp-7ul-bp_Absorbance__775__05113.txt Node

Date: Mon Jan 15 15:38:39 CET 2024
User: Marek
Spectrometer: MAYP115816
Trigger mode: 0
Integration Time (sec): 2.000000E-1
Scans to average: 10
Electric dark correction enabled: true
Nonlinearity correction enabled: true
Boxcar width: 5
XAxis mode: Wavelengths
Number of Pixels in Spectrum: 2068
>>>>>Begin Spectral Data<<<<<
199	-1.942
199	-1.812
200	-1.669
200	-1.558
201	-1.485
201	-1.434
202	-1.363
202	-1.307
203	-1.258
203	-1.219
204	-1.19
204	-1.168
205	-1.146
205	-1.138
205	-1.135
206	-1.133
206	-1.132
207	-1.128
207	-1.125
208	-1.124
208	-1.118
209	-1.117
209	-1.115
210	-1.115
210	-1.113
211	-1.111
211	-1.109
212	-1.107
212	-1.106
213	-1.106
213	-1.105
213	-1.105
214	-1.104
214	-1.104
215	-1.104
215	-1.104
216	-1.103
216	-1.102
217	-1.101
217	-1.101
218	-1.1
218	-1.096
219	-1.094
219	-1.093
220	-1.088
220	-1.083
221	-1.079
221	-1.074
221	-1.069
222	-1.065
222	-1.06
223	-1.052
223	-1.048
224	-1.043
224	-1.034
225	-1.026
225	-1.014
226	-1.005
226	-0.994
227	-0.978
227	-0.962
228	-0.943
228	-0.923
229	-0.898
229	-0.869
229	-0.84
230	-0.808
230	-0.773
231	-0.734
231	-0.694
232	-0.653
232	-0.608
233	-0.562
233	-0.516
234	-0.469
234	-0.423
235	-0.377
235	-0.331
236	-0.287
236	-0.243
236	-0.201
237	-0.161
237	-0.124
238	-0.088
238	-0.054
239	-0.022
239	0.007
240	0.033
240	0.058
241	0.08
241	0.101
242	0.12
242	0.138
243	0.154
243	0.169
243	0.182
244	0.194
244	0.206
245	0.215
245	0.225
246	0.233
246	0.241
247	0.249
247	0.256
248	0.262
248	0.268
249	0.274
249	0.279
250	0.283
250	0.288
250	0.293
251	0.297
251	0.3
252	0.304
252	0.307
253	0.31
253	0.312
254	0.315
254	0.317
255	0.319
255	0.321
256	0.322
256	0.324
257	0.326
257	0.327
258	0.328
258	0.329
258	0.33
259	0.33
259	0.331
260	0.331
260	0.332
261	0.332
261	0.332
262	0.332
262	0.331
263	0.331
263	0.331
264	0.33
264	0.33
265	0.33
265	0.329
265	0.328
266	0.328
266	0.327
267	0.326
267	0.325
268	0.324
268	0.323
269	0.322
269	0.32
270	0.319
270	0.317
271	0.316
271	0.314
272	0.313
272	0.312
272	0.31
273	0.309
273	0.307
274	0.306
274	0.304
275	0.303
275	0.301
276	0.3
276	0.298
277	0.296
277	0.294
278	0.292
278	0.29
278	0.288
279	0.285
279	0.283
280	0.282
280	0.28
281	0.278
281	0.276
282	0.275
282	0.273
283	0.272
283	0.27
284	0.269
284	0.268
285	0.267
285	0.265
285	0.264
286	0.263
286	0.262
287	0.26
287	0.259
288	0.258
288	0.256
289	0.255
289	0.254
290	0.253
290	0.252
291	0.25
291	0.249
292	0.248
292	0.247
292	0.246
293	0.244
293	0.243
294	0.242
294	0.241
295	0.24
295	0.239
296	0.238
296	0.237
297	0.237
297	0.236
298	0.235
298	0.234
298	0.233
299	0.233
299	0.232
300	0.231
300	0.231
301	0.23
301	0.229
302	0.228
302	0.227
303	0.227
303	0.226
304	0.225
304	0.225
305	0.224
305	0.223
305	0.222
306	0.221
306	0.22
307	0.22
307	0.219
308	0.218
308	0.217
309	0.216
309	0.215
310	0.215
310	0.214
311	0.213
311	0.213
311	0.212
312	0.211
312	0.211
313	0.21
313	0.209
314	0.208
314	0.207
315	0.207
315	0.206
316	0.205
316	0.204
317	0.203
317	0.202
318	0.201
318	0.2
318	0.2
319	0.199
319	0.198
320	0.197
320	0.197
321	0.196
321	0.195
322	0.194
322	0.193
323	0.193
323	0.192
324	0.191
324	0.19
324	0.189
325	0.189
325	0.188
326	0.187
326	0.187
327	0.186
327	0.185
328	0.185
328	0.184
329	0.183
329	0.183
330	0.182
330	0.181
330	0.181
331	0.18
331	0.179
332	0.178
332	0.178
333	0.177
333	0.176
334	0.176
334	0.175
335	0.174
335	0.173
336	0.173
336	0.172
336	0.172
337	0.171
337	0.17
338	0.169
338	0.169
339	0.168
339	0.168
340	0.167
340	0.167
341	0.166
341	0.165
342	0.165
342	0.164
342	0.163
343	0.163
343	0.162
344	0.162
344	0.161
345	0.161
345	0.16
346	0.16
346	0.159
347	0.159
347	0.158
348	0.158
348	0.157
348	0.157
349	0.156
349	0.155
350	0.155
350	0.155
351	0.154
351	0.153
352	0.153
352	0.152
353	0.151
353	0.151
354	0.15
354	0.149
354	0.148
355	0.148
355	0.147
356	0.147
356	0.147
357	0.146
357	0.146
358	0.146
358	0.146
359	0.147
359	0.147
360	0.147
360	0.147
360	0.147
361	0.147
361	0.147
362	0.148
362	0.147
363	0.147
363	0.147
364	0.147
364	0.146
365	0.146
365	0.146
366	0.146
366	0.145
366	0.145
367	0.145
367	0.145
368	0.144
368	0.144
369	0.143
369	0.143
370	0.143
370	0.142
371	0.142
371	0.142
372	0.141
372	0.141
372	0.141
373	0.141
373	0.141
374	0.14
374	0.141
375	0.14
375	0.14
376	0.14
376	0.14
377	0.14
377	0.141
378	0.141
378	0.141
378	0.141
379	0.141
379	0.14
380	0.141
380	0.141
381	0.14
381	0.14
382	0.14
382	0.139
383	0.139
383	0.139
383	0.138
384	0.138
384	0.137
385	0.137
385	0.137
386	0.137
386	0.136
387	0.136
387	0.136
388	0.136
388	0.135
389	0.136
389	0.135
389	0.135
390	0.136
390	0.136
391	0.136
391	0.136
392	0.136
392	0.136
393	0.136
393	0.136
394	0.136
394	0.135
394	0.135
395	0.135
395	0.134
396	0.134
396	0.134
397	0.134
397	0.134
398	0.134
398	0.133
399	0.133
399	0.133
400	0.133
400	0.133
400	0.133
401	0.132
401	0.131
402	0.13
402	0.13
403	0.13
403	0.13
404	0.13
404	0.129
405	0.129
405	0.129
405	0.128
406	0.128
406	0.129
407	0.128
407	0.128
408	0.128
408	0.127
409	0.127
409	0.126
410	0.126
410	0.126
411	0.126
411	0.126
411	0.126
412	0.125
412	0.125
413	0.124
413	0.124
414	0.124
414	0.123
415	0.123
415	0.122
416	0.122
416	0.122
416	0.121
417	0.121
417	0.121
418	0.121
418	0.121
419	0.122
419	0.122
420	0.123
420	0.123
421	0.123
421	0.124
421	0.124
422	0.124
422	0.124
423	0.124
423	0.123
424	0.123
424	0.122
425	0.121
425	0.12
426	0.12
426	0.12
427	0.12
427	0.12
427	0.12
428	0.121
428	0.121
429	0.122
429	0.122
430	0.122
430	0.122
431	0.121
431	0.121
432	0.12
432	0.12
432	0.119
433	0.118
433	0.117
434	0.116
434	0.116
435	0.116
435	0.116
436	0.116
436	0.116
437	0.116
437	0.116
437	0.116
438	0.116
438	0.116
439	0.116
439	0.116
440	0.115
440	0.115
441	0.115
441	0.115
442	0.116
442	0.116
442	0.116
443	0.116
443	0.116
444	0.116
444	0.116
445	0.117
445	0.117
446	0.117
446	0.116
447	0.116
447	0.116
447	0.116
448	0.116
448	0.116
449	0.115
449	0.115
450	0.114
450	0.114
451	0.114
451	0.114
452	0.113
452	0.113
452	0.112
453	0.112
453	0.111
454	0.111
454	0.111
455	0.111
455	0.111
456	0.111
456	0.111
457	0.111
457	0.111
458	0.111
458	0.111
458	0.112
459	0.112
459	0.112
460	0.111
460	0.111
461	0.11
461	0.11
462	0.11
462	0.11
463	0.111
463	0.111
463	0.112
464	0.112
464	0.112
465	0.112
465	0.112
466	0.112
466	0.112
467	0.112
467	0.112
467	0.111
468	0.11
468	0.108
469	0.107
469	0.107
470	0.106
470	0.106
471	0.106
471	0.106
472	0.106
472	0.106
472	0.107
473	0.108
473	0.109
474	0.11
474	0.11
475	0.111
475	0.112
476	0.112
476	0.112
477	0.112
477	0.113
477	0.113
478	0.113
478	0.113
479	0.114
479	0.114
480	0.115
480	0.115
481	0.116
481	0.117
482	0.118
482	0.119
482	0.12
483	0.122
483	0.125
484	0.127
484	0.129
485	0.13
485	0.131
486	0.132
486	0.133
487	0.133
487	0.134
487	0.134
488	0.133
488	0.132
489	0.132
489	0.131
490	0.131
490	0.131
491	0.131
491	0.131
492	0.132
492	0.132
492	0.133
493	0.134
493	0.135
494	0.137
494	0.14
495	0.142
495	0.143
496	0.145
496	0.146
496	0.147
497	0.149
497	0.15
498	0.151
498	0.151
499	0.152
499	0.152
500	0.153
500	0.154
501	0.155
501	0.157
501	0.158
502	0.159
502	0.161
503	0.162
503	0.164
504	0.164
504	0.165
505	0.166
505	0.167
506	0.168
506	0.169
506	0.17
507	0.17
507	0.171
508	0.171
508	0.172
509	0.173
509	0.175
510	0.176
510	0.176
511	0.177
511	0.177
511	0.178
512	0.179
512	0.179
513	0.179
513	0.179
514	0.178
514	0.178
515	0.177
515	0.177
515	0.176
516	0.176
516	0.177
517	0.178
517	0.178
518	0.178
518	0.178
519	0.177
519	0.176
520	0.175
520	0.174
520	0.172
521	0.169
521	0.167
522	0.165
522	0.163
523	0.162
523	0.162
524	0.163
524	0.164
524	0.166
525	0.168
525	0.171
526	0.173
526	0.176
527	0.178
527	0.18
528	0.182
528	0.183
529	0.184
529	0.185
529	0.185
530	0.185
530	0.185
531	0.185
531	0.185
532	0.185
532	0.184
533	0.184
533	0.183
533	0.183
534	0.182
534	0.18
535	0.179
535	0.179
536	0.178
536	0.177
537	0.177
537	0.176
538	0.174
538	0.173
538	0.171
539	0.17
539	0.169
540	0.168
540	0.167
541	0.165
541	0.163
542	0.161
542	0.16
542	0.158
543	0.157
543	0.156
544	0.154
544	0.153
545	0.152
545	0.151
546	0.151
546	0.15
547	0.148
547	0.146
547	0.144
548	0.142
548	0.14
549	0.138
549	0.136
550	0.134
550	0.131
551	0.129
551	0.127
551	0.125
552	0.124
552	0.122
553	0.121
553	0.121
554	0.12
554	0.118
555	0.116
555	0.114
556	0.111
556	0.109
556	0.106
557	0.104
557	0.102
558	0.099
558	0.097
559	0.095
559	0.094
560	0.093
560	0.092
560	0.091
561	0.091
561	0.09
562	0.09
562	0.089
563	0.087
563	0.084
564	0.082
564	0.08
564	0.078
565	0.077
565	0.076
566	0.074
566	0.073
567	0.072
567	0.072
568	0.072
568	0.073
568	0.073
569	0.074
569	0.075
570	0.074
570	0.073
571	0.073
571	0.073
572	0.073
572	0.072
573	0.071
573	0.07
573	0.068
574	0.067
574	0.067
575	0.067
575	0.068
576	0.068
576	0.066
577	0.064
577	0.063
577	0.063
578	0.062
578	0.063
579	0.064
579	0.065
580	0.063
580	0.06
581	0.057
581	0.056
581	0.056
582	0.056
582	0.056
583	0.056
583	0.055
584	0.051
584	0.047
585	0.046
585	0.047
585	0.047
586	0.046
586	0.046
587	0.044
587	0.041
588	0.039
588	0.038
589	0.037
589	0.037
590	0.037
590	0.036
590	0.037
591	0.038
591	0.038
592	0.037
592	0.036
593	0.036
593	0.036
594	0.035
594	0.034
594	0.033
595	0.033
595	0.032
596	0.03
596	0.032
597	0.034
597	0.035
598	0.036
598	0.037
598	0.037
599	0.037
599	0.037
600	0.035
600	0.034
601	0.033
601	0.032
602	0.03
602	0.029
602	0.027
603	0.027
603	0.028
604	0.028
604	0.029
605	0.03
605	0.032
606	0.032
606	0.031
606	0.03
607	0.03
607	0.03
608	0.03
608	0.028
609	0.028
609	0.028
610	0.027
610	0.026
610	0.026
611	0.027
611	0.029
612	0.03
612	0.032
613	0.033
613	0.034
614	0.034
614	0.033
614	0.033
615	0.032
615	0.032
616	0.032
616	0.031
617	0.03
617	0.029
618	0.028
618	0.028
618	0.028
619	0.028
619	0.029
620	0.032
620	0.032
621	0.033
621	0.034
622	0.034
622	0.035
622	0.035
623	0.035
623	0.036
624	0.037
624	0.036
625	0.036
625	0.036
626	0.036
626	0.036
626	0.037
627	0.038
627	0.039
628	0.04
628	0.04
629	0.041
629	0.041
630	0.041
630	0.041
630	0.041
631	0.042
631	0.043
632	0.043
632	0.043
633	0.044
633	0.045
634	0.047
634	0.049
634	0.051
635	0.052
635	0.053
636	0.055
636	0.056
637	0.057
637	0.057
638	0.059
638	0.06
638	0.061
639	0.061
639	0.062
640	0.063
640	0.063
641	0.064
641	0.065
642	0.067
642	0.069
642	0.07
643	0.071
643	0.073
644	0.074
644	0.076
645	0.078
645	0.081
646	0.083
646	0.086
646	0.089
647	0.091
647	0.094
648	0.096
648	0.098
649	0.101
649	0.103
650	0.105
650	0.108
650	0.11
651	0.112
651	0.114
652	0.116
652	0.118
653	0.122
653	0.131
653	0.146
654	0.12
654	0.1
655	0.102
655	0.104
656	0.106
656	0.108
657	0.11
657	0.112
657	0.113
658	0.111
658	0.1
659	0.125
659	0.158
660	0.164
660	0.166
661	0.168
661	0.17
661	0.173
662	0.176
662	0.179
663	0.183
663	0.185
664	0.188
664	0.191
665	0.194
665	0.197
665	0.199
666	0.202
666	0.204
667	0.207
667	0.209
668	0.212
668	0.214
669	0.217
669	0.22
669	0.224
670	0.227
670	0.23
671	0.232
671	0.234
672	0.236
672	0.238
672	0.239
673	0.241
673	0.243
674	0.244
674	0.245
675	0.245
675	0.247
676	0.25
676	0.252
676	0.253
677	0.255
677	0.257
678	0.258
678	0.259
679	0.26
679	0.261
680	0.262
680	0.263
680	0.263
681	0.263
681	0.264
682	0.265
682	0.266
683	0.268
683	0.27
684	0.272
684	0.273
684	0.273
685	0.274
685	0.275
686	0.276
686	0.277
687	0.277
687	0.277
687	0.277
688	0.276
688	0.275
689	0.276
689	0.277
690	0.277
690	0.277
691	0.276
691	0.276
691	0.276
692	0.275
692	0.274
693	0.274
693	0.274
694	0.272
694	0.271
695	0.272
695	0.273
695	0.273
696	0.273
696	0.273
697	0.272
697	0.272
698	0.271
698	0.269
698	0.268
699	0.267
699	0.264
700	0.262
700	0.26
701	0.258
701	0.256
702	0.255
702	0.253
702	0.252
703	0.25
703	0.248
704	0.247
704	0.246
705	0.245
705	0.243
705	0.241
706	0.24
706	0.238
707	0.236
707	0.234
708	0.232
708	0.229
709	0.227
709	0.224
709	0.221
710	0.218
710	0.215
711	0.213
711	0.211
712	0.209
712	0.208
713	0.206
713	0.205
713	0.203
714	0.201
714	0.199
715	0.197
715	0.195
716	0.193
716	0.191
716	0.189
717	0.186
717	0.184
718	0.181
718	0.178
719	0.176
719	0.174
720	0.171
720	0.168
720	0.165
721	0.161
721	0.158
722	0.155
722	0.152
723	0.15
723	0.148
723	0.145
724	0.143
724	0.141
725	0.139
725	0.138
726	0.137
726	0.135
727	0.134
727	0.133
727	0.131
728	0.13
728	0.128
729	0.127
729	0.126
730	0.125
730	0.123
730	0.121
731	0.12
731	0.118
732	0.116
732	0.114
733	0.112
733	0.11
734	0.107
734	0.104
734	0.102
735	0.1
735	0.097
736	0.095
736	0.093
737	0.091
737	0.089
737	0.087
738	0.085
738	0.082
739	0.08
739	0.078
740	0.075
740	0.074
741	0.072
741	0.07
741	0.067
742	0.063
742	0.06
743	0.058
743	0.056
744	0.054
744	0.052
744	0.049
745	0.047
745	0.044
746	0.043
746	0.041
747	0.04
747	0.039
748	0.038
748	0.038
748	0.036
749	0.035
749	0.035
750	0.035
750	0.034
751	0.034
751	0.034
751	0.034
752	0.033
752	0.032
753	0.031
753	0.031
754	0.03
754	0.029
754	0.029
755	0.029
755	0.029
756	0.027
756	0.025
757	0.024
757	0.024
758	0.023
758	0.022
758	0.021
759	0.02
759	0.017
760	0.015
760	0.013
761	0.011
761	0.011
761	0.01
762	0.008
762	0.007
763	0.006
763	0.003
764	0.001
764	-0.002
764	-0.004
765	-0.007
765	-0.009
766	-0.011
766	-0.012
767	-0.014
767	-0.017
768	-0.02
768	-0.022
768	-0.023
769	-0.023
769	-0.024
770	-0.025
770	-0.026
771	-0.028
771	-0.031
771	-0.033
772	-0.034
772	-0.036
773	-0.037
773	-0.039
774	-0.042
774	-0.044
775	-0.047
775	-0.049
775	-0.052
776	-0.055
776	-0.058
777	-0.061
777	-0.064
778	-0.067
778	-0.07
778	-0.074
779	-0.075
779	-0.077
780	-0.08
780	-0.084
781	-0.087
781	-0.092
781	-0.095
782	-0.099
782	-0.104
783	-0.109
783	-0.112
784	-0.115
784	-0.118
784	-0.12
785	-0.123
785	-0.125
786	-0.125
786	-0.123
787	-0.119
787	-0.115
788	-0.113
788	-0.114
788	-0.114
789	-0.116
789	-0.115
790	-0.112
790	-0.11
791	-0.11
791	-0.111
791	-0.113
792	-0.109
792	-0.099
793	-0.093
793	-0.09
794	-0.089
794	-0.091
794	-0.095
795	-0.098
795	-0.098
796	-0.098
796	-0.101
797	-0.109
797	-0.119
797	-0.125
798	-0.13
798	-0.132
799	-0.133
799	-0.133
800	-0.133
800	-0.135
801	-0.138
801	-0.139
801	-0.14
802	-0.142
802	-0.143
803	-0.144
803	-0.144
804	-0.143
804	-0.138
804	-0.131
805	-0.127
805	-0.125
806	-0.123
806	-0.121
807	-0.12
807	-0.12
807	-0.119
808	-0.119
808	-0.12
809	-0.125
809	-0.13
810	-0.134
810	-0.136
810	-0.139
811	-0.142
811	-0.142
812	-0.137
812	-0.134
813	-0.133
813	-0.133
813	-0.133
814	-0.134
814	-0.133
815	-0.131
815	-0.128
816	-0.126
816	-0.127
817	-0.131
817	-0.135
817	-0.135
818	-0.135
818	-0.132
819	-0.127
819	-0.125
820	-0.126
820	-0.128
820	-0.13
821	-0.129
821	-0.127
822	-0.125
822	-0.121
823	-0.118
823	-0.117
823	-0.117
824	-0.115
824	-0.109
825	-0.102
825	-0.094
826	-0.087
826	-0.082
826	-0.077
827	-0.072
827	-0.067
828	-0.063
828	-0.06
829	-0.056
829	-0.053
829	-0.051
830	-0.05
830	-0.048
831	-0.046
831	-0.044
832	-0.043
832	-0.042
832	-0.041
833	-0.04
833	-0.039
834	-0.038
834	-0.037
835	-0.037
835	-0.036
835	-0.036
836	-0.036
836	-0.035
837	-0.035
837	-0.035
838	-0.035
838	-0.035
839	-0.035
839	-0.035
839	-0.036
840	-0.036
840	-0.035
841	-0.035
841	-0.034
842	-0.034
842	-0.033
842	-0.033
843	-0.032
843	-0.031
844	-0.03
844	-0.029
845	-0.028
845	-0.027
845	-0.027
846	-0.026
846	-0.026
847	-0.026
847	-0.025
848	-0.025
848	-0.026
848	-0.026
849	-0.026
849	-0.026
850	-0.027
850	-0.027
851	-0.027
851	-0.027
851	-0.028
852	-0.028
852	-0.027
853	-0.027
853	-0.027
854	-0.026
854	-0.025
854	-0.024
855	-0.023
855	-0.023
856	-0.022
856	-0.021
857	-0.02
857	-0.019
857	-0.019
858	-0.018
858	-0.018
859	-0.018
859	-0.018
860	-0.018
860	-0.017
860	-0.017
861	-0.017
861	-0.017
862	-0.017
862	-0.018
863	-0.017
863	-0.017
863	-0.018
864	-0.018
864	-0.018
865	-0.018
865	-0.019
866	-0.019
866	-0.019
866	-0.019
867	-0.019
867	-0.018
868	-0.018
868	-0.017
869	-0.016
869	-0.015
869	-0.014
870	-0.013
870	-0.012
871	-0.011
871	-0.01
872	-0.01
872	-0.01
872	-0.009
873	-0.009
873	-0.009
874	-0.009
874	-0.009
875	-0.009
875	-0.009
875	-0.009
876	-0.009
876	-0.009
877	-0.01
877	-0.01
878	-0.011
878	-0.011
878	-0.012
879	-0.012
879	-0.013
880	-0.014
880	-0.014
881	-0.015
881	-0.015
881	-0.014
882	-0.014
882	-0.013
883	-0.013
883	-0.012
884	-0.011
884	-0.011
884	-0.01
885	-0.01
885	-0.009
886	-0.009
886	-0.009
887	-0.009
887	-0.009
887	-0.009
888	-0.009
888	-0.008
889	-0.008
889	-0.007
890	-0.006
890	-0.005
890	-0.005
891	-0.004
891	-0.004
892	-0.003
892	-0.003
893	-0.004
893	-0.004
893	-0.005
894	-0.006
894	-0.007
895	-0.008
895	-0.009
895	-0.01
896	-0.011
896	-0.011
897	-0.012
897	-0.012
898	-0.012
898	-0.012
898	-0.012
899	-0.012
899	-0.012
900	-0.012
900	-0.012
901	-0.011
901	-0.011
901	-0.011
902	-0.011
902	-0.011
903	-0.011
903	-0.011
904	-0.012
904	-0.012
904	-0.012
905	-0.013
905	-0.013
906	-0.014
906	-0.014
907	-0.015
907	-0.015
907	-0.016
908	-0.016
908	-0.017
909	-0.017
909	-0.017
910	-0.017
910	-0.017
910	-0.016
911	-0.016
911	-0.016
912	-0.016
912	-0.015
913	-0.016
913	-0.016
913	-0.016
914	-0.017
914	-0.017
915	-0.018
915	-0.018
916	-0.019
916	-0.019
916	-0.019
917	-0.018
917	-0.018
918	-0.017
918	-0.016
918	-0.015
919	-0.013
919	-0.012
920	-0.01
920	-0.009
921	-0.007
921	-0.006
921	-0.005
922	-0.004
922	-0.003
923	-0.002
923	-0.001
924	-0.001
924	-0
924	-0
925	0
925	0.001
926	0.001
926	0.001
927	0.001
927	0.001
927	0.001
928	0.001
928	0.001
929	0.001
929	0.001
930	0.001
930	0
930	-0.001
931	-0.002
931	-0.003
932	-0.004
932	-0.005
933	-0.007
933	-0.008
933	-0.009
934	-0.01
934	-0.012
935	-0.013
935	-0.014
935	-0.015
936	-0.015
936	-0.015
937	-0.015
937	-0.015
938	-0.015
938	-0.015
938	-0.015
939	-0.014
939	-0.013
940	-0.012
940	-0.012
941	-0.011
941	-0.01
941	-0.009
942	-0.009
942	-0.008
943	-0.008
943	-0.008
944	-0.008
944	-0.007
944	-0.007
945	-0.007
945	-0.007
946	-0.007
946	-0.007
946	-0.007
947	-0.007
947	-0.007
948	-0.007
948	-0.007
949	-0.007
949	-0.007
949	-0.007
950	-0.007
950	-0.007
951	-0.007
951	-0.007
952	-0.007
952	-0.006
952	-0.006
953	-0.006
953	-0.005
954	-0.005
954	-0.005
955	-0.005
955	-0.005
955	-0.005
956	-0.004
956	-0.004
957	-0.004
957	-0.004
957	-0.004
958	-0.005
958	-0.005
959	-0.006
959	-0.006
960	-0.007
960	-0.008
960	-0.009
961	-0.01
961	-0.01
962	-0.011
962	-0.011
963	-0.011
963	-0.011
963	-0.01
964	-0.01
964	-0.009
965	-0.008
965	-0.007
966	-0.006
966	-0.005
966	-0.004
967	-0.003
967	-0.003
968	-0.003
968	-0.002
968	-0.002
969	-0.002
969	-0.002
970	-0.003
970	-0.003
971	-0.003
971	-0.004
971	-0.004
972	-0.005
972	-0.005
973	-0.006
973	-0.006
974	-0.007
974	-0.008
974	-0.009
975	-0.009
975	-0.01
976	-0.011
976	-0.012
976	-0.014
977	-0.015
977	-0.017
978	-0.018
978	-0.019
979	-0.02
979	-0.02
979	-0.021
980	-0.021
980	-0.021
981	-0.02
981	-0.02
982	-0.018
982	-0.017
982	-0.016
983	-0.014
983	-0.013
984	-0.011
984	-0.01
984	-0.009
985	-0.008
985	-0.007
986	-0.008
986	-0.008
987	-0.008
987	-0.009
987	-0.009
988	-0.01
988	-0.011
989	-0.012
989	-0.013
990	-0.014
990	-0.015
990	-0.016
991	-0.016
991	-0.017
992	-0.017
992	-0.017
992	-0.018
993	-0.019
993	-0.019
994	-0.02
994	-0.021
995	-0.021
995	-0.022
995	-0.023
996	-0.024
996	-0.025
997	-0.025
997	-0.026
997	-0.026
998	-0.025
998	-0.025
999	-0.024
999	-0.024
1000	-0.023
1000	-0.022
1000	-0.021
1001	-0.02
1001	-0.02
1002	-0.019
1002	-0.019
1003	-0.018
1003	-0.018
1003	-0.018
1004	-0.017
1004	-0.017
1005	-0.017
1005	-0.017
1005	-0.016
1006	-0.016
1006	-0.015
1007	-0.015
1007	-0.014
1008	-0.014
1008	-0.013
1008	-0.012
1009	-0.012
1009	-0.011
1010	-0.011
1010	-0.01
1010	-0.01
1011	-0.009
1011	-0.009
1012	-0.009
1012	-0.009
1013	-0.009
1013	-0.01
1013	-0.011
1014	-0.011
1014	-0.012
1015	-0.013
1015	-0.014
1016	-0.015
1016	-0.016
1016	-0.016
1017	-0.017
1017	-0.017
1018	-0.017
1018	-0.017
1018	-0.017
1019	-0.017
1019	-0.017
1020	-0.018
1020	-0.018
1021	-0.018
1021	-0.018
1021	-0.018
1022	-0.018
1022	-0.019
1023	-0.019
1023	-0.019
1023	-0.02
1024	-0.021
1024	-0.022
1025	-0.022
1025	-0.023
1026	-0.023
1026	-0.024
1026	-0.024
1027	-0.024
1027	-0.024
1028	-0.024
1028	-0.023
1028	-0.023
1029	-0.022
1029	-0.022
1030	-0.021
1030	-0.021
1031	-0.02
1031	-0.02
1031	-0.019
1032	-0.019
1032	-0.018
1033	-0.018
1033	-0.018
1033	-0.019
1034	-0.019
1034	-0.02
1035	-0.02
1035	-0.021
1036	-0.022
1036	-0.022
1036	-0.023
1037	-0.023
1037	-0.024
1038	-0.024
1038	-0.024
1039	-0.024
1039	-0.024
1039	-0.024
1040	-0.024
1040	-0.024
1041	-0.024
1041	-0.024
1041	-0.024
1042	-0.024
1042	-0.025
1043	-0.026
1043	-0.026
1044	-0.027
1044	-0.028
1044	-0.028
1045	-0.029
1045	-0.029
1046	-0.03
1046	-0.03
1046	-0.03
1047	-0.029
1047	-0.029
1048	-0.029
1048	-0.029
1049	-0.029
1049	-0.029
1049	-0.029
1050	-0.029
1050	-0.03
1051	-0.03
1051	-0.029
1051	-0.029
1052	-0.028
1052	-0.027
1053	-0.026
1053	-0.025
1053	-0.024
1054	-0.022
1054	-0.021
1055	-0.019
1055	-0.018
1056	-0.017
1056	-0.017
1056	-0.018
1057	-0.017
1057	-0.017
1058	-0.017
1058	-0.017
1058	-0.017
1059	-0.017
1059	-0.017
1060	-0.017
1060	-0.016
1061	-0.015
1061	-0.014
1061	-0.014
1062	-0.013
1062	-0.013
1063	-0.013
1063	-0.012
1063	-0.013
1064	-0.012
1064	-0.012
1065	-0.012
1065	-0.012
1066	-0.012
1066	-0.012
1066	-0.013
1067	-0.012
1067	-0.012
1068	-0.012
1068	-0.012
1068	-0.013
1069	-0.013
1069	-0.013
1070	-0.012
1070	-0.012
1071	-0.012
1071	-0.011
1071	-0.011
1072	-0.01
1072	-0.009
1073	-0.008
1073	-0.006
1073	-0.006
1074	-0.005
1074	-0.004
1075	-0.003
1075	-0.003
1076	-0.002
1076	-0.001
1076	-0.001
1077	-0.001
1077	-0
1078	0
1078	0.002
1078	0.003
1079	0.004
1079	0.006
1080	0.007
1080	0.009
1080	0.01
1081	0.011
1081	0.013
1082	0.015
1082	0.016
1083	0.017
1083	0.018
1083	0.02
1084	0.022
1084	0.023
1085	0.025
1085	0.027
1085	0.028
1086	0.029
1086	0.03
1087	0.032
1087	0.034
1088	0.035
1088	0.036
1088	0.038
1089	0.039
1089	0.041
1090	0.043
1090	0.046
1090	0.048
1091	0.052
1091	0.056
1092	0.06
1092	0.065
1092	0.07
1093	0.073
1093	0.08
1094	0.085
1094	0.091
1095	0.096
1095	0.102
1095	0.11
1096	0.116
1096	0.124
1097	0.134
1097	0.142
1097	0.152
1098	0.163
1098	0.174
1099	0.186
1099	0.201
1100	0.215
1100	0.23
1100	0.248
1101	0.265
1101	0.285
1102	0.311
1102	0.338
1102	0.369
1103	0.405
1103	0.446
1104	0.495
1104	0.552
1104	0.629
1105	0.719
1105	0.829
1106	0.976
1106	1.273
1107	-0
1107	-0
1107	-0
1108	-0
1108	-0
1109	-0
1109	-0
1109	-0
1110	-0
1110	-0
1111	-0
1111	-0
