Data from 15c-100ul-ns-20ul-nr-full-exp-7ul-bp_Absorbance__232__04570.txt Node

Date: Mon Jan 15 15:20:33 CET 2024
User: Marek
Spectrometer: MAYP115816
Trigger mode: 0
Integration Time (sec): 2.000000E-1
Scans to average: 10
Electric dark correction enabled: true
Nonlinearity correction enabled: true
Boxcar width: 5
XAxis mode: Wavelengths
Number of Pixels in Spectrum: 2068
>>>>>Begin Spectral Data<<<<<
199	-1.835
199	-1.706
200	-1.564
200	-1.455
201	-1.382
201	-1.333
202	-1.263
202	-1.209
203	-1.161
203	-1.123
204	-1.094
204	-1.071
205	-1.05
205	-1.041
205	-1.039
206	-1.037
206	-1.036
207	-1.032
207	-1.029
208	-1.027
208	-1.021
209	-1.02
209	-1.019
210	-1.019
210	-1.017
211	-1.015
211	-1.014
212	-1.011
212	-1.011
213	-1.011
213	-1.01
213	-1.011
214	-1.01
214	-1.011
215	-1.01
215	-1.011
216	-1.01
216	-1.009
217	-1.009
217	-1.007
218	-1.006
218	-1.002
219	-1
219	-0.999
220	-0.994
220	-0.99
221	-0.986
221	-0.981
221	-0.976
222	-0.972
222	-0.967
223	-0.959
223	-0.956
224	-0.95
224	-0.942
225	-0.933
225	-0.923
226	-0.913
226	-0.903
227	-0.888
227	-0.871
228	-0.852
228	-0.832
229	-0.808
229	-0.779
229	-0.751
230	-0.719
230	-0.685
231	-0.646
231	-0.607
232	-0.567
232	-0.524
233	-0.48
233	-0.435
234	-0.392
234	-0.347
235	-0.303
235	-0.261
236	-0.22
236	-0.18
236	-0.141
237	-0.105
237	-0.071
238	-0.039
238	-0.01
239	0.019
239	0.044
240	0.066
240	0.087
241	0.106
241	0.123
242	0.139
242	0.153
243	0.166
243	0.178
243	0.189
244	0.198
244	0.207
245	0.215
245	0.222
246	0.229
246	0.236
247	0.241
247	0.246
248	0.251
248	0.255
249	0.259
249	0.263
250	0.266
250	0.27
250	0.273
251	0.276
251	0.279
252	0.281
252	0.284
253	0.286
253	0.288
254	0.29
254	0.292
255	0.293
255	0.295
256	0.296
256	0.297
257	0.298
257	0.299
258	0.3
258	0.301
258	0.301
259	0.301
259	0.302
260	0.302
260	0.302
261	0.302
261	0.302
262	0.302
262	0.301
263	0.301
263	0.3
264	0.3
264	0.299
265	0.298
265	0.297
265	0.296
266	0.296
266	0.295
267	0.294
267	0.292
268	0.291
268	0.29
269	0.288
269	0.287
270	0.285
270	0.284
271	0.282
271	0.28
272	0.279
272	0.277
272	0.276
273	0.274
273	0.272
274	0.271
274	0.269
275	0.267
275	0.265
276	0.264
276	0.262
277	0.26
277	0.258
278	0.256
278	0.255
278	0.252
279	0.25
279	0.247
280	0.245
280	0.243
281	0.241
281	0.239
282	0.237
282	0.235
283	0.233
283	0.232
284	0.23
284	0.229
285	0.228
285	0.226
285	0.225
286	0.223
286	0.222
287	0.22
287	0.219
288	0.218
288	0.217
289	0.215
289	0.214
290	0.213
290	0.212
291	0.21
291	0.209
292	0.208
292	0.207
292	0.205
293	0.204
293	0.203
294	0.202
294	0.201
295	0.2
295	0.199
296	0.198
296	0.197
297	0.197
297	0.196
298	0.195
298	0.194
298	0.193
299	0.193
299	0.192
300	0.191
300	0.19
301	0.19
301	0.189
302	0.188
302	0.188
303	0.187
303	0.186
304	0.186
304	0.185
305	0.184
305	0.183
305	0.183
306	0.182
306	0.182
307	0.181
307	0.18
308	0.179
308	0.179
309	0.178
309	0.177
310	0.176
310	0.176
311	0.175
311	0.175
311	0.174
312	0.173
312	0.173
313	0.172
313	0.171
314	0.17
314	0.17
315	0.169
315	0.168
316	0.168
316	0.167
317	0.166
317	0.166
318	0.165
318	0.164
318	0.164
319	0.163
319	0.162
320	0.162
320	0.161
321	0.16
321	0.159
322	0.159
322	0.158
323	0.158
323	0.157
324	0.156
324	0.156
324	0.155
325	0.154
325	0.154
326	0.153
326	0.152
327	0.152
327	0.151
328	0.151
328	0.15
329	0.149
329	0.149
330	0.148
330	0.147
330	0.147
331	0.146
331	0.146
332	0.145
332	0.144
333	0.144
333	0.143
334	0.142
334	0.142
335	0.141
335	0.14
336	0.14
336	0.139
336	0.139
337	0.138
337	0.137
338	0.137
338	0.136
339	0.136
339	0.135
340	0.135
340	0.134
341	0.134
341	0.133
342	0.133
342	0.132
342	0.132
343	0.132
343	0.131
344	0.131
344	0.13
345	0.13
345	0.129
346	0.129
346	0.129
347	0.128
347	0.128
348	0.127
348	0.127
348	0.126
349	0.126
349	0.125
350	0.125
350	0.125
351	0.124
351	0.123
352	0.123
352	0.122
353	0.122
353	0.121
354	0.121
354	0.12
354	0.12
355	0.119
355	0.118
356	0.118
356	0.119
357	0.119
357	0.119
358	0.119
358	0.119
359	0.119
359	0.119
360	0.119
360	0.119
360	0.119
361	0.119
361	0.119
362	0.119
362	0.118
363	0.118
363	0.118
364	0.118
364	0.117
365	0.117
365	0.117
366	0.117
366	0.117
366	0.117
367	0.116
367	0.116
368	0.116
368	0.116
369	0.115
369	0.115
370	0.115
370	0.115
371	0.114
371	0.114
372	0.114
372	0.113
372	0.113
373	0.113
373	0.113
374	0.113
374	0.113
375	0.113
375	0.113
376	0.113
376	0.113
377	0.113
377	0.113
378	0.113
378	0.113
378	0.113
379	0.113
379	0.113
380	0.113
380	0.113
381	0.113
381	0.112
382	0.112
382	0.112
383	0.112
383	0.111
383	0.111
384	0.111
384	0.111
385	0.11
385	0.11
386	0.11
386	0.11
387	0.11
387	0.11
388	0.109
388	0.109
389	0.109
389	0.109
389	0.109
390	0.109
390	0.109
391	0.109
391	0.11
392	0.109
392	0.109
393	0.109
393	0.109
394	0.109
394	0.109
394	0.108
395	0.108
395	0.107
396	0.107
396	0.107
397	0.107
397	0.107
398	0.107
398	0.107
399	0.107
399	0.107
400	0.107
400	0.107
400	0.107
401	0.106
401	0.105
402	0.105
402	0.104
403	0.104
403	0.104
404	0.104
404	0.104
405	0.104
405	0.103
405	0.103
406	0.103
406	0.103
407	0.103
407	0.103
408	0.103
408	0.102
409	0.102
409	0.102
410	0.102
410	0.102
411	0.101
411	0.101
411	0.101
412	0.1
412	0.1
413	0.1
413	0.099
414	0.099
414	0.099
415	0.098
415	0.098
416	0.097
416	0.097
416	0.096
417	0.096
417	0.096
418	0.096
418	0.097
419	0.097
419	0.097
420	0.098
420	0.098
421	0.098
421	0.099
421	0.099
422	0.099
422	0.099
423	0.099
423	0.099
424	0.098
424	0.097
425	0.097
425	0.096
426	0.096
426	0.096
427	0.096
427	0.096
427	0.096
428	0.097
428	0.097
429	0.098
429	0.098
430	0.098
430	0.097
431	0.097
431	0.097
432	0.096
432	0.096
432	0.095
433	0.094
433	0.094
434	0.093
434	0.093
435	0.093
435	0.093
436	0.093
436	0.093
437	0.093
437	0.093
437	0.093
438	0.093
438	0.093
439	0.093
439	0.092
440	0.092
440	0.092
441	0.092
441	0.092
442	0.093
442	0.093
442	0.093
443	0.093
443	0.093
444	0.093
444	0.093
445	0.093
445	0.093
446	0.093
446	0.093
447	0.093
447	0.093
447	0.093
448	0.093
448	0.092
449	0.092
449	0.092
450	0.091
450	0.091
451	0.091
451	0.09
452	0.09
452	0.09
452	0.09
453	0.089
453	0.089
454	0.089
454	0.089
455	0.089
455	0.089
456	0.089
456	0.089
457	0.089
457	0.089
458	0.089
458	0.089
458	0.09
459	0.09
459	0.09
460	0.089
460	0.089
461	0.089
461	0.089
462	0.088
462	0.089
463	0.089
463	0.089
463	0.09
464	0.09
464	0.09
465	0.09
465	0.09
466	0.09
466	0.09
467	0.09
467	0.089
467	0.088
468	0.087
468	0.086
469	0.086
469	0.085
470	0.085
470	0.085
471	0.085
471	0.085
472	0.085
472	0.086
472	0.087
473	0.087
473	0.088
474	0.089
474	0.089
475	0.09
475	0.09
476	0.09
476	0.09
477	0.09
477	0.091
477	0.091
478	0.091
478	0.091
479	0.091
479	0.092
480	0.092
480	0.093
481	0.094
481	0.094
482	0.095
482	0.096
482	0.097
483	0.099
483	0.102
484	0.103
484	0.104
485	0.105
485	0.106
486	0.106
486	0.107
487	0.107
487	0.108
487	0.108
488	0.107
488	0.106
489	0.106
489	0.106
490	0.106
490	0.106
491	0.106
491	0.107
492	0.107
492	0.108
492	0.109
493	0.11
493	0.111
494	0.113
494	0.115
495	0.117
495	0.118
496	0.119
496	0.121
496	0.122
497	0.123
497	0.125
498	0.125
498	0.126
499	0.126
499	0.127
500	0.127
500	0.128
501	0.129
501	0.13
501	0.131
502	0.132
502	0.133
503	0.134
503	0.135
504	0.136
504	0.137
505	0.138
505	0.138
506	0.139
506	0.14
506	0.141
507	0.141
507	0.142
508	0.143
508	0.144
509	0.145
509	0.146
510	0.147
510	0.148
511	0.149
511	0.15
511	0.15
512	0.151
512	0.151
513	0.151
513	0.151
514	0.151
514	0.152
515	0.151
515	0.151
515	0.15
516	0.15
516	0.15
517	0.151
517	0.151
518	0.152
518	0.152
519	0.152
519	0.151
520	0.15
520	0.15
520	0.149
521	0.147
521	0.146
522	0.144
522	0.142
523	0.141
523	0.14
524	0.14
524	0.14
524	0.14
525	0.141
525	0.143
526	0.144
526	0.146
527	0.148
527	0.15
528	0.152
528	0.153
529	0.154
529	0.155
529	0.155
530	0.155
530	0.155
531	0.155
531	0.155
532	0.155
532	0.154
533	0.154
533	0.153
533	0.153
534	0.151
534	0.15
535	0.15
535	0.149
536	0.149
536	0.148
537	0.147
537	0.146
538	0.145
538	0.144
538	0.143
539	0.142
539	0.141
540	0.14
540	0.138
541	0.136
541	0.135
542	0.134
542	0.132
542	0.131
543	0.13
543	0.128
544	0.127
544	0.126
545	0.126
545	0.125
546	0.124
546	0.123
547	0.121
547	0.119
547	0.118
548	0.116
548	0.114
549	0.112
549	0.111
550	0.109
550	0.107
551	0.104
551	0.103
551	0.101
552	0.1
552	0.099
553	0.098
553	0.097
554	0.096
554	0.095
555	0.093
555	0.091
556	0.09
556	0.087
556	0.085
557	0.084
557	0.082
558	0.08
558	0.078
559	0.077
559	0.075
560	0.074
560	0.073
560	0.072
561	0.072
561	0.072
562	0.071
562	0.07
563	0.068
563	0.067
564	0.065
564	0.063
564	0.062
565	0.061
565	0.06
566	0.058
566	0.057
567	0.056
567	0.056
568	0.056
568	0.056
568	0.057
569	0.057
569	0.057
570	0.057
570	0.055
571	0.056
571	0.056
572	0.055
572	0.054
573	0.053
573	0.052
573	0.051
574	0.05
574	0.049
575	0.049
575	0.05
576	0.05
576	0.048
577	0.046
577	0.046
577	0.045
578	0.045
578	0.045
579	0.047
579	0.048
580	0.046
580	0.043
581	0.04
581	0.039
581	0.04
582	0.04
582	0.04
583	0.041
583	0.039
584	0.036
584	0.032
585	0.032
585	0.033
585	0.033
586	0.033
586	0.032
587	0.03
587	0.028
588	0.026
588	0.025
589	0.025
589	0.025
590	0.024
590	0.024
590	0.026
591	0.026
591	0.026
592	0.026
592	0.025
593	0.025
593	0.025
594	0.024
594	0.022
594	0.022
595	0.022
595	0.02
596	0.019
596	0.021
597	0.024
597	0.025
598	0.025
598	0.026
598	0.027
599	0.027
599	0.026
600	0.025
600	0.024
601	0.023
601	0.022
602	0.02
602	0.019
602	0.018
603	0.018
603	0.019
604	0.019
604	0.02
605	0.021
605	0.023
606	0.023
606	0.022
606	0.021
607	0.021
607	0.021
608	0.021
608	0.019
609	0.019
609	0.019
610	0.018
610	0.018
610	0.018
611	0.02
611	0.021
612	0.022
612	0.024
613	0.025
613	0.026
614	0.026
614	0.025
614	0.025
615	0.024
615	0.024
616	0.024
616	0.023
617	0.022
617	0.021
618	0.021
618	0.021
618	0.021
619	0.022
619	0.023
620	0.025
620	0.026
621	0.026
621	0.027
622	0.027
622	0.028
622	0.028
623	0.028
623	0.029
624	0.03
624	0.029
625	0.029
625	0.029
626	0.029
626	0.029
626	0.03
627	0.031
627	0.032
628	0.033
628	0.034
629	0.034
629	0.034
630	0.034
630	0.034
630	0.035
631	0.036
631	0.036
632	0.036
632	0.037
633	0.038
633	0.039
634	0.041
634	0.043
634	0.045
635	0.046
635	0.047
636	0.048
636	0.05
637	0.05
637	0.051
638	0.052
638	0.053
638	0.054
639	0.055
639	0.055
640	0.056
640	0.057
641	0.058
641	0.059
642	0.06
642	0.062
642	0.063
643	0.064
643	0.066
644	0.068
644	0.069
645	0.071
645	0.073
646	0.076
646	0.078
646	0.081
647	0.084
647	0.086
648	0.088
648	0.09
649	0.092
649	0.094
650	0.096
650	0.098
650	0.1
651	0.102
651	0.104
652	0.106
652	0.108
653	0.111
653	0.12
653	0.133
654	0.109
654	0.091
655	0.092
655	0.094
656	0.096
656	0.098
657	0.1
657	0.102
657	0.103
658	0.1
658	0.091
659	0.113
659	0.143
660	0.15
660	0.153
661	0.154
661	0.156
661	0.159
662	0.162
662	0.165
663	0.168
663	0.171
664	0.173
664	0.176
665	0.179
665	0.181
665	0.184
666	0.186
666	0.188
667	0.19
667	0.192
668	0.195
668	0.197
669	0.2
669	0.202
669	0.206
670	0.209
670	0.211
671	0.213
671	0.215
672	0.217
672	0.218
672	0.22
673	0.221
673	0.223
674	0.224
674	0.224
675	0.225
675	0.227
676	0.23
676	0.232
676	0.233
677	0.235
677	0.237
678	0.238
678	0.239
679	0.24
679	0.24
680	0.242
680	0.242
680	0.242
681	0.242
681	0.243
682	0.243
682	0.245
683	0.246
683	0.248
684	0.25
684	0.25
684	0.251
685	0.252
685	0.253
686	0.253
686	0.254
687	0.254
687	0.254
687	0.254
688	0.253
688	0.252
689	0.253
689	0.254
690	0.254
690	0.253
691	0.252
691	0.252
691	0.251
692	0.25
692	0.25
693	0.249
693	0.249
694	0.248
694	0.246
695	0.247
695	0.248
695	0.248
696	0.248
696	0.247
697	0.247
697	0.246
698	0.245
698	0.243
698	0.242
699	0.241
699	0.239
700	0.236
700	0.235
701	0.234
701	0.232
702	0.23
702	0.229
702	0.228
703	0.226
703	0.225
704	0.223
704	0.222
705	0.221
705	0.219
705	0.218
706	0.216
706	0.214
707	0.213
707	0.21
708	0.208
708	0.206
709	0.204
709	0.202
709	0.198
710	0.195
710	0.193
711	0.192
711	0.19
712	0.188
712	0.186
713	0.185
713	0.183
713	0.181
714	0.179
714	0.178
715	0.176
715	0.174
716	0.172
716	0.171
716	0.169
717	0.167
717	0.165
718	0.162
718	0.16
719	0.158
719	0.156
720	0.153
720	0.151
720	0.147
721	0.144
721	0.141
722	0.139
722	0.136
723	0.133
723	0.132
723	0.129
724	0.127
724	0.125
725	0.123
725	0.122
726	0.121
726	0.12
727	0.119
727	0.118
727	0.116
728	0.115
728	0.113
729	0.113
729	0.112
730	0.111
730	0.109
730	0.108
731	0.106
731	0.105
732	0.103
732	0.101
733	0.099
733	0.097
734	0.095
734	0.092
734	0.09
735	0.089
735	0.086
736	0.084
736	0.082
737	0.08
737	0.079
737	0.077
738	0.075
738	0.072
739	0.07
739	0.068
740	0.066
740	0.064
741	0.063
741	0.06
741	0.057
742	0.054
742	0.052
743	0.05
743	0.048
744	0.046
744	0.045
744	0.043
745	0.041
745	0.039
746	0.037
746	0.036
747	0.035
747	0.034
748	0.034
748	0.032
748	0.031
749	0.03
749	0.03
750	0.029
750	0.029
751	0.029
751	0.029
751	0.029
752	0.028
752	0.027
753	0.026
753	0.026
754	0.025
754	0.024
754	0.024
755	0.023
755	0.023
756	0.022
756	0.02
757	0.018
757	0.018
758	0.017
758	0.016
758	0.015
759	0.014
759	0.012
760	0.01
760	0.008
761	0.007
761	0.006
761	0.005
762	0.004
762	0.003
763	0.003
763	0
764	-0.002
764	-0.004
764	-0.007
765	-0.009
765	-0.011
766	-0.012
766	-0.013
767	-0.015
767	-0.018
768	-0.02
768	-0.022
768	-0.023
769	-0.024
769	-0.024
770	-0.025
770	-0.027
771	-0.029
771	-0.031
771	-0.034
772	-0.035
772	-0.036
773	-0.038
773	-0.04
774	-0.042
774	-0.044
775	-0.046
775	-0.048
775	-0.051
776	-0.054
776	-0.056
777	-0.058
777	-0.061
778	-0.064
778	-0.067
778	-0.069
779	-0.071
779	-0.072
780	-0.075
780	-0.079
781	-0.082
781	-0.087
781	-0.091
782	-0.096
782	-0.101
783	-0.106
783	-0.11
784	-0.114
784	-0.118
784	-0.121
785	-0.124
785	-0.127
786	-0.127
786	-0.125
787	-0.12
787	-0.116
788	-0.115
788	-0.115
788	-0.116
789	-0.117
789	-0.117
790	-0.113
790	-0.111
791	-0.112
791	-0.113
791	-0.115
792	-0.11
792	-0.1
793	-0.095
793	-0.091
794	-0.09
794	-0.092
794	-0.097
795	-0.099
795	-0.099
796	-0.1
796	-0.102
797	-0.11
797	-0.12
797	-0.126
798	-0.131
798	-0.134
799	-0.135
799	-0.134
800	-0.134
800	-0.136
801	-0.14
801	-0.141
801	-0.141
802	-0.143
802	-0.145
803	-0.145
803	-0.146
804	-0.144
804	-0.139
804	-0.133
805	-0.129
805	-0.126
806	-0.124
806	-0.123
807	-0.122
807	-0.121
807	-0.121
808	-0.121
808	-0.122
809	-0.126
809	-0.132
810	-0.135
810	-0.138
810	-0.141
811	-0.143
811	-0.143
812	-0.139
812	-0.135
813	-0.134
813	-0.135
813	-0.135
814	-0.135
814	-0.135
815	-0.132
815	-0.129
816	-0.128
816	-0.128
817	-0.133
817	-0.136
817	-0.137
818	-0.137
818	-0.134
819	-0.129
819	-0.126
820	-0.127
820	-0.127
820	-0.126
821	-0.123
821	-0.119
822	-0.115
822	-0.11
823	-0.104
823	-0.102
823	-0.1
824	-0.097
824	-0.09
825	-0.084
825	-0.078
826	-0.073
826	-0.069
826	-0.065
827	-0.061
827	-0.057
828	-0.054
828	-0.052
829	-0.049
829	-0.047
829	-0.046
830	-0.045
830	-0.043
831	-0.042
831	-0.041
832	-0.04
832	-0.039
832	-0.038
833	-0.037
833	-0.037
834	-0.036
834	-0.036
835	-0.035
835	-0.035
835	-0.034
836	-0.034
836	-0.034
837	-0.034
837	-0.033
838	-0.033
838	-0.034
839	-0.034
839	-0.034
839	-0.034
840	-0.034
840	-0.034
841	-0.034
841	-0.033
842	-0.033
842	-0.032
842	-0.032
843	-0.031
843	-0.03
844	-0.029
844	-0.029
845	-0.028
845	-0.027
845	-0.027
846	-0.026
846	-0.026
847	-0.026
847	-0.026
848	-0.026
848	-0.027
848	-0.027
849	-0.027
849	-0.028
850	-0.029
850	-0.029
851	-0.03
851	-0.03
851	-0.03
852	-0.03
852	-0.03
853	-0.03
853	-0.03
854	-0.029
854	-0.028
854	-0.028
855	-0.027
855	-0.026
856	-0.025
856	-0.025
857	-0.024
857	-0.023
857	-0.022
858	-0.022
858	-0.021
859	-0.021
859	-0.021
860	-0.02
860	-0.02
860	-0.02
861	-0.02
861	-0.02
862	-0.02
862	-0.02
863	-0.02
863	-0.02
863	-0.02
864	-0.021
864	-0.021
865	-0.021
865	-0.021
866	-0.022
866	-0.023
866	-0.023
867	-0.023
867	-0.022
868	-0.022
868	-0.021
869	-0.02
869	-0.019
869	-0.019
870	-0.018
870	-0.017
871	-0.015
871	-0.015
872	-0.014
872	-0.014
872	-0.013
873	-0.013
873	-0.013
874	-0.013
874	-0.013
875	-0.013
875	-0.013
875	-0.014
876	-0.014
876	-0.014
877	-0.015
877	-0.016
878	-0.016
878	-0.017
878	-0.017
879	-0.018
879	-0.019
880	-0.019
880	-0.019
881	-0.019
881	-0.019
881	-0.019
882	-0.018
882	-0.018
883	-0.017
883	-0.016
884	-0.016
884	-0.015
884	-0.014
885	-0.014
885	-0.013
886	-0.013
886	-0.013
887	-0.013
887	-0.013
887	-0.013
888	-0.013
888	-0.012
889	-0.011
889	-0.011
890	-0.01
890	-0.009
890	-0.009
891	-0.008
891	-0.008
892	-0.008
892	-0.008
893	-0.009
893	-0.009
893	-0.01
894	-0.011
894	-0.012
895	-0.013
895	-0.013
895	-0.014
896	-0.015
896	-0.016
897	-0.016
897	-0.016
898	-0.017
898	-0.017
898	-0.017
899	-0.017
899	-0.017
900	-0.017
900	-0.017
901	-0.017
901	-0.017
901	-0.017
902	-0.017
902	-0.017
903	-0.017
903	-0.018
904	-0.018
904	-0.018
904	-0.019
905	-0.019
905	-0.02
906	-0.02
906	-0.021
907	-0.021
907	-0.022
907	-0.023
908	-0.023
908	-0.024
909	-0.024
909	-0.024
910	-0.023
910	-0.023
910	-0.023
911	-0.023
911	-0.022
912	-0.022
912	-0.022
913	-0.022
913	-0.022
913	-0.022
914	-0.023
914	-0.023
915	-0.024
915	-0.024
916	-0.025
916	-0.025
916	-0.025
917	-0.025
917	-0.024
918	-0.024
918	-0.022
918	-0.021
919	-0.02
919	-0.018
920	-0.016
920	-0.015
921	-0.014
921	-0.012
921	-0.011
922	-0.01
922	-0.009
923	-0.008
923	-0.007
924	-0.006
924	-0.006
924	-0.005
925	-0.005
925	-0.004
926	-0.004
926	-0.004
927	-0.004
927	-0.004
927	-0.004
928	-0.004
928	-0.004
929	-0.004
929	-0.004
930	-0.005
930	-0.005
930	-0.006
931	-0.007
931	-0.008
932	-0.009
932	-0.01
933	-0.011
933	-0.013
933	-0.014
934	-0.016
934	-0.017
935	-0.018
935	-0.019
935	-0.02
936	-0.021
936	-0.021
937	-0.021
937	-0.021
938	-0.021
938	-0.021
938	-0.021
939	-0.021
939	-0.02
940	-0.019
940	-0.019
941	-0.018
941	-0.017
941	-0.016
942	-0.016
942	-0.015
943	-0.014
943	-0.014
944	-0.014
944	-0.014
944	-0.014
945	-0.013
945	-0.013
946	-0.013
946	-0.013
946	-0.013
947	-0.013
947	-0.013
948	-0.013
948	-0.013
949	-0.013
949	-0.013
949	-0.013
950	-0.013
950	-0.013
951	-0.013
951	-0.013
952	-0.013
952	-0.012
952	-0.012
953	-0.012
953	-0.011
954	-0.011
954	-0.011
955	-0.011
955	-0.011
955	-0.011
956	-0.01
956	-0.01
957	-0.01
957	-0.01
957	-0.011
958	-0.011
958	-0.011
959	-0.012
959	-0.012
960	-0.013
960	-0.014
960	-0.015
961	-0.016
961	-0.016
962	-0.017
962	-0.017
963	-0.017
963	-0.017
963	-0.017
964	-0.016
964	-0.016
965	-0.015
965	-0.014
966	-0.013
966	-0.011
966	-0.01
967	-0.009
967	-0.008
968	-0.008
968	-0.008
968	-0.007
969	-0.007
969	-0.007
970	-0.007
970	-0.007
971	-0.008
971	-0.008
971	-0.009
972	-0.009
972	-0.01
973	-0.01
973	-0.011
974	-0.012
974	-0.013
974	-0.014
975	-0.015
975	-0.016
976	-0.017
976	-0.018
976	-0.02
977	-0.021
977	-0.023
978	-0.024
978	-0.025
979	-0.026
979	-0.027
979	-0.027
980	-0.028
980	-0.028
981	-0.028
981	-0.027
982	-0.026
982	-0.025
982	-0.024
983	-0.022
983	-0.021
984	-0.019
984	-0.018
984	-0.017
985	-0.016
985	-0.015
986	-0.015
986	-0.015
987	-0.015
987	-0.015
987	-0.016
988	-0.017
988	-0.017
989	-0.019
989	-0.02
990	-0.021
990	-0.022
990	-0.022
991	-0.022
991	-0.023
992	-0.023
992	-0.024
992	-0.024
993	-0.025
993	-0.025
994	-0.026
994	-0.026
995	-0.027
995	-0.028
995	-0.029
996	-0.029
996	-0.03
997	-0.031
997	-0.031
997	-0.031
998	-0.03
998	-0.03
999	-0.029
999	-0.029
1000	-0.028
1000	-0.027
1000	-0.026
1001	-0.025
1001	-0.025
1002	-0.024
1002	-0.024
1003	-0.024
1003	-0.023
1003	-0.023
1004	-0.023
1004	-0.023
1005	-0.023
1005	-0.023
1005	-0.022
1006	-0.022
1006	-0.022
1007	-0.021
1007	-0.021
1008	-0.02
1008	-0.02
1008	-0.019
1009	-0.019
1009	-0.018
1010	-0.018
1010	-0.017
1010	-0.017
1011	-0.017
1011	-0.017
1012	-0.017
1012	-0.017
1013	-0.017
1013	-0.018
1013	-0.018
1014	-0.019
1014	-0.02
1015	-0.021
1015	-0.022
1016	-0.023
1016	-0.023
1016	-0.024
1017	-0.025
1017	-0.025
1018	-0.026
1018	-0.026
1018	-0.026
1019	-0.025
1019	-0.026
1020	-0.026
1020	-0.026
1021	-0.026
1021	-0.026
1021	-0.026
1022	-0.026
1022	-0.026
1023	-0.027
1023	-0.027
1023	-0.028
1024	-0.029
1024	-0.03
1025	-0.03
1025	-0.031
1026	-0.031
1026	-0.032
1026	-0.032
1027	-0.032
1027	-0.032
1028	-0.032
1028	-0.031
1028	-0.031
1029	-0.03
1029	-0.03
1030	-0.029
1030	-0.029
1031	-0.028
1031	-0.027
1031	-0.027
1032	-0.026
1032	-0.026
1033	-0.026
1033	-0.026
1033	-0.026
1034	-0.026
1034	-0.027
1035	-0.028
1035	-0.028
1036	-0.029
1036	-0.03
1036	-0.03
1037	-0.031
1037	-0.032
1038	-0.032
1038	-0.032
1039	-0.032
1039	-0.032
1039	-0.033
1040	-0.033
1040	-0.033
1041	-0.033
1041	-0.034
1041	-0.034
1042	-0.034
1042	-0.035
1043	-0.035
1043	-0.036
1044	-0.037
1044	-0.038
1044	-0.038
1045	-0.039
1045	-0.039
1046	-0.04
1046	-0.04
1046	-0.04
1047	-0.04
1047	-0.039
1048	-0.039
1048	-0.039
1049	-0.039
1049	-0.039
1049	-0.039
1050	-0.039
1050	-0.04
1051	-0.04
1051	-0.04
1051	-0.039
1052	-0.038
1052	-0.038
1053	-0.037
1053	-0.036
1053	-0.035
1054	-0.034
1054	-0.033
1055	-0.031
1055	-0.03
1056	-0.03
1056	-0.03
1056	-0.03
1057	-0.03
1057	-0.03
1058	-0.03
1058	-0.03
1058	-0.03
1059	-0.03
1059	-0.03
1060	-0.03
1060	-0.03
1061	-0.03
1061	-0.03
1061	-0.029
1062	-0.029
1062	-0.029
1063	-0.029
1063	-0.029
1063	-0.03
1064	-0.03
1064	-0.029
1065	-0.029
1065	-0.03
1066	-0.029
1066	-0.03
1066	-0.03
1067	-0.03
1067	-0.029
1068	-0.029
1068	-0.029
1068	-0.029
1069	-0.03
1069	-0.03
1070	-0.029
1070	-0.029
1071	-0.029
1071	-0.028
1071	-0.028
1072	-0.027
1072	-0.026
1073	-0.026
1073	-0.025
1073	-0.024
1074	-0.023
1074	-0.022
1075	-0.022
1075	-0.022
1076	-0.022
1076	-0.021
1076	-0.022
1077	-0.022
1077	-0.021
1078	-0.021
1078	-0.02
1078	-0.019
1079	-0.018
1079	-0.017
1080	-0.015
1080	-0.014
1080	-0.014
1081	-0.012
1081	-0.011
1082	-0.01
1082	-0.009
1083	-0.008
1083	-0.008
1083	-0.006
1084	-0.006
1084	-0.005
1085	-0.004
1085	-0.002
1085	-0.001
1086	0
1086	-0
1087	0.001
1087	0.003
1088	0.004
1088	0.004
1088	0.005
1089	0.006
1089	0.007
1090	0.008
1090	0.009
1090	0.01
1091	0.013
1091	0.016
1092	0.018
1092	0.021
1092	0.024
1093	0.027
1093	0.031
1094	0.034
1094	0.038
1095	0.041
1095	0.045
1095	0.051
1096	0.055
1096	0.06
1097	0.067
1097	0.072
1097	0.078
1098	0.083
1098	0.091
1099	0.098
1099	0.107
1100	0.115
1100	0.124
1100	0.134
1101	0.144
1101	0.154
1102	0.168
1102	0.181
1102	0.197
1103	0.214
1103	0.232
1104	0.255
1104	0.278
1104	0.306
1105	0.335
1105	0.366
1106	0.398
1106	0.439
1107	0.491
1107	0.567
1107	0.676
1108	1.365
1108	-0
1109	-0
1109	-0
1109	-0
1110	-0
1110	-0
1111	-0
1111	-0
