Data from 15c-100ul-ns-20ul-nr-full-exp-7ul-bp_Absorbance__197__04535.txt Node

Date: Mon Jan 15 15:19:23 CET 2024
User: Marek
Spectrometer: MAYP115816
Trigger mode: 0
Integration Time (sec): 2.000000E-1
Scans to average: 10
Electric dark correction enabled: true
Nonlinearity correction enabled: true
Boxcar width: 5
XAxis mode: Wavelengths
Number of Pixels in Spectrum: 2068
>>>>>Begin Spectral Data<<<<<
199	-2.038
199	-1.907
200	-1.763
200	-1.652
201	-1.578
201	-1.527
202	-1.455
202	-1.398
203	-1.348
203	-1.307
204	-1.278
204	-1.255
205	-1.234
205	-1.225
205	-1.222
206	-1.22
206	-1.219
207	-1.214
207	-1.211
208	-1.21
208	-1.204
209	-1.202
209	-1.201
210	-1.2
210	-1.198
211	-1.196
211	-1.194
212	-1.191
212	-1.191
213	-1.191
213	-1.189
213	-1.189
214	-1.188
214	-1.189
215	-1.188
215	-1.188
216	-1.187
216	-1.186
217	-1.186
217	-1.185
218	-1.184
218	-1.18
219	-1.179
219	-1.178
220	-1.173
220	-1.168
221	-1.164
221	-1.16
221	-1.155
222	-1.15
222	-1.144
223	-1.136
223	-1.132
224	-1.126
224	-1.119
225	-1.11
225	-1.099
226	-1.089
226	-1.078
227	-1.063
227	-1.046
228	-1.027
228	-1.007
229	-0.983
229	-0.953
229	-0.924
230	-0.892
230	-0.857
231	-0.818
231	-0.778
232	-0.737
232	-0.692
233	-0.647
233	-0.601
234	-0.554
234	-0.507
235	-0.46
235	-0.415
236	-0.371
236	-0.327
236	-0.285
237	-0.244
237	-0.207
238	-0.171
238	-0.137
239	-0.105
239	-0.076
240	-0.049
240	-0.024
241	-0.001
241	0.02
242	0.039
242	0.057
243	0.073
243	0.088
243	0.102
244	0.114
244	0.126
245	0.136
245	0.145
246	0.154
246	0.162
247	0.169
247	0.176
248	0.183
248	0.189
249	0.194
249	0.199
250	0.204
250	0.208
250	0.213
251	0.217
251	0.22
252	0.224
252	0.227
253	0.23
253	0.233
254	0.235
254	0.238
255	0.24
255	0.242
256	0.244
256	0.246
257	0.247
257	0.248
258	0.25
258	0.251
258	0.252
259	0.253
259	0.253
260	0.254
260	0.255
261	0.255
261	0.255
262	0.255
262	0.255
263	0.255
263	0.254
264	0.254
264	0.254
265	0.253
265	0.253
265	0.252
266	0.251
266	0.251
267	0.25
267	0.249
268	0.248
268	0.247
269	0.246
269	0.245
270	0.243
270	0.242
271	0.241
271	0.24
272	0.239
272	0.238
272	0.237
273	0.235
273	0.234
274	0.233
274	0.232
275	0.23
275	0.229
276	0.228
276	0.226
277	0.224
277	0.223
278	0.221
278	0.22
278	0.218
279	0.215
279	0.213
280	0.212
280	0.21
281	0.208
281	0.207
282	0.206
282	0.204
283	0.203
283	0.202
284	0.201
284	0.201
285	0.2
285	0.198
285	0.197
286	0.196
286	0.195
287	0.194
287	0.193
288	0.192
288	0.191
289	0.19
289	0.189
290	0.188
290	0.187
291	0.186
291	0.185
292	0.184
292	0.183
292	0.182
293	0.181
293	0.18
294	0.179
294	0.179
295	0.178
295	0.177
296	0.176
296	0.176
297	0.175
297	0.174
298	0.174
298	0.173
298	0.172
299	0.172
299	0.171
300	0.17
300	0.17
301	0.169
301	0.168
302	0.168
302	0.167
303	0.167
303	0.166
304	0.166
304	0.165
305	0.164
305	0.164
305	0.163
306	0.163
306	0.162
307	0.161
307	0.16
308	0.16
308	0.159
309	0.158
309	0.158
310	0.157
310	0.156
311	0.156
311	0.155
311	0.155
312	0.154
312	0.153
313	0.153
313	0.152
314	0.151
314	0.151
315	0.15
315	0.149
316	0.149
316	0.148
317	0.147
317	0.147
318	0.146
318	0.145
318	0.145
319	0.144
319	0.143
320	0.143
320	0.142
321	0.141
321	0.14
322	0.14
322	0.139
323	0.138
323	0.137
324	0.137
324	0.136
324	0.135
325	0.135
325	0.134
326	0.133
326	0.133
327	0.132
327	0.132
328	0.131
328	0.131
329	0.13
329	0.129
330	0.129
330	0.128
330	0.128
331	0.127
331	0.126
332	0.126
332	0.125
333	0.125
333	0.124
334	0.124
334	0.123
335	0.122
335	0.122
336	0.121
336	0.12
336	0.12
337	0.119
337	0.118
338	0.118
338	0.117
339	0.117
339	0.116
340	0.116
340	0.115
341	0.115
341	0.114
342	0.114
342	0.113
342	0.113
343	0.112
343	0.112
344	0.111
344	0.111
345	0.11
345	0.11
346	0.109
346	0.108
347	0.108
347	0.107
348	0.107
348	0.106
348	0.106
349	0.105
349	0.105
350	0.104
350	0.104
351	0.103
351	0.102
352	0.102
352	0.101
353	0.1
353	0.1
354	0.099
354	0.098
354	0.097
355	0.096
355	0.096
356	0.096
356	0.095
357	0.095
357	0.095
358	0.095
358	0.095
359	0.095
359	0.096
360	0.096
360	0.097
360	0.097
361	0.097
361	0.097
362	0.097
362	0.097
363	0.097
363	0.097
364	0.096
364	0.096
365	0.096
365	0.095
366	0.095
366	0.095
366	0.095
367	0.095
367	0.094
368	0.094
368	0.093
369	0.093
369	0.093
370	0.092
370	0.092
371	0.092
371	0.091
372	0.091
372	0.091
372	0.09
373	0.09
373	0.09
374	0.09
374	0.09
375	0.09
375	0.09
376	0.09
376	0.09
377	0.091
377	0.091
378	0.091
378	0.091
378	0.091
379	0.091
379	0.091
380	0.091
380	0.091
381	0.091
381	0.09
382	0.09
382	0.09
383	0.09
383	0.089
383	0.089
384	0.088
384	0.088
385	0.088
385	0.088
386	0.088
386	0.088
387	0.088
387	0.087
388	0.087
388	0.087
389	0.087
389	0.087
389	0.087
390	0.087
390	0.088
391	0.088
391	0.088
392	0.088
392	0.088
393	0.088
393	0.088
394	0.087
394	0.087
394	0.087
395	0.087
395	0.086
396	0.086
396	0.086
397	0.086
397	0.086
398	0.086
398	0.086
399	0.086
399	0.086
400	0.086
400	0.085
400	0.085
401	0.084
401	0.084
402	0.083
402	0.082
403	0.082
403	0.082
404	0.082
404	0.082
405	0.082
405	0.082
405	0.081
406	0.081
406	0.082
407	0.082
407	0.081
408	0.081
408	0.08
409	0.08
409	0.08
410	0.08
410	0.08
411	0.08
411	0.079
411	0.079
412	0.078
412	0.078
413	0.078
413	0.077
414	0.077
414	0.076
415	0.076
415	0.076
416	0.075
416	0.075
416	0.074
417	0.074
417	0.074
418	0.074
418	0.074
419	0.075
419	0.075
420	0.076
420	0.077
421	0.077
421	0.077
421	0.077
422	0.078
422	0.078
423	0.078
423	0.077
424	0.077
424	0.076
425	0.075
425	0.075
426	0.074
426	0.074
427	0.074
427	0.074
427	0.074
428	0.075
428	0.076
429	0.076
429	0.076
430	0.077
430	0.076
431	0.076
431	0.076
432	0.075
432	0.075
432	0.074
433	0.072
433	0.071
434	0.071
434	0.071
435	0.07
435	0.071
436	0.071
436	0.071
437	0.071
437	0.071
437	0.071
438	0.071
438	0.071
439	0.07
439	0.07
440	0.07
440	0.07
441	0.07
441	0.07
442	0.07
442	0.07
442	0.07
443	0.071
443	0.071
444	0.071
444	0.071
445	0.071
445	0.071
446	0.071
446	0.071
447	0.071
447	0.071
447	0.071
448	0.071
448	0.07
449	0.07
449	0.07
450	0.069
450	0.069
451	0.068
451	0.068
452	0.067
452	0.067
452	0.066
453	0.066
453	0.065
454	0.065
454	0.065
455	0.065
455	0.065
456	0.065
456	0.064
457	0.064
457	0.064
458	0.065
458	0.065
458	0.065
459	0.065
459	0.065
460	0.065
460	0.064
461	0.064
461	0.063
462	0.063
462	0.063
463	0.064
463	0.064
463	0.065
464	0.065
464	0.065
465	0.065
465	0.065
466	0.065
466	0.065
467	0.065
467	0.064
467	0.063
468	0.062
468	0.06
469	0.059
469	0.058
470	0.058
470	0.057
471	0.057
471	0.057
472	0.057
472	0.057
472	0.058
473	0.059
473	0.06
474	0.06
474	0.061
475	0.062
475	0.062
476	0.062
476	0.062
477	0.062
477	0.062
477	0.062
478	0.063
478	0.063
479	0.063
479	0.063
480	0.064
480	0.065
481	0.065
481	0.066
482	0.067
482	0.068
482	0.069
483	0.071
483	0.074
484	0.076
484	0.077
485	0.079
485	0.08
486	0.08
486	0.081
487	0.081
487	0.081
487	0.081
488	0.08
488	0.079
489	0.077
489	0.077
490	0.076
490	0.075
491	0.075
491	0.076
492	0.076
492	0.076
492	0.077
493	0.078
493	0.079
494	0.081
494	0.083
495	0.084
495	0.086
496	0.087
496	0.088
496	0.089
497	0.09
497	0.091
498	0.091
498	0.092
499	0.092
499	0.092
500	0.092
500	0.093
501	0.094
501	0.095
501	0.096
502	0.097
502	0.098
503	0.099
503	0.1
504	0.101
504	0.101
505	0.102
505	0.102
506	0.103
506	0.103
506	0.103
507	0.104
507	0.104
508	0.105
508	0.105
509	0.106
509	0.107
510	0.107
510	0.108
511	0.108
511	0.109
511	0.109
512	0.109
512	0.109
513	0.109
513	0.108
514	0.108
514	0.108
515	0.107
515	0.106
515	0.105
516	0.105
516	0.105
517	0.105
517	0.105
518	0.106
518	0.106
519	0.105
519	0.104
520	0.103
520	0.102
520	0.1
521	0.098
521	0.096
522	0.093
522	0.091
523	0.089
523	0.087
524	0.087
524	0.087
524	0.088
525	0.09
525	0.092
526	0.094
526	0.097
527	0.1
527	0.102
528	0.105
528	0.107
529	0.108
529	0.11
529	0.11
530	0.111
530	0.111
531	0.112
531	0.112
532	0.111
532	0.111
533	0.111
533	0.111
533	0.111
534	0.11
534	0.109
535	0.109
535	0.108
536	0.108
536	0.108
537	0.107
537	0.107
538	0.106
538	0.105
538	0.103
539	0.102
539	0.102
540	0.101
540	0.099
541	0.098
541	0.097
542	0.095
542	0.094
542	0.093
543	0.092
543	0.091
544	0.091
544	0.09
545	0.089
545	0.089
546	0.089
546	0.088
547	0.087
547	0.085
547	0.083
548	0.082
548	0.08
549	0.078
549	0.077
550	0.075
550	0.073
551	0.071
551	0.069
551	0.067
552	0.067
552	0.066
553	0.065
553	0.065
554	0.065
554	0.064
555	0.062
555	0.061
556	0.059
556	0.057
556	0.054
557	0.052
557	0.051
558	0.049
558	0.047
559	0.046
559	0.045
560	0.044
560	0.044
560	0.043
561	0.044
561	0.044
562	0.044
562	0.043
563	0.042
563	0.04
564	0.038
564	0.036
564	0.035
565	0.034
565	0.033
566	0.032
566	0.031
567	0.031
567	0.031
568	0.032
568	0.033
568	0.034
569	0.035
569	0.037
570	0.037
570	0.037
571	0.037
571	0.038
572	0.038
572	0.038
573	0.037
573	0.037
573	0.035
574	0.035
574	0.034
575	0.034
575	0.036
576	0.036
576	0.035
577	0.034
577	0.033
577	0.032
578	0.032
578	0.033
579	0.034
579	0.036
580	0.034
580	0.032
581	0.029
581	0.028
581	0.028
582	0.028
582	0.028
583	0.029
583	0.028
584	0.024
584	0.021
585	0.02
585	0.021
585	0.021
586	0.021
586	0.02
587	0.019
587	0.016
588	0.014
588	0.013
589	0.012
589	0.012
590	0.012
590	0.011
590	0.012
591	0.013
591	0.013
592	0.013
592	0.012
593	0.012
593	0.013
594	0.012
594	0.01
594	0.01
595	0.009
595	0.008
596	0.007
596	0.008
597	0.011
597	0.012
598	0.013
598	0.014
598	0.015
599	0.015
599	0.015
600	0.014
600	0.013
601	0.012
601	0.011
602	0.009
602	0.007
602	0.006
603	0.005
603	0.006
604	0.006
604	0.007
605	0.009
605	0.011
606	0.011
606	0.01
606	0.01
607	0.009
607	0.009
608	0.009
608	0.008
609	0.007
609	0.007
610	0.006
610	0.005
610	0.006
611	0.007
611	0.008
612	0.01
612	0.011
613	0.013
613	0.014
614	0.013
614	0.013
614	0.013
615	0.012
615	0.011
616	0.011
616	0.01
617	0.009
617	0.008
618	0.007
618	0.007
618	0.006
619	0.007
619	0.008
620	0.01
620	0.011
621	0.011
621	0.012
622	0.012
622	0.013
622	0.013
623	0.013
623	0.014
624	0.015
624	0.014
625	0.014
625	0.014
626	0.014
626	0.014
626	0.014
627	0.015
627	0.015
628	0.016
628	0.017
629	0.017
629	0.017
630	0.017
630	0.016
630	0.017
631	0.018
631	0.018
632	0.018
632	0.018
633	0.019
633	0.02
634	0.022
634	0.024
634	0.026
635	0.027
635	0.028
636	0.029
636	0.03
637	0.031
637	0.032
638	0.033
638	0.034
638	0.035
639	0.035
639	0.035
640	0.036
640	0.037
641	0.038
641	0.038
642	0.04
642	0.041
642	0.043
643	0.044
643	0.045
644	0.047
644	0.049
645	0.05
645	0.053
646	0.055
646	0.058
646	0.06
647	0.063
647	0.065
648	0.067
648	0.069
649	0.071
649	0.074
650	0.076
650	0.078
650	0.08
651	0.082
651	0.083
652	0.085
652	0.087
653	0.091
653	0.099
653	0.114
654	0.096
654	0.081
655	0.083
655	0.085
656	0.087
656	0.089
657	0.09
657	0.092
657	0.093
658	0.09
658	0.08
659	0.098
659	0.122
660	0.128
660	0.129
661	0.131
661	0.133
661	0.135
662	0.138
662	0.141
663	0.144
663	0.147
664	0.149
664	0.152
665	0.154
665	0.157
665	0.159
666	0.162
666	0.164
667	0.165
667	0.168
668	0.17
668	0.172
669	0.175
669	0.177
669	0.181
670	0.184
670	0.187
671	0.189
671	0.191
672	0.192
672	0.194
672	0.195
673	0.196
673	0.198
674	0.199
674	0.199
675	0.2
675	0.201
676	0.204
676	0.206
676	0.207
677	0.209
677	0.211
678	0.213
678	0.214
679	0.214
679	0.215
680	0.216
680	0.217
680	0.217
681	0.217
681	0.217
682	0.218
682	0.219
683	0.221
683	0.223
684	0.225
684	0.226
684	0.226
685	0.227
685	0.228
686	0.229
686	0.229
687	0.23
687	0.229
687	0.229
688	0.228
688	0.228
689	0.228
689	0.229
690	0.229
690	0.229
691	0.228
691	0.228
691	0.228
692	0.227
692	0.227
693	0.226
693	0.226
694	0.225
694	0.224
695	0.224
695	0.226
695	0.227
696	0.226
696	0.226
697	0.225
697	0.225
698	0.224
698	0.222
698	0.221
699	0.22
699	0.218
700	0.215
700	0.214
701	0.213
701	0.211
702	0.21
702	0.209
702	0.208
703	0.206
703	0.205
704	0.204
704	0.203
705	0.202
705	0.201
705	0.199
706	0.198
706	0.197
707	0.195
707	0.193
708	0.191
708	0.189
709	0.187
709	0.184
709	0.181
710	0.178
710	0.176
711	0.174
711	0.172
712	0.171
712	0.169
713	0.168
713	0.167
713	0.165
714	0.163
714	0.161
715	0.16
715	0.158
716	0.156
716	0.155
716	0.153
717	0.151
717	0.149
718	0.146
718	0.144
719	0.142
719	0.14
720	0.138
720	0.135
720	0.132
721	0.129
721	0.126
722	0.123
722	0.12
723	0.118
723	0.116
723	0.114
724	0.112
724	0.11
725	0.108
725	0.106
726	0.105
726	0.104
727	0.103
727	0.102
727	0.101
728	0.099
728	0.098
729	0.098
729	0.097
730	0.096
730	0.094
730	0.093
731	0.091
731	0.09
732	0.089
732	0.087
733	0.084
733	0.082
734	0.08
734	0.077
734	0.075
735	0.073
735	0.071
736	0.068
736	0.066
737	0.065
737	0.064
737	0.062
738	0.059
738	0.056
739	0.054
739	0.052
740	0.05
740	0.048
741	0.046
741	0.044
741	0.04
742	0.036
742	0.033
743	0.031
743	0.029
744	0.027
744	0.025
744	0.023
745	0.021
745	0.019
746	0.018
746	0.017
747	0.016
747	0.015
748	0.015
748	0.014
748	0.013
749	0.013
749	0.012
750	0.012
750	0.012
751	0.011
751	0.012
751	0.012
752	0.011
752	0.011
753	0.01
753	0.01
754	0.009
754	0.009
754	0.009
755	0.008
755	0.008
756	0.007
756	0.005
757	0.004
757	0.004
758	0.003
758	0.001
758	0.001
759	-0
759	-0.003
760	-0.005
760	-0.007
761	-0.009
761	-0.009
761	-0.01
762	-0.012
762	-0.013
763	-0.014
763	-0.016
764	-0.018
764	-0.021
764	-0.023
765	-0.026
765	-0.028
766	-0.029
766	-0.03
767	-0.032
767	-0.034
768	-0.038
768	-0.04
768	-0.041
769	-0.041
769	-0.042
770	-0.043
770	-0.044
771	-0.046
771	-0.049
771	-0.051
772	-0.053
772	-0.055
773	-0.056
773	-0.059
774	-0.061
774	-0.064
775	-0.066
775	-0.069
775	-0.072
776	-0.075
776	-0.078
777	-0.081
777	-0.085
778	-0.088
778	-0.092
778	-0.095
779	-0.098
779	-0.097
780	-0.098
780	-0.101
781	-0.102
781	-0.104
781	-0.106
782	-0.107
782	-0.11
783	-0.112
783	-0.113
784	-0.115
784	-0.118
784	-0.12
785	-0.121
785	-0.123
786	-0.124
786	-0.121
787	-0.117
787	-0.113
788	-0.112
788	-0.112
788	-0.113
789	-0.114
789	-0.113
790	-0.11
790	-0.108
791	-0.108
791	-0.11
791	-0.112
792	-0.107
792	-0.097
793	-0.092
793	-0.088
794	-0.087
794	-0.089
794	-0.093
795	-0.096
795	-0.096
796	-0.096
796	-0.099
797	-0.107
797	-0.117
797	-0.123
798	-0.128
798	-0.131
799	-0.131
799	-0.131
800	-0.131
800	-0.133
801	-0.136
801	-0.138
801	-0.138
802	-0.14
802	-0.141
803	-0.142
803	-0.142
804	-0.141
804	-0.136
804	-0.13
805	-0.126
805	-0.123
806	-0.121
806	-0.12
807	-0.118
807	-0.118
807	-0.118
808	-0.118
808	-0.119
809	-0.123
809	-0.129
810	-0.132
810	-0.135
810	-0.138
811	-0.14
811	-0.14
812	-0.136
812	-0.132
813	-0.131
813	-0.131
813	-0.132
814	-0.132
814	-0.131
815	-0.129
815	-0.126
816	-0.124
816	-0.125
817	-0.13
817	-0.133
817	-0.134
818	-0.133
818	-0.13
819	-0.126
819	-0.123
820	-0.124
820	-0.127
820	-0.128
821	-0.128
821	-0.127
822	-0.126
822	-0.125
823	-0.123
823	-0.123
823	-0.124
824	-0.123
824	-0.118
825	-0.112
825	-0.105
826	-0.098
826	-0.093
826	-0.087
827	-0.082
827	-0.077
828	-0.073
828	-0.069
829	-0.065
829	-0.062
829	-0.06
830	-0.059
830	-0.057
831	-0.055
831	-0.053
832	-0.052
832	-0.05
832	-0.049
833	-0.048
833	-0.047
834	-0.046
834	-0.045
835	-0.044
835	-0.043
835	-0.043
836	-0.042
836	-0.042
837	-0.042
837	-0.041
838	-0.041
838	-0.041
839	-0.042
839	-0.042
839	-0.042
840	-0.041
840	-0.041
841	-0.041
841	-0.04
842	-0.039
842	-0.038
842	-0.038
843	-0.036
843	-0.036
844	-0.035
844	-0.034
845	-0.033
845	-0.032
845	-0.031
846	-0.031
846	-0.03
847	-0.03
847	-0.029
848	-0.029
848	-0.029
848	-0.029
849	-0.03
849	-0.03
850	-0.03
850	-0.031
851	-0.031
851	-0.031
851	-0.031
852	-0.031
852	-0.031
853	-0.03
853	-0.03
854	-0.029
854	-0.028
854	-0.028
855	-0.027
855	-0.026
856	-0.025
856	-0.024
857	-0.023
857	-0.023
857	-0.022
858	-0.021
858	-0.021
859	-0.021
859	-0.02
860	-0.02
860	-0.019
860	-0.019
861	-0.018
861	-0.018
862	-0.018
862	-0.018
863	-0.018
863	-0.018
863	-0.018
864	-0.018
864	-0.018
865	-0.019
865	-0.019
866	-0.02
866	-0.02
866	-0.02
867	-0.02
867	-0.02
868	-0.019
868	-0.018
869	-0.017
869	-0.016
869	-0.016
870	-0.014
870	-0.013
871	-0.012
871	-0.011
872	-0.011
872	-0.01
872	-0.01
873	-0.009
873	-0.009
874	-0.009
874	-0.009
875	-0.009
875	-0.01
875	-0.01
876	-0.01
876	-0.011
877	-0.011
877	-0.012
878	-0.012
878	-0.013
878	-0.013
879	-0.014
879	-0.015
880	-0.015
880	-0.015
881	-0.016
881	-0.015
881	-0.015
882	-0.014
882	-0.013
883	-0.013
883	-0.012
884	-0.011
884	-0.011
884	-0.01
885	-0.01
885	-0.009
886	-0.009
886	-0.008
887	-0.008
887	-0.008
887	-0.008
888	-0.008
888	-0.007
889	-0.007
889	-0.006
890	-0.005
890	-0.004
890	-0.004
891	-0.004
891	-0.003
892	-0.003
892	-0.003
893	-0.003
893	-0.004
893	-0.004
894	-0.005
894	-0.006
895	-0.006
895	-0.007
895	-0.008
896	-0.009
896	-0.009
897	-0.01
897	-0.01
898	-0.01
898	-0.01
898	-0.01
899	-0.01
899	-0.01
900	-0.01
900	-0.01
901	-0.01
901	-0.01
901	-0.01
902	-0.01
902	-0.01
903	-0.011
903	-0.011
904	-0.011
904	-0.012
904	-0.012
905	-0.013
905	-0.013
906	-0.014
906	-0.015
907	-0.015
907	-0.016
907	-0.016
908	-0.017
908	-0.017
909	-0.017
909	-0.017
910	-0.017
910	-0.017
910	-0.016
911	-0.016
911	-0.016
912	-0.015
912	-0.015
913	-0.015
913	-0.015
913	-0.015
914	-0.016
914	-0.016
915	-0.017
915	-0.017
916	-0.018
916	-0.018
916	-0.018
917	-0.018
917	-0.017
918	-0.017
918	-0.016
918	-0.014
919	-0.013
919	-0.011
920	-0.01
920	-0.008
921	-0.007
921	-0.005
921	-0.004
922	-0.003
922	-0.002
923	-0.001
923	0
924	0.001
924	0.002
924	0.002
925	0.002
925	0.003
926	0.003
926	0.003
927	0.003
927	0.003
927	0.003
928	0.003
928	0.003
929	0.003
929	0.003
930	0.003
930	0.002
930	0.002
931	0.001
931	-0
932	-0.001
932	-0.002
933	-0.004
933	-0.005
933	-0.006
934	-0.008
934	-0.009
935	-0.01
935	-0.011
935	-0.012
936	-0.012
936	-0.013
937	-0.013
937	-0.013
938	-0.013
938	-0.013
938	-0.012
939	-0.011
939	-0.01
940	-0.01
940	-0.009
941	-0.008
941	-0.007
941	-0.006
942	-0.005
942	-0.005
943	-0.004
943	-0.004
944	-0.004
944	-0.004
944	-0.003
945	-0.003
945	-0.002
946	-0.002
946	-0.002
946	-0.002
947	-0.002
947	-0.003
948	-0.003
948	-0.003
949	-0.003
949	-0.003
949	-0.003
950	-0.003
950	-0.003
951	-0.003
951	-0.003
952	-0.003
952	-0.003
952	-0.003
953	-0.002
953	-0.002
954	-0.002
954	-0.002
955	-0.002
955	-0.002
955	-0.001
956	-0.001
956	-0.001
957	-0.001
957	-0.001
957	-0.002
958	-0.002
958	-0.003
959	-0.003
959	-0.003
960	-0.004
960	-0.005
960	-0.006
961	-0.007
961	-0.008
962	-0.008
962	-0.009
963	-0.009
963	-0.009
963	-0.008
964	-0.008
964	-0.007
965	-0.007
965	-0.006
966	-0.005
966	-0.003
966	-0.002
967	-0.001
967	-0
968	0
968	0
968	0.001
969	0.001
969	0.001
970	0.001
970	0.001
971	0.001
971	0
971	-0
972	-0.001
972	-0.001
973	-0.002
973	-0.003
974	-0.004
974	-0.004
974	-0.005
975	-0.006
975	-0.007
976	-0.008
976	-0.009
976	-0.011
977	-0.012
977	-0.014
978	-0.016
978	-0.017
979	-0.018
979	-0.018
979	-0.019
980	-0.019
980	-0.019
981	-0.019
981	-0.018
982	-0.017
982	-0.016
982	-0.014
983	-0.013
983	-0.012
984	-0.01
984	-0.009
984	-0.007
985	-0.006
985	-0.006
986	-0.006
986	-0.006
987	-0.006
987	-0.006
987	-0.007
988	-0.007
988	-0.008
989	-0.01
989	-0.011
990	-0.012
990	-0.013
990	-0.013
991	-0.013
991	-0.014
992	-0.014
992	-0.014
992	-0.015
993	-0.015
993	-0.015
994	-0.016
994	-0.017
995	-0.017
995	-0.018
995	-0.019
996	-0.02
996	-0.021
997	-0.021
997	-0.021
997	-0.021
998	-0.021
998	-0.021
999	-0.02
999	-0.019
1000	-0.018
1000	-0.017
1000	-0.017
1001	-0.016
1001	-0.015
1002	-0.015
1002	-0.014
1003	-0.014
1003	-0.014
1003	-0.014
1004	-0.013
1004	-0.013
1005	-0.013
1005	-0.013
1005	-0.012
1006	-0.012
1006	-0.012
1007	-0.011
1007	-0.011
1008	-0.01
1008	-0.009
1008	-0.009
1009	-0.008
1009	-0.008
1010	-0.007
1010	-0.007
1010	-0.006
1011	-0.006
1011	-0.006
1012	-0.006
1012	-0.006
1013	-0.006
1013	-0.007
1013	-0.007
1014	-0.008
1014	-0.009
1015	-0.01
1015	-0.01
1016	-0.011
1016	-0.012
1016	-0.013
1017	-0.014
1017	-0.014
1018	-0.014
1018	-0.014
1018	-0.014
1019	-0.014
1019	-0.014
1020	-0.014
1020	-0.014
1021	-0.014
1021	-0.014
1021	-0.014
1022	-0.014
1022	-0.014
1023	-0.015
1023	-0.015
1023	-0.016
1024	-0.016
1024	-0.017
1025	-0.018
1025	-0.018
1026	-0.019
1026	-0.019
1026	-0.019
1027	-0.019
1027	-0.019
1028	-0.018
1028	-0.018
1028	-0.017
1029	-0.016
1029	-0.015
1030	-0.015
1030	-0.014
1031	-0.013
1031	-0.013
1031	-0.012
1032	-0.012
1032	-0.012
1033	-0.011
1033	-0.011
1033	-0.012
1034	-0.012
1034	-0.013
1035	-0.013
1035	-0.014
1036	-0.014
1036	-0.015
1036	-0.015
1037	-0.015
1037	-0.016
1038	-0.016
1038	-0.016
1039	-0.016
1039	-0.016
1039	-0.016
1040	-0.016
1040	-0.016
1041	-0.016
1041	-0.016
1041	-0.017
1042	-0.017
1042	-0.018
1043	-0.018
1043	-0.019
1044	-0.019
1044	-0.02
1044	-0.02
1045	-0.021
1045	-0.021
1046	-0.021
1046	-0.021
1046	-0.021
1047	-0.02
1047	-0.02
1048	-0.02
1048	-0.019
1049	-0.019
1049	-0.019
1049	-0.02
1050	-0.019
1050	-0.019
1051	-0.019
1051	-0.019
1051	-0.018
1052	-0.018
1052	-0.017
1053	-0.016
1053	-0.014
1053	-0.013
1054	-0.012
1054	-0.01
1055	-0.008
1055	-0.007
1056	-0.007
1056	-0.007
1056	-0.007
1057	-0.006
1057	-0.006
1058	-0.006
1058	-0.006
1058	-0.006
1059	-0.005
1059	-0.005
1060	-0.005
1060	-0.004
1061	-0.003
1061	-0.003
1061	-0.002
1062	-0.002
1062	-0.001
1063	-0.001
1063	-0.001
1063	-0.001
1064	-0.001
1064	0
1065	0
1065	0
1066	0.001
1066	0.001
1066	0.001
1067	0.002
1067	0.002
1068	0.003
1068	0.003
1068	0.004
1069	0.004
1069	0.004
1070	0.005
1070	0.005
1071	0.006
1071	0.007
1071	0.008
1072	0.009
1072	0.011
1073	0.012
1073	0.014
1073	0.015
1074	0.017
1074	0.018
1075	0.019
1075	0.02
1076	0.021
1076	0.022
1076	0.023
1077	0.024
1077	0.025
1078	0.026
1078	0.027
1078	0.029
1079	0.031
1079	0.033
1080	0.035
1080	0.036
1080	0.037
1081	0.039
1081	0.042
1082	0.044
1082	0.045
1083	0.047
1083	0.048
1083	0.051
1084	0.053
1084	0.056
1085	0.058
1085	0.06
1085	0.063
1086	0.065
1086	0.066
1087	0.069
1087	0.072
1088	0.074
1088	0.076
1088	0.079
1089	0.082
1089	0.085
1090	0.089
1090	0.093
1090	0.098
1091	0.103
1091	0.109
1092	0.115
1092	0.122
1092	0.128
1093	0.134
1093	0.143
1094	0.151
1094	0.159
1095	0.167
1095	0.177
1095	0.19
1096	0.202
1096	0.215
1097	0.231
1097	0.244
1097	0.263
1098	0.28
1098	0.301
1099	0.323
1099	0.349
1100	0.377
1100	0.407
1100	0.44
1101	0.48
1101	0.522
1102	0.582
1102	0.651
1102	0.746
1103	0.863
1103	1.045
1104	1.376
1104	-0
1104	-0
1105	-0
1105	-0
1106	-0
1106	-0
1107	-0
1107	-0
1107	-0
1108	-0
1108	-0
1109	-0
1109	-0
1109	-0
1110	-0
1110	-0
1111	-0
1111	-0
