Data from 15c-100ul-ns-20ul-nr-full-exp-7ul-bp_Absorbance__347__04685.txt Node

Date: Mon Jan 15 15:24:23 CET 2024
User: Marek
Spectrometer: MAYP115816
Trigger mode: 0
Integration Time (sec): 2.000000E-1
Scans to average: 10
Electric dark correction enabled: true
Nonlinearity correction enabled: true
Boxcar width: 5
XAxis mode: Wavelengths
Number of Pixels in Spectrum: 2068
>>>>>Begin Spectral Data<<<<<
199	-1.948
199	-1.818
200	-1.675
200	-1.565
201	-1.492
201	-1.441
202	-1.371
202	-1.316
203	-1.266
203	-1.227
204	-1.198
204	-1.176
205	-1.155
205	-1.146
205	-1.143
206	-1.141
206	-1.14
207	-1.136
207	-1.132
208	-1.131
208	-1.125
209	-1.124
209	-1.122
210	-1.122
210	-1.12
211	-1.118
211	-1.117
212	-1.114
212	-1.113
213	-1.113
213	-1.112
213	-1.112
214	-1.111
214	-1.111
215	-1.111
215	-1.111
216	-1.11
216	-1.109
217	-1.109
217	-1.108
218	-1.107
218	-1.103
219	-1.101
219	-1.101
220	-1.096
220	-1.091
221	-1.087
221	-1.083
221	-1.077
222	-1.073
222	-1.067
223	-1.06
223	-1.056
224	-1.05
224	-1.041
225	-1.032
225	-1.021
226	-1.011
226	-0.999
227	-0.984
227	-0.968
228	-0.949
228	-0.929
229	-0.905
229	-0.876
229	-0.847
230	-0.815
230	-0.781
231	-0.742
231	-0.703
232	-0.662
232	-0.618
233	-0.573
233	-0.526
234	-0.48
234	-0.435
235	-0.389
235	-0.344
236	-0.3
236	-0.257
236	-0.216
237	-0.178
237	-0.141
238	-0.106
238	-0.074
239	-0.043
239	-0.015
240	0.01
240	0.034
241	0.056
241	0.076
242	0.094
242	0.11
243	0.126
243	0.14
243	0.152
244	0.164
244	0.174
245	0.183
245	0.192
246	0.2
246	0.208
247	0.214
247	0.221
248	0.227
248	0.232
249	0.237
249	0.242
250	0.246
250	0.25
250	0.255
251	0.258
251	0.261
252	0.265
252	0.267
253	0.27
253	0.272
254	0.275
254	0.277
255	0.279
255	0.281
256	0.282
256	0.283
257	0.285
257	0.286
258	0.287
258	0.288
258	0.289
259	0.289
259	0.289
260	0.29
260	0.29
261	0.29
261	0.291
262	0.291
262	0.29
263	0.29
263	0.29
264	0.289
264	0.289
265	0.289
265	0.288
265	0.287
266	0.286
266	0.285
267	0.284
267	0.283
268	0.282
268	0.281
269	0.28
269	0.278
270	0.277
270	0.276
271	0.274
271	0.273
272	0.272
272	0.27
272	0.269
273	0.268
273	0.266
274	0.265
274	0.263
275	0.262
275	0.26
276	0.259
276	0.257
277	0.255
277	0.253
278	0.252
278	0.25
278	0.248
279	0.245
279	0.243
280	0.241
280	0.24
281	0.238
281	0.236
282	0.234
282	0.233
283	0.231
283	0.23
284	0.229
284	0.228
285	0.227
285	0.225
285	0.224
286	0.223
286	0.222
287	0.22
287	0.219
288	0.218
288	0.217
289	0.216
289	0.214
290	0.213
290	0.212
291	0.211
291	0.21
292	0.209
292	0.207
292	0.206
293	0.205
293	0.204
294	0.203
294	0.202
295	0.202
295	0.201
296	0.2
296	0.199
297	0.198
297	0.198
298	0.197
298	0.196
298	0.195
299	0.195
299	0.194
300	0.193
300	0.193
301	0.192
301	0.191
302	0.191
302	0.19
303	0.189
303	0.189
304	0.188
304	0.188
305	0.187
305	0.186
305	0.186
306	0.185
306	0.184
307	0.184
307	0.183
308	0.182
308	0.181
309	0.181
309	0.18
310	0.179
310	0.178
311	0.178
311	0.177
311	0.176
312	0.176
312	0.175
313	0.174
313	0.174
314	0.173
314	0.172
315	0.172
315	0.171
316	0.17
316	0.17
317	0.169
317	0.168
318	0.168
318	0.167
318	0.166
319	0.166
319	0.165
320	0.164
320	0.163
321	0.162
321	0.162
322	0.161
322	0.16
323	0.159
323	0.159
324	0.158
324	0.157
324	0.156
325	0.156
325	0.155
326	0.155
326	0.154
327	0.153
327	0.153
328	0.152
328	0.152
329	0.151
329	0.15
330	0.15
330	0.149
330	0.148
331	0.148
331	0.147
332	0.146
332	0.146
333	0.145
333	0.144
334	0.144
334	0.143
335	0.143
335	0.142
336	0.141
336	0.141
336	0.14
337	0.139
337	0.139
338	0.138
338	0.138
339	0.138
339	0.137
340	0.136
340	0.136
341	0.135
341	0.134
342	0.134
342	0.133
342	0.133
343	0.132
343	0.132
344	0.131
344	0.131
345	0.13
345	0.13
346	0.13
346	0.129
347	0.129
347	0.128
348	0.127
348	0.127
348	0.126
349	0.126
349	0.125
350	0.125
350	0.124
351	0.124
351	0.123
352	0.123
352	0.122
353	0.121
353	0.121
354	0.12
354	0.119
354	0.119
355	0.118
355	0.118
356	0.117
356	0.117
357	0.117
357	0.117
358	0.117
358	0.117
359	0.117
359	0.118
360	0.118
360	0.118
360	0.118
361	0.118
361	0.118
362	0.118
362	0.118
363	0.118
363	0.118
364	0.117
364	0.117
365	0.117
365	0.117
366	0.116
366	0.116
366	0.116
367	0.116
367	0.116
368	0.115
368	0.115
369	0.114
369	0.114
370	0.114
370	0.114
371	0.113
371	0.113
372	0.113
372	0.112
372	0.112
373	0.112
373	0.112
374	0.112
374	0.112
375	0.112
375	0.111
376	0.111
376	0.111
377	0.111
377	0.112
378	0.112
378	0.112
378	0.112
379	0.112
379	0.112
380	0.112
380	0.112
381	0.112
381	0.112
382	0.111
382	0.111
383	0.111
383	0.111
383	0.11
384	0.11
384	0.109
385	0.109
385	0.109
386	0.109
386	0.109
387	0.109
387	0.109
388	0.109
388	0.108
389	0.108
389	0.108
389	0.108
390	0.108
390	0.109
391	0.108
391	0.109
392	0.109
392	0.108
393	0.108
393	0.108
394	0.108
394	0.108
394	0.107
395	0.107
395	0.106
396	0.106
396	0.106
397	0.106
397	0.106
398	0.106
398	0.106
399	0.106
399	0.106
400	0.106
400	0.106
400	0.105
401	0.105
401	0.104
402	0.103
402	0.103
403	0.103
403	0.103
404	0.103
404	0.102
405	0.102
405	0.102
405	0.102
406	0.102
406	0.102
407	0.102
407	0.101
408	0.101
408	0.1
409	0.1
409	0.1
410	0.1
410	0.1
411	0.1
411	0.099
411	0.099
412	0.099
412	0.098
413	0.098
413	0.098
414	0.097
414	0.097
415	0.097
415	0.096
416	0.096
416	0.095
416	0.095
417	0.095
417	0.095
418	0.095
418	0.095
419	0.095
419	0.096
420	0.096
420	0.097
421	0.097
421	0.097
421	0.097
422	0.098
422	0.098
423	0.098
423	0.097
424	0.097
424	0.096
425	0.095
425	0.095
426	0.095
426	0.094
427	0.094
427	0.094
427	0.095
428	0.095
428	0.096
429	0.096
429	0.096
430	0.097
430	0.096
431	0.096
431	0.095
432	0.095
432	0.094
432	0.093
433	0.092
433	0.092
434	0.091
434	0.091
435	0.091
435	0.091
436	0.091
436	0.091
437	0.091
437	0.091
437	0.091
438	0.091
438	0.09
439	0.09
439	0.09
440	0.09
440	0.09
441	0.09
441	0.09
442	0.09
442	0.091
442	0.091
443	0.091
443	0.091
444	0.091
444	0.091
445	0.091
445	0.091
446	0.091
446	0.091
447	0.091
447	0.091
447	0.091
448	0.09
448	0.09
449	0.09
449	0.09
450	0.089
450	0.089
451	0.089
451	0.088
452	0.088
452	0.088
452	0.087
453	0.087
453	0.086
454	0.086
454	0.086
455	0.086
455	0.086
456	0.086
456	0.086
457	0.086
457	0.086
458	0.086
458	0.086
458	0.086
459	0.086
459	0.086
460	0.086
460	0.085
461	0.085
461	0.084
462	0.084
462	0.084
463	0.085
463	0.085
463	0.086
464	0.086
464	0.086
465	0.086
465	0.086
466	0.086
466	0.086
467	0.086
467	0.086
467	0.085
468	0.083
468	0.082
469	0.081
469	0.081
470	0.08
470	0.08
471	0.08
471	0.08
472	0.08
472	0.08
472	0.081
473	0.082
473	0.083
474	0.083
474	0.084
475	0.084
475	0.085
476	0.085
476	0.085
477	0.085
477	0.085
477	0.085
478	0.086
478	0.086
479	0.086
479	0.086
480	0.087
480	0.088
481	0.089
481	0.089
482	0.09
482	0.091
482	0.093
483	0.094
483	0.097
484	0.099
484	0.1
485	0.101
485	0.102
486	0.103
486	0.103
487	0.104
487	0.104
487	0.104
488	0.104
488	0.102
489	0.101
489	0.101
490	0.1
490	0.1
491	0.1
491	0.101
492	0.101
492	0.102
492	0.102
493	0.103
493	0.105
494	0.106
494	0.109
495	0.11
495	0.112
496	0.113
496	0.114
496	0.115
497	0.116
497	0.117
498	0.118
498	0.119
499	0.119
499	0.119
500	0.12
500	0.121
501	0.122
501	0.123
501	0.124
502	0.125
502	0.126
503	0.128
503	0.129
504	0.13
504	0.13
505	0.131
505	0.131
506	0.132
506	0.132
506	0.133
507	0.133
507	0.134
508	0.135
508	0.135
509	0.136
509	0.137
510	0.138
510	0.139
511	0.139
511	0.14
511	0.14
512	0.141
512	0.141
513	0.141
513	0.141
514	0.14
514	0.14
515	0.14
515	0.139
515	0.138
516	0.138
516	0.138
517	0.139
517	0.139
518	0.139
518	0.139
519	0.139
519	0.138
520	0.137
520	0.135
520	0.134
521	0.132
521	0.13
522	0.128
522	0.126
523	0.124
523	0.124
524	0.124
524	0.125
524	0.126
525	0.128
525	0.13
526	0.133
526	0.135
527	0.138
527	0.14
528	0.141
528	0.143
529	0.144
529	0.144
529	0.145
530	0.145
530	0.145
531	0.146
531	0.146
532	0.145
532	0.144
533	0.144
533	0.144
533	0.143
534	0.142
534	0.141
535	0.14
535	0.14
536	0.139
536	0.139
537	0.138
537	0.137
538	0.136
538	0.135
538	0.134
539	0.133
539	0.132
540	0.131
540	0.13
541	0.128
541	0.127
542	0.125
542	0.124
542	0.123
543	0.122
543	0.121
544	0.12
544	0.119
545	0.118
545	0.118
546	0.118
546	0.117
547	0.115
547	0.113
547	0.111
548	0.109
548	0.108
549	0.106
549	0.104
550	0.102
550	0.1
551	0.097
551	0.096
551	0.094
552	0.093
552	0.092
553	0.091
553	0.091
554	0.09
554	0.088
555	0.087
555	0.085
556	0.083
556	0.081
556	0.079
557	0.077
557	0.075
558	0.073
558	0.071
559	0.07
559	0.069
560	0.068
560	0.066
560	0.066
561	0.066
561	0.066
562	0.065
562	0.064
563	0.062
563	0.061
564	0.059
564	0.057
564	0.055
565	0.054
565	0.053
566	0.052
566	0.051
567	0.051
567	0.051
568	0.051
568	0.052
568	0.053
569	0.054
569	0.054
570	0.054
570	0.053
571	0.054
571	0.054
572	0.053
572	0.053
573	0.052
573	0.051
573	0.05
574	0.049
574	0.049
575	0.048
575	0.05
576	0.05
576	0.049
577	0.047
577	0.046
577	0.046
578	0.045
578	0.046
579	0.047
579	0.048
580	0.046
580	0.044
581	0.041
581	0.04
581	0.039
582	0.04
582	0.04
583	0.04
583	0.039
584	0.035
584	0.032
585	0.031
585	0.032
585	0.032
586	0.032
586	0.031
587	0.029
587	0.027
588	0.025
588	0.024
589	0.023
589	0.023
590	0.023
590	0.022
590	0.024
591	0.025
591	0.024
592	0.024
592	0.023
593	0.023
593	0.023
594	0.022
594	0.021
594	0.02
595	0.02
595	0.019
596	0.018
596	0.019
597	0.022
597	0.023
598	0.023
598	0.025
598	0.025
599	0.026
599	0.025
600	0.024
600	0.023
601	0.022
601	0.021
602	0.019
602	0.018
602	0.016
603	0.016
603	0.016
604	0.017
604	0.018
605	0.019
605	0.021
606	0.021
606	0.02
606	0.019
607	0.019
607	0.019
608	0.019
608	0.017
609	0.017
609	0.017
610	0.016
610	0.015
610	0.015
611	0.017
611	0.018
612	0.019
612	0.021
613	0.022
613	0.023
614	0.023
614	0.022
614	0.022
615	0.021
615	0.021
616	0.021
616	0.02
617	0.02
617	0.018
618	0.018
618	0.017
618	0.017
619	0.018
619	0.019
620	0.021
620	0.022
621	0.023
621	0.023
622	0.024
622	0.025
622	0.025
623	0.025
623	0.026
624	0.026
624	0.026
625	0.025
625	0.026
626	0.026
626	0.026
626	0.027
627	0.027
627	0.028
628	0.029
628	0.029
629	0.03
629	0.03
630	0.03
630	0.029
630	0.03
631	0.031
631	0.031
632	0.031
632	0.031
633	0.032
633	0.033
634	0.035
634	0.037
634	0.039
635	0.04
635	0.041
636	0.042
636	0.043
637	0.044
637	0.045
638	0.047
638	0.048
638	0.048
639	0.049
639	0.049
640	0.05
640	0.051
641	0.052
641	0.053
642	0.054
642	0.056
642	0.057
643	0.059
643	0.06
644	0.062
644	0.063
645	0.065
645	0.068
646	0.07
646	0.073
646	0.076
647	0.078
647	0.08
648	0.082
648	0.084
649	0.086
649	0.088
650	0.091
650	0.093
650	0.095
651	0.096
651	0.098
652	0.1
652	0.103
653	0.106
653	0.115
653	0.129
654	0.107
654	0.09
655	0.092
655	0.094
656	0.095
656	0.097
657	0.099
657	0.101
657	0.102
658	0.099
658	0.089
659	0.11
659	0.139
660	0.145
660	0.147
661	0.148
661	0.151
661	0.153
662	0.156
662	0.159
663	0.162
663	0.165
664	0.167
664	0.17
665	0.173
665	0.175
665	0.178
666	0.18
666	0.182
667	0.184
667	0.187
668	0.189
668	0.192
669	0.194
669	0.197
669	0.201
670	0.204
670	0.207
671	0.209
671	0.21
672	0.212
672	0.214
672	0.215
673	0.217
673	0.218
674	0.219
674	0.22
675	0.22
675	0.222
676	0.224
676	0.227
676	0.228
677	0.23
677	0.232
678	0.233
678	0.234
679	0.235
679	0.236
680	0.237
680	0.237
680	0.237
681	0.237
681	0.238
682	0.239
682	0.24
683	0.242
683	0.244
684	0.246
684	0.246
684	0.247
685	0.248
685	0.249
686	0.25
686	0.25
687	0.251
687	0.251
687	0.25
688	0.25
688	0.249
689	0.25
689	0.251
690	0.251
690	0.25
691	0.249
691	0.249
691	0.249
692	0.248
692	0.247
693	0.247
693	0.247
694	0.246
694	0.244
695	0.245
695	0.246
695	0.247
696	0.246
696	0.246
697	0.245
697	0.245
698	0.244
698	0.242
698	0.241
699	0.24
699	0.238
700	0.235
700	0.234
701	0.233
701	0.231
702	0.229
702	0.228
702	0.227
703	0.225
703	0.224
704	0.222
704	0.221
705	0.22
705	0.219
705	0.217
706	0.216
706	0.215
707	0.213
707	0.21
708	0.208
708	0.206
709	0.204
709	0.202
709	0.198
710	0.195
710	0.193
711	0.191
711	0.189
712	0.187
712	0.185
713	0.184
713	0.182
713	0.181
714	0.179
714	0.177
715	0.175
715	0.174
716	0.172
716	0.17
716	0.168
717	0.166
717	0.164
718	0.161
718	0.158
719	0.157
719	0.154
720	0.152
720	0.149
720	0.146
721	0.143
721	0.14
722	0.137
722	0.134
723	0.132
723	0.13
723	0.128
724	0.126
724	0.124
725	0.122
725	0.121
726	0.119
726	0.118
727	0.117
727	0.116
727	0.115
728	0.113
728	0.112
729	0.111
729	0.11
730	0.109
730	0.107
730	0.106
731	0.104
731	0.103
732	0.101
732	0.099
733	0.097
733	0.095
734	0.093
734	0.09
734	0.088
735	0.086
735	0.084
736	0.081
736	0.079
737	0.077
737	0.076
737	0.074
738	0.072
738	0.069
739	0.067
739	0.065
740	0.063
740	0.061
741	0.059
741	0.057
741	0.054
742	0.05
742	0.047
743	0.045
743	0.043
744	0.041
744	0.039
744	0.037
745	0.035
745	0.033
746	0.031
746	0.03
747	0.029
747	0.028
748	0.027
748	0.026
748	0.025
749	0.024
749	0.024
750	0.024
750	0.023
751	0.023
751	0.023
751	0.023
752	0.023
752	0.022
753	0.021
753	0.021
754	0.02
754	0.019
754	0.019
755	0.019
755	0.019
756	0.017
756	0.015
757	0.014
757	0.014
758	0.013
758	0.012
758	0.011
759	0.01
759	0.008
760	0.006
760	0.004
761	0.002
761	0.002
761	0.001
762	-0.001
762	-0.002
763	-0.003
763	-0.005
764	-0.008
764	-0.01
764	-0.013
765	-0.015
765	-0.018
766	-0.02
766	-0.021
767	-0.022
767	-0.025
768	-0.028
768	-0.03
768	-0.031
769	-0.032
769	-0.032
770	-0.033
770	-0.034
771	-0.036
771	-0.039
771	-0.041
772	-0.043
772	-0.044
773	-0.046
773	-0.048
774	-0.05
774	-0.053
775	-0.055
775	-0.058
775	-0.06
776	-0.063
776	-0.066
777	-0.069
777	-0.072
778	-0.075
778	-0.079
778	-0.082
779	-0.084
779	-0.084
780	-0.087
780	-0.091
781	-0.094
781	-0.097
781	-0.1
782	-0.103
782	-0.107
783	-0.111
783	-0.113
784	-0.116
784	-0.119
784	-0.121
785	-0.123
785	-0.125
786	-0.125
786	-0.123
787	-0.119
787	-0.115
788	-0.113
788	-0.114
788	-0.114
789	-0.116
789	-0.115
790	-0.111
790	-0.11
791	-0.11
791	-0.111
791	-0.113
792	-0.108
792	-0.099
793	-0.093
793	-0.09
794	-0.089
794	-0.091
794	-0.095
795	-0.097
795	-0.098
796	-0.098
796	-0.101
797	-0.109
797	-0.119
797	-0.125
798	-0.13
798	-0.132
799	-0.133
799	-0.133
800	-0.133
800	-0.135
801	-0.138
801	-0.139
801	-0.14
802	-0.142
802	-0.143
803	-0.144
803	-0.144
804	-0.143
804	-0.138
804	-0.131
805	-0.127
805	-0.125
806	-0.123
806	-0.121
807	-0.12
807	-0.119
807	-0.119
808	-0.119
808	-0.12
809	-0.125
809	-0.13
810	-0.134
810	-0.136
810	-0.139
811	-0.142
811	-0.141
812	-0.137
812	-0.134
813	-0.133
813	-0.133
813	-0.133
814	-0.134
814	-0.133
815	-0.131
815	-0.128
816	-0.126
816	-0.127
817	-0.131
817	-0.135
817	-0.135
818	-0.135
818	-0.132
819	-0.127
819	-0.125
820	-0.126
820	-0.128
820	-0.13
821	-0.129
821	-0.127
822	-0.125
822	-0.122
823	-0.118
823	-0.117
823	-0.118
824	-0.116
824	-0.11
825	-0.103
825	-0.095
826	-0.088
826	-0.083
826	-0.078
827	-0.073
827	-0.069
828	-0.065
828	-0.061
829	-0.058
829	-0.055
829	-0.053
830	-0.052
830	-0.05
831	-0.048
831	-0.046
832	-0.045
832	-0.044
832	-0.043
833	-0.042
833	-0.041
834	-0.04
834	-0.04
835	-0.039
835	-0.039
835	-0.038
836	-0.038
836	-0.038
837	-0.037
837	-0.037
838	-0.037
838	-0.037
839	-0.037
839	-0.038
839	-0.038
840	-0.037
840	-0.037
841	-0.037
841	-0.036
842	-0.036
842	-0.035
842	-0.035
843	-0.034
843	-0.033
844	-0.032
844	-0.031
845	-0.031
845	-0.03
845	-0.029
846	-0.029
846	-0.029
847	-0.028
847	-0.028
848	-0.028
848	-0.028
848	-0.028
849	-0.028
849	-0.029
850	-0.029
850	-0.03
851	-0.03
851	-0.03
851	-0.03
852	-0.03
852	-0.03
853	-0.03
853	-0.03
854	-0.029
854	-0.028
854	-0.027
855	-0.027
855	-0.026
856	-0.025
856	-0.024
857	-0.023
857	-0.022
857	-0.022
858	-0.021
858	-0.021
859	-0.02
859	-0.02
860	-0.019
860	-0.019
860	-0.019
861	-0.018
861	-0.018
862	-0.018
862	-0.018
863	-0.018
863	-0.019
863	-0.019
864	-0.019
864	-0.019
865	-0.02
865	-0.02
866	-0.021
866	-0.021
866	-0.021
867	-0.021
867	-0.02
868	-0.02
868	-0.019
869	-0.018
869	-0.017
869	-0.017
870	-0.016
870	-0.015
871	-0.013
871	-0.013
872	-0.012
872	-0.012
872	-0.011
873	-0.01
873	-0.01
874	-0.01
874	-0.01
875	-0.01
875	-0.01
875	-0.01
876	-0.011
876	-0.011
877	-0.012
877	-0.012
878	-0.013
878	-0.014
878	-0.015
879	-0.015
879	-0.016
880	-0.017
880	-0.017
881	-0.017
881	-0.017
881	-0.017
882	-0.016
882	-0.015
883	-0.015
883	-0.014
884	-0.013
884	-0.012
884	-0.011
885	-0.011
885	-0.01
886	-0.01
886	-0.01
887	-0.01
887	-0.01
887	-0.01
888	-0.009
888	-0.009
889	-0.009
889	-0.008
890	-0.007
890	-0.007
890	-0.007
891	-0.006
891	-0.006
892	-0.006
892	-0.006
893	-0.007
893	-0.007
893	-0.007
894	-0.008
894	-0.009
895	-0.01
895	-0.011
895	-0.012
896	-0.013
896	-0.013
897	-0.014
897	-0.014
898	-0.014
898	-0.014
898	-0.014
899	-0.014
899	-0.014
900	-0.014
900	-0.014
901	-0.014
901	-0.013
901	-0.014
902	-0.014
902	-0.014
903	-0.014
903	-0.014
904	-0.015
904	-0.015
904	-0.015
905	-0.016
905	-0.016
906	-0.017
906	-0.017
907	-0.018
907	-0.018
907	-0.019
908	-0.019
908	-0.02
909	-0.02
909	-0.02
910	-0.02
910	-0.019
910	-0.019
911	-0.019
911	-0.018
912	-0.018
912	-0.018
913	-0.018
913	-0.018
913	-0.018
914	-0.019
914	-0.019
915	-0.02
915	-0.02
916	-0.021
916	-0.021
916	-0.021
917	-0.021
917	-0.02
918	-0.019
918	-0.018
918	-0.017
919	-0.015
919	-0.014
920	-0.012
920	-0.01
921	-0.009
921	-0.008
921	-0.007
922	-0.006
922	-0.005
923	-0.004
923	-0.003
924	-0.002
924	-0.002
924	-0.002
925	-0.001
925	-0.001
926	-0
926	-0
927	-0
927	-0.001
927	-0.001
928	-0.001
928	-0.001
929	-0.001
929	-0.001
930	-0.001
930	-0.002
930	-0.003
931	-0.004
931	-0.005
932	-0.006
932	-0.007
933	-0.008
933	-0.01
933	-0.011
934	-0.012
934	-0.013
935	-0.014
935	-0.015
935	-0.016
936	-0.016
936	-0.017
937	-0.017
937	-0.017
938	-0.017
938	-0.017
938	-0.017
939	-0.016
939	-0.015
940	-0.014
940	-0.014
941	-0.013
941	-0.012
941	-0.011
942	-0.011
942	-0.01
943	-0.009
943	-0.009
944	-0.009
944	-0.009
944	-0.008
945	-0.008
945	-0.008
946	-0.008
946	-0.008
946	-0.008
947	-0.007
947	-0.008
948	-0.008
948	-0.008
949	-0.008
949	-0.008
949	-0.007
950	-0.007
950	-0.007
951	-0.007
951	-0.008
952	-0.008
952	-0.007
952	-0.007
953	-0.007
953	-0.007
954	-0.007
954	-0.007
955	-0.007
955	-0.006
955	-0.006
956	-0.006
956	-0.006
957	-0.006
957	-0.006
957	-0.007
958	-0.007
958	-0.007
959	-0.008
959	-0.008
960	-0.009
960	-0.01
960	-0.01
961	-0.011
961	-0.012
962	-0.012
962	-0.012
963	-0.012
963	-0.012
963	-0.012
964	-0.011
964	-0.01
965	-0.01
965	-0.009
966	-0.007
966	-0.006
966	-0.005
967	-0.004
967	-0.004
968	-0.003
968	-0.003
968	-0.003
969	-0.002
969	-0.002
970	-0.002
970	-0.003
971	-0.003
971	-0.004
971	-0.004
972	-0.005
972	-0.005
973	-0.006
973	-0.007
974	-0.007
974	-0.008
974	-0.009
975	-0.01
975	-0.011
976	-0.012
976	-0.013
976	-0.015
977	-0.016
977	-0.018
978	-0.019
978	-0.02
979	-0.021
979	-0.022
979	-0.022
980	-0.023
980	-0.023
981	-0.022
981	-0.022
982	-0.021
982	-0.02
982	-0.018
983	-0.017
983	-0.016
984	-0.014
984	-0.013
984	-0.011
985	-0.01
985	-0.01
986	-0.01
986	-0.01
987	-0.011
987	-0.011
987	-0.012
988	-0.012
988	-0.013
989	-0.014
989	-0.016
990	-0.017
990	-0.017
990	-0.018
991	-0.018
991	-0.018
992	-0.018
992	-0.019
992	-0.019
993	-0.02
993	-0.02
994	-0.021
994	-0.021
995	-0.022
995	-0.023
995	-0.024
996	-0.025
996	-0.026
997	-0.026
997	-0.026
997	-0.027
998	-0.026
998	-0.026
999	-0.025
999	-0.025
1000	-0.024
1000	-0.023
1000	-0.023
1001	-0.022
1001	-0.021
1002	-0.021
1002	-0.02
1003	-0.02
1003	-0.019
1003	-0.019
1004	-0.019
1004	-0.019
1005	-0.018
1005	-0.018
1005	-0.018
1006	-0.017
1006	-0.017
1007	-0.016
1007	-0.016
1008	-0.015
1008	-0.015
1008	-0.014
1009	-0.013
1009	-0.013
1010	-0.012
1010	-0.012
1010	-0.012
1011	-0.011
1011	-0.011
1012	-0.011
1012	-0.011
1013	-0.011
1013	-0.012
1013	-0.012
1014	-0.013
1014	-0.014
1015	-0.015
1015	-0.015
1016	-0.016
1016	-0.017
1016	-0.018
1017	-0.019
1017	-0.02
1018	-0.02
1018	-0.02
1018	-0.02
1019	-0.02
1019	-0.02
1020	-0.02
1020	-0.02
1021	-0.02
1021	-0.02
1021	-0.021
1022	-0.021
1022	-0.021
1023	-0.021
1023	-0.022
1023	-0.022
1024	-0.023
1024	-0.024
1025	-0.025
1025	-0.025
1026	-0.026
1026	-0.026
1026	-0.026
1027	-0.026
1027	-0.026
1028	-0.025
1028	-0.025
1028	-0.024
1029	-0.023
1029	-0.023
1030	-0.022
1030	-0.022
1031	-0.021
1031	-0.021
1031	-0.02
1032	-0.019
1032	-0.019
1033	-0.019
1033	-0.019
1033	-0.019
1034	-0.019
1034	-0.02
1035	-0.021
1035	-0.021
1036	-0.022
1036	-0.022
1036	-0.023
1037	-0.023
1037	-0.024
1038	-0.024
1038	-0.024
1039	-0.024
1039	-0.024
1039	-0.024
1040	-0.024
1040	-0.024
1041	-0.024
1041	-0.024
1041	-0.025
1042	-0.025
1042	-0.026
1043	-0.026
1043	-0.027
1044	-0.028
1044	-0.029
1044	-0.029
1045	-0.03
1045	-0.031
1046	-0.031
1046	-0.032
1046	-0.032
1047	-0.031
1047	-0.031
1048	-0.03
1048	-0.03
1049	-0.03
1049	-0.03
1049	-0.03
1050	-0.03
1050	-0.031
1051	-0.03
1051	-0.03
1051	-0.029
1052	-0.029
1052	-0.028
1053	-0.027
1053	-0.026
1053	-0.025
1054	-0.024
1054	-0.022
1055	-0.02
1055	-0.019
1056	-0.019
1056	-0.019
1056	-0.019
1057	-0.018
1057	-0.018
1058	-0.018
1058	-0.018
1058	-0.018
1059	-0.018
1059	-0.018
1060	-0.018
1060	-0.018
1061	-0.018
1061	-0.017
1061	-0.017
1062	-0.016
1062	-0.016
1063	-0.016
1063	-0.016
1063	-0.016
1064	-0.016
1064	-0.016
1065	-0.015
1065	-0.015
1066	-0.015
1066	-0.015
1066	-0.015
1067	-0.015
1067	-0.014
1068	-0.014
1068	-0.014
1068	-0.014
1069	-0.014
1069	-0.014
1070	-0.014
1070	-0.014
1071	-0.013
1071	-0.012
1071	-0.012
1072	-0.011
1072	-0.01
1073	-0.009
1073	-0.007
1073	-0.006
1074	-0.004
1074	-0.003
1075	-0.003
1075	-0.002
1076	-0.002
1076	-0.001
1076	-0
1077	0
1077	0.001
1078	0.001
1078	0.003
1078	0.003
1079	0.005
1079	0.007
1080	0.008
1080	0.009
1080	0.01
1081	0.012
1081	0.014
1082	0.015
1082	0.016
1083	0.017
1083	0.018
1083	0.02
1084	0.021
1084	0.023
1085	0.024
1085	0.027
1085	0.029
1086	0.03
1086	0.031
1087	0.033
1087	0.036
1088	0.037
1088	0.038
1088	0.041
1089	0.042
1089	0.044
1090	0.046
1090	0.048
1090	0.051
1091	0.055
1091	0.06
1092	0.063
1092	0.068
1092	0.072
1093	0.076
1093	0.083
1094	0.088
1094	0.094
1095	0.1
1095	0.106
1095	0.114
1096	0.12
1096	0.129
1097	0.14
1097	0.148
1097	0.16
1098	0.17
1098	0.182
1099	0.195
1099	0.209
1100	0.224
1100	0.242
1100	0.259
1101	0.28
1101	0.3
1102	0.328
1102	0.356
1102	0.39
1103	0.426
1103	0.47
1104	0.525
1104	0.587
1104	0.668
1105	0.771
1105	0.895
1106	1.076
1106	1.483
1107	-0
1107	-0
1107	-0
1108	-0
1108	-0
1109	-0
1109	-0
1109	-0
1110	-0
1110	-0
1111	-0
1111	-0
