Data from 15c-100ul-ns-20ul-nr-full-exp-7ul-bp_Absorbance__469__04807.txt Node

Date: Mon Jan 15 15:28:27 CET 2024
User: Marek
Spectrometer: MAYP115816
Trigger mode: 0
Integration Time (sec): 2.000000E-1
Scans to average: 10
Electric dark correction enabled: true
Nonlinearity correction enabled: true
Boxcar width: 5
XAxis mode: Wavelengths
Number of Pixels in Spectrum: 2068
>>>>>Begin Spectral Data<<<<<
199	-1.944
199	-1.814
200	-1.671
200	-1.56
201	-1.486
201	-1.436
202	-1.365
202	-1.31
203	-1.26
203	-1.221
204	-1.192
204	-1.169
205	-1.148
205	-1.139
205	-1.136
206	-1.135
206	-1.133
207	-1.129
207	-1.125
208	-1.124
208	-1.118
209	-1.116
209	-1.115
210	-1.114
210	-1.113
211	-1.111
211	-1.109
212	-1.106
212	-1.106
213	-1.106
213	-1.104
213	-1.105
214	-1.104
214	-1.105
215	-1.104
215	-1.105
216	-1.104
216	-1.103
217	-1.102
217	-1.101
218	-1.1
218	-1.096
219	-1.095
219	-1.094
220	-1.089
220	-1.084
221	-1.08
221	-1.076
221	-1.07
222	-1.065
222	-1.06
223	-1.053
223	-1.049
224	-1.043
224	-1.035
225	-1.026
225	-1.015
226	-1.005
226	-0.993
227	-0.978
227	-0.962
228	-0.943
228	-0.923
229	-0.898
229	-0.869
229	-0.84
230	-0.807
230	-0.773
231	-0.734
231	-0.695
232	-0.654
232	-0.61
233	-0.564
233	-0.518
234	-0.472
234	-0.426
235	-0.38
235	-0.335
236	-0.291
236	-0.248
236	-0.206
237	-0.167
237	-0.13
238	-0.095
238	-0.062
239	-0.031
239	-0.002
240	0.024
240	0.048
241	0.07
241	0.091
242	0.109
242	0.126
243	0.142
243	0.156
243	0.169
244	0.181
244	0.191
245	0.201
245	0.21
246	0.218
246	0.226
247	0.232
247	0.239
248	0.245
248	0.251
249	0.256
249	0.26
250	0.265
250	0.269
250	0.273
251	0.277
251	0.28
252	0.284
252	0.287
253	0.289
253	0.292
254	0.294
254	0.297
255	0.299
255	0.301
256	0.302
256	0.304
257	0.305
257	0.306
258	0.307
258	0.308
258	0.309
259	0.309
259	0.31
260	0.31
260	0.311
261	0.311
261	0.311
262	0.311
262	0.311
263	0.311
263	0.311
264	0.31
264	0.31
265	0.309
265	0.308
265	0.308
266	0.307
266	0.306
267	0.305
267	0.304
268	0.303
268	0.302
269	0.301
269	0.299
270	0.298
270	0.297
271	0.295
271	0.294
272	0.292
272	0.291
272	0.29
273	0.288
273	0.286
274	0.285
274	0.283
275	0.282
275	0.28
276	0.279
276	0.277
277	0.275
277	0.273
278	0.271
278	0.27
278	0.268
279	0.265
279	0.263
280	0.261
280	0.259
281	0.257
281	0.255
282	0.254
282	0.252
283	0.251
283	0.249
284	0.248
284	0.247
285	0.246
285	0.245
285	0.243
286	0.242
286	0.241
287	0.239
287	0.238
288	0.237
288	0.236
289	0.235
289	0.233
290	0.232
290	0.231
291	0.23
291	0.229
292	0.227
292	0.227
292	0.225
293	0.224
293	0.223
294	0.222
294	0.221
295	0.22
295	0.22
296	0.219
296	0.218
297	0.217
297	0.216
298	0.215
298	0.214
298	0.214
299	0.213
299	0.212
300	0.212
300	0.211
301	0.21
301	0.209
302	0.208
302	0.208
303	0.207
303	0.207
304	0.206
304	0.205
305	0.204
305	0.204
305	0.203
306	0.202
306	0.202
307	0.201
307	0.2
308	0.199
308	0.198
309	0.198
309	0.197
310	0.196
310	0.195
311	0.195
311	0.194
311	0.193
312	0.192
312	0.192
313	0.191
313	0.19
314	0.19
314	0.189
315	0.188
315	0.187
316	0.187
316	0.186
317	0.185
317	0.184
318	0.184
318	0.183
318	0.182
319	0.181
319	0.181
320	0.18
320	0.179
321	0.178
321	0.177
322	0.177
322	0.176
323	0.175
323	0.174
324	0.174
324	0.173
324	0.172
325	0.171
325	0.171
326	0.17
326	0.169
327	0.169
327	0.168
328	0.167
328	0.167
329	0.166
329	0.165
330	0.164
330	0.164
330	0.163
331	0.163
331	0.162
332	0.161
332	0.161
333	0.16
333	0.159
334	0.159
334	0.158
335	0.157
335	0.157
336	0.156
336	0.155
336	0.155
337	0.154
337	0.153
338	0.153
338	0.152
339	0.152
339	0.151
340	0.151
340	0.15
341	0.149
341	0.149
342	0.148
342	0.148
342	0.147
343	0.146
343	0.146
344	0.145
344	0.145
345	0.144
345	0.144
346	0.143
346	0.143
347	0.142
347	0.142
348	0.142
348	0.141
348	0.141
349	0.14
349	0.139
350	0.139
350	0.138
351	0.138
351	0.137
352	0.136
352	0.136
353	0.135
353	0.135
354	0.134
354	0.133
354	0.133
355	0.132
355	0.131
356	0.131
356	0.131
357	0.131
357	0.131
358	0.131
358	0.131
359	0.131
359	0.132
360	0.132
360	0.132
360	0.132
361	0.132
361	0.132
362	0.132
362	0.132
363	0.132
363	0.131
364	0.131
364	0.131
365	0.13
365	0.13
366	0.13
366	0.13
366	0.13
367	0.13
367	0.129
368	0.129
368	0.128
369	0.128
369	0.127
370	0.127
370	0.127
371	0.126
371	0.126
372	0.125
372	0.125
372	0.125
373	0.125
373	0.125
374	0.125
374	0.125
375	0.125
375	0.124
376	0.124
376	0.125
377	0.125
377	0.125
378	0.125
378	0.125
378	0.125
379	0.125
379	0.125
380	0.125
380	0.125
381	0.125
381	0.125
382	0.124
382	0.124
383	0.124
383	0.123
383	0.123
384	0.122
384	0.122
385	0.122
385	0.122
386	0.121
386	0.122
387	0.121
387	0.121
388	0.121
388	0.121
389	0.121
389	0.121
389	0.121
390	0.121
390	0.121
391	0.121
391	0.121
392	0.121
392	0.121
393	0.121
393	0.121
394	0.121
394	0.121
394	0.121
395	0.12
395	0.119
396	0.119
396	0.119
397	0.119
397	0.119
398	0.119
398	0.119
399	0.119
399	0.119
400	0.119
400	0.118
400	0.118
401	0.117
401	0.117
402	0.116
402	0.115
403	0.115
403	0.115
404	0.115
404	0.115
405	0.114
405	0.114
405	0.114
406	0.114
406	0.114
407	0.114
407	0.114
408	0.113
408	0.113
409	0.113
409	0.112
410	0.112
410	0.112
411	0.112
411	0.112
411	0.112
412	0.111
412	0.111
413	0.11
413	0.11
414	0.11
414	0.109
415	0.109
415	0.108
416	0.108
416	0.107
416	0.107
417	0.107
417	0.107
418	0.107
418	0.107
419	0.107
419	0.108
420	0.108
420	0.109
421	0.109
421	0.109
421	0.11
422	0.11
422	0.11
423	0.11
423	0.109
424	0.108
424	0.108
425	0.107
425	0.106
426	0.106
426	0.106
427	0.106
427	0.106
427	0.106
428	0.107
428	0.107
429	0.108
429	0.108
430	0.108
430	0.108
431	0.108
431	0.107
432	0.107
432	0.106
432	0.105
433	0.104
433	0.103
434	0.103
434	0.103
435	0.102
435	0.102
436	0.102
436	0.102
437	0.102
437	0.102
437	0.102
438	0.102
438	0.102
439	0.102
439	0.102
440	0.102
440	0.101
441	0.101
441	0.101
442	0.102
442	0.102
442	0.102
443	0.102
443	0.102
444	0.102
444	0.102
445	0.103
445	0.103
446	0.103
446	0.102
447	0.102
447	0.102
447	0.102
448	0.102
448	0.101
449	0.101
449	0.101
450	0.1
450	0.1
451	0.1
451	0.099
452	0.099
452	0.099
452	0.098
453	0.098
453	0.098
454	0.097
454	0.097
455	0.097
455	0.097
456	0.097
456	0.097
457	0.097
457	0.097
458	0.097
458	0.097
458	0.098
459	0.098
459	0.098
460	0.097
460	0.097
461	0.096
461	0.096
462	0.096
462	0.096
463	0.096
463	0.097
463	0.097
464	0.098
464	0.097
465	0.097
465	0.097
466	0.097
466	0.098
467	0.097
467	0.097
467	0.096
468	0.095
468	0.093
469	0.092
469	0.092
470	0.092
470	0.091
471	0.091
471	0.091
472	0.092
472	0.092
472	0.093
473	0.094
473	0.094
474	0.095
474	0.096
475	0.096
475	0.097
476	0.097
476	0.097
477	0.097
477	0.097
477	0.098
478	0.098
478	0.098
479	0.098
479	0.099
480	0.099
480	0.1
481	0.101
481	0.102
482	0.103
482	0.104
482	0.105
483	0.107
483	0.11
484	0.112
484	0.113
485	0.114
485	0.115
486	0.116
486	0.116
487	0.117
487	0.118
487	0.118
488	0.117
488	0.116
489	0.115
489	0.114
490	0.114
490	0.114
491	0.114
491	0.115
492	0.115
492	0.116
492	0.116
493	0.117
493	0.119
494	0.121
494	0.123
495	0.125
495	0.126
496	0.128
496	0.129
496	0.13
497	0.131
497	0.132
498	0.133
498	0.134
499	0.134
499	0.134
500	0.135
500	0.136
501	0.137
501	0.139
501	0.14
502	0.141
502	0.142
503	0.143
503	0.145
504	0.145
504	0.146
505	0.147
505	0.147
506	0.148
506	0.148
506	0.149
507	0.15
507	0.151
508	0.151
508	0.152
509	0.153
509	0.154
510	0.155
510	0.155
511	0.156
511	0.156
511	0.157
512	0.157
512	0.158
513	0.158
513	0.158
514	0.157
514	0.157
515	0.157
515	0.156
515	0.155
516	0.155
516	0.156
517	0.156
517	0.156
518	0.157
518	0.156
519	0.156
519	0.155
520	0.154
520	0.153
520	0.151
521	0.149
521	0.147
522	0.144
522	0.143
523	0.141
523	0.141
524	0.142
524	0.143
524	0.144
525	0.146
525	0.148
526	0.151
526	0.153
527	0.156
527	0.158
528	0.16
528	0.161
529	0.162
529	0.163
529	0.163
530	0.163
530	0.163
531	0.164
531	0.163
532	0.162
532	0.162
533	0.162
533	0.161
533	0.161
534	0.16
534	0.158
535	0.158
535	0.157
536	0.157
536	0.156
537	0.155
537	0.154
538	0.153
538	0.152
538	0.15
539	0.15
539	0.149
540	0.147
540	0.146
541	0.144
541	0.143
542	0.141
542	0.14
542	0.138
543	0.137
543	0.136
544	0.135
544	0.134
545	0.134
545	0.133
546	0.132
546	0.131
547	0.13
547	0.127
547	0.125
548	0.124
548	0.122
549	0.12
549	0.118
550	0.116
550	0.114
551	0.111
551	0.109
551	0.108
552	0.107
552	0.105
553	0.104
553	0.104
554	0.103
554	0.101
555	0.1
555	0.098
556	0.096
556	0.093
556	0.091
557	0.089
557	0.087
558	0.085
558	0.083
559	0.082
559	0.08
560	0.079
560	0.078
560	0.077
561	0.077
561	0.077
562	0.076
562	0.075
563	0.073
563	0.071
564	0.069
564	0.067
564	0.066
565	0.064
565	0.063
566	0.061
566	0.06
567	0.06
567	0.06
568	0.06
568	0.061
568	0.061
569	0.062
569	0.063
570	0.063
570	0.062
571	0.062
571	0.062
572	0.062
572	0.061
573	0.061
573	0.06
573	0.058
574	0.058
574	0.057
575	0.057
575	0.058
576	0.058
576	0.057
577	0.055
577	0.054
577	0.053
578	0.053
578	0.053
579	0.054
579	0.055
580	0.054
580	0.051
581	0.048
581	0.047
581	0.047
582	0.047
582	0.047
583	0.048
583	0.046
584	0.043
584	0.039
585	0.038
585	0.039
585	0.039
586	0.039
586	0.038
587	0.036
587	0.034
588	0.031
588	0.03
589	0.03
589	0.03
590	0.029
590	0.029
590	0.03
591	0.031
591	0.03
592	0.03
592	0.029
593	0.029
593	0.029
594	0.028
594	0.027
594	0.026
595	0.026
595	0.025
596	0.024
596	0.025
597	0.027
597	0.028
598	0.029
598	0.03
598	0.03
599	0.031
599	0.03
600	0.029
600	0.027
601	0.027
601	0.026
602	0.024
602	0.022
602	0.021
603	0.02
603	0.021
604	0.022
604	0.023
605	0.024
605	0.026
606	0.026
606	0.025
606	0.025
607	0.024
607	0.024
608	0.024
608	0.023
609	0.022
609	0.022
610	0.021
610	0.02
610	0.021
611	0.022
611	0.023
612	0.025
612	0.026
613	0.027
613	0.029
614	0.028
614	0.028
614	0.027
615	0.027
615	0.026
616	0.026
616	0.025
617	0.025
617	0.024
618	0.023
618	0.022
618	0.022
619	0.023
619	0.024
620	0.026
620	0.027
621	0.028
621	0.028
622	0.029
622	0.03
622	0.029
623	0.029
623	0.03
624	0.031
624	0.03
625	0.03
625	0.03
626	0.03
626	0.03
626	0.031
627	0.032
627	0.033
628	0.034
628	0.034
629	0.035
629	0.035
630	0.035
630	0.035
630	0.036
631	0.036
631	0.037
632	0.037
632	0.037
633	0.038
633	0.039
634	0.041
634	0.043
634	0.045
635	0.046
635	0.047
636	0.048
636	0.05
637	0.051
637	0.052
638	0.053
638	0.054
638	0.055
639	0.055
639	0.056
640	0.057
640	0.057
641	0.058
641	0.059
642	0.06
642	0.062
642	0.063
643	0.064
643	0.066
644	0.068
644	0.069
645	0.071
645	0.073
646	0.076
646	0.079
646	0.081
647	0.084
647	0.087
648	0.089
648	0.091
649	0.093
649	0.095
650	0.098
650	0.1
650	0.102
651	0.104
651	0.106
652	0.108
652	0.11
653	0.114
653	0.122
653	0.137
654	0.113
654	0.095
655	0.096
655	0.098
656	0.1
656	0.102
657	0.104
657	0.106
657	0.107
658	0.104
658	0.094
659	0.117
659	0.147
660	0.154
660	0.156
661	0.158
661	0.16
661	0.162
662	0.166
662	0.169
663	0.172
663	0.174
664	0.177
664	0.18
665	0.183
665	0.185
665	0.188
666	0.19
666	0.193
667	0.195
667	0.197
668	0.2
668	0.202
669	0.205
669	0.208
669	0.211
670	0.215
670	0.217
671	0.219
671	0.221
672	0.223
672	0.224
672	0.226
673	0.227
673	0.229
674	0.23
674	0.231
675	0.232
675	0.233
676	0.236
676	0.238
676	0.239
677	0.241
677	0.243
678	0.244
678	0.245
679	0.246
679	0.247
680	0.248
680	0.249
680	0.249
681	0.249
681	0.249
682	0.25
682	0.251
683	0.253
683	0.255
684	0.257
684	0.258
684	0.258
685	0.259
685	0.26
686	0.261
686	0.261
687	0.261
687	0.261
687	0.261
688	0.26
688	0.26
689	0.261
689	0.262
690	0.262
690	0.261
691	0.261
691	0.261
691	0.261
692	0.26
692	0.259
693	0.259
693	0.259
694	0.257
694	0.256
695	0.256
695	0.258
695	0.258
696	0.258
696	0.257
697	0.257
697	0.256
698	0.255
698	0.253
698	0.252
699	0.251
699	0.249
700	0.246
700	0.244
701	0.243
701	0.241
702	0.24
702	0.238
702	0.237
703	0.235
703	0.234
704	0.232
704	0.232
705	0.231
705	0.229
705	0.227
706	0.226
706	0.225
707	0.223
707	0.221
708	0.218
708	0.217
709	0.215
709	0.212
709	0.208
710	0.205
710	0.203
711	0.201
711	0.199
712	0.197
712	0.196
713	0.194
713	0.193
713	0.191
714	0.189
714	0.187
715	0.186
715	0.184
716	0.181
716	0.18
716	0.177
717	0.175
717	0.172
718	0.169
718	0.167
719	0.165
719	0.163
720	0.16
720	0.157
720	0.154
721	0.151
721	0.148
722	0.145
722	0.142
723	0.14
723	0.138
723	0.136
724	0.134
724	0.132
725	0.13
725	0.128
726	0.127
726	0.126
727	0.124
727	0.123
727	0.122
728	0.12
728	0.118
729	0.118
729	0.117
730	0.115
730	0.113
730	0.112
731	0.11
731	0.109
732	0.107
732	0.105
733	0.103
733	0.101
734	0.099
734	0.096
734	0.094
735	0.093
735	0.09
736	0.087
736	0.085
737	0.084
737	0.083
737	0.081
738	0.078
738	0.075
739	0.073
739	0.071
740	0.068
740	0.067
741	0.065
741	0.063
741	0.06
742	0.056
742	0.053
743	0.051
743	0.049
744	0.047
744	0.045
744	0.043
745	0.04
745	0.038
746	0.037
746	0.035
747	0.034
747	0.034
748	0.033
748	0.032
748	0.031
749	0.03
749	0.029
750	0.029
750	0.028
751	0.028
751	0.028
751	0.028
752	0.027
752	0.026
753	0.025
753	0.025
754	0.024
754	0.023
754	0.023
755	0.023
755	0.023
756	0.022
756	0.02
757	0.019
757	0.018
758	0.017
758	0.016
758	0.015
759	0.014
759	0.012
760	0.01
760	0.008
761	0.007
761	0.006
761	0.005
762	0.003
762	0.002
763	0.001
763	-0.001
764	-0.004
764	-0.006
764	-0.009
765	-0.011
765	-0.014
766	-0.015
766	-0.016
767	-0.018
767	-0.021
768	-0.024
768	-0.026
768	-0.027
769	-0.027
769	-0.028
770	-0.029
770	-0.03
771	-0.032
771	-0.034
771	-0.037
772	-0.038
772	-0.04
773	-0.041
773	-0.043
774	-0.046
774	-0.048
775	-0.05
775	-0.053
775	-0.056
776	-0.059
776	-0.061
777	-0.064
777	-0.067
778	-0.071
778	-0.074
778	-0.077
779	-0.079
779	-0.08
780	-0.083
780	-0.087
781	-0.09
781	-0.094
781	-0.097
782	-0.101
782	-0.105
783	-0.11
783	-0.112
784	-0.116
784	-0.119
784	-0.121
785	-0.123
785	-0.125
786	-0.125
786	-0.123
787	-0.119
787	-0.115
788	-0.113
788	-0.114
788	-0.114
789	-0.116
789	-0.115
790	-0.112
790	-0.11
791	-0.11
791	-0.111
791	-0.113
792	-0.109
792	-0.099
793	-0.093
793	-0.09
794	-0.089
794	-0.091
794	-0.095
795	-0.098
795	-0.098
796	-0.098
796	-0.101
797	-0.109
797	-0.119
797	-0.125
798	-0.13
798	-0.132
799	-0.133
799	-0.133
800	-0.133
800	-0.135
801	-0.138
801	-0.139
801	-0.14
802	-0.142
802	-0.143
803	-0.144
803	-0.144
804	-0.143
804	-0.138
804	-0.131
805	-0.127
805	-0.125
806	-0.123
806	-0.121
807	-0.12
807	-0.12
807	-0.119
808	-0.119
808	-0.12
809	-0.125
809	-0.13
810	-0.134
810	-0.136
810	-0.139
811	-0.142
811	-0.142
812	-0.137
812	-0.134
813	-0.133
813	-0.133
813	-0.133
814	-0.134
814	-0.133
815	-0.131
815	-0.128
816	-0.126
816	-0.127
817	-0.131
817	-0.135
817	-0.135
818	-0.135
818	-0.132
819	-0.127
819	-0.125
820	-0.126
820	-0.128
820	-0.13
821	-0.129
821	-0.127
822	-0.124
822	-0.121
823	-0.117
823	-0.116
823	-0.116
824	-0.114
824	-0.108
825	-0.101
825	-0.093
826	-0.087
826	-0.082
826	-0.076
827	-0.072
827	-0.068
828	-0.064
828	-0.06
829	-0.057
829	-0.054
829	-0.052
830	-0.051
830	-0.049
831	-0.047
831	-0.045
832	-0.044
832	-0.043
832	-0.042
833	-0.041
833	-0.04
834	-0.039
834	-0.038
835	-0.037
835	-0.037
835	-0.037
836	-0.036
836	-0.036
837	-0.036
837	-0.035
838	-0.035
838	-0.035
839	-0.036
839	-0.036
839	-0.036
840	-0.036
840	-0.036
841	-0.035
841	-0.035
842	-0.034
842	-0.034
842	-0.033
843	-0.033
843	-0.032
844	-0.031
844	-0.03
845	-0.029
845	-0.029
845	-0.028
846	-0.028
846	-0.027
847	-0.027
847	-0.027
848	-0.027
848	-0.027
848	-0.027
849	-0.027
849	-0.027
850	-0.028
850	-0.028
851	-0.028
851	-0.028
851	-0.029
852	-0.029
852	-0.028
853	-0.028
853	-0.028
854	-0.027
854	-0.027
854	-0.026
855	-0.025
855	-0.025
856	-0.024
856	-0.023
857	-0.022
857	-0.022
857	-0.021
858	-0.021
858	-0.021
859	-0.02
859	-0.02
860	-0.019
860	-0.019
860	-0.019
861	-0.018
861	-0.018
862	-0.018
862	-0.018
863	-0.018
863	-0.018
863	-0.018
864	-0.018
864	-0.018
865	-0.019
865	-0.019
866	-0.019
866	-0.02
866	-0.019
867	-0.019
867	-0.019
868	-0.018
868	-0.017
869	-0.016
869	-0.015
869	-0.015
870	-0.014
870	-0.013
871	-0.012
871	-0.012
872	-0.011
872	-0.011
872	-0.011
873	-0.01
873	-0.01
874	-0.01
874	-0.01
875	-0.01
875	-0.01
875	-0.01
876	-0.01
876	-0.011
877	-0.011
877	-0.011
878	-0.012
878	-0.013
878	-0.013
879	-0.014
879	-0.015
880	-0.016
880	-0.016
881	-0.017
881	-0.017
881	-0.016
882	-0.016
882	-0.015
883	-0.014
883	-0.014
884	-0.013
884	-0.012
884	-0.011
885	-0.011
885	-0.01
886	-0.01
886	-0.009
887	-0.01
887	-0.01
887	-0.009
888	-0.009
888	-0.008
889	-0.007
889	-0.006
890	-0.006
890	-0.005
890	-0.004
891	-0.004
891	-0.003
892	-0.003
892	-0.003
893	-0.004
893	-0.004
893	-0.005
894	-0.005
894	-0.006
895	-0.007
895	-0.008
895	-0.009
896	-0.01
896	-0.011
897	-0.011
897	-0.012
898	-0.012
898	-0.012
898	-0.012
899	-0.012
899	-0.011
900	-0.012
900	-0.011
901	-0.011
901	-0.011
901	-0.011
902	-0.011
902	-0.011
903	-0.011
903	-0.012
904	-0.012
904	-0.013
904	-0.013
905	-0.014
905	-0.014
906	-0.015
906	-0.016
907	-0.016
907	-0.017
907	-0.017
908	-0.018
908	-0.018
909	-0.018
909	-0.018
910	-0.018
910	-0.018
910	-0.017
911	-0.017
911	-0.017
912	-0.016
912	-0.016
913	-0.016
913	-0.016
913	-0.017
914	-0.017
914	-0.018
915	-0.018
915	-0.019
916	-0.02
916	-0.02
916	-0.02
917	-0.019
917	-0.019
918	-0.018
918	-0.017
918	-0.015
919	-0.014
919	-0.012
920	-0.011
920	-0.009
921	-0.008
921	-0.007
921	-0.006
922	-0.005
922	-0.004
923	-0.003
923	-0.002
924	-0.001
924	-0.001
924	-0.001
925	-0.001
925	-0
926	0
926	0
927	-0
927	-0
927	-0
928	-0
928	-0
929	-0
929	-0
930	-0
930	-0.001
930	-0.002
931	-0.003
931	-0.004
932	-0.005
932	-0.007
933	-0.008
933	-0.009
933	-0.01
934	-0.012
934	-0.013
935	-0.014
935	-0.015
935	-0.015
936	-0.015
936	-0.016
937	-0.016
937	-0.016
938	-0.016
938	-0.016
938	-0.015
939	-0.015
939	-0.014
940	-0.013
940	-0.013
941	-0.012
941	-0.011
941	-0.011
942	-0.01
942	-0.009
943	-0.009
943	-0.008
944	-0.008
944	-0.008
944	-0.007
945	-0.007
945	-0.006
946	-0.006
946	-0.006
946	-0.006
947	-0.006
947	-0.006
948	-0.006
948	-0.006
949	-0.007
949	-0.006
949	-0.006
950	-0.006
950	-0.006
951	-0.006
951	-0.006
952	-0.006
952	-0.006
952	-0.006
953	-0.006
953	-0.005
954	-0.005
954	-0.005
955	-0.006
955	-0.005
955	-0.005
956	-0.005
956	-0.004
957	-0.004
957	-0.005
957	-0.005
958	-0.006
958	-0.006
959	-0.006
959	-0.007
960	-0.008
960	-0.009
960	-0.009
961	-0.01
961	-0.011
962	-0.012
962	-0.012
963	-0.012
963	-0.012
963	-0.011
964	-0.011
964	-0.01
965	-0.009
965	-0.008
966	-0.007
966	-0.006
966	-0.005
967	-0.004
967	-0.003
968	-0.003
968	-0.003
968	-0.003
969	-0.002
969	-0.003
970	-0.003
970	-0.003
971	-0.004
971	-0.004
971	-0.005
972	-0.005
972	-0.005
973	-0.006
973	-0.007
974	-0.007
974	-0.008
974	-0.009
975	-0.009
975	-0.01
976	-0.011
976	-0.012
976	-0.013
977	-0.015
977	-0.016
978	-0.017
978	-0.018
979	-0.019
979	-0.02
979	-0.02
980	-0.02
980	-0.02
981	-0.02
981	-0.019
982	-0.018
982	-0.017
982	-0.015
983	-0.014
983	-0.013
984	-0.011
984	-0.01
984	-0.009
985	-0.008
985	-0.008
986	-0.008
986	-0.008
987	-0.009
987	-0.009
987	-0.01
988	-0.011
988	-0.012
989	-0.013
989	-0.014
990	-0.016
990	-0.017
990	-0.017
991	-0.018
991	-0.018
992	-0.018
992	-0.019
992	-0.019
993	-0.019
993	-0.02
994	-0.021
994	-0.021
995	-0.022
995	-0.023
995	-0.023
996	-0.024
996	-0.025
997	-0.026
997	-0.026
997	-0.026
998	-0.026
998	-0.026
999	-0.025
999	-0.025
1000	-0.024
1000	-0.023
1000	-0.023
1001	-0.022
1001	-0.021
1002	-0.021
1002	-0.02
1003	-0.02
1003	-0.019
1003	-0.019
1004	-0.019
1004	-0.018
1005	-0.018
1005	-0.018
1005	-0.017
1006	-0.017
1006	-0.016
1007	-0.016
1007	-0.015
1008	-0.015
1008	-0.014
1008	-0.013
1009	-0.013
1009	-0.012
1010	-0.012
1010	-0.011
1010	-0.011
1011	-0.011
1011	-0.011
1012	-0.011
1012	-0.011
1013	-0.011
1013	-0.011
1013	-0.012
1014	-0.012
1014	-0.013
1015	-0.014
1015	-0.015
1016	-0.016
1016	-0.016
1016	-0.017
1017	-0.018
1017	-0.018
1018	-0.018
1018	-0.019
1018	-0.019
1019	-0.018
1019	-0.018
1020	-0.018
1020	-0.018
1021	-0.019
1021	-0.019
1021	-0.019
1022	-0.02
1022	-0.02
1023	-0.02
1023	-0.021
1023	-0.022
1024	-0.022
1024	-0.023
1025	-0.024
1025	-0.024
1026	-0.025
1026	-0.025
1026	-0.025
1027	-0.025
1027	-0.025
1028	-0.024
1028	-0.024
1028	-0.023
1029	-0.023
1029	-0.022
1030	-0.022
1030	-0.021
1031	-0.021
1031	-0.02
1031	-0.02
1032	-0.019
1032	-0.019
1033	-0.019
1033	-0.019
1033	-0.019
1034	-0.02
1034	-0.021
1035	-0.021
1035	-0.022
1036	-0.022
1036	-0.023
1036	-0.023
1037	-0.024
1037	-0.024
1038	-0.025
1038	-0.025
1039	-0.025
1039	-0.024
1039	-0.024
1040	-0.024
1040	-0.024
1041	-0.024
1041	-0.024
1041	-0.025
1042	-0.025
1042	-0.026
1043	-0.026
1043	-0.027
1044	-0.028
1044	-0.028
1044	-0.029
1045	-0.029
1045	-0.03
1046	-0.031
1046	-0.031
1046	-0.031
1047	-0.03
1047	-0.03
1048	-0.029
1048	-0.029
1049	-0.029
1049	-0.029
1049	-0.029
1050	-0.029
1050	-0.03
1051	-0.03
1051	-0.03
1051	-0.029
1052	-0.028
1052	-0.028
1053	-0.027
1053	-0.026
1053	-0.025
1054	-0.023
1054	-0.022
1055	-0.02
1055	-0.019
1056	-0.019
1056	-0.018
1056	-0.018
1057	-0.018
1057	-0.018
1058	-0.018
1058	-0.018
1058	-0.018
1059	-0.017
1059	-0.018
1060	-0.018
1060	-0.017
1061	-0.017
1061	-0.016
1061	-0.016
1062	-0.015
1062	-0.015
1063	-0.015
1063	-0.015
1063	-0.015
1064	-0.015
1064	-0.014
1065	-0.014
1065	-0.014
1066	-0.014
1066	-0.014
1066	-0.014
1067	-0.014
1067	-0.014
1068	-0.013
1068	-0.013
1068	-0.013
1069	-0.014
1069	-0.014
1070	-0.013
1070	-0.013
1071	-0.012
1071	-0.012
1071	-0.012
1072	-0.01
1072	-0.009
1073	-0.008
1073	-0.007
1073	-0.006
1074	-0.004
1074	-0.003
1075	-0.003
1075	-0.002
1076	-0.002
1076	-0.001
1076	-0.001
1077	-0.001
1077	0
1078	0
1078	0.002
1078	0.003
1079	0.004
1079	0.005
1080	0.006
1080	0.008
1080	0.009
1081	0.01
1081	0.012
1082	0.013
1082	0.014
1083	0.015
1083	0.017
1083	0.018
1084	0.02
1084	0.022
1085	0.024
1085	0.026
1085	0.028
1086	0.029
1086	0.03
1087	0.033
1087	0.035
1088	0.036
1088	0.038
1088	0.04
1089	0.041
1089	0.043
1090	0.045
1090	0.047
1090	0.05
1091	0.052
1091	0.056
1092	0.06
1092	0.065
1092	0.069
1093	0.073
1093	0.079
1094	0.084
1094	0.089
1095	0.095
1095	0.101
1095	0.109
1096	0.116
1096	0.124
1097	0.134
1097	0.141
1097	0.152
1098	0.162
1098	0.173
1099	0.186
1099	0.201
1100	0.216
1100	0.232
1100	0.249
1101	0.268
1101	0.289
1102	0.316
1102	0.343
1102	0.375
1103	0.41
1103	0.452
1104	0.501
1104	0.557
1104	0.63
1105	0.72
1105	0.829
1106	0.981
1106	1.262
1107	-0
1107	-0
1107	-0
1108	-0
1108	-0
1109	-0
1109	-0
1109	-0
1110	-0
1110	-0
1111	-0
1111	-0
