Data from 15c-100ul-ns-20ul-nr-full-exp-7ul-bp_Absorbance__796__05134.txt Node

Date: Mon Jan 15 15:39:21 CET 2024
User: Marek
Spectrometer: MAYP115816
Trigger mode: 0
Integration Time (sec): 2.000000E-1
Scans to average: 10
Electric dark correction enabled: true
Nonlinearity correction enabled: true
Boxcar width: 5
XAxis mode: Wavelengths
Number of Pixels in Spectrum: 2068
>>>>>Begin Spectral Data<<<<<
199	-1.947
199	-1.818
200	-1.674
200	-1.563
201	-1.49
201	-1.439
202	-1.368
202	-1.313
203	-1.263
203	-1.224
204	-1.195
204	-1.172
205	-1.151
205	-1.142
205	-1.14
206	-1.139
206	-1.137
207	-1.133
207	-1.13
208	-1.129
208	-1.123
209	-1.121
209	-1.12
210	-1.12
210	-1.118
211	-1.116
211	-1.114
212	-1.111
212	-1.11
213	-1.11
213	-1.108
213	-1.109
214	-1.108
214	-1.108
215	-1.108
215	-1.108
216	-1.107
216	-1.107
217	-1.106
217	-1.105
218	-1.104
218	-1.101
219	-1.099
219	-1.098
220	-1.093
220	-1.089
221	-1.085
221	-1.08
221	-1.074
222	-1.07
222	-1.064
223	-1.057
223	-1.053
224	-1.047
224	-1.039
225	-1.03
225	-1.019
226	-1.009
226	-0.997
227	-0.983
227	-0.966
228	-0.946
228	-0.927
229	-0.902
229	-0.872
229	-0.844
230	-0.812
230	-0.777
231	-0.738
231	-0.698
232	-0.657
232	-0.613
233	-0.567
233	-0.521
234	-0.474
234	-0.429
235	-0.382
235	-0.336
236	-0.292
236	-0.249
236	-0.207
237	-0.166
237	-0.129
238	-0.093
238	-0.059
239	-0.028
239	0.002
240	0.029
240	0.054
241	0.076
241	0.098
242	0.117
242	0.134
243	0.151
243	0.165
243	0.178
244	0.191
244	0.202
245	0.211
245	0.221
246	0.229
246	0.237
247	0.244
247	0.251
248	0.258
248	0.264
249	0.269
249	0.273
250	0.278
250	0.283
250	0.287
251	0.291
251	0.294
252	0.298
252	0.301
253	0.304
253	0.306
254	0.308
254	0.311
255	0.313
255	0.315
256	0.317
256	0.318
257	0.32
257	0.321
258	0.322
258	0.323
258	0.324
259	0.324
259	0.325
260	0.325
260	0.326
261	0.326
261	0.326
262	0.326
262	0.325
263	0.326
263	0.325
264	0.325
264	0.325
265	0.324
265	0.324
265	0.323
266	0.322
266	0.322
267	0.32
267	0.319
268	0.318
268	0.317
269	0.316
269	0.314
270	0.313
270	0.312
271	0.31
271	0.309
272	0.307
272	0.306
272	0.305
273	0.303
273	0.301
274	0.3
274	0.298
275	0.297
275	0.295
276	0.294
276	0.292
277	0.29
277	0.288
278	0.287
278	0.285
278	0.283
279	0.28
279	0.278
280	0.276
280	0.274
281	0.272
281	0.27
282	0.269
282	0.267
283	0.266
283	0.264
284	0.263
284	0.262
285	0.261
285	0.259
285	0.258
286	0.257
286	0.255
287	0.254
287	0.253
288	0.251
288	0.25
289	0.249
289	0.247
290	0.246
290	0.245
291	0.244
291	0.243
292	0.242
292	0.241
292	0.24
293	0.238
293	0.237
294	0.236
294	0.235
295	0.234
295	0.233
296	0.232
296	0.232
297	0.231
297	0.23
298	0.229
298	0.228
298	0.227
299	0.227
299	0.226
300	0.225
300	0.224
301	0.223
301	0.222
302	0.222
302	0.221
303	0.22
303	0.22
304	0.219
304	0.218
305	0.217
305	0.217
305	0.216
306	0.215
306	0.214
307	0.214
307	0.213
308	0.212
308	0.211
309	0.21
309	0.209
310	0.208
310	0.208
311	0.207
311	0.206
311	0.206
312	0.205
312	0.204
313	0.203
313	0.203
314	0.202
314	0.201
315	0.2
315	0.199
316	0.199
316	0.198
317	0.197
317	0.196
318	0.195
318	0.194
318	0.194
319	0.193
319	0.192
320	0.191
320	0.19
321	0.19
321	0.189
322	0.188
322	0.187
323	0.187
323	0.186
324	0.185
324	0.184
324	0.184
325	0.183
325	0.182
326	0.181
326	0.181
327	0.18
327	0.179
328	0.178
328	0.178
329	0.177
329	0.176
330	0.175
330	0.175
330	0.174
331	0.173
331	0.173
332	0.172
332	0.171
333	0.171
333	0.17
334	0.169
334	0.168
335	0.168
335	0.167
336	0.167
336	0.166
336	0.166
337	0.165
337	0.164
338	0.163
338	0.163
339	0.162
339	0.162
340	0.161
340	0.16
341	0.16
341	0.159
342	0.158
342	0.158
342	0.157
343	0.157
343	0.156
344	0.156
344	0.155
345	0.155
345	0.154
346	0.153
346	0.153
347	0.152
347	0.152
348	0.151
348	0.151
348	0.15
349	0.15
349	0.149
350	0.149
350	0.148
351	0.148
351	0.147
352	0.146
352	0.146
353	0.145
353	0.144
354	0.144
354	0.143
354	0.142
355	0.142
355	0.141
356	0.141
356	0.14
357	0.14
357	0.14
358	0.14
358	0.141
359	0.141
359	0.141
360	0.141
360	0.142
360	0.142
361	0.142
361	0.142
362	0.141
362	0.141
363	0.141
363	0.141
364	0.14
364	0.14
365	0.14
365	0.139
366	0.139
366	0.139
366	0.139
367	0.139
367	0.138
368	0.138
368	0.137
369	0.137
369	0.137
370	0.136
370	0.136
371	0.136
371	0.135
372	0.135
372	0.134
372	0.134
373	0.134
373	0.134
374	0.134
374	0.134
375	0.134
375	0.134
376	0.134
376	0.134
377	0.134
377	0.134
378	0.134
378	0.134
378	0.134
379	0.134
379	0.134
380	0.134
380	0.134
381	0.134
381	0.134
382	0.133
382	0.133
383	0.133
383	0.132
383	0.132
384	0.131
384	0.131
385	0.131
385	0.13
386	0.13
386	0.13
387	0.13
387	0.13
388	0.13
388	0.129
389	0.129
389	0.129
389	0.129
390	0.129
390	0.13
391	0.13
391	0.13
392	0.13
392	0.13
393	0.13
393	0.13
394	0.129
394	0.129
394	0.129
395	0.128
395	0.128
396	0.127
396	0.127
397	0.127
397	0.127
398	0.127
398	0.127
399	0.127
399	0.127
400	0.127
400	0.126
400	0.126
401	0.126
401	0.125
402	0.124
402	0.123
403	0.123
403	0.123
404	0.123
404	0.123
405	0.122
405	0.122
405	0.122
406	0.122
406	0.122
407	0.122
407	0.122
408	0.121
408	0.121
409	0.121
409	0.12
410	0.12
410	0.12
411	0.12
411	0.12
411	0.119
412	0.119
412	0.119
413	0.118
413	0.118
414	0.117
414	0.117
415	0.116
415	0.116
416	0.115
416	0.115
416	0.115
417	0.114
417	0.114
418	0.114
418	0.115
419	0.115
419	0.116
420	0.116
420	0.117
421	0.117
421	0.117
421	0.117
422	0.118
422	0.118
423	0.117
423	0.117
424	0.116
424	0.115
425	0.115
425	0.114
426	0.114
426	0.114
427	0.114
427	0.114
427	0.114
428	0.115
428	0.115
429	0.116
429	0.116
430	0.116
430	0.116
431	0.115
431	0.115
432	0.115
432	0.114
432	0.113
433	0.112
433	0.111
434	0.11
434	0.11
435	0.11
435	0.11
436	0.11
436	0.11
437	0.11
437	0.11
437	0.11
438	0.11
438	0.11
439	0.11
439	0.109
440	0.109
440	0.109
441	0.109
441	0.109
442	0.109
442	0.109
442	0.11
443	0.11
443	0.11
444	0.11
444	0.11
445	0.11
445	0.11
446	0.11
446	0.11
447	0.11
447	0.11
447	0.109
448	0.109
448	0.109
449	0.108
449	0.108
450	0.108
450	0.108
451	0.107
451	0.107
452	0.107
452	0.106
452	0.106
453	0.105
453	0.105
454	0.105
454	0.105
455	0.104
455	0.104
456	0.104
456	0.104
457	0.104
457	0.104
458	0.104
458	0.104
458	0.105
459	0.105
459	0.105
460	0.104
460	0.104
461	0.104
461	0.103
462	0.103
462	0.103
463	0.104
463	0.104
463	0.105
464	0.105
464	0.105
465	0.105
465	0.105
466	0.105
466	0.105
467	0.105
467	0.105
467	0.104
468	0.103
468	0.101
469	0.101
469	0.1
470	0.099
470	0.099
471	0.099
471	0.099
472	0.099
472	0.1
472	0.1
473	0.101
473	0.102
474	0.103
474	0.104
475	0.104
475	0.105
476	0.105
476	0.105
477	0.105
477	0.105
477	0.105
478	0.105
478	0.106
479	0.106
479	0.107
480	0.107
480	0.108
481	0.109
481	0.11
482	0.111
482	0.112
482	0.113
483	0.115
483	0.118
484	0.12
484	0.121
485	0.122
485	0.123
486	0.124
486	0.125
487	0.125
487	0.126
487	0.126
488	0.125
488	0.124
489	0.123
489	0.123
490	0.122
490	0.122
491	0.122
491	0.123
492	0.123
492	0.124
492	0.125
493	0.126
493	0.127
494	0.129
494	0.132
495	0.134
495	0.135
496	0.136
496	0.138
496	0.139
497	0.14
497	0.142
498	0.142
498	0.143
499	0.143
499	0.144
500	0.144
500	0.146
501	0.147
501	0.148
501	0.149
502	0.15
502	0.152
503	0.153
503	0.154
504	0.155
504	0.156
505	0.156
505	0.157
506	0.158
506	0.159
506	0.159
507	0.16
507	0.161
508	0.161
508	0.162
509	0.163
509	0.164
510	0.166
510	0.166
511	0.166
511	0.167
511	0.167
512	0.168
512	0.169
513	0.168
513	0.168
514	0.167
514	0.167
515	0.167
515	0.166
515	0.166
516	0.166
516	0.166
517	0.166
517	0.167
518	0.167
518	0.167
519	0.166
519	0.165
520	0.163
520	0.162
520	0.16
521	0.158
521	0.156
522	0.154
522	0.153
523	0.152
523	0.152
524	0.153
524	0.155
524	0.157
525	0.159
525	0.161
526	0.163
526	0.166
527	0.168
527	0.17
528	0.172
528	0.173
529	0.174
529	0.174
529	0.174
530	0.174
530	0.174
531	0.174
531	0.174
532	0.173
532	0.173
533	0.172
533	0.172
533	0.171
534	0.17
534	0.169
535	0.168
535	0.168
536	0.167
536	0.167
537	0.166
537	0.165
538	0.164
538	0.163
538	0.161
539	0.16
539	0.159
540	0.158
540	0.157
541	0.155
541	0.153
542	0.151
542	0.15
542	0.148
543	0.147
543	0.146
544	0.145
544	0.144
545	0.143
545	0.142
546	0.142
546	0.141
547	0.139
547	0.137
547	0.135
548	0.133
548	0.131
549	0.129
549	0.127
550	0.125
550	0.122
551	0.12
551	0.118
551	0.116
552	0.115
552	0.113
553	0.112
553	0.112
554	0.111
554	0.109
555	0.108
555	0.106
556	0.104
556	0.101
556	0.098
557	0.096
557	0.094
558	0.092
558	0.09
559	0.088
559	0.087
560	0.086
560	0.084
560	0.083
561	0.083
561	0.083
562	0.082
562	0.081
563	0.079
563	0.077
564	0.075
564	0.073
564	0.071
565	0.07
565	0.069
566	0.067
566	0.066
567	0.065
567	0.065
568	0.066
568	0.066
568	0.067
569	0.068
569	0.069
570	0.068
570	0.067
571	0.068
571	0.068
572	0.067
572	0.066
573	0.066
573	0.065
573	0.063
574	0.062
574	0.061
575	0.061
575	0.062
576	0.062
576	0.061
577	0.059
577	0.058
577	0.057
578	0.057
578	0.057
579	0.059
579	0.06
580	0.058
580	0.055
581	0.052
581	0.051
581	0.051
582	0.051
582	0.051
583	0.051
583	0.05
584	0.046
584	0.042
585	0.042
585	0.042
585	0.042
586	0.042
586	0.041
587	0.039
587	0.037
588	0.035
588	0.033
589	0.033
589	0.033
590	0.032
590	0.032
590	0.033
591	0.034
591	0.033
592	0.033
592	0.032
593	0.032
593	0.032
594	0.031
594	0.03
594	0.029
595	0.029
595	0.028
596	0.027
596	0.028
597	0.03
597	0.031
598	0.032
598	0.033
598	0.033
599	0.034
599	0.033
600	0.032
600	0.03
601	0.03
601	0.028
602	0.026
602	0.025
602	0.024
603	0.023
603	0.024
604	0.024
604	0.025
605	0.026
605	0.028
606	0.028
606	0.027
606	0.027
607	0.026
607	0.026
608	0.026
608	0.024
609	0.024
609	0.024
610	0.023
610	0.022
610	0.023
611	0.024
611	0.025
612	0.027
612	0.028
613	0.029
613	0.03
614	0.03
614	0.029
614	0.029
615	0.029
615	0.028
616	0.028
616	0.027
617	0.027
617	0.026
618	0.025
618	0.025
618	0.024
619	0.025
619	0.026
620	0.028
620	0.029
621	0.03
621	0.03
622	0.031
622	0.032
622	0.032
623	0.031
623	0.033
624	0.033
624	0.033
625	0.032
625	0.032
626	0.032
626	0.033
626	0.033
627	0.034
627	0.035
628	0.036
628	0.037
629	0.037
629	0.037
630	0.037
630	0.037
630	0.038
631	0.038
631	0.039
632	0.039
632	0.039
633	0.04
633	0.041
634	0.043
634	0.045
634	0.047
635	0.048
635	0.049
636	0.05
636	0.052
637	0.052
637	0.053
638	0.055
638	0.055
638	0.056
639	0.057
639	0.057
640	0.058
640	0.059
641	0.06
641	0.061
642	0.062
642	0.064
642	0.065
643	0.067
643	0.068
644	0.07
644	0.072
645	0.074
645	0.076
646	0.079
646	0.082
646	0.085
647	0.087
647	0.09
648	0.092
648	0.094
649	0.096
649	0.098
650	0.101
650	0.103
650	0.105
651	0.107
651	0.109
652	0.111
652	0.113
653	0.117
653	0.125
653	0.141
654	0.116
654	0.097
655	0.099
655	0.101
656	0.103
656	0.105
657	0.107
657	0.108
657	0.11
658	0.107
658	0.097
659	0.12
659	0.151
660	0.158
660	0.16
661	0.162
661	0.164
661	0.166
662	0.17
662	0.173
663	0.176
663	0.179
664	0.182
664	0.185
665	0.187
665	0.19
665	0.192
666	0.195
666	0.197
667	0.2
667	0.202
668	0.205
668	0.207
669	0.209
669	0.212
669	0.216
670	0.22
670	0.222
671	0.225
671	0.227
672	0.228
672	0.23
672	0.231
673	0.233
673	0.235
674	0.236
674	0.237
675	0.238
675	0.239
676	0.242
676	0.244
676	0.245
677	0.247
677	0.249
678	0.25
678	0.251
679	0.252
679	0.253
680	0.254
680	0.255
680	0.255
681	0.255
681	0.256
682	0.257
682	0.258
683	0.26
683	0.262
684	0.264
684	0.264
684	0.265
685	0.266
685	0.267
686	0.268
686	0.268
687	0.268
687	0.268
687	0.268
688	0.267
688	0.267
689	0.268
689	0.269
690	0.269
690	0.268
691	0.268
691	0.268
691	0.267
692	0.266
692	0.266
693	0.265
693	0.265
694	0.264
694	0.262
695	0.263
695	0.264
695	0.264
696	0.264
696	0.264
697	0.263
697	0.263
698	0.262
698	0.26
698	0.259
699	0.258
699	0.256
700	0.253
700	0.252
701	0.25
701	0.248
702	0.247
702	0.245
702	0.244
703	0.242
703	0.24
704	0.239
704	0.238
705	0.237
705	0.236
705	0.234
706	0.232
706	0.231
707	0.229
707	0.226
708	0.224
708	0.222
709	0.22
709	0.217
709	0.213
710	0.21
710	0.208
711	0.206
711	0.204
712	0.203
712	0.201
713	0.2
713	0.198
713	0.196
714	0.194
714	0.192
715	0.191
715	0.189
716	0.186
716	0.185
716	0.182
717	0.18
717	0.177
718	0.175
718	0.172
719	0.17
719	0.168
720	0.165
720	0.162
720	0.159
721	0.155
721	0.152
722	0.15
722	0.146
723	0.144
723	0.142
723	0.14
724	0.138
724	0.136
725	0.134
725	0.132
726	0.131
726	0.129
727	0.128
727	0.127
727	0.125
728	0.123
728	0.122
729	0.121
729	0.12
730	0.119
730	0.117
730	0.116
731	0.114
731	0.112
732	0.111
732	0.109
733	0.107
733	0.105
734	0.102
734	0.099
734	0.097
735	0.095
735	0.093
736	0.09
736	0.088
737	0.086
737	0.085
737	0.083
738	0.08
738	0.077
739	0.075
739	0.073
740	0.071
740	0.069
741	0.068
741	0.065
741	0.062
742	0.058
742	0.056
743	0.054
743	0.051
744	0.049
744	0.047
744	0.045
745	0.042
745	0.04
746	0.038
746	0.037
747	0.036
747	0.035
748	0.034
748	0.033
748	0.032
749	0.031
749	0.031
750	0.03
750	0.03
751	0.03
751	0.03
751	0.03
752	0.029
752	0.028
753	0.028
753	0.027
754	0.026
754	0.025
754	0.025
755	0.025
755	0.025
756	0.024
756	0.021
757	0.02
757	0.02
758	0.019
758	0.018
758	0.017
759	0.016
759	0.014
760	0.012
760	0.009
761	0.008
761	0.008
761	0.007
762	0.005
762	0.004
763	0.003
763	0
764	-0.003
764	-0.005
764	-0.008
765	-0.01
765	-0.012
766	-0.014
766	-0.015
767	-0.017
767	-0.02
768	-0.023
768	-0.025
768	-0.026
769	-0.027
769	-0.027
770	-0.028
770	-0.03
771	-0.032
771	-0.034
771	-0.036
772	-0.038
772	-0.039
773	-0.041
773	-0.043
774	-0.045
774	-0.048
775	-0.05
775	-0.052
775	-0.055
776	-0.058
776	-0.061
777	-0.063
777	-0.066
778	-0.07
778	-0.073
778	-0.076
779	-0.078
779	-0.08
780	-0.083
780	-0.086
781	-0.09
781	-0.094
781	-0.097
782	-0.101
782	-0.105
783	-0.109
783	-0.112
784	-0.115
784	-0.119
784	-0.121
785	-0.123
785	-0.125
786	-0.125
786	-0.123
787	-0.119
787	-0.115
788	-0.113
788	-0.114
788	-0.114
789	-0.116
789	-0.115
790	-0.111
790	-0.11
791	-0.11
791	-0.111
791	-0.113
792	-0.108
792	-0.099
793	-0.093
793	-0.09
794	-0.089
794	-0.091
794	-0.095
795	-0.097
795	-0.098
796	-0.098
796	-0.101
797	-0.109
797	-0.119
797	-0.125
798	-0.13
798	-0.132
799	-0.133
799	-0.133
800	-0.133
800	-0.135
801	-0.138
801	-0.139
801	-0.14
802	-0.142
802	-0.143
803	-0.144
803	-0.144
804	-0.143
804	-0.138
804	-0.131
805	-0.127
805	-0.125
806	-0.123
806	-0.121
807	-0.12
807	-0.119
807	-0.119
808	-0.119
808	-0.12
809	-0.125
809	-0.13
810	-0.134
810	-0.136
810	-0.139
811	-0.142
811	-0.142
812	-0.137
812	-0.134
813	-0.133
813	-0.133
813	-0.133
814	-0.134
814	-0.133
815	-0.131
815	-0.128
816	-0.126
816	-0.127
817	-0.131
817	-0.135
817	-0.135
818	-0.135
818	-0.132
819	-0.127
819	-0.125
820	-0.126
820	-0.128
820	-0.13
821	-0.13
821	-0.128
822	-0.126
822	-0.123
823	-0.119
823	-0.118
823	-0.119
824	-0.117
824	-0.111
825	-0.104
825	-0.096
826	-0.089
826	-0.084
826	-0.078
827	-0.073
827	-0.069
828	-0.065
828	-0.061
829	-0.058
829	-0.055
829	-0.053
830	-0.051
830	-0.05
831	-0.047
831	-0.046
832	-0.045
832	-0.043
832	-0.042
833	-0.041
833	-0.04
834	-0.039
834	-0.038
835	-0.038
835	-0.037
835	-0.037
836	-0.037
836	-0.036
837	-0.036
837	-0.036
838	-0.036
838	-0.036
839	-0.036
839	-0.037
839	-0.037
840	-0.037
840	-0.036
841	-0.036
841	-0.036
842	-0.035
842	-0.035
842	-0.034
843	-0.033
843	-0.032
844	-0.031
844	-0.031
845	-0.03
845	-0.029
845	-0.028
846	-0.028
846	-0.028
847	-0.028
847	-0.027
848	-0.027
848	-0.027
848	-0.027
849	-0.028
849	-0.028
850	-0.028
850	-0.029
851	-0.029
851	-0.029
851	-0.029
852	-0.029
852	-0.029
853	-0.028
853	-0.028
854	-0.027
854	-0.026
854	-0.025
855	-0.025
855	-0.024
856	-0.023
856	-0.022
857	-0.021
857	-0.021
857	-0.02
858	-0.02
858	-0.019
859	-0.019
859	-0.019
860	-0.019
860	-0.019
860	-0.018
861	-0.018
861	-0.018
862	-0.018
862	-0.018
863	-0.018
863	-0.018
863	-0.019
864	-0.019
864	-0.019
865	-0.019
865	-0.02
866	-0.02
866	-0.02
866	-0.02
867	-0.02
867	-0.019
868	-0.019
868	-0.018
869	-0.017
869	-0.016
869	-0.015
870	-0.014
870	-0.013
871	-0.012
871	-0.012
872	-0.011
872	-0.011
872	-0.01
873	-0.01
873	-0.01
874	-0.01
874	-0.01
875	-0.01
875	-0.01
875	-0.01
876	-0.01
876	-0.01
877	-0.011
877	-0.011
878	-0.012
878	-0.012
878	-0.013
879	-0.014
879	-0.014
880	-0.015
880	-0.015
881	-0.016
881	-0.016
881	-0.015
882	-0.015
882	-0.014
883	-0.013
883	-0.013
884	-0.012
884	-0.011
884	-0.011
885	-0.011
885	-0.01
886	-0.01
886	-0.01
887	-0.01
887	-0.01
887	-0.01
888	-0.009
888	-0.009
889	-0.008
889	-0.007
890	-0.007
890	-0.006
890	-0.006
891	-0.005
891	-0.005
892	-0.005
892	-0.005
893	-0.005
893	-0.005
893	-0.006
894	-0.007
894	-0.008
895	-0.009
895	-0.009
895	-0.01
896	-0.011
896	-0.012
897	-0.012
897	-0.012
898	-0.012
898	-0.012
898	-0.012
899	-0.012
899	-0.012
900	-0.012
900	-0.012
901	-0.012
901	-0.012
901	-0.012
902	-0.012
902	-0.012
903	-0.012
903	-0.012
904	-0.012
904	-0.013
904	-0.013
905	-0.014
905	-0.015
906	-0.015
906	-0.016
907	-0.016
907	-0.017
907	-0.017
908	-0.018
908	-0.018
909	-0.018
909	-0.018
910	-0.018
910	-0.018
910	-0.018
911	-0.018
911	-0.017
912	-0.017
912	-0.017
913	-0.017
913	-0.017
913	-0.017
914	-0.018
914	-0.018
915	-0.019
915	-0.019
916	-0.02
916	-0.02
916	-0.02
917	-0.019
917	-0.019
918	-0.018
918	-0.017
918	-0.016
919	-0.014
919	-0.013
920	-0.011
920	-0.009
921	-0.008
921	-0.007
921	-0.006
922	-0.005
922	-0.004
923	-0.003
923	-0.002
924	-0.001
924	-0.001
924	-0.001
925	-0
925	0
926	0
926	0
927	0
927	-0
927	-0
928	-0
928	-0
929	-0
929	-0
930	-0
930	-0.001
930	-0.002
931	-0.003
931	-0.004
932	-0.005
932	-0.006
933	-0.007
933	-0.008
933	-0.01
934	-0.011
934	-0.013
935	-0.014
935	-0.015
935	-0.015
936	-0.016
936	-0.016
937	-0.016
937	-0.016
938	-0.016
938	-0.016
938	-0.016
939	-0.015
939	-0.014
940	-0.013
940	-0.012
941	-0.012
941	-0.011
941	-0.01
942	-0.01
942	-0.009
943	-0.008
943	-0.008
944	-0.008
944	-0.008
944	-0.008
945	-0.008
945	-0.007
946	-0.007
946	-0.007
946	-0.007
947	-0.007
947	-0.008
948	-0.008
948	-0.008
949	-0.008
949	-0.008
949	-0.008
950	-0.008
950	-0.008
951	-0.008
951	-0.008
952	-0.008
952	-0.007
952	-0.007
953	-0.007
953	-0.006
954	-0.006
954	-0.006
955	-0.006
955	-0.005
955	-0.005
956	-0.004
956	-0.004
957	-0.004
957	-0.005
957	-0.005
958	-0.006
958	-0.006
959	-0.007
959	-0.007
960	-0.008
960	-0.009
960	-0.01
961	-0.01
961	-0.011
962	-0.011
962	-0.012
963	-0.012
963	-0.011
963	-0.011
964	-0.01
964	-0.01
965	-0.009
965	-0.008
966	-0.007
966	-0.006
966	-0.005
967	-0.004
967	-0.004
968	-0.004
968	-0.003
968	-0.003
969	-0.003
969	-0.003
970	-0.003
970	-0.004
971	-0.004
971	-0.004
971	-0.005
972	-0.005
972	-0.006
973	-0.006
973	-0.007
974	-0.008
974	-0.009
974	-0.009
975	-0.01
975	-0.011
976	-0.012
976	-0.013
976	-0.015
977	-0.016
977	-0.017
978	-0.019
978	-0.02
979	-0.021
979	-0.021
979	-0.022
980	-0.022
980	-0.022
981	-0.021
981	-0.021
982	-0.02
982	-0.019
982	-0.017
983	-0.016
983	-0.015
984	-0.013
984	-0.012
984	-0.01
985	-0.009
985	-0.009
986	-0.009
986	-0.009
987	-0.009
987	-0.01
987	-0.01
988	-0.011
988	-0.012
989	-0.013
989	-0.014
990	-0.015
990	-0.016
990	-0.017
991	-0.017
991	-0.018
992	-0.018
992	-0.018
992	-0.019
993	-0.019
993	-0.02
994	-0.02
994	-0.021
995	-0.022
995	-0.022
995	-0.023
996	-0.024
996	-0.025
997	-0.025
997	-0.025
997	-0.026
998	-0.025
998	-0.025
999	-0.024
999	-0.024
1000	-0.023
1000	-0.022
1000	-0.022
1001	-0.021
1001	-0.02
1002	-0.02
1002	-0.019
1003	-0.019
1003	-0.018
1003	-0.018
1004	-0.018
1004	-0.017
1005	-0.017
1005	-0.017
1005	-0.017
1006	-0.016
1006	-0.016
1007	-0.015
1007	-0.015
1008	-0.014
1008	-0.013
1008	-0.013
1009	-0.012
1009	-0.012
1010	-0.011
1010	-0.011
1010	-0.011
1011	-0.01
1011	-0.01
1012	-0.01
1012	-0.01
1013	-0.011
1013	-0.011
1013	-0.012
1014	-0.012
1014	-0.013
1015	-0.014
1015	-0.015
1016	-0.016
1016	-0.017
1016	-0.017
1017	-0.018
1017	-0.018
1018	-0.019
1018	-0.019
1018	-0.019
1019	-0.019
1019	-0.019
1020	-0.019
1020	-0.019
1021	-0.019
1021	-0.019
1021	-0.019
1022	-0.019
1022	-0.02
1023	-0.02
1023	-0.02
1023	-0.021
1024	-0.022
1024	-0.023
1025	-0.023
1025	-0.024
1026	-0.024
1026	-0.025
1026	-0.025
1027	-0.025
1027	-0.025
1028	-0.024
1028	-0.024
1028	-0.023
1029	-0.022
1029	-0.022
1030	-0.022
1030	-0.021
1031	-0.02
1031	-0.02
1031	-0.019
1032	-0.019
1032	-0.018
1033	-0.018
1033	-0.018
1033	-0.019
1034	-0.019
1034	-0.02
1035	-0.021
1035	-0.022
1036	-0.023
1036	-0.023
1036	-0.024
1037	-0.024
1037	-0.025
1038	-0.025
1038	-0.026
1039	-0.025
1039	-0.025
1039	-0.025
1040	-0.025
1040	-0.024
1041	-0.025
1041	-0.025
1041	-0.025
1042	-0.025
1042	-0.025
1043	-0.026
1043	-0.027
1044	-0.027
1044	-0.028
1044	-0.028
1045	-0.029
1045	-0.03
1046	-0.03
1046	-0.03
1046	-0.03
1047	-0.03
1047	-0.03
1048	-0.029
1048	-0.029
1049	-0.029
1049	-0.029
1049	-0.029
1050	-0.029
1050	-0.029
1051	-0.029
1051	-0.029
1051	-0.028
1052	-0.028
1052	-0.027
1053	-0.026
1053	-0.025
1053	-0.024
1054	-0.023
1054	-0.021
1055	-0.019
1055	-0.018
1056	-0.018
1056	-0.017
1056	-0.017
1057	-0.017
1057	-0.017
1058	-0.017
1058	-0.017
1058	-0.016
1059	-0.016
1059	-0.016
1060	-0.016
1060	-0.016
1061	-0.015
1061	-0.015
1061	-0.014
1062	-0.014
1062	-0.014
1063	-0.013
1063	-0.014
1063	-0.014
1064	-0.013
1064	-0.013
1065	-0.013
1065	-0.013
1066	-0.013
1066	-0.013
1066	-0.013
1067	-0.013
1067	-0.013
1068	-0.013
1068	-0.013
1068	-0.013
1069	-0.013
1069	-0.013
1070	-0.013
1070	-0.012
1071	-0.012
1071	-0.011
1071	-0.011
1072	-0.01
1072	-0.009
1073	-0.008
1073	-0.007
1073	-0.006
1074	-0.005
1074	-0.004
1075	-0.004
1075	-0.003
1076	-0.003
1076	-0.002
1076	-0.002
1077	-0.002
1077	-0.001
1078	0
1078	0.002
1078	0.003
1079	0.004
1079	0.006
1080	0.008
1080	0.009
1080	0.01
1081	0.012
1081	0.014
1082	0.015
1082	0.016
1083	0.018
1083	0.018
1083	0.02
1084	0.021
1084	0.023
1085	0.025
1085	0.027
1085	0.029
1086	0.03
1086	0.031
1087	0.033
1087	0.035
1088	0.036
1088	0.037
1088	0.04
1089	0.041
1089	0.043
1090	0.044
1090	0.047
1090	0.049
1091	0.054
1091	0.057
1092	0.061
1092	0.066
1092	0.071
1093	0.075
1093	0.082
1094	0.087
1094	0.093
1095	0.098
1095	0.105
1095	0.113
1096	0.121
1096	0.129
1097	0.139
1097	0.148
1097	0.159
1098	0.169
1098	0.182
1099	0.195
1099	0.21
1100	0.225
1100	0.242
1100	0.259
1101	0.279
1101	0.3
1102	0.327
1102	0.356
1102	0.391
1103	0.425
1103	0.469
1104	0.521
1104	0.582
1104	0.661
1105	0.758
1105	0.885
1106	1.051
1106	1.435
1107	-0
1107	-0
1107	-0
1108	-0
1108	-0
1109	-0
1109	-0
1109	-0
1110	-0
1110	-0
1111	-0
1111	-0
