Data from 15c-100ul-ns-20ul-nr-full-exp-7ul-bp_Absorbance__75__04413.txt Node

Date: Mon Jan 15 15:15:19 CET 2024
User: Marek
Spectrometer: MAYP115816
Trigger mode: 0
Integration Time (sec): 2.000000E-1
Scans to average: 10
Electric dark correction enabled: true
Nonlinearity correction enabled: true
Boxcar width: 5
XAxis mode: Wavelengths
Number of Pixels in Spectrum: 2068
>>>>>Begin Spectral Data<<<<<
199	-1.844
199	-1.715
200	-1.573
200	-1.463
201	-1.39
201	-1.341
202	-1.271
202	-1.217
203	-1.17
203	-1.131
204	-1.103
204	-1.08
205	-1.059
205	-1.051
205	-1.048
206	-1.047
206	-1.046
207	-1.042
207	-1.038
208	-1.037
208	-1.031
209	-1.031
209	-1.029
210	-1.029
210	-1.027
211	-1.026
211	-1.024
212	-1.021
212	-1.022
213	-1.021
213	-1.02
213	-1.02
214	-1.019
214	-1.02
215	-1.019
215	-1.019
216	-1.018
216	-1.018
217	-1.017
217	-1.016
218	-1.015
218	-1.011
219	-1.009
219	-1.009
220	-1.004
220	-1
221	-0.996
221	-0.992
221	-0.986
222	-0.982
222	-0.978
223	-0.97
223	-0.967
224	-0.962
224	-0.953
225	-0.944
225	-0.933
226	-0.923
226	-0.912
227	-0.897
227	-0.881
228	-0.861
228	-0.842
229	-0.818
229	-0.788
229	-0.761
230	-0.729
230	-0.695
231	-0.657
231	-0.619
232	-0.58
232	-0.537
233	-0.494
233	-0.45
234	-0.406
234	-0.363
235	-0.32
235	-0.279
236	-0.239
236	-0.199
236	-0.162
237	-0.127
237	-0.095
238	-0.064
238	-0.036
239	-0.01
239	0.014
240	0.036
240	0.055
241	0.073
241	0.089
242	0.103
242	0.117
243	0.129
243	0.139
243	0.149
244	0.158
244	0.166
245	0.173
245	0.18
246	0.186
246	0.192
247	0.197
247	0.201
248	0.206
248	0.21
249	0.214
249	0.217
250	0.22
250	0.223
250	0.227
251	0.229
251	0.231
252	0.234
252	0.236
253	0.238
253	0.24
254	0.242
254	0.244
255	0.245
255	0.246
256	0.247
256	0.248
257	0.249
257	0.25
258	0.251
258	0.251
258	0.252
259	0.252
259	0.252
260	0.253
260	0.253
261	0.253
261	0.253
262	0.252
262	0.252
263	0.251
263	0.251
264	0.25
264	0.25
265	0.249
265	0.248
265	0.247
266	0.246
266	0.245
267	0.244
267	0.243
268	0.242
268	0.241
269	0.239
269	0.238
270	0.236
270	0.235
271	0.233
271	0.232
272	0.23
272	0.229
272	0.227
273	0.226
273	0.224
274	0.222
274	0.221
275	0.219
275	0.218
276	0.216
276	0.214
277	0.213
277	0.211
278	0.209
278	0.208
278	0.205
279	0.203
279	0.2
280	0.198
280	0.196
281	0.195
281	0.193
282	0.191
282	0.189
283	0.187
283	0.186
284	0.184
284	0.184
285	0.182
285	0.181
285	0.18
286	0.178
286	0.177
287	0.176
287	0.175
288	0.173
288	0.172
289	0.171
289	0.17
290	0.169
290	0.168
291	0.166
291	0.165
292	0.164
292	0.163
292	0.162
293	0.161
293	0.16
294	0.159
294	0.158
295	0.157
295	0.157
296	0.156
296	0.155
297	0.154
297	0.154
298	0.153
298	0.152
298	0.152
299	0.151
299	0.151
300	0.15
300	0.149
301	0.149
301	0.148
302	0.147
302	0.147
303	0.146
303	0.146
304	0.145
304	0.145
305	0.144
305	0.143
305	0.143
306	0.142
306	0.142
307	0.141
307	0.14
308	0.14
308	0.139
309	0.139
309	0.138
310	0.137
310	0.137
311	0.136
311	0.136
311	0.135
312	0.135
312	0.134
313	0.134
313	0.133
314	0.133
314	0.132
315	0.131
315	0.131
316	0.13
316	0.13
317	0.129
317	0.128
318	0.128
318	0.127
318	0.127
319	0.126
319	0.125
320	0.125
320	0.124
321	0.124
321	0.123
322	0.122
322	0.122
323	0.121
323	0.121
324	0.12
324	0.12
324	0.119
325	0.119
325	0.118
326	0.117
326	0.117
327	0.117
327	0.116
328	0.115
328	0.115
329	0.114
329	0.114
330	0.113
330	0.113
330	0.112
331	0.112
331	0.111
332	0.111
332	0.111
333	0.11
333	0.109
334	0.109
334	0.108
335	0.108
335	0.107
336	0.107
336	0.106
336	0.105
337	0.105
337	0.104
338	0.104
338	0.103
339	0.103
339	0.103
340	0.102
340	0.102
341	0.101
341	0.101
342	0.1
342	0.1
342	0.1
343	0.099
343	0.099
344	0.098
344	0.098
345	0.097
345	0.097
346	0.097
346	0.096
347	0.096
347	0.095
348	0.095
348	0.095
348	0.094
349	0.094
349	0.093
350	0.093
350	0.093
351	0.092
351	0.092
352	0.091
352	0.091
353	0.09
353	0.09
354	0.089
354	0.089
354	0.088
355	0.088
355	0.087
356	0.087
356	0.087
357	0.087
357	0.087
358	0.087
358	0.087
359	0.087
359	0.087
360	0.088
360	0.088
360	0.088
361	0.087
361	0.087
362	0.087
362	0.087
363	0.087
363	0.087
364	0.087
364	0.087
365	0.087
365	0.086
366	0.086
366	0.086
366	0.086
367	0.086
367	0.086
368	0.085
368	0.085
369	0.085
369	0.085
370	0.084
370	0.084
371	0.084
371	0.084
372	0.083
372	0.083
372	0.083
373	0.083
373	0.083
374	0.083
374	0.083
375	0.083
375	0.083
376	0.083
376	0.083
377	0.083
377	0.083
378	0.083
378	0.083
378	0.083
379	0.083
379	0.083
380	0.083
380	0.083
381	0.083
381	0.083
382	0.083
382	0.083
383	0.082
383	0.082
383	0.082
384	0.082
384	0.081
385	0.081
385	0.081
386	0.081
386	0.081
387	0.081
387	0.081
388	0.08
388	0.08
389	0.08
389	0.08
389	0.08
390	0.08
390	0.08
391	0.08
391	0.08
392	0.08
392	0.08
393	0.08
393	0.08
394	0.08
394	0.08
394	0.08
395	0.079
395	0.079
396	0.079
396	0.079
397	0.079
397	0.079
398	0.079
398	0.078
399	0.078
399	0.078
400	0.078
400	0.078
400	0.078
401	0.077
401	0.076
402	0.076
402	0.076
403	0.076
403	0.076
404	0.076
404	0.075
405	0.075
405	0.075
405	0.075
406	0.075
406	0.075
407	0.075
407	0.075
408	0.075
408	0.074
409	0.074
409	0.074
410	0.074
410	0.074
411	0.074
411	0.074
411	0.073
412	0.073
412	0.072
413	0.072
413	0.072
414	0.071
414	0.071
415	0.071
415	0.07
416	0.07
416	0.07
416	0.069
417	0.069
417	0.069
418	0.069
418	0.069
419	0.07
419	0.07
420	0.07
420	0.071
421	0.071
421	0.071
421	0.072
422	0.072
422	0.072
423	0.072
423	0.071
424	0.071
424	0.07
425	0.07
425	0.069
426	0.069
426	0.069
427	0.069
427	0.069
427	0.069
428	0.07
428	0.07
429	0.071
429	0.071
430	0.071
430	0.071
431	0.07
431	0.07
432	0.07
432	0.069
432	0.068
433	0.067
433	0.067
434	0.066
434	0.066
435	0.066
435	0.066
436	0.066
436	0.066
437	0.066
437	0.066
437	0.066
438	0.066
438	0.066
439	0.066
439	0.066
440	0.066
440	0.066
441	0.065
441	0.066
442	0.066
442	0.066
442	0.066
443	0.066
443	0.066
444	0.066
444	0.066
445	0.067
445	0.067
446	0.067
446	0.067
447	0.067
447	0.067
447	0.066
448	0.066
448	0.066
449	0.066
449	0.065
450	0.065
450	0.065
451	0.064
451	0.064
452	0.064
452	0.064
452	0.063
453	0.063
453	0.063
454	0.062
454	0.062
455	0.062
455	0.062
456	0.062
456	0.062
457	0.062
457	0.062
458	0.063
458	0.063
458	0.063
459	0.063
459	0.063
460	0.063
460	0.062
461	0.062
461	0.062
462	0.062
462	0.062
463	0.062
463	0.062
463	0.063
464	0.063
464	0.063
465	0.063
465	0.063
466	0.063
466	0.063
467	0.062
467	0.062
467	0.061
468	0.06
468	0.059
469	0.058
469	0.058
470	0.058
470	0.058
471	0.058
471	0.058
472	0.058
472	0.058
472	0.059
473	0.06
473	0.06
474	0.061
474	0.062
475	0.062
475	0.062
476	0.063
476	0.063
477	0.063
477	0.063
477	0.063
478	0.063
478	0.063
479	0.063
479	0.064
480	0.064
480	0.065
481	0.065
481	0.066
482	0.067
482	0.068
482	0.069
483	0.07
483	0.072
484	0.074
484	0.074
485	0.075
485	0.076
486	0.077
486	0.077
487	0.077
487	0.078
487	0.078
488	0.077
488	0.076
489	0.076
489	0.076
490	0.076
490	0.076
491	0.076
491	0.076
492	0.077
492	0.077
492	0.078
493	0.079
493	0.08
494	0.081
494	0.083
495	0.085
495	0.085
496	0.087
496	0.088
496	0.089
497	0.09
497	0.091
498	0.091
498	0.091
499	0.092
499	0.092
500	0.093
500	0.094
501	0.095
501	0.096
501	0.096
502	0.097
502	0.098
503	0.099
503	0.1
504	0.101
504	0.101
505	0.102
505	0.102
506	0.103
506	0.103
506	0.104
507	0.104
507	0.105
508	0.106
508	0.107
509	0.107
509	0.108
510	0.109
510	0.11
511	0.11
511	0.111
511	0.111
512	0.112
512	0.112
513	0.111
513	0.111
514	0.112
514	0.112
515	0.112
515	0.111
515	0.111
516	0.11
516	0.11
517	0.111
517	0.111
518	0.111
518	0.112
519	0.112
519	0.111
520	0.111
520	0.11
520	0.109
521	0.108
521	0.107
522	0.105
522	0.104
523	0.102
523	0.101
524	0.1
524	0.1
524	0.1
525	0.101
525	0.102
526	0.103
526	0.105
527	0.107
527	0.108
528	0.11
528	0.111
529	0.112
529	0.113
529	0.114
530	0.114
530	0.114
531	0.115
531	0.115
532	0.114
532	0.114
533	0.114
533	0.114
533	0.113
534	0.112
534	0.111
535	0.11
535	0.11
536	0.11
536	0.109
537	0.108
537	0.108
538	0.107
538	0.105
538	0.104
539	0.104
539	0.103
540	0.102
540	0.101
541	0.099
541	0.098
542	0.097
542	0.096
542	0.095
543	0.094
543	0.094
544	0.093
544	0.092
545	0.092
545	0.091
546	0.091
546	0.09
547	0.089
547	0.087
547	0.085
548	0.084
548	0.083
549	0.081
549	0.08
550	0.078
550	0.076
551	0.074
551	0.073
551	0.072
552	0.071
552	0.07
553	0.069
553	0.069
554	0.068
554	0.067
555	0.065
555	0.064
556	0.062
556	0.061
556	0.059
557	0.057
557	0.056
558	0.054
558	0.053
559	0.052
559	0.051
560	0.05
560	0.049
560	0.049
561	0.049
561	0.049
562	0.048
562	0.047
563	0.046
563	0.044
564	0.043
564	0.041
564	0.04
565	0.039
565	0.038
566	0.037
566	0.036
567	0.036
567	0.036
568	0.037
568	0.037
568	0.037
569	0.038
569	0.039
570	0.038
570	0.037
571	0.038
571	0.038
572	0.037
572	0.036
573	0.036
573	0.035
573	0.033
574	0.032
574	0.032
575	0.032
575	0.034
576	0.034
576	0.032
577	0.031
577	0.03
577	0.03
578	0.03
578	0.031
579	0.032
579	0.033
580	0.031
580	0.028
581	0.026
581	0.025
581	0.025
582	0.026
582	0.026
583	0.027
583	0.025
584	0.022
584	0.019
585	0.019
585	0.02
585	0.02
586	0.02
586	0.02
587	0.018
587	0.016
588	0.014
588	0.013
589	0.013
589	0.014
590	0.013
590	0.013
590	0.014
591	0.015
591	0.015
592	0.015
592	0.014
593	0.014
593	0.014
594	0.013
594	0.012
594	0.012
595	0.012
595	0.01
596	0.01
596	0.011
597	0.014
597	0.015
598	0.015
598	0.016
598	0.017
599	0.017
599	0.017
600	0.016
600	0.015
601	0.014
601	0.013
602	0.011
602	0.011
602	0.009
603	0.009
603	0.01
604	0.011
604	0.011
605	0.013
605	0.014
606	0.014
606	0.013
606	0.013
607	0.013
607	0.013
608	0.013
608	0.011
609	0.011
609	0.011
610	0.011
610	0.01
610	0.011
611	0.012
611	0.013
612	0.015
612	0.016
613	0.018
613	0.019
614	0.018
614	0.017
614	0.017
615	0.017
615	0.016
616	0.016
616	0.015
617	0.015
617	0.014
618	0.013
618	0.013
618	0.014
619	0.014
619	0.016
620	0.018
620	0.019
621	0.019
621	0.02
622	0.02
622	0.021
622	0.021
623	0.021
623	0.022
624	0.022
624	0.022
625	0.021
625	0.022
626	0.022
626	0.022
626	0.023
627	0.024
627	0.024
628	0.025
628	0.026
629	0.026
629	0.027
630	0.027
630	0.027
630	0.028
631	0.029
631	0.029
632	0.029
632	0.03
633	0.031
633	0.032
634	0.034
634	0.035
634	0.037
635	0.038
635	0.039
636	0.04
636	0.041
637	0.042
637	0.043
638	0.044
638	0.045
638	0.046
639	0.046
639	0.047
640	0.048
640	0.049
641	0.05
641	0.051
642	0.053
642	0.055
642	0.056
643	0.057
643	0.059
644	0.06
644	0.062
645	0.064
645	0.066
646	0.068
646	0.071
646	0.073
647	0.075
647	0.077
648	0.078
648	0.079
649	0.081
649	0.083
650	0.085
650	0.087
650	0.089
651	0.09
651	0.092
652	0.094
652	0.096
653	0.1
653	0.108
653	0.121
654	0.1
654	0.084
655	0.084
655	0.086
656	0.088
656	0.089
657	0.091
657	0.092
657	0.093
658	0.091
658	0.082
659	0.102
659	0.128
660	0.135
660	0.137
661	0.139
661	0.141
661	0.144
662	0.147
662	0.15
663	0.153
663	0.155
664	0.157
664	0.16
665	0.162
665	0.165
665	0.167
666	0.169
666	0.171
667	0.173
667	0.175
668	0.177
668	0.179
669	0.181
669	0.183
669	0.187
670	0.189
670	0.191
671	0.193
671	0.194
672	0.196
672	0.197
672	0.198
673	0.199
673	0.201
674	0.202
674	0.202
675	0.203
675	0.205
676	0.207
676	0.209
676	0.21
677	0.212
677	0.214
678	0.215
678	0.215
679	0.216
679	0.217
680	0.218
680	0.218
680	0.218
681	0.219
681	0.219
682	0.22
682	0.221
683	0.222
683	0.223
684	0.225
684	0.225
684	0.225
685	0.225
685	0.226
686	0.226
686	0.227
687	0.227
687	0.226
687	0.226
688	0.226
688	0.225
689	0.226
689	0.227
690	0.226
690	0.226
691	0.225
691	0.225
691	0.224
692	0.223
692	0.222
693	0.222
693	0.222
694	0.22
694	0.219
695	0.219
695	0.221
695	0.221
696	0.22
696	0.22
697	0.22
697	0.219
698	0.219
698	0.218
698	0.217
699	0.216
699	0.214
700	0.212
700	0.211
701	0.209
701	0.208
702	0.206
702	0.205
702	0.204
703	0.202
703	0.201
704	0.199
704	0.198
705	0.198
705	0.196
705	0.194
706	0.193
706	0.191
707	0.189
707	0.187
708	0.185
708	0.183
709	0.181
709	0.179
709	0.176
710	0.173
710	0.171
711	0.169
711	0.168
712	0.166
712	0.165
713	0.163
713	0.162
713	0.16
714	0.159
714	0.157
715	0.156
715	0.154
716	0.152
716	0.151
716	0.149
717	0.147
717	0.145
718	0.142
718	0.14
719	0.138
719	0.137
720	0.134
720	0.132
720	0.13
721	0.127
721	0.124
722	0.122
722	0.12
723	0.118
723	0.116
723	0.114
724	0.112
724	0.111
725	0.109
725	0.107
726	0.106
726	0.105
727	0.104
727	0.102
727	0.101
728	0.1
728	0.099
729	0.098
729	0.097
730	0.096
730	0.094
730	0.093
731	0.092
731	0.091
732	0.09
732	0.088
733	0.086
733	0.084
734	0.082
734	0.079
734	0.078
735	0.076
735	0.074
736	0.071
736	0.07
737	0.068
737	0.067
737	0.066
738	0.063
738	0.061
739	0.059
739	0.057
740	0.055
740	0.054
741	0.053
741	0.05
741	0.047
742	0.044
742	0.042
743	0.041
743	0.039
744	0.037
744	0.036
744	0.034
745	0.032
745	0.03
746	0.029
746	0.028
747	0.027
747	0.026
748	0.025
748	0.024
748	0.023
749	0.022
749	0.022
750	0.021
750	0.021
751	0.02
751	0.021
751	0.021
752	0.02
752	0.019
753	0.019
753	0.019
754	0.019
754	0.018
754	0.018
755	0.018
755	0.017
756	0.016
756	0.014
757	0.013
757	0.012
758	0.011
758	0.01
758	0.009
759	0.008
759	0.006
760	0.004
760	0.002
761	0.001
761	0
761	-0.001
762	-0.002
762	-0.003
763	-0.004
763	-0.006
764	-0.009
764	-0.011
764	-0.013
765	-0.015
765	-0.017
766	-0.018
766	-0.019
767	-0.02
767	-0.023
768	-0.025
768	-0.027
768	-0.028
769	-0.028
769	-0.029
770	-0.03
770	-0.031
771	-0.033
771	-0.035
771	-0.038
772	-0.039
772	-0.04
773	-0.042
773	-0.044
774	-0.046
774	-0.049
775	-0.051
775	-0.053
775	-0.056
776	-0.058
776	-0.061
777	-0.064
777	-0.066
778	-0.069
778	-0.072
778	-0.074
779	-0.076
779	-0.077
780	-0.08
780	-0.083
781	-0.087
781	-0.091
781	-0.095
782	-0.099
782	-0.104
783	-0.109
783	-0.113
784	-0.116
784	-0.12
784	-0.122
785	-0.125
785	-0.127
786	-0.127
786	-0.125
787	-0.12
787	-0.116
788	-0.115
788	-0.115
788	-0.116
789	-0.117
789	-0.116
790	-0.113
790	-0.111
791	-0.111
791	-0.113
791	-0.115
792	-0.11
792	-0.1
793	-0.095
793	-0.091
794	-0.09
794	-0.092
794	-0.096
795	-0.099
795	-0.099
796	-0.1
796	-0.102
797	-0.11
797	-0.12
797	-0.126
798	-0.131
798	-0.134
799	-0.134
799	-0.134
800	-0.134
800	-0.136
801	-0.139
801	-0.141
801	-0.141
802	-0.143
802	-0.144
803	-0.145
803	-0.145
804	-0.144
804	-0.139
804	-0.133
805	-0.129
805	-0.126
806	-0.124
806	-0.123
807	-0.122
807	-0.121
807	-0.121
808	-0.121
808	-0.122
809	-0.126
809	-0.132
810	-0.135
810	-0.138
810	-0.141
811	-0.143
811	-0.143
812	-0.139
812	-0.135
813	-0.134
813	-0.134
813	-0.135
814	-0.135
814	-0.135
815	-0.132
815	-0.129
816	-0.128
816	-0.128
817	-0.133
817	-0.136
817	-0.137
818	-0.137
818	-0.133
819	-0.129
819	-0.126
820	-0.127
820	-0.127
820	-0.126
821	-0.123
821	-0.119
822	-0.115
822	-0.11
823	-0.105
823	-0.102
823	-0.101
824	-0.097
824	-0.091
825	-0.084
825	-0.078
826	-0.072
826	-0.068
826	-0.064
827	-0.06
827	-0.057
828	-0.054
828	-0.052
829	-0.049
829	-0.047
829	-0.046
830	-0.045
830	-0.044
831	-0.042
831	-0.041
832	-0.041
832	-0.04
832	-0.039
833	-0.038
833	-0.038
834	-0.037
834	-0.037
835	-0.037
835	-0.036
835	-0.036
836	-0.035
836	-0.035
837	-0.035
837	-0.035
838	-0.035
838	-0.035
839	-0.035
839	-0.035
839	-0.035
840	-0.035
840	-0.035
841	-0.034
841	-0.034
842	-0.033
842	-0.032
842	-0.031
843	-0.031
843	-0.03
844	-0.029
844	-0.028
845	-0.028
845	-0.028
845	-0.027
846	-0.027
846	-0.027
847	-0.028
847	-0.028
848	-0.028
848	-0.029
848	-0.029
849	-0.03
849	-0.03
850	-0.031
850	-0.031
851	-0.031
851	-0.032
851	-0.032
852	-0.032
852	-0.031
853	-0.031
853	-0.03
854	-0.029
854	-0.028
854	-0.027
855	-0.026
855	-0.026
856	-0.025
856	-0.024
857	-0.023
857	-0.023
857	-0.022
858	-0.022
858	-0.022
859	-0.023
859	-0.023
860	-0.023
860	-0.023
860	-0.023
861	-0.023
861	-0.023
862	-0.022
862	-0.022
863	-0.022
863	-0.021
863	-0.021
864	-0.021
864	-0.021
865	-0.021
865	-0.021
866	-0.021
866	-0.021
866	-0.021
867	-0.021
867	-0.021
868	-0.021
868	-0.02
869	-0.02
869	-0.019
869	-0.019
870	-0.018
870	-0.018
871	-0.017
871	-0.017
872	-0.016
872	-0.016
872	-0.016
873	-0.016
873	-0.015
874	-0.015
874	-0.015
875	-0.015
875	-0.015
875	-0.015
876	-0.015
876	-0.015
877	-0.015
877	-0.016
878	-0.016
878	-0.017
878	-0.017
879	-0.017
879	-0.018
880	-0.018
880	-0.019
881	-0.019
881	-0.019
881	-0.018
882	-0.018
882	-0.017
883	-0.017
883	-0.016
884	-0.016
884	-0.015
884	-0.015
885	-0.015
885	-0.014
886	-0.014
886	-0.013
887	-0.014
887	-0.014
887	-0.014
888	-0.013
888	-0.013
889	-0.012
889	-0.012
890	-0.011
890	-0.01
890	-0.01
891	-0.01
891	-0.01
892	-0.01
892	-0.01
893	-0.01
893	-0.011
893	-0.011
894	-0.012
894	-0.013
895	-0.014
895	-0.014
895	-0.015
896	-0.016
896	-0.016
897	-0.017
897	-0.017
898	-0.017
898	-0.018
898	-0.018
899	-0.018
899	-0.019
900	-0.019
900	-0.019
901	-0.019
901	-0.019
901	-0.019
902	-0.019
902	-0.019
903	-0.019
903	-0.019
904	-0.019
904	-0.019
904	-0.019
905	-0.02
905	-0.02
906	-0.021
906	-0.021
907	-0.022
907	-0.023
907	-0.023
908	-0.024
908	-0.025
909	-0.025
909	-0.025
910	-0.025
910	-0.025
910	-0.025
911	-0.025
911	-0.024
912	-0.024
912	-0.024
913	-0.024
913	-0.024
913	-0.024
914	-0.024
914	-0.025
915	-0.026
915	-0.026
916	-0.026
916	-0.027
916	-0.027
917	-0.027
917	-0.026
918	-0.026
918	-0.025
918	-0.024
919	-0.022
919	-0.021
920	-0.019
920	-0.018
921	-0.017
921	-0.015
921	-0.014
922	-0.013
922	-0.012
923	-0.011
923	-0.01
924	-0.01
924	-0.009
924	-0.008
925	-0.008
925	-0.008
926	-0.007
926	-0.007
927	-0.007
927	-0.007
927	-0.007
928	-0.007
928	-0.007
929	-0.007
929	-0.007
930	-0.007
930	-0.007
930	-0.008
931	-0.009
931	-0.01
932	-0.01
932	-0.011
933	-0.012
933	-0.013
933	-0.015
934	-0.016
934	-0.017
935	-0.018
935	-0.019
935	-0.02
936	-0.021
936	-0.022
937	-0.022
937	-0.022
938	-0.022
938	-0.022
938	-0.022
939	-0.022
939	-0.021
940	-0.021
940	-0.02
941	-0.019
941	-0.018
941	-0.017
942	-0.016
942	-0.016
943	-0.015
943	-0.015
944	-0.015
944	-0.014
944	-0.014
945	-0.014
945	-0.014
946	-0.014
946	-0.015
946	-0.015
947	-0.015
947	-0.015
948	-0.015
948	-0.016
949	-0.016
949	-0.016
949	-0.016
950	-0.016
950	-0.016
951	-0.016
951	-0.016
952	-0.016
952	-0.016
952	-0.015
953	-0.015
953	-0.014
954	-0.015
954	-0.014
955	-0.014
955	-0.014
955	-0.013
956	-0.013
956	-0.012
957	-0.012
957	-0.012
957	-0.013
958	-0.013
958	-0.013
959	-0.014
959	-0.014
960	-0.015
960	-0.016
960	-0.017
961	-0.018
961	-0.019
962	-0.019
962	-0.019
963	-0.019
963	-0.019
963	-0.019
964	-0.018
964	-0.018
965	-0.017
965	-0.016
966	-0.015
966	-0.014
966	-0.013
967	-0.012
967	-0.011
968	-0.011
968	-0.01
968	-0.01
969	-0.01
969	-0.01
970	-0.01
970	-0.011
971	-0.011
971	-0.012
971	-0.012
972	-0.012
972	-0.013
973	-0.013
973	-0.014
974	-0.015
974	-0.016
974	-0.016
975	-0.017
975	-0.018
976	-0.02
976	-0.021
976	-0.022
977	-0.023
977	-0.025
978	-0.026
978	-0.027
979	-0.028
979	-0.028
979	-0.028
980	-0.028
980	-0.028
981	-0.028
981	-0.027
982	-0.026
982	-0.025
982	-0.023
983	-0.022
983	-0.021
984	-0.019
984	-0.018
984	-0.016
985	-0.015
985	-0.015
986	-0.015
986	-0.015
987	-0.016
987	-0.016
987	-0.017
988	-0.018
988	-0.019
989	-0.02
989	-0.021
990	-0.022
990	-0.023
990	-0.024
991	-0.024
991	-0.024
992	-0.025
992	-0.025
992	-0.025
993	-0.026
993	-0.026
994	-0.027
994	-0.027
995	-0.028
995	-0.029
995	-0.03
996	-0.03
996	-0.031
997	-0.032
997	-0.032
997	-0.032
998	-0.031
998	-0.031
999	-0.03
999	-0.03
1000	-0.029
1000	-0.028
1000	-0.027
1001	-0.026
1001	-0.025
1002	-0.024
1002	-0.024
1003	-0.023
1003	-0.023
1003	-0.023
1004	-0.022
1004	-0.022
1005	-0.022
1005	-0.022
1005	-0.022
1006	-0.022
1006	-0.022
1007	-0.022
1007	-0.022
1008	-0.022
1008	-0.022
1008	-0.021
1009	-0.021
1009	-0.02
1010	-0.02
1010	-0.019
1010	-0.019
1011	-0.018
1011	-0.018
1012	-0.018
1012	-0.018
1013	-0.018
1013	-0.018
1013	-0.019
1014	-0.019
1014	-0.02
1015	-0.021
1015	-0.022
1016	-0.022
1016	-0.023
1016	-0.024
1017	-0.025
1017	-0.025
1018	-0.025
1018	-0.025
1018	-0.025
1019	-0.025
1019	-0.026
1020	-0.026
1020	-0.026
1021	-0.026
1021	-0.026
1021	-0.026
1022	-0.026
1022	-0.026
1023	-0.027
1023	-0.027
1023	-0.028
1024	-0.029
1024	-0.03
1025	-0.03
1025	-0.031
1026	-0.032
1026	-0.032
1026	-0.033
1027	-0.033
1027	-0.033
1028	-0.033
1028	-0.032
1028	-0.031
1029	-0.031
1029	-0.03
1030	-0.029
1030	-0.029
1031	-0.028
1031	-0.027
1031	-0.026
1032	-0.026
1032	-0.025
1033	-0.025
1033	-0.025
1033	-0.025
1034	-0.025
1034	-0.026
1035	-0.026
1035	-0.027
1036	-0.027
1036	-0.028
1036	-0.028
1037	-0.028
1037	-0.028
1038	-0.029
1038	-0.029
1039	-0.028
1039	-0.028
1039	-0.028
1040	-0.029
1040	-0.029
1041	-0.029
1041	-0.03
1041	-0.031
1042	-0.032
1042	-0.033
1043	-0.034
1043	-0.035
1044	-0.036
1044	-0.037
1044	-0.037
1045	-0.038
1045	-0.039
1046	-0.039
1046	-0.039
1046	-0.039
1047	-0.039
1047	-0.038
1048	-0.038
1048	-0.037
1049	-0.038
1049	-0.038
1049	-0.038
1050	-0.038
1050	-0.039
1051	-0.039
1051	-0.038
1051	-0.038
1052	-0.037
1052	-0.037
1053	-0.036
1053	-0.035
1053	-0.034
1054	-0.033
1054	-0.031
1055	-0.029
1055	-0.028
1056	-0.028
1056	-0.028
1056	-0.028
1057	-0.028
1057	-0.028
1058	-0.028
1058	-0.028
1058	-0.029
1059	-0.029
1059	-0.029
1060	-0.029
1060	-0.029
1061	-0.029
1061	-0.028
1061	-0.028
1062	-0.028
1062	-0.028
1063	-0.028
1063	-0.028
1063	-0.028
1064	-0.028
1064	-0.028
1065	-0.028
1065	-0.028
1066	-0.028
1066	-0.028
1066	-0.028
1067	-0.028
1067	-0.028
1068	-0.028
1068	-0.028
1068	-0.028
1069	-0.028
1069	-0.029
1070	-0.029
1070	-0.029
1071	-0.028
1071	-0.028
1071	-0.028
1072	-0.027
1072	-0.026
1073	-0.025
1073	-0.024
1073	-0.024
1074	-0.022
1074	-0.021
1075	-0.021
1075	-0.021
1076	-0.02
1076	-0.019
1076	-0.019
1077	-0.019
1077	-0.018
1078	-0.018
1078	-0.017
1078	-0.016
1079	-0.016
1079	-0.014
1080	-0.013
1080	-0.012
1080	-0.011
1081	-0.01
1081	-0.009
1082	-0.008
1082	-0.007
1083	-0.006
1083	-0.006
1083	-0.004
1084	-0.003
1084	-0.002
1085	-0.001
1085	-0
1085	0.001
1086	0.002
1086	0.002
1087	0.003
1087	0.005
1088	0.005
1088	0.006
1088	0.007
1089	0.007
1089	0.008
1090	0.009
1090	0.011
1090	0.012
1091	0.014
1091	0.017
1092	0.019
1092	0.023
1092	0.026
1093	0.028
1093	0.033
1094	0.036
1094	0.04
1095	0.044
1095	0.048
1095	0.053
1096	0.058
1096	0.063
1097	0.07
1097	0.075
1097	0.082
1098	0.088
1098	0.095
1099	0.102
1099	0.111
1100	0.12
1100	0.129
1100	0.14
1101	0.15
1101	0.16
1102	0.174
1102	0.189
1102	0.206
1103	0.224
1103	0.244
1104	0.267
1104	0.292
1104	0.322
1105	0.353
1105	0.385
1106	0.419
1106	0.466
1107	0.518
1107	0.603
1107	0.726
1108	1.797
1108	-0
1109	-0
1109	-0
1109	-0
1110	-0
1110	-0
1111	-0
1111	-0
