Data from 15c-100ul-ns-20ul-nr-full-exp-7ul-bp_Absorbance__720__05058.txt Node

Date: Mon Jan 15 15:36:49 CET 2024
User: Marek
Spectrometer: MAYP115816
Trigger mode: 0
Integration Time (sec): 2.000000E-1
Scans to average: 10
Electric dark correction enabled: true
Nonlinearity correction enabled: true
Boxcar width: 5
XAxis mode: Wavelengths
Number of Pixels in Spectrum: 2068
>>>>>Begin Spectral Data<<<<<
199	-1.662
199	-1.537
200	-1.398
200	-1.29
201	-1.219
201	-1.171
202	-1.104
202	-1.053
203	-1.008
203	-0.973
204	-0.945
204	-0.924
205	-0.904
205	-0.896
205	-0.895
206	-0.894
206	-0.892
207	-0.889
207	-0.886
208	-0.885
208	-0.879
209	-0.878
209	-0.877
210	-0.877
210	-0.875
211	-0.874
211	-0.873
212	-0.871
212	-0.871
213	-0.87
213	-0.869
213	-0.87
214	-0.87
214	-0.87
215	-0.869
215	-0.87
216	-0.869
216	-0.868
217	-0.867
217	-0.867
218	-0.865
218	-0.861
219	-0.859
219	-0.857
220	-0.853
220	-0.85
221	-0.846
221	-0.842
221	-0.837
222	-0.833
222	-0.828
223	-0.821
223	-0.818
224	-0.813
224	-0.805
225	-0.795
225	-0.785
226	-0.775
226	-0.764
227	-0.749
227	-0.733
228	-0.714
228	-0.695
229	-0.671
229	-0.643
229	-0.615
230	-0.583
230	-0.549
231	-0.511
231	-0.472
232	-0.433
232	-0.391
233	-0.348
233	-0.305
234	-0.262
234	-0.219
235	-0.177
235	-0.137
236	-0.098
236	-0.061
236	-0.025
237	0.009
237	0.04
238	0.07
238	0.097
239	0.123
239	0.145
240	0.166
240	0.184
241	0.201
241	0.216
242	0.229
242	0.241
243	0.253
243	0.263
243	0.272
244	0.28
244	0.287
245	0.294
245	0.3
246	0.306
246	0.311
247	0.316
247	0.321
248	0.324
248	0.328
249	0.331
249	0.334
250	0.337
250	0.34
250	0.343
251	0.345
251	0.348
252	0.35
252	0.352
253	0.354
253	0.355
254	0.357
254	0.359
255	0.36
255	0.361
256	0.362
256	0.363
257	0.364
257	0.365
258	0.365
258	0.366
258	0.366
259	0.366
259	0.366
260	0.366
260	0.366
261	0.366
261	0.366
262	0.365
262	0.364
263	0.364
263	0.363
264	0.363
264	0.362
265	0.361
265	0.36
265	0.359
266	0.357
266	0.356
267	0.355
267	0.353
268	0.352
268	0.35
269	0.348
269	0.347
270	0.345
270	0.343
271	0.341
271	0.339
272	0.337
272	0.336
272	0.334
273	0.332
273	0.33
274	0.328
274	0.326
275	0.324
275	0.322
276	0.32
276	0.318
277	0.316
277	0.314
278	0.312
278	0.31
278	0.307
279	0.304
279	0.301
280	0.299
280	0.297
281	0.294
281	0.292
282	0.289
282	0.287
283	0.285
283	0.283
284	0.281
284	0.28
285	0.278
285	0.276
285	0.275
286	0.273
286	0.271
287	0.27
287	0.268
288	0.266
288	0.265
289	0.263
289	0.262
290	0.26
290	0.259
291	0.257
291	0.256
292	0.254
292	0.253
292	0.251
293	0.25
293	0.249
294	0.248
294	0.246
295	0.245
295	0.244
296	0.243
296	0.242
297	0.241
297	0.24
298	0.239
298	0.238
298	0.237
299	0.236
299	0.235
300	0.234
300	0.234
301	0.233
301	0.232
302	0.231
302	0.23
303	0.229
303	0.229
304	0.228
304	0.228
305	0.227
305	0.226
305	0.225
306	0.224
306	0.224
307	0.223
307	0.222
308	0.221
308	0.22
309	0.219
309	0.218
310	0.218
310	0.217
311	0.216
311	0.215
311	0.215
312	0.214
312	0.213
313	0.213
313	0.212
314	0.211
314	0.21
315	0.209
315	0.208
316	0.208
316	0.207
317	0.206
317	0.205
318	0.204
318	0.204
318	0.203
319	0.202
319	0.202
320	0.201
320	0.2
321	0.199
321	0.198
322	0.198
322	0.197
323	0.196
323	0.196
324	0.195
324	0.194
324	0.193
325	0.193
325	0.192
326	0.191
326	0.191
327	0.19
327	0.189
328	0.189
328	0.188
329	0.187
329	0.187
330	0.186
330	0.185
330	0.185
331	0.184
331	0.183
332	0.183
332	0.182
333	0.182
333	0.181
334	0.18
334	0.18
335	0.179
335	0.178
336	0.178
336	0.177
336	0.177
337	0.176
337	0.175
338	0.175
338	0.174
339	0.174
339	0.173
340	0.172
340	0.172
341	0.171
341	0.171
342	0.17
342	0.17
342	0.169
343	0.169
343	0.169
344	0.168
344	0.168
345	0.167
345	0.167
346	0.167
346	0.166
347	0.166
347	0.165
348	0.165
348	0.165
348	0.164
349	0.163
349	0.163
350	0.163
350	0.162
351	0.162
351	0.161
352	0.161
352	0.16
353	0.16
353	0.16
354	0.159
354	0.158
354	0.158
355	0.157
355	0.157
356	0.157
356	0.157
357	0.157
357	0.157
358	0.157
358	0.156
359	0.156
359	0.157
360	0.157
360	0.157
360	0.157
361	0.157
361	0.156
362	0.156
362	0.156
363	0.156
363	0.156
364	0.156
364	0.155
365	0.155
365	0.155
366	0.155
366	0.155
366	0.155
367	0.155
367	0.155
368	0.154
368	0.154
369	0.153
369	0.153
370	0.153
370	0.152
371	0.152
371	0.152
372	0.152
372	0.151
372	0.151
373	0.151
373	0.151
374	0.151
374	0.151
375	0.151
375	0.151
376	0.15
376	0.15
377	0.151
377	0.151
378	0.151
378	0.15
378	0.15
379	0.15
379	0.15
380	0.15
380	0.15
381	0.15
381	0.15
382	0.149
382	0.149
383	0.149
383	0.149
383	0.148
384	0.148
384	0.147
385	0.147
385	0.147
386	0.147
386	0.147
387	0.147
387	0.146
388	0.146
388	0.146
389	0.146
389	0.146
389	0.146
390	0.146
390	0.146
391	0.146
391	0.146
392	0.146
392	0.146
393	0.146
393	0.146
394	0.145
394	0.145
394	0.145
395	0.144
395	0.144
396	0.143
396	0.143
397	0.143
397	0.143
398	0.143
398	0.143
399	0.143
399	0.143
400	0.142
400	0.142
400	0.142
401	0.142
401	0.141
402	0.14
402	0.14
403	0.14
403	0.14
404	0.14
404	0.139
405	0.139
405	0.139
405	0.139
406	0.139
406	0.139
407	0.139
407	0.139
408	0.138
408	0.138
409	0.138
409	0.138
410	0.137
410	0.137
411	0.137
411	0.137
411	0.137
412	0.136
412	0.136
413	0.135
413	0.135
414	0.135
414	0.135
415	0.134
415	0.134
416	0.133
416	0.133
416	0.133
417	0.133
417	0.133
418	0.133
418	0.133
419	0.133
419	0.134
420	0.134
420	0.134
421	0.134
421	0.134
421	0.134
422	0.134
422	0.134
423	0.134
423	0.134
424	0.133
424	0.132
425	0.132
425	0.131
426	0.131
426	0.131
427	0.131
427	0.131
427	0.132
428	0.132
428	0.132
429	0.133
429	0.133
430	0.133
430	0.132
431	0.132
431	0.132
432	0.131
432	0.131
432	0.13
433	0.13
433	0.129
434	0.129
434	0.129
435	0.129
435	0.129
436	0.129
436	0.129
437	0.129
437	0.128
437	0.128
438	0.128
438	0.128
439	0.128
439	0.128
440	0.127
440	0.127
441	0.127
441	0.127
442	0.127
442	0.128
442	0.128
443	0.128
443	0.128
444	0.128
444	0.128
445	0.128
445	0.128
446	0.128
446	0.128
447	0.128
447	0.128
447	0.128
448	0.128
448	0.128
449	0.127
449	0.127
450	0.127
450	0.127
451	0.126
451	0.126
452	0.126
452	0.126
452	0.126
453	0.126
453	0.125
454	0.125
454	0.125
455	0.125
455	0.125
456	0.126
456	0.125
457	0.126
457	0.125
458	0.126
458	0.126
458	0.126
459	0.127
459	0.126
460	0.126
460	0.126
461	0.126
461	0.126
462	0.126
462	0.126
463	0.126
463	0.127
463	0.127
464	0.127
464	0.128
465	0.128
465	0.128
466	0.128
466	0.128
467	0.128
467	0.127
467	0.127
468	0.126
468	0.125
469	0.125
469	0.124
470	0.124
470	0.124
471	0.125
471	0.125
472	0.125
472	0.126
472	0.126
473	0.127
473	0.128
474	0.129
474	0.129
475	0.13
475	0.13
476	0.13
476	0.131
477	0.131
477	0.131
477	0.131
478	0.132
478	0.132
479	0.132
479	0.133
480	0.134
480	0.134
481	0.135
481	0.136
482	0.137
482	0.138
482	0.139
483	0.141
483	0.143
484	0.145
484	0.145
485	0.146
485	0.147
486	0.147
486	0.148
487	0.149
487	0.149
487	0.15
488	0.149
488	0.149
489	0.149
489	0.149
490	0.15
490	0.15
491	0.151
491	0.152
492	0.153
492	0.154
492	0.155
493	0.156
493	0.158
494	0.16
494	0.162
495	0.164
495	0.166
496	0.167
496	0.169
496	0.17
497	0.172
497	0.173
498	0.174
498	0.175
499	0.176
499	0.177
500	0.178
500	0.179
501	0.18
501	0.182
501	0.183
502	0.184
502	0.185
503	0.187
503	0.188
504	0.189
504	0.19
505	0.191
505	0.192
506	0.194
506	0.195
506	0.196
507	0.197
507	0.198
508	0.2
508	0.201
509	0.202
509	0.203
510	0.205
510	0.206
511	0.206
511	0.208
511	0.208
512	0.209
512	0.21
513	0.21
513	0.211
514	0.211
514	0.211
515	0.211
515	0.211
515	0.211
516	0.212
516	0.212
517	0.213
517	0.213
518	0.213
518	0.213
519	0.213
519	0.213
520	0.213
520	0.212
520	0.211
521	0.21
521	0.208
522	0.207
522	0.206
523	0.206
523	0.206
524	0.206
524	0.207
524	0.208
525	0.209
525	0.21
526	0.212
526	0.213
527	0.214
527	0.216
528	0.216
528	0.217
529	0.217
529	0.218
529	0.218
530	0.218
530	0.217
531	0.217
531	0.216
532	0.215
532	0.215
533	0.214
533	0.213
533	0.212
534	0.211
534	0.21
535	0.208
535	0.208
536	0.207
536	0.206
537	0.205
537	0.204
538	0.202
538	0.2
538	0.199
539	0.198
539	0.197
540	0.195
540	0.193
541	0.191
541	0.19
542	0.188
542	0.186
542	0.185
543	0.184
543	0.182
544	0.18
544	0.179
545	0.178
545	0.177
546	0.176
546	0.174
547	0.172
547	0.17
547	0.167
548	0.166
548	0.163
549	0.161
549	0.159
550	0.157
550	0.154
551	0.152
551	0.149
551	0.148
552	0.146
552	0.145
553	0.143
553	0.142
554	0.141
554	0.139
555	0.137
555	0.135
556	0.133
556	0.13
556	0.128
557	0.126
557	0.124
558	0.122
558	0.119
559	0.118
559	0.116
560	0.114
560	0.112
560	0.111
561	0.111
561	0.11
562	0.109
562	0.107
563	0.105
563	0.103
564	0.101
564	0.099
564	0.097
565	0.096
565	0.095
566	0.093
566	0.091
567	0.09
567	0.089
568	0.089
568	0.088
568	0.088
569	0.088
569	0.088
570	0.086
570	0.084
571	0.084
571	0.083
572	0.082
572	0.081
573	0.079
573	0.078
573	0.076
574	0.075
574	0.074
575	0.074
575	0.075
576	0.075
576	0.072
577	0.07
577	0.069
577	0.069
578	0.068
578	0.069
579	0.07
579	0.07
580	0.068
580	0.065
581	0.062
581	0.061
581	0.061
582	0.061
582	0.061
583	0.061
583	0.059
584	0.056
584	0.052
585	0.052
585	0.053
585	0.053
586	0.052
586	0.052
587	0.049
587	0.047
588	0.045
588	0.044
589	0.045
589	0.045
590	0.045
590	0.044
590	0.046
591	0.046
591	0.046
592	0.045
592	0.044
593	0.044
593	0.044
594	0.043
594	0.042
594	0.041
595	0.041
595	0.039
596	0.039
596	0.04
597	0.043
597	0.043
598	0.043
598	0.044
598	0.044
599	0.044
599	0.043
600	0.042
600	0.041
601	0.04
601	0.039
602	0.037
602	0.036
602	0.035
603	0.035
603	0.036
604	0.036
604	0.037
605	0.038
605	0.04
606	0.039
606	0.038
606	0.038
607	0.038
607	0.038
608	0.037
608	0.036
609	0.036
609	0.036
610	0.035
610	0.034
610	0.035
611	0.037
611	0.038
612	0.039
612	0.041
613	0.042
613	0.043
614	0.042
614	0.041
614	0.042
615	0.041
615	0.041
616	0.041
616	0.04
617	0.04
617	0.039
618	0.039
618	0.039
618	0.039
619	0.04
619	0.042
620	0.044
620	0.045
621	0.045
621	0.046
622	0.046
622	0.047
622	0.047
623	0.047
623	0.048
624	0.049
624	0.048
625	0.048
625	0.048
626	0.048
626	0.049
626	0.05
627	0.051
627	0.052
628	0.053
628	0.054
629	0.055
629	0.055
630	0.055
630	0.055
630	0.057
631	0.058
631	0.058
632	0.058
632	0.059
633	0.06
633	0.061
634	0.063
634	0.065
634	0.067
635	0.068
635	0.069
636	0.07
636	0.071
637	0.072
637	0.073
638	0.075
638	0.076
638	0.077
639	0.077
639	0.078
640	0.079
640	0.08
641	0.081
641	0.083
642	0.084
642	0.086
642	0.087
643	0.088
643	0.09
644	0.091
644	0.093
645	0.095
645	0.098
646	0.1
646	0.103
646	0.106
647	0.108
647	0.11
648	0.112
648	0.114
649	0.117
649	0.119
650	0.121
650	0.123
650	0.125
651	0.127
651	0.129
652	0.131
652	0.134
653	0.138
653	0.147
653	0.159
654	0.129
654	0.107
655	0.107
655	0.109
656	0.111
656	0.113
657	0.115
657	0.117
657	0.118
658	0.116
658	0.107
659	0.134
659	0.172
660	0.181
660	0.183
661	0.186
661	0.188
661	0.191
662	0.194
662	0.198
663	0.201
663	0.203
664	0.206
664	0.209
665	0.212
665	0.215
665	0.217
666	0.22
666	0.223
667	0.225
667	0.228
668	0.231
668	0.233
669	0.236
669	0.239
669	0.243
670	0.246
670	0.248
671	0.25
671	0.251
672	0.253
672	0.255
672	0.257
673	0.258
673	0.26
674	0.261
674	0.263
675	0.264
675	0.266
676	0.269
676	0.271
676	0.272
677	0.274
677	0.276
678	0.277
678	0.277
679	0.278
679	0.279
680	0.28
680	0.28
680	0.28
681	0.281
681	0.282
682	0.282
682	0.284
683	0.285
683	0.287
684	0.288
684	0.289
684	0.289
685	0.29
685	0.291
686	0.292
686	0.292
687	0.292
687	0.292
687	0.292
688	0.292
688	0.292
689	0.293
689	0.294
690	0.293
690	0.292
691	0.292
691	0.291
691	0.291
692	0.29
692	0.289
693	0.288
693	0.288
694	0.286
694	0.285
695	0.285
695	0.286
695	0.286
696	0.285
696	0.285
697	0.284
697	0.283
698	0.282
698	0.281
698	0.279
699	0.278
699	0.276
700	0.273
700	0.272
701	0.27
701	0.268
702	0.266
702	0.265
702	0.263
703	0.261
703	0.259
704	0.257
704	0.256
705	0.255
705	0.253
705	0.25
706	0.249
706	0.247
707	0.245
707	0.242
708	0.24
708	0.238
709	0.236
709	0.233
709	0.229
710	0.226
710	0.225
711	0.223
711	0.22
712	0.218
712	0.217
713	0.215
713	0.213
713	0.212
714	0.209
714	0.208
715	0.206
715	0.204
716	0.202
716	0.2
716	0.198
717	0.195
717	0.193
718	0.19
718	0.187
719	0.185
719	0.183
720	0.18
720	0.177
720	0.173
721	0.17
721	0.167
722	0.164
722	0.161
723	0.159
723	0.157
723	0.155
724	0.152
724	0.15
725	0.149
725	0.147
726	0.146
726	0.145
727	0.143
727	0.142
727	0.141
728	0.139
728	0.137
729	0.136
729	0.135
730	0.133
730	0.131
730	0.13
731	0.128
731	0.126
732	0.125
732	0.123
733	0.12
733	0.118
734	0.116
734	0.114
734	0.112
735	0.11
735	0.108
736	0.105
736	0.104
737	0.102
737	0.101
737	0.099
738	0.096
738	0.094
739	0.092
739	0.09
740	0.088
740	0.087
741	0.085
741	0.083
741	0.08
742	0.077
742	0.075
743	0.073
743	0.071
744	0.07
744	0.068
744	0.065
745	0.063
745	0.061
746	0.06
746	0.058
747	0.057
747	0.056
748	0.055
748	0.054
748	0.052
749	0.051
749	0.05
750	0.049
750	0.049
751	0.048
751	0.048
751	0.047
752	0.046
752	0.045
753	0.044
753	0.044
754	0.043
754	0.042
754	0.042
755	0.041
755	0.041
756	0.039
756	0.037
757	0.036
757	0.036
758	0.035
758	0.034
758	0.033
759	0.032
759	0.029
760	0.028
760	0.026
761	0.025
761	0.025
761	0.024
762	0.022
762	0.021
763	0.02
763	0.018
764	0.015
764	0.013
764	0.011
765	0.008
765	0.006
766	0.004
766	0.003
767	0.002
767	-0.001
768	-0.004
768	-0.005
768	-0.006
769	-0.006
769	-0.007
770	-0.008
770	-0.009
771	-0.011
771	-0.014
771	-0.015
772	-0.017
772	-0.018
773	-0.019
773	-0.021
774	-0.023
774	-0.025
775	-0.027
775	-0.029
775	-0.032
776	-0.034
776	-0.036
777	-0.038
777	-0.041
778	-0.043
778	-0.046
778	-0.048
779	-0.049
779	-0.051
780	-0.053
780	-0.056
781	-0.058
781	-0.062
781	-0.066
782	-0.072
782	-0.077
783	-0.082
783	-0.088
784	-0.094
784	-0.1
784	-0.105
785	-0.111
785	-0.117
786	-0.12
786	-0.12
787	-0.117
787	-0.115
788	-0.116
788	-0.117
788	-0.118
789	-0.119
789	-0.118
790	-0.115
790	-0.113
791	-0.113
791	-0.115
791	-0.117
792	-0.112
792	-0.102
793	-0.097
793	-0.093
794	-0.092
794	-0.094
794	-0.098
795	-0.101
795	-0.101
796	-0.101
796	-0.104
797	-0.112
797	-0.122
797	-0.128
798	-0.133
798	-0.136
799	-0.136
799	-0.136
800	-0.136
800	-0.138
801	-0.141
801	-0.143
801	-0.143
802	-0.145
802	-0.146
803	-0.147
803	-0.147
804	-0.146
804	-0.141
804	-0.135
805	-0.131
805	-0.128
806	-0.126
806	-0.125
807	-0.123
807	-0.123
807	-0.123
808	-0.123
808	-0.124
809	-0.128
809	-0.134
810	-0.137
810	-0.14
810	-0.143
811	-0.145
811	-0.145
812	-0.141
812	-0.137
813	-0.136
813	-0.136
813	-0.137
814	-0.137
814	-0.136
815	-0.134
815	-0.131
816	-0.129
816	-0.13
817	-0.135
817	-0.138
817	-0.138
818	-0.136
818	-0.132
819	-0.127
819	-0.124
820	-0.122
820	-0.119
820	-0.116
821	-0.111
821	-0.105
822	-0.098
822	-0.092
823	-0.087
823	-0.083
823	-0.08
824	-0.076
824	-0.071
825	-0.066
825	-0.061
826	-0.057
826	-0.054
826	-0.051
827	-0.048
827	-0.045
828	-0.043
828	-0.041
829	-0.038
829	-0.036
829	-0.035
830	-0.034
830	-0.033
831	-0.032
831	-0.031
832	-0.03
832	-0.029
832	-0.029
833	-0.029
833	-0.028
834	-0.028
834	-0.028
835	-0.028
835	-0.028
835	-0.028
836	-0.028
836	-0.028
837	-0.028
837	-0.027
838	-0.027
838	-0.028
839	-0.028
839	-0.028
839	-0.028
840	-0.028
840	-0.028
841	-0.028
841	-0.027
842	-0.027
842	-0.026
842	-0.026
843	-0.025
843	-0.025
844	-0.024
844	-0.023
845	-0.023
845	-0.022
845	-0.022
846	-0.022
846	-0.022
847	-0.022
847	-0.022
848	-0.022
848	-0.022
848	-0.022
849	-0.023
849	-0.023
850	-0.024
850	-0.025
851	-0.025
851	-0.025
851	-0.026
852	-0.026
852	-0.026
853	-0.026
853	-0.026
854	-0.026
854	-0.025
854	-0.024
855	-0.024
855	-0.023
856	-0.023
856	-0.022
857	-0.021
857	-0.021
857	-0.021
858	-0.02
858	-0.02
859	-0.02
859	-0.02
860	-0.02
860	-0.02
860	-0.02
861	-0.019
861	-0.019
862	-0.02
862	-0.02
863	-0.02
863	-0.02
863	-0.02
864	-0.02
864	-0.02
865	-0.02
865	-0.02
866	-0.021
866	-0.021
866	-0.02
867	-0.02
867	-0.02
868	-0.019
868	-0.018
869	-0.017
869	-0.017
869	-0.016
870	-0.016
870	-0.015
871	-0.014
871	-0.014
872	-0.013
872	-0.014
872	-0.013
873	-0.013
873	-0.013
874	-0.013
874	-0.013
875	-0.013
875	-0.013
875	-0.013
876	-0.013
876	-0.013
877	-0.013
877	-0.014
878	-0.015
878	-0.015
878	-0.016
879	-0.016
879	-0.017
880	-0.018
880	-0.019
881	-0.019
881	-0.019
881	-0.018
882	-0.018
882	-0.017
883	-0.016
883	-0.016
884	-0.015
884	-0.014
884	-0.014
885	-0.013
885	-0.013
886	-0.013
886	-0.013
887	-0.013
887	-0.013
887	-0.013
888	-0.013
888	-0.013
889	-0.012
889	-0.011
890	-0.01
890	-0.009
890	-0.009
891	-0.008
891	-0.008
892	-0.008
892	-0.008
893	-0.008
893	-0.009
893	-0.009
894	-0.01
894	-0.012
895	-0.013
895	-0.013
895	-0.015
896	-0.016
896	-0.016
897	-0.017
897	-0.017
898	-0.017
898	-0.017
898	-0.017
899	-0.017
899	-0.017
900	-0.017
900	-0.017
901	-0.017
901	-0.016
901	-0.016
902	-0.016
902	-0.016
903	-0.016
903	-0.016
904	-0.017
904	-0.017
904	-0.018
905	-0.018
905	-0.019
906	-0.019
906	-0.02
907	-0.02
907	-0.021
907	-0.022
908	-0.022
908	-0.022
909	-0.022
909	-0.022
910	-0.022
910	-0.022
910	-0.022
911	-0.022
911	-0.021
912	-0.021
912	-0.021
913	-0.021
913	-0.021
913	-0.022
914	-0.022
914	-0.023
915	-0.024
915	-0.024
916	-0.024
916	-0.025
916	-0.025
917	-0.024
917	-0.024
918	-0.023
918	-0.022
918	-0.021
919	-0.019
919	-0.018
920	-0.016
920	-0.015
921	-0.014
921	-0.013
921	-0.012
922	-0.011
922	-0.01
923	-0.009
923	-0.008
924	-0.008
924	-0.007
924	-0.007
925	-0.007
925	-0.007
926	-0.006
926	-0.006
927	-0.006
927	-0.007
927	-0.007
928	-0.007
928	-0.007
929	-0.006
929	-0.007
930	-0.007
930	-0.007
930	-0.008
931	-0.009
931	-0.01
932	-0.012
932	-0.013
933	-0.014
933	-0.015
933	-0.017
934	-0.018
934	-0.02
935	-0.021
935	-0.022
935	-0.022
936	-0.023
936	-0.023
937	-0.023
937	-0.023
938	-0.024
938	-0.023
938	-0.023
939	-0.023
939	-0.022
940	-0.021
940	-0.021
941	-0.02
941	-0.02
941	-0.019
942	-0.019
942	-0.018
943	-0.018
943	-0.017
944	-0.017
944	-0.017
944	-0.017
945	-0.017
945	-0.016
946	-0.016
946	-0.017
946	-0.016
947	-0.016
947	-0.016
948	-0.016
948	-0.016
949	-0.016
949	-0.016
949	-0.016
950	-0.015
950	-0.015
951	-0.015
951	-0.015
952	-0.015
952	-0.014
952	-0.014
953	-0.014
953	-0.013
954	-0.014
954	-0.014
955	-0.014
955	-0.014
955	-0.014
956	-0.013
956	-0.013
957	-0.013
957	-0.013
957	-0.014
958	-0.014
958	-0.014
959	-0.014
959	-0.015
960	-0.015
960	-0.016
960	-0.017
961	-0.018
961	-0.019
962	-0.019
962	-0.02
963	-0.019
963	-0.019
963	-0.019
964	-0.018
964	-0.017
965	-0.017
965	-0.016
966	-0.014
966	-0.013
966	-0.012
967	-0.011
967	-0.011
968	-0.011
968	-0.011
968	-0.011
969	-0.011
969	-0.011
970	-0.011
970	-0.012
971	-0.012
971	-0.013
971	-0.013
972	-0.013
972	-0.014
973	-0.014
973	-0.015
974	-0.015
974	-0.016
974	-0.016
975	-0.017
975	-0.018
976	-0.018
976	-0.019
976	-0.02
977	-0.022
977	-0.023
978	-0.024
978	-0.026
979	-0.027
979	-0.027
979	-0.027
980	-0.027
980	-0.028
981	-0.027
981	-0.026
982	-0.025
982	-0.024
982	-0.023
983	-0.021
983	-0.02
984	-0.018
984	-0.017
984	-0.016
985	-0.015
985	-0.014
986	-0.015
986	-0.015
987	-0.015
987	-0.016
987	-0.016
988	-0.017
988	-0.019
989	-0.02
989	-0.021
990	-0.022
990	-0.023
990	-0.024
991	-0.024
991	-0.025
992	-0.025
992	-0.026
992	-0.026
993	-0.027
993	-0.027
994	-0.028
994	-0.029
995	-0.03
995	-0.03
995	-0.032
996	-0.032
996	-0.033
997	-0.034
997	-0.034
997	-0.035
998	-0.035
998	-0.034
999	-0.034
999	-0.033
1000	-0.033
1000	-0.032
1000	-0.031
1001	-0.031
1001	-0.03
1002	-0.029
1002	-0.029
1003	-0.028
1003	-0.028
1003	-0.028
1004	-0.028
1004	-0.027
1005	-0.027
1005	-0.027
1005	-0.026
1006	-0.026
1006	-0.026
1007	-0.025
1007	-0.025
1008	-0.024
1008	-0.024
1008	-0.023
1009	-0.022
1009	-0.022
1010	-0.021
1010	-0.021
1010	-0.021
1011	-0.02
1011	-0.02
1012	-0.02
1012	-0.02
1013	-0.02
1013	-0.02
1013	-0.021
1014	-0.021
1014	-0.022
1015	-0.023
1015	-0.024
1016	-0.025
1016	-0.026
1016	-0.027
1017	-0.027
1017	-0.028
1018	-0.028
1018	-0.029
1018	-0.029
1019	-0.029
1019	-0.029
1020	-0.029
1020	-0.029
1021	-0.03
1021	-0.03
1021	-0.03
1022	-0.031
1022	-0.031
1023	-0.031
1023	-0.032
1023	-0.033
1024	-0.033
1024	-0.034
1025	-0.035
1025	-0.035
1026	-0.036
1026	-0.036
1026	-0.037
1027	-0.037
1027	-0.037
1028	-0.037
1028	-0.036
1028	-0.036
1029	-0.035
1029	-0.035
1030	-0.035
1030	-0.034
1031	-0.034
1031	-0.033
1031	-0.033
1032	-0.033
1032	-0.032
1033	-0.032
1033	-0.032
1033	-0.032
1034	-0.033
1034	-0.034
1035	-0.034
1035	-0.035
1036	-0.036
1036	-0.036
1036	-0.037
1037	-0.037
1037	-0.038
1038	-0.039
1038	-0.039
1039	-0.039
1039	-0.038
1039	-0.038
1040	-0.038
1040	-0.038
1041	-0.039
1041	-0.039
1041	-0.039
1042	-0.04
1042	-0.04
1043	-0.041
1043	-0.042
1044	-0.043
1044	-0.044
1044	-0.045
1045	-0.045
1045	-0.046
1046	-0.047
1046	-0.048
1046	-0.048
1047	-0.048
1047	-0.047
1048	-0.047
1048	-0.047
1049	-0.047
1049	-0.048
1049	-0.048
1050	-0.048
1050	-0.049
1051	-0.049
1051	-0.049
1051	-0.048
1052	-0.048
1052	-0.047
1053	-0.047
1053	-0.046
1053	-0.045
1054	-0.044
1054	-0.042
1055	-0.041
1055	-0.04
1056	-0.04
1056	-0.04
1056	-0.04
1057	-0.04
1057	-0.04
1058	-0.04
1058	-0.04
1058	-0.04
1059	-0.04
1059	-0.04
1060	-0.04
1060	-0.04
1061	-0.04
1061	-0.039
1061	-0.039
1062	-0.039
1062	-0.039
1063	-0.04
1063	-0.04
1063	-0.04
1064	-0.04
1064	-0.04
1065	-0.04
1065	-0.041
1066	-0.041
1066	-0.041
1066	-0.042
1067	-0.042
1067	-0.042
1068	-0.043
1068	-0.043
1068	-0.043
1069	-0.044
1069	-0.045
1070	-0.045
1070	-0.045
1071	-0.045
1071	-0.045
1071	-0.045
1072	-0.045
1072	-0.044
1073	-0.044
1073	-0.043
1073	-0.043
1074	-0.043
1074	-0.042
1075	-0.042
1075	-0.043
1076	-0.043
1076	-0.042
1076	-0.043
1077	-0.043
1077	-0.044
1078	-0.044
1078	-0.044
1078	-0.043
1079	-0.043
1079	-0.042
1080	-0.042
1080	-0.041
1080	-0.04
1081	-0.039
1081	-0.038
1082	-0.037
1082	-0.037
1083	-0.037
1083	-0.037
1083	-0.035
1084	-0.035
1084	-0.034
1085	-0.034
1085	-0.033
1085	-0.032
1086	-0.032
1086	-0.033
1087	-0.031
1087	-0.031
1088	-0.031
1088	-0.032
1088	-0.031
1089	-0.032
1089	-0.031
1090	-0.032
1090	-0.032
1090	-0.032
1091	-0.03
1091	-0.029
1092	-0.029
1092	-0.027
1092	-0.025
1093	-0.025
1093	-0.022
1094	-0.02
1094	-0.018
1095	-0.017
1095	-0.016
1095	-0.013
1096	-0.012
1096	-0.008
1097	-0.005
1097	-0.003
1097	0.001
1098	0.003
1098	0.007
1099	0.011
1099	0.015
1100	0.019
1100	0.023
1100	0.028
1101	0.031
1101	0.035
1102	0.042
1102	0.046
1102	0.053
1103	0.058
1103	0.065
1104	0.074
1104	0.083
1104	0.094
1105	0.104
1105	0.113
1106	0.124
1106	0.136
1107	0.149
1107	0.168
1107	0.194
1108	0.275
1108	0.399
1109	0.627
1109	1.679
1109	-0
1110	-0
1110	-0
1111	-0
1111	-0
