Data from 15c-100ul-ns-20ul-nr-full-exp-7ul-bp_Absorbance__125__04463.txt Node

Date: Mon Jan 15 15:16:59 CET 2024
User: Marek
Spectrometer: MAYP115816
Trigger mode: 0
Integration Time (sec): 2.000000E-1
Scans to average: 10
Electric dark correction enabled: true
Nonlinearity correction enabled: true
Boxcar width: 5
XAxis mode: Wavelengths
Number of Pixels in Spectrum: 2068
>>>>>Begin Spectral Data<<<<<
199	-2.041
199	-1.91
200	-1.766
200	-1.654
201	-1.58
201	-1.53
202	-1.458
202	-1.402
203	-1.351
203	-1.311
204	-1.281
204	-1.259
205	-1.237
205	-1.228
205	-1.226
206	-1.224
206	-1.222
207	-1.218
207	-1.215
208	-1.213
208	-1.207
209	-1.206
209	-1.204
210	-1.204
210	-1.202
211	-1.2
211	-1.198
212	-1.195
212	-1.195
213	-1.194
213	-1.192
213	-1.193
214	-1.192
214	-1.193
215	-1.192
215	-1.193
216	-1.192
216	-1.191
217	-1.19
217	-1.189
218	-1.188
218	-1.185
219	-1.183
219	-1.181
220	-1.176
220	-1.172
221	-1.168
221	-1.163
221	-1.157
222	-1.153
222	-1.148
223	-1.14
223	-1.137
224	-1.131
224	-1.123
225	-1.114
225	-1.103
226	-1.093
226	-1.082
227	-1.067
227	-1.05
228	-1.031
228	-1.01
229	-0.986
229	-0.957
229	-0.928
230	-0.896
230	-0.861
231	-0.822
231	-0.782
232	-0.741
232	-0.697
233	-0.651
233	-0.605
234	-0.558
234	-0.512
235	-0.465
235	-0.42
236	-0.376
236	-0.332
236	-0.29
237	-0.25
237	-0.213
238	-0.177
238	-0.143
239	-0.111
239	-0.083
240	-0.056
240	-0.031
241	-0.009
241	0.012
242	0.031
242	0.048
243	0.065
243	0.079
243	0.093
244	0.105
244	0.116
245	0.126
245	0.136
246	0.145
246	0.153
247	0.16
247	0.167
248	0.173
248	0.179
249	0.184
249	0.189
250	0.194
250	0.198
250	0.203
251	0.206
251	0.21
252	0.214
252	0.217
253	0.219
253	0.222
254	0.224
254	0.227
255	0.229
255	0.231
256	0.233
256	0.234
257	0.236
257	0.237
258	0.238
258	0.24
258	0.24
259	0.241
259	0.242
260	0.243
260	0.243
261	0.243
261	0.243
262	0.243
262	0.243
263	0.243
263	0.243
264	0.243
264	0.242
265	0.242
265	0.241
265	0.241
266	0.24
266	0.24
267	0.239
267	0.238
268	0.237
268	0.236
269	0.235
269	0.234
270	0.233
270	0.231
271	0.23
271	0.229
272	0.228
272	0.227
272	0.225
273	0.224
273	0.223
274	0.221
274	0.22
275	0.219
275	0.217
276	0.216
276	0.214
277	0.213
277	0.211
278	0.21
278	0.208
278	0.206
279	0.204
279	0.202
280	0.201
280	0.199
281	0.197
281	0.196
282	0.195
282	0.193
283	0.192
283	0.191
284	0.19
284	0.189
285	0.188
285	0.187
285	0.186
286	0.185
286	0.184
287	0.183
287	0.182
288	0.181
288	0.18
289	0.179
289	0.178
290	0.177
290	0.176
291	0.175
291	0.174
292	0.173
292	0.172
292	0.171
293	0.171
293	0.17
294	0.169
294	0.168
295	0.167
295	0.166
296	0.166
296	0.165
297	0.165
297	0.164
298	0.163
298	0.163
298	0.162
299	0.161
299	0.161
300	0.16
300	0.16
301	0.159
301	0.158
302	0.157
302	0.157
303	0.157
303	0.156
304	0.156
304	0.155
305	0.154
305	0.154
305	0.153
306	0.153
306	0.152
307	0.151
307	0.151
308	0.15
308	0.149
309	0.149
309	0.148
310	0.147
310	0.147
311	0.146
311	0.146
311	0.145
312	0.145
312	0.144
313	0.144
313	0.143
314	0.142
314	0.141
315	0.141
315	0.14
316	0.14
316	0.139
317	0.138
317	0.138
318	0.137
318	0.136
318	0.136
319	0.135
319	0.135
320	0.134
320	0.133
321	0.132
321	0.131
322	0.131
322	0.13
323	0.129
323	0.129
324	0.128
324	0.127
324	0.127
325	0.126
325	0.126
326	0.125
326	0.125
327	0.124
327	0.123
328	0.123
328	0.122
329	0.122
329	0.121
330	0.12
330	0.12
330	0.119
331	0.118
331	0.118
332	0.117
332	0.117
333	0.116
333	0.115
334	0.115
334	0.114
335	0.114
335	0.113
336	0.112
336	0.112
336	0.111
337	0.111
337	0.11
338	0.11
338	0.109
339	0.109
339	0.108
340	0.108
340	0.107
341	0.106
341	0.106
342	0.105
342	0.105
342	0.104
343	0.104
343	0.104
344	0.103
344	0.102
345	0.102
345	0.101
346	0.101
346	0.101
347	0.1
347	0.1
348	0.099
348	0.098
348	0.098
349	0.097
349	0.097
350	0.096
350	0.096
351	0.095
351	0.094
352	0.094
352	0.093
353	0.092
353	0.092
354	0.091
354	0.09
354	0.089
355	0.089
355	0.088
356	0.088
356	0.088
357	0.088
357	0.088
358	0.088
358	0.088
359	0.089
359	0.089
360	0.089
360	0.09
360	0.09
361	0.09
361	0.09
362	0.09
362	0.089
363	0.089
363	0.089
364	0.089
364	0.089
365	0.088
365	0.088
366	0.088
366	0.087
366	0.087
367	0.087
367	0.087
368	0.086
368	0.086
369	0.085
369	0.085
370	0.085
370	0.085
371	0.084
371	0.084
372	0.083
372	0.083
372	0.083
373	0.083
373	0.083
374	0.083
374	0.083
375	0.083
375	0.083
376	0.083
376	0.083
377	0.083
377	0.084
378	0.084
378	0.084
378	0.084
379	0.084
379	0.084
380	0.084
380	0.084
381	0.084
381	0.083
382	0.083
382	0.083
383	0.083
383	0.082
383	0.082
384	0.082
384	0.081
385	0.081
385	0.081
386	0.081
386	0.081
387	0.081
387	0.08
388	0.08
388	0.08
389	0.08
389	0.08
389	0.08
390	0.08
390	0.081
391	0.081
391	0.081
392	0.081
392	0.081
393	0.081
393	0.081
394	0.081
394	0.08
394	0.08
395	0.08
395	0.079
396	0.079
396	0.079
397	0.079
397	0.079
398	0.079
398	0.079
399	0.079
399	0.079
400	0.079
400	0.079
400	0.078
401	0.078
401	0.077
402	0.076
402	0.076
403	0.076
403	0.076
404	0.075
404	0.075
405	0.075
405	0.075
405	0.074
406	0.074
406	0.075
407	0.075
407	0.074
408	0.074
408	0.074
409	0.073
409	0.073
410	0.073
410	0.073
411	0.073
411	0.073
411	0.072
412	0.072
412	0.072
413	0.071
413	0.071
414	0.07
414	0.07
415	0.069
415	0.069
416	0.069
416	0.068
416	0.068
417	0.067
417	0.067
418	0.067
418	0.068
419	0.068
419	0.069
420	0.069
420	0.07
421	0.07
421	0.071
421	0.071
422	0.071
422	0.071
423	0.071
423	0.071
424	0.07
424	0.07
425	0.069
425	0.068
426	0.068
426	0.068
427	0.067
427	0.067
427	0.068
428	0.068
428	0.069
429	0.07
429	0.07
430	0.07
430	0.07
431	0.069
431	0.069
432	0.069
432	0.068
432	0.067
433	0.066
433	0.065
434	0.064
434	0.064
435	0.064
435	0.064
436	0.064
436	0.064
437	0.064
437	0.064
437	0.064
438	0.064
438	0.064
439	0.064
439	0.063
440	0.063
440	0.063
441	0.063
441	0.063
442	0.063
442	0.064
442	0.064
443	0.064
443	0.064
444	0.064
444	0.064
445	0.065
445	0.065
446	0.065
446	0.065
447	0.064
447	0.064
447	0.064
448	0.064
448	0.064
449	0.063
449	0.063
450	0.063
450	0.063
451	0.062
451	0.062
452	0.061
452	0.061
452	0.06
453	0.06
453	0.059
454	0.059
454	0.059
455	0.058
455	0.058
456	0.058
456	0.058
457	0.058
457	0.058
458	0.058
458	0.059
458	0.059
459	0.059
459	0.059
460	0.059
460	0.058
461	0.058
461	0.057
462	0.057
462	0.057
463	0.057
463	0.058
463	0.058
464	0.058
464	0.058
465	0.058
465	0.058
466	0.058
466	0.058
467	0.057
467	0.057
467	0.056
468	0.054
468	0.053
469	0.052
469	0.051
470	0.051
470	0.05
471	0.05
471	0.05
472	0.05
472	0.05
472	0.051
473	0.052
473	0.053
474	0.054
474	0.054
475	0.055
475	0.055
476	0.056
476	0.056
477	0.056
477	0.056
477	0.056
478	0.056
478	0.056
479	0.056
479	0.056
480	0.057
480	0.058
481	0.058
481	0.059
482	0.06
482	0.061
482	0.062
483	0.064
483	0.066
484	0.068
484	0.07
485	0.071
485	0.072
486	0.072
486	0.073
487	0.074
487	0.074
487	0.074
488	0.073
488	0.071
489	0.07
489	0.069
490	0.068
490	0.068
491	0.068
491	0.068
492	0.068
492	0.068
492	0.069
493	0.07
493	0.071
494	0.073
494	0.075
495	0.076
495	0.078
496	0.079
496	0.08
496	0.081
497	0.082
497	0.082
498	0.083
498	0.083
499	0.083
499	0.083
500	0.084
500	0.084
501	0.086
501	0.087
501	0.087
502	0.088
502	0.089
503	0.09
503	0.091
504	0.092
504	0.092
505	0.093
505	0.093
506	0.093
506	0.094
506	0.094
507	0.094
507	0.095
508	0.096
508	0.096
509	0.097
509	0.097
510	0.098
510	0.099
511	0.099
511	0.1
511	0.1
512	0.1
512	0.1
513	0.099
513	0.099
514	0.099
514	0.098
515	0.098
515	0.097
515	0.096
516	0.095
516	0.095
517	0.095
517	0.096
518	0.096
518	0.096
519	0.096
519	0.095
520	0.094
520	0.093
520	0.091
521	0.089
521	0.087
522	0.084
522	0.082
523	0.08
523	0.078
524	0.077
524	0.077
524	0.078
525	0.079
525	0.081
526	0.083
526	0.086
527	0.089
527	0.092
528	0.094
528	0.097
529	0.098
529	0.1
529	0.1
530	0.101
530	0.102
531	0.102
531	0.103
532	0.102
532	0.102
533	0.102
533	0.102
533	0.102
534	0.101
534	0.1
535	0.1
535	0.099
536	0.099
536	0.098
537	0.098
537	0.097
538	0.097
538	0.095
538	0.094
539	0.094
539	0.093
540	0.092
540	0.091
541	0.089
541	0.088
542	0.087
542	0.086
542	0.084
543	0.084
543	0.083
544	0.082
544	0.081
545	0.081
545	0.081
546	0.081
546	0.08
547	0.079
547	0.077
547	0.076
548	0.074
548	0.072
549	0.071
549	0.069
550	0.067
550	0.066
551	0.063
551	0.062
551	0.06
552	0.059
552	0.059
553	0.058
553	0.058
554	0.058
554	0.057
555	0.055
555	0.054
556	0.052
556	0.05
556	0.048
557	0.046
557	0.044
558	0.043
558	0.041
559	0.04
559	0.039
560	0.039
560	0.038
560	0.038
561	0.038
561	0.038
562	0.038
562	0.037
563	0.036
563	0.034
564	0.032
564	0.03
564	0.029
565	0.028
565	0.027
566	0.026
566	0.025
567	0.025
567	0.025
568	0.027
568	0.028
568	0.029
569	0.031
569	0.032
570	0.033
570	0.032
571	0.033
571	0.033
572	0.033
572	0.033
573	0.033
573	0.032
573	0.031
574	0.03
574	0.03
575	0.03
575	0.031
576	0.032
576	0.031
577	0.029
577	0.028
577	0.028
578	0.028
578	0.029
579	0.03
579	0.031
580	0.03
580	0.028
581	0.025
581	0.024
581	0.024
582	0.024
582	0.025
583	0.025
583	0.024
584	0.021
584	0.018
585	0.017
585	0.018
585	0.018
586	0.018
586	0.018
587	0.016
587	0.014
588	0.011
588	0.01
589	0.009
589	0.009
590	0.008
590	0.007
590	0.009
591	0.01
591	0.01
592	0.01
592	0.009
593	0.009
593	0.009
594	0.009
594	0.008
594	0.007
595	0.007
595	0.005
596	0.004
596	0.006
597	0.008
597	0.009
598	0.01
598	0.011
598	0.012
599	0.013
599	0.012
600	0.011
600	0.01
601	0.01
601	0.008
602	0.006
602	0.005
602	0.004
603	0.003
603	0.004
604	0.005
604	0.005
605	0.007
605	0.009
606	0.009
606	0.008
606	0.008
607	0.007
607	0.007
608	0.007
608	0.005
609	0.005
609	0.004
610	0.003
610	0.002
610	0.003
611	0.004
611	0.005
612	0.006
612	0.008
613	0.01
613	0.011
614	0.011
614	0.01
614	0.01
615	0.009
615	0.009
616	0.009
616	0.008
617	0.007
617	0.006
618	0.005
618	0.004
618	0.004
619	0.005
619	0.006
620	0.008
620	0.009
621	0.009
621	0.01
622	0.011
622	0.011
622	0.011
623	0.011
623	0.012
624	0.013
624	0.012
625	0.012
625	0.012
626	0.012
626	0.012
626	0.013
627	0.013
627	0.014
628	0.014
628	0.015
629	0.015
629	0.015
630	0.014
630	0.014
630	0.015
631	0.015
631	0.016
632	0.015
632	0.016
633	0.017
633	0.018
634	0.019
634	0.021
634	0.023
635	0.025
635	0.026
636	0.027
636	0.028
637	0.029
637	0.03
638	0.031
638	0.032
638	0.033
639	0.033
639	0.033
640	0.034
640	0.035
641	0.036
641	0.037
642	0.038
642	0.04
642	0.041
643	0.042
643	0.043
644	0.045
644	0.046
645	0.048
645	0.05
646	0.052
646	0.055
646	0.058
647	0.06
647	0.062
648	0.064
648	0.066
649	0.068
649	0.07
650	0.072
650	0.074
650	0.076
651	0.078
651	0.079
652	0.081
652	0.083
653	0.086
653	0.095
653	0.11
654	0.093
654	0.079
655	0.081
655	0.082
656	0.084
656	0.086
657	0.088
657	0.09
657	0.09
658	0.088
658	0.078
659	0.095
659	0.118
660	0.124
660	0.126
661	0.127
661	0.129
661	0.131
662	0.134
662	0.137
663	0.14
663	0.143
664	0.146
664	0.148
665	0.15
665	0.153
665	0.155
666	0.157
666	0.159
667	0.161
667	0.163
668	0.165
668	0.167
669	0.169
669	0.172
669	0.176
670	0.179
670	0.181
671	0.183
671	0.185
672	0.186
672	0.187
672	0.189
673	0.19
673	0.191
674	0.192
674	0.193
675	0.193
675	0.194
676	0.197
676	0.199
676	0.2
677	0.202
677	0.204
678	0.206
678	0.206
679	0.207
679	0.208
680	0.21
680	0.211
680	0.21
681	0.21
681	0.211
682	0.212
682	0.213
683	0.215
683	0.217
684	0.219
684	0.219
684	0.22
685	0.221
685	0.222
686	0.223
686	0.223
687	0.224
687	0.223
687	0.223
688	0.222
688	0.221
689	0.222
689	0.223
690	0.223
690	0.222
691	0.221
691	0.221
691	0.221
692	0.22
692	0.22
693	0.219
693	0.219
694	0.218
694	0.216
695	0.217
695	0.218
695	0.219
696	0.219
696	0.218
697	0.218
697	0.217
698	0.217
698	0.215
698	0.214
699	0.213
699	0.211
700	0.209
700	0.208
701	0.206
701	0.205
702	0.204
702	0.203
702	0.201
703	0.2
703	0.199
704	0.198
704	0.197
705	0.196
705	0.195
705	0.193
706	0.192
706	0.191
707	0.189
707	0.186
708	0.184
708	0.182
709	0.181
709	0.178
709	0.175
710	0.172
710	0.17
711	0.168
711	0.166
712	0.165
712	0.163
713	0.162
713	0.161
713	0.159
714	0.157
714	0.155
715	0.154
715	0.152
716	0.15
716	0.149
716	0.147
717	0.145
717	0.143
718	0.14
718	0.138
719	0.136
719	0.134
720	0.132
720	0.129
720	0.126
721	0.123
721	0.12
722	0.118
722	0.115
723	0.113
723	0.111
723	0.109
724	0.107
724	0.106
725	0.104
725	0.103
726	0.101
726	0.1
727	0.099
727	0.098
727	0.097
728	0.096
728	0.094
729	0.094
729	0.093
730	0.092
730	0.09
730	0.089
731	0.088
731	0.086
732	0.085
732	0.083
733	0.081
733	0.079
734	0.076
734	0.074
734	0.072
735	0.07
735	0.068
736	0.065
736	0.063
737	0.061
737	0.06
737	0.058
738	0.056
738	0.053
739	0.051
739	0.049
740	0.047
740	0.045
741	0.043
741	0.041
741	0.037
742	0.034
742	0.031
743	0.029
743	0.027
744	0.025
744	0.023
744	0.021
745	0.019
745	0.017
746	0.015
746	0.014
747	0.014
747	0.013
748	0.012
748	0.012
748	0.011
749	0.01
749	0.01
750	0.01
750	0.009
751	0.009
751	0.01
751	0.01
752	0.01
752	0.009
753	0.009
753	0.008
754	0.008
754	0.007
754	0.007
755	0.007
755	0.007
756	0.006
756	0.004
757	0.002
757	0.002
758	0.001
758	-0
758	-0.001
759	-0.002
759	-0.004
760	-0.006
760	-0.009
761	-0.01
761	-0.011
761	-0.012
762	-0.014
762	-0.015
763	-0.016
763	-0.018
764	-0.021
764	-0.023
764	-0.025
765	-0.028
765	-0.03
766	-0.031
766	-0.032
767	-0.033
767	-0.036
768	-0.039
768	-0.041
768	-0.042
769	-0.043
769	-0.043
770	-0.044
770	-0.046
771	-0.048
771	-0.05
771	-0.053
772	-0.055
772	-0.056
773	-0.058
773	-0.06
774	-0.062
774	-0.065
775	-0.067
775	-0.07
775	-0.073
776	-0.077
776	-0.08
777	-0.083
777	-0.086
778	-0.09
778	-0.094
778	-0.097
779	-0.099
779	-0.099
780	-0.099
780	-0.102
781	-0.104
781	-0.105
781	-0.106
782	-0.108
782	-0.11
783	-0.113
783	-0.113
784	-0.115
784	-0.118
784	-0.12
785	-0.121
785	-0.123
786	-0.124
786	-0.121
787	-0.117
787	-0.113
788	-0.112
788	-0.112
788	-0.113
789	-0.114
789	-0.113
790	-0.11
790	-0.108
791	-0.108
791	-0.11
791	-0.112
792	-0.107
792	-0.097
793	-0.091
793	-0.088
794	-0.087
794	-0.089
794	-0.093
795	-0.096
795	-0.096
796	-0.096
796	-0.099
797	-0.107
797	-0.117
797	-0.123
798	-0.128
798	-0.131
799	-0.131
799	-0.131
800	-0.131
800	-0.133
801	-0.136
801	-0.138
801	-0.138
802	-0.14
802	-0.141
803	-0.142
803	-0.142
804	-0.141
804	-0.136
804	-0.129
805	-0.126
805	-0.123
806	-0.121
806	-0.119
807	-0.118
807	-0.118
807	-0.118
808	-0.117
808	-0.119
809	-0.123
809	-0.129
810	-0.132
810	-0.134
810	-0.137
811	-0.14
811	-0.14
812	-0.135
812	-0.132
813	-0.131
813	-0.131
813	-0.132
814	-0.132
814	-0.131
815	-0.129
815	-0.126
816	-0.124
816	-0.125
817	-0.129
817	-0.133
817	-0.134
818	-0.133
818	-0.13
819	-0.125
819	-0.123
820	-0.124
820	-0.127
820	-0.128
821	-0.128
821	-0.127
822	-0.126
822	-0.125
823	-0.123
823	-0.123
823	-0.124
824	-0.123
824	-0.118
825	-0.112
825	-0.105
826	-0.098
826	-0.092
826	-0.086
827	-0.081
827	-0.076
828	-0.071
828	-0.068
829	-0.064
829	-0.061
829	-0.059
830	-0.058
830	-0.056
831	-0.054
831	-0.052
832	-0.051
832	-0.05
832	-0.049
833	-0.048
833	-0.047
834	-0.046
834	-0.045
835	-0.044
835	-0.044
835	-0.043
836	-0.043
836	-0.042
837	-0.042
837	-0.042
838	-0.042
838	-0.042
839	-0.042
839	-0.042
839	-0.042
840	-0.042
840	-0.042
841	-0.041
841	-0.041
842	-0.04
842	-0.039
842	-0.038
843	-0.037
843	-0.035
844	-0.034
844	-0.033
845	-0.032
845	-0.031
845	-0.03
846	-0.03
846	-0.03
847	-0.029
847	-0.029
848	-0.029
848	-0.03
848	-0.03
849	-0.03
849	-0.03
850	-0.031
850	-0.032
851	-0.032
851	-0.032
851	-0.032
852	-0.032
852	-0.031
853	-0.03
853	-0.03
854	-0.029
854	-0.028
854	-0.027
855	-0.026
855	-0.025
856	-0.024
856	-0.023
857	-0.022
857	-0.022
857	-0.021
858	-0.021
858	-0.021
859	-0.021
859	-0.021
860	-0.02
860	-0.02
860	-0.02
861	-0.02
861	-0.019
862	-0.019
862	-0.019
863	-0.019
863	-0.018
863	-0.018
864	-0.018
864	-0.018
865	-0.018
865	-0.019
866	-0.019
866	-0.02
866	-0.02
867	-0.02
867	-0.019
868	-0.019
868	-0.018
869	-0.017
869	-0.016
869	-0.016
870	-0.014
870	-0.013
871	-0.012
871	-0.011
872	-0.011
872	-0.011
872	-0.01
873	-0.01
873	-0.01
874	-0.01
874	-0.009
875	-0.009
875	-0.01
875	-0.01
876	-0.01
876	-0.01
877	-0.011
877	-0.011
878	-0.012
878	-0.012
878	-0.013
879	-0.013
879	-0.014
880	-0.014
880	-0.015
881	-0.015
881	-0.015
881	-0.015
882	-0.014
882	-0.014
883	-0.013
883	-0.013
884	-0.012
884	-0.011
884	-0.011
885	-0.01
885	-0.009
886	-0.009
886	-0.009
887	-0.008
887	-0.008
887	-0.008
888	-0.008
888	-0.007
889	-0.006
889	-0.006
890	-0.005
890	-0.004
890	-0.004
891	-0.004
891	-0.004
892	-0.003
892	-0.004
893	-0.004
893	-0.005
893	-0.006
894	-0.007
894	-0.008
895	-0.008
895	-0.009
895	-0.01
896	-0.01
896	-0.011
897	-0.011
897	-0.011
898	-0.011
898	-0.011
898	-0.011
899	-0.011
899	-0.011
900	-0.012
900	-0.012
901	-0.012
901	-0.012
901	-0.012
902	-0.012
902	-0.013
903	-0.013
903	-0.013
904	-0.013
904	-0.013
904	-0.013
905	-0.014
905	-0.014
906	-0.014
906	-0.015
907	-0.015
907	-0.016
907	-0.017
908	-0.017
908	-0.018
909	-0.018
909	-0.018
910	-0.018
910	-0.018
910	-0.018
911	-0.017
911	-0.017
912	-0.017
912	-0.016
913	-0.016
913	-0.017
913	-0.017
914	-0.017
914	-0.017
915	-0.018
915	-0.019
916	-0.019
916	-0.019
916	-0.019
917	-0.018
917	-0.018
918	-0.017
918	-0.016
918	-0.015
919	-0.013
919	-0.012
920	-0.01
920	-0.009
921	-0.008
921	-0.007
921	-0.005
922	-0.004
922	-0.003
923	-0.002
923	-0.002
924	-0.001
924	-0
924	0
925	0.001
925	0.001
926	0.002
926	0.002
927	0.002
927	0.002
927	0.002
928	0.002
928	0.003
929	0.003
929	0.003
930	0.003
930	0.002
930	0.002
931	0
931	-0
932	-0.001
932	-0.003
933	-0.004
933	-0.005
933	-0.007
934	-0.008
934	-0.01
935	-0.011
935	-0.012
935	-0.013
936	-0.013
936	-0.014
937	-0.014
937	-0.014
938	-0.014
938	-0.014
938	-0.013
939	-0.013
939	-0.012
940	-0.011
940	-0.01
941	-0.009
941	-0.008
941	-0.007
942	-0.006
942	-0.005
943	-0.004
943	-0.004
944	-0.004
944	-0.004
944	-0.003
945	-0.003
945	-0.003
946	-0.003
946	-0.003
946	-0.003
947	-0.004
947	-0.004
948	-0.004
948	-0.004
949	-0.004
949	-0.004
949	-0.004
950	-0.005
950	-0.005
951	-0.005
951	-0.005
952	-0.004
952	-0.004
952	-0.004
953	-0.003
953	-0.003
954	-0.003
954	-0.003
955	-0.003
955	-0.003
955	-0.002
956	-0.002
956	-0.002
957	-0.002
957	-0.003
957	-0.003
958	-0.004
958	-0.005
959	-0.005
959	-0.005
960	-0.006
960	-0.007
960	-0.008
961	-0.009
961	-0.009
962	-0.01
962	-0.01
963	-0.01
963	-0.009
963	-0.009
964	-0.008
964	-0.008
965	-0.007
965	-0.006
966	-0.005
966	-0.004
966	-0.002
967	-0.001
967	-0.001
968	-0.001
968	-0
968	-0
969	0
969	0
970	-0
970	-0
971	-0.001
971	-0.001
971	-0.002
972	-0.002
972	-0.003
973	-0.003
973	-0.004
974	-0.005
974	-0.006
974	-0.007
975	-0.008
975	-0.009
976	-0.01
976	-0.011
976	-0.012
977	-0.014
977	-0.015
978	-0.017
978	-0.018
979	-0.019
979	-0.019
979	-0.019
980	-0.02
980	-0.02
981	-0.019
981	-0.018
982	-0.017
982	-0.016
982	-0.014
983	-0.012
983	-0.011
984	-0.009
984	-0.008
984	-0.006
985	-0.005
985	-0.005
986	-0.005
986	-0.005
987	-0.005
987	-0.006
987	-0.006
988	-0.007
988	-0.008
989	-0.01
989	-0.011
990	-0.012
990	-0.013
990	-0.013
991	-0.014
991	-0.014
992	-0.014
992	-0.014
992	-0.015
993	-0.015
993	-0.016
994	-0.016
994	-0.017
995	-0.018
995	-0.018
995	-0.019
996	-0.02
996	-0.02
997	-0.021
997	-0.021
997	-0.021
998	-0.02
998	-0.02
999	-0.019
999	-0.018
1000	-0.017
1000	-0.016
1000	-0.015
1001	-0.014
1001	-0.013
1002	-0.013
1002	-0.012
1003	-0.012
1003	-0.012
1003	-0.011
1004	-0.011
1004	-0.011
1005	-0.012
1005	-0.012
1005	-0.011
1006	-0.011
1006	-0.011
1007	-0.011
1007	-0.011
1008	-0.01
1008	-0.01
1008	-0.009
1009	-0.009
1009	-0.008
1010	-0.007
1010	-0.007
1010	-0.007
1011	-0.006
1011	-0.006
1012	-0.006
1012	-0.006
1013	-0.006
1013	-0.006
1013	-0.007
1014	-0.007
1014	-0.008
1015	-0.008
1015	-0.009
1016	-0.01
1016	-0.011
1016	-0.011
1017	-0.012
1017	-0.012
1018	-0.012
1018	-0.012
1018	-0.012
1019	-0.012
1019	-0.012
1020	-0.012
1020	-0.011
1021	-0.011
1021	-0.011
1021	-0.011
1022	-0.011
1022	-0.012
1023	-0.012
1023	-0.012
1023	-0.013
1024	-0.014
1024	-0.015
1025	-0.016
1025	-0.017
1026	-0.017
1026	-0.018
1026	-0.018
1027	-0.018
1027	-0.018
1028	-0.018
1028	-0.017
1028	-0.017
1029	-0.016
1029	-0.015
1030	-0.015
1030	-0.014
1031	-0.013
1031	-0.013
1031	-0.012
1032	-0.012
1032	-0.011
1033	-0.011
1033	-0.011
1033	-0.011
1034	-0.011
1034	-0.012
1035	-0.012
1035	-0.013
1036	-0.013
1036	-0.013
1036	-0.014
1037	-0.014
1037	-0.015
1038	-0.015
1038	-0.015
1039	-0.015
1039	-0.014
1039	-0.014
1040	-0.014
1040	-0.014
1041	-0.014
1041	-0.015
1041	-0.015
1042	-0.016
1042	-0.016
1043	-0.017
1043	-0.018
1044	-0.019
1044	-0.02
1044	-0.02
1045	-0.021
1045	-0.022
1046	-0.022
1046	-0.022
1046	-0.022
1047	-0.021
1047	-0.021
1048	-0.02
1048	-0.02
1049	-0.02
1049	-0.02
1049	-0.02
1050	-0.02
1050	-0.021
1051	-0.021
1051	-0.02
1051	-0.019
1052	-0.019
1052	-0.018
1053	-0.017
1053	-0.015
1053	-0.014
1054	-0.013
1054	-0.011
1055	-0.009
1055	-0.008
1056	-0.007
1056	-0.007
1056	-0.007
1057	-0.006
1057	-0.006
1058	-0.005
1058	-0.005
1058	-0.005
1059	-0.005
1059	-0.005
1060	-0.004
1060	-0.004
1061	-0.003
1061	-0.002
1061	-0.002
1062	-0.001
1062	-0.001
1063	-0.001
1063	-0.001
1063	-0
1064	0
1064	0.001
1065	0.001
1065	0.002
1066	0.002
1066	0.003
1066	0.003
1067	0.004
1067	0.004
1068	0.005
1068	0.005
1068	0.005
1069	0.006
1069	0.006
1070	0.007
1070	0.007
1071	0.008
1071	0.009
1071	0.01
1072	0.011
1072	0.013
1073	0.014
1073	0.016
1073	0.017
1074	0.018
1074	0.019
1075	0.02
1075	0.021
1076	0.022
1076	0.023
1076	0.024
1077	0.025
1077	0.026
1078	0.027
1078	0.029
1078	0.031
1079	0.033
1079	0.035
1080	0.037
1080	0.039
1080	0.041
1081	0.043
1081	0.046
1082	0.048
1082	0.049
1083	0.051
1083	0.053
1083	0.056
1084	0.057
1084	0.06
1085	0.062
1085	0.064
1085	0.066
1086	0.068
1086	0.069
1087	0.072
1087	0.075
1088	0.077
1088	0.079
1088	0.082
1089	0.084
1089	0.087
1090	0.091
1090	0.096
1090	0.1
1091	0.105
1091	0.112
1092	0.118
1092	0.125
1092	0.132
1093	0.139
1093	0.149
1094	0.157
1094	0.166
1095	0.175
1095	0.186
1095	0.198
1096	0.21
1096	0.222
1097	0.238
1097	0.252
1097	0.271
1098	0.289
1098	0.31
1099	0.333
1099	0.359
1100	0.387
1100	0.42
1100	0.455
1101	0.498
1101	0.547
1102	0.61
1102	0.684
1102	0.786
1103	0.914
1103	1.135
1104	1.63
1104	-0
1104	-0
1105	-0
1105	-0
1106	-0
1106	-0
1107	-0
1107	-0
1107	-0
1108	-0
1108	-0
1109	-0
1109	-0
1109	-0
1110	-0
1110	-0
1111	-0
1111	-0
