Data from 15c-100ul-ns-20ul-nr-full-exp-7ul-bp_Absorbance__551__04889.txt Node

Date: Mon Jan 15 15:31:11 CET 2024
User: Marek
Spectrometer: MAYP115816
Trigger mode: 0
Integration Time (sec): 2.000000E-1
Scans to average: 10
Electric dark correction enabled: true
Nonlinearity correction enabled: true
Boxcar width: 5
XAxis mode: Wavelengths
Number of Pixels in Spectrum: 2068
>>>>>Begin Spectral Data<<<<<
199	-1.942
199	-1.812
200	-1.669
200	-1.558
201	-1.485
201	-1.435
202	-1.364
202	-1.309
203	-1.259
203	-1.219
204	-1.191
204	-1.168
205	-1.147
205	-1.138
205	-1.135
206	-1.134
206	-1.132
207	-1.128
207	-1.124
208	-1.123
208	-1.118
209	-1.116
209	-1.115
210	-1.115
210	-1.113
211	-1.112
211	-1.109
212	-1.107
212	-1.107
213	-1.106
213	-1.105
213	-1.105
214	-1.104
214	-1.105
215	-1.104
215	-1.104
216	-1.103
216	-1.103
217	-1.102
217	-1.101
218	-1.1
218	-1.096
219	-1.094
219	-1.093
220	-1.088
220	-1.084
221	-1.08
221	-1.075
221	-1.069
222	-1.065
222	-1.059
223	-1.052
223	-1.048
224	-1.042
224	-1.034
225	-1.025
225	-1.014
226	-1.005
226	-0.993
227	-0.979
227	-0.962
228	-0.943
228	-0.923
229	-0.898
229	-0.869
229	-0.841
230	-0.808
230	-0.773
231	-0.734
231	-0.694
232	-0.653
232	-0.609
233	-0.563
233	-0.517
234	-0.471
234	-0.425
235	-0.378
235	-0.333
236	-0.29
236	-0.247
236	-0.205
237	-0.167
237	-0.13
238	-0.094
238	-0.061
239	-0.03
239	-0.002
240	0.024
240	0.049
241	0.071
241	0.091
242	0.11
242	0.127
243	0.143
243	0.157
243	0.17
244	0.182
244	0.193
245	0.202
245	0.211
246	0.22
246	0.227
247	0.234
247	0.24
248	0.246
248	0.252
249	0.257
249	0.261
250	0.266
250	0.27
250	0.275
251	0.278
251	0.282
252	0.285
252	0.288
253	0.291
253	0.294
254	0.296
254	0.298
255	0.3
255	0.302
256	0.304
256	0.305
257	0.306
257	0.307
258	0.309
258	0.309
258	0.31
259	0.311
259	0.311
260	0.311
260	0.312
261	0.312
261	0.312
262	0.312
262	0.312
263	0.311
263	0.311
264	0.311
264	0.31
265	0.31
265	0.309
265	0.308
266	0.308
266	0.307
267	0.306
267	0.305
268	0.304
268	0.303
269	0.302
269	0.3
270	0.299
270	0.297
271	0.296
271	0.294
272	0.293
272	0.292
272	0.29
273	0.289
273	0.287
274	0.286
274	0.284
275	0.283
275	0.281
276	0.279
276	0.277
277	0.276
277	0.274
278	0.272
278	0.27
278	0.268
279	0.266
279	0.264
280	0.262
280	0.26
281	0.258
281	0.257
282	0.255
282	0.253
283	0.252
283	0.25
284	0.249
284	0.248
285	0.247
285	0.245
285	0.244
286	0.243
286	0.242
287	0.24
287	0.239
288	0.238
288	0.236
289	0.235
289	0.234
290	0.233
290	0.232
291	0.23
291	0.229
292	0.228
292	0.227
292	0.226
293	0.225
293	0.224
294	0.223
294	0.222
295	0.221
295	0.22
296	0.219
296	0.218
297	0.217
297	0.217
298	0.216
298	0.215
298	0.214
299	0.214
299	0.213
300	0.212
300	0.211
301	0.21
301	0.21
302	0.209
302	0.208
303	0.208
303	0.207
304	0.206
304	0.205
305	0.205
305	0.204
305	0.203
306	0.202
306	0.202
307	0.201
307	0.2
308	0.199
308	0.199
309	0.198
309	0.197
310	0.196
310	0.196
311	0.195
311	0.194
311	0.194
312	0.193
312	0.192
313	0.192
313	0.191
314	0.19
314	0.189
315	0.188
315	0.188
316	0.187
316	0.186
317	0.186
317	0.185
318	0.184
318	0.183
318	0.182
319	0.182
319	0.181
320	0.18
320	0.179
321	0.178
321	0.178
322	0.177
322	0.176
323	0.176
323	0.175
324	0.174
324	0.173
324	0.173
325	0.172
325	0.171
326	0.171
326	0.17
327	0.169
327	0.168
328	0.168
328	0.167
329	0.166
329	0.166
330	0.165
330	0.164
330	0.164
331	0.163
331	0.162
332	0.162
332	0.161
333	0.16
333	0.16
334	0.159
334	0.158
335	0.158
335	0.157
336	0.156
336	0.156
336	0.155
337	0.154
337	0.154
338	0.153
338	0.152
339	0.152
339	0.151
340	0.151
340	0.15
341	0.15
341	0.149
342	0.148
342	0.148
342	0.148
343	0.147
343	0.147
344	0.146
344	0.145
345	0.145
345	0.144
346	0.144
346	0.143
347	0.143
347	0.142
348	0.141
348	0.141
348	0.141
349	0.14
349	0.139
350	0.139
350	0.139
351	0.138
351	0.138
352	0.137
352	0.136
353	0.136
353	0.135
354	0.134
354	0.134
354	0.133
355	0.132
355	0.131
356	0.131
356	0.131
357	0.131
357	0.131
358	0.131
358	0.131
359	0.131
359	0.131
360	0.132
360	0.132
360	0.132
361	0.132
361	0.132
362	0.132
362	0.132
363	0.132
363	0.131
364	0.131
364	0.131
365	0.131
365	0.13
366	0.13
366	0.13
366	0.13
367	0.13
367	0.13
368	0.129
368	0.129
369	0.128
369	0.128
370	0.127
370	0.127
371	0.127
371	0.127
372	0.126
372	0.126
372	0.126
373	0.126
373	0.126
374	0.126
374	0.125
375	0.125
375	0.125
376	0.125
376	0.125
377	0.125
377	0.126
378	0.126
378	0.125
378	0.126
379	0.126
379	0.126
380	0.126
380	0.126
381	0.125
381	0.125
382	0.125
382	0.125
383	0.124
383	0.124
383	0.124
384	0.123
384	0.123
385	0.122
385	0.122
386	0.122
386	0.122
387	0.122
387	0.122
388	0.121
388	0.121
389	0.121
389	0.121
389	0.121
390	0.121
390	0.121
391	0.121
391	0.121
392	0.121
392	0.121
393	0.121
393	0.121
394	0.121
394	0.121
394	0.121
395	0.12
395	0.12
396	0.119
396	0.119
397	0.119
397	0.119
398	0.119
398	0.119
399	0.119
399	0.119
400	0.119
400	0.118
400	0.118
401	0.118
401	0.117
402	0.116
402	0.116
403	0.115
403	0.115
404	0.115
404	0.115
405	0.114
405	0.114
405	0.114
406	0.114
406	0.114
407	0.114
407	0.114
408	0.113
408	0.113
409	0.113
409	0.113
410	0.113
410	0.112
411	0.112
411	0.112
411	0.112
412	0.111
412	0.11
413	0.11
413	0.11
414	0.109
414	0.109
415	0.109
415	0.108
416	0.108
416	0.107
416	0.107
417	0.107
417	0.107
418	0.107
418	0.107
419	0.108
419	0.108
420	0.109
420	0.109
421	0.11
421	0.11
421	0.11
422	0.11
422	0.11
423	0.11
423	0.109
424	0.109
424	0.108
425	0.107
425	0.107
426	0.106
426	0.106
427	0.106
427	0.106
427	0.106
428	0.107
428	0.107
429	0.108
429	0.108
430	0.108
430	0.108
431	0.108
431	0.107
432	0.107
432	0.106
432	0.105
433	0.104
433	0.104
434	0.103
434	0.103
435	0.103
435	0.103
436	0.103
436	0.103
437	0.103
437	0.103
437	0.103
438	0.103
438	0.103
439	0.102
439	0.102
440	0.102
440	0.102
441	0.102
441	0.102
442	0.102
442	0.102
442	0.103
443	0.103
443	0.103
444	0.103
444	0.103
445	0.103
445	0.103
446	0.103
446	0.103
447	0.103
447	0.103
447	0.102
448	0.102
448	0.102
449	0.102
449	0.101
450	0.101
450	0.101
451	0.1
451	0.1
452	0.099
452	0.099
452	0.099
453	0.098
453	0.098
454	0.098
454	0.097
455	0.097
455	0.097
456	0.097
456	0.097
457	0.097
457	0.097
458	0.097
458	0.097
458	0.098
459	0.098
459	0.098
460	0.097
460	0.097
461	0.097
461	0.096
462	0.096
462	0.097
463	0.097
463	0.097
463	0.098
464	0.098
464	0.098
465	0.098
465	0.098
466	0.098
466	0.098
467	0.098
467	0.098
467	0.097
468	0.095
468	0.094
469	0.093
469	0.092
470	0.092
470	0.091
471	0.092
471	0.092
472	0.092
472	0.092
472	0.093
473	0.093
473	0.094
474	0.095
474	0.096
475	0.096
475	0.097
476	0.097
476	0.097
477	0.097
477	0.097
477	0.098
478	0.098
478	0.098
479	0.098
479	0.099
480	0.1
480	0.1
481	0.101
481	0.102
482	0.103
482	0.104
482	0.106
483	0.107
483	0.11
484	0.112
484	0.113
485	0.114
485	0.115
486	0.116
486	0.116
487	0.117
487	0.117
487	0.118
488	0.117
488	0.116
489	0.115
489	0.114
490	0.114
490	0.114
491	0.114
491	0.115
492	0.115
492	0.116
492	0.116
493	0.117
493	0.119
494	0.121
494	0.123
495	0.125
495	0.126
496	0.128
496	0.129
496	0.13
497	0.131
497	0.133
498	0.133
498	0.134
499	0.134
499	0.134
500	0.135
500	0.136
501	0.137
501	0.138
501	0.139
502	0.14
502	0.141
503	0.143
503	0.144
504	0.145
504	0.146
505	0.147
505	0.147
506	0.148
506	0.149
506	0.149
507	0.15
507	0.151
508	0.151
508	0.152
509	0.153
509	0.154
510	0.155
510	0.156
511	0.156
511	0.156
511	0.157
512	0.158
512	0.158
513	0.158
513	0.158
514	0.158
514	0.157
515	0.157
515	0.157
515	0.156
516	0.156
516	0.156
517	0.157
517	0.157
518	0.157
518	0.157
519	0.157
519	0.156
520	0.155
520	0.153
520	0.152
521	0.149
521	0.147
522	0.145
522	0.143
523	0.142
523	0.141
524	0.142
524	0.143
524	0.144
525	0.146
525	0.149
526	0.151
526	0.153
527	0.156
527	0.158
528	0.159
528	0.161
529	0.162
529	0.162
529	0.163
530	0.163
530	0.163
531	0.164
531	0.164
532	0.163
532	0.163
533	0.163
533	0.162
533	0.162
534	0.161
534	0.16
535	0.159
535	0.158
536	0.158
536	0.157
537	0.156
537	0.155
538	0.154
538	0.153
538	0.151
539	0.151
539	0.15
540	0.149
540	0.147
541	0.145
541	0.144
542	0.142
542	0.141
542	0.139
543	0.138
543	0.137
544	0.136
544	0.135
545	0.134
545	0.134
546	0.133
546	0.132
547	0.13
547	0.128
547	0.126
548	0.125
548	0.122
549	0.121
549	0.119
550	0.117
550	0.114
551	0.112
551	0.11
551	0.108
552	0.107
552	0.106
553	0.105
553	0.104
554	0.103
554	0.102
555	0.1
555	0.098
556	0.096
556	0.093
556	0.091
557	0.089
557	0.087
558	0.085
558	0.083
559	0.081
559	0.08
560	0.079
560	0.078
560	0.077
561	0.077
561	0.077
562	0.076
562	0.075
563	0.073
563	0.072
564	0.07
564	0.068
564	0.066
565	0.065
565	0.064
566	0.062
566	0.061
567	0.061
567	0.06
568	0.061
568	0.061
568	0.062
569	0.063
569	0.063
570	0.063
570	0.062
571	0.062
571	0.062
572	0.062
572	0.061
573	0.06
573	0.06
573	0.058
574	0.057
574	0.057
575	0.056
575	0.058
576	0.058
576	0.056
577	0.055
577	0.054
577	0.053
578	0.053
578	0.053
579	0.055
579	0.056
580	0.054
580	0.051
581	0.048
581	0.047
581	0.047
582	0.047
582	0.047
583	0.048
583	0.046
584	0.043
584	0.039
585	0.038
585	0.039
585	0.039
586	0.039
586	0.038
587	0.036
587	0.034
588	0.032
588	0.03
589	0.03
589	0.03
590	0.029
590	0.029
590	0.03
591	0.031
591	0.031
592	0.03
592	0.029
593	0.029
593	0.029
594	0.028
594	0.027
594	0.026
595	0.026
595	0.025
596	0.024
596	0.025
597	0.028
597	0.029
598	0.029
598	0.03
598	0.031
599	0.031
599	0.03
600	0.029
600	0.028
601	0.027
601	0.026
602	0.024
602	0.023
602	0.022
603	0.021
603	0.022
604	0.022
604	0.023
605	0.024
605	0.026
606	0.026
606	0.025
606	0.024
607	0.024
607	0.024
608	0.024
608	0.022
609	0.022
609	0.022
610	0.021
610	0.02
610	0.021
611	0.022
611	0.023
612	0.024
612	0.026
613	0.028
613	0.029
614	0.028
614	0.027
614	0.027
615	0.027
615	0.026
616	0.026
616	0.025
617	0.025
617	0.024
618	0.023
618	0.022
618	0.022
619	0.023
619	0.024
620	0.026
620	0.027
621	0.027
621	0.028
622	0.029
622	0.03
622	0.029
623	0.029
623	0.031
624	0.031
624	0.03
625	0.03
625	0.03
626	0.03
626	0.03
626	0.031
627	0.032
627	0.033
628	0.034
628	0.034
629	0.035
629	0.035
630	0.035
630	0.034
630	0.035
631	0.036
631	0.036
632	0.036
632	0.036
633	0.037
633	0.038
634	0.04
634	0.042
634	0.044
635	0.046
635	0.047
636	0.048
636	0.05
637	0.051
637	0.052
638	0.053
638	0.054
638	0.055
639	0.055
639	0.056
640	0.056
640	0.057
641	0.058
641	0.059
642	0.06
642	0.062
642	0.063
643	0.064
643	0.065
644	0.067
644	0.069
645	0.071
645	0.073
646	0.076
646	0.079
646	0.082
647	0.084
647	0.087
648	0.089
648	0.091
649	0.093
649	0.096
650	0.098
650	0.1
650	0.102
651	0.104
651	0.106
652	0.108
652	0.11
653	0.114
653	0.122
653	0.137
654	0.113
654	0.095
655	0.096
655	0.098
656	0.1
656	0.102
657	0.104
657	0.106
657	0.107
658	0.104
658	0.094
659	0.117
659	0.148
660	0.154
660	0.156
661	0.157
661	0.16
661	0.162
662	0.165
662	0.168
663	0.171
663	0.174
664	0.177
664	0.18
665	0.182
665	0.185
665	0.188
666	0.19
666	0.193
667	0.195
667	0.198
668	0.2
668	0.202
669	0.205
669	0.208
669	0.212
670	0.215
670	0.217
671	0.219
671	0.221
672	0.223
672	0.224
672	0.226
673	0.227
673	0.229
674	0.23
674	0.231
675	0.232
675	0.234
676	0.236
676	0.238
676	0.24
677	0.242
677	0.244
678	0.245
678	0.246
679	0.246
679	0.247
680	0.248
680	0.248
680	0.248
681	0.248
681	0.249
682	0.25
682	0.251
683	0.253
683	0.255
684	0.257
684	0.257
684	0.257
685	0.258
685	0.259
686	0.26
686	0.261
687	0.261
687	0.261
687	0.26
688	0.26
688	0.259
689	0.26
689	0.261
690	0.261
690	0.26
691	0.26
691	0.26
691	0.259
692	0.259
692	0.258
693	0.257
693	0.257
694	0.256
694	0.254
695	0.255
695	0.257
695	0.257
696	0.256
696	0.256
697	0.256
697	0.255
698	0.254
698	0.253
698	0.252
699	0.251
699	0.249
700	0.246
700	0.244
701	0.243
701	0.241
702	0.24
702	0.238
702	0.237
703	0.235
703	0.234
704	0.232
704	0.231
705	0.23
705	0.229
705	0.227
706	0.225
706	0.224
707	0.222
707	0.219
708	0.217
708	0.215
709	0.213
709	0.21
709	0.207
710	0.204
710	0.201
711	0.199
711	0.197
712	0.196
712	0.194
713	0.192
713	0.191
713	0.19
714	0.188
714	0.186
715	0.184
715	0.182
716	0.18
716	0.179
716	0.176
717	0.174
717	0.172
718	0.169
718	0.166
719	0.164
719	0.162
720	0.16
720	0.157
720	0.153
721	0.15
721	0.147
722	0.144
722	0.141
723	0.139
723	0.137
723	0.134
724	0.132
724	0.13
725	0.129
725	0.127
726	0.126
726	0.125
727	0.124
727	0.123
727	0.121
728	0.12
728	0.118
729	0.118
729	0.117
730	0.115
730	0.113
730	0.112
731	0.11
731	0.109
732	0.107
732	0.105
733	0.103
733	0.101
734	0.098
734	0.096
734	0.094
735	0.092
735	0.09
736	0.087
736	0.085
737	0.083
737	0.082
737	0.08
738	0.077
738	0.075
739	0.073
739	0.07
740	0.068
740	0.066
741	0.065
741	0.062
741	0.059
742	0.055
742	0.053
743	0.051
743	0.049
744	0.047
744	0.045
744	0.043
745	0.04
745	0.038
746	0.036
746	0.035
747	0.034
747	0.033
748	0.033
748	0.032
748	0.03
749	0.029
749	0.029
750	0.028
750	0.028
751	0.027
751	0.027
751	0.027
752	0.026
752	0.025
753	0.025
753	0.024
754	0.024
754	0.023
754	0.023
755	0.023
755	0.022
756	0.021
756	0.019
757	0.018
757	0.018
758	0.017
758	0.016
758	0.015
759	0.014
759	0.012
760	0.01
760	0.008
761	0.006
761	0.006
761	0.005
762	0.003
762	0.002
763	0.001
763	-0.001
764	-0.004
764	-0.006
764	-0.009
765	-0.011
765	-0.014
766	-0.015
766	-0.016
767	-0.018
767	-0.021
768	-0.024
768	-0.025
768	-0.026
769	-0.027
769	-0.027
770	-0.029
770	-0.03
771	-0.032
771	-0.034
771	-0.037
772	-0.038
772	-0.04
773	-0.041
773	-0.043
774	-0.046
774	-0.048
775	-0.051
775	-0.053
775	-0.056
776	-0.059
776	-0.062
777	-0.065
777	-0.068
778	-0.071
778	-0.074
778	-0.077
779	-0.079
779	-0.08
780	-0.083
780	-0.087
781	-0.09
781	-0.094
781	-0.097
782	-0.101
782	-0.105
783	-0.11
783	-0.112
784	-0.116
784	-0.119
784	-0.121
785	-0.123
785	-0.125
786	-0.125
786	-0.123
787	-0.119
787	-0.115
788	-0.113
788	-0.114
788	-0.114
789	-0.116
789	-0.115
790	-0.111
790	-0.11
791	-0.11
791	-0.111
791	-0.113
792	-0.108
792	-0.099
793	-0.093
793	-0.09
794	-0.089
794	-0.091
794	-0.095
795	-0.098
795	-0.098
796	-0.098
796	-0.101
797	-0.109
797	-0.119
797	-0.125
798	-0.13
798	-0.132
799	-0.133
799	-0.133
800	-0.133
800	-0.135
801	-0.138
801	-0.139
801	-0.14
802	-0.142
802	-0.143
803	-0.144
803	-0.144
804	-0.143
804	-0.138
804	-0.131
805	-0.127
805	-0.125
806	-0.123
806	-0.121
807	-0.12
807	-0.119
807	-0.119
808	-0.119
808	-0.12
809	-0.125
809	-0.13
810	-0.134
810	-0.136
810	-0.139
811	-0.142
811	-0.142
812	-0.137
812	-0.134
813	-0.133
813	-0.133
813	-0.133
814	-0.134
814	-0.133
815	-0.131
815	-0.128
816	-0.126
816	-0.127
817	-0.131
817	-0.135
817	-0.135
818	-0.135
818	-0.132
819	-0.127
819	-0.125
820	-0.126
820	-0.128
820	-0.13
821	-0.129
821	-0.127
822	-0.124
822	-0.121
823	-0.117
823	-0.116
823	-0.116
824	-0.114
824	-0.109
825	-0.102
825	-0.094
826	-0.087
826	-0.082
826	-0.078
827	-0.073
827	-0.069
828	-0.065
828	-0.062
829	-0.058
829	-0.055
829	-0.053
830	-0.052
830	-0.051
831	-0.048
831	-0.047
832	-0.045
832	-0.044
832	-0.043
833	-0.042
833	-0.041
834	-0.04
834	-0.039
835	-0.039
835	-0.038
835	-0.038
836	-0.038
836	-0.037
837	-0.037
837	-0.037
838	-0.036
838	-0.037
839	-0.037
839	-0.037
839	-0.037
840	-0.037
840	-0.037
841	-0.036
841	-0.035
842	-0.035
842	-0.034
842	-0.034
843	-0.033
843	-0.032
844	-0.031
844	-0.03
845	-0.029
845	-0.029
845	-0.028
846	-0.028
846	-0.028
847	-0.028
847	-0.027
848	-0.027
848	-0.028
848	-0.028
849	-0.028
849	-0.028
850	-0.028
850	-0.029
851	-0.029
851	-0.029
851	-0.029
852	-0.029
852	-0.029
853	-0.029
853	-0.029
854	-0.028
854	-0.027
854	-0.027
855	-0.026
855	-0.026
856	-0.025
856	-0.024
857	-0.023
857	-0.022
857	-0.022
858	-0.021
858	-0.021
859	-0.021
859	-0.021
860	-0.02
860	-0.02
860	-0.019
861	-0.019
861	-0.019
862	-0.019
862	-0.019
863	-0.019
863	-0.019
863	-0.019
864	-0.019
864	-0.019
865	-0.019
865	-0.019
866	-0.02
866	-0.02
866	-0.02
867	-0.02
867	-0.019
868	-0.019
868	-0.018
869	-0.017
869	-0.016
869	-0.015
870	-0.014
870	-0.013
871	-0.012
871	-0.011
872	-0.011
872	-0.011
872	-0.01
873	-0.01
873	-0.01
874	-0.01
874	-0.01
875	-0.01
875	-0.01
875	-0.01
876	-0.011
876	-0.011
877	-0.011
877	-0.012
878	-0.013
878	-0.013
878	-0.014
879	-0.014
879	-0.015
880	-0.016
880	-0.016
881	-0.016
881	-0.016
881	-0.016
882	-0.015
882	-0.015
883	-0.014
883	-0.013
884	-0.013
884	-0.012
884	-0.012
885	-0.011
885	-0.011
886	-0.011
886	-0.011
887	-0.011
887	-0.011
887	-0.011
888	-0.01
888	-0.01
889	-0.009
889	-0.008
890	-0.007
890	-0.006
890	-0.005
891	-0.005
891	-0.005
892	-0.005
892	-0.005
893	-0.005
893	-0.006
893	-0.006
894	-0.007
894	-0.009
895	-0.01
895	-0.011
895	-0.012
896	-0.013
896	-0.013
897	-0.014
897	-0.014
898	-0.014
898	-0.014
898	-0.014
899	-0.014
899	-0.014
900	-0.014
900	-0.013
901	-0.013
901	-0.013
901	-0.012
902	-0.012
902	-0.012
903	-0.013
903	-0.013
904	-0.013
904	-0.013
904	-0.014
905	-0.014
905	-0.015
906	-0.015
906	-0.016
907	-0.016
907	-0.017
907	-0.018
908	-0.018
908	-0.018
909	-0.018
909	-0.018
910	-0.018
910	-0.018
910	-0.017
911	-0.017
911	-0.017
912	-0.016
912	-0.016
913	-0.016
913	-0.017
913	-0.017
914	-0.018
914	-0.018
915	-0.019
915	-0.02
916	-0.02
916	-0.02
916	-0.02
917	-0.02
917	-0.019
918	-0.019
918	-0.018
918	-0.016
919	-0.015
919	-0.013
920	-0.012
920	-0.011
921	-0.009
921	-0.008
921	-0.007
922	-0.006
922	-0.005
923	-0.004
923	-0.004
924	-0.003
924	-0.002
924	-0.002
925	-0.001
925	-0.001
926	-0
926	-0
927	-0
927	-0
927	-0
928	0
928	0
929	0
929	0
930	0
930	-0
930	-0.001
931	-0.002
931	-0.003
932	-0.004
932	-0.006
933	-0.007
933	-0.009
933	-0.01
934	-0.012
934	-0.013
935	-0.014
935	-0.015
935	-0.016
936	-0.017
936	-0.017
937	-0.017
937	-0.017
938	-0.017
938	-0.017
938	-0.017
939	-0.016
939	-0.015
940	-0.015
940	-0.014
941	-0.013
941	-0.012
941	-0.011
942	-0.011
942	-0.01
943	-0.009
943	-0.009
944	-0.009
944	-0.008
944	-0.008
945	-0.008
945	-0.007
946	-0.007
946	-0.007
946	-0.007
947	-0.007
947	-0.007
948	-0.007
948	-0.007
949	-0.008
949	-0.007
949	-0.007
950	-0.007
950	-0.007
951	-0.007
951	-0.007
952	-0.007
952	-0.007
952	-0.006
953	-0.006
953	-0.006
954	-0.006
954	-0.006
955	-0.006
955	-0.006
955	-0.005
956	-0.005
956	-0.005
957	-0.005
957	-0.005
957	-0.005
958	-0.006
958	-0.006
959	-0.007
959	-0.007
960	-0.008
960	-0.009
960	-0.01
961	-0.011
961	-0.011
962	-0.012
962	-0.012
963	-0.012
963	-0.012
963	-0.011
964	-0.011
964	-0.01
965	-0.009
965	-0.008
966	-0.007
966	-0.006
966	-0.005
967	-0.004
967	-0.003
968	-0.003
968	-0.003
968	-0.003
969	-0.003
969	-0.004
970	-0.004
970	-0.005
971	-0.005
971	-0.006
971	-0.006
972	-0.007
972	-0.007
973	-0.008
973	-0.008
974	-0.009
974	-0.009
974	-0.01
975	-0.011
975	-0.011
976	-0.012
976	-0.013
976	-0.015
977	-0.016
977	-0.017
978	-0.019
978	-0.02
979	-0.02
979	-0.021
979	-0.021
980	-0.021
980	-0.021
981	-0.021
981	-0.02
982	-0.019
982	-0.017
982	-0.016
983	-0.015
983	-0.013
984	-0.012
984	-0.011
984	-0.009
985	-0.009
985	-0.008
986	-0.008
986	-0.009
987	-0.009
987	-0.01
987	-0.01
988	-0.011
988	-0.012
989	-0.013
989	-0.015
990	-0.016
990	-0.017
990	-0.017
991	-0.017
991	-0.018
992	-0.018
992	-0.019
992	-0.019
993	-0.02
993	-0.02
994	-0.021
994	-0.022
995	-0.022
995	-0.023
995	-0.024
996	-0.025
996	-0.026
997	-0.026
997	-0.027
997	-0.027
998	-0.027
998	-0.026
999	-0.026
999	-0.025
1000	-0.025
1000	-0.024
1000	-0.023
1001	-0.023
1001	-0.022
1002	-0.022
1002	-0.021
1003	-0.021
1003	-0.02
1003	-0.02
1004	-0.02
1004	-0.019
1005	-0.019
1005	-0.018
1005	-0.018
1006	-0.017
1006	-0.017
1007	-0.016
1007	-0.016
1008	-0.015
1008	-0.015
1008	-0.014
1009	-0.014
1009	-0.013
1010	-0.013
1010	-0.012
1010	-0.012
1011	-0.011
1011	-0.011
1012	-0.011
1012	-0.011
1013	-0.011
1013	-0.012
1013	-0.012
1014	-0.013
1014	-0.014
1015	-0.014
1015	-0.015
1016	-0.016
1016	-0.017
1016	-0.018
1017	-0.018
1017	-0.019
1018	-0.019
1018	-0.019
1018	-0.019
1019	-0.019
1019	-0.019
1020	-0.019
1020	-0.019
1021	-0.019
1021	-0.019
1021	-0.019
1022	-0.019
1022	-0.019
1023	-0.019
1023	-0.02
1023	-0.02
1024	-0.021
1024	-0.022
1025	-0.023
1025	-0.023
1026	-0.024
1026	-0.024
1026	-0.024
1027	-0.024
1027	-0.024
1028	-0.024
1028	-0.023
1028	-0.023
1029	-0.022
1029	-0.021
1030	-0.021
1030	-0.02
1031	-0.02
1031	-0.02
1031	-0.019
1032	-0.019
1032	-0.019
1033	-0.018
1033	-0.019
1033	-0.019
1034	-0.02
1034	-0.021
1035	-0.021
1035	-0.022
1036	-0.022
1036	-0.023
1036	-0.024
1037	-0.024
1037	-0.025
1038	-0.025
1038	-0.025
1039	-0.025
1039	-0.024
1039	-0.024
1040	-0.024
1040	-0.024
1041	-0.024
1041	-0.025
1041	-0.025
1042	-0.026
1042	-0.027
1043	-0.027
1043	-0.028
1044	-0.029
1044	-0.03
1044	-0.031
1045	-0.031
1045	-0.032
1046	-0.032
1046	-0.033
1046	-0.033
1047	-0.032
1047	-0.032
1048	-0.031
1048	-0.031
1049	-0.031
1049	-0.031
1049	-0.031
1050	-0.032
1050	-0.032
1051	-0.031
1051	-0.031
1051	-0.03
1052	-0.029
1052	-0.029
1053	-0.028
1053	-0.027
1053	-0.025
1054	-0.024
1054	-0.022
1055	-0.02
1055	-0.019
1056	-0.019
1056	-0.019
1056	-0.019
1057	-0.019
1057	-0.018
1058	-0.018
1058	-0.018
1058	-0.018
1059	-0.018
1059	-0.018
1060	-0.018
1060	-0.017
1061	-0.017
1061	-0.016
1061	-0.016
1062	-0.015
1062	-0.015
1063	-0.015
1063	-0.015
1063	-0.015
1064	-0.015
1064	-0.014
1065	-0.014
1065	-0.015
1066	-0.014
1066	-0.014
1066	-0.015
1067	-0.014
1067	-0.014
1068	-0.014
1068	-0.013
1068	-0.014
1069	-0.014
1069	-0.014
1070	-0.013
1070	-0.013
1071	-0.013
1071	-0.012
1071	-0.012
1072	-0.011
1072	-0.009
1073	-0.008
1073	-0.007
1073	-0.006
1074	-0.004
1074	-0.004
1075	-0.003
1075	-0.003
1076	-0.002
1076	-0.001
1076	-0.001
1077	-0
1077	0.001
1078	0.001
1078	0.002
1078	0.003
1079	0.005
1079	0.006
1080	0.008
1080	0.009
1080	0.01
1081	0.012
1081	0.013
1082	0.015
1082	0.016
1083	0.017
1083	0.018
1083	0.02
1084	0.021
1084	0.023
1085	0.024
1085	0.026
1085	0.027
1086	0.029
1086	0.029
1087	0.032
1087	0.033
1088	0.034
1088	0.035
1088	0.037
1089	0.039
1089	0.041
1090	0.043
1090	0.046
1090	0.048
1091	0.051
1091	0.056
1092	0.059
1092	0.064
1092	0.068
1093	0.072
1093	0.078
1094	0.083
1094	0.089
1095	0.094
1095	0.101
1095	0.109
1096	0.116
1096	0.124
1097	0.134
1097	0.142
1097	0.153
1098	0.163
1098	0.175
1099	0.188
1099	0.201
1100	0.216
1100	0.231
1100	0.248
1101	0.267
1101	0.288
1102	0.313
1102	0.342
1102	0.376
1103	0.413
1103	0.454
1104	0.506
1104	0.565
1104	0.644
1105	0.738
1105	0.857
1106	1.012
1106	1.342
1107	-0
1107	-0
1107	-0
1108	-0
1108	-0
1109	-0
1109	-0
1109	-0
1110	-0
1110	-0
1111	-0
1111	-0
