Data from 15c-2-3a_Absorbance__631__02439.txt Node

Date: Tue Jan 16 13:08:10 CET 2024
User: Marek
Spectrometer: MAYP115816
Trigger mode: 0
Integration Time (sec): 2.000000E-1
Scans to average: 10
Electric dark correction enabled: true
Nonlinearity correction enabled: true
Boxcar width: 5
XAxis mode: Wavelengths
Number of Pixels in Spectrum: 2068
>>>>>Begin Spectral Data<<<<<
199	-2.06
199	-1.872
200	-1.738
200	-1.619
201	-1.546
201	-1.495
202	-1.419
202	-1.358
203	-1.311
203	-1.263
204	-1.236
204	-1.211
205	-1.191
205	-1.179
205	-1.176
206	-1.172
206	-1.169
207	-1.166
207	-1.165
208	-1.161
208	-1.161
209	-1.156
209	-1.154
210	-1.153
210	-1.151
211	-1.149
211	-1.149
212	-1.148
212	-1.147
213	-1.145
213	-1.144
213	-1.144
214	-1.143
214	-1.142
215	-1.14
215	-1.14
216	-1.137
216	-1.136
217	-1.133
217	-1.131
218	-1.127
218	-1.123
219	-1.118
219	-1.117
220	-1.115
220	-1.114
221	-1.11
221	-1.109
221	-1.104
222	-1.099
222	-1.095
223	-1.089
223	-1.084
224	-1.079
224	-1.07
225	-1.061
225	-1.051
226	-1.043
226	-1.033
227	-1.019
227	-1.007
228	-0.991
228	-0.975
229	-0.954
229	-0.93
229	-0.905
230	-0.876
230	-0.844
231	-0.809
231	-0.77
232	-0.731
232	-0.688
233	-0.642
233	-0.595
234	-0.547
234	-0.498
235	-0.45
235	-0.403
236	-0.355
236	-0.308
236	-0.263
237	-0.218
237	-0.176
238	-0.136
238	-0.098
239	-0.061
239	-0.027
240	0.005
240	0.035
241	0.063
241	0.088
242	0.112
242	0.135
243	0.155
243	0.174
243	0.191
244	0.207
244	0.223
245	0.236
245	0.249
246	0.261
246	0.272
247	0.282
247	0.291
248	0.3
248	0.309
249	0.317
249	0.324
250	0.33
250	0.337
250	0.343
251	0.349
251	0.354
252	0.359
252	0.364
253	0.368
253	0.372
254	0.376
254	0.379
255	0.382
255	0.386
256	0.389
256	0.391
257	0.393
257	0.395
258	0.397
258	0.399
258	0.4
259	0.402
259	0.403
260	0.404
260	0.405
261	0.405
261	0.406
262	0.406
262	0.406
263	0.407
263	0.407
264	0.407
264	0.407
265	0.407
265	0.407
265	0.407
266	0.407
266	0.406
267	0.406
267	0.406
268	0.405
268	0.404
269	0.403
269	0.402
270	0.401
270	0.399
271	0.398
271	0.397
272	0.396
272	0.394
272	0.393
273	0.392
273	0.39
274	0.389
274	0.387
275	0.386
275	0.385
276	0.383
276	0.381
277	0.38
277	0.377
278	0.375
278	0.374
278	0.372
279	0.369
279	0.367
280	0.366
280	0.364
281	0.363
281	0.361
282	0.36
282	0.36
283	0.359
283	0.358
284	0.356
284	0.356
285	0.355
285	0.353
285	0.352
286	0.351
286	0.35
287	0.348
287	0.347
288	0.346
288	0.344
289	0.343
289	0.342
290	0.341
290	0.34
291	0.338
291	0.338
292	0.337
292	0.336
292	0.334
293	0.333
293	0.333
294	0.331
294	0.331
295	0.33
295	0.329
296	0.328
296	0.327
297	0.326
297	0.326
298	0.325
298	0.324
298	0.323
299	0.323
299	0.322
300	0.321
300	0.32
301	0.319
301	0.319
302	0.318
302	0.317
303	0.317
303	0.316
304	0.315
304	0.314
305	0.313
305	0.313
305	0.312
306	0.311
306	0.31
307	0.309
307	0.308
308	0.307
308	0.307
309	0.306
309	0.305
310	0.304
310	0.303
311	0.303
311	0.302
311	0.301
312	0.3
312	0.3
313	0.299
313	0.298
314	0.297
314	0.296
315	0.295
315	0.294
316	0.293
316	0.292
317	0.292
317	0.291
318	0.29
318	0.289
318	0.288
319	0.287
319	0.286
320	0.285
320	0.284
321	0.283
321	0.282
322	0.282
322	0.281
323	0.28
323	0.279
324	0.278
324	0.277
324	0.276
325	0.276
325	0.275
326	0.274
326	0.274
327	0.273
327	0.272
328	0.271
328	0.27
329	0.269
329	0.268
330	0.268
330	0.267
330	0.266
331	0.265
331	0.264
332	0.263
332	0.262
333	0.262
333	0.261
334	0.26
334	0.259
335	0.258
335	0.258
336	0.257
336	0.256
336	0.255
337	0.255
337	0.254
338	0.253
338	0.252
339	0.252
339	0.251
340	0.25
340	0.25
341	0.249
341	0.248
342	0.248
342	0.247
342	0.247
343	0.246
343	0.245
344	0.245
344	0.244
345	0.244
345	0.243
346	0.243
346	0.242
347	0.241
347	0.241
348	0.24
348	0.24
348	0.239
349	0.238
349	0.237
350	0.237
350	0.236
351	0.235
351	0.234
352	0.233
352	0.232
353	0.232
353	0.231
354	0.23
354	0.229
354	0.228
355	0.226
355	0.225
356	0.225
356	0.224
357	0.223
357	0.223
358	0.223
358	0.223
359	0.223
359	0.224
360	0.225
360	0.226
360	0.226
361	0.227
361	0.227
362	0.227
362	0.227
363	0.228
363	0.227
364	0.227
364	0.226
365	0.226
365	0.226
366	0.225
366	0.225
366	0.225
367	0.224
367	0.224
368	0.224
368	0.223
369	0.223
369	0.223
370	0.222
370	0.222
371	0.221
371	0.221
372	0.221
372	0.22
372	0.22
373	0.22
373	0.219
374	0.219
374	0.219
375	0.219
375	0.219
376	0.219
376	0.219
377	0.219
377	0.22
378	0.22
378	0.22
378	0.22
379	0.221
379	0.221
380	0.221
380	0.221
381	0.22
381	0.22
382	0.22
382	0.219
383	0.219
383	0.219
383	0.218
384	0.217
384	0.217
385	0.217
385	0.217
386	0.217
386	0.217
387	0.217
387	0.217
388	0.216
388	0.216
389	0.216
389	0.216
389	0.215
390	0.215
390	0.215
391	0.216
391	0.216
392	0.216
392	0.216
393	0.216
393	0.216
394	0.216
394	0.216
394	0.216
395	0.216
395	0.215
396	0.215
396	0.215
397	0.215
397	0.215
398	0.215
398	0.215
399	0.215
399	0.215
400	0.215
400	0.214
400	0.214
401	0.213
401	0.212
402	0.211
402	0.211
403	0.21
403	0.21
404	0.21
404	0.209
405	0.209
405	0.209
405	0.209
406	0.208
406	0.208
407	0.209
407	0.208
408	0.208
408	0.207
409	0.207
409	0.207
410	0.206
410	0.206
411	0.206
411	0.206
411	0.206
412	0.205
412	0.205
413	0.205
413	0.205
414	0.204
414	0.204
415	0.203
415	0.203
416	0.203
416	0.202
416	0.202
417	0.202
417	0.202
418	0.202
418	0.202
419	0.203
419	0.203
420	0.204
420	0.205
421	0.205
421	0.206
421	0.206
422	0.206
422	0.206
423	0.206
423	0.206
424	0.205
424	0.204
425	0.203
425	0.202
426	0.202
426	0.201
427	0.201
427	0.201
427	0.201
428	0.202
428	0.203
429	0.204
429	0.204
430	0.204
430	0.204
431	0.204
431	0.204
432	0.204
432	0.203
432	0.202
433	0.201
433	0.2
434	0.199
434	0.199
435	0.199
435	0.199
436	0.199
436	0.199
437	0.199
437	0.199
437	0.199
438	0.199
438	0.199
439	0.199
439	0.198
440	0.198
440	0.198
441	0.198
441	0.198
442	0.198
442	0.199
442	0.199
443	0.2
443	0.2
444	0.201
444	0.202
445	0.202
445	0.202
446	0.203
446	0.202
447	0.202
447	0.202
447	0.202
448	0.202
448	0.201
449	0.201
449	0.201
450	0.2
450	0.2
451	0.2
451	0.2
452	0.199
452	0.199
452	0.198
453	0.198
453	0.197
454	0.196
454	0.196
455	0.196
455	0.195
456	0.195
456	0.195
457	0.195
457	0.194
458	0.195
458	0.195
458	0.195
459	0.196
459	0.196
460	0.195
460	0.195
461	0.194
461	0.194
462	0.194
462	0.194
463	0.195
463	0.195
463	0.196
464	0.196
464	0.197
465	0.197
465	0.197
466	0.197
466	0.198
467	0.198
467	0.198
467	0.197
468	0.195
468	0.194
469	0.192
469	0.192
470	0.191
470	0.191
471	0.191
471	0.19
472	0.19
472	0.19
472	0.191
473	0.192
473	0.193
474	0.194
474	0.195
475	0.196
475	0.197
476	0.197
476	0.198
477	0.198
477	0.199
477	0.199
478	0.2
478	0.2
479	0.201
479	0.201
480	0.202
480	0.203
481	0.204
481	0.205
482	0.206
482	0.207
482	0.208
483	0.21
483	0.213
484	0.216
484	0.218
485	0.22
485	0.222
486	0.223
486	0.225
487	0.226
487	0.226
487	0.227
488	0.227
488	0.226
489	0.224
489	0.223
490	0.222
490	0.222
491	0.221
491	0.221
492	0.222
492	0.222
492	0.223
493	0.224
493	0.225
494	0.227
494	0.23
495	0.232
495	0.233
496	0.235
496	0.236
496	0.237
497	0.239
497	0.24
498	0.24
498	0.241
499	0.241
499	0.241
500	0.242
500	0.244
501	0.245
501	0.247
501	0.248
502	0.25
502	0.251
503	0.253
503	0.254
504	0.256
504	0.257
505	0.257
505	0.258
506	0.259
506	0.26
506	0.261
507	0.261
507	0.262
508	0.263
508	0.263
509	0.264
509	0.266
510	0.266
510	0.267
511	0.267
511	0.267
511	0.267
512	0.268
512	0.269
513	0.269
513	0.268
514	0.267
514	0.266
515	0.266
515	0.265
515	0.264
516	0.264
516	0.264
517	0.265
517	0.265
518	0.265
518	0.265
519	0.264
519	0.262
520	0.261
520	0.259
520	0.257
521	0.254
521	0.251
522	0.249
522	0.247
523	0.246
523	0.246
524	0.247
524	0.249
524	0.251
525	0.254
525	0.256
526	0.259
526	0.262
527	0.265
527	0.267
528	0.269
528	0.27
529	0.271
529	0.271
529	0.271
530	0.271
530	0.271
531	0.271
531	0.271
532	0.271
532	0.27
533	0.27
533	0.27
533	0.27
534	0.269
534	0.268
535	0.267
535	0.267
536	0.266
536	0.265
537	0.265
537	0.264
538	0.263
538	0.261
538	0.26
539	0.259
539	0.258
540	0.257
540	0.255
541	0.254
541	0.252
542	0.25
542	0.248
542	0.246
543	0.245
543	0.243
544	0.242
544	0.24
545	0.238
545	0.238
546	0.237
546	0.236
547	0.234
547	0.232
547	0.229
548	0.227
548	0.224
549	0.222
549	0.22
550	0.218
550	0.215
551	0.213
551	0.21
551	0.208
552	0.207
552	0.206
553	0.204
553	0.204
554	0.203
554	0.201
555	0.199
555	0.197
556	0.194
556	0.19
556	0.187
557	0.185
557	0.183
558	0.181
558	0.178
559	0.176
559	0.175
560	0.175
560	0.174
560	0.174
561	0.174
561	0.174
562	0.173
562	0.172
563	0.17
563	0.168
564	0.165
564	0.162
564	0.159
565	0.157
565	0.155
566	0.153
566	0.152
567	0.151
567	0.151
568	0.152
568	0.153
568	0.154
569	0.156
569	0.158
570	0.158
570	0.158
571	0.159
571	0.159
572	0.159
572	0.159
573	0.158
573	0.158
573	0.156
574	0.155
574	0.154
575	0.154
575	0.154
576	0.155
576	0.153
577	0.152
577	0.15
577	0.15
578	0.149
578	0.149
579	0.15
579	0.151
580	0.15
580	0.148
581	0.146
581	0.144
581	0.143
582	0.143
582	0.142
583	0.143
583	0.142
584	0.139
584	0.135
585	0.134
585	0.133
585	0.133
586	0.133
586	0.133
587	0.132
587	0.13
588	0.127
588	0.125
589	0.124
589	0.123
590	0.122
590	0.121
590	0.122
591	0.123
591	0.122
592	0.122
592	0.12
593	0.12
593	0.12
594	0.119
594	0.118
594	0.117
595	0.117
595	0.115
596	0.113
596	0.114
597	0.116
597	0.118
598	0.119
598	0.121
598	0.122
599	0.122
599	0.122
600	0.122
600	0.121
601	0.12
601	0.119
602	0.117
602	0.115
602	0.114
603	0.113
603	0.113
604	0.113
604	0.113
605	0.114
605	0.116
606	0.116
606	0.115
606	0.115
607	0.115
607	0.115
608	0.114
608	0.113
609	0.112
609	0.112
610	0.111
610	0.109
610	0.109
611	0.109
611	0.11
612	0.11
612	0.112
613	0.113
613	0.115
614	0.115
614	0.114
614	0.114
615	0.114
615	0.114
616	0.114
616	0.113
617	0.113
617	0.112
618	0.11
618	0.11
618	0.11
619	0.11
619	0.111
620	0.112
620	0.114
621	0.115
621	0.116
622	0.116
622	0.117
622	0.117
623	0.118
623	0.119
624	0.12
624	0.12
625	0.12
625	0.12
626	0.12
626	0.12
626	0.121
627	0.121
627	0.122
628	0.122
628	0.122
629	0.123
629	0.123
630	0.122
630	0.122
630	0.122
631	0.123
631	0.123
632	0.123
632	0.124
633	0.125
633	0.126
634	0.127
634	0.129
634	0.132
635	0.133
635	0.135
636	0.136
636	0.138
637	0.139
637	0.14
638	0.142
638	0.144
638	0.145
639	0.146
639	0.147
640	0.149
640	0.151
641	0.153
641	0.156
642	0.158
642	0.16
642	0.162
643	0.164
643	0.165
644	0.167
644	0.169
645	0.171
645	0.173
646	0.175
646	0.179
646	0.182
647	0.186
647	0.189
648	0.192
648	0.195
649	0.198
649	0.201
650	0.204
650	0.207
650	0.21
651	0.212
651	0.215
652	0.217
652	0.219
653	0.223
653	0.232
653	0.238
654	0.192
654	0.157
655	0.163
655	0.165
656	0.167
656	0.168
657	0.17
657	0.172
657	0.173
658	0.169
658	0.162
659	0.203
659	0.259
660	0.262
660	0.264
661	0.266
661	0.268
661	0.271
662	0.274
662	0.278
663	0.281
663	0.285
664	0.288
664	0.291
665	0.293
665	0.297
665	0.299
666	0.302
666	0.305
667	0.308
667	0.311
668	0.314
668	0.317
669	0.32
669	0.324
669	0.328
670	0.333
670	0.336
671	0.339
671	0.341
672	0.343
672	0.344
672	0.346
673	0.347
673	0.348
674	0.349
674	0.35
675	0.35
675	0.351
676	0.353
676	0.355
676	0.357
677	0.359
677	0.362
678	0.363
678	0.365
679	0.366
679	0.368
680	0.37
680	0.371
680	0.372
681	0.372
681	0.373
682	0.374
682	0.375
683	0.377
683	0.379
684	0.381
684	0.382
684	0.383
685	0.384
685	0.385
686	0.386
686	0.387
687	0.387
687	0.387
687	0.387
688	0.386
688	0.385
689	0.385
689	0.385
690	0.385
690	0.385
691	0.384
691	0.384
691	0.384
692	0.383
692	0.382
693	0.382
693	0.382
694	0.382
694	0.38
695	0.381
695	0.382
695	0.382
696	0.381
696	0.38
697	0.38
697	0.379
698	0.377
698	0.375
698	0.373
699	0.371
699	0.368
700	0.364
700	0.362
701	0.36
701	0.358
702	0.356
702	0.354
702	0.352
703	0.35
703	0.347
704	0.345
704	0.343
705	0.342
705	0.34
705	0.338
706	0.337
706	0.335
707	0.333
707	0.331
708	0.329
708	0.327
709	0.326
709	0.324
709	0.32
710	0.317
710	0.315
711	0.312
711	0.31
712	0.308
712	0.306
713	0.304
713	0.302
713	0.299
714	0.296
714	0.294
715	0.291
715	0.288
716	0.285
716	0.282
716	0.28
717	0.277
717	0.275
718	0.272
718	0.27
719	0.269
719	0.267
720	0.266
720	0.264
720	0.261
721	0.258
721	0.256
722	0.253
722	0.25
723	0.247
723	0.245
723	0.242
724	0.239
724	0.236
725	0.233
725	0.23
726	0.227
726	0.225
727	0.222
727	0.22
727	0.218
728	0.216
728	0.214
729	0.213
729	0.212
730	0.21
730	0.209
730	0.208
731	0.206
731	0.205
732	0.204
732	0.203
733	0.201
733	0.199
734	0.197
734	0.194
734	0.193
735	0.191
735	0.189
736	0.187
736	0.185
737	0.183
737	0.182
737	0.18
738	0.178
738	0.175
739	0.173
739	0.17
740	0.168
740	0.166
741	0.164
741	0.162
741	0.158
742	0.154
742	0.15
743	0.147
743	0.144
744	0.142
744	0.14
744	0.137
745	0.135
745	0.132
746	0.13
746	0.128
747	0.127
747	0.126
748	0.125
748	0.124
748	0.123
749	0.121
749	0.12
750	0.119
750	0.117
751	0.116
751	0.116
751	0.116
752	0.114
752	0.113
753	0.112
753	0.111
754	0.11
754	0.11
754	0.11
755	0.109
755	0.109
756	0.108
756	0.106
757	0.104
757	0.104
758	0.103
758	0.101
758	0.1
759	0.098
759	0.096
760	0.093
760	0.09
761	0.087
761	0.086
761	0.085
762	0.082
762	0.081
763	0.08
763	0.078
764	0.075
764	0.073
764	0.072
765	0.07
765	0.068
766	0.067
766	0.067
767	0.066
767	0.064
768	0.061
768	0.059
768	0.058
769	0.058
769	0.057
770	0.055
770	0.053
771	0.051
771	0.048
771	0.045
772	0.043
772	0.041
773	0.039
773	0.036
774	0.033
774	0.03
775	0.027
775	0.024
775	0.021
776	0.017
776	0.014
777	0.01
777	0.006
778	0.002
778	-0.003
778	-0.008
779	-0.012
779	-0.016
780	-0.021
780	-0.026
781	-0.032
781	-0.038
781	-0.044
782	-0.05
782	-0.056
783	-0.062
783	-0.066
784	-0.07
784	-0.074
784	-0.077
785	-0.081
785	-0.084
786	-0.085
786	-0.083
787	-0.079
787	-0.075
788	-0.074
788	-0.075
788	-0.076
789	-0.078
789	-0.077
790	-0.074
790	-0.073
791	-0.074
791	-0.075
791	-0.077
792	-0.072
792	-0.063
793	-0.057
793	-0.053
794	-0.052
794	-0.054
794	-0.057
795	-0.059
795	-0.059
796	-0.059
796	-0.061
797	-0.069
797	-0.078
797	-0.084
798	-0.089
798	-0.092
799	-0.092
799	-0.092
800	-0.092
800	-0.094
801	-0.098
801	-0.099
801	-0.1
802	-0.102
802	-0.103
803	-0.104
803	-0.104
804	-0.104
804	-0.099
804	-0.093
805	-0.089
805	-0.087
806	-0.085
806	-0.084
807	-0.083
807	-0.082
807	-0.081
808	-0.081
808	-0.081
809	-0.085
809	-0.09
810	-0.093
810	-0.095
810	-0.098
811	-0.1
811	-0.1
812	-0.096
812	-0.093
813	-0.094
813	-0.094
813	-0.095
814	-0.096
814	-0.096
815	-0.094
815	-0.091
816	-0.089
816	-0.09
817	-0.094
817	-0.097
817	-0.098
818	-0.097
818	-0.094
819	-0.089
819	-0.086
820	-0.088
820	-0.09
820	-0.09
821	-0.088
821	-0.084
822	-0.08
822	-0.074
823	-0.069
823	-0.065
823	-0.063
824	-0.059
824	-0.051
825	-0.041
825	-0.032
826	-0.024
826	-0.017
826	-0.011
827	-0.006
827	-0
828	0.004
828	0.009
829	0.013
829	0.017
829	0.02
830	0.022
830	0.025
831	0.029
831	0.032
832	0.034
832	0.037
832	0.039
833	0.04
833	0.042
834	0.043
834	0.044
835	0.045
835	0.046
835	0.047
836	0.047
836	0.048
837	0.049
837	0.049
838	0.049
838	0.049
839	0.049
839	0.049
839	0.049
840	0.049
840	0.049
841	0.049
841	0.05
842	0.05
842	0.051
842	0.052
843	0.052
843	0.053
844	0.054
844	0.055
845	0.056
845	0.057
845	0.058
846	0.059
846	0.06
847	0.061
847	0.062
848	0.063
848	0.064
848	0.065
849	0.066
849	0.067
850	0.067
850	0.067
851	0.067
851	0.068
851	0.068
852	0.068
852	0.069
853	0.069
853	0.069
854	0.069
854	0.07
854	0.071
855	0.071
855	0.071
856	0.071
856	0.071
857	0.072
857	0.072
857	0.071
858	0.071
858	0.07
859	0.07
859	0.069
860	0.069
860	0.068
860	0.068
861	0.067
861	0.066
862	0.065
862	0.065
863	0.065
863	0.065
863	0.065
864	0.065
864	0.065
865	0.065
865	0.066
866	0.066
866	0.067
866	0.068
867	0.069
867	0.07
868	0.071
868	0.072
869	0.072
869	0.073
869	0.072
870	0.072
870	0.072
871	0.072
871	0.071
872	0.07
872	0.069
872	0.069
873	0.068
873	0.068
874	0.068
874	0.068
875	0.068
875	0.069
875	0.069
876	0.07
876	0.07
877	0.07
877	0.07
878	0.07
878	0.07
878	0.07
879	0.07
879	0.07
880	0.069
880	0.069
881	0.068
881	0.068
881	0.068
882	0.068
882	0.068
883	0.067
883	0.067
884	0.067
884	0.067
884	0.067
885	0.067
885	0.067
886	0.068
886	0.068
887	0.068
887	0.068
887	0.068
888	0.068
888	0.068
889	0.069
889	0.069
890	0.069
890	0.07
890	0.07
891	0.07
891	0.07
892	0.071
892	0.071
893	0.072
893	0.072
893	0.073
894	0.074
894	0.074
895	0.075
895	0.075
895	0.076
896	0.077
896	0.077
897	0.078
897	0.079
898	0.079
898	0.08
898	0.08
899	0.08
899	0.08
900	0.08
900	0.079
901	0.079
901	0.079
901	0.078
902	0.078
902	0.078
903	0.077
903	0.076
904	0.076
904	0.075
904	0.074
905	0.074
905	0.073
906	0.073
906	0.072
907	0.072
907	0.072
907	0.072
908	0.072
908	0.072
909	0.073
909	0.073
910	0.074
910	0.075
910	0.076
911	0.077
911	0.077
912	0.078
912	0.079
913	0.08
913	0.081
913	0.082
914	0.082
914	0.082
915	0.082
915	0.081
916	0.081
916	0.08
916	0.079
917	0.078
917	0.077
918	0.076
918	0.076
918	0.075
919	0.075
919	0.075
920	0.076
920	0.076
921	0.077
921	0.077
921	0.078
922	0.078
922	0.078
923	0.078
923	0.078
924	0.077
924	0.077
924	0.076
925	0.075
925	0.074
926	0.073
926	0.072
927	0.071
927	0.07
927	0.069
928	0.069
928	0.069
929	0.069
929	0.069
930	0.07
930	0.071
930	0.072
931	0.074
931	0.075
932	0.077
932	0.078
933	0.079
933	0.081
933	0.081
934	0.082
934	0.082
935	0.082
935	0.082
935	0.082
936	0.082
936	0.082
937	0.082
937	0.083
938	0.083
938	0.084
938	0.085
939	0.086
939	0.086
940	0.087
940	0.087
941	0.088
941	0.088
941	0.087
942	0.087
942	0.086
943	0.085
943	0.084
944	0.084
944	0.083
944	0.083
945	0.083
945	0.083
946	0.083
946	0.083
946	0.082
947	0.082
947	0.082
948	0.081
948	0.081
949	0.081
949	0.081
949	0.081
950	0.081
950	0.08
951	0.08
951	0.08
952	0.08
952	0.08
952	0.08
953	0.08
953	0.08
954	0.08
954	0.079
955	0.079
955	0.079
955	0.079
956	0.079
956	0.079
957	0.079
957	0.078
957	0.078
958	0.077
958	0.076
959	0.076
959	0.075
960	0.074
960	0.073
960	0.072
961	0.071
961	0.07
962	0.069
962	0.069
963	0.069
963	0.069
963	0.068
964	0.068
964	0.069
965	0.069
965	0.07
966	0.071
966	0.071
966	0.072
967	0.072
967	0.072
968	0.072
968	0.072
968	0.072
969	0.071
969	0.071
970	0.07
970	0.069
971	0.068
971	0.067
971	0.067
972	0.066
972	0.066
973	0.065
973	0.065
974	0.065
974	0.066
974	0.066
975	0.067
975	0.068
976	0.069
976	0.07
976	0.071
977	0.072
977	0.072
978	0.073
978	0.074
979	0.074
979	0.075
979	0.075
980	0.075
980	0.075
981	0.075
981	0.076
982	0.076
982	0.077
982	0.077
983	0.078
983	0.077
984	0.077
984	0.077
984	0.077
985	0.078
985	0.077
986	0.077
986	0.076
987	0.075
987	0.074
987	0.074
988	0.073
988	0.073
989	0.072
989	0.072
990	0.071
990	0.071
990	0.071
991	0.072
991	0.072
992	0.073
992	0.073
992	0.074
993	0.074
993	0.074
994	0.074
994	0.074
995	0.073
995	0.073
995	0.073
996	0.072
996	0.072
997	0.071
997	0.071
997	0.071
998	0.072
998	0.072
999	0.073
999	0.073
1000	0.074
1000	0.075
1000	0.075
1001	0.076
1001	0.077
1002	0.077
1002	0.078
1003	0.078
1003	0.078
1003	0.078
1004	0.077
1004	0.077
1005	0.077
1005	0.076
1005	0.075
1006	0.075
1006	0.074
1007	0.073
1007	0.073
1008	0.072
1008	0.072
1008	0.072
1009	0.072
1009	0.071
1010	0.071
1010	0.071
1010	0.071
1011	0.072
1011	0.072
1012	0.072
1012	0.072
1013	0.072
1013	0.072
1013	0.072
1014	0.071
1014	0.071
1015	0.071
1015	0.07
1016	0.07
1016	0.069
1016	0.068
1017	0.067
1017	0.066
1018	0.065
1018	0.065
1018	0.064
1019	0.063
1019	0.062
1020	0.062
1020	0.061
1021	0.061
1021	0.06
1021	0.06
1022	0.06
1022	0.06
1023	0.06
1023	0.06
1023	0.059
1024	0.059
1024	0.059
1025	0.058
1025	0.058
1026	0.057
1026	0.057
1026	0.056
1027	0.056
1027	0.055
1028	0.055
1028	0.055
1028	0.055
1029	0.055
1029	0.055
1030	0.055
1030	0.056
1031	0.056
1031	0.056
1031	0.056
1032	0.056
1032	0.057
1033	0.057
1033	0.057
1033	0.058
1034	0.058
1034	0.057
1035	0.057
1035	0.057
1036	0.057
1036	0.057
1036	0.057
1037	0.057
1037	0.058
1038	0.058
1038	0.059
1039	0.059
1039	0.06
1039	0.061
1040	0.062
1040	0.062
1041	0.062
1041	0.062
1041	0.062
1042	0.062
1042	0.062
1043	0.062
1043	0.062
1044	0.061
1044	0.061
1044	0.061
1045	0.061
1045	0.061
1046	0.062
1046	0.062
1046	0.063
1047	0.063
1047	0.064
1048	0.064
1048	0.064
1049	0.064
1049	0.063
1049	0.063
1050	0.062
1050	0.061
1051	0.061
1051	0.061
1051	0.061
1052	0.06
1052	0.06
1053	0.059
1053	0.059
1053	0.059
1054	0.059
1054	0.06
1055	0.061
1055	0.061
1056	0.061
1056	0.061
1056	0.061
1057	0.061
1057	0.062
1058	0.062
1058	0.063
1058	0.064
1059	0.065
1059	0.066
1060	0.067
1060	0.068
1061	0.069
1061	0.07
1061	0.071
1062	0.072
1062	0.073
1063	0.073
1063	0.074
1063	0.074
1064	0.075
1064	0.076
1065	0.077
1065	0.078
1066	0.079
1066	0.079
1066	0.08
1067	0.081
1067	0.082
1068	0.083
1068	0.084
1068	0.084
1069	0.085
1069	0.085
1070	0.085
1070	0.086
1071	0.087
1071	0.088
1071	0.089
1072	0.09
1072	0.092
1073	0.093
1073	0.095
1073	0.096
1074	0.098
1074	0.1
1075	0.1
1075	0.1
1076	0.101
1076	0.102
1076	0.102
1077	0.102
1077	0.103
1078	0.103
1078	0.105
1078	0.106
1079	0.107
1079	0.109
1080	0.111
1080	0.113
1080	0.114
1081	0.116
1081	0.117
1082	0.119
1082	0.121
1083	0.123
1083	0.125
1083	0.127
1084	0.129
1084	0.132
1085	0.134
1085	0.137
1085	0.14
1086	0.142
1086	0.144
1087	0.147
1087	0.15
1088	0.153
1088	0.156
1088	0.16
1089	0.163
1089	0.168
1090	0.172
1090	0.177
1090	0.183
1091	0.189
1091	0.196
1092	0.203
1092	0.21
1092	0.218
1093	0.225
1093	0.234
1094	0.242
1094	0.251
1095	0.261
1095	0.272
1095	0.285
1096	0.298
1096	0.311
1097	0.327
1097	0.342
1097	0.361
1098	0.379
1098	0.4
1099	0.423
1099	0.448
1100	0.477
1100	0.511
1100	0.548
1101	0.595
1101	0.645
1102	0.714
1102	0.802
1102	0.92
1103	1.084
1103	1.416
1104	-0
1104	-0
1104	-0
1105	-0
1105	-0
1106	-0
1106	-0
1107	-0
1107	-0
1107	-0
1108	-0
1108	-0
1109	-0
1109	-0
1109	-0
1110	-0
1110	-0
1111	-0
1111	-0
