Data from 15c-2-3a_Absorbance__579__02387.txt Node

Date: Tue Jan 16 13:06:26 CET 2024
User: Marek
Spectrometer: MAYP115816
Trigger mode: 0
Integration Time (sec): 2.000000E-1
Scans to average: 10
Electric dark correction enabled: true
Nonlinearity correction enabled: true
Boxcar width: 5
XAxis mode: Wavelengths
Number of Pixels in Spectrum: 2068
>>>>>Begin Spectral Data<<<<<
199	-2.063
199	-1.876
200	-1.742
200	-1.622
201	-1.549
201	-1.497
202	-1.422
202	-1.361
203	-1.314
203	-1.266
204	-1.239
204	-1.214
205	-1.194
205	-1.182
205	-1.18
206	-1.175
206	-1.172
207	-1.169
207	-1.169
208	-1.165
208	-1.164
209	-1.16
209	-1.158
210	-1.157
210	-1.154
211	-1.153
211	-1.153
212	-1.152
212	-1.151
213	-1.149
213	-1.148
213	-1.149
214	-1.147
214	-1.145
215	-1.145
215	-1.145
216	-1.142
216	-1.141
217	-1.138
217	-1.135
218	-1.132
218	-1.128
219	-1.123
219	-1.122
220	-1.12
220	-1.118
221	-1.114
221	-1.112
221	-1.107
222	-1.103
222	-1.098
223	-1.093
223	-1.088
224	-1.082
224	-1.074
225	-1.065
225	-1.056
226	-1.047
226	-1.038
227	-1.024
227	-1.012
228	-0.996
228	-0.98
229	-0.959
229	-0.935
229	-0.91
230	-0.881
230	-0.849
231	-0.814
231	-0.774
232	-0.735
232	-0.692
233	-0.646
233	-0.599
234	-0.551
234	-0.503
235	-0.454
235	-0.406
236	-0.359
236	-0.312
236	-0.266
237	-0.222
237	-0.18
238	-0.14
238	-0.101
239	-0.065
239	-0.031
240	0.002
240	0.032
241	0.06
241	0.085
242	0.109
242	0.131
243	0.152
243	0.171
243	0.188
244	0.205
244	0.22
245	0.233
245	0.246
246	0.258
246	0.269
247	0.279
247	0.289
248	0.298
248	0.306
249	0.314
249	0.321
250	0.328
250	0.334
250	0.341
251	0.346
251	0.351
252	0.357
252	0.361
253	0.365
253	0.369
254	0.373
254	0.376
255	0.379
255	0.383
256	0.385
256	0.388
257	0.39
257	0.392
258	0.394
258	0.396
258	0.397
259	0.399
259	0.4
260	0.401
260	0.402
261	0.402
261	0.403
262	0.404
262	0.404
263	0.404
263	0.405
264	0.405
264	0.405
265	0.405
265	0.405
265	0.404
266	0.404
266	0.404
267	0.403
267	0.403
268	0.402
268	0.401
269	0.4
269	0.399
270	0.398
270	0.397
271	0.396
271	0.395
272	0.394
272	0.392
272	0.391
273	0.389
273	0.388
274	0.387
274	0.386
275	0.384
275	0.383
276	0.381
276	0.379
277	0.377
277	0.375
278	0.373
278	0.371
278	0.369
279	0.367
279	0.365
280	0.363
280	0.362
281	0.36
281	0.359
282	0.358
282	0.357
283	0.356
283	0.355
284	0.354
284	0.354
285	0.353
285	0.351
285	0.35
286	0.349
286	0.348
287	0.346
287	0.345
288	0.344
288	0.343
289	0.342
289	0.34
290	0.339
290	0.338
291	0.337
291	0.336
292	0.335
292	0.334
292	0.333
293	0.332
293	0.331
294	0.33
294	0.329
295	0.328
295	0.327
296	0.326
296	0.325
297	0.324
297	0.324
298	0.323
298	0.322
298	0.322
299	0.321
299	0.32
300	0.319
300	0.319
301	0.318
301	0.317
302	0.317
302	0.316
303	0.315
303	0.315
304	0.314
304	0.313
305	0.312
305	0.311
305	0.311
306	0.31
306	0.309
307	0.308
307	0.307
308	0.306
308	0.305
309	0.304
309	0.304
310	0.303
310	0.302
311	0.301
311	0.301
311	0.3
312	0.299
312	0.298
313	0.298
313	0.297
314	0.296
314	0.295
315	0.294
315	0.293
316	0.292
316	0.291
317	0.29
317	0.29
318	0.289
318	0.288
318	0.287
319	0.286
319	0.285
320	0.284
320	0.283
321	0.282
321	0.281
322	0.28
322	0.28
323	0.279
323	0.278
324	0.277
324	0.276
324	0.275
325	0.275
325	0.274
326	0.273
326	0.272
327	0.271
327	0.271
328	0.27
328	0.269
329	0.268
329	0.267
330	0.267
330	0.266
330	0.265
331	0.264
331	0.263
332	0.262
332	0.261
333	0.261
333	0.26
334	0.259
334	0.258
335	0.257
335	0.256
336	0.256
336	0.255
336	0.254
337	0.254
337	0.253
338	0.252
338	0.251
339	0.251
339	0.25
340	0.249
340	0.249
341	0.248
341	0.247
342	0.247
342	0.246
342	0.246
343	0.245
343	0.244
344	0.244
344	0.243
345	0.243
345	0.242
346	0.242
346	0.241
347	0.24
347	0.24
348	0.239
348	0.239
348	0.238
349	0.237
349	0.237
350	0.236
350	0.235
351	0.234
351	0.233
352	0.232
352	0.231
353	0.23
353	0.23
354	0.229
354	0.228
354	0.226
355	0.225
355	0.224
356	0.223
356	0.223
357	0.222
357	0.221
358	0.221
358	0.221
359	0.222
359	0.222
360	0.223
360	0.224
360	0.224
361	0.225
361	0.225
362	0.226
362	0.226
363	0.226
363	0.226
364	0.226
364	0.225
365	0.225
365	0.224
366	0.224
366	0.224
366	0.224
367	0.223
367	0.223
368	0.223
368	0.222
369	0.222
369	0.222
370	0.221
370	0.221
371	0.22
371	0.22
372	0.219
372	0.219
372	0.219
373	0.218
373	0.218
374	0.218
374	0.218
375	0.218
375	0.218
376	0.218
376	0.218
377	0.218
377	0.218
378	0.219
378	0.219
378	0.219
379	0.219
379	0.219
380	0.219
380	0.219
381	0.219
381	0.219
382	0.218
382	0.218
383	0.218
383	0.217
383	0.217
384	0.216
384	0.216
385	0.216
385	0.216
386	0.216
386	0.216
387	0.216
387	0.215
388	0.215
388	0.215
389	0.214
389	0.214
389	0.214
390	0.214
390	0.214
391	0.214
391	0.214
392	0.214
392	0.214
393	0.215
393	0.215
394	0.215
394	0.215
394	0.214
395	0.214
395	0.214
396	0.214
396	0.214
397	0.214
397	0.214
398	0.214
398	0.214
399	0.213
399	0.213
400	0.213
400	0.213
400	0.213
401	0.212
401	0.211
402	0.21
402	0.21
403	0.209
403	0.209
404	0.209
404	0.208
405	0.208
405	0.208
405	0.207
406	0.207
406	0.207
407	0.207
407	0.207
408	0.207
408	0.206
409	0.206
409	0.205
410	0.205
410	0.205
411	0.205
411	0.205
411	0.205
412	0.204
412	0.204
413	0.204
413	0.203
414	0.203
414	0.203
415	0.202
415	0.202
416	0.201
416	0.201
416	0.2
417	0.2
417	0.2
418	0.2
418	0.2
419	0.201
419	0.201
420	0.202
420	0.203
421	0.203
421	0.204
421	0.204
422	0.204
422	0.205
423	0.205
423	0.204
424	0.204
424	0.203
425	0.202
425	0.201
426	0.2
426	0.2
427	0.2
427	0.2
427	0.2
428	0.201
428	0.201
429	0.202
429	0.203
430	0.203
430	0.203
431	0.203
431	0.203
432	0.203
432	0.202
432	0.201
433	0.2
433	0.199
434	0.198
434	0.198
435	0.198
435	0.198
436	0.198
436	0.198
437	0.198
437	0.198
437	0.198
438	0.198
438	0.198
439	0.197
439	0.197
440	0.197
440	0.196
441	0.196
441	0.197
442	0.197
442	0.198
442	0.198
443	0.199
443	0.199
444	0.2
444	0.2
445	0.201
445	0.201
446	0.201
446	0.201
447	0.2
447	0.2
447	0.2
448	0.2
448	0.2
449	0.199
449	0.199
450	0.199
450	0.199
451	0.198
451	0.198
452	0.198
452	0.198
452	0.197
453	0.197
453	0.196
454	0.195
454	0.195
455	0.194
455	0.194
456	0.194
456	0.194
457	0.193
457	0.193
458	0.193
458	0.193
458	0.194
459	0.194
459	0.194
460	0.194
460	0.194
461	0.193
461	0.193
462	0.193
462	0.193
463	0.194
463	0.194
463	0.195
464	0.195
464	0.196
465	0.196
465	0.196
466	0.196
466	0.197
467	0.197
467	0.196
467	0.195
468	0.194
468	0.193
469	0.191
469	0.19
470	0.19
470	0.19
471	0.189
471	0.189
472	0.189
472	0.189
472	0.19
473	0.191
473	0.192
474	0.193
474	0.194
475	0.195
475	0.195
476	0.196
476	0.196
477	0.197
477	0.197
477	0.198
478	0.198
478	0.199
479	0.199
479	0.2
480	0.201
480	0.202
481	0.202
481	0.203
482	0.204
482	0.205
482	0.207
483	0.209
483	0.211
484	0.215
484	0.217
485	0.219
485	0.221
486	0.222
486	0.223
487	0.224
487	0.224
487	0.225
488	0.225
488	0.223
489	0.222
489	0.221
490	0.22
490	0.219
491	0.219
491	0.219
492	0.22
492	0.22
492	0.221
493	0.222
493	0.223
494	0.225
494	0.228
495	0.23
495	0.231
496	0.233
496	0.234
496	0.235
497	0.236
497	0.237
498	0.238
498	0.239
499	0.239
499	0.239
500	0.24
500	0.241
501	0.243
501	0.244
501	0.246
502	0.247
502	0.249
503	0.251
503	0.252
504	0.254
504	0.254
505	0.255
505	0.255
506	0.256
506	0.257
506	0.258
507	0.259
507	0.259
508	0.26
508	0.26
509	0.261
509	0.262
510	0.263
510	0.264
511	0.264
511	0.264
511	0.264
512	0.265
512	0.266
513	0.266
513	0.265
514	0.264
514	0.264
515	0.263
515	0.262
515	0.262
516	0.262
516	0.262
517	0.263
517	0.263
518	0.263
518	0.262
519	0.262
519	0.26
520	0.258
520	0.257
520	0.254
521	0.252
521	0.249
522	0.246
522	0.244
523	0.243
523	0.243
524	0.244
524	0.246
524	0.248
525	0.251
525	0.253
526	0.256
526	0.259
527	0.261
527	0.264
528	0.265
528	0.267
529	0.267
529	0.268
529	0.268
530	0.268
530	0.268
531	0.268
531	0.269
532	0.268
532	0.268
533	0.268
533	0.267
533	0.267
534	0.266
534	0.265
535	0.264
535	0.264
536	0.263
536	0.263
537	0.262
537	0.261
538	0.26
538	0.259
538	0.257
539	0.256
539	0.255
540	0.254
540	0.252
541	0.25
541	0.248
542	0.246
542	0.244
542	0.243
543	0.241
543	0.24
544	0.238
544	0.237
545	0.235
545	0.235
546	0.234
546	0.233
547	0.231
547	0.229
547	0.226
548	0.224
548	0.221
549	0.219
549	0.217
550	0.215
550	0.213
551	0.21
551	0.208
551	0.206
552	0.204
552	0.203
553	0.202
553	0.202
554	0.201
554	0.199
555	0.197
555	0.194
556	0.191
556	0.188
556	0.185
557	0.182
557	0.18
558	0.178
558	0.176
559	0.174
559	0.173
560	0.173
560	0.172
560	0.172
561	0.172
561	0.172
562	0.172
562	0.17
563	0.168
563	0.166
564	0.163
564	0.16
564	0.157
565	0.155
565	0.153
566	0.151
566	0.15
567	0.149
567	0.15
568	0.151
568	0.151
568	0.153
569	0.154
569	0.156
570	0.157
570	0.156
571	0.157
571	0.158
572	0.157
572	0.157
573	0.157
573	0.156
573	0.155
574	0.154
574	0.153
575	0.152
575	0.153
576	0.153
576	0.152
577	0.151
577	0.15
577	0.149
578	0.148
578	0.148
579	0.149
579	0.15
580	0.15
580	0.147
581	0.145
581	0.143
581	0.142
582	0.141
582	0.141
583	0.142
583	0.141
584	0.138
584	0.134
585	0.133
585	0.132
585	0.132
586	0.132
586	0.132
587	0.131
587	0.129
588	0.127
588	0.125
589	0.123
589	0.122
590	0.121
590	0.121
590	0.121
591	0.122
591	0.121
592	0.121
592	0.12
593	0.119
593	0.119
594	0.118
594	0.117
594	0.116
595	0.116
595	0.114
596	0.113
596	0.113
597	0.116
597	0.117
598	0.118
598	0.12
598	0.121
599	0.121
599	0.121
600	0.121
600	0.12
601	0.119
601	0.118
602	0.116
602	0.114
602	0.113
603	0.111
603	0.111
604	0.112
604	0.112
605	0.113
605	0.115
606	0.115
606	0.115
606	0.115
607	0.114
607	0.114
608	0.114
608	0.112
609	0.111
609	0.111
610	0.109
610	0.108
610	0.107
611	0.108
611	0.108
612	0.109
612	0.11
613	0.112
613	0.113
614	0.113
614	0.113
614	0.113
615	0.113
615	0.112
616	0.112
616	0.112
617	0.111
617	0.11
618	0.109
618	0.108
618	0.108
619	0.108
619	0.109
620	0.111
620	0.112
621	0.113
621	0.114
622	0.115
622	0.116
622	0.116
623	0.116
623	0.117
624	0.119
624	0.119
625	0.119
625	0.119
626	0.119
626	0.119
626	0.12
627	0.12
627	0.121
628	0.121
628	0.121
629	0.121
629	0.121
630	0.121
630	0.12
630	0.121
631	0.121
631	0.122
632	0.122
632	0.122
633	0.123
633	0.124
634	0.126
634	0.128
634	0.13
635	0.132
635	0.133
636	0.135
636	0.136
637	0.138
637	0.139
638	0.141
638	0.142
638	0.144
639	0.145
639	0.146
640	0.148
640	0.15
641	0.152
641	0.154
642	0.156
642	0.158
642	0.16
643	0.162
643	0.163
644	0.165
644	0.167
645	0.169
645	0.171
646	0.173
646	0.177
646	0.18
647	0.184
647	0.187
648	0.19
648	0.193
649	0.196
649	0.199
650	0.202
650	0.205
650	0.208
651	0.21
651	0.212
652	0.214
652	0.217
653	0.22
653	0.23
653	0.236
654	0.191
654	0.156
655	0.162
655	0.164
656	0.166
656	0.167
657	0.169
657	0.171
657	0.172
658	0.168
658	0.161
659	0.202
659	0.257
660	0.26
660	0.262
661	0.264
661	0.266
661	0.269
662	0.272
662	0.276
663	0.279
663	0.283
664	0.286
664	0.288
665	0.291
665	0.294
665	0.297
666	0.3
666	0.303
667	0.305
667	0.309
668	0.311
668	0.314
669	0.318
669	0.321
669	0.325
670	0.33
670	0.334
671	0.337
671	0.339
672	0.34
672	0.342
672	0.343
673	0.344
673	0.346
674	0.347
674	0.347
675	0.347
675	0.348
676	0.35
676	0.352
676	0.354
677	0.356
677	0.359
678	0.361
678	0.362
679	0.364
679	0.365
680	0.367
680	0.369
680	0.369
681	0.369
681	0.37
682	0.371
682	0.372
683	0.374
683	0.377
684	0.379
684	0.38
684	0.381
685	0.382
685	0.383
686	0.384
686	0.385
687	0.385
687	0.385
687	0.385
688	0.384
688	0.383
689	0.383
689	0.384
690	0.383
690	0.383
691	0.382
691	0.382
691	0.382
692	0.381
692	0.38
693	0.38
693	0.38
694	0.38
694	0.379
695	0.379
695	0.38
695	0.38
696	0.38
696	0.379
697	0.378
697	0.377
698	0.376
698	0.373
698	0.371
699	0.37
699	0.366
700	0.363
700	0.36
701	0.358
701	0.356
702	0.354
702	0.352
702	0.349
703	0.348
703	0.345
704	0.343
704	0.342
705	0.34
705	0.339
705	0.337
706	0.335
706	0.334
707	0.332
707	0.329
708	0.327
708	0.326
709	0.324
709	0.322
709	0.319
710	0.316
710	0.313
711	0.311
711	0.309
712	0.307
712	0.305
713	0.303
713	0.301
713	0.298
714	0.295
714	0.292
715	0.29
715	0.287
716	0.284
716	0.281
716	0.278
717	0.276
717	0.274
718	0.271
718	0.269
719	0.267
719	0.266
720	0.264
720	0.262
720	0.26
721	0.257
721	0.254
722	0.252
722	0.249
723	0.246
723	0.244
723	0.241
724	0.238
724	0.235
725	0.231
725	0.229
726	0.226
726	0.224
727	0.221
727	0.219
727	0.217
728	0.215
728	0.213
729	0.212
729	0.211
730	0.21
730	0.208
730	0.207
731	0.206
731	0.205
732	0.204
732	0.202
733	0.2
733	0.198
734	0.196
734	0.193
734	0.192
735	0.19
735	0.188
736	0.186
736	0.184
737	0.182
737	0.181
737	0.179
738	0.177
738	0.174
739	0.172
739	0.17
740	0.167
740	0.165
741	0.164
741	0.161
741	0.158
742	0.154
742	0.15
743	0.147
743	0.144
744	0.142
744	0.14
744	0.137
745	0.134
745	0.132
746	0.129
746	0.127
747	0.126
747	0.125
748	0.124
748	0.123
748	0.122
749	0.12
749	0.119
750	0.118
750	0.117
751	0.116
751	0.115
751	0.115
752	0.114
752	0.113
753	0.112
753	0.111
754	0.11
754	0.11
754	0.109
755	0.109
755	0.109
756	0.108
756	0.105
757	0.104
757	0.103
758	0.102
758	0.101
758	0.099
759	0.098
759	0.095
760	0.092
760	0.089
761	0.087
761	0.086
761	0.084
762	0.082
762	0.081
763	0.079
763	0.077
764	0.075
764	0.073
764	0.071
765	0.069
765	0.068
766	0.067
766	0.067
767	0.066
767	0.064
768	0.061
768	0.059
768	0.058
769	0.057
769	0.056
770	0.055
770	0.053
771	0.05
771	0.047
771	0.044
772	0.042
772	0.04
773	0.038
773	0.035
774	0.032
774	0.029
775	0.026
775	0.023
775	0.02
776	0.016
776	0.013
777	0.009
777	0.005
778	0
778	-0.005
778	-0.01
779	-0.014
779	-0.017
780	-0.022
780	-0.028
781	-0.033
781	-0.04
781	-0.045
782	-0.051
782	-0.057
783	-0.063
783	-0.067
784	-0.071
784	-0.075
784	-0.078
785	-0.081
785	-0.084
786	-0.085
786	-0.083
787	-0.079
787	-0.075
788	-0.074
788	-0.075
788	-0.076
789	-0.078
789	-0.077
790	-0.074
790	-0.073
791	-0.073
791	-0.075
791	-0.077
792	-0.072
792	-0.063
793	-0.057
793	-0.053
794	-0.052
794	-0.053
794	-0.057
795	-0.059
795	-0.059
796	-0.059
796	-0.061
797	-0.069
797	-0.078
797	-0.084
798	-0.089
798	-0.092
799	-0.092
799	-0.092
800	-0.092
800	-0.094
801	-0.098
801	-0.099
801	-0.1
802	-0.102
802	-0.103
803	-0.104
803	-0.104
804	-0.104
804	-0.099
804	-0.092
805	-0.089
805	-0.087
806	-0.085
806	-0.084
807	-0.082
807	-0.082
807	-0.081
808	-0.081
808	-0.081
809	-0.085
809	-0.09
810	-0.093
810	-0.095
810	-0.098
811	-0.1
811	-0.1
812	-0.096
812	-0.093
813	-0.093
813	-0.094
813	-0.095
814	-0.096
814	-0.096
815	-0.094
815	-0.091
816	-0.089
816	-0.09
817	-0.094
817	-0.097
817	-0.098
818	-0.097
818	-0.094
819	-0.089
819	-0.086
820	-0.088
820	-0.089
820	-0.09
821	-0.088
821	-0.084
822	-0.079
822	-0.074
823	-0.069
823	-0.065
823	-0.063
824	-0.058
824	-0.05
825	-0.041
825	-0.032
826	-0.023
826	-0.017
826	-0.011
827	-0.006
827	-0
828	0.004
828	0.009
829	0.013
829	0.017
829	0.019
830	0.022
830	0.025
831	0.028
831	0.031
832	0.034
832	0.036
832	0.038
833	0.04
833	0.041
834	0.043
834	0.044
835	0.045
835	0.046
835	0.046
836	0.047
836	0.048
837	0.048
837	0.049
838	0.049
838	0.049
839	0.049
839	0.048
839	0.048
840	0.048
840	0.048
841	0.049
841	0.049
842	0.05
842	0.051
842	0.051
843	0.052
843	0.053
844	0.054
844	0.055
845	0.056
845	0.057
845	0.059
846	0.059
846	0.06
847	0.061
847	0.063
848	0.064
848	0.065
848	0.066
849	0.067
849	0.067
850	0.068
850	0.067
851	0.068
851	0.068
851	0.068
852	0.068
852	0.069
853	0.069
853	0.069
854	0.069
854	0.07
854	0.071
855	0.071
855	0.071
856	0.071
856	0.071
857	0.072
857	0.072
857	0.072
858	0.071
858	0.071
859	0.07
859	0.069
860	0.069
860	0.069
860	0.068
861	0.067
861	0.067
862	0.066
862	0.065
863	0.065
863	0.065
863	0.064
864	0.064
864	0.065
865	0.065
865	0.066
866	0.066
866	0.066
866	0.067
867	0.068
867	0.07
868	0.071
868	0.072
869	0.072
869	0.073
869	0.072
870	0.072
870	0.072
871	0.072
871	0.071
872	0.07
872	0.069
872	0.069
873	0.068
873	0.067
874	0.067
874	0.067
875	0.068
875	0.068
875	0.069
876	0.069
876	0.069
877	0.07
877	0.07
878	0.07
878	0.069
878	0.069
879	0.069
879	0.069
880	0.068
880	0.068
881	0.068
881	0.067
881	0.067
882	0.067
882	0.067
883	0.067
883	0.067
884	0.067
884	0.067
884	0.066
885	0.066
885	0.067
886	0.067
886	0.067
887	0.067
887	0.068
887	0.068
888	0.067
888	0.067
889	0.068
889	0.068
890	0.069
890	0.069
890	0.069
891	0.069
891	0.07
892	0.07
892	0.071
893	0.071
893	0.072
893	0.073
894	0.073
894	0.074
895	0.074
895	0.075
895	0.076
896	0.076
896	0.077
897	0.078
897	0.078
898	0.079
898	0.079
898	0.079
899	0.079
899	0.08
900	0.079
900	0.079
901	0.078
901	0.078
901	0.077
902	0.077
902	0.077
903	0.076
903	0.075
904	0.075
904	0.074
904	0.073
905	0.072
905	0.072
906	0.072
906	0.071
907	0.071
907	0.071
907	0.071
908	0.071
908	0.071
909	0.072
909	0.073
910	0.074
910	0.075
910	0.075
911	0.076
911	0.077
912	0.078
912	0.079
913	0.08
913	0.081
913	0.082
914	0.082
914	0.082
915	0.082
915	0.081
916	0.08
916	0.08
916	0.079
917	0.078
917	0.077
918	0.076
918	0.076
918	0.075
919	0.075
919	0.075
920	0.075
920	0.076
921	0.076
921	0.077
921	0.077
922	0.077
922	0.077
923	0.077
923	0.077
924	0.077
924	0.076
924	0.075
925	0.074
925	0.073
926	0.072
926	0.071
927	0.07
927	0.07
927	0.069
928	0.069
928	0.068
929	0.069
929	0.069
930	0.07
930	0.071
930	0.072
931	0.073
931	0.075
932	0.076
932	0.078
933	0.079
933	0.08
933	0.081
934	0.081
934	0.082
935	0.082
935	0.082
935	0.082
936	0.082
936	0.082
937	0.082
937	0.083
938	0.083
938	0.084
938	0.085
939	0.085
939	0.086
940	0.087
940	0.087
941	0.088
941	0.088
941	0.087
942	0.087
942	0.086
943	0.086
943	0.085
944	0.084
944	0.083
944	0.083
945	0.083
945	0.083
946	0.083
946	0.083
946	0.082
947	0.082
947	0.082
948	0.081
948	0.081
949	0.081
949	0.08
949	0.08
950	0.08
950	0.08
951	0.08
951	0.08
952	0.08
952	0.08
952	0.08
953	0.08
953	0.08
954	0.08
954	0.079
955	0.079
955	0.079
955	0.079
956	0.079
956	0.079
957	0.079
957	0.078
957	0.078
958	0.077
958	0.077
959	0.076
959	0.075
960	0.074
960	0.073
960	0.072
961	0.071
961	0.07
962	0.069
962	0.069
963	0.069
963	0.069
963	0.069
964	0.069
964	0.069
965	0.07
965	0.07
966	0.071
966	0.072
966	0.073
967	0.073
967	0.073
968	0.073
968	0.073
968	0.073
969	0.072
969	0.072
970	0.071
970	0.07
971	0.069
971	0.068
971	0.068
972	0.067
972	0.067
973	0.066
973	0.066
974	0.066
974	0.067
974	0.067
975	0.068
975	0.069
976	0.07
976	0.071
976	0.071
977	0.072
977	0.073
978	0.073
978	0.074
979	0.074
979	0.075
979	0.075
980	0.076
980	0.076
981	0.076
981	0.076
982	0.077
982	0.077
982	0.078
983	0.078
983	0.078
984	0.078
984	0.078
984	0.078
985	0.078
985	0.078
986	0.077
986	0.076
987	0.075
987	0.075
987	0.074
988	0.073
988	0.073
989	0.072
989	0.071
990	0.071
990	0.07
990	0.07
991	0.071
991	0.071
992	0.072
992	0.072
992	0.073
993	0.073
993	0.073
994	0.073
994	0.073
995	0.073
995	0.072
995	0.072
996	0.072
996	0.071
997	0.071
997	0.071
997	0.071
998	0.071
998	0.072
999	0.072
999	0.073
1000	0.074
1000	0.075
1000	0.075
1001	0.076
1001	0.077
1002	0.078
1002	0.078
1003	0.078
1003	0.079
1003	0.078
1004	0.078
1004	0.077
1005	0.077
1005	0.076
1005	0.076
1006	0.075
1006	0.074
1007	0.074
1007	0.073
1008	0.072
1008	0.072
1008	0.072
1009	0.072
1009	0.072
1010	0.072
1010	0.072
1010	0.072
1011	0.072
1011	0.073
1012	0.073
1012	0.073
1013	0.073
1013	0.073
1013	0.073
1014	0.072
1014	0.071
1015	0.071
1015	0.071
1016	0.07
1016	0.069
1016	0.068
1017	0.067
1017	0.066
1018	0.065
1018	0.065
1018	0.064
1019	0.063
1019	0.063
1020	0.062
1020	0.061
1021	0.061
1021	0.06
1021	0.06
1022	0.06
1022	0.06
1023	0.06
1023	0.06
1023	0.059
1024	0.059
1024	0.058
1025	0.058
1025	0.057
1026	0.057
1026	0.056
1026	0.056
1027	0.055
1027	0.055
1028	0.055
1028	0.055
1028	0.055
1029	0.055
1029	0.055
1030	0.056
1030	0.056
1031	0.056
1031	0.057
1031	0.057
1032	0.057
1032	0.058
1033	0.058
1033	0.058
1033	0.058
1034	0.058
1034	0.058
1035	0.058
1035	0.058
1036	0.058
1036	0.058
1036	0.058
1037	0.058
1037	0.059
1038	0.059
1038	0.06
1039	0.061
1039	0.061
1039	0.062
1040	0.063
1040	0.063
1041	0.064
1041	0.064
1041	0.063
1042	0.063
1042	0.063
1043	0.063
1043	0.063
1044	0.062
1044	0.062
1044	0.062
1045	0.062
1045	0.062
1046	0.062
1046	0.062
1046	0.063
1047	0.063
1047	0.064
1048	0.064
1048	0.064
1049	0.064
1049	0.063
1049	0.063
1050	0.062
1050	0.061
1051	0.061
1051	0.061
1051	0.06
1052	0.06
1052	0.059
1053	0.059
1053	0.059
1053	0.059
1054	0.059
1054	0.059
1055	0.06
1055	0.06
1056	0.06
1056	0.06
1056	0.06
1057	0.06
1057	0.061
1058	0.061
1058	0.062
1058	0.063
1059	0.064
1059	0.065
1060	0.066
1060	0.067
1061	0.068
1061	0.07
1061	0.071
1062	0.072
1062	0.072
1063	0.073
1063	0.073
1063	0.074
1064	0.075
1064	0.076
1065	0.077
1065	0.078
1066	0.078
1066	0.079
1066	0.08
1067	0.081
1067	0.083
1068	0.083
1068	0.084
1068	0.084
1069	0.085
1069	0.085
1070	0.085
1070	0.086
1071	0.087
1071	0.088
1071	0.089
1072	0.09
1072	0.092
1073	0.093
1073	0.095
1073	0.096
1074	0.097
1074	0.099
1075	0.098
1075	0.099
1076	0.1
1076	0.101
1076	0.101
1077	0.102
1077	0.102
1078	0.103
1078	0.105
1078	0.106
1079	0.108
1079	0.111
1080	0.112
1080	0.114
1080	0.115
1081	0.117
1081	0.119
1082	0.12
1082	0.122
1083	0.124
1083	0.125
1083	0.127
1084	0.129
1084	0.131
1085	0.134
1085	0.137
1085	0.139
1086	0.142
1086	0.145
1087	0.148
1087	0.151
1088	0.154
1088	0.157
1088	0.161
1089	0.164
1089	0.169
1090	0.173
1090	0.179
1090	0.184
1091	0.19
1091	0.197
1092	0.204
1092	0.212
1092	0.219
1093	0.227
1093	0.237
1094	0.245
1094	0.255
1095	0.263
1095	0.274
1095	0.287
1096	0.299
1096	0.313
1097	0.327
1097	0.343
1097	0.36
1098	0.378
1098	0.399
1099	0.423
1099	0.45
1100	0.48
1100	0.513
1100	0.553
1101	0.599
1101	0.655
1102	0.727
1102	0.817
1102	0.938
1103	1.117
1103	1.467
1104	-0
1104	-0
1104	-0
1105	-0
1105	-0
1106	-0
1106	-0
1107	-0
1107	-0
1107	-0
1108	-0
1108	-0
1109	-0
1109	-0
1109	-0
1110	-0
1110	-0
1111	-0
1111	-0
