Data from 15c-2-3a_Absorbance__242__02050.txt Node

Date: Tue Jan 16 12:55:12 CET 2024
User: Marek
Spectrometer: MAYP115816
Trigger mode: 0
Integration Time (sec): 2.000000E-1
Scans to average: 10
Electric dark correction enabled: true
Nonlinearity correction enabled: true
Boxcar width: 5
XAxis mode: Wavelengths
Number of Pixels in Spectrum: 2068
>>>>>Begin Spectral Data<<<<<
199	-2.07
199	-1.883
200	-1.748
200	-1.629
201	-1.556
201	-1.504
202	-1.429
202	-1.368
203	-1.32
203	-1.272
204	-1.246
204	-1.221
205	-1.201
205	-1.19
205	-1.187
206	-1.182
206	-1.179
207	-1.176
207	-1.175
208	-1.171
208	-1.17
209	-1.166
209	-1.164
210	-1.163
210	-1.16
211	-1.159
211	-1.158
212	-1.157
212	-1.157
213	-1.155
213	-1.154
213	-1.154
214	-1.152
214	-1.151
215	-1.15
215	-1.15
216	-1.147
216	-1.147
217	-1.144
217	-1.142
218	-1.137
218	-1.133
219	-1.129
219	-1.128
220	-1.126
220	-1.124
221	-1.12
221	-1.119
221	-1.114
222	-1.109
222	-1.104
223	-1.099
223	-1.094
224	-1.089
224	-1.08
225	-1.071
225	-1.062
226	-1.054
226	-1.044
227	-1.03
227	-1.018
228	-1.002
228	-0.985
229	-0.964
229	-0.941
229	-0.916
230	-0.886
230	-0.855
231	-0.819
231	-0.78
232	-0.741
232	-0.698
233	-0.652
233	-0.605
234	-0.557
234	-0.509
235	-0.46
235	-0.413
236	-0.365
236	-0.318
236	-0.272
237	-0.228
237	-0.186
238	-0.146
238	-0.108
239	-0.071
239	-0.037
240	-0.005
240	0.025
241	0.053
241	0.079
242	0.102
242	0.125
243	0.145
243	0.165
243	0.182
244	0.198
244	0.213
245	0.226
245	0.24
246	0.251
246	0.263
247	0.273
247	0.282
248	0.291
248	0.299
249	0.307
249	0.314
250	0.321
250	0.328
250	0.334
251	0.34
251	0.345
252	0.35
252	0.355
253	0.359
253	0.363
254	0.366
254	0.37
255	0.373
255	0.376
256	0.379
256	0.381
257	0.384
257	0.386
258	0.388
258	0.389
258	0.391
259	0.392
259	0.393
260	0.395
260	0.395
261	0.396
261	0.397
262	0.397
262	0.397
263	0.398
263	0.398
264	0.398
264	0.398
265	0.398
265	0.398
265	0.398
266	0.398
266	0.397
267	0.397
267	0.396
268	0.395
268	0.394
269	0.394
269	0.393
270	0.391
270	0.39
271	0.389
271	0.388
272	0.387
272	0.386
272	0.385
273	0.384
273	0.382
274	0.381
274	0.38
275	0.378
275	0.377
276	0.376
276	0.374
277	0.372
277	0.37
278	0.368
278	0.366
278	0.364
279	0.361
279	0.359
280	0.358
280	0.356
281	0.355
281	0.353
282	0.352
282	0.352
283	0.351
283	0.35
284	0.349
284	0.348
285	0.347
285	0.346
285	0.345
286	0.344
286	0.343
287	0.341
287	0.34
288	0.339
288	0.338
289	0.337
289	0.336
290	0.335
290	0.334
291	0.333
291	0.332
292	0.331
292	0.33
292	0.328
293	0.327
293	0.326
294	0.326
294	0.325
295	0.324
295	0.323
296	0.322
296	0.321
297	0.321
297	0.32
298	0.319
298	0.318
298	0.318
299	0.317
299	0.316
300	0.315
300	0.314
301	0.314
301	0.313
302	0.312
302	0.311
303	0.311
303	0.31
304	0.31
304	0.309
305	0.308
305	0.307
305	0.306
306	0.306
306	0.305
307	0.304
307	0.303
308	0.302
308	0.301
309	0.301
309	0.3
310	0.299
310	0.298
311	0.297
311	0.297
311	0.296
312	0.295
312	0.294
313	0.293
313	0.293
314	0.292
314	0.291
315	0.29
315	0.289
316	0.288
316	0.287
317	0.287
317	0.286
318	0.285
318	0.284
318	0.283
319	0.282
319	0.281
320	0.28
320	0.279
321	0.278
321	0.277
322	0.277
322	0.276
323	0.275
323	0.274
324	0.273
324	0.272
324	0.272
325	0.271
325	0.27
326	0.269
326	0.269
327	0.268
327	0.267
328	0.266
328	0.265
329	0.265
329	0.264
330	0.263
330	0.263
330	0.262
331	0.261
331	0.26
332	0.259
332	0.258
333	0.258
333	0.257
334	0.256
334	0.255
335	0.254
335	0.253
336	0.253
336	0.252
336	0.251
337	0.25
337	0.249
338	0.249
338	0.248
339	0.247
339	0.247
340	0.246
340	0.245
341	0.245
341	0.244
342	0.244
342	0.243
342	0.242
343	0.242
343	0.241
344	0.241
344	0.24
345	0.239
345	0.239
346	0.238
346	0.238
347	0.237
347	0.236
348	0.236
348	0.235
348	0.234
349	0.234
349	0.233
350	0.232
350	0.232
351	0.231
351	0.23
352	0.229
352	0.228
353	0.227
353	0.227
354	0.226
354	0.224
354	0.223
355	0.222
355	0.221
356	0.22
356	0.219
357	0.218
357	0.218
358	0.218
358	0.218
359	0.219
359	0.219
360	0.22
360	0.221
360	0.221
361	0.222
361	0.223
362	0.223
362	0.223
363	0.224
363	0.223
364	0.223
364	0.222
365	0.222
365	0.221
366	0.221
366	0.221
366	0.22
367	0.22
367	0.22
368	0.219
368	0.219
369	0.219
369	0.218
370	0.218
370	0.217
371	0.217
371	0.217
372	0.216
372	0.216
372	0.216
373	0.215
373	0.215
374	0.215
374	0.215
375	0.215
375	0.214
376	0.215
376	0.215
377	0.215
377	0.215
378	0.215
378	0.216
378	0.216
379	0.216
379	0.216
380	0.216
380	0.216
381	0.216
381	0.216
382	0.215
382	0.215
383	0.215
383	0.214
383	0.214
384	0.213
384	0.213
385	0.213
385	0.212
386	0.212
386	0.212
387	0.212
387	0.212
388	0.212
388	0.212
389	0.211
389	0.211
389	0.211
390	0.211
390	0.211
391	0.212
391	0.212
392	0.212
392	0.212
393	0.212
393	0.212
394	0.212
394	0.212
394	0.212
395	0.212
395	0.211
396	0.211
396	0.211
397	0.211
397	0.211
398	0.211
398	0.211
399	0.211
399	0.211
400	0.211
400	0.21
400	0.21
401	0.209
401	0.208
402	0.207
402	0.206
403	0.206
403	0.206
404	0.206
404	0.205
405	0.205
405	0.205
405	0.205
406	0.205
406	0.204
407	0.204
407	0.204
408	0.204
408	0.203
409	0.203
409	0.203
410	0.203
410	0.202
411	0.202
411	0.202
411	0.202
412	0.202
412	0.201
413	0.201
413	0.201
414	0.2
414	0.2
415	0.199
415	0.199
416	0.199
416	0.198
416	0.198
417	0.197
417	0.197
418	0.198
418	0.198
419	0.198
419	0.199
420	0.2
420	0.201
421	0.201
421	0.202
421	0.202
422	0.202
422	0.202
423	0.202
423	0.202
424	0.201
424	0.2
425	0.199
425	0.198
426	0.198
426	0.197
427	0.197
427	0.197
427	0.198
428	0.198
428	0.199
429	0.2
429	0.2
430	0.201
430	0.2
431	0.2
431	0.2
432	0.2
432	0.199
432	0.198
433	0.197
433	0.196
434	0.196
434	0.195
435	0.195
435	0.195
436	0.195
436	0.196
437	0.195
437	0.196
437	0.196
438	0.195
438	0.195
439	0.195
439	0.195
440	0.194
440	0.194
441	0.194
441	0.194
442	0.195
442	0.195
442	0.196
443	0.197
443	0.197
444	0.198
444	0.198
445	0.199
445	0.199
446	0.199
446	0.199
447	0.199
447	0.198
447	0.198
448	0.198
448	0.198
449	0.198
449	0.197
450	0.197
450	0.197
451	0.196
451	0.196
452	0.196
452	0.195
452	0.195
453	0.195
453	0.194
454	0.193
454	0.192
455	0.192
455	0.191
456	0.191
456	0.191
457	0.191
457	0.191
458	0.191
458	0.191
458	0.191
459	0.192
459	0.192
460	0.192
460	0.191
461	0.191
461	0.19
462	0.191
462	0.19
463	0.191
463	0.192
463	0.192
464	0.193
464	0.193
465	0.193
465	0.193
466	0.193
466	0.194
467	0.194
467	0.193
467	0.193
468	0.191
468	0.19
469	0.188
469	0.188
470	0.187
470	0.187
471	0.187
471	0.187
472	0.187
472	0.187
472	0.187
473	0.188
473	0.189
474	0.19
474	0.191
475	0.192
475	0.193
476	0.194
476	0.194
477	0.194
477	0.195
477	0.195
478	0.195
478	0.196
479	0.196
479	0.197
480	0.198
480	0.199
481	0.199
481	0.2
482	0.201
482	0.203
482	0.204
483	0.206
483	0.209
484	0.212
484	0.214
485	0.216
485	0.218
486	0.219
486	0.22
487	0.221
487	0.222
487	0.222
488	0.222
488	0.221
489	0.219
489	0.218
490	0.217
490	0.217
491	0.217
491	0.217
492	0.217
492	0.218
492	0.218
493	0.219
493	0.221
494	0.223
494	0.225
495	0.227
495	0.229
496	0.23
496	0.231
496	0.232
497	0.233
497	0.234
498	0.235
498	0.236
499	0.236
499	0.236
500	0.237
500	0.238
501	0.24
501	0.242
501	0.244
502	0.245
502	0.247
503	0.249
503	0.25
504	0.251
504	0.252
505	0.253
505	0.253
506	0.254
506	0.254
506	0.255
507	0.256
507	0.257
508	0.257
508	0.258
509	0.259
509	0.26
510	0.261
510	0.261
511	0.262
511	0.262
511	0.262
512	0.262
512	0.263
513	0.263
513	0.262
514	0.262
514	0.261
515	0.261
515	0.26
515	0.259
516	0.259
516	0.259
517	0.259
517	0.26
518	0.26
518	0.26
519	0.259
519	0.258
520	0.256
520	0.255
520	0.253
521	0.25
521	0.248
522	0.245
522	0.242
523	0.241
523	0.24
524	0.24
524	0.241
524	0.242
525	0.244
525	0.247
526	0.25
526	0.252
527	0.255
527	0.258
528	0.26
528	0.262
529	0.263
529	0.263
529	0.264
530	0.265
530	0.265
531	0.265
531	0.266
532	0.265
532	0.265
533	0.265
533	0.265
533	0.265
534	0.264
534	0.263
535	0.262
535	0.261
536	0.261
536	0.26
537	0.259
537	0.258
538	0.257
538	0.256
538	0.254
539	0.253
539	0.252
540	0.251
540	0.25
541	0.248
541	0.246
542	0.244
542	0.242
542	0.241
543	0.239
543	0.238
544	0.236
544	0.235
545	0.233
545	0.233
546	0.232
546	0.231
547	0.229
547	0.227
547	0.224
548	0.222
548	0.219
549	0.217
549	0.215
550	0.213
550	0.21
551	0.208
551	0.205
551	0.203
552	0.202
552	0.201
553	0.199
553	0.199
554	0.198
554	0.197
555	0.194
555	0.192
556	0.189
556	0.186
556	0.183
557	0.18
557	0.178
558	0.176
558	0.174
559	0.172
559	0.172
560	0.171
560	0.171
560	0.17
561	0.17
561	0.17
562	0.17
562	0.168
563	0.167
563	0.164
564	0.162
564	0.159
564	0.156
565	0.154
565	0.152
566	0.15
566	0.149
567	0.148
567	0.149
568	0.149
568	0.15
568	0.151
569	0.153
569	0.155
570	0.155
570	0.155
571	0.155
571	0.156
572	0.156
572	0.156
573	0.155
573	0.155
573	0.153
574	0.152
574	0.151
575	0.151
575	0.151
576	0.152
576	0.151
577	0.149
577	0.148
577	0.147
578	0.146
578	0.146
579	0.147
579	0.148
580	0.148
580	0.145
581	0.143
581	0.141
581	0.14
582	0.14
582	0.139
583	0.14
583	0.139
584	0.136
584	0.133
585	0.131
585	0.131
585	0.131
586	0.131
586	0.131
587	0.13
587	0.128
588	0.125
588	0.123
589	0.122
589	0.121
590	0.12
590	0.119
590	0.12
591	0.121
591	0.12
592	0.12
592	0.119
593	0.118
593	0.118
594	0.117
594	0.116
594	0.115
595	0.115
595	0.113
596	0.112
596	0.112
597	0.114
597	0.116
598	0.117
598	0.118
598	0.12
599	0.12
599	0.12
600	0.12
600	0.119
601	0.118
601	0.117
602	0.114
602	0.113
602	0.111
603	0.11
603	0.11
604	0.111
604	0.111
605	0.112
605	0.114
606	0.114
606	0.114
606	0.113
607	0.113
607	0.113
608	0.113
608	0.111
609	0.11
609	0.11
610	0.108
610	0.107
610	0.106
611	0.107
611	0.107
612	0.108
612	0.109
613	0.111
613	0.112
614	0.112
614	0.111
614	0.111
615	0.111
615	0.111
616	0.11
616	0.11
617	0.109
617	0.108
618	0.107
618	0.107
618	0.107
619	0.107
619	0.108
620	0.11
620	0.111
621	0.112
621	0.113
622	0.113
622	0.114
622	0.114
623	0.114
623	0.116
624	0.116
624	0.116
625	0.116
625	0.117
626	0.117
626	0.117
626	0.117
627	0.118
627	0.118
628	0.119
628	0.119
629	0.119
629	0.119
630	0.119
630	0.119
630	0.119
631	0.12
631	0.12
632	0.12
632	0.121
633	0.122
633	0.123
634	0.125
634	0.127
634	0.129
635	0.131
635	0.132
636	0.134
636	0.135
637	0.136
637	0.137
638	0.139
638	0.141
638	0.142
639	0.143
639	0.144
640	0.145
640	0.147
641	0.149
641	0.151
642	0.154
642	0.156
642	0.158
643	0.16
643	0.161
644	0.163
644	0.165
645	0.167
645	0.169
646	0.171
646	0.174
646	0.178
647	0.181
647	0.185
648	0.187
648	0.19
649	0.193
649	0.196
650	0.199
650	0.202
650	0.204
651	0.207
651	0.209
652	0.211
652	0.214
653	0.217
653	0.226
653	0.232
654	0.188
654	0.154
655	0.159
655	0.162
656	0.164
656	0.165
657	0.167
657	0.169
657	0.17
658	0.166
658	0.16
659	0.2
659	0.254
660	0.257
660	0.259
661	0.261
661	0.263
661	0.265
662	0.269
662	0.272
663	0.275
663	0.279
664	0.282
664	0.284
665	0.287
665	0.29
665	0.293
666	0.296
666	0.299
667	0.302
667	0.305
668	0.308
668	0.311
669	0.314
669	0.317
669	0.322
670	0.326
670	0.33
671	0.333
671	0.335
672	0.337
672	0.338
672	0.34
673	0.341
673	0.342
674	0.343
674	0.344
675	0.344
675	0.345
676	0.347
676	0.349
676	0.35
677	0.353
677	0.355
678	0.357
678	0.359
679	0.36
679	0.361
680	0.363
680	0.365
680	0.365
681	0.365
681	0.366
682	0.367
682	0.369
683	0.37
683	0.372
684	0.375
684	0.376
684	0.376
685	0.377
685	0.379
686	0.38
686	0.381
687	0.381
687	0.381
687	0.381
688	0.38
688	0.379
689	0.379
689	0.38
690	0.38
690	0.379
691	0.378
691	0.378
691	0.378
692	0.377
692	0.376
693	0.376
693	0.376
694	0.376
694	0.374
695	0.374
695	0.376
695	0.376
696	0.376
696	0.375
697	0.374
697	0.373
698	0.372
698	0.37
698	0.367
699	0.366
699	0.363
700	0.359
700	0.356
701	0.354
701	0.352
702	0.35
702	0.348
702	0.346
703	0.344
703	0.342
704	0.34
704	0.339
705	0.338
705	0.336
705	0.334
706	0.333
706	0.331
707	0.329
707	0.327
708	0.325
708	0.323
709	0.321
709	0.319
709	0.316
710	0.313
710	0.311
711	0.309
711	0.307
712	0.305
712	0.303
713	0.301
713	0.299
713	0.296
714	0.293
714	0.29
715	0.287
715	0.284
716	0.281
716	0.278
716	0.275
717	0.273
717	0.271
718	0.268
718	0.266
719	0.264
719	0.263
720	0.261
720	0.259
720	0.257
721	0.254
721	0.251
722	0.249
722	0.246
723	0.243
723	0.24
723	0.238
724	0.234
724	0.231
725	0.228
725	0.226
726	0.223
726	0.221
727	0.218
727	0.216
727	0.214
728	0.212
728	0.21
729	0.21
729	0.208
730	0.207
730	0.205
730	0.204
731	0.203
731	0.202
732	0.201
732	0.199
733	0.197
733	0.195
734	0.193
734	0.191
734	0.189
735	0.188
735	0.186
736	0.183
736	0.181
737	0.18
737	0.179
737	0.177
738	0.175
738	0.172
739	0.17
739	0.168
740	0.166
740	0.164
741	0.162
741	0.16
741	0.156
742	0.152
742	0.148
743	0.145
743	0.142
744	0.14
744	0.137
744	0.135
745	0.132
745	0.129
746	0.127
746	0.125
747	0.124
747	0.123
748	0.122
748	0.121
748	0.119
749	0.118
749	0.117
750	0.116
750	0.114
751	0.114
751	0.113
751	0.113
752	0.112
752	0.111
753	0.11
753	0.109
754	0.109
754	0.108
754	0.108
755	0.107
755	0.107
756	0.106
756	0.104
757	0.102
757	0.101
758	0.1
758	0.099
758	0.098
759	0.096
759	0.093
760	0.09
760	0.087
761	0.085
761	0.083
761	0.082
762	0.079
762	0.078
763	0.077
763	0.075
764	0.073
764	0.071
764	0.069
765	0.067
765	0.066
766	0.065
766	0.065
767	0.064
767	0.062
768	0.059
768	0.057
768	0.056
769	0.056
769	0.055
770	0.053
770	0.052
771	0.049
771	0.046
771	0.043
772	0.04
772	0.038
773	0.036
773	0.033
774	0.029
774	0.026
775	0.023
775	0.02
775	0.016
776	0.013
776	0.009
777	0.005
777	0.001
778	-0.004
778	-0.01
778	-0.015
779	-0.018
779	-0.022
780	-0.028
780	-0.033
781	-0.039
781	-0.045
781	-0.05
782	-0.055
782	-0.061
783	-0.066
783	-0.07
784	-0.073
784	-0.077
784	-0.079
785	-0.082
785	-0.084
786	-0.084
786	-0.082
787	-0.078
787	-0.075
788	-0.074
788	-0.074
788	-0.075
789	-0.077
789	-0.077
790	-0.074
790	-0.073
791	-0.073
791	-0.075
791	-0.077
792	-0.072
792	-0.063
793	-0.057
793	-0.053
794	-0.052
794	-0.053
794	-0.057
795	-0.059
795	-0.058
796	-0.058
796	-0.061
797	-0.069
797	-0.078
797	-0.084
798	-0.089
798	-0.092
799	-0.092
799	-0.092
800	-0.092
800	-0.094
801	-0.097
801	-0.099
801	-0.099
802	-0.101
802	-0.103
803	-0.104
803	-0.104
804	-0.103
804	-0.098
804	-0.092
805	-0.089
805	-0.087
806	-0.085
806	-0.083
807	-0.082
807	-0.081
807	-0.081
808	-0.08
808	-0.081
809	-0.085
809	-0.09
810	-0.093
810	-0.095
810	-0.098
811	-0.1
811	-0.1
812	-0.096
812	-0.093
813	-0.093
813	-0.094
813	-0.095
814	-0.096
814	-0.096
815	-0.093
815	-0.091
816	-0.089
816	-0.089
817	-0.094
817	-0.097
817	-0.098
818	-0.097
818	-0.094
819	-0.089
819	-0.086
820	-0.087
820	-0.089
820	-0.089
821	-0.086
821	-0.082
822	-0.077
822	-0.072
823	-0.066
823	-0.062
823	-0.06
824	-0.055
824	-0.047
825	-0.038
825	-0.029
826	-0.021
826	-0.015
826	-0.01
827	-0.004
827	0
828	0.005
828	0.009
829	0.013
829	0.017
829	0.019
830	0.022
830	0.024
831	0.028
831	0.031
832	0.033
832	0.035
832	0.037
833	0.039
833	0.041
834	0.042
834	0.043
835	0.044
835	0.045
835	0.046
836	0.046
836	0.047
837	0.047
837	0.047
838	0.047
838	0.047
839	0.047
839	0.046
839	0.046
840	0.046
840	0.046
841	0.047
841	0.047
842	0.048
842	0.049
842	0.05
843	0.051
843	0.052
844	0.053
844	0.054
845	0.055
845	0.057
845	0.058
846	0.059
846	0.06
847	0.061
847	0.063
848	0.064
848	0.065
848	0.066
849	0.067
849	0.067
850	0.068
850	0.067
851	0.068
851	0.068
851	0.068
852	0.068
852	0.069
853	0.069
853	0.069
854	0.07
854	0.071
854	0.071
855	0.071
855	0.072
856	0.072
856	0.072
857	0.072
857	0.072
857	0.072
858	0.071
858	0.071
859	0.07
859	0.069
860	0.069
860	0.068
860	0.068
861	0.067
861	0.066
862	0.065
862	0.064
863	0.064
863	0.063
863	0.063
864	0.063
864	0.063
865	0.064
865	0.064
866	0.065
866	0.065
866	0.067
867	0.068
867	0.069
868	0.07
868	0.071
869	0.072
869	0.073
869	0.073
870	0.073
870	0.073
871	0.072
871	0.072
872	0.071
872	0.07
872	0.069
873	0.069
873	0.068
874	0.068
874	0.068
875	0.069
875	0.069
875	0.07
876	0.07
876	0.07
877	0.071
877	0.07
878	0.07
878	0.07
878	0.069
879	0.069
879	0.069
880	0.068
880	0.068
881	0.067
881	0.067
881	0.067
882	0.066
882	0.066
883	0.066
883	0.066
884	0.066
884	0.066
884	0.066
885	0.066
885	0.066
886	0.067
886	0.067
887	0.067
887	0.067
887	0.067
888	0.067
888	0.067
889	0.068
889	0.068
890	0.069
890	0.069
890	0.069
891	0.07
891	0.07
892	0.07
892	0.071
893	0.071
893	0.072
893	0.072
894	0.073
894	0.073
895	0.074
895	0.074
895	0.075
896	0.075
896	0.076
897	0.077
897	0.077
898	0.078
898	0.078
898	0.078
899	0.078
899	0.079
900	0.078
900	0.078
901	0.077
901	0.077
901	0.077
902	0.076
902	0.076
903	0.075
903	0.074
904	0.074
904	0.073
904	0.072
905	0.072
905	0.071
906	0.071
906	0.071
907	0.07
907	0.07
907	0.07
908	0.071
908	0.071
909	0.072
909	0.073
910	0.073
910	0.074
910	0.075
911	0.076
911	0.077
912	0.078
912	0.079
913	0.079
913	0.08
913	0.081
914	0.082
914	0.082
915	0.082
915	0.081
916	0.08
916	0.08
916	0.079
917	0.078
917	0.077
918	0.076
918	0.075
918	0.075
919	0.074
919	0.074
920	0.074
920	0.075
921	0.075
921	0.075
921	0.075
922	0.075
922	0.075
923	0.075
923	0.075
924	0.075
924	0.075
924	0.074
925	0.073
925	0.072
926	0.071
926	0.071
927	0.07
927	0.069
927	0.068
928	0.068
928	0.068
929	0.068
929	0.069
930	0.069
930	0.07
930	0.072
931	0.073
931	0.074
932	0.076
932	0.077
933	0.079
933	0.08
933	0.081
934	0.081
934	0.082
935	0.082
935	0.082
935	0.083
936	0.083
936	0.083
937	0.084
937	0.084
938	0.085
938	0.085
938	0.086
939	0.087
939	0.087
940	0.088
940	0.088
941	0.089
941	0.089
941	0.088
942	0.088
942	0.087
943	0.086
943	0.086
944	0.085
944	0.085
944	0.085
945	0.085
945	0.085
946	0.085
946	0.085
946	0.084
947	0.084
947	0.084
948	0.084
948	0.083
949	0.083
949	0.083
949	0.082
950	0.082
950	0.082
951	0.082
951	0.081
952	0.081
952	0.081
952	0.081
953	0.081
953	0.081
954	0.081
954	0.081
955	0.081
955	0.081
955	0.081
956	0.082
956	0.081
957	0.081
957	0.081
957	0.08
958	0.079
958	0.079
959	0.078
959	0.077
960	0.076
960	0.075
960	0.073
961	0.072
961	0.071
962	0.071
962	0.07
963	0.07
963	0.069
963	0.069
964	0.069
964	0.07
965	0.07
965	0.071
966	0.072
966	0.073
966	0.073
967	0.074
967	0.074
968	0.074
968	0.074
968	0.074
969	0.073
969	0.073
970	0.072
970	0.071
971	0.07
971	0.069
971	0.068
972	0.068
972	0.067
973	0.067
973	0.067
974	0.067
974	0.067
974	0.068
975	0.069
975	0.07
976	0.071
976	0.072
976	0.072
977	0.073
977	0.074
978	0.074
978	0.075
979	0.075
979	0.076
979	0.076
980	0.076
980	0.076
981	0.076
981	0.076
982	0.076
982	0.077
982	0.077
983	0.077
983	0.077
984	0.077
984	0.077
984	0.077
985	0.077
985	0.077
986	0.076
986	0.075
987	0.074
987	0.073
987	0.072
988	0.072
988	0.071
989	0.07
989	0.07
990	0.069
990	0.069
990	0.069
991	0.07
991	0.07
992	0.071
992	0.072
992	0.072
993	0.072
993	0.072
994	0.072
994	0.072
995	0.072
995	0.072
995	0.071
996	0.071
996	0.07
997	0.07
997	0.07
997	0.07
998	0.07
998	0.071
999	0.072
999	0.072
1000	0.073
1000	0.074
1000	0.075
1001	0.076
1001	0.077
1002	0.077
1002	0.078
1003	0.078
1003	0.078
1003	0.078
1004	0.078
1004	0.078
1005	0.077
1005	0.076
1005	0.076
1006	0.075
1006	0.074
1007	0.074
1007	0.073
1008	0.073
1008	0.072
1008	0.072
1009	0.072
1009	0.072
1010	0.072
1010	0.072
1010	0.072
1011	0.073
1011	0.073
1012	0.073
1012	0.073
1013	0.073
1013	0.073
1013	0.073
1014	0.072
1014	0.071
1015	0.071
1015	0.07
1016	0.069
1016	0.068
1016	0.068
1017	0.066
1017	0.065
1018	0.065
1018	0.064
1018	0.063
1019	0.063
1019	0.062
1020	0.061
1020	0.06
1021	0.06
1021	0.059
1021	0.059
1022	0.059
1022	0.059
1023	0.058
1023	0.058
1023	0.058
1024	0.057
1024	0.057
1025	0.056
1025	0.056
1026	0.056
1026	0.055
1026	0.055
1027	0.055
1027	0.055
1028	0.055
1028	0.055
1028	0.055
1029	0.056
1029	0.056
1030	0.057
1030	0.057
1031	0.057
1031	0.058
1031	0.058
1032	0.058
1032	0.059
1033	0.059
1033	0.059
1033	0.059
1034	0.059
1034	0.059
1035	0.059
1035	0.058
1036	0.058
1036	0.058
1036	0.058
1037	0.059
1037	0.059
1038	0.06
1038	0.06
1039	0.061
1039	0.062
1039	0.063
1040	0.064
1040	0.065
1041	0.065
1041	0.065
1041	0.065
1042	0.065
1042	0.065
1043	0.065
1043	0.064
1044	0.064
1044	0.064
1044	0.064
1045	0.064
1045	0.064
1046	0.064
1046	0.064
1046	0.065
1047	0.065
1047	0.065
1048	0.065
1048	0.065
1049	0.065
1049	0.064
1049	0.063
1050	0.063
1050	0.062
1051	0.061
1051	0.061
1051	0.06
1052	0.06
1052	0.06
1053	0.059
1053	0.059
1053	0.059
1054	0.059
1054	0.059
1055	0.06
1055	0.06
1056	0.06
1056	0.06
1056	0.06
1057	0.06
1057	0.06
1058	0.061
1058	0.062
1058	0.062
1059	0.064
1059	0.064
1060	0.065
1060	0.066
1061	0.067
1061	0.068
1061	0.07
1062	0.071
1062	0.071
1063	0.072
1063	0.073
1063	0.073
1064	0.074
1064	0.075
1065	0.076
1065	0.077
1066	0.077
1066	0.078
1066	0.079
1067	0.08
1067	0.081
1068	0.082
1068	0.083
1068	0.084
1069	0.085
1069	0.085
1070	0.086
1070	0.087
1071	0.088
1071	0.089
1071	0.09
1072	0.091
1072	0.092
1073	0.094
1073	0.095
1073	0.097
1074	0.098
1074	0.1
1075	0.1
1075	0.101
1076	0.101
1076	0.103
1076	0.103
1077	0.104
1077	0.105
1078	0.106
1078	0.107
1078	0.109
1079	0.111
1079	0.113
1080	0.115
1080	0.117
1080	0.118
1081	0.12
1081	0.122
1082	0.123
1082	0.125
1083	0.127
1083	0.128
1083	0.131
1084	0.133
1084	0.136
1085	0.138
1085	0.141
1085	0.144
1086	0.146
1086	0.149
1087	0.152
1087	0.156
1088	0.159
1088	0.162
1088	0.166
1089	0.169
1089	0.174
1090	0.18
1090	0.185
1090	0.191
1091	0.197
1091	0.205
1092	0.212
1092	0.221
1092	0.229
1093	0.236
1093	0.246
1094	0.254
1094	0.263
1095	0.273
1095	0.284
1095	0.3
1096	0.312
1096	0.326
1097	0.343
1097	0.361
1097	0.382
1098	0.402
1098	0.425
1099	0.452
1099	0.482
1100	0.514
1100	0.55
1100	0.591
1101	0.641
1101	0.696
1102	0.775
1102	0.878
1102	1.022
1103	1.26
1103	1.859
1104	-0
1104	-0
1104	-0
1105	-0
1105	-0
1106	-0
1106	-0
1107	-0
1107	-0
1107	-0
1108	-0
1108	-0
1109	-0
1109	-0
1109	-0
1110	-0
1110	-0
1111	-0
1111	-0
