Data from 15c-2-3a_Absorbance__104__01912.txt Node

Date: Tue Jan 16 12:50:36 CET 2024
User: Marek
Spectrometer: MAYP115816
Trigger mode: 0
Integration Time (sec): 2.000000E-1
Scans to average: 10
Electric dark correction enabled: true
Nonlinearity correction enabled: true
Boxcar width: 5
XAxis mode: Wavelengths
Number of Pixels in Spectrum: 2068
>>>>>Begin Spectral Data<<<<<
199	-2.071
199	-1.884
200	-1.75
200	-1.63
201	-1.557
201	-1.505
202	-1.43
202	-1.369
203	-1.32
203	-1.272
204	-1.246
204	-1.22
205	-1.201
205	-1.189
205	-1.186
206	-1.181
206	-1.178
207	-1.175
207	-1.174
208	-1.171
208	-1.17
209	-1.165
209	-1.164
210	-1.163
210	-1.16
211	-1.159
211	-1.158
212	-1.157
212	-1.157
213	-1.154
213	-1.154
213	-1.154
214	-1.152
214	-1.151
215	-1.149
215	-1.15
216	-1.146
216	-1.145
217	-1.142
217	-1.14
218	-1.136
218	-1.132
219	-1.127
219	-1.126
220	-1.124
220	-1.123
221	-1.119
221	-1.117
221	-1.112
222	-1.108
222	-1.103
223	-1.098
223	-1.093
224	-1.088
224	-1.079
225	-1.07
225	-1.06
226	-1.052
226	-1.042
227	-1.029
227	-1.016
228	-1
228	-0.984
229	-0.963
229	-0.939
229	-0.915
230	-0.886
230	-0.854
231	-0.819
231	-0.779
232	-0.74
232	-0.697
233	-0.651
233	-0.605
234	-0.557
234	-0.509
235	-0.46
235	-0.412
236	-0.365
236	-0.318
236	-0.272
237	-0.227
237	-0.185
238	-0.145
238	-0.107
239	-0.07
239	-0.036
240	-0.004
240	0.025
241	0.053
241	0.079
242	0.102
242	0.124
243	0.145
243	0.163
243	0.18
244	0.197
244	0.212
245	0.225
245	0.238
246	0.25
246	0.262
247	0.271
247	0.281
248	0.29
248	0.298
249	0.306
249	0.313
250	0.319
250	0.326
250	0.331
251	0.337
251	0.342
252	0.347
252	0.352
253	0.356
253	0.36
254	0.364
254	0.368
255	0.371
255	0.374
256	0.377
256	0.379
257	0.382
257	0.383
258	0.385
258	0.387
258	0.388
259	0.389
259	0.39
260	0.392
260	0.392
261	0.393
261	0.393
262	0.393
262	0.394
263	0.394
263	0.394
264	0.394
264	0.394
265	0.395
265	0.394
265	0.394
266	0.394
266	0.393
267	0.393
267	0.393
268	0.392
268	0.391
269	0.39
269	0.389
270	0.388
270	0.387
271	0.385
271	0.384
272	0.383
272	0.382
272	0.38
273	0.379
273	0.378
274	0.377
274	0.376
275	0.374
275	0.373
276	0.372
276	0.37
277	0.368
277	0.366
278	0.364
278	0.362
278	0.36
279	0.358
279	0.356
280	0.355
280	0.353
281	0.352
281	0.35
282	0.349
282	0.349
283	0.348
283	0.347
284	0.346
284	0.346
285	0.345
285	0.343
285	0.342
286	0.341
286	0.34
287	0.339
287	0.338
288	0.337
288	0.336
289	0.334
289	0.333
290	0.332
290	0.331
291	0.33
291	0.329
292	0.328
292	0.327
292	0.326
293	0.325
293	0.324
294	0.323
294	0.323
295	0.322
295	0.321
296	0.32
296	0.319
297	0.319
297	0.318
298	0.317
298	0.316
298	0.316
299	0.315
299	0.314
300	0.313
300	0.313
301	0.312
301	0.311
302	0.311
302	0.31
303	0.309
303	0.309
304	0.308
304	0.307
305	0.306
305	0.306
305	0.305
306	0.305
306	0.304
307	0.303
307	0.302
308	0.301
308	0.3
309	0.299
309	0.298
310	0.298
310	0.297
311	0.296
311	0.295
311	0.294
312	0.294
312	0.293
313	0.292
313	0.291
314	0.29
314	0.29
315	0.289
315	0.288
316	0.287
316	0.286
317	0.286
317	0.285
318	0.284
318	0.283
318	0.282
319	0.282
319	0.281
320	0.28
320	0.279
321	0.278
321	0.277
322	0.276
322	0.275
323	0.274
323	0.273
324	0.273
324	0.272
324	0.271
325	0.27
325	0.27
326	0.269
326	0.268
327	0.267
327	0.266
328	0.266
328	0.265
329	0.264
329	0.264
330	0.263
330	0.262
330	0.261
331	0.26
331	0.259
332	0.259
332	0.258
333	0.257
333	0.256
334	0.255
334	0.254
335	0.253
335	0.253
336	0.252
336	0.251
336	0.25
337	0.25
337	0.249
338	0.248
338	0.247
339	0.247
339	0.246
340	0.246
340	0.245
341	0.244
341	0.244
342	0.243
342	0.243
342	0.242
343	0.242
343	0.241
344	0.241
344	0.24
345	0.24
345	0.239
346	0.238
346	0.238
347	0.237
347	0.237
348	0.236
348	0.235
348	0.234
349	0.234
349	0.233
350	0.232
350	0.231
351	0.231
351	0.23
352	0.229
352	0.228
353	0.227
353	0.227
354	0.226
354	0.225
354	0.223
355	0.222
355	0.221
356	0.22
356	0.219
357	0.218
357	0.218
358	0.218
358	0.218
359	0.219
359	0.219
360	0.22
360	0.221
360	0.221
361	0.222
361	0.222
362	0.223
362	0.223
363	0.223
363	0.223
364	0.223
364	0.222
365	0.222
365	0.221
366	0.221
366	0.221
366	0.22
367	0.22
367	0.22
368	0.219
368	0.219
369	0.218
369	0.218
370	0.218
370	0.217
371	0.217
371	0.216
372	0.216
372	0.216
372	0.216
373	0.215
373	0.215
374	0.215
374	0.215
375	0.215
375	0.215
376	0.214
376	0.215
377	0.215
377	0.215
378	0.215
378	0.215
378	0.216
379	0.216
379	0.216
380	0.216
380	0.216
381	0.216
381	0.216
382	0.216
382	0.215
383	0.215
383	0.215
383	0.214
384	0.214
384	0.213
385	0.213
385	0.213
386	0.213
386	0.213
387	0.213
387	0.212
388	0.212
388	0.212
389	0.212
389	0.212
389	0.212
390	0.212
390	0.212
391	0.212
391	0.212
392	0.212
392	0.212
393	0.212
393	0.212
394	0.212
394	0.212
394	0.212
395	0.212
395	0.211
396	0.211
396	0.211
397	0.211
397	0.212
398	0.212
398	0.211
399	0.211
399	0.211
400	0.211
400	0.211
400	0.21
401	0.21
401	0.209
402	0.208
402	0.207
403	0.207
403	0.207
404	0.206
404	0.206
405	0.206
405	0.205
405	0.205
406	0.205
406	0.205
407	0.205
407	0.205
408	0.205
408	0.204
409	0.204
409	0.203
410	0.203
410	0.203
411	0.203
411	0.203
411	0.203
412	0.202
412	0.202
413	0.202
413	0.201
414	0.201
414	0.201
415	0.2
415	0.2
416	0.2
416	0.199
416	0.199
417	0.199
417	0.199
418	0.199
418	0.199
419	0.2
419	0.2
420	0.201
420	0.202
421	0.202
421	0.203
421	0.203
422	0.203
422	0.203
423	0.203
423	0.203
424	0.202
424	0.201
425	0.2
425	0.199
426	0.199
426	0.198
427	0.198
427	0.198
427	0.199
428	0.199
428	0.2
429	0.201
429	0.202
430	0.202
430	0.202
431	0.202
431	0.201
432	0.201
432	0.201
432	0.2
433	0.198
433	0.198
434	0.197
434	0.196
435	0.196
435	0.196
436	0.196
436	0.197
437	0.197
437	0.197
437	0.197
438	0.197
438	0.196
439	0.196
439	0.196
440	0.195
440	0.195
441	0.195
441	0.195
442	0.196
442	0.196
442	0.197
443	0.197
443	0.198
444	0.198
444	0.199
445	0.199
445	0.199
446	0.2
446	0.2
447	0.199
447	0.199
447	0.199
448	0.199
448	0.199
449	0.198
449	0.198
450	0.198
450	0.198
451	0.197
451	0.197
452	0.197
452	0.196
452	0.196
453	0.195
453	0.195
454	0.194
454	0.194
455	0.193
455	0.193
456	0.192
456	0.192
457	0.192
457	0.192
458	0.192
458	0.192
458	0.192
459	0.193
459	0.193
460	0.193
460	0.192
461	0.192
461	0.192
462	0.192
462	0.192
463	0.192
463	0.193
463	0.194
464	0.194
464	0.194
465	0.194
465	0.195
466	0.195
466	0.195
467	0.195
467	0.195
467	0.194
468	0.192
468	0.191
469	0.189
469	0.188
470	0.188
470	0.188
471	0.187
471	0.187
472	0.187
472	0.187
472	0.188
473	0.189
473	0.19
474	0.191
474	0.192
475	0.193
475	0.194
476	0.194
476	0.194
477	0.195
477	0.195
477	0.196
478	0.196
478	0.197
479	0.197
479	0.198
480	0.198
480	0.199
481	0.2
481	0.201
482	0.202
482	0.203
482	0.204
483	0.206
483	0.209
484	0.212
484	0.214
485	0.216
485	0.218
486	0.219
486	0.22
487	0.221
487	0.222
487	0.222
488	0.222
488	0.221
489	0.219
489	0.218
490	0.218
490	0.217
491	0.217
491	0.217
492	0.218
492	0.218
492	0.219
493	0.22
493	0.221
494	0.223
494	0.225
495	0.227
495	0.229
496	0.23
496	0.231
496	0.232
497	0.233
497	0.234
498	0.235
498	0.236
499	0.236
499	0.236
500	0.237
500	0.239
501	0.24
501	0.242
501	0.244
502	0.245
502	0.247
503	0.249
503	0.25
504	0.251
504	0.252
505	0.253
505	0.253
506	0.254
506	0.255
506	0.255
507	0.256
507	0.257
508	0.257
508	0.257
509	0.258
509	0.259
510	0.26
510	0.261
511	0.261
511	0.261
511	0.261
512	0.261
512	0.262
513	0.261
513	0.261
514	0.26
514	0.26
515	0.26
515	0.259
515	0.259
516	0.258
516	0.258
517	0.258
517	0.259
518	0.259
518	0.259
519	0.259
519	0.257
520	0.256
520	0.254
520	0.252
521	0.25
521	0.248
522	0.245
522	0.242
523	0.24
523	0.239
524	0.238
524	0.239
524	0.24
525	0.242
525	0.244
526	0.246
526	0.249
527	0.252
527	0.255
528	0.257
528	0.26
529	0.261
529	0.262
529	0.262
530	0.263
530	0.263
531	0.264
531	0.264
532	0.264
532	0.263
533	0.264
533	0.264
533	0.263
534	0.263
534	0.262
535	0.261
535	0.26
536	0.26
536	0.259
537	0.258
537	0.258
538	0.256
538	0.255
538	0.254
539	0.253
539	0.252
540	0.251
540	0.25
541	0.248
541	0.246
542	0.244
542	0.242
542	0.241
543	0.239
543	0.238
544	0.236
544	0.235
545	0.233
545	0.232
546	0.232
546	0.231
547	0.229
547	0.227
547	0.224
548	0.222
548	0.219
549	0.217
549	0.216
550	0.214
550	0.211
551	0.209
551	0.206
551	0.204
552	0.203
552	0.202
553	0.201
553	0.2
554	0.199
554	0.198
555	0.196
555	0.193
556	0.19
556	0.187
556	0.184
557	0.182
557	0.179
558	0.177
558	0.175
559	0.174
559	0.173
560	0.172
560	0.172
560	0.172
561	0.172
561	0.172
562	0.171
562	0.17
563	0.168
563	0.166
564	0.163
564	0.16
564	0.158
565	0.155
565	0.154
566	0.152
566	0.151
567	0.15
567	0.151
568	0.151
568	0.152
568	0.153
569	0.155
569	0.157
570	0.158
570	0.157
571	0.158
571	0.159
572	0.158
572	0.158
573	0.158
573	0.157
573	0.156
574	0.155
574	0.154
575	0.154
575	0.154
576	0.155
576	0.154
577	0.152
577	0.151
577	0.15
578	0.149
578	0.149
579	0.15
579	0.152
580	0.151
580	0.149
581	0.146
581	0.144
581	0.143
582	0.143
582	0.143
583	0.143
583	0.142
584	0.14
584	0.136
585	0.134
585	0.134
585	0.134
586	0.134
586	0.134
587	0.133
587	0.131
588	0.128
588	0.126
589	0.125
589	0.124
590	0.123
590	0.122
590	0.123
591	0.124
591	0.123
592	0.123
592	0.121
593	0.121
593	0.121
594	0.12
594	0.119
594	0.118
595	0.118
595	0.116
596	0.115
596	0.116
597	0.118
597	0.12
598	0.121
598	0.122
598	0.123
599	0.124
599	0.124
600	0.123
600	0.122
601	0.122
601	0.12
602	0.118
602	0.117
602	0.115
603	0.114
603	0.114
604	0.114
604	0.115
605	0.116
605	0.117
606	0.118
606	0.117
606	0.117
607	0.117
607	0.117
608	0.116
608	0.115
609	0.114
609	0.114
610	0.112
610	0.111
610	0.11
611	0.11
611	0.111
612	0.111
612	0.112
613	0.114
613	0.115
614	0.115
614	0.115
614	0.115
615	0.114
615	0.114
616	0.114
616	0.113
617	0.113
617	0.112
618	0.111
618	0.111
618	0.11
619	0.111
619	0.112
620	0.113
620	0.115
621	0.115
621	0.116
622	0.117
622	0.118
622	0.118
623	0.118
623	0.119
624	0.12
624	0.12
625	0.12
625	0.12
626	0.12
626	0.12
626	0.12
627	0.121
627	0.121
628	0.121
628	0.121
629	0.121
629	0.122
630	0.121
630	0.121
630	0.122
631	0.122
631	0.123
632	0.123
632	0.124
633	0.125
633	0.126
634	0.128
634	0.13
634	0.132
635	0.134
635	0.135
636	0.136
636	0.138
637	0.139
637	0.14
638	0.141
638	0.143
638	0.144
639	0.145
639	0.146
640	0.147
640	0.149
641	0.151
641	0.152
642	0.154
642	0.157
642	0.158
643	0.16
643	0.162
644	0.164
644	0.166
645	0.168
645	0.17
646	0.173
646	0.176
646	0.18
647	0.183
647	0.187
648	0.189
648	0.192
649	0.195
649	0.198
650	0.201
650	0.204
650	0.207
651	0.209
651	0.211
652	0.213
652	0.215
653	0.219
653	0.228
653	0.234
654	0.189
654	0.155
655	0.16
655	0.163
656	0.164
656	0.166
657	0.168
657	0.169
657	0.17
658	0.166
658	0.16
659	0.2
659	0.254
660	0.257
660	0.259
661	0.261
661	0.263
661	0.265
662	0.269
662	0.272
663	0.276
663	0.279
664	0.282
664	0.285
665	0.288
665	0.291
665	0.294
666	0.297
666	0.3
667	0.303
667	0.306
668	0.309
668	0.311
669	0.315
669	0.318
669	0.322
670	0.327
670	0.33
671	0.333
671	0.335
672	0.337
672	0.338
672	0.339
673	0.341
673	0.342
674	0.344
674	0.344
675	0.345
675	0.346
676	0.347
676	0.35
676	0.351
677	0.354
677	0.356
678	0.358
678	0.36
679	0.361
679	0.362
680	0.363
680	0.365
680	0.365
681	0.365
681	0.366
682	0.367
682	0.368
683	0.37
683	0.372
684	0.374
684	0.375
684	0.376
685	0.377
685	0.378
686	0.38
686	0.381
687	0.381
687	0.382
687	0.382
688	0.381
688	0.38
689	0.38
689	0.381
690	0.381
690	0.38
691	0.38
691	0.379
691	0.379
692	0.378
692	0.378
693	0.377
693	0.378
694	0.377
694	0.375
695	0.376
695	0.377
695	0.378
696	0.377
696	0.376
697	0.376
697	0.375
698	0.374
698	0.372
698	0.37
699	0.368
699	0.365
700	0.362
700	0.359
701	0.357
701	0.356
702	0.354
702	0.352
702	0.35
703	0.348
703	0.346
704	0.344
704	0.343
705	0.342
705	0.34
705	0.338
706	0.336
706	0.334
707	0.332
707	0.33
708	0.328
708	0.326
709	0.325
709	0.322
709	0.32
710	0.317
710	0.314
711	0.312
711	0.31
712	0.309
712	0.307
713	0.304
713	0.302
713	0.299
714	0.296
714	0.293
715	0.29
715	0.287
716	0.284
716	0.282
716	0.279
717	0.277
717	0.274
718	0.272
718	0.27
719	0.268
719	0.267
720	0.265
720	0.264
720	0.261
721	0.258
721	0.255
722	0.253
722	0.249
723	0.247
723	0.244
723	0.241
724	0.238
724	0.235
725	0.232
725	0.229
726	0.227
726	0.224
727	0.222
727	0.22
727	0.218
728	0.216
728	0.214
729	0.213
729	0.212
730	0.21
730	0.209
730	0.208
731	0.207
731	0.206
732	0.205
732	0.204
733	0.202
733	0.2
734	0.198
734	0.195
734	0.194
735	0.192
735	0.19
736	0.187
736	0.185
737	0.183
737	0.182
737	0.181
738	0.178
738	0.175
739	0.173
739	0.171
740	0.169
740	0.167
741	0.165
741	0.163
741	0.16
742	0.155
742	0.151
743	0.148
743	0.146
744	0.143
744	0.141
744	0.138
745	0.136
745	0.133
746	0.131
746	0.129
747	0.128
747	0.127
748	0.126
748	0.126
748	0.124
749	0.123
749	0.122
750	0.121
750	0.12
751	0.119
751	0.119
751	0.118
752	0.117
752	0.116
753	0.115
753	0.114
754	0.114
754	0.113
754	0.112
755	0.112
755	0.112
756	0.11
756	0.108
757	0.107
757	0.106
758	0.105
758	0.103
758	0.102
759	0.1
759	0.097
760	0.094
760	0.091
761	0.089
761	0.088
761	0.086
762	0.084
762	0.083
763	0.082
763	0.079
764	0.077
764	0.075
764	0.073
765	0.071
765	0.069
766	0.068
766	0.068
767	0.067
767	0.064
768	0.061
768	0.06
768	0.059
769	0.058
769	0.057
770	0.056
770	0.054
771	0.051
771	0.048
771	0.046
772	0.043
772	0.041
773	0.039
773	0.036
774	0.032
774	0.029
775	0.026
775	0.023
775	0.019
776	0.016
776	0.012
777	0.008
777	0.003
778	-0.001
778	-0.006
778	-0.011
779	-0.015
779	-0.019
780	-0.025
780	-0.031
781	-0.037
781	-0.043
781	-0.049
782	-0.054
782	-0.06
783	-0.066
783	-0.069
784	-0.074
784	-0.077
784	-0.079
785	-0.082
785	-0.084
786	-0.084
786	-0.082
787	-0.078
787	-0.075
788	-0.074
788	-0.074
788	-0.075
789	-0.077
789	-0.077
790	-0.074
790	-0.073
791	-0.073
791	-0.075
791	-0.077
792	-0.072
792	-0.063
793	-0.057
793	-0.053
794	-0.052
794	-0.053
794	-0.057
795	-0.059
795	-0.058
796	-0.058
796	-0.061
797	-0.069
797	-0.078
797	-0.084
798	-0.089
798	-0.092
799	-0.092
799	-0.092
800	-0.092
800	-0.094
801	-0.097
801	-0.099
801	-0.099
802	-0.101
802	-0.103
803	-0.104
803	-0.104
804	-0.103
804	-0.098
804	-0.092
805	-0.089
805	-0.087
806	-0.085
806	-0.083
807	-0.082
807	-0.081
807	-0.081
808	-0.08
808	-0.081
809	-0.085
809	-0.09
810	-0.093
810	-0.095
810	-0.098
811	-0.1
811	-0.1
812	-0.096
812	-0.093
813	-0.093
813	-0.094
813	-0.095
814	-0.096
814	-0.096
815	-0.093
815	-0.091
816	-0.089
816	-0.089
817	-0.094
817	-0.097
817	-0.098
818	-0.097
818	-0.094
819	-0.089
819	-0.086
820	-0.087
820	-0.088
820	-0.087
821	-0.084
821	-0.08
822	-0.075
822	-0.069
823	-0.062
823	-0.058
823	-0.056
824	-0.05
824	-0.042
825	-0.033
825	-0.024
826	-0.016
826	-0.01
826	-0.005
827	0.001
827	0.006
828	0.01
828	0.014
829	0.018
829	0.022
829	0.024
830	0.027
830	0.03
831	0.033
831	0.036
832	0.038
832	0.04
832	0.042
833	0.044
833	0.045
834	0.046
834	0.047
835	0.048
835	0.049
835	0.049
836	0.05
836	0.05
837	0.05
837	0.051
838	0.051
838	0.051
839	0.051
839	0.051
839	0.051
840	0.052
840	0.052
841	0.052
841	0.053
842	0.054
842	0.055
842	0.055
843	0.056
843	0.057
844	0.057
844	0.058
845	0.059
845	0.06
845	0.061
846	0.062
846	0.063
847	0.064
847	0.066
848	0.067
848	0.068
848	0.069
849	0.07
849	0.071
850	0.072
850	0.072
851	0.072
851	0.073
851	0.073
852	0.073
852	0.074
853	0.074
853	0.075
854	0.075
854	0.076
854	0.076
855	0.077
855	0.077
856	0.077
856	0.077
857	0.077
857	0.077
857	0.076
858	0.076
858	0.075
859	0.075
859	0.074
860	0.074
860	0.073
860	0.072
861	0.072
861	0.071
862	0.07
862	0.07
863	0.069
863	0.069
863	0.069
864	0.069
864	0.069
865	0.07
865	0.07
866	0.071
866	0.071
866	0.073
867	0.074
867	0.075
868	0.076
868	0.077
869	0.078
869	0.078
869	0.078
870	0.078
870	0.078
871	0.078
871	0.077
872	0.077
872	0.076
872	0.075
873	0.075
873	0.075
874	0.075
874	0.075
875	0.075
875	0.076
875	0.076
876	0.077
876	0.077
877	0.077
877	0.077
878	0.076
878	0.076
878	0.075
879	0.075
879	0.074
880	0.073
880	0.072
881	0.071
881	0.071
881	0.07
882	0.07
882	0.07
883	0.07
883	0.07
884	0.07
884	0.07
884	0.07
885	0.07
885	0.071
886	0.071
886	0.071
887	0.071
887	0.071
887	0.071
888	0.071
888	0.071
889	0.071
889	0.071
890	0.072
890	0.072
890	0.073
891	0.073
891	0.074
892	0.074
892	0.075
893	0.075
893	0.076
893	0.077
894	0.078
894	0.078
895	0.079
895	0.079
895	0.08
896	0.081
896	0.081
897	0.082
897	0.083
898	0.084
898	0.084
898	0.084
899	0.084
899	0.084
900	0.084
900	0.084
901	0.084
901	0.083
901	0.083
902	0.082
902	0.082
903	0.081
903	0.08
904	0.08
904	0.079
904	0.078
905	0.077
905	0.077
906	0.076
906	0.076
907	0.075
907	0.075
907	0.075
908	0.075
908	0.076
909	0.076
909	0.077
910	0.078
910	0.079
910	0.08
911	0.081
911	0.082
912	0.083
912	0.084
913	0.085
913	0.085
913	0.086
914	0.086
914	0.086
915	0.086
915	0.086
916	0.085
916	0.085
916	0.084
917	0.083
917	0.082
918	0.082
918	0.081
918	0.081
919	0.08
919	0.08
920	0.08
920	0.08
921	0.08
921	0.08
921	0.08
922	0.079
922	0.079
923	0.079
923	0.079
924	0.079
924	0.078
924	0.078
925	0.077
925	0.077
926	0.076
926	0.076
927	0.075
927	0.075
927	0.074
928	0.074
928	0.074
929	0.074
929	0.074
930	0.075
930	0.076
930	0.077
931	0.078
931	0.079
932	0.08
932	0.082
933	0.083
933	0.084
933	0.085
934	0.085
934	0.086
935	0.085
935	0.085
935	0.085
936	0.085
936	0.085
937	0.086
937	0.086
938	0.086
938	0.087
938	0.087
939	0.088
939	0.089
940	0.09
940	0.091
941	0.091
941	0.092
941	0.092
942	0.091
942	0.091
943	0.091
943	0.09
944	0.09
944	0.09
944	0.09
945	0.09
945	0.09
946	0.091
946	0.09
946	0.09
947	0.09
947	0.09
948	0.089
948	0.089
949	0.088
949	0.088
949	0.087
950	0.087
950	0.086
951	0.086
951	0.085
952	0.085
952	0.084
952	0.084
953	0.084
953	0.084
954	0.083
954	0.083
955	0.083
955	0.083
955	0.084
956	0.084
956	0.084
957	0.084
957	0.084
957	0.084
958	0.084
958	0.083
959	0.083
959	0.082
960	0.081
960	0.079
960	0.078
961	0.077
961	0.076
962	0.075
962	0.074
963	0.073
963	0.073
963	0.073
964	0.073
964	0.073
965	0.074
965	0.075
966	0.076
966	0.077
966	0.077
967	0.078
967	0.078
968	0.077
968	0.077
968	0.077
969	0.076
969	0.075
970	0.074
970	0.073
971	0.072
971	0.071
971	0.07
972	0.07
972	0.07
973	0.07
973	0.07
974	0.07
974	0.071
974	0.071
975	0.072
975	0.073
976	0.074
976	0.075
976	0.076
977	0.077
977	0.078
978	0.078
978	0.079
979	0.079
979	0.08
979	0.08
980	0.08
980	0.079
981	0.079
981	0.079
982	0.079
982	0.079
982	0.078
983	0.078
983	0.078
984	0.077
984	0.077
984	0.076
985	0.076
985	0.076
986	0.075
986	0.074
987	0.073
987	0.072
987	0.071
988	0.071
988	0.07
989	0.07
989	0.07
990	0.069
990	0.07
990	0.07
991	0.07
991	0.071
992	0.072
992	0.072
992	0.072
993	0.073
993	0.073
994	0.073
994	0.073
995	0.072
995	0.072
995	0.072
996	0.071
996	0.071
997	0.07
997	0.071
997	0.071
998	0.071
998	0.072
999	0.072
999	0.073
1000	0.074
1000	0.075
1000	0.076
1001	0.077
1001	0.078
1002	0.079
1002	0.08
1003	0.08
1003	0.08
1003	0.08
1004	0.08
1004	0.08
1005	0.079
1005	0.079
1005	0.078
1006	0.078
1006	0.077
1007	0.076
1007	0.075
1008	0.075
1008	0.074
1008	0.074
1009	0.074
1009	0.073
1010	0.073
1010	0.073
1010	0.073
1011	0.073
1011	0.074
1012	0.074
1012	0.075
1013	0.075
1013	0.075
1013	0.075
1014	0.074
1014	0.074
1015	0.073
1015	0.073
1016	0.072
1016	0.071
1016	0.07
1017	0.069
1017	0.069
1018	0.068
1018	0.067
1018	0.067
1019	0.067
1019	0.066
1020	0.065
1020	0.065
1021	0.064
1021	0.064
1021	0.063
1022	0.063
1022	0.063
1023	0.062
1023	0.062
1023	0.062
1024	0.062
1024	0.061
1025	0.061
1025	0.061
1026	0.06
1026	0.06
1026	0.06
1027	0.06
1027	0.06
1028	0.059
1028	0.06
1028	0.06
1029	0.06
1029	0.06
1030	0.061
1030	0.061
1031	0.062
1031	0.062
1031	0.063
1032	0.063
1032	0.064
1033	0.064
1033	0.065
1033	0.065
1034	0.066
1034	0.065
1035	0.065
1035	0.065
1036	0.065
1036	0.066
1036	0.066
1037	0.067
1037	0.067
1038	0.068
1038	0.068
1039	0.069
1039	0.07
1039	0.071
1040	0.071
1040	0.072
1041	0.072
1041	0.072
1041	0.072
1042	0.072
1042	0.072
1043	0.072
1043	0.072
1044	0.072
1044	0.071
1044	0.072
1045	0.071
1045	0.071
1046	0.071
1046	0.07
1046	0.071
1047	0.07
1047	0.07
1048	0.07
1048	0.07
1049	0.069
1049	0.067
1049	0.067
1050	0.066
1050	0.065
1051	0.064
1051	0.064
1051	0.064
1052	0.063
1052	0.063
1053	0.063
1053	0.063
1053	0.063
1054	0.063
1054	0.064
1055	0.064
1055	0.065
1056	0.065
1056	0.065
1056	0.065
1057	0.065
1057	0.066
1058	0.067
1058	0.067
1058	0.068
1059	0.069
1059	0.07
1060	0.071
1060	0.072
1061	0.073
1061	0.074
1061	0.075
1062	0.076
1062	0.076
1063	0.077
1063	0.077
1063	0.078
1064	0.079
1064	0.08
1065	0.08
1065	0.081
1066	0.082
1066	0.083
1066	0.085
1067	0.086
1067	0.087
1068	0.088
1068	0.089
1068	0.09
1069	0.09
1069	0.091
1070	0.092
1070	0.093
1071	0.094
1071	0.096
1071	0.097
1072	0.098
1072	0.1
1073	0.102
1073	0.104
1073	0.105
1074	0.107
1074	0.108
1075	0.108
1075	0.108
1076	0.108
1076	0.109
1076	0.109
1077	0.11
1077	0.111
1078	0.111
1078	0.113
1078	0.115
1079	0.116
1079	0.119
1080	0.12
1080	0.122
1080	0.123
1081	0.125
1081	0.126
1082	0.128
1082	0.129
1083	0.132
1083	0.133
1083	0.136
1084	0.138
1084	0.141
1085	0.144
1085	0.147
1085	0.151
1086	0.154
1086	0.156
1087	0.16
1087	0.163
1088	0.166
1088	0.168
1088	0.172
1089	0.176
1089	0.179
1090	0.184
1090	0.189
1090	0.194
1091	0.2
1091	0.207
1092	0.214
1092	0.222
1092	0.23
1093	0.238
1093	0.248
1094	0.258
1094	0.267
1095	0.277
1095	0.29
1095	0.305
1096	0.319
1096	0.333
1097	0.352
1097	0.368
1097	0.389
1098	0.409
1098	0.432
1099	0.461
1099	0.491
1100	0.527
1100	0.565
1100	0.61
1101	0.665
1101	0.727
1102	0.82
1102	0.937
1102	1.117
1103	1.447
1103	-0
1104	-0
1104	-0
1104	-0
1105	-0
1105	-0
1106	-0
1106	-0
1107	-0
1107	-0
1107	-0
1108	-0
1108	-0
1109	-0
1109	-0
1109	-0
1110	-0
1110	-0
1111	-0
1111	-0
