Data from 15c-2-3a_Absorbance__27__01835.txt Node

Date: Tue Jan 16 12:48:02 CET 2024
User: Marek
Spectrometer: MAYP115816
Trigger mode: 0
Integration Time (sec): 2.000000E-1
Scans to average: 10
Electric dark correction enabled: true
Nonlinearity correction enabled: true
Boxcar width: 5
XAxis mode: Wavelengths
Number of Pixels in Spectrum: 2068
>>>>>Begin Spectral Data<<<<<
199	-2.084
199	-1.896
200	-1.762
200	-1.642
201	-1.569
201	-1.517
202	-1.442
202	-1.381
203	-1.333
203	-1.285
204	-1.259
204	-1.233
205	-1.214
205	-1.202
205	-1.199
206	-1.194
206	-1.191
207	-1.188
207	-1.188
208	-1.184
208	-1.183
209	-1.178
209	-1.176
210	-1.175
210	-1.172
211	-1.171
211	-1.171
212	-1.17
212	-1.169
213	-1.167
213	-1.166
213	-1.166
214	-1.165
214	-1.163
215	-1.162
215	-1.162
216	-1.159
216	-1.157
217	-1.154
217	-1.152
218	-1.148
218	-1.144
219	-1.14
219	-1.139
220	-1.137
220	-1.135
221	-1.132
221	-1.13
221	-1.126
222	-1.121
222	-1.116
223	-1.111
223	-1.106
224	-1.101
224	-1.091
225	-1.083
225	-1.073
226	-1.064
226	-1.055
227	-1.041
227	-1.028
228	-1.013
228	-0.996
229	-0.975
229	-0.952
229	-0.926
230	-0.897
230	-0.865
231	-0.83
231	-0.791
232	-0.751
232	-0.708
233	-0.662
233	-0.615
234	-0.567
234	-0.519
235	-0.471
235	-0.423
236	-0.375
236	-0.328
236	-0.282
237	-0.238
237	-0.195
238	-0.155
238	-0.116
239	-0.079
239	-0.045
240	-0.013
240	0.017
241	0.045
241	0.071
242	0.095
242	0.117
243	0.138
243	0.157
243	0.175
244	0.191
244	0.206
245	0.22
245	0.233
246	0.245
246	0.256
247	0.266
247	0.276
248	0.285
248	0.293
249	0.301
249	0.308
250	0.315
250	0.322
250	0.328
251	0.333
251	0.338
252	0.343
252	0.348
253	0.352
253	0.356
254	0.359
254	0.363
255	0.366
255	0.369
256	0.372
256	0.375
257	0.377
257	0.379
258	0.381
258	0.383
258	0.384
259	0.386
259	0.387
260	0.388
260	0.389
261	0.389
261	0.39
262	0.39
262	0.391
263	0.391
263	0.392
264	0.392
264	0.392
265	0.392
265	0.392
265	0.391
266	0.391
266	0.391
267	0.39
267	0.389
268	0.389
268	0.387
269	0.387
269	0.386
270	0.384
270	0.383
271	0.382
271	0.381
272	0.38
272	0.379
272	0.378
273	0.376
273	0.375
274	0.374
274	0.373
275	0.372
275	0.37
276	0.369
276	0.367
277	0.366
277	0.363
278	0.362
278	0.36
278	0.358
279	0.356
279	0.354
280	0.352
280	0.351
281	0.35
281	0.349
282	0.348
282	0.347
283	0.346
283	0.345
284	0.344
284	0.344
285	0.343
285	0.342
285	0.341
286	0.339
286	0.338
287	0.337
287	0.336
288	0.335
288	0.334
289	0.333
289	0.332
290	0.331
290	0.33
291	0.329
291	0.328
292	0.327
292	0.326
292	0.325
293	0.324
293	0.323
294	0.322
294	0.321
295	0.321
295	0.32
296	0.319
296	0.318
297	0.317
297	0.317
298	0.316
298	0.315
298	0.315
299	0.314
299	0.313
300	0.313
300	0.312
301	0.311
301	0.311
302	0.31
302	0.31
303	0.309
303	0.308
304	0.308
304	0.307
305	0.306
305	0.305
305	0.305
306	0.304
306	0.303
307	0.302
307	0.301
308	0.3
308	0.299
309	0.299
309	0.298
310	0.297
310	0.296
311	0.296
311	0.295
311	0.294
312	0.293
312	0.293
313	0.292
313	0.291
314	0.29
314	0.289
315	0.288
315	0.288
316	0.287
316	0.286
317	0.285
317	0.284
318	0.283
318	0.282
318	0.281
319	0.28
319	0.279
320	0.278
320	0.277
321	0.276
321	0.276
322	0.275
322	0.274
323	0.273
323	0.272
324	0.271
324	0.27
324	0.27
325	0.269
325	0.268
326	0.267
326	0.267
327	0.266
327	0.265
328	0.264
328	0.264
329	0.263
329	0.262
330	0.261
330	0.26
330	0.259
331	0.259
331	0.258
332	0.257
332	0.256
333	0.255
333	0.254
334	0.254
334	0.253
335	0.252
335	0.251
336	0.251
336	0.25
336	0.249
337	0.249
337	0.248
338	0.247
338	0.246
339	0.246
339	0.245
340	0.244
340	0.244
341	0.243
341	0.242
342	0.242
342	0.241
342	0.241
343	0.24
343	0.239
344	0.239
344	0.238
345	0.237
345	0.237
346	0.236
346	0.236
347	0.235
347	0.234
348	0.234
348	0.233
348	0.232
349	0.232
349	0.231
350	0.23
350	0.229
351	0.228
351	0.228
352	0.227
352	0.226
353	0.225
353	0.224
354	0.223
354	0.222
354	0.221
355	0.22
355	0.219
356	0.218
356	0.217
357	0.217
357	0.216
358	0.216
358	0.216
359	0.217
359	0.218
360	0.218
360	0.219
360	0.22
361	0.22
361	0.221
362	0.221
362	0.221
363	0.221
363	0.221
364	0.221
364	0.22
365	0.22
365	0.219
366	0.219
366	0.219
366	0.218
367	0.218
367	0.218
368	0.217
368	0.217
369	0.217
369	0.216
370	0.216
370	0.216
371	0.215
371	0.215
372	0.214
372	0.214
372	0.214
373	0.213
373	0.213
374	0.213
374	0.213
375	0.213
375	0.212
376	0.212
376	0.213
377	0.213
377	0.213
378	0.213
378	0.213
378	0.214
379	0.214
379	0.214
380	0.214
380	0.214
381	0.214
381	0.213
382	0.213
382	0.213
383	0.212
383	0.212
383	0.211
384	0.211
384	0.21
385	0.21
385	0.21
386	0.21
386	0.21
387	0.21
387	0.21
388	0.209
388	0.209
389	0.209
389	0.209
389	0.209
390	0.209
390	0.209
391	0.209
391	0.209
392	0.209
392	0.209
393	0.209
393	0.209
394	0.21
394	0.21
394	0.209
395	0.209
395	0.209
396	0.209
396	0.208
397	0.209
397	0.209
398	0.209
398	0.209
399	0.209
399	0.209
400	0.209
400	0.208
400	0.208
401	0.207
401	0.206
402	0.205
402	0.204
403	0.204
403	0.204
404	0.203
404	0.203
405	0.203
405	0.203
405	0.203
406	0.202
406	0.202
407	0.202
407	0.202
408	0.202
408	0.201
409	0.201
409	0.201
410	0.2
410	0.2
411	0.2
411	0.2
411	0.2
412	0.2
412	0.199
413	0.199
413	0.198
414	0.198
414	0.198
415	0.197
415	0.197
416	0.197
416	0.196
416	0.196
417	0.196
417	0.195
418	0.195
418	0.196
419	0.196
419	0.197
420	0.198
420	0.199
421	0.199
421	0.199
421	0.2
422	0.2
422	0.2
423	0.2
423	0.2
424	0.199
424	0.198
425	0.198
425	0.197
426	0.196
426	0.195
427	0.195
427	0.195
427	0.196
428	0.196
428	0.197
429	0.198
429	0.198
430	0.199
430	0.199
431	0.199
431	0.198
432	0.198
432	0.197
432	0.196
433	0.195
433	0.194
434	0.193
434	0.193
435	0.193
435	0.193
436	0.193
436	0.193
437	0.193
437	0.193
437	0.194
438	0.193
438	0.193
439	0.193
439	0.192
440	0.192
440	0.192
441	0.192
441	0.192
442	0.193
442	0.193
442	0.194
443	0.194
443	0.195
444	0.195
444	0.196
445	0.196
445	0.196
446	0.197
446	0.196
447	0.196
447	0.196
447	0.196
448	0.196
448	0.195
449	0.195
449	0.194
450	0.194
450	0.194
451	0.194
451	0.193
452	0.193
452	0.192
452	0.192
453	0.191
453	0.191
454	0.19
454	0.19
455	0.189
455	0.189
456	0.189
456	0.189
457	0.189
457	0.188
458	0.189
458	0.189
458	0.189
459	0.19
459	0.19
460	0.19
460	0.189
461	0.189
461	0.189
462	0.189
462	0.189
463	0.189
463	0.189
463	0.19
464	0.19
464	0.19
465	0.19
465	0.19
466	0.19
466	0.19
467	0.19
467	0.19
467	0.189
468	0.188
468	0.186
469	0.185
469	0.184
470	0.184
470	0.183
471	0.183
471	0.183
472	0.183
472	0.183
472	0.184
473	0.185
473	0.186
474	0.187
474	0.188
475	0.189
475	0.189
476	0.19
476	0.19
477	0.191
477	0.191
477	0.191
478	0.192
478	0.192
479	0.193
479	0.194
480	0.194
480	0.195
481	0.196
481	0.197
482	0.198
482	0.199
482	0.2
483	0.202
483	0.205
484	0.208
484	0.21
485	0.212
485	0.214
486	0.215
486	0.216
487	0.217
487	0.218
487	0.218
488	0.218
488	0.217
489	0.216
489	0.215
490	0.214
490	0.213
491	0.213
491	0.214
492	0.214
492	0.214
492	0.215
493	0.216
493	0.217
494	0.219
494	0.221
495	0.223
495	0.225
496	0.226
496	0.227
496	0.228
497	0.229
497	0.23
498	0.231
498	0.232
499	0.233
499	0.233
500	0.234
500	0.235
501	0.237
501	0.239
501	0.241
502	0.242
502	0.244
503	0.246
503	0.247
504	0.248
504	0.249
505	0.25
505	0.25
506	0.251
506	0.251
506	0.252
507	0.253
507	0.253
508	0.254
508	0.254
509	0.255
509	0.256
510	0.257
510	0.258
511	0.258
511	0.259
511	0.258
512	0.258
512	0.258
513	0.258
513	0.258
514	0.257
514	0.257
515	0.257
515	0.256
515	0.255
516	0.254
516	0.254
517	0.254
517	0.255
518	0.256
518	0.256
519	0.255
519	0.254
520	0.254
520	0.252
520	0.251
521	0.249
521	0.247
522	0.244
522	0.241
523	0.238
523	0.236
524	0.235
524	0.235
524	0.235
525	0.236
525	0.238
526	0.241
526	0.244
527	0.247
527	0.25
528	0.253
528	0.255
529	0.257
529	0.258
529	0.259
530	0.26
530	0.26
531	0.261
531	0.261
532	0.26
532	0.26
533	0.261
533	0.261
533	0.26
534	0.26
534	0.259
535	0.258
535	0.258
536	0.258
536	0.257
537	0.256
537	0.255
538	0.254
538	0.253
538	0.251
539	0.25
539	0.249
540	0.248
540	0.247
541	0.245
541	0.243
542	0.241
542	0.239
542	0.238
543	0.237
543	0.235
544	0.234
544	0.232
545	0.231
545	0.23
546	0.229
546	0.228
547	0.227
547	0.225
547	0.222
548	0.219
548	0.217
549	0.214
549	0.212
550	0.21
550	0.207
551	0.205
551	0.202
551	0.2
552	0.199
552	0.198
553	0.196
553	0.196
554	0.195
554	0.194
555	0.192
555	0.189
556	0.186
556	0.183
556	0.18
557	0.177
557	0.175
558	0.173
558	0.171
559	0.169
559	0.169
560	0.168
560	0.168
560	0.167
561	0.167
561	0.168
562	0.167
562	0.166
563	0.164
563	0.162
564	0.159
564	0.156
564	0.153
565	0.151
565	0.15
566	0.148
566	0.147
567	0.146
567	0.146
568	0.147
568	0.148
568	0.15
569	0.152
569	0.153
570	0.154
570	0.154
571	0.154
571	0.154
572	0.154
572	0.154
573	0.154
573	0.153
573	0.152
574	0.151
574	0.15
575	0.149
575	0.15
576	0.151
576	0.15
577	0.148
577	0.147
577	0.146
578	0.145
578	0.145
579	0.146
579	0.147
580	0.147
580	0.145
581	0.142
581	0.14
581	0.139
582	0.139
582	0.138
583	0.139
583	0.138
584	0.135
584	0.131
585	0.129
585	0.129
585	0.128
586	0.128
586	0.128
587	0.127
587	0.125
588	0.123
588	0.121
589	0.119
589	0.119
590	0.118
590	0.117
590	0.118
591	0.119
591	0.119
592	0.118
592	0.117
593	0.116
593	0.116
594	0.115
594	0.114
594	0.113
595	0.113
595	0.111
596	0.11
596	0.11
597	0.113
597	0.114
598	0.115
598	0.117
598	0.118
599	0.118
599	0.118
600	0.118
600	0.117
601	0.116
601	0.114
602	0.112
602	0.111
602	0.109
603	0.108
603	0.108
604	0.109
604	0.109
605	0.11
605	0.112
606	0.112
606	0.112
606	0.111
607	0.111
607	0.111
608	0.11
608	0.109
609	0.108
609	0.107
610	0.106
610	0.104
610	0.104
611	0.104
611	0.104
612	0.105
612	0.106
613	0.107
613	0.108
614	0.109
614	0.108
614	0.108
615	0.108
615	0.108
616	0.107
616	0.107
617	0.107
617	0.106
618	0.105
618	0.105
618	0.105
619	0.105
619	0.106
620	0.108
620	0.109
621	0.109
621	0.11
622	0.11
622	0.111
622	0.111
623	0.111
623	0.112
624	0.113
624	0.113
625	0.113
625	0.113
626	0.113
626	0.113
626	0.114
627	0.114
627	0.114
628	0.115
628	0.115
629	0.115
629	0.115
630	0.115
630	0.115
630	0.115
631	0.116
631	0.117
632	0.117
632	0.118
633	0.119
633	0.12
634	0.121
634	0.123
634	0.125
635	0.127
635	0.128
636	0.13
636	0.131
637	0.132
637	0.133
638	0.134
638	0.136
638	0.137
639	0.138
639	0.139
640	0.14
640	0.142
641	0.144
641	0.146
642	0.148
642	0.15
642	0.152
643	0.153
643	0.155
644	0.157
644	0.159
645	0.161
645	0.163
646	0.165
646	0.169
646	0.172
647	0.176
647	0.179
648	0.182
648	0.185
649	0.188
649	0.191
650	0.193
650	0.196
650	0.199
651	0.201
651	0.203
652	0.206
652	0.208
653	0.211
653	0.22
653	0.226
654	0.183
654	0.151
655	0.156
655	0.159
656	0.161
656	0.162
657	0.164
657	0.166
657	0.167
658	0.163
658	0.157
659	0.196
659	0.249
660	0.252
660	0.254
661	0.255
661	0.257
661	0.26
662	0.263
662	0.267
663	0.27
663	0.274
664	0.277
664	0.279
665	0.282
665	0.286
665	0.289
666	0.292
666	0.295
667	0.297
667	0.3
668	0.303
668	0.306
669	0.31
669	0.313
669	0.317
670	0.322
670	0.326
671	0.328
671	0.33
672	0.332
672	0.333
672	0.334
673	0.335
673	0.337
674	0.338
674	0.339
675	0.339
675	0.34
676	0.342
676	0.344
676	0.346
677	0.348
677	0.351
678	0.353
678	0.355
679	0.356
679	0.357
680	0.359
680	0.36
680	0.361
681	0.361
681	0.362
682	0.363
682	0.364
683	0.366
683	0.369
684	0.371
684	0.372
684	0.373
685	0.374
685	0.375
686	0.377
686	0.378
687	0.378
687	0.378
687	0.377
688	0.377
688	0.376
689	0.376
689	0.377
690	0.377
690	0.376
691	0.376
691	0.376
691	0.376
692	0.375
692	0.375
693	0.374
693	0.375
694	0.374
694	0.373
695	0.373
695	0.374
695	0.375
696	0.374
696	0.374
697	0.373
697	0.372
698	0.37
698	0.368
698	0.366
699	0.365
699	0.362
700	0.358
700	0.356
701	0.354
701	0.353
702	0.351
702	0.349
702	0.347
703	0.345
703	0.344
704	0.342
704	0.34
705	0.339
705	0.337
705	0.335
706	0.333
706	0.332
707	0.329
707	0.327
708	0.325
708	0.323
709	0.322
709	0.32
709	0.317
710	0.314
710	0.312
711	0.31
711	0.308
712	0.306
712	0.304
713	0.302
713	0.3
713	0.297
714	0.294
714	0.291
715	0.289
715	0.286
716	0.283
716	0.28
716	0.277
717	0.275
717	0.273
718	0.27
718	0.268
719	0.266
719	0.265
720	0.263
720	0.261
720	0.258
721	0.255
721	0.252
722	0.249
722	0.245
723	0.243
723	0.24
723	0.237
724	0.234
724	0.231
725	0.227
725	0.225
726	0.222
726	0.22
727	0.217
727	0.215
727	0.213
728	0.211
728	0.209
729	0.208
729	0.208
730	0.206
730	0.205
730	0.204
731	0.203
731	0.202
732	0.201
732	0.199
733	0.197
733	0.195
734	0.193
734	0.191
734	0.189
735	0.187
735	0.185
736	0.182
736	0.18
737	0.178
737	0.177
737	0.175
738	0.173
738	0.17
739	0.168
739	0.166
740	0.164
740	0.162
741	0.161
741	0.158
741	0.155
742	0.151
742	0.147
743	0.144
743	0.141
744	0.139
744	0.137
744	0.134
745	0.131
745	0.128
746	0.126
746	0.124
747	0.123
747	0.122
748	0.121
748	0.12
748	0.118
749	0.117
749	0.116
750	0.115
750	0.114
751	0.113
751	0.112
751	0.112
752	0.111
752	0.11
753	0.109
753	0.108
754	0.108
754	0.107
754	0.107
755	0.107
755	0.107
756	0.106
756	0.104
757	0.103
757	0.102
758	0.101
758	0.099
758	0.097
759	0.096
759	0.092
760	0.089
760	0.086
761	0.083
761	0.082
761	0.08
762	0.078
762	0.077
763	0.076
763	0.074
764	0.071
764	0.069
764	0.067
765	0.066
765	0.064
766	0.063
766	0.063
767	0.062
767	0.06
768	0.057
768	0.055
768	0.054
769	0.053
769	0.053
770	0.051
770	0.05
771	0.047
771	0.044
771	0.041
772	0.039
772	0.037
773	0.034
773	0.03
774	0.027
774	0.023
775	0.02
775	0.016
775	0.012
776	0.008
776	0.004
777	-0
777	-0.005
778	-0.01
778	-0.015
778	-0.02
779	-0.023
779	-0.027
780	-0.032
780	-0.039
781	-0.044
781	-0.049
781	-0.054
782	-0.058
782	-0.064
783	-0.069
783	-0.072
784	-0.075
784	-0.078
784	-0.08
785	-0.082
785	-0.084
786	-0.084
786	-0.082
787	-0.078
787	-0.074
788	-0.073
788	-0.074
788	-0.075
789	-0.077
789	-0.077
790	-0.074
790	-0.072
791	-0.073
791	-0.075
791	-0.077
792	-0.072
792	-0.062
793	-0.057
793	-0.053
794	-0.051
794	-0.053
794	-0.057
795	-0.058
795	-0.058
796	-0.058
796	-0.061
797	-0.068
797	-0.078
797	-0.084
798	-0.089
798	-0.091
799	-0.092
799	-0.092
800	-0.092
800	-0.094
801	-0.097
801	-0.099
801	-0.099
802	-0.101
802	-0.103
803	-0.103
803	-0.104
804	-0.103
804	-0.098
804	-0.092
805	-0.088
805	-0.086
806	-0.084
806	-0.083
807	-0.082
807	-0.081
807	-0.081
808	-0.08
808	-0.081
809	-0.085
809	-0.09
810	-0.092
810	-0.094
810	-0.097
811	-0.1
811	-0.1
812	-0.096
812	-0.093
813	-0.093
813	-0.094
813	-0.095
814	-0.096
814	-0.096
815	-0.093
815	-0.091
816	-0.089
816	-0.089
817	-0.094
817	-0.097
817	-0.097
818	-0.097
818	-0.093
819	-0.088
819	-0.086
820	-0.087
820	-0.088
820	-0.087
821	-0.084
821	-0.08
822	-0.075
822	-0.069
823	-0.063
823	-0.06
823	-0.057
824	-0.052
824	-0.044
825	-0.035
825	-0.027
826	-0.02
826	-0.014
826	-0.009
827	-0.003
827	0.002
828	0.006
828	0.01
829	0.014
829	0.017
829	0.02
830	0.023
830	0.026
831	0.029
831	0.032
832	0.034
832	0.035
832	0.037
833	0.038
833	0.039
834	0.04
834	0.041
835	0.041
835	0.041
835	0.042
836	0.042
836	0.042
837	0.042
837	0.043
838	0.042
838	0.042
839	0.042
839	0.042
839	0.042
840	0.043
840	0.043
841	0.044
841	0.045
842	0.046
842	0.047
842	0.048
843	0.05
843	0.051
844	0.052
844	0.054
845	0.055
845	0.056
845	0.058
846	0.059
846	0.06
847	0.062
847	0.064
848	0.065
848	0.067
848	0.068
849	0.069
849	0.07
850	0.071
850	0.071
851	0.071
851	0.072
851	0.072
852	0.072
852	0.072
853	0.072
853	0.072
854	0.072
854	0.072
854	0.073
855	0.073
855	0.073
856	0.073
856	0.072
857	0.072
857	0.072
857	0.072
858	0.072
858	0.072
859	0.071
859	0.071
860	0.07
860	0.07
860	0.069
861	0.068
861	0.067
862	0.066
862	0.065
863	0.064
863	0.064
863	0.063
864	0.063
864	0.064
865	0.064
865	0.065
866	0.065
866	0.065
866	0.066
867	0.067
867	0.068
868	0.069
868	0.07
869	0.07
869	0.07
869	0.07
870	0.07
870	0.07
871	0.07
871	0.07
872	0.069
872	0.069
872	0.069
873	0.069
873	0.068
874	0.069
874	0.069
875	0.07
875	0.07
875	0.07
876	0.071
876	0.071
877	0.071
877	0.07
878	0.069
878	0.068
878	0.068
879	0.067
879	0.065
880	0.064
880	0.063
881	0.062
881	0.062
881	0.062
882	0.061
882	0.061
883	0.061
883	0.061
884	0.062
884	0.062
884	0.063
885	0.063
885	0.064
886	0.064
886	0.065
887	0.065
887	0.065
887	0.065
888	0.065
888	0.065
889	0.065
889	0.066
890	0.066
890	0.067
890	0.067
891	0.068
891	0.068
892	0.069
892	0.069
893	0.07
893	0.071
893	0.071
894	0.072
894	0.072
895	0.072
895	0.072
895	0.073
896	0.073
896	0.074
897	0.074
897	0.075
898	0.075
898	0.076
898	0.076
899	0.076
899	0.077
900	0.077
900	0.076
901	0.076
901	0.076
901	0.075
902	0.075
902	0.075
903	0.074
903	0.074
904	0.073
904	0.072
904	0.071
905	0.071
905	0.071
906	0.07
906	0.069
907	0.069
907	0.069
907	0.069
908	0.069
908	0.069
909	0.07
909	0.071
910	0.072
910	0.073
910	0.073
911	0.074
911	0.075
912	0.076
912	0.077
913	0.077
913	0.078
913	0.078
914	0.078
914	0.078
915	0.078
915	0.077
916	0.076
916	0.076
916	0.075
917	0.074
917	0.073
918	0.073
918	0.072
918	0.071
919	0.071
919	0.07
920	0.07
920	0.07
921	0.07
921	0.07
921	0.07
922	0.07
922	0.07
923	0.07
923	0.069
924	0.07
924	0.069
924	0.069
925	0.069
925	0.068
926	0.068
926	0.067
927	0.067
927	0.066
927	0.066
928	0.065
928	0.065
929	0.065
929	0.065
930	0.065
930	0.066
930	0.067
931	0.068
931	0.069
932	0.071
932	0.072
933	0.074
933	0.075
933	0.076
934	0.077
934	0.078
935	0.078
935	0.078
935	0.078
936	0.078
936	0.079
937	0.079
937	0.079
938	0.08
938	0.081
938	0.081
939	0.082
939	0.083
940	0.084
940	0.084
941	0.085
941	0.086
941	0.086
942	0.086
942	0.085
943	0.085
943	0.085
944	0.085
944	0.085
944	0.085
945	0.085
945	0.085
946	0.085
946	0.085
946	0.085
947	0.085
947	0.084
948	0.084
948	0.083
949	0.083
949	0.082
949	0.081
950	0.08
950	0.079
951	0.079
951	0.078
952	0.077
952	0.076
952	0.076
953	0.075
953	0.075
954	0.075
954	0.074
955	0.075
955	0.075
955	0.075
956	0.076
956	0.077
957	0.077
957	0.077
957	0.077
958	0.077
958	0.077
959	0.076
959	0.075
960	0.074
960	0.073
960	0.071
961	0.069
961	0.068
962	0.067
962	0.066
963	0.066
963	0.065
963	0.065
964	0.065
964	0.066
965	0.067
965	0.068
966	0.069
966	0.07
966	0.071
967	0.071
967	0.071
968	0.071
968	0.07
968	0.07
969	0.069
969	0.068
970	0.067
970	0.066
971	0.065
971	0.064
971	0.064
972	0.063
972	0.063
973	0.063
973	0.064
974	0.064
974	0.065
974	0.066
975	0.067
975	0.068
976	0.069
976	0.07
976	0.071
977	0.072
977	0.073
978	0.073
978	0.073
979	0.073
979	0.074
979	0.073
980	0.073
980	0.072
981	0.072
981	0.072
982	0.071
982	0.071
982	0.071
983	0.07
983	0.07
984	0.069
984	0.069
984	0.068
985	0.068
985	0.068
986	0.067
986	0.066
987	0.065
987	0.064
987	0.064
988	0.063
988	0.063
989	0.063
989	0.062
990	0.062
990	0.062
990	0.063
991	0.063
991	0.064
992	0.065
992	0.065
992	0.065
993	0.065
993	0.065
994	0.065
994	0.065
995	0.064
995	0.064
995	0.063
996	0.063
996	0.062
997	0.061
997	0.061
997	0.061
998	0.062
998	0.062
999	0.063
999	0.063
1000	0.064
1000	0.065
1000	0.066
1001	0.067
1001	0.068
1002	0.068
1002	0.069
1003	0.069
1003	0.07
1003	0.07
1004	0.07
1004	0.069
1005	0.069
1005	0.069
1005	0.068
1006	0.068
1006	0.068
1007	0.067
1007	0.067
1008	0.066
1008	0.066
1008	0.066
1009	0.066
1009	0.066
1010	0.066
1010	0.066
1010	0.066
1011	0.066
1011	0.066
1012	0.067
1012	0.067
1013	0.067
1013	0.067
1013	0.067
1014	0.066
1014	0.066
1015	0.065
1015	0.065
1016	0.064
1016	0.063
1016	0.062
1017	0.061
1017	0.061
1018	0.06
1018	0.06
1018	0.059
1019	0.059
1019	0.059
1020	0.058
1020	0.058
1021	0.058
1021	0.057
1021	0.057
1022	0.057
1022	0.057
1023	0.057
1023	0.056
1023	0.056
1024	0.055
1024	0.055
1025	0.054
1025	0.054
1026	0.054
1026	0.053
1026	0.053
1027	0.053
1027	0.053
1028	0.052
1028	0.053
1028	0.053
1029	0.053
1029	0.054
1030	0.054
1030	0.055
1031	0.055
1031	0.056
1031	0.056
1032	0.057
1032	0.057
1033	0.057
1033	0.058
1033	0.058
1034	0.058
1034	0.058
1035	0.057
1035	0.057
1036	0.057
1036	0.057
1036	0.058
1037	0.058
1037	0.059
1038	0.059
1038	0.06
1039	0.06
1039	0.061
1039	0.062
1040	0.063
1040	0.063
1041	0.064
1041	0.064
1041	0.064
1042	0.063
1042	0.063
1043	0.063
1043	0.063
1044	0.062
1044	0.062
1044	0.062
1045	0.061
1045	0.061
1046	0.06
1046	0.06
1046	0.06
1047	0.06
1047	0.06
1048	0.06
1048	0.059
1049	0.058
1049	0.057
1049	0.056
1050	0.055
1050	0.054
1051	0.054
1051	0.054
1051	0.053
1052	0.053
1052	0.053
1053	0.052
1053	0.052
1053	0.052
1054	0.053
1054	0.053
1055	0.054
1055	0.054
1056	0.054
1056	0.054
1056	0.054
1057	0.055
1057	0.056
1058	0.057
1058	0.057
1058	0.058
1059	0.06
1059	0.06
1060	0.062
1060	0.063
1061	0.064
1061	0.065
1061	0.067
1062	0.067
1062	0.068
1063	0.068
1063	0.069
1063	0.069
1064	0.07
1064	0.071
1065	0.072
1065	0.072
1066	0.073
1066	0.074
1066	0.076
1067	0.077
1067	0.079
1068	0.08
1068	0.081
1068	0.082
1069	0.083
1069	0.084
1070	0.085
1070	0.087
1071	0.088
1071	0.09
1071	0.09
1072	0.092
1072	0.094
1073	0.096
1073	0.097
1073	0.099
1074	0.1
1074	0.101
1075	0.101
1075	0.102
1076	0.102
1076	0.103
1076	0.103
1077	0.104
1077	0.105
1078	0.105
1078	0.106
1078	0.108
1079	0.109
1079	0.112
1080	0.113
1080	0.115
1080	0.116
1081	0.119
1081	0.12
1082	0.123
1082	0.125
1083	0.127
1083	0.129
1083	0.132
1084	0.134
1084	0.138
1085	0.141
1085	0.144
1085	0.148
1086	0.151
1086	0.154
1087	0.157
1087	0.161
1088	0.163
1088	0.167
1088	0.171
1089	0.174
1089	0.179
1090	0.184
1090	0.19
1090	0.195
1091	0.202
1091	0.21
1092	0.219
1092	0.228
1092	0.235
1093	0.244
1093	0.254
1094	0.263
1094	0.273
1095	0.283
1095	0.295
1095	0.311
1096	0.323
1096	0.336
1097	0.355
1097	0.372
1097	0.393
1098	0.415
1098	0.44
1099	0.468
1099	0.499
1100	0.535
1100	0.575
1100	0.624
1101	0.683
1101	0.752
1102	0.852
1102	0.979
1102	1.176
1103	1.586
1103	-0
1104	-0
1104	-0
1104	-0
1105	-0
1105	-0
1106	-0
1106	-0
1107	-0
1107	-0
1107	-0
1108	-0
1108	-0
1109	-0
1109	-0
1109	-0
1110	-0
1110	-0
1111	-0
1111	-0
