Data from 15c-2-3a_Absorbance__238__02046.txt Node

Date: Tue Jan 16 12:55:04 CET 2024
User: Marek
Spectrometer: MAYP115816
Trigger mode: 0
Integration Time (sec): 2.000000E-1
Scans to average: 10
Electric dark correction enabled: true
Nonlinearity correction enabled: true
Boxcar width: 5
XAxis mode: Wavelengths
Number of Pixels in Spectrum: 2068
>>>>>Begin Spectral Data<<<<<
199	-2.073
199	-1.886
200	-1.751
200	-1.632
201	-1.558
201	-1.507
202	-1.431
202	-1.37
203	-1.321
203	-1.274
204	-1.247
204	-1.221
205	-1.202
205	-1.19
205	-1.187
206	-1.182
206	-1.179
207	-1.176
207	-1.176
208	-1.172
208	-1.171
209	-1.167
209	-1.164
210	-1.164
210	-1.161
211	-1.16
211	-1.159
212	-1.159
212	-1.158
213	-1.156
213	-1.155
213	-1.155
214	-1.153
214	-1.153
215	-1.152
215	-1.152
216	-1.148
216	-1.148
217	-1.145
217	-1.143
218	-1.139
218	-1.135
219	-1.13
219	-1.129
220	-1.127
220	-1.125
221	-1.121
221	-1.12
221	-1.115
222	-1.11
222	-1.105
223	-1.1
223	-1.095
224	-1.09
224	-1.081
225	-1.072
225	-1.062
226	-1.054
226	-1.044
227	-1.031
227	-1.018
228	-1.002
228	-0.986
229	-0.964
229	-0.941
229	-0.916
230	-0.887
230	-0.855
231	-0.819
231	-0.78
232	-0.74
232	-0.697
233	-0.652
233	-0.605
234	-0.558
234	-0.51
235	-0.461
235	-0.413
236	-0.366
236	-0.319
236	-0.273
237	-0.229
237	-0.187
238	-0.147
238	-0.108
239	-0.071
239	-0.037
240	-0.005
240	0.024
241	0.052
241	0.078
242	0.102
242	0.124
243	0.144
243	0.163
243	0.181
244	0.197
244	0.212
245	0.226
245	0.239
246	0.251
246	0.262
247	0.272
247	0.282
248	0.291
248	0.299
249	0.307
249	0.314
250	0.32
250	0.327
250	0.333
251	0.338
251	0.343
252	0.349
252	0.353
253	0.358
253	0.361
254	0.365
254	0.369
255	0.372
255	0.375
256	0.378
256	0.381
257	0.383
257	0.385
258	0.387
258	0.389
258	0.39
259	0.392
259	0.393
260	0.394
260	0.395
261	0.396
261	0.396
262	0.397
262	0.397
263	0.397
263	0.397
264	0.398
264	0.398
265	0.398
265	0.398
265	0.397
266	0.397
266	0.397
267	0.397
267	0.396
268	0.395
268	0.394
269	0.393
269	0.392
270	0.391
270	0.39
271	0.389
271	0.387
272	0.386
272	0.385
272	0.384
273	0.383
273	0.381
274	0.38
274	0.379
275	0.378
275	0.376
276	0.375
276	0.373
277	0.371
277	0.369
278	0.367
278	0.365
278	0.363
279	0.361
279	0.359
280	0.357
280	0.356
281	0.354
281	0.353
282	0.352
282	0.351
283	0.35
283	0.349
284	0.349
284	0.348
285	0.347
285	0.346
285	0.344
286	0.343
286	0.342
287	0.341
287	0.34
288	0.339
288	0.337
289	0.336
289	0.335
290	0.334
290	0.333
291	0.332
291	0.331
292	0.33
292	0.329
292	0.328
293	0.327
293	0.326
294	0.325
294	0.324
295	0.323
295	0.322
296	0.321
296	0.32
297	0.32
297	0.319
298	0.318
298	0.317
298	0.317
299	0.316
299	0.315
300	0.315
300	0.314
301	0.313
301	0.313
302	0.312
302	0.311
303	0.311
303	0.31
304	0.309
304	0.308
305	0.308
305	0.307
305	0.306
306	0.305
306	0.304
307	0.304
307	0.303
308	0.302
308	0.301
309	0.3
309	0.299
310	0.299
310	0.298
311	0.297
311	0.296
311	0.296
312	0.295
312	0.294
313	0.293
313	0.292
314	0.291
314	0.291
315	0.29
315	0.289
316	0.288
316	0.287
317	0.286
317	0.285
318	0.284
318	0.283
318	0.283
319	0.282
319	0.281
320	0.28
320	0.279
321	0.278
321	0.277
322	0.276
322	0.276
323	0.275
323	0.274
324	0.273
324	0.272
324	0.271
325	0.271
325	0.27
326	0.269
326	0.269
327	0.268
327	0.267
328	0.266
328	0.265
329	0.264
329	0.264
330	0.263
330	0.262
330	0.261
331	0.26
331	0.259
332	0.259
332	0.258
333	0.257
333	0.256
334	0.256
334	0.255
335	0.254
335	0.253
336	0.253
336	0.252
336	0.251
337	0.25
337	0.25
338	0.249
338	0.248
339	0.247
339	0.247
340	0.246
340	0.245
341	0.244
341	0.244
342	0.243
342	0.242
342	0.242
343	0.241
343	0.241
344	0.24
344	0.24
345	0.239
345	0.238
346	0.238
346	0.237
347	0.237
347	0.236
348	0.235
348	0.235
348	0.234
349	0.233
349	0.232
350	0.232
350	0.231
351	0.23
351	0.229
352	0.228
352	0.228
353	0.227
353	0.226
354	0.225
354	0.224
354	0.223
355	0.222
355	0.221
356	0.22
356	0.219
357	0.218
357	0.218
358	0.217
358	0.218
359	0.218
359	0.219
360	0.219
360	0.22
360	0.221
361	0.221
361	0.222
362	0.223
362	0.223
363	0.223
363	0.223
364	0.222
364	0.222
365	0.221
365	0.221
366	0.221
366	0.22
366	0.22
367	0.22
367	0.22
368	0.219
368	0.219
369	0.218
369	0.218
370	0.218
370	0.217
371	0.217
371	0.216
372	0.216
372	0.216
372	0.215
373	0.215
373	0.215
374	0.215
374	0.215
375	0.214
375	0.214
376	0.214
376	0.214
377	0.215
377	0.215
378	0.215
378	0.215
378	0.215
379	0.216
379	0.216
380	0.216
380	0.216
381	0.216
381	0.215
382	0.215
382	0.214
383	0.214
383	0.214
383	0.213
384	0.213
384	0.212
385	0.212
385	0.212
386	0.212
386	0.212
387	0.212
387	0.212
388	0.211
388	0.211
389	0.211
389	0.211
389	0.211
390	0.211
390	0.211
391	0.211
391	0.211
392	0.211
392	0.211
393	0.211
393	0.212
394	0.212
394	0.212
394	0.211
395	0.211
395	0.211
396	0.211
396	0.211
397	0.211
397	0.211
398	0.211
398	0.211
399	0.21
399	0.21
400	0.21
400	0.21
400	0.209
401	0.209
401	0.208
402	0.207
402	0.206
403	0.206
403	0.205
404	0.205
404	0.205
405	0.205
405	0.204
405	0.204
406	0.204
406	0.204
407	0.204
407	0.204
408	0.204
408	0.203
409	0.203
409	0.202
410	0.202
410	0.202
411	0.202
411	0.202
411	0.202
412	0.201
412	0.201
413	0.201
413	0.201
414	0.2
414	0.2
415	0.2
415	0.199
416	0.199
416	0.198
416	0.198
417	0.198
417	0.198
418	0.198
418	0.198
419	0.198
419	0.199
420	0.2
420	0.201
421	0.201
421	0.201
421	0.202
422	0.202
422	0.202
423	0.202
423	0.202
424	0.201
424	0.2
425	0.199
425	0.198
426	0.198
426	0.197
427	0.197
427	0.197
427	0.197
428	0.198
428	0.199
429	0.199
429	0.2
430	0.2
430	0.2
431	0.2
431	0.2
432	0.2
432	0.199
432	0.198
433	0.197
433	0.196
434	0.196
434	0.195
435	0.195
435	0.195
436	0.195
436	0.195
437	0.195
437	0.195
437	0.195
438	0.195
438	0.195
439	0.195
439	0.194
440	0.194
440	0.194
441	0.194
441	0.194
442	0.194
442	0.195
442	0.196
443	0.196
443	0.197
444	0.197
444	0.197
445	0.198
445	0.198
446	0.198
446	0.198
447	0.198
447	0.198
447	0.198
448	0.197
448	0.197
449	0.197
449	0.197
450	0.196
450	0.196
451	0.196
451	0.195
452	0.195
452	0.195
452	0.194
453	0.194
453	0.193
454	0.193
454	0.192
455	0.192
455	0.191
456	0.191
456	0.191
457	0.191
457	0.19
458	0.19
458	0.191
458	0.191
459	0.191
459	0.192
460	0.191
460	0.191
461	0.19
461	0.19
462	0.19
462	0.19
463	0.191
463	0.191
463	0.192
464	0.192
464	0.192
465	0.193
465	0.193
466	0.193
466	0.193
467	0.193
467	0.193
467	0.193
468	0.191
468	0.19
469	0.189
469	0.187
470	0.187
470	0.187
471	0.186
471	0.186
472	0.186
472	0.187
472	0.187
473	0.188
473	0.189
474	0.19
474	0.191
475	0.192
475	0.193
476	0.193
476	0.193
477	0.194
477	0.194
477	0.194
478	0.195
478	0.195
479	0.196
479	0.197
480	0.197
480	0.198
481	0.199
481	0.2
482	0.201
482	0.202
482	0.203
483	0.205
483	0.208
484	0.211
484	0.213
485	0.215
485	0.217
486	0.218
486	0.219
487	0.22
487	0.221
487	0.221
488	0.221
488	0.22
489	0.219
489	0.218
490	0.217
490	0.216
491	0.216
491	0.216
492	0.217
492	0.217
492	0.218
493	0.219
493	0.22
494	0.222
494	0.224
495	0.226
495	0.228
496	0.229
496	0.23
496	0.231
497	0.232
497	0.233
498	0.234
498	0.235
499	0.235
499	0.236
500	0.236
500	0.238
501	0.24
501	0.241
501	0.243
502	0.245
502	0.246
503	0.248
503	0.249
504	0.251
504	0.251
505	0.252
505	0.252
506	0.253
506	0.254
506	0.255
507	0.255
507	0.256
508	0.257
508	0.257
509	0.258
509	0.259
510	0.26
510	0.261
511	0.261
511	0.261
511	0.261
512	0.261
512	0.262
513	0.262
513	0.261
514	0.261
514	0.26
515	0.259
515	0.258
515	0.258
516	0.257
516	0.257
517	0.258
517	0.258
518	0.258
518	0.258
519	0.258
519	0.256
520	0.255
520	0.253
520	0.251
521	0.249
521	0.246
522	0.243
522	0.241
523	0.239
523	0.238
524	0.238
524	0.239
524	0.241
525	0.242
525	0.245
526	0.248
526	0.251
527	0.254
527	0.256
528	0.259
528	0.261
529	0.262
529	0.263
529	0.263
530	0.264
530	0.264
531	0.264
531	0.264
532	0.264
532	0.264
533	0.264
533	0.264
533	0.263
534	0.263
534	0.262
535	0.261
535	0.26
536	0.26
536	0.259
537	0.258
537	0.257
538	0.256
538	0.255
538	0.253
539	0.252
539	0.251
540	0.25
540	0.249
541	0.247
541	0.245
542	0.243
542	0.241
542	0.239
543	0.238
543	0.237
544	0.235
544	0.234
545	0.232
545	0.232
546	0.231
546	0.23
547	0.228
547	0.226
547	0.224
548	0.221
548	0.218
549	0.216
549	0.214
550	0.212
550	0.21
551	0.207
551	0.205
551	0.202
552	0.201
552	0.2
553	0.199
553	0.198
554	0.198
554	0.196
555	0.194
555	0.191
556	0.188
556	0.185
556	0.182
557	0.179
557	0.177
558	0.175
558	0.173
559	0.171
559	0.17
560	0.17
560	0.169
560	0.169
561	0.169
561	0.169
562	0.169
562	0.168
563	0.166
563	0.164
564	0.161
564	0.158
564	0.155
565	0.153
565	0.151
566	0.15
566	0.148
567	0.148
567	0.148
568	0.149
568	0.15
568	0.151
569	0.153
569	0.154
570	0.155
570	0.155
571	0.155
571	0.155
572	0.155
572	0.155
573	0.155
573	0.154
573	0.153
574	0.152
574	0.151
575	0.15
575	0.151
576	0.151
576	0.15
577	0.149
577	0.148
577	0.147
578	0.146
578	0.146
579	0.147
579	0.148
580	0.148
580	0.145
581	0.143
581	0.141
581	0.14
582	0.14
582	0.139
583	0.14
583	0.139
584	0.136
584	0.132
585	0.131
585	0.13
585	0.13
586	0.13
586	0.13
587	0.129
587	0.127
588	0.125
588	0.123
589	0.122
589	0.121
590	0.12
590	0.119
590	0.12
591	0.12
591	0.12
592	0.119
592	0.118
593	0.118
593	0.118
594	0.117
594	0.116
594	0.115
595	0.114
595	0.113
596	0.111
596	0.112
597	0.114
597	0.116
598	0.117
598	0.118
598	0.119
599	0.12
599	0.12
600	0.119
600	0.118
601	0.118
601	0.116
602	0.114
602	0.113
602	0.111
603	0.11
603	0.11
604	0.11
604	0.111
605	0.112
605	0.114
606	0.114
606	0.113
606	0.113
607	0.113
607	0.113
608	0.112
608	0.111
609	0.11
609	0.109
610	0.108
610	0.106
610	0.106
611	0.106
611	0.107
612	0.108
612	0.109
613	0.11
613	0.112
614	0.112
614	0.111
614	0.112
615	0.111
615	0.111
616	0.11
616	0.11
617	0.109
617	0.108
618	0.107
618	0.107
618	0.106
619	0.107
619	0.107
620	0.109
620	0.11
621	0.111
621	0.112
622	0.113
622	0.114
622	0.114
623	0.114
623	0.115
624	0.116
624	0.116
625	0.116
625	0.117
626	0.116
626	0.117
626	0.117
627	0.117
627	0.118
628	0.118
628	0.118
629	0.119
629	0.119
630	0.118
630	0.118
630	0.119
631	0.119
631	0.12
632	0.12
632	0.121
633	0.122
633	0.123
634	0.124
634	0.126
634	0.129
635	0.13
635	0.132
636	0.133
636	0.135
637	0.136
637	0.137
638	0.139
638	0.14
638	0.142
639	0.143
639	0.144
640	0.145
640	0.147
641	0.149
641	0.151
642	0.153
642	0.155
642	0.157
643	0.159
643	0.16
644	0.162
644	0.164
645	0.166
645	0.168
646	0.17
646	0.173
646	0.177
647	0.18
647	0.183
648	0.186
648	0.189
649	0.192
649	0.195
650	0.198
650	0.201
650	0.204
651	0.206
651	0.209
652	0.211
652	0.213
653	0.217
653	0.226
653	0.231
654	0.187
654	0.154
655	0.159
655	0.162
656	0.164
656	0.165
657	0.167
657	0.169
657	0.17
658	0.166
658	0.16
659	0.2
659	0.254
660	0.257
660	0.259
661	0.26
661	0.262
661	0.265
662	0.268
662	0.272
663	0.275
663	0.279
664	0.282
664	0.284
665	0.287
665	0.29
665	0.293
666	0.295
666	0.298
667	0.301
667	0.304
668	0.307
668	0.31
669	0.313
669	0.316
669	0.321
670	0.325
670	0.329
671	0.332
671	0.334
672	0.336
672	0.337
672	0.339
673	0.34
673	0.341
674	0.342
674	0.343
675	0.343
675	0.344
676	0.346
676	0.348
676	0.35
677	0.352
677	0.355
678	0.357
678	0.358
679	0.36
679	0.361
680	0.363
680	0.364
680	0.365
681	0.365
681	0.366
682	0.367
682	0.368
683	0.37
683	0.372
684	0.374
684	0.376
684	0.376
685	0.377
685	0.378
686	0.38
686	0.38
687	0.38
687	0.38
687	0.38
688	0.379
688	0.378
689	0.378
689	0.379
690	0.379
690	0.378
691	0.378
691	0.378
691	0.377
692	0.377
692	0.376
693	0.376
693	0.376
694	0.375
694	0.374
695	0.374
695	0.375
695	0.376
696	0.375
696	0.374
697	0.374
697	0.373
698	0.371
698	0.369
698	0.367
699	0.365
699	0.362
700	0.358
700	0.356
701	0.354
701	0.352
702	0.349
702	0.347
702	0.345
703	0.344
703	0.342
704	0.34
704	0.338
705	0.337
705	0.335
705	0.334
706	0.332
706	0.33
707	0.328
707	0.326
708	0.323
708	0.322
709	0.32
709	0.318
709	0.315
710	0.312
710	0.31
711	0.308
711	0.306
712	0.304
712	0.303
713	0.3
713	0.298
713	0.295
714	0.292
714	0.29
715	0.287
715	0.284
716	0.281
716	0.278
716	0.275
717	0.273
717	0.271
718	0.268
718	0.266
719	0.264
719	0.263
720	0.262
720	0.26
720	0.257
721	0.254
721	0.251
722	0.249
722	0.246
723	0.243
723	0.24
723	0.238
724	0.234
724	0.231
725	0.228
725	0.226
726	0.223
726	0.221
727	0.218
727	0.216
727	0.214
728	0.212
728	0.211
729	0.21
729	0.209
730	0.207
730	0.205
730	0.204
731	0.203
731	0.201
732	0.2
732	0.199
733	0.197
733	0.195
734	0.193
734	0.19
734	0.188
735	0.187
735	0.185
736	0.183
736	0.181
737	0.18
737	0.178
737	0.177
738	0.175
738	0.172
739	0.17
739	0.168
740	0.165
740	0.163
741	0.162
741	0.159
741	0.156
742	0.151
742	0.147
743	0.144
743	0.142
744	0.139
744	0.137
744	0.134
745	0.132
745	0.129
746	0.127
746	0.125
747	0.123
747	0.123
748	0.122
748	0.121
748	0.119
749	0.118
749	0.117
750	0.115
750	0.114
751	0.114
751	0.113
751	0.113
752	0.112
752	0.111
753	0.11
753	0.109
754	0.109
754	0.108
754	0.108
755	0.107
755	0.107
756	0.106
756	0.104
757	0.102
757	0.101
758	0.1
758	0.099
758	0.097
759	0.096
759	0.093
760	0.09
760	0.087
761	0.085
761	0.083
761	0.081
762	0.079
762	0.078
763	0.077
763	0.075
764	0.072
764	0.071
764	0.069
765	0.067
765	0.066
766	0.065
766	0.065
767	0.064
767	0.062
768	0.059
768	0.057
768	0.056
769	0.055
769	0.055
770	0.053
770	0.051
771	0.049
771	0.046
771	0.042
772	0.04
772	0.038
773	0.035
773	0.032
774	0.029
774	0.026
775	0.023
775	0.019
775	0.016
776	0.012
776	0.008
777	0.004
777	-0
778	-0.005
778	-0.01
778	-0.015
779	-0.019
779	-0.023
780	-0.028
780	-0.034
781	-0.04
781	-0.046
781	-0.051
782	-0.056
782	-0.061
783	-0.066
783	-0.07
784	-0.074
784	-0.077
784	-0.079
785	-0.082
785	-0.084
786	-0.084
786	-0.082
787	-0.078
787	-0.075
788	-0.074
788	-0.074
788	-0.075
789	-0.077
789	-0.077
790	-0.074
790	-0.073
791	-0.073
791	-0.075
791	-0.077
792	-0.072
792	-0.063
793	-0.057
793	-0.053
794	-0.052
794	-0.053
794	-0.057
795	-0.059
795	-0.058
796	-0.058
796	-0.061
797	-0.069
797	-0.078
797	-0.084
798	-0.089
798	-0.092
799	-0.092
799	-0.092
800	-0.092
800	-0.094
801	-0.097
801	-0.099
801	-0.099
802	-0.101
802	-0.103
803	-0.104
803	-0.104
804	-0.103
804	-0.098
804	-0.092
805	-0.089
805	-0.087
806	-0.085
806	-0.083
807	-0.082
807	-0.081
807	-0.081
808	-0.08
808	-0.081
809	-0.085
809	-0.09
810	-0.093
810	-0.095
810	-0.098
811	-0.1
811	-0.1
812	-0.096
812	-0.093
813	-0.093
813	-0.094
813	-0.095
814	-0.096
814	-0.096
815	-0.093
815	-0.091
816	-0.089
816	-0.089
817	-0.094
817	-0.097
817	-0.098
818	-0.097
818	-0.094
819	-0.089
819	-0.086
820	-0.087
820	-0.089
820	-0.089
821	-0.086
821	-0.082
822	-0.077
822	-0.072
823	-0.066
823	-0.062
823	-0.06
824	-0.055
824	-0.047
825	-0.038
825	-0.029
826	-0.022
826	-0.016
826	-0.01
827	-0.005
827	0
828	0.005
828	0.009
829	0.013
829	0.017
829	0.019
830	0.022
830	0.025
831	0.028
831	0.031
832	0.033
832	0.035
832	0.037
833	0.039
833	0.04
834	0.042
834	0.043
835	0.044
835	0.045
835	0.045
836	0.046
836	0.046
837	0.047
837	0.047
838	0.047
838	0.046
839	0.046
839	0.046
839	0.046
840	0.046
840	0.046
841	0.046
841	0.047
842	0.048
842	0.049
842	0.049
843	0.051
843	0.052
844	0.053
844	0.054
845	0.055
845	0.057
845	0.058
846	0.059
846	0.06
847	0.061
847	0.063
848	0.064
848	0.065
848	0.066
849	0.067
849	0.067
850	0.067
850	0.067
851	0.068
851	0.068
851	0.068
852	0.069
852	0.069
853	0.069
853	0.07
854	0.07
854	0.071
854	0.071
855	0.072
855	0.072
856	0.072
856	0.072
857	0.072
857	0.072
857	0.071
858	0.071
858	0.07
859	0.07
859	0.069
860	0.069
860	0.068
860	0.067
861	0.067
861	0.066
862	0.065
862	0.064
863	0.064
863	0.063
863	0.063
864	0.063
864	0.063
865	0.064
865	0.064
866	0.065
866	0.066
866	0.067
867	0.068
867	0.069
868	0.07
868	0.071
869	0.072
869	0.073
869	0.073
870	0.073
870	0.072
871	0.072
871	0.072
872	0.071
872	0.07
872	0.069
873	0.069
873	0.068
874	0.068
874	0.068
875	0.069
875	0.069
875	0.07
876	0.07
876	0.07
877	0.07
877	0.07
878	0.07
878	0.07
878	0.069
879	0.069
879	0.069
880	0.068
880	0.068
881	0.067
881	0.067
881	0.067
882	0.066
882	0.066
883	0.066
883	0.066
884	0.066
884	0.066
884	0.066
885	0.066
885	0.067
886	0.067
886	0.067
887	0.067
887	0.068
887	0.068
888	0.068
888	0.068
889	0.068
889	0.069
890	0.069
890	0.069
890	0.07
891	0.07
891	0.07
892	0.071
892	0.071
893	0.072
893	0.072
893	0.073
894	0.073
894	0.073
895	0.074
895	0.074
895	0.075
896	0.075
896	0.076
897	0.076
897	0.077
898	0.078
898	0.078
898	0.078
899	0.078
899	0.078
900	0.078
900	0.078
901	0.078
901	0.077
901	0.077
902	0.076
902	0.076
903	0.075
903	0.074
904	0.074
904	0.073
904	0.072
905	0.072
905	0.071
906	0.071
906	0.071
907	0.07
907	0.07
907	0.07
908	0.071
908	0.071
909	0.072
909	0.072
910	0.073
910	0.074
910	0.075
911	0.076
911	0.076
912	0.078
912	0.079
913	0.079
913	0.08
913	0.081
914	0.081
914	0.082
915	0.082
915	0.081
916	0.08
916	0.08
916	0.079
917	0.078
917	0.077
918	0.076
918	0.076
918	0.075
919	0.074
919	0.074
920	0.074
920	0.075
921	0.075
921	0.075
921	0.075
922	0.075
922	0.076
923	0.075
923	0.075
924	0.075
924	0.075
924	0.074
925	0.073
925	0.072
926	0.071
926	0.071
927	0.07
927	0.069
927	0.068
928	0.068
928	0.068
929	0.068
929	0.069
930	0.069
930	0.07
930	0.072
931	0.073
931	0.074
932	0.076
932	0.077
933	0.078
933	0.08
933	0.081
934	0.081
934	0.082
935	0.082
935	0.082
935	0.083
936	0.083
936	0.083
937	0.084
937	0.084
938	0.085
938	0.085
938	0.086
939	0.087
939	0.088
940	0.088
940	0.088
941	0.089
941	0.089
941	0.089
942	0.088
942	0.087
943	0.087
943	0.086
944	0.085
944	0.085
944	0.085
945	0.085
945	0.085
946	0.085
946	0.085
946	0.085
947	0.085
947	0.084
948	0.084
948	0.083
949	0.083
949	0.083
949	0.082
950	0.082
950	0.082
951	0.082
951	0.081
952	0.081
952	0.081
952	0.081
953	0.082
953	0.082
954	0.081
954	0.081
955	0.081
955	0.081
955	0.081
956	0.082
956	0.081
957	0.081
957	0.081
957	0.08
958	0.079
958	0.079
959	0.078
959	0.077
960	0.076
960	0.075
960	0.073
961	0.072
961	0.072
962	0.071
962	0.07
963	0.07
963	0.07
963	0.07
964	0.069
964	0.07
965	0.07
965	0.071
966	0.072
966	0.072
966	0.073
967	0.074
967	0.074
968	0.074
968	0.074
968	0.074
969	0.073
969	0.073
970	0.072
970	0.071
971	0.07
971	0.069
971	0.069
972	0.068
972	0.068
973	0.067
973	0.067
974	0.067
974	0.067
974	0.068
975	0.069
975	0.07
976	0.071
976	0.072
976	0.073
977	0.073
977	0.074
978	0.074
978	0.075
979	0.075
979	0.076
979	0.076
980	0.076
980	0.076
981	0.076
981	0.076
982	0.077
982	0.077
982	0.077
983	0.078
983	0.078
984	0.077
984	0.077
984	0.077
985	0.077
985	0.077
986	0.076
986	0.075
987	0.074
987	0.073
987	0.072
988	0.072
988	0.071
989	0.07
989	0.07
990	0.069
990	0.069
990	0.069
991	0.07
991	0.071
992	0.071
992	0.072
992	0.072
993	0.072
993	0.072
994	0.072
994	0.072
995	0.072
995	0.072
995	0.071
996	0.071
996	0.07
997	0.07
997	0.07
997	0.07
998	0.071
998	0.071
999	0.072
999	0.072
1000	0.073
1000	0.074
1000	0.075
1001	0.076
1001	0.077
1002	0.077
1002	0.078
1003	0.078
1003	0.078
1003	0.078
1004	0.078
1004	0.077
1005	0.077
1005	0.076
1005	0.076
1006	0.075
1006	0.074
1007	0.074
1007	0.073
1008	0.073
1008	0.073
1008	0.072
1009	0.072
1009	0.072
1010	0.072
1010	0.073
1010	0.073
1011	0.073
1011	0.073
1012	0.073
1012	0.073
1013	0.074
1013	0.073
1013	0.073
1014	0.072
1014	0.072
1015	0.071
1015	0.071
1016	0.07
1016	0.069
1016	0.068
1017	0.067
1017	0.065
1018	0.065
1018	0.064
1018	0.063
1019	0.062
1019	0.061
1020	0.061
1020	0.06
1021	0.059
1021	0.059
1021	0.059
1022	0.059
1022	0.059
1023	0.058
1023	0.058
1023	0.058
1024	0.058
1024	0.057
1025	0.056
1025	0.056
1026	0.056
1026	0.055
1026	0.055
1027	0.055
1027	0.055
1028	0.055
1028	0.055
1028	0.055
1029	0.056
1029	0.056
1030	0.057
1030	0.057
1031	0.058
1031	0.058
1031	0.058
1032	0.059
1032	0.059
1033	0.059
1033	0.059
1033	0.059
1034	0.059
1034	0.059
1035	0.059
1035	0.058
1036	0.058
1036	0.058
1036	0.058
1037	0.059
1037	0.059
1038	0.06
1038	0.061
1039	0.062
1039	0.063
1039	0.064
1040	0.065
1040	0.065
1041	0.066
1041	0.066
1041	0.066
1042	0.065
1042	0.065
1043	0.065
1043	0.065
1044	0.065
1044	0.064
1044	0.064
1045	0.064
1045	0.064
1046	0.064
1046	0.064
1046	0.065
1047	0.065
1047	0.065
1048	0.065
1048	0.065
1049	0.065
1049	0.064
1049	0.063
1050	0.062
1050	0.062
1051	0.061
1051	0.061
1051	0.06
1052	0.06
1052	0.059
1053	0.059
1053	0.059
1053	0.059
1054	0.059
1054	0.059
1055	0.059
1055	0.06
1056	0.059
1056	0.059
1056	0.059
1057	0.059
1057	0.06
1058	0.061
1058	0.061
1058	0.063
1059	0.064
1059	0.065
1060	0.066
1060	0.067
1061	0.069
1061	0.07
1061	0.071
1062	0.072
1062	0.073
1063	0.073
1063	0.074
1063	0.074
1064	0.075
1064	0.076
1065	0.077
1065	0.077
1066	0.078
1066	0.079
1066	0.08
1067	0.081
1067	0.082
1068	0.083
1068	0.084
1068	0.084
1069	0.085
1069	0.085
1070	0.086
1070	0.087
1071	0.088
1071	0.089
1071	0.09
1072	0.091
1072	0.093
1073	0.095
1073	0.097
1073	0.098
1074	0.099
1074	0.101
1075	0.101
1075	0.102
1076	0.102
1076	0.103
1076	0.104
1077	0.104
1077	0.105
1078	0.106
1078	0.108
1078	0.109
1079	0.111
1079	0.113
1080	0.115
1080	0.117
1080	0.118
1081	0.12
1081	0.122
1082	0.124
1082	0.125
1083	0.127
1083	0.129
1083	0.131
1084	0.134
1084	0.137
1085	0.139
1085	0.142
1085	0.145
1086	0.148
1086	0.15
1087	0.154
1087	0.157
1088	0.16
1088	0.163
1088	0.167
1089	0.17
1089	0.175
1090	0.179
1090	0.185
1090	0.19
1091	0.197
1091	0.204
1092	0.212
1092	0.221
1092	0.229
1093	0.236
1093	0.246
1094	0.255
1094	0.265
1095	0.274
1095	0.286
1095	0.3
1096	0.313
1096	0.327
1097	0.345
1097	0.362
1097	0.382
1098	0.401
1098	0.424
1099	0.45
1099	0.479
1100	0.512
1100	0.548
1100	0.59
1101	0.644
1101	0.704
1102	0.79
1102	0.899
1102	1.059
1103	1.328
1103	2.248
1104	-0
1104	-0
1104	-0
1105	-0
1105	-0
1106	-0
1106	-0
1107	-0
1107	-0
1107	-0
1108	-0
1108	-0
1109	-0
1109	-0
1109	-0
1110	-0
1110	-0
1111	-0
1111	-0
