Data from 15c-2-3a_Absorbance__305__02113.txt Node

Date: Tue Jan 16 12:57:18 CET 2024
User: Marek
Spectrometer: MAYP115816
Trigger mode: 0
Integration Time (sec): 2.000000E-1
Scans to average: 10
Electric dark correction enabled: true
Nonlinearity correction enabled: true
Boxcar width: 5
XAxis mode: Wavelengths
Number of Pixels in Spectrum: 2068
>>>>>Begin Spectral Data<<<<<
199	-2.071
199	-1.883
200	-1.749
200	-1.63
201	-1.556
201	-1.505
202	-1.429
202	-1.368
203	-1.32
203	-1.272
204	-1.246
204	-1.22
205	-1.201
205	-1.189
205	-1.186
206	-1.18
206	-1.177
207	-1.175
207	-1.174
208	-1.17
208	-1.169
209	-1.165
209	-1.163
210	-1.162
210	-1.159
211	-1.158
211	-1.158
212	-1.157
212	-1.156
213	-1.155
213	-1.154
213	-1.154
214	-1.152
214	-1.151
215	-1.15
215	-1.15
216	-1.147
216	-1.146
217	-1.142
217	-1.14
218	-1.136
218	-1.132
219	-1.127
219	-1.127
220	-1.124
220	-1.123
221	-1.119
221	-1.118
221	-1.113
222	-1.109
222	-1.104
223	-1.099
223	-1.094
224	-1.088
224	-1.079
225	-1.07
225	-1.061
226	-1.052
226	-1.042
227	-1.029
227	-1.016
228	-1
228	-0.984
229	-0.963
229	-0.939
229	-0.914
230	-0.885
230	-0.853
231	-0.817
231	-0.778
232	-0.739
232	-0.696
233	-0.651
233	-0.604
234	-0.556
234	-0.508
235	-0.459
235	-0.412
236	-0.364
236	-0.317
236	-0.271
237	-0.227
237	-0.184
238	-0.144
238	-0.106
239	-0.069
239	-0.035
240	-0.002
240	0.027
241	0.055
241	0.081
242	0.105
242	0.127
243	0.148
243	0.167
243	0.184
244	0.2
244	0.215
245	0.229
245	0.241
246	0.253
246	0.265
247	0.275
247	0.284
248	0.293
248	0.302
249	0.309
249	0.316
250	0.323
250	0.33
250	0.336
251	0.341
251	0.346
252	0.351
252	0.356
253	0.36
253	0.364
254	0.368
254	0.372
255	0.375
255	0.378
256	0.381
256	0.383
257	0.386
257	0.388
258	0.389
258	0.391
258	0.393
259	0.394
259	0.395
260	0.396
260	0.397
261	0.397
261	0.398
262	0.399
262	0.399
263	0.4
263	0.4
264	0.4
264	0.4
265	0.4
265	0.4
265	0.4
266	0.4
266	0.399
267	0.399
267	0.398
268	0.397
268	0.396
269	0.395
269	0.394
270	0.393
270	0.392
271	0.391
271	0.39
272	0.388
272	0.387
272	0.386
273	0.385
273	0.383
274	0.382
274	0.381
275	0.38
275	0.378
276	0.377
276	0.375
277	0.373
277	0.371
278	0.369
278	0.367
278	0.365
279	0.362
279	0.36
280	0.359
280	0.357
281	0.356
281	0.355
282	0.354
282	0.353
283	0.352
283	0.351
284	0.35
284	0.35
285	0.349
285	0.347
285	0.346
286	0.345
286	0.344
287	0.342
287	0.341
288	0.34
288	0.339
289	0.338
289	0.337
290	0.335
290	0.335
291	0.334
291	0.332
292	0.331
292	0.33
292	0.329
293	0.328
293	0.327
294	0.326
294	0.326
295	0.325
295	0.324
296	0.323
296	0.322
297	0.321
297	0.321
298	0.32
298	0.319
298	0.318
299	0.318
299	0.317
300	0.316
300	0.315
301	0.314
301	0.314
302	0.313
302	0.312
303	0.312
303	0.311
304	0.31
304	0.31
305	0.309
305	0.308
305	0.307
306	0.307
306	0.306
307	0.305
307	0.304
308	0.303
308	0.302
309	0.301
309	0.3
310	0.3
310	0.299
311	0.298
311	0.298
311	0.297
312	0.296
312	0.295
313	0.294
313	0.293
314	0.293
314	0.292
315	0.291
315	0.29
316	0.289
316	0.288
317	0.288
317	0.287
318	0.286
318	0.285
318	0.284
319	0.283
319	0.282
320	0.281
320	0.28
321	0.279
321	0.278
322	0.278
322	0.277
323	0.276
323	0.275
324	0.274
324	0.274
324	0.272
325	0.272
325	0.271
326	0.27
326	0.269
327	0.269
327	0.268
328	0.267
328	0.266
329	0.265
329	0.264
330	0.264
330	0.263
330	0.262
331	0.261
331	0.26
332	0.26
332	0.259
333	0.258
333	0.257
334	0.256
334	0.256
335	0.255
335	0.254
336	0.254
336	0.253
336	0.252
337	0.251
337	0.25
338	0.25
338	0.249
339	0.248
339	0.248
340	0.247
340	0.246
341	0.246
341	0.245
342	0.244
342	0.244
342	0.243
343	0.242
343	0.242
344	0.241
344	0.241
345	0.24
345	0.24
346	0.239
346	0.238
347	0.238
347	0.237
348	0.236
348	0.236
348	0.235
349	0.234
349	0.234
350	0.233
350	0.232
351	0.231
351	0.23
352	0.229
352	0.229
353	0.228
353	0.227
354	0.226
354	0.225
354	0.224
355	0.223
355	0.222
356	0.221
356	0.22
357	0.219
357	0.218
358	0.218
358	0.218
359	0.219
359	0.22
360	0.22
360	0.221
360	0.221
361	0.222
361	0.223
362	0.224
362	0.224
363	0.224
363	0.224
364	0.223
364	0.223
365	0.222
365	0.222
366	0.222
366	0.221
366	0.221
367	0.221
367	0.22
368	0.22
368	0.219
369	0.219
369	0.219
370	0.218
370	0.218
371	0.217
371	0.217
372	0.216
372	0.216
372	0.216
373	0.215
373	0.215
374	0.215
374	0.215
375	0.215
375	0.215
376	0.215
376	0.215
377	0.215
377	0.215
378	0.215
378	0.215
378	0.216
379	0.216
379	0.216
380	0.216
380	0.216
381	0.216
381	0.216
382	0.215
382	0.215
383	0.215
383	0.214
383	0.214
384	0.213
384	0.213
385	0.213
385	0.213
386	0.213
386	0.212
387	0.212
387	0.212
388	0.212
388	0.212
389	0.211
389	0.211
389	0.211
390	0.211
390	0.211
391	0.211
391	0.212
392	0.212
392	0.212
393	0.212
393	0.212
394	0.212
394	0.212
394	0.212
395	0.212
395	0.211
396	0.211
396	0.211
397	0.211
397	0.211
398	0.211
398	0.211
399	0.211
399	0.211
400	0.211
400	0.21
400	0.21
401	0.209
401	0.208
402	0.207
402	0.207
403	0.206
403	0.206
404	0.206
404	0.206
405	0.206
405	0.205
405	0.205
406	0.205
406	0.205
407	0.205
407	0.205
408	0.204
408	0.204
409	0.203
409	0.203
410	0.203
410	0.203
411	0.203
411	0.203
411	0.202
412	0.202
412	0.202
413	0.201
413	0.201
414	0.201
414	0.2
415	0.2
415	0.2
416	0.199
416	0.199
416	0.199
417	0.198
417	0.198
418	0.198
418	0.199
419	0.199
419	0.2
420	0.2
420	0.201
421	0.202
421	0.202
421	0.202
422	0.202
422	0.202
423	0.202
423	0.202
424	0.201
424	0.201
425	0.2
425	0.199
426	0.198
426	0.198
427	0.198
427	0.198
427	0.198
428	0.199
428	0.199
429	0.2
429	0.201
430	0.201
430	0.201
431	0.201
431	0.2
432	0.2
432	0.2
432	0.199
433	0.198
433	0.197
434	0.196
434	0.196
435	0.196
435	0.196
436	0.196
436	0.196
437	0.196
437	0.196
437	0.196
438	0.196
438	0.196
439	0.195
439	0.195
440	0.195
440	0.195
441	0.195
441	0.195
442	0.195
442	0.196
442	0.197
443	0.197
443	0.198
444	0.198
444	0.199
445	0.199
445	0.199
446	0.2
446	0.199
447	0.199
447	0.199
447	0.199
448	0.199
448	0.198
449	0.198
449	0.198
450	0.197
450	0.197
451	0.197
451	0.196
452	0.196
452	0.196
452	0.195
453	0.195
453	0.194
454	0.193
454	0.193
455	0.193
455	0.192
456	0.192
456	0.192
457	0.192
457	0.192
458	0.192
458	0.192
458	0.192
459	0.193
459	0.193
460	0.192
460	0.192
461	0.192
461	0.191
462	0.191
462	0.191
463	0.192
463	0.192
463	0.193
464	0.194
464	0.194
465	0.194
465	0.194
466	0.194
466	0.194
467	0.195
467	0.194
467	0.194
468	0.192
468	0.191
469	0.189
469	0.188
470	0.188
470	0.187
471	0.187
471	0.187
472	0.187
472	0.187
472	0.187
473	0.189
473	0.19
474	0.191
474	0.192
475	0.193
475	0.193
476	0.194
476	0.194
477	0.195
477	0.195
477	0.195
478	0.196
478	0.196
479	0.197
479	0.197
480	0.198
480	0.199
481	0.2
481	0.201
482	0.202
482	0.203
482	0.204
483	0.206
483	0.209
484	0.212
484	0.214
485	0.216
485	0.218
486	0.219
486	0.22
487	0.221
487	0.222
487	0.222
488	0.222
488	0.221
489	0.22
489	0.219
490	0.218
490	0.217
491	0.217
491	0.218
492	0.218
492	0.219
492	0.219
493	0.22
493	0.222
494	0.224
494	0.226
495	0.228
495	0.23
496	0.231
496	0.232
496	0.233
497	0.234
497	0.235
498	0.236
498	0.237
499	0.237
499	0.238
500	0.238
500	0.24
501	0.242
501	0.243
501	0.245
502	0.247
502	0.248
503	0.25
503	0.251
504	0.252
504	0.253
505	0.254
505	0.255
506	0.255
506	0.256
506	0.257
507	0.257
507	0.258
508	0.258
508	0.259
509	0.26
509	0.261
510	0.262
510	0.262
511	0.262
511	0.262
511	0.262
512	0.263
512	0.263
513	0.263
513	0.263
514	0.262
514	0.262
515	0.261
515	0.26
515	0.26
516	0.259
516	0.259
517	0.26
517	0.26
518	0.26
518	0.26
519	0.26
519	0.259
520	0.257
520	0.255
520	0.253
521	0.251
521	0.248
522	0.245
522	0.243
523	0.241
523	0.24
524	0.24
524	0.242
524	0.243
525	0.245
525	0.248
526	0.251
526	0.254
527	0.257
527	0.259
528	0.261
528	0.263
529	0.264
529	0.265
529	0.265
530	0.265
530	0.266
531	0.266
531	0.266
532	0.266
532	0.265
533	0.265
533	0.265
533	0.265
534	0.265
534	0.264
535	0.263
535	0.262
536	0.262
536	0.261
537	0.26
537	0.26
538	0.259
538	0.257
538	0.255
539	0.254
539	0.254
540	0.253
540	0.251
541	0.249
541	0.247
542	0.245
542	0.243
542	0.242
543	0.241
543	0.239
544	0.237
544	0.236
545	0.234
545	0.234
546	0.233
546	0.232
547	0.23
547	0.228
547	0.225
548	0.222
548	0.22
549	0.217
549	0.215
550	0.213
550	0.211
551	0.208
551	0.206
551	0.204
552	0.202
552	0.201
553	0.2
553	0.199
554	0.199
554	0.197
555	0.195
555	0.192
556	0.19
556	0.186
556	0.184
557	0.181
557	0.179
558	0.177
558	0.175
559	0.173
559	0.172
560	0.172
560	0.171
560	0.171
561	0.171
561	0.171
562	0.171
562	0.169
563	0.167
563	0.165
564	0.162
564	0.159
564	0.157
565	0.155
565	0.153
566	0.151
566	0.15
567	0.149
567	0.149
568	0.15
568	0.151
568	0.152
569	0.154
569	0.155
570	0.156
570	0.155
571	0.156
571	0.156
572	0.156
572	0.156
573	0.155
573	0.155
573	0.153
574	0.152
574	0.151
575	0.151
575	0.152
576	0.152
576	0.151
577	0.149
577	0.148
577	0.147
578	0.147
578	0.147
579	0.148
579	0.149
580	0.148
580	0.146
581	0.143
581	0.142
581	0.141
582	0.14
582	0.14
583	0.14
583	0.139
584	0.137
584	0.133
585	0.132
585	0.131
585	0.131
586	0.131
586	0.131
587	0.13
587	0.128
588	0.126
588	0.124
589	0.123
589	0.122
590	0.121
590	0.12
590	0.121
591	0.121
591	0.121
592	0.12
592	0.119
593	0.119
593	0.118
594	0.117
594	0.116
594	0.115
595	0.115
595	0.113
596	0.112
596	0.112
597	0.115
597	0.116
598	0.117
598	0.119
598	0.12
599	0.12
599	0.12
600	0.12
600	0.119
601	0.118
601	0.117
602	0.115
602	0.113
602	0.112
603	0.111
603	0.111
604	0.111
604	0.112
605	0.113
605	0.114
606	0.115
606	0.114
606	0.114
607	0.113
607	0.113
608	0.113
608	0.111
609	0.11
609	0.11
610	0.108
610	0.107
610	0.106
611	0.107
611	0.107
612	0.108
612	0.109
613	0.111
613	0.112
614	0.112
614	0.112
614	0.112
615	0.111
615	0.111
616	0.111
616	0.11
617	0.11
617	0.109
618	0.108
618	0.107
618	0.107
619	0.107
619	0.108
620	0.11
620	0.111
621	0.112
621	0.113
622	0.113
622	0.114
622	0.114
623	0.115
623	0.116
624	0.117
624	0.117
625	0.117
625	0.117
626	0.117
626	0.117
626	0.118
627	0.118
627	0.119
628	0.119
628	0.119
629	0.12
629	0.12
630	0.12
630	0.119
630	0.12
631	0.12
631	0.121
632	0.121
632	0.121
633	0.122
633	0.123
634	0.125
634	0.127
634	0.129
635	0.131
635	0.133
636	0.134
636	0.136
637	0.137
637	0.138
638	0.14
638	0.141
638	0.143
639	0.144
639	0.145
640	0.146
640	0.148
641	0.15
641	0.152
642	0.154
642	0.156
642	0.158
643	0.16
643	0.161
644	0.163
644	0.165
645	0.167
645	0.169
646	0.172
646	0.175
646	0.178
647	0.182
647	0.185
648	0.188
648	0.191
649	0.194
649	0.197
650	0.2
650	0.203
650	0.205
651	0.208
651	0.21
652	0.212
652	0.215
653	0.218
653	0.227
653	0.233
654	0.188
654	0.154
655	0.16
655	0.162
656	0.164
656	0.166
657	0.168
657	0.169
657	0.17
658	0.167
658	0.16
659	0.2
659	0.255
660	0.258
660	0.259
661	0.261
661	0.263
661	0.266
662	0.269
662	0.273
663	0.276
663	0.28
664	0.283
664	0.285
665	0.288
665	0.291
665	0.294
666	0.297
666	0.3
667	0.303
667	0.306
668	0.309
668	0.312
669	0.315
669	0.318
669	0.323
670	0.327
670	0.331
671	0.334
671	0.336
672	0.337
672	0.339
672	0.34
673	0.342
673	0.343
674	0.344
674	0.345
675	0.345
675	0.346
676	0.347
676	0.35
676	0.351
677	0.354
677	0.356
678	0.358
678	0.36
679	0.361
679	0.363
680	0.364
680	0.366
680	0.366
681	0.367
681	0.368
682	0.369
682	0.37
683	0.372
683	0.374
684	0.376
684	0.377
684	0.377
685	0.378
685	0.379
686	0.381
686	0.381
687	0.382
687	0.381
687	0.381
688	0.38
688	0.379
689	0.379
689	0.38
690	0.38
690	0.38
691	0.379
691	0.379
691	0.379
692	0.378
692	0.378
693	0.377
693	0.377
694	0.377
694	0.375
695	0.375
695	0.377
695	0.377
696	0.376
696	0.375
697	0.375
697	0.374
698	0.372
698	0.37
698	0.368
699	0.366
699	0.363
700	0.359
700	0.357
701	0.355
701	0.353
702	0.351
702	0.349
702	0.347
703	0.345
703	0.343
704	0.341
704	0.34
705	0.338
705	0.337
705	0.335
706	0.333
706	0.331
707	0.329
707	0.327
708	0.325
708	0.323
709	0.321
709	0.319
709	0.316
710	0.313
710	0.311
711	0.309
711	0.307
712	0.305
712	0.303
713	0.301
713	0.299
713	0.296
714	0.293
714	0.29
715	0.288
715	0.285
716	0.281
716	0.279
716	0.276
717	0.273
717	0.271
718	0.269
718	0.266
719	0.265
719	0.263
720	0.262
720	0.26
720	0.257
721	0.255
721	0.252
722	0.249
722	0.246
723	0.244
723	0.241
723	0.238
724	0.235
724	0.232
725	0.229
725	0.226
726	0.224
726	0.221
727	0.219
727	0.216
727	0.215
728	0.212
728	0.211
729	0.21
729	0.209
730	0.207
730	0.205
730	0.204
731	0.203
731	0.202
732	0.201
732	0.199
733	0.197
733	0.195
734	0.193
734	0.191
734	0.189
735	0.188
735	0.186
736	0.183
736	0.181
737	0.18
737	0.179
737	0.177
738	0.175
738	0.172
739	0.17
739	0.168
740	0.165
740	0.164
741	0.162
741	0.16
741	0.156
742	0.152
742	0.148
743	0.145
743	0.142
744	0.14
744	0.137
744	0.135
745	0.132
745	0.13
746	0.127
746	0.125
747	0.124
747	0.123
748	0.122
748	0.121
748	0.12
749	0.118
749	0.117
750	0.116
750	0.115
751	0.114
751	0.114
751	0.114
752	0.113
752	0.111
753	0.11
753	0.11
754	0.109
754	0.108
754	0.108
755	0.108
755	0.107
756	0.106
756	0.104
757	0.103
757	0.102
758	0.101
758	0.1
758	0.098
759	0.097
759	0.094
760	0.091
760	0.088
761	0.085
761	0.084
761	0.082
762	0.08
762	0.079
763	0.077
763	0.075
764	0.073
764	0.071
764	0.069
765	0.067
765	0.066
766	0.065
766	0.065
767	0.064
767	0.062
768	0.059
768	0.057
768	0.056
769	0.056
769	0.055
770	0.053
770	0.052
771	0.049
771	0.046
771	0.043
772	0.041
772	0.039
773	0.036
773	0.033
774	0.03
774	0.026
775	0.023
775	0.02
775	0.017
776	0.013
776	0.009
777	0.005
777	0.001
778	-0.004
778	-0.009
778	-0.014
779	-0.018
779	-0.022
780	-0.027
780	-0.033
781	-0.039
781	-0.044
781	-0.05
782	-0.055
782	-0.061
783	-0.066
783	-0.069
784	-0.073
784	-0.076
784	-0.079
785	-0.082
785	-0.084
786	-0.084
786	-0.082
787	-0.078
787	-0.075
788	-0.074
788	-0.074
788	-0.075
789	-0.077
789	-0.077
790	-0.074
790	-0.073
791	-0.073
791	-0.075
791	-0.077
792	-0.072
792	-0.063
793	-0.057
793	-0.053
794	-0.052
794	-0.053
794	-0.057
795	-0.059
795	-0.058
796	-0.058
796	-0.061
797	-0.069
797	-0.078
797	-0.084
798	-0.089
798	-0.092
799	-0.092
799	-0.092
800	-0.092
800	-0.094
801	-0.097
801	-0.099
801	-0.099
802	-0.101
802	-0.103
803	-0.104
803	-0.104
804	-0.103
804	-0.098
804	-0.092
805	-0.089
805	-0.087
806	-0.085
806	-0.083
807	-0.082
807	-0.081
807	-0.081
808	-0.08
808	-0.081
809	-0.085
809	-0.09
810	-0.093
810	-0.095
810	-0.098
811	-0.1
811	-0.1
812	-0.096
812	-0.093
813	-0.093
813	-0.094
813	-0.095
814	-0.096
814	-0.096
815	-0.093
815	-0.091
816	-0.089
816	-0.09
817	-0.094
817	-0.097
817	-0.098
818	-0.097
818	-0.094
819	-0.089
819	-0.086
820	-0.087
820	-0.089
820	-0.089
821	-0.086
821	-0.082
822	-0.077
822	-0.072
823	-0.066
823	-0.062
823	-0.06
824	-0.055
824	-0.047
825	-0.038
825	-0.029
826	-0.021
826	-0.015
826	-0.01
827	-0.004
827	0.001
828	0.005
828	0.009
829	0.013
829	0.017
829	0.02
830	0.022
830	0.025
831	0.028
831	0.031
832	0.033
832	0.036
832	0.038
833	0.039
833	0.041
834	0.042
834	0.044
835	0.044
835	0.045
835	0.046
836	0.046
836	0.047
837	0.047
837	0.047
838	0.047
838	0.047
839	0.047
839	0.047
839	0.046
840	0.046
840	0.047
841	0.047
841	0.047
842	0.048
842	0.049
842	0.05
843	0.051
843	0.052
844	0.053
844	0.054
845	0.055
845	0.056
845	0.058
846	0.059
846	0.06
847	0.061
847	0.063
848	0.064
848	0.065
848	0.066
849	0.067
849	0.067
850	0.068
850	0.068
851	0.068
851	0.068
851	0.068
852	0.069
852	0.069
853	0.069
853	0.069
854	0.07
854	0.071
854	0.071
855	0.071
855	0.072
856	0.072
856	0.072
857	0.072
857	0.072
857	0.071
858	0.071
858	0.07
859	0.07
859	0.069
860	0.069
860	0.068
860	0.067
861	0.067
861	0.066
862	0.065
862	0.064
863	0.064
863	0.064
863	0.063
864	0.063
864	0.063
865	0.064
865	0.065
866	0.065
866	0.066
866	0.067
867	0.068
867	0.069
868	0.07
868	0.071
869	0.072
869	0.073
869	0.073
870	0.073
870	0.073
871	0.072
871	0.072
872	0.071
872	0.07
872	0.069
873	0.069
873	0.068
874	0.068
874	0.068
875	0.069
875	0.069
875	0.069
876	0.07
876	0.07
877	0.07
877	0.07
878	0.07
878	0.07
878	0.069
879	0.069
879	0.069
880	0.068
880	0.068
881	0.067
881	0.067
881	0.067
882	0.067
882	0.067
883	0.067
883	0.066
884	0.066
884	0.066
884	0.066
885	0.066
885	0.067
886	0.067
886	0.067
887	0.067
887	0.068
887	0.068
888	0.068
888	0.068
889	0.068
889	0.069
890	0.069
890	0.069
890	0.07
891	0.07
891	0.07
892	0.071
892	0.071
893	0.072
893	0.072
893	0.073
894	0.073
894	0.073
895	0.074
895	0.074
895	0.075
896	0.075
896	0.076
897	0.077
897	0.077
898	0.078
898	0.078
898	0.078
899	0.079
899	0.079
900	0.078
900	0.078
901	0.078
901	0.077
901	0.077
902	0.076
902	0.076
903	0.075
903	0.075
904	0.074
904	0.073
904	0.072
905	0.072
905	0.072
906	0.071
906	0.071
907	0.071
907	0.07
907	0.071
908	0.071
908	0.071
909	0.072
909	0.073
910	0.073
910	0.074
910	0.075
911	0.075
911	0.076
912	0.077
912	0.079
913	0.079
913	0.08
913	0.081
914	0.081
914	0.082
915	0.081
915	0.081
916	0.08
916	0.08
916	0.079
917	0.078
917	0.077
918	0.076
918	0.076
918	0.075
919	0.074
919	0.074
920	0.074
920	0.075
921	0.075
921	0.075
921	0.075
922	0.075
922	0.075
923	0.075
923	0.075
924	0.075
924	0.075
924	0.074
925	0.073
925	0.073
926	0.072
926	0.071
927	0.07
927	0.069
927	0.069
928	0.068
928	0.068
929	0.068
929	0.069
930	0.07
930	0.071
930	0.072
931	0.073
931	0.075
932	0.076
932	0.077
933	0.079
933	0.08
933	0.081
934	0.082
934	0.082
935	0.082
935	0.082
935	0.083
936	0.083
936	0.083
937	0.083
937	0.084
938	0.084
938	0.085
938	0.086
939	0.086
939	0.087
940	0.088
940	0.088
941	0.088
941	0.089
941	0.089
942	0.088
942	0.088
943	0.087
943	0.086
944	0.085
944	0.085
944	0.085
945	0.085
945	0.085
946	0.085
946	0.084
946	0.084
947	0.084
947	0.084
948	0.083
948	0.083
949	0.082
949	0.082
949	0.082
950	0.082
950	0.082
951	0.081
951	0.081
952	0.081
952	0.081
952	0.081
953	0.081
953	0.081
954	0.081
954	0.081
955	0.081
955	0.081
955	0.081
956	0.081
956	0.081
957	0.081
957	0.081
957	0.08
958	0.079
958	0.079
959	0.078
959	0.077
960	0.076
960	0.075
960	0.073
961	0.072
961	0.071
962	0.071
962	0.07
963	0.07
963	0.07
963	0.069
964	0.069
964	0.07
965	0.07
965	0.071
966	0.072
966	0.072
966	0.073
967	0.073
967	0.074
968	0.074
968	0.074
968	0.073
969	0.073
969	0.072
970	0.072
970	0.071
971	0.07
971	0.069
971	0.068
972	0.068
972	0.067
973	0.067
973	0.067
974	0.067
974	0.067
974	0.068
975	0.069
975	0.07
976	0.071
976	0.072
976	0.072
977	0.073
977	0.074
978	0.074
978	0.075
979	0.075
979	0.076
979	0.076
980	0.076
980	0.076
981	0.076
981	0.076
982	0.077
982	0.077
982	0.078
983	0.078
983	0.078
984	0.077
984	0.077
984	0.077
985	0.077
985	0.077
986	0.076
986	0.075
987	0.074
987	0.073
987	0.073
988	0.072
988	0.071
989	0.071
989	0.07
990	0.07
990	0.069
990	0.07
991	0.07
991	0.071
992	0.071
992	0.072
992	0.072
993	0.073
993	0.073
994	0.073
994	0.073
995	0.072
995	0.072
995	0.072
996	0.071
996	0.071
997	0.07
997	0.07
997	0.07
998	0.07
998	0.071
999	0.072
999	0.072
1000	0.073
1000	0.074
1000	0.074
1001	0.075
1001	0.076
1002	0.077
1002	0.077
1003	0.078
1003	0.078
1003	0.078
1004	0.078
1004	0.077
1005	0.077
1005	0.076
1005	0.076
1006	0.075
1006	0.074
1007	0.074
1007	0.073
1008	0.073
1008	0.072
1008	0.072
1009	0.072
1009	0.072
1010	0.072
1010	0.072
1010	0.072
1011	0.073
1011	0.073
1012	0.073
1012	0.074
1013	0.074
1013	0.073
1013	0.073
1014	0.072
1014	0.072
1015	0.071
1015	0.07
1016	0.069
1016	0.069
1016	0.068
1017	0.066
1017	0.065
1018	0.064
1018	0.064
1018	0.063
1019	0.062
1019	0.062
1020	0.061
1020	0.06
1021	0.06
1021	0.059
1021	0.059
1022	0.059
1022	0.059
1023	0.059
1023	0.058
1023	0.058
1024	0.058
1024	0.057
1025	0.056
1025	0.056
1026	0.056
1026	0.055
1026	0.055
1027	0.055
1027	0.055
1028	0.055
1028	0.055
1028	0.055
1029	0.056
1029	0.056
1030	0.056
1030	0.057
1031	0.057
1031	0.058
1031	0.058
1032	0.058
1032	0.059
1033	0.059
1033	0.059
1033	0.059
1034	0.059
1034	0.058
1035	0.058
1035	0.058
1036	0.058
1036	0.058
1036	0.058
1037	0.059
1037	0.059
1038	0.06
1038	0.061
1039	0.062
1039	0.062
1039	0.063
1040	0.064
1040	0.065
1041	0.065
1041	0.065
1041	0.065
1042	0.065
1042	0.065
1043	0.065
1043	0.064
1044	0.064
1044	0.064
1044	0.064
1045	0.064
1045	0.064
1046	0.064
1046	0.064
1046	0.064
1047	0.064
1047	0.064
1048	0.065
1048	0.065
1049	0.064
1049	0.063
1049	0.063
1050	0.062
1050	0.061
1051	0.061
1051	0.061
1051	0.06
1052	0.06
1052	0.059
1053	0.059
1053	0.059
1053	0.059
1054	0.059
1054	0.059
1055	0.06
1055	0.06
1056	0.06
1056	0.06
1056	0.059
1057	0.059
1057	0.06
1058	0.061
1058	0.062
1058	0.063
1059	0.064
1059	0.065
1060	0.066
1060	0.067
1061	0.068
1061	0.07
1061	0.071
1062	0.072
1062	0.072
1063	0.073
1063	0.073
1063	0.073
1064	0.074
1064	0.075
1065	0.076
1065	0.077
1066	0.077
1066	0.078
1066	0.079
1067	0.08
1067	0.082
1068	0.083
1068	0.084
1068	0.084
1069	0.084
1069	0.085
1070	0.086
1070	0.086
1071	0.088
1071	0.089
1071	0.09
1072	0.09
1072	0.092
1073	0.094
1073	0.096
1073	0.097
1074	0.098
1074	0.1
1075	0.1
1075	0.101
1076	0.102
1076	0.103
1076	0.103
1077	0.104
1077	0.105
1078	0.106
1078	0.108
1078	0.109
1079	0.11
1079	0.112
1080	0.114
1080	0.116
1080	0.117
1081	0.119
1081	0.121
1082	0.123
1082	0.124
1083	0.126
1083	0.127
1083	0.13
1084	0.133
1084	0.136
1085	0.138
1085	0.141
1085	0.144
1086	0.147
1086	0.149
1087	0.153
1087	0.156
1088	0.158
1088	0.161
1088	0.165
1089	0.169
1089	0.173
1090	0.178
1090	0.184
1090	0.19
1091	0.196
1091	0.204
1092	0.211
1092	0.22
1092	0.227
1093	0.235
1093	0.245
1094	0.254
1094	0.263
1095	0.271
1095	0.284
1095	0.298
1096	0.311
1096	0.324
1097	0.342
1097	0.358
1097	0.378
1098	0.398
1098	0.422
1099	0.448
1099	0.48
1100	0.515
1100	0.551
1100	0.594
1101	0.643
1101	0.7
1102	0.782
1102	0.886
1102	1.041
1103	1.288
1103	2
1104	-0
1104	-0
1104	-0
1105	-0
1105	-0
1106	-0
1106	-0
1107	-0
1107	-0
1107	-0
1108	-0
1108	-0
1109	-0
1109	-0
1109	-0
1110	-0
1110	-0
1111	-0
1111	-0
