Data from 17c-100ul-ns-20ul-nr-full-exp'4ul'bp_Absorbance__568__01038.txt Node

Date: Mon Jan 15 09:59:14 CET 2024
User: Marek
Spectrometer: MAYP115816
Trigger mode: 0
Integration Time (sec): 2.000000E-1
Scans to average: 10
Electric dark correction enabled: true
Nonlinearity correction enabled: true
Boxcar width: 5
XAxis mode: Wavelengths
Number of Pixels in Spectrum: 2068
>>>>>Begin Spectral Data<<<<<
199	-0.484
199	-0.457
200	-0.383
200	-0.323
201	-0.286
201	-0.263
202	-0.238
202	-0.235
203	-0.227
203	-0.225
204	-0.208
204	-0.195
205	-0.181
205	-0.175
205	-0.177
206	-0.178
206	-0.182
207	-0.181
207	-0.18
208	-0.182
208	-0.181
209	-0.181
209	-0.185
210	-0.188
210	-0.189
211	-0.189
211	-0.189
212	-0.192
212	-0.193
213	-0.195
213	-0.195
213	-0.198
214	-0.199
214	-0.199
215	-0.198
215	-0.202
216	-0.203
216	-0.205
217	-0.203
217	-0.203
218	-0.204
218	-0.2
219	-0.196
219	-0.198
220	-0.197
220	-0.199
221	-0.196
221	-0.196
221	-0.192
222	-0.188
222	-0.186
223	-0.179
223	-0.18
224	-0.178
224	-0.169
225	-0.161
225	-0.153
226	-0.146
226	-0.135
227	-0.124
227	-0.116
228	-0.102
228	-0.09
229	-0.071
229	-0.05
229	-0.031
230	-0.01
230	0.013
231	0.037
231	0.061
232	0.082
232	0.106
233	0.128
233	0.15
234	0.169
234	0.187
235	0.203
235	0.217
236	0.232
236	0.244
236	0.256
237	0.267
237	0.276
238	0.284
238	0.292
239	0.299
239	0.305
240	0.309
240	0.314
241	0.317
241	0.321
242	0.323
242	0.326
243	0.329
243	0.331
243	0.332
244	0.334
244	0.336
245	0.338
245	0.339
246	0.341
246	0.342
247	0.343
247	0.344
248	0.345
248	0.346
249	0.347
249	0.347
250	0.348
250	0.349
250	0.35
251	0.35
251	0.351
252	0.352
252	0.352
253	0.352
253	0.353
254	0.353
254	0.354
255	0.354
255	0.354
256	0.354
256	0.355
257	0.355
257	0.355
258	0.355
258	0.355
258	0.355
259	0.355
259	0.354
260	0.354
260	0.354
261	0.353
261	0.353
262	0.352
262	0.351
263	0.351
263	0.35
264	0.349
264	0.348
265	0.348
265	0.347
265	0.346
266	0.345
266	0.344
267	0.343
267	0.342
268	0.341
268	0.34
269	0.339
269	0.337
270	0.336
270	0.335
271	0.333
271	0.332
272	0.331
272	0.329
272	0.328
273	0.327
273	0.325
274	0.324
274	0.322
275	0.321
275	0.32
276	0.318
276	0.317
277	0.315
277	0.314
278	0.313
278	0.311
278	0.31
279	0.309
279	0.307
280	0.305
280	0.303
281	0.302
281	0.3
282	0.298
282	0.297
283	0.295
283	0.294
284	0.292
284	0.291
285	0.289
285	0.288
285	0.287
286	0.286
286	0.284
287	0.283
287	0.282
288	0.281
288	0.279
289	0.278
289	0.277
290	0.276
290	0.275
291	0.274
291	0.273
292	0.272
292	0.271
292	0.27
293	0.269
293	0.268
294	0.267
294	0.266
295	0.265
295	0.264
296	0.264
296	0.263
297	0.262
297	0.261
298	0.261
298	0.26
298	0.259
299	0.258
299	0.258
300	0.257
300	0.256
301	0.255
301	0.255
302	0.254
302	0.254
303	0.253
303	0.252
304	0.252
304	0.252
305	0.251
305	0.25
305	0.25
306	0.249
306	0.249
307	0.248
307	0.247
308	0.247
308	0.246
309	0.245
309	0.244
310	0.244
310	0.243
311	0.243
311	0.242
311	0.241
312	0.241
312	0.24
313	0.24
313	0.239
314	0.238
314	0.238
315	0.237
315	0.236
316	0.236
316	0.235
317	0.235
317	0.234
318	0.234
318	0.233
318	0.232
319	0.232
319	0.231
320	0.231
320	0.23
321	0.23
321	0.229
322	0.229
322	0.228
323	0.228
323	0.227
324	0.226
324	0.226
324	0.225
325	0.224
325	0.224
326	0.223
326	0.222
327	0.222
327	0.221
328	0.221
328	0.22
329	0.22
329	0.219
330	0.218
330	0.218
330	0.218
331	0.217
331	0.217
332	0.216
332	0.216
333	0.215
333	0.215
334	0.214
334	0.213
335	0.213
335	0.212
336	0.212
336	0.211
336	0.211
337	0.211
337	0.21
338	0.21
338	0.209
339	0.209
339	0.209
340	0.208
340	0.208
341	0.207
341	0.207
342	0.206
342	0.206
342	0.205
343	0.205
343	0.205
344	0.204
344	0.204
345	0.204
345	0.203
346	0.203
346	0.203
347	0.203
347	0.202
348	0.202
348	0.202
348	0.202
349	0.201
349	0.201
350	0.201
350	0.201
351	0.201
351	0.2
352	0.2
352	0.2
353	0.2
353	0.2
354	0.199
354	0.199
354	0.199
355	0.199
355	0.199
356	0.198
356	0.198
357	0.198
357	0.198
358	0.198
358	0.198
359	0.198
359	0.198
360	0.197
360	0.197
360	0.197
361	0.197
361	0.196
362	0.196
362	0.196
363	0.196
363	0.196
364	0.196
364	0.196
365	0.196
365	0.196
366	0.195
366	0.195
366	0.195
367	0.195
367	0.195
368	0.195
368	0.195
369	0.195
369	0.194
370	0.194
370	0.194
371	0.194
371	0.194
372	0.194
372	0.194
372	0.194
373	0.194
373	0.194
374	0.194
374	0.194
375	0.194
375	0.194
376	0.194
376	0.193
377	0.193
377	0.193
378	0.193
378	0.193
378	0.192
379	0.192
379	0.192
380	0.192
380	0.192
381	0.192
381	0.192
382	0.191
382	0.191
383	0.191
383	0.191
383	0.191
384	0.191
384	0.191
385	0.19
385	0.19
386	0.19
386	0.19
387	0.189
387	0.189
388	0.189
388	0.189
389	0.189
389	0.188
389	0.188
390	0.188
390	0.188
391	0.188
391	0.188
392	0.188
392	0.188
393	0.188
393	0.188
394	0.188
394	0.187
394	0.187
395	0.187
395	0.186
396	0.186
396	0.186
397	0.186
397	0.186
398	0.186
398	0.186
399	0.185
399	0.185
400	0.185
400	0.185
400	0.185
401	0.184
401	0.184
402	0.184
402	0.184
403	0.184
403	0.183
404	0.183
404	0.183
405	0.183
405	0.183
405	0.183
406	0.183
406	0.183
407	0.182
407	0.182
408	0.182
408	0.182
409	0.182
409	0.182
410	0.182
410	0.181
411	0.181
411	0.181
411	0.181
412	0.181
412	0.18
413	0.18
413	0.18
414	0.179
414	0.179
415	0.179
415	0.179
416	0.178
416	0.178
416	0.178
417	0.178
417	0.178
418	0.177
418	0.178
419	0.178
419	0.178
420	0.177
420	0.177
421	0.177
421	0.177
421	0.177
422	0.177
422	0.177
423	0.177
423	0.176
424	0.176
424	0.176
425	0.176
425	0.176
426	0.176
426	0.176
427	0.176
427	0.176
427	0.176
428	0.176
428	0.176
429	0.176
429	0.176
430	0.176
430	0.176
431	0.176
431	0.176
432	0.175
432	0.175
432	0.175
433	0.174
433	0.174
434	0.174
434	0.174
435	0.174
435	0.174
436	0.174
436	0.173
437	0.173
437	0.173
437	0.173
438	0.173
438	0.173
439	0.173
439	0.173
440	0.172
440	0.172
441	0.172
441	0.172
442	0.172
442	0.172
442	0.172
443	0.172
443	0.171
444	0.171
444	0.171
445	0.172
445	0.172
446	0.172
446	0.172
447	0.172
447	0.172
447	0.172
448	0.172
448	0.172
449	0.172
449	0.172
450	0.172
450	0.171
451	0.171
451	0.171
452	0.171
452	0.171
452	0.171
453	0.171
453	0.171
454	0.171
454	0.171
455	0.171
455	0.171
456	0.171
456	0.171
457	0.171
457	0.171
458	0.171
458	0.172
458	0.172
459	0.172
459	0.172
460	0.171
460	0.171
461	0.171
461	0.171
462	0.171
462	0.171
463	0.171
463	0.171
463	0.171
464	0.171
464	0.171
465	0.171
465	0.172
466	0.172
466	0.172
467	0.172
467	0.172
467	0.172
468	0.172
468	0.172
469	0.172
469	0.172
470	0.173
470	0.172
471	0.173
471	0.173
472	0.173
472	0.174
472	0.174
473	0.175
473	0.175
474	0.176
474	0.176
475	0.176
475	0.177
476	0.177
476	0.177
477	0.177
477	0.177
477	0.177
478	0.178
478	0.178
479	0.178
479	0.178
480	0.178
480	0.179
481	0.18
481	0.181
482	0.181
482	0.182
482	0.183
483	0.184
483	0.185
484	0.186
484	0.185
485	0.186
485	0.187
486	0.187
486	0.188
487	0.189
487	0.189
487	0.19
488	0.191
488	0.191
489	0.192
489	0.194
490	0.195
490	0.196
491	0.197
491	0.198
492	0.199
492	0.2
492	0.201
493	0.202
493	0.204
494	0.205
494	0.207
495	0.209
495	0.21
496	0.212
496	0.213
496	0.215
497	0.216
497	0.218
498	0.219
498	0.22
499	0.221
499	0.222
500	0.223
500	0.225
501	0.226
501	0.227
501	0.228
502	0.229
502	0.231
503	0.232
503	0.234
504	0.235
504	0.236
505	0.237
505	0.239
506	0.24
506	0.242
506	0.243
507	0.245
507	0.246
508	0.248
508	0.249
509	0.25
509	0.252
510	0.253
510	0.255
511	0.256
511	0.257
511	0.259
512	0.26
512	0.261
513	0.262
513	0.263
514	0.264
514	0.265
515	0.267
515	0.267
515	0.268
516	0.269
516	0.27
517	0.271
517	0.272
518	0.273
518	0.273
519	0.274
519	0.274
520	0.275
520	0.276
520	0.276
521	0.277
521	0.277
522	0.277
522	0.278
523	0.279
523	0.279
524	0.28
524	0.28
524	0.281
525	0.281
525	0.281
526	0.281
526	0.281
527	0.281
527	0.281
528	0.281
528	0.281
529	0.281
529	0.281
529	0.281
530	0.281
530	0.28
531	0.28
531	0.28
532	0.279
532	0.279
533	0.278
533	0.277
533	0.277
534	0.276
534	0.275
535	0.275
535	0.275
536	0.274
536	0.273
537	0.273
537	0.272
538	0.271
538	0.271
538	0.27
539	0.269
539	0.269
540	0.268
540	0.267
541	0.266
541	0.265
542	0.264
542	0.263
542	0.262
543	0.261
543	0.26
544	0.259
544	0.258
545	0.257
545	0.256
546	0.255
546	0.253
547	0.252
547	0.251
547	0.25
548	0.249
548	0.248
549	0.247
549	0.246
550	0.244
550	0.243
551	0.241
551	0.24
551	0.239
552	0.238
552	0.236
553	0.235
553	0.234
554	0.233
554	0.232
555	0.231
555	0.23
556	0.228
556	0.227
556	0.226
557	0.225
557	0.224
558	0.223
558	0.221
559	0.22
559	0.219
560	0.218
560	0.216
560	0.216
561	0.215
561	0.214
562	0.213
562	0.211
563	0.21
563	0.209
564	0.207
564	0.206
564	0.205
565	0.204
565	0.203
566	0.201
566	0.2
567	0.2
567	0.199
568	0.198
568	0.197
568	0.197
569	0.196
569	0.195
570	0.193
570	0.192
571	0.191
571	0.19
572	0.189
572	0.188
573	0.186
573	0.185
573	0.183
574	0.183
574	0.182
575	0.182
575	0.182
576	0.181
576	0.179
577	0.178
577	0.177
577	0.177
578	0.176
578	0.176
579	0.176
579	0.176
580	0.174
580	0.171
581	0.169
581	0.169
581	0.169
582	0.169
582	0.169
583	0.169
583	0.167
584	0.165
584	0.163
585	0.163
585	0.164
585	0.163
586	0.163
586	0.162
587	0.16
587	0.159
588	0.158
588	0.157
589	0.158
589	0.158
590	0.157
590	0.157
590	0.158
591	0.157
591	0.156
592	0.155
592	0.154
593	0.153
593	0.153
594	0.151
594	0.15
594	0.15
595	0.149
595	0.149
596	0.148
596	0.15
597	0.151
597	0.151
598	0.151
598	0.151
598	0.151
599	0.15
599	0.149
600	0.148
600	0.147
601	0.146
601	0.145
602	0.143
602	0.142
602	0.141
603	0.14
603	0.14
604	0.14
604	0.14
605	0.14
605	0.14
606	0.14
606	0.139
606	0.139
607	0.138
607	0.138
608	0.138
608	0.137
609	0.136
609	0.136
610	0.136
610	0.135
610	0.136
611	0.136
611	0.137
612	0.137
612	0.138
613	0.138
613	0.138
614	0.137
614	0.137
614	0.136
615	0.136
615	0.135
616	0.135
616	0.135
617	0.135
617	0.134
618	0.134
618	0.134
618	0.134
619	0.135
619	0.136
620	0.137
620	0.137
621	0.137
621	0.137
622	0.137
622	0.137
622	0.137
623	0.136
623	0.137
624	0.137
624	0.137
625	0.136
625	0.137
626	0.137
626	0.137
626	0.138
627	0.139
627	0.14
628	0.14
628	0.141
629	0.141
629	0.142
630	0.142
630	0.143
630	0.144
631	0.145
631	0.146
632	0.147
632	0.147
633	0.149
633	0.15
634	0.151
634	0.153
634	0.154
635	0.154
635	0.155
636	0.156
636	0.156
637	0.157
637	0.157
638	0.158
638	0.159
638	0.159
639	0.16
639	0.161
640	0.162
640	0.163
641	0.164
641	0.165
642	0.167
642	0.168
642	0.169
643	0.17
643	0.171
644	0.172
644	0.174
645	0.175
645	0.176
646	0.178
646	0.179
646	0.181
647	0.182
647	0.184
648	0.186
648	0.188
649	0.19
649	0.191
650	0.193
650	0.195
650	0.197
651	0.199
651	0.201
652	0.203
652	0.206
653	0.209
653	0.215
653	0.216
654	0.171
654	0.137
655	0.141
655	0.142
656	0.144
656	0.145
657	0.146
657	0.148
657	0.148
658	0.146
658	0.141
659	0.181
659	0.236
660	0.243
660	0.245
661	0.248
661	0.251
661	0.254
662	0.257
662	0.26
663	0.263
663	0.265
664	0.267
664	0.269
665	0.271
665	0.274
665	0.276
666	0.278
666	0.28
667	0.283
667	0.285
668	0.287
668	0.29
669	0.292
669	0.295
669	0.298
670	0.301
670	0.303
671	0.305
671	0.307
672	0.31
672	0.312
672	0.314
673	0.317
673	0.319
674	0.32
674	0.322
675	0.324
675	0.326
676	0.328
676	0.329
676	0.33
677	0.331
677	0.331
678	0.331
678	0.331
679	0.332
679	0.333
680	0.334
680	0.334
680	0.335
681	0.336
681	0.336
682	0.337
682	0.338
683	0.34
683	0.341
684	0.341
684	0.341
684	0.342
685	0.343
685	0.343
686	0.343
686	0.343
687	0.344
687	0.344
687	0.344
688	0.343
688	0.343
689	0.344
689	0.344
690	0.343
690	0.342
691	0.342
691	0.342
691	0.341
692	0.34
692	0.339
693	0.339
693	0.338
694	0.337
694	0.336
695	0.337
695	0.337
695	0.336
696	0.335
696	0.335
697	0.334
697	0.333
698	0.332
698	0.331
698	0.33
699	0.329
699	0.327
700	0.325
700	0.324
701	0.322
701	0.32
702	0.318
702	0.316
702	0.314
703	0.312
703	0.31
704	0.309
704	0.307
705	0.306
705	0.304
705	0.302
706	0.301
706	0.3
707	0.298
707	0.297
708	0.295
708	0.294
709	0.292
709	0.29
709	0.288
710	0.286
710	0.285
711	0.283
711	0.282
712	0.28
712	0.278
713	0.277
713	0.275
713	0.274
714	0.272
714	0.27
715	0.269
715	0.267
716	0.265
716	0.264
716	0.262
717	0.26
717	0.259
718	0.257
718	0.255
719	0.253
719	0.252
720	0.25
720	0.248
720	0.246
721	0.243
721	0.241
722	0.239
722	0.237
723	0.235
723	0.233
723	0.231
724	0.229
724	0.227
725	0.225
725	0.224
726	0.222
726	0.221
727	0.219
727	0.218
727	0.217
728	0.215
728	0.214
729	0.213
729	0.212
730	0.21
730	0.209
730	0.208
731	0.207
731	0.205
732	0.204
732	0.202
733	0.201
733	0.199
734	0.198
734	0.196
734	0.195
735	0.194
735	0.192
736	0.19
736	0.189
737	0.188
737	0.187
737	0.185
738	0.183
738	0.18
739	0.179
739	0.177
740	0.174
740	0.173
741	0.171
741	0.169
741	0.167
742	0.165
742	0.164
743	0.163
743	0.162
744	0.16
744	0.159
744	0.158
745	0.156
745	0.155
746	0.154
746	0.153
747	0.152
747	0.151
748	0.15
748	0.149
748	0.147
749	0.146
749	0.146
750	0.145
750	0.144
751	0.144
751	0.143
751	0.143
752	0.142
752	0.141
753	0.141
753	0.14
754	0.139
754	0.138
754	0.137
755	0.136
755	0.135
756	0.133
756	0.132
757	0.131
757	0.13
758	0.129
758	0.128
758	0.127
759	0.126
759	0.125
760	0.124
760	0.123
761	0.123
761	0.124
761	0.123
762	0.123
762	0.123
763	0.122
763	0.121
764	0.12
764	0.119
764	0.118
765	0.117
765	0.116
766	0.115
766	0.115
767	0.114
767	0.113
768	0.112
768	0.111
768	0.111
769	0.111
769	0.11
770	0.109
770	0.109
771	0.108
771	0.107
771	0.106
772	0.105
772	0.104
773	0.104
773	0.103
774	0.102
774	0.101
775	0.101
775	0.1
775	0.099
776	0.098
776	0.097
777	0.096
777	0.095
778	0.094
778	0.093
778	0.093
779	0.093
779	0.092
780	0.091
780	0.091
781	0.09
781	0.089
781	0.088
782	0.087
782	0.085
783	0.085
783	0.083
784	0.081
784	0.08
784	0.079
785	0.078
785	0.078
786	0.078
786	0.078
787	0.078
787	0.078
788	0.078
788	0.078
788	0.078
789	0.078
789	0.079
790	0.078
790	0.078
791	0.078
791	0.078
791	0.078
792	0.078
792	0.077
793	0.076
793	0.076
794	0.075
794	0.075
794	0.075
795	0.075
795	0.074
796	0.074
796	0.073
797	0.072
797	0.071
797	0.071
798	0.07
798	0.07
799	0.069
799	0.068
800	0.067
800	0.066
801	0.065
801	0.064
801	0.063
802	0.062
802	0.061
803	0.06
803	0.059
804	0.059
804	0.059
804	0.059
805	0.058
805	0.059
806	0.059
806	0.06
807	0.061
807	0.061
807	0.062
808	0.063
808	0.063
809	0.063
809	0.064
810	0.065
810	0.065
810	0.065
811	0.066
811	0.067
812	0.067
812	0.067
813	0.068
813	0.068
813	0.067
814	0.067
814	0.066
815	0.066
815	0.064
816	0.063
816	0.062
817	0.061
817	0.06
817	0.059
818	0.058
818	0.057
819	0.057
819	0.055
820	0.055
820	0.054
820	0.054
821	0.053
821	0.053
822	0.052
822	0.052
823	0.052
823	0.052
823	0.052
824	0.052
824	0.051
825	0.051
825	0.051
826	0.051
826	0.05
826	0.05
827	0.049
827	0.049
828	0.048
828	0.048
829	0.048
829	0.048
829	0.047
830	0.047
830	0.048
831	0.048
831	0.048
832	0.047
832	0.047
832	0.047
833	0.047
833	0.046
834	0.046
834	0.045
835	0.044
835	0.043
835	0.043
836	0.042
836	0.042
837	0.041
837	0.041
838	0.041
838	0.041
839	0.042
839	0.042
839	0.042
840	0.042
840	0.042
841	0.043
841	0.043
842	0.044
842	0.044
842	0.044
843	0.044
843	0.044
844	0.043
844	0.043
845	0.043
845	0.042
845	0.042
846	0.041
846	0.04
847	0.04
847	0.039
848	0.038
848	0.038
848	0.037
849	0.037
849	0.036
850	0.035
850	0.035
851	0.034
851	0.034
851	0.033
852	0.033
852	0.033
853	0.033
853	0.033
854	0.033
854	0.033
854	0.033
855	0.033
855	0.033
856	0.033
856	0.034
857	0.034
857	0.034
857	0.034
858	0.034
858	0.034
859	0.034
859	0.034
860	0.034
860	0.035
860	0.035
861	0.035
861	0.034
862	0.034
862	0.034
863	0.034
863	0.033
863	0.033
864	0.032
864	0.032
865	0.031
865	0.03
866	0.029
866	0.029
866	0.028
867	0.028
867	0.028
868	0.028
868	0.028
869	0.028
869	0.028
869	0.028
870	0.028
870	0.029
871	0.029
871	0.028
872	0.028
872	0.027
872	0.026
873	0.025
873	0.024
874	0.023
874	0.022
875	0.021
875	0.02
875	0.019
876	0.018
876	0.017
877	0.017
877	0.016
878	0.016
878	0.016
878	0.016
879	0.016
879	0.016
880	0.016
880	0.016
881	0.017
881	0.018
881	0.019
882	0.02
882	0.022
883	0.023
883	0.024
884	0.025
884	0.026
884	0.026
885	0.027
885	0.028
886	0.028
886	0.028
887	0.028
887	0.028
887	0.029
888	0.029
888	0.029
889	0.029
889	0.03
890	0.031
890	0.031
890	0.032
891	0.032
891	0.032
892	0.032
892	0.032
893	0.031
893	0.03
893	0.03
894	0.029
894	0.028
895	0.026
895	0.025
895	0.024
896	0.022
896	0.021
897	0.02
897	0.019
898	0.018
898	0.018
898	0.017
899	0.016
899	0.016
900	0.015
900	0.015
901	0.015
901	0.014
901	0.014
902	0.014
902	0.014
903	0.013
903	0.013
904	0.013
904	0.012
904	0.012
905	0.011
905	0.011
906	0.01
906	0.01
907	0.009
907	0.009
907	0.009
908	0.009
908	0.009
909	0.009
909	0.01
910	0.01
910	0.011
910	0.012
911	0.012
911	0.013
912	0.014
912	0.014
913	0.014
913	0.014
913	0.014
914	0.013
914	0.012
915	0.011
915	0.011
916	0.01
916	0.009
916	0.008
917	0.008
917	0.008
918	0.008
918	0.008
918	0.009
919	0.009
919	0.01
920	0.011
920	0.012
921	0.012
921	0.012
921	0.012
922	0.013
922	0.013
923	0.013
923	0.013
924	0.013
924	0.012
924	0.012
925	0.012
925	0.011
926	0.011
926	0.011
927	0.011
927	0.01
927	0.01
928	0.01
928	0.009
929	0.009
929	0.009
930	0.009
930	0.008
930	0.008
931	0.008
931	0.007
932	0.007
932	0.007
933	0.007
933	0.007
933	0.006
934	0.006
934	0.006
935	0.006
935	0.005
935	0.005
936	0.005
936	0.005
937	0.005
937	0.005
938	0.004
938	0.004
938	0.004
939	0.004
939	0.004
940	0.004
940	0.005
941	0.005
941	0.006
941	0.007
942	0.007
942	0.008
943	0.008
943	0.008
944	0.008
944	0.008
944	0.008
945	0.008
945	0.007
946	0.007
946	0.006
946	0.006
947	0.006
947	0.007
948	0.007
948	0.007
949	0.008
949	0.008
949	0.009
950	0.009
950	0.009
951	0.009
951	0.009
952	0.009
952	0.009
952	0.009
953	0.009
953	0.009
954	0.008
954	0.008
955	0.008
955	0.007
955	0.007
956	0.007
956	0.007
957	0.006
957	0.005
957	0.004
958	0.004
958	0.003
959	0.002
959	0.002
960	0.001
960	0
960	-0
961	-0.001
961	-0.001
962	-0.001
962	-0.001
963	-0.001
963	0
963	0.001
964	0.002
964	0.003
965	0.004
965	0.005
966	0.005
966	0.006
966	0.007
967	0.008
967	0.009
968	0.009
968	0.009
968	0.009
969	0.009
969	0.009
970	0.009
970	0.008
971	0.008
971	0.008
971	0.007
972	0.007
972	0.006
973	0.006
973	0.005
974	0.005
974	0.004
974	0.004
975	0.003
975	0.003
976	0.002
976	0.001
976	0
977	-0.001
977	-0.002
978	-0.003
978	-0.003
979	-0.004
979	-0.004
979	-0.004
980	-0.004
980	-0.004
981	-0.004
981	-0.003
982	-0.003
982	-0.002
982	-0.001
983	0
983	0.001
984	0.002
984	0.002
984	0.003
985	0.004
985	0.004
986	0.003
986	0.003
987	0.002
987	0.001
987	0.001
988	-0.001
988	-0.002
989	-0.004
989	-0.006
990	-0.007
990	-0.009
990	-0.011
991	-0.012
991	-0.014
992	-0.015
992	-0.016
992	-0.017
993	-0.019
993	-0.02
994	-0.02
994	-0.021
995	-0.022
995	-0.022
995	-0.022
996	-0.023
996	-0.023
997	-0.023
997	-0.022
997	-0.022
998	-0.021
998	-0.02
999	-0.018
999	-0.017
1000	-0.016
1000	-0.015
1000	-0.013
1001	-0.012
1001	-0.011
1002	-0.009
1002	-0.008
1003	-0.007
1003	-0.006
1003	-0.005
1004	-0.005
1004	-0.004
1005	-0.004
1005	-0.004
1005	-0.004
1006	-0.003
1006	-0.003
1007	-0.003
1007	-0.003
1008	-0.003
1008	-0.003
1008	-0.003
1009	-0.003
1009	-0.002
1010	-0.002
1010	-0.002
1010	-0.002
1011	-0.002
1011	-0.002
1012	-0.002
1012	-0.002
1013	-0.003
1013	-0.003
1013	-0.004
1014	-0.005
1014	-0.006
1015	-0.007
1015	-0.008
1016	-0.009
1016	-0.01
1016	-0.011
1017	-0.011
1017	-0.012
1018	-0.012
1018	-0.012
1018	-0.012
1019	-0.012
1019	-0.012
1020	-0.012
1020	-0.012
1021	-0.012
1021	-0.012
1021	-0.012
1022	-0.012
1022	-0.013
1023	-0.013
1023	-0.014
1023	-0.015
1024	-0.016
1024	-0.017
1025	-0.017
1025	-0.018
1026	-0.019
1026	-0.02
1026	-0.02
1027	-0.021
1027	-0.021
1028	-0.021
1028	-0.021
1028	-0.021
1029	-0.021
1029	-0.021
1030	-0.02
1030	-0.02
1031	-0.02
1031	-0.02
1031	-0.02
1032	-0.02
1032	-0.02
1033	-0.02
1033	-0.021
1033	-0.022
1034	-0.023
1034	-0.024
1035	-0.025
1035	-0.026
1036	-0.027
1036	-0.028
1036	-0.028
1037	-0.029
1037	-0.03
1038	-0.03
1038	-0.03
1039	-0.03
1039	-0.03
1039	-0.03
1040	-0.03
1040	-0.03
1041	-0.03
1041	-0.03
1041	-0.03
1042	-0.031
1042	-0.031
1043	-0.031
1043	-0.032
1044	-0.032
1044	-0.032
1044	-0.033
1045	-0.033
1045	-0.033
1046	-0.033
1046	-0.032
1046	-0.032
1047	-0.031
1047	-0.03
1048	-0.03
1048	-0.029
1049	-0.029
1049	-0.028
1049	-0.028
1050	-0.028
1050	-0.028
1051	-0.028
1051	-0.028
1051	-0.028
1052	-0.028
1052	-0.028
1053	-0.028
1053	-0.027
1053	-0.027
1054	-0.027
1054	-0.026
1055	-0.026
1055	-0.026
1056	-0.026
1056	-0.026
1056	-0.027
1057	-0.027
1057	-0.027
1058	-0.028
1058	-0.029
1058	-0.029
1059	-0.03
1059	-0.03
1060	-0.031
1060	-0.031
1061	-0.032
1061	-0.032
1061	-0.033
1062	-0.033
1062	-0.034
1063	-0.035
1063	-0.036
1063	-0.037
1064	-0.038
1064	-0.038
1065	-0.039
1065	-0.04
1066	-0.041
1066	-0.041
1066	-0.042
1067	-0.043
1067	-0.043
1068	-0.044
1068	-0.044
1068	-0.044
1069	-0.045
1069	-0.046
1070	-0.046
1070	-0.047
1071	-0.048
1071	-0.048
1071	-0.049
1072	-0.049
1072	-0.05
1073	-0.05
1073	-0.05
1073	-0.05
1074	-0.05
1074	-0.05
1075	-0.05
1075	-0.051
1076	-0.051
1076	-0.051
1076	-0.052
1077	-0.052
1077	-0.052
1078	-0.053
1078	-0.053
1078	-0.053
1079	-0.054
1079	-0.053
1080	-0.054
1080	-0.054
1080	-0.054
1081	-0.054
1081	-0.054
1082	-0.053
1082	-0.054
1083	-0.054
1083	-0.054
1083	-0.054
1084	-0.054
1084	-0.054
1085	-0.054
1085	-0.054
1085	-0.054
1086	-0.054
1086	-0.055
1087	-0.055
1087	-0.055
1088	-0.055
1088	-0.056
1088	-0.057
1089	-0.058
1089	-0.059
1090	-0.061
1090	-0.062
1090	-0.063
1091	-0.064
1091	-0.065
1092	-0.067
1092	-0.068
1092	-0.068
1093	-0.069
1093	-0.069
1094	-0.069
1094	-0.07
1095	-0.071
1095	-0.071
1095	-0.072
1096	-0.073
1096	-0.073
1097	-0.073
1097	-0.074
1097	-0.075
1098	-0.076
1098	-0.077
1099	-0.078
1099	-0.079
1100	-0.08
1100	-0.081
1100	-0.083
1101	-0.085
1101	-0.087
1102	-0.089
1102	-0.091
1102	-0.093
1103	-0.096
1103	-0.097
1104	-0.098
1104	-0.099
1104	-0.1
1105	-0.102
1105	-0.105
1106	-0.107
1106	-0.108
1107	-0.113
1107	-0.116
1107	-0.118
1108	-0.119
1108	-0.121
1109	-0.124
1109	-0.129
1109	-0.132
1110	-0.131
1110	-0.135
1111	-0.141
1111	-0.131
