Data from 17c-100ul-ns-20ul-nr-full-exp'4ul'bp_Absorbance__311__00781.txt Node

Date: Mon Jan 15 09:50:41 CET 2024
User: Marek
Spectrometer: MAYP115816
Trigger mode: 0
Integration Time (sec): 2.000000E-1
Scans to average: 10
Electric dark correction enabled: true
Nonlinearity correction enabled: true
Boxcar width: 5
XAxis mode: Wavelengths
Number of Pixels in Spectrum: 2068
>>>>>Begin Spectral Data<<<<<
199	-0.451
199	-0.424
200	-0.355
200	-0.299
201	-0.264
201	-0.241
202	-0.218
202	-0.213
203	-0.205
203	-0.204
204	-0.187
204	-0.175
205	-0.161
205	-0.155
205	-0.156
206	-0.157
206	-0.162
207	-0.159
207	-0.16
208	-0.162
208	-0.16
209	-0.159
209	-0.164
210	-0.167
210	-0.168
211	-0.169
211	-0.168
212	-0.169
212	-0.17
213	-0.171
213	-0.169
213	-0.173
214	-0.172
214	-0.173
215	-0.171
215	-0.174
216	-0.176
216	-0.179
217	-0.177
217	-0.178
218	-0.179
218	-0.175
219	-0.171
219	-0.173
220	-0.17
220	-0.171
221	-0.168
221	-0.167
221	-0.161
222	-0.158
222	-0.154
223	-0.149
223	-0.149
224	-0.148
224	-0.139
225	-0.13
225	-0.123
226	-0.116
226	-0.104
227	-0.092
227	-0.082
228	-0.067
228	-0.052
229	-0.035
229	-0.013
229	0.007
230	0.03
230	0.056
231	0.083
231	0.108
232	0.13
232	0.155
233	0.179
233	0.202
234	0.224
234	0.245
235	0.263
235	0.279
236	0.295
236	0.309
236	0.322
237	0.334
237	0.345
238	0.355
238	0.364
239	0.373
239	0.38
240	0.385
240	0.39
241	0.394
241	0.398
242	0.402
242	0.405
243	0.408
243	0.41
243	0.412
244	0.414
244	0.416
245	0.417
245	0.419
246	0.421
246	0.422
247	0.423
247	0.425
248	0.426
248	0.427
249	0.428
249	0.429
250	0.43
250	0.431
250	0.432
251	0.433
251	0.433
252	0.434
252	0.435
253	0.435
253	0.435
254	0.436
254	0.436
255	0.436
255	0.437
256	0.437
256	0.437
257	0.437
257	0.436
258	0.436
258	0.436
258	0.436
259	0.436
259	0.435
260	0.435
260	0.434
261	0.434
261	0.433
262	0.432
262	0.432
263	0.431
263	0.43
264	0.429
264	0.428
265	0.427
265	0.426
265	0.425
266	0.424
266	0.423
267	0.421
267	0.42
268	0.418
268	0.417
269	0.415
269	0.414
270	0.412
270	0.41
271	0.409
271	0.407
272	0.405
272	0.404
272	0.402
273	0.4
273	0.398
274	0.396
274	0.394
275	0.392
275	0.391
276	0.389
276	0.387
277	0.385
277	0.383
278	0.381
278	0.379
278	0.378
279	0.376
279	0.374
280	0.372
280	0.37
281	0.368
281	0.366
282	0.364
282	0.362
283	0.36
283	0.358
284	0.356
284	0.354
285	0.352
285	0.35
285	0.349
286	0.347
286	0.345
287	0.343
287	0.342
288	0.34
288	0.339
289	0.337
289	0.336
290	0.334
290	0.332
291	0.331
291	0.33
292	0.328
292	0.327
292	0.325
293	0.324
293	0.323
294	0.321
294	0.32
295	0.319
295	0.318
296	0.316
296	0.315
297	0.314
297	0.313
298	0.312
298	0.311
298	0.31
299	0.309
299	0.308
300	0.307
300	0.306
301	0.305
301	0.304
302	0.303
302	0.302
303	0.301
303	0.301
304	0.3
304	0.299
305	0.298
305	0.297
305	0.296
306	0.295
306	0.295
307	0.294
307	0.293
308	0.292
308	0.291
309	0.29
309	0.289
310	0.288
310	0.287
311	0.286
311	0.285
311	0.284
312	0.283
312	0.283
313	0.282
313	0.281
314	0.28
314	0.279
315	0.279
315	0.278
316	0.277
316	0.276
317	0.276
317	0.274
318	0.274
318	0.273
318	0.272
319	0.271
319	0.27
320	0.27
320	0.269
321	0.268
321	0.267
322	0.266
322	0.265
323	0.265
323	0.264
324	0.263
324	0.262
324	0.261
325	0.261
325	0.26
326	0.259
326	0.258
327	0.258
327	0.257
328	0.256
328	0.255
329	0.255
329	0.254
330	0.253
330	0.252
330	0.252
331	0.251
331	0.251
332	0.25
332	0.249
333	0.249
333	0.248
334	0.247
334	0.246
335	0.246
335	0.245
336	0.245
336	0.244
336	0.244
337	0.243
337	0.242
338	0.242
338	0.241
339	0.241
339	0.24
340	0.24
340	0.239
341	0.239
341	0.238
342	0.237
342	0.237
342	0.236
343	0.236
343	0.235
344	0.235
344	0.235
345	0.234
345	0.234
346	0.233
346	0.233
347	0.233
347	0.232
348	0.232
348	0.232
348	0.232
349	0.231
349	0.231
350	0.231
350	0.231
351	0.231
351	0.23
352	0.23
352	0.23
353	0.23
353	0.23
354	0.229
354	0.229
354	0.229
355	0.228
355	0.228
356	0.228
356	0.228
357	0.228
357	0.228
358	0.227
358	0.227
359	0.227
359	0.227
360	0.227
360	0.226
360	0.226
361	0.226
361	0.225
362	0.225
362	0.225
363	0.225
363	0.225
364	0.224
364	0.224
365	0.224
365	0.224
366	0.224
366	0.224
366	0.223
367	0.224
367	0.223
368	0.223
368	0.223
369	0.223
369	0.222
370	0.222
370	0.222
371	0.222
371	0.222
372	0.222
372	0.221
372	0.221
373	0.221
373	0.221
374	0.221
374	0.221
375	0.221
375	0.221
376	0.22
376	0.22
377	0.22
377	0.219
378	0.219
378	0.219
378	0.219
379	0.218
379	0.218
380	0.218
380	0.218
381	0.218
381	0.217
382	0.217
382	0.217
383	0.217
383	0.216
383	0.216
384	0.216
384	0.215
385	0.215
385	0.215
386	0.215
386	0.214
387	0.214
387	0.214
388	0.214
388	0.213
389	0.213
389	0.213
389	0.212
390	0.212
390	0.212
391	0.212
391	0.212
392	0.211
392	0.211
393	0.211
393	0.211
394	0.211
394	0.21
394	0.21
395	0.21
395	0.209
396	0.209
396	0.209
397	0.209
397	0.208
398	0.208
398	0.208
399	0.208
399	0.207
400	0.207
400	0.207
400	0.207
401	0.206
401	0.206
402	0.206
402	0.205
403	0.205
403	0.205
404	0.205
404	0.205
405	0.204
405	0.204
405	0.204
406	0.204
406	0.204
407	0.204
407	0.204
408	0.203
408	0.203
409	0.203
409	0.203
410	0.203
410	0.202
411	0.202
411	0.202
411	0.202
412	0.201
412	0.201
413	0.2
413	0.2
414	0.2
414	0.2
415	0.199
415	0.199
416	0.199
416	0.198
416	0.198
417	0.198
417	0.198
418	0.198
418	0.198
419	0.197
419	0.197
420	0.197
420	0.197
421	0.197
421	0.197
421	0.197
422	0.197
422	0.197
423	0.197
423	0.197
424	0.197
424	0.196
425	0.196
425	0.196
426	0.196
426	0.196
427	0.196
427	0.195
427	0.195
428	0.195
428	0.195
429	0.195
429	0.195
430	0.195
430	0.195
431	0.195
431	0.195
432	0.195
432	0.195
432	0.195
433	0.194
433	0.194
434	0.194
434	0.194
435	0.194
435	0.194
436	0.194
436	0.194
437	0.193
437	0.193
437	0.193
438	0.193
438	0.193
439	0.193
439	0.192
440	0.192
440	0.192
441	0.192
441	0.191
442	0.191
442	0.192
442	0.191
443	0.191
443	0.191
444	0.191
444	0.191
445	0.191
445	0.192
446	0.192
446	0.192
447	0.192
447	0.192
447	0.192
448	0.192
448	0.192
449	0.192
449	0.192
450	0.192
450	0.191
451	0.191
451	0.191
452	0.191
452	0.191
452	0.191
453	0.191
453	0.191
454	0.191
454	0.192
455	0.192
455	0.192
456	0.192
456	0.192
457	0.193
457	0.193
458	0.193
458	0.193
458	0.193
459	0.193
459	0.193
460	0.193
460	0.193
461	0.193
461	0.193
462	0.193
462	0.193
463	0.193
463	0.194
463	0.194
464	0.194
464	0.194
465	0.194
465	0.195
466	0.195
466	0.195
467	0.196
467	0.196
467	0.196
468	0.196
468	0.196
469	0.196
469	0.197
470	0.197
470	0.198
471	0.198
471	0.198
472	0.199
472	0.199
472	0.2
473	0.201
473	0.201
474	0.202
474	0.202
475	0.203
475	0.204
476	0.204
476	0.204
477	0.205
477	0.205
477	0.206
478	0.206
478	0.206
479	0.207
479	0.207
480	0.208
480	0.208
481	0.209
481	0.211
482	0.211
482	0.212
482	0.213
483	0.215
483	0.216
484	0.217
484	0.218
485	0.219
485	0.22
486	0.221
486	0.222
487	0.223
487	0.224
487	0.225
488	0.226
488	0.227
489	0.229
489	0.231
490	0.232
490	0.234
491	0.235
491	0.236
492	0.238
492	0.239
492	0.241
493	0.242
493	0.244
494	0.246
494	0.248
495	0.25
495	0.252
496	0.254
496	0.256
496	0.259
497	0.261
497	0.262
498	0.264
498	0.266
499	0.267
499	0.269
500	0.271
500	0.273
501	0.275
501	0.277
501	0.278
502	0.28
502	0.282
503	0.284
503	0.286
504	0.288
504	0.29
505	0.291
505	0.293
506	0.296
506	0.297
506	0.299
507	0.301
507	0.304
508	0.306
508	0.308
509	0.31
509	0.312
510	0.314
510	0.316
511	0.318
511	0.32
511	0.322
512	0.323
512	0.325
513	0.326
513	0.327
514	0.329
514	0.33
515	0.331
515	0.332
515	0.333
516	0.335
516	0.336
517	0.337
517	0.338
518	0.339
518	0.34
519	0.341
519	0.341
520	0.342
520	0.343
520	0.344
521	0.344
521	0.345
522	0.344
522	0.345
523	0.346
523	0.346
524	0.347
524	0.347
524	0.347
525	0.347
525	0.347
526	0.347
526	0.347
527	0.347
527	0.347
528	0.347
528	0.346
529	0.346
529	0.345
529	0.344
530	0.343
530	0.342
531	0.342
531	0.341
532	0.34
532	0.339
533	0.338
533	0.336
533	0.335
534	0.333
534	0.332
535	0.331
535	0.33
536	0.328
536	0.326
537	0.325
537	0.323
538	0.322
538	0.32
538	0.318
539	0.317
539	0.315
540	0.313
540	0.311
541	0.309
541	0.307
542	0.305
542	0.303
542	0.301
543	0.299
543	0.297
544	0.294
544	0.292
545	0.29
545	0.288
546	0.286
546	0.283
547	0.28
547	0.278
547	0.276
548	0.274
548	0.271
549	0.269
549	0.267
550	0.264
550	0.262
551	0.259
551	0.256
551	0.254
552	0.252
552	0.25
553	0.247
553	0.245
554	0.242
554	0.24
555	0.237
555	0.235
556	0.232
556	0.23
556	0.227
557	0.225
557	0.223
558	0.221
558	0.218
559	0.215
559	0.213
560	0.21
560	0.208
560	0.206
561	0.204
561	0.202
562	0.2
562	0.197
563	0.194
563	0.192
564	0.19
564	0.188
564	0.186
565	0.183
565	0.181
566	0.178
566	0.176
567	0.174
567	0.172
568	0.171
568	0.169
568	0.167
569	0.165
569	0.163
570	0.161
570	0.158
571	0.157
571	0.155
572	0.153
572	0.151
573	0.148
573	0.146
573	0.144
574	0.142
574	0.141
575	0.139
575	0.139
576	0.137
576	0.135
577	0.132
577	0.131
577	0.13
578	0.129
578	0.128
579	0.128
579	0.126
580	0.124
580	0.121
581	0.118
581	0.117
581	0.117
582	0.116
582	0.115
583	0.115
583	0.113
584	0.11
584	0.108
585	0.107
585	0.107
585	0.107
586	0.106
586	0.104
587	0.103
587	0.101
588	0.1
588	0.099
589	0.099
589	0.099
590	0.098
590	0.097
590	0.098
591	0.097
591	0.095
592	0.094
592	0.092
593	0.092
593	0.091
594	0.09
594	0.088
594	0.088
595	0.088
595	0.086
596	0.086
596	0.088
597	0.089
597	0.088
598	0.088
598	0.088
598	0.088
599	0.087
599	0.086
600	0.085
600	0.084
601	0.083
601	0.082
602	0.08
602	0.079
602	0.078
603	0.077
603	0.077
604	0.077
604	0.077
605	0.078
605	0.078
606	0.078
606	0.077
606	0.077
607	0.077
607	0.077
608	0.076
608	0.075
609	0.075
609	0.076
610	0.075
610	0.075
610	0.076
611	0.076
611	0.077
612	0.078
612	0.079
613	0.079
613	0.079
614	0.079
614	0.078
614	0.078
615	0.078
615	0.078
616	0.078
616	0.078
617	0.078
617	0.078
618	0.078
618	0.078
618	0.079
619	0.08
619	0.081
620	0.083
620	0.083
621	0.084
621	0.084
622	0.085
622	0.085
622	0.085
623	0.085
623	0.086
624	0.087
624	0.086
625	0.087
625	0.087
626	0.088
626	0.088
626	0.09
627	0.091
627	0.092
628	0.093
628	0.094
629	0.095
629	0.096
630	0.097
630	0.098
630	0.1
631	0.101
631	0.103
632	0.103
632	0.105
633	0.106
633	0.108
634	0.11
634	0.112
634	0.114
635	0.115
635	0.116
636	0.117
636	0.118
637	0.119
637	0.12
638	0.122
638	0.123
638	0.124
639	0.125
639	0.127
640	0.128
640	0.13
641	0.132
641	0.133
642	0.135
642	0.137
642	0.138
643	0.14
643	0.142
644	0.144
644	0.145
645	0.147
645	0.149
646	0.151
646	0.153
646	0.156
647	0.158
647	0.16
648	0.162
648	0.164
649	0.167
649	0.17
650	0.172
650	0.175
650	0.177
651	0.179
651	0.182
652	0.185
652	0.188
653	0.191
653	0.197
653	0.199
654	0.158
654	0.127
655	0.131
655	0.133
656	0.135
656	0.136
657	0.138
657	0.139
657	0.141
658	0.139
658	0.136
659	0.174
659	0.226
660	0.233
660	0.236
661	0.239
661	0.243
661	0.246
662	0.25
662	0.253
663	0.256
663	0.259
664	0.261
664	0.264
665	0.267
665	0.269
665	0.272
666	0.275
666	0.277
667	0.28
667	0.283
668	0.285
668	0.288
669	0.291
669	0.294
669	0.298
670	0.3
670	0.303
671	0.305
671	0.307
672	0.31
672	0.313
672	0.315
673	0.318
673	0.32
674	0.322
674	0.323
675	0.325
675	0.327
676	0.329
676	0.33
676	0.331
677	0.332
677	0.333
678	0.333
678	0.333
679	0.334
679	0.335
680	0.336
680	0.336
680	0.337
681	0.338
681	0.339
682	0.339
682	0.34
683	0.341
683	0.342
684	0.343
684	0.343
684	0.343
685	0.343
685	0.344
686	0.344
686	0.343
687	0.343
687	0.343
687	0.343
688	0.342
688	0.342
689	0.342
689	0.342
690	0.34
690	0.34
691	0.339
691	0.338
691	0.337
692	0.336
692	0.335
693	0.334
693	0.333
694	0.331
694	0.33
695	0.33
695	0.33
695	0.329
696	0.328
696	0.327
697	0.326
697	0.325
698	0.323
698	0.322
698	0.32
699	0.319
699	0.317
700	0.314
700	0.312
701	0.31
701	0.307
702	0.305
702	0.302
702	0.3
703	0.297
703	0.295
704	0.292
704	0.291
705	0.289
705	0.286
705	0.284
706	0.282
706	0.28
707	0.278
707	0.276
708	0.274
708	0.272
709	0.27
709	0.268
709	0.265
710	0.263
710	0.261
711	0.259
711	0.257
712	0.254
712	0.252
713	0.25
713	0.248
713	0.246
714	0.244
714	0.242
715	0.24
715	0.238
716	0.235
716	0.233
716	0.231
717	0.229
717	0.227
718	0.224
718	0.222
719	0.22
719	0.218
720	0.215
720	0.213
720	0.21
721	0.207
721	0.205
722	0.202
722	0.199
723	0.197
723	0.194
723	0.191
724	0.189
724	0.186
725	0.184
725	0.182
726	0.18
726	0.179
727	0.177
727	0.175
727	0.173
728	0.172
728	0.17
729	0.169
729	0.167
730	0.166
730	0.164
730	0.162
731	0.161
731	0.159
732	0.157
732	0.155
733	0.153
733	0.151
734	0.149
734	0.147
734	0.146
735	0.144
735	0.142
736	0.14
736	0.139
737	0.138
737	0.136
737	0.134
738	0.131
738	0.129
739	0.127
739	0.124
740	0.122
740	0.12
741	0.118
741	0.115
741	0.113
742	0.111
742	0.11
743	0.108
743	0.107
744	0.105
744	0.104
744	0.102
745	0.101
745	0.099
746	0.098
746	0.097
747	0.096
747	0.094
748	0.093
748	0.091
748	0.089
749	0.088
749	0.088
750	0.087
750	0.086
751	0.085
751	0.085
751	0.084
752	0.083
752	0.082
753	0.081
753	0.081
754	0.08
754	0.078
754	0.077
755	0.076
755	0.075
756	0.074
756	0.072
757	0.071
757	0.07
758	0.069
758	0.068
758	0.067
759	0.066
759	0.065
760	0.064
760	0.064
761	0.063
761	0.064
761	0.063
762	0.063
762	0.062
763	0.062
763	0.06
764	0.059
764	0.058
764	0.057
765	0.056
765	0.055
766	0.054
766	0.054
767	0.053
767	0.051
768	0.05
768	0.05
768	0.05
769	0.049
769	0.048
770	0.048
770	0.047
771	0.046
771	0.045
771	0.044
772	0.044
772	0.043
773	0.042
773	0.041
774	0.041
774	0.04
775	0.04
775	0.038
775	0.037
776	0.036
776	0.036
777	0.035
777	0.034
778	0.033
778	0.032
778	0.032
779	0.031
779	0.031
780	0.03
780	0.029
781	0.029
781	0.028
781	0.027
782	0.026
782	0.025
783	0.024
783	0.022
784	0.021
784	0.02
784	0.019
785	0.018
785	0.017
786	0.017
786	0.017
787	0.018
787	0.017
788	0.017
788	0.017
788	0.017
789	0.017
789	0.018
790	0.018
790	0.018
791	0.018
791	0.018
791	0.017
792	0.018
792	0.017
793	0.017
793	0.016
794	0.016
794	0.015
794	0.015
795	0.015
795	0.015
796	0.015
796	0.014
797	0.013
797	0.013
797	0.013
798	0.013
798	0.012
799	0.011
799	0.011
800	0.01
800	0.008
801	0.008
801	0.007
801	0.006
802	0.005
802	0.004
803	0.003
803	0.002
804	0.002
804	0.002
804	0.002
805	0.002
805	0.003
806	0.003
806	0.004
807	0.005
807	0.006
807	0.007
808	0.007
808	0.008
809	0.008
809	0.009
810	0.009
810	0.009
810	0.01
811	0.01
811	0.011
812	0.012
812	0.012
813	0.012
813	0.013
813	0.012
814	0.012
814	0.012
815	0.011
815	0.01
816	0.009
816	0.008
817	0.007
817	0.006
817	0.005
818	0.005
818	0.004
819	0.003
819	0.002
820	0.002
820	0.001
820	0.001
821	0.001
821	0
822	0
822	-0
823	-0
823	-0.001
823	-0.001
824	-0.001
824	-0
825	-0
825	-0
826	-0.001
826	-0.001
826	-0.001
827	-0.002
827	-0.002
828	-0.002
828	-0.003
829	-0.002
829	-0.002
829	-0.002
830	-0.002
830	-0.002
831	-0.002
831	-0.002
832	-0.002
832	-0.002
832	-0.002
833	-0.002
833	-0.003
834	-0.003
834	-0.003
835	-0.004
835	-0.005
835	-0.005
836	-0.005
836	-0.006
837	-0.006
837	-0.006
838	-0.006
838	-0.006
839	-0.006
839	-0.005
839	-0.005
840	-0.005
840	-0.004
841	-0.004
841	-0.003
842	-0.003
842	-0.002
842	-0.002
843	-0.002
843	-0.002
844	-0.002
844	-0.003
845	-0.003
845	-0.003
845	-0.004
846	-0.005
846	-0.005
847	-0.006
847	-0.006
848	-0.007
848	-0.008
848	-0.008
849	-0.009
849	-0.009
850	-0.01
850	-0.011
851	-0.011
851	-0.011
851	-0.012
852	-0.012
852	-0.012
853	-0.012
853	-0.012
854	-0.012
854	-0.012
854	-0.012
855	-0.012
855	-0.012
856	-0.011
856	-0.011
857	-0.01
857	-0.01
857	-0.01
858	-0.01
858	-0.01
859	-0.01
859	-0.009
860	-0.009
860	-0.009
860	-0.009
861	-0.009
861	-0.009
862	-0.009
862	-0.009
863	-0.009
863	-0.01
863	-0.01
864	-0.011
864	-0.011
865	-0.012
865	-0.012
866	-0.013
866	-0.014
866	-0.014
867	-0.015
867	-0.015
868	-0.014
868	-0.014
869	-0.014
869	-0.013
869	-0.013
870	-0.013
870	-0.013
871	-0.012
871	-0.013
872	-0.013
872	-0.014
872	-0.015
873	-0.015
873	-0.017
874	-0.018
874	-0.018
875	-0.019
875	-0.02
875	-0.021
876	-0.022
876	-0.023
877	-0.023
877	-0.024
878	-0.024
878	-0.024
878	-0.024
879	-0.024
879	-0.024
880	-0.023
880	-0.023
881	-0.022
881	-0.021
881	-0.02
882	-0.018
882	-0.017
883	-0.015
883	-0.014
884	-0.013
884	-0.012
884	-0.012
885	-0.011
885	-0.01
886	-0.01
886	-0.01
887	-0.01
887	-0.01
887	-0.01
888	-0.01
888	-0.009
889	-0.009
889	-0.008
890	-0.007
890	-0.007
890	-0.006
891	-0.006
891	-0.006
892	-0.006
892	-0.006
893	-0.006
893	-0.007
893	-0.008
894	-0.009
894	-0.01
895	-0.011
895	-0.012
895	-0.013
896	-0.014
896	-0.016
897	-0.016
897	-0.017
898	-0.018
898	-0.018
898	-0.019
899	-0.02
899	-0.02
900	-0.021
900	-0.021
901	-0.021
901	-0.021
901	-0.021
902	-0.021
902	-0.021
903	-0.022
903	-0.022
904	-0.022
904	-0.023
904	-0.023
905	-0.023
905	-0.024
906	-0.024
906	-0.025
907	-0.025
907	-0.026
907	-0.026
908	-0.026
908	-0.026
909	-0.025
909	-0.025
910	-0.024
910	-0.023
910	-0.023
911	-0.022
911	-0.021
912	-0.021
912	-0.02
913	-0.02
913	-0.02
913	-0.02
914	-0.021
914	-0.022
915	-0.022
915	-0.023
916	-0.024
916	-0.025
916	-0.025
917	-0.025
917	-0.025
918	-0.025
918	-0.025
918	-0.024
919	-0.024
919	-0.023
920	-0.022
920	-0.021
921	-0.021
921	-0.02
921	-0.02
922	-0.02
922	-0.019
923	-0.019
923	-0.019
924	-0.019
924	-0.02
924	-0.02
925	-0.02
925	-0.02
926	-0.021
926	-0.021
927	-0.021
927	-0.022
927	-0.022
928	-0.022
928	-0.023
929	-0.023
929	-0.023
930	-0.023
930	-0.023
930	-0.024
931	-0.024
931	-0.024
932	-0.025
932	-0.025
933	-0.025
933	-0.025
933	-0.025
934	-0.025
934	-0.025
935	-0.025
935	-0.025
935	-0.025
936	-0.025
936	-0.025
937	-0.025
937	-0.026
938	-0.026
938	-0.026
938	-0.026
939	-0.026
939	-0.026
940	-0.026
940	-0.025
941	-0.025
941	-0.024
941	-0.023
942	-0.023
942	-0.022
943	-0.022
943	-0.022
944	-0.022
944	-0.022
944	-0.022
945	-0.022
945	-0.022
946	-0.022
946	-0.023
946	-0.023
947	-0.023
947	-0.023
948	-0.023
948	-0.022
949	-0.022
949	-0.021
949	-0.021
950	-0.02
950	-0.02
951	-0.019
951	-0.019
952	-0.019
952	-0.019
952	-0.019
953	-0.019
953	-0.019
954	-0.019
954	-0.02
955	-0.02
955	-0.02
955	-0.02
956	-0.021
956	-0.021
957	-0.022
957	-0.022
957	-0.023
958	-0.024
958	-0.025
959	-0.025
959	-0.026
960	-0.026
960	-0.027
960	-0.027
961	-0.028
961	-0.028
962	-0.028
962	-0.027
963	-0.027
963	-0.026
963	-0.025
964	-0.024
964	-0.023
965	-0.022
965	-0.021
966	-0.02
966	-0.019
966	-0.018
967	-0.017
967	-0.017
968	-0.017
968	-0.017
968	-0.017
969	-0.017
969	-0.017
970	-0.017
970	-0.017
971	-0.017
971	-0.018
971	-0.018
972	-0.019
972	-0.019
973	-0.02
973	-0.02
974	-0.021
974	-0.021
974	-0.022
975	-0.023
975	-0.023
976	-0.024
976	-0.025
976	-0.026
977	-0.027
977	-0.028
978	-0.029
978	-0.029
979	-0.03
979	-0.03
979	-0.03
980	-0.03
980	-0.029
981	-0.029
981	-0.028
982	-0.027
982	-0.026
982	-0.025
983	-0.024
983	-0.024
984	-0.023
984	-0.022
984	-0.021
985	-0.02
985	-0.02
986	-0.021
986	-0.021
987	-0.022
987	-0.022
987	-0.023
988	-0.024
988	-0.025
989	-0.027
989	-0.028
990	-0.03
990	-0.032
990	-0.033
991	-0.035
991	-0.036
992	-0.037
992	-0.039
992	-0.04
993	-0.041
993	-0.042
994	-0.043
994	-0.044
995	-0.044
995	-0.044
995	-0.045
996	-0.045
996	-0.045
997	-0.045
997	-0.045
997	-0.044
998	-0.043
998	-0.042
999	-0.041
999	-0.039
1000	-0.038
1000	-0.037
1000	-0.035
1001	-0.034
1001	-0.032
1002	-0.031
1002	-0.03
1003	-0.029
1003	-0.028
1003	-0.027
1004	-0.027
1004	-0.026
1005	-0.026
1005	-0.026
1005	-0.026
1006	-0.026
1006	-0.026
1007	-0.026
1007	-0.026
1008	-0.026
1008	-0.025
1008	-0.025
1009	-0.025
1009	-0.025
1010	-0.024
1010	-0.024
1010	-0.024
1011	-0.024
1011	-0.024
1012	-0.024
1012	-0.024
1013	-0.025
1013	-0.025
1013	-0.026
1014	-0.027
1014	-0.028
1015	-0.029
1015	-0.03
1016	-0.031
1016	-0.032
1016	-0.032
1017	-0.033
1017	-0.033
1018	-0.033
1018	-0.033
1018	-0.033
1019	-0.033
1019	-0.033
1020	-0.033
1020	-0.032
1021	-0.032
1021	-0.032
1021	-0.033
1022	-0.033
1022	-0.033
1023	-0.033
1023	-0.034
1023	-0.034
1024	-0.035
1024	-0.036
1025	-0.037
1025	-0.038
1026	-0.039
1026	-0.039
1026	-0.04
1027	-0.041
1027	-0.041
1028	-0.041
1028	-0.041
1028	-0.041
1029	-0.041
1029	-0.041
1030	-0.041
1030	-0.041
1031	-0.041
1031	-0.041
1031	-0.041
1032	-0.041
1032	-0.041
1033	-0.041
1033	-0.042
1033	-0.042
1034	-0.043
1034	-0.044
1035	-0.045
1035	-0.046
1036	-0.047
1036	-0.047
1036	-0.048
1037	-0.049
1037	-0.049
1038	-0.05
1038	-0.05
1039	-0.05
1039	-0.05
1039	-0.05
1040	-0.05
1040	-0.05
1041	-0.05
1041	-0.05
1041	-0.05
1042	-0.05
1042	-0.05
1043	-0.05
1043	-0.051
1044	-0.051
1044	-0.051
1044	-0.051
1045	-0.051
1045	-0.051
1046	-0.051
1046	-0.05
1046	-0.05
1047	-0.049
1047	-0.048
1048	-0.047
1048	-0.047
1049	-0.046
1049	-0.046
1049	-0.046
1050	-0.046
1050	-0.046
1051	-0.046
1051	-0.046
1051	-0.046
1052	-0.045
1052	-0.045
1053	-0.045
1053	-0.045
1053	-0.044
1054	-0.044
1054	-0.044
1055	-0.043
1055	-0.043
1056	-0.043
1056	-0.043
1056	-0.044
1057	-0.044
1057	-0.044
1058	-0.045
1058	-0.045
1058	-0.046
1059	-0.046
1059	-0.047
1060	-0.047
1060	-0.048
1061	-0.048
1061	-0.048
1061	-0.048
1062	-0.049
1062	-0.05
1063	-0.05
1063	-0.051
1063	-0.052
1064	-0.053
1064	-0.053
1065	-0.054
1065	-0.055
1066	-0.056
1066	-0.057
1066	-0.058
1067	-0.058
1067	-0.059
1068	-0.06
1068	-0.06
1068	-0.061
1069	-0.061
1069	-0.062
1070	-0.062
1070	-0.063
1071	-0.063
1071	-0.064
1071	-0.065
1072	-0.065
1072	-0.065
1073	-0.065
1073	-0.065
1073	-0.065
1074	-0.065
1074	-0.065
1075	-0.065
1075	-0.066
1076	-0.066
1076	-0.066
1076	-0.066
1077	-0.066
1077	-0.066
1078	-0.067
1078	-0.067
1078	-0.067
1079	-0.068
1079	-0.067
1080	-0.068
1080	-0.067
1080	-0.067
1081	-0.067
1081	-0.067
1082	-0.067
1082	-0.067
1083	-0.067
1083	-0.067
1083	-0.066
1084	-0.067
1084	-0.067
1085	-0.067
1085	-0.067
1085	-0.067
1086	-0.067
1086	-0.068
1087	-0.068
1087	-0.068
1088	-0.068
1088	-0.069
1088	-0.069
1089	-0.07
1089	-0.071
1090	-0.072
1090	-0.073
1090	-0.074
1091	-0.075
1091	-0.076
1092	-0.077
1092	-0.077
1092	-0.078
1093	-0.079
1093	-0.079
1094	-0.079
1094	-0.079
1095	-0.08
1095	-0.08
1095	-0.081
1096	-0.082
1096	-0.082
1097	-0.082
1097	-0.084
1097	-0.084
1098	-0.084
1098	-0.085
1099	-0.086
1099	-0.087
1100	-0.088
1100	-0.089
1100	-0.09
1101	-0.092
1101	-0.094
1102	-0.095
1102	-0.097
1102	-0.098
1103	-0.101
1103	-0.102
1104	-0.103
1104	-0.104
1104	-0.105
1105	-0.106
1105	-0.107
1106	-0.109
1106	-0.112
1107	-0.116
1107	-0.119
1107	-0.121
1108	-0.122
1108	-0.124
1109	-0.126
1109	-0.131
1109	-0.134
1110	-0.136
1110	-0.14
1111	-0.14
1111	-0.133
