Data from 17c-100ul-ns-20ul-nr-full-exp'4ul'bp_Absorbance__427__00897.txt Node

Date: Mon Jan 15 09:54:32 CET 2024
User: Marek
Spectrometer: MAYP115816
Trigger mode: 0
Integration Time (sec): 2.000000E-1
Scans to average: 10
Electric dark correction enabled: true
Nonlinearity correction enabled: true
Boxcar width: 5
XAxis mode: Wavelengths
Number of Pixels in Spectrum: 2068
>>>>>Begin Spectral Data<<<<<
199	-0.47
199	-0.442
200	-0.369
200	-0.308
201	-0.267
201	-0.245
202	-0.222
202	-0.217
203	-0.213
203	-0.211
204	-0.195
204	-0.181
205	-0.167
205	-0.161
205	-0.164
206	-0.168
206	-0.173
207	-0.172
207	-0.172
208	-0.173
208	-0.172
209	-0.173
209	-0.178
210	-0.18
210	-0.182
211	-0.182
211	-0.183
212	-0.183
212	-0.184
213	-0.186
213	-0.185
213	-0.188
214	-0.187
214	-0.187
215	-0.188
215	-0.191
216	-0.191
216	-0.193
217	-0.191
217	-0.192
218	-0.192
218	-0.189
219	-0.186
219	-0.187
220	-0.185
220	-0.184
221	-0.182
221	-0.181
221	-0.178
222	-0.175
222	-0.171
223	-0.164
223	-0.164
224	-0.163
224	-0.155
225	-0.147
225	-0.14
226	-0.134
226	-0.123
227	-0.111
227	-0.103
228	-0.089
228	-0.077
229	-0.059
229	-0.035
229	-0.015
230	0.007
230	0.031
231	0.056
231	0.08
232	0.101
232	0.126
233	0.15
233	0.173
234	0.193
234	0.212
235	0.23
235	0.245
236	0.26
236	0.273
236	0.286
237	0.298
237	0.307
238	0.317
238	0.324
239	0.332
239	0.339
240	0.343
240	0.348
241	0.352
241	0.356
242	0.359
242	0.362
243	0.365
243	0.367
243	0.369
244	0.371
244	0.373
245	0.375
245	0.376
246	0.377
246	0.379
247	0.38
247	0.381
248	0.382
248	0.383
249	0.384
249	0.385
250	0.386
250	0.387
250	0.388
251	0.388
251	0.389
252	0.39
252	0.39
253	0.391
253	0.391
254	0.391
254	0.392
255	0.392
255	0.392
256	0.392
256	0.393
257	0.393
257	0.393
258	0.393
258	0.393
258	0.393
259	0.392
259	0.392
260	0.392
260	0.391
261	0.391
261	0.391
262	0.39
262	0.389
263	0.388
263	0.387
264	0.386
264	0.385
265	0.385
265	0.383
265	0.382
266	0.381
266	0.38
267	0.379
267	0.378
268	0.377
268	0.376
269	0.375
269	0.373
270	0.372
270	0.371
271	0.369
271	0.367
272	0.366
272	0.365
272	0.364
273	0.362
273	0.36
274	0.359
274	0.357
275	0.355
275	0.354
276	0.352
276	0.351
277	0.349
277	0.347
278	0.346
278	0.344
278	0.343
279	0.341
279	0.339
280	0.338
280	0.336
281	0.334
281	0.332
282	0.33
282	0.328
283	0.327
283	0.325
284	0.323
284	0.321
285	0.32
285	0.318
285	0.317
286	0.316
286	0.314
287	0.313
287	0.311
288	0.31
288	0.309
289	0.308
289	0.306
290	0.305
290	0.304
291	0.302
291	0.301
292	0.3
292	0.299
292	0.297
293	0.296
293	0.295
294	0.294
294	0.293
295	0.292
295	0.291
296	0.29
296	0.289
297	0.288
297	0.287
298	0.286
298	0.285
298	0.284
299	0.284
299	0.283
300	0.282
300	0.281
301	0.28
301	0.28
302	0.279
302	0.278
303	0.277
303	0.277
304	0.276
304	0.275
305	0.275
305	0.274
305	0.273
306	0.273
306	0.272
307	0.271
307	0.27
308	0.27
308	0.269
309	0.268
309	0.267
310	0.266
310	0.266
311	0.265
311	0.264
311	0.263
312	0.263
312	0.262
313	0.261
313	0.261
314	0.26
314	0.259
315	0.258
315	0.258
316	0.257
316	0.257
317	0.256
317	0.255
318	0.255
318	0.254
318	0.253
319	0.253
319	0.252
320	0.251
320	0.251
321	0.25
321	0.249
322	0.248
322	0.248
323	0.247
323	0.246
324	0.246
324	0.245
324	0.244
325	0.244
325	0.243
326	0.242
326	0.242
327	0.241
327	0.24
328	0.24
328	0.239
329	0.238
329	0.238
330	0.237
330	0.236
330	0.236
331	0.235
331	0.235
332	0.234
332	0.233
333	0.233
333	0.232
334	0.232
334	0.231
335	0.23
335	0.23
336	0.229
336	0.229
336	0.228
337	0.228
337	0.227
338	0.227
338	0.226
339	0.226
339	0.226
340	0.225
340	0.225
341	0.224
341	0.224
342	0.223
342	0.223
342	0.222
343	0.222
343	0.221
344	0.221
344	0.221
345	0.22
345	0.22
346	0.22
346	0.219
347	0.219
347	0.219
348	0.219
348	0.218
348	0.218
349	0.218
349	0.217
350	0.217
350	0.217
351	0.217
351	0.217
352	0.217
352	0.216
353	0.216
353	0.216
354	0.216
354	0.215
354	0.215
355	0.215
355	0.214
356	0.214
356	0.215
357	0.215
357	0.215
358	0.214
358	0.214
359	0.214
359	0.214
360	0.214
360	0.213
360	0.213
361	0.213
361	0.213
362	0.212
362	0.212
363	0.212
363	0.211
364	0.211
364	0.211
365	0.211
365	0.211
366	0.211
366	0.211
366	0.211
367	0.211
367	0.211
368	0.21
368	0.21
369	0.21
369	0.21
370	0.21
370	0.21
371	0.21
371	0.21
372	0.209
372	0.209
372	0.209
373	0.209
373	0.209
374	0.209
374	0.209
375	0.209
375	0.208
376	0.208
376	0.208
377	0.208
377	0.207
378	0.207
378	0.207
378	0.207
379	0.207
379	0.206
380	0.206
380	0.206
381	0.206
381	0.206
382	0.205
382	0.205
383	0.205
383	0.205
383	0.205
384	0.205
384	0.204
385	0.204
385	0.204
386	0.204
386	0.203
387	0.203
387	0.203
388	0.203
388	0.202
389	0.202
389	0.202
389	0.202
390	0.202
390	0.202
391	0.201
391	0.201
392	0.201
392	0.201
393	0.201
393	0.201
394	0.201
394	0.201
394	0.2
395	0.2
395	0.2
396	0.199
396	0.199
397	0.199
397	0.199
398	0.199
398	0.199
399	0.198
399	0.198
400	0.198
400	0.198
400	0.198
401	0.197
401	0.197
402	0.197
402	0.197
403	0.196
403	0.196
404	0.196
404	0.196
405	0.196
405	0.195
405	0.195
406	0.195
406	0.195
407	0.195
407	0.195
408	0.195
408	0.194
409	0.194
409	0.194
410	0.194
410	0.194
411	0.194
411	0.194
411	0.193
412	0.193
412	0.193
413	0.192
413	0.192
414	0.192
414	0.192
415	0.191
415	0.191
416	0.19
416	0.19
416	0.19
417	0.19
417	0.189
418	0.189
418	0.189
419	0.189
419	0.189
420	0.189
420	0.189
421	0.189
421	0.189
421	0.189
422	0.189
422	0.189
423	0.189
423	0.189
424	0.188
424	0.188
425	0.188
425	0.188
426	0.188
426	0.188
427	0.188
427	0.188
427	0.188
428	0.188
428	0.188
429	0.188
429	0.188
430	0.188
430	0.188
431	0.187
431	0.187
432	0.187
432	0.187
432	0.186
433	0.186
433	0.186
434	0.186
434	0.186
435	0.186
435	0.185
436	0.185
436	0.185
437	0.185
437	0.185
437	0.184
438	0.184
438	0.184
439	0.184
439	0.184
440	0.184
440	0.184
441	0.183
441	0.183
442	0.183
442	0.183
442	0.183
443	0.183
443	0.183
444	0.183
444	0.183
445	0.183
445	0.183
446	0.183
446	0.183
447	0.183
447	0.183
447	0.183
448	0.183
448	0.183
449	0.183
449	0.183
450	0.183
450	0.182
451	0.182
451	0.182
452	0.182
452	0.182
452	0.182
453	0.182
453	0.182
454	0.182
454	0.182
455	0.182
455	0.183
456	0.183
456	0.183
457	0.183
457	0.183
458	0.183
458	0.183
458	0.184
459	0.184
459	0.184
460	0.184
460	0.183
461	0.183
461	0.183
462	0.183
462	0.183
463	0.183
463	0.184
463	0.184
464	0.184
464	0.184
465	0.184
465	0.184
466	0.184
466	0.185
467	0.185
467	0.185
467	0.185
468	0.185
468	0.185
469	0.185
469	0.186
470	0.186
470	0.186
471	0.187
471	0.187
472	0.187
472	0.188
472	0.188
473	0.189
473	0.189
474	0.19
474	0.19
475	0.191
475	0.191
476	0.191
476	0.191
477	0.192
477	0.192
477	0.192
478	0.192
478	0.192
479	0.193
479	0.193
480	0.193
480	0.194
481	0.195
481	0.196
482	0.197
482	0.198
482	0.199
483	0.2
483	0.202
484	0.202
484	0.202
485	0.203
485	0.204
486	0.205
486	0.205
487	0.206
487	0.207
487	0.208
488	0.209
488	0.209
489	0.211
489	0.213
490	0.214
490	0.216
491	0.217
491	0.218
492	0.219
492	0.22
492	0.222
493	0.223
493	0.224
494	0.226
494	0.228
495	0.229
495	0.231
496	0.233
496	0.235
496	0.236
497	0.238
497	0.24
498	0.241
498	0.243
499	0.244
499	0.246
500	0.247
500	0.249
501	0.25
501	0.252
501	0.253
502	0.255
502	0.256
503	0.258
503	0.259
504	0.261
504	0.262
505	0.264
505	0.266
506	0.268
506	0.269
506	0.271
507	0.273
507	0.275
508	0.277
508	0.278
509	0.28
509	0.282
510	0.283
510	0.285
511	0.286
511	0.288
511	0.29
512	0.291
512	0.292
513	0.293
513	0.295
514	0.296
514	0.298
515	0.299
515	0.3
515	0.301
516	0.302
516	0.303
517	0.304
517	0.305
518	0.306
518	0.307
519	0.307
519	0.308
520	0.309
520	0.31
520	0.31
521	0.311
521	0.311
522	0.311
522	0.312
523	0.313
523	0.313
524	0.314
524	0.314
524	0.314
525	0.314
525	0.314
526	0.314
526	0.315
527	0.315
527	0.315
528	0.314
528	0.314
529	0.314
529	0.314
529	0.314
530	0.314
530	0.313
531	0.313
531	0.312
532	0.311
532	0.311
533	0.31
533	0.309
533	0.309
534	0.307
534	0.306
535	0.306
535	0.305
536	0.304
536	0.303
537	0.302
537	0.301
538	0.3
538	0.299
538	0.298
539	0.297
539	0.296
540	0.295
540	0.293
541	0.292
541	0.291
542	0.289
542	0.288
542	0.287
543	0.286
543	0.284
544	0.283
544	0.281
545	0.28
545	0.279
546	0.278
546	0.276
547	0.274
547	0.272
547	0.27
548	0.269
548	0.267
549	0.266
549	0.264
550	0.262
550	0.261
551	0.259
551	0.257
551	0.255
552	0.254
552	0.252
553	0.25
553	0.249
554	0.248
554	0.246
555	0.244
555	0.242
556	0.241
556	0.239
556	0.237
557	0.236
557	0.235
558	0.233
558	0.231
559	0.229
559	0.228
560	0.226
560	0.224
560	0.223
561	0.222
561	0.221
562	0.219
562	0.217
563	0.214
563	0.213
564	0.211
564	0.209
564	0.208
565	0.206
565	0.205
566	0.203
566	0.201
567	0.2
567	0.198
568	0.197
568	0.196
568	0.195
569	0.193
569	0.192
570	0.19
570	0.188
571	0.187
571	0.186
572	0.184
572	0.183
573	0.181
573	0.179
573	0.177
574	0.176
574	0.175
575	0.175
575	0.174
576	0.173
576	0.171
577	0.169
577	0.168
577	0.167
578	0.166
578	0.166
579	0.165
579	0.164
580	0.162
580	0.159
581	0.157
581	0.157
581	0.156
582	0.156
582	0.156
583	0.155
583	0.154
584	0.151
584	0.149
585	0.149
585	0.149
585	0.148
586	0.147
586	0.146
587	0.144
587	0.143
588	0.142
588	0.141
589	0.141
589	0.141
590	0.14
590	0.14
590	0.14
591	0.139
591	0.138
592	0.136
592	0.135
593	0.135
593	0.134
594	0.132
594	0.131
594	0.13
595	0.13
595	0.129
596	0.128
596	0.13
597	0.131
597	0.13
598	0.13
598	0.13
598	0.129
599	0.129
599	0.127
600	0.126
600	0.125
601	0.124
601	0.123
602	0.121
602	0.12
602	0.119
603	0.118
603	0.118
604	0.117
604	0.117
605	0.117
605	0.117
606	0.117
606	0.116
606	0.116
607	0.115
607	0.115
608	0.115
608	0.114
609	0.114
609	0.114
610	0.113
610	0.113
610	0.113
611	0.114
611	0.114
612	0.115
612	0.115
613	0.115
613	0.115
614	0.114
614	0.113
614	0.113
615	0.112
615	0.112
616	0.112
616	0.112
617	0.111
617	0.111
618	0.111
618	0.111
618	0.112
619	0.113
619	0.114
620	0.115
620	0.115
621	0.116
621	0.116
622	0.116
622	0.116
622	0.116
623	0.116
623	0.117
624	0.117
624	0.116
625	0.116
625	0.117
626	0.117
626	0.117
626	0.118
627	0.119
627	0.12
628	0.121
628	0.122
629	0.123
629	0.123
630	0.123
630	0.124
630	0.126
631	0.127
631	0.127
632	0.128
632	0.129
633	0.13
633	0.132
634	0.133
634	0.135
634	0.136
635	0.137
635	0.138
636	0.139
636	0.14
637	0.141
637	0.141
638	0.143
638	0.144
638	0.145
639	0.146
639	0.147
640	0.148
640	0.149
641	0.151
641	0.152
642	0.154
642	0.155
642	0.156
643	0.158
643	0.159
644	0.16
644	0.162
645	0.163
645	0.165
646	0.167
646	0.169
646	0.171
647	0.173
647	0.174
648	0.176
648	0.178
649	0.18
649	0.182
650	0.184
650	0.187
650	0.189
651	0.19
651	0.193
652	0.195
652	0.198
653	0.201
653	0.207
653	0.209
654	0.165
654	0.133
655	0.136
655	0.138
656	0.14
656	0.141
657	0.143
657	0.144
657	0.145
658	0.143
658	0.139
659	0.178
659	0.232
660	0.239
660	0.242
661	0.244
661	0.248
661	0.251
662	0.254
662	0.257
663	0.26
663	0.262
664	0.265
664	0.267
665	0.269
665	0.272
665	0.274
666	0.276
666	0.279
667	0.281
667	0.284
668	0.287
668	0.289
669	0.292
669	0.295
669	0.298
670	0.301
670	0.303
671	0.306
671	0.308
672	0.31
672	0.313
672	0.315
673	0.317
673	0.319
674	0.321
674	0.323
675	0.325
675	0.327
676	0.329
676	0.33
676	0.33
677	0.332
677	0.332
678	0.332
678	0.333
679	0.333
679	0.334
680	0.335
680	0.336
680	0.337
681	0.338
681	0.339
682	0.339
682	0.34
683	0.341
683	0.343
684	0.343
684	0.343
684	0.343
685	0.344
685	0.344
686	0.344
686	0.344
687	0.345
687	0.344
687	0.344
688	0.344
688	0.344
689	0.344
689	0.344
690	0.343
690	0.342
691	0.342
691	0.341
691	0.34
692	0.339
692	0.338
693	0.338
693	0.337
694	0.336
694	0.335
695	0.335
695	0.335
695	0.334
696	0.333
696	0.333
697	0.332
697	0.331
698	0.33
698	0.329
698	0.328
699	0.327
699	0.325
700	0.323
700	0.321
701	0.319
701	0.317
702	0.315
702	0.313
702	0.31
703	0.308
703	0.306
704	0.304
704	0.302
705	0.3
705	0.298
705	0.297
706	0.295
706	0.294
707	0.292
707	0.29
708	0.288
708	0.287
709	0.285
709	0.283
709	0.28
710	0.278
710	0.277
711	0.275
711	0.273
712	0.271
712	0.269
713	0.267
713	0.266
713	0.264
714	0.262
714	0.261
715	0.259
715	0.257
716	0.255
716	0.253
716	0.251
717	0.25
717	0.248
718	0.246
718	0.244
719	0.242
719	0.24
720	0.238
720	0.235
720	0.233
721	0.23
721	0.228
722	0.225
722	0.223
723	0.221
723	0.218
723	0.216
724	0.213
724	0.211
725	0.209
725	0.208
726	0.206
726	0.204
727	0.203
727	0.201
727	0.2
728	0.198
728	0.197
729	0.196
729	0.194
730	0.193
730	0.191
730	0.19
731	0.188
731	0.187
732	0.185
732	0.184
733	0.182
733	0.18
734	0.179
734	0.177
734	0.175
735	0.174
735	0.172
736	0.171
736	0.17
737	0.169
737	0.167
737	0.165
738	0.162
738	0.16
739	0.158
739	0.156
740	0.154
740	0.152
741	0.15
741	0.147
741	0.145
742	0.143
742	0.142
743	0.141
743	0.139
744	0.138
744	0.136
744	0.135
745	0.133
745	0.132
746	0.131
746	0.13
747	0.129
747	0.127
748	0.126
748	0.125
748	0.123
749	0.122
749	0.122
750	0.121
750	0.12
751	0.119
751	0.118
751	0.118
752	0.117
752	0.116
753	0.115
753	0.115
754	0.114
754	0.113
754	0.112
755	0.111
755	0.11
756	0.108
756	0.106
757	0.105
757	0.104
758	0.103
758	0.102
758	0.101
759	0.1
759	0.099
760	0.098
760	0.097
761	0.097
761	0.098
761	0.097
762	0.097
762	0.096
763	0.096
763	0.095
764	0.094
764	0.093
764	0.092
765	0.091
765	0.09
766	0.089
766	0.088
767	0.087
767	0.086
768	0.085
768	0.085
768	0.084
769	0.084
769	0.083
770	0.082
770	0.082
771	0.081
771	0.08
771	0.078
772	0.078
772	0.077
773	0.076
773	0.076
774	0.075
774	0.074
775	0.073
775	0.072
775	0.071
776	0.07
776	0.069
777	0.068
777	0.067
778	0.066
778	0.065
778	0.065
779	0.064
779	0.064
780	0.063
780	0.062
781	0.062
781	0.06
781	0.059
782	0.058
782	0.057
783	0.056
783	0.055
784	0.053
784	0.052
784	0.051
785	0.05
785	0.049
786	0.049
786	0.049
787	0.05
787	0.05
788	0.049
788	0.049
788	0.049
789	0.049
789	0.05
790	0.05
790	0.05
791	0.05
791	0.05
791	0.05
792	0.05
792	0.049
793	0.048
793	0.048
794	0.047
794	0.047
794	0.047
795	0.047
795	0.046
796	0.046
796	0.045
797	0.044
797	0.044
797	0.044
798	0.043
798	0.043
799	0.042
799	0.041
800	0.04
800	0.038
801	0.038
801	0.037
801	0.036
802	0.035
802	0.033
803	0.032
803	0.032
804	0.031
804	0.031
804	0.031
805	0.031
805	0.032
806	0.032
806	0.033
807	0.033
807	0.034
807	0.035
808	0.035
808	0.036
809	0.036
809	0.037
810	0.037
810	0.037
810	0.037
811	0.038
811	0.039
812	0.039
812	0.039
813	0.04
813	0.04
813	0.04
814	0.039
814	0.039
815	0.038
815	0.038
816	0.037
816	0.035
817	0.034
817	0.034
817	0.033
818	0.032
818	0.031
819	0.03
819	0.029
820	0.029
820	0.028
820	0.028
821	0.027
821	0.027
822	0.027
822	0.026
823	0.026
823	0.026
823	0.026
824	0.026
824	0.026
825	0.026
825	0.026
826	0.025
826	0.025
826	0.024
827	0.024
827	0.023
828	0.023
828	0.022
829	0.022
829	0.022
829	0.022
830	0.022
830	0.022
831	0.023
831	0.023
832	0.023
832	0.023
832	0.023
833	0.022
833	0.022
834	0.021
834	0.021
835	0.02
835	0.019
835	0.019
836	0.018
836	0.018
837	0.017
837	0.017
838	0.017
838	0.017
839	0.018
839	0.018
839	0.018
840	0.018
840	0.019
841	0.019
841	0.02
842	0.02
842	0.021
842	0.021
843	0.021
843	0.02
844	0.02
844	0.02
845	0.02
845	0.019
845	0.019
846	0.018
846	0.017
847	0.017
847	0.016
848	0.016
848	0.015
848	0.015
849	0.014
849	0.013
850	0.013
850	0.012
851	0.012
851	0.011
851	0.011
852	0.01
852	0.01
853	0.01
853	0.01
854	0.01
854	0.011
854	0.011
855	0.011
855	0.011
856	0.011
856	0.011
857	0.012
857	0.012
857	0.012
858	0.012
858	0.012
859	0.012
859	0.013
860	0.013
860	0.013
860	0.013
861	0.013
861	0.013
862	0.012
862	0.012
863	0.012
863	0.012
863	0.011
864	0.01
864	0.01
865	0.009
865	0.008
866	0.007
866	0.006
866	0.006
867	0.005
867	0.005
868	0.005
868	0.006
869	0.006
869	0.006
869	0.007
870	0.007
870	0.007
871	0.007
871	0.007
872	0.006
872	0.006
872	0.005
873	0.004
873	0.003
874	0.002
874	0.001
875	0
875	-0.001
875	-0.001
876	-0.002
876	-0.003
877	-0.004
877	-0.004
878	-0.005
878	-0.005
878	-0.005
879	-0.005
879	-0.004
880	-0.004
880	-0.004
881	-0.003
881	-0.002
881	-0.001
882	0
882	0.001
883	0.003
883	0.004
884	0.005
884	0.005
884	0.006
885	0.006
885	0.007
886	0.007
886	0.007
887	0.007
887	0.007
887	0.007
888	0.007
888	0.008
889	0.008
889	0.009
890	0.01
890	0.01
890	0.011
891	0.011
891	0.011
892	0.011
892	0.011
893	0.011
893	0.01
893	0.009
894	0.009
894	0.007
895	0.006
895	0.005
895	0.004
896	0.003
896	0.002
897	0.001
897	-0
898	-0.001
898	-0.001
898	-0.002
899	-0.003
899	-0.003
900	-0.004
900	-0.004
901	-0.004
901	-0.004
901	-0.004
902	-0.004
902	-0.004
903	-0.005
903	-0.005
904	-0.005
904	-0.006
904	-0.006
905	-0.007
905	-0.007
906	-0.008
906	-0.009
907	-0.009
907	-0.01
907	-0.01
908	-0.01
908	-0.01
909	-0.009
909	-0.008
910	-0.008
910	-0.007
910	-0.006
911	-0.005
911	-0.005
912	-0.004
912	-0.004
913	-0.004
913	-0.004
913	-0.004
914	-0.005
914	-0.005
915	-0.006
915	-0.007
916	-0.008
916	-0.008
916	-0.009
917	-0.009
917	-0.009
918	-0.009
918	-0.009
918	-0.009
919	-0.008
919	-0.007
920	-0.006
920	-0.005
921	-0.005
921	-0.004
921	-0.004
922	-0.004
922	-0.003
923	-0.003
923	-0.003
924	-0.004
924	-0.004
924	-0.004
925	-0.005
925	-0.005
926	-0.005
926	-0.006
927	-0.006
927	-0.007
927	-0.007
928	-0.007
928	-0.008
929	-0.008
929	-0.008
930	-0.008
930	-0.008
930	-0.009
931	-0.009
931	-0.01
932	-0.01
932	-0.01
933	-0.01
933	-0.01
933	-0.01
934	-0.01
934	-0.011
935	-0.011
935	-0.011
935	-0.011
936	-0.011
936	-0.011
937	-0.011
937	-0.012
938	-0.012
938	-0.012
938	-0.013
939	-0.013
939	-0.013
940	-0.013
940	-0.012
941	-0.012
941	-0.011
941	-0.01
942	-0.01
942	-0.009
943	-0.008
943	-0.008
944	-0.008
944	-0.008
944	-0.008
945	-0.009
945	-0.009
946	-0.009
946	-0.01
946	-0.01
947	-0.01
947	-0.01
948	-0.01
948	-0.009
949	-0.009
949	-0.008
949	-0.007
950	-0.007
950	-0.006
951	-0.006
951	-0.006
952	-0.006
952	-0.006
952	-0.006
953	-0.006
953	-0.006
954	-0.007
954	-0.007
955	-0.007
955	-0.008
955	-0.008
956	-0.008
956	-0.009
957	-0.01
957	-0.01
957	-0.011
958	-0.012
958	-0.013
959	-0.014
959	-0.014
960	-0.015
960	-0.015
960	-0.016
961	-0.016
961	-0.017
962	-0.017
962	-0.016
963	-0.016
963	-0.015
963	-0.014
964	-0.013
964	-0.012
965	-0.011
965	-0.01
966	-0.009
966	-0.008
966	-0.007
967	-0.007
967	-0.006
968	-0.006
968	-0.006
968	-0.006
969	-0.006
969	-0.006
970	-0.006
970	-0.006
971	-0.006
971	-0.006
971	-0.007
972	-0.007
972	-0.007
973	-0.008
973	-0.008
974	-0.009
974	-0.009
974	-0.01
975	-0.011
975	-0.012
976	-0.013
976	-0.014
976	-0.015
977	-0.016
977	-0.017
978	-0.018
978	-0.018
979	-0.019
979	-0.019
979	-0.019
980	-0.019
980	-0.019
981	-0.018
981	-0.018
982	-0.017
982	-0.016
982	-0.015
983	-0.014
983	-0.013
984	-0.012
984	-0.011
984	-0.011
985	-0.01
985	-0.01
986	-0.01
986	-0.011
987	-0.011
987	-0.012
987	-0.013
988	-0.014
988	-0.015
989	-0.017
989	-0.018
990	-0.02
990	-0.022
990	-0.023
991	-0.025
991	-0.026
992	-0.028
992	-0.029
992	-0.03
993	-0.031
993	-0.032
994	-0.033
994	-0.034
995	-0.034
995	-0.034
995	-0.035
996	-0.035
996	-0.035
997	-0.035
997	-0.034
997	-0.034
998	-0.033
998	-0.032
999	-0.03
999	-0.029
1000	-0.028
1000	-0.026
1000	-0.025
1001	-0.023
1001	-0.022
1002	-0.02
1002	-0.019
1003	-0.018
1003	-0.017
1003	-0.016
1004	-0.016
1004	-0.016
1005	-0.015
1005	-0.015
1005	-0.015
1006	-0.015
1006	-0.015
1007	-0.015
1007	-0.015
1008	-0.015
1008	-0.015
1008	-0.015
1009	-0.015
1009	-0.015
1010	-0.014
1010	-0.014
1010	-0.014
1011	-0.014
1011	-0.014
1012	-0.015
1012	-0.015
1013	-0.015
1013	-0.016
1013	-0.017
1014	-0.018
1014	-0.019
1015	-0.02
1015	-0.021
1016	-0.022
1016	-0.022
1016	-0.023
1017	-0.024
1017	-0.024
1018	-0.024
1018	-0.024
1018	-0.024
1019	-0.024
1019	-0.023
1020	-0.023
1020	-0.023
1021	-0.023
1021	-0.023
1021	-0.023
1022	-0.024
1022	-0.024
1023	-0.024
1023	-0.025
1023	-0.026
1024	-0.026
1024	-0.027
1025	-0.028
1025	-0.029
1026	-0.03
1026	-0.03
1026	-0.031
1027	-0.031
1027	-0.032
1028	-0.032
1028	-0.031
1028	-0.031
1029	-0.031
1029	-0.031
1030	-0.031
1030	-0.031
1031	-0.031
1031	-0.03
1031	-0.03
1032	-0.03
1032	-0.031
1033	-0.031
1033	-0.031
1033	-0.032
1034	-0.033
1034	-0.034
1035	-0.035
1035	-0.036
1036	-0.037
1036	-0.038
1036	-0.038
1037	-0.039
1037	-0.039
1038	-0.04
1038	-0.04
1039	-0.04
1039	-0.04
1039	-0.04
1040	-0.04
1040	-0.04
1041	-0.04
1041	-0.04
1041	-0.04
1042	-0.041
1042	-0.041
1043	-0.042
1043	-0.042
1044	-0.042
1044	-0.042
1044	-0.043
1045	-0.043
1045	-0.043
1046	-0.043
1046	-0.042
1046	-0.041
1047	-0.04
1047	-0.04
1048	-0.039
1048	-0.038
1049	-0.038
1049	-0.037
1049	-0.037
1050	-0.037
1050	-0.037
1051	-0.037
1051	-0.037
1051	-0.037
1052	-0.037
1052	-0.037
1053	-0.037
1053	-0.037
1053	-0.036
1054	-0.036
1054	-0.036
1055	-0.035
1055	-0.035
1056	-0.035
1056	-0.035
1056	-0.035
1057	-0.036
1057	-0.036
1058	-0.037
1058	-0.037
1058	-0.038
1059	-0.038
1059	-0.039
1060	-0.04
1060	-0.04
1061	-0.041
1061	-0.041
1061	-0.041
1062	-0.042
1062	-0.042
1063	-0.043
1063	-0.044
1063	-0.045
1064	-0.045
1064	-0.046
1065	-0.047
1065	-0.048
1066	-0.048
1066	-0.049
1066	-0.05
1067	-0.051
1067	-0.051
1068	-0.052
1068	-0.052
1068	-0.053
1069	-0.054
1069	-0.054
1070	-0.055
1070	-0.056
1071	-0.056
1071	-0.056
1071	-0.057
1072	-0.057
1072	-0.058
1073	-0.058
1073	-0.058
1073	-0.058
1074	-0.058
1074	-0.058
1075	-0.058
1075	-0.058
1076	-0.059
1076	-0.059
1076	-0.06
1077	-0.06
1077	-0.06
1078	-0.061
1078	-0.061
1078	-0.061
1079	-0.062
1079	-0.062
1080	-0.062
1080	-0.062
1080	-0.062
1081	-0.062
1081	-0.061
1082	-0.061
1082	-0.061
1083	-0.061
1083	-0.061
1083	-0.061
1084	-0.061
1084	-0.061
1085	-0.061
1085	-0.061
1085	-0.061
1086	-0.061
1086	-0.062
1087	-0.062
1087	-0.062
1088	-0.063
1088	-0.063
1088	-0.064
1089	-0.065
1089	-0.065
1090	-0.067
1090	-0.068
1090	-0.069
1091	-0.07
1091	-0.071
1092	-0.072
1092	-0.072
1092	-0.073
1093	-0.074
1093	-0.073
1094	-0.074
1094	-0.075
1095	-0.075
1095	-0.075
1095	-0.076
1096	-0.076
1096	-0.077
1097	-0.077
1097	-0.078
1097	-0.079
1098	-0.08
1098	-0.081
1099	-0.081
1099	-0.083
1100	-0.084
1100	-0.085
1100	-0.087
1101	-0.089
1101	-0.091
1102	-0.092
1102	-0.094
1102	-0.095
1103	-0.098
1103	-0.1
1104	-0.101
1104	-0.102
1104	-0.103
1105	-0.104
1105	-0.106
1106	-0.109
1106	-0.111
1107	-0.115
1107	-0.117
1107	-0.119
1108	-0.12
1108	-0.123
1109	-0.125
1109	-0.13
1109	-0.132
1110	-0.132
1110	-0.135
1111	-0.139
1111	-0.132
