Data from 17c-100ul-ns-20ul-nr-full-exp'4ul'bp_Absorbance__341__00811.txt Node

Date: Mon Jan 15 09:51:40 CET 2024
User: Marek
Spectrometer: MAYP115816
Trigger mode: 0
Integration Time (sec): 2.000000E-1
Scans to average: 10
Electric dark correction enabled: true
Nonlinearity correction enabled: true
Boxcar width: 5
XAxis mode: Wavelengths
Number of Pixels in Spectrum: 2068
>>>>>Begin Spectral Data<<<<<
199	-0.463
199	-0.439
200	-0.365
200	-0.306
201	-0.271
201	-0.25
202	-0.225
202	-0.221
203	-0.213
203	-0.211
204	-0.195
204	-0.182
205	-0.168
205	-0.164
205	-0.167
206	-0.168
206	-0.171
207	-0.17
207	-0.17
208	-0.174
208	-0.172
209	-0.173
209	-0.177
210	-0.178
210	-0.178
211	-0.177
211	-0.178
212	-0.179
212	-0.179
213	-0.179
213	-0.178
213	-0.179
214	-0.179
214	-0.178
215	-0.177
215	-0.181
216	-0.182
216	-0.184
217	-0.181
217	-0.181
218	-0.183
218	-0.18
219	-0.175
219	-0.177
220	-0.175
220	-0.176
221	-0.173
221	-0.172
221	-0.167
222	-0.165
222	-0.162
223	-0.155
223	-0.155
224	-0.155
224	-0.146
225	-0.137
225	-0.128
226	-0.121
226	-0.11
227	-0.098
227	-0.089
228	-0.074
228	-0.061
229	-0.044
229	-0.02
229	-0
230	0.022
230	0.046
231	0.072
231	0.097
232	0.12
232	0.146
233	0.169
233	0.194
234	0.215
234	0.234
235	0.252
235	0.268
236	0.284
236	0.299
236	0.312
237	0.325
237	0.335
238	0.345
238	0.354
239	0.362
239	0.369
240	0.375
240	0.379
241	0.383
241	0.387
242	0.39
242	0.393
243	0.396
243	0.398
243	0.401
244	0.403
244	0.405
245	0.406
245	0.408
246	0.41
246	0.411
247	0.412
247	0.414
248	0.415
248	0.416
249	0.417
249	0.418
250	0.419
250	0.419
250	0.421
251	0.421
251	0.422
252	0.423
252	0.423
253	0.424
253	0.424
254	0.425
254	0.425
255	0.425
255	0.425
256	0.425
256	0.425
257	0.425
257	0.425
258	0.425
258	0.425
258	0.425
259	0.425
259	0.424
260	0.424
260	0.424
261	0.423
261	0.423
262	0.422
262	0.421
263	0.421
263	0.42
264	0.419
264	0.418
265	0.417
265	0.416
265	0.415
266	0.414
266	0.412
267	0.411
267	0.41
268	0.408
268	0.407
269	0.405
269	0.404
270	0.402
270	0.401
271	0.399
271	0.397
272	0.396
272	0.394
272	0.393
273	0.391
273	0.389
274	0.388
274	0.386
275	0.384
275	0.382
276	0.38
276	0.379
277	0.377
277	0.375
278	0.373
278	0.372
278	0.37
279	0.368
279	0.366
280	0.364
280	0.362
281	0.36
281	0.358
282	0.356
282	0.354
283	0.352
283	0.35
284	0.348
284	0.346
285	0.345
285	0.343
285	0.341
286	0.339
286	0.338
287	0.336
287	0.335
288	0.333
288	0.332
289	0.33
289	0.329
290	0.327
290	0.326
291	0.325
291	0.323
292	0.322
292	0.321
292	0.319
293	0.318
293	0.317
294	0.315
294	0.314
295	0.313
295	0.312
296	0.311
296	0.31
297	0.309
297	0.308
298	0.307
298	0.305
298	0.304
299	0.303
299	0.302
300	0.302
300	0.301
301	0.3
301	0.299
302	0.298
302	0.297
303	0.296
303	0.295
304	0.294
304	0.293
305	0.293
305	0.292
305	0.291
306	0.29
306	0.289
307	0.288
307	0.287
308	0.286
308	0.285
309	0.284
309	0.284
310	0.283
310	0.282
311	0.281
311	0.28
311	0.279
312	0.279
312	0.278
313	0.277
313	0.276
314	0.276
314	0.275
315	0.274
315	0.273
316	0.272
316	0.272
317	0.271
317	0.27
318	0.269
318	0.268
318	0.268
319	0.267
319	0.266
320	0.265
320	0.265
321	0.264
321	0.263
322	0.262
322	0.261
323	0.26
323	0.26
324	0.259
324	0.258
324	0.258
325	0.257
325	0.256
326	0.255
326	0.255
327	0.254
327	0.254
328	0.253
328	0.252
329	0.251
329	0.251
330	0.25
330	0.249
330	0.249
331	0.248
331	0.247
332	0.247
332	0.246
333	0.245
333	0.245
334	0.244
334	0.243
335	0.243
335	0.242
336	0.242
336	0.241
336	0.24
337	0.24
337	0.239
338	0.238
338	0.238
339	0.237
339	0.237
340	0.236
340	0.236
341	0.235
341	0.235
342	0.234
342	0.234
342	0.233
343	0.233
343	0.233
344	0.232
344	0.232
345	0.232
345	0.231
346	0.231
346	0.23
347	0.23
347	0.23
348	0.23
348	0.229
348	0.229
349	0.229
349	0.228
350	0.228
350	0.228
351	0.228
351	0.228
352	0.227
352	0.227
353	0.227
353	0.227
354	0.226
354	0.226
354	0.226
355	0.226
355	0.225
356	0.225
356	0.225
357	0.226
357	0.225
358	0.225
358	0.225
359	0.225
359	0.225
360	0.224
360	0.224
360	0.224
361	0.223
361	0.223
362	0.223
362	0.222
363	0.222
363	0.222
364	0.222
364	0.222
365	0.221
365	0.221
366	0.221
366	0.221
366	0.221
367	0.221
367	0.221
368	0.22
368	0.22
369	0.22
369	0.22
370	0.22
370	0.22
371	0.219
371	0.219
372	0.219
372	0.219
372	0.219
373	0.219
373	0.219
374	0.219
374	0.219
375	0.218
375	0.218
376	0.218
376	0.217
377	0.217
377	0.217
378	0.216
378	0.216
378	0.216
379	0.216
379	0.215
380	0.215
380	0.215
381	0.215
381	0.215
382	0.215
382	0.215
383	0.214
383	0.214
383	0.214
384	0.213
384	0.213
385	0.213
385	0.213
386	0.212
386	0.212
387	0.212
387	0.212
388	0.211
388	0.211
389	0.211
389	0.211
389	0.211
390	0.21
390	0.21
391	0.21
391	0.21
392	0.21
392	0.21
393	0.209
393	0.209
394	0.209
394	0.209
394	0.208
395	0.208
395	0.207
396	0.207
396	0.207
397	0.207
397	0.207
398	0.206
398	0.206
399	0.206
399	0.206
400	0.205
400	0.205
400	0.205
401	0.205
401	0.204
402	0.204
402	0.203
403	0.203
403	0.203
404	0.203
404	0.203
405	0.202
405	0.202
405	0.202
406	0.202
406	0.202
407	0.202
407	0.201
408	0.201
408	0.201
409	0.201
409	0.201
410	0.201
410	0.201
411	0.2
411	0.2
411	0.2
412	0.2
412	0.199
413	0.199
413	0.199
414	0.198
414	0.198
415	0.197
415	0.197
416	0.197
416	0.197
416	0.196
417	0.196
417	0.196
418	0.196
418	0.196
419	0.196
419	0.196
420	0.196
420	0.196
421	0.196
421	0.196
421	0.196
422	0.196
422	0.196
423	0.196
423	0.195
424	0.195
424	0.195
425	0.195
425	0.194
426	0.194
426	0.194
427	0.194
427	0.194
427	0.194
428	0.194
428	0.194
429	0.194
429	0.194
430	0.194
430	0.194
431	0.194
431	0.194
432	0.194
432	0.194
432	0.193
433	0.193
433	0.193
434	0.193
434	0.193
435	0.192
435	0.192
436	0.192
436	0.192
437	0.192
437	0.191
437	0.191
438	0.191
438	0.191
439	0.191
439	0.19
440	0.19
440	0.19
441	0.19
441	0.19
442	0.19
442	0.19
442	0.19
443	0.19
443	0.189
444	0.189
444	0.189
445	0.19
445	0.19
446	0.19
446	0.19
447	0.19
447	0.19
447	0.19
448	0.19
448	0.19
449	0.19
449	0.19
450	0.19
450	0.189
451	0.189
451	0.189
452	0.189
452	0.189
452	0.189
453	0.189
453	0.189
454	0.189
454	0.19
455	0.19
455	0.19
456	0.19
456	0.19
457	0.19
457	0.19
458	0.191
458	0.191
458	0.191
459	0.191
459	0.191
460	0.191
460	0.191
461	0.191
461	0.191
462	0.191
462	0.191
463	0.191
463	0.192
463	0.192
464	0.192
464	0.192
465	0.192
465	0.192
466	0.193
466	0.193
467	0.193
467	0.194
467	0.194
468	0.193
468	0.193
469	0.194
469	0.194
470	0.195
470	0.195
471	0.195
471	0.196
472	0.196
472	0.197
472	0.198
473	0.198
473	0.199
474	0.2
474	0.2
475	0.201
475	0.201
476	0.201
476	0.202
477	0.202
477	0.202
477	0.203
478	0.203
478	0.203
479	0.204
479	0.204
480	0.205
480	0.205
481	0.206
481	0.207
482	0.208
482	0.209
482	0.21
483	0.212
483	0.213
484	0.214
484	0.215
485	0.216
485	0.217
486	0.217
486	0.218
487	0.219
487	0.22
487	0.221
488	0.222
488	0.223
489	0.225
489	0.227
490	0.228
490	0.23
491	0.231
491	0.233
492	0.234
492	0.235
492	0.236
493	0.238
493	0.24
494	0.242
494	0.244
495	0.246
495	0.247
496	0.25
496	0.252
496	0.254
497	0.256
497	0.258
498	0.26
498	0.261
499	0.263
499	0.264
500	0.266
500	0.268
501	0.27
501	0.271
501	0.273
502	0.274
502	0.276
503	0.278
503	0.28
504	0.282
504	0.283
505	0.285
505	0.287
506	0.289
506	0.291
506	0.293
507	0.295
507	0.297
508	0.299
508	0.301
509	0.303
509	0.305
510	0.307
510	0.309
511	0.31
511	0.312
511	0.314
512	0.316
512	0.317
513	0.318
513	0.319
514	0.321
514	0.323
515	0.324
515	0.325
515	0.326
516	0.327
516	0.329
517	0.33
517	0.331
518	0.332
518	0.333
519	0.333
519	0.334
520	0.335
520	0.336
520	0.336
521	0.337
521	0.337
522	0.337
522	0.338
523	0.338
523	0.339
524	0.339
524	0.339
524	0.34
525	0.34
525	0.34
526	0.34
526	0.34
527	0.34
527	0.34
528	0.34
528	0.34
529	0.339
529	0.339
529	0.338
530	0.338
530	0.337
531	0.337
531	0.336
532	0.335
532	0.334
533	0.333
533	0.332
533	0.331
534	0.329
534	0.328
535	0.326
535	0.325
536	0.324
536	0.323
537	0.321
537	0.32
538	0.319
538	0.317
538	0.315
539	0.314
539	0.313
540	0.311
540	0.309
541	0.307
541	0.306
542	0.304
542	0.302
542	0.3
543	0.298
543	0.296
544	0.294
544	0.292
545	0.29
545	0.289
546	0.287
546	0.284
547	0.282
547	0.279
547	0.278
548	0.276
548	0.274
549	0.272
549	0.269
550	0.267
550	0.264
551	0.262
551	0.26
551	0.257
552	0.255
552	0.253
553	0.251
553	0.249
554	0.246
554	0.244
555	0.242
555	0.24
556	0.238
556	0.235
556	0.233
557	0.231
557	0.229
558	0.227
558	0.224
559	0.222
559	0.22
560	0.217
560	0.215
560	0.213
561	0.211
561	0.209
562	0.207
562	0.205
563	0.202
563	0.2
564	0.198
564	0.196
564	0.194
565	0.192
565	0.19
566	0.187
566	0.186
567	0.184
567	0.182
568	0.18
568	0.178
568	0.177
569	0.176
569	0.173
570	0.171
570	0.169
571	0.167
571	0.166
572	0.164
572	0.162
573	0.159
573	0.157
573	0.155
574	0.154
574	0.152
575	0.151
575	0.151
576	0.149
576	0.146
577	0.144
577	0.143
577	0.142
578	0.141
578	0.14
579	0.139
579	0.138
580	0.136
580	0.133
581	0.13
581	0.129
581	0.129
582	0.128
582	0.128
583	0.127
583	0.125
584	0.123
584	0.12
585	0.12
585	0.12
585	0.119
586	0.118
586	0.117
587	0.115
587	0.114
588	0.112
588	0.111
589	0.111
589	0.111
590	0.11
590	0.109
590	0.11
591	0.109
591	0.107
592	0.105
592	0.104
593	0.104
593	0.103
594	0.101
594	0.1
594	0.099
595	0.099
595	0.098
596	0.098
596	0.099
597	0.1
597	0.1
598	0.099
598	0.099
598	0.099
599	0.098
599	0.097
600	0.096
600	0.095
601	0.094
601	0.092
602	0.091
602	0.09
602	0.088
603	0.088
603	0.088
604	0.088
604	0.088
605	0.088
605	0.088
606	0.088
606	0.087
606	0.087
607	0.086
607	0.086
608	0.086
608	0.085
609	0.085
609	0.085
610	0.084
610	0.084
610	0.085
611	0.085
611	0.086
612	0.087
612	0.087
613	0.088
613	0.088
614	0.088
614	0.087
614	0.087
615	0.086
615	0.086
616	0.086
616	0.086
617	0.086
617	0.086
618	0.086
618	0.086
618	0.086
619	0.087
619	0.089
620	0.09
620	0.091
621	0.091
621	0.092
622	0.092
622	0.092
622	0.092
623	0.092
623	0.093
624	0.094
624	0.093
625	0.093
625	0.094
626	0.094
626	0.095
626	0.096
627	0.097
627	0.098
628	0.099
628	0.1
629	0.101
629	0.102
630	0.103
630	0.104
630	0.106
631	0.107
631	0.108
632	0.109
632	0.11
633	0.112
633	0.113
634	0.115
634	0.117
634	0.119
635	0.12
635	0.12
636	0.121
636	0.122
637	0.123
637	0.124
638	0.126
638	0.127
638	0.128
639	0.129
639	0.131
640	0.132
640	0.134
641	0.135
641	0.137
642	0.139
642	0.14
642	0.142
643	0.144
643	0.145
644	0.147
644	0.149
645	0.15
645	0.152
646	0.154
646	0.157
646	0.159
647	0.161
647	0.163
648	0.165
648	0.167
649	0.17
649	0.172
650	0.174
650	0.177
650	0.179
651	0.181
651	0.184
652	0.187
652	0.189
653	0.193
653	0.199
653	0.2
654	0.159
654	0.128
655	0.132
655	0.134
656	0.136
656	0.137
657	0.139
657	0.14
657	0.141
658	0.14
658	0.136
659	0.174
659	0.227
660	0.234
660	0.237
661	0.24
661	0.243
661	0.247
662	0.25
662	0.253
663	0.256
663	0.259
664	0.262
664	0.264
665	0.267
665	0.27
665	0.272
666	0.275
666	0.277
667	0.28
667	0.282
668	0.285
668	0.287
669	0.29
669	0.294
669	0.297
670	0.299
670	0.302
671	0.304
671	0.307
672	0.309
672	0.311
672	0.314
673	0.317
673	0.319
674	0.321
674	0.322
675	0.324
675	0.326
676	0.328
676	0.329
676	0.33
677	0.331
677	0.332
678	0.332
678	0.332
679	0.333
679	0.333
680	0.334
680	0.335
680	0.335
681	0.336
681	0.337
682	0.338
682	0.338
683	0.34
683	0.341
684	0.341
684	0.341
684	0.342
685	0.342
685	0.343
686	0.343
686	0.343
687	0.343
687	0.343
687	0.343
688	0.342
688	0.342
689	0.342
689	0.342
690	0.341
690	0.339
691	0.339
691	0.338
691	0.337
692	0.335
692	0.334
693	0.334
693	0.333
694	0.331
694	0.33
695	0.33
695	0.33
695	0.329
696	0.328
696	0.327
697	0.326
697	0.325
698	0.324
698	0.323
698	0.321
699	0.32
699	0.318
700	0.316
700	0.314
701	0.312
701	0.309
702	0.307
702	0.304
702	0.302
703	0.299
703	0.297
704	0.295
704	0.293
705	0.291
705	0.289
705	0.287
706	0.285
706	0.283
707	0.281
707	0.279
708	0.277
708	0.276
709	0.274
709	0.271
709	0.268
710	0.266
710	0.264
711	0.262
711	0.26
712	0.258
712	0.256
713	0.254
713	0.252
713	0.25
714	0.248
714	0.246
715	0.244
715	0.242
716	0.239
716	0.237
716	0.235
717	0.233
717	0.231
718	0.229
718	0.227
719	0.225
719	0.223
720	0.221
720	0.218
720	0.215
721	0.213
721	0.21
722	0.208
722	0.205
723	0.202
723	0.2
723	0.197
724	0.195
724	0.192
725	0.19
725	0.188
726	0.186
726	0.185
727	0.183
727	0.181
727	0.179
728	0.178
728	0.176
729	0.175
729	0.173
730	0.172
730	0.17
730	0.169
731	0.167
731	0.165
732	0.164
732	0.162
733	0.16
733	0.158
734	0.156
734	0.154
734	0.152
735	0.151
735	0.149
736	0.147
736	0.146
737	0.145
737	0.143
737	0.141
738	0.138
738	0.136
739	0.134
739	0.132
740	0.129
740	0.128
741	0.126
741	0.123
741	0.121
742	0.119
742	0.117
743	0.116
743	0.115
744	0.113
744	0.112
744	0.11
745	0.108
745	0.107
746	0.105
746	0.104
747	0.103
747	0.102
748	0.1
748	0.099
748	0.097
749	0.096
749	0.096
750	0.095
750	0.094
751	0.093
751	0.092
751	0.092
752	0.091
752	0.09
753	0.089
753	0.088
754	0.087
754	0.086
754	0.085
755	0.084
755	0.083
756	0.081
756	0.079
757	0.078
757	0.078
758	0.077
758	0.076
758	0.075
759	0.074
759	0.073
760	0.072
760	0.071
761	0.071
761	0.071
761	0.071
762	0.07
762	0.07
763	0.069
763	0.068
764	0.067
764	0.066
764	0.064
765	0.063
765	0.062
766	0.061
766	0.061
767	0.06
767	0.058
768	0.057
768	0.057
768	0.057
769	0.056
769	0.056
770	0.055
770	0.055
771	0.054
771	0.053
771	0.052
772	0.051
772	0.051
773	0.05
773	0.049
774	0.048
774	0.048
775	0.047
775	0.046
775	0.045
776	0.044
776	0.043
777	0.042
777	0.041
778	0.04
778	0.04
778	0.039
779	0.039
779	0.038
780	0.037
780	0.036
781	0.036
781	0.035
781	0.034
782	0.032
782	0.031
783	0.03
783	0.029
784	0.028
784	0.026
784	0.026
785	0.025
785	0.024
786	0.024
786	0.024
787	0.025
787	0.025
788	0.024
788	0.025
788	0.025
789	0.025
789	0.025
790	0.025
790	0.025
791	0.025
791	0.025
791	0.025
792	0.025
792	0.024
793	0.024
793	0.023
794	0.023
794	0.022
794	0.022
795	0.022
795	0.022
796	0.021
796	0.021
797	0.02
797	0.02
797	0.019
798	0.019
798	0.018
799	0.018
799	0.017
800	0.016
800	0.015
801	0.014
801	0.014
801	0.012
802	0.011
802	0.01
803	0.009
803	0.009
804	0.008
804	0.008
804	0.008
805	0.008
805	0.009
806	0.01
806	0.01
807	0.011
807	0.012
807	0.013
808	0.013
808	0.014
809	0.014
809	0.015
810	0.015
810	0.015
810	0.016
811	0.016
811	0.017
812	0.018
812	0.018
813	0.018
813	0.018
813	0.018
814	0.018
814	0.018
815	0.017
815	0.016
816	0.015
816	0.013
817	0.012
817	0.012
817	0.011
818	0.01
818	0.009
819	0.008
819	0.007
820	0.007
820	0.006
820	0.006
821	0.006
821	0.005
822	0.005
822	0.005
823	0.005
823	0.005
823	0.005
824	0.005
824	0.005
825	0.005
825	0.004
826	0.004
826	0.004
826	0.003
827	0.003
827	0.002
828	0.002
828	0.002
829	0.002
829	0.002
829	0.002
830	0.002
830	0.002
831	0.003
831	0.003
832	0.003
832	0.003
832	0.003
833	0.003
833	0.002
834	0.002
834	0.001
835	0.001
835	-0
835	-0
836	-0.001
836	-0.001
837	-0.002
837	-0.001
838	-0.001
838	-0.001
839	-0.001
839	-0.001
839	-0
840	0
840	0
841	0.001
841	0.001
842	0.002
842	0.002
842	0.002
843	0.002
843	0.002
844	0.002
844	0.002
845	0.001
845	0.001
845	0
846	-0
846	-0.001
847	-0.001
847	-0.002
848	-0.002
848	-0.003
848	-0.004
849	-0.004
849	-0.005
850	-0.005
850	-0.006
851	-0.006
851	-0.007
851	-0.007
852	-0.008
852	-0.008
853	-0.008
853	-0.008
854	-0.008
854	-0.008
854	-0.008
855	-0.008
855	-0.008
856	-0.008
856	-0.007
857	-0.007
857	-0.006
857	-0.006
858	-0.006
858	-0.006
859	-0.006
859	-0.006
860	-0.005
860	-0.005
860	-0.005
861	-0.005
861	-0.005
862	-0.005
862	-0.005
863	-0.006
863	-0.006
863	-0.006
864	-0.007
864	-0.007
865	-0.008
865	-0.009
866	-0.01
866	-0.01
866	-0.011
867	-0.011
867	-0.011
868	-0.011
868	-0.01
869	-0.01
869	-0.01
869	-0.009
870	-0.009
870	-0.009
871	-0.009
871	-0.009
872	-0.009
872	-0.01
872	-0.011
873	-0.012
873	-0.013
874	-0.014
874	-0.015
875	-0.016
875	-0.017
875	-0.017
876	-0.018
876	-0.019
877	-0.02
877	-0.02
878	-0.021
878	-0.021
878	-0.021
879	-0.021
879	-0.021
880	-0.02
880	-0.02
881	-0.019
881	-0.018
881	-0.017
882	-0.015
882	-0.014
883	-0.012
883	-0.011
884	-0.01
884	-0.009
884	-0.008
885	-0.008
885	-0.007
886	-0.007
886	-0.006
887	-0.006
887	-0.006
887	-0.006
888	-0.006
888	-0.006
889	-0.005
889	-0.005
890	-0.004
890	-0.004
890	-0.003
891	-0.003
891	-0.002
892	-0.002
892	-0.003
893	-0.003
893	-0.004
893	-0.004
894	-0.005
894	-0.007
895	-0.008
895	-0.009
895	-0.01
896	-0.011
896	-0.013
897	-0.014
897	-0.014
898	-0.015
898	-0.016
898	-0.016
899	-0.017
899	-0.017
900	-0.018
900	-0.018
901	-0.018
901	-0.018
901	-0.018
902	-0.018
902	-0.019
903	-0.019
903	-0.019
904	-0.02
904	-0.02
904	-0.02
905	-0.021
905	-0.021
906	-0.022
906	-0.022
907	-0.023
907	-0.023
907	-0.023
908	-0.023
908	-0.023
909	-0.022
909	-0.022
910	-0.021
910	-0.02
910	-0.019
911	-0.019
911	-0.018
912	-0.017
912	-0.017
913	-0.017
913	-0.017
913	-0.017
914	-0.018
914	-0.018
915	-0.019
915	-0.02
916	-0.021
916	-0.021
916	-0.022
917	-0.022
917	-0.022
918	-0.022
918	-0.022
918	-0.021
919	-0.021
919	-0.02
920	-0.019
920	-0.018
921	-0.018
921	-0.017
921	-0.017
922	-0.017
922	-0.016
923	-0.016
923	-0.016
924	-0.017
924	-0.017
924	-0.017
925	-0.018
925	-0.018
926	-0.018
926	-0.018
927	-0.018
927	-0.019
927	-0.019
928	-0.019
928	-0.02
929	-0.02
929	-0.02
930	-0.02
930	-0.02
930	-0.021
931	-0.021
931	-0.021
932	-0.022
932	-0.022
933	-0.022
933	-0.022
933	-0.022
934	-0.022
934	-0.022
935	-0.022
935	-0.023
935	-0.023
936	-0.023
936	-0.023
937	-0.023
937	-0.023
938	-0.023
938	-0.024
938	-0.024
939	-0.024
939	-0.024
940	-0.023
940	-0.023
941	-0.022
941	-0.022
941	-0.021
942	-0.02
942	-0.02
943	-0.019
943	-0.019
944	-0.019
944	-0.019
944	-0.019
945	-0.019
945	-0.019
946	-0.02
946	-0.02
946	-0.02
947	-0.02
947	-0.02
948	-0.02
948	-0.02
949	-0.019
949	-0.019
949	-0.018
950	-0.018
950	-0.017
951	-0.017
951	-0.017
952	-0.017
952	-0.017
952	-0.017
953	-0.017
953	-0.017
954	-0.017
954	-0.018
955	-0.018
955	-0.018
955	-0.019
956	-0.019
956	-0.019
957	-0.02
957	-0.021
957	-0.021
958	-0.022
958	-0.023
959	-0.024
959	-0.024
960	-0.025
960	-0.025
960	-0.026
961	-0.026
961	-0.026
962	-0.026
962	-0.026
963	-0.025
963	-0.024
963	-0.023
964	-0.023
964	-0.022
965	-0.021
965	-0.02
966	-0.019
966	-0.018
966	-0.017
967	-0.016
967	-0.015
968	-0.015
968	-0.015
968	-0.015
969	-0.015
969	-0.016
970	-0.016
970	-0.016
971	-0.016
971	-0.016
971	-0.017
972	-0.017
972	-0.017
973	-0.018
973	-0.018
974	-0.019
974	-0.019
974	-0.02
975	-0.021
975	-0.021
976	-0.022
976	-0.023
976	-0.024
977	-0.025
977	-0.026
978	-0.027
978	-0.027
979	-0.028
979	-0.028
979	-0.028
980	-0.028
980	-0.028
981	-0.027
981	-0.026
982	-0.026
982	-0.025
982	-0.024
983	-0.023
983	-0.022
984	-0.021
984	-0.02
984	-0.019
985	-0.019
985	-0.019
986	-0.019
986	-0.019
987	-0.02
987	-0.02
987	-0.021
988	-0.022
988	-0.024
989	-0.025
989	-0.027
990	-0.029
990	-0.03
990	-0.032
991	-0.033
991	-0.034
992	-0.036
992	-0.037
992	-0.038
993	-0.039
993	-0.04
994	-0.041
994	-0.042
995	-0.042
995	-0.043
995	-0.043
996	-0.043
996	-0.043
997	-0.043
997	-0.043
997	-0.042
998	-0.041
998	-0.04
999	-0.039
999	-0.038
1000	-0.036
1000	-0.035
1000	-0.034
1001	-0.032
1001	-0.031
1002	-0.03
1002	-0.028
1003	-0.027
1003	-0.026
1003	-0.026
1004	-0.025
1004	-0.024
1005	-0.024
1005	-0.024
1005	-0.024
1006	-0.024
1006	-0.024
1007	-0.024
1007	-0.024
1008	-0.024
1008	-0.024
1008	-0.024
1009	-0.024
1009	-0.023
1010	-0.023
1010	-0.023
1010	-0.023
1011	-0.022
1011	-0.023
1012	-0.023
1012	-0.023
1013	-0.023
1013	-0.024
1013	-0.025
1014	-0.026
1014	-0.027
1015	-0.027
1015	-0.028
1016	-0.029
1016	-0.03
1016	-0.031
1017	-0.031
1017	-0.031
1018	-0.031
1018	-0.031
1018	-0.031
1019	-0.031
1019	-0.031
1020	-0.031
1020	-0.031
1021	-0.03
1021	-0.03
1021	-0.03
1022	-0.031
1022	-0.031
1023	-0.031
1023	-0.032
1023	-0.033
1024	-0.034
1024	-0.034
1025	-0.035
1025	-0.036
1026	-0.037
1026	-0.038
1026	-0.038
1027	-0.039
1027	-0.039
1028	-0.039
1028	-0.04
1028	-0.04
1029	-0.04
1029	-0.039
1030	-0.039
1030	-0.039
1031	-0.039
1031	-0.039
1031	-0.039
1032	-0.039
1032	-0.039
1033	-0.039
1033	-0.04
1033	-0.041
1034	-0.042
1034	-0.043
1035	-0.044
1035	-0.045
1036	-0.046
1036	-0.046
1036	-0.047
1037	-0.048
1037	-0.048
1038	-0.049
1038	-0.049
1039	-0.049
1039	-0.049
1039	-0.048
1040	-0.048
1040	-0.048
1041	-0.048
1041	-0.048
1041	-0.048
1042	-0.049
1042	-0.049
1043	-0.049
1043	-0.049
1044	-0.049
1044	-0.05
1044	-0.05
1045	-0.05
1045	-0.05
1046	-0.05
1046	-0.049
1046	-0.049
1047	-0.048
1047	-0.047
1048	-0.046
1048	-0.046
1049	-0.045
1049	-0.045
1049	-0.045
1050	-0.044
1050	-0.044
1051	-0.045
1051	-0.045
1051	-0.045
1052	-0.044
1052	-0.044
1053	-0.044
1053	-0.044
1053	-0.044
1054	-0.043
1054	-0.043
1055	-0.042
1055	-0.042
1056	-0.042
1056	-0.043
1056	-0.043
1057	-0.044
1057	-0.044
1058	-0.044
1058	-0.045
1058	-0.045
1059	-0.046
1059	-0.046
1060	-0.046
1060	-0.047
1061	-0.047
1061	-0.048
1061	-0.048
1062	-0.048
1062	-0.049
1063	-0.05
1063	-0.051
1063	-0.052
1064	-0.053
1064	-0.053
1065	-0.054
1065	-0.055
1066	-0.056
1066	-0.056
1066	-0.057
1067	-0.058
1067	-0.058
1068	-0.059
1068	-0.059
1068	-0.06
1069	-0.061
1069	-0.061
1070	-0.062
1070	-0.062
1071	-0.063
1071	-0.063
1071	-0.064
1072	-0.065
1072	-0.065
1073	-0.065
1073	-0.065
1073	-0.065
1074	-0.065
1074	-0.064
1075	-0.065
1075	-0.065
1076	-0.065
1076	-0.065
1076	-0.065
1077	-0.066
1077	-0.066
1078	-0.067
1078	-0.066
1078	-0.067
1079	-0.067
1079	-0.067
1080	-0.067
1080	-0.067
1080	-0.067
1081	-0.067
1081	-0.067
1082	-0.066
1082	-0.067
1083	-0.067
1083	-0.067
1083	-0.066
1084	-0.067
1084	-0.066
1085	-0.066
1085	-0.066
1085	-0.066
1086	-0.066
1086	-0.067
1087	-0.067
1087	-0.067
1088	-0.067
1088	-0.068
1088	-0.069
1089	-0.07
1089	-0.071
1090	-0.072
1090	-0.073
1090	-0.074
1091	-0.075
1091	-0.075
1092	-0.077
1092	-0.078
1092	-0.079
1093	-0.08
1093	-0.08
1094	-0.08
1094	-0.08
1095	-0.081
1095	-0.082
1095	-0.082
1096	-0.083
1096	-0.084
1097	-0.083
1097	-0.085
1097	-0.085
1098	-0.086
1098	-0.087
1099	-0.089
1099	-0.089
1100	-0.09
1100	-0.091
1100	-0.093
1101	-0.095
1101	-0.097
1102	-0.098
1102	-0.099
1102	-0.1
1103	-0.103
1103	-0.104
1104	-0.105
1104	-0.106
1104	-0.107
1105	-0.108
1105	-0.11
1106	-0.112
1106	-0.115
1107	-0.118
1107	-0.12
1107	-0.122
1108	-0.123
1108	-0.125
1109	-0.127
1109	-0.132
1109	-0.134
1110	-0.134
1110	-0.136
1111	-0.14
1111	-0.133
