Data from 17c-100ul-ns-20ul-nr-full-exp'4ul'bp_Absorbance__814__01284.txt Node

Date: Mon Jan 15 10:07:26 CET 2024
User: Marek
Spectrometer: MAYP115816
Trigger mode: 0
Integration Time (sec): 2.000000E-1
Scans to average: 10
Electric dark correction enabled: true
Nonlinearity correction enabled: true
Boxcar width: 5
XAxis mode: Wavelengths
Number of Pixels in Spectrum: 2068
>>>>>Begin Spectral Data<<<<<
199	-0.505
199	-0.474
200	-0.399
200	-0.341
201	-0.303
201	-0.281
202	-0.258
202	-0.254
203	-0.248
203	-0.245
204	-0.228
204	-0.214
205	-0.2
205	-0.194
205	-0.197
206	-0.197
206	-0.2
207	-0.198
207	-0.197
208	-0.199
208	-0.197
209	-0.196
209	-0.201
210	-0.204
210	-0.205
211	-0.204
211	-0.206
212	-0.208
212	-0.209
213	-0.21
213	-0.209
213	-0.212
214	-0.213
214	-0.214
215	-0.212
215	-0.216
216	-0.218
216	-0.221
217	-0.219
217	-0.22
218	-0.22
218	-0.217
219	-0.213
219	-0.214
220	-0.212
220	-0.212
221	-0.211
221	-0.21
221	-0.206
222	-0.204
222	-0.201
223	-0.195
223	-0.197
224	-0.196
224	-0.187
225	-0.179
225	-0.172
226	-0.165
226	-0.156
227	-0.145
227	-0.136
228	-0.121
228	-0.11
229	-0.092
229	-0.07
229	-0.052
230	-0.031
230	-0.009
231	0.016
231	0.039
232	0.059
232	0.082
233	0.104
233	0.126
234	0.144
234	0.162
235	0.177
235	0.191
236	0.204
236	0.218
236	0.229
237	0.24
237	0.249
238	0.257
238	0.264
239	0.271
239	0.276
240	0.281
240	0.285
241	0.289
241	0.291
242	0.294
242	0.296
243	0.299
243	0.301
243	0.302
244	0.304
244	0.305
245	0.307
245	0.308
246	0.309
246	0.31
247	0.311
247	0.312
248	0.313
248	0.314
249	0.315
249	0.315
250	0.316
250	0.317
250	0.318
251	0.318
251	0.319
252	0.319
252	0.32
253	0.32
253	0.32
254	0.32
254	0.321
255	0.321
255	0.321
256	0.322
256	0.322
257	0.322
257	0.322
258	0.322
258	0.322
258	0.322
259	0.322
259	0.322
260	0.322
260	0.321
261	0.321
261	0.32
262	0.32
262	0.319
263	0.318
263	0.318
264	0.317
264	0.316
265	0.316
265	0.315
265	0.314
266	0.313
266	0.312
267	0.311
267	0.311
268	0.31
268	0.309
269	0.307
269	0.306
270	0.305
270	0.304
271	0.302
271	0.301
272	0.3
272	0.299
272	0.298
273	0.296
273	0.295
274	0.294
274	0.292
275	0.291
275	0.29
276	0.288
276	0.287
277	0.286
277	0.284
278	0.283
278	0.282
278	0.281
279	0.279
279	0.277
280	0.276
280	0.275
281	0.273
281	0.272
282	0.27
282	0.269
283	0.267
283	0.266
284	0.264
284	0.263
285	0.262
285	0.26
285	0.259
286	0.258
286	0.257
287	0.256
287	0.255
288	0.254
288	0.253
289	0.252
289	0.251
290	0.25
290	0.249
291	0.248
291	0.247
292	0.246
292	0.245
292	0.244
293	0.243
293	0.242
294	0.242
294	0.241
295	0.24
295	0.239
296	0.239
296	0.238
297	0.238
297	0.237
298	0.236
298	0.236
298	0.235
299	0.234
299	0.234
300	0.233
300	0.233
301	0.232
301	0.231
302	0.231
302	0.23
303	0.23
303	0.229
304	0.229
304	0.228
305	0.228
305	0.227
305	0.227
306	0.226
306	0.226
307	0.225
307	0.224
308	0.224
308	0.223
309	0.223
309	0.222
310	0.222
310	0.221
311	0.221
311	0.22
311	0.22
312	0.219
312	0.219
313	0.218
313	0.218
314	0.217
314	0.216
315	0.216
315	0.215
316	0.215
316	0.214
317	0.214
317	0.213
318	0.213
318	0.212
318	0.212
319	0.211
319	0.211
320	0.211
320	0.21
321	0.209
321	0.209
322	0.208
322	0.208
323	0.207
323	0.207
324	0.206
324	0.206
324	0.205
325	0.205
325	0.204
326	0.204
326	0.204
327	0.203
327	0.202
328	0.202
328	0.202
329	0.201
329	0.201
330	0.2
330	0.2
330	0.199
331	0.199
331	0.198
332	0.198
332	0.197
333	0.197
333	0.196
334	0.196
334	0.195
335	0.195
335	0.194
336	0.194
336	0.193
336	0.193
337	0.193
337	0.192
338	0.192
338	0.191
339	0.191
339	0.191
340	0.19
340	0.19
341	0.19
341	0.189
342	0.189
342	0.188
342	0.188
343	0.188
343	0.187
344	0.187
344	0.187
345	0.186
345	0.186
346	0.186
346	0.185
347	0.185
347	0.185
348	0.185
348	0.185
348	0.184
349	0.184
349	0.184
350	0.184
350	0.184
351	0.183
351	0.183
352	0.183
352	0.183
353	0.183
353	0.183
354	0.182
354	0.182
354	0.182
355	0.182
355	0.182
356	0.182
356	0.182
357	0.181
357	0.181
358	0.181
358	0.181
359	0.181
359	0.181
360	0.18
360	0.18
360	0.18
361	0.18
361	0.179
362	0.179
362	0.179
363	0.179
363	0.179
364	0.179
364	0.179
365	0.179
365	0.179
366	0.179
366	0.179
366	0.179
367	0.179
367	0.179
368	0.179
368	0.179
369	0.179
369	0.178
370	0.178
370	0.178
371	0.178
371	0.178
372	0.178
372	0.178
372	0.178
373	0.178
373	0.178
374	0.178
374	0.178
375	0.178
375	0.177
376	0.177
376	0.177
377	0.177
377	0.177
378	0.177
378	0.177
378	0.177
379	0.176
379	0.176
380	0.176
380	0.176
381	0.176
381	0.176
382	0.176
382	0.176
383	0.176
383	0.176
383	0.175
384	0.175
384	0.175
385	0.175
385	0.174
386	0.174
386	0.174
387	0.174
387	0.174
388	0.174
388	0.174
389	0.174
389	0.173
389	0.173
390	0.173
390	0.173
391	0.173
391	0.173
392	0.173
392	0.173
393	0.173
393	0.173
394	0.173
394	0.173
394	0.173
395	0.172
395	0.172
396	0.172
396	0.172
397	0.172
397	0.171
398	0.171
398	0.171
399	0.171
399	0.171
400	0.171
400	0.171
400	0.17
401	0.17
401	0.17
402	0.169
402	0.169
403	0.169
403	0.169
404	0.169
404	0.168
405	0.168
405	0.168
405	0.168
406	0.168
406	0.168
407	0.168
407	0.168
408	0.168
408	0.168
409	0.168
409	0.168
410	0.168
410	0.168
411	0.167
411	0.167
411	0.167
412	0.167
412	0.167
413	0.166
413	0.166
414	0.166
414	0.166
415	0.165
415	0.165
416	0.165
416	0.164
416	0.164
417	0.164
417	0.164
418	0.164
418	0.164
419	0.164
419	0.164
420	0.164
420	0.164
421	0.164
421	0.164
421	0.164
422	0.164
422	0.164
423	0.164
423	0.164
424	0.163
424	0.163
425	0.163
425	0.163
426	0.163
426	0.163
427	0.163
427	0.163
427	0.163
428	0.163
428	0.163
429	0.163
429	0.162
430	0.162
430	0.162
431	0.162
431	0.162
432	0.162
432	0.162
432	0.162
433	0.161
433	0.161
434	0.161
434	0.161
435	0.161
435	0.161
436	0.161
436	0.161
437	0.161
437	0.16
437	0.16
438	0.16
438	0.16
439	0.16
439	0.16
440	0.16
440	0.16
441	0.159
441	0.159
442	0.159
442	0.159
442	0.159
443	0.159
443	0.159
444	0.159
444	0.159
445	0.159
445	0.159
446	0.159
446	0.159
447	0.159
447	0.159
447	0.159
448	0.159
448	0.159
449	0.159
449	0.159
450	0.159
450	0.158
451	0.158
451	0.158
452	0.158
452	0.158
452	0.158
453	0.158
453	0.157
454	0.158
454	0.158
455	0.158
455	0.158
456	0.158
456	0.158
457	0.158
457	0.158
458	0.159
458	0.158
458	0.159
459	0.159
459	0.159
460	0.158
460	0.158
461	0.158
461	0.158
462	0.158
462	0.158
463	0.158
463	0.158
463	0.158
464	0.158
464	0.158
465	0.158
465	0.158
466	0.158
466	0.159
467	0.159
467	0.159
467	0.158
468	0.158
468	0.158
469	0.158
469	0.158
470	0.159
470	0.159
471	0.159
471	0.159
472	0.159
472	0.16
472	0.16
473	0.161
473	0.161
474	0.162
474	0.162
475	0.162
475	0.163
476	0.163
476	0.163
477	0.163
477	0.163
477	0.163
478	0.163
478	0.163
479	0.163
479	0.163
480	0.163
480	0.164
481	0.164
481	0.165
482	0.166
482	0.166
482	0.167
483	0.168
483	0.169
484	0.17
484	0.17
485	0.17
485	0.171
486	0.171
486	0.171
487	0.172
487	0.173
487	0.173
488	0.174
488	0.174
489	0.175
489	0.177
490	0.178
490	0.178
491	0.18
491	0.18
492	0.181
492	0.182
492	0.183
493	0.184
493	0.185
494	0.187
494	0.188
495	0.189
495	0.19
496	0.192
496	0.193
496	0.194
497	0.196
497	0.197
498	0.198
498	0.198
499	0.199
499	0.2
500	0.201
500	0.203
501	0.204
501	0.205
501	0.206
502	0.206
502	0.208
503	0.209
503	0.21
504	0.211
504	0.212
505	0.213
505	0.214
506	0.215
506	0.217
506	0.218
507	0.219
507	0.221
508	0.222
508	0.224
509	0.225
509	0.226
510	0.228
510	0.229
511	0.23
511	0.231
511	0.232
512	0.233
512	0.234
513	0.235
513	0.235
514	0.236
514	0.237
515	0.238
515	0.239
515	0.239
516	0.24
516	0.241
517	0.242
517	0.242
518	0.243
518	0.243
519	0.244
519	0.244
520	0.245
520	0.245
520	0.246
521	0.246
521	0.246
522	0.246
522	0.247
523	0.247
523	0.248
524	0.248
524	0.249
524	0.249
525	0.249
525	0.249
526	0.249
526	0.249
527	0.25
527	0.25
528	0.25
528	0.25
529	0.249
529	0.249
529	0.249
530	0.249
530	0.249
531	0.249
531	0.248
532	0.248
532	0.248
533	0.248
533	0.247
533	0.247
534	0.246
534	0.246
535	0.245
535	0.245
536	0.245
536	0.244
537	0.243
537	0.243
538	0.243
538	0.242
538	0.241
539	0.241
539	0.24
540	0.24
540	0.239
541	0.237
541	0.237
542	0.236
542	0.235
542	0.234
543	0.233
543	0.233
544	0.232
544	0.231
545	0.231
545	0.23
546	0.23
546	0.228
547	0.228
547	0.226
547	0.226
548	0.225
548	0.225
549	0.224
549	0.223
550	0.222
550	0.221
551	0.219
551	0.219
551	0.218
552	0.217
552	0.216
553	0.215
553	0.214
554	0.213
554	0.212
555	0.211
555	0.21
556	0.209
556	0.208
556	0.207
557	0.206
557	0.206
558	0.205
558	0.204
559	0.203
559	0.202
560	0.201
560	0.2
560	0.2
561	0.2
561	0.199
562	0.198
562	0.197
563	0.195
563	0.194
564	0.193
564	0.192
564	0.191
565	0.191
565	0.19
566	0.189
566	0.188
567	0.187
567	0.187
568	0.187
568	0.186
568	0.186
569	0.186
569	0.185
570	0.183
570	0.182
571	0.182
571	0.181
572	0.18
572	0.179
573	0.178
573	0.177
573	0.176
574	0.175
574	0.175
575	0.175
575	0.175
576	0.175
576	0.173
577	0.172
577	0.171
577	0.171
578	0.171
578	0.171
579	0.172
579	0.171
580	0.17
580	0.167
581	0.166
581	0.165
581	0.165
582	0.166
582	0.166
583	0.166
583	0.165
584	0.162
584	0.161
585	0.161
585	0.162
585	0.162
586	0.162
586	0.161
587	0.16
587	0.159
588	0.158
588	0.157
589	0.158
589	0.158
590	0.158
590	0.158
590	0.159
591	0.158
591	0.157
592	0.156
592	0.156
593	0.156
593	0.155
594	0.154
594	0.153
594	0.153
595	0.153
595	0.152
596	0.152
596	0.154
597	0.156
597	0.155
598	0.155
598	0.155
598	0.155
599	0.155
599	0.154
600	0.153
600	0.152
601	0.151
601	0.15
602	0.148
602	0.148
602	0.147
603	0.146
603	0.146
604	0.146
604	0.146
605	0.146
605	0.147
606	0.146
606	0.146
606	0.145
607	0.145
607	0.145
608	0.145
608	0.144
609	0.144
609	0.144
610	0.143
610	0.143
610	0.144
611	0.144
611	0.145
612	0.146
612	0.146
613	0.146
613	0.147
614	0.146
614	0.145
614	0.145
615	0.144
615	0.144
616	0.144
616	0.143
617	0.143
617	0.143
618	0.143
618	0.143
618	0.143
619	0.144
619	0.145
620	0.146
620	0.146
621	0.146
621	0.147
622	0.146
622	0.146
622	0.146
623	0.146
623	0.146
624	0.146
624	0.146
625	0.146
625	0.146
626	0.146
626	0.146
626	0.147
627	0.148
627	0.149
628	0.15
628	0.15
629	0.151
629	0.151
630	0.152
630	0.152
630	0.153
631	0.154
631	0.155
632	0.155
632	0.156
633	0.157
633	0.158
634	0.16
634	0.161
634	0.162
635	0.163
635	0.163
636	0.164
636	0.164
637	0.165
637	0.165
638	0.166
638	0.166
638	0.167
639	0.167
639	0.168
640	0.169
640	0.17
641	0.17
641	0.171
642	0.173
642	0.174
642	0.175
643	0.176
643	0.177
644	0.178
644	0.179
645	0.18
645	0.181
646	0.182
646	0.184
646	0.186
647	0.187
647	0.189
648	0.19
648	0.192
649	0.194
649	0.196
650	0.197
650	0.199
650	0.201
651	0.202
651	0.204
652	0.206
652	0.208
653	0.211
653	0.217
653	0.219
654	0.173
654	0.139
655	0.142
655	0.143
656	0.145
656	0.146
657	0.147
657	0.148
657	0.149
658	0.147
658	0.141
659	0.18
659	0.236
660	0.242
660	0.245
661	0.247
661	0.25
661	0.253
662	0.256
662	0.258
663	0.261
663	0.263
664	0.265
664	0.267
665	0.269
665	0.271
665	0.273
666	0.275
666	0.277
667	0.279
667	0.281
668	0.283
668	0.285
669	0.288
669	0.291
669	0.294
670	0.296
670	0.298
671	0.3
671	0.302
672	0.305
672	0.307
672	0.309
673	0.311
673	0.313
674	0.314
674	0.316
675	0.318
675	0.32
676	0.322
676	0.323
676	0.323
677	0.324
677	0.325
678	0.325
678	0.325
679	0.326
679	0.327
680	0.328
680	0.328
680	0.329
681	0.33
681	0.331
682	0.331
682	0.332
683	0.334
683	0.335
684	0.335
684	0.335
684	0.335
685	0.336
685	0.336
686	0.336
686	0.337
687	0.337
687	0.337
687	0.337
688	0.337
688	0.337
689	0.338
689	0.338
690	0.337
690	0.337
691	0.337
691	0.336
691	0.335
692	0.335
692	0.334
693	0.334
693	0.333
694	0.332
694	0.331
695	0.332
695	0.332
695	0.331
696	0.33
696	0.33
697	0.329
697	0.329
698	0.328
698	0.327
698	0.326
699	0.325
699	0.323
700	0.321
700	0.32
701	0.318
701	0.316
702	0.315
702	0.313
702	0.311
703	0.309
703	0.308
704	0.306
704	0.305
705	0.304
705	0.302
705	0.301
706	0.3
706	0.299
707	0.297
707	0.296
708	0.295
708	0.293
709	0.292
709	0.29
709	0.288
710	0.286
710	0.285
711	0.284
711	0.282
712	0.28
712	0.279
713	0.277
713	0.276
713	0.275
714	0.273
714	0.272
715	0.27
715	0.269
716	0.267
716	0.265
716	0.264
717	0.262
717	0.261
718	0.259
718	0.258
719	0.256
719	0.255
720	0.253
720	0.251
720	0.249
721	0.247
721	0.245
722	0.243
722	0.241
723	0.239
723	0.237
723	0.235
724	0.233
724	0.231
725	0.229
725	0.228
726	0.227
726	0.225
727	0.224
727	0.223
727	0.222
728	0.22
728	0.219
729	0.219
729	0.217
730	0.216
730	0.215
730	0.214
731	0.213
731	0.211
732	0.21
732	0.209
733	0.208
733	0.207
734	0.205
734	0.204
734	0.202
735	0.202
735	0.2
736	0.199
736	0.198
737	0.197
737	0.196
737	0.194
738	0.192
738	0.189
739	0.188
739	0.186
740	0.184
740	0.183
741	0.181
741	0.179
741	0.177
742	0.175
742	0.174
743	0.174
743	0.173
744	0.172
744	0.171
744	0.169
745	0.168
745	0.167
746	0.166
746	0.166
747	0.165
747	0.164
748	0.162
748	0.161
748	0.16
749	0.159
749	0.159
750	0.158
750	0.157
751	0.156
751	0.156
751	0.155
752	0.154
752	0.154
753	0.153
753	0.153
754	0.152
754	0.151
754	0.15
755	0.149
755	0.148
756	0.147
756	0.145
757	0.144
757	0.144
758	0.143
758	0.142
758	0.141
759	0.14
759	0.139
760	0.138
760	0.137
761	0.137
761	0.138
761	0.138
762	0.137
762	0.137
763	0.137
763	0.136
764	0.135
764	0.134
764	0.134
765	0.133
765	0.132
766	0.132
766	0.131
767	0.13
767	0.129
768	0.128
768	0.128
768	0.128
769	0.128
769	0.127
770	0.126
770	0.126
771	0.125
771	0.124
771	0.122
772	0.122
772	0.121
773	0.121
773	0.12
774	0.12
774	0.119
775	0.118
775	0.117
775	0.116
776	0.115
776	0.115
777	0.114
777	0.113
778	0.112
778	0.111
778	0.11
779	0.11
779	0.109
780	0.108
780	0.108
781	0.107
781	0.106
781	0.105
782	0.104
782	0.103
783	0.102
783	0.101
784	0.1
784	0.098
784	0.098
785	0.097
785	0.096
786	0.096
786	0.097
787	0.097
787	0.097
788	0.097
788	0.098
788	0.098
789	0.098
789	0.099
790	0.099
790	0.099
791	0.099
791	0.099
791	0.099
792	0.099
792	0.098
793	0.097
793	0.097
794	0.096
794	0.096
794	0.096
795	0.096
795	0.095
796	0.094
796	0.093
797	0.092
797	0.092
797	0.092
798	0.091
798	0.091
799	0.09
799	0.088
800	0.087
800	0.086
801	0.085
801	0.084
801	0.083
802	0.081
802	0.081
803	0.08
803	0.079
804	0.078
804	0.078
804	0.078
805	0.078
805	0.078
806	0.078
806	0.079
807	0.08
807	0.08
807	0.081
808	0.082
808	0.082
809	0.082
809	0.083
810	0.083
810	0.084
810	0.084
811	0.085
811	0.086
812	0.086
812	0.086
813	0.086
813	0.086
813	0.086
814	0.086
814	0.086
815	0.085
815	0.084
816	0.083
816	0.081
817	0.08
817	0.08
817	0.079
818	0.079
818	0.078
819	0.077
819	0.076
820	0.075
820	0.075
820	0.075
821	0.075
821	0.074
822	0.074
822	0.074
823	0.074
823	0.073
823	0.073
824	0.073
824	0.073
825	0.072
825	0.072
826	0.071
826	0.07
826	0.07
827	0.069
827	0.068
828	0.068
828	0.067
829	0.067
829	0.067
829	0.066
830	0.066
830	0.066
831	0.067
831	0.066
832	0.066
832	0.066
832	0.066
833	0.065
833	0.065
834	0.064
834	0.064
835	0.063
835	0.062
835	0.061
836	0.061
836	0.06
837	0.06
837	0.06
838	0.06
838	0.06
839	0.06
839	0.06
839	0.06
840	0.06
840	0.061
841	0.061
841	0.062
842	0.062
842	0.062
842	0.062
843	0.062
843	0.062
844	0.062
844	0.062
845	0.061
845	0.061
845	0.06
846	0.06
846	0.059
847	0.058
847	0.058
848	0.057
848	0.057
848	0.056
849	0.056
849	0.055
850	0.055
850	0.054
851	0.054
851	0.054
851	0.053
852	0.053
852	0.053
853	0.053
853	0.052
854	0.053
854	0.053
854	0.053
855	0.053
855	0.053
856	0.053
856	0.053
857	0.054
857	0.054
857	0.055
858	0.055
858	0.055
859	0.055
859	0.055
860	0.055
860	0.055
860	0.055
861	0.055
861	0.055
862	0.055
862	0.054
863	0.054
863	0.054
863	0.053
864	0.052
864	0.051
865	0.051
865	0.049
866	0.048
866	0.047
866	0.047
867	0.046
867	0.046
868	0.046
868	0.046
869	0.047
869	0.047
869	0.047
870	0.047
870	0.048
871	0.048
871	0.047
872	0.046
872	0.045
872	0.045
873	0.044
873	0.042
874	0.041
874	0.04
875	0.039
875	0.038
875	0.037
876	0.036
876	0.035
877	0.034
877	0.034
878	0.033
878	0.033
878	0.033
879	0.033
879	0.033
880	0.033
880	0.033
881	0.034
881	0.035
881	0.036
882	0.037
882	0.038
883	0.039
883	0.04
884	0.041
884	0.042
884	0.043
885	0.043
885	0.044
886	0.044
886	0.045
887	0.045
887	0.045
887	0.045
888	0.045
888	0.045
889	0.046
889	0.046
890	0.047
890	0.048
890	0.048
891	0.048
891	0.048
892	0.048
892	0.048
893	0.048
893	0.047
893	0.047
894	0.046
894	0.045
895	0.044
895	0.043
895	0.041
896	0.04
896	0.039
897	0.038
897	0.037
898	0.036
898	0.035
898	0.035
899	0.034
899	0.033
900	0.032
900	0.032
901	0.032
901	0.032
901	0.032
902	0.032
902	0.032
903	0.031
903	0.031
904	0.031
904	0.03
904	0.03
905	0.029
905	0.028
906	0.028
906	0.027
907	0.027
907	0.026
907	0.026
908	0.026
908	0.026
909	0.026
909	0.027
910	0.028
910	0.028
910	0.029
911	0.03
911	0.03
912	0.031
912	0.031
913	0.031
913	0.031
913	0.031
914	0.03
914	0.029
915	0.028
915	0.027
916	0.026
916	0.025
916	0.025
917	0.024
917	0.024
918	0.024
918	0.024
918	0.025
919	0.026
919	0.026
920	0.027
920	0.028
921	0.028
921	0.029
921	0.029
922	0.029
922	0.03
923	0.03
923	0.029
924	0.029
924	0.028
924	0.028
925	0.027
925	0.027
926	0.027
926	0.027
927	0.026
927	0.026
927	0.025
928	0.025
928	0.025
929	0.025
929	0.025
930	0.025
930	0.024
930	0.024
931	0.024
931	0.023
932	0.023
932	0.023
933	0.023
933	0.023
933	0.022
934	0.022
934	0.022
935	0.021
935	0.021
935	0.02
936	0.02
936	0.02
937	0.019
937	0.019
938	0.019
938	0.018
938	0.018
939	0.018
939	0.018
940	0.019
940	0.019
941	0.02
941	0.021
941	0.021
942	0.022
942	0.023
943	0.023
943	0.023
944	0.023
944	0.024
944	0.023
945	0.023
945	0.023
946	0.023
946	0.022
946	0.022
947	0.022
947	0.022
948	0.023
948	0.023
949	0.023
949	0.023
949	0.024
950	0.024
950	0.024
951	0.024
951	0.024
952	0.024
952	0.024
952	0.024
953	0.024
953	0.024
954	0.024
954	0.023
955	0.023
955	0.023
955	0.023
956	0.022
956	0.022
957	0.021
957	0.02
957	0.019
958	0.018
958	0.017
959	0.017
959	0.016
960	0.015
960	0.014
960	0.013
961	0.012
961	0.012
962	0.012
962	0.012
963	0.012
963	0.013
963	0.013
964	0.014
964	0.015
965	0.016
965	0.016
966	0.017
966	0.018
966	0.019
967	0.02
967	0.021
968	0.021
968	0.021
968	0.022
969	0.022
969	0.021
970	0.021
970	0.021
971	0.021
971	0.021
971	0.021
972	0.02
972	0.02
973	0.02
973	0.019
974	0.019
974	0.018
974	0.018
975	0.017
975	0.016
976	0.015
976	0.014
976	0.013
977	0.012
977	0.011
978	0.01
978	0.009
979	0.009
979	0.008
979	0.008
980	0.008
980	0.008
981	0.008
981	0.009
982	0.01
982	0.011
982	0.012
983	0.012
983	0.013
984	0.014
984	0.015
984	0.016
985	0.016
985	0.016
986	0.016
986	0.015
987	0.014
987	0.013
987	0.013
988	0.012
988	0.01
989	0.008
989	0.006
990	0.005
990	0.003
990	0.001
991	-0
991	-0.002
992	-0.003
992	-0.004
992	-0.006
993	-0.007
993	-0.008
994	-0.009
994	-0.009
995	-0.01
995	-0.01
995	-0.011
996	-0.011
996	-0.011
997	-0.011
997	-0.011
997	-0.01
998	-0.009
998	-0.008
999	-0.007
999	-0.006
1000	-0.004
1000	-0.003
1000	-0.001
1001	-0
1001	0.001
1002	0.002
1002	0.004
1003	0.005
1003	0.006
1003	0.007
1004	0.007
1004	0.008
1005	0.008
1005	0.009
1005	0.009
1006	0.009
1006	0.009
1007	0.009
1007	0.009
1008	0.009
1008	0.009
1008	0.009
1009	0.01
1009	0.01
1010	0.01
1010	0.01
1010	0.011
1011	0.011
1011	0.011
1012	0.011
1012	0.01
1013	0.01
1013	0.009
1013	0.008
1014	0.007
1014	0.006
1015	0.005
1015	0.004
1016	0.003
1016	0.002
1016	0.001
1017	-0
1017	-0.001
1018	-0.001
1018	-0.001
1018	-0.001
1019	-0.001
1019	-0.001
1020	-0.001
1020	-0.002
1021	-0.002
1021	-0.002
1021	-0.002
1022	-0.002
1022	-0.003
1023	-0.003
1023	-0.004
1023	-0.005
1024	-0.006
1024	-0.007
1025	-0.007
1025	-0.008
1026	-0.009
1026	-0.009
1026	-0.01
1027	-0.01
1027	-0.011
1028	-0.011
1028	-0.01
1028	-0.01
1029	-0.01
1029	-0.01
1030	-0.01
1030	-0.009
1031	-0.009
1031	-0.008
1031	-0.008
1032	-0.008
1032	-0.008
1033	-0.008
1033	-0.008
1033	-0.009
1034	-0.01
1034	-0.011
1035	-0.012
1035	-0.013
1036	-0.014
1036	-0.015
1036	-0.015
1037	-0.016
1037	-0.017
1038	-0.017
1038	-0.018
1039	-0.018
1039	-0.018
1039	-0.018
1040	-0.018
1040	-0.018
1041	-0.018
1041	-0.018
1041	-0.018
1042	-0.019
1042	-0.019
1043	-0.02
1043	-0.02
1044	-0.021
1044	-0.021
1044	-0.022
1045	-0.022
1045	-0.022
1046	-0.022
1046	-0.022
1046	-0.022
1047	-0.021
1047	-0.02
1048	-0.019
1048	-0.019
1049	-0.018
1049	-0.018
1049	-0.018
1050	-0.018
1050	-0.018
1051	-0.018
1051	-0.018
1051	-0.018
1052	-0.018
1052	-0.018
1053	-0.018
1053	-0.018
1053	-0.018
1054	-0.018
1054	-0.017
1055	-0.017
1055	-0.017
1056	-0.017
1056	-0.017
1056	-0.018
1057	-0.018
1057	-0.019
1058	-0.019
1058	-0.02
1058	-0.021
1059	-0.021
1059	-0.022
1060	-0.023
1060	-0.023
1061	-0.024
1061	-0.024
1061	-0.024
1062	-0.025
1062	-0.026
1063	-0.026
1063	-0.027
1063	-0.028
1064	-0.029
1064	-0.029
1065	-0.03
1065	-0.031
1066	-0.031
1066	-0.032
1066	-0.033
1067	-0.034
1067	-0.034
1068	-0.035
1068	-0.035
1068	-0.036
1069	-0.037
1069	-0.038
1070	-0.038
1070	-0.039
1071	-0.039
1071	-0.039
1071	-0.04
1072	-0.04
1072	-0.04
1073	-0.041
1073	-0.04
1073	-0.04
1074	-0.04
1074	-0.04
1075	-0.041
1075	-0.041
1076	-0.042
1076	-0.041
1076	-0.042
1077	-0.043
1077	-0.043
1078	-0.044
1078	-0.044
1078	-0.045
1079	-0.045
1079	-0.045
1080	-0.045
1080	-0.045
1080	-0.046
1081	-0.046
1081	-0.045
1082	-0.045
1082	-0.045
1083	-0.045
1083	-0.045
1083	-0.045
1084	-0.045
1084	-0.045
1085	-0.045
1085	-0.045
1085	-0.045
1086	-0.045
1086	-0.046
1087	-0.047
1087	-0.047
1088	-0.048
1088	-0.049
1088	-0.049
1089	-0.05
1089	-0.052
1090	-0.053
1090	-0.054
1090	-0.056
1091	-0.057
1091	-0.058
1092	-0.059
1092	-0.059
1092	-0.06
1093	-0.062
1093	-0.061
1094	-0.062
1094	-0.063
1095	-0.064
1095	-0.065
1095	-0.065
1096	-0.066
1096	-0.066
1097	-0.067
1097	-0.068
1097	-0.069
1098	-0.07
1098	-0.071
1099	-0.072
1099	-0.072
1100	-0.074
1100	-0.075
1100	-0.077
1101	-0.08
1101	-0.082
1102	-0.083
1102	-0.085
1102	-0.086
1103	-0.089
1103	-0.09
1104	-0.091
1104	-0.093
1104	-0.094
1105	-0.095
1105	-0.099
1106	-0.101
1106	-0.103
1107	-0.107
1107	-0.111
1107	-0.114
1108	-0.115
1108	-0.118
1109	-0.119
1109	-0.124
1109	-0.127
1110	-0.126
1110	-0.129
1111	-0.135
1111	-0.129
