Data from 17c-100ul-ns-20ul-nr-full-exp'4ul'bp_Absorbance__795__01265.txt Node

Date: Mon Jan 15 10:06:48 CET 2024
User: Marek
Spectrometer: MAYP115816
Trigger mode: 0
Integration Time (sec): 2.000000E-1
Scans to average: 10
Electric dark correction enabled: true
Nonlinearity correction enabled: true
Boxcar width: 5
XAxis mode: Wavelengths
Number of Pixels in Spectrum: 2068
>>>>>Begin Spectral Data<<<<<
199	-0.507
199	-0.479
200	-0.404
200	-0.341
201	-0.302
201	-0.28
202	-0.257
202	-0.253
203	-0.246
203	-0.244
204	-0.229
204	-0.214
205	-0.2
205	-0.194
205	-0.197
206	-0.199
206	-0.203
207	-0.2
207	-0.2
208	-0.202
208	-0.2
209	-0.199
209	-0.204
210	-0.207
210	-0.208
211	-0.206
211	-0.208
212	-0.208
212	-0.21
213	-0.21
213	-0.21
213	-0.213
214	-0.213
214	-0.213
215	-0.211
215	-0.215
216	-0.218
216	-0.22
217	-0.218
217	-0.22
218	-0.221
218	-0.217
219	-0.213
219	-0.214
220	-0.212
220	-0.213
221	-0.211
221	-0.21
221	-0.207
222	-0.204
222	-0.201
223	-0.195
223	-0.196
224	-0.195
224	-0.188
225	-0.181
225	-0.174
226	-0.167
226	-0.157
227	-0.145
227	-0.137
228	-0.123
228	-0.112
229	-0.094
229	-0.072
229	-0.053
230	-0.032
230	-0.009
231	0.016
231	0.04
232	0.06
232	0.083
233	0.106
233	0.128
234	0.146
234	0.164
235	0.18
235	0.194
236	0.207
236	0.219
236	0.231
237	0.241
237	0.25
238	0.258
238	0.265
239	0.272
239	0.278
240	0.282
240	0.286
241	0.29
241	0.294
242	0.296
242	0.299
243	0.301
243	0.303
243	0.305
244	0.306
244	0.308
245	0.309
245	0.31
246	0.311
246	0.312
247	0.313
247	0.314
248	0.315
248	0.316
249	0.316
249	0.317
250	0.317
250	0.319
250	0.32
251	0.32
251	0.321
252	0.321
252	0.322
253	0.322
253	0.322
254	0.323
254	0.323
255	0.323
255	0.324
256	0.323
256	0.323
257	0.324
257	0.324
258	0.323
258	0.323
258	0.323
259	0.323
259	0.323
260	0.323
260	0.323
261	0.322
261	0.322
262	0.322
262	0.321
263	0.321
263	0.32
264	0.319
264	0.319
265	0.318
265	0.317
265	0.316
266	0.315
266	0.314
267	0.313
267	0.312
268	0.311
268	0.31
269	0.309
269	0.308
270	0.306
270	0.305
271	0.304
271	0.303
272	0.301
272	0.3
272	0.299
273	0.298
273	0.296
274	0.295
274	0.294
275	0.292
275	0.291
276	0.29
276	0.288
277	0.287
277	0.286
278	0.285
278	0.283
278	0.282
279	0.281
279	0.279
280	0.278
280	0.276
281	0.275
281	0.273
282	0.271
282	0.27
283	0.268
283	0.267
284	0.265
284	0.264
285	0.263
285	0.262
285	0.26
286	0.259
286	0.258
287	0.257
287	0.256
288	0.255
288	0.254
289	0.253
289	0.252
290	0.251
290	0.25
291	0.249
291	0.248
292	0.247
292	0.247
292	0.246
293	0.245
293	0.244
294	0.243
294	0.242
295	0.241
295	0.241
296	0.24
296	0.239
297	0.239
297	0.238
298	0.237
298	0.237
298	0.236
299	0.236
299	0.235
300	0.235
300	0.234
301	0.233
301	0.233
302	0.232
302	0.231
303	0.231
303	0.23
304	0.23
304	0.23
305	0.229
305	0.228
305	0.228
306	0.227
306	0.227
307	0.226
307	0.226
308	0.225
308	0.224
309	0.224
309	0.223
310	0.223
310	0.222
311	0.222
311	0.221
311	0.221
312	0.22
312	0.22
313	0.219
313	0.219
314	0.218
314	0.217
315	0.217
315	0.216
316	0.216
316	0.216
317	0.215
317	0.215
318	0.214
318	0.214
318	0.213
319	0.213
319	0.212
320	0.212
320	0.211
321	0.211
321	0.21
322	0.21
322	0.209
323	0.209
323	0.208
324	0.207
324	0.207
324	0.206
325	0.206
325	0.205
326	0.205
326	0.204
327	0.204
327	0.203
328	0.203
328	0.202
329	0.202
329	0.202
330	0.201
330	0.201
330	0.2
331	0.2
331	0.199
332	0.199
332	0.198
333	0.198
333	0.197
334	0.197
334	0.196
335	0.196
335	0.195
336	0.195
336	0.194
336	0.194
337	0.193
337	0.193
338	0.193
338	0.192
339	0.192
339	0.192
340	0.191
340	0.191
341	0.19
341	0.19
342	0.189
342	0.189
342	0.189
343	0.188
343	0.188
344	0.187
344	0.187
345	0.187
345	0.187
346	0.187
346	0.186
347	0.186
347	0.186
348	0.186
348	0.186
348	0.186
349	0.185
349	0.185
350	0.185
350	0.184
351	0.184
351	0.184
352	0.184
352	0.184
353	0.184
353	0.183
354	0.183
354	0.183
354	0.183
355	0.183
355	0.182
356	0.183
356	0.183
357	0.182
357	0.182
358	0.182
358	0.182
359	0.182
359	0.182
360	0.182
360	0.182
360	0.181
361	0.181
361	0.181
362	0.18
362	0.18
363	0.18
363	0.18
364	0.18
364	0.179
365	0.179
365	0.179
366	0.179
366	0.179
366	0.179
367	0.179
367	0.179
368	0.179
368	0.179
369	0.179
369	0.179
370	0.178
370	0.179
371	0.178
371	0.179
372	0.178
372	0.178
372	0.178
373	0.178
373	0.179
374	0.179
374	0.179
375	0.179
375	0.178
376	0.178
376	0.178
377	0.178
377	0.178
378	0.178
378	0.178
378	0.178
379	0.178
379	0.177
380	0.177
380	0.177
381	0.177
381	0.177
382	0.177
382	0.177
383	0.176
383	0.176
383	0.176
384	0.176
384	0.176
385	0.175
385	0.175
386	0.175
386	0.175
387	0.175
387	0.175
388	0.175
388	0.175
389	0.174
389	0.174
389	0.174
390	0.174
390	0.174
391	0.174
391	0.174
392	0.174
392	0.174
393	0.174
393	0.174
394	0.174
394	0.173
394	0.173
395	0.173
395	0.173
396	0.173
396	0.172
397	0.172
397	0.172
398	0.172
398	0.172
399	0.172
399	0.172
400	0.171
400	0.171
400	0.171
401	0.171
401	0.171
402	0.17
402	0.17
403	0.17
403	0.17
404	0.17
404	0.17
405	0.17
405	0.17
405	0.17
406	0.17
406	0.17
407	0.169
407	0.169
408	0.169
408	0.169
409	0.169
409	0.168
410	0.168
410	0.168
411	0.168
411	0.168
411	0.168
412	0.168
412	0.168
413	0.167
413	0.167
414	0.167
414	0.167
415	0.166
415	0.166
416	0.166
416	0.165
416	0.165
417	0.165
417	0.165
418	0.165
418	0.165
419	0.165
419	0.165
420	0.165
420	0.165
421	0.165
421	0.165
421	0.165
422	0.165
422	0.165
423	0.165
423	0.164
424	0.164
424	0.164
425	0.163
425	0.163
426	0.163
426	0.163
427	0.163
427	0.163
427	0.163
428	0.163
428	0.164
429	0.164
429	0.164
430	0.164
430	0.164
431	0.164
431	0.163
432	0.163
432	0.163
432	0.163
433	0.162
433	0.162
434	0.162
434	0.162
435	0.161
435	0.161
436	0.161
436	0.161
437	0.161
437	0.161
437	0.161
438	0.161
438	0.16
439	0.16
439	0.16
440	0.16
440	0.16
441	0.159
441	0.159
442	0.159
442	0.159
442	0.159
443	0.159
443	0.159
444	0.159
444	0.159
445	0.159
445	0.159
446	0.16
446	0.16
447	0.159
447	0.16
447	0.16
448	0.16
448	0.16
449	0.16
449	0.159
450	0.159
450	0.159
451	0.159
451	0.158
452	0.158
452	0.158
452	0.158
453	0.158
453	0.158
454	0.158
454	0.158
455	0.159
455	0.159
456	0.159
456	0.159
457	0.159
457	0.159
458	0.159
458	0.159
458	0.159
459	0.159
459	0.159
460	0.159
460	0.158
461	0.158
461	0.158
462	0.158
462	0.158
463	0.158
463	0.159
463	0.159
464	0.158
464	0.158
465	0.159
465	0.159
466	0.159
466	0.159
467	0.159
467	0.159
467	0.159
468	0.159
468	0.159
469	0.159
469	0.159
470	0.159
470	0.16
471	0.16
471	0.16
472	0.16
472	0.161
472	0.161
473	0.162
473	0.162
474	0.162
474	0.163
475	0.163
475	0.163
476	0.163
476	0.163
477	0.163
477	0.163
477	0.163
478	0.163
478	0.163
479	0.163
479	0.164
480	0.164
480	0.164
481	0.165
481	0.166
482	0.167
482	0.167
482	0.168
483	0.169
483	0.17
484	0.17
484	0.17
485	0.171
485	0.171
486	0.171
486	0.172
487	0.172
487	0.173
487	0.174
488	0.174
488	0.174
489	0.176
489	0.177
490	0.178
490	0.179
491	0.18
491	0.181
492	0.182
492	0.183
492	0.183
493	0.184
493	0.186
494	0.187
494	0.189
495	0.19
495	0.191
496	0.193
496	0.194
496	0.195
497	0.197
497	0.198
498	0.199
498	0.2
499	0.2
499	0.202
500	0.203
500	0.204
501	0.205
501	0.206
501	0.206
502	0.207
502	0.209
503	0.21
503	0.211
504	0.212
504	0.213
505	0.214
505	0.215
506	0.217
506	0.218
506	0.219
507	0.22
507	0.222
508	0.223
508	0.224
509	0.226
509	0.227
510	0.229
510	0.23
511	0.231
511	0.232
511	0.233
512	0.234
512	0.235
513	0.236
513	0.237
514	0.237
514	0.239
515	0.24
515	0.24
515	0.241
516	0.242
516	0.243
517	0.244
517	0.244
518	0.245
518	0.245
519	0.246
519	0.246
520	0.246
520	0.247
520	0.247
521	0.247
521	0.247
522	0.248
522	0.248
523	0.249
523	0.25
524	0.25
524	0.25
524	0.251
525	0.251
525	0.251
526	0.251
526	0.251
527	0.251
527	0.251
528	0.251
528	0.251
529	0.251
529	0.251
529	0.251
530	0.251
530	0.251
531	0.25
531	0.25
532	0.249
532	0.249
533	0.249
533	0.248
533	0.248
534	0.247
534	0.247
535	0.246
535	0.246
536	0.246
536	0.245
537	0.245
537	0.245
538	0.244
538	0.243
538	0.242
539	0.242
539	0.242
540	0.241
540	0.24
541	0.239
541	0.238
542	0.238
542	0.237
542	0.236
543	0.236
543	0.235
544	0.234
544	0.233
545	0.233
545	0.232
546	0.232
546	0.23
547	0.229
547	0.228
547	0.227
548	0.227
548	0.226
549	0.225
549	0.224
550	0.223
550	0.222
551	0.22
551	0.22
551	0.219
552	0.218
552	0.217
553	0.216
553	0.216
554	0.215
554	0.213
555	0.212
555	0.211
556	0.21
556	0.209
556	0.208
557	0.207
557	0.207
558	0.206
558	0.205
559	0.204
559	0.203
560	0.202
560	0.201
560	0.201
561	0.201
561	0.2
562	0.199
562	0.198
563	0.196
563	0.195
564	0.194
564	0.194
564	0.193
565	0.192
565	0.191
566	0.19
566	0.189
567	0.189
567	0.188
568	0.188
568	0.187
568	0.187
569	0.187
569	0.186
570	0.184
570	0.183
571	0.183
571	0.182
572	0.181
572	0.18
573	0.179
573	0.177
573	0.176
574	0.176
574	0.175
575	0.175
575	0.176
576	0.175
576	0.174
577	0.173
577	0.172
577	0.172
578	0.172
578	0.172
579	0.172
579	0.172
580	0.17
580	0.168
581	0.166
581	0.166
581	0.166
582	0.166
582	0.166
583	0.166
583	0.165
584	0.163
584	0.161
585	0.162
585	0.163
585	0.163
586	0.162
586	0.162
587	0.16
587	0.159
588	0.158
588	0.158
589	0.158
589	0.158
590	0.158
590	0.158
590	0.158
591	0.158
591	0.157
592	0.156
592	0.155
593	0.155
593	0.155
594	0.154
594	0.153
594	0.152
595	0.153
595	0.152
596	0.152
596	0.154
597	0.155
597	0.155
598	0.155
598	0.155
598	0.155
599	0.155
599	0.154
600	0.153
600	0.152
601	0.151
601	0.15
602	0.148
602	0.148
602	0.146
603	0.146
603	0.146
604	0.146
604	0.146
605	0.146
605	0.146
606	0.146
606	0.145
606	0.145
607	0.145
607	0.145
608	0.144
608	0.143
609	0.143
609	0.144
610	0.143
610	0.143
610	0.143
611	0.144
611	0.145
612	0.145
612	0.146
613	0.146
613	0.146
614	0.145
614	0.145
614	0.144
615	0.144
615	0.143
616	0.144
616	0.143
617	0.143
617	0.142
618	0.142
618	0.142
618	0.143
619	0.143
619	0.145
620	0.146
620	0.146
621	0.146
621	0.146
622	0.146
622	0.146
622	0.146
623	0.145
623	0.146
624	0.146
624	0.146
625	0.146
625	0.146
626	0.146
626	0.146
626	0.147
627	0.148
627	0.149
628	0.15
628	0.15
629	0.151
629	0.151
630	0.151
630	0.152
630	0.153
631	0.154
631	0.155
632	0.155
632	0.156
633	0.157
633	0.158
634	0.159
634	0.161
634	0.162
635	0.162
635	0.163
636	0.163
636	0.164
637	0.164
637	0.165
638	0.166
638	0.166
638	0.167
639	0.167
639	0.168
640	0.169
640	0.17
641	0.171
641	0.172
642	0.173
642	0.174
642	0.175
643	0.176
643	0.177
644	0.178
644	0.178
645	0.179
645	0.181
646	0.182
646	0.184
646	0.185
647	0.187
647	0.188
648	0.19
648	0.192
649	0.194
649	0.195
650	0.197
650	0.199
650	0.2
651	0.202
651	0.204
652	0.206
652	0.208
653	0.211
653	0.217
653	0.219
654	0.173
654	0.138
655	0.142
655	0.143
656	0.145
656	0.146
657	0.147
657	0.148
657	0.149
658	0.147
658	0.141
659	0.181
659	0.236
660	0.243
660	0.245
661	0.247
661	0.25
661	0.253
662	0.256
662	0.259
663	0.261
663	0.263
664	0.265
664	0.267
665	0.269
665	0.271
665	0.273
666	0.275
666	0.277
667	0.279
667	0.281
668	0.284
668	0.286
669	0.288
669	0.291
669	0.294
670	0.297
670	0.299
671	0.301
671	0.303
672	0.305
672	0.307
672	0.309
673	0.311
673	0.314
674	0.315
674	0.317
675	0.318
675	0.32
676	0.322
676	0.323
676	0.324
677	0.325
677	0.325
678	0.326
678	0.326
679	0.326
679	0.327
680	0.328
680	0.329
680	0.329
681	0.33
681	0.331
682	0.332
682	0.333
683	0.334
683	0.335
684	0.336
684	0.336
684	0.336
685	0.337
685	0.337
686	0.337
686	0.337
687	0.338
687	0.338
687	0.338
688	0.337
688	0.337
689	0.338
689	0.338
690	0.337
690	0.337
691	0.336
691	0.336
691	0.335
692	0.334
692	0.334
693	0.334
693	0.333
694	0.332
694	0.331
695	0.332
695	0.332
695	0.331
696	0.33
696	0.33
697	0.329
697	0.329
698	0.328
698	0.327
698	0.326
699	0.325
699	0.323
700	0.321
700	0.32
701	0.319
701	0.317
702	0.315
702	0.314
702	0.312
703	0.31
703	0.308
704	0.306
704	0.305
705	0.304
705	0.302
705	0.301
706	0.3
706	0.299
707	0.298
707	0.296
708	0.295
708	0.294
709	0.293
709	0.291
709	0.289
710	0.287
710	0.286
711	0.284
711	0.283
712	0.281
712	0.279
713	0.277
713	0.276
713	0.274
714	0.273
714	0.272
715	0.27
715	0.268
716	0.267
716	0.265
716	0.264
717	0.262
717	0.261
718	0.259
718	0.258
719	0.256
719	0.255
720	0.253
720	0.251
720	0.249
721	0.247
721	0.245
722	0.242
722	0.24
723	0.239
723	0.237
723	0.235
724	0.233
724	0.231
725	0.229
725	0.228
726	0.227
726	0.225
727	0.224
727	0.223
727	0.222
728	0.22
728	0.219
729	0.218
729	0.217
730	0.216
730	0.215
730	0.214
731	0.213
731	0.211
732	0.21
732	0.209
733	0.208
733	0.207
734	0.205
734	0.204
734	0.202
735	0.202
735	0.2
736	0.199
736	0.198
737	0.197
737	0.196
737	0.194
738	0.192
738	0.19
739	0.188
739	0.186
740	0.184
740	0.183
741	0.181
741	0.179
741	0.177
742	0.175
742	0.175
743	0.174
743	0.173
744	0.172
744	0.171
744	0.169
745	0.168
745	0.167
746	0.166
746	0.165
747	0.164
747	0.163
748	0.162
748	0.161
748	0.159
749	0.159
749	0.158
750	0.157
750	0.157
751	0.156
751	0.156
751	0.155
752	0.154
752	0.153
753	0.153
753	0.152
754	0.152
754	0.151
754	0.15
755	0.149
755	0.148
756	0.146
756	0.145
757	0.144
757	0.143
758	0.142
758	0.141
758	0.14
759	0.139
759	0.138
760	0.137
760	0.137
761	0.136
761	0.137
761	0.137
762	0.136
762	0.136
763	0.136
763	0.135
764	0.134
764	0.133
764	0.133
765	0.132
765	0.131
766	0.13
766	0.13
767	0.129
767	0.128
768	0.128
768	0.127
768	0.127
769	0.127
769	0.126
770	0.126
770	0.125
771	0.124
771	0.123
771	0.122
772	0.121
772	0.121
773	0.12
773	0.12
774	0.119
774	0.118
775	0.118
775	0.117
775	0.116
776	0.115
776	0.114
777	0.113
777	0.112
778	0.111
778	0.11
778	0.11
779	0.11
779	0.109
780	0.108
780	0.107
781	0.107
781	0.106
781	0.105
782	0.103
782	0.102
783	0.101
783	0.1
784	0.098
784	0.097
784	0.096
785	0.096
785	0.095
786	0.095
786	0.095
787	0.096
787	0.096
788	0.096
788	0.096
788	0.097
789	0.097
789	0.098
790	0.098
790	0.098
791	0.098
791	0.098
791	0.098
792	0.098
792	0.098
793	0.097
793	0.096
794	0.096
794	0.095
794	0.095
795	0.095
795	0.094
796	0.094
796	0.093
797	0.092
797	0.091
797	0.091
798	0.09
798	0.09
799	0.089
799	0.088
800	0.086
800	0.085
801	0.084
801	0.083
801	0.082
802	0.081
802	0.08
803	0.079
803	0.078
804	0.078
804	0.077
804	0.077
805	0.077
805	0.077
806	0.078
806	0.078
807	0.079
807	0.079
807	0.08
808	0.081
808	0.081
809	0.081
809	0.082
810	0.083
810	0.083
810	0.083
811	0.084
811	0.085
812	0.085
812	0.085
813	0.085
813	0.085
813	0.085
814	0.085
814	0.085
815	0.084
815	0.083
816	0.082
816	0.081
817	0.079
817	0.079
817	0.078
818	0.078
818	0.077
819	0.076
819	0.075
820	0.075
820	0.074
820	0.074
821	0.074
821	0.073
822	0.073
822	0.073
823	0.073
823	0.072
823	0.072
824	0.072
824	0.072
825	0.072
825	0.071
826	0.071
826	0.07
826	0.069
827	0.068
827	0.067
828	0.066
828	0.066
829	0.066
829	0.065
829	0.065
830	0.065
830	0.065
831	0.065
831	0.065
832	0.065
832	0.065
832	0.065
833	0.064
833	0.064
834	0.063
834	0.063
835	0.062
835	0.061
835	0.061
836	0.06
836	0.059
837	0.059
837	0.059
838	0.059
838	0.059
839	0.059
839	0.059
839	0.059
840	0.059
840	0.06
841	0.06
841	0.061
842	0.061
842	0.062
842	0.062
843	0.062
843	0.061
844	0.061
844	0.061
845	0.06
845	0.06
845	0.059
846	0.059
846	0.058
847	0.057
847	0.057
848	0.056
848	0.056
848	0.055
849	0.055
849	0.054
850	0.054
850	0.053
851	0.053
851	0.053
851	0.052
852	0.052
852	0.052
853	0.052
853	0.051
854	0.051
854	0.052
854	0.052
855	0.052
855	0.051
856	0.051
856	0.052
857	0.052
857	0.053
857	0.053
858	0.053
858	0.054
859	0.054
859	0.054
860	0.054
860	0.054
860	0.054
861	0.054
861	0.054
862	0.054
862	0.053
863	0.053
863	0.053
863	0.052
864	0.051
864	0.05
865	0.049
865	0.048
866	0.047
866	0.046
866	0.045
867	0.045
867	0.045
868	0.045
868	0.045
869	0.045
869	0.046
869	0.046
870	0.046
870	0.046
871	0.046
871	0.046
872	0.046
872	0.045
872	0.044
873	0.043
873	0.041
874	0.04
874	0.039
875	0.038
875	0.037
875	0.036
876	0.035
876	0.034
877	0.034
877	0.033
878	0.032
878	0.032
878	0.032
879	0.031
879	0.031
880	0.031
880	0.032
881	0.032
881	0.033
881	0.034
882	0.036
882	0.037
883	0.038
883	0.039
884	0.04
884	0.041
884	0.041
885	0.042
885	0.043
886	0.043
886	0.043
887	0.043
887	0.043
887	0.043
888	0.044
888	0.044
889	0.045
889	0.045
890	0.046
890	0.047
890	0.047
891	0.047
891	0.048
892	0.048
892	0.048
893	0.047
893	0.047
893	0.046
894	0.045
894	0.044
895	0.043
895	0.042
895	0.041
896	0.039
896	0.038
897	0.037
897	0.036
898	0.035
898	0.035
898	0.034
899	0.033
899	0.032
900	0.032
900	0.031
901	0.031
901	0.031
901	0.031
902	0.031
902	0.03
903	0.03
903	0.03
904	0.029
904	0.029
904	0.028
905	0.028
905	0.027
906	0.027
906	0.026
907	0.026
907	0.025
907	0.025
908	0.025
908	0.025
909	0.026
909	0.026
910	0.027
910	0.028
910	0.028
911	0.029
911	0.03
912	0.03
912	0.031
913	0.031
913	0.03
913	0.03
914	0.029
914	0.029
915	0.028
915	0.027
916	0.025
916	0.025
916	0.024
917	0.024
917	0.024
918	0.024
918	0.024
918	0.024
919	0.025
919	0.026
920	0.027
920	0.028
921	0.028
921	0.028
921	0.029
922	0.029
922	0.029
923	0.029
923	0.029
924	0.028
924	0.028
924	0.027
925	0.027
925	0.026
926	0.026
926	0.026
927	0.025
927	0.025
927	0.025
928	0.024
928	0.024
929	0.024
929	0.024
930	0.024
930	0.024
930	0.023
931	0.023
931	0.023
932	0.022
932	0.022
933	0.022
933	0.022
933	0.022
934	0.021
934	0.021
935	0.02
935	0.02
935	0.02
936	0.019
936	0.019
937	0.019
937	0.018
938	0.018
938	0.017
938	0.017
939	0.017
939	0.018
940	0.018
940	0.019
941	0.019
941	0.02
941	0.021
942	0.021
942	0.022
943	0.022
943	0.023
944	0.023
944	0.023
944	0.023
945	0.023
945	0.023
946	0.023
946	0.022
946	0.022
947	0.022
947	0.022
948	0.022
948	0.022
949	0.022
949	0.023
949	0.023
950	0.023
950	0.023
951	0.023
951	0.023
952	0.023
952	0.023
952	0.023
953	0.023
953	0.023
954	0.022
954	0.022
955	0.022
955	0.022
955	0.021
956	0.021
956	0.021
957	0.02
957	0.019
957	0.018
958	0.017
958	0.016
959	0.015
959	0.014
960	0.013
960	0.013
960	0.012
961	0.011
961	0.01
962	0.01
962	0.01
963	0.011
963	0.011
963	0.012
964	0.012
964	0.013
965	0.014
965	0.015
966	0.016
966	0.017
966	0.018
967	0.019
967	0.02
968	0.02
968	0.02
968	0.02
969	0.02
969	0.02
970	0.021
970	0.02
971	0.02
971	0.02
971	0.02
972	0.019
972	0.019
973	0.018
973	0.018
974	0.017
974	0.017
974	0.016
975	0.015
975	0.015
976	0.014
976	0.013
976	0.012
977	0.011
977	0.01
978	0.009
978	0.008
979	0.007
979	0.007
979	0.007
980	0.007
980	0.006
981	0.007
981	0.007
982	0.008
982	0.009
982	0.01
983	0.011
983	0.012
984	0.013
984	0.013
984	0.014
985	0.014
985	0.015
986	0.014
986	0.014
987	0.013
987	0.012
987	0.011
988	0.01
988	0.009
989	0.007
989	0.005
990	0.004
990	0.002
990	0
991	-0.001
991	-0.002
992	-0.004
992	-0.005
992	-0.006
993	-0.007
993	-0.008
994	-0.009
994	-0.01
995	-0.01
995	-0.011
995	-0.011
996	-0.011
996	-0.011
997	-0.011
997	-0.011
997	-0.01
998	-0.009
998	-0.008
999	-0.007
999	-0.006
1000	-0.005
1000	-0.003
1000	-0.002
1001	-0
1001	0.001
1002	0.002
1002	0.004
1003	0.005
1003	0.006
1003	0.006
1004	0.007
1004	0.008
1005	0.008
1005	0.008
1005	0.009
1006	0.009
1006	0.009
1007	0.009
1007	0.009
1008	0.009
1008	0.009
1008	0.009
1009	0.009
1009	0.009
1010	0.01
1010	0.01
1010	0.01
1011	0.01
1011	0.01
1012	0.01
1012	0.009
1013	0.009
1013	0.008
1013	0.008
1014	0.007
1014	0.005
1015	0.004
1015	0.003
1016	0.002
1016	0.001
1016	0
1017	-0.001
1017	-0.001
1018	-0.002
1018	-0.002
1018	-0.002
1019	-0.002
1019	-0.002
1020	-0.002
1020	-0.002
1021	-0.002
1021	-0.002
1021	-0.003
1022	-0.003
1022	-0.003
1023	-0.004
1023	-0.005
1023	-0.006
1024	-0.006
1024	-0.007
1025	-0.008
1025	-0.009
1026	-0.009
1026	-0.01
1026	-0.01
1027	-0.011
1027	-0.011
1028	-0.011
1028	-0.011
1028	-0.011
1029	-0.01
1029	-0.01
1030	-0.01
1030	-0.009
1031	-0.009
1031	-0.009
1031	-0.008
1032	-0.008
1032	-0.008
1033	-0.008
1033	-0.009
1033	-0.01
1034	-0.01
1034	-0.012
1035	-0.013
1035	-0.014
1036	-0.014
1036	-0.015
1036	-0.016
1037	-0.017
1037	-0.018
1038	-0.018
1038	-0.018
1039	-0.018
1039	-0.018
1039	-0.018
1040	-0.018
1040	-0.018
1041	-0.018
1041	-0.018
1041	-0.019
1042	-0.019
1042	-0.019
1043	-0.02
1043	-0.02
1044	-0.021
1044	-0.021
1044	-0.022
1045	-0.022
1045	-0.023
1046	-0.023
1046	-0.022
1046	-0.022
1047	-0.021
1047	-0.02
1048	-0.02
1048	-0.019
1049	-0.019
1049	-0.018
1049	-0.018
1050	-0.018
1050	-0.018
1051	-0.019
1051	-0.019
1051	-0.019
1052	-0.019
1052	-0.019
1053	-0.019
1053	-0.019
1053	-0.019
1054	-0.019
1054	-0.018
1055	-0.017
1055	-0.017
1056	-0.017
1056	-0.018
1056	-0.019
1057	-0.019
1057	-0.02
1058	-0.02
1058	-0.02
1058	-0.021
1059	-0.021
1059	-0.022
1060	-0.023
1060	-0.023
1061	-0.024
1061	-0.024
1061	-0.024
1062	-0.025
1062	-0.026
1063	-0.027
1063	-0.027
1063	-0.028
1064	-0.029
1064	-0.03
1065	-0.03
1065	-0.031
1066	-0.032
1066	-0.032
1066	-0.033
1067	-0.034
1067	-0.034
1068	-0.035
1068	-0.035
1068	-0.036
1069	-0.037
1069	-0.038
1070	-0.038
1070	-0.039
1071	-0.039
1071	-0.04
1071	-0.041
1072	-0.041
1072	-0.041
1073	-0.042
1073	-0.041
1073	-0.042
1074	-0.041
1074	-0.041
1075	-0.042
1075	-0.042
1076	-0.043
1076	-0.043
1076	-0.043
1077	-0.044
1077	-0.044
1078	-0.045
1078	-0.045
1078	-0.045
1079	-0.046
1079	-0.046
1080	-0.046
1080	-0.046
1080	-0.046
1081	-0.046
1081	-0.045
1082	-0.045
1082	-0.045
1083	-0.046
1083	-0.046
1083	-0.045
1084	-0.045
1084	-0.045
1085	-0.045
1085	-0.045
1085	-0.046
1086	-0.046
1086	-0.047
1087	-0.047
1087	-0.047
1088	-0.048
1088	-0.049
1088	-0.049
1089	-0.051
1089	-0.052
1090	-0.053
1090	-0.054
1090	-0.056
1091	-0.056
1091	-0.057
1092	-0.058
1092	-0.059
1092	-0.06
1093	-0.061
1093	-0.061
1094	-0.062
1094	-0.063
1095	-0.064
1095	-0.064
1095	-0.065
1096	-0.066
1096	-0.067
1097	-0.067
1097	-0.069
1097	-0.069
1098	-0.071
1098	-0.072
1099	-0.073
1099	-0.074
1100	-0.075
1100	-0.076
1100	-0.078
1101	-0.08
1101	-0.082
1102	-0.083
1102	-0.085
1102	-0.087
1103	-0.089
1103	-0.091
1104	-0.092
1104	-0.093
1104	-0.094
1105	-0.096
1105	-0.099
1106	-0.102
1106	-0.104
1107	-0.109
1107	-0.112
1107	-0.116
1108	-0.117
1108	-0.119
1109	-0.122
1109	-0.127
1109	-0.131
1110	-0.131
1110	-0.134
1111	-0.138
1111	-0.132
