Data from 17c-100ul-ns-20ul-nr-full-exp'4ul'bp_Absorbance__517__00987.txt Node

Date: Mon Jan 15 09:57:32 CET 2024
User: Marek
Spectrometer: MAYP115816
Trigger mode: 0
Integration Time (sec): 2.000000E-1
Scans to average: 10
Electric dark correction enabled: true
Nonlinearity correction enabled: true
Boxcar width: 5
XAxis mode: Wavelengths
Number of Pixels in Spectrum: 2068
>>>>>Begin Spectral Data<<<<<
199	-0.476
199	-0.449
200	-0.375
200	-0.317
201	-0.28
201	-0.259
202	-0.236
202	-0.232
203	-0.225
203	-0.223
204	-0.208
204	-0.194
205	-0.18
205	-0.175
205	-0.177
206	-0.179
206	-0.183
207	-0.181
207	-0.18
208	-0.182
208	-0.181
209	-0.179
209	-0.185
210	-0.187
210	-0.188
211	-0.189
211	-0.189
212	-0.19
212	-0.191
213	-0.192
213	-0.192
213	-0.194
214	-0.195
214	-0.193
215	-0.191
215	-0.195
216	-0.196
216	-0.199
217	-0.197
217	-0.197
218	-0.197
218	-0.194
219	-0.19
219	-0.19
220	-0.189
220	-0.191
221	-0.187
221	-0.186
221	-0.181
222	-0.178
222	-0.175
223	-0.169
223	-0.17
224	-0.169
224	-0.162
225	-0.154
225	-0.147
226	-0.142
226	-0.133
227	-0.121
227	-0.112
228	-0.097
228	-0.087
229	-0.069
229	-0.047
229	-0.028
230	-0.008
230	0.017
231	0.042
231	0.067
232	0.088
232	0.112
233	0.134
233	0.157
234	0.176
234	0.195
235	0.211
235	0.227
236	0.24
236	0.254
236	0.265
237	0.276
237	0.285
238	0.294
238	0.302
239	0.31
239	0.316
240	0.321
240	0.325
241	0.329
241	0.332
242	0.335
242	0.338
243	0.341
243	0.342
243	0.344
244	0.346
244	0.348
245	0.349
245	0.35
246	0.351
246	0.353
247	0.354
247	0.355
248	0.356
248	0.357
249	0.358
249	0.358
250	0.359
250	0.36
250	0.361
251	0.361
251	0.362
252	0.363
252	0.363
253	0.364
253	0.364
254	0.364
254	0.365
255	0.365
255	0.365
256	0.365
256	0.365
257	0.365
257	0.365
258	0.365
258	0.365
258	0.365
259	0.365
259	0.365
260	0.365
260	0.365
261	0.364
261	0.364
262	0.363
262	0.363
263	0.362
263	0.361
264	0.361
264	0.36
265	0.359
265	0.358
265	0.357
266	0.356
266	0.355
267	0.354
267	0.353
268	0.352
268	0.351
269	0.349
269	0.348
270	0.347
270	0.345
271	0.344
271	0.343
272	0.341
272	0.34
272	0.339
273	0.337
273	0.336
274	0.335
274	0.333
275	0.332
275	0.33
276	0.328
276	0.327
277	0.325
277	0.324
278	0.322
278	0.321
278	0.32
279	0.318
279	0.316
280	0.314
280	0.313
281	0.311
281	0.309
282	0.308
282	0.306
283	0.305
283	0.303
284	0.301
284	0.3
285	0.299
285	0.297
285	0.296
286	0.294
286	0.293
287	0.292
287	0.291
288	0.289
288	0.288
289	0.287
289	0.286
290	0.285
290	0.284
291	0.282
291	0.281
292	0.28
292	0.279
292	0.278
293	0.278
293	0.277
294	0.276
294	0.275
295	0.274
295	0.273
296	0.272
296	0.271
297	0.27
297	0.27
298	0.269
298	0.268
298	0.267
299	0.266
299	0.265
300	0.265
300	0.264
301	0.263
301	0.263
302	0.262
302	0.261
303	0.261
303	0.26
304	0.259
304	0.259
305	0.258
305	0.257
305	0.257
306	0.256
306	0.256
307	0.255
307	0.254
308	0.254
308	0.253
309	0.252
309	0.251
310	0.251
310	0.25
311	0.249
311	0.249
311	0.248
312	0.247
312	0.247
313	0.246
313	0.245
314	0.245
314	0.244
315	0.243
315	0.243
316	0.242
316	0.242
317	0.241
317	0.241
318	0.24
318	0.239
318	0.239
319	0.238
319	0.238
320	0.237
320	0.237
321	0.236
321	0.235
322	0.235
322	0.234
323	0.233
323	0.233
324	0.232
324	0.232
324	0.231
325	0.23
325	0.23
326	0.229
326	0.229
327	0.228
327	0.227
328	0.227
328	0.226
329	0.226
329	0.225
330	0.224
330	0.224
330	0.223
331	0.223
331	0.222
332	0.222
332	0.221
333	0.221
333	0.22
334	0.22
334	0.219
335	0.219
335	0.218
336	0.218
336	0.217
336	0.217
337	0.216
337	0.215
338	0.215
338	0.215
339	0.214
339	0.214
340	0.213
340	0.213
341	0.212
341	0.212
342	0.211
342	0.211
342	0.21
343	0.21
343	0.21
344	0.209
344	0.209
345	0.209
345	0.208
346	0.208
346	0.208
347	0.208
347	0.207
348	0.207
348	0.207
348	0.207
349	0.207
349	0.206
350	0.206
350	0.206
351	0.206
351	0.206
352	0.205
352	0.205
353	0.205
353	0.205
354	0.204
354	0.204
354	0.204
355	0.204
355	0.203
356	0.203
356	0.204
357	0.204
357	0.204
358	0.203
358	0.203
359	0.203
359	0.203
360	0.203
360	0.203
360	0.202
361	0.202
361	0.202
362	0.201
362	0.201
363	0.201
363	0.201
364	0.201
364	0.2
365	0.2
365	0.2
366	0.2
366	0.2
366	0.2
367	0.2
367	0.2
368	0.199
368	0.199
369	0.199
369	0.199
370	0.199
370	0.199
371	0.199
371	0.199
372	0.199
372	0.199
372	0.199
373	0.199
373	0.199
374	0.199
374	0.199
375	0.199
375	0.198
376	0.198
376	0.198
377	0.198
377	0.197
378	0.197
378	0.197
378	0.197
379	0.197
379	0.197
380	0.197
380	0.197
381	0.196
381	0.196
382	0.196
382	0.196
383	0.196
383	0.196
383	0.195
384	0.195
384	0.195
385	0.194
385	0.194
386	0.194
386	0.194
387	0.194
387	0.194
388	0.193
388	0.193
389	0.193
389	0.193
389	0.193
390	0.193
390	0.193
391	0.192
391	0.192
392	0.192
392	0.192
393	0.192
393	0.192
394	0.192
394	0.191
394	0.191
395	0.191
395	0.191
396	0.19
396	0.19
397	0.19
397	0.19
398	0.19
398	0.19
399	0.19
399	0.19
400	0.189
400	0.189
400	0.189
401	0.189
401	0.188
402	0.188
402	0.188
403	0.188
403	0.187
404	0.187
404	0.187
405	0.187
405	0.187
405	0.187
406	0.187
406	0.187
407	0.186
407	0.186
408	0.186
408	0.186
409	0.186
409	0.185
410	0.186
410	0.185
411	0.185
411	0.185
411	0.185
412	0.184
412	0.184
413	0.184
413	0.184
414	0.183
414	0.183
415	0.183
415	0.182
416	0.182
416	0.182
416	0.182
417	0.181
417	0.181
418	0.181
418	0.181
419	0.181
419	0.181
420	0.181
420	0.181
421	0.181
421	0.181
421	0.181
422	0.181
422	0.181
423	0.181
423	0.181
424	0.181
424	0.18
425	0.18
425	0.18
426	0.18
426	0.18
427	0.18
427	0.18
427	0.18
428	0.179
428	0.18
429	0.18
429	0.18
430	0.18
430	0.18
431	0.179
431	0.179
432	0.179
432	0.179
432	0.179
433	0.178
433	0.178
434	0.178
434	0.178
435	0.178
435	0.178
436	0.177
436	0.177
437	0.177
437	0.177
437	0.177
438	0.177
438	0.176
439	0.176
439	0.176
440	0.176
440	0.176
441	0.176
441	0.175
442	0.175
442	0.175
442	0.175
443	0.175
443	0.175
444	0.175
444	0.175
445	0.175
445	0.175
446	0.175
446	0.175
447	0.175
447	0.175
447	0.175
448	0.175
448	0.175
449	0.175
449	0.175
450	0.175
450	0.175
451	0.175
451	0.175
452	0.175
452	0.174
452	0.174
453	0.174
453	0.174
454	0.174
454	0.174
455	0.175
455	0.175
456	0.175
456	0.175
457	0.175
457	0.175
458	0.175
458	0.175
458	0.176
459	0.176
459	0.176
460	0.175
460	0.175
461	0.175
461	0.175
462	0.175
462	0.175
463	0.175
463	0.176
463	0.176
464	0.176
464	0.176
465	0.176
465	0.176
466	0.176
466	0.177
467	0.177
467	0.177
467	0.177
468	0.176
468	0.176
469	0.177
469	0.177
470	0.177
470	0.177
471	0.178
471	0.178
472	0.178
472	0.178
472	0.179
473	0.18
473	0.18
474	0.18
474	0.181
475	0.181
475	0.181
476	0.181
476	0.181
477	0.182
477	0.182
477	0.182
478	0.182
478	0.182
479	0.183
479	0.183
480	0.183
480	0.184
481	0.184
481	0.185
482	0.186
482	0.187
482	0.188
483	0.189
483	0.191
484	0.191
484	0.191
485	0.192
485	0.193
486	0.193
486	0.194
487	0.194
487	0.195
487	0.196
488	0.196
488	0.197
489	0.198
489	0.2
490	0.201
490	0.202
491	0.203
491	0.204
492	0.205
492	0.206
492	0.207
493	0.208
493	0.21
494	0.211
494	0.213
495	0.215
495	0.216
496	0.218
496	0.22
496	0.221
497	0.223
497	0.224
498	0.226
498	0.227
499	0.228
499	0.23
500	0.231
500	0.232
501	0.234
501	0.235
501	0.236
502	0.237
502	0.239
503	0.24
503	0.241
504	0.243
504	0.244
505	0.245
505	0.247
506	0.248
506	0.25
506	0.251
507	0.253
507	0.255
508	0.256
508	0.258
509	0.26
509	0.261
510	0.263
510	0.265
511	0.266
511	0.267
511	0.269
512	0.27
512	0.271
513	0.272
513	0.273
514	0.274
514	0.276
515	0.276
515	0.277
515	0.278
516	0.279
516	0.28
517	0.281
517	0.282
518	0.283
518	0.284
519	0.284
519	0.285
520	0.285
520	0.286
520	0.287
521	0.287
521	0.288
522	0.288
522	0.288
523	0.289
523	0.289
524	0.29
524	0.29
524	0.29
525	0.29
525	0.291
526	0.291
526	0.291
527	0.291
527	0.291
528	0.291
528	0.291
529	0.291
529	0.291
529	0.291
530	0.291
530	0.29
531	0.29
531	0.29
532	0.289
532	0.289
533	0.288
533	0.288
533	0.287
534	0.286
534	0.285
535	0.284
535	0.284
536	0.283
536	0.282
537	0.282
537	0.281
538	0.28
538	0.279
538	0.279
539	0.278
539	0.278
540	0.277
540	0.275
541	0.274
541	0.273
542	0.272
542	0.271
542	0.27
543	0.269
543	0.268
544	0.267
544	0.266
545	0.265
545	0.264
546	0.263
546	0.261
547	0.259
547	0.258
547	0.257
548	0.256
548	0.254
549	0.253
549	0.252
550	0.25
550	0.249
551	0.247
551	0.246
551	0.245
552	0.243
552	0.242
553	0.241
553	0.24
554	0.239
554	0.237
555	0.236
555	0.235
556	0.234
556	0.232
556	0.231
557	0.23
557	0.229
558	0.227
558	0.225
559	0.224
559	0.223
560	0.221
560	0.22
560	0.219
561	0.219
561	0.217
562	0.216
562	0.214
563	0.213
563	0.211
564	0.21
564	0.209
564	0.208
565	0.207
565	0.205
566	0.203
566	0.202
567	0.201
567	0.201
568	0.2
568	0.199
568	0.198
569	0.197
569	0.196
570	0.194
570	0.192
571	0.192
571	0.191
572	0.189
572	0.188
573	0.186
573	0.185
573	0.183
574	0.182
574	0.182
575	0.181
575	0.181
576	0.18
576	0.178
577	0.177
577	0.176
577	0.176
578	0.175
578	0.175
579	0.175
579	0.174
580	0.172
580	0.17
581	0.168
581	0.167
581	0.167
582	0.167
582	0.167
583	0.167
583	0.165
584	0.163
584	0.16
585	0.161
585	0.161
585	0.161
586	0.16
586	0.159
587	0.157
587	0.156
588	0.155
588	0.154
589	0.155
589	0.155
590	0.154
590	0.154
590	0.154
591	0.154
591	0.152
592	0.151
592	0.15
593	0.15
593	0.149
594	0.148
594	0.147
594	0.146
595	0.146
595	0.145
596	0.145
596	0.146
597	0.147
597	0.147
598	0.146
598	0.146
598	0.146
599	0.146
599	0.144
600	0.143
600	0.142
601	0.141
601	0.14
602	0.138
602	0.137
602	0.136
603	0.135
603	0.135
604	0.135
604	0.135
605	0.135
605	0.135
606	0.134
606	0.134
606	0.133
607	0.133
607	0.133
608	0.132
608	0.131
609	0.131
609	0.131
610	0.13
610	0.13
610	0.131
611	0.131
611	0.132
612	0.132
612	0.132
613	0.133
613	0.133
614	0.132
614	0.131
614	0.131
615	0.13
615	0.13
616	0.13
616	0.129
617	0.129
617	0.128
618	0.128
618	0.128
618	0.128
619	0.129
619	0.13
620	0.131
620	0.132
621	0.132
621	0.132
622	0.132
622	0.132
622	0.131
623	0.131
623	0.132
624	0.132
624	0.131
625	0.132
625	0.132
626	0.132
626	0.132
626	0.133
627	0.134
627	0.135
628	0.136
628	0.136
629	0.137
629	0.137
630	0.137
630	0.138
630	0.139
631	0.14
631	0.141
632	0.142
632	0.143
633	0.144
633	0.145
634	0.147
634	0.148
634	0.149
635	0.15
635	0.15
636	0.151
636	0.152
637	0.152
637	0.153
638	0.154
638	0.155
638	0.156
639	0.156
639	0.157
640	0.158
640	0.159
641	0.16
641	0.162
642	0.163
642	0.164
642	0.165
643	0.167
643	0.168
644	0.169
644	0.17
645	0.171
645	0.173
646	0.175
646	0.177
646	0.178
647	0.18
647	0.182
648	0.184
648	0.185
649	0.188
649	0.19
650	0.192
650	0.194
650	0.195
651	0.197
651	0.199
652	0.201
652	0.204
653	0.207
653	0.213
653	0.215
654	0.169
654	0.136
655	0.139
655	0.141
656	0.143
656	0.144
657	0.145
657	0.147
657	0.147
658	0.146
658	0.141
659	0.18
659	0.235
660	0.242
660	0.244
661	0.247
661	0.25
661	0.253
662	0.257
662	0.26
663	0.262
663	0.264
664	0.267
664	0.269
665	0.271
665	0.273
665	0.276
666	0.278
666	0.28
667	0.282
667	0.285
668	0.287
668	0.29
669	0.293
669	0.295
669	0.299
670	0.301
670	0.303
671	0.305
671	0.308
672	0.31
672	0.312
672	0.315
673	0.317
673	0.319
674	0.321
674	0.322
675	0.324
675	0.326
676	0.328
676	0.329
676	0.33
677	0.331
677	0.332
678	0.332
678	0.332
679	0.333
679	0.334
680	0.335
680	0.335
680	0.336
681	0.337
681	0.338
682	0.338
682	0.34
683	0.341
683	0.342
684	0.343
684	0.343
684	0.343
685	0.344
685	0.344
686	0.344
686	0.344
687	0.345
687	0.344
687	0.344
688	0.344
688	0.344
689	0.344
689	0.344
690	0.343
690	0.343
691	0.342
691	0.342
691	0.341
692	0.34
692	0.339
693	0.339
693	0.338
694	0.337
694	0.336
695	0.337
695	0.337
695	0.336
696	0.335
696	0.335
697	0.334
697	0.333
698	0.332
698	0.331
698	0.33
699	0.329
699	0.327
700	0.325
700	0.323
701	0.321
701	0.319
702	0.317
702	0.316
702	0.313
703	0.311
703	0.309
704	0.308
704	0.306
705	0.305
705	0.303
705	0.301
706	0.3
706	0.299
707	0.297
707	0.296
708	0.294
708	0.293
709	0.291
709	0.289
709	0.287
710	0.285
710	0.283
711	0.282
711	0.28
712	0.278
712	0.277
713	0.275
713	0.273
713	0.272
714	0.27
714	0.268
715	0.267
715	0.265
716	0.263
716	0.261
716	0.259
717	0.258
717	0.256
718	0.254
718	0.252
719	0.251
719	0.249
720	0.247
720	0.244
720	0.242
721	0.24
721	0.238
722	0.235
722	0.233
723	0.231
723	0.229
723	0.227
724	0.225
724	0.223
725	0.221
725	0.22
726	0.218
726	0.217
727	0.215
727	0.214
727	0.213
728	0.211
728	0.21
729	0.209
729	0.208
730	0.206
730	0.205
730	0.204
731	0.202
731	0.201
732	0.199
732	0.197
733	0.196
733	0.195
734	0.193
734	0.191
734	0.19
735	0.189
735	0.187
736	0.186
736	0.185
737	0.184
737	0.182
737	0.18
738	0.178
738	0.175
739	0.173
739	0.171
740	0.169
740	0.168
741	0.166
741	0.163
741	0.161
742	0.159
742	0.158
743	0.157
743	0.156
744	0.155
744	0.153
744	0.152
745	0.15
745	0.149
746	0.148
746	0.147
747	0.146
747	0.145
748	0.144
748	0.142
748	0.141
749	0.14
749	0.14
750	0.139
750	0.138
751	0.137
751	0.137
751	0.136
752	0.135
752	0.134
753	0.134
753	0.133
754	0.132
754	0.131
754	0.13
755	0.129
755	0.128
756	0.126
756	0.125
757	0.124
757	0.123
758	0.122
758	0.121
758	0.12
759	0.119
759	0.118
760	0.117
760	0.116
761	0.116
761	0.117
761	0.116
762	0.116
762	0.116
763	0.115
763	0.114
764	0.113
764	0.112
764	0.111
765	0.11
765	0.109
766	0.109
766	0.108
767	0.107
767	0.106
768	0.105
768	0.104
768	0.104
769	0.104
769	0.103
770	0.102
770	0.102
771	0.101
771	0.099
771	0.098
772	0.098
772	0.097
773	0.096
773	0.095
774	0.095
774	0.094
775	0.093
775	0.092
775	0.091
776	0.09
776	0.09
777	0.088
777	0.088
778	0.086
778	0.086
778	0.085
779	0.085
779	0.084
780	0.083
780	0.082
781	0.082
781	0.081
781	0.08
782	0.078
782	0.077
783	0.077
783	0.075
784	0.074
784	0.072
784	0.071
785	0.07
785	0.07
786	0.069
786	0.07
787	0.07
787	0.07
788	0.069
788	0.069
788	0.069
789	0.07
789	0.07
790	0.07
790	0.07
791	0.07
791	0.07
791	0.07
792	0.07
792	0.069
793	0.068
793	0.068
794	0.067
794	0.067
794	0.067
795	0.066
795	0.066
796	0.066
796	0.065
797	0.064
797	0.063
797	0.063
798	0.062
798	0.062
799	0.061
799	0.06
800	0.059
800	0.058
801	0.057
801	0.056
801	0.055
802	0.054
802	0.053
803	0.052
803	0.051
804	0.051
804	0.05
804	0.05
805	0.05
805	0.051
806	0.051
806	0.052
807	0.053
807	0.053
807	0.054
808	0.055
808	0.055
809	0.055
809	0.056
810	0.056
810	0.056
810	0.056
811	0.057
811	0.058
812	0.058
812	0.058
813	0.059
813	0.059
813	0.058
814	0.058
814	0.058
815	0.057
815	0.056
816	0.055
816	0.053
817	0.052
817	0.052
817	0.051
818	0.05
818	0.05
819	0.049
819	0.047
820	0.047
820	0.046
820	0.046
821	0.045
821	0.045
822	0.045
822	0.044
823	0.044
823	0.044
823	0.044
824	0.044
824	0.044
825	0.044
825	0.044
826	0.043
826	0.042
826	0.042
827	0.042
827	0.041
828	0.04
828	0.04
829	0.04
829	0.04
829	0.04
830	0.04
830	0.04
831	0.04
831	0.04
832	0.04
832	0.04
832	0.04
833	0.039
833	0.038
834	0.038
834	0.037
835	0.036
835	0.036
835	0.035
836	0.035
836	0.034
837	0.034
837	0.034
838	0.034
838	0.034
839	0.034
839	0.034
839	0.034
840	0.035
840	0.035
841	0.036
841	0.036
842	0.037
842	0.037
842	0.037
843	0.037
843	0.037
844	0.037
844	0.036
845	0.036
845	0.036
845	0.035
846	0.034
846	0.033
847	0.033
847	0.032
848	0.032
848	0.031
848	0.031
849	0.03
849	0.029
850	0.029
850	0.028
851	0.028
851	0.027
851	0.027
852	0.026
852	0.026
853	0.026
853	0.026
854	0.026
854	0.026
854	0.026
855	0.027
855	0.026
856	0.027
856	0.027
857	0.027
857	0.028
857	0.028
858	0.028
858	0.028
859	0.028
859	0.028
860	0.028
860	0.028
860	0.028
861	0.028
861	0.028
862	0.028
862	0.028
863	0.027
863	0.027
863	0.026
864	0.026
864	0.025
865	0.024
865	0.024
866	0.023
866	0.022
866	0.021
867	0.021
867	0.021
868	0.021
868	0.021
869	0.021
869	0.021
869	0.022
870	0.022
870	0.022
871	0.022
871	0.022
872	0.021
872	0.02
872	0.02
873	0.019
873	0.018
874	0.017
874	0.016
875	0.015
875	0.014
875	0.013
876	0.012
876	0.011
877	0.01
877	0.01
878	0.009
878	0.009
878	0.009
879	0.009
879	0.009
880	0.01
880	0.01
881	0.011
881	0.012
881	0.013
882	0.014
882	0.016
883	0.017
883	0.018
884	0.019
884	0.02
884	0.02
885	0.021
885	0.021
886	0.022
886	0.022
887	0.022
887	0.021
887	0.022
888	0.022
888	0.022
889	0.022
889	0.023
890	0.024
890	0.024
890	0.025
891	0.025
891	0.025
892	0.025
892	0.025
893	0.025
893	0.024
893	0.023
894	0.022
894	0.021
895	0.02
895	0.019
895	0.017
896	0.016
896	0.015
897	0.014
897	0.013
898	0.012
898	0.011
898	0.011
899	0.01
899	0.01
900	0.009
900	0.009
901	0.009
901	0.008
901	0.008
902	0.008
902	0.008
903	0.008
903	0.007
904	0.007
904	0.006
904	0.006
905	0.005
905	0.005
906	0.004
906	0.004
907	0.003
907	0.003
907	0.003
908	0.003
908	0.003
909	0.003
909	0.004
910	0.004
910	0.005
910	0.006
911	0.007
911	0.007
912	0.008
912	0.008
913	0.008
913	0.008
913	0.008
914	0.007
914	0.006
915	0.005
915	0.004
916	0.003
916	0.003
916	0.002
917	0.002
917	0.002
918	0.002
918	0.002
918	0.003
919	0.003
919	0.004
920	0.005
920	0.006
921	0.006
921	0.007
921	0.007
922	0.007
922	0.008
923	0.008
923	0.008
924	0.007
924	0.007
924	0.007
925	0.006
925	0.006
926	0.006
926	0.005
927	0.005
927	0.005
927	0.004
928	0.004
928	0.004
929	0.004
929	0.003
930	0.003
930	0.003
930	0.003
931	0.002
931	0.002
932	0.002
932	0.001
933	0.001
933	0.001
933	0.001
934	0.001
934	0
935	0
935	0
935	-0
936	-0
936	-0
937	-0.001
937	-0.001
938	-0.001
938	-0.002
938	-0.002
939	-0.002
939	-0.002
940	-0.002
940	-0.001
941	-0.001
941	-0
941	0.001
942	0.001
942	0.002
943	0.002
943	0.002
944	0.002
944	0.002
944	0.002
945	0.002
945	0.002
946	0.001
946	0.001
946	0.001
947	0.001
947	0.001
948	0.002
948	0.002
949	0.002
949	0.003
949	0.003
950	0.004
950	0.004
951	0.005
951	0.005
952	0.005
952	0.005
952	0.005
953	0.004
953	0.004
954	0.004
954	0.003
955	0.003
955	0.003
955	0.002
956	0.002
956	0.002
957	0.001
957	0
957	-0
958	-0.001
958	-0.002
959	-0.003
959	-0.003
960	-0.004
960	-0.005
960	-0.005
961	-0.006
961	-0.006
962	-0.006
962	-0.006
963	-0.005
963	-0.004
963	-0.003
964	-0.003
964	-0.002
965	-0.001
965	-0
966	0.001
966	0.002
966	0.003
967	0.003
967	0.004
968	0.004
968	0.004
968	0.004
969	0.004
969	0.004
970	0.004
970	0.004
971	0.004
971	0.003
971	0.003
972	0.003
972	0.002
973	0.002
973	0.001
974	0.001
974	0
974	-0
975	-0.001
975	-0.002
976	-0.003
976	-0.004
976	-0.005
977	-0.006
977	-0.007
978	-0.008
978	-0.008
979	-0.009
979	-0.009
979	-0.009
980	-0.009
980	-0.009
981	-0.009
981	-0.008
982	-0.007
982	-0.006
982	-0.005
983	-0.004
983	-0.003
984	-0.002
984	-0.001
984	-0.001
985	-0
985	0
986	-0
986	-0.001
987	-0.001
987	-0.002
987	-0.003
988	-0.004
988	-0.006
989	-0.008
989	-0.009
990	-0.011
990	-0.013
990	-0.015
991	-0.016
991	-0.017
992	-0.019
992	-0.02
992	-0.021
993	-0.023
993	-0.024
994	-0.025
994	-0.026
995	-0.026
995	-0.026
995	-0.027
996	-0.027
996	-0.027
997	-0.027
997	-0.026
997	-0.026
998	-0.025
998	-0.024
999	-0.022
999	-0.021
1000	-0.02
1000	-0.018
1000	-0.017
1001	-0.016
1001	-0.014
1002	-0.013
1002	-0.012
1003	-0.01
1003	-0.01
1003	-0.009
1004	-0.008
1004	-0.008
1005	-0.007
1005	-0.007
1005	-0.007
1006	-0.007
1006	-0.007
1007	-0.007
1007	-0.007
1008	-0.007
1008	-0.007
1008	-0.006
1009	-0.006
1009	-0.006
1010	-0.006
1010	-0.005
1010	-0.005
1011	-0.005
1011	-0.005
1012	-0.005
1012	-0.006
1013	-0.006
1013	-0.007
1013	-0.008
1014	-0.009
1014	-0.01
1015	-0.011
1015	-0.012
1016	-0.013
1016	-0.014
1016	-0.014
1017	-0.015
1017	-0.016
1018	-0.016
1018	-0.016
1018	-0.016
1019	-0.016
1019	-0.016
1020	-0.016
1020	-0.016
1021	-0.016
1021	-0.016
1021	-0.016
1022	-0.016
1022	-0.016
1023	-0.017
1023	-0.017
1023	-0.018
1024	-0.019
1024	-0.02
1025	-0.021
1025	-0.022
1026	-0.022
1026	-0.023
1026	-0.024
1027	-0.024
1027	-0.025
1028	-0.025
1028	-0.025
1028	-0.025
1029	-0.025
1029	-0.024
1030	-0.024
1030	-0.024
1031	-0.024
1031	-0.024
1031	-0.024
1032	-0.023
1032	-0.024
1033	-0.024
1033	-0.024
1033	-0.025
1034	-0.026
1034	-0.027
1035	-0.028
1035	-0.029
1036	-0.03
1036	-0.031
1036	-0.032
1037	-0.032
1037	-0.033
1038	-0.034
1038	-0.034
1039	-0.034
1039	-0.033
1039	-0.033
1040	-0.033
1040	-0.033
1041	-0.033
1041	-0.034
1041	-0.034
1042	-0.034
1042	-0.035
1043	-0.035
1043	-0.035
1044	-0.035
1044	-0.036
1044	-0.036
1045	-0.036
1045	-0.036
1046	-0.035
1046	-0.035
1046	-0.034
1047	-0.033
1047	-0.033
1048	-0.032
1048	-0.032
1049	-0.031
1049	-0.031
1049	-0.031
1050	-0.031
1050	-0.031
1051	-0.031
1051	-0.031
1051	-0.031
1052	-0.031
1052	-0.031
1053	-0.03
1053	-0.03
1053	-0.03
1054	-0.03
1054	-0.029
1055	-0.028
1055	-0.028
1056	-0.028
1056	-0.028
1056	-0.029
1057	-0.03
1057	-0.03
1058	-0.031
1058	-0.031
1058	-0.032
1059	-0.032
1059	-0.033
1060	-0.034
1060	-0.034
1061	-0.035
1061	-0.035
1061	-0.035
1062	-0.036
1062	-0.037
1063	-0.037
1063	-0.039
1063	-0.04
1064	-0.04
1064	-0.041
1065	-0.041
1065	-0.042
1066	-0.043
1066	-0.044
1066	-0.045
1067	-0.045
1067	-0.045
1068	-0.046
1068	-0.046
1068	-0.047
1069	-0.048
1069	-0.049
1070	-0.049
1070	-0.05
1071	-0.05
1071	-0.051
1071	-0.052
1072	-0.052
1072	-0.052
1073	-0.053
1073	-0.052
1073	-0.053
1074	-0.052
1074	-0.052
1075	-0.052
1075	-0.053
1076	-0.053
1076	-0.053
1076	-0.054
1077	-0.054
1077	-0.054
1078	-0.055
1078	-0.055
1078	-0.055
1079	-0.056
1079	-0.056
1080	-0.056
1080	-0.056
1080	-0.056
1081	-0.056
1081	-0.055
1082	-0.055
1082	-0.056
1083	-0.056
1083	-0.056
1083	-0.056
1084	-0.056
1084	-0.056
1085	-0.056
1085	-0.056
1085	-0.056
1086	-0.056
1086	-0.057
1087	-0.057
1087	-0.057
1088	-0.058
1088	-0.058
1088	-0.058
1089	-0.059
1089	-0.06
1090	-0.062
1090	-0.063
1090	-0.064
1091	-0.065
1091	-0.066
1092	-0.067
1092	-0.068
1092	-0.069
1093	-0.07
1093	-0.07
1094	-0.071
1094	-0.071
1095	-0.072
1095	-0.072
1095	-0.073
1096	-0.074
1096	-0.074
1097	-0.074
1097	-0.076
1097	-0.077
1098	-0.078
1098	-0.079
1099	-0.08
1099	-0.081
1100	-0.082
1100	-0.084
1100	-0.085
1101	-0.087
1101	-0.089
1102	-0.09
1102	-0.092
1102	-0.094
1103	-0.096
1103	-0.098
1104	-0.099
1104	-0.101
1104	-0.101
1105	-0.102
1105	-0.104
1106	-0.106
1106	-0.108
1107	-0.112
1107	-0.114
1107	-0.117
1108	-0.118
1108	-0.12
1109	-0.122
1109	-0.127
1109	-0.13
1110	-0.13
1110	-0.134
1111	-0.14
1111	-0.137
