Data from 17c-100ul-ns-20ul-nr-full-exp'4ul'bp_Absorbance__611__01081.txt Node

Date: Mon Jan 15 10:00:40 CET 2024
User: Marek
Spectrometer: MAYP115816
Trigger mode: 0
Integration Time (sec): 2.000000E-1
Scans to average: 10
Electric dark correction enabled: true
Nonlinearity correction enabled: true
Boxcar width: 5
XAxis mode: Wavelengths
Number of Pixels in Spectrum: 2068
>>>>>Begin Spectral Data<<<<<
199	-0.483
199	-0.461
200	-0.39
200	-0.328
201	-0.29
201	-0.265
202	-0.242
202	-0.239
203	-0.232
203	-0.23
204	-0.214
204	-0.201
205	-0.186
205	-0.18
205	-0.183
206	-0.184
206	-0.189
207	-0.187
207	-0.188
208	-0.189
208	-0.188
209	-0.188
209	-0.192
210	-0.195
210	-0.195
211	-0.195
211	-0.196
212	-0.197
212	-0.198
213	-0.198
213	-0.197
213	-0.201
214	-0.201
214	-0.201
215	-0.199
215	-0.203
216	-0.205
216	-0.209
217	-0.208
217	-0.209
218	-0.209
218	-0.205
219	-0.201
219	-0.202
220	-0.201
220	-0.202
221	-0.2
221	-0.199
221	-0.193
222	-0.19
222	-0.187
223	-0.182
223	-0.182
224	-0.181
224	-0.173
225	-0.166
225	-0.158
226	-0.153
226	-0.142
227	-0.131
227	-0.123
228	-0.11
228	-0.098
229	-0.082
229	-0.059
229	-0.04
230	-0.018
230	0.006
231	0.031
231	0.054
232	0.074
232	0.099
233	0.121
233	0.144
234	0.163
234	0.18
235	0.196
235	0.211
236	0.225
236	0.238
236	0.249
237	0.26
237	0.268
238	0.278
238	0.285
239	0.292
239	0.298
240	0.303
240	0.307
241	0.31
241	0.314
242	0.317
242	0.319
243	0.322
243	0.324
243	0.325
244	0.327
244	0.329
245	0.33
245	0.331
246	0.332
246	0.334
247	0.335
247	0.336
248	0.337
248	0.338
249	0.339
249	0.34
250	0.34
250	0.341
250	0.342
251	0.343
251	0.343
252	0.344
252	0.344
253	0.344
253	0.345
254	0.345
254	0.346
255	0.346
255	0.346
256	0.346
256	0.346
257	0.347
257	0.347
258	0.347
258	0.347
258	0.347
259	0.346
259	0.346
260	0.346
260	0.346
261	0.345
261	0.345
262	0.344
262	0.344
263	0.343
263	0.342
264	0.341
264	0.341
265	0.34
265	0.339
265	0.338
266	0.337
266	0.336
267	0.335
267	0.334
268	0.333
268	0.332
269	0.331
269	0.33
270	0.328
270	0.327
271	0.325
271	0.324
272	0.323
272	0.322
272	0.32
273	0.319
273	0.317
274	0.316
274	0.315
275	0.313
275	0.312
276	0.31
276	0.309
277	0.307
277	0.306
278	0.305
278	0.304
278	0.303
279	0.301
279	0.299
280	0.298
280	0.296
281	0.295
281	0.293
282	0.292
282	0.29
283	0.288
283	0.287
284	0.285
284	0.284
285	0.283
285	0.281
285	0.28
286	0.279
286	0.278
287	0.277
287	0.275
288	0.274
288	0.273
289	0.272
289	0.271
290	0.27
290	0.269
291	0.268
291	0.267
292	0.266
292	0.265
292	0.264
293	0.263
293	0.262
294	0.261
294	0.26
295	0.259
295	0.258
296	0.258
296	0.257
297	0.256
297	0.256
298	0.255
298	0.254
298	0.253
299	0.252
299	0.252
300	0.251
300	0.25
301	0.25
301	0.249
302	0.248
302	0.248
303	0.247
303	0.247
304	0.246
304	0.246
305	0.245
305	0.245
305	0.244
306	0.243
306	0.243
307	0.242
307	0.242
308	0.241
308	0.24
309	0.24
309	0.239
310	0.239
310	0.238
311	0.237
311	0.237
311	0.236
312	0.236
312	0.235
313	0.234
313	0.234
314	0.233
314	0.232
315	0.232
315	0.231
316	0.231
316	0.23
317	0.23
317	0.229
318	0.229
318	0.228
318	0.228
319	0.227
319	0.227
320	0.226
320	0.226
321	0.225
321	0.224
322	0.224
322	0.223
323	0.223
323	0.222
324	0.221
324	0.221
324	0.22
325	0.22
325	0.219
326	0.218
326	0.218
327	0.218
327	0.217
328	0.216
328	0.216
329	0.215
329	0.215
330	0.214
330	0.214
330	0.213
331	0.213
331	0.212
332	0.212
332	0.211
333	0.211
333	0.21
334	0.209
334	0.209
335	0.209
335	0.208
336	0.208
336	0.207
336	0.207
337	0.206
337	0.206
338	0.205
338	0.205
339	0.205
339	0.204
340	0.203
340	0.203
341	0.203
341	0.202
342	0.202
342	0.202
342	0.201
343	0.201
343	0.2
344	0.2
344	0.2
345	0.2
345	0.199
346	0.199
346	0.198
347	0.198
347	0.198
348	0.198
348	0.198
348	0.198
349	0.197
349	0.197
350	0.197
350	0.197
351	0.197
351	0.196
352	0.196
352	0.196
353	0.196
353	0.195
354	0.195
354	0.195
354	0.195
355	0.195
355	0.194
356	0.194
356	0.195
357	0.194
357	0.194
358	0.194
358	0.194
359	0.194
359	0.194
360	0.193
360	0.193
360	0.193
361	0.192
361	0.192
362	0.192
362	0.192
363	0.192
363	0.192
364	0.191
364	0.191
365	0.191
365	0.191
366	0.191
366	0.191
366	0.191
367	0.191
367	0.191
368	0.191
368	0.191
369	0.191
369	0.191
370	0.191
370	0.19
371	0.19
371	0.19
372	0.19
372	0.19
372	0.19
373	0.19
373	0.19
374	0.19
374	0.19
375	0.19
375	0.189
376	0.189
376	0.189
377	0.189
377	0.189
378	0.189
378	0.189
378	0.189
379	0.188
379	0.188
380	0.188
380	0.188
381	0.188
381	0.188
382	0.188
382	0.188
383	0.188
383	0.187
383	0.187
384	0.187
384	0.187
385	0.187
385	0.186
386	0.186
386	0.186
387	0.186
387	0.186
388	0.185
388	0.185
389	0.185
389	0.185
389	0.185
390	0.185
390	0.185
391	0.185
391	0.185
392	0.185
392	0.185
393	0.185
393	0.185
394	0.184
394	0.184
394	0.184
395	0.184
395	0.183
396	0.183
396	0.183
397	0.183
397	0.183
398	0.182
398	0.182
399	0.182
399	0.182
400	0.182
400	0.182
400	0.182
401	0.181
401	0.181
402	0.181
402	0.18
403	0.18
403	0.18
404	0.18
404	0.18
405	0.18
405	0.18
405	0.18
406	0.18
406	0.179
407	0.179
407	0.179
408	0.179
408	0.179
409	0.179
409	0.179
410	0.178
410	0.178
411	0.178
411	0.178
411	0.178
412	0.177
412	0.177
413	0.177
413	0.177
414	0.176
414	0.176
415	0.176
415	0.175
416	0.175
416	0.175
416	0.175
417	0.175
417	0.174
418	0.174
418	0.174
419	0.174
419	0.175
420	0.174
420	0.174
421	0.174
421	0.174
421	0.174
422	0.174
422	0.174
423	0.174
423	0.173
424	0.173
424	0.173
425	0.173
425	0.173
426	0.173
426	0.173
427	0.173
427	0.173
427	0.173
428	0.173
428	0.173
429	0.173
429	0.173
430	0.173
430	0.172
431	0.172
431	0.172
432	0.172
432	0.172
432	0.172
433	0.171
433	0.171
434	0.171
434	0.171
435	0.171
435	0.171
436	0.171
436	0.17
437	0.17
437	0.17
437	0.17
438	0.17
438	0.17
439	0.17
439	0.169
440	0.169
440	0.169
441	0.169
441	0.169
442	0.169
442	0.169
442	0.169
443	0.168
443	0.168
444	0.168
444	0.168
445	0.169
445	0.169
446	0.169
446	0.169
447	0.169
447	0.168
447	0.169
448	0.169
448	0.169
449	0.168
449	0.168
450	0.168
450	0.168
451	0.167
451	0.167
452	0.167
452	0.168
452	0.167
453	0.167
453	0.167
454	0.167
454	0.167
455	0.167
455	0.168
456	0.168
456	0.168
457	0.168
457	0.168
458	0.168
458	0.168
458	0.168
459	0.169
459	0.168
460	0.168
460	0.168
461	0.168
461	0.168
462	0.168
462	0.168
463	0.168
463	0.168
463	0.168
464	0.168
464	0.168
465	0.168
465	0.169
466	0.169
466	0.169
467	0.169
467	0.169
467	0.169
468	0.169
468	0.169
469	0.169
469	0.169
470	0.169
470	0.169
471	0.17
471	0.17
472	0.17
472	0.171
472	0.171
473	0.172
473	0.172
474	0.172
474	0.172
475	0.173
475	0.173
476	0.173
476	0.173
477	0.173
477	0.173
477	0.174
478	0.174
478	0.174
479	0.174
479	0.174
480	0.174
480	0.175
481	0.176
481	0.176
482	0.177
482	0.178
482	0.179
483	0.18
483	0.182
484	0.182
484	0.182
485	0.183
485	0.184
486	0.184
486	0.184
487	0.185
487	0.185
487	0.186
488	0.187
488	0.187
489	0.188
489	0.19
490	0.191
490	0.192
491	0.193
491	0.194
492	0.195
492	0.196
492	0.197
493	0.198
493	0.199
494	0.201
494	0.203
495	0.204
495	0.205
496	0.207
496	0.208
496	0.21
497	0.211
497	0.212
498	0.214
498	0.215
499	0.216
499	0.217
500	0.218
500	0.22
501	0.221
501	0.222
501	0.223
502	0.224
502	0.225
503	0.227
503	0.228
504	0.229
504	0.23
505	0.231
505	0.232
506	0.234
506	0.236
506	0.237
507	0.238
507	0.24
508	0.241
508	0.243
509	0.245
509	0.246
510	0.247
510	0.249
511	0.25
511	0.251
511	0.252
512	0.254
512	0.255
513	0.255
513	0.256
514	0.257
514	0.258
515	0.259
515	0.26
515	0.261
516	0.262
516	0.263
517	0.264
517	0.264
518	0.265
518	0.266
519	0.266
519	0.267
520	0.267
520	0.268
520	0.269
521	0.269
521	0.269
522	0.27
522	0.27
523	0.271
523	0.271
524	0.272
524	0.272
524	0.272
525	0.273
525	0.273
526	0.273
526	0.273
527	0.273
527	0.273
528	0.273
528	0.273
529	0.273
529	0.273
529	0.273
530	0.273
530	0.272
531	0.272
531	0.272
532	0.271
532	0.271
533	0.27
533	0.27
533	0.269
534	0.268
534	0.268
535	0.267
535	0.267
536	0.267
536	0.266
537	0.265
537	0.265
538	0.264
538	0.263
538	0.262
539	0.262
539	0.261
540	0.261
540	0.259
541	0.258
541	0.257
542	0.257
542	0.256
542	0.255
543	0.254
543	0.253
544	0.252
544	0.252
545	0.251
545	0.25
546	0.249
546	0.248
547	0.246
547	0.245
547	0.244
548	0.243
548	0.242
549	0.241
549	0.24
550	0.238
550	0.237
551	0.236
551	0.235
551	0.234
552	0.233
552	0.232
553	0.231
553	0.23
554	0.229
554	0.227
555	0.226
555	0.225
556	0.224
556	0.223
556	0.222
557	0.221
557	0.22
558	0.219
558	0.218
559	0.217
559	0.216
560	0.214
560	0.213
560	0.213
561	0.212
561	0.211
562	0.21
562	0.208
563	0.207
563	0.206
564	0.204
564	0.203
564	0.202
565	0.201
565	0.2
566	0.199
566	0.198
567	0.197
567	0.197
568	0.196
568	0.195
568	0.195
569	0.194
569	0.193
570	0.192
570	0.19
571	0.19
571	0.189
572	0.187
572	0.186
573	0.185
573	0.183
573	0.182
574	0.181
574	0.181
575	0.181
575	0.181
576	0.18
576	0.178
577	0.177
577	0.176
577	0.176
578	0.176
578	0.176
579	0.176
579	0.175
580	0.173
580	0.171
581	0.169
581	0.169
581	0.169
582	0.169
582	0.169
583	0.169
583	0.168
584	0.165
584	0.164
585	0.164
585	0.164
585	0.164
586	0.164
586	0.163
587	0.161
587	0.16
588	0.159
588	0.158
589	0.159
589	0.159
590	0.158
590	0.158
590	0.159
591	0.158
591	0.157
592	0.156
592	0.155
593	0.155
593	0.154
594	0.153
594	0.152
594	0.152
595	0.151
595	0.151
596	0.151
596	0.152
597	0.154
597	0.153
598	0.153
598	0.153
598	0.153
599	0.152
599	0.151
600	0.15
600	0.149
601	0.148
601	0.147
602	0.145
602	0.144
602	0.143
603	0.143
603	0.143
604	0.142
604	0.142
605	0.143
605	0.143
606	0.143
606	0.142
606	0.142
607	0.141
607	0.141
608	0.141
608	0.139
609	0.139
609	0.139
610	0.139
610	0.138
610	0.139
611	0.139
611	0.14
612	0.14
612	0.141
613	0.141
613	0.141
614	0.14
614	0.139
614	0.139
615	0.138
615	0.138
616	0.138
616	0.138
617	0.137
617	0.137
618	0.137
618	0.137
618	0.137
619	0.138
619	0.139
620	0.14
620	0.14
621	0.14
621	0.14
622	0.14
622	0.14
622	0.139
623	0.139
623	0.14
624	0.14
624	0.139
625	0.139
625	0.139
626	0.139
626	0.139
626	0.14
627	0.141
627	0.142
628	0.143
628	0.143
629	0.144
629	0.145
630	0.145
630	0.146
630	0.147
631	0.148
631	0.148
632	0.149
632	0.15
633	0.151
633	0.152
634	0.154
634	0.155
634	0.156
635	0.157
635	0.157
636	0.158
636	0.158
637	0.159
637	0.159
638	0.16
638	0.161
638	0.162
639	0.162
639	0.163
640	0.164
640	0.165
641	0.166
641	0.167
642	0.169
642	0.17
642	0.171
643	0.172
643	0.173
644	0.174
644	0.175
645	0.177
645	0.178
646	0.179
646	0.181
646	0.183
647	0.184
647	0.186
648	0.187
648	0.189
649	0.191
649	0.193
650	0.195
650	0.197
650	0.198
651	0.2
651	0.202
652	0.204
652	0.207
653	0.21
653	0.215
653	0.217
654	0.171
654	0.137
655	0.141
655	0.143
656	0.144
656	0.145
657	0.147
657	0.148
657	0.149
658	0.147
658	0.142
659	0.181
659	0.236
660	0.243
660	0.245
661	0.248
661	0.251
661	0.254
662	0.257
662	0.26
663	0.262
663	0.264
664	0.266
664	0.268
665	0.27
665	0.273
665	0.275
666	0.277
666	0.279
667	0.282
667	0.284
668	0.286
668	0.289
669	0.292
669	0.295
669	0.298
670	0.3
670	0.302
671	0.304
671	0.307
672	0.309
672	0.311
672	0.313
673	0.315
673	0.317
674	0.319
674	0.32
675	0.322
675	0.324
676	0.326
676	0.327
676	0.328
677	0.329
677	0.329
678	0.329
678	0.33
679	0.33
679	0.331
680	0.332
680	0.333
680	0.333
681	0.334
681	0.335
682	0.336
682	0.337
683	0.338
683	0.339
684	0.34
684	0.34
684	0.341
685	0.342
685	0.342
686	0.342
686	0.342
687	0.343
687	0.343
687	0.343
688	0.343
688	0.343
689	0.343
689	0.343
690	0.342
690	0.342
691	0.341
691	0.341
691	0.34
692	0.339
692	0.338
693	0.338
693	0.337
694	0.336
694	0.335
695	0.335
695	0.336
695	0.335
696	0.334
696	0.334
697	0.333
697	0.332
698	0.331
698	0.331
698	0.329
699	0.328
699	0.326
700	0.325
700	0.323
701	0.321
701	0.319
702	0.318
702	0.316
702	0.314
703	0.312
703	0.31
704	0.309
704	0.307
705	0.306
705	0.304
705	0.303
706	0.301
706	0.3
707	0.298
707	0.297
708	0.295
708	0.294
709	0.292
709	0.29
709	0.288
710	0.286
710	0.285
711	0.283
711	0.282
712	0.28
712	0.279
713	0.277
713	0.276
713	0.274
714	0.273
714	0.271
715	0.27
715	0.268
716	0.267
716	0.265
716	0.263
717	0.262
717	0.26
718	0.258
718	0.256
719	0.255
719	0.253
720	0.251
720	0.249
720	0.247
721	0.245
721	0.243
722	0.24
722	0.238
723	0.236
723	0.234
723	0.232
724	0.23
724	0.228
725	0.227
725	0.225
726	0.224
726	0.223
727	0.221
727	0.22
727	0.219
728	0.217
728	0.216
729	0.216
729	0.214
730	0.213
730	0.212
730	0.21
731	0.209
731	0.208
732	0.207
732	0.205
733	0.204
733	0.202
734	0.201
734	0.199
734	0.198
735	0.197
735	0.195
736	0.194
736	0.192
737	0.191
737	0.19
737	0.188
738	0.185
738	0.183
739	0.182
739	0.18
740	0.177
740	0.176
741	0.174
741	0.172
741	0.169
742	0.167
742	0.167
743	0.166
743	0.164
744	0.163
744	0.162
744	0.161
745	0.16
745	0.158
746	0.158
746	0.157
747	0.156
747	0.155
748	0.154
748	0.152
748	0.151
749	0.15
749	0.15
750	0.149
750	0.148
751	0.148
751	0.147
751	0.147
752	0.146
752	0.145
753	0.145
753	0.144
754	0.143
754	0.142
754	0.141
755	0.14
755	0.139
756	0.137
756	0.135
757	0.134
757	0.134
758	0.133
758	0.132
758	0.131
759	0.13
759	0.129
760	0.128
760	0.128
761	0.128
761	0.128
761	0.128
762	0.127
762	0.127
763	0.126
763	0.125
764	0.124
764	0.124
764	0.123
765	0.122
765	0.121
766	0.12
766	0.12
767	0.119
767	0.117
768	0.116
768	0.116
768	0.116
769	0.115
769	0.114
770	0.114
770	0.113
771	0.112
771	0.111
771	0.11
772	0.109
772	0.108
773	0.108
773	0.107
774	0.106
774	0.106
775	0.105
775	0.104
775	0.103
776	0.102
776	0.102
777	0.101
777	0.1
778	0.099
778	0.098
778	0.097
779	0.097
779	0.096
780	0.096
780	0.095
781	0.094
781	0.093
781	0.092
782	0.091
782	0.09
783	0.089
783	0.088
784	0.086
784	0.085
784	0.084
785	0.083
785	0.082
786	0.082
786	0.082
787	0.082
787	0.082
788	0.082
788	0.082
788	0.082
789	0.082
789	0.083
790	0.083
790	0.083
791	0.083
791	0.082
791	0.082
792	0.083
792	0.082
793	0.081
793	0.081
794	0.08
794	0.08
794	0.08
795	0.08
795	0.08
796	0.079
796	0.078
797	0.077
797	0.077
797	0.077
798	0.076
798	0.076
799	0.075
799	0.074
800	0.073
800	0.071
801	0.07
801	0.07
801	0.068
802	0.067
802	0.066
803	0.065
803	0.064
804	0.064
804	0.063
804	0.063
805	0.063
805	0.064
806	0.064
806	0.065
807	0.065
807	0.066
807	0.067
808	0.067
808	0.067
809	0.068
809	0.068
810	0.069
810	0.069
810	0.069
811	0.07
811	0.071
812	0.072
812	0.072
813	0.072
813	0.072
813	0.072
814	0.072
814	0.071
815	0.07
815	0.069
816	0.068
816	0.067
817	0.066
817	0.065
817	0.064
818	0.063
818	0.063
819	0.062
819	0.061
820	0.06
820	0.059
820	0.059
821	0.058
821	0.058
822	0.058
822	0.058
823	0.057
823	0.057
823	0.057
824	0.056
824	0.056
825	0.056
825	0.056
826	0.056
826	0.055
826	0.055
827	0.054
827	0.054
828	0.053
828	0.053
829	0.053
829	0.053
829	0.052
830	0.052
830	0.052
831	0.053
831	0.053
832	0.052
832	0.052
832	0.052
833	0.052
833	0.051
834	0.051
834	0.05
835	0.049
835	0.048
835	0.047
836	0.047
836	0.046
837	0.046
837	0.045
838	0.045
838	0.046
839	0.046
839	0.046
839	0.046
840	0.047
840	0.047
841	0.047
841	0.048
842	0.049
842	0.049
842	0.049
843	0.049
843	0.048
844	0.048
844	0.048
845	0.047
845	0.047
845	0.046
846	0.045
846	0.045
847	0.044
847	0.043
848	0.043
848	0.042
848	0.042
849	0.041
849	0.041
850	0.04
850	0.039
851	0.039
851	0.039
851	0.038
852	0.038
852	0.038
853	0.038
853	0.038
854	0.038
854	0.038
854	0.038
855	0.038
855	0.038
856	0.038
856	0.038
857	0.039
857	0.039
857	0.039
858	0.039
858	0.039
859	0.039
859	0.039
860	0.039
860	0.039
860	0.039
861	0.04
861	0.04
862	0.039
862	0.039
863	0.039
863	0.039
863	0.038
864	0.038
864	0.037
865	0.036
865	0.035
866	0.034
866	0.033
866	0.032
867	0.032
867	0.032
868	0.032
868	0.031
869	0.032
869	0.032
869	0.032
870	0.032
870	0.033
871	0.033
871	0.032
872	0.032
872	0.031
872	0.03
873	0.029
873	0.028
874	0.027
874	0.026
875	0.025
875	0.024
875	0.024
876	0.023
876	0.022
877	0.022
877	0.021
878	0.021
878	0.021
878	0.021
879	0.021
879	0.021
880	0.021
880	0.021
881	0.022
881	0.023
881	0.024
882	0.025
882	0.026
883	0.027
883	0.028
884	0.029
884	0.03
884	0.03
885	0.031
885	0.032
886	0.032
886	0.032
887	0.032
887	0.032
887	0.032
888	0.032
888	0.033
889	0.033
889	0.034
890	0.034
890	0.035
890	0.035
891	0.035
891	0.035
892	0.035
892	0.035
893	0.034
893	0.034
893	0.033
894	0.032
894	0.031
895	0.03
895	0.029
895	0.028
896	0.026
896	0.026
897	0.025
897	0.024
898	0.023
898	0.022
898	0.022
899	0.021
899	0.021
900	0.02
900	0.02
901	0.019
901	0.019
901	0.019
902	0.019
902	0.018
903	0.018
903	0.017
904	0.017
904	0.017
904	0.016
905	0.016
905	0.015
906	0.014
906	0.014
907	0.013
907	0.013
907	0.013
908	0.013
908	0.013
909	0.013
909	0.013
910	0.014
910	0.015
910	0.016
911	0.016
911	0.017
912	0.017
912	0.018
913	0.018
913	0.018
913	0.017
914	0.017
914	0.016
915	0.016
915	0.015
916	0.014
916	0.013
916	0.013
917	0.012
917	0.012
918	0.012
918	0.013
918	0.013
919	0.014
919	0.014
920	0.015
920	0.016
921	0.016
921	0.016
921	0.016
922	0.016
922	0.016
923	0.016
923	0.016
924	0.016
924	0.015
924	0.015
925	0.015
925	0.015
926	0.015
926	0.014
927	0.014
927	0.014
927	0.013
928	0.013
928	0.013
929	0.013
929	0.013
930	0.013
930	0.012
930	0.012
931	0.012
931	0.011
932	0.011
932	0.011
933	0.011
933	0.01
933	0.01
934	0.01
934	0.01
935	0.009
935	0.009
935	0.009
936	0.009
936	0.008
937	0.008
937	0.008
938	0.008
938	0.008
938	0.007
939	0.007
939	0.008
940	0.008
940	0.008
941	0.009
941	0.01
941	0.01
942	0.011
942	0.011
943	0.012
943	0.012
944	0.012
944	0.012
944	0.012
945	0.011
945	0.011
946	0.01
946	0.01
946	0.01
947	0.01
947	0.009
948	0.01
948	0.01
949	0.01
949	0.011
949	0.011
950	0.012
950	0.012
951	0.012
951	0.012
952	0.012
952	0.012
952	0.012
953	0.012
953	0.012
954	0.012
954	0.011
955	0.011
955	0.011
955	0.01
956	0.01
956	0.01
957	0.009
957	0.008
957	0.007
958	0.007
958	0.006
959	0.005
959	0.005
960	0.004
960	0.003
960	0.003
961	0.002
961	0.002
962	0.002
962	0.002
963	0.003
963	0.003
963	0.004
964	0.005
964	0.006
965	0.006
965	0.007
966	0.008
966	0.009
966	0.01
967	0.011
967	0.011
968	0.011
968	0.012
968	0.012
969	0.012
969	0.011
970	0.011
970	0.011
971	0.011
971	0.011
971	0.01
972	0.01
972	0.009
973	0.009
973	0.008
974	0.008
974	0.008
974	0.007
975	0.006
975	0.005
976	0.004
976	0.004
976	0.003
977	0.002
977	0.001
978	-0
978	-0.001
979	-0.001
979	-0.002
979	-0.001
980	-0.001
980	-0.001
981	-0.001
981	-0.001
982	0
982	0.001
982	0.002
983	0.002
983	0.003
984	0.004
984	0.005
984	0.005
985	0.006
985	0.006
986	0.006
986	0.005
987	0.005
987	0.004
987	0.003
988	0.002
988	0
989	-0.002
989	-0.004
990	-0.005
990	-0.007
990	-0.009
991	-0.01
991	-0.012
992	-0.013
992	-0.014
992	-0.016
993	-0.017
993	-0.017
994	-0.018
994	-0.019
995	-0.019
995	-0.02
995	-0.02
996	-0.02
996	-0.02
997	-0.02
997	-0.02
997	-0.019
998	-0.018
998	-0.017
999	-0.016
999	-0.015
1000	-0.014
1000	-0.012
1000	-0.011
1001	-0.009
1001	-0.008
1002	-0.007
1002	-0.006
1003	-0.004
1003	-0.003
1003	-0.002
1004	-0.002
1004	-0.001
1005	-0.001
1005	-0.001
1005	-0
1006	-0
1006	-0
1007	-0
1007	-0
1008	-0
1008	-0
1008	0
1009	0
1009	0
1010	0.001
1010	0.001
1010	0.001
1011	0.001
1011	0.001
1012	0.001
1012	0
1013	-0
1013	-0.001
1013	-0.002
1014	-0.003
1014	-0.004
1015	-0.005
1015	-0.006
1016	-0.007
1016	-0.008
1016	-0.009
1017	-0.009
1017	-0.01
1018	-0.01
1018	-0.01
1018	-0.01
1019	-0.01
1019	-0.01
1020	-0.01
1020	-0.01
1021	-0.01
1021	-0.01
1021	-0.01
1022	-0.011
1022	-0.011
1023	-0.011
1023	-0.012
1023	-0.013
1024	-0.014
1024	-0.015
1025	-0.016
1025	-0.016
1026	-0.017
1026	-0.018
1026	-0.019
1027	-0.019
1027	-0.019
1028	-0.019
1028	-0.019
1028	-0.019
1029	-0.019
1029	-0.019
1030	-0.018
1030	-0.018
1031	-0.018
1031	-0.018
1031	-0.018
1032	-0.017
1032	-0.018
1033	-0.018
1033	-0.018
1033	-0.019
1034	-0.02
1034	-0.022
1035	-0.023
1035	-0.024
1036	-0.025
1036	-0.026
1036	-0.027
1037	-0.027
1037	-0.028
1038	-0.028
1038	-0.028
1039	-0.028
1039	-0.028
1039	-0.028
1040	-0.028
1040	-0.028
1041	-0.028
1041	-0.028
1041	-0.029
1042	-0.029
1042	-0.03
1043	-0.03
1043	-0.03
1044	-0.031
1044	-0.031
1044	-0.031
1045	-0.031
1045	-0.031
1046	-0.031
1046	-0.031
1046	-0.03
1047	-0.029
1047	-0.028
1048	-0.027
1048	-0.026
1049	-0.026
1049	-0.026
1049	-0.026
1050	-0.025
1050	-0.025
1051	-0.025
1051	-0.026
1051	-0.025
1052	-0.025
1052	-0.025
1053	-0.025
1053	-0.025
1053	-0.025
1054	-0.024
1054	-0.024
1055	-0.023
1055	-0.023
1056	-0.023
1056	-0.023
1056	-0.024
1057	-0.025
1057	-0.025
1058	-0.025
1058	-0.026
1058	-0.026
1059	-0.027
1059	-0.028
1060	-0.029
1060	-0.029
1061	-0.03
1061	-0.03
1061	-0.03
1062	-0.031
1062	-0.032
1063	-0.032
1063	-0.033
1063	-0.034
1064	-0.035
1064	-0.035
1065	-0.036
1065	-0.037
1066	-0.038
1066	-0.039
1066	-0.04
1067	-0.04
1067	-0.041
1068	-0.041
1068	-0.042
1068	-0.043
1069	-0.044
1069	-0.044
1070	-0.045
1070	-0.045
1071	-0.046
1071	-0.046
1071	-0.047
1072	-0.047
1072	-0.047
1073	-0.048
1073	-0.048
1073	-0.048
1074	-0.048
1074	-0.048
1075	-0.048
1075	-0.048
1076	-0.049
1076	-0.049
1076	-0.05
1077	-0.05
1077	-0.05
1078	-0.051
1078	-0.051
1078	-0.051
1079	-0.052
1079	-0.052
1080	-0.052
1080	-0.052
1080	-0.053
1081	-0.052
1081	-0.052
1082	-0.052
1082	-0.052
1083	-0.053
1083	-0.053
1083	-0.052
1084	-0.052
1084	-0.052
1085	-0.052
1085	-0.052
1085	-0.052
1086	-0.052
1086	-0.054
1087	-0.053
1087	-0.053
1088	-0.054
1088	-0.055
1088	-0.056
1089	-0.057
1089	-0.058
1090	-0.059
1090	-0.061
1090	-0.062
1091	-0.063
1091	-0.064
1092	-0.066
1092	-0.066
1092	-0.067
1093	-0.068
1093	-0.068
1094	-0.068
1094	-0.069
1095	-0.07
1095	-0.071
1095	-0.071
1096	-0.071
1096	-0.072
1097	-0.072
1097	-0.074
1097	-0.075
1098	-0.076
1098	-0.076
1099	-0.077
1099	-0.078
1100	-0.079
1100	-0.081
1100	-0.083
1101	-0.085
1101	-0.087
1102	-0.088
1102	-0.09
1102	-0.091
1103	-0.094
1103	-0.095
1104	-0.096
1104	-0.097
1104	-0.097
1105	-0.099
1105	-0.101
1106	-0.103
1106	-0.105
1107	-0.11
1107	-0.112
1107	-0.115
1108	-0.116
1108	-0.119
1109	-0.122
1109	-0.127
1109	-0.13
1110	-0.131
1110	-0.135
1111	-0.141
1111	-0.135
