Data from 17c-100ul-ns-20ul-nr-full-exp'4ul'bp_Absorbance__491__00961.txt Node

Date: Mon Jan 15 09:56:40 CET 2024
User: Marek
Spectrometer: MAYP115816
Trigger mode: 0
Integration Time (sec): 2.000000E-1
Scans to average: 10
Electric dark correction enabled: true
Nonlinearity correction enabled: true
Boxcar width: 5
XAxis mode: Wavelengths
Number of Pixels in Spectrum: 2068
>>>>>Begin Spectral Data<<<<<
199	-0.468
199	-0.441
200	-0.37
200	-0.311
201	-0.275
201	-0.256
202	-0.233
202	-0.228
203	-0.221
203	-0.218
204	-0.202
204	-0.188
205	-0.174
205	-0.168
205	-0.171
206	-0.172
206	-0.175
207	-0.172
207	-0.173
208	-0.174
208	-0.174
209	-0.175
209	-0.179
210	-0.182
210	-0.183
211	-0.183
211	-0.184
212	-0.183
212	-0.186
213	-0.187
213	-0.187
213	-0.191
214	-0.191
214	-0.191
215	-0.19
215	-0.194
216	-0.196
216	-0.199
217	-0.197
217	-0.196
218	-0.196
218	-0.192
219	-0.187
219	-0.189
220	-0.188
220	-0.189
221	-0.186
221	-0.184
221	-0.179
222	-0.176
222	-0.174
223	-0.167
223	-0.167
224	-0.165
224	-0.156
225	-0.148
225	-0.141
226	-0.136
226	-0.126
227	-0.114
227	-0.106
228	-0.092
228	-0.081
229	-0.063
229	-0.042
229	-0.023
230	-0.002
230	0.022
231	0.047
231	0.072
232	0.092
232	0.117
233	0.14
233	0.163
234	0.182
234	0.2
235	0.217
235	0.232
236	0.246
236	0.26
236	0.271
237	0.282
237	0.291
238	0.3
238	0.308
239	0.315
239	0.321
240	0.326
240	0.331
241	0.334
241	0.338
242	0.341
242	0.344
243	0.347
243	0.349
243	0.351
244	0.353
244	0.354
245	0.356
245	0.357
246	0.359
246	0.36
247	0.361
247	0.362
248	0.363
248	0.364
249	0.365
249	0.366
250	0.367
250	0.367
250	0.368
251	0.369
251	0.369
252	0.37
252	0.37
253	0.371
253	0.371
254	0.371
254	0.372
255	0.372
255	0.372
256	0.372
256	0.372
257	0.372
257	0.372
258	0.373
258	0.373
258	0.373
259	0.372
259	0.372
260	0.372
260	0.371
261	0.371
261	0.371
262	0.37
262	0.369
263	0.369
263	0.368
264	0.367
264	0.366
265	0.365
265	0.364
265	0.363
266	0.362
266	0.361
267	0.36
267	0.359
268	0.358
268	0.357
269	0.356
269	0.354
270	0.353
270	0.352
271	0.35
271	0.349
272	0.348
272	0.347
272	0.345
273	0.344
273	0.342
274	0.341
274	0.339
275	0.338
275	0.336
276	0.335
276	0.333
277	0.331
277	0.33
278	0.328
278	0.327
278	0.325
279	0.324
279	0.322
280	0.32
280	0.318
281	0.317
281	0.315
282	0.314
282	0.312
283	0.31
283	0.309
284	0.307
284	0.305
285	0.304
285	0.303
285	0.301
286	0.3
286	0.299
287	0.297
287	0.296
288	0.294
288	0.293
289	0.292
289	0.291
290	0.29
290	0.289
291	0.288
291	0.286
292	0.285
292	0.284
292	0.283
293	0.282
293	0.281
294	0.28
294	0.279
295	0.278
295	0.277
296	0.276
296	0.275
297	0.275
297	0.274
298	0.273
298	0.272
298	0.271
299	0.271
299	0.27
300	0.269
300	0.269
301	0.268
301	0.267
302	0.266
302	0.266
303	0.265
303	0.264
304	0.264
304	0.263
305	0.263
305	0.262
305	0.261
306	0.261
306	0.26
307	0.259
307	0.259
308	0.258
308	0.257
309	0.256
309	0.256
310	0.255
310	0.254
311	0.254
311	0.253
311	0.252
312	0.251
312	0.251
313	0.25
313	0.25
314	0.249
314	0.248
315	0.247
315	0.247
316	0.246
316	0.246
317	0.245
317	0.244
318	0.244
318	0.243
318	0.243
319	0.242
319	0.241
320	0.241
320	0.24
321	0.24
321	0.239
322	0.238
322	0.238
323	0.237
323	0.237
324	0.236
324	0.235
324	0.235
325	0.234
325	0.233
326	0.233
326	0.232
327	0.232
327	0.231
328	0.23
328	0.23
329	0.229
329	0.228
330	0.228
330	0.227
330	0.227
331	0.226
331	0.226
332	0.225
332	0.225
333	0.224
333	0.223
334	0.223
334	0.222
335	0.222
335	0.221
336	0.221
336	0.22
336	0.22
337	0.219
337	0.219
338	0.218
338	0.218
339	0.218
339	0.217
340	0.217
340	0.216
341	0.216
341	0.215
342	0.215
342	0.214
342	0.214
343	0.213
343	0.213
344	0.212
344	0.212
345	0.212
345	0.211
346	0.211
346	0.21
347	0.21
347	0.21
348	0.21
348	0.21
348	0.21
349	0.209
349	0.209
350	0.209
350	0.209
351	0.208
351	0.208
352	0.208
352	0.208
353	0.208
353	0.207
354	0.207
354	0.207
354	0.207
355	0.207
355	0.206
356	0.207
356	0.207
357	0.207
357	0.207
358	0.206
358	0.206
359	0.206
359	0.206
360	0.206
360	0.205
360	0.205
361	0.205
361	0.204
362	0.204
362	0.204
363	0.204
363	0.204
364	0.204
364	0.204
365	0.203
365	0.203
366	0.203
366	0.203
366	0.203
367	0.203
367	0.203
368	0.203
368	0.202
369	0.202
369	0.202
370	0.202
370	0.202
371	0.202
371	0.202
372	0.202
372	0.202
372	0.201
373	0.201
373	0.201
374	0.202
374	0.202
375	0.201
375	0.201
376	0.201
376	0.201
377	0.201
377	0.2
378	0.2
378	0.2
378	0.2
379	0.2
379	0.2
380	0.199
380	0.199
381	0.199
381	0.199
382	0.199
382	0.199
383	0.199
383	0.199
383	0.198
384	0.198
384	0.198
385	0.197
385	0.197
386	0.197
386	0.197
387	0.197
387	0.196
388	0.196
388	0.196
389	0.195
389	0.195
389	0.195
390	0.195
390	0.195
391	0.195
391	0.195
392	0.195
392	0.195
393	0.194
393	0.194
394	0.194
394	0.194
394	0.194
395	0.193
395	0.193
396	0.193
396	0.193
397	0.192
397	0.192
398	0.192
398	0.192
399	0.192
399	0.192
400	0.192
400	0.192
400	0.191
401	0.191
401	0.191
402	0.191
402	0.19
403	0.19
403	0.19
404	0.19
404	0.189
405	0.189
405	0.189
405	0.189
406	0.189
406	0.189
407	0.189
407	0.188
408	0.188
408	0.188
409	0.188
409	0.188
410	0.188
410	0.188
411	0.188
411	0.187
411	0.187
412	0.187
412	0.187
413	0.187
413	0.186
414	0.186
414	0.186
415	0.185
415	0.185
416	0.184
416	0.184
416	0.184
417	0.184
417	0.184
418	0.183
418	0.184
419	0.184
419	0.184
420	0.183
420	0.183
421	0.183
421	0.183
421	0.183
422	0.183
422	0.183
423	0.183
423	0.183
424	0.182
424	0.182
425	0.182
425	0.182
426	0.182
426	0.182
427	0.182
427	0.181
427	0.181
428	0.182
428	0.181
429	0.181
429	0.181
430	0.182
430	0.182
431	0.181
431	0.181
432	0.181
432	0.181
432	0.181
433	0.18
433	0.18
434	0.18
434	0.18
435	0.18
435	0.18
436	0.18
436	0.179
437	0.179
437	0.179
437	0.179
438	0.179
438	0.178
439	0.178
439	0.178
440	0.178
440	0.178
441	0.178
441	0.177
442	0.177
442	0.177
442	0.177
443	0.177
443	0.177
444	0.177
444	0.177
445	0.178
445	0.178
446	0.178
446	0.178
447	0.178
447	0.178
447	0.178
448	0.178
448	0.178
449	0.178
449	0.178
450	0.178
450	0.177
451	0.177
451	0.177
452	0.177
452	0.177
452	0.177
453	0.177
453	0.176
454	0.177
454	0.177
455	0.177
455	0.177
456	0.177
456	0.177
457	0.177
457	0.177
458	0.177
458	0.177
458	0.178
459	0.178
459	0.178
460	0.177
460	0.177
461	0.177
461	0.177
462	0.177
462	0.177
463	0.177
463	0.178
463	0.178
464	0.178
464	0.178
465	0.178
465	0.178
466	0.178
466	0.179
467	0.179
467	0.179
467	0.179
468	0.179
468	0.179
469	0.179
469	0.179
470	0.179
470	0.18
471	0.18
471	0.18
472	0.181
472	0.181
472	0.182
473	0.182
473	0.183
474	0.183
474	0.183
475	0.184
475	0.184
476	0.184
476	0.184
477	0.184
477	0.184
477	0.184
478	0.185
478	0.185
479	0.185
479	0.186
480	0.186
480	0.187
481	0.187
481	0.188
482	0.189
482	0.19
482	0.191
483	0.192
483	0.193
484	0.194
484	0.194
485	0.195
485	0.196
486	0.196
486	0.197
487	0.197
487	0.198
487	0.199
488	0.2
488	0.2
489	0.202
489	0.203
490	0.204
490	0.206
491	0.207
491	0.208
492	0.209
492	0.21
492	0.211
493	0.213
493	0.214
494	0.216
494	0.217
495	0.219
495	0.221
496	0.222
496	0.224
496	0.226
497	0.227
497	0.229
498	0.23
498	0.231
499	0.233
499	0.234
500	0.236
500	0.237
501	0.238
501	0.24
501	0.241
502	0.242
502	0.243
503	0.245
503	0.246
504	0.248
504	0.249
505	0.25
505	0.252
506	0.254
506	0.255
506	0.257
507	0.258
507	0.26
508	0.262
508	0.263
509	0.265
509	0.266
510	0.268
510	0.27
511	0.271
511	0.273
511	0.274
512	0.276
512	0.277
513	0.278
513	0.279
514	0.28
514	0.281
515	0.282
515	0.283
515	0.284
516	0.285
516	0.286
517	0.287
517	0.288
518	0.289
518	0.289
519	0.29
519	0.29
520	0.291
520	0.292
520	0.292
521	0.293
521	0.293
522	0.293
522	0.294
523	0.295
523	0.296
524	0.296
524	0.297
524	0.297
525	0.297
525	0.297
526	0.297
526	0.297
527	0.298
527	0.298
528	0.298
528	0.298
529	0.297
529	0.297
529	0.297
530	0.297
530	0.297
531	0.296
531	0.296
532	0.295
532	0.295
533	0.294
533	0.294
533	0.293
534	0.292
534	0.291
535	0.29
535	0.29
536	0.289
536	0.288
537	0.288
537	0.287
538	0.286
538	0.285
538	0.284
539	0.283
539	0.283
540	0.282
540	0.28
541	0.279
541	0.278
542	0.277
542	0.276
542	0.274
543	0.273
543	0.272
544	0.271
544	0.27
545	0.269
545	0.268
546	0.267
546	0.265
547	0.264
547	0.262
547	0.261
548	0.26
548	0.258
549	0.257
549	0.256
550	0.254
550	0.252
551	0.251
551	0.249
551	0.248
552	0.247
552	0.245
553	0.244
553	0.243
554	0.242
554	0.24
555	0.239
555	0.237
556	0.236
556	0.234
556	0.233
557	0.232
557	0.23
558	0.229
558	0.228
559	0.226
559	0.225
560	0.223
560	0.222
560	0.221
561	0.22
561	0.219
562	0.218
562	0.216
563	0.214
563	0.212
564	0.211
564	0.21
564	0.208
565	0.207
565	0.206
566	0.204
566	0.203
567	0.202
567	0.201
568	0.2
568	0.199
568	0.198
569	0.197
569	0.196
570	0.194
570	0.192
571	0.192
571	0.191
572	0.189
572	0.188
573	0.186
573	0.184
573	0.183
574	0.182
574	0.181
575	0.18
575	0.181
576	0.18
576	0.178
577	0.176
577	0.175
577	0.175
578	0.174
578	0.174
579	0.174
579	0.173
580	0.171
580	0.168
581	0.166
581	0.165
581	0.165
582	0.165
582	0.165
583	0.165
583	0.163
584	0.161
584	0.158
585	0.159
585	0.159
585	0.158
586	0.158
586	0.157
587	0.155
587	0.154
588	0.152
588	0.152
589	0.152
589	0.152
590	0.151
590	0.151
590	0.151
591	0.151
591	0.149
592	0.148
592	0.147
593	0.147
593	0.146
594	0.145
594	0.144
594	0.143
595	0.143
595	0.142
596	0.141
596	0.143
597	0.144
597	0.143
598	0.143
598	0.143
598	0.143
599	0.142
599	0.141
600	0.14
600	0.139
601	0.138
601	0.137
602	0.135
602	0.134
602	0.132
603	0.132
603	0.132
604	0.131
604	0.131
605	0.131
605	0.131
606	0.131
606	0.13
606	0.13
607	0.129
607	0.129
608	0.129
608	0.128
609	0.127
609	0.128
610	0.127
610	0.126
610	0.127
611	0.127
611	0.128
612	0.128
612	0.129
613	0.129
613	0.129
614	0.128
614	0.127
614	0.127
615	0.126
615	0.126
616	0.126
616	0.125
617	0.125
617	0.124
618	0.124
618	0.124
618	0.125
619	0.126
619	0.127
620	0.128
620	0.128
621	0.128
621	0.128
622	0.128
622	0.128
622	0.128
623	0.128
623	0.129
624	0.129
624	0.128
625	0.128
625	0.128
626	0.128
626	0.129
626	0.13
627	0.131
627	0.132
628	0.132
628	0.133
629	0.134
629	0.134
630	0.134
630	0.135
630	0.137
631	0.137
631	0.138
632	0.139
632	0.14
633	0.141
633	0.142
634	0.144
634	0.145
634	0.147
635	0.147
635	0.148
636	0.149
636	0.149
637	0.15
637	0.151
638	0.152
638	0.153
638	0.153
639	0.154
639	0.155
640	0.156
640	0.157
641	0.158
641	0.16
642	0.161
642	0.163
642	0.164
643	0.165
643	0.166
644	0.168
644	0.169
645	0.17
645	0.172
646	0.173
646	0.175
646	0.177
647	0.179
647	0.18
648	0.182
648	0.184
649	0.186
649	0.188
650	0.19
650	0.192
650	0.193
651	0.195
651	0.197
652	0.2
652	0.202
653	0.205
653	0.212
653	0.213
654	0.169
654	0.135
655	0.139
655	0.141
656	0.142
656	0.143
657	0.145
657	0.146
657	0.147
658	0.145
658	0.14
659	0.18
659	0.235
660	0.241
660	0.244
661	0.247
661	0.25
661	0.253
662	0.256
662	0.259
663	0.262
663	0.264
664	0.266
664	0.269
665	0.271
665	0.273
665	0.276
666	0.278
666	0.28
667	0.282
667	0.285
668	0.287
668	0.29
669	0.293
669	0.296
669	0.299
670	0.301
670	0.304
671	0.306
671	0.308
672	0.311
672	0.313
672	0.315
673	0.318
673	0.32
674	0.322
674	0.323
675	0.325
675	0.327
676	0.329
676	0.33
676	0.331
677	0.332
677	0.332
678	0.332
678	0.333
679	0.333
679	0.334
680	0.335
680	0.336
680	0.336
681	0.337
681	0.338
682	0.339
682	0.34
683	0.341
683	0.342
684	0.343
684	0.343
684	0.343
685	0.344
685	0.344
686	0.344
686	0.344
687	0.344
687	0.345
687	0.345
688	0.344
688	0.344
689	0.345
689	0.345
690	0.344
690	0.343
691	0.343
691	0.342
691	0.341
692	0.341
692	0.34
693	0.339
693	0.339
694	0.337
694	0.336
695	0.337
695	0.337
695	0.336
696	0.335
696	0.335
697	0.334
697	0.333
698	0.333
698	0.331
698	0.33
699	0.329
699	0.327
700	0.325
700	0.324
701	0.322
701	0.319
702	0.317
702	0.315
702	0.313
703	0.311
703	0.309
704	0.307
704	0.306
705	0.305
705	0.303
705	0.301
706	0.3
706	0.299
707	0.297
707	0.295
708	0.294
708	0.292
709	0.291
709	0.288
709	0.286
710	0.284
710	0.283
711	0.281
711	0.279
712	0.277
712	0.275
713	0.274
713	0.272
713	0.271
714	0.269
714	0.267
715	0.266
715	0.264
716	0.262
716	0.26
716	0.258
717	0.256
717	0.255
718	0.253
718	0.251
719	0.249
719	0.248
720	0.245
720	0.243
720	0.241
721	0.238
721	0.236
722	0.234
722	0.231
723	0.229
723	0.227
723	0.225
724	0.223
724	0.221
725	0.219
725	0.217
726	0.216
726	0.214
727	0.212
727	0.211
727	0.21
728	0.208
728	0.207
729	0.206
729	0.204
730	0.203
730	0.201
730	0.2
731	0.199
731	0.197
732	0.196
732	0.194
733	0.193
733	0.191
734	0.19
734	0.188
734	0.187
735	0.186
735	0.184
736	0.182
736	0.181
737	0.18
737	0.179
737	0.177
738	0.174
738	0.172
739	0.17
739	0.168
740	0.166
740	0.164
741	0.162
741	0.16
741	0.158
742	0.156
742	0.155
743	0.154
743	0.152
744	0.151
744	0.15
744	0.148
745	0.147
745	0.145
746	0.144
746	0.143
747	0.142
747	0.141
748	0.14
748	0.138
748	0.137
749	0.136
749	0.135
750	0.135
750	0.134
751	0.133
751	0.133
751	0.132
752	0.131
752	0.13
753	0.129
753	0.129
754	0.128
754	0.127
754	0.126
755	0.125
755	0.124
756	0.122
756	0.12
757	0.119
757	0.119
758	0.118
758	0.117
758	0.116
759	0.115
759	0.113
760	0.113
760	0.112
761	0.112
761	0.112
761	0.112
762	0.111
762	0.111
763	0.111
763	0.11
764	0.109
764	0.108
764	0.107
765	0.106
765	0.105
766	0.104
766	0.104
767	0.103
767	0.102
768	0.101
768	0.1
768	0.1
769	0.1
769	0.099
770	0.098
770	0.098
771	0.097
771	0.095
771	0.094
772	0.094
772	0.093
773	0.092
773	0.091
774	0.09
774	0.089
775	0.089
775	0.087
775	0.086
776	0.085
776	0.084
777	0.084
777	0.083
778	0.081
778	0.081
778	0.08
779	0.08
779	0.079
780	0.078
780	0.078
781	0.077
781	0.076
781	0.075
782	0.073
782	0.072
783	0.071
783	0.07
784	0.068
784	0.067
784	0.066
785	0.065
785	0.065
786	0.065
786	0.065
787	0.065
787	0.065
788	0.065
788	0.065
788	0.065
789	0.065
789	0.066
790	0.066
790	0.066
791	0.065
791	0.065
791	0.065
792	0.065
792	0.065
793	0.064
793	0.063
794	0.063
794	0.062
794	0.062
795	0.062
795	0.062
796	0.061
796	0.06
797	0.059
797	0.059
797	0.059
798	0.058
798	0.058
799	0.057
799	0.056
800	0.054
800	0.053
801	0.052
801	0.052
801	0.05
802	0.049
802	0.048
803	0.047
803	0.046
804	0.046
804	0.046
804	0.045
805	0.045
805	0.046
806	0.046
806	0.047
807	0.047
807	0.048
807	0.049
808	0.049
808	0.049
809	0.05
809	0.05
810	0.051
810	0.051
810	0.051
811	0.052
811	0.053
812	0.053
812	0.053
813	0.054
813	0.054
813	0.053
814	0.053
814	0.053
815	0.052
815	0.051
816	0.05
816	0.049
817	0.048
817	0.047
817	0.047
818	0.046
818	0.045
819	0.045
819	0.043
820	0.043
820	0.042
820	0.042
821	0.041
821	0.041
822	0.041
822	0.04
823	0.04
823	0.039
823	0.039
824	0.039
824	0.039
825	0.039
825	0.039
826	0.039
826	0.038
826	0.037
827	0.037
827	0.036
828	0.036
828	0.035
829	0.035
829	0.035
829	0.035
830	0.035
830	0.035
831	0.036
831	0.036
832	0.036
832	0.036
832	0.035
833	0.035
833	0.035
834	0.034
834	0.033
835	0.033
835	0.032
835	0.031
836	0.031
836	0.031
837	0.03
837	0.03
838	0.03
838	0.03
839	0.03
839	0.03
839	0.03
840	0.031
840	0.031
841	0.031
841	0.032
842	0.032
842	0.033
842	0.033
843	0.033
843	0.033
844	0.033
844	0.032
845	0.032
845	0.032
845	0.031
846	0.03
846	0.03
847	0.029
847	0.029
848	0.028
848	0.027
848	0.027
849	0.026
849	0.026
850	0.025
850	0.024
851	0.024
851	0.024
851	0.023
852	0.022
852	0.022
853	0.022
853	0.022
854	0.022
854	0.022
854	0.022
855	0.022
855	0.022
856	0.022
856	0.023
857	0.023
857	0.024
857	0.024
858	0.024
858	0.024
859	0.024
859	0.024
860	0.024
860	0.025
860	0.025
861	0.025
861	0.025
862	0.024
862	0.024
863	0.024
863	0.023
863	0.023
864	0.022
864	0.021
865	0.021
865	0.02
866	0.019
866	0.018
866	0.017
867	0.017
867	0.017
868	0.017
868	0.017
869	0.017
869	0.018
869	0.018
870	0.018
870	0.018
871	0.018
871	0.018
872	0.018
872	0.017
872	0.016
873	0.015
873	0.014
874	0.013
874	0.012
875	0.011
875	0.011
875	0.01
876	0.009
876	0.008
877	0.007
877	0.007
878	0.006
878	0.006
878	0.006
879	0.006
879	0.006
880	0.006
880	0.007
881	0.007
881	0.008
881	0.009
882	0.011
882	0.012
883	0.013
883	0.014
884	0.015
884	0.016
884	0.016
885	0.017
885	0.017
886	0.018
886	0.018
887	0.017
887	0.017
887	0.017
888	0.017
888	0.018
889	0.018
889	0.019
890	0.02
890	0.02
890	0.02
891	0.021
891	0.021
892	0.021
892	0.021
893	0.021
893	0.02
893	0.019
894	0.018
894	0.017
895	0.016
895	0.015
895	0.014
896	0.013
896	0.011
897	0.01
897	0.01
898	0.009
898	0.008
898	0.008
899	0.007
899	0.007
900	0.006
900	0.006
901	0.006
901	0.006
901	0.006
902	0.006
902	0.006
903	0.005
903	0.005
904	0.005
904	0.004
904	0.004
905	0.003
905	0.002
906	0.002
906	0.001
907	0.001
907	0
907	-0
908	-0
908	0
909	0.001
909	0.001
910	0.002
910	0.003
910	0.003
911	0.004
911	0.005
912	0.005
912	0.006
913	0.005
913	0.005
913	0.005
914	0.004
914	0.004
915	0.003
915	0.002
916	0.001
916	0
916	-0
917	-0
917	-0
918	-0
918	-0
918	0
919	0.001
919	0.002
920	0.003
920	0.004
921	0.004
921	0.005
921	0.005
922	0.006
922	0.006
923	0.006
923	0.006
924	0.005
924	0.005
924	0.004
925	0.004
925	0.004
926	0.003
926	0.003
927	0.002
927	0.002
927	0.001
928	0.001
928	0.001
929	0.001
929	0
930	0
930	-0
930	-0
931	-0.001
931	-0.001
932	-0.001
932	-0.002
933	-0.002
933	-0.002
933	-0.002
934	-0.002
934	-0.002
935	-0.002
935	-0.003
935	-0.003
936	-0.003
936	-0.003
937	-0.004
937	-0.004
938	-0.004
938	-0.005
938	-0.005
939	-0.005
939	-0.005
940	-0.005
940	-0.004
941	-0.003
941	-0.003
941	-0.002
942	-0.002
942	-0.001
943	-0
943	-0
944	0
944	0
944	0
945	-0
945	-0
946	-0.001
946	-0.001
946	-0.001
947	-0.001
947	-0.001
948	-0.001
948	-0
949	-0
949	0
949	0.001
950	0.001
950	0.002
951	0.002
951	0.002
952	0.002
952	0.002
952	0.002
953	0.002
953	0.002
954	0.001
954	0.001
955	0
955	0
955	-0
956	-0
956	-0.001
957	-0.001
957	-0.002
957	-0.003
958	-0.004
958	-0.005
959	-0.006
959	-0.006
960	-0.007
960	-0.008
960	-0.009
961	-0.009
961	-0.009
962	-0.009
962	-0.009
963	-0.009
963	-0.008
963	-0.007
964	-0.006
964	-0.005
965	-0.004
965	-0.003
966	-0.002
966	-0.001
966	-0
967	0.001
967	0.001
968	0.001
968	0.002
968	0.002
969	0.002
969	0.002
970	0.002
970	0.002
971	0.002
971	0.001
971	0.001
972	0.001
972	0
973	-0
973	-0.001
974	-0.001
974	-0.002
974	-0.003
975	-0.003
975	-0.004
976	-0.005
976	-0.006
976	-0.007
977	-0.008
977	-0.009
978	-0.01
978	-0.011
979	-0.011
979	-0.012
979	-0.012
980	-0.012
980	-0.012
981	-0.011
981	-0.01
982	-0.01
982	-0.009
982	-0.008
983	-0.007
983	-0.006
984	-0.005
984	-0.004
984	-0.003
985	-0.003
985	-0.003
986	-0.003
986	-0.003
987	-0.004
987	-0.005
987	-0.006
988	-0.007
988	-0.008
989	-0.01
989	-0.012
990	-0.013
990	-0.015
990	-0.017
991	-0.018
991	-0.02
992	-0.021
992	-0.022
992	-0.024
993	-0.025
993	-0.026
994	-0.027
994	-0.027
995	-0.028
995	-0.028
995	-0.028
996	-0.029
996	-0.029
997	-0.029
997	-0.028
997	-0.028
998	-0.027
998	-0.026
999	-0.024
999	-0.023
1000	-0.022
1000	-0.02
1000	-0.019
1001	-0.018
1001	-0.016
1002	-0.015
1002	-0.014
1003	-0.012
1003	-0.012
1003	-0.011
1004	-0.01
1004	-0.01
1005	-0.009
1005	-0.009
1005	-0.009
1006	-0.009
1006	-0.009
1007	-0.009
1007	-0.009
1008	-0.009
1008	-0.009
1008	-0.009
1009	-0.009
1009	-0.009
1010	-0.009
1010	-0.008
1010	-0.008
1011	-0.008
1011	-0.008
1012	-0.008
1012	-0.008
1013	-0.009
1013	-0.009
1013	-0.01
1014	-0.011
1014	-0.012
1015	-0.013
1015	-0.014
1016	-0.015
1016	-0.016
1016	-0.016
1017	-0.017
1017	-0.018
1018	-0.018
1018	-0.018
1018	-0.018
1019	-0.018
1019	-0.018
1020	-0.018
1020	-0.017
1021	-0.017
1021	-0.017
1021	-0.017
1022	-0.018
1022	-0.018
1023	-0.018
1023	-0.019
1023	-0.02
1024	-0.02
1024	-0.021
1025	-0.022
1025	-0.023
1026	-0.024
1026	-0.024
1026	-0.025
1027	-0.025
1027	-0.026
1028	-0.026
1028	-0.026
1028	-0.026
1029	-0.025
1029	-0.025
1030	-0.025
1030	-0.025
1031	-0.025
1031	-0.024
1031	-0.024
1032	-0.024
1032	-0.024
1033	-0.024
1033	-0.025
1033	-0.026
1034	-0.026
1034	-0.028
1035	-0.029
1035	-0.03
1036	-0.03
1036	-0.031
1036	-0.032
1037	-0.033
1037	-0.033
1038	-0.034
1038	-0.034
1039	-0.034
1039	-0.034
1039	-0.034
1040	-0.034
1040	-0.034
1041	-0.034
1041	-0.034
1041	-0.035
1042	-0.035
1042	-0.035
1043	-0.036
1043	-0.036
1044	-0.036
1044	-0.036
1044	-0.037
1045	-0.037
1045	-0.037
1046	-0.037
1046	-0.037
1046	-0.036
1047	-0.035
1047	-0.034
1048	-0.033
1048	-0.033
1049	-0.033
1049	-0.032
1049	-0.032
1050	-0.032
1050	-0.032
1051	-0.032
1051	-0.032
1051	-0.032
1052	-0.032
1052	-0.032
1053	-0.032
1053	-0.032
1053	-0.031
1054	-0.031
1054	-0.03
1055	-0.03
1055	-0.03
1056	-0.03
1056	-0.03
1056	-0.031
1057	-0.031
1057	-0.031
1058	-0.032
1058	-0.032
1058	-0.033
1059	-0.033
1059	-0.034
1060	-0.035
1060	-0.035
1061	-0.036
1061	-0.036
1061	-0.036
1062	-0.037
1062	-0.038
1063	-0.038
1063	-0.039
1063	-0.04
1064	-0.041
1064	-0.041
1065	-0.042
1065	-0.042
1066	-0.043
1066	-0.044
1066	-0.045
1067	-0.045
1067	-0.046
1068	-0.046
1068	-0.047
1068	-0.047
1069	-0.048
1069	-0.049
1070	-0.05
1070	-0.05
1071	-0.051
1071	-0.051
1071	-0.053
1072	-0.053
1072	-0.053
1073	-0.054
1073	-0.053
1073	-0.054
1074	-0.054
1074	-0.054
1075	-0.054
1075	-0.054
1076	-0.054
1076	-0.054
1076	-0.055
1077	-0.055
1077	-0.056
1078	-0.056
1078	-0.056
1078	-0.057
1079	-0.057
1079	-0.057
1080	-0.057
1080	-0.057
1080	-0.057
1081	-0.057
1081	-0.056
1082	-0.056
1082	-0.057
1083	-0.057
1083	-0.057
1083	-0.057
1084	-0.057
1084	-0.057
1085	-0.057
1085	-0.057
1085	-0.057
1086	-0.057
1086	-0.057
1087	-0.057
1087	-0.057
1088	-0.057
1088	-0.058
1088	-0.058
1089	-0.059
1089	-0.06
1090	-0.062
1090	-0.063
1090	-0.064
1091	-0.065
1091	-0.066
1092	-0.067
1092	-0.068
1092	-0.068
1093	-0.069
1093	-0.07
1094	-0.07
1094	-0.07
1095	-0.071
1095	-0.071
1095	-0.072
1096	-0.073
1096	-0.073
1097	-0.074
1097	-0.076
1097	-0.076
1098	-0.077
1098	-0.078
1099	-0.079
1099	-0.08
1100	-0.081
1100	-0.083
1100	-0.084
1101	-0.086
1101	-0.088
1102	-0.089
1102	-0.091
1102	-0.092
1103	-0.094
1103	-0.096
1104	-0.097
1104	-0.098
1104	-0.099
1105	-0.102
1105	-0.104
1106	-0.107
1106	-0.109
1107	-0.114
1107	-0.116
1107	-0.12
1108	-0.121
1108	-0.123
1109	-0.126
1109	-0.13
1109	-0.133
1110	-0.132
1110	-0.136
1111	-0.142
1111	-0.131
