Data from 17c-100ul-ns-20ul-nr-full-exp'4ul'bp_Absorbance__833__01303.txt Node

Date: Mon Jan 15 10:08:04 CET 2024
User: Marek
Spectrometer: MAYP115816
Trigger mode: 0
Integration Time (sec): 2.000000E-1
Scans to average: 10
Electric dark correction enabled: true
Nonlinearity correction enabled: true
Boxcar width: 5
XAxis mode: Wavelengths
Number of Pixels in Spectrum: 2068
>>>>>Begin Spectral Data<<<<<
199	-0.49
199	-0.463
200	-0.393
200	-0.334
201	-0.297
201	-0.274
202	-0.252
202	-0.249
203	-0.242
203	-0.242
204	-0.226
204	-0.213
205	-0.199
205	-0.193
205	-0.196
206	-0.197
206	-0.202
207	-0.2
207	-0.199
208	-0.202
208	-0.2
209	-0.201
209	-0.206
210	-0.21
210	-0.209
211	-0.208
211	-0.211
212	-0.212
212	-0.213
213	-0.214
213	-0.213
213	-0.216
214	-0.215
214	-0.215
215	-0.213
215	-0.219
216	-0.22
216	-0.223
217	-0.22
217	-0.222
218	-0.222
218	-0.219
219	-0.215
219	-0.217
220	-0.215
220	-0.216
221	-0.214
221	-0.213
221	-0.208
222	-0.206
222	-0.202
223	-0.197
223	-0.197
224	-0.196
224	-0.188
225	-0.182
225	-0.174
226	-0.169
226	-0.159
227	-0.147
227	-0.139
228	-0.126
228	-0.114
229	-0.096
229	-0.075
229	-0.056
230	-0.035
230	-0.012
231	0.013
231	0.036
232	0.056
232	0.081
233	0.103
233	0.126
234	0.144
234	0.162
235	0.178
235	0.192
236	0.205
236	0.218
236	0.229
237	0.239
237	0.247
238	0.255
238	0.262
239	0.269
239	0.275
240	0.279
240	0.283
241	0.287
241	0.29
242	0.293
242	0.296
243	0.298
243	0.3
243	0.301
244	0.303
244	0.304
245	0.305
245	0.307
246	0.308
246	0.309
247	0.309
247	0.31
248	0.311
248	0.312
249	0.313
249	0.313
250	0.314
250	0.314
250	0.315
251	0.316
251	0.316
252	0.317
252	0.317
253	0.318
253	0.318
254	0.319
254	0.319
255	0.32
255	0.32
256	0.32
256	0.32
257	0.321
257	0.321
258	0.321
258	0.321
258	0.32
259	0.32
259	0.32
260	0.32
260	0.32
261	0.319
261	0.319
262	0.318
262	0.317
263	0.317
263	0.316
264	0.315
264	0.315
265	0.314
265	0.313
265	0.313
266	0.312
266	0.311
267	0.31
267	0.309
268	0.308
268	0.307
269	0.306
269	0.305
270	0.303
270	0.302
271	0.301
271	0.3
272	0.298
272	0.297
272	0.296
273	0.295
273	0.294
274	0.293
274	0.291
275	0.29
275	0.288
276	0.287
276	0.285
277	0.284
277	0.283
278	0.281
278	0.28
278	0.279
279	0.278
279	0.276
280	0.274
280	0.273
281	0.272
281	0.27
282	0.268
282	0.267
283	0.266
283	0.264
284	0.262
284	0.261
285	0.26
285	0.259
285	0.258
286	0.257
286	0.256
287	0.255
287	0.254
288	0.253
288	0.252
289	0.251
289	0.25
290	0.249
290	0.248
291	0.247
291	0.246
292	0.245
292	0.244
292	0.243
293	0.242
293	0.241
294	0.24
294	0.24
295	0.239
295	0.238
296	0.237
296	0.237
297	0.236
297	0.235
298	0.235
298	0.234
298	0.233
299	0.233
299	0.232
300	0.232
300	0.231
301	0.231
301	0.23
302	0.229
302	0.229
303	0.228
303	0.228
304	0.227
304	0.227
305	0.226
305	0.226
305	0.225
306	0.225
306	0.224
307	0.224
307	0.223
308	0.223
308	0.222
309	0.222
309	0.221
310	0.22
310	0.22
311	0.219
311	0.219
311	0.218
312	0.218
312	0.217
313	0.217
313	0.216
314	0.216
314	0.215
315	0.215
315	0.214
316	0.214
316	0.214
317	0.213
317	0.212
318	0.212
318	0.212
318	0.211
319	0.211
319	0.21
320	0.21
320	0.209
321	0.209
321	0.208
322	0.207
322	0.207
323	0.206
323	0.206
324	0.205
324	0.205
324	0.204
325	0.204
325	0.203
326	0.203
326	0.202
327	0.202
327	0.201
328	0.201
328	0.201
329	0.2
329	0.2
330	0.199
330	0.198
330	0.198
331	0.197
331	0.197
332	0.197
332	0.196
333	0.196
333	0.195
334	0.195
334	0.194
335	0.194
335	0.193
336	0.193
336	0.192
336	0.192
337	0.191
337	0.191
338	0.19
338	0.19
339	0.19
339	0.19
340	0.189
340	0.189
341	0.188
341	0.188
342	0.187
342	0.187
342	0.187
343	0.186
343	0.186
344	0.186
344	0.185
345	0.185
345	0.185
346	0.184
346	0.184
347	0.184
347	0.184
348	0.184
348	0.184
348	0.183
349	0.183
349	0.183
350	0.183
350	0.183
351	0.182
351	0.182
352	0.182
352	0.182
353	0.182
353	0.181
354	0.181
354	0.181
354	0.181
355	0.181
355	0.18
356	0.181
356	0.181
357	0.181
357	0.181
358	0.18
358	0.18
359	0.18
359	0.18
360	0.18
360	0.179
360	0.179
361	0.179
361	0.178
362	0.178
362	0.178
363	0.178
363	0.178
364	0.178
364	0.178
365	0.178
365	0.178
366	0.178
366	0.178
366	0.178
367	0.178
367	0.178
368	0.177
368	0.177
369	0.177
369	0.177
370	0.177
370	0.177
371	0.177
371	0.177
372	0.177
372	0.177
372	0.177
373	0.177
373	0.177
374	0.177
374	0.177
375	0.177
375	0.177
376	0.177
376	0.177
377	0.176
377	0.176
378	0.176
378	0.176
378	0.176
379	0.175
379	0.175
380	0.175
380	0.175
381	0.175
381	0.175
382	0.175
382	0.175
383	0.175
383	0.175
383	0.175
384	0.174
384	0.174
385	0.174
385	0.174
386	0.174
386	0.174
387	0.173
387	0.173
388	0.173
388	0.173
389	0.173
389	0.173
389	0.173
390	0.173
390	0.173
391	0.173
391	0.173
392	0.172
392	0.172
393	0.172
393	0.172
394	0.172
394	0.172
394	0.172
395	0.171
395	0.171
396	0.171
396	0.171
397	0.17
397	0.17
398	0.17
398	0.17
399	0.17
399	0.17
400	0.17
400	0.17
400	0.17
401	0.169
401	0.169
402	0.169
402	0.169
403	0.168
403	0.168
404	0.168
404	0.168
405	0.168
405	0.168
405	0.168
406	0.168
406	0.168
407	0.168
407	0.167
408	0.167
408	0.167
409	0.167
409	0.167
410	0.167
410	0.167
411	0.167
411	0.166
411	0.166
412	0.166
412	0.166
413	0.166
413	0.165
414	0.165
414	0.165
415	0.165
415	0.164
416	0.164
416	0.164
416	0.164
417	0.163
417	0.163
418	0.163
418	0.163
419	0.163
419	0.163
420	0.163
420	0.163
421	0.163
421	0.163
421	0.163
422	0.163
422	0.163
423	0.163
423	0.163
424	0.162
424	0.162
425	0.162
425	0.162
426	0.162
426	0.162
427	0.162
427	0.162
427	0.162
428	0.162
428	0.162
429	0.162
429	0.162
430	0.162
430	0.162
431	0.162
431	0.161
432	0.161
432	0.161
432	0.161
433	0.16
433	0.16
434	0.16
434	0.16
435	0.16
435	0.16
436	0.16
436	0.16
437	0.159
437	0.159
437	0.159
438	0.159
438	0.159
439	0.159
439	0.159
440	0.158
440	0.158
441	0.158
441	0.158
442	0.158
442	0.158
442	0.158
443	0.158
443	0.158
444	0.158
444	0.157
445	0.158
445	0.158
446	0.158
446	0.158
447	0.158
447	0.158
447	0.158
448	0.158
448	0.158
449	0.158
449	0.158
450	0.158
450	0.158
451	0.157
451	0.157
452	0.157
452	0.157
452	0.157
453	0.157
453	0.157
454	0.157
454	0.157
455	0.157
455	0.157
456	0.157
456	0.157
457	0.157
457	0.157
458	0.157
458	0.157
458	0.157
459	0.158
459	0.157
460	0.157
460	0.157
461	0.157
461	0.157
462	0.156
462	0.157
463	0.157
463	0.157
463	0.157
464	0.157
464	0.157
465	0.157
465	0.157
466	0.157
466	0.158
467	0.158
467	0.158
467	0.157
468	0.157
468	0.157
469	0.157
469	0.157
470	0.158
470	0.158
471	0.158
471	0.158
472	0.159
472	0.159
472	0.159
473	0.16
473	0.16
474	0.161
474	0.161
475	0.161
475	0.161
476	0.161
476	0.161
477	0.161
477	0.161
477	0.162
478	0.162
478	0.162
479	0.162
479	0.162
480	0.162
480	0.163
481	0.163
481	0.164
482	0.165
482	0.165
482	0.166
483	0.167
483	0.168
484	0.169
484	0.168
485	0.169
485	0.169
486	0.17
486	0.17
487	0.171
487	0.171
487	0.172
488	0.172
488	0.172
489	0.174
489	0.175
490	0.176
490	0.177
491	0.178
491	0.179
492	0.18
492	0.181
492	0.181
493	0.182
493	0.184
494	0.185
494	0.187
495	0.188
495	0.189
496	0.19
496	0.192
496	0.193
497	0.194
497	0.195
498	0.196
498	0.197
499	0.198
499	0.199
500	0.2
500	0.201
501	0.202
501	0.203
501	0.204
502	0.205
502	0.206
503	0.208
503	0.209
504	0.209
504	0.211
505	0.212
505	0.213
506	0.214
506	0.216
506	0.217
507	0.218
507	0.22
508	0.221
508	0.223
509	0.224
509	0.225
510	0.226
510	0.228
511	0.228
511	0.23
511	0.23
512	0.232
512	0.232
513	0.233
513	0.234
514	0.235
514	0.236
515	0.237
515	0.237
515	0.238
516	0.239
516	0.24
517	0.241
517	0.241
518	0.242
518	0.242
519	0.242
519	0.243
520	0.243
520	0.244
520	0.244
521	0.244
521	0.245
522	0.245
522	0.245
523	0.246
523	0.246
524	0.247
524	0.247
524	0.247
525	0.247
525	0.247
526	0.248
526	0.248
527	0.248
527	0.248
528	0.248
528	0.248
529	0.248
529	0.248
529	0.248
530	0.248
530	0.247
531	0.247
531	0.246
532	0.246
532	0.246
533	0.245
533	0.245
533	0.244
534	0.243
534	0.243
535	0.242
535	0.242
536	0.242
536	0.242
537	0.242
537	0.241
538	0.241
538	0.24
538	0.239
539	0.239
539	0.239
540	0.238
540	0.237
541	0.236
541	0.235
542	0.234
542	0.234
542	0.233
543	0.232
543	0.232
544	0.231
544	0.231
545	0.23
545	0.229
546	0.229
546	0.228
547	0.226
547	0.225
547	0.224
548	0.224
548	0.223
549	0.222
549	0.221
550	0.22
550	0.219
551	0.217
551	0.217
551	0.216
552	0.215
552	0.214
553	0.213
553	0.213
554	0.212
554	0.21
555	0.21
555	0.209
556	0.208
556	0.207
556	0.206
557	0.205
557	0.205
558	0.204
558	0.203
559	0.202
559	0.201
560	0.2
560	0.199
560	0.199
561	0.199
561	0.198
562	0.197
562	0.196
563	0.194
563	0.193
564	0.192
564	0.191
564	0.19
565	0.19
565	0.189
566	0.187
566	0.187
567	0.186
567	0.186
568	0.185
568	0.185
568	0.185
569	0.184
569	0.184
570	0.182
570	0.181
571	0.181
571	0.18
572	0.179
572	0.178
573	0.177
573	0.176
573	0.175
574	0.174
574	0.174
575	0.174
575	0.174
576	0.174
576	0.172
577	0.171
577	0.171
577	0.171
578	0.17
578	0.171
579	0.171
579	0.171
580	0.169
580	0.166
581	0.165
581	0.165
581	0.165
582	0.165
582	0.165
583	0.165
583	0.164
584	0.162
584	0.16
585	0.161
585	0.161
585	0.161
586	0.161
586	0.161
587	0.159
587	0.158
588	0.157
588	0.156
589	0.157
589	0.157
590	0.157
590	0.157
590	0.158
591	0.158
591	0.157
592	0.156
592	0.155
593	0.155
593	0.155
594	0.154
594	0.153
594	0.152
595	0.152
595	0.152
596	0.152
596	0.153
597	0.155
597	0.155
598	0.155
598	0.155
598	0.155
599	0.155
599	0.154
600	0.153
600	0.152
601	0.152
601	0.15
602	0.148
602	0.148
602	0.147
603	0.146
603	0.146
604	0.146
604	0.146
605	0.146
605	0.147
606	0.146
606	0.145
606	0.145
607	0.145
607	0.145
608	0.145
608	0.144
609	0.144
609	0.144
610	0.143
610	0.143
610	0.144
611	0.144
611	0.145
612	0.146
612	0.146
613	0.146
613	0.147
614	0.146
614	0.145
614	0.145
615	0.144
615	0.144
616	0.144
616	0.143
617	0.143
617	0.142
618	0.142
618	0.143
618	0.143
619	0.144
619	0.145
620	0.146
620	0.146
621	0.146
621	0.147
622	0.146
622	0.146
622	0.146
623	0.146
623	0.146
624	0.146
624	0.146
625	0.146
625	0.146
626	0.146
626	0.146
626	0.147
627	0.148
627	0.149
628	0.15
628	0.151
629	0.151
629	0.151
630	0.152
630	0.152
630	0.153
631	0.154
631	0.155
632	0.155
632	0.156
633	0.157
633	0.158
634	0.159
634	0.161
634	0.162
635	0.162
635	0.163
636	0.164
636	0.164
637	0.165
637	0.165
638	0.166
638	0.167
638	0.167
639	0.167
639	0.168
640	0.169
640	0.17
641	0.17
641	0.171
642	0.172
642	0.174
642	0.174
643	0.175
643	0.176
644	0.178
644	0.178
645	0.18
645	0.181
646	0.182
646	0.184
646	0.186
647	0.187
647	0.189
648	0.19
648	0.192
649	0.193
649	0.195
650	0.197
650	0.199
650	0.2
651	0.202
651	0.204
652	0.206
652	0.208
653	0.211
653	0.217
653	0.219
654	0.172
654	0.138
655	0.141
655	0.143
656	0.144
656	0.146
657	0.147
657	0.148
657	0.149
658	0.147
658	0.141
659	0.18
659	0.235
660	0.242
660	0.244
661	0.247
661	0.249
661	0.252
662	0.255
662	0.258
663	0.26
663	0.262
664	0.264
664	0.266
665	0.268
665	0.271
665	0.273
666	0.275
666	0.277
667	0.279
667	0.281
668	0.283
668	0.285
669	0.288
669	0.29
669	0.293
670	0.295
670	0.298
671	0.3
671	0.302
672	0.304
672	0.306
672	0.308
673	0.31
673	0.313
674	0.314
674	0.316
675	0.318
675	0.32
676	0.322
676	0.323
676	0.323
677	0.324
677	0.325
678	0.325
678	0.325
679	0.326
679	0.326
680	0.327
680	0.328
680	0.328
681	0.329
681	0.33
682	0.331
682	0.332
683	0.333
683	0.334
684	0.335
684	0.334
684	0.335
685	0.335
685	0.336
686	0.336
686	0.336
687	0.337
687	0.336
687	0.337
688	0.336
688	0.336
689	0.337
689	0.337
690	0.337
690	0.336
691	0.336
691	0.336
691	0.335
692	0.334
692	0.334
693	0.333
693	0.333
694	0.332
694	0.331
695	0.331
695	0.332
695	0.331
696	0.33
696	0.329
697	0.329
697	0.328
698	0.327
698	0.326
698	0.325
699	0.324
699	0.322
700	0.321
700	0.32
701	0.318
701	0.316
702	0.314
702	0.313
702	0.311
703	0.309
703	0.307
704	0.305
704	0.304
705	0.303
705	0.302
705	0.3
706	0.299
706	0.298
707	0.297
707	0.296
708	0.294
708	0.293
709	0.292
709	0.29
709	0.288
710	0.286
710	0.285
711	0.283
711	0.282
712	0.28
712	0.279
713	0.277
713	0.276
713	0.274
714	0.273
714	0.271
715	0.27
715	0.268
716	0.266
716	0.265
716	0.263
717	0.262
717	0.26
718	0.259
718	0.257
719	0.256
719	0.254
720	0.252
720	0.251
720	0.248
721	0.246
721	0.244
722	0.242
722	0.24
723	0.238
723	0.236
723	0.234
724	0.233
724	0.231
725	0.229
725	0.228
726	0.227
726	0.226
727	0.224
727	0.223
727	0.222
728	0.22
728	0.219
729	0.219
729	0.217
730	0.216
730	0.215
730	0.214
731	0.212
731	0.211
732	0.21
732	0.209
733	0.207
733	0.206
734	0.205
734	0.203
734	0.202
735	0.201
735	0.2
736	0.199
736	0.198
737	0.197
737	0.196
737	0.194
738	0.192
738	0.189
739	0.188
739	0.186
740	0.184
740	0.183
741	0.181
741	0.179
741	0.177
742	0.175
742	0.174
743	0.174
743	0.173
744	0.172
744	0.171
744	0.169
745	0.168
745	0.167
746	0.166
746	0.166
747	0.165
747	0.164
748	0.163
748	0.162
748	0.16
749	0.16
749	0.159
750	0.158
750	0.157
751	0.157
751	0.156
751	0.155
752	0.154
752	0.154
753	0.153
753	0.153
754	0.152
754	0.151
754	0.15
755	0.149
755	0.149
756	0.147
756	0.145
757	0.145
757	0.144
758	0.143
758	0.142
758	0.142
759	0.141
759	0.139
760	0.139
760	0.138
761	0.138
761	0.139
761	0.138
762	0.138
762	0.138
763	0.137
763	0.136
764	0.135
764	0.135
764	0.134
765	0.133
765	0.132
766	0.132
766	0.132
767	0.131
767	0.13
768	0.129
768	0.129
768	0.129
769	0.128
769	0.128
770	0.127
770	0.126
771	0.125
771	0.124
771	0.123
772	0.122
772	0.122
773	0.121
773	0.12
774	0.12
774	0.119
775	0.119
775	0.118
775	0.117
776	0.116
776	0.115
777	0.114
777	0.113
778	0.112
778	0.111
778	0.111
779	0.11
779	0.11
780	0.109
780	0.109
781	0.108
781	0.107
781	0.106
782	0.105
782	0.104
783	0.103
783	0.102
784	0.1
784	0.099
784	0.098
785	0.097
785	0.097
786	0.097
786	0.097
787	0.098
787	0.098
788	0.097
788	0.098
788	0.098
789	0.098
789	0.099
790	0.099
790	0.099
791	0.099
791	0.099
791	0.099
792	0.1
792	0.099
793	0.098
793	0.098
794	0.097
794	0.097
794	0.096
795	0.096
795	0.096
796	0.096
796	0.095
797	0.093
797	0.093
797	0.093
798	0.092
798	0.092
799	0.091
799	0.09
800	0.088
800	0.087
801	0.086
801	0.085
801	0.083
802	0.082
802	0.081
803	0.08
803	0.079
804	0.079
804	0.079
804	0.078
805	0.078
805	0.078
806	0.079
806	0.079
807	0.08
807	0.081
807	0.081
808	0.082
808	0.082
809	0.082
809	0.083
810	0.084
810	0.084
810	0.084
811	0.085
811	0.086
812	0.086
812	0.086
813	0.087
813	0.087
813	0.086
814	0.086
814	0.086
815	0.085
815	0.084
816	0.083
816	0.082
817	0.081
817	0.081
817	0.08
818	0.079
818	0.079
819	0.078
819	0.077
820	0.077
820	0.076
820	0.076
821	0.076
821	0.075
822	0.075
822	0.074
823	0.074
823	0.074
823	0.074
824	0.073
824	0.073
825	0.073
825	0.073
826	0.072
826	0.071
826	0.071
827	0.07
827	0.069
828	0.068
828	0.068
829	0.068
829	0.068
829	0.067
830	0.067
830	0.067
831	0.067
831	0.067
832	0.067
832	0.067
832	0.067
833	0.066
833	0.066
834	0.065
834	0.064
835	0.063
835	0.063
835	0.062
836	0.062
836	0.061
837	0.06
837	0.06
838	0.06
838	0.06
839	0.06
839	0.06
839	0.061
840	0.061
840	0.061
841	0.062
841	0.062
842	0.063
842	0.063
842	0.063
843	0.063
843	0.063
844	0.063
844	0.062
845	0.062
845	0.062
845	0.061
846	0.06
846	0.06
847	0.059
847	0.059
848	0.058
848	0.057
848	0.057
849	0.057
849	0.056
850	0.056
850	0.055
851	0.055
851	0.055
851	0.054
852	0.054
852	0.054
853	0.054
853	0.054
854	0.054
854	0.054
854	0.054
855	0.054
855	0.054
856	0.054
856	0.054
857	0.055
857	0.055
857	0.055
858	0.055
858	0.055
859	0.055
859	0.056
860	0.056
860	0.056
860	0.056
861	0.056
861	0.056
862	0.055
862	0.055
863	0.055
863	0.055
863	0.054
864	0.053
864	0.052
865	0.052
865	0.05
866	0.049
866	0.048
866	0.048
867	0.047
867	0.047
868	0.047
868	0.047
869	0.047
869	0.048
869	0.048
870	0.048
870	0.048
871	0.048
871	0.048
872	0.047
872	0.046
872	0.045
873	0.044
873	0.043
874	0.042
874	0.041
875	0.04
875	0.039
875	0.038
876	0.037
876	0.036
877	0.036
877	0.035
878	0.034
878	0.034
878	0.034
879	0.033
879	0.033
880	0.033
880	0.034
881	0.034
881	0.035
881	0.036
882	0.038
882	0.039
883	0.04
883	0.041
884	0.042
884	0.043
884	0.043
885	0.044
885	0.044
886	0.045
886	0.045
887	0.045
887	0.045
887	0.045
888	0.046
888	0.046
889	0.046
889	0.047
890	0.048
890	0.048
890	0.049
891	0.049
891	0.049
892	0.049
892	0.049
893	0.049
893	0.048
893	0.047
894	0.046
894	0.045
895	0.044
895	0.043
895	0.041
896	0.04
896	0.039
897	0.038
897	0.037
898	0.036
898	0.036
898	0.035
899	0.034
899	0.034
900	0.033
900	0.033
901	0.033
901	0.033
901	0.033
902	0.033
902	0.033
903	0.032
903	0.032
904	0.032
904	0.031
904	0.031
905	0.03
905	0.03
906	0.029
906	0.028
907	0.028
907	0.027
907	0.027
908	0.027
908	0.027
909	0.027
909	0.028
910	0.029
910	0.029
910	0.03
911	0.031
911	0.031
912	0.032
912	0.032
913	0.032
913	0.032
913	0.032
914	0.031
914	0.03
915	0.029
915	0.028
916	0.027
916	0.026
916	0.026
917	0.025
917	0.025
918	0.025
918	0.025
918	0.026
919	0.027
919	0.027
920	0.028
920	0.029
921	0.03
921	0.03
921	0.03
922	0.03
922	0.031
923	0.031
923	0.03
924	0.03
924	0.029
924	0.029
925	0.028
925	0.028
926	0.028
926	0.028
927	0.027
927	0.027
927	0.026
928	0.026
928	0.026
929	0.026
929	0.026
930	0.026
930	0.025
930	0.025
931	0.025
931	0.024
932	0.024
932	0.024
933	0.024
933	0.024
933	0.023
934	0.023
934	0.022
935	0.022
935	0.022
935	0.021
936	0.021
936	0.02
937	0.02
937	0.02
938	0.019
938	0.019
938	0.019
939	0.019
939	0.019
940	0.019
940	0.02
941	0.021
941	0.021
941	0.022
942	0.023
942	0.023
943	0.024
943	0.024
944	0.024
944	0.024
944	0.024
945	0.024
945	0.024
946	0.024
946	0.023
946	0.023
947	0.023
947	0.023
948	0.023
948	0.024
949	0.024
949	0.024
949	0.025
950	0.025
950	0.025
951	0.025
951	0.025
952	0.025
952	0.025
952	0.025
953	0.025
953	0.025
954	0.025
954	0.024
955	0.024
955	0.024
955	0.024
956	0.023
956	0.023
957	0.022
957	0.021
957	0.02
958	0.019
958	0.018
959	0.017
959	0.016
960	0.015
960	0.015
960	0.014
961	0.013
961	0.012
962	0.012
962	0.012
963	0.013
963	0.013
963	0.014
964	0.014
964	0.015
965	0.016
965	0.017
966	0.018
966	0.019
966	0.02
967	0.021
967	0.022
968	0.022
968	0.022
968	0.022
969	0.022
969	0.022
970	0.022
970	0.022
971	0.022
971	0.022
971	0.022
972	0.021
972	0.021
973	0.021
973	0.02
974	0.02
974	0.019
974	0.019
975	0.018
975	0.017
976	0.016
976	0.015
976	0.014
977	0.013
977	0.012
978	0.011
978	0.01
979	0.009
979	0.009
979	0.009
980	0.009
980	0.009
981	0.009
981	0.01
982	0.01
982	0.011
982	0.012
983	0.013
983	0.014
984	0.015
984	0.015
984	0.016
985	0.016
985	0.017
986	0.016
986	0.016
987	0.015
987	0.014
987	0.013
988	0.012
988	0.011
989	0.009
989	0.007
990	0.005
990	0.004
990	0.002
991	0.001
991	-0.001
992	-0.002
992	-0.004
992	-0.005
993	-0.006
993	-0.007
994	-0.008
994	-0.009
995	-0.009
995	-0.01
995	-0.01
996	-0.01
996	-0.01
997	-0.01
997	-0.01
997	-0.009
998	-0.008
998	-0.007
999	-0.006
999	-0.005
1000	-0.004
1000	-0.002
1000	-0.001
1001	0
1001	0.002
1002	0.003
1002	0.004
1003	0.005
1003	0.006
1003	0.007
1004	0.008
1004	0.008
1005	0.009
1005	0.009
1005	0.009
1006	0.009
1006	0.009
1007	0.01
1007	0.009
1008	0.009
1008	0.01
1008	0.01
1009	0.01
1009	0.01
1010	0.011
1010	0.011
1010	0.011
1011	0.011
1011	0.011
1012	0.011
1012	0.011
1013	0.01
1013	0.01
1013	0.009
1014	0.008
1014	0.007
1015	0.006
1015	0.005
1016	0.003
1016	0.002
1016	0.001
1017	0.001
1017	0
1018	-0
1018	-0.001
1018	-0.001
1019	-0.001
1019	-0.001
1020	-0.001
1020	-0.001
1021	-0.001
1021	-0.001
1021	-0.001
1022	-0.002
1022	-0.002
1023	-0.002
1023	-0.003
1023	-0.004
1024	-0.005
1024	-0.006
1025	-0.006
1025	-0.007
1026	-0.008
1026	-0.008
1026	-0.009
1027	-0.009
1027	-0.009
1028	-0.009
1028	-0.009
1028	-0.009
1029	-0.009
1029	-0.009
1030	-0.008
1030	-0.008
1031	-0.008
1031	-0.007
1031	-0.007
1032	-0.007
1032	-0.007
1033	-0.007
1033	-0.007
1033	-0.008
1034	-0.009
1034	-0.01
1035	-0.011
1035	-0.012
1036	-0.013
1036	-0.014
1036	-0.014
1037	-0.015
1037	-0.016
1038	-0.016
1038	-0.017
1039	-0.017
1039	-0.017
1039	-0.017
1040	-0.017
1040	-0.017
1041	-0.017
1041	-0.017
1041	-0.018
1042	-0.018
1042	-0.018
1043	-0.019
1043	-0.02
1044	-0.02
1044	-0.02
1044	-0.021
1045	-0.021
1045	-0.022
1046	-0.022
1046	-0.021
1046	-0.021
1047	-0.02
1047	-0.019
1048	-0.019
1048	-0.018
1049	-0.018
1049	-0.017
1049	-0.017
1050	-0.017
1050	-0.017
1051	-0.017
1051	-0.018
1051	-0.017
1052	-0.017
1052	-0.017
1053	-0.017
1053	-0.017
1053	-0.017
1054	-0.017
1054	-0.017
1055	-0.016
1055	-0.016
1056	-0.016
1056	-0.017
1056	-0.018
1057	-0.018
1057	-0.019
1058	-0.019
1058	-0.02
1058	-0.021
1059	-0.021
1059	-0.022
1060	-0.022
1060	-0.023
1061	-0.023
1061	-0.023
1061	-0.024
1062	-0.024
1062	-0.025
1063	-0.026
1063	-0.027
1063	-0.028
1064	-0.028
1064	-0.029
1065	-0.029
1065	-0.03
1066	-0.031
1066	-0.031
1066	-0.032
1067	-0.032
1067	-0.033
1068	-0.033
1068	-0.034
1068	-0.034
1069	-0.035
1069	-0.036
1070	-0.036
1070	-0.037
1071	-0.038
1071	-0.038
1071	-0.039
1072	-0.039
1072	-0.039
1073	-0.04
1073	-0.039
1073	-0.04
1074	-0.04
1074	-0.04
1075	-0.04
1075	-0.04
1076	-0.041
1076	-0.041
1076	-0.042
1077	-0.042
1077	-0.042
1078	-0.043
1078	-0.043
1078	-0.044
1079	-0.045
1079	-0.044
1080	-0.045
1080	-0.045
1080	-0.045
1081	-0.045
1081	-0.045
1082	-0.044
1082	-0.045
1083	-0.045
1083	-0.045
1083	-0.045
1084	-0.045
1084	-0.045
1085	-0.045
1085	-0.044
1085	-0.044
1086	-0.045
1086	-0.046
1087	-0.046
1087	-0.046
1088	-0.047
1088	-0.048
1088	-0.048
1089	-0.05
1089	-0.051
1090	-0.052
1090	-0.054
1090	-0.055
1091	-0.056
1091	-0.057
1092	-0.058
1092	-0.059
1092	-0.06
1093	-0.061
1093	-0.06
1094	-0.061
1094	-0.061
1095	-0.062
1095	-0.063
1095	-0.064
1096	-0.065
1096	-0.066
1097	-0.066
1097	-0.068
1097	-0.068
1098	-0.07
1098	-0.071
1099	-0.072
1099	-0.074
1100	-0.075
1100	-0.076
1100	-0.077
1101	-0.079
1101	-0.082
1102	-0.083
1102	-0.085
1102	-0.087
1103	-0.088
1103	-0.09
1104	-0.092
1104	-0.093
1104	-0.093
1105	-0.096
1105	-0.098
1106	-0.1
1106	-0.102
1107	-0.106
1107	-0.109
1107	-0.113
1108	-0.115
1108	-0.116
1109	-0.119
1109	-0.124
1109	-0.126
1110	-0.127
1110	-0.13
1111	-0.136
1111	-0.129
