Data from 17c-100ul-ns-20ul-nr-full-exp'4ul'bp_Absorbance__579__01049.txt Node

Date: Mon Jan 15 09:59:36 CET 2024
User: Marek
Spectrometer: MAYP115816
Trigger mode: 0
Integration Time (sec): 2.000000E-1
Scans to average: 10
Electric dark correction enabled: true
Nonlinearity correction enabled: true
Boxcar width: 5
XAxis mode: Wavelengths
Number of Pixels in Spectrum: 2068
>>>>>Begin Spectral Data<<<<<
199	-0.489
199	-0.463
200	-0.388
200	-0.326
201	-0.288
201	-0.265
202	-0.242
202	-0.238
203	-0.231
203	-0.229
204	-0.212
204	-0.198
205	-0.184
205	-0.179
205	-0.181
206	-0.182
206	-0.187
207	-0.185
207	-0.185
208	-0.186
208	-0.185
209	-0.184
209	-0.19
210	-0.193
210	-0.193
211	-0.193
211	-0.195
212	-0.196
212	-0.197
213	-0.199
213	-0.199
213	-0.2
214	-0.2
214	-0.199
215	-0.197
215	-0.201
216	-0.203
216	-0.204
217	-0.202
217	-0.202
218	-0.202
218	-0.197
219	-0.196
219	-0.197
220	-0.196
220	-0.197
221	-0.196
221	-0.194
221	-0.19
222	-0.188
222	-0.185
223	-0.18
223	-0.181
224	-0.178
224	-0.171
225	-0.163
225	-0.155
226	-0.149
226	-0.137
227	-0.126
227	-0.117
228	-0.104
228	-0.092
229	-0.074
229	-0.052
229	-0.033
230	-0.012
230	0.012
231	0.037
231	0.06
232	0.079
232	0.104
233	0.126
233	0.149
234	0.167
234	0.185
235	0.202
235	0.216
236	0.229
236	0.242
236	0.254
237	0.265
237	0.274
238	0.283
238	0.289
239	0.297
239	0.303
240	0.308
240	0.312
241	0.316
241	0.319
242	0.322
242	0.324
243	0.327
243	0.329
243	0.331
244	0.333
244	0.335
245	0.335
245	0.337
246	0.338
246	0.34
247	0.341
247	0.342
248	0.343
248	0.344
249	0.345
249	0.345
250	0.346
250	0.347
250	0.348
251	0.348
251	0.348
252	0.349
252	0.35
253	0.35
253	0.351
254	0.351
254	0.352
255	0.352
255	0.352
256	0.352
256	0.352
257	0.352
257	0.352
258	0.352
258	0.352
258	0.352
259	0.352
259	0.352
260	0.351
260	0.351
261	0.351
261	0.351
262	0.35
262	0.35
263	0.349
263	0.348
264	0.347
264	0.347
265	0.346
265	0.345
265	0.344
266	0.343
266	0.342
267	0.341
267	0.34
268	0.339
268	0.338
269	0.337
269	0.336
270	0.334
270	0.333
271	0.331
271	0.33
272	0.328
272	0.327
272	0.326
273	0.324
273	0.323
274	0.322
274	0.32
275	0.319
275	0.318
276	0.316
276	0.315
277	0.313
277	0.312
278	0.311
278	0.31
278	0.308
279	0.306
279	0.305
280	0.303
280	0.302
281	0.301
281	0.299
282	0.297
282	0.295
283	0.294
283	0.292
284	0.29
284	0.289
285	0.288
285	0.286
285	0.285
286	0.283
286	0.282
287	0.281
287	0.28
288	0.279
288	0.278
289	0.276
289	0.275
290	0.274
290	0.273
291	0.272
291	0.271
292	0.27
292	0.269
292	0.268
293	0.267
293	0.266
294	0.266
294	0.265
295	0.264
295	0.263
296	0.262
296	0.261
297	0.261
297	0.26
298	0.259
298	0.258
298	0.258
299	0.257
299	0.256
300	0.256
300	0.255
301	0.254
301	0.253
302	0.253
302	0.252
303	0.252
303	0.251
304	0.25
304	0.25
305	0.249
305	0.249
305	0.248
306	0.248
306	0.247
307	0.246
307	0.246
308	0.245
308	0.244
309	0.244
309	0.243
310	0.242
310	0.242
311	0.241
311	0.24
311	0.24
312	0.239
312	0.239
313	0.238
313	0.237
314	0.237
314	0.236
315	0.236
315	0.235
316	0.235
316	0.234
317	0.234
317	0.233
318	0.232
318	0.232
318	0.231
319	0.231
319	0.23
320	0.23
320	0.229
321	0.229
321	0.228
322	0.227
322	0.227
323	0.226
323	0.226
324	0.225
324	0.224
324	0.224
325	0.223
325	0.222
326	0.222
326	0.221
327	0.221
327	0.22
328	0.22
328	0.219
329	0.219
329	0.218
330	0.217
330	0.217
330	0.216
331	0.216
331	0.215
332	0.215
332	0.215
333	0.214
333	0.214
334	0.213
334	0.212
335	0.212
335	0.211
336	0.211
336	0.21
336	0.21
337	0.209
337	0.209
338	0.208
338	0.208
339	0.208
339	0.207
340	0.206
340	0.206
341	0.206
341	0.205
342	0.205
342	0.204
342	0.204
343	0.203
343	0.203
344	0.203
344	0.202
345	0.202
345	0.202
346	0.202
346	0.201
347	0.201
347	0.201
348	0.201
348	0.201
348	0.2
349	0.2
349	0.2
350	0.2
350	0.2
351	0.2
351	0.199
352	0.199
352	0.199
353	0.199
353	0.198
354	0.198
354	0.198
354	0.197
355	0.197
355	0.197
356	0.197
356	0.197
357	0.197
357	0.197
358	0.197
358	0.197
359	0.197
359	0.197
360	0.196
360	0.196
360	0.196
361	0.195
361	0.195
362	0.195
362	0.195
363	0.195
363	0.195
364	0.195
364	0.194
365	0.194
365	0.194
366	0.194
366	0.194
366	0.194
367	0.194
367	0.194
368	0.194
368	0.194
369	0.194
369	0.194
370	0.193
370	0.193
371	0.193
371	0.193
372	0.193
372	0.193
372	0.193
373	0.193
373	0.193
374	0.193
374	0.193
375	0.193
375	0.193
376	0.193
376	0.192
377	0.192
377	0.192
378	0.192
378	0.192
378	0.192
379	0.191
379	0.191
380	0.191
380	0.191
381	0.191
381	0.191
382	0.191
382	0.191
383	0.19
383	0.19
383	0.19
384	0.19
384	0.189
385	0.189
385	0.189
386	0.189
386	0.189
387	0.189
387	0.189
388	0.188
388	0.188
389	0.188
389	0.188
389	0.188
390	0.188
390	0.188
391	0.188
391	0.188
392	0.187
392	0.187
393	0.187
393	0.187
394	0.187
394	0.187
394	0.186
395	0.186
395	0.186
396	0.186
396	0.185
397	0.185
397	0.185
398	0.185
398	0.185
399	0.185
399	0.185
400	0.185
400	0.184
400	0.184
401	0.184
401	0.183
402	0.183
402	0.183
403	0.182
403	0.182
404	0.182
404	0.182
405	0.182
405	0.182
405	0.182
406	0.182
406	0.182
407	0.181
407	0.181
408	0.181
408	0.181
409	0.181
409	0.181
410	0.181
410	0.181
411	0.181
411	0.18
411	0.18
412	0.18
412	0.18
413	0.18
413	0.179
414	0.179
414	0.179
415	0.179
415	0.178
416	0.178
416	0.178
416	0.178
417	0.177
417	0.177
418	0.177
418	0.177
419	0.177
419	0.177
420	0.177
420	0.177
421	0.177
421	0.177
421	0.177
422	0.177
422	0.176
423	0.176
423	0.176
424	0.176
424	0.176
425	0.175
425	0.175
426	0.175
426	0.175
427	0.175
427	0.175
427	0.175
428	0.175
428	0.175
429	0.175
429	0.175
430	0.175
430	0.175
431	0.175
431	0.175
432	0.174
432	0.174
432	0.174
433	0.174
433	0.174
434	0.173
434	0.173
435	0.173
435	0.173
436	0.173
436	0.173
437	0.173
437	0.173
437	0.173
438	0.173
438	0.172
439	0.172
439	0.172
440	0.172
440	0.172
441	0.171
441	0.171
442	0.171
442	0.171
442	0.171
443	0.171
443	0.171
444	0.171
444	0.171
445	0.171
445	0.171
446	0.171
446	0.171
447	0.171
447	0.171
447	0.171
448	0.171
448	0.171
449	0.171
449	0.171
450	0.171
450	0.171
451	0.17
451	0.17
452	0.17
452	0.17
452	0.17
453	0.17
453	0.17
454	0.17
454	0.17
455	0.17
455	0.17
456	0.171
456	0.17
457	0.17
457	0.17
458	0.171
458	0.171
458	0.171
459	0.171
459	0.171
460	0.171
460	0.17
461	0.17
461	0.17
462	0.17
462	0.17
463	0.17
463	0.17
463	0.171
464	0.17
464	0.17
465	0.171
465	0.171
466	0.171
466	0.171
467	0.171
467	0.172
467	0.172
468	0.171
468	0.171
469	0.172
469	0.172
470	0.172
470	0.172
471	0.172
471	0.173
472	0.173
472	0.173
472	0.174
473	0.174
473	0.175
474	0.175
474	0.176
475	0.176
475	0.176
476	0.176
476	0.176
477	0.176
477	0.176
477	0.177
478	0.177
478	0.177
479	0.177
479	0.177
480	0.177
480	0.178
481	0.179
481	0.18
482	0.18
482	0.181
482	0.182
483	0.183
483	0.185
484	0.185
484	0.185
485	0.186
485	0.187
486	0.187
486	0.187
487	0.188
487	0.188
487	0.189
488	0.19
488	0.19
489	0.192
489	0.194
490	0.194
490	0.196
491	0.197
491	0.198
492	0.199
492	0.2
492	0.2
493	0.201
493	0.203
494	0.204
494	0.206
495	0.207
495	0.209
496	0.21
496	0.212
496	0.213
497	0.215
497	0.216
498	0.217
498	0.219
499	0.22
499	0.221
500	0.222
500	0.224
501	0.225
501	0.226
501	0.227
502	0.228
502	0.23
503	0.231
503	0.232
504	0.234
504	0.235
505	0.236
505	0.237
506	0.239
506	0.24
506	0.242
507	0.243
507	0.245
508	0.246
508	0.248
509	0.25
509	0.251
510	0.253
510	0.254
511	0.255
511	0.256
511	0.257
512	0.259
512	0.26
513	0.26
513	0.261
514	0.262
514	0.264
515	0.265
515	0.265
515	0.266
516	0.268
516	0.269
517	0.27
517	0.27
518	0.271
518	0.272
519	0.272
519	0.273
520	0.273
520	0.274
520	0.275
521	0.275
521	0.275
522	0.275
522	0.276
523	0.277
523	0.277
524	0.278
524	0.278
524	0.279
525	0.279
525	0.279
526	0.279
526	0.279
527	0.279
527	0.279
528	0.279
528	0.279
529	0.279
529	0.279
529	0.279
530	0.279
530	0.278
531	0.278
531	0.278
532	0.277
532	0.277
533	0.276
533	0.276
533	0.275
534	0.274
534	0.274
535	0.273
535	0.272
536	0.272
536	0.271
537	0.271
537	0.27
538	0.269
538	0.268
538	0.268
539	0.267
539	0.267
540	0.266
540	0.265
541	0.264
541	0.263
542	0.262
542	0.261
542	0.26
543	0.259
543	0.258
544	0.257
544	0.256
545	0.255
545	0.255
546	0.254
546	0.252
547	0.251
547	0.249
547	0.248
548	0.248
548	0.247
549	0.245
549	0.244
550	0.243
550	0.242
551	0.24
551	0.239
551	0.238
552	0.237
552	0.236
553	0.235
553	0.234
554	0.233
554	0.231
555	0.23
555	0.229
556	0.228
556	0.227
556	0.225
557	0.225
557	0.223
558	0.222
558	0.221
559	0.22
559	0.219
560	0.218
560	0.216
560	0.216
561	0.215
561	0.214
562	0.213
562	0.211
563	0.21
563	0.208
564	0.207
564	0.206
564	0.205
565	0.204
565	0.203
566	0.201
566	0.2
567	0.199
567	0.199
568	0.198
568	0.197
568	0.197
569	0.196
569	0.195
570	0.193
570	0.192
571	0.191
571	0.191
572	0.189
572	0.188
573	0.186
573	0.185
573	0.183
574	0.183
574	0.182
575	0.181
575	0.182
576	0.181
576	0.179
577	0.178
577	0.177
577	0.177
578	0.176
578	0.176
579	0.176
579	0.176
580	0.174
580	0.172
581	0.17
581	0.17
581	0.169
582	0.169
582	0.169
583	0.169
583	0.168
584	0.165
584	0.163
585	0.164
585	0.164
585	0.164
586	0.163
586	0.162
587	0.161
587	0.16
588	0.158
588	0.158
589	0.158
589	0.158
590	0.158
590	0.157
590	0.158
591	0.157
591	0.156
592	0.155
592	0.154
593	0.154
593	0.153
594	0.152
594	0.151
594	0.15
595	0.15
595	0.149
596	0.149
596	0.151
597	0.152
597	0.152
598	0.151
598	0.151
598	0.151
599	0.151
599	0.15
600	0.149
600	0.148
601	0.147
601	0.146
602	0.144
602	0.143
602	0.142
603	0.141
603	0.141
604	0.141
604	0.141
605	0.141
605	0.142
606	0.141
606	0.14
606	0.14
607	0.139
607	0.139
608	0.139
608	0.138
609	0.137
609	0.137
610	0.137
610	0.136
610	0.137
611	0.137
611	0.138
612	0.138
612	0.139
613	0.139
613	0.139
614	0.138
614	0.138
614	0.138
615	0.137
615	0.136
616	0.137
616	0.136
617	0.136
617	0.135
618	0.135
618	0.135
618	0.135
619	0.136
619	0.137
620	0.138
620	0.138
621	0.138
621	0.138
622	0.138
622	0.138
622	0.137
623	0.137
623	0.138
624	0.138
624	0.137
625	0.137
625	0.138
626	0.137
626	0.138
626	0.139
627	0.14
627	0.141
628	0.141
628	0.142
629	0.142
629	0.143
630	0.143
630	0.144
630	0.145
631	0.146
631	0.147
632	0.147
632	0.148
633	0.149
633	0.15
634	0.152
634	0.153
634	0.154
635	0.155
635	0.155
636	0.156
636	0.157
637	0.157
637	0.158
638	0.159
638	0.159
638	0.16
639	0.161
639	0.161
640	0.163
640	0.164
641	0.165
641	0.166
642	0.167
642	0.169
642	0.17
643	0.171
643	0.172
644	0.173
644	0.174
645	0.175
645	0.177
646	0.178
646	0.18
646	0.182
647	0.183
647	0.185
648	0.186
648	0.188
649	0.19
649	0.192
650	0.194
650	0.196
650	0.198
651	0.199
651	0.201
652	0.204
652	0.206
653	0.209
653	0.215
653	0.217
654	0.171
654	0.137
655	0.141
655	0.142
656	0.144
656	0.145
657	0.146
657	0.148
657	0.148
658	0.146
658	0.142
659	0.181
659	0.236
660	0.243
660	0.245
661	0.248
661	0.251
661	0.254
662	0.257
662	0.26
663	0.262
663	0.265
664	0.267
664	0.269
665	0.271
665	0.273
665	0.276
666	0.278
666	0.28
667	0.282
667	0.285
668	0.288
668	0.29
669	0.293
669	0.296
669	0.299
670	0.301
670	0.303
671	0.305
671	0.307
672	0.31
672	0.312
672	0.314
673	0.316
673	0.319
674	0.32
674	0.322
675	0.323
675	0.326
676	0.327
676	0.328
676	0.329
677	0.33
677	0.331
678	0.331
678	0.331
679	0.332
679	0.333
680	0.334
680	0.334
680	0.335
681	0.336
681	0.337
682	0.337
682	0.338
683	0.34
683	0.341
684	0.341
684	0.341
684	0.342
685	0.342
685	0.343
686	0.343
686	0.343
687	0.343
687	0.344
687	0.344
688	0.343
688	0.343
689	0.344
689	0.344
690	0.343
690	0.342
691	0.342
691	0.341
691	0.34
692	0.34
692	0.339
693	0.339
693	0.338
694	0.337
694	0.336
695	0.336
695	0.337
695	0.336
696	0.335
696	0.335
697	0.334
697	0.333
698	0.332
698	0.331
698	0.33
699	0.329
699	0.327
700	0.325
700	0.324
701	0.322
701	0.32
702	0.318
702	0.316
702	0.314
703	0.312
703	0.31
704	0.309
704	0.307
705	0.306
705	0.304
705	0.303
706	0.301
706	0.3
707	0.299
707	0.297
708	0.296
708	0.294
709	0.292
709	0.29
709	0.288
710	0.286
710	0.285
711	0.283
711	0.282
712	0.28
712	0.278
713	0.277
713	0.275
713	0.274
714	0.272
714	0.27
715	0.269
715	0.267
716	0.265
716	0.264
716	0.262
717	0.26
717	0.259
718	0.257
718	0.255
719	0.254
719	0.252
720	0.25
720	0.248
720	0.246
721	0.244
721	0.242
722	0.24
722	0.238
723	0.236
723	0.234
723	0.231
724	0.229
724	0.228
725	0.226
725	0.224
726	0.223
726	0.221
727	0.22
727	0.219
727	0.218
728	0.216
728	0.215
729	0.214
729	0.213
730	0.212
730	0.21
730	0.209
731	0.208
731	0.207
732	0.205
732	0.203
733	0.202
733	0.2
734	0.199
734	0.197
734	0.195
735	0.194
735	0.192
736	0.191
736	0.19
737	0.189
737	0.188
737	0.186
738	0.183
738	0.181
739	0.179
739	0.177
740	0.175
740	0.174
741	0.172
741	0.17
741	0.167
742	0.165
742	0.165
743	0.164
743	0.162
744	0.161
744	0.16
744	0.159
745	0.157
745	0.156
746	0.155
746	0.154
747	0.153
747	0.152
748	0.151
748	0.15
748	0.149
749	0.148
749	0.147
750	0.147
750	0.146
751	0.145
751	0.145
751	0.144
752	0.143
752	0.142
753	0.142
753	0.141
754	0.141
754	0.14
754	0.139
755	0.137
755	0.136
756	0.135
756	0.133
757	0.132
757	0.131
758	0.13
758	0.129
758	0.128
759	0.127
759	0.126
760	0.125
760	0.125
761	0.125
761	0.125
761	0.125
762	0.124
762	0.124
763	0.124
763	0.123
764	0.122
764	0.121
764	0.12
765	0.119
765	0.118
766	0.117
766	0.116
767	0.115
767	0.114
768	0.113
768	0.113
768	0.112
769	0.112
769	0.111
770	0.11
770	0.11
771	0.109
771	0.108
771	0.107
772	0.106
772	0.105
773	0.105
773	0.104
774	0.103
774	0.103
775	0.102
775	0.101
775	0.1
776	0.099
776	0.098
777	0.098
777	0.097
778	0.096
778	0.095
778	0.094
779	0.094
779	0.093
780	0.092
780	0.092
781	0.091
781	0.09
781	0.089
782	0.088
782	0.087
783	0.086
783	0.085
784	0.083
784	0.082
784	0.081
785	0.08
785	0.079
786	0.079
786	0.079
787	0.079
787	0.079
788	0.079
788	0.079
788	0.079
789	0.079
789	0.08
790	0.08
790	0.079
791	0.079
791	0.079
791	0.079
792	0.079
792	0.078
793	0.077
793	0.077
794	0.076
794	0.076
794	0.076
795	0.076
795	0.075
796	0.075
796	0.074
797	0.073
797	0.073
797	0.073
798	0.072
798	0.072
799	0.071
799	0.07
800	0.069
800	0.068
801	0.067
801	0.066
801	0.065
802	0.064
802	0.063
803	0.062
803	0.061
804	0.061
804	0.06
804	0.06
805	0.06
805	0.06
806	0.061
806	0.061
807	0.062
807	0.063
807	0.063
808	0.064
808	0.064
809	0.065
809	0.065
810	0.066
810	0.066
810	0.066
811	0.067
811	0.068
812	0.068
812	0.068
813	0.069
813	0.069
813	0.069
814	0.069
814	0.068
815	0.067
815	0.066
816	0.065
816	0.064
817	0.062
817	0.062
817	0.061
818	0.06
818	0.059
819	0.058
819	0.057
820	0.056
820	0.055
820	0.055
821	0.055
821	0.054
822	0.054
822	0.054
823	0.054
823	0.053
823	0.053
824	0.053
824	0.053
825	0.053
825	0.052
826	0.052
826	0.051
826	0.051
827	0.05
827	0.05
828	0.049
828	0.049
829	0.049
829	0.049
829	0.049
830	0.049
830	0.049
831	0.05
831	0.049
832	0.049
832	0.049
832	0.049
833	0.049
833	0.048
834	0.047
834	0.047
835	0.046
835	0.045
835	0.044
836	0.044
836	0.043
837	0.043
837	0.043
838	0.043
838	0.043
839	0.043
839	0.043
839	0.043
840	0.044
840	0.044
841	0.044
841	0.045
842	0.045
842	0.046
842	0.046
843	0.046
843	0.045
844	0.045
844	0.045
845	0.044
845	0.044
845	0.043
846	0.043
846	0.042
847	0.041
847	0.04
848	0.04
848	0.039
848	0.039
849	0.038
849	0.037
850	0.037
850	0.036
851	0.036
851	0.035
851	0.035
852	0.034
852	0.034
853	0.034
853	0.034
854	0.034
854	0.034
854	0.034
855	0.035
855	0.034
856	0.035
856	0.035
857	0.035
857	0.035
857	0.035
858	0.035
858	0.035
859	0.036
859	0.036
860	0.036
860	0.036
860	0.036
861	0.036
861	0.036
862	0.036
862	0.036
863	0.035
863	0.035
863	0.035
864	0.034
864	0.033
865	0.033
865	0.032
866	0.031
866	0.03
866	0.029
867	0.029
867	0.029
868	0.029
868	0.029
869	0.029
869	0.029
869	0.03
870	0.03
870	0.03
871	0.03
871	0.03
872	0.029
872	0.028
872	0.027
873	0.026
873	0.025
874	0.024
874	0.023
875	0.022
875	0.021
875	0.021
876	0.02
876	0.019
877	0.018
877	0.018
878	0.017
878	0.017
878	0.017
879	0.017
879	0.017
880	0.017
880	0.018
881	0.019
881	0.02
881	0.021
882	0.022
882	0.023
883	0.024
883	0.025
884	0.026
884	0.027
884	0.028
885	0.029
885	0.029
886	0.03
886	0.03
887	0.03
887	0.03
887	0.03
888	0.03
888	0.03
889	0.031
889	0.031
890	0.032
890	0.032
890	0.033
891	0.033
891	0.033
892	0.033
892	0.032
893	0.032
893	0.031
893	0.031
894	0.03
894	0.028
895	0.027
895	0.026
895	0.025
896	0.023
896	0.022
897	0.021
897	0.02
898	0.02
898	0.019
898	0.018
899	0.018
899	0.017
900	0.016
900	0.016
901	0.016
901	0.016
901	0.016
902	0.015
902	0.015
903	0.015
903	0.014
904	0.014
904	0.013
904	0.013
905	0.012
905	0.012
906	0.011
906	0.011
907	0.01
907	0.01
907	0.01
908	0.01
908	0.01
909	0.01
909	0.011
910	0.011
910	0.012
910	0.013
911	0.014
911	0.014
912	0.015
912	0.015
913	0.015
913	0.015
913	0.015
914	0.014
914	0.013
915	0.013
915	0.012
916	0.011
916	0.01
916	0.01
917	0.01
917	0.009
918	0.009
918	0.01
918	0.01
919	0.011
919	0.012
920	0.012
920	0.013
921	0.013
921	0.014
921	0.014
922	0.014
922	0.014
923	0.014
923	0.014
924	0.014
924	0.013
924	0.013
925	0.013
925	0.013
926	0.012
926	0.012
927	0.012
927	0.011
927	0.011
928	0.011
928	0.011
929	0.01
929	0.01
930	0.01
930	0.01
930	0.009
931	0.009
931	0.009
932	0.008
932	0.008
933	0.008
933	0.008
933	0.007
934	0.007
934	0.007
935	0.007
935	0.006
935	0.006
936	0.006
936	0.006
937	0.006
937	0.006
938	0.005
938	0.005
938	0.005
939	0.005
939	0.005
940	0.005
940	0.006
941	0.006
941	0.007
941	0.007
942	0.008
942	0.009
943	0.009
943	0.009
944	0.009
944	0.009
944	0.009
945	0.009
945	0.008
946	0.008
946	0.008
946	0.007
947	0.007
947	0.007
948	0.008
948	0.008
949	0.008
949	0.009
949	0.009
950	0.01
950	0.01
951	0.01
951	0.01
952	0.01
952	0.01
952	0.01
953	0.01
953	0.01
954	0.009
954	0.009
955	0.009
955	0.008
955	0.008
956	0.008
956	0.008
957	0.007
957	0.006
957	0.006
958	0.005
958	0.004
959	0.003
959	0.003
960	0.002
960	0.001
960	0.001
961	0
961	-0
962	-0
962	0
963	0.001
963	0.001
963	0.002
964	0.003
964	0.004
965	0.005
965	0.006
966	0.007
966	0.007
966	0.008
967	0.009
967	0.01
968	0.01
968	0.01
968	0.01
969	0.01
969	0.01
970	0.01
970	0.009
971	0.009
971	0.009
971	0.008
972	0.008
972	0.007
973	0.007
973	0.006
974	0.006
974	0.005
974	0.005
975	0.004
975	0.004
976	0.003
976	0.002
976	0.001
977	0
977	-0.001
978	-0.002
978	-0.003
979	-0.003
979	-0.003
979	-0.004
980	-0.004
980	-0.004
981	-0.003
981	-0.003
982	-0.002
982	-0.001
982	0
983	0.001
983	0.002
984	0.003
984	0.003
984	0.004
985	0.005
985	0.005
986	0.004
986	0.003
987	0.003
987	0.002
987	0.001
988	0
988	-0.001
989	-0.003
989	-0.005
990	-0.007
990	-0.009
990	-0.01
991	-0.011
991	-0.013
992	-0.014
992	-0.015
992	-0.017
993	-0.018
993	-0.019
994	-0.02
994	-0.02
995	-0.021
995	-0.021
995	-0.022
996	-0.022
996	-0.022
997	-0.022
997	-0.021
997	-0.021
998	-0.02
998	-0.019
999	-0.018
999	-0.017
1000	-0.015
1000	-0.014
1000	-0.013
1001	-0.011
1001	-0.01
1002	-0.009
1002	-0.008
1003	-0.007
1003	-0.006
1003	-0.005
1004	-0.004
1004	-0.004
1005	-0.003
1005	-0.003
1005	-0.003
1006	-0.003
1006	-0.002
1007	-0.002
1007	-0.002
1008	-0.002
1008	-0.002
1008	-0.002
1009	-0.002
1009	-0.002
1010	-0.001
1010	-0.001
1010	-0.001
1011	-0.001
1011	-0.001
1012	-0.001
1012	-0.002
1013	-0.002
1013	-0.003
1013	-0.004
1014	-0.005
1014	-0.006
1015	-0.007
1015	-0.008
1016	-0.009
1016	-0.01
1016	-0.01
1017	-0.011
1017	-0.011
1018	-0.012
1018	-0.012
1018	-0.012
1019	-0.011
1019	-0.011
1020	-0.011
1020	-0.011
1021	-0.011
1021	-0.011
1021	-0.012
1022	-0.012
1022	-0.012
1023	-0.013
1023	-0.013
1023	-0.014
1024	-0.015
1024	-0.016
1025	-0.017
1025	-0.018
1026	-0.018
1026	-0.019
1026	-0.019
1027	-0.02
1027	-0.02
1028	-0.02
1028	-0.02
1028	-0.02
1029	-0.02
1029	-0.02
1030	-0.02
1030	-0.02
1031	-0.019
1031	-0.019
1031	-0.019
1032	-0.019
1032	-0.019
1033	-0.019
1033	-0.02
1033	-0.021
1034	-0.022
1034	-0.023
1035	-0.024
1035	-0.025
1036	-0.026
1036	-0.027
1036	-0.028
1037	-0.029
1037	-0.029
1038	-0.03
1038	-0.03
1039	-0.03
1039	-0.029
1039	-0.029
1040	-0.029
1040	-0.029
1041	-0.029
1041	-0.03
1041	-0.03
1042	-0.03
1042	-0.031
1043	-0.031
1043	-0.031
1044	-0.032
1044	-0.032
1044	-0.032
1045	-0.032
1045	-0.032
1046	-0.032
1046	-0.032
1046	-0.031
1047	-0.03
1047	-0.029
1048	-0.028
1048	-0.028
1049	-0.027
1049	-0.027
1049	-0.027
1050	-0.027
1050	-0.027
1051	-0.027
1051	-0.028
1051	-0.027
1052	-0.027
1052	-0.027
1053	-0.027
1053	-0.026
1053	-0.026
1054	-0.026
1054	-0.026
1055	-0.025
1055	-0.025
1056	-0.024
1056	-0.025
1056	-0.025
1057	-0.026
1057	-0.026
1058	-0.027
1058	-0.027
1058	-0.028
1059	-0.029
1059	-0.029
1060	-0.03
1060	-0.031
1061	-0.031
1061	-0.031
1061	-0.032
1062	-0.032
1062	-0.033
1063	-0.034
1063	-0.034
1063	-0.036
1064	-0.036
1064	-0.037
1065	-0.038
1065	-0.039
1066	-0.04
1066	-0.041
1066	-0.042
1067	-0.042
1067	-0.043
1068	-0.043
1068	-0.044
1068	-0.044
1069	-0.045
1069	-0.046
1070	-0.046
1070	-0.047
1071	-0.047
1071	-0.047
1071	-0.048
1072	-0.048
1072	-0.049
1073	-0.049
1073	-0.049
1073	-0.049
1074	-0.049
1074	-0.049
1075	-0.049
1075	-0.049
1076	-0.05
1076	-0.05
1076	-0.05
1077	-0.051
1077	-0.051
1078	-0.052
1078	-0.052
1078	-0.052
1079	-0.053
1079	-0.053
1080	-0.053
1080	-0.053
1080	-0.053
1081	-0.053
1081	-0.053
1082	-0.053
1082	-0.053
1083	-0.054
1083	-0.054
1083	-0.054
1084	-0.054
1084	-0.053
1085	-0.054
1085	-0.054
1085	-0.053
1086	-0.053
1086	-0.054
1087	-0.054
1087	-0.055
1088	-0.055
1088	-0.056
1088	-0.056
1089	-0.057
1089	-0.058
1090	-0.059
1090	-0.06
1090	-0.062
1091	-0.063
1091	-0.064
1092	-0.065
1092	-0.066
1092	-0.067
1093	-0.068
1093	-0.068
1094	-0.069
1094	-0.07
1095	-0.071
1095	-0.072
1095	-0.072
1096	-0.073
1096	-0.073
1097	-0.073
1097	-0.074
1097	-0.075
1098	-0.076
1098	-0.077
1099	-0.078
1099	-0.079
1100	-0.079
1100	-0.08
1100	-0.082
1101	-0.084
1101	-0.086
1102	-0.088
1102	-0.089
1102	-0.09
1103	-0.093
1103	-0.095
1104	-0.095
1104	-0.097
1104	-0.097
1105	-0.098
1105	-0.101
1106	-0.103
1106	-0.105
1107	-0.11
1107	-0.112
1107	-0.115
1108	-0.115
1108	-0.117
1109	-0.12
1109	-0.125
1109	-0.128
1110	-0.127
1110	-0.131
1111	-0.137
1111	-0.129
