Data from 17c-100ul-ns-20ul-nr-full-exp'4ul'bp_Absorbance__709__01179.txt Node

Date: Mon Jan 15 10:03:56 CET 2024
User: Marek
Spectrometer: MAYP115816
Trigger mode: 0
Integration Time (sec): 2.000000E-1
Scans to average: 10
Electric dark correction enabled: true
Nonlinearity correction enabled: true
Boxcar width: 5
XAxis mode: Wavelengths
Number of Pixels in Spectrum: 2068
>>>>>Begin Spectral Data<<<<<
199	-0.498
199	-0.47
200	-0.396
200	-0.337
201	-0.297
201	-0.275
202	-0.252
202	-0.245
203	-0.238
203	-0.237
204	-0.219
204	-0.206
205	-0.192
205	-0.187
205	-0.189
206	-0.192
206	-0.196
207	-0.194
207	-0.196
208	-0.198
208	-0.194
209	-0.196
209	-0.201
210	-0.203
210	-0.204
211	-0.203
211	-0.205
212	-0.206
212	-0.209
213	-0.209
213	-0.209
213	-0.213
214	-0.212
214	-0.213
215	-0.212
215	-0.215
216	-0.217
216	-0.218
217	-0.215
217	-0.215
218	-0.215
218	-0.212
219	-0.209
219	-0.21
220	-0.209
220	-0.21
221	-0.208
221	-0.208
221	-0.204
222	-0.201
222	-0.198
223	-0.191
223	-0.191
224	-0.191
224	-0.183
225	-0.173
225	-0.167
226	-0.161
226	-0.15
227	-0.138
227	-0.13
228	-0.117
228	-0.106
229	-0.088
229	-0.066
229	-0.046
230	-0.026
230	-0.002
231	0.023
231	0.047
232	0.067
232	0.091
233	0.113
233	0.136
234	0.154
234	0.172
235	0.187
235	0.201
236	0.214
236	0.226
236	0.238
237	0.249
237	0.258
238	0.266
238	0.273
239	0.28
239	0.285
240	0.291
240	0.294
241	0.298
241	0.301
242	0.303
242	0.306
243	0.309
243	0.31
243	0.312
244	0.314
244	0.315
245	0.317
245	0.318
246	0.319
246	0.32
247	0.321
247	0.322
248	0.324
248	0.325
249	0.325
249	0.326
250	0.327
250	0.327
250	0.328
251	0.329
251	0.33
252	0.33
252	0.331
253	0.331
253	0.332
254	0.332
254	0.333
255	0.333
255	0.333
256	0.333
256	0.333
257	0.333
257	0.333
258	0.333
258	0.333
258	0.332
259	0.332
259	0.332
260	0.332
260	0.331
261	0.331
261	0.331
262	0.33
262	0.33
263	0.329
263	0.329
264	0.328
264	0.327
265	0.327
265	0.326
265	0.325
266	0.324
266	0.323
267	0.322
267	0.321
268	0.32
268	0.319
269	0.318
269	0.317
270	0.315
270	0.314
271	0.312
271	0.311
272	0.31
272	0.309
272	0.307
273	0.306
273	0.304
274	0.303
274	0.302
275	0.301
275	0.299
276	0.298
276	0.297
277	0.295
277	0.294
278	0.293
278	0.292
278	0.29
279	0.289
279	0.287
280	0.285
280	0.284
281	0.282
281	0.281
282	0.279
282	0.277
283	0.276
283	0.274
284	0.273
284	0.272
285	0.271
285	0.269
285	0.268
286	0.267
286	0.266
287	0.265
287	0.264
288	0.263
288	0.262
289	0.261
289	0.26
290	0.259
290	0.258
291	0.257
291	0.256
292	0.255
292	0.254
292	0.253
293	0.252
293	0.251
294	0.25
294	0.249
295	0.249
295	0.248
296	0.247
296	0.246
297	0.246
297	0.245
298	0.245
298	0.244
298	0.243
299	0.243
299	0.242
300	0.241
300	0.241
301	0.24
301	0.239
302	0.239
302	0.238
303	0.238
303	0.237
304	0.237
304	0.236
305	0.236
305	0.235
305	0.234
306	0.234
306	0.233
307	0.233
307	0.232
308	0.231
308	0.231
309	0.23
309	0.23
310	0.229
310	0.229
311	0.228
311	0.228
311	0.227
312	0.227
312	0.226
313	0.225
313	0.225
314	0.224
314	0.224
315	0.223
315	0.222
316	0.222
316	0.221
317	0.221
317	0.22
318	0.22
318	0.22
318	0.219
319	0.219
319	0.218
320	0.218
320	0.217
321	0.217
321	0.216
322	0.215
322	0.215
323	0.214
323	0.213
324	0.213
324	0.212
324	0.212
325	0.211
325	0.211
326	0.21
326	0.21
327	0.209
327	0.208
328	0.208
328	0.208
329	0.207
329	0.207
330	0.206
330	0.205
330	0.205
331	0.205
331	0.204
332	0.204
332	0.203
333	0.203
333	0.203
334	0.202
334	0.202
335	0.201
335	0.201
336	0.2
336	0.2
336	0.199
337	0.199
337	0.198
338	0.198
338	0.197
339	0.197
339	0.196
340	0.196
340	0.196
341	0.195
341	0.195
342	0.194
342	0.194
342	0.194
343	0.193
343	0.193
344	0.193
344	0.192
345	0.192
345	0.192
346	0.191
346	0.191
347	0.191
347	0.19
348	0.19
348	0.19
348	0.19
349	0.189
349	0.189
350	0.189
350	0.189
351	0.189
351	0.189
352	0.189
352	0.188
353	0.188
353	0.188
354	0.188
354	0.188
354	0.188
355	0.187
355	0.187
356	0.188
356	0.188
357	0.187
357	0.187
358	0.187
358	0.187
359	0.187
359	0.187
360	0.187
360	0.186
360	0.186
361	0.186
361	0.185
362	0.185
362	0.185
363	0.185
363	0.185
364	0.185
364	0.185
365	0.185
365	0.185
366	0.185
366	0.184
366	0.185
367	0.184
367	0.184
368	0.184
368	0.184
369	0.184
369	0.184
370	0.184
370	0.184
371	0.184
371	0.184
372	0.183
372	0.183
372	0.183
373	0.183
373	0.183
374	0.183
374	0.183
375	0.183
375	0.183
376	0.183
376	0.183
377	0.183
377	0.183
378	0.182
378	0.182
378	0.182
379	0.182
379	0.182
380	0.182
380	0.182
381	0.181
381	0.181
382	0.181
382	0.181
383	0.181
383	0.181
383	0.18
384	0.18
384	0.18
385	0.18
385	0.18
386	0.18
386	0.18
387	0.179
387	0.179
388	0.179
388	0.179
389	0.179
389	0.179
389	0.179
390	0.178
390	0.178
391	0.178
391	0.178
392	0.178
392	0.178
393	0.178
393	0.178
394	0.178
394	0.177
394	0.177
395	0.177
395	0.177
396	0.177
396	0.176
397	0.176
397	0.176
398	0.176
398	0.176
399	0.176
399	0.176
400	0.176
400	0.176
400	0.176
401	0.175
401	0.175
402	0.175
402	0.175
403	0.174
403	0.174
404	0.174
404	0.174
405	0.174
405	0.174
405	0.173
406	0.173
406	0.173
407	0.173
407	0.173
408	0.173
408	0.173
409	0.173
409	0.173
410	0.173
410	0.172
411	0.172
411	0.172
411	0.172
412	0.171
412	0.171
413	0.171
413	0.171
414	0.17
414	0.17
415	0.17
415	0.17
416	0.17
416	0.169
416	0.169
417	0.169
417	0.169
418	0.169
418	0.169
419	0.169
419	0.169
420	0.169
420	0.169
421	0.169
421	0.169
421	0.169
422	0.169
422	0.169
423	0.169
423	0.168
424	0.168
424	0.168
425	0.168
425	0.167
426	0.168
426	0.167
427	0.167
427	0.167
427	0.167
428	0.167
428	0.167
429	0.167
429	0.167
430	0.167
430	0.167
431	0.167
431	0.167
432	0.167
432	0.167
432	0.166
433	0.166
433	0.166
434	0.166
434	0.166
435	0.166
435	0.165
436	0.165
436	0.165
437	0.165
437	0.165
437	0.165
438	0.164
438	0.164
439	0.164
439	0.164
440	0.164
440	0.164
441	0.163
441	0.163
442	0.163
442	0.163
442	0.163
443	0.163
443	0.163
444	0.163
444	0.163
445	0.163
445	0.163
446	0.163
446	0.163
447	0.163
447	0.163
447	0.163
448	0.163
448	0.164
449	0.163
449	0.163
450	0.163
450	0.163
451	0.162
451	0.162
452	0.162
452	0.162
452	0.162
453	0.162
453	0.162
454	0.162
454	0.162
455	0.162
455	0.162
456	0.163
456	0.162
457	0.162
457	0.163
458	0.163
458	0.163
458	0.163
459	0.163
459	0.163
460	0.162
460	0.162
461	0.162
461	0.162
462	0.162
462	0.162
463	0.162
463	0.163
463	0.163
464	0.163
464	0.163
465	0.163
465	0.163
466	0.163
466	0.163
467	0.163
467	0.163
467	0.163
468	0.162
468	0.162
469	0.163
469	0.163
470	0.163
470	0.163
471	0.164
471	0.164
472	0.164
472	0.165
472	0.165
473	0.166
473	0.166
474	0.166
474	0.167
475	0.167
475	0.167
476	0.167
476	0.167
477	0.167
477	0.167
477	0.168
478	0.168
478	0.168
479	0.168
479	0.168
480	0.168
480	0.169
481	0.17
481	0.17
482	0.171
482	0.172
482	0.172
483	0.173
483	0.175
484	0.175
484	0.175
485	0.175
485	0.176
486	0.176
486	0.177
487	0.177
487	0.178
487	0.179
488	0.179
488	0.179
489	0.181
489	0.182
490	0.183
490	0.184
491	0.185
491	0.186
492	0.187
492	0.187
492	0.188
493	0.189
493	0.19
494	0.192
494	0.194
495	0.195
495	0.196
496	0.197
496	0.199
496	0.2
497	0.202
497	0.203
498	0.204
498	0.205
499	0.206
499	0.208
500	0.209
500	0.21
501	0.211
501	0.213
501	0.213
502	0.214
502	0.216
503	0.217
503	0.218
504	0.219
504	0.22
505	0.221
505	0.222
506	0.224
506	0.225
506	0.226
507	0.228
507	0.229
508	0.231
508	0.232
509	0.233
509	0.235
510	0.236
510	0.237
511	0.238
511	0.24
511	0.241
512	0.242
512	0.243
513	0.243
513	0.244
514	0.245
514	0.246
515	0.247
515	0.248
515	0.248
516	0.249
516	0.25
517	0.251
517	0.252
518	0.252
518	0.253
519	0.253
519	0.254
520	0.254
520	0.255
520	0.256
521	0.256
521	0.256
522	0.256
522	0.257
523	0.258
523	0.259
524	0.259
524	0.259
524	0.259
525	0.259
525	0.26
526	0.26
526	0.26
527	0.26
527	0.26
528	0.26
528	0.26
529	0.26
529	0.26
529	0.26
530	0.26
530	0.26
531	0.259
531	0.259
532	0.259
532	0.258
533	0.258
533	0.258
533	0.257
534	0.256
534	0.255
535	0.255
535	0.254
536	0.254
536	0.253
537	0.253
537	0.252
538	0.252
538	0.251
538	0.25
539	0.25
539	0.25
540	0.249
540	0.248
541	0.247
541	0.246
542	0.245
542	0.245
542	0.244
543	0.243
543	0.242
544	0.241
544	0.241
545	0.24
545	0.24
546	0.239
546	0.238
547	0.236
547	0.235
547	0.234
548	0.233
548	0.232
549	0.231
549	0.23
550	0.229
550	0.228
551	0.226
551	0.225
551	0.225
552	0.223
552	0.222
553	0.222
553	0.221
554	0.22
554	0.218
555	0.217
555	0.217
556	0.216
556	0.214
556	0.214
557	0.213
557	0.212
558	0.211
558	0.21
559	0.209
559	0.208
560	0.207
560	0.206
560	0.205
561	0.205
561	0.204
562	0.203
562	0.202
563	0.2
563	0.199
564	0.198
564	0.197
564	0.197
565	0.196
565	0.195
566	0.194
566	0.193
567	0.192
567	0.192
568	0.192
568	0.191
568	0.19
569	0.19
569	0.189
570	0.187
570	0.186
571	0.186
571	0.185
572	0.184
572	0.183
573	0.182
573	0.18
573	0.179
574	0.178
574	0.178
575	0.178
575	0.178
576	0.178
576	0.176
577	0.175
577	0.174
577	0.174
578	0.174
578	0.174
579	0.174
579	0.174
580	0.172
580	0.17
581	0.168
581	0.167
581	0.168
582	0.168
582	0.168
583	0.168
583	0.167
584	0.164
584	0.162
585	0.163
585	0.164
585	0.164
586	0.163
586	0.163
587	0.161
587	0.16
588	0.159
588	0.158
589	0.159
589	0.159
590	0.159
590	0.158
590	0.159
591	0.158
591	0.157
592	0.156
592	0.155
593	0.155
593	0.155
594	0.154
594	0.153
594	0.153
595	0.153
595	0.152
596	0.152
596	0.154
597	0.155
597	0.155
598	0.155
598	0.155
598	0.155
599	0.155
599	0.154
600	0.153
600	0.152
601	0.151
601	0.15
602	0.148
602	0.147
602	0.146
603	0.146
603	0.146
604	0.146
604	0.145
605	0.146
605	0.146
606	0.146
606	0.145
606	0.144
607	0.144
607	0.144
608	0.144
608	0.143
609	0.142
609	0.143
610	0.142
610	0.141
610	0.142
611	0.143
611	0.143
612	0.144
612	0.144
613	0.145
613	0.145
614	0.144
614	0.143
614	0.143
615	0.142
615	0.142
616	0.142
616	0.141
617	0.141
617	0.141
618	0.141
618	0.141
618	0.141
619	0.142
619	0.143
620	0.144
620	0.144
621	0.144
621	0.144
622	0.144
622	0.144
622	0.143
623	0.143
623	0.144
624	0.144
624	0.144
625	0.144
625	0.144
626	0.144
626	0.144
626	0.145
627	0.146
627	0.147
628	0.148
628	0.148
629	0.148
629	0.149
630	0.149
630	0.15
630	0.151
631	0.152
631	0.153
632	0.153
632	0.154
633	0.155
633	0.156
634	0.158
634	0.159
634	0.16
635	0.161
635	0.161
636	0.162
636	0.162
637	0.163
637	0.163
638	0.164
638	0.164
638	0.165
639	0.165
639	0.166
640	0.167
640	0.168
641	0.169
641	0.17
642	0.171
642	0.172
642	0.173
643	0.174
643	0.175
644	0.176
644	0.177
645	0.179
645	0.18
646	0.181
646	0.183
646	0.184
647	0.186
647	0.187
648	0.189
648	0.191
649	0.193
649	0.194
650	0.196
650	0.198
650	0.2
651	0.201
651	0.203
652	0.205
652	0.208
653	0.21
653	0.216
653	0.218
654	0.172
654	0.138
655	0.141
655	0.143
656	0.144
656	0.145
657	0.147
657	0.148
657	0.149
658	0.147
658	0.141
659	0.181
659	0.236
660	0.242
660	0.245
661	0.247
661	0.25
661	0.253
662	0.256
662	0.259
663	0.262
663	0.264
664	0.266
664	0.267
665	0.27
665	0.272
665	0.274
666	0.276
666	0.278
667	0.28
667	0.282
668	0.285
668	0.287
669	0.29
669	0.293
669	0.295
670	0.298
670	0.3
671	0.302
671	0.304
672	0.307
672	0.309
672	0.311
673	0.313
673	0.315
674	0.317
674	0.319
675	0.32
675	0.322
676	0.324
676	0.325
676	0.326
677	0.327
677	0.327
678	0.327
678	0.328
679	0.328
679	0.329
680	0.33
680	0.331
680	0.331
681	0.332
681	0.333
682	0.334
682	0.335
683	0.336
683	0.337
684	0.338
684	0.338
684	0.338
685	0.339
685	0.339
686	0.339
686	0.339
687	0.34
687	0.34
687	0.34
688	0.34
688	0.34
689	0.341
689	0.341
690	0.34
690	0.34
691	0.339
691	0.339
691	0.338
692	0.337
692	0.337
693	0.336
693	0.335
694	0.334
694	0.333
695	0.334
695	0.334
695	0.333
696	0.332
696	0.332
697	0.331
697	0.331
698	0.33
698	0.329
698	0.328
699	0.327
699	0.325
700	0.323
700	0.322
701	0.32
701	0.318
702	0.316
702	0.315
702	0.313
703	0.31
703	0.309
704	0.307
704	0.306
705	0.305
705	0.303
705	0.302
706	0.3
706	0.299
707	0.298
707	0.297
708	0.295
708	0.294
709	0.293
709	0.29
709	0.288
710	0.286
710	0.285
711	0.284
711	0.282
712	0.28
712	0.279
713	0.277
713	0.276
713	0.275
714	0.273
714	0.272
715	0.271
715	0.269
716	0.267
716	0.266
716	0.264
717	0.263
717	0.261
718	0.26
718	0.258
719	0.257
719	0.255
720	0.253
720	0.251
720	0.249
721	0.247
721	0.245
722	0.242
722	0.24
723	0.238
723	0.236
723	0.234
724	0.232
724	0.23
725	0.229
725	0.228
726	0.226
726	0.225
727	0.223
727	0.222
727	0.221
728	0.219
728	0.218
729	0.217
729	0.216
730	0.215
730	0.213
730	0.212
731	0.211
731	0.21
732	0.209
732	0.207
733	0.206
733	0.205
734	0.203
734	0.202
734	0.201
735	0.2
735	0.198
736	0.197
736	0.196
737	0.195
737	0.194
737	0.192
738	0.19
738	0.188
739	0.186
739	0.184
740	0.182
740	0.181
741	0.179
741	0.177
741	0.175
742	0.173
742	0.172
743	0.171
743	0.17
744	0.169
744	0.168
744	0.166
745	0.165
745	0.164
746	0.163
746	0.163
747	0.162
747	0.16
748	0.159
748	0.158
748	0.157
749	0.156
749	0.155
750	0.155
750	0.154
751	0.153
751	0.153
751	0.152
752	0.151
752	0.15
753	0.15
753	0.15
754	0.149
754	0.148
754	0.147
755	0.146
755	0.145
756	0.143
756	0.141
757	0.14
757	0.14
758	0.139
758	0.138
758	0.137
759	0.136
759	0.135
760	0.134
760	0.134
761	0.134
761	0.134
761	0.134
762	0.134
762	0.133
763	0.133
763	0.132
764	0.131
764	0.131
764	0.13
765	0.129
765	0.128
766	0.127
766	0.127
767	0.126
767	0.125
768	0.124
768	0.123
768	0.123
769	0.123
769	0.122
770	0.121
770	0.121
771	0.12
771	0.118
771	0.117
772	0.117
772	0.116
773	0.116
773	0.115
774	0.114
774	0.114
775	0.113
775	0.112
775	0.111
776	0.11
776	0.11
777	0.109
777	0.108
778	0.107
778	0.106
778	0.105
779	0.105
779	0.104
780	0.103
780	0.103
781	0.102
781	0.101
781	0.1
782	0.099
782	0.098
783	0.097
783	0.096
784	0.094
784	0.093
784	0.092
785	0.091
785	0.091
786	0.091
786	0.091
787	0.092
787	0.092
788	0.092
788	0.092
788	0.092
789	0.092
789	0.093
790	0.093
790	0.093
791	0.093
791	0.092
791	0.092
792	0.093
792	0.092
793	0.091
793	0.09
794	0.09
794	0.089
794	0.089
795	0.089
795	0.089
796	0.088
796	0.087
797	0.086
797	0.086
797	0.085
798	0.085
798	0.084
799	0.083
799	0.082
800	0.081
800	0.079
801	0.079
801	0.078
801	0.077
802	0.075
802	0.075
803	0.074
803	0.073
804	0.072
804	0.072
804	0.072
805	0.072
805	0.072
806	0.072
806	0.073
807	0.073
807	0.074
807	0.075
808	0.075
808	0.075
809	0.076
809	0.076
810	0.077
810	0.077
810	0.078
811	0.078
811	0.079
812	0.08
812	0.08
813	0.08
813	0.08
813	0.08
814	0.079
814	0.079
815	0.078
815	0.078
816	0.076
816	0.075
817	0.074
817	0.073
817	0.072
818	0.072
818	0.071
819	0.07
819	0.069
820	0.069
820	0.068
820	0.068
821	0.068
821	0.067
822	0.067
822	0.067
823	0.066
823	0.066
823	0.066
824	0.066
824	0.065
825	0.065
825	0.065
826	0.064
826	0.063
826	0.063
827	0.062
827	0.061
828	0.061
828	0.06
829	0.06
829	0.06
829	0.06
830	0.06
830	0.06
831	0.06
831	0.06
832	0.06
832	0.06
832	0.06
833	0.06
833	0.059
834	0.059
834	0.058
835	0.057
835	0.056
835	0.056
836	0.055
836	0.055
837	0.054
837	0.054
838	0.054
838	0.054
839	0.054
839	0.055
839	0.055
840	0.055
840	0.055
841	0.056
841	0.056
842	0.056
842	0.057
842	0.057
843	0.056
843	0.056
844	0.056
844	0.055
845	0.055
845	0.054
845	0.054
846	0.053
846	0.053
847	0.052
847	0.051
848	0.051
848	0.05
848	0.05
849	0.05
849	0.049
850	0.049
850	0.048
851	0.048
851	0.048
851	0.047
852	0.047
852	0.047
853	0.046
853	0.046
854	0.046
854	0.046
854	0.046
855	0.046
855	0.046
856	0.046
856	0.047
857	0.047
857	0.047
857	0.048
858	0.048
858	0.048
859	0.048
859	0.048
860	0.048
860	0.048
860	0.048
861	0.048
861	0.048
862	0.048
862	0.048
863	0.047
863	0.047
863	0.046
864	0.046
864	0.045
865	0.044
865	0.043
866	0.042
866	0.041
866	0.04
867	0.039
867	0.039
868	0.039
868	0.039
869	0.04
869	0.04
869	0.04
870	0.04
870	0.04
871	0.04
871	0.04
872	0.039
872	0.039
872	0.038
873	0.037
873	0.036
874	0.035
874	0.034
875	0.033
875	0.032
875	0.031
876	0.03
876	0.029
877	0.029
877	0.028
878	0.027
878	0.027
878	0.027
879	0.027
879	0.027
880	0.027
880	0.027
881	0.028
881	0.029
881	0.03
882	0.031
882	0.032
883	0.033
883	0.034
884	0.035
884	0.036
884	0.037
885	0.038
885	0.038
886	0.039
886	0.039
887	0.039
887	0.039
887	0.039
888	0.039
888	0.039
889	0.04
889	0.04
890	0.041
890	0.041
890	0.041
891	0.042
891	0.042
892	0.042
892	0.042
893	0.041
893	0.041
893	0.04
894	0.039
894	0.038
895	0.037
895	0.036
895	0.034
896	0.033
896	0.032
897	0.031
897	0.03
898	0.03
898	0.029
898	0.028
899	0.028
899	0.027
900	0.027
900	0.026
901	0.026
901	0.026
901	0.026
902	0.026
902	0.026
903	0.026
903	0.026
904	0.025
904	0.024
904	0.024
905	0.023
905	0.023
906	0.022
906	0.022
907	0.021
907	0.02
907	0.02
908	0.02
908	0.02
909	0.02
909	0.021
910	0.022
910	0.023
910	0.024
911	0.024
911	0.025
912	0.025
912	0.026
913	0.026
913	0.026
913	0.026
914	0.025
914	0.024
915	0.023
915	0.023
916	0.022
916	0.021
916	0.02
917	0.02
917	0.02
918	0.02
918	0.02
918	0.02
919	0.021
919	0.021
920	0.022
920	0.023
921	0.023
921	0.023
921	0.024
922	0.024
922	0.024
923	0.024
923	0.024
924	0.023
924	0.023
924	0.023
925	0.022
925	0.022
926	0.022
926	0.021
927	0.021
927	0.021
927	0.021
928	0.02
928	0.02
929	0.02
929	0.02
930	0.02
930	0.02
930	0.019
931	0.019
931	0.019
932	0.018
932	0.018
933	0.018
933	0.018
933	0.018
934	0.017
934	0.017
935	0.016
935	0.016
935	0.016
936	0.015
936	0.015
937	0.015
937	0.015
938	0.014
938	0.014
938	0.013
939	0.013
939	0.014
940	0.014
940	0.014
941	0.015
941	0.016
941	0.016
942	0.017
942	0.018
943	0.018
943	0.019
944	0.019
944	0.019
944	0.019
945	0.019
945	0.018
946	0.018
946	0.018
946	0.017
947	0.017
947	0.017
948	0.017
948	0.017
949	0.018
949	0.018
949	0.018
950	0.019
950	0.019
951	0.019
951	0.019
952	0.019
952	0.019
952	0.019
953	0.019
953	0.018
954	0.018
954	0.018
955	0.017
955	0.017
955	0.017
956	0.016
956	0.016
957	0.015
957	0.014
957	0.013
958	0.012
958	0.011
959	0.01
959	0.009
960	0.009
960	0.008
960	0.007
961	0.006
961	0.006
962	0.006
962	0.006
963	0.007
963	0.007
963	0.008
964	0.009
964	0.01
965	0.011
965	0.012
966	0.013
966	0.014
966	0.015
967	0.016
967	0.016
968	0.016
968	0.017
968	0.017
969	0.017
969	0.017
970	0.017
970	0.016
971	0.016
971	0.016
971	0.016
972	0.015
972	0.015
973	0.015
973	0.014
974	0.014
974	0.013
974	0.013
975	0.012
975	0.011
976	0.01
976	0.01
976	0.009
977	0.008
977	0.007
978	0.006
978	0.005
979	0.004
979	0.004
979	0.004
980	0.004
980	0.004
981	0.004
981	0.004
982	0.005
982	0.006
982	0.007
983	0.008
983	0.009
984	0.01
984	0.01
984	0.011
985	0.011
985	0.012
986	0.011
986	0.011
987	0.01
987	0.009
987	0.008
988	0.007
988	0.006
989	0.004
989	0.002
990	0.001
990	-0.001
990	-0.003
991	-0.004
991	-0.006
992	-0.007
992	-0.008
992	-0.01
993	-0.011
993	-0.012
994	-0.012
994	-0.013
995	-0.014
995	-0.014
995	-0.014
996	-0.014
996	-0.014
997	-0.014
997	-0.014
997	-0.013
998	-0.013
998	-0.012
999	-0.01
999	-0.009
1000	-0.008
1000	-0.007
1000	-0.005
1001	-0.004
1001	-0.003
1002	-0.001
1002	-0
1003	0.001
1003	0.002
1003	0.003
1004	0.003
1004	0.004
1005	0.004
1005	0.004
1005	0.004
1006	0.004
1006	0.004
1007	0.004
1007	0.004
1008	0.004
1008	0.004
1008	0.004
1009	0.004
1009	0.005
1010	0.005
1010	0.005
1010	0.005
1011	0.006
1011	0.005
1012	0.005
1012	0.005
1013	0.005
1013	0.004
1013	0.003
1014	0.002
1014	0.001
1015	-0
1015	-0.001
1016	-0.002
1016	-0.003
1016	-0.004
1017	-0.004
1017	-0.005
1018	-0.005
1018	-0.005
1018	-0.005
1019	-0.005
1019	-0.004
1020	-0.004
1020	-0.005
1021	-0.005
1021	-0.005
1021	-0.005
1022	-0.005
1022	-0.005
1023	-0.006
1023	-0.007
1023	-0.008
1024	-0.009
1024	-0.009
1025	-0.01
1025	-0.011
1026	-0.012
1026	-0.012
1026	-0.013
1027	-0.014
1027	-0.014
1028	-0.014
1028	-0.014
1028	-0.013
1029	-0.013
1029	-0.013
1030	-0.013
1030	-0.012
1031	-0.012
1031	-0.012
1031	-0.012
1032	-0.011
1032	-0.011
1033	-0.012
1033	-0.012
1033	-0.013
1034	-0.014
1034	-0.015
1035	-0.016
1035	-0.017
1036	-0.017
1036	-0.018
1036	-0.019
1037	-0.02
1037	-0.021
1038	-0.021
1038	-0.021
1039	-0.022
1039	-0.022
1039	-0.022
1040	-0.022
1040	-0.022
1041	-0.022
1041	-0.022
1041	-0.023
1042	-0.023
1042	-0.023
1043	-0.024
1043	-0.024
1044	-0.025
1044	-0.025
1044	-0.025
1045	-0.026
1045	-0.026
1046	-0.026
1046	-0.025
1046	-0.025
1047	-0.024
1047	-0.023
1048	-0.022
1048	-0.022
1049	-0.022
1049	-0.021
1049	-0.021
1050	-0.021
1050	-0.021
1051	-0.021
1051	-0.022
1051	-0.021
1052	-0.021
1052	-0.022
1053	-0.022
1053	-0.021
1053	-0.021
1054	-0.021
1054	-0.021
1055	-0.02
1055	-0.02
1056	-0.02
1056	-0.02
1056	-0.021
1057	-0.022
1057	-0.022
1058	-0.023
1058	-0.023
1058	-0.024
1059	-0.024
1059	-0.025
1060	-0.025
1060	-0.026
1061	-0.026
1061	-0.027
1061	-0.027
1062	-0.027
1062	-0.028
1063	-0.029
1063	-0.03
1063	-0.031
1064	-0.032
1064	-0.032
1065	-0.033
1065	-0.034
1066	-0.035
1066	-0.036
1066	-0.037
1067	-0.037
1067	-0.038
1068	-0.038
1068	-0.039
1068	-0.039
1069	-0.04
1069	-0.041
1070	-0.041
1070	-0.042
1071	-0.042
1071	-0.042
1071	-0.043
1072	-0.044
1072	-0.044
1073	-0.044
1073	-0.045
1073	-0.045
1074	-0.045
1074	-0.045
1075	-0.045
1075	-0.046
1076	-0.046
1076	-0.046
1076	-0.046
1077	-0.047
1077	-0.047
1078	-0.048
1078	-0.048
1078	-0.049
1079	-0.049
1079	-0.049
1080	-0.049
1080	-0.049
1080	-0.05
1081	-0.05
1081	-0.049
1082	-0.049
1082	-0.049
1083	-0.05
1083	-0.05
1083	-0.05
1084	-0.05
1084	-0.05
1085	-0.05
1085	-0.049
1085	-0.049
1086	-0.049
1086	-0.05
1087	-0.05
1087	-0.05
1088	-0.051
1088	-0.052
1088	-0.052
1089	-0.053
1089	-0.054
1090	-0.056
1090	-0.057
1090	-0.059
1091	-0.06
1091	-0.06
1092	-0.062
1092	-0.062
1092	-0.063
1093	-0.065
1093	-0.064
1094	-0.065
1094	-0.066
1095	-0.066
1095	-0.067
1095	-0.068
1096	-0.068
1096	-0.069
1097	-0.069
1097	-0.071
1097	-0.071
1098	-0.074
1098	-0.074
1099	-0.075
1099	-0.077
1100	-0.078
1100	-0.079
1100	-0.081
1101	-0.083
1101	-0.086
1102	-0.087
1102	-0.089
1102	-0.09
1103	-0.093
1103	-0.095
1104	-0.096
1104	-0.097
1104	-0.099
1105	-0.101
1105	-0.104
1106	-0.106
1106	-0.109
1107	-0.112
1107	-0.115
1107	-0.118
1108	-0.119
1108	-0.121
1109	-0.124
1109	-0.128
1109	-0.13
1110	-0.13
1110	-0.134
1111	-0.137
1111	-0.13
