Data from 17c-100ul-ns-20ul-nr-full-exp'4ul'bp_Absorbance__411__00881.txt Node

Date: Mon Jan 15 09:54:00 CET 2024
User: Marek
Spectrometer: MAYP115816
Trigger mode: 0
Integration Time (sec): 2.000000E-1
Scans to average: 10
Electric dark correction enabled: true
Nonlinearity correction enabled: true
Boxcar width: 5
XAxis mode: Wavelengths
Number of Pixels in Spectrum: 2068
>>>>>Begin Spectral Data<<<<<
199	-0.467
199	-0.442
200	-0.369
200	-0.312
201	-0.275
201	-0.253
202	-0.231
202	-0.225
203	-0.218
203	-0.215
204	-0.2
204	-0.187
205	-0.171
205	-0.166
205	-0.167
206	-0.169
206	-0.173
207	-0.17
207	-0.171
208	-0.173
208	-0.172
209	-0.171
209	-0.175
210	-0.178
210	-0.178
211	-0.178
211	-0.179
212	-0.179
212	-0.181
213	-0.182
213	-0.18
213	-0.184
214	-0.185
214	-0.186
215	-0.186
215	-0.189
216	-0.192
216	-0.194
217	-0.192
217	-0.193
218	-0.193
218	-0.19
219	-0.187
219	-0.187
220	-0.184
220	-0.183
221	-0.181
221	-0.179
221	-0.174
222	-0.169
222	-0.166
223	-0.159
223	-0.159
224	-0.156
224	-0.149
225	-0.142
225	-0.135
226	-0.129
226	-0.118
227	-0.107
227	-0.099
228	-0.085
228	-0.074
229	-0.055
229	-0.032
229	-0.012
230	0.011
230	0.035
231	0.06
231	0.085
232	0.106
232	0.13
233	0.153
233	0.177
234	0.197
234	0.216
235	0.234
235	0.249
236	0.264
236	0.278
236	0.29
237	0.302
237	0.312
238	0.321
238	0.329
239	0.337
239	0.343
240	0.348
240	0.353
241	0.357
241	0.36
242	0.364
242	0.367
243	0.37
243	0.372
243	0.374
244	0.376
244	0.378
245	0.38
245	0.382
246	0.383
246	0.384
247	0.386
247	0.387
248	0.388
248	0.389
249	0.39
249	0.391
250	0.392
250	0.393
250	0.394
251	0.394
251	0.395
252	0.395
252	0.396
253	0.396
253	0.396
254	0.397
254	0.397
255	0.397
255	0.398
256	0.398
256	0.398
257	0.398
257	0.398
258	0.399
258	0.398
258	0.398
259	0.398
259	0.397
260	0.397
260	0.397
261	0.396
261	0.396
262	0.396
262	0.395
263	0.394
263	0.393
264	0.392
264	0.391
265	0.39
265	0.389
265	0.388
266	0.387
266	0.386
267	0.385
267	0.384
268	0.383
268	0.381
269	0.38
269	0.378
270	0.377
270	0.376
271	0.374
271	0.372
272	0.371
272	0.369
272	0.368
273	0.366
273	0.365
274	0.363
274	0.362
275	0.36
275	0.358
276	0.357
276	0.355
277	0.354
277	0.352
278	0.35
278	0.349
278	0.347
279	0.345
279	0.343
280	0.342
280	0.34
281	0.338
281	0.336
282	0.334
282	0.333
283	0.331
283	0.329
284	0.328
284	0.326
285	0.324
285	0.323
285	0.321
286	0.32
286	0.318
287	0.317
287	0.316
288	0.314
288	0.313
289	0.311
289	0.31
290	0.309
290	0.308
291	0.306
291	0.305
292	0.304
292	0.302
292	0.301
293	0.3
293	0.299
294	0.298
294	0.297
295	0.296
295	0.295
296	0.294
296	0.293
297	0.292
297	0.291
298	0.29
298	0.289
298	0.288
299	0.287
299	0.286
300	0.286
300	0.285
301	0.284
301	0.283
302	0.282
302	0.282
303	0.281
303	0.28
304	0.279
304	0.279
305	0.278
305	0.277
305	0.276
306	0.276
306	0.275
307	0.274
307	0.273
308	0.272
308	0.272
309	0.271
309	0.27
310	0.269
310	0.269
311	0.268
311	0.267
311	0.266
312	0.266
312	0.265
313	0.264
313	0.263
314	0.263
314	0.262
315	0.261
315	0.26
316	0.26
316	0.259
317	0.259
317	0.258
318	0.257
318	0.256
318	0.256
319	0.255
319	0.255
320	0.254
320	0.253
321	0.253
321	0.252
322	0.251
322	0.25
323	0.249
323	0.249
324	0.248
324	0.247
324	0.247
325	0.246
325	0.245
326	0.245
326	0.244
327	0.244
327	0.243
328	0.242
328	0.242
329	0.241
329	0.24
330	0.24
330	0.239
330	0.239
331	0.238
331	0.237
332	0.237
332	0.236
333	0.236
333	0.235
334	0.234
334	0.234
335	0.233
335	0.232
336	0.232
336	0.231
336	0.231
337	0.23
337	0.23
338	0.229
338	0.229
339	0.228
339	0.228
340	0.227
340	0.227
341	0.226
341	0.226
342	0.225
342	0.225
342	0.224
343	0.224
343	0.224
344	0.223
344	0.223
345	0.223
345	0.222
346	0.222
346	0.221
347	0.221
347	0.221
348	0.221
348	0.22
348	0.22
349	0.22
349	0.22
350	0.219
350	0.219
351	0.219
351	0.219
352	0.219
352	0.218
353	0.218
353	0.218
354	0.217
354	0.217
354	0.217
355	0.217
355	0.216
356	0.217
356	0.217
357	0.217
357	0.217
358	0.216
358	0.216
359	0.216
359	0.216
360	0.215
360	0.215
360	0.215
361	0.215
361	0.214
362	0.214
362	0.214
363	0.214
363	0.213
364	0.213
364	0.213
365	0.213
365	0.213
366	0.213
366	0.212
366	0.212
367	0.212
367	0.212
368	0.212
368	0.212
369	0.212
369	0.212
370	0.212
370	0.212
371	0.211
371	0.211
372	0.211
372	0.211
372	0.211
373	0.211
373	0.211
374	0.211
374	0.211
375	0.211
375	0.21
376	0.21
376	0.21
377	0.21
377	0.209
378	0.209
378	0.209
378	0.208
379	0.208
379	0.208
380	0.208
380	0.207
381	0.207
381	0.207
382	0.207
382	0.207
383	0.207
383	0.207
383	0.207
384	0.206
384	0.206
385	0.206
385	0.206
386	0.206
386	0.205
387	0.205
387	0.205
388	0.205
388	0.204
389	0.204
389	0.204
389	0.204
390	0.203
390	0.203
391	0.203
391	0.203
392	0.203
392	0.203
393	0.203
393	0.203
394	0.202
394	0.202
394	0.202
395	0.201
395	0.201
396	0.201
396	0.2
397	0.2
397	0.2
398	0.2
398	0.2
399	0.2
399	0.2
400	0.2
400	0.199
400	0.199
401	0.199
401	0.199
402	0.198
402	0.198
403	0.198
403	0.197
404	0.197
404	0.197
405	0.197
405	0.196
405	0.196
406	0.196
406	0.196
407	0.196
407	0.196
408	0.195
408	0.195
409	0.195
409	0.195
410	0.195
410	0.195
411	0.195
411	0.195
411	0.194
412	0.194
412	0.194
413	0.194
413	0.193
414	0.193
414	0.193
415	0.192
415	0.192
416	0.192
416	0.191
416	0.191
417	0.191
417	0.191
418	0.191
418	0.191
419	0.191
419	0.191
420	0.191
420	0.191
421	0.191
421	0.19
421	0.19
422	0.19
422	0.19
423	0.19
423	0.19
424	0.189
424	0.189
425	0.189
425	0.189
426	0.189
426	0.189
427	0.189
427	0.189
427	0.189
428	0.189
428	0.189
429	0.189
429	0.189
430	0.189
430	0.189
431	0.189
431	0.188
432	0.188
432	0.188
432	0.188
433	0.187
433	0.187
434	0.187
434	0.187
435	0.187
435	0.187
436	0.186
436	0.186
437	0.186
437	0.186
437	0.186
438	0.186
438	0.186
439	0.186
439	0.185
440	0.185
440	0.185
441	0.185
441	0.184
442	0.184
442	0.184
442	0.184
443	0.184
443	0.184
444	0.184
444	0.184
445	0.184
445	0.185
446	0.185
446	0.185
447	0.185
447	0.185
447	0.185
448	0.185
448	0.185
449	0.185
449	0.184
450	0.184
450	0.184
451	0.184
451	0.184
452	0.184
452	0.184
452	0.184
453	0.184
453	0.184
454	0.184
454	0.184
455	0.184
455	0.184
456	0.185
456	0.185
457	0.185
457	0.185
458	0.185
458	0.185
458	0.185
459	0.185
459	0.185
460	0.185
460	0.185
461	0.185
461	0.185
462	0.184
462	0.185
463	0.185
463	0.185
463	0.185
464	0.185
464	0.185
465	0.186
465	0.186
466	0.186
466	0.187
467	0.187
467	0.187
467	0.187
468	0.187
468	0.187
469	0.187
469	0.187
470	0.187
470	0.188
471	0.188
471	0.189
472	0.189
472	0.189
472	0.19
473	0.19
473	0.191
474	0.191
474	0.192
475	0.193
475	0.193
476	0.193
476	0.193
477	0.193
477	0.193
477	0.194
478	0.194
478	0.194
479	0.195
479	0.195
480	0.195
480	0.196
481	0.197
481	0.198
482	0.199
482	0.2
482	0.201
483	0.202
483	0.204
484	0.204
484	0.205
485	0.206
485	0.206
486	0.207
486	0.208
487	0.209
487	0.21
487	0.211
488	0.211
488	0.212
489	0.214
489	0.215
490	0.217
490	0.218
491	0.219
491	0.22
492	0.221
492	0.222
492	0.224
493	0.225
493	0.227
494	0.228
494	0.23
495	0.232
495	0.234
496	0.235
496	0.237
496	0.239
497	0.241
497	0.243
498	0.244
498	0.246
499	0.247
499	0.249
500	0.251
500	0.252
501	0.254
501	0.256
501	0.257
502	0.258
502	0.26
503	0.262
503	0.263
504	0.265
504	0.266
505	0.268
505	0.269
506	0.271
506	0.272
506	0.274
507	0.276
507	0.278
508	0.28
508	0.282
509	0.284
509	0.285
510	0.287
510	0.289
511	0.291
511	0.293
511	0.294
512	0.296
512	0.297
513	0.298
513	0.299
514	0.3
514	0.302
515	0.303
515	0.304
515	0.305
516	0.306
516	0.308
517	0.309
517	0.31
518	0.311
518	0.312
519	0.312
519	0.313
520	0.314
520	0.315
520	0.316
521	0.316
521	0.316
522	0.316
522	0.317
523	0.318
523	0.319
524	0.319
524	0.319
524	0.32
525	0.32
525	0.319
526	0.32
526	0.319
527	0.319
527	0.319
528	0.319
528	0.319
529	0.318
529	0.318
529	0.318
530	0.318
530	0.318
531	0.317
531	0.317
532	0.316
532	0.316
533	0.315
533	0.314
533	0.313
534	0.312
534	0.311
535	0.31
535	0.309
536	0.308
536	0.307
537	0.306
537	0.305
538	0.304
538	0.303
538	0.302
539	0.301
539	0.3
540	0.299
540	0.297
541	0.295
541	0.294
542	0.293
542	0.292
542	0.29
543	0.289
543	0.287
544	0.285
544	0.284
545	0.283
545	0.282
546	0.28
546	0.278
547	0.276
547	0.274
547	0.273
548	0.271
548	0.27
549	0.268
549	0.266
550	0.264
550	0.262
551	0.26
551	0.259
551	0.257
552	0.255
552	0.254
553	0.252
553	0.25
554	0.248
554	0.246
555	0.245
555	0.243
556	0.241
556	0.239
556	0.237
557	0.236
557	0.234
558	0.232
558	0.231
559	0.229
559	0.227
560	0.225
560	0.223
560	0.222
561	0.221
561	0.219
562	0.217
562	0.216
563	0.213
563	0.212
564	0.21
564	0.208
564	0.207
565	0.205
565	0.203
566	0.201
566	0.2
567	0.198
567	0.197
568	0.196
568	0.194
568	0.193
569	0.192
569	0.19
570	0.188
570	0.186
571	0.185
571	0.183
572	0.182
572	0.18
573	0.178
573	0.176
573	0.175
574	0.173
574	0.173
575	0.172
575	0.171
576	0.17
576	0.168
577	0.166
577	0.165
577	0.164
578	0.163
578	0.162
579	0.162
579	0.161
580	0.158
580	0.156
581	0.154
581	0.153
581	0.152
582	0.152
582	0.152
583	0.151
583	0.15
584	0.147
584	0.145
585	0.144
585	0.144
585	0.144
586	0.143
586	0.142
587	0.14
587	0.138
588	0.137
588	0.136
589	0.136
589	0.136
590	0.135
590	0.135
590	0.135
591	0.134
591	0.132
592	0.131
592	0.13
593	0.13
593	0.129
594	0.127
594	0.126
594	0.125
595	0.125
595	0.124
596	0.124
596	0.125
597	0.126
597	0.125
598	0.125
598	0.125
598	0.124
599	0.124
599	0.123
600	0.122
600	0.12
601	0.12
601	0.118
602	0.116
602	0.115
602	0.114
603	0.113
603	0.113
604	0.113
604	0.113
605	0.113
605	0.113
606	0.112
606	0.112
606	0.111
607	0.111
607	0.111
608	0.11
608	0.109
609	0.109
609	0.109
610	0.108
610	0.108
610	0.108
611	0.109
611	0.109
612	0.11
612	0.11
613	0.11
613	0.111
614	0.11
614	0.109
614	0.109
615	0.108
615	0.108
616	0.108
616	0.108
617	0.108
617	0.107
618	0.107
618	0.107
618	0.108
619	0.109
619	0.11
620	0.111
620	0.111
621	0.111
621	0.112
622	0.112
622	0.112
622	0.111
623	0.112
623	0.112
624	0.112
624	0.112
625	0.112
625	0.112
626	0.112
626	0.113
626	0.114
627	0.115
627	0.116
628	0.117
628	0.118
629	0.118
629	0.119
630	0.12
630	0.12
630	0.122
631	0.123
631	0.124
632	0.125
632	0.126
633	0.127
633	0.129
634	0.13
634	0.132
634	0.133
635	0.134
635	0.135
636	0.136
636	0.137
637	0.137
637	0.138
638	0.139
638	0.14
638	0.141
639	0.142
639	0.143
640	0.145
640	0.146
641	0.147
641	0.149
642	0.15
642	0.152
642	0.154
643	0.155
643	0.156
644	0.158
644	0.159
645	0.161
645	0.162
646	0.164
646	0.166
646	0.168
647	0.17
647	0.172
648	0.174
648	0.176
649	0.178
649	0.18
650	0.182
650	0.184
650	0.186
651	0.188
651	0.191
652	0.193
652	0.196
653	0.2
653	0.206
653	0.207
654	0.164
654	0.132
655	0.136
655	0.137
656	0.139
656	0.14
657	0.142
657	0.143
657	0.144
658	0.143
658	0.139
659	0.177
659	0.231
660	0.238
660	0.241
661	0.244
661	0.247
661	0.25
662	0.253
662	0.256
663	0.259
663	0.261
664	0.264
664	0.266
665	0.269
665	0.271
665	0.274
666	0.276
666	0.279
667	0.281
667	0.284
668	0.286
668	0.289
669	0.292
669	0.295
669	0.298
670	0.301
670	0.303
671	0.305
671	0.308
672	0.31
672	0.312
672	0.315
673	0.317
673	0.319
674	0.321
674	0.323
675	0.325
675	0.327
676	0.329
676	0.33
676	0.331
677	0.331
677	0.332
678	0.332
678	0.333
679	0.333
679	0.334
680	0.335
680	0.336
680	0.336
681	0.337
681	0.338
682	0.339
682	0.34
683	0.341
683	0.342
684	0.343
684	0.343
684	0.343
685	0.344
685	0.344
686	0.344
686	0.344
687	0.345
687	0.344
687	0.344
688	0.344
688	0.344
689	0.344
689	0.343
690	0.342
690	0.342
691	0.341
691	0.34
691	0.339
692	0.338
692	0.338
693	0.337
693	0.336
694	0.335
694	0.334
695	0.334
695	0.334
695	0.333
696	0.332
696	0.332
697	0.331
697	0.33
698	0.329
698	0.328
698	0.327
699	0.325
699	0.323
700	0.321
700	0.32
701	0.318
701	0.315
702	0.313
702	0.311
702	0.309
703	0.306
703	0.304
704	0.302
704	0.301
705	0.299
705	0.297
705	0.295
706	0.293
706	0.292
707	0.29
707	0.288
708	0.287
708	0.285
709	0.283
709	0.28
709	0.278
710	0.276
710	0.274
711	0.273
711	0.271
712	0.269
712	0.267
713	0.265
713	0.263
713	0.262
714	0.26
714	0.258
715	0.256
715	0.254
716	0.252
716	0.25
716	0.248
717	0.247
717	0.245
718	0.242
718	0.24
719	0.239
719	0.237
720	0.235
720	0.232
720	0.23
721	0.227
721	0.225
722	0.222
722	0.22
723	0.217
723	0.215
723	0.213
724	0.21
724	0.208
725	0.206
725	0.204
726	0.202
726	0.201
727	0.199
727	0.197
727	0.196
728	0.194
728	0.193
729	0.192
729	0.191
730	0.19
730	0.188
730	0.187
731	0.185
731	0.184
732	0.182
732	0.18
733	0.179
733	0.177
734	0.175
734	0.173
734	0.172
735	0.17
735	0.169
736	0.167
736	0.166
737	0.165
737	0.163
737	0.161
738	0.158
738	0.156
739	0.154
739	0.152
740	0.149
740	0.147
741	0.145
741	0.143
741	0.14
742	0.138
742	0.137
743	0.136
743	0.135
744	0.133
744	0.132
744	0.13
745	0.129
745	0.128
746	0.126
746	0.126
747	0.124
747	0.123
748	0.122
748	0.12
748	0.119
749	0.118
749	0.118
750	0.117
750	0.116
751	0.115
751	0.114
751	0.114
752	0.112
752	0.112
753	0.111
753	0.111
754	0.11
754	0.108
754	0.107
755	0.106
755	0.105
756	0.103
756	0.101
757	0.101
757	0.1
758	0.099
758	0.097
758	0.097
759	0.096
759	0.094
760	0.094
760	0.093
761	0.093
761	0.093
761	0.093
762	0.092
762	0.092
763	0.091
763	0.09
764	0.089
764	0.088
764	0.087
765	0.086
765	0.085
766	0.084
766	0.083
767	0.082
767	0.08
768	0.08
768	0.079
768	0.079
769	0.078
769	0.078
770	0.077
770	0.076
771	0.075
771	0.074
771	0.073
772	0.073
772	0.072
773	0.071
773	0.07
774	0.07
774	0.069
775	0.068
775	0.067
775	0.066
776	0.065
776	0.065
777	0.064
777	0.063
778	0.062
778	0.061
778	0.06
779	0.06
779	0.059
780	0.058
780	0.058
781	0.057
781	0.056
781	0.055
782	0.053
782	0.052
783	0.052
783	0.05
784	0.048
784	0.047
784	0.046
785	0.045
785	0.045
786	0.045
786	0.045
787	0.045
787	0.045
788	0.045
788	0.045
788	0.045
789	0.045
789	0.046
790	0.046
790	0.046
791	0.045
791	0.045
791	0.045
792	0.045
792	0.044
793	0.044
793	0.043
794	0.042
794	0.042
794	0.042
795	0.042
795	0.041
796	0.041
796	0.04
797	0.039
797	0.039
797	0.039
798	0.038
798	0.038
799	0.037
799	0.036
800	0.035
800	0.034
801	0.033
801	0.033
801	0.031
802	0.03
802	0.029
803	0.028
803	0.027
804	0.027
804	0.027
804	0.027
805	0.027
805	0.027
806	0.028
806	0.029
807	0.03
807	0.03
807	0.031
808	0.032
808	0.032
809	0.032
809	0.033
810	0.034
810	0.034
810	0.034
811	0.035
811	0.035
812	0.036
812	0.036
813	0.037
813	0.037
813	0.036
814	0.036
814	0.036
815	0.035
815	0.034
816	0.033
816	0.031
817	0.03
817	0.029
817	0.028
818	0.028
818	0.027
819	0.026
819	0.025
820	0.024
820	0.024
820	0.024
821	0.023
821	0.023
822	0.023
822	0.022
823	0.022
823	0.022
823	0.022
824	0.022
824	0.022
825	0.022
825	0.022
826	0.021
826	0.021
826	0.02
827	0.02
827	0.019
828	0.019
828	0.019
829	0.019
829	0.019
829	0.019
830	0.018
830	0.019
831	0.019
831	0.019
832	0.019
832	0.019
832	0.019
833	0.019
833	0.018
834	0.018
834	0.017
835	0.016
835	0.015
835	0.015
836	0.015
836	0.014
837	0.014
837	0.014
838	0.014
838	0.014
839	0.014
839	0.014
839	0.014
840	0.015
840	0.015
841	0.016
841	0.016
842	0.017
842	0.017
842	0.017
843	0.017
843	0.017
844	0.017
844	0.016
845	0.016
845	0.016
845	0.015
846	0.014
846	0.014
847	0.013
847	0.013
848	0.012
848	0.012
848	0.011
849	0.011
849	0.01
850	0.009
850	0.009
851	0.008
851	0.008
851	0.007
852	0.007
852	0.007
853	0.006
853	0.006
854	0.006
854	0.007
854	0.007
855	0.007
855	0.007
856	0.007
856	0.007
857	0.008
857	0.008
857	0.008
858	0.008
858	0.008
859	0.008
859	0.009
860	0.009
860	0.009
860	0.009
861	0.009
861	0.009
862	0.009
862	0.009
863	0.008
863	0.008
863	0.008
864	0.007
864	0.006
865	0.006
865	0.005
866	0.004
866	0.003
866	0.003
867	0.002
867	0.002
868	0.002
868	0.002
869	0.003
869	0.003
869	0.003
870	0.003
870	0.004
871	0.004
871	0.004
872	0.003
872	0.002
872	0.002
873	0.001
873	-0
874	-0.001
874	-0.002
875	-0.003
875	-0.004
875	-0.005
876	-0.005
876	-0.006
877	-0.007
877	-0.007
878	-0.008
878	-0.008
878	-0.008
879	-0.008
879	-0.008
880	-0.008
880	-0.007
881	-0.006
881	-0.005
881	-0.004
882	-0.003
882	-0.002
883	-0
883	0.001
884	0.002
884	0.003
884	0.003
885	0.004
885	0.005
886	0.005
886	0.005
887	0.005
887	0.005
887	0.005
888	0.005
888	0.006
889	0.006
889	0.007
890	0.008
890	0.008
890	0.009
891	0.009
891	0.009
892	0.009
892	0.009
893	0.009
893	0.008
893	0.007
894	0.006
894	0.005
895	0.004
895	0.003
895	0.001
896	0
896	-0.001
897	-0.002
897	-0.003
898	-0.003
898	-0.004
898	-0.005
899	-0.005
899	-0.006
900	-0.007
900	-0.007
901	-0.007
901	-0.007
901	-0.007
902	-0.007
902	-0.008
903	-0.008
903	-0.008
904	-0.009
904	-0.009
904	-0.009
905	-0.01
905	-0.01
906	-0.011
906	-0.011
907	-0.012
907	-0.012
907	-0.012
908	-0.012
908	-0.012
909	-0.012
909	-0.011
910	-0.01
910	-0.01
910	-0.009
911	-0.008
911	-0.007
912	-0.007
912	-0.006
913	-0.006
913	-0.006
913	-0.007
914	-0.007
914	-0.008
915	-0.009
915	-0.01
916	-0.011
916	-0.011
916	-0.012
917	-0.012
917	-0.012
918	-0.012
918	-0.012
918	-0.011
919	-0.011
919	-0.01
920	-0.009
920	-0.008
921	-0.008
921	-0.007
921	-0.007
922	-0.007
922	-0.006
923	-0.006
923	-0.006
924	-0.007
924	-0.007
924	-0.007
925	-0.008
925	-0.008
926	-0.008
926	-0.008
927	-0.009
927	-0.009
927	-0.01
928	-0.01
928	-0.01
929	-0.01
929	-0.01
930	-0.011
930	-0.011
930	-0.011
931	-0.012
931	-0.012
932	-0.012
932	-0.012
933	-0.013
933	-0.012
933	-0.012
934	-0.013
934	-0.013
935	-0.013
935	-0.013
935	-0.013
936	-0.013
936	-0.013
937	-0.013
937	-0.013
938	-0.014
938	-0.014
938	-0.014
939	-0.014
939	-0.014
940	-0.014
940	-0.013
941	-0.013
941	-0.012
941	-0.012
942	-0.011
942	-0.011
943	-0.01
943	-0.01
944	-0.01
944	-0.01
944	-0.01
945	-0.011
945	-0.011
946	-0.011
946	-0.012
946	-0.012
947	-0.012
947	-0.012
948	-0.012
948	-0.011
949	-0.011
949	-0.01
949	-0.01
950	-0.009
950	-0.009
951	-0.008
951	-0.008
952	-0.008
952	-0.008
952	-0.008
953	-0.008
953	-0.009
954	-0.009
954	-0.009
955	-0.01
955	-0.01
955	-0.011
956	-0.011
956	-0.011
957	-0.012
957	-0.012
957	-0.013
958	-0.014
958	-0.014
959	-0.015
959	-0.016
960	-0.016
960	-0.017
960	-0.017
961	-0.018
961	-0.018
962	-0.018
962	-0.018
963	-0.017
963	-0.016
963	-0.016
964	-0.015
964	-0.014
965	-0.013
965	-0.012
966	-0.011
966	-0.01
966	-0.009
967	-0.008
967	-0.008
968	-0.008
968	-0.007
968	-0.007
969	-0.008
969	-0.008
970	-0.008
970	-0.008
971	-0.008
971	-0.009
971	-0.009
972	-0.01
972	-0.01
973	-0.01
973	-0.011
974	-0.011
974	-0.012
974	-0.012
975	-0.013
975	-0.014
976	-0.015
976	-0.016
976	-0.016
977	-0.017
977	-0.018
978	-0.019
978	-0.02
979	-0.02
979	-0.021
979	-0.021
980	-0.021
980	-0.021
981	-0.02
981	-0.019
982	-0.018
982	-0.018
982	-0.017
983	-0.016
983	-0.015
984	-0.014
984	-0.013
984	-0.012
985	-0.011
985	-0.011
986	-0.012
986	-0.012
987	-0.013
987	-0.014
987	-0.014
988	-0.015
988	-0.017
989	-0.019
989	-0.02
990	-0.022
990	-0.024
990	-0.025
991	-0.026
991	-0.028
992	-0.029
992	-0.03
992	-0.032
993	-0.033
993	-0.034
994	-0.035
994	-0.035
995	-0.036
995	-0.036
995	-0.037
996	-0.037
996	-0.037
997	-0.037
997	-0.036
997	-0.036
998	-0.035
998	-0.034
999	-0.032
999	-0.031
1000	-0.03
1000	-0.029
1000	-0.027
1001	-0.026
1001	-0.024
1002	-0.023
1002	-0.022
1003	-0.02
1003	-0.019
1003	-0.019
1004	-0.018
1004	-0.017
1005	-0.017
1005	-0.017
1005	-0.017
1006	-0.017
1006	-0.017
1007	-0.017
1007	-0.017
1008	-0.017
1008	-0.017
1008	-0.017
1009	-0.016
1009	-0.016
1010	-0.016
1010	-0.016
1010	-0.016
1011	-0.015
1011	-0.016
1012	-0.016
1012	-0.016
1013	-0.017
1013	-0.017
1013	-0.018
1014	-0.019
1014	-0.02
1015	-0.021
1015	-0.022
1016	-0.023
1016	-0.024
1016	-0.024
1017	-0.025
1017	-0.025
1018	-0.025
1018	-0.025
1018	-0.025
1019	-0.025
1019	-0.025
1020	-0.025
1020	-0.025
1021	-0.024
1021	-0.025
1021	-0.025
1022	-0.025
1022	-0.025
1023	-0.026
1023	-0.026
1023	-0.027
1024	-0.028
1024	-0.029
1025	-0.03
1025	-0.03
1026	-0.031
1026	-0.032
1026	-0.033
1027	-0.033
1027	-0.034
1028	-0.034
1028	-0.034
1028	-0.034
1029	-0.034
1029	-0.034
1030	-0.034
1030	-0.034
1031	-0.033
1031	-0.033
1031	-0.033
1032	-0.033
1032	-0.033
1033	-0.033
1033	-0.034
1033	-0.035
1034	-0.036
1034	-0.037
1035	-0.038
1035	-0.039
1036	-0.04
1036	-0.04
1036	-0.041
1037	-0.042
1037	-0.042
1038	-0.043
1038	-0.043
1039	-0.043
1039	-0.042
1039	-0.042
1040	-0.042
1040	-0.042
1041	-0.042
1041	-0.042
1041	-0.042
1042	-0.043
1042	-0.043
1043	-0.043
1043	-0.044
1044	-0.044
1044	-0.044
1044	-0.044
1045	-0.044
1045	-0.044
1046	-0.044
1046	-0.044
1046	-0.043
1047	-0.042
1047	-0.041
1048	-0.04
1048	-0.04
1049	-0.04
1049	-0.039
1049	-0.039
1050	-0.039
1050	-0.039
1051	-0.039
1051	-0.039
1051	-0.039
1052	-0.039
1052	-0.039
1053	-0.039
1053	-0.039
1053	-0.038
1054	-0.038
1054	-0.038
1055	-0.037
1055	-0.036
1056	-0.036
1056	-0.037
1056	-0.037
1057	-0.037
1057	-0.038
1058	-0.038
1058	-0.039
1058	-0.039
1059	-0.04
1059	-0.041
1060	-0.041
1060	-0.042
1061	-0.042
1061	-0.042
1061	-0.043
1062	-0.043
1062	-0.044
1063	-0.045
1063	-0.046
1063	-0.047
1064	-0.048
1064	-0.049
1065	-0.049
1065	-0.05
1066	-0.051
1066	-0.052
1066	-0.053
1067	-0.054
1067	-0.054
1068	-0.054
1068	-0.054
1068	-0.055
1069	-0.055
1069	-0.056
1070	-0.056
1070	-0.057
1071	-0.058
1071	-0.058
1071	-0.059
1072	-0.059
1072	-0.06
1073	-0.06
1073	-0.06
1073	-0.061
1074	-0.06
1074	-0.061
1075	-0.061
1075	-0.061
1076	-0.061
1076	-0.061
1076	-0.062
1077	-0.062
1077	-0.063
1078	-0.063
1078	-0.063
1078	-0.064
1079	-0.063
1079	-0.063
1080	-0.064
1080	-0.064
1080	-0.064
1081	-0.064
1081	-0.063
1082	-0.063
1082	-0.063
1083	-0.063
1083	-0.063
1083	-0.063
1084	-0.063
1084	-0.063
1085	-0.063
1085	-0.062
1085	-0.062
1086	-0.063
1086	-0.064
1087	-0.063
1087	-0.063
1088	-0.064
1088	-0.065
1088	-0.065
1089	-0.066
1089	-0.067
1090	-0.068
1090	-0.069
1090	-0.071
1091	-0.071
1091	-0.072
1092	-0.073
1092	-0.074
1092	-0.074
1093	-0.076
1093	-0.076
1094	-0.076
1094	-0.077
1095	-0.077
1095	-0.078
1095	-0.078
1096	-0.079
1096	-0.079
1097	-0.079
1097	-0.08
1097	-0.081
1098	-0.082
1098	-0.082
1099	-0.084
1099	-0.084
1100	-0.086
1100	-0.087
1100	-0.089
1101	-0.091
1101	-0.092
1102	-0.094
1102	-0.095
1102	-0.097
1103	-0.1
1103	-0.1
1104	-0.101
1104	-0.103
1104	-0.103
1105	-0.104
1105	-0.106
1106	-0.109
1106	-0.111
1107	-0.115
1107	-0.117
1107	-0.119
1108	-0.12
1108	-0.122
1109	-0.124
1109	-0.129
1109	-0.132
1110	-0.131
1110	-0.134
1111	-0.139
1111	-0.131
