Data from control-808nm_Absorbance__1221__04090.txt Node

Date: Wed Jan 17 13:20:38 CET 2024
User: Marek
Spectrometer: MAYP115816
Trigger mode: 0
Integration Time (sec): 2.000000E-1
Scans to average: 10
Electric dark correction enabled: true
Nonlinearity correction enabled: true
Boxcar width: 5
XAxis mode: Wavelengths
Number of Pixels in Spectrum: 2068
>>>>>Begin Spectral Data<<<<<
199	-1.492
199	-1.362
200	-1.211
200	-1.094
201	-1.024
201	-0.98
202	-0.917
202	-0.872
203	-0.833
203	-0.8
204	-0.778
204	-0.757
205	-0.735
205	-0.725
205	-0.725
206	-0.723
206	-0.721
207	-0.719
207	-0.715
208	-0.714
208	-0.714
209	-0.711
209	-0.711
210	-0.711
210	-0.712
211	-0.711
211	-0.712
212	-0.714
212	-0.714
213	-0.713
213	-0.712
213	-0.712
214	-0.711
214	-0.711
215	-0.71
215	-0.71
216	-0.71
216	-0.708
217	-0.704
217	-0.703
218	-0.703
218	-0.7
219	-0.697
219	-0.697
220	-0.694
220	-0.693
221	-0.689
221	-0.687
221	-0.683
222	-0.68
222	-0.676
223	-0.671
223	-0.668
224	-0.665
224	-0.658
225	-0.65
225	-0.643
226	-0.635
226	-0.624
227	-0.613
227	-0.603
228	-0.59
228	-0.575
229	-0.557
229	-0.536
229	-0.514
230	-0.489
230	-0.463
231	-0.435
231	-0.406
232	-0.377
232	-0.345
233	-0.313
233	-0.281
234	-0.251
234	-0.221
235	-0.194
235	-0.169
236	-0.145
236	-0.123
236	-0.103
237	-0.086
237	-0.071
238	-0.057
238	-0.044
239	-0.033
239	-0.024
240	-0.016
240	-0.009
241	-0.003
241	0.002
242	0.006
242	0.01
243	0.014
243	0.017
243	0.019
244	0.021
244	0.022
245	0.023
245	0.025
246	0.026
246	0.026
247	0.027
247	0.028
248	0.028
248	0.029
249	0.029
249	0.029
250	0.029
250	0.029
250	0.029
251	0.03
251	0.029
252	0.03
252	0.029
253	0.029
253	0.029
254	0.028
254	0.028
255	0.028
255	0.028
256	0.028
256	0.027
257	0.027
257	0.027
258	0.026
258	0.026
258	0.026
259	0.026
259	0.026
260	0.026
260	0.025
261	0.025
261	0.025
262	0.025
262	0.025
263	0.025
263	0.025
264	0.025
264	0.025
265	0.025
265	0.025
265	0.025
266	0.025
266	0.025
267	0.025
267	0.025
268	0.025
268	0.025
269	0.025
269	0.025
270	0.025
270	0.025
271	0.025
271	0.025
272	0.025
272	0.025
272	0.025
273	0.026
273	0.026
274	0.026
274	0.026
275	0.026
275	0.026
276	0.027
276	0.027
277	0.028
277	0.028
278	0.028
278	0.029
278	0.029
279	0.029
279	0.028
280	0.029
280	0.029
281	0.029
281	0.029
282	0.029
282	0.029
283	0.029
283	0.029
284	0.029
284	0.03
285	0.03
285	0.031
285	0.031
286	0.032
286	0.032
287	0.033
287	0.033
288	0.033
288	0.034
289	0.034
289	0.034
290	0.034
290	0.035
291	0.035
291	0.035
292	0.035
292	0.035
292	0.035
293	0.035
293	0.036
294	0.036
294	0.036
295	0.036
295	0.036
296	0.036
296	0.036
297	0.036
297	0.036
298	0.037
298	0.037
298	0.037
299	0.037
299	0.037
300	0.037
300	0.036
301	0.037
301	0.036
302	0.036
302	0.036
303	0.036
303	0.036
304	0.036
304	0.036
305	0.036
305	0.036
305	0.036
306	0.036
306	0.036
307	0.035
307	0.035
308	0.035
308	0.035
309	0.035
309	0.035
310	0.035
310	0.035
311	0.034
311	0.034
311	0.034
312	0.034
312	0.034
313	0.034
313	0.034
314	0.033
314	0.033
315	0.033
315	0.033
316	0.033
316	0.033
317	0.033
317	0.033
318	0.032
318	0.032
318	0.032
319	0.032
319	0.032
320	0.031
320	0.031
321	0.031
321	0.031
322	0.03
322	0.03
323	0.03
323	0.029
324	0.029
324	0.029
324	0.028
325	0.028
325	0.028
326	0.028
326	0.027
327	0.027
327	0.027
328	0.027
328	0.026
329	0.026
329	0.026
330	0.026
330	0.025
330	0.025
331	0.025
331	0.024
332	0.024
332	0.024
333	0.024
333	0.023
334	0.023
334	0.023
335	0.022
335	0.022
336	0.021
336	0.021
336	0.021
337	0.021
337	0.02
338	0.02
338	0.019
339	0.019
339	0.019
340	0.019
340	0.018
341	0.018
341	0.018
342	0.018
342	0.018
342	0.017
343	0.017
343	0.017
344	0.017
344	0.017
345	0.017
345	0.016
346	0.016
346	0.016
347	0.015
347	0.015
348	0.015
348	0.015
348	0.014
349	0.014
349	0.014
350	0.013
350	0.013
351	0.013
351	0.013
352	0.012
352	0.012
353	0.012
353	0.012
354	0.011
354	0.011
354	0.011
355	0.011
355	0.01
356	0.01
356	0.01
357	0.01
357	0.01
358	0.009
358	0.009
359	0.009
359	0.009
360	0.009
360	0.009
360	0.01
361	0.009
361	0.009
362	0.01
362	0.01
363	0.01
363	0.01
364	0.01
364	0.01
365	0.01
365	0.009
366	0.009
366	0.009
366	0.009
367	0.009
367	0.009
368	0.009
368	0.009
369	0.009
369	0.009
370	0.009
370	0.009
371	0.009
371	0.009
372	0.009
372	0.009
372	0.009
373	0.009
373	0.009
374	0.009
374	0.009
375	0.009
375	0.009
376	0.009
376	0.009
377	0.009
377	0.009
378	0.009
378	0.009
378	0.01
379	0.01
379	0.01
380	0.01
380	0.01
381	0.01
381	0.01
382	0.01
382	0.01
383	0.009
383	0.009
383	0.009
384	0.009
384	0.009
385	0.009
385	0.009
386	0.01
386	0.01
387	0.01
387	0.01
388	0.01
388	0.01
389	0.01
389	0.01
389	0.01
390	0.01
390	0.011
391	0.011
391	0.011
392	0.011
392	0.011
393	0.011
393	0.011
394	0.011
394	0.011
394	0.011
395	0.011
395	0.011
396	0.011
396	0.011
397	0.011
397	0.011
398	0.011
398	0.011
399	0.011
399	0.011
400	0.011
400	0.011
400	0.011
401	0.01
401	0.01
402	0.01
402	0.01
403	0.01
403	0.01
404	0.01
404	0.01
405	0.01
405	0.01
405	0.01
406	0.01
406	0.01
407	0.01
407	0.01
408	0.01
408	0.01
409	0.01
409	0.01
410	0.01
410	0.01
411	0.01
411	0.01
411	0.01
412	0.01
412	0.01
413	0.01
413	0.01
414	0.01
414	0.01
415	0.01
415	0.009
416	0.009
416	0.009
416	0.009
417	0.009
417	0.009
418	0.009
418	0.009
419	0.01
419	0.01
420	0.011
420	0.011
421	0.011
421	0.011
421	0.012
422	0.012
422	0.012
423	0.012
423	0.012
424	0.012
424	0.011
425	0.011
425	0.011
426	0.011
426	0.011
427	0.011
427	0.011
427	0.012
428	0.012
428	0.012
429	0.012
429	0.012
430	0.012
430	0.012
431	0.012
431	0.012
432	0.012
432	0.011
432	0.011
433	0.01
433	0.01
434	0.01
434	0.011
435	0.011
435	0.011
436	0.011
436	0.011
437	0.011
437	0.011
437	0.011
438	0.011
438	0.011
439	0.011
439	0.01
440	0.01
440	0.01
441	0.01
441	0.01
442	0.01
442	0.01
442	0.01
443	0.01
443	0.011
444	0.011
444	0.011
445	0.012
445	0.012
446	0.012
446	0.012
447	0.012
447	0.011
447	0.011
448	0.011
448	0.011
449	0.011
449	0.011
450	0.011
450	0.011
451	0.01
451	0.01
452	0.01
452	0.01
452	0.01
453	0.01
453	0.01
454	0.01
454	0.01
455	0.011
455	0.011
456	0.011
456	0.011
457	0.011
457	0.011
458	0.011
458	0.011
458	0.011
459	0.011
459	0.011
460	0.01
460	0.01
461	0.009
461	0.01
462	0.01
462	0.01
463	0.01
463	0.01
463	0.011
464	0.01
464	0.01
465	0.01
465	0.01
466	0.01
466	0.01
467	0.01
467	0.01
467	0.009
468	0.009
468	0.008
469	0.008
469	0.008
470	0.008
470	0.008
471	0.008
471	0.007
472	0.007
472	0.008
472	0.008
473	0.008
473	0.008
474	0.008
474	0.009
475	0.009
475	0.009
476	0.009
476	0.009
477	0.009
477	0.009
477	0.009
478	0.008
478	0.008
479	0.008
479	0.008
480	0.008
480	0.008
481	0.008
481	0.008
482	0.009
482	0.009
482	0.01
483	0.011
483	0.013
484	0.013
484	0.012
485	0.012
485	0.013
486	0.012
486	0.012
487	0.012
487	0.012
487	0.012
488	0.011
488	0.01
489	0.01
489	0.011
490	0.011
490	0.011
491	0.011
491	0.011
492	0.011
492	0.011
492	0.011
493	0.011
493	0.011
494	0.012
494	0.012
495	0.013
495	0.013
496	0.013
496	0.014
496	0.014
497	0.015
497	0.015
498	0.015
498	0.015
499	0.015
499	0.015
500	0.015
500	0.016
501	0.016
501	0.016
501	0.016
502	0.016
502	0.016
503	0.016
503	0.016
504	0.016
504	0.016
505	0.015
505	0.015
506	0.015
506	0.015
506	0.015
507	0.015
507	0.014
508	0.015
508	0.015
509	0.015
509	0.015
510	0.015
510	0.015
511	0.015
511	0.015
511	0.015
512	0.015
512	0.015
513	0.014
513	0.014
514	0.014
514	0.013
515	0.013
515	0.013
515	0.013
516	0.013
516	0.013
517	0.013
517	0.013
518	0.012
518	0.011
519	0.011
519	0.01
520	0.01
520	0.009
520	0.009
521	0.008
521	0.007
522	0.006
522	0.006
523	0.006
523	0.006
524	0.006
524	0.006
524	0.006
525	0.006
525	0.006
526	0.006
526	0.006
527	0.006
527	0.006
528	0.006
528	0.006
529	0.006
529	0.005
529	0.005
530	0.005
530	0.005
531	0.005
531	0.005
532	0.005
532	0.005
533	0.006
533	0.006
533	0.005
534	0.005
534	0.005
535	0.004
535	0.005
536	0.004
536	0.004
537	0.004
537	0.004
538	0.003
538	0.003
538	0.003
539	0.003
539	0.003
540	0.003
540	0.002
541	0.002
541	0.002
542	0.002
542	0.002
542	0.001
543	0.001
543	0.001
544	0.001
544	0.001
545	0.001
545	0.002
546	0.002
546	0.002
547	0.001
547	-0
547	-0
548	-0
548	-0
549	-0
549	-0
550	-0
550	-0.001
551	-0.001
551	-0.001
551	-0
552	0
552	0.001
553	0.001
553	0.001
554	0
554	-0.001
555	-0.002
555	-0.003
556	-0.003
556	-0.004
556	-0.004
557	-0.004
557	-0.004
558	-0.005
558	-0.005
559	-0.005
559	-0.004
560	-0.004
560	-0.003
560	-0.003
561	-0.001
561	-0.001
562	-0.001
562	-0.002
563	-0.002
563	-0.003
564	-0.004
564	-0.004
564	-0.005
565	-0.005
565	-0.005
566	-0.006
566	-0.007
567	-0.006
567	-0.005
568	-0.005
568	-0.004
568	-0.003
569	-0.002
569	-0.001
570	-0.002
570	-0.003
571	-0.002
571	-0.002
572	-0.002
572	-0.002
573	-0.003
573	-0.004
573	-0.005
574	-0.005
574	-0.004
575	-0.004
575	-0.002
576	-0.001
576	-0.002
577	-0.003
577	-0.004
577	-0.003
578	-0.002
578	-0.002
579	-0
579	0.001
580	-0.001
580	-0.004
581	-0.007
581	-0.007
581	-0.007
582	-0.006
582	-0.006
583	-0.004
583	-0.006
584	-0.009
584	-0.012
585	-0.012
585	-0.01
585	-0.009
586	-0.008
586	-0.009
587	-0.01
587	-0.012
588	-0.014
588	-0.014
589	-0.013
589	-0.012
590	-0.012
590	-0.011
590	-0.009
591	-0.007
591	-0.008
592	-0.009
592	-0.01
593	-0.01
593	-0.009
594	-0.01
594	-0.011
594	-0.012
595	-0.013
595	-0.014
596	-0.014
596	-0.012
597	-0.009
597	-0.008
598	-0.008
598	-0.006
598	-0.006
599	-0.006
599	-0.006
600	-0.007
600	-0.008
601	-0.009
601	-0.01
602	-0.011
602	-0.011
602	-0.012
603	-0.011
603	-0.009
604	-0.007
604	-0.005
605	-0.003
605	-0.001
606	-0.001
606	-0.002
606	-0.002
607	-0.002
607	-0.002
608	-0.003
608	-0.005
609	-0.006
609	-0.007
610	-0.008
610	-0.009
610	-0.009
611	-0.007
611	-0.006
612	-0.004
612	-0.003
613	-0.002
613	-0.001
614	-0.002
614	-0.003
614	-0.004
615	-0.005
615	-0.006
616	-0.007
616	-0.008
617	-0.009
617	-0.011
618	-0.012
618	-0.013
618	-0.013
619	-0.012
619	-0.011
620	-0.009
620	-0.009
621	-0.009
621	-0.008
622	-0.009
622	-0.008
622	-0.009
623	-0.009
623	-0.009
624	-0.009
624	-0.01
625	-0.011
625	-0.011
626	-0.011
626	-0.011
626	-0.011
627	-0.01
627	-0.01
628	-0.01
628	-0.01
629	-0.011
629	-0.011
630	-0.012
630	-0.013
630	-0.013
631	-0.012
631	-0.013
632	-0.014
632	-0.014
633	-0.014
633	-0.014
634	-0.013
634	-0.012
634	-0.011
635	-0.011
635	-0.012
636	-0.012
636	-0.012
637	-0.012
637	-0.012
638	-0.012
638	-0.012
638	-0.012
639	-0.013
639	-0.013
640	-0.013
640	-0.013
641	-0.013
641	-0.013
642	-0.013
642	-0.013
642	-0.013
643	-0.014
643	-0.014
644	-0.014
644	-0.014
645	-0.013
645	-0.013
646	-0.012
646	-0.012
646	-0.011
647	-0.01
647	-0.009
648	-0.008
648	-0.008
649	-0.008
649	-0.007
650	-0.007
650	-0.007
650	-0.007
651	-0.008
651	-0.008
652	-0.009
652	-0.009
653	-0.008
653	-0.002
653	0.01
654	0.01
654	0.01
655	0.003
655	0.003
656	0.003
656	0.002
657	0.002
657	0.002
657	0.001
658	-0.003
658	-0.013
659	-0.016
659	-0.019
660	-0.012
660	-0.012
661	-0.012
661	-0.012
661	-0.011
662	-0.01
662	-0.009
663	-0.008
663	-0.008
664	-0.008
664	-0.008
665	-0.008
665	-0.008
665	-0.008
666	-0.008
666	-0.009
667	-0.009
667	-0.009
668	-0.009
668	-0.009
669	-0.009
669	-0.008
669	-0.006
670	-0.005
670	-0.005
671	-0.005
671	-0.005
672	-0.005
672	-0.004
672	-0.004
673	-0.004
673	-0.004
674	-0.004
674	-0.006
675	-0.006
675	-0.006
676	-0.005
676	-0.005
676	-0.006
677	-0.006
677	-0.006
678	-0.007
678	-0.008
679	-0.008
679	-0.008
680	-0.007
680	-0.007
680	-0.008
681	-0.007
681	-0.006
682	-0.006
682	-0.005
683	-0.004
683	-0.002
684	-0.001
684	-0.001
684	-0.002
685	-0.001
685	0
686	0.001
686	0.001
687	0.001
687	0.001
687	0.001
688	0
688	-0
689	0
689	0.001
690	0.001
690	0
691	0
691	0
691	0
692	-0.001
692	-0.001
693	-0.001
693	0
694	-0.001
694	-0.002
695	0
695	0.002
695	0.002
696	0.001
696	0.001
697	0.001
697	0.001
698	0
698	-0
698	0
699	0.001
699	0
700	-0.001
700	0
701	0.002
701	0.003
702	0.003
702	0.004
702	0.004
703	0.005
703	0.005
704	0.006
704	0.007
705	0.008
705	0.008
705	0.009
706	0.009
706	0.01
707	0.01
707	0.01
708	0.01
708	0.011
709	0.011
709	0.011
709	0.01
710	0.009
710	0.01
711	0.011
711	0.012
712	0.012
712	0.012
713	0.012
713	0.012
713	0.012
714	0.011
714	0.011
715	0.012
715	0.012
716	0.012
716	0.013
716	0.014
717	0.015
717	0.016
718	0.016
718	0.017
719	0.019
719	0.02
720	0.02
720	0.021
720	0.021
721	0.021
721	0.022
722	0.023
722	0.023
723	0.024
723	0.025
723	0.025
724	0.026
724	0.026
725	0.026
725	0.026
726	0.027
726	0.027
727	0.027
727	0.028
727	0.029
728	0.029
728	0.029
729	0.032
729	0.033
730	0.035
730	0.035
730	0.037
731	0.038
731	0.04
732	0.041
732	0.043
733	0.043
733	0.044
734	0.045
734	0.046
734	0.048
735	0.05
735	0.05
736	0.051
736	0.052
737	0.053
737	0.055
737	0.056
738	0.055
738	0.054
739	0.054
739	0.054
740	0.053
740	0.054
741	0.054
741	0.054
741	0.053
742	0.052
742	0.053
743	0.055
743	0.056
744	0.057
744	0.059
744	0.06
745	0.06
745	0.061
746	0.062
746	0.063
747	0.064
747	0.065
748	0.067
748	0.068
748	0.068
749	0.069
749	0.071
750	0.072
750	0.074
751	0.076
751	0.079
751	0.082
752	0.084
752	0.085
753	0.088
753	0.09
754	0.093
754	0.094
754	0.097
755	0.099
755	0.102
756	0.103
756	0.102
757	0.103
757	0.105
758	0.105
758	0.106
758	0.107
759	0.108
759	0.108
760	0.108
760	0.108
761	0.109
761	0.111
761	0.113
762	0.114
762	0.117
763	0.119
763	0.12
764	0.12
764	0.121
764	0.122
765	0.122
765	0.123
766	0.124
766	0.126
767	0.128
767	0.127
768	0.127
768	0.127
768	0.129
769	0.13
769	0.131
770	0.131
770	0.132
771	0.131
771	0.13
771	0.13
772	0.13
772	0.13
773	0.13
773	0.13
774	0.129
774	0.128
775	0.128
775	0.127
775	0.126
776	0.124
776	0.123
777	0.122
777	0.121
778	0.119
778	0.118
778	0.117
779	0.116
779	0.116
780	0.114
780	0.112
781	0.111
781	0.109
781	0.106
782	0.103
782	0.099
783	0.095
783	0.091
784	0.086
784	0.081
784	0.076
785	0.071
785	0.065
786	0.059
786	0.055
787	0.051
787	0.046
788	0.039
788	0.031
788	0.023
789	0.013
789	0.005
790	-0.004
790	-0.015
791	-0.028
791	-0.042
791	-0.058
792	-0.066
792	-0.07
793	-0.077
793	-0.086
794	-0.095
794	-0.107
794	-0.118
795	-0.127
795	-0.133
796	-0.137
796	-0.141
797	-0.15
797	-0.161
797	-0.167
798	-0.172
798	-0.175
799	-0.175
799	-0.175
800	-0.174
800	-0.176
801	-0.178
801	-0.179
801	-0.179
802	-0.181
802	-0.182
803	-0.183
803	-0.183
804	-0.182
804	-0.177
804	-0.171
805	-0.167
805	-0.165
806	-0.163
806	-0.161
807	-0.16
807	-0.16
807	-0.16
808	-0.16
808	-0.161
809	-0.166
809	-0.172
810	-0.175
810	-0.178
810	-0.182
811	-0.185
811	-0.186
812	-0.182
812	-0.179
813	-0.177
813	-0.172
813	-0.165
814	-0.156
814	-0.144
815	-0.128
815	-0.109
816	-0.09
816	-0.071
817	-0.053
817	-0.032
817	-0.009
818	0.012
818	0.033
819	0.052
819	0.068
820	0.081
820	0.092
820	0.103
821	0.113
821	0.123
822	0.132
822	0.139
823	0.146
823	0.15
823	0.155
824	0.159
824	0.164
825	0.169
825	0.173
826	0.177
826	0.179
826	0.18
827	0.182
827	0.184
828	0.185
828	0.186
829	0.188
829	0.188
829	0.188
830	0.187
830	0.187
831	0.188
831	0.189
832	0.189
832	0.189
832	0.189
833	0.189
833	0.189
834	0.19
834	0.19
835	0.191
835	0.191
835	0.191
836	0.192
836	0.192
837	0.192
837	0.192
838	0.192
838	0.191
839	0.191
839	0.189
839	0.188
840	0.186
840	0.185
841	0.184
841	0.182
842	0.181
842	0.18
842	0.179
843	0.178
843	0.177
844	0.176
844	0.176
845	0.175
845	0.174
845	0.173
846	0.172
846	0.171
847	0.169
847	0.167
848	0.166
848	0.164
848	0.162
849	0.161
849	0.159
850	0.158
850	0.156
851	0.154
851	0.153
851	0.152
852	0.151
852	0.15
853	0.149
853	0.147
854	0.146
854	0.144
854	0.143
855	0.141
855	0.14
856	0.138
856	0.137
857	0.135
857	0.134
857	0.133
858	0.132
858	0.13
859	0.129
859	0.128
860	0.126
860	0.125
860	0.124
861	0.123
861	0.121
862	0.12
862	0.118
863	0.117
863	0.115
863	0.114
864	0.112
864	0.111
865	0.11
865	0.109
866	0.108
866	0.107
866	0.107
867	0.107
867	0.107
868	0.107
868	0.107
869	0.108
869	0.108
869	0.108
870	0.108
870	0.108
871	0.107
871	0.106
872	0.105
872	0.104
872	0.102
873	0.101
873	0.099
874	0.098
874	0.097
875	0.097
875	0.096
875	0.095
876	0.095
876	0.095
877	0.094
877	0.094
878	0.094
878	0.093
878	0.092
879	0.091
879	0.089
880	0.088
880	0.085
881	0.083
881	0.081
881	0.079
882	0.076
882	0.074
883	0.072
883	0.071
884	0.07
884	0.069
884	0.068
885	0.068
885	0.068
886	0.068
886	0.068
887	0.068
887	0.068
887	0.068
888	0.067
888	0.067
889	0.066
889	0.066
890	0.065
890	0.064
890	0.063
891	0.062
891	0.06
892	0.059
892	0.057
893	0.056
893	0.054
893	0.053
894	0.052
894	0.05
895	0.049
895	0.048
895	0.046
896	0.045
896	0.044
897	0.044
897	0.043
898	0.043
898	0.042
898	0.042
899	0.041
899	0.041
900	0.041
900	0.041
901	0.041
901	0.041
901	0.041
902	0.042
902	0.041
903	0.041
903	0.041
904	0.04
904	0.04
904	0.04
905	0.04
905	0.04
906	0.039
906	0.039
907	0.039
907	0.038
907	0.038
908	0.038
908	0.037
909	0.037
909	0.037
910	0.037
910	0.037
910	0.037
911	0.037
911	0.037
912	0.037
912	0.036
913	0.036
913	0.036
913	0.035
914	0.033
914	0.032
915	0.03
915	0.029
916	0.027
916	0.025
916	0.023
917	0.021
917	0.019
918	0.017
918	0.016
918	0.014
919	0.014
919	0.013
920	0.013
920	0.014
921	0.014
921	0.015
921	0.016
922	0.018
922	0.019
923	0.021
923	0.022
924	0.024
924	0.024
924	0.025
925	0.025
925	0.024
926	0.024
926	0.023
927	0.022
927	0.021
927	0.019
928	0.018
928	0.016
929	0.015
929	0.014
930	0.013
930	0.012
930	0.011
931	0.01
931	0.01
932	0.009
932	0.008
933	0.008
933	0.007
933	0.007
934	0.006
934	0.006
935	0.005
935	0.005
935	0.005
936	0.005
936	0.005
937	0.005
937	0.005
938	0.005
938	0.006
938	0.006
939	0.006
939	0.006
940	0.007
940	0.007
941	0.007
941	0.007
941	0.007
942	0.007
942	0.007
943	0.007
943	0.006
944	0.005
944	0.004
944	0.003
945	0.003
945	0.002
946	0.001
946	0
946	-0.001
947	-0.002
947	-0.003
948	-0.004
948	-0.005
949	-0.006
949	-0.006
949	-0.007
950	-0.007
950	-0.007
951	-0.007
951	-0.007
952	-0.008
952	-0.007
952	-0.007
953	-0.006
953	-0.005
954	-0.005
954	-0.005
955	-0.005
955	-0.005
955	-0.004
956	-0.004
956	-0.003
957	-0.004
957	-0.004
957	-0.004
958	-0.004
958	-0.005
959	-0.005
959	-0.005
960	-0.006
960	-0.006
960	-0.007
961	-0.008
961	-0.009
962	-0.009
962	-0.01
963	-0.01
963	-0.01
963	-0.01
964	-0.009
964	-0.008
965	-0.008
965	-0.007
966	-0.006
966	-0.005
966	-0.004
967	-0.004
967	-0.004
968	-0.004
968	-0.005
968	-0.005
969	-0.006
969	-0.007
970	-0.008
970	-0.009
971	-0.01
971	-0.01
971	-0.011
972	-0.011
972	-0.011
973	-0.011
973	-0.012
974	-0.012
974	-0.012
974	-0.011
975	-0.011
975	-0.01
976	-0.01
976	-0.01
976	-0.01
977	-0.01
977	-0.011
978	-0.011
978	-0.012
979	-0.012
979	-0.013
979	-0.014
980	-0.014
980	-0.015
981	-0.016
981	-0.016
982	-0.016
982	-0.016
982	-0.016
983	-0.016
983	-0.016
984	-0.016
984	-0.016
984	-0.016
985	-0.016
985	-0.016
986	-0.017
986	-0.017
987	-0.018
987	-0.017
987	-0.017
988	-0.017
988	-0.017
989	-0.017
989	-0.017
990	-0.017
990	-0.016
990	-0.015
991	-0.013
991	-0.012
992	-0.011
992	-0.01
992	-0.009
993	-0.008
993	-0.007
994	-0.006
994	-0.005
995	-0.005
995	-0.005
995	-0.005
996	-0.005
996	-0.006
997	-0.007
997	-0.007
997	-0.008
998	-0.008
998	-0.009
999	-0.009
999	-0.009
1000	-0.009
1000	-0.01
1000	-0.01
1001	-0.01
1001	-0.01
1002	-0.01
1002	-0.011
1003	-0.011
1003	-0.012
1003	-0.012
1004	-0.012
1004	-0.013
1005	-0.014
1005	-0.015
1005	-0.016
1006	-0.017
1006	-0.018
1007	-0.019
1007	-0.02
1008	-0.021
1008	-0.022
1008	-0.023
1009	-0.024
1009	-0.024
1010	-0.025
1010	-0.025
1010	-0.025
1011	-0.026
1011	-0.026
1012	-0.026
1012	-0.027
1013	-0.027
1013	-0.028
1013	-0.029
1014	-0.029
1014	-0.03
1015	-0.031
1015	-0.031
1016	-0.032
1016	-0.032
1016	-0.033
1017	-0.033
1017	-0.033
1018	-0.032
1018	-0.032
1018	-0.031
1019	-0.031
1019	-0.03
1020	-0.03
1020	-0.03
1021	-0.03
1021	-0.03
1021	-0.029
1022	-0.029
1022	-0.03
1023	-0.03
1023	-0.03
1023	-0.03
1024	-0.031
1024	-0.031
1025	-0.032
1025	-0.032
1026	-0.033
1026	-0.033
1026	-0.033
1027	-0.033
1027	-0.033
1028	-0.033
1028	-0.033
1028	-0.032
1029	-0.032
1029	-0.031
1030	-0.031
1030	-0.031
1031	-0.03
1031	-0.03
1031	-0.029
1032	-0.029
1032	-0.029
1033	-0.029
1033	-0.029
1033	-0.029
1034	-0.03
1034	-0.031
1035	-0.032
1035	-0.033
1036	-0.034
1036	-0.034
1036	-0.035
1037	-0.035
1037	-0.036
1038	-0.036
1038	-0.036
1039	-0.036
1039	-0.036
1039	-0.036
1040	-0.036
1040	-0.036
1041	-0.037
1041	-0.038
1041	-0.038
1042	-0.039
1042	-0.04
1043	-0.042
1043	-0.043
1044	-0.044
1044	-0.046
1044	-0.047
1045	-0.048
1045	-0.049
1046	-0.051
1046	-0.052
1046	-0.052
1047	-0.053
1047	-0.053
1048	-0.053
1048	-0.053
1049	-0.053
1049	-0.054
1049	-0.054
1050	-0.055
1050	-0.056
1051	-0.056
1051	-0.056
1051	-0.057
1052	-0.057
1052	-0.058
1053	-0.058
1053	-0.058
1053	-0.058
1054	-0.058
1054	-0.057
1055	-0.057
1055	-0.057
1056	-0.058
1056	-0.058
1056	-0.059
1057	-0.06
1057	-0.06
1058	-0.06
1058	-0.061
1058	-0.061
1059	-0.062
1059	-0.062
1060	-0.063
1060	-0.063
1061	-0.062
1061	-0.062
1061	-0.061
1062	-0.061
1062	-0.062
1063	-0.061
1063	-0.061
1063	-0.061
1064	-0.061
1064	-0.06
1065	-0.059
1065	-0.059
1066	-0.059
1066	-0.059
1066	-0.058
1067	-0.058
1067	-0.057
1068	-0.057
1068	-0.056
1068	-0.056
1069	-0.056
1069	-0.057
1070	-0.057
1070	-0.057
1071	-0.057
1071	-0.057
1071	-0.058
1072	-0.059
1072	-0.059
1073	-0.06
1073	-0.059
1073	-0.06
1074	-0.06
1074	-0.06
1075	-0.06
1075	-0.061
1076	-0.062
1076	-0.062
1076	-0.063
1077	-0.064
1077	-0.064
1078	-0.065
1078	-0.065
1078	-0.065
1079	-0.065
1079	-0.065
1080	-0.065
1080	-0.064
1080	-0.064
1081	-0.064
1081	-0.063
1082	-0.062
1082	-0.062
1083	-0.062
1083	-0.062
1083	-0.062
1084	-0.061
1084	-0.061
1085	-0.06
1085	-0.059
1085	-0.059
1086	-0.059
1086	-0.06
1087	-0.06
1087	-0.06
1088	-0.061
1088	-0.061
1088	-0.062
1089	-0.064
1089	-0.065
1090	-0.066
1090	-0.067
1090	-0.067
1091	-0.067
1091	-0.067
1092	-0.067
1092	-0.066
1092	-0.065
1093	-0.064
1093	-0.062
1094	-0.061
1094	-0.06
1095	-0.06
1095	-0.059
1095	-0.057
1096	-0.056
1096	-0.055
1097	-0.055
1097	-0.055
1097	-0.054
1098	-0.055
1098	-0.056
1099	-0.055
1099	-0.054
1100	-0.054
1100	-0.054
1100	-0.054
1101	-0.054
1101	-0.054
1102	-0.052
1102	-0.052
1102	-0.05
1103	-0.05
1103	-0.048
1104	-0.047
1104	-0.046
1104	-0.042
1105	-0.04
1105	-0.039
1106	-0.039
1106	-0.036
1107	-0.035
1107	-0.03
1107	-0.026
1108	-0.002
1108	0.029
1109	0.071
1109	0.129
1109	0.17
1110	0.249
1110	0.398
1111	0.862
1111	-0
