Data from control-808nm_Absorbance__251__03120.txt Node

Date: Wed Jan 17 12:48:18 CET 2024
User: Marek
Spectrometer: MAYP115816
Trigger mode: 0
Integration Time (sec): 2.000000E-1
Scans to average: 10
Electric dark correction enabled: true
Nonlinearity correction enabled: true
Boxcar width: 5
XAxis mode: Wavelengths
Number of Pixels in Spectrum: 2068
>>>>>Begin Spectral Data<<<<<
199	-1.557
199	-1.423
200	-1.269
200	-1.151
201	-1.078
201	-1.033
202	-0.968
202	-0.922
203	-0.88
203	-0.845
204	-0.822
204	-0.801
205	-0.779
205	-0.769
205	-0.768
206	-0.767
206	-0.764
207	-0.762
207	-0.758
208	-0.757
208	-0.758
209	-0.754
209	-0.753
210	-0.753
210	-0.754
211	-0.752
211	-0.753
212	-0.754
212	-0.754
213	-0.753
213	-0.752
213	-0.752
214	-0.75
214	-0.75
215	-0.749
215	-0.749
216	-0.75
216	-0.748
217	-0.744
217	-0.742
218	-0.742
218	-0.738
219	-0.736
219	-0.736
220	-0.734
220	-0.732
221	-0.727
221	-0.724
221	-0.72
222	-0.718
222	-0.714
223	-0.709
223	-0.707
224	-0.703
224	-0.696
225	-0.688
225	-0.682
226	-0.674
226	-0.663
227	-0.652
227	-0.641
228	-0.627
228	-0.612
229	-0.594
229	-0.572
229	-0.548
230	-0.523
230	-0.497
231	-0.468
231	-0.437
232	-0.407
232	-0.375
233	-0.342
233	-0.308
234	-0.277
234	-0.246
235	-0.218
235	-0.192
236	-0.166
236	-0.144
236	-0.122
237	-0.103
237	-0.086
238	-0.071
238	-0.058
239	-0.045
239	-0.035
240	-0.026
240	-0.018
241	-0.012
241	-0.006
242	-0.001
242	0.003
243	0.008
243	0.011
243	0.013
244	0.016
244	0.017
245	0.019
245	0.02
246	0.022
246	0.023
247	0.024
247	0.025
248	0.025
248	0.026
249	0.026
249	0.026
250	0.026
250	0.027
250	0.027
251	0.027
251	0.027
252	0.027
252	0.027
253	0.027
253	0.027
254	0.027
254	0.027
255	0.027
255	0.027
256	0.027
256	0.026
257	0.026
257	0.026
258	0.026
258	0.025
258	0.025
259	0.025
259	0.025
260	0.025
260	0.025
261	0.025
261	0.025
262	0.024
262	0.024
263	0.024
263	0.024
264	0.024
264	0.024
265	0.024
265	0.024
265	0.024
266	0.024
266	0.024
267	0.024
267	0.024
268	0.024
268	0.024
269	0.024
269	0.024
270	0.024
270	0.024
271	0.024
271	0.024
272	0.024
272	0.024
272	0.025
273	0.025
273	0.025
274	0.025
274	0.026
275	0.026
275	0.026
276	0.026
276	0.027
277	0.027
277	0.028
278	0.028
278	0.028
278	0.029
279	0.028
279	0.028
280	0.028
280	0.029
281	0.029
281	0.029
282	0.028
282	0.028
283	0.029
283	0.029
284	0.029
284	0.03
285	0.03
285	0.031
285	0.031
286	0.032
286	0.032
287	0.033
287	0.033
288	0.033
288	0.033
289	0.034
289	0.034
290	0.034
290	0.034
291	0.034
291	0.035
292	0.035
292	0.035
292	0.035
293	0.035
293	0.035
294	0.036
294	0.036
295	0.036
295	0.036
296	0.036
296	0.036
297	0.036
297	0.036
298	0.036
298	0.036
298	0.036
299	0.036
299	0.036
300	0.036
300	0.036
301	0.036
301	0.036
302	0.036
302	0.036
303	0.036
303	0.036
304	0.036
304	0.036
305	0.036
305	0.036
305	0.035
306	0.035
306	0.035
307	0.035
307	0.035
308	0.035
308	0.035
309	0.035
309	0.035
310	0.035
310	0.034
311	0.034
311	0.034
311	0.034
312	0.034
312	0.034
313	0.033
313	0.033
314	0.033
314	0.033
315	0.033
315	0.032
316	0.032
316	0.032
317	0.032
317	0.032
318	0.032
318	0.031
318	0.031
319	0.031
319	0.031
320	0.03
320	0.03
321	0.03
321	0.03
322	0.029
322	0.029
323	0.029
323	0.028
324	0.028
324	0.028
324	0.027
325	0.027
325	0.027
326	0.027
326	0.026
327	0.026
327	0.026
328	0.026
328	0.025
329	0.025
329	0.025
330	0.025
330	0.024
330	0.024
331	0.024
331	0.024
332	0.023
332	0.023
333	0.023
333	0.022
334	0.022
334	0.022
335	0.021
335	0.021
336	0.021
336	0.02
336	0.02
337	0.02
337	0.019
338	0.019
338	0.019
339	0.019
339	0.018
340	0.018
340	0.018
341	0.017
341	0.017
342	0.017
342	0.017
342	0.016
343	0.016
343	0.016
344	0.016
344	0.015
345	0.015
345	0.015
346	0.015
346	0.015
347	0.015
347	0.014
348	0.014
348	0.014
348	0.014
349	0.013
349	0.013
350	0.013
350	0.012
351	0.012
351	0.012
352	0.011
352	0.011
353	0.011
353	0.011
354	0.01
354	0.01
354	0.01
355	0.01
355	0.009
356	0.009
356	0.009
357	0.009
357	0.009
358	0.008
358	0.008
359	0.008
359	0.008
360	0.008
360	0.009
360	0.009
361	0.009
361	0.009
362	0.009
362	0.009
363	0.009
363	0.008
364	0.008
364	0.008
365	0.008
365	0.008
366	0.008
366	0.008
366	0.008
367	0.008
367	0.008
368	0.008
368	0.008
369	0.008
369	0.008
370	0.008
370	0.008
371	0.007
371	0.007
372	0.007
372	0.007
372	0.007
373	0.007
373	0.007
374	0.008
374	0.007
375	0.007
375	0.007
376	0.008
376	0.008
377	0.008
377	0.008
378	0.008
378	0.008
378	0.008
379	0.008
379	0.008
380	0.008
380	0.009
381	0.009
381	0.009
382	0.009
382	0.009
383	0.009
383	0.009
383	0.008
384	0.008
384	0.008
385	0.008
385	0.008
386	0.009
386	0.009
387	0.009
387	0.009
388	0.009
388	0.009
389	0.009
389	0.009
389	0.009
390	0.009
390	0.01
391	0.01
391	0.01
392	0.01
392	0.01
393	0.01
393	0.01
394	0.01
394	0.01
394	0.01
395	0.01
395	0.01
396	0.01
396	0.01
397	0.01
397	0.01
398	0.01
398	0.01
399	0.01
399	0.01
400	0.01
400	0.01
400	0.01
401	0.01
401	0.009
402	0.009
402	0.009
403	0.009
403	0.009
404	0.009
404	0.009
405	0.009
405	0.009
405	0.009
406	0.009
406	0.01
407	0.01
407	0.01
408	0.009
408	0.009
409	0.009
409	0.009
410	0.009
410	0.009
411	0.009
411	0.009
411	0.009
412	0.009
412	0.009
413	0.009
413	0.009
414	0.009
414	0.009
415	0.009
415	0.008
416	0.008
416	0.008
416	0.008
417	0.008
417	0.008
418	0.009
418	0.009
419	0.01
419	0.01
420	0.01
420	0.011
421	0.011
421	0.011
421	0.012
422	0.012
422	0.012
423	0.012
423	0.012
424	0.011
424	0.011
425	0.011
425	0.011
426	0.011
426	0.011
427	0.011
427	0.011
427	0.011
428	0.011
428	0.011
429	0.012
429	0.011
430	0.011
430	0.011
431	0.011
431	0.011
432	0.01
432	0.01
432	0.01
433	0.009
433	0.009
434	0.009
434	0.01
435	0.01
435	0.01
436	0.01
436	0.01
437	0.01
437	0.01
437	0.01
438	0.01
438	0.01
439	0.01
439	0.01
440	0.009
440	0.01
441	0.01
441	0.01
442	0.01
442	0.01
442	0.01
443	0.01
443	0.01
444	0.01
444	0.01
445	0.011
445	0.011
446	0.011
446	0.011
447	0.011
447	0.011
447	0.011
448	0.011
448	0.011
449	0.01
449	0.01
450	0.01
450	0.01
451	0.01
451	0.01
452	0.01
452	0.01
452	0.01
453	0.01
453	0.009
454	0.009
454	0.009
455	0.01
455	0.01
456	0.009
456	0.009
457	0.009
457	0.009
458	0.009
458	0.009
458	0.01
459	0.009
459	0.009
460	0.008
460	0.008
461	0.008
461	0.008
462	0.008
462	0.008
463	0.008
463	0.009
463	0.009
464	0.009
464	0.009
465	0.009
465	0.009
466	0.009
466	0.01
467	0.01
467	0.009
467	0.009
468	0.008
468	0.008
469	0.008
469	0.008
470	0.008
470	0.007
471	0.007
471	0.006
472	0.006
472	0.006
472	0.007
473	0.007
473	0.007
474	0.007
474	0.008
475	0.008
475	0.008
476	0.008
476	0.008
477	0.008
477	0.008
477	0.008
478	0.008
478	0.008
479	0.008
479	0.008
480	0.008
480	0.008
481	0.008
481	0.008
482	0.008
482	0.009
482	0.01
483	0.011
483	0.012
484	0.012
484	0.012
485	0.011
485	0.012
486	0.012
486	0.011
487	0.011
487	0.011
487	0.011
488	0.01
488	0.009
489	0.009
489	0.01
490	0.01
490	0.01
491	0.01
491	0.01
492	0.01
492	0.01
492	0.01
493	0.01
493	0.01
494	0.011
494	0.011
495	0.011
495	0.011
496	0.012
496	0.012
496	0.013
497	0.013
497	0.013
498	0.013
498	0.013
499	0.013
499	0.014
500	0.014
500	0.014
501	0.015
501	0.015
501	0.015
502	0.015
502	0.015
503	0.016
503	0.016
504	0.016
504	0.015
505	0.014
505	0.014
506	0.014
506	0.013
506	0.013
507	0.013
507	0.012
508	0.013
508	0.013
509	0.013
509	0.014
510	0.014
510	0.015
511	0.015
511	0.015
511	0.015
512	0.015
512	0.014
513	0.013
513	0.013
514	0.013
514	0.013
515	0.012
515	0.012
515	0.011
516	0.011
516	0.011
517	0.012
517	0.011
518	0.011
518	0.01
519	0.01
519	0.009
520	0.009
520	0.008
520	0.008
521	0.007
521	0.005
522	0.004
522	0.004
523	0.004
523	0.004
524	0.003
524	0.003
524	0.002
525	0.003
525	0.003
526	0.003
526	0.003
527	0.004
527	0.004
528	0.004
528	0.004
529	0.003
529	0.003
529	0.003
530	0.003
530	0.003
531	0.004
531	0.004
532	0.004
532	0.004
533	0.004
533	0.005
533	0.005
534	0.004
534	0.004
535	0.004
535	0.004
536	0.004
536	0.003
537	0.003
537	0.003
538	0.003
538	0.002
538	0.002
539	0.003
539	0.003
540	0.003
540	0.002
541	0.002
541	0.002
542	0.002
542	0.002
542	0.001
543	0.001
543	0.001
544	0
544	0.001
545	0.001
545	0.002
546	0.003
546	0.002
547	0.001
547	0.001
547	0
548	0.001
548	0.001
549	0
549	0
550	0
550	-0
551	-0.001
551	-0
551	0.001
552	0.001
552	0.001
553	0.002
553	0.002
554	0.002
554	0.001
555	0
555	-0.001
556	-0.001
556	-0.002
556	-0.003
557	-0.003
557	-0.003
558	-0.003
558	-0.004
559	-0.003
559	-0.003
560	-0.003
560	-0.003
560	-0.002
561	-0.001
561	-0.001
562	-0.001
562	-0.002
563	-0.003
563	-0.003
564	-0.004
564	-0.005
564	-0.005
565	-0.005
565	-0.005
566	-0.006
566	-0.007
567	-0.006
567	-0.005
568	-0.004
568	-0.004
568	-0.003
569	-0.002
569	-0.001
570	-0.001
570	-0.002
571	-0.001
571	-0
572	-0.001
572	-0.001
573	-0.001
573	-0.002
573	-0.003
574	-0.003
574	-0.003
575	-0.002
575	0
576	0.001
576	-0
577	-0.001
577	-0.002
577	-0.001
578	-0
578	0.001
579	0.002
579	0.003
580	0.001
580	-0.002
581	-0.005
581	-0.006
581	-0.005
582	-0.005
582	-0.004
583	-0.003
583	-0.004
584	-0.008
584	-0.011
585	-0.01
585	-0.009
585	-0.008
586	-0.007
586	-0.008
587	-0.009
587	-0.011
588	-0.013
588	-0.013
589	-0.012
589	-0.011
590	-0.011
590	-0.01
590	-0.008
591	-0.006
591	-0.007
592	-0.007
592	-0.008
593	-0.008
593	-0.008
594	-0.008
594	-0.01
594	-0.01
595	-0.011
595	-0.012
596	-0.013
596	-0.011
597	-0.008
597	-0.007
598	-0.007
598	-0.005
598	-0.005
599	-0.004
599	-0.004
600	-0.005
600	-0.006
601	-0.006
601	-0.007
602	-0.009
602	-0.009
602	-0.009
603	-0.009
603	-0.007
604	-0.005
604	-0.004
605	-0.002
605	0
606	0.001
606	-0
606	-0
607	-0.001
607	-0.001
608	-0.001
608	-0.003
609	-0.004
609	-0.005
610	-0.006
610	-0.007
610	-0.007
611	-0.006
611	-0.005
612	-0.003
612	-0.002
613	-0.001
613	-0.001
614	-0.002
614	-0.004
614	-0.005
615	-0.006
615	-0.007
616	-0.008
616	-0.009
617	-0.01
617	-0.011
618	-0.013
618	-0.013
618	-0.013
619	-0.012
619	-0.011
620	-0.009
620	-0.008
621	-0.008
621	-0.007
622	-0.008
622	-0.007
622	-0.008
623	-0.008
623	-0.007
624	-0.008
624	-0.009
625	-0.01
625	-0.01
626	-0.011
626	-0.011
626	-0.011
627	-0.01
627	-0.01
628	-0.01
628	-0.01
629	-0.01
629	-0.01
630	-0.01
630	-0.011
630	-0.01
631	-0.01
631	-0.01
632	-0.011
632	-0.011
633	-0.011
633	-0.011
634	-0.01
634	-0.01
634	-0.01
635	-0.01
635	-0.011
636	-0.011
636	-0.011
637	-0.012
637	-0.012
638	-0.013
638	-0.013
638	-0.013
639	-0.013
639	-0.014
640	-0.013
640	-0.013
641	-0.013
641	-0.013
642	-0.013
642	-0.013
642	-0.013
643	-0.013
643	-0.014
644	-0.014
644	-0.014
645	-0.014
645	-0.013
646	-0.013
646	-0.012
646	-0.011
647	-0.01
647	-0.01
648	-0.01
648	-0.01
649	-0.009
649	-0.009
650	-0.009
650	-0.009
650	-0.009
651	-0.009
651	-0.01
652	-0.01
652	-0.01
653	-0.009
653	-0.003
653	0.009
654	0.009
654	0.009
655	0.003
655	0.003
656	0.002
656	0.002
657	0.002
657	0.002
657	0.001
658	-0.003
658	-0.013
659	-0.016
659	-0.019
660	-0.012
660	-0.012
661	-0.012
661	-0.011
661	-0.011
662	-0.009
662	-0.008
663	-0.007
663	-0.007
664	-0.007
664	-0.007
665	-0.006
665	-0.006
665	-0.007
666	-0.007
666	-0.008
667	-0.008
667	-0.009
668	-0.009
668	-0.009
669	-0.009
669	-0.008
669	-0.007
670	-0.006
670	-0.007
671	-0.007
671	-0.008
672	-0.007
672	-0.007
672	-0.007
673	-0.007
673	-0.007
674	-0.007
674	-0.008
675	-0.008
675	-0.008
676	-0.007
676	-0.006
676	-0.007
677	-0.006
677	-0.006
678	-0.006
678	-0.007
679	-0.007
679	-0.006
680	-0.005
680	-0.005
680	-0.006
681	-0.006
681	-0.005
682	-0.004
682	-0.004
683	-0.003
683	-0.001
684	-0
684	-0.001
684	-0.001
685	-0
685	0
686	0.001
686	0.001
687	0.001
687	0.001
687	0.001
688	0.001
688	0.001
689	0.003
689	0.004
690	0.003
690	0.003
691	0.003
691	0.002
691	0.002
692	0.001
692	0.001
693	0.001
693	0.002
694	0.001
694	-0
695	0.002
695	0.004
695	0.004
696	0.004
696	0.004
697	0.004
697	0.004
698	0.004
698	0.003
698	0.004
699	0.004
699	0.003
700	0.002
700	0.004
701	0.005
701	0.005
702	0.006
702	0.006
702	0.007
703	0.007
703	0.007
704	0.007
704	0.008
705	0.009
705	0.01
705	0.01
706	0.011
706	0.012
707	0.012
707	0.012
708	0.012
708	0.013
709	0.013
709	0.013
709	0.012
710	0.011
710	0.012
711	0.013
711	0.013
712	0.013
712	0.013
713	0.014
713	0.013
713	0.013
714	0.013
714	0.013
715	0.013
715	0.013
716	0.013
716	0.013
716	0.013
717	0.014
717	0.014
718	0.015
718	0.015
719	0.016
719	0.017
720	0.018
720	0.018
720	0.019
721	0.019
721	0.02
722	0.021
722	0.021
723	0.022
723	0.023
723	0.024
724	0.024
724	0.025
725	0.025
725	0.025
726	0.026
726	0.027
727	0.027
727	0.028
727	0.029
728	0.029
728	0.03
729	0.032
729	0.033
730	0.034
730	0.035
730	0.036
731	0.037
731	0.038
732	0.039
732	0.039
733	0.04
733	0.04
734	0.041
734	0.042
734	0.043
735	0.045
735	0.045
736	0.046
736	0.047
737	0.048
737	0.051
737	0.052
738	0.051
738	0.05
739	0.051
739	0.051
740	0.051
740	0.052
741	0.052
741	0.052
741	0.051
742	0.05
742	0.05
743	0.052
743	0.052
744	0.053
744	0.054
744	0.055
745	0.055
745	0.056
746	0.057
746	0.058
747	0.06
747	0.061
748	0.063
748	0.064
748	0.065
749	0.066
749	0.068
750	0.069
750	0.071
751	0.073
751	0.075
751	0.078
752	0.08
752	0.081
753	0.083
753	0.085
754	0.087
754	0.089
754	0.091
755	0.094
755	0.096
756	0.098
756	0.097
757	0.098
757	0.099
758	0.1
758	0.101
758	0.102
759	0.103
759	0.103
760	0.103
760	0.103
761	0.104
761	0.106
761	0.107
762	0.109
762	0.111
763	0.114
763	0.115
764	0.116
764	0.117
764	0.118
765	0.118
765	0.119
766	0.12
766	0.122
767	0.123
767	0.122
768	0.121
768	0.122
768	0.122
769	0.123
769	0.124
770	0.124
770	0.124
771	0.124
771	0.122
771	0.122
772	0.122
772	0.121
773	0.121
773	0.12
774	0.119
774	0.118
775	0.118
775	0.117
775	0.115
776	0.114
776	0.113
777	0.112
777	0.112
778	0.11
778	0.108
778	0.107
779	0.107
779	0.106
780	0.105
780	0.103
781	0.101
781	0.098
781	0.094
782	0.09
782	0.085
783	0.081
783	0.076
784	0.07
784	0.064
784	0.058
785	0.052
785	0.045
786	0.038
786	0.033
787	0.029
787	0.023
788	0.016
788	0.007
788	-0.002
789	-0.013
789	-0.023
790	-0.033
790	-0.046
791	-0.061
791	-0.076
791	-0.09
792	-0.096
792	-0.096
793	-0.101
793	-0.106
794	-0.113
794	-0.121
794	-0.13
795	-0.135
795	-0.137
796	-0.137
796	-0.14
797	-0.149
797	-0.16
797	-0.167
798	-0.172
798	-0.175
799	-0.175
799	-0.174
800	-0.174
800	-0.175
801	-0.178
801	-0.179
801	-0.179
802	-0.18
802	-0.182
803	-0.183
803	-0.183
804	-0.182
804	-0.177
804	-0.17
805	-0.167
805	-0.164
806	-0.162
806	-0.161
807	-0.16
807	-0.159
807	-0.16
808	-0.159
808	-0.161
809	-0.166
809	-0.172
810	-0.175
810	-0.178
810	-0.182
811	-0.185
811	-0.185
812	-0.182
812	-0.178
813	-0.176
813	-0.171
813	-0.164
814	-0.155
814	-0.143
815	-0.126
815	-0.108
816	-0.088
816	-0.069
817	-0.051
817	-0.03
817	-0.007
818	0.014
818	0.035
819	0.054
819	0.069
820	0.082
820	0.093
820	0.103
821	0.114
821	0.123
822	0.131
822	0.138
823	0.144
823	0.149
823	0.153
824	0.157
824	0.162
825	0.168
825	0.173
826	0.176
826	0.178
826	0.181
827	0.183
827	0.185
828	0.186
828	0.187
829	0.189
829	0.19
829	0.19
830	0.189
830	0.189
831	0.191
831	0.192
832	0.192
832	0.192
832	0.192
833	0.193
833	0.193
834	0.193
834	0.194
835	0.195
835	0.195
835	0.195
836	0.196
836	0.196
837	0.196
837	0.196
838	0.196
838	0.195
839	0.194
839	0.193
839	0.192
840	0.19
840	0.189
841	0.188
841	0.187
842	0.186
842	0.185
842	0.184
843	0.183
843	0.182
844	0.181
844	0.18
845	0.18
845	0.179
845	0.178
846	0.177
846	0.176
847	0.174
847	0.173
848	0.171
848	0.169
848	0.168
849	0.166
849	0.164
850	0.162
850	0.16
851	0.159
851	0.158
851	0.157
852	0.156
852	0.156
853	0.155
853	0.154
854	0.153
854	0.153
854	0.151
855	0.15
855	0.148
856	0.147
856	0.145
857	0.144
857	0.142
857	0.141
858	0.14
858	0.138
859	0.137
859	0.136
860	0.135
860	0.134
860	0.133
861	0.132
861	0.131
862	0.13
862	0.128
863	0.127
863	0.126
863	0.125
864	0.124
864	0.123
865	0.122
865	0.121
866	0.119
866	0.118
866	0.118
867	0.118
867	0.118
868	0.118
868	0.118
869	0.118
869	0.118
869	0.118
870	0.117
870	0.117
871	0.116
871	0.115
872	0.114
872	0.112
872	0.11
873	0.109
873	0.108
874	0.107
874	0.106
875	0.106
875	0.105
875	0.105
876	0.105
876	0.104
877	0.104
877	0.104
878	0.103
878	0.102
878	0.102
879	0.1
879	0.098
880	0.097
880	0.094
881	0.092
881	0.09
881	0.088
882	0.086
882	0.084
883	0.082
883	0.08
884	0.079
884	0.078
884	0.077
885	0.077
885	0.076
886	0.076
886	0.076
887	0.075
887	0.074
887	0.074
888	0.073
888	0.072
889	0.071
889	0.07
890	0.069
890	0.068
890	0.066
891	0.065
891	0.063
892	0.061
892	0.059
893	0.058
893	0.056
893	0.055
894	0.054
894	0.053
895	0.052
895	0.051
895	0.05
896	0.05
896	0.049
897	0.049
897	0.048
898	0.048
898	0.047
898	0.047
899	0.047
899	0.046
900	0.046
900	0.046
901	0.046
901	0.047
901	0.047
902	0.047
902	0.047
903	0.047
903	0.046
904	0.046
904	0.046
904	0.046
905	0.046
905	0.046
906	0.046
906	0.046
907	0.046
907	0.046
907	0.046
908	0.046
908	0.046
909	0.046
909	0.046
910	0.046
910	0.045
910	0.045
911	0.044
911	0.044
912	0.044
912	0.043
913	0.042
913	0.042
913	0.04
914	0.039
914	0.038
915	0.036
915	0.035
916	0.033
916	0.031
916	0.03
917	0.028
917	0.027
918	0.025
918	0.024
918	0.024
919	0.023
919	0.023
920	0.023
920	0.023
921	0.023
921	0.023
921	0.024
922	0.025
922	0.025
923	0.026
923	0.027
924	0.028
924	0.029
924	0.029
925	0.029
925	0.029
926	0.029
926	0.028
927	0.027
927	0.026
927	0.025
928	0.024
928	0.023
929	0.021
929	0.02
930	0.019
930	0.018
930	0.017
931	0.015
931	0.014
932	0.014
932	0.013
933	0.012
933	0.011
933	0.011
934	0.01
934	0.01
935	0.009
935	0.009
935	0.009
936	0.009
936	0.009
937	0.009
937	0.009
938	0.009
938	0.008
938	0.008
939	0.008
939	0.008
940	0.008
940	0.008
941	0.009
941	0.009
941	0.009
942	0.01
942	0.01
943	0.01
943	0.01
944	0.01
944	0.009
944	0.009
945	0.008
945	0.008
946	0.008
946	0.006
946	0.006
947	0.005
947	0.004
948	0.003
948	0.002
949	0.001
949	0.001
949	0.001
950	0
950	0
951	0
951	-0
952	-0.001
952	-0
952	0
953	0
953	0
954	-0
954	-0
955	-0
955	-0
955	-0
956	0
956	0.001
957	0.001
957	0
957	-0
958	-0
958	-0.001
959	-0.001
959	-0.002
960	-0.002
960	-0.003
960	-0.004
961	-0.005
961	-0.005
962	-0.006
962	-0.006
963	-0.006
963	-0.006
963	-0.005
964	-0.005
964	-0.004
965	-0.003
965	-0.002
966	-0.001
966	-0
966	0
967	0.001
967	0.001
968	0.001
968	0
968	-0
969	-0.001
969	-0.001
970	-0.002
970	-0.003
971	-0.004
971	-0.004
971	-0.005
972	-0.005
972	-0.005
973	-0.005
973	-0.005
974	-0.005
974	-0.005
974	-0.004
975	-0.004
975	-0.004
976	-0.004
976	-0.003
976	-0.004
977	-0.005
977	-0.006
978	-0.007
978	-0.008
979	-0.01
979	-0.011
979	-0.012
980	-0.013
980	-0.014
981	-0.015
981	-0.016
982	-0.016
982	-0.016
982	-0.016
983	-0.016
983	-0.017
984	-0.017
984	-0.017
984	-0.017
985	-0.017
985	-0.017
986	-0.018
986	-0.019
987	-0.019
987	-0.019
987	-0.018
988	-0.018
988	-0.018
989	-0.017
989	-0.016
990	-0.015
990	-0.014
990	-0.012
991	-0.01
991	-0.008
992	-0.007
992	-0.005
992	-0.003
993	-0.002
993	-0.001
994	-0
994	0
995	0.001
995	0.001
995	0
996	-0
996	-0.001
997	-0.002
997	-0.002
997	-0.003
998	-0.004
998	-0.004
999	-0.005
999	-0.005
1000	-0.005
1000	-0.006
1000	-0.006
1001	-0.006
1001	-0.006
1002	-0.006
1002	-0.006
1003	-0.006
1003	-0.006
1003	-0.006
1004	-0.007
1004	-0.007
1005	-0.008
1005	-0.009
1005	-0.01
1006	-0.012
1006	-0.013
1007	-0.014
1007	-0.015
1008	-0.016
1008	-0.017
1008	-0.018
1009	-0.018
1009	-0.019
1010	-0.019
1010	-0.019
1010	-0.02
1011	-0.02
1011	-0.021
1012	-0.022
1012	-0.022
1013	-0.023
1013	-0.024
1013	-0.025
1014	-0.026
1014	-0.026
1015	-0.027
1015	-0.027
1016	-0.027
1016	-0.027
1016	-0.027
1017	-0.027
1017	-0.027
1018	-0.026
1018	-0.026
1018	-0.025
1019	-0.024
1019	-0.024
1020	-0.024
1020	-0.023
1021	-0.023
1021	-0.023
1021	-0.024
1022	-0.024
1022	-0.024
1023	-0.024
1023	-0.025
1023	-0.025
1024	-0.026
1024	-0.027
1025	-0.028
1025	-0.029
1026	-0.029
1026	-0.03
1026	-0.03
1027	-0.031
1027	-0.031
1028	-0.03
1028	-0.03
1028	-0.03
1029	-0.03
1029	-0.029
1030	-0.029
1030	-0.028
1031	-0.028
1031	-0.028
1031	-0.027
1032	-0.028
1032	-0.028
1033	-0.028
1033	-0.028
1033	-0.028
1034	-0.029
1034	-0.03
1035	-0.031
1035	-0.032
1036	-0.033
1036	-0.034
1036	-0.034
1037	-0.035
1037	-0.035
1038	-0.036
1038	-0.036
1039	-0.036
1039	-0.036
1039	-0.036
1040	-0.036
1040	-0.036
1041	-0.036
1041	-0.037
1041	-0.037
1042	-0.038
1042	-0.039
1043	-0.04
1043	-0.041
1044	-0.042
1044	-0.043
1044	-0.044
1045	-0.045
1045	-0.046
1046	-0.048
1046	-0.049
1046	-0.049
1047	-0.049
1047	-0.049
1048	-0.049
1048	-0.049
1049	-0.049
1049	-0.05
1049	-0.05
1050	-0.05
1050	-0.051
1051	-0.051
1051	-0.051
1051	-0.051
1052	-0.051
1052	-0.052
1053	-0.052
1053	-0.052
1053	-0.053
1054	-0.053
1054	-0.052
1055	-0.052
1055	-0.053
1056	-0.053
1056	-0.054
1056	-0.054
1057	-0.055
1057	-0.055
1058	-0.055
1058	-0.056
1058	-0.056
1059	-0.057
1059	-0.058
1060	-0.058
1060	-0.057
1061	-0.057
1061	-0.056
1061	-0.055
1062	-0.055
1062	-0.055
1063	-0.055
1063	-0.054
1063	-0.054
1064	-0.053
1064	-0.053
1065	-0.052
1065	-0.053
1066	-0.053
1066	-0.052
1066	-0.052
1067	-0.052
1067	-0.051
1068	-0.052
1068	-0.052
1068	-0.052
1069	-0.053
1069	-0.053
1070	-0.054
1070	-0.054
1071	-0.055
1071	-0.055
1071	-0.056
1072	-0.057
1072	-0.057
1073	-0.057
1073	-0.057
1073	-0.058
1074	-0.057
1074	-0.057
1075	-0.058
1075	-0.058
1076	-0.059
1076	-0.058
1076	-0.06
1077	-0.06
1077	-0.06
1078	-0.061
1078	-0.061
1078	-0.061
1079	-0.06
1079	-0.059
1080	-0.06
1080	-0.058
1080	-0.058
1081	-0.057
1081	-0.056
1082	-0.055
1082	-0.055
1083	-0.055
1083	-0.055
1083	-0.054
1084	-0.054
1084	-0.054
1085	-0.053
1085	-0.053
1085	-0.051
1086	-0.051
1086	-0.052
1087	-0.052
1087	-0.052
1088	-0.052
1088	-0.052
1088	-0.053
1089	-0.054
1089	-0.055
1090	-0.056
1090	-0.056
1090	-0.056
1091	-0.056
1091	-0.055
1092	-0.054
1092	-0.053
1092	-0.052
1093	-0.051
1093	-0.048
1094	-0.046
1094	-0.045
1095	-0.045
1095	-0.044
1095	-0.042
1096	-0.041
1096	-0.04
1097	-0.039
1097	-0.039
1097	-0.038
1098	-0.039
1098	-0.039
1099	-0.038
1099	-0.037
1100	-0.036
1100	-0.036
1100	-0.035
1101	-0.035
1101	-0.034
1102	-0.031
1102	-0.03
1102	-0.027
1103	-0.026
1103	-0.023
1104	-0.02
1104	-0.016
1104	-0.011
1105	-0.008
1105	-0.005
1106	-0.004
1106	0.001
1107	0.004
1107	0.011
1107	0.019
1108	0.051
1108	0.094
1109	0.153
1109	0.242
1109	0.315
1110	0.456
1110	0.797
1111	-0
1111	-0
