Data from control-808nm_Absorbance__120__02989.txt Node

Date: Wed Jan 17 12:43:56 CET 2024
User: Marek
Spectrometer: MAYP115816
Trigger mode: 0
Integration Time (sec): 2.000000E-1
Scans to average: 10
Electric dark correction enabled: true
Nonlinearity correction enabled: true
Boxcar width: 5
XAxis mode: Wavelengths
Number of Pixels in Spectrum: 2068
>>>>>Begin Spectral Data<<<<<
199	-1.565
199	-1.432
200	-1.278
200	-1.158
201	-1.085
201	-1.041
202	-0.974
202	-0.928
203	-0.886
203	-0.851
204	-0.828
204	-0.805
205	-0.783
205	-0.773
205	-0.772
206	-0.772
206	-0.769
207	-0.768
207	-0.764
208	-0.763
208	-0.763
209	-0.759
209	-0.758
210	-0.758
210	-0.759
211	-0.758
211	-0.758
212	-0.76
212	-0.759
213	-0.759
213	-0.758
213	-0.758
214	-0.758
214	-0.758
215	-0.756
215	-0.756
216	-0.757
216	-0.755
217	-0.75
217	-0.749
218	-0.748
218	-0.745
219	-0.742
219	-0.742
220	-0.739
220	-0.737
221	-0.733
221	-0.73
221	-0.727
222	-0.724
222	-0.72
223	-0.714
223	-0.713
224	-0.708
224	-0.701
225	-0.694
225	-0.687
226	-0.68
226	-0.669
227	-0.657
227	-0.646
228	-0.633
228	-0.618
229	-0.599
229	-0.578
229	-0.555
230	-0.53
230	-0.504
231	-0.474
231	-0.445
232	-0.415
232	-0.382
233	-0.349
233	-0.315
234	-0.283
234	-0.252
235	-0.224
235	-0.196
236	-0.171
236	-0.148
236	-0.126
237	-0.106
237	-0.089
238	-0.074
238	-0.061
239	-0.049
239	-0.038
240	-0.028
240	-0.02
241	-0.014
241	-0.008
242	-0.003
242	0.002
243	0.006
243	0.009
243	0.012
244	0.015
244	0.016
245	0.018
245	0.019
246	0.021
246	0.022
247	0.023
247	0.024
248	0.024
248	0.025
249	0.026
249	0.026
250	0.026
250	0.026
250	0.027
251	0.027
251	0.027
252	0.027
252	0.027
253	0.027
253	0.026
254	0.026
254	0.026
255	0.026
255	0.026
256	0.026
256	0.026
257	0.025
257	0.025
258	0.025
258	0.025
258	0.025
259	0.025
259	0.024
260	0.024
260	0.024
261	0.024
261	0.024
262	0.024
262	0.024
263	0.024
263	0.024
264	0.024
264	0.024
265	0.024
265	0.024
265	0.023
266	0.023
266	0.023
267	0.023
267	0.023
268	0.023
268	0.023
269	0.023
269	0.023
270	0.023
270	0.024
271	0.024
271	0.024
272	0.024
272	0.024
272	0.024
273	0.025
273	0.025
274	0.025
274	0.025
275	0.026
275	0.026
276	0.026
276	0.026
277	0.027
277	0.027
278	0.028
278	0.028
278	0.028
279	0.028
279	0.027
280	0.027
280	0.028
281	0.028
281	0.028
282	0.028
282	0.028
283	0.028
283	0.028
284	0.028
284	0.029
285	0.03
285	0.03
285	0.031
286	0.031
286	0.032
287	0.032
287	0.032
288	0.033
288	0.033
289	0.033
289	0.033
290	0.034
290	0.034
291	0.034
291	0.034
292	0.034
292	0.034
292	0.034
293	0.035
293	0.035
294	0.035
294	0.035
295	0.035
295	0.035
296	0.035
296	0.035
297	0.035
297	0.036
298	0.035
298	0.036
298	0.036
299	0.036
299	0.036
300	0.036
300	0.036
301	0.036
301	0.035
302	0.035
302	0.035
303	0.035
303	0.035
304	0.035
304	0.035
305	0.035
305	0.035
305	0.035
306	0.035
306	0.035
307	0.035
307	0.034
308	0.034
308	0.034
309	0.034
309	0.034
310	0.034
310	0.034
311	0.034
311	0.034
311	0.033
312	0.033
312	0.033
313	0.033
313	0.033
314	0.033
314	0.032
315	0.032
315	0.032
316	0.032
316	0.032
317	0.032
317	0.031
318	0.031
318	0.031
318	0.031
319	0.03
319	0.03
320	0.03
320	0.03
321	0.03
321	0.029
322	0.029
322	0.029
323	0.028
323	0.028
324	0.028
324	0.027
324	0.027
325	0.027
325	0.026
326	0.026
326	0.026
327	0.026
327	0.025
328	0.025
328	0.025
329	0.025
329	0.024
330	0.024
330	0.024
330	0.024
331	0.023
331	0.023
332	0.023
332	0.022
333	0.022
333	0.021
334	0.021
334	0.021
335	0.02
335	0.02
336	0.02
336	0.019
336	0.019
337	0.019
337	0.019
338	0.018
338	0.018
339	0.018
339	0.017
340	0.017
340	0.017
341	0.016
341	0.016
342	0.016
342	0.016
342	0.016
343	0.015
343	0.015
344	0.015
344	0.015
345	0.015
345	0.014
346	0.014
346	0.014
347	0.014
347	0.013
348	0.013
348	0.013
348	0.013
349	0.012
349	0.012
350	0.012
350	0.011
351	0.011
351	0.011
352	0.011
352	0.01
353	0.01
353	0.01
354	0.01
354	0.009
354	0.009
355	0.009
355	0.009
356	0.008
356	0.008
357	0.008
357	0.007
358	0.007
358	0.007
359	0.007
359	0.007
360	0.007
360	0.007
360	0.007
361	0.007
361	0.007
362	0.008
362	0.008
363	0.008
363	0.008
364	0.008
364	0.008
365	0.007
365	0.007
366	0.007
366	0.007
366	0.007
367	0.007
367	0.007
368	0.007
368	0.007
369	0.007
369	0.007
370	0.007
370	0.007
371	0.007
371	0.007
372	0.007
372	0.007
372	0.007
373	0.007
373	0.007
374	0.007
374	0.007
375	0.007
375	0.007
376	0.007
376	0.007
377	0.007
377	0.007
378	0.007
378	0.007
378	0.007
379	0.008
379	0.008
380	0.008
380	0.008
381	0.008
381	0.008
382	0.007
382	0.007
383	0.007
383	0.007
383	0.007
384	0.007
384	0.007
385	0.007
385	0.008
386	0.008
386	0.008
387	0.008
387	0.008
388	0.008
388	0.008
389	0.009
389	0.008
389	0.009
390	0.009
390	0.009
391	0.009
391	0.009
392	0.009
392	0.009
393	0.009
393	0.009
394	0.009
394	0.009
394	0.009
395	0.009
395	0.009
396	0.009
396	0.009
397	0.009
397	0.01
398	0.01
398	0.01
399	0.01
399	0.01
400	0.01
400	0.009
400	0.009
401	0.009
401	0.008
402	0.008
402	0.008
403	0.008
403	0.008
404	0.008
404	0.008
405	0.008
405	0.008
405	0.009
406	0.009
406	0.009
407	0.009
407	0.009
408	0.009
408	0.008
409	0.008
409	0.008
410	0.008
410	0.008
411	0.008
411	0.008
411	0.008
412	0.008
412	0.008
413	0.008
413	0.008
414	0.008
414	0.008
415	0.008
415	0.008
416	0.008
416	0.008
416	0.008
417	0.008
417	0.008
418	0.008
418	0.009
419	0.009
419	0.009
420	0.01
420	0.01
421	0.01
421	0.01
421	0.011
422	0.011
422	0.011
423	0.011
423	0.011
424	0.01
424	0.01
425	0.01
425	0.01
426	0.01
426	0.01
427	0.01
427	0.01
427	0.01
428	0.011
428	0.011
429	0.011
429	0.011
430	0.011
430	0.011
431	0.011
431	0.01
432	0.01
432	0.01
432	0.009
433	0.009
433	0.009
434	0.009
434	0.009
435	0.009
435	0.009
436	0.009
436	0.009
437	0.009
437	0.009
437	0.009
438	0.009
438	0.009
439	0.009
439	0.009
440	0.009
440	0.009
441	0.009
441	0.009
442	0.009
442	0.009
442	0.009
443	0.009
443	0.009
444	0.009
444	0.01
445	0.01
445	0.01
446	0.01
446	0.01
447	0.01
447	0.01
447	0.01
448	0.01
448	0.01
449	0.01
449	0.01
450	0.01
450	0.01
451	0.01
451	0.01
452	0.01
452	0.009
452	0.009
453	0.009
453	0.009
454	0.009
454	0.009
455	0.009
455	0.009
456	0.009
456	0.009
457	0.009
457	0.009
458	0.009
458	0.009
458	0.009
459	0.009
459	0.008
460	0.008
460	0.007
461	0.007
461	0.007
462	0.007
462	0.008
463	0.008
463	0.008
463	0.009
464	0.008
464	0.008
465	0.008
465	0.009
466	0.009
466	0.009
467	0.009
467	0.009
467	0.008
468	0.008
468	0.007
469	0.007
469	0.007
470	0.007
470	0.006
471	0.006
471	0.005
472	0.005
472	0.005
472	0.006
473	0.006
473	0.006
474	0.007
474	0.007
475	0.007
475	0.007
476	0.007
476	0.007
477	0.007
477	0.007
477	0.007
478	0.007
478	0.007
479	0.007
479	0.007
480	0.007
480	0.007
481	0.007
481	0.007
482	0.007
482	0.008
482	0.008
483	0.009
483	0.011
484	0.011
484	0.011
485	0.01
485	0.011
486	0.011
486	0.01
487	0.01
487	0.01
487	0.01
488	0.009
488	0.008
489	0.007
489	0.008
490	0.008
490	0.008
491	0.008
491	0.009
492	0.009
492	0.009
492	0.008
493	0.008
493	0.009
494	0.01
494	0.01
495	0.011
495	0.011
496	0.011
496	0.012
496	0.012
497	0.012
497	0.013
498	0.013
498	0.013
499	0.012
499	0.012
500	0.013
500	0.013
501	0.013
501	0.013
501	0.013
502	0.013
502	0.014
503	0.014
503	0.014
504	0.014
504	0.013
505	0.013
505	0.013
506	0.013
506	0.012
506	0.012
507	0.012
507	0.012
508	0.012
508	0.012
509	0.012
509	0.013
510	0.013
510	0.014
511	0.014
511	0.014
511	0.014
512	0.013
512	0.013
513	0.012
513	0.012
514	0.012
514	0.011
515	0.011
515	0.01
515	0.01
516	0.01
516	0.01
517	0.01
517	0.01
518	0.01
518	0.009
519	0.009
519	0.008
520	0.008
520	0.007
520	0.007
521	0.006
521	0.005
522	0.003
522	0.003
523	0.003
523	0.003
524	0.002
524	0.002
524	0.001
525	0.001
525	0.001
526	0.001
526	0.002
527	0.002
527	0.002
528	0.002
528	0.002
529	0.002
529	0.002
529	0.002
530	0.002
530	0.002
531	0.003
531	0.003
532	0.003
532	0.003
533	0.004
533	0.004
533	0.004
534	0.004
534	0.003
535	0.003
535	0.003
536	0.003
536	0.002
537	0.002
537	0.002
538	0.002
538	0.001
538	0.001
539	0.002
539	0.002
540	0.002
540	0.001
541	0.001
541	0
542	0
542	0
542	-0
543	-0
543	-0
544	-0.001
544	-0
545	-0
545	0.001
546	0.001
546	0.001
547	-0
547	-0.001
547	-0.001
548	-0.001
548	-0.001
549	-0.001
549	-0.001
550	-0.001
550	-0.001
551	-0.001
551	-0.001
551	-0
552	0
552	0
553	0.001
553	0.001
554	0.001
554	-0
555	-0.001
555	-0.002
556	-0.003
556	-0.004
556	-0.004
557	-0.004
557	-0.005
558	-0.005
558	-0.005
559	-0.005
559	-0.005
560	-0.005
560	-0.005
560	-0.004
561	-0.003
561	-0.002
562	-0.003
562	-0.003
563	-0.004
563	-0.004
564	-0.005
564	-0.006
564	-0.006
565	-0.006
565	-0.006
566	-0.007
566	-0.008
567	-0.007
567	-0.007
568	-0.006
568	-0.005
568	-0.004
569	-0.003
569	-0.002
570	-0.002
570	-0.003
571	-0.002
571	-0.002
572	-0.002
572	-0.002
573	-0.003
573	-0.003
573	-0.004
574	-0.005
574	-0.004
575	-0.003
575	-0.001
576	0
576	-0.001
577	-0.002
577	-0.003
577	-0.002
578	-0.001
578	-0
579	0.001
579	0.002
580	0
580	-0.003
581	-0.006
581	-0.007
581	-0.006
582	-0.005
582	-0.005
583	-0.004
583	-0.005
584	-0.008
584	-0.012
585	-0.011
585	-0.009
585	-0.008
586	-0.008
586	-0.008
587	-0.01
587	-0.011
588	-0.013
588	-0.013
589	-0.013
589	-0.012
590	-0.012
590	-0.011
590	-0.009
591	-0.007
591	-0.008
592	-0.008
592	-0.009
593	-0.009
593	-0.009
594	-0.009
594	-0.01
594	-0.011
595	-0.012
595	-0.013
596	-0.014
596	-0.012
597	-0.009
597	-0.008
598	-0.008
598	-0.007
598	-0.006
599	-0.005
599	-0.005
600	-0.006
600	-0.007
601	-0.007
601	-0.008
602	-0.01
602	-0.01
602	-0.01
603	-0.009
603	-0.007
604	-0.006
604	-0.005
605	-0.003
605	-0.001
606	-0
606	-0.001
606	-0.001
607	-0.002
607	-0.002
608	-0.002
608	-0.004
609	-0.005
609	-0.006
610	-0.007
610	-0.008
610	-0.008
611	-0.006
611	-0.005
612	-0.004
612	-0.003
613	-0.002
613	-0.002
614	-0.003
614	-0.005
614	-0.005
615	-0.006
615	-0.008
616	-0.008
616	-0.01
617	-0.011
617	-0.012
618	-0.013
618	-0.014
618	-0.014
619	-0.013
619	-0.012
620	-0.009
620	-0.008
621	-0.008
621	-0.008
622	-0.008
622	-0.008
622	-0.008
623	-0.009
623	-0.008
624	-0.008
624	-0.01
625	-0.011
625	-0.011
626	-0.012
626	-0.012
626	-0.011
627	-0.011
627	-0.011
628	-0.011
628	-0.011
629	-0.01
629	-0.01
630	-0.011
630	-0.012
630	-0.011
631	-0.011
631	-0.011
632	-0.012
632	-0.012
633	-0.012
633	-0.012
634	-0.011
634	-0.011
634	-0.01
635	-0.011
635	-0.012
636	-0.012
636	-0.012
637	-0.012
637	-0.013
638	-0.013
638	-0.013
638	-0.013
639	-0.014
639	-0.014
640	-0.014
640	-0.014
641	-0.014
641	-0.014
642	-0.014
642	-0.014
642	-0.014
643	-0.014
643	-0.015
644	-0.015
644	-0.015
645	-0.015
645	-0.015
646	-0.014
646	-0.013
646	-0.012
647	-0.012
647	-0.011
648	-0.011
648	-0.01
649	-0.01
649	-0.01
650	-0.009
650	-0.009
650	-0.01
651	-0.01
651	-0.01
652	-0.011
652	-0.011
653	-0.01
653	-0.004
653	0.008
654	0.009
654	0.009
655	0.003
655	0.002
656	0.002
656	0.002
657	0.001
657	0.001
657	0
658	-0.004
658	-0.014
659	-0.017
659	-0.02
660	-0.013
660	-0.013
661	-0.013
661	-0.012
661	-0.011
662	-0.01
662	-0.009
663	-0.008
663	-0.008
664	-0.008
664	-0.008
665	-0.008
665	-0.007
665	-0.008
666	-0.008
666	-0.009
667	-0.009
667	-0.01
668	-0.01
668	-0.01
669	-0.01
669	-0.009
669	-0.008
670	-0.007
670	-0.008
671	-0.008
671	-0.009
672	-0.008
672	-0.008
672	-0.008
673	-0.008
673	-0.007
674	-0.008
674	-0.008
675	-0.009
675	-0.009
676	-0.007
676	-0.007
676	-0.007
677	-0.007
677	-0.006
678	-0.007
678	-0.007
679	-0.007
679	-0.007
680	-0.006
680	-0.006
680	-0.006
681	-0.006
681	-0.005
682	-0.005
682	-0.005
683	-0.004
683	-0.002
684	-0.001
684	-0.002
684	-0.002
685	-0.001
685	-0.001
686	-0
686	-0
687	-0
687	0
687	0.001
688	0
688	0
689	0.002
689	0.003
690	0.002
690	0.002
691	0.001
691	0.001
691	0.001
692	-0
692	-0.001
693	-0
693	0
694	-0.001
694	-0.002
695	0
695	0.003
695	0.003
696	0.003
696	0.003
697	0.003
697	0.003
698	0.003
698	0.003
698	0.003
699	0.004
699	0.003
700	0.002
700	0.003
701	0.004
701	0.005
702	0.005
702	0.005
702	0.005
703	0.006
703	0.006
704	0.006
704	0.007
705	0.008
705	0.009
705	0.009
706	0.01
706	0.011
707	0.011
707	0.011
708	0.011
708	0.012
709	0.012
709	0.012
709	0.011
710	0.01
710	0.011
711	0.011
711	0.012
712	0.012
712	0.012
713	0.012
713	0.012
713	0.012
714	0.011
714	0.011
715	0.012
715	0.012
716	0.011
716	0.012
716	0.012
717	0.013
717	0.013
718	0.013
718	0.014
719	0.015
719	0.016
720	0.017
720	0.017
720	0.017
721	0.018
721	0.018
722	0.019
722	0.019
723	0.02
723	0.022
723	0.022
724	0.023
724	0.023
725	0.023
725	0.024
726	0.024
726	0.025
727	0.026
727	0.027
727	0.028
728	0.028
728	0.029
729	0.031
729	0.032
730	0.033
730	0.034
730	0.035
731	0.036
731	0.037
732	0.038
732	0.038
733	0.038
733	0.039
734	0.04
734	0.04
734	0.041
735	0.043
735	0.044
736	0.044
736	0.045
737	0.047
737	0.049
737	0.05
738	0.049
738	0.049
739	0.049
739	0.049
740	0.049
740	0.05
741	0.05
741	0.05
741	0.049
742	0.048
742	0.048
743	0.05
743	0.051
744	0.052
744	0.053
744	0.053
745	0.054
745	0.054
746	0.056
746	0.057
747	0.058
747	0.06
748	0.061
748	0.062
748	0.063
749	0.064
749	0.066
750	0.067
750	0.069
751	0.071
751	0.073
751	0.076
752	0.078
752	0.079
753	0.081
753	0.083
754	0.085
754	0.087
754	0.09
755	0.092
755	0.095
756	0.096
756	0.096
757	0.096
757	0.098
758	0.099
758	0.099
758	0.1
759	0.102
759	0.101
760	0.101
760	0.101
761	0.102
761	0.104
761	0.106
762	0.107
762	0.109
763	0.112
763	0.113
764	0.113
764	0.115
764	0.115
765	0.116
765	0.117
766	0.118
766	0.12
767	0.121
767	0.12
768	0.119
768	0.119
768	0.12
769	0.121
769	0.121
770	0.121
770	0.122
771	0.121
771	0.12
771	0.119
772	0.119
772	0.119
773	0.118
773	0.118
774	0.117
774	0.116
775	0.116
775	0.115
775	0.113
776	0.112
776	0.111
777	0.11
777	0.109
778	0.107
778	0.105
778	0.104
779	0.103
779	0.103
780	0.101
780	0.098
781	0.096
781	0.093
781	0.089
782	0.084
782	0.079
783	0.075
783	0.07
784	0.064
784	0.058
784	0.052
785	0.045
785	0.038
786	0.032
786	0.027
787	0.023
787	0.017
788	0.01
788	0.001
788	-0.009
789	-0.02
789	-0.031
790	-0.042
790	-0.055
791	-0.07
791	-0.085
791	-0.098
792	-0.103
792	-0.103
793	-0.107
793	-0.111
794	-0.117
794	-0.125
794	-0.132
795	-0.136
795	-0.137
796	-0.137
796	-0.14
797	-0.149
797	-0.16
797	-0.167
798	-0.172
798	-0.175
799	-0.175
799	-0.174
800	-0.174
800	-0.175
801	-0.178
801	-0.179
801	-0.179
802	-0.18
802	-0.182
803	-0.182
803	-0.183
804	-0.182
804	-0.177
804	-0.17
805	-0.167
805	-0.164
806	-0.162
806	-0.161
807	-0.16
807	-0.159
807	-0.16
808	-0.159
808	-0.161
809	-0.166
809	-0.171
810	-0.175
810	-0.178
810	-0.182
811	-0.185
811	-0.185
812	-0.182
812	-0.178
813	-0.175
813	-0.17
813	-0.162
814	-0.152
814	-0.139
815	-0.121
815	-0.103
816	-0.082
816	-0.063
817	-0.044
817	-0.022
817	-0
818	0.021
818	0.041
819	0.059
819	0.074
820	0.086
820	0.097
820	0.107
821	0.117
821	0.126
822	0.134
822	0.141
823	0.147
823	0.151
823	0.155
824	0.16
824	0.165
825	0.17
825	0.174
826	0.178
826	0.18
826	0.181
827	0.184
827	0.185
828	0.187
828	0.188
829	0.189
829	0.19
829	0.19
830	0.19
830	0.19
831	0.191
831	0.192
832	0.192
832	0.192
832	0.192
833	0.193
833	0.193
834	0.193
834	0.194
835	0.195
835	0.195
835	0.195
836	0.196
836	0.196
837	0.196
837	0.196
838	0.196
838	0.195
839	0.194
839	0.193
839	0.192
840	0.19
840	0.189
841	0.188
841	0.187
842	0.186
842	0.186
842	0.185
843	0.184
843	0.183
844	0.182
844	0.182
845	0.181
845	0.18
845	0.18
846	0.178
846	0.177
847	0.175
847	0.174
848	0.172
848	0.17
848	0.168
849	0.166
849	0.164
850	0.162
850	0.16
851	0.159
851	0.158
851	0.157
852	0.156
852	0.155
853	0.155
853	0.154
854	0.153
854	0.152
854	0.151
855	0.15
855	0.148
856	0.146
856	0.145
857	0.143
857	0.142
857	0.141
858	0.139
858	0.138
859	0.137
859	0.136
860	0.135
860	0.134
860	0.133
861	0.132
861	0.131
862	0.129
862	0.128
863	0.127
863	0.126
863	0.125
864	0.123
864	0.122
865	0.122
865	0.121
866	0.12
866	0.119
866	0.118
867	0.118
867	0.118
868	0.118
868	0.119
869	0.119
869	0.119
869	0.118
870	0.118
870	0.118
871	0.117
871	0.116
872	0.114
872	0.113
872	0.111
873	0.11
873	0.108
874	0.107
874	0.107
875	0.106
875	0.105
875	0.105
876	0.105
876	0.104
877	0.104
877	0.104
878	0.103
878	0.103
878	0.102
879	0.1
879	0.099
880	0.097
880	0.095
881	0.092
881	0.09
881	0.088
882	0.086
882	0.084
883	0.082
883	0.08
884	0.079
884	0.078
884	0.077
885	0.077
885	0.076
886	0.076
886	0.076
887	0.075
887	0.074
887	0.074
888	0.073
888	0.072
889	0.071
889	0.07
890	0.069
890	0.068
890	0.067
891	0.065
891	0.063
892	0.062
892	0.06
893	0.058
893	0.057
893	0.056
894	0.054
894	0.053
895	0.052
895	0.051
895	0.05
896	0.05
896	0.049
897	0.048
897	0.048
898	0.048
898	0.047
898	0.047
899	0.046
899	0.046
900	0.046
900	0.046
901	0.046
901	0.046
901	0.046
902	0.046
902	0.046
903	0.046
903	0.046
904	0.046
904	0.045
904	0.045
905	0.045
905	0.045
906	0.045
906	0.046
907	0.046
907	0.046
907	0.046
908	0.045
908	0.045
909	0.045
909	0.045
910	0.045
910	0.044
910	0.044
911	0.044
911	0.043
912	0.043
912	0.043
913	0.042
913	0.041
913	0.04
914	0.039
914	0.038
915	0.037
915	0.035
916	0.033
916	0.032
916	0.03
917	0.029
917	0.027
918	0.026
918	0.025
918	0.024
919	0.023
919	0.023
920	0.023
920	0.023
921	0.023
921	0.023
921	0.023
922	0.024
922	0.025
923	0.026
923	0.027
924	0.027
924	0.028
924	0.028
925	0.028
925	0.028
926	0.028
926	0.027
927	0.026
927	0.025
927	0.024
928	0.023
928	0.022
929	0.02
929	0.019
930	0.018
930	0.017
930	0.016
931	0.015
931	0.014
932	0.013
932	0.012
933	0.012
933	0.011
933	0.011
934	0.01
934	0.01
935	0.009
935	0.009
935	0.009
936	0.009
936	0.009
937	0.009
937	0.009
938	0.009
938	0.009
938	0.009
939	0.009
939	0.009
940	0.009
940	0.008
941	0.009
941	0.009
941	0.009
942	0.01
942	0.01
943	0.01
943	0.01
944	0.01
944	0.009
944	0.008
945	0.008
945	0.007
946	0.007
946	0.006
946	0.005
947	0.004
947	0.003
948	0.002
948	0.002
949	0.001
949	0
949	0
950	-0
950	-0.001
951	-0.001
951	-0.001
952	-0.002
952	-0.001
952	-0.001
953	-0.001
953	-0.001
954	-0.001
954	-0.001
955	-0.001
955	-0.001
955	-0.001
956	-0
956	0
957	0
957	0
957	-0
958	-0
958	-0.001
959	-0.001
959	-0.002
960	-0.002
960	-0.003
960	-0.004
961	-0.005
961	-0.006
962	-0.007
962	-0.007
963	-0.007
963	-0.007
963	-0.007
964	-0.006
964	-0.005
965	-0.004
965	-0.003
966	-0.002
966	-0.001
966	-0.001
967	-0
967	-0
968	-0
968	-0.001
968	-0.001
969	-0.002
969	-0.002
970	-0.003
970	-0.004
971	-0.004
971	-0.005
971	-0.005
972	-0.005
972	-0.005
973	-0.005
973	-0.005
974	-0.005
974	-0.004
974	-0.004
975	-0.004
975	-0.003
976	-0.003
976	-0.003
976	-0.004
977	-0.005
977	-0.006
978	-0.008
978	-0.009
979	-0.01
979	-0.011
979	-0.012
980	-0.014
980	-0.015
981	-0.016
981	-0.016
982	-0.016
982	-0.016
982	-0.016
983	-0.016
983	-0.016
984	-0.016
984	-0.016
984	-0.016
985	-0.017
985	-0.017
986	-0.018
986	-0.018
987	-0.019
987	-0.018
987	-0.018
988	-0.018
988	-0.017
989	-0.017
989	-0.016
990	-0.015
990	-0.014
990	-0.012
991	-0.01
991	-0.008
992	-0.007
992	-0.005
992	-0.004
993	-0.003
993	-0.002
994	-0.001
994	-0
995	-0
995	-0
995	-0.001
996	-0.001
996	-0.002
997	-0.003
997	-0.003
997	-0.004
998	-0.004
998	-0.005
999	-0.005
999	-0.006
1000	-0.006
1000	-0.006
1000	-0.006
1001	-0.006
1001	-0.006
1002	-0.006
1002	-0.007
1003	-0.007
1003	-0.007
1003	-0.008
1004	-0.008
1004	-0.009
1005	-0.01
1005	-0.011
1005	-0.012
1006	-0.013
1006	-0.014
1007	-0.015
1007	-0.016
1008	-0.017
1008	-0.018
1008	-0.019
1009	-0.019
1009	-0.019
1010	-0.02
1010	-0.02
1010	-0.021
1011	-0.022
1011	-0.022
1012	-0.023
1012	-0.023
1013	-0.024
1013	-0.025
1013	-0.026
1014	-0.027
1014	-0.027
1015	-0.028
1015	-0.028
1016	-0.028
1016	-0.028
1016	-0.028
1017	-0.028
1017	-0.027
1018	-0.027
1018	-0.026
1018	-0.025
1019	-0.025
1019	-0.024
1020	-0.024
1020	-0.024
1021	-0.024
1021	-0.024
1021	-0.024
1022	-0.024
1022	-0.025
1023	-0.025
1023	-0.026
1023	-0.026
1024	-0.027
1024	-0.028
1025	-0.029
1025	-0.03
1026	-0.03
1026	-0.031
1026	-0.032
1027	-0.032
1027	-0.032
1028	-0.031
1028	-0.031
1028	-0.031
1029	-0.03
1029	-0.03
1030	-0.029
1030	-0.029
1031	-0.028
1031	-0.028
1031	-0.028
1032	-0.028
1032	-0.028
1033	-0.028
1033	-0.028
1033	-0.029
1034	-0.03
1034	-0.031
1035	-0.031
1035	-0.032
1036	-0.033
1036	-0.034
1036	-0.034
1037	-0.035
1037	-0.035
1038	-0.036
1038	-0.036
1039	-0.036
1039	-0.036
1039	-0.036
1040	-0.036
1040	-0.037
1041	-0.037
1041	-0.038
1041	-0.038
1042	-0.039
1042	-0.04
1043	-0.041
1043	-0.042
1044	-0.043
1044	-0.044
1044	-0.045
1045	-0.046
1045	-0.047
1046	-0.048
1046	-0.049
1046	-0.049
1047	-0.05
1047	-0.05
1048	-0.049
1048	-0.05
1049	-0.05
1049	-0.05
1049	-0.05
1050	-0.051
1050	-0.051
1051	-0.051
1051	-0.051
1051	-0.052
1052	-0.052
1052	-0.053
1053	-0.053
1053	-0.053
1053	-0.053
1054	-0.054
1054	-0.053
1055	-0.053
1055	-0.053
1056	-0.053
1056	-0.054
1056	-0.054
1057	-0.055
1057	-0.055
1058	-0.055
1058	-0.056
1058	-0.056
1059	-0.057
1059	-0.057
1060	-0.058
1060	-0.057
1061	-0.057
1061	-0.056
1061	-0.056
1062	-0.056
1062	-0.056
1063	-0.055
1063	-0.055
1063	-0.055
1064	-0.054
1064	-0.053
1065	-0.053
1065	-0.053
1066	-0.053
1066	-0.053
1066	-0.052
1067	-0.052
1067	-0.052
1068	-0.052
1068	-0.052
1068	-0.052
1069	-0.052
1069	-0.053
1070	-0.054
1070	-0.054
1071	-0.055
1071	-0.055
1071	-0.056
1072	-0.056
1072	-0.057
1073	-0.057
1073	-0.057
1073	-0.057
1074	-0.057
1074	-0.057
1075	-0.058
1075	-0.058
1076	-0.058
1076	-0.058
1076	-0.059
1077	-0.06
1077	-0.061
1078	-0.061
1078	-0.061
1078	-0.06
1079	-0.06
1079	-0.059
1080	-0.059
1080	-0.059
1080	-0.058
1081	-0.057
1081	-0.056
1082	-0.055
1082	-0.055
1083	-0.055
1083	-0.055
1083	-0.054
1084	-0.054
1084	-0.053
1085	-0.053
1085	-0.052
1085	-0.052
1086	-0.052
1086	-0.052
1087	-0.052
1087	-0.051
1088	-0.052
1088	-0.053
1088	-0.054
1089	-0.055
1089	-0.056
1090	-0.057
1090	-0.057
1090	-0.057
1091	-0.058
1091	-0.057
1092	-0.056
1092	-0.054
1092	-0.053
1093	-0.051
1093	-0.048
1094	-0.046
1094	-0.045
1095	-0.044
1095	-0.043
1095	-0.04
1096	-0.04
1096	-0.039
1097	-0.038
1097	-0.038
1097	-0.038
1098	-0.038
1098	-0.038
1099	-0.037
1099	-0.036
1100	-0.035
1100	-0.035
1100	-0.035
1101	-0.034
1101	-0.034
1102	-0.031
1102	-0.029
1102	-0.026
1103	-0.024
1103	-0.021
1104	-0.018
1104	-0.015
1104	-0.009
1105	-0.004
1105	-0.002
1106	0
1106	0.005
1107	0.008
1107	0.014
1107	0.02
1108	0.052
1108	0.097
1109	0.157
1109	0.247
1109	0.316
1110	0.456
1110	0.814
1111	-0
1111	-0
