Data from control-808nm_Absorbance__25__02894.txt Node

Date: Wed Jan 17 12:40:46 CET 2024
User: Marek
Spectrometer: MAYP115816
Trigger mode: 0
Integration Time (sec): 2.000000E-1
Scans to average: 10
Electric dark correction enabled: true
Nonlinearity correction enabled: true
Boxcar width: 5
XAxis mode: Wavelengths
Number of Pixels in Spectrum: 2068
>>>>>Begin Spectral Data<<<<<
199	-1.582
199	-1.448
200	-1.293
200	-1.173
201	-1.1
201	-1.054
202	-0.988
202	-0.941
203	-0.899
203	-0.864
204	-0.84
204	-0.818
205	-0.795
205	-0.786
205	-0.785
206	-0.785
206	-0.782
207	-0.78
207	-0.776
208	-0.775
208	-0.775
209	-0.771
209	-0.77
210	-0.77
210	-0.771
211	-0.769
211	-0.769
212	-0.771
212	-0.77
213	-0.769
213	-0.768
213	-0.768
214	-0.767
214	-0.767
215	-0.766
215	-0.766
216	-0.767
216	-0.765
217	-0.76
217	-0.76
218	-0.761
218	-0.758
219	-0.755
219	-0.755
220	-0.752
220	-0.75
221	-0.746
221	-0.743
221	-0.74
222	-0.737
222	-0.732
223	-0.727
223	-0.725
224	-0.721
224	-0.714
225	-0.706
225	-0.7
226	-0.692
226	-0.681
227	-0.669
227	-0.659
228	-0.644
228	-0.629
229	-0.61
229	-0.588
229	-0.565
230	-0.539
230	-0.512
231	-0.482
231	-0.452
232	-0.422
232	-0.388
233	-0.355
233	-0.321
234	-0.29
234	-0.259
235	-0.229
235	-0.202
236	-0.177
236	-0.153
236	-0.132
237	-0.111
237	-0.094
238	-0.079
238	-0.065
239	-0.052
239	-0.041
240	-0.032
240	-0.023
241	-0.016
241	-0.01
242	-0.005
242	-0
243	0.004
243	0.007
243	0.01
244	0.012
244	0.014
245	0.016
245	0.017
246	0.019
246	0.02
247	0.021
247	0.022
248	0.023
248	0.024
249	0.024
249	0.025
250	0.025
250	0.025
250	0.026
251	0.026
251	0.026
252	0.026
252	0.026
253	0.026
253	0.025
254	0.025
254	0.025
255	0.025
255	0.025
256	0.025
256	0.025
257	0.025
257	0.024
258	0.024
258	0.024
258	0.024
259	0.024
259	0.024
260	0.024
260	0.023
261	0.023
261	0.023
262	0.023
262	0.023
263	0.023
263	0.023
264	0.023
264	0.023
265	0.023
265	0.023
265	0.023
266	0.023
266	0.023
267	0.023
267	0.023
268	0.023
268	0.023
269	0.023
269	0.023
270	0.023
270	0.023
271	0.023
271	0.023
272	0.024
272	0.024
272	0.024
273	0.024
273	0.024
274	0.024
274	0.025
275	0.025
275	0.025
276	0.026
276	0.026
277	0.026
277	0.027
278	0.027
278	0.027
278	0.028
279	0.027
279	0.027
280	0.027
280	0.027
281	0.027
281	0.027
282	0.027
282	0.027
283	0.028
283	0.028
284	0.028
284	0.029
285	0.03
285	0.03
285	0.031
286	0.031
286	0.031
287	0.032
287	0.032
288	0.032
288	0.033
289	0.033
289	0.033
290	0.033
290	0.033
291	0.034
291	0.034
292	0.034
292	0.034
292	0.034
293	0.034
293	0.034
294	0.035
294	0.035
295	0.035
295	0.035
296	0.035
296	0.035
297	0.035
297	0.035
298	0.035
298	0.035
298	0.035
299	0.035
299	0.035
300	0.035
300	0.035
301	0.035
301	0.035
302	0.035
302	0.035
303	0.035
303	0.035
304	0.035
304	0.035
305	0.035
305	0.035
305	0.034
306	0.034
306	0.034
307	0.034
307	0.034
308	0.034
308	0.034
309	0.034
309	0.034
310	0.034
310	0.033
311	0.033
311	0.033
311	0.033
312	0.033
312	0.033
313	0.032
313	0.032
314	0.032
314	0.032
315	0.032
315	0.032
316	0.032
316	0.031
317	0.031
317	0.031
318	0.031
318	0.031
318	0.03
319	0.03
319	0.03
320	0.03
320	0.029
321	0.029
321	0.029
322	0.029
322	0.028
323	0.028
323	0.028
324	0.027
324	0.027
324	0.027
325	0.026
325	0.026
326	0.026
326	0.026
327	0.025
327	0.025
328	0.025
328	0.024
329	0.024
329	0.024
330	0.024
330	0.023
330	0.023
331	0.023
331	0.022
332	0.022
332	0.022
333	0.021
333	0.021
334	0.021
334	0.02
335	0.02
335	0.02
336	0.019
336	0.019
336	0.019
337	0.018
337	0.018
338	0.018
338	0.018
339	0.018
339	0.017
340	0.017
340	0.016
341	0.016
341	0.016
342	0.015
342	0.015
342	0.015
343	0.015
343	0.014
344	0.014
344	0.014
345	0.014
345	0.014
346	0.014
346	0.014
347	0.013
347	0.013
348	0.013
348	0.013
348	0.012
349	0.012
349	0.011
350	0.011
350	0.011
351	0.011
351	0.011
352	0.01
352	0.01
353	0.01
353	0.01
354	0.01
354	0.009
354	0.009
355	0.009
355	0.008
356	0.008
356	0.008
357	0.008
357	0.007
358	0.007
358	0.007
359	0.007
359	0.007
360	0.007
360	0.007
360	0.007
361	0.007
361	0.008
362	0.008
362	0.007
363	0.007
363	0.007
364	0.007
364	0.007
365	0.007
365	0.007
366	0.007
366	0.007
366	0.006
367	0.007
367	0.007
368	0.007
368	0.007
369	0.006
369	0.007
370	0.006
370	0.006
371	0.006
371	0.006
372	0.006
372	0.006
372	0.006
373	0.006
373	0.006
374	0.006
374	0.006
375	0.006
375	0.006
376	0.006
376	0.006
377	0.007
377	0.007
378	0.007
378	0.007
378	0.007
379	0.007
379	0.007
380	0.007
380	0.008
381	0.008
381	0.008
382	0.008
382	0.008
383	0.008
383	0.007
383	0.007
384	0.007
384	0.007
385	0.007
385	0.007
386	0.008
386	0.007
387	0.007
387	0.007
388	0.007
388	0.008
389	0.008
389	0.008
389	0.008
390	0.008
390	0.008
391	0.008
391	0.008
392	0.008
392	0.008
393	0.008
393	0.008
394	0.008
394	0.008
394	0.008
395	0.008
395	0.008
396	0.008
396	0.009
397	0.009
397	0.009
398	0.009
398	0.009
399	0.009
399	0.009
400	0.009
400	0.008
400	0.008
401	0.008
401	0.007
402	0.007
402	0.007
403	0.007
403	0.007
404	0.008
404	0.008
405	0.008
405	0.008
405	0.008
406	0.008
406	0.008
407	0.008
407	0.008
408	0.008
408	0.008
409	0.008
409	0.008
410	0.008
410	0.008
411	0.008
411	0.008
411	0.008
412	0.008
412	0.008
413	0.008
413	0.008
414	0.008
414	0.008
415	0.007
415	0.007
416	0.007
416	0.007
416	0.007
417	0.007
417	0.007
418	0.007
418	0.008
419	0.008
419	0.008
420	0.009
420	0.009
421	0.009
421	0.01
421	0.01
422	0.01
422	0.01
423	0.01
423	0.01
424	0.009
424	0.009
425	0.009
425	0.009
426	0.009
426	0.009
427	0.009
427	0.009
427	0.009
428	0.01
428	0.01
429	0.01
429	0.01
430	0.01
430	0.009
431	0.009
431	0.009
432	0.009
432	0.008
432	0.008
433	0.007
433	0.007
434	0.007
434	0.007
435	0.008
435	0.008
436	0.008
436	0.008
437	0.008
437	0.008
437	0.008
438	0.008
438	0.008
439	0.008
439	0.008
440	0.008
440	0.008
441	0.008
441	0.008
442	0.008
442	0.008
442	0.008
443	0.008
443	0.008
444	0.008
444	0.009
445	0.009
445	0.009
446	0.009
446	0.009
447	0.009
447	0.009
447	0.009
448	0.009
448	0.009
449	0.008
449	0.008
450	0.009
450	0.008
451	0.008
451	0.008
452	0.008
452	0.008
452	0.008
453	0.008
453	0.008
454	0.008
454	0.008
455	0.008
455	0.008
456	0.008
456	0.008
457	0.008
457	0.008
458	0.008
458	0.008
458	0.008
459	0.008
459	0.008
460	0.007
460	0.007
461	0.007
461	0.007
462	0.007
462	0.007
463	0.007
463	0.007
463	0.008
464	0.008
464	0.007
465	0.007
465	0.007
466	0.008
466	0.008
467	0.008
467	0.008
467	0.007
468	0.007
468	0.006
469	0.006
469	0.006
470	0.005
470	0.005
471	0.005
471	0.004
472	0.004
472	0.004
472	0.004
473	0.005
473	0.005
474	0.005
474	0.006
475	0.006
475	0.006
476	0.006
476	0.006
477	0.006
477	0.006
477	0.006
478	0.006
478	0.006
479	0.006
479	0.006
480	0.006
480	0.005
481	0.005
481	0.005
482	0.006
482	0.007
482	0.007
483	0.008
483	0.01
484	0.01
484	0.009
485	0.009
485	0.009
486	0.009
486	0.009
487	0.009
487	0.009
487	0.008
488	0.008
488	0.007
489	0.006
489	0.007
490	0.007
490	0.007
491	0.007
491	0.008
492	0.008
492	0.007
492	0.007
493	0.007
493	0.007
494	0.008
494	0.009
495	0.009
495	0.009
496	0.01
496	0.01
496	0.011
497	0.011
497	0.011
498	0.011
498	0.011
499	0.011
499	0.011
500	0.011
500	0.011
501	0.012
501	0.012
501	0.012
502	0.012
502	0.012
503	0.013
503	0.013
504	0.013
504	0.012
505	0.012
505	0.011
506	0.011
506	0.011
506	0.01
507	0.01
507	0.01
508	0.01
508	0.011
509	0.011
509	0.011
510	0.011
510	0.012
511	0.012
511	0.012
511	0.012
512	0.011
512	0.011
513	0.01
513	0.01
514	0.009
514	0.009
515	0.009
515	0.008
515	0.008
516	0.008
516	0.008
517	0.008
517	0.008
518	0.008
518	0.007
519	0.007
519	0.007
520	0.006
520	0.006
520	0.005
521	0.004
521	0.003
522	0.002
522	0.002
523	0.001
523	0.001
524	0
524	-0
524	-0
525	-0.001
525	-0.001
526	-0
526	-0
527	0
527	0
528	0
528	0.001
529	0.001
529	0.001
529	0.001
530	0.001
530	0.001
531	0.001
531	0.002
532	0.001
532	0.002
533	0.002
533	0.002
533	0.002
534	0.002
534	0.002
535	0.002
535	0.002
536	0.002
536	0.001
537	0.001
537	0.001
538	0
538	0
538	0
539	0.001
539	0.001
540	0
540	-0
541	-0.001
541	-0.001
542	-0.001
542	-0.001
542	-0.001
543	-0.001
543	-0.002
544	-0.002
544	-0.002
545	-0.001
545	-0
546	0
546	-0
547	-0.001
547	-0.002
547	-0.002
548	-0.002
548	-0.002
549	-0.003
549	-0.003
550	-0.003
550	-0.003
551	-0.004
551	-0.003
551	-0.003
552	-0.002
552	-0.002
553	-0.002
553	-0.001
554	-0.001
554	-0.002
555	-0.003
555	-0.004
556	-0.005
556	-0.005
556	-0.006
557	-0.006
557	-0.006
558	-0.007
558	-0.007
559	-0.007
559	-0.006
560	-0.006
560	-0.006
560	-0.005
561	-0.004
561	-0.004
562	-0.004
562	-0.004
563	-0.005
563	-0.006
564	-0.007
564	-0.007
564	-0.007
565	-0.007
565	-0.007
566	-0.008
566	-0.008
567	-0.007
567	-0.007
568	-0.006
568	-0.006
568	-0.005
569	-0.004
569	-0.003
570	-0.003
570	-0.004
571	-0.004
571	-0.003
572	-0.003
572	-0.004
573	-0.004
573	-0.005
573	-0.006
574	-0.006
574	-0.005
575	-0.004
575	-0.002
576	-0.001
576	-0.003
577	-0.004
577	-0.004
577	-0.003
578	-0.002
578	-0.002
579	-0
579	0.001
580	-0.001
580	-0.004
581	-0.007
581	-0.008
581	-0.007
582	-0.007
582	-0.007
583	-0.006
583	-0.007
584	-0.01
584	-0.013
585	-0.013
585	-0.011
585	-0.01
586	-0.01
586	-0.01
587	-0.012
587	-0.013
588	-0.015
588	-0.015
589	-0.015
589	-0.014
590	-0.013
590	-0.013
590	-0.011
591	-0.009
591	-0.009
592	-0.01
592	-0.011
593	-0.01
593	-0.01
594	-0.011
594	-0.012
594	-0.013
595	-0.013
595	-0.015
596	-0.016
596	-0.014
597	-0.011
597	-0.01
598	-0.009
598	-0.008
598	-0.007
599	-0.006
599	-0.007
600	-0.007
600	-0.008
601	-0.009
601	-0.009
602	-0.011
602	-0.011
602	-0.011
603	-0.011
603	-0.009
604	-0.008
604	-0.006
605	-0.004
605	-0.002
606	-0.001
606	-0.002
606	-0.003
607	-0.003
607	-0.003
608	-0.004
608	-0.006
609	-0.007
609	-0.007
610	-0.008
610	-0.01
610	-0.009
611	-0.008
611	-0.007
612	-0.006
612	-0.005
613	-0.004
613	-0.003
614	-0.004
614	-0.006
614	-0.006
615	-0.007
615	-0.009
616	-0.009
616	-0.011
617	-0.012
617	-0.013
618	-0.015
618	-0.015
618	-0.015
619	-0.014
619	-0.013
620	-0.011
620	-0.01
621	-0.01
621	-0.01
622	-0.01
622	-0.01
622	-0.01
623	-0.011
623	-0.01
624	-0.01
624	-0.012
625	-0.013
625	-0.013
626	-0.014
626	-0.014
626	-0.013
627	-0.013
627	-0.013
628	-0.013
628	-0.013
629	-0.013
629	-0.013
630	-0.013
630	-0.014
630	-0.013
631	-0.013
631	-0.013
632	-0.014
632	-0.014
633	-0.014
633	-0.014
634	-0.013
634	-0.013
634	-0.012
635	-0.013
635	-0.013
636	-0.014
636	-0.013
637	-0.014
637	-0.015
638	-0.015
638	-0.015
638	-0.015
639	-0.015
639	-0.016
640	-0.016
640	-0.016
641	-0.016
641	-0.016
642	-0.016
642	-0.016
642	-0.016
643	-0.016
643	-0.017
644	-0.016
644	-0.016
645	-0.017
645	-0.016
646	-0.016
646	-0.015
646	-0.014
647	-0.013
647	-0.012
648	-0.012
648	-0.012
649	-0.011
649	-0.011
650	-0.011
650	-0.011
650	-0.011
651	-0.011
651	-0.011
652	-0.012
652	-0.012
653	-0.011
653	-0.005
653	0.007
654	0.007
654	0.008
655	0.002
655	0.001
656	0.001
656	0.001
657	0.001
657	0
657	-0
658	-0.004
658	-0.014
659	-0.017
659	-0.021
660	-0.014
660	-0.014
661	-0.014
661	-0.014
661	-0.013
662	-0.012
662	-0.011
663	-0.01
663	-0.01
664	-0.009
664	-0.009
665	-0.009
665	-0.009
665	-0.009
666	-0.009
666	-0.01
667	-0.011
667	-0.011
668	-0.011
668	-0.011
669	-0.011
669	-0.011
669	-0.01
670	-0.009
670	-0.009
671	-0.01
671	-0.01
672	-0.01
672	-0.01
672	-0.009
673	-0.009
673	-0.009
674	-0.009
674	-0.01
675	-0.011
675	-0.01
676	-0.009
676	-0.009
676	-0.009
677	-0.009
677	-0.009
678	-0.009
678	-0.009
679	-0.009
679	-0.009
680	-0.008
680	-0.008
680	-0.008
681	-0.008
681	-0.007
682	-0.006
682	-0.006
683	-0.005
683	-0.003
684	-0.003
684	-0.003
684	-0.003
685	-0.002
685	-0.002
686	-0.001
686	-0.001
687	-0.001
687	-0
687	0
688	-0
688	-0.001
689	0.001
689	0.002
690	0.001
690	0
691	-0
691	-0.001
691	-0.001
692	-0.002
692	-0.002
693	-0.002
693	-0.001
694	-0.002
694	-0.003
695	-0.001
695	0.001
695	0.002
696	0.001
696	0.001
697	0.002
697	0.002
698	0.001
698	0.001
698	0.001
699	0.002
699	0.001
700	-0
700	0.001
701	0.002
701	0.002
702	0.003
702	0.003
702	0.004
703	0.004
703	0.004
704	0.005
704	0.006
705	0.007
705	0.008
705	0.008
706	0.009
706	0.01
707	0.01
707	0.01
708	0.01
708	0.011
709	0.011
709	0.011
709	0.01
710	0.009
710	0.01
711	0.01
711	0.011
712	0.011
712	0.011
713	0.011
713	0.011
713	0.01
714	0.01
714	0.01
715	0.01
715	0.01
716	0.009
716	0.01
716	0.01
717	0.011
717	0.012
718	0.012
718	0.012
719	0.014
719	0.015
720	0.015
720	0.016
720	0.016
721	0.016
721	0.017
722	0.018
722	0.018
723	0.019
723	0.021
723	0.021
724	0.021
724	0.022
725	0.022
725	0.022
726	0.023
726	0.024
727	0.025
727	0.025
727	0.026
728	0.026
728	0.027
729	0.029
729	0.03
730	0.031
730	0.031
730	0.032
731	0.033
731	0.034
732	0.036
732	0.036
733	0.037
733	0.038
734	0.038
734	0.039
734	0.04
735	0.042
735	0.043
736	0.043
736	0.044
737	0.046
737	0.048
737	0.048
738	0.048
738	0.047
739	0.047
739	0.048
740	0.047
740	0.048
741	0.048
741	0.048
741	0.047
742	0.045
742	0.046
743	0.048
743	0.048
744	0.049
744	0.05
744	0.051
745	0.052
745	0.052
746	0.053
746	0.055
747	0.056
747	0.057
748	0.059
748	0.06
748	0.061
749	0.062
749	0.063
750	0.065
750	0.066
751	0.069
751	0.071
751	0.074
752	0.075
752	0.077
753	0.079
753	0.081
754	0.083
754	0.085
754	0.088
755	0.09
755	0.093
756	0.094
756	0.093
757	0.094
757	0.095
758	0.096
758	0.097
758	0.098
759	0.099
759	0.099
760	0.099
760	0.098
761	0.1
761	0.102
761	0.103
762	0.104
762	0.107
763	0.11
763	0.11
764	0.111
764	0.112
764	0.113
765	0.113
765	0.114
766	0.115
766	0.117
767	0.118
767	0.117
768	0.116
768	0.116
768	0.117
769	0.118
769	0.119
770	0.119
770	0.119
771	0.118
771	0.117
771	0.117
772	0.117
772	0.116
773	0.116
773	0.115
774	0.114
774	0.113
775	0.113
775	0.111
775	0.11
776	0.108
776	0.107
777	0.106
777	0.105
778	0.103
778	0.101
778	0.099
779	0.099
779	0.098
780	0.096
780	0.094
781	0.091
781	0.088
781	0.084
782	0.079
782	0.074
783	0.069
783	0.064
784	0.058
784	0.052
784	0.045
785	0.039
785	0.032
786	0.026
786	0.021
787	0.016
787	0.01
788	0.002
788	-0.007
788	-0.017
789	-0.028
789	-0.04
790	-0.051
790	-0.064
791	-0.079
791	-0.092
791	-0.105
792	-0.109
792	-0.108
793	-0.112
793	-0.115
794	-0.12
794	-0.127
794	-0.133
795	-0.136
795	-0.137
796	-0.137
796	-0.14
797	-0.149
797	-0.16
797	-0.167
798	-0.172
798	-0.175
799	-0.175
799	-0.174
800	-0.174
800	-0.175
801	-0.178
801	-0.179
801	-0.179
802	-0.18
802	-0.182
803	-0.182
803	-0.183
804	-0.182
804	-0.177
804	-0.17
805	-0.166
805	-0.164
806	-0.162
806	-0.161
807	-0.16
807	-0.159
807	-0.159
808	-0.159
808	-0.161
809	-0.166
809	-0.171
810	-0.175
810	-0.178
810	-0.182
811	-0.185
811	-0.185
812	-0.181
812	-0.178
813	-0.175
813	-0.169
813	-0.16
814	-0.15
814	-0.137
815	-0.12
815	-0.101
816	-0.08
816	-0.06
817	-0.041
817	-0.019
817	0.003
818	0.024
818	0.044
819	0.062
819	0.076
820	0.088
820	0.099
820	0.109
821	0.119
821	0.128
822	0.136
822	0.143
823	0.149
823	0.153
823	0.157
824	0.161
824	0.166
825	0.171
825	0.176
826	0.179
826	0.181
826	0.182
827	0.184
827	0.186
828	0.187
828	0.188
829	0.189
829	0.19
829	0.19
830	0.189
830	0.189
831	0.191
831	0.191
832	0.191
832	0.192
832	0.192
833	0.192
833	0.193
834	0.193
834	0.193
835	0.194
835	0.194
835	0.195
836	0.195
836	0.195
837	0.195
837	0.195
838	0.195
838	0.194
839	0.193
839	0.192
839	0.191
840	0.19
840	0.188
841	0.187
841	0.186
842	0.186
842	0.185
842	0.184
843	0.183
843	0.182
844	0.182
844	0.181
845	0.181
845	0.18
845	0.179
846	0.178
846	0.177
847	0.175
847	0.174
848	0.172
848	0.17
848	0.168
849	0.166
849	0.165
850	0.163
850	0.16
851	0.159
851	0.158
851	0.157
852	0.156
852	0.155
853	0.155
853	0.154
854	0.153
854	0.152
854	0.151
855	0.149
855	0.147
856	0.146
856	0.144
857	0.143
857	0.141
857	0.14
858	0.139
858	0.138
859	0.136
859	0.135
860	0.134
860	0.133
860	0.132
861	0.131
861	0.13
862	0.129
862	0.127
863	0.126
863	0.125
863	0.124
864	0.122
864	0.121
865	0.12
865	0.119
866	0.118
866	0.117
866	0.116
867	0.116
867	0.116
868	0.116
868	0.116
869	0.117
869	0.116
869	0.116
870	0.116
870	0.115
871	0.115
871	0.114
872	0.113
872	0.111
872	0.11
873	0.109
873	0.107
874	0.106
874	0.106
875	0.105
875	0.105
875	0.105
876	0.104
876	0.104
877	0.104
877	0.103
878	0.102
878	0.102
878	0.101
879	0.099
879	0.098
880	0.095
880	0.093
881	0.091
881	0.089
881	0.086
882	0.084
882	0.082
883	0.081
883	0.079
884	0.078
884	0.077
884	0.077
885	0.076
885	0.076
886	0.076
886	0.076
887	0.076
887	0.075
887	0.075
888	0.074
888	0.073
889	0.073
889	0.072
890	0.071
890	0.07
890	0.068
891	0.067
891	0.065
892	0.063
892	0.061
893	0.06
893	0.058
893	0.057
894	0.056
894	0.054
895	0.053
895	0.052
895	0.051
896	0.05
896	0.05
897	0.049
897	0.049
898	0.048
898	0.047
898	0.047
899	0.046
899	0.046
900	0.045
900	0.045
901	0.045
901	0.045
901	0.045
902	0.045
902	0.044
903	0.044
903	0.044
904	0.044
904	0.044
904	0.044
905	0.044
905	0.044
906	0.044
906	0.044
907	0.044
907	0.044
907	0.044
908	0.044
908	0.044
909	0.044
909	0.043
910	0.043
910	0.043
910	0.042
911	0.042
911	0.042
912	0.041
912	0.041
913	0.041
913	0.04
913	0.039
914	0.038
914	0.037
915	0.035
915	0.033
916	0.032
916	0.03
916	0.028
917	0.027
917	0.025
918	0.024
918	0.023
918	0.022
919	0.021
919	0.021
920	0.02
920	0.02
921	0.02
921	0.02
921	0.02
922	0.021
922	0.022
923	0.023
923	0.024
924	0.025
924	0.026
924	0.026
925	0.027
925	0.027
926	0.027
926	0.026
927	0.025
927	0.024
927	0.023
928	0.022
928	0.02
929	0.019
929	0.018
930	0.016
930	0.015
930	0.014
931	0.014
931	0.013
932	0.013
932	0.012
933	0.012
933	0.011
933	0.011
934	0.011
934	0.01
935	0.01
935	0.01
935	0.01
936	0.01
936	0.01
937	0.009
937	0.009
938	0.009
938	0.009
938	0.008
939	0.008
939	0.008
940	0.008
940	0.008
941	0.008
941	0.008
941	0.009
942	0.009
942	0.01
943	0.01
943	0.01
944	0.01
944	0.009
944	0.009
945	0.008
945	0.008
946	0.007
946	0.006
946	0.005
947	0.005
947	0.004
948	0.002
948	0.001
949	0
949	0
949	-0
950	-0.001
950	-0.001
951	-0.001
951	-0.002
952	-0.002
952	-0.002
952	-0.002
953	-0.002
953	-0.002
954	-0.002
954	-0.002
955	-0.002
955	-0.002
955	-0.001
956	-0.001
956	-0.001
957	-0.001
957	-0.001
957	-0.001
958	-0.002
958	-0.002
959	-0.002
959	-0.003
960	-0.003
960	-0.004
960	-0.005
961	-0.006
961	-0.007
962	-0.008
962	-0.008
963	-0.008
963	-0.008
963	-0.007
964	-0.006
964	-0.005
965	-0.004
965	-0.003
966	-0.002
966	-0.001
966	-0
967	0
967	0
968	0
968	-0.001
968	-0.001
969	-0.002
969	-0.002
970	-0.003
970	-0.004
971	-0.005
971	-0.005
971	-0.006
972	-0.006
972	-0.006
973	-0.006
973	-0.005
974	-0.005
974	-0.005
974	-0.005
975	-0.004
975	-0.004
976	-0.004
976	-0.004
976	-0.004
977	-0.005
977	-0.007
978	-0.008
978	-0.009
979	-0.01
979	-0.011
979	-0.013
980	-0.014
980	-0.015
981	-0.016
981	-0.016
982	-0.016
982	-0.016
982	-0.016
983	-0.016
983	-0.016
984	-0.016
984	-0.016
984	-0.016
985	-0.017
985	-0.017
986	-0.018
986	-0.018
987	-0.018
987	-0.018
987	-0.018
988	-0.018
988	-0.017
989	-0.016
989	-0.016
990	-0.015
990	-0.013
990	-0.012
991	-0.01
991	-0.008
992	-0.007
992	-0.005
992	-0.004
993	-0.003
993	-0.002
994	-0.001
994	-0.001
995	-0.001
995	-0.001
995	-0.001
996	-0.002
996	-0.002
997	-0.003
997	-0.004
997	-0.004
998	-0.005
998	-0.005
999	-0.005
999	-0.006
1000	-0.006
1000	-0.006
1000	-0.007
1001	-0.007
1001	-0.007
1002	-0.007
1002	-0.007
1003	-0.007
1003	-0.008
1003	-0.008
1004	-0.009
1004	-0.009
1005	-0.01
1005	-0.011
1005	-0.012
1006	-0.013
1006	-0.014
1007	-0.015
1007	-0.016
1008	-0.017
1008	-0.018
1008	-0.019
1009	-0.019
1009	-0.02
1010	-0.02
1010	-0.02
1010	-0.021
1011	-0.021
1011	-0.022
1012	-0.023
1012	-0.023
1013	-0.024
1013	-0.025
1013	-0.026
1014	-0.027
1014	-0.028
1015	-0.028
1015	-0.028
1016	-0.028
1016	-0.028
1016	-0.028
1017	-0.028
1017	-0.028
1018	-0.027
1018	-0.027
1018	-0.026
1019	-0.025
1019	-0.025
1020	-0.024
1020	-0.024
1021	-0.024
1021	-0.024
1021	-0.024
1022	-0.024
1022	-0.025
1023	-0.025
1023	-0.025
1023	-0.026
1024	-0.027
1024	-0.028
1025	-0.029
1025	-0.029
1026	-0.03
1026	-0.03
1026	-0.031
1027	-0.031
1027	-0.031
1028	-0.031
1028	-0.031
1028	-0.03
1029	-0.03
1029	-0.029
1030	-0.029
1030	-0.029
1031	-0.028
1031	-0.028
1031	-0.027
1032	-0.027
1032	-0.027
1033	-0.027
1033	-0.027
1033	-0.027
1034	-0.028
1034	-0.029
1035	-0.03
1035	-0.031
1036	-0.032
1036	-0.033
1036	-0.033
1037	-0.034
1037	-0.034
1038	-0.035
1038	-0.035
1039	-0.035
1039	-0.035
1039	-0.035
1040	-0.035
1040	-0.035
1041	-0.036
1041	-0.036
1041	-0.037
1042	-0.038
1042	-0.039
1043	-0.04
1043	-0.042
1044	-0.043
1044	-0.044
1044	-0.045
1045	-0.046
1045	-0.048
1046	-0.049
1046	-0.05
1046	-0.05
1047	-0.051
1047	-0.05
1048	-0.05
1048	-0.05
1049	-0.05
1049	-0.05
1049	-0.05
1050	-0.05
1050	-0.051
1051	-0.051
1051	-0.051
1051	-0.051
1052	-0.052
1052	-0.052
1053	-0.052
1053	-0.053
1053	-0.053
1054	-0.053
1054	-0.053
1055	-0.053
1055	-0.053
1056	-0.053
1056	-0.054
1056	-0.055
1057	-0.055
1057	-0.055
1058	-0.056
1058	-0.056
1058	-0.057
1059	-0.057
1059	-0.058
1060	-0.058
1060	-0.058
1061	-0.058
1061	-0.057
1061	-0.057
1062	-0.057
1062	-0.056
1063	-0.056
1063	-0.056
1063	-0.055
1064	-0.055
1064	-0.054
1065	-0.054
1065	-0.054
1066	-0.053
1066	-0.053
1066	-0.053
1067	-0.052
1067	-0.051
1068	-0.052
1068	-0.051
1068	-0.051
1069	-0.052
1069	-0.052
1070	-0.053
1070	-0.053
1071	-0.053
1071	-0.053
1071	-0.055
1072	-0.055
1072	-0.055
1073	-0.056
1073	-0.056
1073	-0.056
1074	-0.056
1074	-0.055
1075	-0.056
1075	-0.056
1076	-0.057
1076	-0.057
1076	-0.058
1077	-0.058
1077	-0.058
1078	-0.059
1078	-0.059
1078	-0.058
1079	-0.058
1079	-0.057
1080	-0.057
1080	-0.056
1080	-0.055
1081	-0.055
1081	-0.054
1082	-0.053
1082	-0.052
1083	-0.052
1083	-0.053
1083	-0.052
1084	-0.052
1084	-0.052
1085	-0.051
1085	-0.051
1085	-0.05
1086	-0.05
1086	-0.05
1087	-0.05
1087	-0.05
1088	-0.051
1088	-0.051
1088	-0.051
1089	-0.052
1089	-0.053
1090	-0.054
1090	-0.054
1090	-0.054
1091	-0.054
1091	-0.053
1092	-0.053
1092	-0.051
1092	-0.05
1093	-0.048
1093	-0.046
1094	-0.043
1094	-0.042
1095	-0.041
1095	-0.04
1095	-0.038
1096	-0.037
1096	-0.036
1097	-0.035
1097	-0.035
1097	-0.035
1098	-0.035
1098	-0.035
1099	-0.034
1099	-0.033
1100	-0.032
1100	-0.032
1100	-0.031
1101	-0.03
1101	-0.029
1102	-0.026
1102	-0.025
1102	-0.022
1103	-0.02
1103	-0.016
1104	-0.013
1104	-0.009
1104	-0.003
1105	0.001
1105	0.005
1106	0.007
1106	0.013
1107	0.017
1107	0.025
1107	0.033
1108	0.068
1108	0.115
1109	0.181
1109	0.287
1109	0.372
1110	0.554
1110	1.177
1111	-0
1111	-0
