Data from control-808nm_Absorbance__988__03857.txt Node

Date: Wed Jan 17 13:12:52 CET 2024
User: Marek
Spectrometer: MAYP115816
Trigger mode: 0
Integration Time (sec): 2.000000E-1
Scans to average: 10
Electric dark correction enabled: true
Nonlinearity correction enabled: true
Boxcar width: 5
XAxis mode: Wavelengths
Number of Pixels in Spectrum: 2068
>>>>>Begin Spectral Data<<<<<
199	-1.519
199	-1.386
200	-1.234
200	-1.116
201	-1.045
201	-1.001
202	-0.937
202	-0.892
203	-0.851
203	-0.817
204	-0.794
204	-0.772
205	-0.751
205	-0.741
205	-0.74
206	-0.739
206	-0.736
207	-0.734
207	-0.731
208	-0.729
208	-0.729
209	-0.725
209	-0.726
210	-0.726
210	-0.726
211	-0.726
211	-0.725
212	-0.726
212	-0.726
213	-0.726
213	-0.725
213	-0.725
214	-0.724
214	-0.724
215	-0.723
215	-0.723
216	-0.723
216	-0.722
217	-0.718
217	-0.717
218	-0.716
218	-0.713
219	-0.711
219	-0.711
220	-0.707
220	-0.706
221	-0.702
221	-0.7
221	-0.695
222	-0.692
222	-0.688
223	-0.683
223	-0.681
224	-0.677
224	-0.67
225	-0.663
225	-0.656
226	-0.649
226	-0.638
227	-0.627
227	-0.617
228	-0.603
228	-0.588
229	-0.57
229	-0.549
229	-0.526
230	-0.502
230	-0.476
231	-0.447
231	-0.417
232	-0.388
232	-0.356
233	-0.324
233	-0.291
234	-0.261
234	-0.231
235	-0.203
235	-0.178
236	-0.153
236	-0.132
236	-0.111
237	-0.093
237	-0.077
238	-0.063
238	-0.05
239	-0.038
239	-0.028
240	-0.02
240	-0.012
241	-0.006
241	-0.001
242	0.004
242	0.008
243	0.012
243	0.014
243	0.016
244	0.019
244	0.02
245	0.021
245	0.023
246	0.024
246	0.025
247	0.026
247	0.026
248	0.027
248	0.028
249	0.028
249	0.028
250	0.029
250	0.029
250	0.029
251	0.029
251	0.029
252	0.029
252	0.028
253	0.028
253	0.028
254	0.028
254	0.028
255	0.027
255	0.027
256	0.027
256	0.027
257	0.027
257	0.026
258	0.026
258	0.026
258	0.026
259	0.025
259	0.025
260	0.025
260	0.025
261	0.025
261	0.025
262	0.025
262	0.024
263	0.024
263	0.024
264	0.024
264	0.024
265	0.024
265	0.024
265	0.024
266	0.024
266	0.024
267	0.024
267	0.024
268	0.024
268	0.024
269	0.024
269	0.024
270	0.024
270	0.024
271	0.024
271	0.024
272	0.024
272	0.024
272	0.025
273	0.025
273	0.025
274	0.025
274	0.025
275	0.026
275	0.026
276	0.026
276	0.027
277	0.027
277	0.028
278	0.028
278	0.028
278	0.029
279	0.028
279	0.028
280	0.028
280	0.028
281	0.028
281	0.028
282	0.028
282	0.028
283	0.028
283	0.028
284	0.028
284	0.029
285	0.03
285	0.03
285	0.031
286	0.031
286	0.031
287	0.032
287	0.032
288	0.033
288	0.033
289	0.033
289	0.033
290	0.034
290	0.034
291	0.034
291	0.034
292	0.035
292	0.035
292	0.035
293	0.035
293	0.035
294	0.035
294	0.035
295	0.036
295	0.036
296	0.036
296	0.036
297	0.036
297	0.036
298	0.036
298	0.036
298	0.036
299	0.036
299	0.036
300	0.036
300	0.036
301	0.036
301	0.036
302	0.036
302	0.036
303	0.036
303	0.036
304	0.036
304	0.036
305	0.036
305	0.035
305	0.035
306	0.035
306	0.035
307	0.035
307	0.035
308	0.035
308	0.035
309	0.035
309	0.034
310	0.034
310	0.034
311	0.034
311	0.034
311	0.034
312	0.034
312	0.033
313	0.033
313	0.033
314	0.033
314	0.033
315	0.033
315	0.033
316	0.032
316	0.032
317	0.032
317	0.032
318	0.032
318	0.031
318	0.031
319	0.031
319	0.031
320	0.031
320	0.03
321	0.03
321	0.03
322	0.03
322	0.029
323	0.029
323	0.029
324	0.028
324	0.028
324	0.028
325	0.028
325	0.027
326	0.027
326	0.027
327	0.027
327	0.026
328	0.026
328	0.026
329	0.026
329	0.025
330	0.025
330	0.025
330	0.024
331	0.024
331	0.024
332	0.023
332	0.023
333	0.023
333	0.022
334	0.022
334	0.022
335	0.022
335	0.021
336	0.021
336	0.021
336	0.02
337	0.02
337	0.02
338	0.019
338	0.019
339	0.019
339	0.018
340	0.018
340	0.018
341	0.017
341	0.017
342	0.017
342	0.017
342	0.017
343	0.016
343	0.016
344	0.016
344	0.016
345	0.016
345	0.016
346	0.015
346	0.015
347	0.015
347	0.014
348	0.014
348	0.014
348	0.014
349	0.013
349	0.013
350	0.013
350	0.013
351	0.012
351	0.012
352	0.012
352	0.012
353	0.012
353	0.011
354	0.011
354	0.011
354	0.011
355	0.01
355	0.01
356	0.01
356	0.009
357	0.009
357	0.009
358	0.008
358	0.008
359	0.008
359	0.008
360	0.008
360	0.009
360	0.009
361	0.009
361	0.009
362	0.009
362	0.009
363	0.009
363	0.009
364	0.009
364	0.009
365	0.009
365	0.009
366	0.008
366	0.009
366	0.008
367	0.008
367	0.008
368	0.008
368	0.008
369	0.008
369	0.008
370	0.008
370	0.008
371	0.008
371	0.008
372	0.008
372	0.008
372	0.008
373	0.008
373	0.008
374	0.008
374	0.008
375	0.008
375	0.008
376	0.008
376	0.008
377	0.009
377	0.009
378	0.009
378	0.009
378	0.009
379	0.009
379	0.009
380	0.009
380	0.009
381	0.009
381	0.009
382	0.009
382	0.009
383	0.009
383	0.009
383	0.009
384	0.009
384	0.009
385	0.009
385	0.009
386	0.009
386	0.009
387	0.009
387	0.009
388	0.009
388	0.009
389	0.009
389	0.009
389	0.01
390	0.01
390	0.01
391	0.01
391	0.01
392	0.01
392	0.01
393	0.01
393	0.01
394	0.01
394	0.01
394	0.01
395	0.01
395	0.01
396	0.01
396	0.01
397	0.01
397	0.01
398	0.01
398	0.01
399	0.01
399	0.01
400	0.01
400	0.01
400	0.01
401	0.01
401	0.009
402	0.009
402	0.009
403	0.009
403	0.01
404	0.01
404	0.01
405	0.01
405	0.01
405	0.01
406	0.01
406	0.01
407	0.01
407	0.01
408	0.009
408	0.009
409	0.009
409	0.009
410	0.009
410	0.009
411	0.009
411	0.009
411	0.009
412	0.009
412	0.009
413	0.009
413	0.009
414	0.009
414	0.009
415	0.009
415	0.009
416	0.009
416	0.009
416	0.008
417	0.008
417	0.008
418	0.008
418	0.009
419	0.009
419	0.01
420	0.01
420	0.011
421	0.011
421	0.011
421	0.011
422	0.011
422	0.012
423	0.012
423	0.011
424	0.011
424	0.011
425	0.01
425	0.01
426	0.01
426	0.01
427	0.011
427	0.011
427	0.011
428	0.011
428	0.011
429	0.012
429	0.011
430	0.011
430	0.011
431	0.011
431	0.011
432	0.011
432	0.011
432	0.01
433	0.01
433	0.01
434	0.01
434	0.01
435	0.01
435	0.01
436	0.01
436	0.01
437	0.01
437	0.01
437	0.01
438	0.01
438	0.01
439	0.01
439	0.01
440	0.01
440	0.01
441	0.01
441	0.01
442	0.01
442	0.01
442	0.01
443	0.01
443	0.01
444	0.011
444	0.011
445	0.011
445	0.011
446	0.011
446	0.011
447	0.011
447	0.011
447	0.011
448	0.011
448	0.01
449	0.01
449	0.01
450	0.01
450	0.01
451	0.01
451	0.01
452	0.01
452	0.01
452	0.01
453	0.01
453	0.01
454	0.01
454	0.01
455	0.011
455	0.011
456	0.011
456	0.011
457	0.01
457	0.01
458	0.011
458	0.011
458	0.011
459	0.011
459	0.01
460	0.009
460	0.009
461	0.009
461	0.009
462	0.009
462	0.009
463	0.009
463	0.01
463	0.01
464	0.01
464	0.009
465	0.009
465	0.01
466	0.01
466	0.01
467	0.009
467	0.009
467	0.009
468	0.008
468	0.008
469	0.007
469	0.007
470	0.007
470	0.007
471	0.007
471	0.006
472	0.006
472	0.006
472	0.006
473	0.007
473	0.007
474	0.007
474	0.008
475	0.008
475	0.008
476	0.008
476	0.009
477	0.009
477	0.009
477	0.008
478	0.008
478	0.008
479	0.008
479	0.008
480	0.008
480	0.008
481	0.008
481	0.008
482	0.008
482	0.009
482	0.009
483	0.011
483	0.012
484	0.012
484	0.012
485	0.012
485	0.012
486	0.012
486	0.011
487	0.011
487	0.011
487	0.011
488	0.01
488	0.009
489	0.009
489	0.009
490	0.01
490	0.01
491	0.01
491	0.01
492	0.01
492	0.01
492	0.01
493	0.01
493	0.011
494	0.011
494	0.012
495	0.012
495	0.012
496	0.013
496	0.013
496	0.014
497	0.014
497	0.014
498	0.014
498	0.014
499	0.014
499	0.014
500	0.014
500	0.015
501	0.015
501	0.015
501	0.015
502	0.015
502	0.015
503	0.016
503	0.016
504	0.015
504	0.015
505	0.015
505	0.014
506	0.014
506	0.014
506	0.014
507	0.013
507	0.013
508	0.013
508	0.014
509	0.014
509	0.014
510	0.015
510	0.015
511	0.014
511	0.014
511	0.014
512	0.014
512	0.014
513	0.013
513	0.013
514	0.012
514	0.012
515	0.012
515	0.012
515	0.011
516	0.011
516	0.012
517	0.012
517	0.012
518	0.011
518	0.011
519	0.01
519	0.01
520	0.009
520	0.009
520	0.008
521	0.007
521	0.006
522	0.006
522	0.005
523	0.005
523	0.006
524	0.005
524	0.005
524	0.005
525	0.005
525	0.005
526	0.005
526	0.005
527	0.005
527	0.005
528	0.005
528	0.005
529	0.004
529	0.004
529	0.004
530	0.004
530	0.004
531	0.004
531	0.005
532	0.004
532	0.005
533	0.005
533	0.005
533	0.005
534	0.005
534	0.004
535	0.004
535	0.005
536	0.004
536	0.004
537	0.004
537	0.003
538	0.003
538	0.003
538	0.003
539	0.003
539	0.003
540	0.002
540	0.002
541	0.002
541	0.001
542	0.001
542	0.001
542	0.001
543	0.001
543	0.001
544	0
544	0
545	0.001
545	0.002
546	0.002
546	0.002
547	0.001
547	-0.001
547	-0.001
548	-0
548	-0
549	-0
549	-0.001
550	-0.001
550	-0.001
551	-0.001
551	-0.001
551	-0
552	0
552	0
553	0.001
553	0.001
554	0
554	-0.001
555	-0.002
555	-0.003
556	-0.003
556	-0.004
556	-0.004
557	-0.004
557	-0.004
558	-0.005
558	-0.005
559	-0.004
559	-0.004
560	-0.003
560	-0.003
560	-0.003
561	-0.002
561	-0.001
562	-0.001
562	-0.002
563	-0.003
563	-0.003
564	-0.004
564	-0.004
564	-0.005
565	-0.005
565	-0.005
566	-0.006
566	-0.006
567	-0.006
567	-0.005
568	-0.004
568	-0.004
568	-0.003
569	-0.002
569	-0.001
570	-0.002
570	-0.003
571	-0.002
571	-0.002
572	-0.002
572	-0.003
573	-0.003
573	-0.004
573	-0.005
574	-0.005
574	-0.004
575	-0.004
575	-0.001
576	-0
576	-0.002
577	-0.003
577	-0.003
577	-0.002
578	-0.002
578	-0.001
579	0
579	0.001
580	-0
580	-0.004
581	-0.007
581	-0.007
581	-0.007
582	-0.006
582	-0.006
583	-0.005
583	-0.006
584	-0.009
584	-0.012
585	-0.012
585	-0.01
585	-0.009
586	-0.009
586	-0.009
587	-0.011
587	-0.012
588	-0.014
588	-0.014
589	-0.013
589	-0.012
590	-0.012
590	-0.011
590	-0.009
591	-0.007
591	-0.008
592	-0.009
592	-0.01
593	-0.01
593	-0.01
594	-0.011
594	-0.012
594	-0.013
595	-0.013
595	-0.015
596	-0.015
596	-0.013
597	-0.01
597	-0.009
598	-0.009
598	-0.007
598	-0.007
599	-0.006
599	-0.007
600	-0.008
600	-0.008
601	-0.009
601	-0.01
602	-0.011
602	-0.011
602	-0.011
603	-0.011
603	-0.009
604	-0.007
604	-0.005
605	-0.003
605	-0.001
606	-0.001
606	-0.002
606	-0.002
607	-0.002
607	-0.002
608	-0.003
608	-0.005
609	-0.006
609	-0.006
610	-0.008
610	-0.009
610	-0.009
611	-0.007
611	-0.006
612	-0.004
612	-0.003
613	-0.002
613	-0.001
614	-0.002
614	-0.004
614	-0.004
615	-0.005
615	-0.006
616	-0.007
616	-0.009
617	-0.01
617	-0.011
618	-0.013
618	-0.013
618	-0.013
619	-0.013
619	-0.011
620	-0.009
620	-0.009
621	-0.009
621	-0.008
622	-0.009
622	-0.008
622	-0.009
623	-0.009
623	-0.008
624	-0.009
624	-0.01
625	-0.011
625	-0.011
626	-0.011
626	-0.012
626	-0.011
627	-0.011
627	-0.011
628	-0.01
628	-0.011
629	-0.011
629	-0.011
630	-0.012
630	-0.013
630	-0.012
631	-0.012
631	-0.012
632	-0.013
632	-0.013
633	-0.013
633	-0.013
634	-0.012
634	-0.011
634	-0.011
635	-0.011
635	-0.012
636	-0.012
636	-0.012
637	-0.012
637	-0.013
638	-0.013
638	-0.013
638	-0.013
639	-0.014
639	-0.014
640	-0.014
640	-0.014
641	-0.014
641	-0.014
642	-0.014
642	-0.014
642	-0.014
643	-0.014
643	-0.014
644	-0.014
644	-0.014
645	-0.014
645	-0.014
646	-0.013
646	-0.012
646	-0.011
647	-0.01
647	-0.009
648	-0.009
648	-0.009
649	-0.008
649	-0.008
650	-0.008
650	-0.008
650	-0.008
651	-0.009
651	-0.009
652	-0.009
652	-0.01
653	-0.009
653	-0.003
653	0.009
654	0.009
654	0.009
655	0.003
655	0.002
656	0.002
656	0.002
657	0.002
657	0.001
657	0.001
658	-0.003
658	-0.014
659	-0.016
659	-0.02
660	-0.012
660	-0.012
661	-0.012
661	-0.012
661	-0.011
662	-0.01
662	-0.009
663	-0.008
663	-0.008
664	-0.007
664	-0.008
665	-0.008
665	-0.007
665	-0.008
666	-0.008
666	-0.009
667	-0.009
667	-0.01
668	-0.01
668	-0.01
669	-0.01
669	-0.009
669	-0.007
670	-0.006
670	-0.006
671	-0.006
671	-0.006
672	-0.006
672	-0.005
672	-0.005
673	-0.005
673	-0.005
674	-0.005
674	-0.006
675	-0.007
675	-0.007
676	-0.006
676	-0.005
676	-0.006
677	-0.006
677	-0.006
678	-0.006
678	-0.007
679	-0.007
679	-0.007
680	-0.006
680	-0.006
680	-0.007
681	-0.007
681	-0.006
682	-0.006
682	-0.005
683	-0.004
683	-0.002
684	-0.001
684	-0.002
684	-0.002
685	-0.001
685	-0
686	0
686	0.001
687	0.001
687	0.001
687	0.001
688	0
688	0
689	0.001
689	0.002
690	0.001
690	0
691	0
691	0
691	0
692	-0
692	-0.001
693	-0
693	0
694	-0
694	-0.001
695	0.001
695	0.003
695	0.003
696	0.003
696	0.002
697	0.002
697	0.002
698	0.002
698	0.002
698	0.002
699	0.002
699	0.001
700	0
700	0.001
701	0.003
701	0.003
702	0.003
702	0.004
702	0.005
703	0.005
703	0.005
704	0.006
704	0.007
705	0.008
705	0.008
705	0.009
706	0.01
706	0.01
707	0.011
707	0.011
708	0.011
708	0.011
709	0.011
709	0.011
709	0.01
710	0.009
710	0.01
711	0.011
711	0.011
712	0.011
712	0.012
713	0.012
713	0.012
713	0.012
714	0.011
714	0.011
715	0.012
715	0.012
716	0.012
716	0.013
716	0.013
717	0.014
717	0.014
718	0.015
718	0.015
719	0.017
719	0.018
720	0.019
720	0.019
720	0.02
721	0.02
721	0.021
722	0.021
722	0.022
723	0.023
723	0.024
723	0.024
724	0.024
724	0.025
725	0.025
725	0.025
726	0.025
726	0.026
727	0.026
727	0.027
727	0.028
728	0.028
728	0.029
729	0.031
729	0.033
730	0.034
730	0.034
730	0.036
731	0.037
731	0.038
732	0.04
732	0.041
733	0.042
733	0.043
734	0.044
734	0.045
734	0.046
735	0.048
735	0.048
736	0.049
736	0.05
737	0.051
737	0.054
737	0.054
738	0.054
738	0.053
739	0.053
739	0.053
740	0.053
740	0.053
741	0.054
741	0.054
741	0.053
742	0.052
742	0.053
743	0.054
743	0.055
744	0.056
744	0.057
744	0.058
745	0.058
745	0.059
746	0.06
746	0.061
747	0.062
747	0.063
748	0.065
748	0.066
748	0.067
749	0.067
749	0.069
750	0.071
750	0.072
751	0.075
751	0.077
751	0.08
752	0.082
752	0.084
753	0.086
753	0.089
754	0.091
754	0.093
754	0.096
755	0.098
755	0.1
756	0.101
756	0.101
757	0.101
757	0.103
758	0.103
758	0.104
758	0.105
759	0.106
759	0.106
760	0.106
760	0.106
761	0.107
761	0.109
761	0.111
762	0.112
762	0.115
763	0.118
763	0.118
764	0.119
764	0.12
764	0.121
765	0.121
765	0.121
766	0.123
766	0.124
767	0.126
767	0.125
768	0.124
768	0.125
768	0.126
769	0.127
769	0.128
770	0.129
770	0.129
771	0.129
771	0.128
771	0.128
772	0.128
772	0.128
773	0.128
773	0.127
774	0.126
774	0.126
775	0.125
775	0.124
775	0.123
776	0.121
776	0.12
777	0.119
777	0.118
778	0.117
778	0.115
778	0.114
779	0.114
779	0.113
780	0.112
780	0.11
781	0.108
781	0.106
781	0.103
782	0.1
782	0.095
783	0.091
783	0.087
784	0.082
784	0.076
784	0.071
785	0.065
785	0.059
786	0.053
786	0.048
787	0.044
787	0.039
788	0.032
788	0.024
788	0.015
789	0.005
789	-0.003
790	-0.012
790	-0.024
791	-0.037
791	-0.052
791	-0.068
792	-0.076
792	-0.078
793	-0.085
793	-0.092
794	-0.101
794	-0.112
794	-0.122
795	-0.13
795	-0.135
796	-0.138
796	-0.141
797	-0.149
797	-0.16
797	-0.167
798	-0.172
798	-0.175
799	-0.175
799	-0.174
800	-0.174
800	-0.175
801	-0.178
801	-0.179
801	-0.179
802	-0.181
802	-0.182
803	-0.183
803	-0.183
804	-0.182
804	-0.177
804	-0.17
805	-0.167
805	-0.165
806	-0.163
806	-0.161
807	-0.16
807	-0.16
807	-0.16
808	-0.16
808	-0.161
809	-0.166
809	-0.172
810	-0.175
810	-0.178
810	-0.182
811	-0.185
811	-0.186
812	-0.182
812	-0.179
813	-0.177
813	-0.173
813	-0.166
814	-0.158
814	-0.146
815	-0.13
815	-0.112
816	-0.093
816	-0.074
817	-0.057
817	-0.036
817	-0.013
818	0.008
818	0.03
819	0.049
819	0.065
820	0.078
820	0.089
820	0.1
821	0.111
821	0.121
822	0.129
822	0.137
823	0.143
823	0.148
823	0.152
824	0.157
824	0.161
825	0.166
825	0.171
826	0.175
826	0.177
826	0.178
827	0.181
827	0.182
828	0.184
828	0.185
829	0.186
829	0.187
829	0.187
830	0.186
830	0.187
831	0.188
831	0.188
832	0.188
832	0.189
832	0.189
833	0.189
833	0.189
834	0.189
834	0.19
835	0.191
835	0.191
835	0.191
836	0.192
836	0.192
837	0.192
837	0.193
838	0.192
838	0.192
839	0.191
839	0.19
839	0.188
840	0.187
840	0.186
841	0.184
841	0.183
842	0.182
842	0.181
842	0.18
843	0.179
843	0.178
844	0.178
844	0.177
845	0.176
845	0.175
845	0.175
846	0.173
846	0.172
847	0.17
847	0.168
848	0.166
848	0.165
848	0.163
849	0.161
849	0.159
850	0.158
850	0.155
851	0.154
851	0.153
851	0.152
852	0.15
852	0.15
853	0.148
853	0.147
854	0.146
854	0.145
854	0.143
855	0.142
855	0.14
856	0.139
856	0.137
857	0.136
857	0.135
857	0.134
858	0.133
858	0.132
859	0.13
859	0.129
860	0.128
860	0.127
860	0.126
861	0.125
861	0.124
862	0.122
862	0.12
863	0.119
863	0.117
863	0.116
864	0.114
864	0.113
865	0.112
865	0.111
866	0.11
866	0.109
866	0.108
867	0.108
867	0.108
868	0.108
868	0.109
869	0.109
869	0.109
869	0.109
870	0.109
870	0.109
871	0.109
871	0.108
872	0.107
872	0.105
872	0.104
873	0.102
873	0.101
874	0.1
874	0.099
875	0.099
875	0.098
875	0.098
876	0.097
876	0.097
877	0.097
877	0.096
878	0.095
878	0.095
878	0.094
879	0.093
879	0.091
880	0.089
880	0.087
881	0.085
881	0.082
881	0.08
882	0.078
882	0.076
883	0.074
883	0.073
884	0.071
884	0.07
884	0.07
885	0.069
885	0.069
886	0.07
886	0.07
887	0.07
887	0.069
887	0.069
888	0.068
888	0.068
889	0.067
889	0.067
890	0.066
890	0.065
890	0.064
891	0.062
891	0.061
892	0.059
892	0.057
893	0.056
893	0.054
893	0.053
894	0.051
894	0.05
895	0.049
895	0.048
895	0.046
896	0.045
896	0.045
897	0.044
897	0.043
898	0.043
898	0.043
898	0.042
899	0.042
899	0.041
900	0.041
900	0.041
901	0.041
901	0.042
901	0.042
902	0.042
902	0.042
903	0.042
903	0.042
904	0.042
904	0.042
904	0.042
905	0.042
905	0.042
906	0.042
906	0.041
907	0.041
907	0.041
907	0.04
908	0.04
908	0.039
909	0.039
909	0.039
910	0.039
910	0.039
910	0.038
911	0.038
911	0.038
912	0.038
912	0.038
913	0.038
913	0.037
913	0.036
914	0.035
914	0.034
915	0.032
915	0.031
916	0.029
916	0.027
916	0.025
917	0.023
917	0.021
918	0.02
918	0.018
918	0.017
919	0.016
919	0.016
920	0.016
920	0.016
921	0.016
921	0.017
921	0.018
922	0.019
922	0.021
923	0.022
923	0.023
924	0.024
924	0.025
924	0.025
925	0.025
925	0.025
926	0.025
926	0.024
927	0.023
927	0.021
927	0.02
928	0.018
928	0.017
929	0.016
929	0.015
930	0.014
930	0.013
930	0.012
931	0.011
931	0.011
932	0.01
932	0.01
933	0.01
933	0.009
933	0.009
934	0.008
934	0.008
935	0.007
935	0.007
935	0.007
936	0.006
936	0.006
937	0.006
937	0.006
938	0.006
938	0.006
938	0.006
939	0.006
939	0.006
940	0.006
940	0.007
941	0.007
941	0.007
941	0.007
942	0.008
942	0.008
943	0.008
943	0.007
944	0.007
944	0.006
944	0.005
945	0.004
945	0.003
946	0.003
946	0.002
946	0.001
947	-0
947	-0.001
948	-0.002
948	-0.003
949	-0.004
949	-0.004
949	-0.005
950	-0.005
950	-0.006
951	-0.006
951	-0.006
952	-0.007
952	-0.006
952	-0.006
953	-0.005
953	-0.005
954	-0.005
954	-0.005
955	-0.005
955	-0.004
955	-0.004
956	-0.003
956	-0.003
957	-0.003
957	-0.003
957	-0.003
958	-0.004
958	-0.004
959	-0.005
959	-0.005
960	-0.006
960	-0.006
960	-0.007
961	-0.008
961	-0.009
962	-0.009
962	-0.01
963	-0.01
963	-0.009
963	-0.009
964	-0.008
964	-0.008
965	-0.007
965	-0.006
966	-0.005
966	-0.004
966	-0.004
967	-0.003
967	-0.003
968	-0.003
968	-0.004
968	-0.004
969	-0.005
969	-0.006
970	-0.007
970	-0.008
971	-0.008
971	-0.009
971	-0.01
972	-0.01
972	-0.01
973	-0.01
973	-0.01
974	-0.01
974	-0.01
974	-0.01
975	-0.009
975	-0.009
976	-0.008
976	-0.008
976	-0.008
977	-0.008
977	-0.009
978	-0.01
978	-0.011
979	-0.012
979	-0.012
979	-0.013
980	-0.014
980	-0.015
981	-0.016
981	-0.017
982	-0.016
982	-0.016
982	-0.016
983	-0.016
983	-0.016
984	-0.016
984	-0.016
984	-0.016
985	-0.016
985	-0.016
986	-0.017
986	-0.018
987	-0.018
987	-0.018
987	-0.018
988	-0.017
988	-0.017
989	-0.017
989	-0.017
990	-0.016
990	-0.016
990	-0.014
991	-0.013
991	-0.012
992	-0.01
992	-0.009
992	-0.008
993	-0.007
993	-0.006
994	-0.005
994	-0.004
995	-0.004
995	-0.004
995	-0.004
996	-0.005
996	-0.005
997	-0.006
997	-0.006
997	-0.007
998	-0.008
998	-0.008
999	-0.008
999	-0.009
1000	-0.009
1000	-0.009
1000	-0.009
1001	-0.009
1001	-0.009
1002	-0.009
1002	-0.01
1003	-0.01
1003	-0.01
1003	-0.011
1004	-0.011
1004	-0.012
1005	-0.012
1005	-0.013
1005	-0.014
1006	-0.016
1006	-0.016
1007	-0.017
1007	-0.019
1008	-0.02
1008	-0.021
1008	-0.022
1009	-0.022
1009	-0.023
1010	-0.023
1010	-0.023
1010	-0.024
1011	-0.024
1011	-0.025
1012	-0.025
1012	-0.025
1013	-0.026
1013	-0.027
1013	-0.028
1014	-0.028
1014	-0.029
1015	-0.03
1015	-0.03
1016	-0.031
1016	-0.031
1016	-0.032
1017	-0.032
1017	-0.032
1018	-0.031
1018	-0.031
1018	-0.03
1019	-0.03
1019	-0.029
1020	-0.029
1020	-0.029
1021	-0.029
1021	-0.028
1021	-0.028
1022	-0.028
1022	-0.029
1023	-0.029
1023	-0.029
1023	-0.03
1024	-0.03
1024	-0.031
1025	-0.032
1025	-0.032
1026	-0.033
1026	-0.033
1026	-0.034
1027	-0.034
1027	-0.034
1028	-0.034
1028	-0.033
1028	-0.033
1029	-0.032
1029	-0.032
1030	-0.031
1030	-0.031
1031	-0.03
1031	-0.029
1031	-0.029
1032	-0.029
1032	-0.028
1033	-0.028
1033	-0.028
1033	-0.028
1034	-0.029
1034	-0.03
1035	-0.031
1035	-0.032
1036	-0.033
1036	-0.034
1036	-0.034
1037	-0.035
1037	-0.035
1038	-0.036
1038	-0.036
1039	-0.036
1039	-0.036
1039	-0.036
1040	-0.036
1040	-0.036
1041	-0.037
1041	-0.037
1041	-0.038
1042	-0.039
1042	-0.04
1043	-0.041
1043	-0.043
1044	-0.044
1044	-0.046
1044	-0.047
1045	-0.048
1045	-0.049
1046	-0.051
1046	-0.052
1046	-0.052
1047	-0.053
1047	-0.053
1048	-0.053
1048	-0.053
1049	-0.053
1049	-0.054
1049	-0.054
1050	-0.054
1050	-0.055
1051	-0.055
1051	-0.055
1051	-0.055
1052	-0.056
1052	-0.056
1053	-0.057
1053	-0.057
1053	-0.057
1054	-0.057
1054	-0.057
1055	-0.056
1055	-0.057
1056	-0.057
1056	-0.057
1056	-0.058
1057	-0.059
1057	-0.059
1058	-0.059
1058	-0.06
1058	-0.06
1059	-0.061
1059	-0.062
1060	-0.062
1060	-0.062
1061	-0.062
1061	-0.061
1061	-0.061
1062	-0.061
1062	-0.061
1063	-0.06
1063	-0.06
1063	-0.059
1064	-0.059
1064	-0.058
1065	-0.058
1065	-0.058
1066	-0.057
1066	-0.057
1066	-0.056
1067	-0.055
1067	-0.055
1068	-0.054
1068	-0.054
1068	-0.054
1069	-0.054
1069	-0.055
1070	-0.055
1070	-0.056
1071	-0.056
1071	-0.056
1071	-0.057
1072	-0.057
1072	-0.058
1073	-0.058
1073	-0.058
1073	-0.059
1074	-0.058
1074	-0.059
1075	-0.059
1075	-0.059
1076	-0.06
1076	-0.06
1076	-0.061
1077	-0.061
1077	-0.061
1078	-0.062
1078	-0.062
1078	-0.062
1079	-0.062
1079	-0.061
1080	-0.061
1080	-0.061
1080	-0.06
1081	-0.06
1081	-0.059
1082	-0.058
1082	-0.058
1083	-0.057
1083	-0.057
1083	-0.057
1084	-0.057
1084	-0.056
1085	-0.056
1085	-0.055
1085	-0.055
1086	-0.055
1086	-0.055
1087	-0.056
1087	-0.056
1088	-0.057
1088	-0.058
1088	-0.058
1089	-0.059
1089	-0.06
1090	-0.061
1090	-0.062
1090	-0.062
1091	-0.063
1091	-0.061
1092	-0.061
1092	-0.059
1092	-0.059
1093	-0.057
1093	-0.055
1094	-0.054
1094	-0.053
1095	-0.053
1095	-0.052
1095	-0.05
1096	-0.05
1096	-0.049
1097	-0.048
1097	-0.048
1097	-0.048
1098	-0.048
1098	-0.049
1099	-0.048
1099	-0.047
1100	-0.046
1100	-0.046
1100	-0.046
1101	-0.046
1101	-0.046
1102	-0.044
1102	-0.042
1102	-0.041
1103	-0.04
1103	-0.037
1104	-0.035
1104	-0.033
1104	-0.028
1105	-0.025
1105	-0.022
1106	-0.021
1106	-0.018
1107	-0.018
1107	-0.013
1107	-0.007
1108	0.021
1108	0.056
1109	0.103
1109	0.173
1109	0.224
1110	0.321
1110	0.512
1111	1.641
1111	-0
