Data from 15c-2a_Absorbance__230__00230.txt Node

Date: Fri Jan 19 09:49:14 CET 2024
User: Marek
Spectrometer: MAYP115816
Trigger mode: 0
Integration Time (sec): 2.000000E-1
Scans to average: 10
Electric dark correction enabled: true
Nonlinearity correction enabled: true
Boxcar width: 5
XAxis mode: Wavelengths
Number of Pixels in Spectrum: 2068
>>>>>Begin Spectral Data<<<<<
199	-1.487
199	-1.336
200	-1.196
200	-1.081
201	-1.015
201	-0.965
202	-0.897
202	-0.843
203	-0.797
203	-0.758
204	-0.733
204	-0.71
205	-0.693
205	-0.683
205	-0.681
206	-0.676
206	-0.673
207	-0.668
207	-0.664
208	-0.662
208	-0.659
209	-0.658
209	-0.653
210	-0.65
210	-0.649
211	-0.648
211	-0.646
212	-0.647
212	-0.646
213	-0.645
213	-0.643
213	-0.642
214	-0.638
214	-0.638
215	-0.636
215	-0.634
216	-0.631
216	-0.631
217	-0.626
217	-0.624
218	-0.623
218	-0.619
219	-0.616
219	-0.615
220	-0.613
220	-0.613
221	-0.612
221	-0.607
221	-0.602
222	-0.601
222	-0.596
223	-0.591
223	-0.587
224	-0.581
224	-0.574
225	-0.568
225	-0.558
226	-0.548
226	-0.538
227	-0.527
227	-0.513
228	-0.499
228	-0.485
229	-0.467
229	-0.448
229	-0.426
230	-0.402
230	-0.375
231	-0.347
231	-0.316
232	-0.285
232	-0.252
233	-0.217
233	-0.181
234	-0.146
234	-0.113
235	-0.081
235	-0.05
236	-0.021
236	0.007
236	0.032
237	0.056
237	0.077
238	0.097
238	0.114
239	0.13
239	0.144
240	0.157
240	0.169
241	0.181
241	0.19
242	0.199
242	0.207
243	0.215
243	0.221
243	0.228
244	0.233
244	0.239
245	0.243
245	0.248
246	0.252
246	0.255
247	0.259
247	0.262
248	0.266
248	0.269
249	0.271
249	0.274
250	0.276
250	0.278
250	0.281
251	0.283
251	0.285
252	0.287
252	0.289
253	0.291
253	0.292
254	0.294
254	0.295
255	0.297
255	0.298
256	0.299
256	0.3
257	0.301
257	0.302
258	0.302
258	0.303
258	0.303
259	0.304
259	0.304
260	0.304
260	0.303
261	0.303
261	0.303
262	0.303
262	0.302
263	0.302
263	0.301
264	0.301
264	0.3
265	0.299
265	0.299
265	0.298
266	0.297
266	0.296
267	0.295
267	0.293
268	0.292
268	0.29
269	0.289
269	0.287
270	0.285
270	0.284
271	0.282
271	0.28
272	0.279
272	0.277
272	0.275
273	0.273
273	0.271
274	0.269
274	0.267
275	0.265
275	0.263
276	0.261
276	0.259
277	0.257
277	0.255
278	0.253
278	0.251
278	0.249
279	0.247
279	0.245
280	0.243
280	0.241
281	0.239
281	0.237
282	0.235
282	0.233
283	0.231
283	0.229
284	0.227
284	0.225
285	0.223
285	0.222
285	0.22
286	0.218
286	0.216
287	0.215
287	0.213
288	0.212
288	0.21
289	0.209
289	0.208
290	0.206
290	0.205
291	0.203
291	0.202
292	0.201
292	0.199
292	0.198
293	0.197
293	0.196
294	0.195
294	0.194
295	0.193
295	0.192
296	0.192
296	0.191
297	0.19
297	0.19
298	0.189
298	0.189
298	0.188
299	0.187
299	0.187
300	0.186
300	0.185
301	0.185
301	0.184
302	0.184
302	0.183
303	0.183
303	0.182
304	0.181
304	0.181
305	0.181
305	0.18
305	0.18
306	0.179
306	0.179
307	0.178
307	0.178
308	0.177
308	0.177
309	0.177
309	0.176
310	0.176
310	0.175
311	0.175
311	0.174
311	0.174
312	0.173
312	0.173
313	0.172
313	0.172
314	0.171
314	0.171
315	0.17
315	0.17
316	0.169
316	0.169
317	0.168
317	0.168
318	0.167
318	0.167
318	0.166
319	0.166
319	0.166
320	0.165
320	0.165
321	0.164
321	0.163
322	0.163
322	0.162
323	0.162
323	0.161
324	0.161
324	0.16
324	0.159
325	0.159
325	0.159
326	0.158
326	0.158
327	0.157
327	0.157
328	0.156
328	0.156
329	0.155
329	0.154
330	0.154
330	0.154
330	0.153
331	0.153
331	0.152
332	0.152
332	0.152
333	0.152
333	0.151
334	0.151
334	0.15
335	0.15
335	0.149
336	0.149
336	0.148
336	0.148
337	0.147
337	0.147
338	0.146
338	0.145
339	0.145
339	0.145
340	0.144
340	0.144
341	0.144
341	0.144
342	0.144
342	0.143
342	0.143
343	0.143
343	0.142
344	0.142
344	0.142
345	0.141
345	0.141
346	0.141
346	0.14
347	0.14
347	0.139
348	0.139
348	0.139
348	0.139
349	0.138
349	0.138
350	0.138
350	0.137
351	0.137
351	0.137
352	0.137
352	0.137
353	0.136
353	0.136
354	0.136
354	0.135
354	0.135
355	0.135
355	0.135
356	0.135
356	0.134
357	0.134
357	0.134
358	0.134
358	0.134
359	0.133
359	0.133
360	0.133
360	0.133
360	0.133
361	0.133
361	0.133
362	0.133
362	0.133
363	0.133
363	0.133
364	0.133
364	0.133
365	0.133
365	0.133
366	0.132
366	0.132
366	0.132
367	0.132
367	0.132
368	0.131
368	0.131
369	0.131
369	0.131
370	0.13
370	0.13
371	0.13
371	0.13
372	0.13
372	0.129
372	0.129
373	0.129
373	0.129
374	0.129
374	0.129
375	0.129
375	0.129
376	0.129
376	0.128
377	0.128
377	0.128
378	0.128
378	0.128
378	0.128
379	0.128
379	0.128
380	0.128
380	0.128
381	0.128
381	0.128
382	0.127
382	0.127
383	0.127
383	0.127
383	0.126
384	0.126
384	0.126
385	0.126
385	0.125
386	0.125
386	0.125
387	0.125
387	0.125
388	0.125
388	0.125
389	0.125
389	0.124
389	0.124
390	0.124
390	0.124
391	0.124
391	0.124
392	0.124
392	0.124
393	0.123
393	0.123
394	0.123
394	0.123
394	0.123
395	0.123
395	0.122
396	0.122
396	0.122
397	0.122
397	0.122
398	0.122
398	0.122
399	0.122
399	0.122
400	0.122
400	0.122
400	0.122
401	0.121
401	0.121
402	0.121
402	0.121
403	0.12
403	0.12
404	0.12
404	0.12
405	0.12
405	0.12
405	0.119
406	0.119
406	0.119
407	0.119
407	0.118
408	0.118
408	0.118
409	0.117
409	0.117
410	0.117
410	0.117
411	0.117
411	0.116
411	0.116
412	0.116
412	0.116
413	0.116
413	0.116
414	0.116
414	0.116
415	0.116
415	0.116
416	0.115
416	0.115
416	0.115
417	0.115
417	0.115
418	0.115
418	0.115
419	0.115
419	0.115
420	0.115
420	0.115
421	0.115
421	0.115
421	0.115
422	0.115
422	0.115
423	0.115
423	0.115
424	0.115
424	0.115
425	0.115
425	0.114
426	0.114
426	0.114
427	0.114
427	0.114
427	0.114
428	0.114
428	0.114
429	0.114
429	0.114
430	0.115
430	0.114
431	0.114
431	0.114
432	0.114
432	0.114
432	0.113
433	0.113
433	0.113
434	0.112
434	0.112
435	0.112
435	0.112
436	0.112
436	0.112
437	0.112
437	0.112
437	0.112
438	0.112
438	0.112
439	0.112
439	0.112
440	0.112
440	0.112
441	0.112
441	0.112
442	0.112
442	0.112
442	0.112
443	0.112
443	0.112
444	0.112
444	0.112
445	0.112
445	0.112
446	0.112
446	0.112
447	0.112
447	0.112
447	0.111
448	0.111
448	0.111
449	0.111
449	0.111
450	0.112
450	0.112
451	0.111
451	0.111
452	0.111
452	0.111
452	0.111
453	0.111
453	0.111
454	0.11
454	0.11
455	0.11
455	0.111
456	0.111
456	0.11
457	0.11
457	0.11
458	0.11
458	0.11
458	0.11
459	0.11
459	0.11
460	0.109
460	0.109
461	0.109
461	0.109
462	0.109
462	0.11
463	0.11
463	0.11
463	0.111
464	0.111
464	0.111
465	0.111
465	0.112
466	0.112
466	0.112
467	0.112
467	0.112
467	0.112
468	0.112
468	0.112
469	0.112
469	0.112
470	0.112
470	0.112
471	0.112
471	0.112
472	0.113
472	0.113
472	0.113
473	0.114
473	0.114
474	0.114
474	0.115
475	0.115
475	0.116
476	0.116
476	0.116
477	0.117
477	0.117
477	0.117
478	0.117
478	0.118
479	0.118
479	0.118
480	0.119
480	0.119
481	0.12
481	0.12
482	0.121
482	0.122
482	0.123
483	0.124
483	0.125
484	0.126
484	0.127
485	0.128
485	0.129
486	0.129
486	0.13
487	0.13
487	0.13
487	0.131
488	0.131
488	0.132
489	0.132
489	0.133
490	0.133
490	0.133
491	0.134
491	0.135
492	0.135
492	0.136
492	0.137
493	0.137
493	0.138
494	0.14
494	0.141
495	0.142
495	0.144
496	0.145
496	0.147
496	0.148
497	0.149
497	0.151
498	0.152
498	0.152
499	0.153
499	0.154
500	0.155
500	0.156
501	0.157
501	0.158
501	0.159
502	0.16
502	0.162
503	0.163
503	0.164
504	0.165
504	0.166
505	0.167
505	0.168
506	0.169
506	0.17
506	0.171
507	0.172
507	0.173
508	0.173
508	0.174
509	0.175
509	0.176
510	0.177
510	0.177
511	0.178
511	0.179
511	0.18
512	0.18
512	0.181
513	0.182
513	0.183
514	0.183
514	0.184
515	0.184
515	0.185
515	0.185
516	0.185
516	0.185
517	0.185
517	0.186
518	0.186
518	0.186
519	0.186
519	0.186
520	0.186
520	0.186
520	0.185
521	0.185
521	0.184
522	0.183
522	0.183
523	0.182
523	0.182
524	0.182
524	0.182
524	0.182
525	0.182
525	0.182
526	0.183
526	0.184
527	0.185
527	0.185
528	0.186
528	0.186
529	0.186
529	0.186
529	0.186
530	0.186
530	0.186
531	0.185
531	0.185
532	0.184
532	0.183
533	0.182
533	0.182
533	0.181
534	0.18
534	0.179
535	0.178
535	0.178
536	0.177
536	0.176
537	0.175
537	0.173
538	0.172
538	0.171
538	0.169
539	0.168
539	0.166
540	0.165
540	0.163
541	0.162
541	0.16
542	0.159
542	0.157
542	0.156
543	0.155
543	0.153
544	0.152
544	0.151
545	0.15
545	0.149
546	0.148
546	0.146
547	0.145
547	0.144
547	0.142
548	0.141
548	0.139
549	0.138
549	0.136
550	0.135
550	0.133
551	0.132
551	0.13
551	0.129
552	0.127
552	0.126
553	0.125
553	0.124
554	0.123
554	0.121
555	0.119
555	0.118
556	0.116
556	0.114
556	0.112
557	0.111
557	0.109
558	0.107
558	0.106
559	0.104
559	0.103
560	0.102
560	0.101
560	0.101
561	0.1
561	0.099
562	0.098
562	0.097
563	0.096
563	0.095
564	0.093
564	0.091
564	0.09
565	0.089
565	0.087
566	0.086
566	0.085
567	0.084
567	0.083
568	0.083
568	0.083
568	0.082
569	0.082
569	0.082
570	0.081
570	0.08
571	0.079
571	0.079
572	0.078
572	0.077
573	0.076
573	0.075
573	0.074
574	0.074
574	0.073
575	0.073
575	0.073
576	0.072
576	0.071
577	0.071
577	0.07
577	0.07
578	0.069
578	0.069
579	0.068
579	0.068
580	0.067
580	0.066
581	0.065
581	0.064
581	0.063
582	0.063
582	0.063
583	0.063
583	0.063
584	0.062
584	0.061
585	0.06
585	0.06
585	0.059
586	0.059
586	0.058
587	0.057
587	0.055
588	0.054
588	0.053
589	0.052
589	0.051
590	0.051
590	0.05
590	0.05
591	0.05
591	0.049
592	0.049
592	0.048
593	0.048
593	0.048
594	0.047
594	0.047
594	0.046
595	0.046
595	0.046
596	0.046
596	0.046
597	0.047
597	0.047
598	0.048
598	0.048
598	0.048
599	0.048
599	0.048
600	0.047
600	0.047
601	0.047
601	0.046
602	0.046
602	0.045
602	0.045
603	0.045
603	0.045
604	0.046
604	0.046
605	0.047
605	0.047
606	0.048
606	0.048
606	0.047
607	0.047
607	0.047
608	0.046
608	0.046
609	0.045
609	0.044
610	0.043
610	0.042
610	0.042
611	0.041
611	0.042
612	0.042
612	0.043
613	0.043
613	0.044
614	0.044
614	0.045
614	0.045
615	0.046
615	0.046
616	0.047
616	0.047
617	0.047
617	0.047
618	0.047
618	0.047
618	0.048
619	0.048
619	0.049
620	0.049
620	0.05
621	0.05
621	0.05
622	0.05
622	0.051
622	0.051
623	0.051
623	0.051
624	0.052
624	0.051
625	0.051
625	0.052
626	0.052
626	0.053
626	0.054
627	0.055
627	0.056
628	0.057
628	0.058
629	0.059
629	0.06
630	0.061
630	0.062
630	0.063
631	0.064
631	0.064
632	0.065
632	0.065
633	0.066
633	0.067
634	0.068
634	0.069
634	0.07
635	0.071
635	0.072
636	0.073
636	0.074
637	0.075
637	0.076
638	0.076
638	0.077
638	0.078
639	0.078
639	0.079
640	0.08
640	0.081
641	0.082
641	0.083
642	0.085
642	0.086
642	0.088
643	0.089
643	0.091
644	0.093
644	0.095
645	0.096
645	0.098
646	0.1
646	0.102
646	0.104
647	0.107
647	0.109
648	0.111
648	0.114
649	0.116
649	0.119
650	0.121
650	0.124
650	0.126
651	0.128
651	0.13
652	0.132
652	0.134
653	0.137
653	0.141
653	0.145
654	0.116
654	0.094
655	0.098
655	0.1
656	0.101
656	0.103
657	0.104
657	0.105
657	0.106
658	0.105
658	0.101
659	0.128
659	0.165
660	0.168
660	0.17
661	0.172
661	0.174
661	0.176
662	0.178
662	0.18
663	0.182
663	0.184
664	0.186
664	0.187
665	0.189
665	0.191
665	0.192
666	0.194
666	0.195
667	0.197
667	0.198
668	0.2
668	0.201
669	0.203
669	0.204
669	0.206
670	0.208
670	0.21
671	0.212
671	0.214
672	0.216
672	0.217
672	0.219
673	0.221
673	0.223
674	0.225
674	0.226
675	0.228
675	0.229
676	0.231
676	0.232
676	0.233
677	0.235
677	0.236
678	0.237
678	0.238
679	0.239
679	0.24
680	0.241
680	0.242
680	0.243
681	0.244
681	0.245
682	0.246
682	0.247
683	0.248
683	0.249
684	0.25
684	0.251
684	0.251
685	0.251
685	0.251
686	0.251
686	0.251
687	0.251
687	0.251
687	0.25
688	0.249
688	0.248
689	0.248
689	0.248
690	0.247
690	0.247
691	0.246
691	0.245
691	0.245
692	0.244
692	0.243
693	0.242
693	0.242
694	0.24
694	0.239
695	0.238
695	0.238
695	0.237
696	0.236
696	0.235
697	0.234
697	0.233
698	0.231
698	0.23
698	0.229
699	0.228
699	0.227
700	0.225
700	0.223
701	0.222
701	0.221
702	0.219
702	0.218
702	0.217
703	0.216
703	0.215
704	0.214
704	0.213
705	0.211
705	0.21
705	0.208
706	0.207
706	0.205
707	0.203
707	0.201
708	0.199
708	0.197
709	0.195
709	0.193
709	0.191
710	0.189
710	0.187
711	0.185
711	0.183
712	0.181
712	0.179
713	0.177
713	0.175
713	0.173
714	0.171
714	0.169
715	0.167
715	0.165
716	0.163
716	0.161
716	0.16
717	0.159
717	0.158
718	0.156
718	0.155
719	0.154
719	0.152
720	0.151
720	0.15
720	0.148
721	0.146
721	0.145
722	0.143
722	0.141
723	0.139
723	0.137
723	0.135
724	0.132
724	0.13
725	0.127
725	0.125
726	0.123
726	0.121
727	0.119
727	0.117
727	0.116
728	0.114
728	0.114
729	0.113
729	0.113
730	0.112
730	0.111
730	0.111
731	0.11
731	0.109
732	0.108
732	0.107
733	0.106
733	0.105
734	0.104
734	0.103
734	0.101
735	0.1
735	0.098
736	0.096
736	0.095
737	0.093
737	0.091
737	0.089
738	0.087
738	0.085
739	0.083
739	0.081
740	0.08
740	0.078
741	0.077
741	0.076
741	0.074
742	0.072
742	0.07
743	0.068
743	0.066
744	0.065
744	0.063
744	0.061
745	0.059
745	0.058
746	0.056
746	0.055
747	0.054
747	0.054
748	0.053
748	0.052
748	0.051
749	0.05
749	0.049
750	0.048
750	0.047
751	0.045
751	0.044
751	0.042
752	0.041
752	0.039
753	0.038
753	0.037
754	0.037
754	0.036
754	0.036
755	0.036
755	0.036
756	0.036
756	0.036
757	0.036
757	0.036
758	0.035
758	0.034
758	0.033
759	0.032
759	0.031
760	0.03
760	0.028
761	0.027
761	0.027
761	0.026
762	0.025
762	0.025
763	0.024
763	0.023
764	0.021
764	0.02
764	0.019
765	0.017
765	0.016
766	0.014
766	0.013
767	0.011
767	0.009
768	0.006
768	0.004
768	0.002
769	0.001
769	-0.001
770	-0.003
770	-0.004
771	-0.006
771	-0.007
771	-0.009
772	-0.01
772	-0.011
773	-0.011
773	-0.012
774	-0.014
774	-0.015
775	-0.017
775	-0.018
775	-0.021
776	-0.023
776	-0.025
777	-0.028
777	-0.03
778	-0.032
778	-0.034
778	-0.036
779	-0.038
779	-0.039
780	-0.041
780	-0.044
781	-0.046
781	-0.05
781	-0.053
782	-0.058
782	-0.062
783	-0.067
783	-0.071
784	-0.076
784	-0.082
784	-0.088
785	-0.094
785	-0.1
786	-0.106
786	-0.111
787	-0.114
787	-0.118
788	-0.124
788	-0.131
788	-0.137
789	-0.144
789	-0.148
790	-0.15
790	-0.153
791	-0.156
791	-0.158
791	-0.161
792	-0.156
792	-0.146
793	-0.14
793	-0.136
794	-0.134
794	-0.136
794	-0.139
795	-0.141
795	-0.141
796	-0.141
796	-0.144
797	-0.152
797	-0.163
797	-0.169
798	-0.175
798	-0.178
799	-0.178
799	-0.178
800	-0.177
800	-0.179
801	-0.182
801	-0.182
801	-0.182
802	-0.183
802	-0.184
803	-0.184
803	-0.184
804	-0.183
804	-0.178
804	-0.172
805	-0.168
805	-0.166
806	-0.163
806	-0.162
807	-0.161
807	-0.16
807	-0.16
808	-0.16
808	-0.161
809	-0.165
809	-0.171
810	-0.174
810	-0.177
810	-0.181
811	-0.184
811	-0.185
812	-0.181
812	-0.179
813	-0.179
813	-0.18
813	-0.182
814	-0.183
814	-0.182
815	-0.178
815	-0.174
816	-0.168
816	-0.163
817	-0.161
817	-0.157
817	-0.149
818	-0.139
818	-0.128
819	-0.116
819	-0.106
820	-0.098
820	-0.091
820	-0.085
821	-0.079
821	-0.073
822	-0.068
822	-0.063
823	-0.059
823	-0.055
823	-0.052
824	-0.049
824	-0.046
825	-0.042
825	-0.039
826	-0.036
826	-0.034
826	-0.032
827	-0.031
827	-0.029
828	-0.027
828	-0.026
829	-0.025
829	-0.024
829	-0.023
830	-0.022
830	-0.022
831	-0.021
831	-0.02
832	-0.02
832	-0.02
832	-0.019
833	-0.019
833	-0.019
834	-0.019
834	-0.019
835	-0.018
835	-0.018
835	-0.018
836	-0.017
836	-0.016
837	-0.016
837	-0.015
838	-0.014
838	-0.013
839	-0.012
839	-0.011
839	-0.01
840	-0.01
840	-0.009
841	-0.009
841	-0.009
842	-0.008
842	-0.008
842	-0.007
843	-0.007
843	-0.006
844	-0.005
844	-0.005
845	-0.004
845	-0.004
845	-0.003
846	-0.003
846	-0.003
847	-0.004
847	-0.004
848	-0.005
848	-0.006
848	-0.007
849	-0.008
849	-0.008
850	-0.009
850	-0.01
851	-0.011
851	-0.011
851	-0.012
852	-0.013
852	-0.013
853	-0.013
853	-0.013
854	-0.013
854	-0.012
854	-0.012
855	-0.012
855	-0.012
856	-0.012
856	-0.011
857	-0.011
857	-0.011
857	-0.01
858	-0.01
858	-0.01
859	-0.01
859	-0.009
860	-0.009
860	-0.008
860	-0.008
861	-0.007
861	-0.007
862	-0.007
862	-0.007
863	-0.008
863	-0.008
863	-0.009
864	-0.009
864	-0.01
865	-0.01
865	-0.01
866	-0.01
866	-0.009
866	-0.009
867	-0.008
867	-0.007
868	-0.007
868	-0.006
869	-0.006
869	-0.006
869	-0.006
870	-0.006
870	-0.006
871	-0.007
871	-0.007
872	-0.007
872	-0.007
872	-0.007
873	-0.007
873	-0.007
874	-0.007
874	-0.007
875	-0.007
875	-0.007
875	-0.007
876	-0.008
876	-0.008
877	-0.009
877	-0.009
878	-0.01
878	-0.01
878	-0.011
879	-0.011
879	-0.012
880	-0.012
880	-0.012
881	-0.012
881	-0.012
881	-0.012
882	-0.011
882	-0.011
883	-0.01
883	-0.009
884	-0.007
884	-0.006
884	-0.005
885	-0.004
885	-0.003
886	-0.002
886	-0.001
887	-0
887	0.001
887	0.001
888	0.002
888	0.002
889	0.002
889	0.002
890	0.002
890	0.002
890	0.002
891	0.001
891	0.001
892	0.001
892	0
893	-0
893	-0.001
893	-0.001
894	-0.001
894	-0.002
895	-0.002
895	-0.003
895	-0.003
896	-0.003
896	-0.003
897	-0.003
897	-0.003
898	-0.003
898	-0.003
898	-0.003
899	-0.003
899	-0.003
900	-0.003
900	-0.003
901	-0.003
901	-0.003
901	-0.003
902	-0.003
902	-0.003
903	-0.003
903	-0.003
904	-0.003
904	-0.003
904	-0.003
905	-0.003
905	-0.003
906	-0.003
906	-0.003
907	-0.003
907	-0.003
907	-0.002
908	-0.002
908	-0.003
909	-0.003
909	-0.003
910	-0.004
910	-0.005
910	-0.005
911	-0.006
911	-0.007
912	-0.007
912	-0.008
913	-0.008
913	-0.008
913	-0.008
914	-0.008
914	-0.008
915	-0.008
915	-0.008
916	-0.008
916	-0.007
916	-0.007
917	-0.007
917	-0.007
918	-0.006
918	-0.006
918	-0.006
919	-0.005
919	-0.005
920	-0.004
920	-0.003
921	-0.003
921	-0.002
921	-0.002
922	-0.001
922	-0.001
923	-0
923	-0
924	0
924	-0
924	-0.001
925	-0.001
925	-0.002
926	-0.002
926	-0.003
927	-0.004
927	-0.004
927	-0.004
928	-0.005
928	-0.005
929	-0.004
929	-0.004
930	-0.004
930	-0.003
930	-0.003
931	-0.003
931	-0.002
932	-0.002
932	-0.002
933	-0.002
933	-0.002
933	-0.002
934	-0.002
934	-0.002
935	-0.003
935	-0.003
935	-0.003
936	-0.003
936	-0.003
937	-0.003
937	-0.003
938	-0.003
938	-0.004
938	-0.004
939	-0.004
939	-0.004
940	-0.005
940	-0.005
941	-0.005
941	-0.006
941	-0.006
942	-0.006
942	-0.006
943	-0.006
943	-0.006
944	-0.005
944	-0.005
944	-0.004
945	-0.004
945	-0.004
946	-0.003
946	-0.003
946	-0.004
947	-0.004
947	-0.005
948	-0.005
948	-0.006
949	-0.007
949	-0.007
949	-0.007
950	-0.006
950	-0.006
951	-0.006
951	-0.005
952	-0.005
952	-0.004
952	-0.004
953	-0.004
953	-0.004
954	-0.004
954	-0.004
955	-0.004
955	-0.005
955	-0.005
956	-0.005
956	-0.006
957	-0.006
957	-0.007
957	-0.008
958	-0.008
958	-0.008
959	-0.009
959	-0.009
960	-0.009
960	-0.01
960	-0.01
961	-0.01
961	-0.01
962	-0.01
962	-0.01
963	-0.011
963	-0.011
963	-0.012
964	-0.013
964	-0.014
965	-0.015
965	-0.015
966	-0.016
966	-0.017
966	-0.017
967	-0.017
967	-0.017
968	-0.016
968	-0.016
968	-0.015
969	-0.014
969	-0.013
970	-0.012
970	-0.011
971	-0.01
971	-0.009
971	-0.008
972	-0.007
972	-0.006
973	-0.005
973	-0.004
974	-0.004
974	-0.003
974	-0.002
975	-0.002
975	-0.001
976	-0.001
976	-0.001
976	-0
977	-0
977	-0.001
978	-0.001
978	-0.001
979	-0.001
979	-0.002
979	-0.002
980	-0.003
980	-0.004
981	-0.005
981	-0.005
982	-0.006
982	-0.006
982	-0.007
983	-0.008
983	-0.008
984	-0.009
984	-0.009
984	-0.01
985	-0.01
985	-0.011
986	-0.011
986	-0.011
987	-0.011
987	-0.011
987	-0.011
988	-0.011
988	-0.01
989	-0.01
989	-0.009
990	-0.009
990	-0.008
990	-0.008
991	-0.008
991	-0.008
992	-0.008
992	-0.008
992	-0.009
993	-0.009
993	-0.01
994	-0.01
994	-0.01
995	-0.01
995	-0.011
995	-0.011
996	-0.01
996	-0.01
997	-0.01
997	-0.01
997	-0.009
998	-0.008
998	-0.007
999	-0.007
999	-0.006
1000	-0.006
1000	-0.006
1000	-0.006
1001	-0.006
1001	-0.006
1002	-0.007
1002	-0.008
1003	-0.009
1003	-0.01
1003	-0.011
1004	-0.011
1004	-0.012
1005	-0.012
1005	-0.013
1005	-0.013
1006	-0.013
1006	-0.013
1007	-0.012
1007	-0.012
1008	-0.012
1008	-0.012
1008	-0.012
1009	-0.012
1009	-0.012
1010	-0.012
1010	-0.013
1010	-0.013
1011	-0.013
1011	-0.013
1012	-0.013
1012	-0.013
1013	-0.012
1013	-0.012
1013	-0.012
1014	-0.012
1014	-0.011
1015	-0.011
1015	-0.01
1016	-0.01
1016	-0.009
1016	-0.009
1017	-0.008
1017	-0.008
1018	-0.007
1018	-0.007
1018	-0.006
1019	-0.006
1019	-0.005
1020	-0.005
1020	-0.004
1021	-0.004
1021	-0.004
1021	-0.003
1022	-0.003
1022	-0.003
1023	-0.003
1023	-0.003
1023	-0.003
1024	-0.003
1024	-0.003
1025	-0.003
1025	-0.003
1026	-0.003
1026	-0.003
1026	-0.003
1027	-0.003
1027	-0.003
1028	-0.004
1028	-0.004
1028	-0.005
1029	-0.005
1029	-0.006
1030	-0.007
1030	-0.008
1031	-0.009
1031	-0.01
1031	-0.011
1032	-0.012
1032	-0.012
1033	-0.013
1033	-0.013
1033	-0.014
1034	-0.015
1034	-0.015
1035	-0.015
1035	-0.015
1036	-0.015
1036	-0.015
1036	-0.015
1037	-0.016
1037	-0.015
1038	-0.015
1038	-0.015
1039	-0.014
1039	-0.014
1039	-0.013
1040	-0.013
1040	-0.013
1041	-0.012
1041	-0.012
1041	-0.012
1042	-0.012
1042	-0.012
1043	-0.012
1043	-0.012
1044	-0.012
1044	-0.012
1044	-0.012
1045	-0.012
1045	-0.012
1046	-0.011
1046	-0.011
1046	-0.011
1047	-0.01
1047	-0.01
1048	-0.009
1048	-0.008
1049	-0.007
1049	-0.007
1049	-0.007
1050	-0.006
1050	-0.007
1051	-0.007
1051	-0.007
1051	-0.006
1052	-0.007
1052	-0.007
1053	-0.007
1053	-0.007
1053	-0.007
1054	-0.008
1054	-0.008
1055	-0.008
1055	-0.008
1056	-0.009
1056	-0.009
1056	-0.01
1057	-0.011
1057	-0.011
1058	-0.011
1058	-0.012
1058	-0.012
1059	-0.012
1059	-0.012
1060	-0.012
1060	-0.011
1061	-0.011
1061	-0.011
1061	-0.01
1062	-0.011
1062	-0.01
1063	-0.01
1063	-0.01
1063	-0.01
1064	-0.01
1064	-0.01
1065	-0.011
1065	-0.011
1066	-0.012
1066	-0.012
1066	-0.013
1067	-0.013
1067	-0.013
1068	-0.013
1068	-0.013
1068	-0.014
1069	-0.014
1069	-0.014
1070	-0.013
1070	-0.012
1071	-0.012
1071	-0.011
1071	-0.011
1072	-0.011
1072	-0.01
1073	-0.009
1073	-0.008
1073	-0.008
1074	-0.007
1074	-0.006
1075	-0.005
1075	-0.005
1076	-0.004
1076	-0.004
1076	-0.003
1077	-0.002
1077	-0.002
1078	-0.001
1078	-0.001
1078	-0
1079	-0
1079	0
1080	0.001
1080	0.002
1080	0.002
1081	0.002
1081	0.003
1082	0.004
1082	0.004
1083	0.004
1083	0.005
1083	0.006
1084	0.006
1084	0.008
1085	0.008
1085	0.01
1085	0.011
1086	0.011
1086	0.012
1087	0.013
1087	0.013
1088	0.014
1088	0.014
1088	0.015
1089	0.015
1089	0.016
1090	0.016
1090	0.017
1090	0.017
1091	0.018
1091	0.019
1092	0.02
1092	0.021
1092	0.021
1093	0.022
1093	0.022
1094	0.023
1094	0.025
1095	0.026
1095	0.028
1095	0.03
1096	0.032
1096	0.034
1097	0.035
1097	0.038
1097	0.04
1098	0.043
1098	0.045
1099	0.047
1099	0.05
1100	0.053
1100	0.056
1100	0.059
1101	0.062
1101	0.066
1102	0.071
1102	0.076
1102	0.082
1103	0.088
1103	0.095
1104	0.101
1104	0.108
1104	0.117
1105	0.126
1105	0.136
1106	0.146
1106	0.157
1107	0.169
1107	0.184
1107	0.203
1108	0.257
1108	0.33
1109	0.449
1109	0.669
1109	0.912
1110	-0
1110	-0
1111	-0
1111	-0
