Data from 15c-2a_Absorbance__39__00039.txt Node

Date: Fri Jan 19 09:42:52 CET 2024
User: Marek
Spectrometer: MAYP115816
Trigger mode: 0
Integration Time (sec): 2.000000E-1
Scans to average: 10
Electric dark correction enabled: true
Nonlinearity correction enabled: true
Boxcar width: 5
XAxis mode: Wavelengths
Number of Pixels in Spectrum: 2068
>>>>>Begin Spectral Data<<<<<
199	-1.613
199	-1.458
200	-1.314
200	-1.196
201	-1.129
201	-1.076
202	-1.005
202	-0.948
203	-0.898
203	-0.855
204	-0.829
204	-0.807
205	-0.789
205	-0.779
205	-0.777
206	-0.772
206	-0.768
207	-0.764
207	-0.76
208	-0.758
208	-0.755
209	-0.753
209	-0.748
210	-0.746
210	-0.744
211	-0.742
211	-0.74
212	-0.741
212	-0.741
213	-0.74
213	-0.738
213	-0.736
214	-0.732
214	-0.731
215	-0.728
215	-0.726
216	-0.723
216	-0.723
217	-0.718
217	-0.715
218	-0.713
218	-0.71
219	-0.707
219	-0.707
220	-0.705
220	-0.704
221	-0.703
221	-0.697
221	-0.693
222	-0.691
222	-0.687
223	-0.681
223	-0.677
224	-0.67
224	-0.664
225	-0.657
225	-0.647
226	-0.637
226	-0.628
227	-0.616
227	-0.602
228	-0.588
228	-0.574
229	-0.555
229	-0.536
229	-0.513
230	-0.488
230	-0.461
231	-0.431
231	-0.4
232	-0.367
232	-0.332
233	-0.294
233	-0.257
234	-0.22
234	-0.184
235	-0.15
235	-0.117
236	-0.085
236	-0.056
236	-0.028
237	-0.002
237	0.022
238	0.044
238	0.063
239	0.081
239	0.097
240	0.111
240	0.125
241	0.137
241	0.148
242	0.158
242	0.167
243	0.175
243	0.182
243	0.189
244	0.196
244	0.202
245	0.207
245	0.212
246	0.217
246	0.221
247	0.225
247	0.228
248	0.232
248	0.235
249	0.238
249	0.241
250	0.244
250	0.247
250	0.249
251	0.252
251	0.254
252	0.256
252	0.259
253	0.261
253	0.263
254	0.265
254	0.267
255	0.268
255	0.27
256	0.271
256	0.272
257	0.273
257	0.274
258	0.274
258	0.275
258	0.275
259	0.276
259	0.276
260	0.276
260	0.276
261	0.276
261	0.276
262	0.276
262	0.276
263	0.275
263	0.275
264	0.275
264	0.274
265	0.273
265	0.273
265	0.272
266	0.271
266	0.271
267	0.269
267	0.268
268	0.267
268	0.266
269	0.265
269	0.263
270	0.262
270	0.26
271	0.258
271	0.257
272	0.255
272	0.254
272	0.252
273	0.25
273	0.248
274	0.247
274	0.245
275	0.243
275	0.241
276	0.239
276	0.238
277	0.235
277	0.233
278	0.231
278	0.229
278	0.228
279	0.226
279	0.224
280	0.222
280	0.22
281	0.218
281	0.217
282	0.215
282	0.214
283	0.212
283	0.21
284	0.209
284	0.207
285	0.206
285	0.204
285	0.203
286	0.201
286	0.199
287	0.198
287	0.197
288	0.195
288	0.194
289	0.193
289	0.192
290	0.19
290	0.189
291	0.188
291	0.187
292	0.186
292	0.185
292	0.183
293	0.182
293	0.182
294	0.181
294	0.18
295	0.179
295	0.178
296	0.178
296	0.177
297	0.177
297	0.176
298	0.176
298	0.175
298	0.174
299	0.174
299	0.173
300	0.173
300	0.172
301	0.172
301	0.171
302	0.171
302	0.171
303	0.17
303	0.17
304	0.169
304	0.169
305	0.169
305	0.169
305	0.168
306	0.168
306	0.168
307	0.167
307	0.167
308	0.167
308	0.166
309	0.166
309	0.165
310	0.165
310	0.164
311	0.164
311	0.163
311	0.163
312	0.163
312	0.163
313	0.162
313	0.162
314	0.161
314	0.161
315	0.161
315	0.16
316	0.16
316	0.159
317	0.159
317	0.158
318	0.158
318	0.157
318	0.157
319	0.157
319	0.157
320	0.156
320	0.156
321	0.156
321	0.155
322	0.155
322	0.154
323	0.154
323	0.154
324	0.153
324	0.153
324	0.152
325	0.152
325	0.152
326	0.151
326	0.151
327	0.15
327	0.15
328	0.149
328	0.149
329	0.148
329	0.148
330	0.147
330	0.147
330	0.146
331	0.146
331	0.145
332	0.145
332	0.145
333	0.144
333	0.144
334	0.144
334	0.143
335	0.143
335	0.142
336	0.142
336	0.141
336	0.141
337	0.14
337	0.14
338	0.14
338	0.139
339	0.139
339	0.139
340	0.138
340	0.138
341	0.138
341	0.138
342	0.138
342	0.137
342	0.137
343	0.137
343	0.136
344	0.136
344	0.136
345	0.135
345	0.135
346	0.135
346	0.134
347	0.134
347	0.134
348	0.133
348	0.133
348	0.133
349	0.133
349	0.133
350	0.132
350	0.132
351	0.132
351	0.132
352	0.131
352	0.131
353	0.131
353	0.131
354	0.13
354	0.13
354	0.129
355	0.129
355	0.129
356	0.129
356	0.128
357	0.128
357	0.128
358	0.128
358	0.128
359	0.128
359	0.128
360	0.128
360	0.128
360	0.128
361	0.128
361	0.128
362	0.128
362	0.128
363	0.128
363	0.128
364	0.128
364	0.128
365	0.127
365	0.127
366	0.127
366	0.127
366	0.127
367	0.127
367	0.127
368	0.126
368	0.126
369	0.126
369	0.126
370	0.126
370	0.125
371	0.125
371	0.125
372	0.125
372	0.124
372	0.124
373	0.124
373	0.124
374	0.124
374	0.124
375	0.123
375	0.123
376	0.123
376	0.123
377	0.123
377	0.123
378	0.123
378	0.123
378	0.123
379	0.123
379	0.123
380	0.123
380	0.123
381	0.123
381	0.123
382	0.123
382	0.123
383	0.123
383	0.122
383	0.122
384	0.122
384	0.121
385	0.121
385	0.121
386	0.121
386	0.12
387	0.12
387	0.12
388	0.12
388	0.12
389	0.12
389	0.12
389	0.12
390	0.12
390	0.12
391	0.119
391	0.12
392	0.119
392	0.119
393	0.119
393	0.119
394	0.119
394	0.118
394	0.118
395	0.118
395	0.118
396	0.118
396	0.118
397	0.118
397	0.118
398	0.118
398	0.118
399	0.118
399	0.117
400	0.118
400	0.118
400	0.118
401	0.117
401	0.117
402	0.117
402	0.117
403	0.116
403	0.116
404	0.116
404	0.116
405	0.115
405	0.115
405	0.115
406	0.115
406	0.114
407	0.114
407	0.114
408	0.114
408	0.113
409	0.113
409	0.113
410	0.112
410	0.112
411	0.112
411	0.112
411	0.112
412	0.112
412	0.112
413	0.112
413	0.112
414	0.112
414	0.112
415	0.112
415	0.112
416	0.112
416	0.111
416	0.111
417	0.111
417	0.111
418	0.111
418	0.111
419	0.111
419	0.111
420	0.111
420	0.111
421	0.111
421	0.111
421	0.111
422	0.111
422	0.111
423	0.111
423	0.111
424	0.111
424	0.111
425	0.11
425	0.11
426	0.11
426	0.11
427	0.11
427	0.11
427	0.11
428	0.11
428	0.11
429	0.11
429	0.11
430	0.11
430	0.11
431	0.11
431	0.109
432	0.109
432	0.109
432	0.108
433	0.108
433	0.107
434	0.107
434	0.107
435	0.107
435	0.107
436	0.107
436	0.107
437	0.107
437	0.107
437	0.107
438	0.107
438	0.107
439	0.107
439	0.107
440	0.107
440	0.106
441	0.106
441	0.106
442	0.106
442	0.106
442	0.106
443	0.106
443	0.106
444	0.106
444	0.106
445	0.106
445	0.106
446	0.106
446	0.106
447	0.106
447	0.106
447	0.106
448	0.106
448	0.106
449	0.105
449	0.105
450	0.105
450	0.105
451	0.105
451	0.105
452	0.105
452	0.105
452	0.104
453	0.104
453	0.104
454	0.104
454	0.104
455	0.104
455	0.103
456	0.103
456	0.103
457	0.103
457	0.103
458	0.103
458	0.103
458	0.103
459	0.103
459	0.103
460	0.103
460	0.102
461	0.102
461	0.102
462	0.102
462	0.103
463	0.103
463	0.103
463	0.103
464	0.104
464	0.104
465	0.104
465	0.104
466	0.104
466	0.104
467	0.104
467	0.104
467	0.103
468	0.103
468	0.102
469	0.102
469	0.102
470	0.101
470	0.101
471	0.101
471	0.101
472	0.101
472	0.102
472	0.102
473	0.102
473	0.103
474	0.104
474	0.104
475	0.105
475	0.105
476	0.106
476	0.106
477	0.106
477	0.106
477	0.106
478	0.106
478	0.106
479	0.106
479	0.106
480	0.106
480	0.107
481	0.107
481	0.107
482	0.108
482	0.109
482	0.109
483	0.11
483	0.111
484	0.113
484	0.114
485	0.114
485	0.115
486	0.116
486	0.116
487	0.117
487	0.117
487	0.117
488	0.117
488	0.117
489	0.117
489	0.118
490	0.118
490	0.118
491	0.118
491	0.119
492	0.119
492	0.119
492	0.12
493	0.12
493	0.121
494	0.122
494	0.123
495	0.124
495	0.124
496	0.125
496	0.126
496	0.127
497	0.128
497	0.129
498	0.13
498	0.131
499	0.132
499	0.132
500	0.133
500	0.134
501	0.135
501	0.137
501	0.138
502	0.139
502	0.14
503	0.141
503	0.142
504	0.142
504	0.143
505	0.143
505	0.144
506	0.144
506	0.145
506	0.145
507	0.146
507	0.146
508	0.147
508	0.147
509	0.148
509	0.149
510	0.149
510	0.15
511	0.151
511	0.152
511	0.152
512	0.153
512	0.153
513	0.153
513	0.153
514	0.154
514	0.154
515	0.154
515	0.154
515	0.154
516	0.154
516	0.154
517	0.154
517	0.155
518	0.155
518	0.155
519	0.156
519	0.156
520	0.155
520	0.155
520	0.154
521	0.154
521	0.154
522	0.153
522	0.152
523	0.151
523	0.151
524	0.15
524	0.15
524	0.15
525	0.151
525	0.151
526	0.152
526	0.153
527	0.154
527	0.155
528	0.156
528	0.157
529	0.158
529	0.158
529	0.159
530	0.159
530	0.159
531	0.159
531	0.158
532	0.158
532	0.158
533	0.158
533	0.157
533	0.156
534	0.156
534	0.155
535	0.155
535	0.154
536	0.154
536	0.153
537	0.153
537	0.152
538	0.152
538	0.151
538	0.15
539	0.15
539	0.149
540	0.148
540	0.147
541	0.146
541	0.146
542	0.145
542	0.144
542	0.143
543	0.142
543	0.142
544	0.141
544	0.14
545	0.14
545	0.14
546	0.139
546	0.138
547	0.138
547	0.137
547	0.136
548	0.134
548	0.133
549	0.132
549	0.13
550	0.129
550	0.128
551	0.127
551	0.126
551	0.125
552	0.124
552	0.124
553	0.124
553	0.123
554	0.123
554	0.122
555	0.121
555	0.12
556	0.119
556	0.118
556	0.117
557	0.116
557	0.115
558	0.113
558	0.112
559	0.112
559	0.111
560	0.111
560	0.11
560	0.109
561	0.109
561	0.108
562	0.108
562	0.107
563	0.106
563	0.105
564	0.104
564	0.103
564	0.102
565	0.101
565	0.1
566	0.1
566	0.099
567	0.099
567	0.099
568	0.099
568	0.099
568	0.1
569	0.1
569	0.1
570	0.1
570	0.1
571	0.1
571	0.1
572	0.1
572	0.099
573	0.099
573	0.099
573	0.098
574	0.098
574	0.097
575	0.097
575	0.097
576	0.097
576	0.097
577	0.096
577	0.096
577	0.095
578	0.095
578	0.094
579	0.094
579	0.093
580	0.093
580	0.092
581	0.092
581	0.091
581	0.09
582	0.09
582	0.089
583	0.089
583	0.089
584	0.089
584	0.088
585	0.087
585	0.086
585	0.086
586	0.086
586	0.085
587	0.085
587	0.084
588	0.082
588	0.081
589	0.08
589	0.079
590	0.079
590	0.079
590	0.078
591	0.078
591	0.078
592	0.078
592	0.078
593	0.077
593	0.077
594	0.077
594	0.077
594	0.076
595	0.076
595	0.076
596	0.075
596	0.075
597	0.075
597	0.075
598	0.076
598	0.076
598	0.076
599	0.076
599	0.076
600	0.076
600	0.075
601	0.075
601	0.075
602	0.074
602	0.074
602	0.074
603	0.073
603	0.073
604	0.074
604	0.074
605	0.074
605	0.075
606	0.075
606	0.075
606	0.075
607	0.074
607	0.074
608	0.074
608	0.073
609	0.072
609	0.072
610	0.07
610	0.07
610	0.069
611	0.069
611	0.069
612	0.069
612	0.069
613	0.069
613	0.07
614	0.07
614	0.07
614	0.071
615	0.071
615	0.071
616	0.071
616	0.071
617	0.072
617	0.072
618	0.071
618	0.071
618	0.071
619	0.071
619	0.071
620	0.072
620	0.072
621	0.072
621	0.073
622	0.073
622	0.072
622	0.072
623	0.072
623	0.073
624	0.073
624	0.073
625	0.073
625	0.073
626	0.073
626	0.073
626	0.073
627	0.074
627	0.075
628	0.075
628	0.076
629	0.076
629	0.077
630	0.077
630	0.077
630	0.078
631	0.078
631	0.079
632	0.079
632	0.079
633	0.08
633	0.08
634	0.081
634	0.082
634	0.084
635	0.085
635	0.085
636	0.086
636	0.087
637	0.087
637	0.088
638	0.088
638	0.088
638	0.089
639	0.089
639	0.089
640	0.09
640	0.091
641	0.092
641	0.094
642	0.095
642	0.096
642	0.098
643	0.099
643	0.101
644	0.102
644	0.104
645	0.105
645	0.107
646	0.108
646	0.11
646	0.112
647	0.114
647	0.117
648	0.119
648	0.121
649	0.123
649	0.125
650	0.127
650	0.129
650	0.131
651	0.133
651	0.134
652	0.136
652	0.138
653	0.14
653	0.143
653	0.145
654	0.116
654	0.094
655	0.099
655	0.101
656	0.102
656	0.103
657	0.104
657	0.105
657	0.106
658	0.106
658	0.102
659	0.129
659	0.166
660	0.167
660	0.168
661	0.17
661	0.171
661	0.173
662	0.175
662	0.177
663	0.179
663	0.182
664	0.184
664	0.186
665	0.188
665	0.19
665	0.192
666	0.194
666	0.195
667	0.197
667	0.198
668	0.2
668	0.201
669	0.202
669	0.203
669	0.205
670	0.206
670	0.207
671	0.208
671	0.209
672	0.211
672	0.212
672	0.213
673	0.214
673	0.215
674	0.217
674	0.218
675	0.22
675	0.221
676	0.222
676	0.224
676	0.225
677	0.227
677	0.228
678	0.229
678	0.231
679	0.232
679	0.233
680	0.234
680	0.235
680	0.235
681	0.236
681	0.237
682	0.238
682	0.238
683	0.239
683	0.24
684	0.241
684	0.242
684	0.242
685	0.243
685	0.244
686	0.244
686	0.244
687	0.244
687	0.244
687	0.244
688	0.243
688	0.242
689	0.242
689	0.241
690	0.241
690	0.24
691	0.239
691	0.239
691	0.238
692	0.238
692	0.237
693	0.236
693	0.236
694	0.235
694	0.234
695	0.234
695	0.234
695	0.234
696	0.233
696	0.232
697	0.231
697	0.23
698	0.229
698	0.228
698	0.228
699	0.227
699	0.226
700	0.224
700	0.223
701	0.221
701	0.22
702	0.219
702	0.219
702	0.218
703	0.217
703	0.215
704	0.214
704	0.214
705	0.213
705	0.213
705	0.212
706	0.211
706	0.21
707	0.209
707	0.208
708	0.207
708	0.206
709	0.204
709	0.203
709	0.201
710	0.199
710	0.197
711	0.195
711	0.193
712	0.191
712	0.189
713	0.187
713	0.185
713	0.184
714	0.182
714	0.18
715	0.179
715	0.177
716	0.176
716	0.174
716	0.172
717	0.171
717	0.17
718	0.168
718	0.166
719	0.165
719	0.163
720	0.162
720	0.16
720	0.159
721	0.157
721	0.156
722	0.155
722	0.153
723	0.152
723	0.15
723	0.149
724	0.147
724	0.145
725	0.143
725	0.142
726	0.14
726	0.138
727	0.136
727	0.135
727	0.134
728	0.132
728	0.131
729	0.13
729	0.129
730	0.128
730	0.128
730	0.127
731	0.126
731	0.125
732	0.125
732	0.124
733	0.123
733	0.123
734	0.122
734	0.121
734	0.119
735	0.118
735	0.116
736	0.115
736	0.113
737	0.111
737	0.109
737	0.108
738	0.106
738	0.104
739	0.102
739	0.101
740	0.1
740	0.1
741	0.099
741	0.098
741	0.097
742	0.095
742	0.094
743	0.093
743	0.092
744	0.09
744	0.089
744	0.088
745	0.086
745	0.085
746	0.083
746	0.083
747	0.082
747	0.082
748	0.082
748	0.081
748	0.08
749	0.079
749	0.078
750	0.077
750	0.076
751	0.074
751	0.073
751	0.072
752	0.071
752	0.069
753	0.068
753	0.067
754	0.066
754	0.065
754	0.064
755	0.064
755	0.064
756	0.063
756	0.063
757	0.062
757	0.061
758	0.06
758	0.06
758	0.059
759	0.059
759	0.058
760	0.057
760	0.055
761	0.054
761	0.053
761	0.052
762	0.051
762	0.05
763	0.049
763	0.048
764	0.046
764	0.044
764	0.042
765	0.04
765	0.037
766	0.035
766	0.033
767	0.031
767	0.029
768	0.026
768	0.024
768	0.022
769	0.02
769	0.019
770	0.017
770	0.016
771	0.014
771	0.012
771	0.01
772	0.009
772	0.007
773	0.006
773	0.004
774	0.002
774	-0
775	-0.002
775	-0.004
775	-0.006
776	-0.009
776	-0.011
777	-0.013
777	-0.016
778	-0.019
778	-0.022
778	-0.025
779	-0.028
779	-0.031
780	-0.035
780	-0.039
781	-0.044
781	-0.05
781	-0.055
782	-0.062
782	-0.068
783	-0.074
783	-0.08
784	-0.087
784	-0.095
784	-0.102
785	-0.11
785	-0.118
786	-0.125
786	-0.129
787	-0.131
787	-0.133
788	-0.138
788	-0.144
788	-0.149
789	-0.153
789	-0.155
790	-0.155
790	-0.156
791	-0.156
791	-0.158
791	-0.161
792	-0.156
792	-0.145
793	-0.139
793	-0.135
794	-0.133
794	-0.135
794	-0.138
795	-0.14
795	-0.14
796	-0.14
796	-0.143
797	-0.151
797	-0.162
797	-0.169
798	-0.174
798	-0.177
799	-0.178
799	-0.177
800	-0.177
800	-0.178
801	-0.181
801	-0.182
801	-0.181
802	-0.182
802	-0.183
803	-0.183
803	-0.183
804	-0.182
804	-0.177
804	-0.171
805	-0.167
805	-0.165
806	-0.163
806	-0.161
807	-0.16
807	-0.16
807	-0.16
808	-0.159
808	-0.16
809	-0.165
809	-0.17
810	-0.174
810	-0.176
810	-0.18
811	-0.183
811	-0.184
812	-0.181
812	-0.178
813	-0.178
813	-0.179
813	-0.181
814	-0.182
814	-0.182
815	-0.18
815	-0.177
816	-0.173
816	-0.17
817	-0.168
817	-0.165
817	-0.157
818	-0.148
818	-0.137
819	-0.125
819	-0.114
820	-0.104
820	-0.095
820	-0.087
821	-0.079
821	-0.072
822	-0.065
822	-0.059
823	-0.054
823	-0.049
823	-0.045
824	-0.04
824	-0.035
825	-0.03
825	-0.024
826	-0.02
826	-0.016
826	-0.013
827	-0.01
827	-0.007
828	-0.004
828	-0.002
829	-0
829	0.001
829	0.003
830	0.003
830	0.004
831	0.005
831	0.005
832	0.006
832	0.006
832	0.006
833	0.006
833	0.006
834	0.006
834	0.006
835	0.006
835	0.006
835	0.006
836	0.006
836	0.007
837	0.007
837	0.008
838	0.009
838	0.009
839	0.01
839	0.011
839	0.012
840	0.013
840	0.014
841	0.014
841	0.015
842	0.015
842	0.016
842	0.017
843	0.017
843	0.018
844	0.018
844	0.018
845	0.018
845	0.019
845	0.018
846	0.018
846	0.018
847	0.017
847	0.017
848	0.016
848	0.016
848	0.015
849	0.014
849	0.014
850	0.013
850	0.013
851	0.013
851	0.012
851	0.012
852	0.013
852	0.013
853	0.013
853	0.014
854	0.015
854	0.015
854	0.016
855	0.016
855	0.016
856	0.017
856	0.017
857	0.018
857	0.018
857	0.019
858	0.019
858	0.019
859	0.02
859	0.02
860	0.021
860	0.021
860	0.022
861	0.022
861	0.023
862	0.023
862	0.023
863	0.023
863	0.023
863	0.022
864	0.022
864	0.021
865	0.021
865	0.02
866	0.02
866	0.019
866	0.019
867	0.019
867	0.018
868	0.018
868	0.018
869	0.018
869	0.018
869	0.018
870	0.018
870	0.019
871	0.019
871	0.019
872	0.02
872	0.021
872	0.021
873	0.022
873	0.022
874	0.022
874	0.022
875	0.022
875	0.021
875	0.021
876	0.02
876	0.02
877	0.019
877	0.018
878	0.018
878	0.017
878	0.016
879	0.016
879	0.016
880	0.015
880	0.015
881	0.015
881	0.015
881	0.016
882	0.016
882	0.017
883	0.018
883	0.019
884	0.02
884	0.022
884	0.022
885	0.024
885	0.024
886	0.025
886	0.025
887	0.025
887	0.025
887	0.025
888	0.024
888	0.024
889	0.024
889	0.024
890	0.023
890	0.023
890	0.023
891	0.023
891	0.023
892	0.024
892	0.025
893	0.025
893	0.026
893	0.026
894	0.026
894	0.026
895	0.027
895	0.027
895	0.027
896	0.027
896	0.026
897	0.026
897	0.026
898	0.026
898	0.026
898	0.025
899	0.025
899	0.025
900	0.025
900	0.025
901	0.025
901	0.024
901	0.024
902	0.023
902	0.023
903	0.022
903	0.022
904	0.021
904	0.02
904	0.019
905	0.019
905	0.018
906	0.018
906	0.018
907	0.017
907	0.017
907	0.018
908	0.018
908	0.019
909	0.019
909	0.019
910	0.02
910	0.02
910	0.02
911	0.02
911	0.02
912	0.02
912	0.02
913	0.02
913	0.02
913	0.02
914	0.02
914	0.02
915	0.021
915	0.021
916	0.021
916	0.021
916	0.021
917	0.021
917	0.021
918	0.022
918	0.022
918	0.022
919	0.022
919	0.023
920	0.023
920	0.023
921	0.023
921	0.023
921	0.023
922	0.023
922	0.023
923	0.023
923	0.023
924	0.023
924	0.022
924	0.021
925	0.021
925	0.02
926	0.02
926	0.019
927	0.018
927	0.017
927	0.017
928	0.016
928	0.016
929	0.016
929	0.016
930	0.016
930	0.016
930	0.017
931	0.017
931	0.018
932	0.018
932	0.018
933	0.018
933	0.017
933	0.016
934	0.016
934	0.015
935	0.014
935	0.014
935	0.013
936	0.012
936	0.012
937	0.012
937	0.012
938	0.012
938	0.013
938	0.014
939	0.014
939	0.015
940	0.015
940	0.015
941	0.016
941	0.016
941	0.017
942	0.017
942	0.017
943	0.018
943	0.019
944	0.019
944	0.02
944	0.02
945	0.021
945	0.021
946	0.022
946	0.022
946	0.022
947	0.022
947	0.021
948	0.021
948	0.02
949	0.02
949	0.02
949	0.019
950	0.019
950	0.018
951	0.018
951	0.018
952	0.018
952	0.018
952	0.018
953	0.018
953	0.018
954	0.017
954	0.017
955	0.017
955	0.017
955	0.016
956	0.016
956	0.015
957	0.014
957	0.014
957	0.013
958	0.012
958	0.012
959	0.011
959	0.011
960	0.01
960	0.01
960	0.01
961	0.01
961	0.011
962	0.011
962	0.011
963	0.012
963	0.012
963	0.012
964	0.012
964	0.012
965	0.012
965	0.012
966	0.013
966	0.013
966	0.013
967	0.013
967	0.013
968	0.013
968	0.013
968	0.013
969	0.013
969	0.014
970	0.013
970	0.013
971	0.013
971	0.013
971	0.013
972	0.013
972	0.014
973	0.014
973	0.014
974	0.015
974	0.015
974	0.016
975	0.016
975	0.017
976	0.018
976	0.018
976	0.019
977	0.019
977	0.019
978	0.019
978	0.019
979	0.019
979	0.02
979	0.019
980	0.019
980	0.019
981	0.019
981	0.019
982	0.02
982	0.02
982	0.02
983	0.02
983	0.02
984	0.02
984	0.02
984	0.02
985	0.019
985	0.019
986	0.018
986	0.018
987	0.018
987	0.017
987	0.017
988	0.017
988	0.017
989	0.018
989	0.018
990	0.019
990	0.019
990	0.02
991	0.02
991	0.02
992	0.02
992	0.02
992	0.02
993	0.02
993	0.019
994	0.019
994	0.018
995	0.018
995	0.017
995	0.017
996	0.016
996	0.016
997	0.016
997	0.017
997	0.017
998	0.018
998	0.018
999	0.019
999	0.019
1000	0.02
1000	0.02
1000	0.02
1001	0.02
1001	0.019
1002	0.019
1002	0.018
1003	0.017
1003	0.017
1003	0.016
1004	0.015
1004	0.015
1005	0.014
1005	0.014
1005	0.014
1006	0.014
1006	0.014
1007	0.014
1007	0.014
1008	0.014
1008	0.014
1008	0.014
1009	0.014
1009	0.013
1010	0.013
1010	0.012
1010	0.012
1011	0.012
1011	0.011
1012	0.011
1012	0.011
1013	0.011
1013	0.011
1013	0.012
1014	0.012
1014	0.012
1015	0.013
1015	0.014
1016	0.014
1016	0.014
1016	0.015
1017	0.015
1017	0.015
1018	0.015
1018	0.015
1018	0.015
1019	0.015
1019	0.015
1020	0.015
1020	0.015
1021	0.015
1021	0.015
1021	0.015
1022	0.015
1022	0.015
1023	0.015
1023	0.015
1023	0.015
1024	0.014
1024	0.014
1025	0.014
1025	0.014
1026	0.014
1026	0.014
1026	0.013
1027	0.013
1027	0.013
1028	0.013
1028	0.012
1028	0.012
1029	0.011
1029	0.01
1030	0.01
1030	0.009
1031	0.008
1031	0.007
1031	0.007
1032	0.006
1032	0.006
1033	0.005
1033	0.005
1033	0.005
1034	0.005
1034	0.005
1035	0.005
1035	0.006
1036	0.006
1036	0.006
1036	0.007
1037	0.007
1037	0.008
1038	0.008
1038	0.009
1039	0.009
1039	0.01
1039	0.01
1040	0.011
1040	0.011
1041	0.011
1041	0.011
1041	0.011
1042	0.011
1042	0.011
1043	0.011
1043	0.011
1044	0.011
1044	0.011
1044	0.01
1045	0.011
1045	0.011
1046	0.011
1046	0.012
1046	0.012
1047	0.013
1047	0.014
1048	0.015
1048	0.016
1049	0.017
1049	0.018
1049	0.019
1050	0.02
1050	0.02
1051	0.021
1051	0.022
1051	0.022
1052	0.023
1052	0.024
1053	0.024
1053	0.025
1053	0.025
1054	0.025
1054	0.026
1055	0.026
1055	0.026
1056	0.026
1056	0.026
1056	0.025
1057	0.025
1057	0.026
1058	0.025
1058	0.025
1058	0.026
1059	0.026
1059	0.026
1060	0.026
1060	0.027
1061	0.027
1061	0.027
1061	0.027
1062	0.027
1062	0.027
1063	0.027
1063	0.027
1063	0.026
1064	0.026
1064	0.026
1065	0.026
1065	0.025
1066	0.025
1066	0.025
1066	0.024
1067	0.024
1067	0.024
1068	0.024
1068	0.023
1068	0.023
1069	0.024
1069	0.024
1070	0.025
1070	0.025
1071	0.026
1071	0.026
1071	0.027
1072	0.028
1072	0.029
1073	0.03
1073	0.03
1073	0.031
1074	0.032
1074	0.032
1075	0.033
1075	0.034
1076	0.034
1076	0.035
1076	0.036
1077	0.036
1077	0.037
1078	0.037
1078	0.038
1078	0.039
1079	0.039
1079	0.04
1080	0.041
1080	0.042
1080	0.042
1081	0.043
1081	0.043
1082	0.044
1082	0.045
1083	0.046
1083	0.047
1083	0.048
1084	0.049
1084	0.05
1085	0.051
1085	0.053
1085	0.054
1086	0.055
1086	0.056
1087	0.057
1087	0.058
1088	0.059
1088	0.061
1088	0.062
1089	0.063
1089	0.065
1090	0.066
1090	0.068
1090	0.071
1091	0.072
1091	0.075
1092	0.077
1092	0.08
1092	0.081
1093	0.083
1093	0.085
1094	0.087
1094	0.091
1095	0.093
1095	0.096
1095	0.1
1096	0.103
1096	0.106
1097	0.11
1097	0.114
1097	0.119
1098	0.124
1098	0.128
1099	0.133
1099	0.139
1100	0.145
1100	0.152
1100	0.16
1101	0.168
1101	0.177
1102	0.187
1102	0.198
1102	0.209
1103	0.223
1103	0.237
1104	0.251
1104	0.267
1104	0.285
1105	0.306
1105	0.325
1106	0.348
1106	0.375
1107	0.407
1107	0.449
1107	0.506
1108	0.675
1108	1.046
1109	-0
1109	-0
1109	-0
1110	-0
1110	-0
1111	-0
1111	-0
