Data from 15c-2a_Absorbance__153__00153.txt Node

Date: Fri Jan 19 09:46:40 CET 2024
User: Marek
Spectrometer: MAYP115816
Trigger mode: 0
Integration Time (sec): 2.000000E-1
Scans to average: 10
Electric dark correction enabled: true
Nonlinearity correction enabled: true
Boxcar width: 5
XAxis mode: Wavelengths
Number of Pixels in Spectrum: 2068
>>>>>Begin Spectral Data<<<<<
199	-1.513
199	-1.359
200	-1.218
200	-1.102
201	-1.036
201	-0.984
202	-0.917
202	-0.862
203	-0.813
203	-0.773
204	-0.748
204	-0.725
205	-0.707
205	-0.697
205	-0.696
206	-0.691
206	-0.687
207	-0.682
207	-0.678
208	-0.677
208	-0.673
209	-0.671
209	-0.666
210	-0.664
210	-0.662
211	-0.661
211	-0.659
212	-0.659
212	-0.66
213	-0.659
213	-0.656
213	-0.656
214	-0.652
214	-0.651
215	-0.648
215	-0.647
216	-0.644
216	-0.645
217	-0.64
217	-0.638
218	-0.635
218	-0.632
219	-0.629
219	-0.628
220	-0.627
220	-0.626
221	-0.624
221	-0.618
221	-0.613
222	-0.611
222	-0.608
223	-0.602
223	-0.598
224	-0.592
224	-0.585
225	-0.579
225	-0.569
226	-0.559
226	-0.55
227	-0.539
227	-0.526
228	-0.512
228	-0.498
229	-0.481
229	-0.462
229	-0.439
230	-0.415
230	-0.387
231	-0.358
231	-0.327
232	-0.295
232	-0.261
233	-0.225
233	-0.188
234	-0.153
234	-0.118
235	-0.086
235	-0.054
236	-0.025
236	0.002
236	0.029
237	0.053
237	0.075
238	0.095
238	0.112
239	0.129
239	0.144
240	0.158
240	0.17
241	0.181
241	0.192
242	0.201
242	0.209
243	0.216
243	0.223
243	0.23
244	0.235
244	0.24
245	0.245
245	0.25
246	0.254
246	0.258
247	0.262
247	0.265
248	0.268
248	0.271
249	0.274
249	0.277
250	0.279
250	0.282
250	0.284
251	0.286
251	0.288
252	0.29
252	0.292
253	0.294
253	0.296
254	0.298
254	0.3
255	0.301
255	0.302
256	0.304
256	0.304
257	0.305
257	0.306
258	0.307
258	0.307
258	0.308
259	0.308
259	0.308
260	0.308
260	0.308
261	0.308
261	0.308
262	0.308
262	0.307
263	0.307
263	0.307
264	0.306
264	0.305
265	0.304
265	0.304
265	0.303
266	0.302
266	0.301
267	0.299
267	0.298
268	0.297
268	0.295
269	0.294
269	0.292
270	0.29
270	0.289
271	0.287
271	0.285
272	0.283
272	0.281
272	0.28
273	0.278
273	0.276
274	0.274
274	0.272
275	0.27
275	0.268
276	0.266
276	0.264
277	0.262
277	0.259
278	0.257
278	0.255
278	0.253
279	0.251
279	0.248
280	0.246
280	0.244
281	0.242
281	0.24
282	0.238
282	0.237
283	0.235
283	0.233
284	0.231
284	0.23
285	0.228
285	0.226
285	0.224
286	0.223
286	0.221
287	0.219
287	0.218
288	0.216
288	0.215
289	0.213
289	0.212
290	0.21
290	0.209
291	0.208
291	0.206
292	0.205
292	0.204
292	0.203
293	0.202
293	0.201
294	0.2
294	0.199
295	0.198
295	0.197
296	0.196
296	0.196
297	0.195
297	0.194
298	0.193
298	0.193
298	0.192
299	0.192
299	0.191
300	0.191
300	0.19
301	0.189
301	0.189
302	0.188
302	0.188
303	0.187
303	0.187
304	0.186
304	0.186
305	0.185
305	0.185
305	0.184
306	0.184
306	0.183
307	0.183
307	0.182
308	0.182
308	0.181
309	0.181
309	0.181
310	0.18
310	0.18
311	0.179
311	0.179
311	0.178
312	0.178
312	0.178
313	0.177
313	0.177
314	0.176
314	0.176
315	0.175
315	0.175
316	0.174
316	0.174
317	0.173
317	0.173
318	0.172
318	0.172
318	0.171
319	0.171
319	0.17
320	0.169
320	0.169
321	0.168
321	0.168
322	0.167
322	0.166
323	0.166
323	0.165
324	0.165
324	0.164
324	0.163
325	0.163
325	0.163
326	0.162
326	0.162
327	0.161
327	0.161
328	0.161
328	0.16
329	0.16
329	0.159
330	0.159
330	0.159
330	0.158
331	0.157
331	0.157
332	0.157
332	0.156
333	0.156
333	0.155
334	0.155
334	0.154
335	0.154
335	0.153
336	0.153
336	0.152
336	0.152
337	0.151
337	0.151
338	0.15
338	0.15
339	0.149
339	0.149
340	0.149
340	0.148
341	0.148
341	0.148
342	0.148
342	0.148
342	0.147
343	0.147
343	0.147
344	0.146
344	0.146
345	0.146
345	0.145
346	0.145
346	0.144
347	0.144
347	0.143
348	0.143
348	0.143
348	0.143
349	0.143
349	0.142
350	0.142
350	0.142
351	0.142
351	0.142
352	0.141
352	0.141
353	0.141
353	0.141
354	0.14
354	0.14
354	0.14
355	0.139
355	0.139
356	0.139
356	0.139
357	0.139
357	0.138
358	0.138
358	0.138
359	0.138
359	0.138
360	0.138
360	0.138
360	0.138
361	0.138
361	0.138
362	0.138
362	0.138
363	0.138
363	0.138
364	0.137
364	0.137
365	0.137
365	0.137
366	0.136
366	0.136
366	0.136
367	0.136
367	0.136
368	0.136
368	0.135
369	0.135
369	0.135
370	0.135
370	0.135
371	0.135
371	0.135
372	0.134
372	0.134
372	0.134
373	0.134
373	0.134
374	0.134
374	0.133
375	0.133
375	0.133
376	0.133
376	0.133
377	0.133
377	0.132
378	0.133
378	0.133
378	0.132
379	0.133
379	0.133
380	0.133
380	0.133
381	0.132
381	0.132
382	0.132
382	0.132
383	0.132
383	0.131
383	0.131
384	0.131
384	0.131
385	0.13
385	0.13
386	0.13
386	0.13
387	0.13
387	0.129
388	0.129
388	0.129
389	0.129
389	0.129
389	0.129
390	0.128
390	0.128
391	0.129
391	0.128
392	0.128
392	0.128
393	0.128
393	0.128
394	0.128
394	0.127
394	0.127
395	0.127
395	0.127
396	0.127
396	0.126
397	0.126
397	0.126
398	0.126
398	0.126
399	0.126
399	0.126
400	0.126
400	0.126
400	0.126
401	0.126
401	0.126
402	0.125
402	0.125
403	0.125
403	0.125
404	0.124
404	0.124
405	0.124
405	0.124
405	0.123
406	0.123
406	0.123
407	0.123
407	0.122
408	0.122
408	0.122
409	0.122
409	0.121
410	0.121
410	0.121
411	0.121
411	0.121
411	0.121
412	0.121
412	0.121
413	0.121
413	0.121
414	0.12
414	0.12
415	0.12
415	0.12
416	0.12
416	0.12
416	0.12
417	0.12
417	0.119
418	0.119
418	0.119
419	0.119
419	0.119
420	0.119
420	0.119
421	0.119
421	0.119
421	0.119
422	0.119
422	0.119
423	0.119
423	0.119
424	0.119
424	0.119
425	0.119
425	0.119
426	0.118
426	0.118
427	0.118
427	0.118
427	0.118
428	0.118
428	0.118
429	0.118
429	0.118
430	0.118
430	0.118
431	0.118
431	0.118
432	0.118
432	0.118
432	0.117
433	0.117
433	0.116
434	0.116
434	0.116
435	0.116
435	0.116
436	0.116
436	0.116
437	0.116
437	0.116
437	0.116
438	0.116
438	0.116
439	0.116
439	0.115
440	0.115
440	0.115
441	0.115
441	0.115
442	0.115
442	0.116
442	0.116
443	0.116
443	0.116
444	0.116
444	0.116
445	0.116
445	0.116
446	0.116
446	0.115
447	0.115
447	0.115
447	0.115
448	0.115
448	0.115
449	0.115
449	0.115
450	0.115
450	0.115
451	0.115
451	0.115
452	0.115
452	0.115
452	0.114
453	0.114
453	0.114
454	0.114
454	0.114
455	0.114
455	0.114
456	0.114
456	0.114
457	0.114
457	0.113
458	0.113
458	0.113
458	0.113
459	0.113
459	0.113
460	0.113
460	0.113
461	0.113
461	0.113
462	0.113
462	0.113
463	0.114
463	0.114
463	0.115
464	0.115
464	0.115
465	0.115
465	0.116
466	0.116
466	0.116
467	0.116
467	0.116
467	0.116
468	0.115
468	0.115
469	0.115
469	0.115
470	0.115
470	0.115
471	0.115
471	0.115
472	0.115
472	0.116
472	0.116
473	0.116
473	0.117
474	0.117
474	0.118
475	0.118
475	0.119
476	0.119
476	0.119
477	0.119
477	0.12
477	0.12
478	0.12
478	0.121
479	0.121
479	0.121
480	0.122
480	0.122
481	0.123
481	0.123
482	0.124
482	0.125
482	0.126
483	0.127
483	0.128
484	0.129
484	0.13
485	0.13
485	0.131
486	0.132
486	0.132
487	0.133
487	0.133
487	0.133
488	0.134
488	0.134
489	0.134
489	0.135
490	0.135
490	0.136
491	0.136
491	0.137
492	0.137
492	0.138
492	0.139
493	0.139
493	0.14
494	0.141
494	0.143
495	0.144
495	0.145
496	0.147
496	0.148
496	0.15
497	0.151
497	0.152
498	0.154
498	0.155
499	0.156
499	0.157
500	0.158
500	0.159
501	0.16
501	0.16
501	0.161
502	0.163
502	0.164
503	0.165
503	0.166
504	0.167
504	0.168
505	0.169
505	0.17
506	0.171
506	0.172
506	0.173
507	0.174
507	0.175
508	0.176
508	0.176
509	0.177
509	0.178
510	0.179
510	0.18
511	0.181
511	0.181
511	0.182
512	0.183
512	0.183
513	0.184
513	0.184
514	0.185
514	0.185
515	0.185
515	0.186
515	0.186
516	0.187
516	0.187
517	0.187
517	0.188
518	0.188
518	0.189
519	0.189
519	0.189
520	0.189
520	0.189
520	0.188
521	0.188
521	0.187
522	0.186
522	0.185
523	0.185
523	0.184
524	0.184
524	0.184
524	0.184
525	0.184
525	0.185
526	0.185
526	0.186
527	0.187
527	0.188
528	0.188
528	0.188
529	0.189
529	0.189
529	0.189
530	0.189
530	0.188
531	0.188
531	0.187
532	0.186
532	0.186
533	0.185
533	0.185
533	0.184
534	0.183
534	0.182
535	0.181
535	0.18
536	0.18
536	0.179
537	0.178
537	0.176
538	0.175
538	0.174
538	0.172
539	0.171
539	0.17
540	0.169
540	0.167
541	0.166
541	0.165
542	0.163
542	0.162
542	0.16
543	0.159
543	0.158
544	0.156
544	0.155
545	0.154
545	0.152
546	0.151
546	0.15
547	0.149
547	0.147
547	0.146
548	0.144
548	0.143
549	0.141
549	0.14
550	0.139
550	0.137
551	0.135
551	0.134
551	0.133
552	0.131
552	0.13
553	0.129
553	0.128
554	0.127
554	0.126
555	0.124
555	0.122
556	0.121
556	0.119
556	0.117
557	0.116
557	0.114
558	0.112
558	0.111
559	0.109
559	0.108
560	0.107
560	0.106
560	0.105
561	0.104
561	0.104
562	0.103
562	0.102
563	0.101
563	0.1
564	0.098
564	0.097
564	0.095
565	0.094
565	0.093
566	0.091
566	0.09
567	0.089
567	0.089
568	0.088
568	0.087
568	0.087
569	0.087
569	0.086
570	0.086
570	0.085
571	0.084
571	0.084
572	0.083
572	0.083
573	0.082
573	0.081
573	0.08
574	0.08
574	0.079
575	0.078
575	0.078
576	0.078
576	0.077
577	0.076
577	0.076
577	0.075
578	0.075
578	0.074
579	0.074
579	0.074
580	0.073
580	0.072
581	0.071
581	0.07
581	0.07
582	0.069
582	0.069
583	0.069
583	0.068
584	0.067
584	0.066
585	0.065
585	0.065
585	0.064
586	0.064
586	0.063
587	0.062
587	0.061
588	0.059
588	0.058
589	0.057
589	0.057
590	0.057
590	0.056
590	0.056
591	0.056
591	0.056
592	0.055
592	0.055
593	0.055
593	0.054
594	0.054
594	0.053
594	0.053
595	0.052
595	0.052
596	0.051
596	0.051
597	0.052
597	0.052
598	0.053
598	0.053
598	0.053
599	0.053
599	0.053
600	0.053
600	0.052
601	0.052
601	0.052
602	0.051
602	0.051
602	0.051
603	0.05
603	0.05
604	0.051
604	0.051
605	0.052
605	0.052
606	0.053
606	0.053
606	0.053
607	0.052
607	0.052
608	0.052
608	0.051
609	0.051
609	0.05
610	0.049
610	0.048
610	0.048
611	0.048
611	0.047
612	0.048
612	0.048
613	0.048
613	0.049
614	0.049
614	0.049
614	0.05
615	0.051
615	0.051
616	0.051
616	0.052
617	0.052
617	0.053
618	0.053
618	0.053
618	0.053
619	0.053
619	0.054
620	0.054
620	0.055
621	0.055
621	0.056
622	0.056
622	0.056
622	0.056
623	0.056
623	0.056
624	0.056
624	0.056
625	0.056
625	0.056
626	0.056
626	0.057
626	0.058
627	0.059
627	0.06
628	0.061
628	0.063
629	0.064
629	0.065
630	0.066
630	0.067
630	0.068
631	0.069
631	0.069
632	0.069
632	0.07
633	0.071
633	0.071
634	0.072
634	0.074
634	0.075
635	0.075
635	0.076
636	0.077
636	0.077
637	0.078
637	0.079
638	0.08
638	0.081
638	0.081
639	0.082
639	0.083
640	0.084
640	0.086
641	0.087
641	0.089
642	0.091
642	0.092
642	0.094
643	0.095
643	0.097
644	0.099
644	0.101
645	0.102
645	0.104
646	0.106
646	0.108
646	0.11
647	0.112
647	0.115
648	0.117
648	0.119
649	0.122
649	0.124
650	0.126
650	0.128
650	0.13
651	0.132
651	0.134
652	0.136
652	0.138
653	0.14
653	0.144
653	0.148
654	0.118
654	0.096
655	0.101
655	0.102
656	0.104
656	0.105
657	0.106
657	0.108
657	0.109
658	0.108
658	0.104
659	0.132
659	0.171
660	0.173
660	0.175
661	0.177
661	0.179
661	0.181
662	0.183
662	0.185
663	0.187
663	0.189
664	0.191
664	0.192
665	0.194
665	0.196
665	0.198
666	0.199
666	0.201
667	0.203
667	0.204
668	0.206
668	0.208
669	0.209
669	0.211
669	0.213
670	0.214
670	0.216
671	0.218
671	0.219
672	0.22
672	0.222
672	0.223
673	0.225
673	0.227
674	0.228
674	0.23
675	0.231
675	0.233
676	0.234
676	0.236
676	0.237
677	0.239
677	0.24
678	0.241
678	0.242
679	0.243
679	0.244
680	0.245
680	0.246
680	0.247
681	0.248
681	0.249
682	0.249
682	0.25
683	0.252
683	0.253
684	0.254
684	0.254
684	0.255
685	0.255
685	0.255
686	0.256
686	0.256
687	0.256
687	0.255
687	0.255
688	0.254
688	0.253
689	0.253
689	0.253
690	0.253
690	0.252
691	0.252
691	0.251
691	0.251
692	0.251
692	0.251
693	0.25
693	0.249
694	0.248
694	0.246
695	0.245
695	0.244
695	0.243
696	0.242
696	0.24
697	0.238
697	0.237
698	0.236
698	0.234
698	0.233
699	0.232
699	0.231
700	0.229
700	0.227
701	0.226
701	0.225
702	0.223
702	0.222
702	0.22
703	0.219
703	0.218
704	0.216
704	0.215
705	0.214
705	0.213
705	0.212
706	0.211
706	0.21
707	0.209
707	0.207
708	0.206
708	0.204
709	0.203
709	0.201
709	0.199
710	0.197
710	0.194
711	0.192
711	0.189
712	0.187
712	0.185
713	0.182
713	0.18
713	0.178
714	0.176
714	0.174
715	0.172
715	0.17
716	0.169
716	0.167
716	0.165
717	0.164
717	0.163
718	0.161
718	0.159
719	0.158
719	0.156
720	0.154
720	0.153
720	0.151
721	0.15
721	0.148
722	0.147
722	0.145
723	0.143
723	0.141
723	0.139
724	0.137
724	0.134
725	0.132
725	0.13
726	0.128
726	0.125
727	0.123
727	0.122
727	0.12
728	0.119
728	0.118
729	0.118
729	0.117
730	0.117
730	0.116
730	0.116
731	0.115
731	0.115
732	0.114
732	0.113
733	0.112
733	0.111
734	0.11
734	0.108
734	0.107
735	0.105
735	0.103
736	0.102
736	0.1
737	0.098
737	0.096
737	0.094
738	0.092
738	0.09
739	0.088
739	0.087
740	0.085
740	0.084
741	0.083
741	0.081
741	0.079
742	0.077
742	0.075
743	0.073
743	0.071
744	0.07
744	0.068
744	0.066
745	0.064
745	0.063
746	0.062
746	0.061
747	0.06
747	0.06
748	0.059
748	0.059
748	0.058
749	0.057
749	0.057
750	0.055
750	0.054
751	0.053
751	0.052
751	0.05
752	0.049
752	0.047
753	0.046
753	0.045
754	0.044
754	0.043
754	0.043
755	0.043
755	0.043
756	0.043
756	0.043
757	0.042
757	0.042
758	0.042
758	0.041
758	0.04
759	0.039
759	0.037
760	0.036
760	0.034
761	0.033
761	0.032
761	0.031
762	0.03
762	0.029
763	0.028
763	0.027
764	0.026
764	0.025
764	0.023
765	0.021
765	0.02
766	0.018
766	0.016
767	0.015
767	0.012
768	0.01
768	0.007
768	0.005
769	0.003
769	0.002
770	0
770	-0.001
771	-0.003
771	-0.004
771	-0.006
772	-0.007
772	-0.008
773	-0.009
773	-0.01
774	-0.011
774	-0.012
775	-0.014
775	-0.016
775	-0.018
776	-0.02
776	-0.022
777	-0.025
777	-0.027
778	-0.029
778	-0.032
778	-0.035
779	-0.037
779	-0.039
780	-0.041
780	-0.044
781	-0.046
781	-0.05
781	-0.054
782	-0.058
782	-0.063
783	-0.067
783	-0.071
784	-0.076
784	-0.082
784	-0.088
785	-0.094
785	-0.101
786	-0.107
786	-0.112
787	-0.115
787	-0.119
788	-0.125
788	-0.132
788	-0.139
789	-0.145
789	-0.149
790	-0.151
790	-0.154
791	-0.157
791	-0.159
791	-0.161
792	-0.156
792	-0.146
793	-0.14
793	-0.136
794	-0.134
794	-0.135
794	-0.139
795	-0.141
795	-0.141
796	-0.141
796	-0.143
797	-0.152
797	-0.163
797	-0.169
798	-0.174
798	-0.177
799	-0.178
799	-0.178
800	-0.177
800	-0.179
801	-0.181
801	-0.182
801	-0.182
802	-0.183
802	-0.184
803	-0.184
803	-0.184
804	-0.183
804	-0.178
804	-0.172
805	-0.168
805	-0.165
806	-0.163
806	-0.162
807	-0.161
807	-0.16
807	-0.16
808	-0.16
808	-0.161
809	-0.165
809	-0.171
810	-0.174
810	-0.177
810	-0.18
811	-0.184
811	-0.185
812	-0.181
812	-0.178
813	-0.179
813	-0.18
813	-0.181
814	-0.183
814	-0.182
815	-0.179
815	-0.174
816	-0.168
816	-0.164
817	-0.161
817	-0.157
817	-0.149
818	-0.139
818	-0.127
819	-0.115
819	-0.105
820	-0.097
820	-0.09
820	-0.083
821	-0.076
821	-0.07
822	-0.065
822	-0.06
823	-0.056
823	-0.052
823	-0.049
824	-0.045
824	-0.041
825	-0.037
825	-0.034
826	-0.031
826	-0.028
826	-0.026
827	-0.024
827	-0.023
828	-0.021
828	-0.02
829	-0.018
829	-0.018
829	-0.017
830	-0.017
830	-0.017
831	-0.016
831	-0.016
832	-0.016
832	-0.016
832	-0.016
833	-0.016
833	-0.016
834	-0.016
834	-0.016
835	-0.015
835	-0.015
835	-0.014
836	-0.013
836	-0.012
837	-0.011
837	-0.01
838	-0.009
838	-0.007
839	-0.006
839	-0.005
839	-0.004
840	-0.003
840	-0.003
841	-0.002
841	-0.002
842	-0.001
842	-0.001
842	-0
843	0
843	0.001
844	0.002
844	0.002
845	0.002
845	0.002
845	0.003
846	0.002
846	0.002
847	0.001
847	0.001
848	-0
848	-0.001
848	-0.002
849	-0.003
849	-0.004
850	-0.004
850	-0.005
851	-0.006
851	-0.006
851	-0.006
852	-0.006
852	-0.006
853	-0.006
853	-0.006
854	-0.006
854	-0.005
854	-0.005
855	-0.005
855	-0.005
856	-0.005
856	-0.004
857	-0.004
857	-0.004
857	-0.003
858	-0.003
858	-0.003
859	-0.003
859	-0.002
860	-0.002
860	-0.001
860	-0.001
861	-0
861	0
862	0
862	0
863	-0
863	-0
863	-0.001
864	-0.001
864	-0.001
865	-0.001
865	-0.001
866	-0.001
866	-0.001
866	-0
867	0
867	0.001
868	0.001
868	0.002
869	0.002
869	0.002
869	0.002
870	0.001
870	0.001
871	0.001
871	0.001
872	0
872	0.001
872	0.001
873	0.001
873	0.001
874	0.001
874	0.002
875	0.002
875	0.002
875	0.001
876	0.001
876	0.001
877	-0
877	-0.001
878	-0.002
878	-0.002
878	-0.003
879	-0.004
879	-0.004
880	-0.005
880	-0.005
881	-0.005
881	-0.005
881	-0.005
882	-0.004
882	-0.003
883	-0.002
883	-0.001
884	0
884	0.001
884	0.003
885	0.004
885	0.005
886	0.006
886	0.007
887	0.008
887	0.008
887	0.009
888	0.009
888	0.009
889	0.009
889	0.009
890	0.009
890	0.009
890	0.008
891	0.008
891	0.007
892	0.007
892	0.007
893	0.006
893	0.006
893	0.006
894	0.005
894	0.005
895	0.005
895	0.005
895	0.004
896	0.004
896	0.004
897	0.004
897	0.004
898	0.004
898	0.004
898	0.004
899	0.004
899	0.004
900	0.003
900	0.003
901	0.003
901	0.002
901	0.002
902	0.002
902	0.002
903	0.001
903	0.001
904	0.001
904	0.001
904	0.001
905	0.001
905	0.002
906	0.002
906	0.002
907	0.002
907	0.003
907	0.003
908	0.003
908	0.003
909	0.003
909	0.003
910	0.002
910	0.002
910	0.001
911	0.001
911	0
912	-0
912	-0
913	-0
913	-0
913	-0
914	0
914	0.001
915	0.001
915	0.001
916	0.002
916	0.002
916	0.002
917	0.003
917	0.003
918	0.003
918	0.003
918	0.003
919	0.003
919	0.003
920	0.004
920	0.004
921	0.004
921	0.005
921	0.005
922	0.005
922	0.006
923	0.006
923	0.006
924	0.005
924	0.005
924	0.004
925	0.003
925	0.003
926	0.002
926	0.001
927	0.001
927	0
927	-0
928	-0
928	-0
929	-0
929	0
930	0
930	0.001
930	0.001
931	0.001
931	0.002
932	0.002
932	0.002
933	0.002
933	0.001
933	0.001
934	0.001
934	0.001
935	0.001
935	0.001
935	0.001
936	0.001
936	0.001
937	0.001
937	0.002
938	0.002
938	0.002
938	0.003
939	0.002
939	0.002
940	0.002
940	0.002
941	0.001
941	0.001
941	0.001
942	0
942	0
943	0
943	0.001
944	0.001
944	0.001
944	0.002
945	0.003
945	0.003
946	0.004
946	0.004
946	0.004
947	0.004
947	0.003
948	0.002
948	0.002
949	0.001
949	0.001
949	0
950	0
950	-0
951	-0
951	-0
952	-0
952	-0
952	-0.001
953	-0.001
953	-0.001
954	-0.001
954	-0.002
955	-0.002
955	-0.003
955	-0.003
956	-0.003
956	-0.004
957	-0.004
957	-0.005
957	-0.005
958	-0.005
958	-0.006
959	-0.006
959	-0.006
960	-0.006
960	-0.006
960	-0.006
961	-0.006
961	-0.006
962	-0.006
962	-0.006
963	-0.006
963	-0.006
963	-0.007
964	-0.007
964	-0.008
965	-0.008
965	-0.008
966	-0.008
966	-0.009
966	-0.009
967	-0.009
967	-0.009
968	-0.008
968	-0.008
968	-0.008
969	-0.007
969	-0.007
970	-0.006
970	-0.006
971	-0.005
971	-0.005
971	-0.004
972	-0.004
972	-0.003
973	-0.002
973	-0.001
974	-0.001
974	-0
974	0.001
975	0.002
975	0.002
976	0.003
976	0.004
976	0.004
977	0.005
977	0.005
978	0.005
978	0.005
979	0.005
979	0.005
979	0.005
980	0.004
980	0.004
981	0.003
981	0.002
982	0.002
982	0.002
982	0.001
983	0.001
983	0
984	-0.001
984	-0.001
984	-0.002
985	-0.002
985	-0.003
986	-0.003
986	-0.003
987	-0.004
987	-0.004
987	-0.004
988	-0.004
988	-0.003
989	-0.003
989	-0.003
990	-0.002
990	-0.002
990	-0.001
991	-0.001
991	-0.001
992	-0.001
992	-0.001
992	-0.002
993	-0.002
993	-0.003
994	-0.003
994	-0.004
995	-0.004
995	-0.004
995	-0.004
996	-0.004
996	-0.004
997	-0.003
997	-0.003
997	-0.002
998	-0.001
998	-0
999	0.001
999	0.001
1000	0.002
1000	0.002
1000	0.002
1001	0.001
1001	0.001
1002	0
1002	-0
1003	-0.001
1003	-0.002
1003	-0.003
1004	-0.003
1004	-0.004
1005	-0.004
1005	-0.004
1005	-0.004
1006	-0.004
1006	-0.004
1007	-0.003
1007	-0.003
1008	-0.003
1008	-0.003
1008	-0.003
1009	-0.003
1009	-0.004
1010	-0.004
1010	-0.004
1010	-0.005
1011	-0.005
1011	-0.005
1012	-0.005
1012	-0.006
1013	-0.006
1013	-0.006
1013	-0.005
1014	-0.005
1014	-0.005
1015	-0.005
1015	-0.004
1016	-0.004
1016	-0.003
1016	-0.003
1017	-0.003
1017	-0.003
1018	-0.003
1018	-0.002
1018	-0.002
1019	-0.002
1019	-0.002
1020	-0.002
1020	-0.002
1021	-0.002
1021	-0.001
1021	-0.001
1022	-0.001
1022	-0.001
1023	-0.001
1023	-0
1023	-0
1024	-0.001
1024	-0
1025	-0
1025	-0
1026	-0
1026	-0
1026	-0
1027	-0
1027	-0
1028	-0
1028	-0
1028	-0.001
1029	-0.001
1029	-0.002
1030	-0.003
1030	-0.003
1031	-0.004
1031	-0.005
1031	-0.006
1032	-0.006
1032	-0.007
1033	-0.008
1033	-0.008
1033	-0.009
1034	-0.009
1034	-0.009
1035	-0.01
1035	-0.009
1036	-0.01
1036	-0.01
1036	-0.01
1037	-0.01
1037	-0.01
1038	-0.009
1038	-0.009
1039	-0.009
1039	-0.008
1039	-0.008
1040	-0.008
1040	-0.007
1041	-0.007
1041	-0.007
1041	-0.007
1042	-0.007
1042	-0.006
1043	-0.006
1043	-0.006
1044	-0.006
1044	-0.006
1044	-0.006
1045	-0.006
1045	-0.005
1046	-0.005
1046	-0.005
1046	-0.004
1047	-0.004
1047	-0.003
1048	-0.002
1048	-0.002
1049	-0.001
1049	-0.001
1049	-0.001
1050	0
1050	0.001
1051	0.001
1051	0.001
1051	0.002
1052	0.002
1052	0.002
1053	0.002
1053	0.002
1053	0.002
1054	0.002
1054	0.001
1055	0.001
1055	0.001
1056	0
1056	-0
1056	-0.001
1057	-0.001
1057	-0.001
1058	-0.001
1058	-0.002
1058	-0.002
1059	-0.002
1059	-0.001
1060	-0.001
1060	-0.001
1061	-0.001
1061	-0.001
1061	-0.001
1062	-0.001
1062	-0.001
1063	-0.001
1063	-0.001
1063	-0.002
1064	-0.002
1064	-0.002
1065	-0.002
1065	-0.003
1066	-0.003
1066	-0.003
1066	-0.004
1067	-0.004
1067	-0.004
1068	-0.004
1068	-0.004
1068	-0.004
1069	-0.004
1069	-0.004
1070	-0.003
1070	-0.002
1071	-0.002
1071	-0.002
1071	-0.001
1072	-0
1072	0.001
1073	0.002
1073	0.002
1073	0.003
1074	0.004
1074	0.004
1075	0.005
1075	0.006
1076	0.006
1076	0.007
1076	0.007
1077	0.008
1077	0.009
1078	0.009
1078	0.01
1078	0.011
1079	0.012
1079	0.012
1080	0.014
1080	0.015
1080	0.015
1081	0.016
1081	0.017
1082	0.018
1082	0.019
1083	0.019
1083	0.02
1083	0.02
1084	0.021
1084	0.022
1085	0.022
1085	0.024
1085	0.025
1086	0.025
1086	0.026
1087	0.027
1087	0.027
1088	0.028
1088	0.029
1088	0.029
1089	0.03
1089	0.031
1090	0.031
1090	0.031
1090	0.032
1091	0.033
1091	0.034
1092	0.035
1092	0.036
1092	0.037
1093	0.038
1093	0.039
1094	0.04
1094	0.042
1095	0.044
1095	0.046
1095	0.048
1096	0.051
1096	0.053
1097	0.056
1097	0.059
1097	0.062
1098	0.065
1098	0.068
1099	0.071
1099	0.074
1100	0.078
1100	0.082
1100	0.086
1101	0.091
1101	0.095
1102	0.101
1102	0.108
1102	0.115
1103	0.123
1103	0.131
1104	0.139
1104	0.149
1104	0.159
1105	0.171
1105	0.182
1106	0.193
1106	0.208
1107	0.223
1107	0.243
1107	0.267
1108	0.336
1108	0.437
1109	0.61
1109	1.047
1109	-0
1110	-0
1110	-0
1111	-0
1111	-0
