Data from 15c-2a_Absorbance__1608__01608.txt Node

Date: Fri Jan 19 10:35:10 CET 2024
User: Marek
Spectrometer: MAYP115816
Trigger mode: 0
Integration Time (sec): 2.000000E-1
Scans to average: 10
Electric dark correction enabled: true
Nonlinearity correction enabled: true
Boxcar width: 5
XAxis mode: Wavelengths
Number of Pixels in Spectrum: 2068
>>>>>Begin Spectral Data<<<<<
199	-1.442
199	-1.299
200	-1.164
200	-1.053
201	-0.989
201	-0.941
202	-0.879
202	-0.831
203	-0.79
203	-0.755
204	-0.731
204	-0.709
205	-0.691
205	-0.681
205	-0.68
206	-0.676
206	-0.674
207	-0.668
207	-0.665
208	-0.664
208	-0.662
209	-0.66
209	-0.658
210	-0.657
210	-0.656
211	-0.655
211	-0.654
212	-0.656
212	-0.656
213	-0.656
213	-0.653
213	-0.653
214	-0.65
214	-0.649
215	-0.646
215	-0.645
216	-0.643
216	-0.644
217	-0.639
217	-0.638
218	-0.636
218	-0.634
219	-0.63
219	-0.631
220	-0.63
220	-0.631
221	-0.63
221	-0.625
221	-0.62
222	-0.618
222	-0.614
223	-0.609
223	-0.606
224	-0.601
224	-0.593
225	-0.587
225	-0.576
226	-0.566
226	-0.557
227	-0.544
227	-0.533
228	-0.518
228	-0.506
229	-0.487
229	-0.466
229	-0.442
230	-0.417
230	-0.389
231	-0.358
231	-0.325
232	-0.292
232	-0.256
233	-0.218
233	-0.179
234	-0.143
234	-0.107
235	-0.072
235	-0.039
236	-0.008
236	0.023
236	0.05
237	0.076
237	0.1
238	0.121
238	0.141
239	0.159
239	0.174
240	0.188
240	0.201
241	0.213
241	0.223
242	0.233
242	0.241
243	0.249
243	0.256
243	0.263
244	0.268
244	0.274
245	0.279
245	0.283
246	0.288
246	0.292
247	0.295
247	0.298
248	0.302
248	0.305
249	0.307
249	0.31
250	0.313
250	0.315
250	0.318
251	0.32
251	0.322
252	0.324
252	0.327
253	0.328
253	0.33
254	0.332
254	0.333
255	0.334
255	0.336
256	0.337
256	0.337
257	0.338
257	0.339
258	0.339
258	0.34
258	0.34
259	0.34
259	0.34
260	0.34
260	0.34
261	0.34
261	0.34
262	0.339
262	0.339
263	0.338
263	0.338
264	0.337
264	0.336
265	0.336
265	0.335
265	0.334
266	0.333
266	0.332
267	0.331
267	0.329
268	0.328
268	0.326
269	0.325
269	0.323
270	0.321
270	0.319
271	0.317
271	0.315
272	0.314
272	0.312
272	0.31
273	0.308
273	0.306
274	0.304
274	0.302
275	0.3
275	0.298
276	0.296
276	0.294
277	0.292
277	0.289
278	0.287
278	0.285
278	0.283
279	0.28
279	0.278
280	0.276
280	0.273
281	0.271
281	0.269
282	0.267
282	0.265
283	0.264
283	0.262
284	0.26
284	0.258
285	0.256
285	0.255
285	0.253
286	0.251
286	0.249
287	0.248
287	0.246
288	0.244
288	0.243
289	0.241
289	0.24
290	0.238
290	0.237
291	0.235
291	0.234
292	0.232
292	0.231
292	0.23
293	0.229
293	0.228
294	0.227
294	0.226
295	0.225
295	0.224
296	0.223
296	0.222
297	0.221
297	0.22
298	0.22
298	0.219
298	0.218
299	0.218
299	0.217
300	0.216
300	0.215
301	0.215
301	0.214
302	0.213
302	0.213
303	0.212
303	0.211
304	0.211
304	0.21
305	0.21
305	0.209
305	0.209
306	0.208
306	0.208
307	0.207
307	0.207
308	0.206
308	0.205
309	0.205
309	0.204
310	0.203
310	0.203
311	0.202
311	0.202
311	0.201
312	0.201
312	0.2
313	0.2
313	0.199
314	0.198
314	0.198
315	0.197
315	0.197
316	0.196
316	0.195
317	0.195
317	0.194
318	0.194
318	0.193
318	0.192
319	0.192
319	0.191
320	0.191
320	0.19
321	0.19
321	0.189
322	0.188
322	0.188
323	0.187
323	0.186
324	0.186
324	0.185
324	0.184
325	0.184
325	0.183
326	0.183
326	0.182
327	0.182
327	0.181
328	0.181
328	0.18
329	0.18
329	0.179
330	0.178
330	0.178
330	0.177
331	0.177
331	0.176
332	0.176
332	0.175
333	0.175
333	0.174
334	0.174
334	0.173
335	0.173
335	0.172
336	0.172
336	0.171
336	0.171
337	0.17
337	0.17
338	0.169
338	0.169
339	0.168
339	0.168
340	0.167
340	0.167
341	0.167
341	0.166
342	0.166
342	0.166
342	0.165
343	0.165
343	0.165
344	0.164
344	0.164
345	0.164
345	0.163
346	0.163
346	0.162
347	0.162
347	0.161
348	0.161
348	0.161
348	0.161
349	0.16
349	0.16
350	0.16
350	0.16
351	0.159
351	0.159
352	0.159
352	0.158
353	0.158
353	0.158
354	0.157
354	0.157
354	0.157
355	0.156
355	0.156
356	0.156
356	0.156
357	0.156
357	0.155
358	0.155
358	0.155
359	0.155
359	0.155
360	0.155
360	0.155
360	0.155
361	0.154
361	0.154
362	0.154
362	0.154
363	0.154
363	0.154
364	0.154
364	0.153
365	0.153
365	0.153
366	0.153
366	0.152
366	0.152
367	0.152
367	0.152
368	0.151
368	0.151
369	0.151
369	0.151
370	0.151
370	0.151
371	0.151
371	0.151
372	0.15
372	0.15
372	0.15
373	0.15
373	0.15
374	0.15
374	0.149
375	0.149
375	0.149
376	0.149
376	0.149
377	0.149
377	0.149
378	0.149
378	0.149
378	0.149
379	0.149
379	0.149
380	0.149
380	0.149
381	0.149
381	0.148
382	0.148
382	0.148
383	0.148
383	0.148
383	0.147
384	0.147
384	0.147
385	0.147
385	0.146
386	0.146
386	0.146
387	0.146
387	0.146
388	0.145
388	0.145
389	0.145
389	0.145
389	0.145
390	0.145
390	0.145
391	0.144
391	0.145
392	0.144
392	0.144
393	0.144
393	0.144
394	0.144
394	0.144
394	0.144
395	0.144
395	0.143
396	0.143
396	0.143
397	0.143
397	0.143
398	0.143
398	0.143
399	0.143
399	0.143
400	0.143
400	0.142
400	0.142
401	0.142
401	0.141
402	0.141
402	0.141
403	0.14
403	0.14
404	0.14
404	0.14
405	0.14
405	0.14
405	0.14
406	0.14
406	0.14
407	0.139
407	0.139
408	0.139
408	0.138
409	0.138
409	0.138
410	0.138
410	0.138
411	0.138
411	0.138
411	0.138
412	0.138
412	0.137
413	0.137
413	0.137
414	0.137
414	0.137
415	0.137
415	0.136
416	0.136
416	0.135
416	0.135
417	0.135
417	0.135
418	0.135
418	0.135
419	0.136
419	0.136
420	0.136
420	0.136
421	0.136
421	0.136
421	0.136
422	0.136
422	0.136
423	0.136
423	0.135
424	0.135
424	0.135
425	0.135
425	0.134
426	0.134
426	0.134
427	0.134
427	0.134
427	0.135
428	0.135
428	0.135
429	0.135
429	0.135
430	0.135
430	0.135
431	0.135
431	0.134
432	0.134
432	0.133
432	0.133
433	0.132
433	0.132
434	0.131
434	0.131
435	0.131
435	0.131
436	0.131
436	0.131
437	0.131
437	0.131
437	0.131
438	0.131
438	0.131
439	0.131
439	0.131
440	0.131
440	0.131
441	0.131
441	0.131
442	0.131
442	0.131
442	0.132
443	0.132
443	0.132
444	0.132
444	0.132
445	0.132
445	0.132
446	0.132
446	0.131
447	0.131
447	0.131
447	0.131
448	0.131
448	0.131
449	0.131
449	0.131
450	0.131
450	0.131
451	0.131
451	0.13
452	0.13
452	0.13
452	0.13
453	0.13
453	0.13
454	0.13
454	0.13
455	0.13
455	0.13
456	0.13
456	0.13
457	0.13
457	0.13
458	0.13
458	0.13
458	0.13
459	0.13
459	0.13
460	0.129
460	0.129
461	0.129
461	0.129
462	0.13
462	0.13
463	0.131
463	0.131
463	0.132
464	0.132
464	0.132
465	0.132
465	0.132
466	0.133
466	0.133
467	0.133
467	0.133
467	0.132
468	0.132
468	0.132
469	0.132
469	0.132
470	0.132
470	0.132
471	0.132
471	0.132
472	0.133
472	0.133
472	0.134
473	0.134
473	0.135
474	0.135
474	0.135
475	0.136
475	0.136
476	0.136
476	0.137
477	0.137
477	0.138
477	0.138
478	0.138
478	0.139
479	0.139
479	0.14
480	0.141
480	0.141
481	0.142
481	0.142
482	0.143
482	0.144
482	0.145
483	0.146
483	0.148
484	0.149
484	0.15
485	0.151
485	0.152
486	0.152
486	0.153
487	0.153
487	0.154
487	0.154
488	0.154
488	0.154
489	0.154
489	0.155
490	0.156
490	0.157
491	0.158
491	0.159
492	0.16
492	0.16
492	0.161
493	0.162
493	0.164
494	0.165
494	0.167
495	0.168
495	0.169
496	0.17
496	0.171
496	0.172
497	0.174
497	0.175
498	0.176
498	0.177
499	0.178
499	0.179
500	0.18
500	0.182
501	0.183
501	0.185
501	0.186
502	0.187
502	0.189
503	0.19
503	0.192
504	0.193
504	0.193
505	0.194
505	0.195
506	0.196
506	0.197
506	0.199
507	0.199
507	0.2
508	0.201
508	0.202
509	0.203
509	0.205
510	0.206
510	0.207
511	0.208
511	0.209
511	0.21
512	0.211
512	0.211
513	0.211
513	0.211
514	0.212
514	0.212
515	0.213
515	0.213
515	0.213
516	0.214
516	0.214
517	0.215
517	0.215
518	0.215
518	0.216
519	0.215
519	0.215
520	0.215
520	0.215
520	0.214
521	0.214
521	0.213
522	0.213
522	0.212
523	0.213
523	0.213
524	0.214
524	0.215
524	0.215
525	0.216
525	0.216
526	0.217
526	0.218
527	0.219
527	0.219
528	0.219
528	0.219
529	0.218
529	0.218
529	0.218
530	0.217
530	0.216
531	0.215
531	0.214
532	0.213
532	0.212
533	0.212
533	0.211
533	0.21
534	0.209
534	0.208
535	0.207
535	0.206
536	0.205
536	0.204
537	0.203
537	0.202
538	0.201
538	0.199
538	0.198
539	0.196
539	0.195
540	0.193
540	0.191
541	0.19
541	0.188
542	0.187
542	0.185
542	0.184
543	0.182
543	0.181
544	0.179
544	0.178
545	0.177
545	0.176
546	0.174
546	0.173
547	0.171
547	0.169
547	0.167
548	0.165
548	0.163
549	0.161
549	0.16
550	0.158
550	0.156
551	0.154
551	0.152
551	0.151
552	0.15
552	0.149
553	0.148
553	0.146
554	0.145
554	0.143
555	0.14
555	0.138
556	0.137
556	0.134
556	0.132
557	0.131
557	0.13
558	0.128
558	0.126
559	0.125
559	0.124
560	0.123
560	0.122
560	0.121
561	0.12
561	0.119
562	0.118
562	0.116
563	0.114
563	0.112
564	0.11
564	0.108
564	0.107
565	0.105
565	0.104
566	0.103
566	0.102
567	0.101
567	0.101
568	0.1
568	0.1
568	0.099
569	0.099
569	0.098
570	0.097
570	0.095
571	0.094
571	0.094
572	0.092
572	0.091
573	0.09
573	0.089
573	0.087
574	0.086
574	0.086
575	0.086
575	0.086
576	0.086
576	0.084
577	0.083
577	0.082
577	0.082
578	0.081
578	0.081
579	0.081
579	0.081
580	0.079
580	0.077
581	0.074
581	0.073
581	0.073
582	0.073
582	0.073
583	0.074
583	0.073
584	0.07
584	0.068
585	0.067
585	0.068
585	0.068
586	0.068
586	0.067
587	0.065
587	0.064
588	0.062
588	0.061
589	0.061
589	0.061
590	0.061
590	0.061
590	0.062
591	0.063
591	0.062
592	0.061
592	0.06
593	0.06
593	0.06
594	0.059
594	0.058
594	0.057
595	0.057
595	0.056
596	0.055
596	0.056
597	0.057
597	0.058
598	0.057
598	0.058
598	0.058
599	0.058
599	0.057
600	0.055
600	0.055
601	0.054
601	0.054
602	0.052
602	0.052
602	0.051
603	0.051
603	0.052
604	0.052
604	0.053
605	0.054
605	0.056
606	0.056
606	0.055
606	0.055
607	0.055
607	0.055
608	0.055
608	0.054
609	0.053
609	0.053
610	0.052
610	0.051
610	0.051
611	0.052
611	0.053
612	0.054
612	0.055
613	0.056
613	0.056
614	0.056
614	0.055
614	0.056
615	0.056
615	0.056
616	0.056
616	0.056
617	0.057
617	0.056
618	0.056
618	0.056
618	0.057
619	0.057
619	0.058
620	0.06
620	0.06
621	0.06
621	0.061
622	0.061
622	0.061
622	0.061
623	0.061
623	0.062
624	0.063
624	0.062
625	0.062
625	0.062
626	0.063
626	0.063
626	0.065
627	0.066
627	0.067
628	0.068
628	0.069
629	0.069
629	0.07
630	0.07
630	0.07
630	0.071
631	0.072
631	0.073
632	0.073
632	0.074
633	0.074
633	0.075
634	0.077
634	0.079
634	0.081
635	0.082
635	0.083
636	0.084
636	0.085
637	0.085
637	0.086
638	0.087
638	0.087
638	0.088
639	0.088
639	0.089
640	0.09
640	0.091
641	0.092
641	0.094
642	0.095
642	0.097
642	0.099
643	0.1
643	0.102
644	0.104
644	0.106
645	0.108
645	0.11
646	0.112
646	0.115
646	0.117
647	0.12
647	0.123
648	0.125
648	0.127
649	0.13
649	0.132
650	0.135
650	0.138
650	0.14
651	0.142
651	0.144
652	0.146
652	0.148
653	0.151
653	0.158
653	0.172
654	0.137
654	0.111
655	0.113
655	0.114
656	0.116
656	0.117
657	0.119
657	0.12
657	0.121
658	0.119
658	0.107
659	0.136
659	0.177
660	0.184
660	0.187
661	0.189
661	0.191
661	0.194
662	0.196
662	0.199
663	0.201
663	0.204
664	0.206
664	0.207
665	0.209
665	0.211
665	0.213
666	0.215
666	0.217
667	0.219
667	0.22
668	0.222
668	0.224
669	0.226
669	0.229
669	0.232
670	0.234
670	0.235
671	0.237
671	0.238
672	0.24
672	0.241
672	0.243
673	0.245
673	0.247
674	0.248
674	0.249
675	0.251
675	0.253
676	0.255
676	0.257
676	0.258
677	0.26
677	0.262
678	0.263
678	0.263
679	0.264
679	0.265
680	0.267
680	0.267
680	0.268
681	0.268
681	0.269
682	0.27
682	0.271
683	0.272
683	0.273
684	0.273
684	0.273
684	0.273
685	0.273
685	0.273
686	0.272
686	0.272
687	0.271
687	0.27
687	0.27
688	0.269
688	0.268
689	0.268
689	0.268
690	0.268
690	0.267
691	0.267
691	0.267
691	0.266
692	0.266
692	0.265
693	0.265
693	0.265
694	0.263
694	0.262
695	0.262
695	0.262
695	0.261
696	0.26
696	0.259
697	0.258
697	0.257
698	0.255
698	0.254
698	0.252
699	0.251
699	0.249
700	0.246
700	0.245
701	0.243
701	0.241
702	0.239
702	0.238
702	0.236
703	0.234
703	0.232
704	0.231
704	0.229
705	0.228
705	0.226
705	0.224
706	0.223
706	0.221
707	0.219
707	0.218
708	0.216
708	0.215
709	0.214
709	0.212
709	0.21
710	0.208
710	0.206
711	0.205
711	0.203
712	0.201
712	0.198
713	0.196
713	0.193
713	0.191
714	0.188
714	0.186
715	0.184
715	0.181
716	0.179
716	0.178
716	0.176
717	0.175
717	0.174
718	0.173
718	0.171
719	0.17
719	0.169
720	0.168
720	0.166
720	0.164
721	0.162
721	0.16
722	0.158
722	0.156
723	0.155
723	0.153
723	0.151
724	0.149
724	0.147
725	0.144
725	0.142
726	0.14
726	0.138
727	0.136
727	0.134
727	0.132
728	0.13
728	0.128
729	0.127
729	0.126
730	0.124
730	0.121
730	0.12
731	0.118
731	0.116
732	0.115
732	0.113
733	0.112
733	0.111
734	0.109
734	0.108
734	0.107
735	0.106
735	0.104
736	0.102
736	0.101
737	0.099
737	0.098
737	0.095
738	0.093
738	0.09
739	0.088
739	0.087
740	0.085
740	0.085
741	0.084
741	0.082
741	0.08
742	0.078
742	0.077
743	0.076
743	0.074
744	0.073
744	0.072
744	0.07
745	0.069
745	0.067
746	0.066
746	0.066
747	0.066
747	0.066
748	0.067
748	0.067
748	0.066
749	0.065
749	0.065
750	0.063
750	0.062
751	0.061
751	0.059
751	0.057
752	0.055
752	0.052
753	0.05
753	0.048
754	0.047
754	0.045
754	0.044
755	0.044
755	0.043
756	0.042
756	0.041
757	0.04
757	0.04
758	0.039
758	0.038
758	0.038
759	0.037
759	0.035
760	0.034
760	0.032
761	0.031
761	0.031
761	0.03
762	0.028
762	0.028
763	0.027
763	0.024
764	0.022
764	0.021
764	0.019
765	0.018
765	0.016
766	0.016
766	0.015
767	0.014
767	0.012
768	0.01
768	0.009
768	0.008
769	0.007
769	0.006
770	0.005
770	0.004
771	0.002
771	-0
771	-0.002
772	-0.003
772	-0.004
773	-0.005
773	-0.006
774	-0.008
774	-0.01
775	-0.011
775	-0.013
775	-0.016
776	-0.018
776	-0.02
777	-0.021
777	-0.023
778	-0.025
778	-0.026
778	-0.028
779	-0.029
779	-0.03
780	-0.032
780	-0.034
781	-0.036
781	-0.038
781	-0.042
782	-0.045
782	-0.049
783	-0.053
783	-0.057
784	-0.062
784	-0.067
784	-0.071
785	-0.076
785	-0.082
786	-0.087
786	-0.091
787	-0.095
787	-0.1
788	-0.106
788	-0.112
788	-0.119
789	-0.126
789	-0.132
790	-0.136
790	-0.141
791	-0.146
791	-0.15
791	-0.153
792	-0.149
792	-0.141
793	-0.138
793	-0.135
794	-0.134
794	-0.136
794	-0.139
795	-0.141
795	-0.141
796	-0.141
796	-0.144
797	-0.152
797	-0.163
797	-0.169
798	-0.175
798	-0.178
799	-0.178
799	-0.178
800	-0.178
800	-0.179
801	-0.182
801	-0.183
801	-0.182
802	-0.183
802	-0.184
803	-0.184
803	-0.184
804	-0.183
804	-0.178
804	-0.172
805	-0.168
805	-0.166
806	-0.164
806	-0.162
807	-0.161
807	-0.161
807	-0.16
808	-0.16
808	-0.161
809	-0.165
809	-0.171
810	-0.175
810	-0.177
810	-0.181
811	-0.184
811	-0.185
812	-0.181
812	-0.179
813	-0.179
813	-0.18
813	-0.182
814	-0.183
814	-0.183
815	-0.179
815	-0.175
816	-0.17
816	-0.165
817	-0.163
817	-0.159
817	-0.151
818	-0.141
818	-0.129
819	-0.117
819	-0.107
820	-0.099
820	-0.092
820	-0.085
821	-0.079
821	-0.073
822	-0.068
822	-0.063
823	-0.059
823	-0.056
823	-0.053
824	-0.05
824	-0.046
825	-0.042
825	-0.038
826	-0.035
826	-0.032
826	-0.029
827	-0.027
827	-0.025
828	-0.023
828	-0.021
829	-0.019
829	-0.018
829	-0.017
830	-0.017
830	-0.016
831	-0.015
831	-0.015
832	-0.015
832	-0.015
832	-0.015
833	-0.015
833	-0.016
834	-0.017
834	-0.017
835	-0.017
835	-0.018
835	-0.018
836	-0.018
836	-0.018
837	-0.017
837	-0.017
838	-0.016
838	-0.016
839	-0.015
839	-0.014
839	-0.013
840	-0.012
840	-0.011
841	-0.01
841	-0.01
842	-0.009
842	-0.008
842	-0.007
843	-0.006
843	-0.006
844	-0.005
844	-0.004
845	-0.004
845	-0.003
845	-0.003
846	-0.003
846	-0.003
847	-0.004
847	-0.004
848	-0.005
848	-0.005
848	-0.006
849	-0.007
849	-0.007
850	-0.008
850	-0.009
851	-0.009
851	-0.01
851	-0.011
852	-0.011
852	-0.012
853	-0.012
853	-0.013
854	-0.013
854	-0.013
854	-0.013
855	-0.013
855	-0.013
856	-0.013
856	-0.013
857	-0.013
857	-0.012
857	-0.012
858	-0.011
858	-0.011
859	-0.01
859	-0.01
860	-0.009
860	-0.008
860	-0.007
861	-0.007
861	-0.006
862	-0.006
862	-0.007
863	-0.007
863	-0.007
863	-0.008
864	-0.008
864	-0.009
865	-0.009
865	-0.009
866	-0.01
866	-0.01
866	-0.01
867	-0.009
867	-0.009
868	-0.009
868	-0.008
869	-0.008
869	-0.008
869	-0.008
870	-0.008
870	-0.009
871	-0.009
871	-0.01
872	-0.01
872	-0.011
872	-0.011
873	-0.011
873	-0.012
874	-0.012
874	-0.012
875	-0.011
875	-0.011
875	-0.01
876	-0.01
876	-0.009
877	-0.009
877	-0.009
878	-0.009
878	-0.009
878	-0.01
879	-0.01
879	-0.011
880	-0.012
880	-0.013
881	-0.014
881	-0.014
881	-0.014
882	-0.014
882	-0.013
883	-0.012
883	-0.011
884	-0.01
884	-0.008
884	-0.007
885	-0.006
885	-0.004
886	-0.003
886	-0.002
887	-0.002
887	-0.002
887	-0.001
888	-0.002
888	-0.002
889	-0.001
889	-0.001
890	-0.001
890	-0.001
890	-0.001
891	-0.002
891	-0.002
892	-0.003
892	-0.003
893	-0.004
893	-0.004
893	-0.005
894	-0.006
894	-0.006
895	-0.007
895	-0.008
895	-0.008
896	-0.009
896	-0.009
897	-0.009
897	-0.009
898	-0.009
898	-0.009
898	-0.008
899	-0.008
899	-0.007
900	-0.007
900	-0.006
901	-0.006
901	-0.005
901	-0.004
902	-0.003
902	-0.003
903	-0.002
903	-0.002
904	-0.001
904	-0.001
904	-0.001
905	-0.001
905	-0.002
906	-0.002
906	-0.002
907	-0.003
907	-0.003
907	-0.003
908	-0.004
908	-0.004
909	-0.004
909	-0.004
910	-0.005
910	-0.005
910	-0.005
911	-0.006
911	-0.006
912	-0.006
912	-0.007
913	-0.007
913	-0.007
913	-0.008
914	-0.009
914	-0.009
915	-0.01
915	-0.01
916	-0.01
916	-0.011
916	-0.011
917	-0.011
917	-0.011
918	-0.011
918	-0.01
918	-0.009
919	-0.008
919	-0.007
920	-0.006
920	-0.004
921	-0.003
921	-0.002
921	-0.001
922	-0
922	0
923	0
923	0
924	-0
924	-0.001
924	-0.002
925	-0.003
925	-0.004
926	-0.004
926	-0.005
927	-0.006
927	-0.006
927	-0.006
928	-0.006
928	-0.007
929	-0.006
929	-0.007
930	-0.007
930	-0.007
930	-0.008
931	-0.008
931	-0.009
932	-0.009
932	-0.01
933	-0.01
933	-0.011
933	-0.011
934	-0.011
934	-0.012
935	-0.012
935	-0.012
935	-0.012
936	-0.012
936	-0.012
937	-0.012
937	-0.012
938	-0.012
938	-0.012
938	-0.012
939	-0.012
939	-0.012
940	-0.013
940	-0.013
941	-0.013
941	-0.014
941	-0.014
942	-0.015
942	-0.015
943	-0.015
943	-0.016
944	-0.016
944	-0.016
944	-0.016
945	-0.015
945	-0.015
946	-0.015
946	-0.015
946	-0.015
947	-0.015
947	-0.015
948	-0.015
948	-0.015
949	-0.015
949	-0.014
949	-0.014
950	-0.013
950	-0.013
951	-0.012
951	-0.012
952	-0.011
952	-0.011
952	-0.01
953	-0.009
953	-0.009
954	-0.009
954	-0.009
955	-0.008
955	-0.008
955	-0.008
956	-0.007
956	-0.007
957	-0.007
957	-0.006
957	-0.006
958	-0.006
958	-0.006
959	-0.006
959	-0.007
960	-0.007
960	-0.008
960	-0.009
961	-0.009
961	-0.01
962	-0.011
962	-0.012
963	-0.013
963	-0.014
963	-0.015
964	-0.016
964	-0.017
965	-0.018
965	-0.019
966	-0.019
966	-0.019
966	-0.019
967	-0.018
967	-0.018
968	-0.017
968	-0.016
968	-0.015
969	-0.014
969	-0.013
970	-0.013
970	-0.012
971	-0.012
971	-0.012
971	-0.011
972	-0.011
972	-0.01
973	-0.01
973	-0.009
974	-0.009
974	-0.008
974	-0.008
975	-0.007
975	-0.006
976	-0.006
976	-0.005
976	-0.005
977	-0.005
977	-0.005
978	-0.006
978	-0.006
979	-0.007
979	-0.008
979	-0.009
980	-0.01
980	-0.011
981	-0.012
981	-0.013
982	-0.014
982	-0.014
982	-0.015
983	-0.015
983	-0.016
984	-0.016
984	-0.016
984	-0.016
985	-0.016
985	-0.016
986	-0.016
986	-0.017
987	-0.017
987	-0.017
987	-0.017
988	-0.017
988	-0.016
989	-0.016
989	-0.016
990	-0.015
990	-0.015
990	-0.014
991	-0.013
991	-0.013
992	-0.013
992	-0.013
992	-0.013
993	-0.014
993	-0.014
994	-0.015
994	-0.016
995	-0.017
995	-0.018
995	-0.019
996	-0.02
996	-0.02
997	-0.021
997	-0.021
997	-0.02
998	-0.02
998	-0.019
999	-0.018
999	-0.017
1000	-0.017
1000	-0.016
1000	-0.015
1001	-0.015
1001	-0.015
1002	-0.015
1002	-0.015
1003	-0.016
1003	-0.017
1003	-0.018
1004	-0.019
1004	-0.02
1005	-0.021
1005	-0.022
1005	-0.023
1006	-0.024
1006	-0.025
1007	-0.026
1007	-0.026
1008	-0.026
1008	-0.027
1008	-0.027
1009	-0.027
1009	-0.027
1010	-0.026
1010	-0.026
1010	-0.026
1011	-0.025
1011	-0.025
1012	-0.025
1012	-0.024
1013	-0.024
1013	-0.024
1013	-0.024
1014	-0.024
1014	-0.024
1015	-0.024
1015	-0.024
1016	-0.024
1016	-0.024
1016	-0.024
1017	-0.023
1017	-0.023
1018	-0.022
1018	-0.022
1018	-0.021
1019	-0.021
1019	-0.02
1020	-0.02
1020	-0.02
1021	-0.02
1021	-0.02
1021	-0.02
1022	-0.02
1022	-0.02
1023	-0.02
1023	-0.02
1023	-0.02
1024	-0.02
1024	-0.02
1025	-0.02
1025	-0.02
1026	-0.02
1026	-0.02
1026	-0.02
1027	-0.019
1027	-0.019
1028	-0.019
1028	-0.019
1028	-0.019
1029	-0.02
1029	-0.02
1030	-0.021
1030	-0.022
1031	-0.023
1031	-0.024
1031	-0.025
1032	-0.026
1032	-0.026
1033	-0.027
1033	-0.028
1033	-0.028
1034	-0.029
1034	-0.03
1035	-0.03
1035	-0.031
1036	-0.031
1036	-0.031
1036	-0.031
1037	-0.031
1037	-0.03
1038	-0.03
1038	-0.03
1039	-0.029
1039	-0.028
1039	-0.028
1040	-0.027
1040	-0.027
1041	-0.026
1041	-0.026
1041	-0.026
1042	-0.027
1042	-0.027
1043	-0.027
1043	-0.028
1044	-0.028
1044	-0.028
1044	-0.028
1045	-0.029
1045	-0.029
1046	-0.029
1046	-0.029
1046	-0.029
1047	-0.029
1047	-0.028
1048	-0.028
1048	-0.028
1049	-0.028
1049	-0.028
1049	-0.028
1050	-0.027
1050	-0.028
1051	-0.028
1051	-0.028
1051	-0.028
1052	-0.028
1052	-0.029
1053	-0.029
1053	-0.029
1053	-0.03
1054	-0.03
1054	-0.031
1055	-0.031
1055	-0.032
1056	-0.033
1056	-0.034
1056	-0.035
1057	-0.036
1057	-0.036
1058	-0.037
1058	-0.038
1058	-0.038
1059	-0.039
1059	-0.04
1060	-0.04
1060	-0.04
1061	-0.041
1061	-0.041
1061	-0.041
1062	-0.041
1062	-0.041
1063	-0.042
1063	-0.042
1063	-0.042
1064	-0.042
1064	-0.042
1065	-0.043
1065	-0.043
1066	-0.044
1066	-0.044
1066	-0.044
1067	-0.045
1067	-0.045
1068	-0.045
1068	-0.045
1068	-0.046
1069	-0.046
1069	-0.046
1070	-0.046
1070	-0.046
1071	-0.045
1071	-0.045
1071	-0.045
1072	-0.044
1072	-0.044
1073	-0.043
1073	-0.042
1073	-0.042
1074	-0.041
1074	-0.04
1075	-0.04
1075	-0.04
1076	-0.04
1076	-0.04
1076	-0.04
1077	-0.04
1077	-0.04
1078	-0.041
1078	-0.04
1078	-0.04
1079	-0.04
1079	-0.04
1080	-0.039
1080	-0.039
1080	-0.039
1081	-0.038
1081	-0.037
1082	-0.037
1082	-0.036
1083	-0.037
1083	-0.037
1083	-0.036
1084	-0.035
1084	-0.034
1085	-0.033
1085	-0.033
1085	-0.032
1086	-0.032
1086	-0.032
1087	-0.032
1087	-0.031
1088	-0.032
1088	-0.032
1088	-0.032
1089	-0.034
1089	-0.035
1090	-0.036
1090	-0.037
1090	-0.038
1091	-0.038
1091	-0.038
1092	-0.039
1092	-0.038
1092	-0.039
1093	-0.04
1093	-0.039
1094	-0.039
1094	-0.038
1095	-0.039
1095	-0.038
1095	-0.038
1096	-0.037
1096	-0.037
1097	-0.036
1097	-0.036
1097	-0.035
1098	-0.035
1098	-0.035
1099	-0.035
1099	-0.034
1100	-0.034
1100	-0.034
1100	-0.034
1101	-0.034
1101	-0.034
1102	-0.032
1102	-0.031
1102	-0.03
1103	-0.028
1103	-0.026
1104	-0.023
1104	-0.02
1104	-0.016
1105	-0.012
1105	-0.009
1106	-0.005
1106	-0.001
1107	0.003
1107	0.009
1107	0.015
1108	0.042
1108	0.077
1109	0.122
1109	0.19
1109	0.238
1110	0.326
1110	0.506
1111	1.399
1111	-0
