Data from 15c-2a_Absorbance__631__00631.txt Node

Date: Fri Jan 19 10:02:36 CET 2024
User: Marek
Spectrometer: MAYP115816
Trigger mode: 0
Integration Time (sec): 2.000000E-1
Scans to average: 10
Electric dark correction enabled: true
Nonlinearity correction enabled: true
Boxcar width: 5
XAxis mode: Wavelengths
Number of Pixels in Spectrum: 2068
>>>>>Begin Spectral Data<<<<<
199	-1.465
199	-1.317
200	-1.178
200	-1.065
201	-1.001
201	-0.952
202	-0.886
202	-0.836
203	-0.792
203	-0.755
204	-0.731
204	-0.709
205	-0.691
205	-0.681
205	-0.68
206	-0.675
206	-0.672
207	-0.667
207	-0.663
208	-0.661
208	-0.658
209	-0.657
209	-0.653
210	-0.651
210	-0.65
211	-0.649
211	-0.647
212	-0.649
212	-0.649
213	-0.649
213	-0.646
213	-0.647
214	-0.643
214	-0.642
215	-0.64
215	-0.639
216	-0.637
216	-0.638
217	-0.633
217	-0.633
218	-0.63
218	-0.628
219	-0.623
219	-0.623
220	-0.622
220	-0.623
221	-0.621
221	-0.617
221	-0.611
222	-0.609
222	-0.604
223	-0.599
223	-0.596
224	-0.59
224	-0.583
225	-0.575
225	-0.565
226	-0.555
226	-0.545
227	-0.533
227	-0.522
228	-0.508
228	-0.495
229	-0.477
229	-0.458
229	-0.435
230	-0.411
230	-0.384
231	-0.355
231	-0.324
232	-0.293
232	-0.258
233	-0.222
233	-0.185
234	-0.151
234	-0.116
235	-0.084
235	-0.054
236	-0.025
236	0.002
236	0.028
237	0.053
237	0.074
238	0.094
238	0.111
239	0.128
239	0.143
240	0.156
240	0.168
241	0.179
241	0.189
242	0.198
242	0.206
243	0.213
243	0.219
243	0.225
244	0.23
244	0.235
245	0.24
245	0.244
246	0.248
246	0.252
247	0.255
247	0.258
248	0.261
248	0.264
249	0.266
249	0.269
250	0.272
250	0.274
250	0.276
251	0.278
251	0.28
252	0.282
252	0.284
253	0.286
253	0.288
254	0.289
254	0.291
255	0.292
255	0.294
256	0.295
256	0.295
257	0.296
257	0.297
258	0.297
258	0.298
258	0.298
259	0.299
259	0.299
260	0.299
260	0.298
261	0.298
261	0.298
262	0.298
262	0.298
263	0.297
263	0.297
264	0.296
264	0.295
265	0.294
265	0.293
265	0.292
266	0.291
266	0.29
267	0.289
267	0.288
268	0.286
268	0.285
269	0.283
269	0.282
270	0.28
270	0.278
271	0.276
271	0.274
272	0.273
272	0.271
272	0.269
273	0.267
273	0.265
274	0.263
274	0.261
275	0.259
275	0.258
276	0.256
276	0.253
277	0.251
277	0.249
278	0.247
278	0.245
278	0.243
279	0.241
279	0.239
280	0.237
280	0.235
281	0.233
281	0.231
282	0.229
282	0.227
283	0.225
283	0.223
284	0.222
284	0.22
285	0.218
285	0.216
285	0.214
286	0.213
286	0.211
287	0.21
287	0.208
288	0.206
288	0.205
289	0.203
289	0.202
290	0.201
290	0.199
291	0.198
291	0.197
292	0.195
292	0.194
292	0.193
293	0.192
293	0.191
294	0.19
294	0.189
295	0.188
295	0.187
296	0.187
296	0.186
297	0.185
297	0.185
298	0.184
298	0.184
298	0.183
299	0.182
299	0.182
300	0.181
300	0.18
301	0.18
301	0.179
302	0.179
302	0.178
303	0.178
303	0.177
304	0.177
304	0.176
305	0.176
305	0.175
305	0.175
306	0.174
306	0.174
307	0.173
307	0.173
308	0.172
308	0.172
309	0.171
309	0.171
310	0.17
310	0.17
311	0.169
311	0.169
311	0.168
312	0.168
312	0.167
313	0.167
313	0.166
314	0.166
314	0.165
315	0.165
315	0.164
316	0.164
316	0.163
317	0.162
317	0.162
318	0.161
318	0.161
318	0.16
319	0.16
319	0.16
320	0.159
320	0.159
321	0.158
321	0.158
322	0.157
322	0.156
323	0.156
323	0.155
324	0.155
324	0.154
324	0.154
325	0.153
325	0.153
326	0.152
326	0.152
327	0.151
327	0.151
328	0.151
328	0.15
329	0.15
329	0.149
330	0.149
330	0.148
330	0.148
331	0.147
331	0.147
332	0.146
332	0.145
333	0.145
333	0.145
334	0.144
334	0.144
335	0.143
335	0.143
336	0.142
336	0.142
336	0.141
337	0.141
337	0.141
338	0.14
338	0.14
339	0.139
339	0.139
340	0.139
340	0.138
341	0.138
341	0.138
342	0.137
342	0.137
342	0.137
343	0.136
343	0.136
344	0.136
344	0.135
345	0.135
345	0.135
346	0.134
346	0.134
347	0.133
347	0.133
348	0.133
348	0.133
348	0.132
349	0.132
349	0.132
350	0.132
350	0.131
351	0.131
351	0.131
352	0.131
352	0.131
353	0.13
353	0.13
354	0.13
354	0.129
354	0.129
355	0.129
355	0.128
356	0.128
356	0.128
357	0.127
357	0.127
358	0.127
358	0.127
359	0.127
359	0.127
360	0.127
360	0.127
360	0.127
361	0.127
361	0.126
362	0.127
362	0.126
363	0.126
363	0.126
364	0.126
364	0.126
365	0.126
365	0.126
366	0.125
366	0.125
366	0.125
367	0.125
367	0.125
368	0.125
368	0.125
369	0.124
369	0.124
370	0.124
370	0.124
371	0.124
371	0.123
372	0.123
372	0.123
372	0.123
373	0.122
373	0.122
374	0.122
374	0.122
375	0.122
375	0.122
376	0.122
376	0.122
377	0.122
377	0.122
378	0.122
378	0.122
378	0.122
379	0.122
379	0.122
380	0.122
380	0.121
381	0.121
381	0.121
382	0.121
382	0.121
383	0.121
383	0.121
383	0.121
384	0.121
384	0.12
385	0.12
385	0.12
386	0.12
386	0.12
387	0.12
387	0.12
388	0.119
388	0.119
389	0.119
389	0.118
389	0.118
390	0.118
390	0.118
391	0.118
391	0.118
392	0.118
392	0.117
393	0.118
393	0.118
394	0.117
394	0.117
394	0.117
395	0.117
395	0.117
396	0.117
396	0.116
397	0.116
397	0.116
398	0.116
398	0.116
399	0.116
399	0.116
400	0.115
400	0.115
400	0.115
401	0.115
401	0.115
402	0.115
402	0.114
403	0.114
403	0.114
404	0.114
404	0.114
405	0.114
405	0.114
405	0.114
406	0.113
406	0.113
407	0.113
407	0.113
408	0.113
408	0.112
409	0.112
409	0.112
410	0.112
410	0.112
411	0.112
411	0.112
411	0.111
412	0.111
412	0.111
413	0.111
413	0.111
414	0.111
414	0.111
415	0.111
415	0.11
416	0.11
416	0.11
416	0.11
417	0.11
417	0.11
418	0.11
418	0.11
419	0.11
419	0.11
420	0.11
420	0.11
421	0.11
421	0.11
421	0.11
422	0.11
422	0.11
423	0.11
423	0.11
424	0.11
424	0.11
425	0.109
425	0.109
426	0.109
426	0.109
427	0.109
427	0.109
427	0.109
428	0.109
428	0.109
429	0.109
429	0.109
430	0.109
430	0.109
431	0.109
431	0.108
432	0.108
432	0.108
432	0.108
433	0.107
433	0.107
434	0.107
434	0.107
435	0.107
435	0.107
436	0.107
436	0.107
437	0.107
437	0.107
437	0.107
438	0.107
438	0.106
439	0.106
439	0.106
440	0.106
440	0.106
441	0.106
441	0.106
442	0.106
442	0.106
442	0.106
443	0.106
443	0.106
444	0.106
444	0.106
445	0.106
445	0.106
446	0.106
446	0.106
447	0.106
447	0.106
447	0.106
448	0.106
448	0.106
449	0.106
449	0.106
450	0.106
450	0.106
451	0.106
451	0.106
452	0.106
452	0.106
452	0.106
453	0.106
453	0.105
454	0.105
454	0.105
455	0.106
455	0.106
456	0.106
456	0.106
457	0.106
457	0.106
458	0.106
458	0.106
458	0.106
459	0.106
459	0.106
460	0.105
460	0.105
461	0.105
461	0.105
462	0.105
462	0.105
463	0.105
463	0.106
463	0.106
464	0.106
464	0.106
465	0.106
465	0.107
466	0.107
466	0.107
467	0.107
467	0.108
467	0.107
468	0.107
468	0.107
469	0.107
469	0.107
470	0.107
470	0.107
471	0.107
471	0.107
472	0.107
472	0.107
472	0.108
473	0.108
473	0.109
474	0.109
474	0.109
475	0.11
475	0.11
476	0.111
476	0.111
477	0.111
477	0.111
477	0.112
478	0.112
478	0.112
479	0.112
479	0.112
480	0.113
480	0.113
481	0.113
481	0.114
482	0.115
482	0.115
482	0.116
483	0.117
483	0.119
484	0.12
484	0.12
485	0.121
485	0.122
486	0.123
486	0.123
487	0.124
487	0.124
487	0.124
488	0.125
488	0.125
489	0.125
489	0.126
490	0.127
490	0.128
491	0.128
491	0.129
492	0.13
492	0.131
492	0.132
493	0.132
493	0.133
494	0.135
494	0.136
495	0.137
495	0.138
496	0.139
496	0.14
496	0.141
497	0.142
497	0.143
498	0.144
498	0.145
499	0.146
499	0.146
500	0.148
500	0.149
501	0.15
501	0.151
501	0.152
502	0.153
502	0.155
503	0.156
503	0.157
504	0.158
504	0.159
505	0.16
505	0.161
506	0.161
506	0.162
506	0.163
507	0.164
507	0.164
508	0.165
508	0.166
509	0.167
509	0.168
510	0.169
510	0.17
511	0.171
511	0.172
511	0.172
512	0.173
512	0.174
513	0.175
513	0.175
514	0.176
514	0.176
515	0.176
515	0.176
515	0.176
516	0.176
516	0.177
517	0.177
517	0.177
518	0.177
518	0.177
519	0.177
519	0.177
520	0.176
520	0.176
520	0.176
521	0.175
521	0.174
522	0.173
522	0.173
523	0.173
523	0.173
524	0.173
524	0.174
524	0.174
525	0.175
525	0.176
526	0.176
526	0.177
527	0.178
527	0.178
528	0.178
528	0.179
529	0.179
529	0.179
529	0.179
530	0.178
530	0.178
531	0.177
531	0.176
532	0.176
532	0.175
533	0.175
533	0.174
533	0.172
534	0.171
534	0.171
535	0.17
535	0.169
536	0.168
536	0.167
537	0.166
537	0.165
538	0.163
538	0.162
538	0.161
539	0.16
539	0.159
540	0.157
540	0.156
541	0.154
541	0.153
542	0.152
542	0.15
542	0.148
543	0.147
543	0.146
544	0.144
544	0.143
545	0.142
545	0.142
546	0.14
546	0.139
547	0.138
547	0.136
547	0.135
548	0.134
548	0.132
549	0.131
549	0.13
550	0.128
550	0.127
551	0.125
551	0.124
551	0.122
552	0.121
552	0.12
553	0.119
553	0.118
554	0.117
554	0.115
555	0.113
555	0.111
556	0.109
556	0.107
556	0.106
557	0.104
557	0.103
558	0.102
558	0.1
559	0.099
559	0.098
560	0.097
560	0.096
560	0.096
561	0.095
561	0.094
562	0.093
562	0.092
563	0.09
563	0.089
564	0.087
564	0.086
564	0.084
565	0.083
565	0.082
566	0.081
566	0.08
567	0.08
567	0.079
568	0.079
568	0.078
568	0.078
569	0.078
569	0.077
570	0.076
570	0.075
571	0.074
571	0.073
572	0.072
572	0.071
573	0.07
573	0.069
573	0.068
574	0.068
574	0.067
575	0.067
575	0.067
576	0.067
576	0.066
577	0.065
577	0.064
577	0.064
578	0.064
578	0.063
579	0.063
579	0.063
580	0.062
580	0.06
581	0.059
581	0.058
581	0.058
582	0.058
582	0.057
583	0.057
583	0.057
584	0.055
584	0.054
585	0.054
585	0.054
585	0.053
586	0.053
586	0.052
587	0.051
587	0.05
588	0.049
588	0.048
589	0.047
589	0.047
590	0.047
590	0.047
590	0.047
591	0.047
591	0.047
592	0.046
592	0.045
593	0.045
593	0.045
594	0.045
594	0.044
594	0.044
595	0.043
595	0.042
596	0.042
596	0.042
597	0.043
597	0.043
598	0.043
598	0.043
598	0.044
599	0.043
599	0.043
600	0.042
600	0.042
601	0.041
601	0.041
602	0.04
602	0.04
602	0.04
603	0.04
603	0.04
604	0.041
604	0.042
605	0.043
605	0.044
606	0.044
606	0.044
606	0.044
607	0.044
607	0.044
608	0.043
608	0.042
609	0.042
609	0.041
610	0.04
610	0.039
610	0.039
611	0.04
611	0.041
612	0.041
612	0.042
613	0.043
613	0.044
614	0.044
614	0.044
614	0.044
615	0.044
615	0.044
616	0.044
616	0.044
617	0.044
617	0.044
618	0.044
618	0.044
618	0.044
619	0.044
619	0.045
620	0.046
620	0.046
621	0.047
621	0.047
622	0.047
622	0.047
622	0.048
623	0.048
623	0.049
624	0.049
624	0.049
625	0.049
625	0.049
626	0.05
626	0.05
626	0.051
627	0.052
627	0.053
628	0.055
628	0.056
629	0.056
629	0.057
630	0.057
630	0.058
630	0.059
631	0.06
631	0.06
632	0.06
632	0.061
633	0.062
633	0.062
634	0.064
634	0.065
634	0.066
635	0.067
635	0.068
636	0.069
636	0.071
637	0.072
637	0.073
638	0.074
638	0.074
638	0.075
639	0.075
639	0.076
640	0.077
640	0.077
641	0.078
641	0.079
642	0.08
642	0.081
642	0.082
643	0.083
643	0.084
644	0.086
644	0.088
645	0.09
645	0.092
646	0.094
646	0.097
646	0.1
647	0.103
647	0.105
648	0.108
648	0.11
649	0.113
649	0.115
650	0.118
650	0.12
650	0.122
651	0.124
651	0.126
652	0.128
652	0.13
653	0.132
653	0.137
653	0.145
654	0.116
654	0.095
655	0.097
655	0.099
656	0.1
656	0.102
657	0.103
657	0.104
657	0.105
658	0.104
658	0.097
659	0.122
659	0.158
660	0.162
660	0.164
661	0.166
661	0.169
661	0.171
662	0.173
662	0.176
663	0.178
663	0.18
664	0.182
664	0.183
665	0.185
665	0.187
665	0.188
666	0.19
666	0.191
667	0.193
667	0.194
668	0.196
668	0.198
669	0.199
669	0.201
669	0.203
670	0.205
670	0.207
671	0.208
671	0.21
672	0.211
672	0.213
672	0.215
673	0.216
673	0.218
674	0.219
674	0.221
675	0.222
675	0.224
676	0.226
676	0.227
676	0.228
677	0.23
677	0.231
678	0.232
678	0.232
679	0.233
679	0.234
680	0.235
680	0.236
680	0.237
681	0.238
681	0.238
682	0.239
682	0.24
683	0.24
683	0.241
684	0.241
684	0.241
684	0.241
685	0.241
685	0.241
686	0.241
686	0.241
687	0.24
687	0.24
687	0.239
688	0.239
688	0.238
689	0.238
689	0.238
690	0.238
690	0.237
691	0.237
691	0.237
691	0.237
692	0.236
692	0.236
693	0.235
693	0.235
694	0.234
694	0.233
695	0.233
695	0.233
695	0.232
696	0.231
696	0.229
697	0.228
697	0.227
698	0.226
698	0.224
698	0.223
699	0.222
699	0.22
700	0.218
700	0.217
701	0.215
701	0.214
702	0.213
702	0.212
702	0.21
703	0.209
703	0.208
704	0.207
704	0.206
705	0.205
705	0.204
705	0.202
706	0.201
706	0.199
707	0.198
707	0.196
708	0.194
708	0.193
709	0.191
709	0.189
709	0.187
710	0.185
710	0.184
711	0.182
711	0.181
712	0.179
712	0.177
713	0.174
713	0.172
713	0.169
714	0.167
714	0.165
715	0.163
715	0.161
716	0.159
716	0.157
716	0.156
717	0.155
717	0.155
718	0.154
718	0.153
719	0.152
719	0.151
720	0.149
720	0.147
720	0.145
721	0.143
721	0.141
722	0.139
722	0.137
723	0.135
723	0.134
723	0.132
724	0.13
724	0.129
725	0.127
725	0.125
726	0.124
726	0.122
727	0.12
727	0.118
727	0.116
728	0.114
728	0.112
729	0.111
729	0.11
730	0.108
730	0.106
730	0.104
731	0.103
731	0.102
732	0.101
732	0.099
733	0.098
733	0.097
734	0.096
734	0.094
734	0.092
735	0.091
735	0.089
736	0.087
736	0.085
737	0.083
737	0.082
737	0.079
738	0.077
738	0.075
739	0.074
739	0.073
740	0.072
740	0.071
741	0.071
741	0.07
741	0.068
742	0.067
742	0.065
743	0.064
743	0.063
744	0.062
744	0.06
744	0.059
745	0.057
745	0.055
746	0.054
746	0.053
747	0.053
747	0.053
748	0.052
748	0.052
748	0.051
749	0.05
749	0.049
750	0.048
750	0.046
751	0.045
751	0.043
751	0.042
752	0.04
752	0.039
753	0.037
753	0.036
754	0.035
754	0.034
754	0.034
755	0.034
755	0.034
756	0.033
756	0.032
757	0.031
757	0.031
758	0.03
758	0.029
758	0.029
759	0.028
759	0.027
760	0.026
760	0.024
761	0.023
761	0.023
761	0.022
762	0.021
762	0.02
763	0.019
763	0.018
764	0.016
764	0.015
764	0.013
765	0.012
765	0.01
766	0.009
766	0.009
767	0.008
767	0.006
768	0.005
768	0.003
768	0.002
769	0.001
769	-0
770	-0.001
770	-0.002
771	-0.004
771	-0.005
771	-0.007
772	-0.008
772	-0.009
773	-0.01
773	-0.012
774	-0.013
774	-0.015
775	-0.016
775	-0.018
775	-0.02
776	-0.022
776	-0.024
777	-0.026
777	-0.028
778	-0.03
778	-0.032
778	-0.034
779	-0.035
779	-0.037
780	-0.039
780	-0.042
781	-0.044
781	-0.047
781	-0.051
782	-0.055
782	-0.059
783	-0.063
783	-0.067
784	-0.072
784	-0.078
784	-0.083
785	-0.089
785	-0.094
786	-0.099
786	-0.104
787	-0.107
787	-0.112
788	-0.117
788	-0.123
788	-0.13
789	-0.137
789	-0.142
790	-0.144
790	-0.148
791	-0.153
791	-0.156
791	-0.158
792	-0.153
792	-0.144
793	-0.14
793	-0.136
794	-0.134
794	-0.136
794	-0.139
795	-0.141
795	-0.141
796	-0.141
796	-0.144
797	-0.152
797	-0.163
797	-0.169
798	-0.175
798	-0.178
799	-0.178
799	-0.178
800	-0.178
800	-0.179
801	-0.182
801	-0.182
801	-0.182
802	-0.183
802	-0.184
803	-0.184
803	-0.184
804	-0.183
804	-0.178
804	-0.172
805	-0.168
805	-0.166
806	-0.163
806	-0.162
807	-0.161
807	-0.161
807	-0.16
808	-0.16
808	-0.161
809	-0.165
809	-0.171
810	-0.174
810	-0.177
810	-0.181
811	-0.184
811	-0.185
812	-0.181
812	-0.179
813	-0.179
813	-0.18
813	-0.182
814	-0.183
814	-0.183
815	-0.179
815	-0.175
816	-0.17
816	-0.165
817	-0.163
817	-0.159
817	-0.151
818	-0.141
818	-0.13
819	-0.118
819	-0.108
820	-0.099
820	-0.092
820	-0.086
821	-0.079
821	-0.073
822	-0.068
822	-0.064
823	-0.06
823	-0.056
823	-0.053
824	-0.05
824	-0.047
825	-0.043
825	-0.04
826	-0.037
826	-0.035
826	-0.033
827	-0.031
827	-0.029
828	-0.028
828	-0.026
829	-0.025
829	-0.024
829	-0.023
830	-0.022
830	-0.021
831	-0.02
831	-0.02
832	-0.02
832	-0.019
832	-0.019
833	-0.02
833	-0.02
834	-0.02
834	-0.021
835	-0.021
835	-0.021
835	-0.022
836	-0.022
836	-0.022
837	-0.022
837	-0.022
838	-0.022
838	-0.021
839	-0.021
839	-0.02
839	-0.019
840	-0.018
840	-0.017
841	-0.016
841	-0.015
842	-0.014
842	-0.013
842	-0.012
843	-0.011
843	-0.01
844	-0.009
844	-0.008
845	-0.007
845	-0.006
845	-0.006
846	-0.006
846	-0.005
847	-0.005
847	-0.005
848	-0.006
848	-0.006
848	-0.007
849	-0.007
849	-0.008
850	-0.009
850	-0.01
851	-0.011
851	-0.012
851	-0.013
852	-0.013
852	-0.014
853	-0.014
853	-0.015
854	-0.015
854	-0.016
854	-0.016
855	-0.016
855	-0.016
856	-0.016
856	-0.016
857	-0.016
857	-0.017
857	-0.016
858	-0.016
858	-0.015
859	-0.015
859	-0.014
860	-0.014
860	-0.013
860	-0.012
861	-0.011
861	-0.01
862	-0.01
862	-0.009
863	-0.009
863	-0.009
863	-0.009
864	-0.009
864	-0.009
865	-0.009
865	-0.009
866	-0.008
866	-0.008
866	-0.008
867	-0.007
867	-0.006
868	-0.006
868	-0.006
869	-0.005
869	-0.006
869	-0.006
870	-0.007
870	-0.008
871	-0.009
871	-0.009
872	-0.01
872	-0.011
872	-0.011
873	-0.011
873	-0.011
874	-0.011
874	-0.011
875	-0.011
875	-0.011
875	-0.011
876	-0.01
876	-0.01
877	-0.01
877	-0.01
878	-0.01
878	-0.01
878	-0.01
879	-0.011
879	-0.011
880	-0.011
880	-0.012
881	-0.012
881	-0.012
881	-0.012
882	-0.012
882	-0.011
883	-0.011
883	-0.01
884	-0.009
884	-0.008
884	-0.008
885	-0.007
885	-0.006
886	-0.006
886	-0.005
887	-0.005
887	-0.006
887	-0.006
888	-0.007
888	-0.007
889	-0.007
889	-0.007
890	-0.008
890	-0.008
890	-0.008
891	-0.009
891	-0.009
892	-0.009
892	-0.009
893	-0.009
893	-0.009
893	-0.009
894	-0.009
894	-0.009
895	-0.009
895	-0.009
895	-0.01
896	-0.01
896	-0.01
897	-0.009
897	-0.009
898	-0.009
898	-0.008
898	-0.008
899	-0.007
899	-0.006
900	-0.006
900	-0.005
901	-0.004
901	-0.003
901	-0.003
902	-0.002
902	-0.001
903	-0.001
903	-0
904	0
904	0.001
904	0.001
905	0.001
905	0.001
906	0.001
906	0
907	-0
907	-0.001
907	-0.001
908	-0.002
908	-0.003
909	-0.003
909	-0.004
910	-0.005
910	-0.005
910	-0.006
911	-0.007
911	-0.008
912	-0.008
912	-0.009
913	-0.009
913	-0.01
913	-0.01
914	-0.011
914	-0.011
915	-0.012
915	-0.012
916	-0.012
916	-0.012
916	-0.012
917	-0.011
917	-0.011
918	-0.01
918	-0.009
918	-0.008
919	-0.007
919	-0.006
920	-0.005
920	-0.003
921	-0.002
921	-0
921	0.001
922	0.002
922	0.003
923	0.003
923	0.003
924	0.003
924	0.003
924	0.002
925	0.001
925	0
926	-0.001
926	-0.002
927	-0.003
927	-0.004
927	-0.005
928	-0.005
928	-0.005
929	-0.005
929	-0.005
930	-0.004
930	-0.004
930	-0.004
931	-0.004
931	-0.004
932	-0.004
932	-0.004
933	-0.004
933	-0.005
933	-0.006
934	-0.007
934	-0.007
935	-0.008
935	-0.009
935	-0.01
936	-0.01
936	-0.01
937	-0.01
937	-0.011
938	-0.01
938	-0.01
938	-0.01
939	-0.01
939	-0.01
940	-0.01
940	-0.01
941	-0.01
941	-0.011
941	-0.012
942	-0.012
942	-0.012
943	-0.013
943	-0.013
944	-0.013
944	-0.013
944	-0.013
945	-0.013
945	-0.013
946	-0.013
946	-0.013
946	-0.013
947	-0.014
947	-0.014
948	-0.015
948	-0.015
949	-0.015
949	-0.015
949	-0.015
950	-0.015
950	-0.014
951	-0.014
951	-0.013
952	-0.012
952	-0.011
952	-0.01
953	-0.009
953	-0.008
954	-0.008
954	-0.007
955	-0.006
955	-0.006
955	-0.005
956	-0.005
956	-0.004
957	-0.004
957	-0.004
957	-0.005
958	-0.005
958	-0.006
959	-0.006
959	-0.007
960	-0.007
960	-0.008
960	-0.009
961	-0.01
961	-0.011
962	-0.012
962	-0.012
963	-0.013
963	-0.015
963	-0.016
964	-0.018
964	-0.019
965	-0.02
965	-0.021
966	-0.021
966	-0.021
966	-0.021
967	-0.021
967	-0.02
968	-0.019
968	-0.018
968	-0.017
969	-0.015
969	-0.014
970	-0.012
970	-0.011
971	-0.01
971	-0.009
971	-0.008
972	-0.007
972	-0.005
973	-0.004
973	-0.004
974	-0.003
974	-0.002
974	-0.002
975	-0.001
975	-0.001
976	-0.001
976	-0.001
976	-0.001
977	-0.001
977	-0.002
978	-0.003
978	-0.003
979	-0.004
979	-0.005
979	-0.006
980	-0.007
980	-0.008
981	-0.009
981	-0.01
982	-0.01
982	-0.011
982	-0.012
983	-0.012
983	-0.013
984	-0.013
984	-0.013
984	-0.013
985	-0.013
985	-0.013
986	-0.014
986	-0.014
987	-0.014
987	-0.014
987	-0.014
988	-0.013
988	-0.013
989	-0.012
989	-0.012
990	-0.011
990	-0.011
990	-0.01
991	-0.009
991	-0.009
992	-0.009
992	-0.009
992	-0.01
993	-0.01
993	-0.011
994	-0.012
994	-0.013
995	-0.014
995	-0.015
995	-0.016
996	-0.017
996	-0.018
997	-0.018
997	-0.018
997	-0.018
998	-0.017
998	-0.017
999	-0.016
999	-0.016
1000	-0.015
1000	-0.015
1000	-0.015
1001	-0.014
1001	-0.014
1002	-0.015
1002	-0.015
1003	-0.016
1003	-0.017
1003	-0.018
1004	-0.019
1004	-0.02
1005	-0.02
1005	-0.021
1005	-0.021
1006	-0.022
1006	-0.022
1007	-0.022
1007	-0.022
1008	-0.022
1008	-0.022
1008	-0.022
1009	-0.021
1009	-0.021
1010	-0.021
1010	-0.021
1010	-0.02
1011	-0.02
1011	-0.02
1012	-0.019
1012	-0.019
1013	-0.018
1013	-0.018
1013	-0.017
1014	-0.017
1014	-0.016
1015	-0.016
1015	-0.015
1016	-0.014
1016	-0.014
1016	-0.013
1017	-0.013
1017	-0.012
1018	-0.011
1018	-0.01
1018	-0.01
1019	-0.009
1019	-0.009
1020	-0.009
1020	-0.009
1021	-0.009
1021	-0.009
1021	-0.009
1022	-0.009
1022	-0.009
1023	-0.009
1023	-0.01
1023	-0.01
1024	-0.011
1024	-0.011
1025	-0.012
1025	-0.012
1026	-0.013
1026	-0.013
1026	-0.013
1027	-0.013
1027	-0.014
1028	-0.014
1028	-0.014
1028	-0.014
1029	-0.015
1029	-0.015
1030	-0.016
1030	-0.016
1031	-0.017
1031	-0.017
1031	-0.018
1032	-0.019
1032	-0.019
1033	-0.019
1033	-0.019
1033	-0.02
1034	-0.02
1034	-0.02
1035	-0.02
1035	-0.02
1036	-0.02
1036	-0.02
1036	-0.02
1037	-0.02
1037	-0.02
1038	-0.019
1038	-0.019
1039	-0.018
1039	-0.018
1039	-0.018
1040	-0.017
1040	-0.017
1041	-0.017
1041	-0.017
1041	-0.017
1042	-0.018
1042	-0.018
1043	-0.019
1043	-0.019
1044	-0.02
1044	-0.02
1044	-0.021
1045	-0.021
1045	-0.021
1046	-0.021
1046	-0.021
1046	-0.021
1047	-0.021
1047	-0.02
1048	-0.02
1048	-0.02
1049	-0.019
1049	-0.019
1049	-0.019
1050	-0.019
1050	-0.02
1051	-0.02
1051	-0.021
1051	-0.021
1052	-0.021
1052	-0.022
1053	-0.023
1053	-0.023
1053	-0.024
1054	-0.024
1054	-0.024
1055	-0.024
1055	-0.024
1056	-0.025
1056	-0.025
1056	-0.026
1057	-0.026
1057	-0.026
1058	-0.026
1058	-0.026
1058	-0.026
1059	-0.026
1059	-0.025
1060	-0.025
1060	-0.024
1061	-0.024
1061	-0.023
1061	-0.023
1062	-0.023
1062	-0.022
1063	-0.022
1063	-0.022
1063	-0.022
1064	-0.022
1064	-0.023
1065	-0.023
1065	-0.024
1066	-0.024
1066	-0.025
1066	-0.025
1067	-0.025
1067	-0.026
1068	-0.027
1068	-0.027
1068	-0.028
1069	-0.029
1069	-0.029
1070	-0.029
1070	-0.029
1071	-0.029
1071	-0.028
1071	-0.028
1072	-0.028
1072	-0.028
1073	-0.027
1073	-0.027
1073	-0.026
1074	-0.025
1074	-0.025
1075	-0.024
1075	-0.024
1076	-0.024
1076	-0.023
1076	-0.023
1077	-0.023
1077	-0.023
1078	-0.022
1078	-0.022
1078	-0.021
1079	-0.021
1079	-0.021
1080	-0.02
1080	-0.02
1080	-0.019
1081	-0.019
1081	-0.018
1082	-0.018
1082	-0.017
1083	-0.017
1083	-0.017
1083	-0.016
1084	-0.016
1084	-0.015
1085	-0.015
1085	-0.014
1085	-0.013
1086	-0.013
1086	-0.013
1087	-0.012
1087	-0.011
1088	-0.011
1088	-0.01
1088	-0.01
1089	-0.011
1089	-0.011
1090	-0.011
1090	-0.011
1090	-0.011
1091	-0.011
1091	-0.011
1092	-0.01
1092	-0.01
1092	-0.01
1093	-0.01
1093	-0.008
1094	-0.007
1094	-0.006
1095	-0.006
1095	-0.005
1095	-0.004
1096	-0.003
1096	-0.002
1097	-0.001
1097	0.001
1097	0.003
1098	0.003
1098	0.004
1099	0.005
1099	0.006
1100	0.009
1100	0.01
1100	0.012
1101	0.014
1101	0.015
1102	0.019
1102	0.022
1102	0.025
1103	0.029
1103	0.034
1104	0.039
1104	0.043
1104	0.049
1105	0.056
1105	0.061
1106	0.068
1106	0.076
1107	0.082
1107	0.093
1107	0.104
1108	0.142
1108	0.191
1109	0.265
1109	0.383
1109	0.478
1110	0.683
1110	1.612
1111	-0
1111	-0
