Data from 15c-2a_Absorbance__1429__01429.txt Node

Date: Fri Jan 19 10:29:12 CET 2024
User: Marek
Spectrometer: MAYP115816
Trigger mode: 0
Integration Time (sec): 2.000000E-1
Scans to average: 10
Electric dark correction enabled: true
Nonlinearity correction enabled: true
Boxcar width: 5
XAxis mode: Wavelengths
Number of Pixels in Spectrum: 2068
>>>>>Begin Spectral Data<<<<<
199	-1.446
199	-1.303
200	-1.168
200	-1.057
201	-0.994
201	-0.945
202	-0.883
202	-0.835
203	-0.793
203	-0.758
204	-0.734
204	-0.712
205	-0.694
205	-0.684
205	-0.682
206	-0.678
206	-0.675
207	-0.669
207	-0.666
208	-0.665
208	-0.662
209	-0.661
209	-0.658
210	-0.656
210	-0.656
211	-0.656
211	-0.654
212	-0.657
212	-0.658
213	-0.657
213	-0.654
213	-0.654
214	-0.65
214	-0.649
215	-0.647
215	-0.646
216	-0.643
216	-0.645
217	-0.64
217	-0.638
218	-0.636
218	-0.633
219	-0.63
219	-0.632
220	-0.632
220	-0.633
221	-0.632
221	-0.628
221	-0.623
222	-0.62
222	-0.617
223	-0.612
223	-0.609
224	-0.603
224	-0.595
225	-0.588
225	-0.576
226	-0.567
226	-0.557
227	-0.545
227	-0.533
228	-0.518
228	-0.505
229	-0.486
229	-0.466
229	-0.443
230	-0.418
230	-0.391
231	-0.361
231	-0.328
232	-0.295
232	-0.26
233	-0.223
233	-0.185
234	-0.148
234	-0.112
235	-0.077
235	-0.044
236	-0.013
236	0.016
236	0.044
237	0.07
237	0.093
238	0.115
238	0.134
239	0.152
239	0.167
240	0.181
240	0.194
241	0.206
241	0.216
242	0.226
242	0.234
243	0.242
243	0.248
243	0.255
244	0.26
244	0.266
245	0.27
245	0.275
246	0.279
246	0.283
247	0.287
247	0.29
248	0.294
248	0.297
249	0.3
249	0.303
250	0.305
250	0.308
250	0.31
251	0.312
251	0.314
252	0.317
252	0.319
253	0.32
253	0.322
254	0.323
254	0.325
255	0.326
255	0.328
256	0.329
256	0.329
257	0.33
257	0.331
258	0.331
258	0.332
258	0.332
259	0.332
259	0.332
260	0.332
260	0.331
261	0.331
261	0.331
262	0.33
262	0.33
263	0.33
263	0.329
264	0.328
264	0.327
265	0.327
265	0.326
265	0.325
266	0.324
266	0.323
267	0.321
267	0.32
268	0.319
268	0.317
269	0.316
269	0.314
270	0.312
270	0.311
271	0.309
271	0.307
272	0.305
272	0.304
272	0.302
273	0.3
273	0.298
274	0.296
274	0.294
275	0.292
275	0.29
276	0.288
276	0.286
277	0.283
277	0.281
278	0.279
278	0.277
278	0.275
279	0.272
279	0.27
280	0.268
280	0.266
281	0.264
281	0.262
282	0.26
282	0.258
283	0.256
283	0.254
284	0.252
284	0.25
285	0.249
285	0.247
285	0.245
286	0.243
286	0.242
287	0.24
287	0.238
288	0.237
288	0.235
289	0.234
289	0.232
290	0.23
290	0.229
291	0.228
291	0.226
292	0.225
292	0.224
292	0.222
293	0.221
293	0.22
294	0.219
294	0.218
295	0.217
295	0.216
296	0.215
296	0.215
297	0.214
297	0.213
298	0.212
298	0.212
298	0.211
299	0.21
299	0.21
300	0.209
300	0.208
301	0.208
301	0.207
302	0.206
302	0.206
303	0.205
303	0.205
304	0.204
304	0.203
305	0.203
305	0.202
305	0.202
306	0.201
306	0.201
307	0.2
307	0.2
308	0.199
308	0.199
309	0.198
309	0.197
310	0.197
310	0.196
311	0.196
311	0.195
311	0.195
312	0.194
312	0.193
313	0.193
313	0.192
314	0.192
314	0.191
315	0.191
315	0.19
316	0.189
316	0.189
317	0.188
317	0.187
318	0.187
318	0.186
318	0.186
319	0.185
319	0.185
320	0.184
320	0.183
321	0.183
321	0.182
322	0.182
322	0.181
323	0.18
323	0.18
324	0.179
324	0.179
324	0.178
325	0.177
325	0.177
326	0.176
326	0.176
327	0.175
327	0.175
328	0.174
328	0.174
329	0.173
329	0.173
330	0.172
330	0.172
330	0.171
331	0.17
331	0.17
332	0.17
332	0.169
333	0.168
333	0.168
334	0.168
334	0.167
335	0.167
335	0.166
336	0.166
336	0.165
336	0.165
337	0.164
337	0.164
338	0.163
338	0.162
339	0.162
339	0.161
340	0.161
340	0.161
341	0.16
341	0.16
342	0.16
342	0.16
342	0.159
343	0.159
343	0.159
344	0.158
344	0.158
345	0.158
345	0.157
346	0.157
346	0.156
347	0.156
347	0.155
348	0.155
348	0.155
348	0.155
349	0.154
349	0.154
350	0.154
350	0.153
351	0.153
351	0.153
352	0.153
352	0.152
353	0.152
353	0.152
354	0.151
354	0.151
354	0.151
355	0.15
355	0.15
356	0.15
356	0.149
357	0.149
357	0.149
358	0.149
358	0.149
359	0.149
359	0.149
360	0.149
360	0.149
360	0.149
361	0.148
361	0.148
362	0.148
362	0.148
363	0.147
363	0.147
364	0.147
364	0.147
365	0.147
365	0.147
366	0.146
366	0.146
366	0.146
367	0.146
367	0.146
368	0.146
368	0.146
369	0.145
369	0.145
370	0.145
370	0.145
371	0.145
371	0.145
372	0.145
372	0.144
372	0.144
373	0.144
373	0.144
374	0.144
374	0.143
375	0.143
375	0.143
376	0.143
376	0.143
377	0.143
377	0.143
378	0.143
378	0.143
378	0.143
379	0.143
379	0.143
380	0.143
380	0.143
381	0.143
381	0.143
382	0.143
382	0.142
383	0.142
383	0.142
383	0.141
384	0.141
384	0.141
385	0.141
385	0.14
386	0.14
386	0.14
387	0.14
387	0.14
388	0.14
388	0.14
389	0.139
389	0.139
389	0.139
390	0.139
390	0.139
391	0.139
391	0.139
392	0.139
392	0.139
393	0.139
393	0.139
394	0.138
394	0.138
394	0.138
395	0.138
395	0.137
396	0.137
396	0.137
397	0.137
397	0.137
398	0.137
398	0.137
399	0.137
399	0.136
400	0.136
400	0.136
400	0.136
401	0.135
401	0.135
402	0.135
402	0.135
403	0.135
403	0.135
404	0.134
404	0.134
405	0.134
405	0.134
405	0.134
406	0.134
406	0.134
407	0.134
407	0.133
408	0.133
408	0.133
409	0.133
409	0.133
410	0.133
410	0.133
411	0.133
411	0.133
411	0.132
412	0.132
412	0.132
413	0.132
413	0.131
414	0.131
414	0.131
415	0.131
415	0.13
416	0.13
416	0.129
416	0.129
417	0.129
417	0.129
418	0.129
418	0.13
419	0.13
419	0.13
420	0.13
420	0.13
421	0.13
421	0.13
421	0.13
422	0.13
422	0.13
423	0.13
423	0.13
424	0.13
424	0.129
425	0.129
425	0.129
426	0.129
426	0.129
427	0.129
427	0.129
427	0.129
428	0.129
428	0.13
429	0.13
429	0.13
430	0.13
430	0.13
431	0.129
431	0.129
432	0.129
432	0.128
432	0.127
433	0.127
433	0.126
434	0.126
434	0.126
435	0.126
435	0.126
436	0.126
436	0.126
437	0.126
437	0.126
437	0.126
438	0.126
438	0.126
439	0.126
439	0.126
440	0.126
440	0.126
441	0.126
441	0.126
442	0.126
442	0.126
442	0.126
443	0.127
443	0.127
444	0.127
444	0.126
445	0.126
445	0.126
446	0.126
446	0.126
447	0.126
447	0.126
447	0.126
448	0.125
448	0.125
449	0.125
449	0.125
450	0.126
450	0.126
451	0.126
451	0.125
452	0.125
452	0.125
452	0.125
453	0.125
453	0.125
454	0.125
454	0.125
455	0.125
455	0.125
456	0.125
456	0.125
457	0.125
457	0.125
458	0.124
458	0.125
458	0.125
459	0.125
459	0.125
460	0.124
460	0.124
461	0.124
461	0.124
462	0.125
462	0.125
463	0.126
463	0.126
463	0.126
464	0.126
464	0.127
465	0.127
465	0.127
466	0.127
466	0.127
467	0.127
467	0.127
467	0.127
468	0.126
468	0.126
469	0.126
469	0.126
470	0.127
470	0.127
471	0.127
471	0.127
472	0.128
472	0.128
472	0.128
473	0.129
473	0.129
474	0.13
474	0.13
475	0.13
475	0.131
476	0.131
476	0.131
477	0.132
477	0.132
477	0.132
478	0.133
478	0.133
479	0.133
479	0.134
480	0.134
480	0.134
481	0.135
481	0.135
482	0.136
482	0.137
482	0.138
483	0.14
483	0.142
484	0.143
484	0.144
485	0.145
485	0.146
486	0.146
486	0.147
487	0.148
487	0.148
487	0.148
488	0.148
488	0.148
489	0.148
489	0.149
490	0.15
490	0.15
491	0.151
491	0.152
492	0.153
492	0.154
492	0.155
493	0.156
493	0.157
494	0.159
494	0.16
495	0.161
495	0.162
496	0.164
496	0.165
496	0.166
497	0.167
497	0.168
498	0.169
498	0.17
499	0.171
499	0.172
500	0.173
500	0.174
501	0.176
501	0.177
501	0.178
502	0.179
502	0.181
503	0.182
503	0.184
504	0.185
504	0.186
505	0.187
505	0.188
506	0.189
506	0.19
506	0.191
507	0.192
507	0.193
508	0.194
508	0.195
509	0.196
509	0.197
510	0.198
510	0.199
511	0.2
511	0.201
511	0.202
512	0.203
512	0.203
513	0.204
513	0.204
514	0.204
514	0.205
515	0.205
515	0.205
515	0.205
516	0.206
516	0.206
517	0.206
517	0.207
518	0.207
518	0.207
519	0.207
519	0.207
520	0.207
520	0.207
520	0.206
521	0.205
521	0.205
522	0.204
522	0.204
523	0.205
523	0.205
524	0.205
524	0.206
524	0.207
525	0.207
525	0.208
526	0.209
526	0.21
527	0.21
527	0.21
528	0.21
528	0.21
529	0.21
529	0.209
529	0.209
530	0.208
530	0.208
531	0.207
531	0.206
532	0.205
532	0.205
533	0.204
533	0.203
533	0.202
534	0.201
534	0.2
535	0.199
535	0.198
536	0.198
536	0.196
537	0.195
537	0.194
538	0.193
538	0.191
538	0.189
539	0.188
539	0.187
540	0.185
540	0.184
541	0.182
541	0.181
542	0.179
542	0.178
542	0.176
543	0.175
543	0.173
544	0.172
544	0.171
545	0.17
545	0.169
546	0.167
546	0.165
547	0.164
547	0.162
547	0.16
548	0.158
548	0.156
549	0.155
549	0.153
550	0.151
550	0.15
551	0.148
551	0.146
551	0.145
552	0.143
552	0.142
553	0.141
553	0.14
554	0.138
554	0.136
555	0.134
555	0.132
556	0.13
556	0.128
556	0.126
557	0.125
557	0.123
558	0.122
558	0.12
559	0.119
559	0.118
560	0.117
560	0.116
560	0.115
561	0.115
561	0.114
562	0.112
562	0.111
563	0.109
563	0.107
564	0.105
564	0.103
564	0.101
565	0.1
565	0.099
566	0.097
566	0.096
567	0.096
567	0.095
568	0.095
568	0.095
568	0.094
569	0.094
569	0.093
570	0.092
570	0.09
571	0.09
571	0.089
572	0.088
572	0.087
573	0.086
573	0.084
573	0.083
574	0.083
574	0.082
575	0.082
575	0.082
576	0.082
576	0.08
577	0.079
577	0.078
577	0.078
578	0.077
578	0.077
579	0.077
579	0.077
580	0.075
580	0.073
581	0.071
581	0.07
581	0.07
582	0.07
582	0.069
583	0.07
583	0.069
584	0.067
584	0.064
585	0.064
585	0.065
585	0.065
586	0.065
586	0.064
587	0.062
587	0.061
588	0.059
588	0.058
589	0.058
589	0.058
590	0.058
590	0.058
590	0.059
591	0.06
591	0.059
592	0.058
592	0.057
593	0.057
593	0.057
594	0.056
594	0.055
594	0.055
595	0.054
595	0.053
596	0.052
596	0.053
597	0.055
597	0.055
598	0.055
598	0.055
598	0.055
599	0.055
599	0.054
600	0.053
600	0.052
601	0.051
601	0.051
602	0.049
602	0.049
602	0.048
603	0.048
603	0.049
604	0.05
604	0.05
605	0.052
605	0.053
606	0.053
606	0.052
606	0.052
607	0.052
607	0.052
608	0.052
608	0.051
609	0.05
609	0.05
610	0.049
610	0.048
610	0.048
611	0.049
611	0.05
612	0.051
612	0.052
613	0.053
613	0.054
614	0.054
614	0.053
614	0.054
615	0.054
615	0.054
616	0.054
616	0.054
617	0.054
617	0.054
618	0.054
618	0.054
618	0.054
619	0.055
619	0.056
620	0.057
620	0.058
621	0.058
621	0.058
622	0.058
622	0.059
622	0.058
623	0.058
623	0.059
624	0.06
624	0.059
625	0.059
625	0.06
626	0.06
626	0.06
626	0.062
627	0.063
627	0.064
628	0.065
628	0.066
629	0.067
629	0.067
630	0.068
630	0.068
630	0.069
631	0.07
631	0.07
632	0.07
632	0.071
633	0.072
633	0.073
634	0.074
634	0.076
634	0.078
635	0.079
635	0.08
636	0.081
636	0.082
637	0.082
637	0.083
638	0.084
638	0.084
638	0.085
639	0.085
639	0.085
640	0.086
640	0.087
641	0.089
641	0.09
642	0.092
642	0.094
642	0.095
643	0.097
643	0.099
644	0.101
644	0.102
645	0.104
645	0.106
646	0.108
646	0.111
646	0.114
647	0.116
647	0.119
648	0.121
648	0.123
649	0.126
649	0.128
650	0.131
650	0.134
650	0.136
651	0.138
651	0.14
652	0.142
652	0.144
653	0.147
653	0.153
653	0.167
654	0.133
654	0.108
655	0.11
655	0.111
656	0.112
656	0.114
657	0.115
657	0.117
657	0.118
658	0.116
658	0.104
659	0.133
659	0.172
660	0.179
660	0.181
661	0.184
661	0.186
661	0.188
662	0.191
662	0.193
663	0.196
663	0.198
664	0.2
664	0.202
665	0.204
665	0.206
665	0.208
666	0.21
666	0.212
667	0.213
667	0.215
668	0.217
668	0.219
669	0.221
669	0.223
669	0.226
670	0.228
670	0.229
671	0.231
671	0.232
672	0.234
672	0.235
672	0.236
673	0.238
673	0.24
674	0.242
674	0.243
675	0.244
675	0.246
676	0.249
676	0.251
676	0.252
677	0.254
677	0.255
678	0.256
678	0.257
679	0.258
679	0.259
680	0.26
680	0.261
680	0.261
681	0.262
681	0.263
682	0.264
682	0.264
683	0.265
683	0.266
684	0.267
684	0.267
684	0.267
685	0.267
685	0.267
686	0.266
686	0.266
687	0.265
687	0.264
687	0.264
688	0.263
688	0.262
689	0.263
689	0.263
690	0.262
690	0.262
691	0.261
691	0.261
691	0.261
692	0.26
692	0.259
693	0.259
693	0.259
694	0.257
694	0.256
695	0.256
695	0.256
695	0.255
696	0.254
696	0.253
697	0.252
697	0.251
698	0.249
698	0.248
698	0.246
699	0.245
699	0.243
700	0.241
700	0.239
701	0.238
701	0.236
702	0.234
702	0.232
702	0.231
703	0.229
703	0.227
704	0.225
704	0.224
705	0.222
705	0.221
705	0.219
706	0.217
706	0.216
707	0.214
707	0.212
708	0.211
708	0.21
709	0.208
709	0.206
709	0.204
710	0.202
710	0.201
711	0.2
711	0.198
712	0.196
712	0.194
713	0.191
713	0.189
713	0.186
714	0.184
714	0.181
715	0.179
715	0.177
716	0.175
716	0.173
716	0.172
717	0.17
717	0.17
718	0.168
718	0.167
719	0.166
719	0.165
720	0.163
720	0.162
720	0.16
721	0.158
721	0.156
722	0.155
722	0.152
723	0.151
723	0.149
723	0.147
724	0.145
724	0.143
725	0.141
725	0.139
726	0.137
726	0.134
727	0.132
727	0.13
727	0.128
728	0.126
728	0.124
729	0.123
729	0.122
730	0.12
730	0.118
730	0.116
731	0.114
731	0.112
732	0.111
732	0.11
733	0.109
733	0.107
734	0.106
734	0.105
734	0.104
735	0.103
735	0.101
736	0.099
736	0.098
737	0.096
737	0.095
737	0.092
738	0.09
738	0.087
739	0.085
739	0.084
740	0.082
740	0.082
741	0.081
741	0.08
741	0.078
742	0.076
742	0.075
743	0.074
743	0.072
744	0.071
744	0.07
744	0.068
745	0.066
745	0.065
746	0.064
746	0.063
747	0.063
747	0.064
748	0.064
748	0.064
748	0.063
749	0.062
749	0.062
750	0.061
750	0.059
751	0.058
751	0.056
751	0.055
752	0.052
752	0.05
753	0.048
753	0.046
754	0.044
754	0.043
754	0.042
755	0.041
755	0.041
756	0.04
756	0.038
757	0.038
757	0.037
758	0.037
758	0.036
758	0.036
759	0.035
759	0.033
760	0.032
760	0.03
761	0.03
761	0.029
761	0.029
762	0.027
762	0.027
763	0.026
763	0.024
764	0.021
764	0.02
764	0.018
765	0.017
765	0.015
766	0.014
766	0.014
767	0.013
767	0.011
768	0.009
768	0.008
768	0.007
769	0.006
769	0.005
770	0.004
770	0.002
771	0
771	-0.001
771	-0.003
772	-0.004
772	-0.005
773	-0.006
773	-0.008
774	-0.01
774	-0.011
775	-0.013
775	-0.015
775	-0.017
776	-0.019
776	-0.021
777	-0.022
777	-0.024
778	-0.026
778	-0.027
778	-0.029
779	-0.03
779	-0.031
780	-0.033
780	-0.035
781	-0.037
781	-0.04
781	-0.043
782	-0.047
782	-0.051
783	-0.055
783	-0.058
784	-0.063
784	-0.068
784	-0.073
785	-0.078
785	-0.084
786	-0.089
786	-0.093
787	-0.098
787	-0.102
788	-0.108
788	-0.114
788	-0.121
789	-0.128
789	-0.134
790	-0.137
790	-0.142
791	-0.147
791	-0.151
791	-0.154
792	-0.15
792	-0.142
793	-0.138
793	-0.135
794	-0.134
794	-0.136
794	-0.139
795	-0.141
795	-0.141
796	-0.141
796	-0.144
797	-0.152
797	-0.163
797	-0.169
798	-0.175
798	-0.178
799	-0.178
799	-0.178
800	-0.178
800	-0.179
801	-0.182
801	-0.183
801	-0.182
802	-0.183
802	-0.184
803	-0.184
803	-0.184
804	-0.183
804	-0.178
804	-0.172
805	-0.168
805	-0.166
806	-0.164
806	-0.162
807	-0.161
807	-0.161
807	-0.16
808	-0.16
808	-0.161
809	-0.165
809	-0.171
810	-0.175
810	-0.177
810	-0.181
811	-0.184
811	-0.185
812	-0.181
812	-0.179
813	-0.179
813	-0.18
813	-0.182
814	-0.183
814	-0.182
815	-0.179
815	-0.174
816	-0.169
816	-0.164
817	-0.162
817	-0.158
817	-0.149
818	-0.139
818	-0.128
819	-0.116
819	-0.106
820	-0.098
820	-0.091
820	-0.084
821	-0.078
821	-0.072
822	-0.067
822	-0.063
823	-0.059
823	-0.056
823	-0.053
824	-0.05
824	-0.046
825	-0.042
825	-0.038
826	-0.035
826	-0.032
826	-0.03
827	-0.027
827	-0.025
828	-0.023
828	-0.021
829	-0.019
829	-0.018
829	-0.017
830	-0.017
830	-0.016
831	-0.015
831	-0.015
832	-0.015
832	-0.015
832	-0.015
833	-0.016
833	-0.016
834	-0.017
834	-0.017
835	-0.017
835	-0.018
835	-0.018
836	-0.018
836	-0.018
837	-0.018
837	-0.017
838	-0.017
838	-0.016
839	-0.015
839	-0.014
839	-0.013
840	-0.012
840	-0.012
841	-0.011
841	-0.01
842	-0.01
842	-0.009
842	-0.008
843	-0.007
843	-0.007
844	-0.006
844	-0.005
845	-0.004
845	-0.004
845	-0.004
846	-0.004
846	-0.004
847	-0.004
847	-0.004
848	-0.005
848	-0.006
848	-0.006
849	-0.007
849	-0.008
850	-0.008
850	-0.009
851	-0.01
851	-0.01
851	-0.011
852	-0.012
852	-0.012
853	-0.013
853	-0.013
854	-0.013
854	-0.013
854	-0.013
855	-0.014
855	-0.014
856	-0.013
856	-0.013
857	-0.013
857	-0.012
857	-0.012
858	-0.011
858	-0.011
859	-0.011
859	-0.01
860	-0.009
860	-0.009
860	-0.008
861	-0.007
861	-0.007
862	-0.007
862	-0.007
863	-0.007
863	-0.008
863	-0.008
864	-0.009
864	-0.009
865	-0.009
865	-0.01
866	-0.01
866	-0.01
866	-0.01
867	-0.01
867	-0.009
868	-0.009
868	-0.008
869	-0.008
869	-0.008
869	-0.008
870	-0.008
870	-0.009
871	-0.009
871	-0.01
872	-0.011
872	-0.011
872	-0.011
873	-0.011
873	-0.012
874	-0.012
874	-0.012
875	-0.011
875	-0.01
875	-0.01
876	-0.009
876	-0.009
877	-0.008
877	-0.008
878	-0.009
878	-0.009
878	-0.009
879	-0.01
879	-0.011
880	-0.012
880	-0.012
881	-0.013
881	-0.014
881	-0.013
882	-0.013
882	-0.013
883	-0.012
883	-0.011
884	-0.01
884	-0.008
884	-0.007
885	-0.006
885	-0.005
886	-0.004
886	-0.003
887	-0.002
887	-0.002
887	-0.002
888	-0.002
888	-0.002
889	-0.002
889	-0.001
890	-0.001
890	-0.002
890	-0.002
891	-0.002
891	-0.003
892	-0.003
892	-0.004
893	-0.004
893	-0.005
893	-0.005
894	-0.006
894	-0.007
895	-0.008
895	-0.008
895	-0.009
896	-0.009
896	-0.009
897	-0.009
897	-0.009
898	-0.009
898	-0.009
898	-0.008
899	-0.008
899	-0.007
900	-0.007
900	-0.006
901	-0.005
901	-0.005
901	-0.004
902	-0.003
902	-0.002
903	-0.002
903	-0.002
904	-0.001
904	-0.001
904	-0.001
905	-0.001
905	-0.002
906	-0.002
906	-0.003
907	-0.003
907	-0.003
907	-0.004
908	-0.004
908	-0.004
909	-0.004
909	-0.005
910	-0.005
910	-0.005
910	-0.005
911	-0.006
911	-0.006
912	-0.006
912	-0.007
913	-0.007
913	-0.008
913	-0.008
914	-0.009
914	-0.009
915	-0.01
915	-0.01
916	-0.011
916	-0.011
916	-0.011
917	-0.011
917	-0.011
918	-0.011
918	-0.01
918	-0.009
919	-0.008
919	-0.007
920	-0.006
920	-0.005
921	-0.003
921	-0.002
921	-0.002
922	-0.001
922	-0.001
923	-0.001
923	-0.001
924	-0.001
924	-0.001
924	-0.002
925	-0.003
925	-0.004
926	-0.004
926	-0.005
927	-0.006
927	-0.006
927	-0.006
928	-0.007
928	-0.007
929	-0.007
929	-0.007
930	-0.007
930	-0.007
930	-0.008
931	-0.008
931	-0.008
932	-0.009
932	-0.009
933	-0.01
933	-0.01
933	-0.011
934	-0.011
934	-0.011
935	-0.011
935	-0.011
935	-0.011
936	-0.011
936	-0.011
937	-0.01
937	-0.01
938	-0.01
938	-0.01
938	-0.01
939	-0.011
939	-0.011
940	-0.011
940	-0.012
941	-0.012
941	-0.013
941	-0.014
942	-0.014
942	-0.015
943	-0.015
943	-0.015
944	-0.015
944	-0.015
944	-0.015
945	-0.015
945	-0.015
946	-0.015
946	-0.015
946	-0.015
947	-0.014
947	-0.015
948	-0.015
948	-0.015
949	-0.014
949	-0.014
949	-0.014
950	-0.013
950	-0.013
951	-0.012
951	-0.012
952	-0.011
952	-0.01
952	-0.01
953	-0.009
953	-0.009
954	-0.008
954	-0.008
955	-0.008
955	-0.007
955	-0.007
956	-0.006
956	-0.006
957	-0.006
957	-0.006
957	-0.006
958	-0.006
958	-0.006
959	-0.006
959	-0.007
960	-0.007
960	-0.008
960	-0.009
961	-0.01
961	-0.01
962	-0.011
962	-0.012
963	-0.013
963	-0.014
963	-0.016
964	-0.017
964	-0.018
965	-0.018
965	-0.019
966	-0.019
966	-0.019
966	-0.019
967	-0.018
967	-0.018
968	-0.017
968	-0.016
968	-0.015
969	-0.014
969	-0.013
970	-0.012
970	-0.012
971	-0.012
971	-0.012
971	-0.011
972	-0.011
972	-0.01
973	-0.01
973	-0.009
974	-0.009
974	-0.008
974	-0.008
975	-0.007
975	-0.006
976	-0.005
976	-0.005
976	-0.005
977	-0.005
977	-0.005
978	-0.006
978	-0.006
979	-0.007
979	-0.008
979	-0.009
980	-0.01
980	-0.011
981	-0.012
981	-0.013
982	-0.014
982	-0.014
982	-0.015
983	-0.015
983	-0.015
984	-0.016
984	-0.016
984	-0.016
985	-0.016
985	-0.016
986	-0.017
986	-0.017
987	-0.017
987	-0.017
987	-0.017
988	-0.017
988	-0.017
989	-0.016
989	-0.016
990	-0.016
990	-0.015
990	-0.014
991	-0.014
991	-0.013
992	-0.013
992	-0.013
992	-0.013
993	-0.014
993	-0.015
994	-0.015
994	-0.016
995	-0.017
995	-0.018
995	-0.019
996	-0.02
996	-0.02
997	-0.02
997	-0.02
997	-0.02
998	-0.019
998	-0.018
999	-0.017
999	-0.017
1000	-0.016
1000	-0.015
1000	-0.014
1001	-0.014
1001	-0.014
1002	-0.014
1002	-0.015
1003	-0.016
1003	-0.017
1003	-0.018
1004	-0.019
1004	-0.02
1005	-0.021
1005	-0.022
1005	-0.023
1006	-0.024
1006	-0.025
1007	-0.025
1007	-0.025
1008	-0.025
1008	-0.026
1008	-0.026
1009	-0.026
1009	-0.026
1010	-0.026
1010	-0.025
1010	-0.025
1011	-0.025
1011	-0.024
1012	-0.024
1012	-0.024
1013	-0.024
1013	-0.024
1013	-0.024
1014	-0.024
1014	-0.024
1015	-0.024
1015	-0.024
1016	-0.024
1016	-0.024
1016	-0.023
1017	-0.023
1017	-0.023
1018	-0.023
1018	-0.022
1018	-0.022
1019	-0.021
1019	-0.021
1020	-0.02
1020	-0.02
1021	-0.02
1021	-0.02
1021	-0.02
1022	-0.02
1022	-0.02
1023	-0.02
1023	-0.02
1023	-0.02
1024	-0.02
1024	-0.02
1025	-0.02
1025	-0.02
1026	-0.02
1026	-0.02
1026	-0.02
1027	-0.02
1027	-0.019
1028	-0.019
1028	-0.019
1028	-0.02
1029	-0.02
1029	-0.02
1030	-0.021
1030	-0.022
1031	-0.023
1031	-0.023
1031	-0.024
1032	-0.025
1032	-0.026
1033	-0.026
1033	-0.027
1033	-0.027
1034	-0.028
1034	-0.029
1035	-0.029
1035	-0.03
1036	-0.03
1036	-0.03
1036	-0.03
1037	-0.03
1037	-0.03
1038	-0.029
1038	-0.029
1039	-0.028
1039	-0.027
1039	-0.026
1040	-0.026
1040	-0.025
1041	-0.025
1041	-0.025
1041	-0.025
1042	-0.025
1042	-0.026
1043	-0.026
1043	-0.026
1044	-0.027
1044	-0.028
1044	-0.028
1045	-0.028
1045	-0.029
1046	-0.029
1046	-0.029
1046	-0.029
1047	-0.028
1047	-0.028
1048	-0.027
1048	-0.027
1049	-0.027
1049	-0.027
1049	-0.027
1050	-0.027
1050	-0.027
1051	-0.027
1051	-0.028
1051	-0.028
1052	-0.028
1052	-0.028
1053	-0.029
1053	-0.029
1053	-0.03
1054	-0.03
1054	-0.03
1055	-0.03
1055	-0.031
1056	-0.031
1056	-0.032
1056	-0.033
1057	-0.034
1057	-0.035
1058	-0.035
1058	-0.036
1058	-0.037
1059	-0.037
1059	-0.038
1060	-0.039
1060	-0.039
1061	-0.039
1061	-0.039
1061	-0.039
1062	-0.04
1062	-0.039
1063	-0.04
1063	-0.04
1063	-0.04
1064	-0.04
1064	-0.04
1065	-0.04
1065	-0.041
1066	-0.041
1066	-0.042
1066	-0.042
1067	-0.042
1067	-0.042
1068	-0.043
1068	-0.043
1068	-0.044
1069	-0.044
1069	-0.044
1070	-0.044
1070	-0.044
1071	-0.044
1071	-0.043
1071	-0.043
1072	-0.042
1072	-0.042
1073	-0.041
1073	-0.04
1073	-0.04
1074	-0.038
1074	-0.038
1075	-0.038
1075	-0.038
1076	-0.038
1076	-0.037
1076	-0.038
1077	-0.038
1077	-0.038
1078	-0.038
1078	-0.038
1078	-0.038
1079	-0.038
1079	-0.038
1080	-0.037
1080	-0.037
1080	-0.037
1081	-0.036
1081	-0.035
1082	-0.035
1082	-0.034
1083	-0.034
1083	-0.034
1083	-0.033
1084	-0.032
1084	-0.031
1085	-0.031
1085	-0.03
1085	-0.029
1086	-0.029
1086	-0.029
1087	-0.029
1087	-0.029
1088	-0.029
1088	-0.029
1088	-0.029
1089	-0.031
1089	-0.031
1090	-0.033
1090	-0.033
1090	-0.034
1091	-0.034
1091	-0.034
1092	-0.034
1092	-0.034
1092	-0.035
1093	-0.036
1093	-0.034
1094	-0.034
1094	-0.033
1095	-0.033
1095	-0.033
1095	-0.032
1096	-0.032
1096	-0.031
1097	-0.031
1097	-0.031
1097	-0.03
1098	-0.03
1098	-0.03
1099	-0.03
1099	-0.028
1100	-0.028
1100	-0.027
1100	-0.027
1101	-0.026
1101	-0.026
1102	-0.023
1102	-0.022
1102	-0.021
1103	-0.018
1103	-0.015
1104	-0.014
1104	-0.011
1104	-0.006
1105	-0.002
1105	0.001
1106	0.005
1106	0.009
1107	0.013
1107	0.02
1107	0.027
1108	0.055
1108	0.092
1109	0.143
1109	0.218
1109	0.271
1110	0.37
1110	0.58
1111	-0
1111	-0
