Data from 15c-2a_Absorbance__1037__01037.txt Node

Date: Fri Jan 19 10:16:08 CET 2024
User: Marek
Spectrometer: MAYP115816
Trigger mode: 0
Integration Time (sec): 2.000000E-1
Scans to average: 10
Electric dark correction enabled: true
Nonlinearity correction enabled: true
Boxcar width: 5
XAxis mode: Wavelengths
Number of Pixels in Spectrum: 2068
>>>>>Begin Spectral Data<<<<<
199	-1.446
199	-1.301
200	-1.165
200	-1.052
201	-0.99
201	-0.941
202	-0.878
202	-0.829
203	-0.787
203	-0.751
204	-0.727
204	-0.706
205	-0.688
205	-0.678
205	-0.678
206	-0.673
206	-0.67
207	-0.666
207	-0.662
208	-0.661
208	-0.659
209	-0.657
209	-0.654
210	-0.653
210	-0.652
211	-0.652
211	-0.651
212	-0.653
212	-0.653
213	-0.653
213	-0.65
213	-0.65
214	-0.646
214	-0.645
215	-0.642
215	-0.641
216	-0.638
216	-0.639
217	-0.634
217	-0.632
218	-0.63
218	-0.627
219	-0.623
219	-0.624
220	-0.623
220	-0.623
221	-0.622
221	-0.618
221	-0.614
222	-0.612
222	-0.607
223	-0.602
223	-0.599
224	-0.594
224	-0.586
225	-0.58
225	-0.569
226	-0.56
226	-0.549
227	-0.537
227	-0.525
228	-0.512
228	-0.498
229	-0.48
229	-0.461
229	-0.437
230	-0.412
230	-0.385
231	-0.356
231	-0.324
232	-0.292
232	-0.256
233	-0.22
233	-0.183
234	-0.147
234	-0.112
235	-0.079
235	-0.047
236	-0.017
236	0.011
236	0.038
237	0.062
237	0.084
238	0.105
238	0.123
239	0.14
239	0.154
240	0.168
240	0.18
241	0.191
241	0.201
242	0.21
242	0.219
243	0.226
243	0.233
243	0.239
244	0.244
244	0.249
245	0.254
245	0.258
246	0.262
246	0.266
247	0.269
247	0.272
248	0.275
248	0.278
249	0.281
249	0.283
250	0.286
250	0.288
250	0.291
251	0.293
251	0.295
252	0.297
252	0.299
253	0.301
253	0.302
254	0.304
254	0.305
255	0.307
255	0.308
256	0.309
256	0.31
257	0.311
257	0.311
258	0.311
258	0.312
258	0.312
259	0.313
259	0.312
260	0.312
260	0.312
261	0.312
261	0.312
262	0.311
262	0.311
263	0.311
263	0.31
264	0.31
264	0.309
265	0.308
265	0.307
265	0.306
266	0.305
266	0.304
267	0.303
267	0.301
268	0.3
268	0.298
269	0.297
269	0.295
270	0.294
270	0.292
271	0.29
271	0.288
272	0.286
272	0.284
272	0.283
273	0.281
273	0.279
274	0.277
274	0.275
275	0.273
275	0.271
276	0.269
276	0.267
277	0.265
277	0.263
278	0.261
278	0.259
278	0.257
279	0.254
279	0.252
280	0.25
280	0.248
281	0.246
281	0.244
282	0.242
282	0.24
283	0.238
283	0.236
284	0.234
284	0.232
285	0.23
285	0.229
285	0.227
286	0.225
286	0.223
287	0.222
287	0.22
288	0.219
288	0.217
289	0.216
289	0.214
290	0.213
290	0.211
291	0.21
291	0.209
292	0.208
292	0.206
292	0.205
293	0.204
293	0.203
294	0.202
294	0.201
295	0.2
295	0.199
296	0.198
296	0.198
297	0.197
297	0.196
298	0.195
298	0.195
298	0.194
299	0.194
299	0.193
300	0.192
300	0.192
301	0.191
301	0.19
302	0.19
302	0.189
303	0.188
303	0.188
304	0.187
304	0.187
305	0.186
305	0.186
305	0.185
306	0.185
306	0.184
307	0.183
307	0.183
308	0.182
308	0.182
309	0.181
309	0.181
310	0.18
310	0.18
311	0.179
311	0.179
311	0.178
312	0.178
312	0.177
313	0.177
313	0.176
314	0.176
314	0.175
315	0.175
315	0.174
316	0.173
316	0.173
317	0.172
317	0.171
318	0.171
318	0.171
318	0.17
319	0.17
319	0.169
320	0.169
320	0.168
321	0.168
321	0.167
322	0.167
322	0.166
323	0.166
323	0.165
324	0.165
324	0.164
324	0.163
325	0.163
325	0.162
326	0.162
326	0.161
327	0.161
327	0.16
328	0.16
328	0.159
329	0.159
329	0.158
330	0.158
330	0.157
330	0.157
331	0.156
331	0.156
332	0.155
332	0.155
333	0.154
333	0.154
334	0.153
334	0.153
335	0.152
335	0.152
336	0.151
336	0.151
336	0.15
337	0.149
337	0.149
338	0.149
338	0.148
339	0.148
339	0.148
340	0.147
340	0.147
341	0.147
341	0.146
342	0.146
342	0.146
342	0.145
343	0.145
343	0.145
344	0.145
344	0.144
345	0.144
345	0.143
346	0.143
346	0.142
347	0.142
347	0.141
348	0.141
348	0.141
348	0.141
349	0.14
349	0.14
350	0.139
350	0.139
351	0.139
351	0.139
352	0.139
352	0.139
353	0.138
353	0.138
354	0.137
354	0.137
354	0.137
355	0.137
355	0.136
356	0.136
356	0.136
357	0.135
357	0.135
358	0.135
358	0.135
359	0.135
359	0.135
360	0.135
360	0.135
360	0.135
361	0.135
361	0.135
362	0.135
362	0.135
363	0.134
363	0.134
364	0.134
364	0.134
365	0.134
365	0.133
366	0.133
366	0.133
366	0.133
367	0.133
367	0.132
368	0.132
368	0.132
369	0.132
369	0.132
370	0.132
370	0.132
371	0.131
371	0.131
372	0.131
372	0.131
372	0.13
373	0.13
373	0.13
374	0.13
374	0.13
375	0.13
375	0.13
376	0.13
376	0.13
377	0.13
377	0.13
378	0.13
378	0.13
378	0.13
379	0.13
379	0.13
380	0.13
380	0.13
381	0.129
381	0.129
382	0.129
382	0.129
383	0.129
383	0.129
383	0.129
384	0.129
384	0.128
385	0.128
385	0.128
386	0.128
386	0.128
387	0.127
387	0.127
388	0.127
388	0.127
389	0.126
389	0.126
389	0.126
390	0.126
390	0.126
391	0.126
391	0.126
392	0.126
392	0.125
393	0.126
393	0.125
394	0.125
394	0.125
394	0.125
395	0.125
395	0.125
396	0.124
396	0.124
397	0.124
397	0.124
398	0.124
398	0.123
399	0.123
399	0.123
400	0.123
400	0.123
400	0.123
401	0.122
401	0.122
402	0.122
402	0.122
403	0.122
403	0.122
404	0.121
404	0.121
405	0.121
405	0.121
405	0.121
406	0.121
406	0.121
407	0.12
407	0.12
408	0.12
408	0.119
409	0.119
409	0.119
410	0.119
410	0.119
411	0.119
411	0.119
411	0.119
412	0.118
412	0.118
413	0.118
413	0.118
414	0.118
414	0.118
415	0.117
415	0.117
416	0.117
416	0.117
416	0.117
417	0.117
417	0.117
418	0.117
418	0.117
419	0.117
419	0.117
420	0.117
420	0.117
421	0.117
421	0.117
421	0.118
422	0.118
422	0.117
423	0.117
423	0.117
424	0.117
424	0.117
425	0.116
425	0.116
426	0.116
426	0.116
427	0.116
427	0.116
427	0.116
428	0.116
428	0.117
429	0.117
429	0.117
430	0.117
430	0.116
431	0.116
431	0.116
432	0.116
432	0.116
432	0.115
433	0.114
433	0.114
434	0.114
434	0.114
435	0.114
435	0.114
436	0.114
436	0.114
437	0.114
437	0.114
437	0.114
438	0.114
438	0.114
439	0.114
439	0.114
440	0.113
440	0.113
441	0.113
441	0.113
442	0.114
442	0.114
442	0.114
443	0.114
443	0.113
444	0.113
444	0.113
445	0.113
445	0.113
446	0.113
446	0.113
447	0.113
447	0.113
447	0.113
448	0.113
448	0.113
449	0.113
449	0.113
450	0.113
450	0.112
451	0.112
451	0.112
452	0.112
452	0.112
452	0.112
453	0.112
453	0.112
454	0.112
454	0.112
455	0.112
455	0.112
456	0.112
456	0.112
457	0.112
457	0.112
458	0.112
458	0.112
458	0.113
459	0.113
459	0.113
460	0.112
460	0.112
461	0.112
461	0.112
462	0.112
462	0.112
463	0.113
463	0.113
463	0.113
464	0.113
464	0.113
465	0.114
465	0.114
466	0.114
466	0.114
467	0.114
467	0.114
467	0.114
468	0.114
468	0.113
469	0.113
469	0.113
470	0.113
470	0.114
471	0.114
471	0.114
472	0.114
472	0.114
472	0.115
473	0.115
473	0.116
474	0.116
474	0.117
475	0.117
475	0.118
476	0.118
476	0.119
477	0.119
477	0.119
477	0.12
478	0.12
478	0.12
479	0.12
479	0.121
480	0.121
480	0.121
481	0.122
481	0.122
482	0.123
482	0.123
482	0.124
483	0.126
483	0.127
484	0.129
484	0.129
485	0.13
485	0.131
486	0.132
486	0.132
487	0.133
487	0.133
487	0.134
488	0.134
488	0.134
489	0.135
489	0.135
490	0.136
490	0.137
491	0.137
491	0.138
492	0.139
492	0.139
492	0.14
493	0.14
493	0.141
494	0.143
494	0.144
495	0.145
495	0.146
496	0.148
496	0.149
496	0.15
497	0.151
497	0.152
498	0.153
498	0.154
499	0.155
499	0.156
500	0.157
500	0.158
501	0.16
501	0.161
501	0.162
502	0.163
502	0.164
503	0.166
503	0.167
504	0.168
504	0.169
505	0.17
505	0.171
506	0.171
506	0.172
506	0.174
507	0.175
507	0.176
508	0.177
508	0.178
509	0.179
509	0.181
510	0.182
510	0.183
511	0.184
511	0.185
511	0.186
512	0.187
512	0.187
513	0.188
513	0.188
514	0.188
514	0.189
515	0.189
515	0.189
515	0.189
516	0.189
516	0.189
517	0.189
517	0.189
518	0.189
518	0.189
519	0.189
519	0.189
520	0.189
520	0.188
520	0.188
521	0.187
521	0.187
522	0.186
522	0.186
523	0.186
523	0.187
524	0.187
524	0.188
524	0.189
525	0.189
525	0.19
526	0.191
526	0.192
527	0.192
527	0.192
528	0.192
528	0.192
529	0.192
529	0.191
529	0.191
530	0.19
530	0.19
531	0.189
531	0.188
532	0.188
532	0.187
533	0.187
533	0.186
533	0.185
534	0.184
534	0.183
535	0.182
535	0.182
536	0.181
536	0.18
537	0.179
537	0.178
538	0.177
538	0.175
538	0.174
539	0.173
539	0.171
540	0.17
540	0.168
541	0.166
541	0.165
542	0.163
542	0.161
542	0.16
543	0.158
543	0.157
544	0.155
544	0.154
545	0.153
545	0.152
546	0.151
546	0.149
547	0.147
547	0.145
547	0.144
548	0.142
548	0.141
549	0.139
549	0.138
550	0.136
550	0.135
551	0.133
551	0.132
551	0.131
552	0.13
552	0.129
553	0.128
553	0.127
554	0.125
554	0.123
555	0.121
555	0.119
556	0.117
556	0.116
556	0.114
557	0.112
557	0.111
558	0.109
558	0.107
559	0.106
559	0.104
560	0.103
560	0.102
560	0.101
561	0.1
561	0.099
562	0.098
562	0.097
563	0.095
563	0.094
564	0.092
564	0.09
564	0.089
565	0.088
565	0.087
566	0.086
566	0.085
567	0.084
567	0.084
568	0.083
568	0.083
568	0.083
569	0.083
569	0.082
570	0.081
570	0.079
571	0.079
571	0.078
572	0.077
572	0.076
573	0.074
573	0.073
573	0.072
574	0.072
574	0.072
575	0.071
575	0.072
576	0.072
576	0.071
577	0.07
577	0.069
577	0.07
578	0.069
578	0.069
579	0.069
579	0.069
580	0.068
580	0.065
581	0.064
581	0.063
581	0.062
582	0.062
582	0.062
583	0.062
583	0.061
584	0.058
584	0.056
585	0.056
585	0.056
585	0.055
586	0.055
586	0.054
587	0.053
587	0.051
588	0.05
588	0.049
589	0.049
589	0.049
590	0.049
590	0.049
590	0.05
591	0.051
591	0.05
592	0.05
592	0.049
593	0.049
593	0.049
594	0.048
594	0.047
594	0.046
595	0.046
595	0.045
596	0.044
596	0.045
597	0.046
597	0.047
598	0.047
598	0.047
598	0.047
599	0.047
599	0.047
600	0.046
600	0.045
601	0.045
601	0.045
602	0.044
602	0.043
602	0.043
603	0.042
603	0.043
604	0.044
604	0.045
605	0.046
605	0.047
606	0.047
606	0.047
606	0.047
607	0.046
607	0.047
608	0.046
608	0.045
609	0.044
609	0.044
610	0.043
610	0.042
610	0.042
611	0.043
611	0.043
612	0.044
612	0.045
613	0.045
613	0.046
614	0.046
614	0.045
614	0.046
615	0.046
615	0.046
616	0.046
616	0.046
617	0.047
617	0.046
618	0.046
618	0.046
618	0.046
619	0.047
619	0.048
620	0.049
620	0.05
621	0.05
621	0.051
622	0.051
622	0.052
622	0.052
623	0.052
623	0.053
624	0.053
624	0.053
625	0.052
625	0.053
626	0.053
626	0.053
626	0.054
627	0.055
627	0.056
628	0.057
628	0.058
629	0.058
629	0.059
630	0.06
630	0.06
630	0.061
631	0.062
631	0.063
632	0.063
632	0.064
633	0.065
633	0.066
634	0.067
634	0.068
634	0.07
635	0.071
635	0.072
636	0.073
636	0.074
637	0.075
637	0.075
638	0.076
638	0.077
638	0.078
639	0.078
639	0.079
640	0.08
640	0.081
641	0.082
641	0.083
642	0.085
642	0.086
642	0.087
643	0.089
643	0.09
644	0.092
644	0.094
645	0.096
645	0.097
646	0.1
646	0.102
646	0.105
647	0.108
647	0.11
648	0.112
648	0.115
649	0.117
649	0.119
650	0.122
650	0.124
650	0.125
651	0.127
651	0.129
652	0.13
652	0.133
653	0.135
653	0.141
653	0.152
654	0.122
654	0.099
655	0.101
655	0.103
656	0.104
656	0.106
657	0.107
657	0.108
657	0.109
658	0.107
658	0.098
659	0.124
659	0.161
660	0.167
660	0.169
661	0.171
661	0.173
661	0.176
662	0.178
662	0.181
663	0.183
663	0.185
664	0.187
664	0.189
665	0.191
665	0.193
665	0.195
666	0.197
666	0.199
667	0.2
667	0.202
668	0.204
668	0.206
669	0.208
669	0.209
669	0.211
670	0.213
670	0.214
671	0.216
671	0.217
672	0.219
672	0.22
672	0.222
673	0.223
673	0.225
674	0.226
674	0.228
675	0.229
675	0.231
676	0.233
676	0.235
676	0.236
677	0.237
677	0.238
678	0.239
678	0.24
679	0.241
679	0.242
680	0.244
680	0.245
680	0.245
681	0.246
681	0.247
682	0.248
682	0.249
683	0.249
683	0.25
684	0.251
684	0.25
684	0.25
685	0.25
685	0.25
686	0.25
686	0.249
687	0.249
687	0.248
687	0.248
688	0.247
688	0.246
689	0.247
689	0.247
690	0.246
690	0.246
691	0.245
691	0.245
691	0.245
692	0.245
692	0.245
693	0.244
693	0.244
694	0.243
694	0.242
695	0.242
695	0.242
695	0.241
696	0.239
696	0.238
697	0.237
697	0.235
698	0.234
698	0.232
698	0.231
699	0.23
699	0.228
700	0.226
700	0.225
701	0.224
701	0.223
702	0.221
702	0.22
702	0.219
703	0.217
703	0.216
704	0.214
704	0.214
705	0.212
705	0.211
705	0.209
706	0.208
706	0.207
707	0.205
707	0.204
708	0.202
708	0.201
709	0.199
709	0.197
709	0.195
710	0.193
710	0.191
711	0.19
711	0.187
712	0.185
712	0.183
713	0.18
713	0.178
713	0.175
714	0.173
714	0.171
715	0.169
715	0.167
716	0.166
716	0.164
716	0.163
717	0.162
717	0.161
718	0.16
718	0.158
719	0.158
719	0.156
720	0.155
720	0.153
720	0.151
721	0.149
721	0.147
722	0.145
722	0.143
723	0.141
723	0.139
723	0.137
724	0.135
724	0.133
725	0.13
725	0.129
726	0.127
726	0.125
727	0.123
727	0.121
727	0.119
728	0.117
728	0.116
729	0.115
729	0.114
730	0.112
730	0.11
730	0.109
731	0.107
731	0.105
732	0.104
732	0.103
733	0.102
733	0.101
734	0.099
734	0.097
734	0.096
735	0.095
735	0.093
736	0.091
736	0.09
737	0.088
737	0.087
737	0.085
738	0.082
738	0.08
739	0.079
739	0.078
740	0.078
740	0.077
741	0.077
741	0.076
741	0.075
742	0.073
742	0.071
743	0.07
743	0.069
744	0.067
744	0.066
744	0.064
745	0.062
745	0.06
746	0.058
746	0.058
747	0.057
747	0.057
748	0.057
748	0.056
748	0.055
749	0.054
749	0.053
750	0.052
750	0.051
751	0.049
751	0.047
751	0.046
752	0.044
752	0.042
753	0.04
753	0.039
754	0.038
754	0.037
754	0.036
755	0.036
755	0.036
756	0.035
756	0.033
757	0.033
757	0.033
758	0.032
758	0.031
758	0.031
759	0.03
759	0.029
760	0.028
760	0.027
761	0.027
761	0.027
761	0.026
762	0.025
762	0.024
763	0.023
763	0.021
764	0.019
764	0.017
764	0.015
765	0.014
765	0.012
766	0.011
766	0.01
767	0.009
767	0.007
768	0.006
768	0.004
768	0.003
769	0.002
769	0.001
770	-0.001
770	-0.002
771	-0.004
771	-0.006
771	-0.008
772	-0.009
772	-0.009
773	-0.01
773	-0.011
774	-0.012
774	-0.013
775	-0.014
775	-0.016
775	-0.018
776	-0.019
776	-0.021
777	-0.023
777	-0.025
778	-0.027
778	-0.029
778	-0.031
779	-0.033
779	-0.034
780	-0.037
780	-0.039
781	-0.041
781	-0.044
781	-0.047
782	-0.05
782	-0.054
783	-0.058
783	-0.062
784	-0.066
784	-0.071
784	-0.076
785	-0.082
785	-0.087
786	-0.092
786	-0.097
787	-0.101
787	-0.106
788	-0.111
788	-0.118
788	-0.125
789	-0.132
789	-0.137
790	-0.141
790	-0.145
791	-0.15
791	-0.154
791	-0.156
792	-0.152
792	-0.143
793	-0.139
793	-0.136
794	-0.134
794	-0.136
794	-0.139
795	-0.141
795	-0.141
796	-0.141
796	-0.144
797	-0.152
797	-0.163
797	-0.169
798	-0.175
798	-0.178
799	-0.178
799	-0.178
800	-0.178
800	-0.179
801	-0.182
801	-0.183
801	-0.182
802	-0.183
802	-0.184
803	-0.184
803	-0.184
804	-0.183
804	-0.178
804	-0.172
805	-0.168
805	-0.166
806	-0.164
806	-0.162
807	-0.161
807	-0.161
807	-0.16
808	-0.16
808	-0.161
809	-0.165
809	-0.171
810	-0.175
810	-0.177
810	-0.181
811	-0.184
811	-0.185
812	-0.181
812	-0.179
813	-0.179
813	-0.18
813	-0.182
814	-0.183
814	-0.183
815	-0.18
815	-0.175
816	-0.17
816	-0.166
817	-0.164
817	-0.16
817	-0.152
818	-0.143
818	-0.131
819	-0.12
819	-0.11
820	-0.102
820	-0.095
820	-0.088
821	-0.082
821	-0.076
822	-0.071
822	-0.066
823	-0.062
823	-0.058
823	-0.055
824	-0.052
824	-0.048
825	-0.044
825	-0.04
826	-0.037
826	-0.035
826	-0.033
827	-0.031
827	-0.029
828	-0.027
828	-0.026
829	-0.025
829	-0.024
829	-0.023
830	-0.023
830	-0.023
831	-0.022
831	-0.022
832	-0.022
832	-0.021
832	-0.021
833	-0.021
833	-0.022
834	-0.022
834	-0.022
835	-0.022
835	-0.022
835	-0.022
836	-0.021
836	-0.021
837	-0.02
837	-0.02
838	-0.019
838	-0.019
839	-0.018
839	-0.018
839	-0.017
840	-0.016
840	-0.016
841	-0.015
841	-0.015
842	-0.014
842	-0.014
842	-0.013
843	-0.013
843	-0.012
844	-0.012
844	-0.011
845	-0.011
845	-0.011
845	-0.01
846	-0.01
846	-0.01
847	-0.01
847	-0.01
848	-0.01
848	-0.01
848	-0.011
849	-0.011
849	-0.011
850	-0.012
850	-0.012
851	-0.013
851	-0.013
851	-0.014
852	-0.014
852	-0.014
853	-0.014
853	-0.015
854	-0.015
854	-0.015
854	-0.015
855	-0.016
855	-0.016
856	-0.017
856	-0.017
857	-0.018
857	-0.018
857	-0.018
858	-0.018
858	-0.018
859	-0.018
859	-0.017
860	-0.016
860	-0.016
860	-0.015
861	-0.014
861	-0.013
862	-0.013
862	-0.012
863	-0.012
863	-0.012
863	-0.011
864	-0.011
864	-0.011
865	-0.01
865	-0.01
866	-0.01
866	-0.009
866	-0.009
867	-0.008
867	-0.008
868	-0.007
868	-0.007
869	-0.007
869	-0.008
869	-0.009
870	-0.01
870	-0.011
871	-0.012
871	-0.013
872	-0.014
872	-0.015
872	-0.015
873	-0.015
873	-0.015
874	-0.015
874	-0.014
875	-0.013
875	-0.013
875	-0.012
876	-0.011
876	-0.011
877	-0.011
877	-0.011
878	-0.011
878	-0.011
878	-0.012
879	-0.013
879	-0.014
880	-0.014
880	-0.015
881	-0.016
881	-0.016
881	-0.016
882	-0.016
882	-0.015
883	-0.015
883	-0.014
884	-0.013
884	-0.012
884	-0.011
885	-0.01
885	-0.009
886	-0.009
886	-0.008
887	-0.009
887	-0.009
887	-0.01
888	-0.01
888	-0.011
889	-0.011
889	-0.012
890	-0.012
890	-0.013
890	-0.013
891	-0.013
891	-0.013
892	-0.013
892	-0.013
893	-0.013
893	-0.013
893	-0.012
894	-0.012
894	-0.012
895	-0.012
895	-0.011
895	-0.011
896	-0.011
896	-0.011
897	-0.011
897	-0.011
898	-0.01
898	-0.01
898	-0.01
899	-0.01
899	-0.009
900	-0.008
900	-0.007
901	-0.007
901	-0.006
901	-0.005
902	-0.004
902	-0.003
903	-0.002
903	-0.001
904	-0.001
904	-0.001
904	-0
905	-0
905	-0
906	-0.001
906	-0.001
907	-0.001
907	-0.002
907	-0.002
908	-0.002
908	-0.003
909	-0.003
909	-0.003
910	-0.004
910	-0.004
910	-0.005
911	-0.006
911	-0.007
912	-0.008
912	-0.008
913	-0.009
913	-0.009
913	-0.01
914	-0.011
914	-0.011
915	-0.012
915	-0.013
916	-0.013
916	-0.014
916	-0.014
917	-0.014
917	-0.014
918	-0.014
918	-0.014
918	-0.013
919	-0.012
919	-0.011
920	-0.01
920	-0.008
921	-0.006
921	-0.005
921	-0.004
922	-0.003
922	-0.002
923	-0.002
923	-0.001
924	-0.001
924	-0.002
924	-0.003
925	-0.003
925	-0.004
926	-0.005
926	-0.006
927	-0.007
927	-0.007
927	-0.008
928	-0.008
928	-0.008
929	-0.008
929	-0.008
930	-0.008
930	-0.008
930	-0.008
931	-0.009
931	-0.009
932	-0.009
932	-0.01
933	-0.01
933	-0.011
933	-0.012
934	-0.012
934	-0.013
935	-0.013
935	-0.014
935	-0.014
936	-0.014
936	-0.014
937	-0.013
937	-0.013
938	-0.013
938	-0.013
938	-0.012
939	-0.012
939	-0.012
940	-0.013
940	-0.013
941	-0.014
941	-0.014
941	-0.015
942	-0.015
942	-0.016
943	-0.016
943	-0.016
944	-0.016
944	-0.016
944	-0.016
945	-0.016
945	-0.015
946	-0.015
946	-0.015
946	-0.015
947	-0.015
947	-0.016
948	-0.016
948	-0.016
949	-0.017
949	-0.016
949	-0.016
950	-0.016
950	-0.016
951	-0.015
951	-0.015
952	-0.014
952	-0.013
952	-0.012
953	-0.011
953	-0.01
954	-0.01
954	-0.009
955	-0.008
955	-0.008
955	-0.007
956	-0.007
956	-0.007
957	-0.006
957	-0.006
957	-0.007
958	-0.007
958	-0.007
959	-0.008
959	-0.008
960	-0.008
960	-0.009
960	-0.01
961	-0.011
961	-0.011
962	-0.012
962	-0.013
963	-0.014
963	-0.015
963	-0.016
964	-0.017
964	-0.018
965	-0.018
965	-0.019
966	-0.019
966	-0.019
966	-0.018
967	-0.018
967	-0.017
968	-0.017
968	-0.016
968	-0.015
969	-0.014
969	-0.014
970	-0.013
970	-0.012
971	-0.012
971	-0.011
971	-0.011
972	-0.01
972	-0.01
973	-0.009
973	-0.008
974	-0.008
974	-0.007
974	-0.007
975	-0.006
975	-0.006
976	-0.006
976	-0.006
976	-0.006
977	-0.007
977	-0.008
978	-0.009
978	-0.01
979	-0.011
979	-0.012
979	-0.013
980	-0.014
980	-0.015
981	-0.016
981	-0.017
982	-0.017
982	-0.018
982	-0.018
983	-0.018
983	-0.018
984	-0.018
984	-0.018
984	-0.018
985	-0.018
985	-0.018
986	-0.018
986	-0.018
987	-0.018
987	-0.018
987	-0.017
988	-0.017
988	-0.017
989	-0.016
989	-0.016
990	-0.015
990	-0.015
990	-0.014
991	-0.014
991	-0.013
992	-0.013
992	-0.013
992	-0.014
993	-0.014
993	-0.015
994	-0.016
994	-0.017
995	-0.018
995	-0.019
995	-0.02
996	-0.02
996	-0.021
997	-0.021
997	-0.021
997	-0.021
998	-0.02
998	-0.019
999	-0.019
999	-0.018
1000	-0.017
1000	-0.017
1000	-0.017
1001	-0.017
1001	-0.017
1002	-0.017
1002	-0.018
1003	-0.019
1003	-0.021
1003	-0.022
1004	-0.023
1004	-0.024
1005	-0.025
1005	-0.025
1005	-0.026
1006	-0.026
1006	-0.026
1007	-0.026
1007	-0.026
1008	-0.026
1008	-0.025
1008	-0.025
1009	-0.025
1009	-0.024
1010	-0.023
1010	-0.023
1010	-0.022
1011	-0.022
1011	-0.022
1012	-0.021
1012	-0.021
1013	-0.021
1013	-0.021
1013	-0.02
1014	-0.02
1014	-0.02
1015	-0.02
1015	-0.02
1016	-0.02
1016	-0.02
1016	-0.019
1017	-0.019
1017	-0.019
1018	-0.018
1018	-0.018
1018	-0.018
1019	-0.017
1019	-0.017
1020	-0.017
1020	-0.017
1021	-0.017
1021	-0.017
1021	-0.018
1022	-0.018
1022	-0.018
1023	-0.019
1023	-0.02
1023	-0.02
1024	-0.021
1024	-0.021
1025	-0.022
1025	-0.022
1026	-0.022
1026	-0.023
1026	-0.023
1027	-0.023
1027	-0.022
1028	-0.022
1028	-0.022
1028	-0.022
1029	-0.022
1029	-0.022
1030	-0.023
1030	-0.023
1031	-0.024
1031	-0.024
1031	-0.025
1032	-0.026
1032	-0.026
1033	-0.027
1033	-0.028
1033	-0.028
1034	-0.029
1034	-0.029
1035	-0.03
1035	-0.03
1036	-0.03
1036	-0.03
1036	-0.03
1037	-0.03
1037	-0.03
1038	-0.03
1038	-0.03
1039	-0.029
1039	-0.028
1039	-0.028
1040	-0.027
1040	-0.027
1041	-0.026
1041	-0.026
1041	-0.026
1042	-0.026
1042	-0.026
1043	-0.027
1043	-0.027
1044	-0.028
1044	-0.028
1044	-0.028
1045	-0.029
1045	-0.029
1046	-0.029
1046	-0.029
1046	-0.029
1047	-0.029
1047	-0.028
1048	-0.028
1048	-0.028
1049	-0.028
1049	-0.028
1049	-0.028
1050	-0.028
1050	-0.028
1051	-0.029
1051	-0.029
1051	-0.029
1052	-0.03
1052	-0.03
1053	-0.03
1053	-0.031
1053	-0.032
1054	-0.032
1054	-0.032
1055	-0.032
1055	-0.033
1056	-0.033
1056	-0.034
1056	-0.034
1057	-0.035
1057	-0.035
1058	-0.035
1058	-0.036
1058	-0.035
1059	-0.035
1059	-0.035
1060	-0.035
1060	-0.035
1061	-0.035
1061	-0.034
1061	-0.033
1062	-0.033
1062	-0.033
1063	-0.032
1063	-0.032
1063	-0.032
1064	-0.032
1064	-0.032
1065	-0.032
1065	-0.033
1066	-0.033
1066	-0.034
1066	-0.034
1067	-0.035
1067	-0.035
1068	-0.036
1068	-0.037
1068	-0.038
1069	-0.038
1069	-0.038
1070	-0.039
1070	-0.039
1071	-0.039
1071	-0.039
1071	-0.039
1072	-0.039
1072	-0.039
1073	-0.038
1073	-0.038
1073	-0.037
1074	-0.036
1074	-0.035
1075	-0.035
1075	-0.034
1076	-0.034
1076	-0.034
1076	-0.034
1077	-0.034
1077	-0.034
1078	-0.034
1078	-0.034
1078	-0.034
1079	-0.034
1079	-0.033
1080	-0.032
1080	-0.031
1080	-0.031
1081	-0.03
1081	-0.029
1082	-0.028
1082	-0.028
1083	-0.028
1083	-0.028
1083	-0.027
1084	-0.027
1084	-0.026
1085	-0.026
1085	-0.026
1085	-0.025
1086	-0.025
1086	-0.025
1087	-0.025
1087	-0.025
1088	-0.025
1088	-0.025
1088	-0.025
1089	-0.026
1089	-0.026
1090	-0.027
1090	-0.027
1090	-0.027
1091	-0.027
1091	-0.027
1092	-0.026
1092	-0.026
1092	-0.026
1093	-0.026
1093	-0.024
1094	-0.024
1094	-0.023
1095	-0.024
1095	-0.023
1095	-0.022
1096	-0.022
1096	-0.021
1097	-0.021
1097	-0.021
1097	-0.02
1098	-0.019
1098	-0.018
1099	-0.018
1099	-0.016
1100	-0.015
1100	-0.014
1100	-0.013
1101	-0.012
1101	-0.011
1102	-0.008
1102	-0.006
1102	-0.004
1103	-0.001
1103	0.002
1104	0.005
1104	0.008
1104	0.012
1105	0.017
1105	0.021
1106	0.025
1106	0.03
1107	0.033
1107	0.039
1107	0.048
1108	0.078
1108	0.118
1109	0.172
1109	0.253
1109	0.31
1110	0.423
1110	0.686
1111	-0
1111	-0
