Data from 15c-2a_Absorbance__366__00366.txt Node

Date: Fri Jan 19 09:53:46 CET 2024
User: Marek
Spectrometer: MAYP115816
Trigger mode: 0
Integration Time (sec): 2.000000E-1
Scans to average: 10
Electric dark correction enabled: true
Nonlinearity correction enabled: true
Boxcar width: 5
XAxis mode: Wavelengths
Number of Pixels in Spectrum: 2068
>>>>>Begin Spectral Data<<<<<
199	-1.478
199	-1.326
200	-1.186
200	-1.071
201	-1.007
201	-0.957
202	-0.889
202	-0.837
203	-0.791
203	-0.752
204	-0.727
204	-0.704
205	-0.687
205	-0.677
205	-0.676
206	-0.67
206	-0.667
207	-0.663
207	-0.658
208	-0.656
208	-0.653
209	-0.652
209	-0.648
210	-0.646
210	-0.645
211	-0.644
211	-0.643
212	-0.644
212	-0.643
213	-0.643
213	-0.64
213	-0.64
214	-0.636
214	-0.636
215	-0.633
215	-0.631
216	-0.628
216	-0.629
217	-0.624
217	-0.622
218	-0.62
218	-0.618
219	-0.616
219	-0.615
220	-0.613
220	-0.613
221	-0.612
221	-0.607
221	-0.602
222	-0.601
222	-0.597
223	-0.591
223	-0.587
224	-0.581
224	-0.574
225	-0.567
225	-0.557
226	-0.547
226	-0.539
227	-0.527
227	-0.514
228	-0.5
228	-0.488
229	-0.47
229	-0.451
229	-0.429
230	-0.405
230	-0.379
231	-0.35
231	-0.318
232	-0.287
232	-0.254
233	-0.219
233	-0.183
234	-0.147
234	-0.114
235	-0.082
235	-0.051
236	-0.022
236	0.005
236	0.03
237	0.053
237	0.075
238	0.094
238	0.111
239	0.126
239	0.14
240	0.153
240	0.165
241	0.176
241	0.185
242	0.194
242	0.202
243	0.208
243	0.215
243	0.221
244	0.226
244	0.231
245	0.236
245	0.24
246	0.244
246	0.247
247	0.251
247	0.254
248	0.257
248	0.26
249	0.263
249	0.265
250	0.268
250	0.27
250	0.272
251	0.275
251	0.277
252	0.279
252	0.281
253	0.283
253	0.284
254	0.286
254	0.288
255	0.289
255	0.29
256	0.291
256	0.292
257	0.293
257	0.293
258	0.293
258	0.294
258	0.295
259	0.295
259	0.295
260	0.295
260	0.294
261	0.294
261	0.294
262	0.294
262	0.294
263	0.293
263	0.293
264	0.292
264	0.291
265	0.29
265	0.29
265	0.289
266	0.288
266	0.286
267	0.285
267	0.284
268	0.283
268	0.281
269	0.28
269	0.278
270	0.277
270	0.275
271	0.273
271	0.271
272	0.27
272	0.268
272	0.266
273	0.264
273	0.262
274	0.261
274	0.259
275	0.257
275	0.255
276	0.253
276	0.251
277	0.249
277	0.246
278	0.244
278	0.242
278	0.24
279	0.238
279	0.236
280	0.234
280	0.231
281	0.229
281	0.227
282	0.226
282	0.224
283	0.222
283	0.22
284	0.218
284	0.217
285	0.215
285	0.213
285	0.211
286	0.209
286	0.208
287	0.206
287	0.205
288	0.203
288	0.202
289	0.201
289	0.199
290	0.198
290	0.197
291	0.195
291	0.194
292	0.193
292	0.191
292	0.19
293	0.189
293	0.188
294	0.187
294	0.186
295	0.185
295	0.184
296	0.184
296	0.183
297	0.182
297	0.182
298	0.181
298	0.181
298	0.18
299	0.18
299	0.179
300	0.178
300	0.178
301	0.177
301	0.176
302	0.176
302	0.175
303	0.175
303	0.174
304	0.174
304	0.173
305	0.173
305	0.172
305	0.172
306	0.172
306	0.171
307	0.171
307	0.17
308	0.17
308	0.169
309	0.169
309	0.168
310	0.168
310	0.167
311	0.167
311	0.167
311	0.166
312	0.166
312	0.165
313	0.165
313	0.164
314	0.164
314	0.163
315	0.162
315	0.162
316	0.161
316	0.161
317	0.16
317	0.16
318	0.16
318	0.159
318	0.159
319	0.158
319	0.158
320	0.157
320	0.157
321	0.156
321	0.156
322	0.155
322	0.155
323	0.154
323	0.154
324	0.153
324	0.153
324	0.152
325	0.152
325	0.151
326	0.151
326	0.15
327	0.15
327	0.149
328	0.149
328	0.148
329	0.148
329	0.148
330	0.147
330	0.147
330	0.146
331	0.145
331	0.145
332	0.145
332	0.144
333	0.143
333	0.143
334	0.142
334	0.142
335	0.141
335	0.141
336	0.141
336	0.14
336	0.14
337	0.139
337	0.139
338	0.139
338	0.138
339	0.138
339	0.138
340	0.137
340	0.137
341	0.137
341	0.136
342	0.136
342	0.136
342	0.136
343	0.135
343	0.135
344	0.135
344	0.134
345	0.134
345	0.134
346	0.133
346	0.133
347	0.132
347	0.132
348	0.132
348	0.132
348	0.132
349	0.131
349	0.131
350	0.131
350	0.13
351	0.13
351	0.13
352	0.13
352	0.129
353	0.129
353	0.129
354	0.128
354	0.128
354	0.128
355	0.128
355	0.127
356	0.127
356	0.127
357	0.126
357	0.126
358	0.126
358	0.126
359	0.126
359	0.126
360	0.126
360	0.126
360	0.126
361	0.126
361	0.126
362	0.126
362	0.126
363	0.126
363	0.126
364	0.126
364	0.125
365	0.125
365	0.125
366	0.125
366	0.125
366	0.125
367	0.124
367	0.124
368	0.124
368	0.124
369	0.124
369	0.123
370	0.123
370	0.123
371	0.123
371	0.123
372	0.123
372	0.122
372	0.122
373	0.122
373	0.122
374	0.121
374	0.121
375	0.121
375	0.121
376	0.121
376	0.121
377	0.121
377	0.121
378	0.121
378	0.121
378	0.121
379	0.121
379	0.121
380	0.121
380	0.121
381	0.12
381	0.12
382	0.12
382	0.12
383	0.12
383	0.12
383	0.119
384	0.119
384	0.119
385	0.119
385	0.119
386	0.119
386	0.118
387	0.118
387	0.118
388	0.118
388	0.118
389	0.118
389	0.117
389	0.117
390	0.117
390	0.117
391	0.117
391	0.117
392	0.117
392	0.117
393	0.117
393	0.117
394	0.116
394	0.116
394	0.116
395	0.116
395	0.116
396	0.115
396	0.115
397	0.115
397	0.115
398	0.115
398	0.115
399	0.115
399	0.115
400	0.115
400	0.115
400	0.115
401	0.114
401	0.114
402	0.114
402	0.113
403	0.113
403	0.113
404	0.113
404	0.113
405	0.113
405	0.112
405	0.112
406	0.112
406	0.112
407	0.112
407	0.112
408	0.112
408	0.111
409	0.111
409	0.111
410	0.111
410	0.111
411	0.111
411	0.111
411	0.11
412	0.11
412	0.11
413	0.11
413	0.11
414	0.11
414	0.11
415	0.11
415	0.11
416	0.109
416	0.109
416	0.109
417	0.109
417	0.109
418	0.109
418	0.109
419	0.109
419	0.109
420	0.109
420	0.109
421	0.109
421	0.109
421	0.109
422	0.109
422	0.109
423	0.109
423	0.109
424	0.109
424	0.109
425	0.109
425	0.108
426	0.108
426	0.108
427	0.108
427	0.108
427	0.108
428	0.108
428	0.108
429	0.108
429	0.108
430	0.108
430	0.108
431	0.108
431	0.108
432	0.107
432	0.107
432	0.107
433	0.106
433	0.106
434	0.106
434	0.106
435	0.106
435	0.106
436	0.106
436	0.106
437	0.106
437	0.106
437	0.106
438	0.106
438	0.106
439	0.106
439	0.106
440	0.105
440	0.105
441	0.105
441	0.105
442	0.105
442	0.105
442	0.106
443	0.106
443	0.106
444	0.106
444	0.106
445	0.106
445	0.105
446	0.105
446	0.105
447	0.105
447	0.105
447	0.105
448	0.105
448	0.105
449	0.105
449	0.105
450	0.105
450	0.105
451	0.105
451	0.105
452	0.105
452	0.105
452	0.104
453	0.104
453	0.104
454	0.104
454	0.104
455	0.104
455	0.104
456	0.104
456	0.104
457	0.104
457	0.104
458	0.104
458	0.104
458	0.104
459	0.104
459	0.104
460	0.104
460	0.104
461	0.104
461	0.104
462	0.104
462	0.104
463	0.104
463	0.105
463	0.105
464	0.105
464	0.105
465	0.105
465	0.105
466	0.106
466	0.106
467	0.106
467	0.106
467	0.106
468	0.106
468	0.106
469	0.106
469	0.106
470	0.106
470	0.106
471	0.106
471	0.106
472	0.107
472	0.107
472	0.107
473	0.107
473	0.108
474	0.108
474	0.109
475	0.109
475	0.109
476	0.11
476	0.11
477	0.11
477	0.11
477	0.111
478	0.111
478	0.111
479	0.111
479	0.111
480	0.112
480	0.112
481	0.112
481	0.113
482	0.114
482	0.115
482	0.116
483	0.117
483	0.118
484	0.119
484	0.119
485	0.12
485	0.121
486	0.122
486	0.122
487	0.123
487	0.123
487	0.124
488	0.124
488	0.124
489	0.124
489	0.125
490	0.126
490	0.126
491	0.127
491	0.127
492	0.128
492	0.129
492	0.13
493	0.13
493	0.131
494	0.133
494	0.134
495	0.135
495	0.137
496	0.138
496	0.139
496	0.14
497	0.141
497	0.142
498	0.143
498	0.144
499	0.145
499	0.146
500	0.147
500	0.148
501	0.149
501	0.15
501	0.151
502	0.152
502	0.153
503	0.154
503	0.156
504	0.157
504	0.157
505	0.158
505	0.159
506	0.159
506	0.16
506	0.161
507	0.162
507	0.163
508	0.164
508	0.164
509	0.165
509	0.166
510	0.167
510	0.168
511	0.169
511	0.17
511	0.171
512	0.172
512	0.173
513	0.173
513	0.174
514	0.174
514	0.175
515	0.175
515	0.175
515	0.175
516	0.176
516	0.176
517	0.176
517	0.176
518	0.176
518	0.176
519	0.176
519	0.176
520	0.175
520	0.175
520	0.174
521	0.173
521	0.173
522	0.172
522	0.171
523	0.171
523	0.17
524	0.17
524	0.171
524	0.171
525	0.172
525	0.172
526	0.173
526	0.174
527	0.175
527	0.176
528	0.176
528	0.177
529	0.177
529	0.177
529	0.177
530	0.177
530	0.176
531	0.176
531	0.175
532	0.174
532	0.173
533	0.172
533	0.171
533	0.171
534	0.17
534	0.169
535	0.168
535	0.167
536	0.166
536	0.165
537	0.164
537	0.163
538	0.162
538	0.161
538	0.159
539	0.158
539	0.157
540	0.156
540	0.154
541	0.153
541	0.151
542	0.15
542	0.148
542	0.147
543	0.145
543	0.144
544	0.143
544	0.142
545	0.141
545	0.14
546	0.139
546	0.138
547	0.137
547	0.136
547	0.134
548	0.133
548	0.131
549	0.13
549	0.129
550	0.127
550	0.126
551	0.124
551	0.123
551	0.122
552	0.12
552	0.119
553	0.119
553	0.118
554	0.116
554	0.115
555	0.113
555	0.111
556	0.109
556	0.108
556	0.106
557	0.104
557	0.103
558	0.101
558	0.099
559	0.098
559	0.097
560	0.096
560	0.096
560	0.095
561	0.094
561	0.094
562	0.093
562	0.092
563	0.09
563	0.089
564	0.087
564	0.086
564	0.084
565	0.083
565	0.081
566	0.08
566	0.079
567	0.079
567	0.078
568	0.078
568	0.078
568	0.078
569	0.078
569	0.077
570	0.077
570	0.076
571	0.075
571	0.074
572	0.073
572	0.072
573	0.071
573	0.07
573	0.069
574	0.069
574	0.068
575	0.068
575	0.068
576	0.067
576	0.067
577	0.066
577	0.066
577	0.065
578	0.065
578	0.064
579	0.064
579	0.063
580	0.062
580	0.061
581	0.059
581	0.058
581	0.058
582	0.058
582	0.057
583	0.057
583	0.057
584	0.056
584	0.055
585	0.055
585	0.054
585	0.054
586	0.054
586	0.053
587	0.052
587	0.051
588	0.05
588	0.049
589	0.048
589	0.047
590	0.047
590	0.047
590	0.047
591	0.046
591	0.045
592	0.045
592	0.044
593	0.044
593	0.044
594	0.043
594	0.043
594	0.043
595	0.043
595	0.042
596	0.042
596	0.043
597	0.043
597	0.043
598	0.044
598	0.044
598	0.044
599	0.044
599	0.043
600	0.042
600	0.042
601	0.042
601	0.041
602	0.041
602	0.041
602	0.04
603	0.04
603	0.041
604	0.042
604	0.042
605	0.043
605	0.044
606	0.045
606	0.044
606	0.044
607	0.044
607	0.044
608	0.043
608	0.043
609	0.042
609	0.041
610	0.04
610	0.039
610	0.039
611	0.039
611	0.04
612	0.04
612	0.041
613	0.042
613	0.043
614	0.043
614	0.043
614	0.044
615	0.044
615	0.044
616	0.045
616	0.045
617	0.045
617	0.044
618	0.044
618	0.044
618	0.044
619	0.044
619	0.045
620	0.045
620	0.046
621	0.046
621	0.047
622	0.047
622	0.047
622	0.047
623	0.048
623	0.048
624	0.049
624	0.049
625	0.049
625	0.049
626	0.05
626	0.05
626	0.051
627	0.052
627	0.054
628	0.055
628	0.056
629	0.057
629	0.058
630	0.058
630	0.059
630	0.06
631	0.061
631	0.061
632	0.062
632	0.062
633	0.063
633	0.064
634	0.065
634	0.066
634	0.067
635	0.068
635	0.069
636	0.07
636	0.071
637	0.072
637	0.073
638	0.074
638	0.074
638	0.075
639	0.075
639	0.075
640	0.076
640	0.077
641	0.079
641	0.08
642	0.081
642	0.082
642	0.083
643	0.085
643	0.086
644	0.088
644	0.089
645	0.091
645	0.092
646	0.094
646	0.096
646	0.098
647	0.101
647	0.103
648	0.105
648	0.108
649	0.11
649	0.113
650	0.115
650	0.118
650	0.12
651	0.123
651	0.125
652	0.127
652	0.129
653	0.132
653	0.136
653	0.141
654	0.113
654	0.092
655	0.096
655	0.097
656	0.099
656	0.1
657	0.101
657	0.102
657	0.103
658	0.103
658	0.097
659	0.123
659	0.159
660	0.162
660	0.163
661	0.165
661	0.167
661	0.169
662	0.172
662	0.174
663	0.176
663	0.177
664	0.179
664	0.181
665	0.183
665	0.185
665	0.186
666	0.188
666	0.189
667	0.19
667	0.192
668	0.193
668	0.194
669	0.196
669	0.198
669	0.2
670	0.202
670	0.204
671	0.205
671	0.207
672	0.209
672	0.211
672	0.213
673	0.215
673	0.217
674	0.219
674	0.22
675	0.222
675	0.224
676	0.225
676	0.227
676	0.228
677	0.229
677	0.23
678	0.231
678	0.232
679	0.233
679	0.234
680	0.235
680	0.235
680	0.236
681	0.237
681	0.238
682	0.238
682	0.239
683	0.24
683	0.241
684	0.241
684	0.241
684	0.242
685	0.242
685	0.242
686	0.242
686	0.241
687	0.241
687	0.241
687	0.24
688	0.24
688	0.239
689	0.239
689	0.239
690	0.239
690	0.238
691	0.238
691	0.237
691	0.237
692	0.236
692	0.235
693	0.235
693	0.234
694	0.233
694	0.232
695	0.232
695	0.231
695	0.231
696	0.23
696	0.229
697	0.228
697	0.226
698	0.225
698	0.224
698	0.223
699	0.221
699	0.22
700	0.218
700	0.216
701	0.215
701	0.214
702	0.213
702	0.212
702	0.211
703	0.209
703	0.208
704	0.207
704	0.205
705	0.204
705	0.203
705	0.201
706	0.199
706	0.197
707	0.195
707	0.193
708	0.191
708	0.189
709	0.187
709	0.185
709	0.183
710	0.182
710	0.18
711	0.179
711	0.177
712	0.176
712	0.174
713	0.172
713	0.17
713	0.167
714	0.165
714	0.163
715	0.161
715	0.159
716	0.157
716	0.156
716	0.155
717	0.154
717	0.153
718	0.152
718	0.151
719	0.151
719	0.15
720	0.148
720	0.147
720	0.145
721	0.143
721	0.141
722	0.139
722	0.137
723	0.135
723	0.133
723	0.13
724	0.128
724	0.126
725	0.124
725	0.122
726	0.121
726	0.119
727	0.117
727	0.115
727	0.114
728	0.112
728	0.111
729	0.11
729	0.109
730	0.108
730	0.106
730	0.105
731	0.104
731	0.103
732	0.102
732	0.101
733	0.1
733	0.099
734	0.098
734	0.096
734	0.095
735	0.094
735	0.092
736	0.09
736	0.088
737	0.086
737	0.085
737	0.082
738	0.08
738	0.078
739	0.076
739	0.075
740	0.073
740	0.072
741	0.071
741	0.069
741	0.067
742	0.065
742	0.064
743	0.062
743	0.06
744	0.059
744	0.058
744	0.056
745	0.055
745	0.053
746	0.052
746	0.052
747	0.051
747	0.051
748	0.051
748	0.05
748	0.049
749	0.048
749	0.047
750	0.045
750	0.044
751	0.043
751	0.041
751	0.04
752	0.038
752	0.037
753	0.036
753	0.035
754	0.034
754	0.034
754	0.034
755	0.034
755	0.034
756	0.034
756	0.033
757	0.033
757	0.032
758	0.032
758	0.031
758	0.03
759	0.029
759	0.028
760	0.026
760	0.025
761	0.024
761	0.024
761	0.023
762	0.022
762	0.021
763	0.021
763	0.019
764	0.018
764	0.016
764	0.015
765	0.013
765	0.012
766	0.011
766	0.01
767	0.009
767	0.007
768	0.006
768	0.004
768	0.003
769	0.002
769	0
770	-0.001
770	-0.002
771	-0.004
771	-0.005
771	-0.007
772	-0.008
772	-0.009
773	-0.01
773	-0.011
774	-0.013
774	-0.014
775	-0.016
775	-0.018
775	-0.02
776	-0.023
776	-0.025
777	-0.027
777	-0.029
778	-0.031
778	-0.033
778	-0.035
779	-0.037
779	-0.038
780	-0.04
780	-0.042
781	-0.045
781	-0.048
781	-0.052
782	-0.056
782	-0.061
783	-0.066
783	-0.07
784	-0.075
784	-0.081
784	-0.086
785	-0.092
785	-0.098
786	-0.103
786	-0.108
787	-0.111
787	-0.115
788	-0.12
788	-0.127
788	-0.134
789	-0.141
789	-0.145
790	-0.147
790	-0.151
791	-0.155
791	-0.157
791	-0.16
792	-0.155
792	-0.145
793	-0.14
793	-0.136
794	-0.134
794	-0.136
794	-0.139
795	-0.141
795	-0.141
796	-0.141
796	-0.144
797	-0.152
797	-0.163
797	-0.169
798	-0.175
798	-0.178
799	-0.178
799	-0.178
800	-0.177
800	-0.179
801	-0.182
801	-0.182
801	-0.182
802	-0.183
802	-0.184
803	-0.184
803	-0.184
804	-0.183
804	-0.178
804	-0.172
805	-0.168
805	-0.166
806	-0.163
806	-0.162
807	-0.161
807	-0.16
807	-0.16
808	-0.16
808	-0.161
809	-0.165
809	-0.171
810	-0.174
810	-0.177
810	-0.181
811	-0.184
811	-0.185
812	-0.181
812	-0.179
813	-0.179
813	-0.18
813	-0.182
814	-0.183
814	-0.182
815	-0.179
815	-0.175
816	-0.17
816	-0.166
817	-0.164
817	-0.16
817	-0.152
818	-0.142
818	-0.131
819	-0.119
819	-0.109
820	-0.101
820	-0.094
820	-0.087
821	-0.081
821	-0.075
822	-0.07
822	-0.065
823	-0.06
823	-0.057
823	-0.054
824	-0.051
824	-0.047
825	-0.044
825	-0.04
826	-0.037
826	-0.035
826	-0.033
827	-0.032
827	-0.03
828	-0.028
828	-0.026
829	-0.024
829	-0.023
829	-0.022
830	-0.021
830	-0.02
831	-0.019
831	-0.018
832	-0.018
832	-0.017
832	-0.017
833	-0.018
833	-0.018
834	-0.018
834	-0.018
835	-0.018
835	-0.019
835	-0.019
836	-0.019
836	-0.019
837	-0.019
837	-0.018
838	-0.018
838	-0.018
839	-0.017
839	-0.017
839	-0.016
840	-0.015
840	-0.015
841	-0.014
841	-0.013
842	-0.012
842	-0.011
842	-0.01
843	-0.009
843	-0.008
844	-0.007
844	-0.006
845	-0.006
845	-0.005
845	-0.005
846	-0.005
846	-0.005
847	-0.005
847	-0.005
848	-0.006
848	-0.006
848	-0.007
849	-0.008
849	-0.008
850	-0.009
850	-0.01
851	-0.011
851	-0.012
851	-0.013
852	-0.013
852	-0.014
853	-0.014
853	-0.015
854	-0.015
854	-0.015
854	-0.016
855	-0.016
855	-0.016
856	-0.015
856	-0.015
857	-0.015
857	-0.015
857	-0.014
858	-0.014
858	-0.013
859	-0.013
859	-0.012
860	-0.011
860	-0.01
860	-0.009
861	-0.009
861	-0.008
862	-0.008
862	-0.008
863	-0.008
863	-0.009
863	-0.009
864	-0.01
864	-0.011
865	-0.011
865	-0.011
866	-0.012
866	-0.012
866	-0.011
867	-0.011
867	-0.01
868	-0.01
868	-0.009
869	-0.009
869	-0.008
869	-0.008
870	-0.009
870	-0.009
871	-0.009
871	-0.01
872	-0.011
872	-0.011
872	-0.012
873	-0.012
873	-0.012
874	-0.012
874	-0.012
875	-0.012
875	-0.012
875	-0.012
876	-0.012
876	-0.012
877	-0.012
877	-0.012
878	-0.012
878	-0.012
878	-0.012
879	-0.012
879	-0.012
880	-0.012
880	-0.012
881	-0.012
881	-0.012
881	-0.012
882	-0.012
882	-0.011
883	-0.011
883	-0.01
884	-0.009
884	-0.008
884	-0.007
885	-0.006
885	-0.006
886	-0.005
886	-0.004
887	-0.004
887	-0.004
887	-0.004
888	-0.004
888	-0.004
889	-0.003
889	-0.003
890	-0.003
890	-0.003
890	-0.003
891	-0.004
891	-0.004
892	-0.004
892	-0.004
893	-0.004
893	-0.004
893	-0.005
894	-0.005
894	-0.006
895	-0.006
895	-0.007
895	-0.007
896	-0.007
896	-0.007
897	-0.007
897	-0.007
898	-0.007
898	-0.007
898	-0.006
899	-0.006
899	-0.005
900	-0.005
900	-0.005
901	-0.004
901	-0.004
901	-0.003
902	-0.003
902	-0.003
903	-0.002
903	-0.002
904	-0.002
904	-0.002
904	-0.002
905	-0.001
905	-0.001
906	-0.001
906	-0.001
907	-0.002
907	-0.002
907	-0.002
908	-0.002
908	-0.003
909	-0.003
909	-0.004
910	-0.005
910	-0.006
910	-0.007
911	-0.007
911	-0.008
912	-0.009
912	-0.009
913	-0.01
913	-0.01
913	-0.01
914	-0.011
914	-0.011
915	-0.012
915	-0.012
916	-0.012
916	-0.011
916	-0.011
917	-0.011
917	-0.01
918	-0.01
918	-0.009
918	-0.008
919	-0.007
919	-0.007
920	-0.005
920	-0.005
921	-0.003
921	-0.003
921	-0.002
922	-0.001
922	-0
923	0
923	0.001
924	0.001
924	0.001
924	0
925	-0
925	-0.001
926	-0.002
926	-0.002
927	-0.003
927	-0.004
927	-0.005
928	-0.005
928	-0.005
929	-0.005
929	-0.004
930	-0.004
930	-0.003
930	-0.003
931	-0.003
931	-0.002
932	-0.002
932	-0.002
933	-0.002
933	-0.002
933	-0.003
934	-0.003
934	-0.004
935	-0.004
935	-0.005
935	-0.006
936	-0.006
936	-0.006
937	-0.007
937	-0.007
938	-0.007
938	-0.007
938	-0.007
939	-0.007
939	-0.007
940	-0.008
940	-0.008
941	-0.008
941	-0.008
941	-0.008
942	-0.008
942	-0.008
943	-0.008
943	-0.008
944	-0.008
944	-0.008
944	-0.008
945	-0.008
945	-0.009
946	-0.009
946	-0.009
946	-0.009
947	-0.01
947	-0.01
948	-0.011
948	-0.011
949	-0.011
949	-0.011
949	-0.01
950	-0.01
950	-0.009
951	-0.008
951	-0.007
952	-0.006
952	-0.005
952	-0.004
953	-0.003
953	-0.003
954	-0.002
954	-0.002
955	-0.002
955	-0.002
955	-0.002
956	-0.002
956	-0.002
957	-0.002
957	-0.003
957	-0.003
958	-0.004
958	-0.005
959	-0.005
959	-0.006
960	-0.007
960	-0.007
960	-0.008
961	-0.009
961	-0.009
962	-0.01
962	-0.011
963	-0.012
963	-0.013
963	-0.014
964	-0.016
964	-0.018
965	-0.019
965	-0.02
966	-0.021
966	-0.022
966	-0.022
967	-0.022
967	-0.022
968	-0.021
968	-0.02
968	-0.019
969	-0.018
969	-0.016
970	-0.014
970	-0.013
971	-0.011
971	-0.01
971	-0.009
972	-0.007
972	-0.006
973	-0.005
973	-0.004
974	-0.003
974	-0.003
974	-0.002
975	-0.002
975	-0.001
976	-0.001
976	-0.001
976	-0.001
977	-0.001
977	-0.002
978	-0.002
978	-0.003
979	-0.003
979	-0.004
979	-0.005
980	-0.005
980	-0.006
981	-0.007
981	-0.008
982	-0.009
982	-0.009
982	-0.01
983	-0.01
983	-0.011
984	-0.011
984	-0.011
984	-0.012
985	-0.012
985	-0.012
986	-0.012
986	-0.012
987	-0.012
987	-0.012
987	-0.011
988	-0.011
988	-0.011
989	-0.01
989	-0.009
990	-0.009
990	-0.008
990	-0.007
991	-0.007
991	-0.007
992	-0.007
992	-0.007
992	-0.008
993	-0.008
993	-0.009
994	-0.01
994	-0.01
995	-0.011
995	-0.012
995	-0.012
996	-0.013
996	-0.013
997	-0.013
997	-0.012
997	-0.012
998	-0.012
998	-0.011
999	-0.01
999	-0.01
1000	-0.009
1000	-0.009
1000	-0.009
1001	-0.009
1001	-0.009
1002	-0.01
1002	-0.011
1003	-0.012
1003	-0.013
1003	-0.014
1004	-0.014
1004	-0.015
1005	-0.016
1005	-0.017
1005	-0.017
1006	-0.017
1006	-0.017
1007	-0.017
1007	-0.017
1008	-0.017
1008	-0.017
1008	-0.017
1009	-0.017
1009	-0.017
1010	-0.017
1010	-0.017
1010	-0.017
1011	-0.016
1011	-0.016
1012	-0.016
1012	-0.016
1013	-0.015
1013	-0.015
1013	-0.014
1014	-0.014
1014	-0.014
1015	-0.013
1015	-0.012
1016	-0.012
1016	-0.011
1016	-0.01
1017	-0.009
1017	-0.009
1018	-0.008
1018	-0.007
1018	-0.006
1019	-0.006
1019	-0.005
1020	-0.005
1020	-0.004
1021	-0.004
1021	-0.004
1021	-0.004
1022	-0.004
1022	-0.004
1023	-0.004
1023	-0.004
1023	-0.004
1024	-0.004
1024	-0.004
1025	-0.005
1025	-0.005
1026	-0.005
1026	-0.005
1026	-0.006
1027	-0.006
1027	-0.006
1028	-0.007
1028	-0.008
1028	-0.008
1029	-0.009
1029	-0.01
1030	-0.011
1030	-0.012
1031	-0.013
1031	-0.014
1031	-0.015
1032	-0.015
1032	-0.016
1033	-0.017
1033	-0.017
1033	-0.017
1034	-0.017
1034	-0.018
1035	-0.018
1035	-0.018
1036	-0.018
1036	-0.018
1036	-0.017
1037	-0.017
1037	-0.017
1038	-0.016
1038	-0.016
1039	-0.015
1039	-0.015
1039	-0.014
1040	-0.014
1040	-0.013
1041	-0.013
1041	-0.014
1041	-0.014
1042	-0.014
1042	-0.014
1043	-0.015
1043	-0.015
1044	-0.015
1044	-0.015
1044	-0.015
1045	-0.015
1045	-0.015
1046	-0.015
1046	-0.014
1046	-0.013
1047	-0.013
1047	-0.012
1048	-0.011
1048	-0.011
1049	-0.01
1049	-0.01
1049	-0.01
1050	-0.01
1050	-0.01
1051	-0.01
1051	-0.01
1051	-0.01
1052	-0.011
1052	-0.012
1053	-0.012
1053	-0.012
1053	-0.013
1054	-0.013
1054	-0.013
1055	-0.013
1055	-0.014
1056	-0.015
1056	-0.015
1056	-0.015
1057	-0.016
1057	-0.016
1058	-0.016
1058	-0.016
1058	-0.016
1059	-0.016
1059	-0.016
1060	-0.016
1060	-0.015
1061	-0.015
1061	-0.014
1061	-0.014
1062	-0.014
1062	-0.014
1063	-0.013
1063	-0.013
1063	-0.014
1064	-0.014
1064	-0.014
1065	-0.014
1065	-0.015
1066	-0.016
1066	-0.016
1066	-0.017
1067	-0.017
1067	-0.018
1068	-0.018
1068	-0.019
1068	-0.019
1069	-0.019
1069	-0.02
1070	-0.02
1070	-0.019
1071	-0.019
1071	-0.019
1071	-0.019
1072	-0.018
1072	-0.018
1073	-0.017
1073	-0.016
1073	-0.015
1074	-0.015
1074	-0.014
1075	-0.013
1075	-0.013
1076	-0.012
1076	-0.011
1076	-0.011
1077	-0.01
1077	-0.009
1078	-0.009
1078	-0.009
1078	-0.008
1079	-0.007
1079	-0.007
1080	-0.006
1080	-0.006
1080	-0.005
1081	-0.005
1081	-0.005
1082	-0.004
1082	-0.003
1083	-0.004
1083	-0.003
1083	-0.003
1084	-0.002
1084	-0.002
1085	-0.001
1085	0
1085	0.001
1086	0.001
1086	0.002
1087	0.003
1087	0.004
1088	0.005
1088	0.005
1088	0.006
1089	0.006
1089	0.006
1090	0.006
1090	0.006
1090	0.007
1091	0.007
1091	0.008
1092	0.008
1092	0.01
1092	0.01
1093	0.011
1093	0.012
1094	0.013
1094	0.015
1095	0.017
1095	0.018
1095	0.02
1096	0.021
1096	0.023
1097	0.025
1097	0.027
1097	0.029
1098	0.031
1098	0.032
1099	0.034
1099	0.036
1100	0.038
1100	0.041
1100	0.043
1101	0.046
1101	0.049
1102	0.053
1102	0.057
1102	0.061
1103	0.067
1103	0.073
1104	0.079
1104	0.085
1104	0.092
1105	0.1
1105	0.108
1106	0.117
1106	0.126
1107	0.137
1107	0.151
1107	0.165
1108	0.213
1108	0.275
1109	0.373
1109	0.544
1109	0.698
1110	1.126
1110	-0
1111	-0
1111	-0
