Data from 15c-2a_Absorbance__896__00896.txt Node

Date: Fri Jan 19 10:11:26 CET 2024
User: Marek
Spectrometer: MAYP115816
Trigger mode: 0
Integration Time (sec): 2.000000E-1
Scans to average: 10
Electric dark correction enabled: true
Nonlinearity correction enabled: true
Boxcar width: 5
XAxis mode: Wavelengths
Number of Pixels in Spectrum: 2068
>>>>>Begin Spectral Data<<<<<
199	-1.448
199	-1.302
200	-1.164
200	-1.052
201	-0.988
201	-0.94
202	-0.877
202	-0.827
203	-0.784
203	-0.748
204	-0.723
204	-0.701
205	-0.684
205	-0.674
205	-0.674
206	-0.67
206	-0.667
207	-0.662
207	-0.659
208	-0.658
208	-0.655
209	-0.654
209	-0.652
210	-0.651
210	-0.649
211	-0.648
211	-0.647
212	-0.649
212	-0.648
213	-0.648
213	-0.646
213	-0.646
214	-0.642
214	-0.64
215	-0.638
215	-0.636
216	-0.633
216	-0.634
217	-0.628
217	-0.627
218	-0.625
218	-0.621
219	-0.618
219	-0.619
220	-0.619
220	-0.619
221	-0.618
221	-0.614
221	-0.61
222	-0.607
222	-0.604
223	-0.599
223	-0.596
224	-0.589
224	-0.583
225	-0.575
225	-0.564
226	-0.555
226	-0.546
227	-0.534
227	-0.523
228	-0.508
228	-0.495
229	-0.477
229	-0.458
229	-0.434
230	-0.41
230	-0.383
231	-0.353
231	-0.32
232	-0.289
232	-0.255
233	-0.218
233	-0.181
234	-0.145
234	-0.111
235	-0.078
235	-0.046
236	-0.017
236	0.011
236	0.037
237	0.061
237	0.083
238	0.103
238	0.121
239	0.138
239	0.153
240	0.166
240	0.178
241	0.189
241	0.198
242	0.207
242	0.215
243	0.223
243	0.229
243	0.235
244	0.24
244	0.245
245	0.25
245	0.254
246	0.258
246	0.262
247	0.265
247	0.269
248	0.272
248	0.275
249	0.277
249	0.279
250	0.282
250	0.284
250	0.287
251	0.289
251	0.291
252	0.293
252	0.295
253	0.297
253	0.299
254	0.3
254	0.302
255	0.303
255	0.305
256	0.306
256	0.306
257	0.307
257	0.307
258	0.307
258	0.308
258	0.308
259	0.308
259	0.308
260	0.308
260	0.308
261	0.308
261	0.308
262	0.307
262	0.307
263	0.307
263	0.306
264	0.305
264	0.305
265	0.304
265	0.303
265	0.303
266	0.301
266	0.3
267	0.299
267	0.298
268	0.296
268	0.295
269	0.293
269	0.291
270	0.29
270	0.288
271	0.286
271	0.284
272	0.282
272	0.28
272	0.279
273	0.277
273	0.275
274	0.273
274	0.271
275	0.269
275	0.267
276	0.265
276	0.263
277	0.261
277	0.259
278	0.256
278	0.254
278	0.252
279	0.25
279	0.248
280	0.246
280	0.244
281	0.242
281	0.24
282	0.238
282	0.236
283	0.234
283	0.232
284	0.231
284	0.229
285	0.227
285	0.225
285	0.223
286	0.222
286	0.22
287	0.218
287	0.217
288	0.215
288	0.214
289	0.213
289	0.211
290	0.21
290	0.208
291	0.207
291	0.205
292	0.204
292	0.203
292	0.202
293	0.201
293	0.199
294	0.198
294	0.197
295	0.196
295	0.196
296	0.195
296	0.194
297	0.193
297	0.193
298	0.192
298	0.191
298	0.191
299	0.19
299	0.189
300	0.189
300	0.188
301	0.188
301	0.187
302	0.187
302	0.186
303	0.186
303	0.185
304	0.184
304	0.184
305	0.183
305	0.183
305	0.182
306	0.182
306	0.181
307	0.181
307	0.18
308	0.18
308	0.179
309	0.179
309	0.178
310	0.178
310	0.177
311	0.177
311	0.176
311	0.176
312	0.175
312	0.175
313	0.174
313	0.173
314	0.173
314	0.172
315	0.172
315	0.171
316	0.171
316	0.17
317	0.17
317	0.169
318	0.169
318	0.168
318	0.167
319	0.167
319	0.167
320	0.166
320	0.166
321	0.165
321	0.165
322	0.164
322	0.163
323	0.163
323	0.162
324	0.162
324	0.161
324	0.161
325	0.16
325	0.16
326	0.159
326	0.159
327	0.158
327	0.158
328	0.157
328	0.157
329	0.156
329	0.156
330	0.155
330	0.155
330	0.154
331	0.154
331	0.153
332	0.153
332	0.152
333	0.151
333	0.151
334	0.151
334	0.15
335	0.15
335	0.149
336	0.149
336	0.148
336	0.148
337	0.147
337	0.147
338	0.147
338	0.146
339	0.146
339	0.145
340	0.145
340	0.144
341	0.144
341	0.144
342	0.144
342	0.143
342	0.143
343	0.142
343	0.142
344	0.142
344	0.142
345	0.141
345	0.141
346	0.141
346	0.14
347	0.14
347	0.139
348	0.139
348	0.139
348	0.138
349	0.138
349	0.138
350	0.137
350	0.137
351	0.137
351	0.137
352	0.137
352	0.136
353	0.136
353	0.136
354	0.135
354	0.135
354	0.135
355	0.134
355	0.134
356	0.134
356	0.133
357	0.133
357	0.133
358	0.132
358	0.132
359	0.132
359	0.132
360	0.132
360	0.132
360	0.132
361	0.132
361	0.132
362	0.132
362	0.133
363	0.132
363	0.132
364	0.132
364	0.132
365	0.132
365	0.131
366	0.131
366	0.131
366	0.131
367	0.131
367	0.131
368	0.13
368	0.13
369	0.13
369	0.13
370	0.13
370	0.13
371	0.129
371	0.129
372	0.129
372	0.129
372	0.129
373	0.128
373	0.128
374	0.128
374	0.128
375	0.128
375	0.128
376	0.128
376	0.128
377	0.128
377	0.128
378	0.128
378	0.128
378	0.128
379	0.128
379	0.128
380	0.128
380	0.128
381	0.127
381	0.127
382	0.127
382	0.127
383	0.127
383	0.127
383	0.126
384	0.127
384	0.126
385	0.126
385	0.126
386	0.126
386	0.126
387	0.125
387	0.125
388	0.125
388	0.124
389	0.124
389	0.124
389	0.123
390	0.123
390	0.123
391	0.123
391	0.123
392	0.123
392	0.123
393	0.123
393	0.123
394	0.123
394	0.123
394	0.123
395	0.123
395	0.122
396	0.122
396	0.122
397	0.122
397	0.122
398	0.122
398	0.122
399	0.122
399	0.121
400	0.121
400	0.121
400	0.121
401	0.121
401	0.121
402	0.12
402	0.12
403	0.12
403	0.12
404	0.12
404	0.12
405	0.119
405	0.119
405	0.119
406	0.119
406	0.119
407	0.119
407	0.118
408	0.118
408	0.118
409	0.118
409	0.117
410	0.117
410	0.117
411	0.117
411	0.117
411	0.117
412	0.117
412	0.117
413	0.116
413	0.116
414	0.116
414	0.116
415	0.116
415	0.116
416	0.115
416	0.115
416	0.115
417	0.115
417	0.115
418	0.115
418	0.115
419	0.115
419	0.115
420	0.115
420	0.115
421	0.116
421	0.116
421	0.116
422	0.116
422	0.116
423	0.115
423	0.115
424	0.115
424	0.115
425	0.115
425	0.115
426	0.114
426	0.114
427	0.114
427	0.114
427	0.115
428	0.115
428	0.115
429	0.115
429	0.115
430	0.115
430	0.115
431	0.114
431	0.114
432	0.114
432	0.114
432	0.113
433	0.113
433	0.112
434	0.112
434	0.112
435	0.112
435	0.112
436	0.112
436	0.112
437	0.112
437	0.112
437	0.112
438	0.112
438	0.112
439	0.112
439	0.112
440	0.111
440	0.111
441	0.111
441	0.111
442	0.111
442	0.111
442	0.111
443	0.112
443	0.112
444	0.111
444	0.111
445	0.111
445	0.111
446	0.111
446	0.111
447	0.111
447	0.111
447	0.111
448	0.111
448	0.111
449	0.111
449	0.111
450	0.111
450	0.111
451	0.111
451	0.111
452	0.111
452	0.111
452	0.111
453	0.111
453	0.111
454	0.111
454	0.111
455	0.111
455	0.111
456	0.111
456	0.111
457	0.111
457	0.111
458	0.111
458	0.111
458	0.111
459	0.111
459	0.111
460	0.111
460	0.111
461	0.111
461	0.111
462	0.111
462	0.111
463	0.111
463	0.111
463	0.111
464	0.111
464	0.111
465	0.112
465	0.112
466	0.112
466	0.112
467	0.112
467	0.112
467	0.112
468	0.112
468	0.112
469	0.112
469	0.112
470	0.112
470	0.112
471	0.112
471	0.112
472	0.113
472	0.113
472	0.114
473	0.114
473	0.115
474	0.115
474	0.115
475	0.116
475	0.116
476	0.116
476	0.117
477	0.117
477	0.117
477	0.117
478	0.117
478	0.118
479	0.118
479	0.118
480	0.119
480	0.119
481	0.12
481	0.12
482	0.121
482	0.122
482	0.123
483	0.124
483	0.126
484	0.127
484	0.127
485	0.128
485	0.129
486	0.129
486	0.13
487	0.13
487	0.131
487	0.131
488	0.131
488	0.131
489	0.132
489	0.133
490	0.133
490	0.134
491	0.135
491	0.136
492	0.137
492	0.137
492	0.138
493	0.139
493	0.14
494	0.141
494	0.143
495	0.144
495	0.145
496	0.146
496	0.148
496	0.149
497	0.15
497	0.151
498	0.153
498	0.153
499	0.154
499	0.155
500	0.156
500	0.157
501	0.158
501	0.159
501	0.16
502	0.161
502	0.162
503	0.163
503	0.165
504	0.166
504	0.166
505	0.167
505	0.168
506	0.169
506	0.17
506	0.171
507	0.172
507	0.173
508	0.174
508	0.175
509	0.176
509	0.177
510	0.178
510	0.18
511	0.181
511	0.182
511	0.183
512	0.184
512	0.184
513	0.185
513	0.185
514	0.186
514	0.186
515	0.186
515	0.186
515	0.186
516	0.186
516	0.187
517	0.187
517	0.187
518	0.187
518	0.187
519	0.187
519	0.186
520	0.186
520	0.186
520	0.185
521	0.185
521	0.184
522	0.183
522	0.183
523	0.183
523	0.183
524	0.184
524	0.185
524	0.185
525	0.186
525	0.187
526	0.188
526	0.188
527	0.189
527	0.189
528	0.189
528	0.189
529	0.189
529	0.189
529	0.188
530	0.188
530	0.187
531	0.186
531	0.186
532	0.185
532	0.184
533	0.184
533	0.183
533	0.182
534	0.181
534	0.18
535	0.179
535	0.179
536	0.178
536	0.177
537	0.175
537	0.174
538	0.173
538	0.172
538	0.171
539	0.17
539	0.168
540	0.167
540	0.165
541	0.163
541	0.162
542	0.16
542	0.159
542	0.157
543	0.156
543	0.154
544	0.153
544	0.152
545	0.151
545	0.15
546	0.149
546	0.147
547	0.146
547	0.144
547	0.142
548	0.141
548	0.139
549	0.138
549	0.136
550	0.135
550	0.133
551	0.132
551	0.13
551	0.129
552	0.127
552	0.126
553	0.125
553	0.124
554	0.123
554	0.121
555	0.118
555	0.116
556	0.115
556	0.113
556	0.111
557	0.11
557	0.108
558	0.107
558	0.105
559	0.104
559	0.103
560	0.102
560	0.101
560	0.1
561	0.1
561	0.099
562	0.098
562	0.096
563	0.095
563	0.093
564	0.091
564	0.09
564	0.089
565	0.087
565	0.086
566	0.085
566	0.084
567	0.083
567	0.083
568	0.082
568	0.082
568	0.082
569	0.082
569	0.081
570	0.08
570	0.078
571	0.078
571	0.077
572	0.076
572	0.075
573	0.074
573	0.073
573	0.072
574	0.071
574	0.071
575	0.07
575	0.071
576	0.071
576	0.07
577	0.069
577	0.068
577	0.068
578	0.067
578	0.067
579	0.067
579	0.067
580	0.066
580	0.064
581	0.062
581	0.061
581	0.061
582	0.061
582	0.061
583	0.061
583	0.06
584	0.058
584	0.056
585	0.056
585	0.056
585	0.055
586	0.055
586	0.054
587	0.053
587	0.052
588	0.05
588	0.049
589	0.049
589	0.049
590	0.049
590	0.049
590	0.05
591	0.05
591	0.05
592	0.05
592	0.049
593	0.049
593	0.049
594	0.048
594	0.047
594	0.047
595	0.046
595	0.045
596	0.044
596	0.045
597	0.046
597	0.046
598	0.046
598	0.046
598	0.046
599	0.046
599	0.046
600	0.045
600	0.044
601	0.044
601	0.043
602	0.042
602	0.042
602	0.042
603	0.042
603	0.042
604	0.043
604	0.044
605	0.045
605	0.046
606	0.046
606	0.046
606	0.046
607	0.045
607	0.046
608	0.045
608	0.044
609	0.044
609	0.043
610	0.042
610	0.042
610	0.042
611	0.043
611	0.043
612	0.044
612	0.045
613	0.045
613	0.046
614	0.046
614	0.046
614	0.046
615	0.046
615	0.046
616	0.047
616	0.047
617	0.047
617	0.046
618	0.046
618	0.046
618	0.046
619	0.047
619	0.048
620	0.049
620	0.049
621	0.05
621	0.05
622	0.05
622	0.05
622	0.05
623	0.05
623	0.051
624	0.051
624	0.051
625	0.051
625	0.051
626	0.051
626	0.052
626	0.053
627	0.054
627	0.055
628	0.056
628	0.057
629	0.058
629	0.059
630	0.059
630	0.059
630	0.06
631	0.061
631	0.061
632	0.062
632	0.062
633	0.063
633	0.064
634	0.065
634	0.067
634	0.068
635	0.07
635	0.071
636	0.072
636	0.073
637	0.074
637	0.075
638	0.076
638	0.077
638	0.078
639	0.078
639	0.078
640	0.079
640	0.08
641	0.081
641	0.082
642	0.083
642	0.084
642	0.085
643	0.087
643	0.088
644	0.09
644	0.092
645	0.094
645	0.096
646	0.099
646	0.102
646	0.105
647	0.107
647	0.11
648	0.112
648	0.114
649	0.117
649	0.119
650	0.121
650	0.123
650	0.125
651	0.127
651	0.128
652	0.13
652	0.132
653	0.135
653	0.141
653	0.15
654	0.12
654	0.098
655	0.1
655	0.102
656	0.103
656	0.104
657	0.106
657	0.107
657	0.108
658	0.106
658	0.098
659	0.124
659	0.161
660	0.166
660	0.168
661	0.17
661	0.173
661	0.175
662	0.178
662	0.18
663	0.182
663	0.185
664	0.186
664	0.188
665	0.19
665	0.192
665	0.193
666	0.195
666	0.197
667	0.198
667	0.2
668	0.202
668	0.204
669	0.205
669	0.207
669	0.21
670	0.211
670	0.213
671	0.214
671	0.215
672	0.217
672	0.218
672	0.22
673	0.221
673	0.223
674	0.225
674	0.226
675	0.227
675	0.229
676	0.231
676	0.233
676	0.234
677	0.235
677	0.236
678	0.237
678	0.238
679	0.239
679	0.24
680	0.241
680	0.242
680	0.243
681	0.244
681	0.245
682	0.245
682	0.246
683	0.247
683	0.248
684	0.248
684	0.248
684	0.248
685	0.248
685	0.248
686	0.247
686	0.247
687	0.246
687	0.246
687	0.246
688	0.245
688	0.244
689	0.245
689	0.244
690	0.244
690	0.243
691	0.243
691	0.243
691	0.243
692	0.242
692	0.242
693	0.241
693	0.241
694	0.24
694	0.239
695	0.239
695	0.239
695	0.238
696	0.237
696	0.236
697	0.234
697	0.233
698	0.232
698	0.23
698	0.229
699	0.228
699	0.226
700	0.224
700	0.222
701	0.221
701	0.22
702	0.218
702	0.217
702	0.216
703	0.215
703	0.213
704	0.212
704	0.211
705	0.211
705	0.209
705	0.208
706	0.207
706	0.206
707	0.204
707	0.203
708	0.202
708	0.2
709	0.199
709	0.197
709	0.195
710	0.193
710	0.191
711	0.19
711	0.188
712	0.185
712	0.183
713	0.18
713	0.178
713	0.175
714	0.172
714	0.17
715	0.168
715	0.166
716	0.164
716	0.162
716	0.161
717	0.16
717	0.159
718	0.158
718	0.156
719	0.155
719	0.154
720	0.152
720	0.15
720	0.148
721	0.146
721	0.145
722	0.143
722	0.14
723	0.139
723	0.137
723	0.135
724	0.133
724	0.132
725	0.13
725	0.128
726	0.126
726	0.124
727	0.122
727	0.121
727	0.119
728	0.117
728	0.115
729	0.114
729	0.113
730	0.111
730	0.109
730	0.107
731	0.106
731	0.104
732	0.103
732	0.102
733	0.101
733	0.1
734	0.098
734	0.096
734	0.095
735	0.094
735	0.092
736	0.09
736	0.088
737	0.087
737	0.085
737	0.083
738	0.081
738	0.079
739	0.078
739	0.077
740	0.076
740	0.076
741	0.075
741	0.074
741	0.073
742	0.071
742	0.07
743	0.069
743	0.067
744	0.066
744	0.064
744	0.063
745	0.061
745	0.059
746	0.057
746	0.057
747	0.056
747	0.056
748	0.055
748	0.055
748	0.054
749	0.053
749	0.052
750	0.051
750	0.049
751	0.048
751	0.046
751	0.045
752	0.043
752	0.041
753	0.039
753	0.038
754	0.037
754	0.036
754	0.035
755	0.035
755	0.035
756	0.034
756	0.033
757	0.032
757	0.032
758	0.032
758	0.031
758	0.03
759	0.03
759	0.029
760	0.028
760	0.026
761	0.026
761	0.026
761	0.025
762	0.023
762	0.022
763	0.021
763	0.02
764	0.018
764	0.016
764	0.015
765	0.013
765	0.012
766	0.011
766	0.01
767	0.009
767	0.007
768	0.006
768	0.004
768	0.003
769	0.002
769	0.001
770	-0
770	-0.002
771	-0.003
771	-0.005
771	-0.007
772	-0.008
772	-0.009
773	-0.01
773	-0.011
774	-0.013
774	-0.014
775	-0.015
775	-0.017
775	-0.018
776	-0.02
776	-0.022
777	-0.024
777	-0.025
778	-0.027
778	-0.03
778	-0.031
779	-0.033
779	-0.035
780	-0.037
780	-0.039
781	-0.042
781	-0.044
781	-0.048
782	-0.052
782	-0.056
783	-0.06
783	-0.064
784	-0.069
784	-0.074
784	-0.079
785	-0.084
785	-0.09
786	-0.095
786	-0.099
787	-0.103
787	-0.107
788	-0.113
788	-0.119
788	-0.126
789	-0.133
789	-0.138
790	-0.141
790	-0.145
791	-0.15
791	-0.154
791	-0.156
792	-0.152
792	-0.143
793	-0.139
793	-0.136
794	-0.134
794	-0.136
794	-0.139
795	-0.141
795	-0.141
796	-0.141
796	-0.144
797	-0.152
797	-0.163
797	-0.169
798	-0.175
798	-0.178
799	-0.178
799	-0.178
800	-0.178
800	-0.179
801	-0.182
801	-0.182
801	-0.182
802	-0.183
802	-0.184
803	-0.184
803	-0.184
804	-0.183
804	-0.178
804	-0.172
805	-0.168
805	-0.166
806	-0.164
806	-0.162
807	-0.161
807	-0.161
807	-0.16
808	-0.16
808	-0.161
809	-0.165
809	-0.171
810	-0.175
810	-0.177
810	-0.181
811	-0.184
811	-0.185
812	-0.181
812	-0.179
813	-0.179
813	-0.18
813	-0.182
814	-0.183
814	-0.183
815	-0.179
815	-0.175
816	-0.17
816	-0.165
817	-0.163
817	-0.159
817	-0.151
818	-0.141
818	-0.129
819	-0.118
819	-0.108
820	-0.1
820	-0.093
820	-0.086
821	-0.08
821	-0.074
822	-0.069
822	-0.065
823	-0.061
823	-0.057
823	-0.054
824	-0.051
824	-0.047
825	-0.043
825	-0.04
826	-0.037
826	-0.035
826	-0.032
827	-0.031
827	-0.029
828	-0.027
828	-0.026
829	-0.025
829	-0.024
829	-0.023
830	-0.023
830	-0.022
831	-0.021
831	-0.021
832	-0.021
832	-0.02
832	-0.02
833	-0.02
833	-0.021
834	-0.021
834	-0.021
835	-0.021
835	-0.021
835	-0.021
836	-0.021
836	-0.021
837	-0.02
837	-0.02
838	-0.02
838	-0.019
839	-0.019
839	-0.018
839	-0.017
840	-0.017
840	-0.016
841	-0.015
841	-0.014
842	-0.014
842	-0.013
842	-0.012
843	-0.011
843	-0.01
844	-0.01
844	-0.009
845	-0.009
845	-0.008
845	-0.008
846	-0.007
846	-0.007
847	-0.007
847	-0.007
848	-0.008
848	-0.008
848	-0.008
849	-0.009
849	-0.009
850	-0.01
850	-0.011
851	-0.011
851	-0.012
851	-0.013
852	-0.013
852	-0.013
853	-0.014
853	-0.014
854	-0.015
854	-0.015
854	-0.015
855	-0.016
855	-0.016
856	-0.016
856	-0.017
857	-0.017
857	-0.018
857	-0.018
858	-0.018
858	-0.018
859	-0.017
859	-0.017
860	-0.016
860	-0.016
860	-0.015
861	-0.014
861	-0.013
862	-0.012
862	-0.011
863	-0.011
863	-0.01
863	-0.01
864	-0.01
864	-0.009
865	-0.009
865	-0.008
866	-0.008
866	-0.008
866	-0.007
867	-0.006
867	-0.006
868	-0.006
868	-0.006
869	-0.005
869	-0.006
869	-0.007
870	-0.007
870	-0.008
871	-0.009
871	-0.01
872	-0.011
872	-0.011
872	-0.012
873	-0.012
873	-0.012
874	-0.012
874	-0.011
875	-0.011
875	-0.011
875	-0.01
876	-0.01
876	-0.009
877	-0.009
877	-0.009
878	-0.009
878	-0.01
878	-0.01
879	-0.011
879	-0.012
880	-0.012
880	-0.013
881	-0.014
881	-0.014
881	-0.014
882	-0.014
882	-0.014
883	-0.013
883	-0.012
884	-0.011
884	-0.01
884	-0.01
885	-0.009
885	-0.008
886	-0.007
886	-0.007
887	-0.008
887	-0.008
887	-0.009
888	-0.009
888	-0.01
889	-0.01
889	-0.011
890	-0.011
890	-0.012
890	-0.012
891	-0.012
891	-0.012
892	-0.012
892	-0.012
893	-0.012
893	-0.012
893	-0.011
894	-0.011
894	-0.011
895	-0.011
895	-0.011
895	-0.011
896	-0.011
896	-0.011
897	-0.01
897	-0.01
898	-0.01
898	-0.01
898	-0.009
899	-0.009
899	-0.008
900	-0.008
900	-0.007
901	-0.006
901	-0.005
901	-0.004
902	-0.003
902	-0.003
903	-0.002
903	-0.001
904	-0.001
904	-0
904	0
905	0
905	0.001
906	0
906	0
907	-0
907	-0
907	-0.001
908	-0.001
908	-0.002
909	-0.002
909	-0.003
910	-0.003
910	-0.004
910	-0.005
911	-0.006
911	-0.007
912	-0.007
912	-0.008
913	-0.008
913	-0.009
913	-0.009
914	-0.01
914	-0.011
915	-0.011
915	-0.012
916	-0.012
916	-0.012
916	-0.012
917	-0.012
917	-0.012
918	-0.012
918	-0.011
918	-0.01
919	-0.01
919	-0.008
920	-0.007
920	-0.005
921	-0.003
921	-0.002
921	-0.001
922	0
922	0.001
923	0.002
923	0.002
924	0.002
924	0.001
924	-0
925	-0.001
925	-0.002
926	-0.003
926	-0.005
927	-0.006
927	-0.007
927	-0.007
928	-0.008
928	-0.008
929	-0.008
929	-0.007
930	-0.007
930	-0.007
930	-0.007
931	-0.007
931	-0.007
932	-0.007
932	-0.007
933	-0.008
933	-0.008
933	-0.009
934	-0.01
934	-0.01
935	-0.011
935	-0.011
935	-0.012
936	-0.012
936	-0.012
937	-0.012
937	-0.012
938	-0.012
938	-0.011
938	-0.011
939	-0.011
939	-0.011
940	-0.012
940	-0.012
941	-0.013
941	-0.013
941	-0.014
942	-0.015
942	-0.015
943	-0.015
943	-0.016
944	-0.016
944	-0.016
944	-0.016
945	-0.016
945	-0.015
946	-0.015
946	-0.015
946	-0.015
947	-0.015
947	-0.016
948	-0.016
948	-0.016
949	-0.017
949	-0.016
949	-0.016
950	-0.016
950	-0.016
951	-0.016
951	-0.015
952	-0.015
952	-0.014
952	-0.013
953	-0.011
953	-0.011
954	-0.01
954	-0.009
955	-0.008
955	-0.007
955	-0.007
956	-0.006
956	-0.006
957	-0.006
957	-0.006
957	-0.007
958	-0.007
958	-0.007
959	-0.008
959	-0.008
960	-0.009
960	-0.01
960	-0.01
961	-0.011
961	-0.012
962	-0.012
962	-0.013
963	-0.014
963	-0.015
963	-0.017
964	-0.018
964	-0.018
965	-0.019
965	-0.02
966	-0.02
966	-0.02
966	-0.02
967	-0.019
967	-0.018
968	-0.017
968	-0.016
968	-0.015
969	-0.014
969	-0.013
970	-0.012
970	-0.011
971	-0.011
971	-0.01
971	-0.009
972	-0.008
972	-0.008
973	-0.007
973	-0.006
974	-0.006
974	-0.005
974	-0.005
975	-0.004
975	-0.004
976	-0.003
976	-0.003
976	-0.004
977	-0.004
977	-0.005
978	-0.005
978	-0.006
979	-0.007
979	-0.008
979	-0.009
980	-0.011
980	-0.012
981	-0.013
981	-0.014
982	-0.015
982	-0.015
982	-0.016
983	-0.016
983	-0.017
984	-0.017
984	-0.017
984	-0.017
985	-0.017
985	-0.017
986	-0.017
986	-0.017
987	-0.017
987	-0.017
987	-0.016
988	-0.016
988	-0.016
989	-0.015
989	-0.015
990	-0.014
990	-0.014
990	-0.013
991	-0.012
991	-0.012
992	-0.012
992	-0.012
992	-0.012
993	-0.013
993	-0.014
994	-0.014
994	-0.015
995	-0.016
995	-0.017
995	-0.018
996	-0.019
996	-0.019
997	-0.02
997	-0.02
997	-0.019
998	-0.019
998	-0.018
999	-0.017
999	-0.017
1000	-0.016
1000	-0.016
1000	-0.016
1001	-0.016
1001	-0.016
1002	-0.016
1002	-0.017
1003	-0.018
1003	-0.019
1003	-0.021
1004	-0.021
1004	-0.022
1005	-0.023
1005	-0.024
1005	-0.024
1006	-0.025
1006	-0.025
1007	-0.025
1007	-0.025
1008	-0.025
1008	-0.025
1008	-0.025
1009	-0.024
1009	-0.024
1010	-0.024
1010	-0.023
1010	-0.023
1011	-0.022
1011	-0.022
1012	-0.021
1012	-0.021
1013	-0.02
1013	-0.02
1013	-0.019
1014	-0.019
1014	-0.019
1015	-0.018
1015	-0.018
1016	-0.017
1016	-0.017
1016	-0.017
1017	-0.017
1017	-0.016
1018	-0.016
1018	-0.015
1018	-0.015
1019	-0.014
1019	-0.014
1020	-0.014
1020	-0.014
1021	-0.014
1021	-0.014
1021	-0.014
1022	-0.014
1022	-0.014
1023	-0.015
1023	-0.016
1023	-0.016
1024	-0.017
1024	-0.017
1025	-0.018
1025	-0.019
1026	-0.019
1026	-0.019
1026	-0.019
1027	-0.02
1027	-0.02
1028	-0.02
1028	-0.019
1028	-0.02
1029	-0.02
1029	-0.02
1030	-0.02
1030	-0.021
1031	-0.021
1031	-0.022
1031	-0.022
1032	-0.023
1032	-0.023
1033	-0.024
1033	-0.024
1033	-0.025
1034	-0.025
1034	-0.026
1035	-0.026
1035	-0.026
1036	-0.026
1036	-0.026
1036	-0.026
1037	-0.026
1037	-0.026
1038	-0.026
1038	-0.025
1039	-0.025
1039	-0.024
1039	-0.023
1040	-0.023
1040	-0.023
1041	-0.022
1041	-0.022
1041	-0.022
1042	-0.023
1042	-0.023
1043	-0.023
1043	-0.024
1044	-0.024
1044	-0.025
1044	-0.025
1045	-0.025
1045	-0.026
1046	-0.026
1046	-0.026
1046	-0.026
1047	-0.026
1047	-0.026
1048	-0.025
1048	-0.026
1049	-0.025
1049	-0.025
1049	-0.026
1050	-0.026
1050	-0.027
1051	-0.027
1051	-0.028
1051	-0.028
1052	-0.029
1052	-0.029
1053	-0.03
1053	-0.03
1053	-0.031
1054	-0.031
1054	-0.031
1055	-0.031
1055	-0.031
1056	-0.032
1056	-0.032
1056	-0.032
1057	-0.033
1057	-0.033
1058	-0.033
1058	-0.033
1058	-0.033
1059	-0.032
1059	-0.032
1060	-0.032
1060	-0.031
1061	-0.03
1061	-0.029
1061	-0.029
1062	-0.029
1062	-0.029
1063	-0.029
1063	-0.029
1063	-0.029
1064	-0.029
1064	-0.029
1065	-0.029
1065	-0.03
1066	-0.031
1066	-0.031
1066	-0.032
1067	-0.032
1067	-0.032
1068	-0.033
1068	-0.034
1068	-0.035
1069	-0.035
1069	-0.036
1070	-0.036
1070	-0.036
1071	-0.035
1071	-0.035
1071	-0.036
1072	-0.035
1072	-0.035
1073	-0.034
1073	-0.033
1073	-0.032
1074	-0.032
1074	-0.031
1075	-0.031
1075	-0.03
1076	-0.03
1076	-0.029
1076	-0.03
1077	-0.03
1077	-0.029
1078	-0.03
1078	-0.03
1078	-0.029
1079	-0.029
1079	-0.029
1080	-0.029
1080	-0.028
1080	-0.028
1081	-0.028
1081	-0.027
1082	-0.026
1082	-0.026
1083	-0.026
1083	-0.026
1083	-0.025
1084	-0.025
1084	-0.025
1085	-0.024
1085	-0.023
1085	-0.022
1086	-0.022
1086	-0.022
1087	-0.022
1087	-0.021
1088	-0.021
1088	-0.021
1088	-0.02
1089	-0.021
1089	-0.022
1090	-0.023
1090	-0.023
1090	-0.023
1091	-0.023
1091	-0.023
1092	-0.023
1092	-0.022
1092	-0.022
1093	-0.023
1093	-0.022
1094	-0.02
1094	-0.019
1095	-0.019
1095	-0.018
1095	-0.017
1096	-0.017
1096	-0.016
1097	-0.015
1097	-0.014
1097	-0.012
1098	-0.012
1098	-0.012
1099	-0.011
1099	-0.01
1100	-0.009
1100	-0.007
1100	-0.007
1101	-0.006
1101	-0.005
1102	-0.003
1102	-0
1102	0.003
1103	0.005
1103	0.009
1104	0.012
1104	0.016
1104	0.02
1105	0.025
1105	0.03
1106	0.035
1106	0.04
1107	0.044
1107	0.05
1107	0.059
1108	0.09
1108	0.131
1109	0.187
1109	0.273
1109	0.336
1110	0.45
1110	0.726
1111	-0
1111	-0
