Data from 15c-2a_Absorbance__1178__01178.txt Node

Date: Fri Jan 19 10:20:50 CET 2024
User: Marek
Spectrometer: MAYP115816
Trigger mode: 0
Integration Time (sec): 2.000000E-1
Scans to average: 10
Electric dark correction enabled: true
Nonlinearity correction enabled: true
Boxcar width: 5
XAxis mode: Wavelengths
Number of Pixels in Spectrum: 2068
>>>>>Begin Spectral Data<<<<<
199	-1.453
199	-1.309
200	-1.174
200	-1.062
201	-0.999
201	-0.949
202	-0.887
202	-0.838
203	-0.796
203	-0.76
204	-0.736
204	-0.714
205	-0.696
205	-0.685
205	-0.685
206	-0.679
206	-0.678
207	-0.672
207	-0.668
208	-0.667
208	-0.664
209	-0.662
209	-0.659
210	-0.658
210	-0.657
211	-0.656
211	-0.656
212	-0.657
212	-0.657
213	-0.657
213	-0.655
213	-0.655
214	-0.652
214	-0.651
215	-0.648
215	-0.647
216	-0.644
216	-0.644
217	-0.639
217	-0.637
218	-0.636
218	-0.634
219	-0.63
219	-0.631
220	-0.63
220	-0.632
221	-0.631
221	-0.627
221	-0.622
222	-0.62
222	-0.616
223	-0.611
223	-0.607
224	-0.601
224	-0.595
225	-0.587
225	-0.576
226	-0.567
226	-0.557
227	-0.545
227	-0.534
228	-0.52
228	-0.506
229	-0.488
229	-0.468
229	-0.444
230	-0.419
230	-0.391
231	-0.36
231	-0.328
232	-0.296
232	-0.26
233	-0.224
233	-0.186
234	-0.15
234	-0.114
235	-0.082
235	-0.049
236	-0.019
236	0.009
236	0.037
237	0.061
237	0.084
238	0.105
238	0.124
239	0.141
239	0.156
240	0.17
240	0.183
241	0.194
241	0.204
242	0.213
242	0.222
243	0.229
243	0.236
243	0.242
244	0.248
244	0.253
245	0.258
245	0.263
246	0.267
246	0.271
247	0.274
247	0.277
248	0.281
248	0.284
249	0.286
249	0.289
250	0.291
250	0.294
250	0.296
251	0.299
251	0.301
252	0.303
252	0.305
253	0.307
253	0.308
254	0.31
254	0.311
255	0.312
255	0.314
256	0.315
256	0.316
257	0.316
257	0.317
258	0.317
258	0.317
258	0.318
259	0.318
259	0.318
260	0.318
260	0.318
261	0.318
261	0.318
262	0.318
262	0.317
263	0.317
263	0.316
264	0.315
264	0.314
265	0.314
265	0.313
265	0.312
266	0.311
266	0.31
267	0.309
267	0.307
268	0.306
268	0.305
269	0.303
269	0.302
270	0.3
270	0.298
271	0.296
271	0.294
272	0.292
272	0.29
272	0.289
273	0.287
273	0.285
274	0.283
274	0.281
275	0.279
275	0.277
276	0.275
276	0.273
277	0.27
277	0.268
278	0.266
278	0.264
278	0.262
279	0.26
279	0.257
280	0.255
280	0.253
281	0.251
281	0.249
282	0.247
282	0.245
283	0.243
283	0.241
284	0.239
284	0.238
285	0.236
285	0.234
285	0.232
286	0.231
286	0.229
287	0.227
287	0.225
288	0.224
288	0.222
289	0.221
289	0.219
290	0.218
290	0.217
291	0.215
291	0.214
292	0.213
292	0.211
292	0.21
293	0.209
293	0.208
294	0.207
294	0.206
295	0.205
295	0.204
296	0.203
296	0.203
297	0.202
297	0.201
298	0.2
298	0.2
298	0.199
299	0.198
299	0.198
300	0.197
300	0.196
301	0.196
301	0.195
302	0.195
302	0.194
303	0.193
303	0.193
304	0.192
304	0.192
305	0.191
305	0.191
305	0.191
306	0.19
306	0.189
307	0.189
307	0.188
308	0.188
308	0.187
309	0.187
309	0.186
310	0.185
310	0.185
311	0.184
311	0.184
311	0.183
312	0.183
312	0.182
313	0.182
313	0.181
314	0.18
314	0.18
315	0.18
315	0.179
316	0.178
316	0.178
317	0.177
317	0.176
318	0.176
318	0.175
318	0.175
319	0.175
319	0.174
320	0.174
320	0.173
321	0.173
321	0.172
322	0.172
322	0.171
323	0.17
323	0.17
324	0.169
324	0.168
324	0.168
325	0.167
325	0.167
326	0.166
326	0.166
327	0.165
327	0.164
328	0.164
328	0.163
329	0.163
329	0.163
330	0.162
330	0.162
330	0.161
331	0.16
331	0.16
332	0.159
332	0.159
333	0.158
333	0.158
334	0.157
334	0.157
335	0.156
335	0.156
336	0.155
336	0.155
336	0.154
337	0.154
337	0.153
338	0.153
338	0.152
339	0.152
339	0.152
340	0.151
340	0.151
341	0.151
341	0.15
342	0.15
342	0.15
342	0.149
343	0.149
343	0.149
344	0.148
344	0.148
345	0.148
345	0.147
346	0.147
346	0.146
347	0.146
347	0.146
348	0.145
348	0.145
348	0.145
349	0.144
349	0.144
350	0.144
350	0.144
351	0.143
351	0.143
352	0.143
352	0.143
353	0.142
353	0.142
354	0.142
354	0.141
354	0.141
355	0.141
355	0.14
356	0.14
356	0.14
357	0.139
357	0.139
358	0.139
358	0.139
359	0.139
359	0.139
360	0.138
360	0.138
360	0.138
361	0.138
361	0.138
362	0.138
362	0.138
363	0.138
363	0.138
364	0.138
364	0.138
365	0.138
365	0.138
366	0.138
366	0.138
366	0.138
367	0.137
367	0.137
368	0.137
368	0.136
369	0.136
369	0.136
370	0.136
370	0.136
371	0.135
371	0.135
372	0.135
372	0.135
372	0.135
373	0.134
373	0.134
374	0.134
374	0.134
375	0.134
375	0.134
376	0.134
376	0.134
377	0.134
377	0.134
378	0.134
378	0.134
378	0.133
379	0.133
379	0.133
380	0.133
380	0.133
381	0.133
381	0.133
382	0.133
382	0.133
383	0.133
383	0.133
383	0.132
384	0.132
384	0.132
385	0.132
385	0.132
386	0.131
386	0.131
387	0.131
387	0.131
388	0.131
388	0.131
389	0.13
389	0.13
389	0.13
390	0.13
390	0.13
391	0.13
391	0.13
392	0.13
392	0.13
393	0.13
393	0.129
394	0.129
394	0.129
394	0.129
395	0.129
395	0.128
396	0.128
396	0.128
397	0.128
397	0.128
398	0.128
398	0.127
399	0.128
399	0.127
400	0.127
400	0.127
400	0.127
401	0.127
401	0.126
402	0.126
402	0.126
403	0.126
403	0.125
404	0.125
404	0.125
405	0.125
405	0.125
405	0.125
406	0.125
406	0.124
407	0.124
407	0.124
408	0.124
408	0.123
409	0.123
409	0.123
410	0.123
410	0.123
411	0.123
411	0.122
411	0.122
412	0.122
412	0.122
413	0.122
413	0.121
414	0.121
414	0.121
415	0.121
415	0.121
416	0.121
416	0.121
416	0.12
417	0.12
417	0.121
418	0.121
418	0.121
419	0.121
419	0.121
420	0.121
420	0.121
421	0.121
421	0.121
421	0.121
422	0.121
422	0.121
423	0.121
423	0.121
424	0.121
424	0.12
425	0.12
425	0.12
426	0.12
426	0.12
427	0.12
427	0.12
427	0.12
428	0.12
428	0.121
429	0.121
429	0.121
430	0.121
430	0.121
431	0.12
431	0.12
432	0.12
432	0.12
432	0.119
433	0.118
433	0.118
434	0.118
434	0.118
435	0.118
435	0.118
436	0.118
436	0.118
437	0.118
437	0.118
437	0.118
438	0.117
438	0.117
439	0.117
439	0.117
440	0.117
440	0.117
441	0.117
441	0.117
442	0.117
442	0.117
442	0.117
443	0.117
443	0.117
444	0.117
444	0.117
445	0.117
445	0.117
446	0.117
446	0.117
447	0.116
447	0.116
447	0.116
448	0.116
448	0.116
449	0.116
449	0.116
450	0.116
450	0.116
451	0.116
451	0.116
452	0.116
452	0.116
452	0.116
453	0.116
453	0.116
454	0.116
454	0.116
455	0.116
455	0.116
456	0.116
456	0.116
457	0.116
457	0.116
458	0.116
458	0.116
458	0.116
459	0.116
459	0.116
460	0.116
460	0.116
461	0.115
461	0.115
462	0.115
462	0.116
463	0.116
463	0.117
463	0.117
464	0.117
464	0.117
465	0.118
465	0.118
466	0.118
466	0.119
467	0.119
467	0.118
467	0.118
468	0.118
468	0.117
469	0.117
469	0.118
470	0.118
470	0.118
471	0.118
471	0.118
472	0.118
472	0.119
472	0.119
473	0.12
473	0.12
474	0.121
474	0.121
475	0.121
475	0.122
476	0.122
476	0.122
477	0.123
477	0.123
477	0.123
478	0.124
478	0.124
479	0.124
479	0.125
480	0.125
480	0.126
481	0.126
481	0.127
482	0.127
482	0.128
482	0.129
483	0.131
483	0.133
484	0.134
484	0.135
485	0.135
485	0.136
486	0.137
486	0.137
487	0.138
487	0.138
487	0.138
488	0.139
488	0.138
489	0.139
489	0.139
490	0.14
490	0.14
491	0.141
491	0.142
492	0.143
492	0.143
492	0.144
493	0.145
493	0.146
494	0.147
494	0.148
495	0.15
495	0.151
496	0.152
496	0.153
496	0.155
497	0.156
497	0.157
498	0.158
498	0.159
499	0.16
499	0.161
500	0.162
500	0.163
501	0.164
501	0.165
501	0.167
502	0.168
502	0.169
503	0.171
503	0.172
504	0.173
504	0.174
505	0.175
505	0.176
506	0.177
506	0.178
506	0.179
507	0.18
507	0.181
508	0.182
508	0.183
509	0.184
509	0.185
510	0.186
510	0.187
511	0.188
511	0.189
511	0.19
512	0.191
512	0.191
513	0.192
513	0.192
514	0.193
514	0.193
515	0.193
515	0.193
515	0.193
516	0.194
516	0.194
517	0.194
517	0.194
518	0.195
518	0.195
519	0.195
519	0.195
520	0.195
520	0.194
520	0.194
521	0.193
521	0.193
522	0.192
522	0.192
523	0.192
523	0.192
524	0.193
524	0.194
524	0.194
525	0.195
525	0.196
526	0.197
526	0.197
527	0.198
527	0.198
528	0.197
528	0.197
529	0.197
529	0.196
529	0.196
530	0.195
530	0.195
531	0.194
531	0.193
532	0.192
532	0.192
533	0.191
533	0.19
533	0.19
534	0.189
534	0.188
535	0.187
535	0.187
536	0.186
536	0.185
537	0.184
537	0.183
538	0.182
538	0.181
538	0.18
539	0.178
539	0.177
540	0.175
540	0.173
541	0.172
541	0.17
542	0.168
542	0.167
542	0.165
543	0.163
543	0.162
544	0.16
544	0.159
545	0.158
545	0.157
546	0.156
546	0.154
547	0.152
547	0.15
547	0.149
548	0.147
548	0.146
549	0.144
549	0.143
550	0.141
550	0.139
551	0.137
551	0.136
551	0.135
552	0.133
552	0.132
553	0.131
553	0.13
554	0.129
554	0.127
555	0.125
555	0.123
556	0.122
556	0.12
556	0.118
557	0.116
557	0.115
558	0.113
558	0.112
559	0.11
559	0.109
560	0.108
560	0.107
560	0.106
561	0.105
561	0.104
562	0.103
562	0.101
563	0.1
563	0.098
564	0.097
564	0.095
564	0.094
565	0.093
565	0.091
566	0.09
566	0.089
567	0.088
567	0.088
568	0.087
568	0.087
568	0.086
569	0.086
569	0.085
570	0.084
570	0.082
571	0.082
571	0.081
572	0.08
572	0.079
573	0.078
573	0.077
573	0.076
574	0.075
574	0.075
575	0.075
575	0.076
576	0.076
576	0.074
577	0.073
577	0.072
577	0.072
578	0.071
578	0.071
579	0.071
579	0.071
580	0.07
580	0.067
581	0.065
581	0.064
581	0.064
582	0.064
582	0.064
583	0.064
583	0.063
584	0.061
584	0.058
585	0.058
585	0.058
585	0.058
586	0.058
586	0.057
587	0.056
587	0.054
588	0.053
588	0.052
589	0.052
589	0.052
590	0.052
590	0.052
590	0.054
591	0.054
591	0.054
592	0.053
592	0.052
593	0.052
593	0.052
594	0.051
594	0.05
594	0.049
595	0.049
595	0.047
596	0.047
596	0.047
597	0.049
597	0.049
598	0.049
598	0.049
598	0.049
599	0.049
599	0.048
600	0.048
600	0.047
601	0.047
601	0.046
602	0.045
602	0.045
602	0.044
603	0.044
603	0.045
604	0.046
604	0.047
605	0.049
605	0.05
606	0.05
606	0.049
606	0.048
607	0.048
607	0.048
608	0.048
608	0.047
609	0.046
609	0.046
610	0.045
610	0.044
610	0.044
611	0.044
611	0.045
612	0.046
612	0.047
613	0.048
613	0.048
614	0.048
614	0.048
614	0.048
615	0.049
615	0.049
616	0.049
616	0.049
617	0.049
617	0.049
618	0.048
618	0.048
618	0.049
619	0.05
619	0.05
620	0.052
620	0.053
621	0.053
621	0.054
622	0.054
622	0.055
622	0.055
623	0.055
623	0.056
624	0.056
624	0.056
625	0.056
625	0.056
626	0.056
626	0.056
626	0.057
627	0.058
627	0.059
628	0.06
628	0.06
629	0.061
629	0.062
630	0.062
630	0.063
630	0.064
631	0.065
631	0.065
632	0.066
632	0.066
633	0.067
633	0.068
634	0.069
634	0.071
634	0.072
635	0.073
635	0.074
636	0.075
636	0.076
637	0.077
637	0.077
638	0.078
638	0.079
638	0.08
639	0.08
639	0.081
640	0.082
640	0.083
641	0.084
641	0.086
642	0.087
642	0.089
642	0.09
643	0.092
643	0.093
644	0.095
644	0.097
645	0.098
645	0.1
646	0.102
646	0.104
646	0.107
647	0.109
647	0.112
648	0.114
648	0.116
649	0.119
649	0.121
650	0.124
650	0.126
650	0.128
651	0.13
651	0.132
652	0.134
652	0.136
653	0.139
653	0.145
653	0.157
654	0.126
654	0.102
655	0.104
655	0.106
656	0.107
656	0.108
657	0.109
657	0.111
657	0.111
658	0.11
658	0.1
659	0.127
659	0.164
660	0.17
660	0.173
661	0.175
661	0.178
661	0.18
662	0.183
662	0.185
663	0.188
663	0.191
664	0.193
664	0.194
665	0.197
665	0.199
665	0.2
666	0.202
666	0.204
667	0.205
667	0.207
668	0.209
668	0.211
669	0.212
669	0.214
669	0.216
670	0.218
670	0.219
671	0.22
671	0.222
672	0.223
672	0.225
672	0.226
673	0.228
673	0.23
674	0.231
674	0.232
675	0.234
675	0.236
676	0.238
676	0.239
676	0.24
677	0.241
677	0.243
678	0.244
678	0.245
679	0.246
679	0.247
680	0.248
680	0.249
680	0.25
681	0.251
681	0.252
682	0.253
682	0.254
683	0.254
683	0.255
684	0.256
684	0.256
684	0.256
685	0.256
685	0.256
686	0.256
686	0.255
687	0.254
687	0.254
687	0.253
688	0.252
688	0.252
689	0.252
689	0.252
690	0.251
690	0.25
691	0.25
691	0.25
691	0.249
692	0.249
692	0.248
693	0.248
693	0.248
694	0.247
694	0.245
695	0.246
695	0.246
695	0.245
696	0.244
696	0.243
697	0.242
697	0.24
698	0.239
698	0.237
698	0.236
699	0.235
699	0.232
700	0.23
700	0.229
701	0.227
701	0.226
702	0.224
702	0.223
702	0.221
703	0.22
703	0.218
704	0.217
704	0.216
705	0.215
705	0.213
705	0.211
706	0.21
706	0.209
707	0.208
707	0.206
708	0.205
708	0.203
709	0.202
709	0.2
709	0.198
710	0.196
710	0.194
711	0.193
711	0.191
712	0.189
712	0.187
713	0.184
713	0.182
713	0.179
714	0.177
714	0.175
715	0.173
715	0.171
716	0.17
716	0.168
716	0.167
717	0.166
717	0.165
718	0.164
718	0.162
719	0.161
719	0.16
720	0.158
720	0.157
720	0.155
721	0.152
721	0.151
722	0.149
722	0.147
723	0.145
723	0.144
723	0.142
724	0.139
724	0.137
725	0.135
725	0.133
726	0.131
726	0.129
727	0.126
727	0.124
727	0.122
728	0.12
728	0.119
729	0.118
729	0.116
730	0.114
730	0.113
730	0.111
731	0.109
731	0.108
732	0.107
732	0.106
733	0.105
733	0.103
734	0.102
734	0.1
734	0.099
735	0.098
735	0.096
736	0.095
736	0.093
737	0.091
737	0.09
737	0.088
738	0.085
738	0.083
739	0.082
739	0.081
740	0.08
740	0.08
741	0.079
741	0.078
741	0.076
742	0.074
742	0.073
743	0.072
743	0.071
744	0.069
744	0.068
744	0.066
745	0.064
745	0.062
746	0.061
746	0.061
747	0.061
747	0.061
748	0.061
748	0.06
748	0.059
749	0.058
749	0.057
750	0.056
750	0.054
751	0.052
751	0.051
751	0.049
752	0.046
752	0.044
753	0.042
753	0.041
754	0.039
754	0.038
754	0.037
755	0.036
755	0.036
756	0.035
756	0.033
757	0.033
757	0.033
758	0.032
758	0.032
758	0.032
759	0.031
759	0.03
760	0.029
760	0.028
761	0.028
761	0.028
761	0.028
762	0.026
762	0.026
763	0.025
763	0.023
764	0.021
764	0.019
764	0.017
765	0.016
765	0.014
766	0.013
766	0.012
767	0.011
767	0.009
768	0.008
768	0.006
768	0.005
769	0.005
769	0.003
770	0.002
770	0.001
771	-0.001
771	-0.003
771	-0.005
772	-0.006
772	-0.007
773	-0.008
773	-0.01
774	-0.011
774	-0.013
775	-0.014
775	-0.016
775	-0.018
776	-0.019
776	-0.021
777	-0.022
777	-0.024
778	-0.026
778	-0.028
778	-0.03
779	-0.031
779	-0.032
780	-0.034
780	-0.037
781	-0.039
781	-0.042
781	-0.045
782	-0.049
782	-0.053
783	-0.056
783	-0.06
784	-0.065
784	-0.07
784	-0.075
785	-0.08
785	-0.086
786	-0.091
786	-0.096
787	-0.1
787	-0.105
788	-0.11
788	-0.117
788	-0.124
789	-0.132
789	-0.137
790	-0.14
790	-0.145
791	-0.15
791	-0.154
791	-0.156
792	-0.152
792	-0.143
793	-0.139
793	-0.136
794	-0.134
794	-0.136
794	-0.139
795	-0.141
795	-0.141
796	-0.141
796	-0.144
797	-0.152
797	-0.163
797	-0.169
798	-0.175
798	-0.178
799	-0.178
799	-0.178
800	-0.178
800	-0.179
801	-0.182
801	-0.182
801	-0.182
802	-0.183
802	-0.184
803	-0.184
803	-0.184
804	-0.183
804	-0.178
804	-0.172
805	-0.168
805	-0.166
806	-0.164
806	-0.162
807	-0.161
807	-0.161
807	-0.16
808	-0.16
808	-0.161
809	-0.165
809	-0.171
810	-0.175
810	-0.177
810	-0.181
811	-0.184
811	-0.185
812	-0.181
812	-0.179
813	-0.179
813	-0.18
813	-0.182
814	-0.183
814	-0.183
815	-0.179
815	-0.175
816	-0.17
816	-0.166
817	-0.164
817	-0.16
817	-0.152
818	-0.142
818	-0.131
819	-0.119
819	-0.109
820	-0.101
820	-0.094
820	-0.087
821	-0.08
821	-0.075
822	-0.069
822	-0.065
823	-0.061
823	-0.057
823	-0.054
824	-0.051
824	-0.047
825	-0.043
825	-0.039
826	-0.036
826	-0.033
826	-0.031
827	-0.028
827	-0.026
828	-0.024
828	-0.023
829	-0.021
829	-0.02
829	-0.019
830	-0.019
830	-0.019
831	-0.018
831	-0.018
832	-0.018
832	-0.018
832	-0.019
833	-0.019
833	-0.019
834	-0.02
834	-0.02
835	-0.02
835	-0.02
835	-0.02
836	-0.02
836	-0.019
837	-0.019
837	-0.019
838	-0.018
838	-0.017
839	-0.017
839	-0.016
839	-0.015
840	-0.015
840	-0.014
841	-0.013
841	-0.013
842	-0.012
842	-0.012
842	-0.011
843	-0.011
843	-0.01
844	-0.01
844	-0.009
845	-0.009
845	-0.009
845	-0.009
846	-0.009
846	-0.009
847	-0.009
847	-0.009
848	-0.01
848	-0.01
848	-0.011
849	-0.011
849	-0.011
850	-0.012
850	-0.013
851	-0.013
851	-0.014
851	-0.014
852	-0.015
852	-0.015
853	-0.016
853	-0.016
854	-0.016
854	-0.016
854	-0.016
855	-0.016
855	-0.016
856	-0.016
856	-0.016
857	-0.016
857	-0.016
857	-0.015
858	-0.015
858	-0.014
859	-0.014
859	-0.013
860	-0.012
860	-0.011
860	-0.01
861	-0.009
861	-0.009
862	-0.009
862	-0.009
863	-0.009
863	-0.01
863	-0.01
864	-0.01
864	-0.01
865	-0.01
865	-0.01
866	-0.01
866	-0.01
866	-0.009
867	-0.009
867	-0.009
868	-0.008
868	-0.008
869	-0.008
869	-0.009
869	-0.01
870	-0.01
870	-0.011
871	-0.012
871	-0.013
872	-0.014
872	-0.014
872	-0.014
873	-0.014
873	-0.014
874	-0.014
874	-0.013
875	-0.012
875	-0.012
875	-0.011
876	-0.01
876	-0.009
877	-0.009
877	-0.009
878	-0.01
878	-0.01
878	-0.011
879	-0.012
879	-0.013
880	-0.014
880	-0.015
881	-0.016
881	-0.016
881	-0.016
882	-0.016
882	-0.015
883	-0.014
883	-0.013
884	-0.012
884	-0.01
884	-0.009
885	-0.008
885	-0.007
886	-0.006
886	-0.005
887	-0.005
887	-0.005
887	-0.005
888	-0.005
888	-0.005
889	-0.005
889	-0.005
890	-0.005
890	-0.006
890	-0.006
891	-0.007
891	-0.007
892	-0.008
892	-0.008
893	-0.009
893	-0.009
893	-0.009
894	-0.01
894	-0.01
895	-0.01
895	-0.011
895	-0.011
896	-0.011
896	-0.011
897	-0.011
897	-0.011
898	-0.01
898	-0.01
898	-0.01
899	-0.009
899	-0.008
900	-0.008
900	-0.007
901	-0.006
901	-0.005
901	-0.004
902	-0.003
902	-0.002
903	-0.002
903	-0.001
904	-0.001
904	-0.001
904	-0.001
905	-0.002
905	-0.002
906	-0.003
906	-0.003
907	-0.004
907	-0.004
907	-0.004
908	-0.005
908	-0.005
909	-0.005
909	-0.005
910	-0.005
910	-0.005
910	-0.006
911	-0.006
911	-0.007
912	-0.007
912	-0.008
913	-0.008
913	-0.008
913	-0.009
914	-0.01
914	-0.01
915	-0.011
915	-0.012
916	-0.012
916	-0.012
916	-0.013
917	-0.013
917	-0.013
918	-0.013
918	-0.013
918	-0.013
919	-0.012
919	-0.011
920	-0.01
920	-0.009
921	-0.007
921	-0.006
921	-0.005
922	-0.004
922	-0.004
923	-0.003
923	-0.003
924	-0.003
924	-0.003
924	-0.004
925	-0.004
925	-0.005
926	-0.005
926	-0.006
927	-0.006
927	-0.007
927	-0.006
928	-0.006
928	-0.006
929	-0.006
929	-0.006
930	-0.006
930	-0.006
930	-0.006
931	-0.007
931	-0.007
932	-0.007
932	-0.008
933	-0.009
933	-0.01
933	-0.01
934	-0.011
934	-0.011
935	-0.012
935	-0.012
935	-0.012
936	-0.012
936	-0.012
937	-0.012
937	-0.012
938	-0.011
938	-0.011
938	-0.011
939	-0.012
939	-0.012
940	-0.013
940	-0.013
941	-0.014
941	-0.015
941	-0.016
942	-0.016
942	-0.017
943	-0.017
943	-0.018
944	-0.018
944	-0.018
944	-0.018
945	-0.017
945	-0.017
946	-0.017
946	-0.016
946	-0.016
947	-0.016
947	-0.016
948	-0.016
948	-0.016
949	-0.016
949	-0.016
949	-0.016
950	-0.016
950	-0.015
951	-0.015
951	-0.015
952	-0.014
952	-0.013
952	-0.012
953	-0.011
953	-0.01
954	-0.01
954	-0.009
955	-0.008
955	-0.007
955	-0.007
956	-0.006
956	-0.005
957	-0.005
957	-0.005
957	-0.006
958	-0.006
958	-0.006
959	-0.007
959	-0.007
960	-0.008
960	-0.009
960	-0.009
961	-0.011
961	-0.011
962	-0.012
962	-0.013
963	-0.014
963	-0.015
963	-0.016
964	-0.017
964	-0.018
965	-0.019
965	-0.019
966	-0.02
966	-0.02
966	-0.019
967	-0.019
967	-0.018
968	-0.018
968	-0.017
968	-0.016
969	-0.015
969	-0.015
970	-0.014
970	-0.014
971	-0.013
971	-0.013
971	-0.012
972	-0.011
972	-0.011
973	-0.01
973	-0.009
974	-0.009
974	-0.008
974	-0.008
975	-0.007
975	-0.006
976	-0.006
976	-0.006
976	-0.007
977	-0.007
977	-0.008
978	-0.008
978	-0.009
979	-0.01
979	-0.011
979	-0.012
980	-0.013
980	-0.014
981	-0.014
981	-0.015
982	-0.015
982	-0.015
982	-0.015
983	-0.015
983	-0.015
984	-0.015
984	-0.015
984	-0.015
985	-0.015
985	-0.015
986	-0.016
986	-0.016
987	-0.016
987	-0.016
987	-0.016
988	-0.016
988	-0.015
989	-0.015
989	-0.014
990	-0.014
990	-0.013
990	-0.013
991	-0.012
991	-0.012
992	-0.012
992	-0.012
992	-0.012
993	-0.013
993	-0.014
994	-0.015
994	-0.016
995	-0.017
995	-0.018
995	-0.019
996	-0.019
996	-0.02
997	-0.02
997	-0.021
997	-0.02
998	-0.02
998	-0.019
999	-0.019
999	-0.018
1000	-0.017
1000	-0.017
1000	-0.017
1001	-0.016
1001	-0.016
1002	-0.017
1002	-0.017
1003	-0.018
1003	-0.019
1003	-0.02
1004	-0.021
1004	-0.022
1005	-0.023
1005	-0.023
1005	-0.024
1006	-0.024
1006	-0.025
1007	-0.025
1007	-0.025
1008	-0.025
1008	-0.025
1008	-0.025
1009	-0.025
1009	-0.025
1010	-0.025
1010	-0.025
1010	-0.025
1011	-0.024
1011	-0.024
1012	-0.024
1012	-0.024
1013	-0.023
1013	-0.023
1013	-0.023
1014	-0.023
1014	-0.023
1015	-0.023
1015	-0.023
1016	-0.023
1016	-0.023
1016	-0.023
1017	-0.023
1017	-0.023
1018	-0.022
1018	-0.022
1018	-0.022
1019	-0.021
1019	-0.021
1020	-0.021
1020	-0.021
1021	-0.021
1021	-0.021
1021	-0.021
1022	-0.022
1022	-0.022
1023	-0.022
1023	-0.022
1023	-0.023
1024	-0.023
1024	-0.023
1025	-0.023
1025	-0.023
1026	-0.023
1026	-0.023
1026	-0.022
1027	-0.022
1027	-0.022
1028	-0.021
1028	-0.021
1028	-0.021
1029	-0.021
1029	-0.021
1030	-0.021
1030	-0.022
1031	-0.023
1031	-0.023
1031	-0.024
1032	-0.025
1032	-0.025
1033	-0.026
1033	-0.027
1033	-0.027
1034	-0.028
1034	-0.029
1035	-0.029
1035	-0.03
1036	-0.03
1036	-0.03
1036	-0.03
1037	-0.03
1037	-0.03
1038	-0.03
1038	-0.03
1039	-0.029
1039	-0.028
1039	-0.027
1040	-0.027
1040	-0.026
1041	-0.026
1041	-0.026
1041	-0.026
1042	-0.026
1042	-0.026
1043	-0.027
1043	-0.027
1044	-0.028
1044	-0.029
1044	-0.029
1045	-0.029
1045	-0.03
1046	-0.03
1046	-0.03
1046	-0.029
1047	-0.029
1047	-0.028
1048	-0.027
1048	-0.027
1049	-0.027
1049	-0.027
1049	-0.026
1050	-0.026
1050	-0.027
1051	-0.027
1051	-0.027
1051	-0.027
1052	-0.027
1052	-0.028
1053	-0.028
1053	-0.029
1053	-0.029
1054	-0.03
1054	-0.03
1055	-0.03
1055	-0.031
1056	-0.031
1056	-0.032
1056	-0.033
1057	-0.034
1057	-0.034
1058	-0.035
1058	-0.036
1058	-0.036
1059	-0.036
1059	-0.036
1060	-0.036
1060	-0.036
1061	-0.036
1061	-0.035
1061	-0.035
1062	-0.035
1062	-0.034
1063	-0.034
1063	-0.034
1063	-0.034
1064	-0.034
1064	-0.034
1065	-0.034
1065	-0.035
1066	-0.035
1066	-0.036
1066	-0.036
1067	-0.036
1067	-0.037
1068	-0.037
1068	-0.038
1068	-0.039
1069	-0.039
1069	-0.04
1070	-0.04
1070	-0.04
1071	-0.04
1071	-0.039
1071	-0.04
1072	-0.039
1072	-0.039
1073	-0.038
1073	-0.037
1073	-0.037
1074	-0.036
1074	-0.035
1075	-0.035
1075	-0.035
1076	-0.035
1076	-0.035
1076	-0.035
1077	-0.036
1077	-0.036
1078	-0.036
1078	-0.036
1078	-0.036
1079	-0.035
1079	-0.035
1080	-0.035
1080	-0.034
1080	-0.034
1081	-0.032
1081	-0.032
1082	-0.031
1082	-0.03
1083	-0.03
1083	-0.03
1083	-0.029
1084	-0.029
1084	-0.028
1085	-0.027
1085	-0.027
1085	-0.026
1086	-0.026
1086	-0.026
1087	-0.025
1087	-0.025
1088	-0.025
1088	-0.025
1088	-0.025
1089	-0.026
1089	-0.027
1090	-0.028
1090	-0.028
1090	-0.028
1091	-0.029
1091	-0.029
1092	-0.029
1092	-0.028
1092	-0.028
1093	-0.029
1093	-0.027
1094	-0.026
1094	-0.026
1095	-0.026
1095	-0.025
1095	-0.024
1096	-0.024
1096	-0.023
1097	-0.022
1097	-0.021
1097	-0.02
1098	-0.02
1098	-0.02
1099	-0.019
1099	-0.018
1100	-0.018
1100	-0.017
1100	-0.016
1101	-0.015
1101	-0.015
1102	-0.012
1102	-0.01
1102	-0.008
1103	-0.007
1103	-0.004
1104	-0.001
1104	0.002
1104	0.007
1105	0.011
1105	0.015
1106	0.018
1106	0.024
1107	0.028
1107	0.036
1107	0.045
1108	0.075
1108	0.115
1109	0.167
1109	0.246
1109	0.307
1110	0.422
1110	0.683
1111	-0
1111	-0
