Data from 15c-2a_Absorbance__248__00248.txt Node

Date: Fri Jan 19 09:49:50 CET 2024
User: Marek
Spectrometer: MAYP115816
Trigger mode: 0
Integration Time (sec): 2.000000E-1
Scans to average: 10
Electric dark correction enabled: true
Nonlinearity correction enabled: true
Boxcar width: 5
XAxis mode: Wavelengths
Number of Pixels in Spectrum: 2068
>>>>>Begin Spectral Data<<<<<
199	-1.485
199	-1.333
200	-1.194
200	-1.078
201	-1.014
201	-0.963
202	-0.895
202	-0.842
203	-0.796
203	-0.757
204	-0.732
204	-0.71
205	-0.692
205	-0.682
205	-0.68
206	-0.675
206	-0.671
207	-0.667
207	-0.662
208	-0.66
208	-0.657
209	-0.654
209	-0.65
210	-0.649
210	-0.647
211	-0.646
211	-0.643
212	-0.644
212	-0.644
213	-0.644
213	-0.641
213	-0.641
214	-0.637
214	-0.636
215	-0.633
215	-0.632
216	-0.629
216	-0.63
217	-0.625
217	-0.623
218	-0.621
218	-0.618
219	-0.615
219	-0.615
220	-0.613
220	-0.613
221	-0.611
221	-0.607
221	-0.601
222	-0.599
222	-0.595
223	-0.59
223	-0.586
224	-0.58
224	-0.573
225	-0.566
225	-0.554
226	-0.545
226	-0.536
227	-0.524
227	-0.512
228	-0.498
228	-0.485
229	-0.467
229	-0.448
229	-0.426
230	-0.402
230	-0.377
231	-0.348
231	-0.317
232	-0.286
232	-0.253
233	-0.218
233	-0.181
234	-0.146
234	-0.113
235	-0.08
235	-0.049
236	-0.02
236	0.007
236	0.032
237	0.057
237	0.078
238	0.098
238	0.115
239	0.131
239	0.146
240	0.159
240	0.171
241	0.181
241	0.191
242	0.2
242	0.207
243	0.214
243	0.22
243	0.226
244	0.232
244	0.237
245	0.241
245	0.246
246	0.25
246	0.254
247	0.257
247	0.261
248	0.264
248	0.267
249	0.27
249	0.273
250	0.276
250	0.278
250	0.28
251	0.282
251	0.284
252	0.287
252	0.288
253	0.29
253	0.292
254	0.293
254	0.295
255	0.296
255	0.297
256	0.298
256	0.299
257	0.3
257	0.301
258	0.301
258	0.302
258	0.302
259	0.303
259	0.303
260	0.303
260	0.302
261	0.302
261	0.302
262	0.302
262	0.301
263	0.301
263	0.3
264	0.3
264	0.299
265	0.298
265	0.298
265	0.297
266	0.296
266	0.295
267	0.294
267	0.293
268	0.291
268	0.29
269	0.288
269	0.286
270	0.285
270	0.283
271	0.281
271	0.28
272	0.278
272	0.276
272	0.274
273	0.272
273	0.27
274	0.268
274	0.266
275	0.264
275	0.263
276	0.26
276	0.258
277	0.256
277	0.254
278	0.252
278	0.25
278	0.248
279	0.246
279	0.243
280	0.242
280	0.239
281	0.237
281	0.235
282	0.234
282	0.232
283	0.23
283	0.228
284	0.226
284	0.224
285	0.223
285	0.221
285	0.219
286	0.217
286	0.216
287	0.214
287	0.212
288	0.211
288	0.21
289	0.208
289	0.207
290	0.205
290	0.204
291	0.203
291	0.201
292	0.2
292	0.199
292	0.198
293	0.197
293	0.196
294	0.195
294	0.194
295	0.193
295	0.192
296	0.191
296	0.191
297	0.19
297	0.189
298	0.189
298	0.188
298	0.188
299	0.187
299	0.186
300	0.186
300	0.185
301	0.185
301	0.184
302	0.184
302	0.183
303	0.182
303	0.182
304	0.181
304	0.181
305	0.18
305	0.18
305	0.179
306	0.179
306	0.178
307	0.178
307	0.177
308	0.177
308	0.176
309	0.176
309	0.176
310	0.175
310	0.175
311	0.174
311	0.174
311	0.173
312	0.173
312	0.173
313	0.172
313	0.171
314	0.171
314	0.17
315	0.17
315	0.169
316	0.169
316	0.168
317	0.168
317	0.167
318	0.167
318	0.166
318	0.166
319	0.165
319	0.165
320	0.164
320	0.164
321	0.163
321	0.163
322	0.162
322	0.161
323	0.161
323	0.161
324	0.16
324	0.16
324	0.159
325	0.159
325	0.158
326	0.158
326	0.158
327	0.157
327	0.157
328	0.156
328	0.155
329	0.155
329	0.155
330	0.154
330	0.154
330	0.153
331	0.152
331	0.152
332	0.152
332	0.151
333	0.151
333	0.151
334	0.15
334	0.15
335	0.149
335	0.149
336	0.148
336	0.148
336	0.147
337	0.147
337	0.146
338	0.146
338	0.145
339	0.145
339	0.144
340	0.144
340	0.144
341	0.144
341	0.143
342	0.143
342	0.143
342	0.143
343	0.142
343	0.142
344	0.142
344	0.142
345	0.141
345	0.141
346	0.141
346	0.14
347	0.139
347	0.139
348	0.139
348	0.139
348	0.139
349	0.138
349	0.138
350	0.137
350	0.137
351	0.137
351	0.137
352	0.137
352	0.136
353	0.136
353	0.136
354	0.135
354	0.135
354	0.135
355	0.134
355	0.134
356	0.134
356	0.134
357	0.134
357	0.133
358	0.133
358	0.133
359	0.133
359	0.133
360	0.133
360	0.133
360	0.133
361	0.133
361	0.133
362	0.133
362	0.133
363	0.133
363	0.132
364	0.132
364	0.132
365	0.132
365	0.132
366	0.132
366	0.131
366	0.131
367	0.131
367	0.131
368	0.131
368	0.131
369	0.13
369	0.13
370	0.13
370	0.13
371	0.13
371	0.129
372	0.129
372	0.129
372	0.129
373	0.129
373	0.129
374	0.128
374	0.128
375	0.128
375	0.128
376	0.128
376	0.128
377	0.128
377	0.128
378	0.128
378	0.128
378	0.128
379	0.128
379	0.128
380	0.128
380	0.128
381	0.127
381	0.127
382	0.127
382	0.127
383	0.126
383	0.126
383	0.126
384	0.126
384	0.125
385	0.125
385	0.125
386	0.125
386	0.125
387	0.125
387	0.125
388	0.124
388	0.124
389	0.124
389	0.124
389	0.124
390	0.124
390	0.124
391	0.124
391	0.124
392	0.124
392	0.123
393	0.123
393	0.123
394	0.123
394	0.123
394	0.123
395	0.123
395	0.122
396	0.122
396	0.122
397	0.122
397	0.122
398	0.122
398	0.122
399	0.122
399	0.121
400	0.121
400	0.121
400	0.121
401	0.121
401	0.121
402	0.12
402	0.12
403	0.12
403	0.12
404	0.12
404	0.12
405	0.119
405	0.119
405	0.119
406	0.119
406	0.119
407	0.118
407	0.118
408	0.118
408	0.118
409	0.117
409	0.117
410	0.117
410	0.117
411	0.117
411	0.116
411	0.116
412	0.116
412	0.116
413	0.116
413	0.116
414	0.116
414	0.116
415	0.116
415	0.116
416	0.115
416	0.115
416	0.115
417	0.115
417	0.115
418	0.115
418	0.115
419	0.115
419	0.115
420	0.115
420	0.115
421	0.115
421	0.115
421	0.115
422	0.115
422	0.115
423	0.115
423	0.115
424	0.115
424	0.115
425	0.115
425	0.114
426	0.114
426	0.114
427	0.114
427	0.114
427	0.114
428	0.114
428	0.114
429	0.114
429	0.114
430	0.114
430	0.114
431	0.114
431	0.114
432	0.114
432	0.113
432	0.113
433	0.113
433	0.112
434	0.112
434	0.112
435	0.112
435	0.112
436	0.112
436	0.112
437	0.112
437	0.112
437	0.112
438	0.112
438	0.112
439	0.112
439	0.112
440	0.111
440	0.111
441	0.111
441	0.111
442	0.111
442	0.112
442	0.112
443	0.112
443	0.112
444	0.112
444	0.112
445	0.112
445	0.112
446	0.112
446	0.112
447	0.112
447	0.112
447	0.111
448	0.111
448	0.111
449	0.111
449	0.111
450	0.111
450	0.111
451	0.111
451	0.111
452	0.111
452	0.111
452	0.11
453	0.11
453	0.11
454	0.11
454	0.11
455	0.11
455	0.11
456	0.11
456	0.11
457	0.11
457	0.11
458	0.11
458	0.11
458	0.11
459	0.11
459	0.11
460	0.11
460	0.109
461	0.11
461	0.109
462	0.11
462	0.11
463	0.11
463	0.111
463	0.111
464	0.111
464	0.111
465	0.112
465	0.112
466	0.112
466	0.112
467	0.112
467	0.112
467	0.112
468	0.112
468	0.112
469	0.112
469	0.112
470	0.112
470	0.112
471	0.112
471	0.113
472	0.113
472	0.113
472	0.113
473	0.114
473	0.114
474	0.115
474	0.115
475	0.115
475	0.116
476	0.116
476	0.116
477	0.117
477	0.117
477	0.117
478	0.117
478	0.117
479	0.118
479	0.118
480	0.119
480	0.119
481	0.12
481	0.12
482	0.121
482	0.122
482	0.123
483	0.124
483	0.125
484	0.126
484	0.127
485	0.127
485	0.128
486	0.129
486	0.13
487	0.13
487	0.13
487	0.131
488	0.131
488	0.131
489	0.132
489	0.133
490	0.133
490	0.133
491	0.134
491	0.134
492	0.135
492	0.136
492	0.137
493	0.138
493	0.138
494	0.14
494	0.141
495	0.143
495	0.144
496	0.145
496	0.147
496	0.148
497	0.149
497	0.15
498	0.151
498	0.152
499	0.153
499	0.154
500	0.154
500	0.155
501	0.157
501	0.158
501	0.159
502	0.16
502	0.161
503	0.163
503	0.164
504	0.165
504	0.166
505	0.167
505	0.168
506	0.169
506	0.17
506	0.171
507	0.172
507	0.173
508	0.173
508	0.174
509	0.175
509	0.176
510	0.177
510	0.178
511	0.178
511	0.179
511	0.18
512	0.18
512	0.181
513	0.182
513	0.182
514	0.183
514	0.183
515	0.184
515	0.184
515	0.184
516	0.185
516	0.185
517	0.185
517	0.186
518	0.186
518	0.186
519	0.186
519	0.186
520	0.186
520	0.186
520	0.186
521	0.185
521	0.184
522	0.184
522	0.183
523	0.182
523	0.182
524	0.181
524	0.181
524	0.181
525	0.181
525	0.182
526	0.182
526	0.183
527	0.184
527	0.184
528	0.185
528	0.185
529	0.186
529	0.186
529	0.186
530	0.186
530	0.186
531	0.185
531	0.185
532	0.184
532	0.183
533	0.183
533	0.182
533	0.181
534	0.18
534	0.179
535	0.178
535	0.177
536	0.177
536	0.176
537	0.175
537	0.174
538	0.172
538	0.171
538	0.169
539	0.168
539	0.166
540	0.165
540	0.163
541	0.162
541	0.16
542	0.159
542	0.158
542	0.156
543	0.155
543	0.154
544	0.152
544	0.151
545	0.15
545	0.149
546	0.148
546	0.146
547	0.145
547	0.144
547	0.142
548	0.141
548	0.139
549	0.138
549	0.136
550	0.135
550	0.133
551	0.132
551	0.13
551	0.129
552	0.128
552	0.126
553	0.125
553	0.124
554	0.123
554	0.121
555	0.119
555	0.118
556	0.116
556	0.114
556	0.112
557	0.111
557	0.109
558	0.107
558	0.106
559	0.104
559	0.103
560	0.102
560	0.101
560	0.101
561	0.1
561	0.099
562	0.098
562	0.097
563	0.096
563	0.095
564	0.093
564	0.091
564	0.09
565	0.088
565	0.087
566	0.086
566	0.085
567	0.084
567	0.084
568	0.083
568	0.083
568	0.082
569	0.082
569	0.081
570	0.081
570	0.08
571	0.079
571	0.079
572	0.078
572	0.077
573	0.076
573	0.075
573	0.074
574	0.074
574	0.073
575	0.073
575	0.073
576	0.072
576	0.072
577	0.071
577	0.071
577	0.07
578	0.07
578	0.069
579	0.069
579	0.068
580	0.067
580	0.066
581	0.064
581	0.064
581	0.063
582	0.063
582	0.063
583	0.063
583	0.062
584	0.061
584	0.06
585	0.06
585	0.059
585	0.059
586	0.058
586	0.058
587	0.056
587	0.055
588	0.054
588	0.053
589	0.052
589	0.051
590	0.051
590	0.05
590	0.05
591	0.05
591	0.049
592	0.048
592	0.048
593	0.047
593	0.047
594	0.047
594	0.046
594	0.046
595	0.046
595	0.045
596	0.045
596	0.046
597	0.046
597	0.047
598	0.047
598	0.048
598	0.048
599	0.048
599	0.047
600	0.047
600	0.047
601	0.047
601	0.046
602	0.046
602	0.045
602	0.045
603	0.045
603	0.045
604	0.045
604	0.046
605	0.047
605	0.047
606	0.048
606	0.048
606	0.048
607	0.047
607	0.047
608	0.047
608	0.046
609	0.045
609	0.044
610	0.043
610	0.042
610	0.042
611	0.042
611	0.042
612	0.042
612	0.043
613	0.044
613	0.044
614	0.045
614	0.045
614	0.046
615	0.046
615	0.046
616	0.047
616	0.047
617	0.047
617	0.047
618	0.047
618	0.047
618	0.047
619	0.048
619	0.048
620	0.049
620	0.049
621	0.05
621	0.05
622	0.05
622	0.05
622	0.05
623	0.05
623	0.051
624	0.051
624	0.051
625	0.051
625	0.051
626	0.052
626	0.052
626	0.053
627	0.054
627	0.055
628	0.057
628	0.058
629	0.059
629	0.06
630	0.061
630	0.062
630	0.063
631	0.064
631	0.064
632	0.065
632	0.065
633	0.066
633	0.067
634	0.068
634	0.069
634	0.07
635	0.071
635	0.072
636	0.073
636	0.074
637	0.074
637	0.075
638	0.076
638	0.077
638	0.077
639	0.078
639	0.078
640	0.079
640	0.081
641	0.082
641	0.083
642	0.085
642	0.086
642	0.088
643	0.089
643	0.091
644	0.093
644	0.095
645	0.096
645	0.098
646	0.1
646	0.102
646	0.104
647	0.107
647	0.109
648	0.111
648	0.113
649	0.116
649	0.118
650	0.121
650	0.123
650	0.126
651	0.127
651	0.13
652	0.132
652	0.134
653	0.136
653	0.141
653	0.145
654	0.116
654	0.094
655	0.098
655	0.1
656	0.101
656	0.102
657	0.104
657	0.105
657	0.106
658	0.105
658	0.101
659	0.127
659	0.165
660	0.167
660	0.169
661	0.171
661	0.172
661	0.175
662	0.177
662	0.179
663	0.181
663	0.183
664	0.185
664	0.187
665	0.188
665	0.19
665	0.192
666	0.194
666	0.195
667	0.197
667	0.198
668	0.2
668	0.202
669	0.203
669	0.205
669	0.207
670	0.209
670	0.211
671	0.212
671	0.214
672	0.216
672	0.218
672	0.22
673	0.222
673	0.224
674	0.225
674	0.227
675	0.228
675	0.23
676	0.232
676	0.233
676	0.234
677	0.236
677	0.237
678	0.238
678	0.238
679	0.239
679	0.24
680	0.241
680	0.242
680	0.243
681	0.244
681	0.245
682	0.246
682	0.247
683	0.248
683	0.249
684	0.25
684	0.251
684	0.251
685	0.251
685	0.252
686	0.252
686	0.252
687	0.251
687	0.251
687	0.25
688	0.25
688	0.249
689	0.249
689	0.248
690	0.247
690	0.247
691	0.246
691	0.245
691	0.245
692	0.244
692	0.243
693	0.242
693	0.241
694	0.24
694	0.239
695	0.238
695	0.238
695	0.237
696	0.236
696	0.235
697	0.234
697	0.233
698	0.232
698	0.231
698	0.23
699	0.229
699	0.227
700	0.226
700	0.224
701	0.222
701	0.221
702	0.22
702	0.219
702	0.218
703	0.216
703	0.215
704	0.214
704	0.213
705	0.212
705	0.21
705	0.209
706	0.207
706	0.205
707	0.203
707	0.201
708	0.199
708	0.197
709	0.195
709	0.193
709	0.191
710	0.189
710	0.187
711	0.185
711	0.183
712	0.181
712	0.179
713	0.177
713	0.175
713	0.173
714	0.171
714	0.169
715	0.167
715	0.165
716	0.163
716	0.161
716	0.16
717	0.159
717	0.158
718	0.157
718	0.155
719	0.154
719	0.153
720	0.151
720	0.15
720	0.148
721	0.147
721	0.145
722	0.143
722	0.141
723	0.14
723	0.137
723	0.135
724	0.133
724	0.13
725	0.128
725	0.125
726	0.123
726	0.121
727	0.119
727	0.117
727	0.116
728	0.115
728	0.114
729	0.113
729	0.113
730	0.112
730	0.111
730	0.11
731	0.109
731	0.109
732	0.108
732	0.107
733	0.106
733	0.105
734	0.104
734	0.102
734	0.101
735	0.1
735	0.098
736	0.096
736	0.094
737	0.093
737	0.091
737	0.089
738	0.087
738	0.084
739	0.083
739	0.081
740	0.08
740	0.078
741	0.077
741	0.076
741	0.074
742	0.072
742	0.07
743	0.068
743	0.066
744	0.065
744	0.063
744	0.061
745	0.059
745	0.057
746	0.056
746	0.055
747	0.054
747	0.054
748	0.053
748	0.052
748	0.051
749	0.05
749	0.049
750	0.048
750	0.046
751	0.045
751	0.044
751	0.042
752	0.041
752	0.039
753	0.038
753	0.037
754	0.037
754	0.036
754	0.036
755	0.036
755	0.037
756	0.037
756	0.036
757	0.036
757	0.036
758	0.035
758	0.034
758	0.033
759	0.032
759	0.031
760	0.029
760	0.028
761	0.027
761	0.026
761	0.026
762	0.025
762	0.024
763	0.024
763	0.023
764	0.021
764	0.02
764	0.019
765	0.017
765	0.015
766	0.014
766	0.013
767	0.011
767	0.009
768	0.007
768	0.004
768	0.003
769	0.001
769	-0
770	-0.002
770	-0.003
771	-0.005
771	-0.006
771	-0.008
772	-0.009
772	-0.009
773	-0.01
773	-0.011
774	-0.013
774	-0.014
775	-0.016
775	-0.018
775	-0.02
776	-0.022
776	-0.025
777	-0.027
777	-0.029
778	-0.031
778	-0.034
778	-0.036
779	-0.037
779	-0.039
780	-0.041
780	-0.043
781	-0.046
781	-0.049
781	-0.053
782	-0.057
782	-0.062
783	-0.066
783	-0.071
784	-0.076
784	-0.082
784	-0.088
785	-0.094
785	-0.1
786	-0.105
786	-0.11
787	-0.113
787	-0.117
788	-0.123
788	-0.13
788	-0.137
789	-0.143
789	-0.147
790	-0.149
790	-0.152
791	-0.156
791	-0.158
791	-0.161
792	-0.156
792	-0.146
793	-0.14
793	-0.136
794	-0.134
794	-0.136
794	-0.139
795	-0.141
795	-0.141
796	-0.141
796	-0.144
797	-0.152
797	-0.163
797	-0.169
798	-0.175
798	-0.178
799	-0.178
799	-0.178
800	-0.177
800	-0.179
801	-0.182
801	-0.182
801	-0.182
802	-0.183
802	-0.184
803	-0.184
803	-0.184
804	-0.183
804	-0.178
804	-0.172
805	-0.168
805	-0.166
806	-0.163
806	-0.162
807	-0.161
807	-0.16
807	-0.16
808	-0.16
808	-0.161
809	-0.165
809	-0.171
810	-0.174
810	-0.177
810	-0.181
811	-0.184
811	-0.185
812	-0.181
812	-0.179
813	-0.179
813	-0.18
813	-0.182
814	-0.183
814	-0.182
815	-0.178
815	-0.173
816	-0.168
816	-0.163
817	-0.16
817	-0.156
817	-0.148
818	-0.138
818	-0.127
819	-0.115
819	-0.106
820	-0.098
820	-0.091
820	-0.085
821	-0.078
821	-0.073
822	-0.067
822	-0.063
823	-0.059
823	-0.055
823	-0.052
824	-0.049
824	-0.045
825	-0.042
825	-0.039
826	-0.036
826	-0.034
826	-0.032
827	-0.03
827	-0.029
828	-0.027
828	-0.026
829	-0.024
829	-0.023
829	-0.023
830	-0.022
830	-0.021
831	-0.02
831	-0.02
832	-0.019
832	-0.019
832	-0.019
833	-0.019
833	-0.019
834	-0.018
834	-0.018
835	-0.018
835	-0.018
835	-0.017
836	-0.017
836	-0.016
837	-0.015
837	-0.015
838	-0.014
838	-0.013
839	-0.012
839	-0.012
839	-0.011
840	-0.011
840	-0.01
841	-0.01
841	-0.009
842	-0.009
842	-0.008
842	-0.008
843	-0.007
843	-0.006
844	-0.005
844	-0.005
845	-0.004
845	-0.003
845	-0.003
846	-0.003
846	-0.003
847	-0.003
847	-0.004
848	-0.004
848	-0.005
848	-0.006
849	-0.007
849	-0.008
850	-0.009
850	-0.01
851	-0.01
851	-0.011
851	-0.012
852	-0.012
852	-0.013
853	-0.013
853	-0.013
854	-0.013
854	-0.013
854	-0.013
855	-0.012
855	-0.012
856	-0.012
856	-0.012
857	-0.011
857	-0.011
857	-0.011
858	-0.011
858	-0.011
859	-0.01
859	-0.01
860	-0.009
860	-0.009
860	-0.008
861	-0.008
861	-0.008
862	-0.008
862	-0.008
863	-0.008
863	-0.009
863	-0.009
864	-0.01
864	-0.01
865	-0.01
865	-0.01
866	-0.01
866	-0.01
866	-0.009
867	-0.008
867	-0.008
868	-0.007
868	-0.007
869	-0.006
869	-0.006
869	-0.006
870	-0.006
870	-0.006
871	-0.007
871	-0.007
872	-0.007
872	-0.007
872	-0.007
873	-0.007
873	-0.007
874	-0.007
874	-0.007
875	-0.007
875	-0.008
875	-0.008
876	-0.008
876	-0.008
877	-0.009
877	-0.009
878	-0.01
878	-0.01
878	-0.011
879	-0.011
879	-0.011
880	-0.012
880	-0.012
881	-0.012
881	-0.012
881	-0.012
882	-0.011
882	-0.01
883	-0.01
883	-0.008
884	-0.007
884	-0.006
884	-0.006
885	-0.004
885	-0.003
886	-0.002
886	-0.002
887	-0.001
887	-0
887	0
888	0.001
888	0.001
889	0.001
889	0.001
890	0.001
890	0.001
890	0.001
891	0.001
891	0
892	0
892	-0
893	-0
893	-0.001
893	-0.001
894	-0.002
894	-0.002
895	-0.003
895	-0.003
895	-0.003
896	-0.004
896	-0.004
897	-0.004
897	-0.004
898	-0.004
898	-0.003
898	-0.003
899	-0.003
899	-0.003
900	-0.003
900	-0.003
901	-0.003
901	-0.003
901	-0.003
902	-0.003
902	-0.003
903	-0.003
903	-0.003
904	-0.003
904	-0.004
904	-0.003
905	-0.003
905	-0.003
906	-0.003
906	-0.003
907	-0.003
907	-0.003
907	-0.002
908	-0.002
908	-0.002
909	-0.003
909	-0.003
910	-0.004
910	-0.004
910	-0.005
911	-0.006
911	-0.006
912	-0.007
912	-0.007
913	-0.008
913	-0.008
913	-0.008
914	-0.008
914	-0.008
915	-0.008
915	-0.008
916	-0.008
916	-0.008
916	-0.008
917	-0.008
917	-0.007
918	-0.007
918	-0.007
918	-0.006
919	-0.006
919	-0.005
920	-0.004
920	-0.003
921	-0.003
921	-0.002
921	-0.001
922	-0.001
922	-0
923	0
923	0.001
924	0.001
924	0
924	-0
925	-0.001
925	-0.001
926	-0.002
926	-0.002
927	-0.003
927	-0.004
927	-0.004
928	-0.005
928	-0.005
929	-0.004
929	-0.004
930	-0.004
930	-0.003
930	-0.003
931	-0.002
931	-0.002
932	-0.002
932	-0.002
933	-0.001
933	-0.002
933	-0.002
934	-0.002
934	-0.003
935	-0.003
935	-0.003
935	-0.004
936	-0.004
936	-0.004
937	-0.004
937	-0.004
938	-0.004
938	-0.004
938	-0.004
939	-0.004
939	-0.004
940	-0.004
940	-0.005
941	-0.005
941	-0.005
941	-0.006
942	-0.006
942	-0.006
943	-0.005
943	-0.005
944	-0.005
944	-0.005
944	-0.004
945	-0.004
945	-0.004
946	-0.004
946	-0.004
946	-0.004
947	-0.004
947	-0.005
948	-0.006
948	-0.007
949	-0.007
949	-0.007
949	-0.007
950	-0.007
950	-0.007
951	-0.006
951	-0.006
952	-0.005
952	-0.004
952	-0.004
953	-0.004
953	-0.003
954	-0.003
954	-0.003
955	-0.003
955	-0.004
955	-0.004
956	-0.004
956	-0.005
957	-0.005
957	-0.006
957	-0.007
958	-0.007
958	-0.008
959	-0.008
959	-0.009
960	-0.009
960	-0.009
960	-0.009
961	-0.01
961	-0.01
962	-0.01
962	-0.01
963	-0.011
963	-0.011
963	-0.012
964	-0.013
964	-0.014
965	-0.015
965	-0.016
966	-0.017
966	-0.017
966	-0.017
967	-0.017
967	-0.017
968	-0.017
968	-0.016
968	-0.016
969	-0.014
969	-0.013
970	-0.012
970	-0.011
971	-0.01
971	-0.009
971	-0.008
972	-0.007
972	-0.006
973	-0.005
973	-0.004
974	-0.003
974	-0.003
974	-0.002
975	-0.001
975	-0.001
976	-0
976	-0
976	-0
977	-0
977	-0
978	-0
978	-0.001
979	-0.001
979	-0.002
979	-0.002
980	-0.003
980	-0.004
981	-0.004
981	-0.005
982	-0.006
982	-0.006
982	-0.007
983	-0.008
983	-0.008
984	-0.009
984	-0.01
984	-0.01
985	-0.011
985	-0.011
986	-0.012
986	-0.012
987	-0.012
987	-0.012
987	-0.011
988	-0.011
988	-0.01
989	-0.01
989	-0.01
990	-0.009
990	-0.009
990	-0.008
991	-0.008
991	-0.008
992	-0.008
992	-0.008
992	-0.009
993	-0.009
993	-0.009
994	-0.01
994	-0.01
995	-0.01
995	-0.011
995	-0.011
996	-0.011
996	-0.01
997	-0.01
997	-0.009
997	-0.009
998	-0.008
998	-0.007
999	-0.007
999	-0.006
1000	-0.006
1000	-0.006
1000	-0.006
1001	-0.006
1001	-0.007
1002	-0.007
1002	-0.008
1003	-0.009
1003	-0.01
1003	-0.011
1004	-0.012
1004	-0.012
1005	-0.013
1005	-0.013
1005	-0.013
1006	-0.013
1006	-0.013
1007	-0.013
1007	-0.013
1008	-0.013
1008	-0.012
1008	-0.013
1009	-0.013
1009	-0.013
1010	-0.013
1010	-0.013
1010	-0.013
1011	-0.013
1011	-0.013
1012	-0.013
1012	-0.013
1013	-0.013
1013	-0.013
1013	-0.012
1014	-0.012
1014	-0.011
1015	-0.011
1015	-0.01
1016	-0.01
1016	-0.009
1016	-0.009
1017	-0.008
1017	-0.007
1018	-0.007
1018	-0.006
1018	-0.006
1019	-0.006
1019	-0.005
1020	-0.005
1020	-0.004
1021	-0.004
1021	-0.004
1021	-0.003
1022	-0.003
1022	-0.003
1023	-0.003
1023	-0.003
1023	-0.003
1024	-0.003
1024	-0.003
1025	-0.003
1025	-0.003
1026	-0.003
1026	-0.003
1026	-0.003
1027	-0.003
1027	-0.004
1028	-0.004
1028	-0.004
1028	-0.005
1029	-0.006
1029	-0.007
1030	-0.008
1030	-0.009
1031	-0.01
1031	-0.011
1031	-0.012
1032	-0.013
1032	-0.013
1033	-0.014
1033	-0.014
1033	-0.015
1034	-0.015
1034	-0.015
1035	-0.015
1035	-0.015
1036	-0.015
1036	-0.015
1036	-0.015
1037	-0.015
1037	-0.015
1038	-0.015
1038	-0.014
1039	-0.014
1039	-0.013
1039	-0.013
1040	-0.013
1040	-0.012
1041	-0.012
1041	-0.012
1041	-0.012
1042	-0.012
1042	-0.012
1043	-0.012
1043	-0.012
1044	-0.012
1044	-0.012
1044	-0.012
1045	-0.012
1045	-0.012
1046	-0.012
1046	-0.011
1046	-0.011
1047	-0.01
1047	-0.01
1048	-0.009
1048	-0.008
1049	-0.008
1049	-0.008
1049	-0.007
1050	-0.007
1050	-0.007
1051	-0.007
1051	-0.007
1051	-0.007
1052	-0.007
1052	-0.008
1053	-0.008
1053	-0.008
1053	-0.009
1054	-0.009
1054	-0.009
1055	-0.009
1055	-0.01
1056	-0.01
1056	-0.01
1056	-0.011
1057	-0.011
1057	-0.012
1058	-0.012
1058	-0.012
1058	-0.012
1059	-0.012
1059	-0.012
1060	-0.012
1060	-0.012
1061	-0.012
1061	-0.011
1061	-0.011
1062	-0.011
1062	-0.011
1063	-0.01
1063	-0.011
1063	-0.011
1064	-0.011
1064	-0.011
1065	-0.011
1065	-0.011
1066	-0.012
1066	-0.012
1066	-0.013
1067	-0.013
1067	-0.013
1068	-0.013
1068	-0.014
1068	-0.014
1069	-0.014
1069	-0.014
1070	-0.014
1070	-0.013
1071	-0.013
1071	-0.012
1071	-0.012
1072	-0.011
1072	-0.011
1073	-0.01
1073	-0.009
1073	-0.008
1074	-0.008
1074	-0.007
1075	-0.007
1075	-0.006
1076	-0.005
1076	-0.004
1076	-0.004
1077	-0.004
1077	-0.003
1078	-0.003
1078	-0.002
1078	-0.001
1079	-0.001
1079	0
1080	0.001
1080	0.002
1080	0.002
1081	0.003
1081	0.004
1082	0.005
1082	0.005
1083	0.005
1083	0.005
1083	0.006
1084	0.007
1084	0.008
1085	0.008
1085	0.009
1085	0.01
1086	0.011
1086	0.011
1087	0.012
1087	0.013
1088	0.014
1088	0.015
1088	0.016
1089	0.016
1089	0.016
1090	0.016
1090	0.016
1090	0.017
1091	0.017
1091	0.018
1092	0.018
1092	0.018
1092	0.018
1093	0.019
1093	0.021
1094	0.022
1094	0.023
1095	0.024
1095	0.026
1095	0.028
1096	0.031
1096	0.033
1097	0.036
1097	0.038
1097	0.04
1098	0.043
1098	0.045
1099	0.048
1099	0.051
1100	0.054
1100	0.057
1100	0.06
1101	0.063
1101	0.066
1102	0.07
1102	0.075
1102	0.079
1103	0.085
1103	0.091
1104	0.098
1104	0.105
1104	0.113
1105	0.122
1105	0.131
1106	0.141
1106	0.153
1107	0.165
1107	0.18
1107	0.198
1108	0.25
1108	0.322
1109	0.434
1109	0.641
1109	0.855
1110	1.956
1110	-0
1111	-0
1111	-0
