Data from 15c-2a_Absorbance__1414__01414.txt Node

Date: Fri Jan 19 10:28:42 CET 2024
User: Marek
Spectrometer: MAYP115816
Trigger mode: 0
Integration Time (sec): 2.000000E-1
Scans to average: 10
Electric dark correction enabled: true
Nonlinearity correction enabled: true
Boxcar width: 5
XAxis mode: Wavelengths
Number of Pixels in Spectrum: 2068
>>>>>Begin Spectral Data<<<<<
199	-1.454
199	-1.311
200	-1.175
200	-1.063
201	-1
201	-0.951
202	-0.888
202	-0.84
203	-0.798
203	-0.763
204	-0.739
204	-0.717
205	-0.698
205	-0.689
205	-0.689
206	-0.684
206	-0.681
207	-0.677
207	-0.673
208	-0.672
208	-0.669
209	-0.667
209	-0.663
210	-0.663
210	-0.661
211	-0.659
211	-0.659
212	-0.661
212	-0.661
213	-0.661
213	-0.658
213	-0.658
214	-0.654
214	-0.654
215	-0.651
215	-0.65
216	-0.648
216	-0.648
217	-0.643
217	-0.641
218	-0.639
218	-0.637
219	-0.634
219	-0.635
220	-0.634
220	-0.634
221	-0.633
221	-0.628
221	-0.623
222	-0.621
222	-0.617
223	-0.612
223	-0.609
224	-0.602
224	-0.595
225	-0.588
225	-0.578
226	-0.568
226	-0.56
227	-0.548
227	-0.536
228	-0.522
228	-0.51
229	-0.491
229	-0.471
229	-0.447
230	-0.423
230	-0.394
231	-0.364
231	-0.33
232	-0.297
232	-0.262
233	-0.225
233	-0.186
234	-0.15
234	-0.114
235	-0.08
235	-0.047
236	-0.016
236	0.014
236	0.042
237	0.068
237	0.091
238	0.113
238	0.132
239	0.15
239	0.166
240	0.18
240	0.193
241	0.205
241	0.216
242	0.225
242	0.234
243	0.241
243	0.248
243	0.254
244	0.26
244	0.265
245	0.27
245	0.274
246	0.278
246	0.282
247	0.285
247	0.289
248	0.292
248	0.295
249	0.298
249	0.301
250	0.304
250	0.306
250	0.309
251	0.311
251	0.313
252	0.315
252	0.317
253	0.319
253	0.32
254	0.322
254	0.323
255	0.324
255	0.326
256	0.327
256	0.328
257	0.329
257	0.329
258	0.33
258	0.33
258	0.33
259	0.331
259	0.331
260	0.33
260	0.33
261	0.33
261	0.33
262	0.33
262	0.329
263	0.329
263	0.328
264	0.328
264	0.327
265	0.326
265	0.325
265	0.324
266	0.323
266	0.322
267	0.321
267	0.319
268	0.318
268	0.316
269	0.315
269	0.313
270	0.312
270	0.31
271	0.308
271	0.306
272	0.304
272	0.302
272	0.3
273	0.298
273	0.296
274	0.294
274	0.292
275	0.29
275	0.289
276	0.286
276	0.284
277	0.282
277	0.28
278	0.278
278	0.276
278	0.274
279	0.271
279	0.269
280	0.267
280	0.265
281	0.263
281	0.26
282	0.258
282	0.257
283	0.255
283	0.253
284	0.251
284	0.249
285	0.247
285	0.246
285	0.244
286	0.242
286	0.241
287	0.239
287	0.237
288	0.236
288	0.234
289	0.232
289	0.231
290	0.229
290	0.228
291	0.227
291	0.225
292	0.224
292	0.223
292	0.221
293	0.22
293	0.219
294	0.218
294	0.217
295	0.216
295	0.215
296	0.215
296	0.214
297	0.213
297	0.212
298	0.212
298	0.211
298	0.21
299	0.209
299	0.209
300	0.208
300	0.207
301	0.207
301	0.206
302	0.205
302	0.205
303	0.204
303	0.204
304	0.203
304	0.202
305	0.202
305	0.201
305	0.201
306	0.2
306	0.2
307	0.199
307	0.199
308	0.198
308	0.197
309	0.197
309	0.196
310	0.196
310	0.195
311	0.195
311	0.194
311	0.194
312	0.193
312	0.193
313	0.192
313	0.192
314	0.191
314	0.19
315	0.19
315	0.189
316	0.189
316	0.188
317	0.187
317	0.187
318	0.186
318	0.185
318	0.185
319	0.184
319	0.184
320	0.183
320	0.183
321	0.182
321	0.181
322	0.181
322	0.18
323	0.18
323	0.179
324	0.178
324	0.178
324	0.177
325	0.177
325	0.176
326	0.176
326	0.175
327	0.174
327	0.174
328	0.173
328	0.173
329	0.172
329	0.172
330	0.171
330	0.171
330	0.17
331	0.17
331	0.169
332	0.169
332	0.168
333	0.168
333	0.167
334	0.167
334	0.166
335	0.166
335	0.165
336	0.165
336	0.164
336	0.164
337	0.163
337	0.163
338	0.162
338	0.162
339	0.161
339	0.161
340	0.16
340	0.16
341	0.16
341	0.159
342	0.159
342	0.159
342	0.159
343	0.158
343	0.158
344	0.157
344	0.157
345	0.156
345	0.156
346	0.156
346	0.155
347	0.155
347	0.154
348	0.154
348	0.154
348	0.154
349	0.153
349	0.153
350	0.152
350	0.152
351	0.152
351	0.152
352	0.151
352	0.151
353	0.151
353	0.151
354	0.15
354	0.15
354	0.15
355	0.15
355	0.149
356	0.149
356	0.149
357	0.149
357	0.148
358	0.148
358	0.148
359	0.148
359	0.148
360	0.148
360	0.148
360	0.148
361	0.148
361	0.148
362	0.147
362	0.147
363	0.147
363	0.147
364	0.147
364	0.147
365	0.146
365	0.146
366	0.146
366	0.146
366	0.146
367	0.146
367	0.145
368	0.145
368	0.145
369	0.145
369	0.145
370	0.145
370	0.144
371	0.144
371	0.144
372	0.144
372	0.144
372	0.143
373	0.143
373	0.143
374	0.143
374	0.143
375	0.143
375	0.143
376	0.143
376	0.143
377	0.143
377	0.143
378	0.143
378	0.143
378	0.143
379	0.143
379	0.143
380	0.143
380	0.142
381	0.142
381	0.142
382	0.142
382	0.141
383	0.141
383	0.141
383	0.141
384	0.14
384	0.14
385	0.14
385	0.14
386	0.14
386	0.14
387	0.14
387	0.14
388	0.139
388	0.139
389	0.139
389	0.139
389	0.138
390	0.138
390	0.138
391	0.138
391	0.138
392	0.138
392	0.138
393	0.138
393	0.138
394	0.138
394	0.138
394	0.137
395	0.137
395	0.137
396	0.137
396	0.137
397	0.137
397	0.137
398	0.136
398	0.136
399	0.136
399	0.136
400	0.136
400	0.135
400	0.135
401	0.135
401	0.134
402	0.134
402	0.134
403	0.134
403	0.134
404	0.134
404	0.133
405	0.133
405	0.133
405	0.133
406	0.133
406	0.133
407	0.133
407	0.133
408	0.132
408	0.132
409	0.132
409	0.132
410	0.132
410	0.132
411	0.132
411	0.132
411	0.131
412	0.131
412	0.131
413	0.131
413	0.13
414	0.13
414	0.13
415	0.13
415	0.13
416	0.129
416	0.129
416	0.129
417	0.129
417	0.129
418	0.129
418	0.129
419	0.129
419	0.129
420	0.129
420	0.13
421	0.13
421	0.13
421	0.13
422	0.13
422	0.13
423	0.13
423	0.129
424	0.129
424	0.129
425	0.129
425	0.128
426	0.128
426	0.128
427	0.128
427	0.128
427	0.128
428	0.129
428	0.129
429	0.129
429	0.129
430	0.129
430	0.129
431	0.128
431	0.128
432	0.128
432	0.127
432	0.127
433	0.126
433	0.126
434	0.125
434	0.125
435	0.125
435	0.125
436	0.125
436	0.125
437	0.125
437	0.125
437	0.125
438	0.125
438	0.125
439	0.125
439	0.125
440	0.124
440	0.125
441	0.125
441	0.125
442	0.125
442	0.125
442	0.125
443	0.126
443	0.126
444	0.126
444	0.126
445	0.126
445	0.126
446	0.126
446	0.125
447	0.125
447	0.125
447	0.125
448	0.125
448	0.125
449	0.125
449	0.125
450	0.125
450	0.125
451	0.125
451	0.125
452	0.125
452	0.124
452	0.124
453	0.124
453	0.124
454	0.124
454	0.124
455	0.124
455	0.124
456	0.124
456	0.124
457	0.124
457	0.124
458	0.124
458	0.124
458	0.124
459	0.124
459	0.124
460	0.123
460	0.123
461	0.123
461	0.123
462	0.124
462	0.124
463	0.125
463	0.125
463	0.125
464	0.126
464	0.126
465	0.126
465	0.126
466	0.127
466	0.127
467	0.127
467	0.127
467	0.126
468	0.126
468	0.125
469	0.125
469	0.126
470	0.126
470	0.126
471	0.126
471	0.126
472	0.127
472	0.127
472	0.128
473	0.128
473	0.129
474	0.129
474	0.129
475	0.13
475	0.13
476	0.13
476	0.13
477	0.131
477	0.131
477	0.131
478	0.131
478	0.132
479	0.132
479	0.133
480	0.134
480	0.134
481	0.135
481	0.135
482	0.136
482	0.137
482	0.138
483	0.14
483	0.141
484	0.143
484	0.143
485	0.144
485	0.145
486	0.145
486	0.146
487	0.146
487	0.147
487	0.147
488	0.147
488	0.147
489	0.147
489	0.148
490	0.149
490	0.15
491	0.15
491	0.151
492	0.152
492	0.153
492	0.154
493	0.155
493	0.156
494	0.158
494	0.159
495	0.161
495	0.162
496	0.163
496	0.164
496	0.165
497	0.166
497	0.167
498	0.168
498	0.169
499	0.17
499	0.17
500	0.172
500	0.173
501	0.175
501	0.176
501	0.177
502	0.178
502	0.18
503	0.181
503	0.183
504	0.184
504	0.185
505	0.186
505	0.187
506	0.188
506	0.189
506	0.19
507	0.191
507	0.192
508	0.193
508	0.194
509	0.194
509	0.195
510	0.197
510	0.198
511	0.199
511	0.2
511	0.201
512	0.201
512	0.202
513	0.202
513	0.203
514	0.203
514	0.203
515	0.204
515	0.204
515	0.204
516	0.204
516	0.205
517	0.206
517	0.206
518	0.206
518	0.206
519	0.206
519	0.206
520	0.206
520	0.205
520	0.205
521	0.204
521	0.204
522	0.203
522	0.203
523	0.203
523	0.204
524	0.204
524	0.205
524	0.206
525	0.206
525	0.207
526	0.207
526	0.208
527	0.209
527	0.209
528	0.208
528	0.209
529	0.208
529	0.208
529	0.207
530	0.207
530	0.206
531	0.206
531	0.205
532	0.204
532	0.204
533	0.203
533	0.202
533	0.201
534	0.2
534	0.199
535	0.198
535	0.198
536	0.197
536	0.196
537	0.195
537	0.193
538	0.192
538	0.19
538	0.189
539	0.188
539	0.186
540	0.185
540	0.183
541	0.181
541	0.18
542	0.178
542	0.176
542	0.175
543	0.174
543	0.172
544	0.171
544	0.169
545	0.168
545	0.167
546	0.166
546	0.165
547	0.163
547	0.161
547	0.159
548	0.157
548	0.155
549	0.154
549	0.152
550	0.15
550	0.149
551	0.147
551	0.145
551	0.144
552	0.142
552	0.141
553	0.14
553	0.139
554	0.137
554	0.135
555	0.133
555	0.131
556	0.129
556	0.127
556	0.125
557	0.124
557	0.123
558	0.121
558	0.12
559	0.119
559	0.118
560	0.117
560	0.116
560	0.115
561	0.114
561	0.113
562	0.112
562	0.11
563	0.108
563	0.106
564	0.104
564	0.103
564	0.101
565	0.1
565	0.099
566	0.097
566	0.096
567	0.096
567	0.095
568	0.095
568	0.094
568	0.094
569	0.093
569	0.093
570	0.091
570	0.09
571	0.089
571	0.088
572	0.087
572	0.086
573	0.085
573	0.083
573	0.082
574	0.081
574	0.081
575	0.081
575	0.082
576	0.081
576	0.08
577	0.078
577	0.077
577	0.077
578	0.077
578	0.077
579	0.077
579	0.077
580	0.075
580	0.072
581	0.07
581	0.069
581	0.069
582	0.069
582	0.069
583	0.069
583	0.069
584	0.067
584	0.064
585	0.064
585	0.064
585	0.065
586	0.064
586	0.064
587	0.062
587	0.061
588	0.059
588	0.058
589	0.057
589	0.057
590	0.057
590	0.057
590	0.058
591	0.059
591	0.058
592	0.057
592	0.056
593	0.056
593	0.056
594	0.055
594	0.055
594	0.054
595	0.054
595	0.052
596	0.051
596	0.052
597	0.054
597	0.054
598	0.054
598	0.054
598	0.054
599	0.054
599	0.053
600	0.052
600	0.051
601	0.051
601	0.05
602	0.049
602	0.049
602	0.048
603	0.048
603	0.049
604	0.05
604	0.05
605	0.051
605	0.053
606	0.053
606	0.052
606	0.051
607	0.051
607	0.052
608	0.051
608	0.05
609	0.05
609	0.05
610	0.049
610	0.048
610	0.048
611	0.049
611	0.05
612	0.05
612	0.051
613	0.053
613	0.053
614	0.053
614	0.053
614	0.053
615	0.053
615	0.053
616	0.053
616	0.053
617	0.054
617	0.053
618	0.053
618	0.053
618	0.054
619	0.055
619	0.056
620	0.057
620	0.058
621	0.058
621	0.058
622	0.058
622	0.058
622	0.058
623	0.058
623	0.059
624	0.059
624	0.059
625	0.059
625	0.059
626	0.059
626	0.06
626	0.061
627	0.062
627	0.064
628	0.065
628	0.065
629	0.066
629	0.067
630	0.067
630	0.067
630	0.068
631	0.069
631	0.07
632	0.07
632	0.07
633	0.071
633	0.072
634	0.074
634	0.076
634	0.077
635	0.078
635	0.079
636	0.08
636	0.081
637	0.081
637	0.082
638	0.083
638	0.083
638	0.084
639	0.084
639	0.085
640	0.086
640	0.087
641	0.088
641	0.09
642	0.091
642	0.093
642	0.095
643	0.096
643	0.098
644	0.1
644	0.101
645	0.103
645	0.105
646	0.107
646	0.11
646	0.112
647	0.115
647	0.117
648	0.119
648	0.122
649	0.125
649	0.127
650	0.13
650	0.133
650	0.135
651	0.137
651	0.139
652	0.141
652	0.144
653	0.146
653	0.153
653	0.166
654	0.133
654	0.108
655	0.109
655	0.111
656	0.112
656	0.114
657	0.115
657	0.116
657	0.117
658	0.115
658	0.104
659	0.132
659	0.172
660	0.178
660	0.181
661	0.183
661	0.185
661	0.188
662	0.19
662	0.193
663	0.196
663	0.198
664	0.2
664	0.202
665	0.204
665	0.206
665	0.208
666	0.209
666	0.211
667	0.213
667	0.214
668	0.216
668	0.218
669	0.22
669	0.222
669	0.224
670	0.226
670	0.228
671	0.229
671	0.231
672	0.233
672	0.234
672	0.236
673	0.237
673	0.239
674	0.241
674	0.242
675	0.244
675	0.246
676	0.248
676	0.249
676	0.251
677	0.253
677	0.254
678	0.255
678	0.256
679	0.257
679	0.258
680	0.259
680	0.26
680	0.26
681	0.261
681	0.262
682	0.263
682	0.263
683	0.264
683	0.266
684	0.266
684	0.266
684	0.266
685	0.266
685	0.266
686	0.265
686	0.265
687	0.264
687	0.263
687	0.263
688	0.262
688	0.261
689	0.262
689	0.262
690	0.261
690	0.261
691	0.26
691	0.26
691	0.26
692	0.259
692	0.259
693	0.258
693	0.258
694	0.257
694	0.255
695	0.255
695	0.255
695	0.254
696	0.253
696	0.252
697	0.251
697	0.25
698	0.249
698	0.247
698	0.246
699	0.245
699	0.242
700	0.24
700	0.239
701	0.237
701	0.235
702	0.233
702	0.232
702	0.23
703	0.228
703	0.226
704	0.224
704	0.223
705	0.222
705	0.22
705	0.218
706	0.216
706	0.215
707	0.213
707	0.212
708	0.21
708	0.209
709	0.208
709	0.206
709	0.204
710	0.202
710	0.201
711	0.199
711	0.197
712	0.195
712	0.193
713	0.19
713	0.188
713	0.186
714	0.183
714	0.181
715	0.178
715	0.176
716	0.174
716	0.173
716	0.171
717	0.17
717	0.169
718	0.168
718	0.166
719	0.165
719	0.164
720	0.163
720	0.161
720	0.159
721	0.157
721	0.156
722	0.154
722	0.152
723	0.15
723	0.149
723	0.147
724	0.144
724	0.142
725	0.14
725	0.138
726	0.136
726	0.133
727	0.131
727	0.129
727	0.127
728	0.125
728	0.124
729	0.123
729	0.121
730	0.119
730	0.117
730	0.115
731	0.114
731	0.112
732	0.111
732	0.11
733	0.108
733	0.107
734	0.106
734	0.104
734	0.103
735	0.102
735	0.1
736	0.099
736	0.097
737	0.096
737	0.094
737	0.092
738	0.089
738	0.086
739	0.085
739	0.083
740	0.082
740	0.081
741	0.08
741	0.079
741	0.077
742	0.075
742	0.074
743	0.073
743	0.072
744	0.071
744	0.069
744	0.068
745	0.066
745	0.065
746	0.064
746	0.063
747	0.063
747	0.064
748	0.064
748	0.064
748	0.063
749	0.062
749	0.062
750	0.061
750	0.059
751	0.058
751	0.056
751	0.055
752	0.052
752	0.05
753	0.048
753	0.046
754	0.044
754	0.042
754	0.042
755	0.041
755	0.04
756	0.039
756	0.038
757	0.037
757	0.037
758	0.036
758	0.035
758	0.035
759	0.034
759	0.033
760	0.031
760	0.03
761	0.029
761	0.029
761	0.028
762	0.027
762	0.026
763	0.025
763	0.023
764	0.021
764	0.019
764	0.018
765	0.016
765	0.015
766	0.014
766	0.013
767	0.012
767	0.01
768	0.008
768	0.007
768	0.006
769	0.006
769	0.005
770	0.003
770	0.002
771	0
771	-0.002
771	-0.003
772	-0.004
772	-0.005
773	-0.007
773	-0.008
774	-0.01
774	-0.012
775	-0.013
775	-0.015
775	-0.017
776	-0.019
776	-0.021
777	-0.023
777	-0.024
778	-0.026
778	-0.028
778	-0.029
779	-0.03
779	-0.031
780	-0.033
780	-0.035
781	-0.038
781	-0.04
781	-0.044
782	-0.047
782	-0.051
783	-0.055
783	-0.059
784	-0.064
784	-0.069
784	-0.074
785	-0.079
785	-0.085
786	-0.09
786	-0.094
787	-0.098
787	-0.103
788	-0.108
788	-0.115
788	-0.122
789	-0.129
789	-0.135
790	-0.138
790	-0.143
791	-0.148
791	-0.152
791	-0.155
792	-0.151
792	-0.142
793	-0.138
793	-0.136
794	-0.134
794	-0.136
794	-0.139
795	-0.141
795	-0.141
796	-0.141
796	-0.144
797	-0.152
797	-0.163
797	-0.169
798	-0.175
798	-0.178
799	-0.178
799	-0.178
800	-0.178
800	-0.179
801	-0.182
801	-0.183
801	-0.182
802	-0.183
802	-0.184
803	-0.184
803	-0.184
804	-0.183
804	-0.178
804	-0.172
805	-0.168
805	-0.166
806	-0.164
806	-0.162
807	-0.161
807	-0.161
807	-0.16
808	-0.16
808	-0.161
809	-0.165
809	-0.171
810	-0.175
810	-0.177
810	-0.181
811	-0.184
811	-0.185
812	-0.181
812	-0.179
813	-0.179
813	-0.18
813	-0.182
814	-0.183
814	-0.182
815	-0.179
815	-0.174
816	-0.169
816	-0.164
817	-0.162
817	-0.158
817	-0.15
818	-0.14
818	-0.128
819	-0.116
819	-0.106
820	-0.098
820	-0.091
820	-0.085
821	-0.078
821	-0.073
822	-0.068
822	-0.063
823	-0.059
823	-0.056
823	-0.053
824	-0.05
824	-0.046
825	-0.042
825	-0.038
826	-0.035
826	-0.032
826	-0.03
827	-0.027
827	-0.025
828	-0.023
828	-0.021
829	-0.019
829	-0.018
829	-0.017
830	-0.016
830	-0.016
831	-0.015
831	-0.015
832	-0.015
832	-0.015
832	-0.016
833	-0.016
833	-0.017
834	-0.017
834	-0.018
835	-0.018
835	-0.018
835	-0.019
836	-0.018
836	-0.018
837	-0.018
837	-0.017
838	-0.017
838	-0.016
839	-0.015
839	-0.014
839	-0.013
840	-0.013
840	-0.012
841	-0.011
841	-0.01
842	-0.01
842	-0.009
842	-0.008
843	-0.008
843	-0.007
844	-0.006
844	-0.005
845	-0.005
845	-0.005
845	-0.004
846	-0.004
846	-0.004
847	-0.005
847	-0.005
848	-0.006
848	-0.006
848	-0.007
849	-0.008
849	-0.008
850	-0.009
850	-0.01
851	-0.01
851	-0.011
851	-0.012
852	-0.012
852	-0.012
853	-0.013
853	-0.013
854	-0.013
854	-0.014
854	-0.014
855	-0.014
855	-0.014
856	-0.014
856	-0.013
857	-0.013
857	-0.013
857	-0.012
858	-0.012
858	-0.011
859	-0.011
859	-0.01
860	-0.01
860	-0.009
860	-0.008
861	-0.008
861	-0.007
862	-0.007
862	-0.008
863	-0.008
863	-0.008
863	-0.009
864	-0.009
864	-0.01
865	-0.01
865	-0.01
866	-0.01
866	-0.01
866	-0.01
867	-0.01
867	-0.009
868	-0.009
868	-0.009
869	-0.008
869	-0.008
869	-0.008
870	-0.009
870	-0.009
871	-0.01
871	-0.01
872	-0.011
872	-0.012
872	-0.012
873	-0.012
873	-0.012
874	-0.012
874	-0.012
875	-0.011
875	-0.011
875	-0.01
876	-0.01
876	-0.009
877	-0.009
877	-0.009
878	-0.009
878	-0.009
878	-0.009
879	-0.01
879	-0.011
880	-0.012
880	-0.013
881	-0.014
881	-0.014
881	-0.014
882	-0.014
882	-0.013
883	-0.012
883	-0.011
884	-0.01
884	-0.009
884	-0.007
885	-0.006
885	-0.005
886	-0.004
886	-0.003
887	-0.003
887	-0.002
887	-0.002
888	-0.002
888	-0.002
889	-0.002
889	-0.001
890	-0.001
890	-0.001
890	-0.002
891	-0.002
891	-0.003
892	-0.003
892	-0.004
893	-0.005
893	-0.005
893	-0.006
894	-0.007
894	-0.007
895	-0.008
895	-0.009
895	-0.009
896	-0.009
896	-0.009
897	-0.009
897	-0.009
898	-0.009
898	-0.009
898	-0.009
899	-0.008
899	-0.008
900	-0.007
900	-0.006
901	-0.006
901	-0.005
901	-0.004
902	-0.004
902	-0.003
903	-0.003
903	-0.002
904	-0.002
904	-0.002
904	-0.002
905	-0.002
905	-0.003
906	-0.003
906	-0.004
907	-0.004
907	-0.004
907	-0.005
908	-0.005
908	-0.005
909	-0.005
909	-0.005
910	-0.005
910	-0.006
910	-0.006
911	-0.006
911	-0.007
912	-0.007
912	-0.007
913	-0.007
913	-0.008
913	-0.008
914	-0.009
914	-0.01
915	-0.01
915	-0.011
916	-0.011
916	-0.011
916	-0.011
917	-0.012
917	-0.011
918	-0.011
918	-0.01
918	-0.01
919	-0.009
919	-0.008
920	-0.006
920	-0.005
921	-0.004
921	-0.003
921	-0.002
922	-0.001
922	-0.001
923	-0.001
923	-0.001
924	-0.001
924	-0.002
924	-0.002
925	-0.003
925	-0.004
926	-0.004
926	-0.005
927	-0.006
927	-0.006
927	-0.006
928	-0.006
928	-0.007
929	-0.007
929	-0.007
930	-0.007
930	-0.007
930	-0.008
931	-0.008
931	-0.008
932	-0.009
932	-0.009
933	-0.01
933	-0.01
933	-0.011
934	-0.011
934	-0.011
935	-0.011
935	-0.011
935	-0.011
936	-0.011
936	-0.011
937	-0.01
937	-0.01
938	-0.01
938	-0.01
938	-0.01
939	-0.011
939	-0.011
940	-0.012
940	-0.012
941	-0.013
941	-0.014
941	-0.014
942	-0.015
942	-0.015
943	-0.015
943	-0.016
944	-0.016
944	-0.016
944	-0.016
945	-0.016
945	-0.015
946	-0.015
946	-0.015
946	-0.015
947	-0.015
947	-0.015
948	-0.015
948	-0.015
949	-0.015
949	-0.014
949	-0.014
950	-0.014
950	-0.013
951	-0.013
951	-0.012
952	-0.012
952	-0.011
952	-0.01
953	-0.01
953	-0.009
954	-0.009
954	-0.008
955	-0.008
955	-0.008
955	-0.007
956	-0.007
956	-0.007
957	-0.006
957	-0.006
957	-0.006
958	-0.007
958	-0.007
959	-0.007
959	-0.007
960	-0.007
960	-0.008
960	-0.009
961	-0.01
961	-0.011
962	-0.012
962	-0.013
963	-0.014
963	-0.015
963	-0.016
964	-0.017
964	-0.018
965	-0.019
965	-0.02
966	-0.02
966	-0.02
966	-0.02
967	-0.019
967	-0.018
968	-0.018
968	-0.017
968	-0.016
969	-0.015
969	-0.014
970	-0.013
970	-0.012
971	-0.012
971	-0.012
971	-0.011
972	-0.011
972	-0.01
973	-0.01
973	-0.009
974	-0.009
974	-0.008
974	-0.007
975	-0.007
975	-0.006
976	-0.005
976	-0.005
976	-0.005
977	-0.005
977	-0.005
978	-0.006
978	-0.006
979	-0.007
979	-0.008
979	-0.009
980	-0.01
980	-0.011
981	-0.012
981	-0.013
982	-0.013
982	-0.014
982	-0.014
983	-0.014
983	-0.015
984	-0.015
984	-0.015
984	-0.015
985	-0.015
985	-0.016
986	-0.016
986	-0.017
987	-0.017
987	-0.017
987	-0.017
988	-0.017
988	-0.017
989	-0.016
989	-0.016
990	-0.016
990	-0.015
990	-0.014
991	-0.014
991	-0.013
992	-0.013
992	-0.013
992	-0.014
993	-0.014
993	-0.015
994	-0.016
994	-0.016
995	-0.017
995	-0.018
995	-0.019
996	-0.02
996	-0.02
997	-0.02
997	-0.02
997	-0.02
998	-0.019
998	-0.019
999	-0.018
999	-0.017
1000	-0.016
1000	-0.016
1000	-0.015
1001	-0.015
1001	-0.015
1002	-0.015
1002	-0.015
1003	-0.016
1003	-0.017
1003	-0.018
1004	-0.019
1004	-0.02
1005	-0.021
1005	-0.022
1005	-0.023
1006	-0.024
1006	-0.025
1007	-0.025
1007	-0.025
1008	-0.026
1008	-0.026
1008	-0.026
1009	-0.026
1009	-0.026
1010	-0.025
1010	-0.025
1010	-0.025
1011	-0.025
1011	-0.024
1012	-0.024
1012	-0.024
1013	-0.024
1013	-0.024
1013	-0.024
1014	-0.024
1014	-0.024
1015	-0.024
1015	-0.024
1016	-0.024
1016	-0.024
1016	-0.024
1017	-0.024
1017	-0.024
1018	-0.023
1018	-0.023
1018	-0.022
1019	-0.022
1019	-0.021
1020	-0.021
1020	-0.021
1021	-0.021
1021	-0.021
1021	-0.021
1022	-0.021
1022	-0.021
1023	-0.021
1023	-0.021
1023	-0.021
1024	-0.021
1024	-0.021
1025	-0.021
1025	-0.021
1026	-0.021
1026	-0.021
1026	-0.02
1027	-0.02
1027	-0.02
1028	-0.02
1028	-0.02
1028	-0.02
1029	-0.02
1029	-0.021
1030	-0.021
1030	-0.022
1031	-0.023
1031	-0.023
1031	-0.024
1032	-0.025
1032	-0.025
1033	-0.026
1033	-0.026
1033	-0.027
1034	-0.028
1034	-0.029
1035	-0.029
1035	-0.029
1036	-0.03
1036	-0.03
1036	-0.03
1037	-0.03
1037	-0.03
1038	-0.03
1038	-0.029
1039	-0.029
1039	-0.028
1039	-0.027
1040	-0.026
1040	-0.026
1041	-0.026
1041	-0.025
1041	-0.025
1042	-0.026
1042	-0.026
1043	-0.026
1043	-0.026
1044	-0.027
1044	-0.027
1044	-0.028
1045	-0.028
1045	-0.029
1046	-0.029
1046	-0.029
1046	-0.029
1047	-0.029
1047	-0.028
1048	-0.028
1048	-0.028
1049	-0.027
1049	-0.027
1049	-0.027
1050	-0.027
1050	-0.027
1051	-0.027
1051	-0.028
1051	-0.027
1052	-0.028
1052	-0.028
1053	-0.028
1053	-0.029
1053	-0.029
1054	-0.029
1054	-0.03
1055	-0.03
1055	-0.03
1056	-0.031
1056	-0.032
1056	-0.033
1057	-0.034
1057	-0.034
1058	-0.035
1058	-0.036
1058	-0.036
1059	-0.037
1059	-0.038
1060	-0.038
1060	-0.038
1061	-0.039
1061	-0.038
1061	-0.038
1062	-0.039
1062	-0.039
1063	-0.039
1063	-0.04
1063	-0.04
1064	-0.04
1064	-0.04
1065	-0.04
1065	-0.041
1066	-0.041
1066	-0.042
1066	-0.042
1067	-0.042
1067	-0.042
1068	-0.042
1068	-0.043
1068	-0.043
1069	-0.043
1069	-0.044
1070	-0.043
1070	-0.043
1071	-0.043
1071	-0.043
1071	-0.043
1072	-0.042
1072	-0.042
1073	-0.041
1073	-0.04
1073	-0.04
1074	-0.039
1074	-0.039
1075	-0.038
1075	-0.038
1076	-0.038
1076	-0.038
1076	-0.038
1077	-0.038
1077	-0.038
1078	-0.039
1078	-0.038
1078	-0.038
1079	-0.038
1079	-0.038
1080	-0.037
1080	-0.037
1080	-0.036
1081	-0.036
1081	-0.035
1082	-0.034
1082	-0.034
1083	-0.034
1083	-0.034
1083	-0.033
1084	-0.033
1084	-0.032
1085	-0.031
1085	-0.03
1085	-0.03
1086	-0.029
1086	-0.029
1087	-0.029
1087	-0.028
1088	-0.029
1088	-0.029
1088	-0.029
1089	-0.031
1089	-0.032
1090	-0.033
1090	-0.034
1090	-0.034
1091	-0.035
1091	-0.035
1092	-0.035
1092	-0.034
1092	-0.035
1093	-0.035
1093	-0.034
1094	-0.034
1094	-0.033
1095	-0.033
1095	-0.033
1095	-0.032
1096	-0.032
1096	-0.032
1097	-0.032
1097	-0.031
1097	-0.03
1098	-0.03
1098	-0.029
1099	-0.029
1099	-0.029
1100	-0.028
1100	-0.027
1100	-0.027
1101	-0.027
1101	-0.027
1102	-0.025
1102	-0.023
1102	-0.021
1103	-0.02
1103	-0.017
1104	-0.013
1104	-0.01
1104	-0.005
1105	0
1105	0.004
1106	0.008
1106	0.013
1107	0.017
1107	0.025
1107	0.033
1108	0.062
1108	0.099
1109	0.149
1109	0.225
1109	0.279
1110	0.384
1110	0.618
1111	-0
1111	-0
