Data from 15c-2a_Absorbance__27__00027.txt Node

Date: Fri Jan 19 09:42:28 CET 2024
User: Marek
Spectrometer: MAYP115816
Trigger mode: 0
Integration Time (sec): 2.000000E-1
Scans to average: 10
Electric dark correction enabled: true
Nonlinearity correction enabled: true
Boxcar width: 5
XAxis mode: Wavelengths
Number of Pixels in Spectrum: 2068
>>>>>Begin Spectral Data<<<<<
199	-1.666
199	-1.511
200	-1.366
200	-1.248
201	-1.18
201	-1.127
202	-1.056
202	-0.998
203	-0.947
203	-0.903
204	-0.876
204	-0.853
205	-0.834
205	-0.824
205	-0.822
206	-0.816
206	-0.811
207	-0.807
207	-0.803
208	-0.801
208	-0.798
209	-0.797
209	-0.792
210	-0.789
210	-0.788
211	-0.786
211	-0.784
212	-0.785
212	-0.784
213	-0.783
213	-0.781
213	-0.78
214	-0.775
214	-0.774
215	-0.772
215	-0.77
216	-0.767
216	-0.767
217	-0.762
217	-0.76
218	-0.758
218	-0.755
219	-0.752
219	-0.752
220	-0.75
220	-0.75
221	-0.748
221	-0.742
221	-0.737
222	-0.735
222	-0.731
223	-0.726
223	-0.722
224	-0.714
224	-0.708
225	-0.701
225	-0.691
226	-0.68
226	-0.671
227	-0.66
227	-0.647
228	-0.632
228	-0.619
229	-0.6
229	-0.581
229	-0.557
230	-0.532
230	-0.505
231	-0.476
231	-0.444
232	-0.41
232	-0.375
233	-0.338
233	-0.3
234	-0.263
234	-0.226
235	-0.192
235	-0.157
236	-0.126
236	-0.095
236	-0.067
237	-0.041
237	-0.016
238	0.006
238	0.026
239	0.044
239	0.06
240	0.076
240	0.089
241	0.102
241	0.113
242	0.123
242	0.133
243	0.141
243	0.148
243	0.155
244	0.162
244	0.167
245	0.173
245	0.178
246	0.183
246	0.187
247	0.191
247	0.194
248	0.198
248	0.202
249	0.205
249	0.208
250	0.211
250	0.213
250	0.216
251	0.219
251	0.221
252	0.223
252	0.226
253	0.228
253	0.23
254	0.231
254	0.233
255	0.235
255	0.236
256	0.238
256	0.239
257	0.24
257	0.241
258	0.242
258	0.242
258	0.243
259	0.243
259	0.244
260	0.244
260	0.244
261	0.244
261	0.244
262	0.244
262	0.244
263	0.243
263	0.243
264	0.243
264	0.242
265	0.242
265	0.242
265	0.241
266	0.24
266	0.239
267	0.238
267	0.238
268	0.237
268	0.235
269	0.234
269	0.233
270	0.231
270	0.23
271	0.228
271	0.227
272	0.226
272	0.224
272	0.222
273	0.221
273	0.219
274	0.218
274	0.216
275	0.214
275	0.213
276	0.211
276	0.209
277	0.207
277	0.206
278	0.204
278	0.202
278	0.2
279	0.199
279	0.197
280	0.195
280	0.194
281	0.192
281	0.19
282	0.189
282	0.188
283	0.186
283	0.185
284	0.183
284	0.182
285	0.18
285	0.179
285	0.178
286	0.176
286	0.175
287	0.174
287	0.172
288	0.171
288	0.17
289	0.169
289	0.168
290	0.167
290	0.166
291	0.165
291	0.164
292	0.163
292	0.162
292	0.161
293	0.16
293	0.159
294	0.158
294	0.158
295	0.157
295	0.157
296	0.156
296	0.156
297	0.155
297	0.155
298	0.154
298	0.154
298	0.154
299	0.153
299	0.153
300	0.153
300	0.152
301	0.152
301	0.151
302	0.151
302	0.151
303	0.151
303	0.15
304	0.15
304	0.15
305	0.15
305	0.149
305	0.149
306	0.149
306	0.148
307	0.148
307	0.148
308	0.148
308	0.148
309	0.147
309	0.147
310	0.147
310	0.146
311	0.146
311	0.146
311	0.145
312	0.145
312	0.145
313	0.144
313	0.144
314	0.144
314	0.143
315	0.143
315	0.143
316	0.143
316	0.142
317	0.142
317	0.142
318	0.141
318	0.141
318	0.141
319	0.14
319	0.14
320	0.14
320	0.139
321	0.139
321	0.139
322	0.138
322	0.138
323	0.137
323	0.137
324	0.137
324	0.136
324	0.136
325	0.136
325	0.135
326	0.135
326	0.135
327	0.134
327	0.134
328	0.134
328	0.133
329	0.133
329	0.133
330	0.132
330	0.132
330	0.131
331	0.131
331	0.131
332	0.131
332	0.13
333	0.13
333	0.129
334	0.129
334	0.129
335	0.128
335	0.128
336	0.128
336	0.127
336	0.127
337	0.126
337	0.126
338	0.126
338	0.125
339	0.125
339	0.125
340	0.124
340	0.124
341	0.124
341	0.124
342	0.124
342	0.123
342	0.123
343	0.123
343	0.123
344	0.122
344	0.122
345	0.122
345	0.121
346	0.121
346	0.121
347	0.12
347	0.12
348	0.12
348	0.12
348	0.119
349	0.119
349	0.119
350	0.119
350	0.118
351	0.118
351	0.118
352	0.118
352	0.117
353	0.117
353	0.117
354	0.116
354	0.116
354	0.116
355	0.115
355	0.115
356	0.115
356	0.115
357	0.115
357	0.115
358	0.115
358	0.115
359	0.115
359	0.115
360	0.115
360	0.115
360	0.115
361	0.115
361	0.115
362	0.115
362	0.115
363	0.115
363	0.115
364	0.114
364	0.114
365	0.114
365	0.114
366	0.114
366	0.114
366	0.114
367	0.114
367	0.113
368	0.113
368	0.113
369	0.113
369	0.113
370	0.112
370	0.112
371	0.112
371	0.112
372	0.111
372	0.111
372	0.111
373	0.111
373	0.111
374	0.111
374	0.111
375	0.111
375	0.11
376	0.111
376	0.111
377	0.111
377	0.111
378	0.111
378	0.111
378	0.111
379	0.111
379	0.111
380	0.111
380	0.111
381	0.11
381	0.11
382	0.11
382	0.11
383	0.11
383	0.11
383	0.109
384	0.109
384	0.109
385	0.109
385	0.109
386	0.109
386	0.108
387	0.108
387	0.108
388	0.108
388	0.108
389	0.108
389	0.108
389	0.108
390	0.108
390	0.108
391	0.108
391	0.108
392	0.108
392	0.108
393	0.107
393	0.107
394	0.107
394	0.107
394	0.107
395	0.107
395	0.106
396	0.106
396	0.106
397	0.106
397	0.106
398	0.106
398	0.106
399	0.106
399	0.106
400	0.106
400	0.106
400	0.106
401	0.106
401	0.106
402	0.105
402	0.105
403	0.105
403	0.105
404	0.105
404	0.105
405	0.104
405	0.104
405	0.104
406	0.103
406	0.103
407	0.103
407	0.103
408	0.102
408	0.102
409	0.102
409	0.101
410	0.101
410	0.101
411	0.101
411	0.101
411	0.101
412	0.101
412	0.101
413	0.101
413	0.101
414	0.101
414	0.101
415	0.101
415	0.101
416	0.101
416	0.1
416	0.1
417	0.1
417	0.1
418	0.1
418	0.1
419	0.1
419	0.1
420	0.1
420	0.1
421	0.1
421	0.1
421	0.1
422	0.1
422	0.1
423	0.1
423	0.1
424	0.1
424	0.1
425	0.1
425	0.099
426	0.099
426	0.099
427	0.099
427	0.099
427	0.099
428	0.099
428	0.1
429	0.1
429	0.1
430	0.1
430	0.1
431	0.099
431	0.099
432	0.099
432	0.098
432	0.098
433	0.098
433	0.097
434	0.097
434	0.097
435	0.097
435	0.097
436	0.097
436	0.097
437	0.097
437	0.098
437	0.097
438	0.097
438	0.097
439	0.097
439	0.097
440	0.096
440	0.096
441	0.096
441	0.096
442	0.096
442	0.096
442	0.096
443	0.096
443	0.096
444	0.096
444	0.096
445	0.096
445	0.095
446	0.095
446	0.095
447	0.095
447	0.095
447	0.095
448	0.095
448	0.095
449	0.095
449	0.095
450	0.095
450	0.095
451	0.094
451	0.094
452	0.094
452	0.094
452	0.093
453	0.093
453	0.093
454	0.093
454	0.093
455	0.093
455	0.093
456	0.093
456	0.093
457	0.093
457	0.092
458	0.092
458	0.092
458	0.092
459	0.092
459	0.092
460	0.092
460	0.091
461	0.091
461	0.091
462	0.091
462	0.091
463	0.091
463	0.091
463	0.091
464	0.092
464	0.092
465	0.092
465	0.092
466	0.092
466	0.092
467	0.092
467	0.092
467	0.092
468	0.091
468	0.091
469	0.09
469	0.09
470	0.089
470	0.089
471	0.089
471	0.089
472	0.089
472	0.089
472	0.089
473	0.09
473	0.09
474	0.091
474	0.091
475	0.092
475	0.092
476	0.092
476	0.093
477	0.093
477	0.093
477	0.093
478	0.093
478	0.093
479	0.093
479	0.093
480	0.093
480	0.093
481	0.093
481	0.093
482	0.094
482	0.095
482	0.095
483	0.096
483	0.097
484	0.098
484	0.099
485	0.1
485	0.101
486	0.101
486	0.102
487	0.102
487	0.102
487	0.103
488	0.103
488	0.102
489	0.102
489	0.102
490	0.102
490	0.102
491	0.101
491	0.102
492	0.102
492	0.102
492	0.102
493	0.102
493	0.103
494	0.103
494	0.104
495	0.105
495	0.106
496	0.107
496	0.108
496	0.108
497	0.109
497	0.11
498	0.111
498	0.112
499	0.112
499	0.113
500	0.113
500	0.114
501	0.115
501	0.116
501	0.117
502	0.118
502	0.118
503	0.119
503	0.12
504	0.12
504	0.121
505	0.121
505	0.121
506	0.121
506	0.121
506	0.122
507	0.122
507	0.123
508	0.123
508	0.123
509	0.124
509	0.124
510	0.125
510	0.126
511	0.126
511	0.127
511	0.127
512	0.127
512	0.128
513	0.128
513	0.128
514	0.128
514	0.128
515	0.128
515	0.128
515	0.128
516	0.128
516	0.128
517	0.128
517	0.128
518	0.129
518	0.129
519	0.129
519	0.129
520	0.129
520	0.128
520	0.128
521	0.127
521	0.126
522	0.125
522	0.124
523	0.124
523	0.123
524	0.122
524	0.122
524	0.122
525	0.122
525	0.123
526	0.124
526	0.126
527	0.127
527	0.128
528	0.129
528	0.131
529	0.132
529	0.133
529	0.133
530	0.133
530	0.134
531	0.133
531	0.133
532	0.133
532	0.133
533	0.133
533	0.133
533	0.132
534	0.132
534	0.132
535	0.132
535	0.131
536	0.131
536	0.131
537	0.131
537	0.131
538	0.13
538	0.13
538	0.129
539	0.129
539	0.129
540	0.128
540	0.128
541	0.128
541	0.127
542	0.126
542	0.126
542	0.125
543	0.125
543	0.124
544	0.124
544	0.124
545	0.124
545	0.124
546	0.123
546	0.123
547	0.123
547	0.122
547	0.122
548	0.121
548	0.119
549	0.118
549	0.118
550	0.117
550	0.116
551	0.115
551	0.114
551	0.114
552	0.114
552	0.114
553	0.114
553	0.114
554	0.114
554	0.114
555	0.114
555	0.113
556	0.112
556	0.111
556	0.11
557	0.11
557	0.109
558	0.108
558	0.107
559	0.107
559	0.106
560	0.107
560	0.106
560	0.106
561	0.106
561	0.106
562	0.106
562	0.106
563	0.105
563	0.105
564	0.104
564	0.103
564	0.102
565	0.102
565	0.101
566	0.101
566	0.101
567	0.101
567	0.101
568	0.102
568	0.102
568	0.103
569	0.104
569	0.104
570	0.105
570	0.105
571	0.105
571	0.105
572	0.105
572	0.105
573	0.105
573	0.105
573	0.105
574	0.105
574	0.105
575	0.105
575	0.105
576	0.105
576	0.105
577	0.105
577	0.105
577	0.104
578	0.104
578	0.103
579	0.103
579	0.103
580	0.103
580	0.102
581	0.102
581	0.101
581	0.1
582	0.1
582	0.1
583	0.1
583	0.1
584	0.1
584	0.099
585	0.098
585	0.098
585	0.098
586	0.098
586	0.097
587	0.096
587	0.096
588	0.094
588	0.093
589	0.092
589	0.092
590	0.091
590	0.091
590	0.09
591	0.09
591	0.09
592	0.09
592	0.09
593	0.09
593	0.09
594	0.089
594	0.089
594	0.089
595	0.089
595	0.088
596	0.088
596	0.087
597	0.088
597	0.088
598	0.088
598	0.089
598	0.089
599	0.089
599	0.089
600	0.088
600	0.088
601	0.088
601	0.088
602	0.087
602	0.087
602	0.086
603	0.086
603	0.086
604	0.086
604	0.087
605	0.087
605	0.088
606	0.088
606	0.088
606	0.087
607	0.087
607	0.087
608	0.086
608	0.086
609	0.085
609	0.084
610	0.083
610	0.082
610	0.081
611	0.081
611	0.081
612	0.081
612	0.081
613	0.081
613	0.082
614	0.082
614	0.082
614	0.082
615	0.082
615	0.082
616	0.082
616	0.082
617	0.082
617	0.082
618	0.082
618	0.081
618	0.081
619	0.081
619	0.081
620	0.081
620	0.082
621	0.082
621	0.082
622	0.081
622	0.081
622	0.081
623	0.081
623	0.081
624	0.081
624	0.081
625	0.081
625	0.081
626	0.081
626	0.081
626	0.081
627	0.081
627	0.082
628	0.082
628	0.083
629	0.083
629	0.083
630	0.084
630	0.083
630	0.084
631	0.084
631	0.084
632	0.085
632	0.085
633	0.085
633	0.086
634	0.086
634	0.087
634	0.089
635	0.09
635	0.09
636	0.091
636	0.091
637	0.091
637	0.092
638	0.092
638	0.092
638	0.092
639	0.092
639	0.093
640	0.093
640	0.094
641	0.095
641	0.096
642	0.097
642	0.098
642	0.099
643	0.1
643	0.102
644	0.103
644	0.104
645	0.105
645	0.107
646	0.108
646	0.11
646	0.112
647	0.114
647	0.116
648	0.118
648	0.12
649	0.122
649	0.124
650	0.126
650	0.128
650	0.129
651	0.131
651	0.132
652	0.134
652	0.136
653	0.137
653	0.14
653	0.143
654	0.114
654	0.093
655	0.098
655	0.099
656	0.1
656	0.102
657	0.103
657	0.103
657	0.104
658	0.103
658	0.099
659	0.125
659	0.161
660	0.161
660	0.162
661	0.164
661	0.165
661	0.167
662	0.169
662	0.17
663	0.172
663	0.174
664	0.176
664	0.178
665	0.18
665	0.182
665	0.184
666	0.186
666	0.187
667	0.189
667	0.19
668	0.192
668	0.193
669	0.194
669	0.195
669	0.196
670	0.197
670	0.198
671	0.199
671	0.2
672	0.202
672	0.203
672	0.204
673	0.205
673	0.206
674	0.208
674	0.209
675	0.21
675	0.212
676	0.213
676	0.215
676	0.216
677	0.217
677	0.219
678	0.22
678	0.221
679	0.222
679	0.224
680	0.225
680	0.226
680	0.226
681	0.227
681	0.228
682	0.229
682	0.23
683	0.231
683	0.232
684	0.233
684	0.233
684	0.234
685	0.234
685	0.235
686	0.235
686	0.235
687	0.235
687	0.235
687	0.235
688	0.234
688	0.234
689	0.233
689	0.233
690	0.233
690	0.232
691	0.232
691	0.231
691	0.231
692	0.231
692	0.23
693	0.23
693	0.229
694	0.229
694	0.228
695	0.227
695	0.228
695	0.227
696	0.227
696	0.227
697	0.226
697	0.225
698	0.224
698	0.223
698	0.223
699	0.222
699	0.222
700	0.22
700	0.219
701	0.218
701	0.217
702	0.217
702	0.216
702	0.215
703	0.214
703	0.214
704	0.213
704	0.212
705	0.212
705	0.211
705	0.211
706	0.21
706	0.21
707	0.209
707	0.208
708	0.207
708	0.205
709	0.204
709	0.203
709	0.201
710	0.199
710	0.197
711	0.196
711	0.194
712	0.193
712	0.191
713	0.189
713	0.188
713	0.186
714	0.185
714	0.183
715	0.182
715	0.181
716	0.179
716	0.178
716	0.176
717	0.175
717	0.174
718	0.172
718	0.171
719	0.169
719	0.168
720	0.166
720	0.165
720	0.164
721	0.163
721	0.161
722	0.16
722	0.159
723	0.158
723	0.157
723	0.155
724	0.154
724	0.153
725	0.151
725	0.15
726	0.148
726	0.147
727	0.145
727	0.144
727	0.143
728	0.141
728	0.14
729	0.139
729	0.138
730	0.138
730	0.137
730	0.136
731	0.135
731	0.134
732	0.134
732	0.133
733	0.133
733	0.132
734	0.131
734	0.13
734	0.129
735	0.128
735	0.126
736	0.125
736	0.123
737	0.121
737	0.119
737	0.118
738	0.116
738	0.114
739	0.113
739	0.112
740	0.111
740	0.11
741	0.11
741	0.109
741	0.108
742	0.106
742	0.104
743	0.103
743	0.102
744	0.101
744	0.1
744	0.098
745	0.097
745	0.096
746	0.095
746	0.094
747	0.094
747	0.094
748	0.093
748	0.093
748	0.092
749	0.091
749	0.09
750	0.089
750	0.088
751	0.087
751	0.086
751	0.084
752	0.083
752	0.082
753	0.081
753	0.08
754	0.079
754	0.078
754	0.077
755	0.077
755	0.077
756	0.077
756	0.076
757	0.075
757	0.074
758	0.074
758	0.073
758	0.072
759	0.071
759	0.07
760	0.069
760	0.067
761	0.066
761	0.065
761	0.064
762	0.063
762	0.062
763	0.061
763	0.06
764	0.058
764	0.056
764	0.054
765	0.052
765	0.05
766	0.048
766	0.046
767	0.044
767	0.041
768	0.038
768	0.036
768	0.034
769	0.032
769	0.031
770	0.029
770	0.028
771	0.026
771	0.024
771	0.022
772	0.02
772	0.018
773	0.016
773	0.014
774	0.011
774	0.009
775	0.007
775	0.004
775	0.002
776	-0.001
776	-0.004
777	-0.007
777	-0.009
778	-0.012
778	-0.016
778	-0.019
779	-0.023
779	-0.026
780	-0.03
780	-0.035
781	-0.041
781	-0.047
781	-0.053
782	-0.06
782	-0.067
783	-0.074
783	-0.081
784	-0.089
784	-0.097
784	-0.106
785	-0.114
785	-0.123
786	-0.13
786	-0.134
787	-0.135
787	-0.137
788	-0.142
788	-0.147
788	-0.151
789	-0.155
789	-0.157
790	-0.156
790	-0.155
791	-0.156
791	-0.158
791	-0.16
792	-0.155
792	-0.145
793	-0.139
793	-0.135
794	-0.133
794	-0.134
794	-0.138
795	-0.14
795	-0.14
796	-0.14
796	-0.143
797	-0.151
797	-0.162
797	-0.168
798	-0.174
798	-0.177
799	-0.177
799	-0.177
800	-0.176
800	-0.178
801	-0.18
801	-0.181
801	-0.181
802	-0.182
802	-0.183
803	-0.183
803	-0.183
804	-0.182
804	-0.177
804	-0.171
805	-0.167
805	-0.165
806	-0.162
806	-0.161
807	-0.16
807	-0.159
807	-0.159
808	-0.159
808	-0.16
809	-0.164
809	-0.17
810	-0.173
810	-0.176
810	-0.18
811	-0.183
811	-0.184
812	-0.18
812	-0.177
813	-0.178
813	-0.179
813	-0.18
814	-0.182
814	-0.182
815	-0.18
815	-0.178
816	-0.174
816	-0.171
817	-0.17
817	-0.167
817	-0.16
818	-0.15
818	-0.139
819	-0.127
819	-0.116
820	-0.107
820	-0.097
820	-0.087
821	-0.079
821	-0.07
822	-0.063
822	-0.057
823	-0.05
823	-0.045
823	-0.04
824	-0.034
824	-0.029
825	-0.023
825	-0.017
826	-0.012
826	-0.007
826	-0.004
827	0
827	0.003
828	0.006
828	0.008
829	0.01
829	0.012
829	0.013
830	0.014
830	0.014
831	0.015
831	0.016
832	0.016
832	0.017
832	0.017
833	0.017
833	0.017
834	0.017
834	0.017
835	0.017
835	0.018
835	0.018
836	0.018
836	0.019
837	0.019
837	0.02
838	0.02
838	0.021
839	0.022
839	0.023
839	0.024
840	0.025
840	0.025
841	0.026
841	0.027
842	0.028
842	0.029
842	0.03
843	0.03
843	0.031
844	0.032
844	0.032
845	0.032
845	0.032
845	0.032
846	0.032
846	0.031
847	0.031
847	0.03
848	0.03
848	0.029
848	0.028
849	0.028
849	0.028
850	0.028
850	0.027
851	0.027
851	0.027
851	0.027
852	0.027
852	0.028
853	0.028
853	0.029
854	0.029
854	0.029
854	0.03
855	0.03
855	0.031
856	0.031
856	0.032
857	0.032
857	0.033
857	0.033
858	0.033
858	0.034
859	0.034
859	0.034
860	0.035
860	0.035
860	0.036
861	0.036
861	0.036
862	0.037
862	0.036
863	0.036
863	0.036
863	0.036
864	0.036
864	0.035
865	0.035
865	0.034
866	0.034
866	0.033
866	0.032
867	0.032
867	0.032
868	0.031
868	0.031
869	0.031
869	0.031
869	0.031
870	0.031
870	0.032
871	0.032
871	0.032
872	0.033
872	0.033
872	0.034
873	0.035
873	0.035
874	0.035
874	0.035
875	0.035
875	0.034
875	0.034
876	0.033
876	0.033
877	0.032
877	0.031
878	0.031
878	0.03
878	0.03
879	0.029
879	0.029
880	0.028
880	0.028
881	0.028
881	0.028
881	0.029
882	0.029
882	0.03
883	0.031
883	0.032
884	0.033
884	0.034
884	0.035
885	0.036
885	0.037
886	0.037
886	0.038
887	0.038
887	0.037
887	0.037
888	0.037
888	0.037
889	0.036
889	0.036
890	0.036
890	0.035
890	0.035
891	0.036
891	0.036
892	0.037
892	0.037
893	0.038
893	0.038
893	0.039
894	0.039
894	0.039
895	0.039
895	0.039
895	0.039
896	0.039
896	0.039
897	0.039
897	0.038
898	0.038
898	0.038
898	0.038
899	0.037
899	0.037
900	0.037
900	0.037
901	0.037
901	0.037
901	0.036
902	0.036
902	0.035
903	0.035
903	0.034
904	0.033
904	0.033
904	0.032
905	0.031
905	0.031
906	0.03
906	0.03
907	0.03
907	0.03
907	0.03
908	0.03
908	0.031
909	0.031
909	0.031
910	0.032
910	0.032
910	0.033
911	0.033
911	0.033
912	0.033
912	0.033
913	0.033
913	0.033
913	0.033
914	0.033
914	0.033
915	0.033
915	0.033
916	0.033
916	0.033
916	0.032
917	0.033
917	0.033
918	0.033
918	0.033
918	0.033
919	0.034
919	0.034
920	0.034
920	0.035
921	0.035
921	0.035
921	0.035
922	0.035
922	0.035
923	0.035
923	0.035
924	0.035
924	0.034
924	0.034
925	0.033
925	0.033
926	0.032
926	0.031
927	0.03
927	0.03
927	0.029
928	0.029
928	0.028
929	0.028
929	0.028
930	0.028
930	0.028
930	0.029
931	0.029
931	0.029
932	0.03
932	0.029
933	0.029
933	0.029
933	0.028
934	0.028
934	0.027
935	0.026
935	0.026
935	0.025
936	0.024
936	0.024
937	0.024
937	0.024
938	0.024
938	0.025
938	0.025
939	0.026
939	0.026
940	0.027
940	0.027
941	0.028
941	0.028
941	0.029
942	0.029
942	0.03
943	0.03
943	0.031
944	0.031
944	0.032
944	0.032
945	0.033
945	0.033
946	0.033
946	0.033
946	0.034
947	0.033
947	0.033
948	0.032
948	0.032
949	0.032
949	0.031
949	0.031
950	0.031
950	0.03
951	0.03
951	0.03
952	0.03
952	0.03
952	0.03
953	0.03
953	0.03
954	0.03
954	0.029
955	0.029
955	0.029
955	0.028
956	0.028
956	0.027
957	0.027
957	0.026
957	0.025
958	0.025
958	0.024
959	0.023
959	0.023
960	0.022
960	0.022
960	0.022
961	0.022
961	0.022
962	0.023
962	0.023
963	0.024
963	0.024
963	0.024
964	0.024
964	0.024
965	0.024
965	0.024
966	0.024
966	0.024
966	0.024
967	0.025
967	0.025
968	0.025
968	0.025
968	0.025
969	0.025
969	0.026
970	0.026
970	0.026
971	0.025
971	0.025
971	0.025
972	0.025
972	0.026
973	0.026
973	0.026
974	0.026
974	0.027
974	0.027
975	0.027
975	0.027
976	0.028
976	0.028
976	0.028
977	0.029
977	0.029
978	0.029
978	0.029
979	0.029
979	0.029
979	0.029
980	0.029
980	0.029
981	0.029
981	0.029
982	0.029
982	0.029
982	0.03
983	0.03
983	0.03
984	0.029
984	0.029
984	0.029
985	0.029
985	0.029
986	0.028
986	0.028
987	0.027
987	0.027
987	0.027
988	0.027
988	0.027
989	0.027
989	0.028
990	0.028
990	0.028
990	0.029
991	0.029
991	0.03
992	0.03
992	0.03
992	0.03
993	0.029
993	0.029
994	0.028
994	0.028
995	0.028
995	0.027
995	0.027
996	0.027
996	0.027
997	0.027
997	0.027
997	0.027
998	0.028
998	0.028
999	0.029
999	0.029
1000	0.03
1000	0.03
1000	0.03
1001	0.029
1001	0.029
1002	0.029
1002	0.028
1003	0.027
1003	0.026
1003	0.025
1004	0.025
1004	0.024
1005	0.024
1005	0.024
1005	0.023
1006	0.023
1006	0.023
1007	0.023
1007	0.023
1008	0.023
1008	0.023
1008	0.023
1009	0.023
1009	0.022
1010	0.022
1010	0.021
1010	0.021
1011	0.021
1011	0.021
1012	0.021
1012	0.021
1013	0.021
1013	0.021
1013	0.021
1014	0.022
1014	0.022
1015	0.023
1015	0.024
1016	0.024
1016	0.025
1016	0.025
1017	0.025
1017	0.026
1018	0.026
1018	0.026
1018	0.026
1019	0.026
1019	0.026
1020	0.025
1020	0.025
1021	0.025
1021	0.025
1021	0.025
1022	0.025
1022	0.025
1023	0.025
1023	0.025
1023	0.024
1024	0.024
1024	0.024
1025	0.024
1025	0.024
1026	0.024
1026	0.023
1026	0.023
1027	0.023
1027	0.023
1028	0.023
1028	0.022
1028	0.022
1029	0.021
1029	0.02
1030	0.019
1030	0.019
1031	0.018
1031	0.017
1031	0.017
1032	0.016
1032	0.016
1033	0.015
1033	0.015
1033	0.015
1034	0.015
1034	0.015
1035	0.016
1035	0.016
1036	0.017
1036	0.017
1036	0.017
1037	0.018
1037	0.018
1038	0.019
1038	0.019
1039	0.02
1039	0.02
1039	0.021
1040	0.021
1040	0.021
1041	0.021
1041	0.021
1041	0.021
1042	0.021
1042	0.021
1043	0.021
1043	0.02
1044	0.02
1044	0.02
1044	0.02
1045	0.02
1045	0.02
1046	0.02
1046	0.021
1046	0.022
1047	0.023
1047	0.024
1048	0.025
1048	0.026
1049	0.027
1049	0.028
1049	0.029
1050	0.03
1050	0.031
1051	0.031
1051	0.032
1051	0.033
1052	0.034
1052	0.034
1053	0.035
1053	0.036
1053	0.036
1054	0.037
1054	0.037
1055	0.037
1055	0.037
1056	0.037
1056	0.037
1056	0.037
1057	0.037
1057	0.037
1058	0.037
1058	0.037
1058	0.037
1059	0.037
1059	0.038
1060	0.038
1060	0.038
1061	0.039
1061	0.039
1061	0.039
1062	0.039
1062	0.039
1063	0.039
1063	0.039
1063	0.04
1064	0.039
1064	0.039
1065	0.039
1065	0.039
1066	0.038
1066	0.038
1066	0.038
1067	0.038
1067	0.038
1068	0.038
1068	0.037
1068	0.037
1069	0.037
1069	0.038
1070	0.038
1070	0.039
1071	0.039
1071	0.04
1071	0.041
1072	0.042
1072	0.042
1073	0.043
1073	0.044
1073	0.045
1074	0.046
1074	0.046
1075	0.047
1075	0.048
1076	0.049
1076	0.049
1076	0.049
1077	0.05
1077	0.051
1078	0.051
1078	0.052
1078	0.053
1079	0.053
1079	0.054
1080	0.055
1080	0.056
1080	0.057
1081	0.058
1081	0.059
1082	0.06
1082	0.06
1083	0.061
1083	0.062
1083	0.063
1084	0.064
1084	0.065
1085	0.066
1085	0.067
1085	0.069
1086	0.07
1086	0.072
1087	0.073
1087	0.075
1088	0.077
1088	0.078
1088	0.08
1089	0.081
1089	0.084
1090	0.086
1090	0.088
1090	0.091
1091	0.093
1091	0.096
1092	0.099
1092	0.102
1092	0.104
1093	0.107
1093	0.11
1094	0.113
1094	0.116
1095	0.119
1095	0.123
1095	0.127
1096	0.131
1096	0.135
1097	0.139
1097	0.144
1097	0.149
1098	0.155
1098	0.161
1099	0.167
1099	0.173
1100	0.179
1100	0.187
1100	0.197
1101	0.207
1101	0.219
1102	0.232
1102	0.246
1102	0.26
1103	0.276
1103	0.295
1104	0.315
1104	0.337
1104	0.361
1105	0.387
1105	0.416
1106	0.446
1106	0.482
1107	0.53
1107	0.599
1107	0.69
1108	1.033
1108	-0
1109	-0
1109	-0
1109	-0
1110	-0
1110	-0
1111	-0
1111	-0
