Data from 15c-2a_Absorbance__674__00674.txt Node

Date: Fri Jan 19 10:04:02 CET 2024
User: Marek
Spectrometer: MAYP115816
Trigger mode: 0
Integration Time (sec): 2.000000E-1
Scans to average: 10
Electric dark correction enabled: true
Nonlinearity correction enabled: true
Boxcar width: 5
XAxis mode: Wavelengths
Number of Pixels in Spectrum: 2068
>>>>>Begin Spectral Data<<<<<
199	-1.458
199	-1.31
200	-1.173
200	-1.06
201	-0.996
201	-0.947
202	-0.881
202	-0.831
203	-0.788
203	-0.75
204	-0.726
204	-0.703
205	-0.685
205	-0.675
205	-0.673
206	-0.669
206	-0.666
207	-0.662
207	-0.658
208	-0.656
208	-0.654
209	-0.653
209	-0.65
210	-0.649
210	-0.648
211	-0.647
211	-0.645
212	-0.646
212	-0.646
213	-0.645
213	-0.642
213	-0.643
214	-0.639
214	-0.638
215	-0.635
215	-0.634
216	-0.631
216	-0.631
217	-0.627
217	-0.625
218	-0.623
218	-0.621
219	-0.617
219	-0.617
220	-0.616
220	-0.616
221	-0.615
221	-0.61
221	-0.606
222	-0.604
222	-0.6
223	-0.595
223	-0.591
224	-0.585
224	-0.578
225	-0.572
225	-0.561
226	-0.551
226	-0.541
227	-0.529
227	-0.516
228	-0.502
228	-0.489
229	-0.472
229	-0.452
229	-0.43
230	-0.405
230	-0.379
231	-0.35
231	-0.318
232	-0.288
232	-0.254
233	-0.219
233	-0.182
234	-0.147
234	-0.113
235	-0.08
235	-0.049
236	-0.02
236	0.007
236	0.033
237	0.057
237	0.079
238	0.099
238	0.116
239	0.132
239	0.147
240	0.16
240	0.171
241	0.182
241	0.192
242	0.201
242	0.208
243	0.215
243	0.221
243	0.227
244	0.233
244	0.238
245	0.243
245	0.247
246	0.251
246	0.254
247	0.258
247	0.261
248	0.264
248	0.267
249	0.27
249	0.272
250	0.275
250	0.277
250	0.279
251	0.282
251	0.284
252	0.286
252	0.288
253	0.29
253	0.291
254	0.293
254	0.294
255	0.295
255	0.297
256	0.298
256	0.298
257	0.299
257	0.3
258	0.3
258	0.3
258	0.3
259	0.301
259	0.301
260	0.301
260	0.301
261	0.3
261	0.3
262	0.3
262	0.3
263	0.299
263	0.299
264	0.298
264	0.298
265	0.297
265	0.296
265	0.295
266	0.294
266	0.293
267	0.292
267	0.291
268	0.289
268	0.288
269	0.286
269	0.285
270	0.283
270	0.281
271	0.279
271	0.277
272	0.275
272	0.273
272	0.271
273	0.27
273	0.267
274	0.266
274	0.264
275	0.262
275	0.26
276	0.258
276	0.256
277	0.254
277	0.252
278	0.25
278	0.248
278	0.246
279	0.243
279	0.241
280	0.239
280	0.237
281	0.235
281	0.233
282	0.231
282	0.23
283	0.228
283	0.226
284	0.224
284	0.222
285	0.221
285	0.219
285	0.217
286	0.215
286	0.214
287	0.212
287	0.21
288	0.209
288	0.207
289	0.206
289	0.205
290	0.203
290	0.202
291	0.2
291	0.199
292	0.198
292	0.197
292	0.196
293	0.195
293	0.193
294	0.192
294	0.191
295	0.19
295	0.19
296	0.189
296	0.188
297	0.187
297	0.187
298	0.186
298	0.185
298	0.185
299	0.184
299	0.184
300	0.183
300	0.183
301	0.182
301	0.182
302	0.181
302	0.18
303	0.18
303	0.179
304	0.179
304	0.178
305	0.178
305	0.177
305	0.177
306	0.176
306	0.176
307	0.175
307	0.175
308	0.174
308	0.174
309	0.173
309	0.173
310	0.172
310	0.172
311	0.171
311	0.171
311	0.17
312	0.17
312	0.17
313	0.169
313	0.168
314	0.168
314	0.167
315	0.167
315	0.166
316	0.166
316	0.165
317	0.165
317	0.164
318	0.164
318	0.163
318	0.163
319	0.162
319	0.162
320	0.161
320	0.161
321	0.16
321	0.16
322	0.159
322	0.159
323	0.158
323	0.158
324	0.157
324	0.156
324	0.156
325	0.155
325	0.155
326	0.154
326	0.154
327	0.153
327	0.153
328	0.153
328	0.152
329	0.151
329	0.151
330	0.151
330	0.15
330	0.15
331	0.149
331	0.149
332	0.148
332	0.147
333	0.147
333	0.147
334	0.146
334	0.145
335	0.145
335	0.145
336	0.144
336	0.144
336	0.143
337	0.143
337	0.143
338	0.142
338	0.142
339	0.141
339	0.141
340	0.14
340	0.14
341	0.14
341	0.139
342	0.139
342	0.139
342	0.138
343	0.138
343	0.138
344	0.138
344	0.137
345	0.137
345	0.137
346	0.136
346	0.136
347	0.135
347	0.135
348	0.135
348	0.135
348	0.134
349	0.134
349	0.134
350	0.133
350	0.133
351	0.133
351	0.133
352	0.132
352	0.132
353	0.132
353	0.132
354	0.131
354	0.131
354	0.13
355	0.13
355	0.13
356	0.13
356	0.13
357	0.129
357	0.129
358	0.129
358	0.129
359	0.129
359	0.129
360	0.129
360	0.129
360	0.129
361	0.129
361	0.128
362	0.128
362	0.128
363	0.128
363	0.128
364	0.128
364	0.128
365	0.127
365	0.127
366	0.127
366	0.127
366	0.127
367	0.127
367	0.127
368	0.126
368	0.126
369	0.126
369	0.126
370	0.126
370	0.126
371	0.125
371	0.125
372	0.125
372	0.125
372	0.125
373	0.124
373	0.124
374	0.124
374	0.124
375	0.124
375	0.124
376	0.124
376	0.124
377	0.124
377	0.124
378	0.124
378	0.124
378	0.124
379	0.124
379	0.124
380	0.123
380	0.123
381	0.123
381	0.123
382	0.123
382	0.123
383	0.123
383	0.123
383	0.123
384	0.123
384	0.122
385	0.122
385	0.122
386	0.122
386	0.122
387	0.121
387	0.121
388	0.121
388	0.121
389	0.12
389	0.12
389	0.12
390	0.12
390	0.12
391	0.119
391	0.119
392	0.119
392	0.119
393	0.119
393	0.119
394	0.119
394	0.119
394	0.119
395	0.118
395	0.118
396	0.118
396	0.118
397	0.118
397	0.118
398	0.118
398	0.117
399	0.118
399	0.117
400	0.117
400	0.117
400	0.117
401	0.117
401	0.117
402	0.116
402	0.116
403	0.116
403	0.116
404	0.116
404	0.116
405	0.115
405	0.115
405	0.115
406	0.115
406	0.115
407	0.115
407	0.115
408	0.114
408	0.114
409	0.114
409	0.114
410	0.114
410	0.114
411	0.114
411	0.113
411	0.113
412	0.113
412	0.113
413	0.113
413	0.113
414	0.113
414	0.112
415	0.112
415	0.112
416	0.112
416	0.111
416	0.111
417	0.111
417	0.111
418	0.111
418	0.111
419	0.112
419	0.112
420	0.112
420	0.112
421	0.112
421	0.112
421	0.112
422	0.112
422	0.112
423	0.112
423	0.112
424	0.112
424	0.112
425	0.111
425	0.111
426	0.111
426	0.111
427	0.111
427	0.11
427	0.11
428	0.111
428	0.111
429	0.111
429	0.111
430	0.111
430	0.111
431	0.111
431	0.111
432	0.11
432	0.11
432	0.11
433	0.109
433	0.109
434	0.109
434	0.108
435	0.108
435	0.108
436	0.108
436	0.108
437	0.108
437	0.108
437	0.108
438	0.108
438	0.108
439	0.108
439	0.108
440	0.107
440	0.107
441	0.108
441	0.108
442	0.108
442	0.108
442	0.108
443	0.108
443	0.108
444	0.108
444	0.108
445	0.108
445	0.108
446	0.108
446	0.108
447	0.107
447	0.107
447	0.107
448	0.107
448	0.107
449	0.107
449	0.107
450	0.107
450	0.107
451	0.108
451	0.108
452	0.107
452	0.108
452	0.108
453	0.108
453	0.107
454	0.107
454	0.108
455	0.108
455	0.108
456	0.107
456	0.107
457	0.108
457	0.107
458	0.107
458	0.107
458	0.107
459	0.108
459	0.107
460	0.107
460	0.107
461	0.107
461	0.107
462	0.107
462	0.107
463	0.107
463	0.107
463	0.108
464	0.108
464	0.108
465	0.108
465	0.108
466	0.108
466	0.109
467	0.109
467	0.109
467	0.109
468	0.109
468	0.108
469	0.108
469	0.108
470	0.108
470	0.109
471	0.109
471	0.109
472	0.109
472	0.109
472	0.109
473	0.11
473	0.11
474	0.111
474	0.111
475	0.111
475	0.112
476	0.112
476	0.112
477	0.113
477	0.113
477	0.113
478	0.113
478	0.114
479	0.114
479	0.114
480	0.114
480	0.115
481	0.115
481	0.116
482	0.116
482	0.117
482	0.118
483	0.119
483	0.121
484	0.122
484	0.122
485	0.123
485	0.124
486	0.124
486	0.125
487	0.126
487	0.126
487	0.126
488	0.127
488	0.127
489	0.127
489	0.128
490	0.129
490	0.129
491	0.13
491	0.131
492	0.131
492	0.132
492	0.133
493	0.134
493	0.135
494	0.136
494	0.137
495	0.138
495	0.139
496	0.141
496	0.142
496	0.143
497	0.144
497	0.145
498	0.146
498	0.147
499	0.148
499	0.149
500	0.15
500	0.151
501	0.153
501	0.154
501	0.155
502	0.156
502	0.157
503	0.158
503	0.16
504	0.161
504	0.161
505	0.162
505	0.163
506	0.163
506	0.164
506	0.165
507	0.166
507	0.167
508	0.168
508	0.168
509	0.169
509	0.17
510	0.171
510	0.173
511	0.174
511	0.175
511	0.175
512	0.177
512	0.177
513	0.178
513	0.178
514	0.179
514	0.179
515	0.179
515	0.179
515	0.179
516	0.18
516	0.18
517	0.18
517	0.181
518	0.181
518	0.18
519	0.18
519	0.18
520	0.179
520	0.179
520	0.178
521	0.178
521	0.177
522	0.176
522	0.176
523	0.176
523	0.176
524	0.177
524	0.177
524	0.178
525	0.178
525	0.179
526	0.18
526	0.181
527	0.181
527	0.181
528	0.181
528	0.182
529	0.182
529	0.182
529	0.181
530	0.181
530	0.181
531	0.18
531	0.179
532	0.179
532	0.178
533	0.177
533	0.176
533	0.175
534	0.174
534	0.173
535	0.173
535	0.172
536	0.171
536	0.17
537	0.169
537	0.168
538	0.167
538	0.166
538	0.164
539	0.163
539	0.162
540	0.16
540	0.159
541	0.157
541	0.156
542	0.154
542	0.152
542	0.151
543	0.149
543	0.148
544	0.147
544	0.145
545	0.145
545	0.144
546	0.143
546	0.141
547	0.14
547	0.138
547	0.137
548	0.135
548	0.134
549	0.133
549	0.131
550	0.13
550	0.129
551	0.127
551	0.126
551	0.124
552	0.123
552	0.122
553	0.121
553	0.12
554	0.119
554	0.117
555	0.115
555	0.113
556	0.111
556	0.11
556	0.108
557	0.107
557	0.105
558	0.104
558	0.102
559	0.101
559	0.099
560	0.099
560	0.098
560	0.097
561	0.096
561	0.096
562	0.095
562	0.093
563	0.092
563	0.09
564	0.089
564	0.087
564	0.086
565	0.085
565	0.084
566	0.082
566	0.082
567	0.081
567	0.081
568	0.08
568	0.08
568	0.08
569	0.079
569	0.078
570	0.077
570	0.076
571	0.075
571	0.074
572	0.073
572	0.072
573	0.071
573	0.07
573	0.069
574	0.069
574	0.068
575	0.068
575	0.068
576	0.068
576	0.067
577	0.066
577	0.065
577	0.065
578	0.065
578	0.064
579	0.064
579	0.064
580	0.063
580	0.061
581	0.06
581	0.059
581	0.059
582	0.058
582	0.058
583	0.058
583	0.058
584	0.056
584	0.055
585	0.054
585	0.054
585	0.054
586	0.054
586	0.053
587	0.052
587	0.051
588	0.049
588	0.048
589	0.048
589	0.048
590	0.047
590	0.048
590	0.048
591	0.049
591	0.048
592	0.047
592	0.047
593	0.047
593	0.047
594	0.046
594	0.046
594	0.045
595	0.045
595	0.044
596	0.043
596	0.044
597	0.045
597	0.045
598	0.045
598	0.045
598	0.045
599	0.045
599	0.044
600	0.043
600	0.042
601	0.042
601	0.042
602	0.041
602	0.041
602	0.041
603	0.04
603	0.041
604	0.042
604	0.043
605	0.044
605	0.045
606	0.045
606	0.045
606	0.045
607	0.045
607	0.045
608	0.044
608	0.043
609	0.043
609	0.043
610	0.041
610	0.041
610	0.041
611	0.041
611	0.042
612	0.042
612	0.043
613	0.044
613	0.045
614	0.045
614	0.044
614	0.045
615	0.045
615	0.045
616	0.045
616	0.045
617	0.046
617	0.045
618	0.045
618	0.045
618	0.045
619	0.045
619	0.046
620	0.047
620	0.048
621	0.048
621	0.048
622	0.048
622	0.049
622	0.049
623	0.049
623	0.05
624	0.05
624	0.05
625	0.05
625	0.051
626	0.051
626	0.051
626	0.053
627	0.054
627	0.054
628	0.055
628	0.056
629	0.057
629	0.058
630	0.058
630	0.058
630	0.059
631	0.06
631	0.061
632	0.061
632	0.062
633	0.062
633	0.063
634	0.064
634	0.066
634	0.067
635	0.068
635	0.069
636	0.07
636	0.071
637	0.072
637	0.073
638	0.075
638	0.075
638	0.076
639	0.076
639	0.077
640	0.078
640	0.078
641	0.079
641	0.08
642	0.081
642	0.082
642	0.083
643	0.084
643	0.085
644	0.087
644	0.089
645	0.091
645	0.093
646	0.095
646	0.098
646	0.101
647	0.104
647	0.106
648	0.109
648	0.111
649	0.113
649	0.116
650	0.118
650	0.121
650	0.122
651	0.124
651	0.126
652	0.128
652	0.13
653	0.133
653	0.138
653	0.147
654	0.118
654	0.096
655	0.098
655	0.1
656	0.101
656	0.103
657	0.104
657	0.105
657	0.106
658	0.105
658	0.097
659	0.123
659	0.159
660	0.164
660	0.166
661	0.168
661	0.17
661	0.173
662	0.175
662	0.177
663	0.179
663	0.182
664	0.183
664	0.185
665	0.187
665	0.189
665	0.19
666	0.192
666	0.193
667	0.194
667	0.196
668	0.198
668	0.199
669	0.201
669	0.203
669	0.205
670	0.207
670	0.209
671	0.21
671	0.212
672	0.213
672	0.215
672	0.216
673	0.218
673	0.22
674	0.221
674	0.223
675	0.224
675	0.226
676	0.228
676	0.229
676	0.23
677	0.232
677	0.233
678	0.234
678	0.234
679	0.235
679	0.236
680	0.238
680	0.238
680	0.239
681	0.24
681	0.241
682	0.241
682	0.242
683	0.243
683	0.243
684	0.244
684	0.244
684	0.244
685	0.244
685	0.244
686	0.243
686	0.243
687	0.242
687	0.242
687	0.241
688	0.241
688	0.24
689	0.24
689	0.24
690	0.24
690	0.239
691	0.239
691	0.239
691	0.239
692	0.238
692	0.238
693	0.237
693	0.237
694	0.236
694	0.235
695	0.235
695	0.235
695	0.234
696	0.233
696	0.232
697	0.231
697	0.23
698	0.228
698	0.227
698	0.226
699	0.224
699	0.222
700	0.22
700	0.219
701	0.218
701	0.216
702	0.215
702	0.214
702	0.213
703	0.211
703	0.21
704	0.209
704	0.208
705	0.207
705	0.206
705	0.204
706	0.203
706	0.202
707	0.2
707	0.198
708	0.197
708	0.195
709	0.194
709	0.192
709	0.19
710	0.188
710	0.186
711	0.185
711	0.183
712	0.181
712	0.179
713	0.176
713	0.174
713	0.172
714	0.169
714	0.167
715	0.165
715	0.163
716	0.161
716	0.16
716	0.158
717	0.158
717	0.157
718	0.156
718	0.155
719	0.154
719	0.152
720	0.151
720	0.149
720	0.147
721	0.145
721	0.143
722	0.141
722	0.139
723	0.137
723	0.135
723	0.133
724	0.132
724	0.13
725	0.128
725	0.127
726	0.125
726	0.123
727	0.121
727	0.119
727	0.117
728	0.115
728	0.114
729	0.113
729	0.111
730	0.109
730	0.107
730	0.106
731	0.104
731	0.103
732	0.102
732	0.101
733	0.099
733	0.098
734	0.097
734	0.095
734	0.093
735	0.092
735	0.09
736	0.088
736	0.086
737	0.084
737	0.083
737	0.081
738	0.078
738	0.076
739	0.074
739	0.073
740	0.072
740	0.071
741	0.07
741	0.069
741	0.068
742	0.066
742	0.065
743	0.064
743	0.063
744	0.062
744	0.06
744	0.059
745	0.057
745	0.056
746	0.055
746	0.055
747	0.054
747	0.054
748	0.054
748	0.054
748	0.053
749	0.052
749	0.051
750	0.05
750	0.048
751	0.047
751	0.045
751	0.044
752	0.042
752	0.04
753	0.038
753	0.037
754	0.036
754	0.035
754	0.035
755	0.035
755	0.035
756	0.034
756	0.033
757	0.032
757	0.032
758	0.031
758	0.03
758	0.03
759	0.029
759	0.028
760	0.027
760	0.026
761	0.025
761	0.024
761	0.024
762	0.022
762	0.022
763	0.021
763	0.019
764	0.017
764	0.016
764	0.014
765	0.013
765	0.012
766	0.011
766	0.01
767	0.009
767	0.008
768	0.006
768	0.005
768	0.004
769	0.003
769	0.002
770	0
770	-0.001
771	-0.002
771	-0.004
771	-0.006
772	-0.007
772	-0.008
773	-0.009
773	-0.01
774	-0.012
774	-0.013
775	-0.015
775	-0.017
775	-0.019
776	-0.021
776	-0.023
777	-0.025
777	-0.027
778	-0.028
778	-0.031
778	-0.033
779	-0.034
779	-0.036
780	-0.038
780	-0.041
781	-0.043
781	-0.046
781	-0.05
782	-0.054
782	-0.058
783	-0.062
783	-0.066
784	-0.071
784	-0.076
784	-0.081
785	-0.087
785	-0.092
786	-0.097
786	-0.102
787	-0.106
787	-0.11
788	-0.115
788	-0.121
788	-0.128
789	-0.135
789	-0.14
790	-0.143
790	-0.147
791	-0.152
791	-0.155
791	-0.158
792	-0.153
792	-0.144
793	-0.14
793	-0.136
794	-0.134
794	-0.136
794	-0.139
795	-0.141
795	-0.141
796	-0.141
796	-0.144
797	-0.152
797	-0.163
797	-0.169
798	-0.175
798	-0.178
799	-0.178
799	-0.178
800	-0.178
800	-0.179
801	-0.182
801	-0.182
801	-0.182
802	-0.183
802	-0.184
803	-0.184
803	-0.184
804	-0.183
804	-0.178
804	-0.172
805	-0.168
805	-0.166
806	-0.163
806	-0.162
807	-0.161
807	-0.161
807	-0.16
808	-0.16
808	-0.161
809	-0.165
809	-0.171
810	-0.175
810	-0.177
810	-0.181
811	-0.184
811	-0.185
812	-0.181
812	-0.179
813	-0.179
813	-0.18
813	-0.182
814	-0.183
814	-0.183
815	-0.18
815	-0.175
816	-0.17
816	-0.166
817	-0.164
817	-0.16
817	-0.152
818	-0.142
818	-0.131
819	-0.119
819	-0.109
820	-0.1
820	-0.093
820	-0.086
821	-0.08
821	-0.074
822	-0.068
822	-0.064
823	-0.06
823	-0.056
823	-0.053
824	-0.05
824	-0.047
825	-0.044
825	-0.04
826	-0.037
826	-0.035
826	-0.033
827	-0.031
827	-0.03
828	-0.028
828	-0.026
829	-0.025
829	-0.023
829	-0.022
830	-0.022
830	-0.021
831	-0.02
831	-0.019
832	-0.019
832	-0.019
832	-0.019
833	-0.02
833	-0.02
834	-0.021
834	-0.021
835	-0.021
835	-0.022
835	-0.022
836	-0.022
836	-0.022
837	-0.022
837	-0.022
838	-0.021
838	-0.02
839	-0.019
839	-0.019
839	-0.018
840	-0.017
840	-0.015
841	-0.014
841	-0.013
842	-0.012
842	-0.011
842	-0.011
843	-0.01
843	-0.009
844	-0.008
844	-0.007
845	-0.007
845	-0.006
845	-0.006
846	-0.005
846	-0.005
847	-0.005
847	-0.005
848	-0.006
848	-0.006
848	-0.007
849	-0.007
849	-0.008
850	-0.008
850	-0.009
851	-0.01
851	-0.011
851	-0.012
852	-0.013
852	-0.013
853	-0.014
853	-0.015
854	-0.015
854	-0.015
854	-0.016
855	-0.016
855	-0.016
856	-0.016
856	-0.016
857	-0.016
857	-0.016
857	-0.016
858	-0.015
858	-0.015
859	-0.014
859	-0.013
860	-0.012
860	-0.012
860	-0.011
861	-0.01
861	-0.009
862	-0.009
862	-0.009
863	-0.009
863	-0.009
863	-0.009
864	-0.009
864	-0.009
865	-0.009
865	-0.009
866	-0.009
866	-0.009
866	-0.008
867	-0.008
867	-0.007
868	-0.006
868	-0.006
869	-0.006
869	-0.006
869	-0.006
870	-0.007
870	-0.007
871	-0.008
871	-0.009
872	-0.01
872	-0.011
872	-0.011
873	-0.012
873	-0.012
874	-0.012
874	-0.012
875	-0.012
875	-0.012
875	-0.011
876	-0.011
876	-0.01
877	-0.01
877	-0.01
878	-0.01
878	-0.01
878	-0.011
879	-0.011
879	-0.012
880	-0.012
880	-0.012
881	-0.013
881	-0.013
881	-0.013
882	-0.013
882	-0.012
883	-0.012
883	-0.011
884	-0.01
884	-0.009
884	-0.008
885	-0.008
885	-0.007
886	-0.006
886	-0.006
887	-0.006
887	-0.006
887	-0.006
888	-0.006
888	-0.006
889	-0.006
889	-0.006
890	-0.006
890	-0.007
890	-0.007
891	-0.007
891	-0.007
892	-0.007
892	-0.007
893	-0.008
893	-0.008
893	-0.008
894	-0.008
894	-0.009
895	-0.009
895	-0.009
895	-0.009
896	-0.009
896	-0.009
897	-0.009
897	-0.009
898	-0.008
898	-0.008
898	-0.008
899	-0.007
899	-0.007
900	-0.006
900	-0.006
901	-0.005
901	-0.004
901	-0.003
902	-0.003
902	-0.002
903	-0.001
903	-0.001
904	-0
904	0
904	0
905	0.001
905	0
906	0
906	-0
907	-0.001
907	-0.001
907	-0.002
908	-0.003
908	-0.003
909	-0.004
909	-0.005
910	-0.005
910	-0.006
910	-0.007
911	-0.008
911	-0.008
912	-0.009
912	-0.009
913	-0.01
913	-0.01
913	-0.011
914	-0.012
914	-0.012
915	-0.013
915	-0.013
916	-0.013
916	-0.013
916	-0.013
917	-0.013
917	-0.012
918	-0.011
918	-0.011
918	-0.009
919	-0.008
919	-0.007
920	-0.005
920	-0.004
921	-0.002
921	-0.001
921	-0
922	0.001
922	0.002
923	0.002
923	0.002
924	0.002
924	0.002
924	0.001
925	-0
925	-0.001
926	-0.002
926	-0.003
927	-0.004
927	-0.004
927	-0.005
928	-0.005
928	-0.005
929	-0.005
929	-0.005
930	-0.004
930	-0.004
930	-0.004
931	-0.004
931	-0.004
932	-0.004
932	-0.004
933	-0.005
933	-0.006
933	-0.007
934	-0.007
934	-0.008
935	-0.009
935	-0.01
935	-0.01
936	-0.011
936	-0.011
937	-0.011
937	-0.011
938	-0.011
938	-0.011
938	-0.011
939	-0.011
939	-0.011
940	-0.011
940	-0.011
941	-0.011
941	-0.012
941	-0.012
942	-0.013
942	-0.013
943	-0.013
943	-0.013
944	-0.013
944	-0.013
944	-0.014
945	-0.014
945	-0.014
946	-0.014
946	-0.014
946	-0.014
947	-0.014
947	-0.015
948	-0.015
948	-0.015
949	-0.015
949	-0.015
949	-0.015
950	-0.014
950	-0.014
951	-0.013
951	-0.012
952	-0.011
952	-0.01
952	-0.009
953	-0.008
953	-0.007
954	-0.007
954	-0.006
955	-0.006
955	-0.005
955	-0.005
956	-0.005
956	-0.005
957	-0.005
957	-0.005
957	-0.006
958	-0.006
958	-0.007
959	-0.007
959	-0.008
960	-0.009
960	-0.01
960	-0.01
961	-0.011
961	-0.012
962	-0.013
962	-0.014
963	-0.015
963	-0.016
963	-0.018
964	-0.019
964	-0.02
965	-0.021
965	-0.022
966	-0.022
966	-0.022
966	-0.022
967	-0.021
967	-0.021
968	-0.02
968	-0.019
968	-0.017
969	-0.016
969	-0.015
970	-0.013
970	-0.012
971	-0.011
971	-0.01
971	-0.009
972	-0.008
972	-0.007
973	-0.006
973	-0.005
974	-0.004
974	-0.003
974	-0.003
975	-0.002
975	-0.002
976	-0.002
976	-0.002
976	-0.002
977	-0.002
977	-0.003
978	-0.004
978	-0.004
979	-0.005
979	-0.006
979	-0.007
980	-0.008
980	-0.009
981	-0.01
981	-0.011
982	-0.011
982	-0.012
982	-0.012
983	-0.012
983	-0.013
984	-0.013
984	-0.013
984	-0.013
985	-0.013
985	-0.013
986	-0.013
986	-0.013
987	-0.013
987	-0.013
987	-0.013
988	-0.012
988	-0.012
989	-0.012
989	-0.011
990	-0.011
990	-0.01
990	-0.01
991	-0.009
991	-0.009
992	-0.009
992	-0.01
992	-0.01
993	-0.011
993	-0.012
994	-0.013
994	-0.014
995	-0.015
995	-0.016
995	-0.017
996	-0.017
996	-0.018
997	-0.018
997	-0.018
997	-0.018
998	-0.018
998	-0.017
999	-0.017
999	-0.016
1000	-0.015
1000	-0.015
1000	-0.015
1001	-0.014
1001	-0.014
1002	-0.015
1002	-0.015
1003	-0.016
1003	-0.017
1003	-0.018
1004	-0.019
1004	-0.02
1005	-0.02
1005	-0.021
1005	-0.022
1006	-0.022
1006	-0.023
1007	-0.023
1007	-0.023
1008	-0.023
1008	-0.023
1008	-0.023
1009	-0.022
1009	-0.022
1010	-0.022
1010	-0.022
1010	-0.021
1011	-0.021
1011	-0.02
1012	-0.019
1012	-0.019
1013	-0.018
1013	-0.018
1013	-0.018
1014	-0.017
1014	-0.017
1015	-0.016
1015	-0.016
1016	-0.015
1016	-0.015
1016	-0.015
1017	-0.015
1017	-0.014
1018	-0.013
1018	-0.013
1018	-0.012
1019	-0.011
1019	-0.011
1020	-0.011
1020	-0.01
1021	-0.01
1021	-0.01
1021	-0.01
1022	-0.01
1022	-0.01
1023	-0.01
1023	-0.01
1023	-0.011
1024	-0.011
1024	-0.012
1025	-0.012
1025	-0.012
1026	-0.013
1026	-0.013
1026	-0.013
1027	-0.013
1027	-0.013
1028	-0.014
1028	-0.014
1028	-0.014
1029	-0.015
1029	-0.015
1030	-0.016
1030	-0.016
1031	-0.017
1031	-0.018
1031	-0.018
1032	-0.019
1032	-0.02
1033	-0.02
1033	-0.02
1033	-0.021
1034	-0.021
1034	-0.022
1035	-0.022
1035	-0.022
1036	-0.022
1036	-0.022
1036	-0.022
1037	-0.022
1037	-0.022
1038	-0.022
1038	-0.021
1039	-0.021
1039	-0.02
1039	-0.019
1040	-0.019
1040	-0.019
1041	-0.019
1041	-0.019
1041	-0.019
1042	-0.019
1042	-0.019
1043	-0.02
1043	-0.02
1044	-0.021
1044	-0.021
1044	-0.021
1045	-0.021
1045	-0.022
1046	-0.021
1046	-0.021
1046	-0.021
1047	-0.021
1047	-0.02
1048	-0.019
1048	-0.019
1049	-0.019
1049	-0.019
1049	-0.019
1050	-0.019
1050	-0.02
1051	-0.02
1051	-0.02
1051	-0.021
1052	-0.021
1052	-0.022
1053	-0.022
1053	-0.023
1053	-0.023
1054	-0.024
1054	-0.024
1055	-0.025
1055	-0.025
1056	-0.026
1056	-0.026
1056	-0.026
1057	-0.027
1057	-0.027
1058	-0.027
1058	-0.027
1058	-0.027
1059	-0.027
1059	-0.026
1060	-0.026
1060	-0.025
1061	-0.025
1061	-0.024
1061	-0.024
1062	-0.024
1062	-0.024
1063	-0.023
1063	-0.023
1063	-0.023
1064	-0.023
1064	-0.023
1065	-0.023
1065	-0.024
1066	-0.024
1066	-0.025
1066	-0.025
1067	-0.026
1067	-0.026
1068	-0.027
1068	-0.028
1068	-0.028
1069	-0.029
1069	-0.029
1070	-0.029
1070	-0.029
1071	-0.029
1071	-0.029
1071	-0.029
1072	-0.029
1072	-0.029
1073	-0.028
1073	-0.027
1073	-0.027
1074	-0.026
1074	-0.026
1075	-0.025
1075	-0.025
1076	-0.025
1076	-0.024
1076	-0.024
1077	-0.024
1077	-0.024
1078	-0.024
1078	-0.024
1078	-0.023
1079	-0.023
1079	-0.023
1080	-0.022
1080	-0.022
1080	-0.021
1081	-0.021
1081	-0.02
1082	-0.02
1082	-0.019
1083	-0.019
1083	-0.019
1083	-0.019
1084	-0.019
1084	-0.018
1085	-0.017
1085	-0.016
1085	-0.015
1086	-0.015
1086	-0.015
1087	-0.014
1087	-0.014
1088	-0.014
1088	-0.013
1088	-0.013
1089	-0.013
1089	-0.014
1090	-0.014
1090	-0.014
1090	-0.014
1091	-0.014
1091	-0.013
1092	-0.013
1092	-0.013
1092	-0.012
1093	-0.012
1093	-0.011
1094	-0.01
1094	-0.009
1095	-0.009
1095	-0.009
1095	-0.007
1096	-0.007
1096	-0.006
1097	-0.005
1097	-0.004
1097	-0.002
1098	-0.001
1098	0
1099	0.001
1099	0.003
1100	0.005
1100	0.006
1100	0.008
1101	0.009
1101	0.011
1102	0.014
1102	0.017
1102	0.02
1103	0.023
1103	0.028
1104	0.032
1104	0.038
1104	0.043
1105	0.049
1105	0.054
1106	0.06
1106	0.066
1107	0.072
1107	0.082
1107	0.093
1108	0.129
1108	0.175
1109	0.241
1109	0.344
1109	0.431
1110	0.598
1110	1.149
1111	-0
1111	-0
