Data from 15c-2a_Absorbance__74__00074.txt Node

Date: Fri Jan 19 09:44:02 CET 2024
User: Marek
Spectrometer: MAYP115816
Trigger mode: 0
Integration Time (sec): 2.000000E-1
Scans to average: 10
Electric dark correction enabled: true
Nonlinearity correction enabled: true
Boxcar width: 5
XAxis mode: Wavelengths
Number of Pixels in Spectrum: 2068
>>>>>Begin Spectral Data<<<<<
199	-1.572
199	-1.416
200	-1.273
200	-1.156
201	-1.089
201	-1.038
202	-0.968
202	-0.911
203	-0.862
203	-0.819
204	-0.793
204	-0.771
205	-0.753
205	-0.743
205	-0.741
206	-0.736
206	-0.732
207	-0.726
207	-0.722
208	-0.721
208	-0.718
209	-0.716
209	-0.712
210	-0.709
210	-0.707
211	-0.706
211	-0.704
212	-0.704
212	-0.704
213	-0.704
213	-0.701
213	-0.7
214	-0.696
214	-0.695
215	-0.693
215	-0.69
216	-0.686
216	-0.686
217	-0.682
217	-0.68
218	-0.677
218	-0.674
219	-0.671
219	-0.67
220	-0.67
220	-0.669
221	-0.668
221	-0.664
221	-0.659
222	-0.657
222	-0.653
223	-0.647
223	-0.644
224	-0.637
224	-0.631
225	-0.623
225	-0.612
226	-0.602
226	-0.593
227	-0.582
227	-0.568
228	-0.554
228	-0.54
229	-0.522
229	-0.502
229	-0.479
230	-0.455
230	-0.428
231	-0.398
231	-0.367
232	-0.334
232	-0.3
233	-0.264
233	-0.227
234	-0.191
234	-0.157
235	-0.122
235	-0.089
236	-0.059
236	-0.03
236	-0.002
237	0.023
237	0.046
238	0.067
238	0.087
239	0.104
239	0.12
240	0.134
240	0.147
241	0.158
241	0.169
242	0.178
242	0.187
243	0.195
243	0.202
243	0.208
244	0.214
244	0.22
245	0.225
245	0.23
246	0.234
246	0.239
247	0.242
247	0.246
248	0.25
248	0.253
249	0.256
249	0.259
250	0.262
250	0.264
250	0.267
251	0.269
251	0.271
252	0.273
252	0.276
253	0.278
253	0.279
254	0.281
254	0.283
255	0.284
255	0.286
256	0.287
256	0.288
257	0.289
257	0.29
258	0.29
258	0.291
258	0.291
259	0.292
259	0.292
260	0.292
260	0.291
261	0.291
261	0.291
262	0.291
262	0.291
263	0.291
263	0.29
264	0.29
264	0.289
265	0.288
265	0.287
265	0.287
266	0.286
266	0.285
267	0.283
267	0.282
268	0.281
268	0.28
269	0.278
269	0.277
270	0.275
270	0.274
271	0.272
271	0.27
272	0.268
272	0.267
272	0.265
273	0.263
273	0.262
274	0.26
274	0.258
275	0.256
275	0.254
276	0.252
276	0.25
277	0.248
277	0.246
278	0.244
278	0.242
278	0.24
279	0.238
279	0.236
280	0.234
280	0.232
281	0.23
281	0.228
282	0.226
282	0.225
283	0.223
283	0.221
284	0.219
284	0.218
285	0.216
285	0.214
285	0.213
286	0.211
286	0.209
287	0.208
287	0.206
288	0.205
288	0.203
289	0.202
289	0.201
290	0.199
290	0.198
291	0.197
291	0.195
292	0.194
292	0.193
292	0.192
293	0.191
293	0.19
294	0.189
294	0.188
295	0.187
295	0.186
296	0.186
296	0.185
297	0.185
297	0.184
298	0.184
298	0.183
298	0.183
299	0.182
299	0.181
300	0.181
300	0.18
301	0.18
301	0.179
302	0.179
302	0.178
303	0.178
303	0.177
304	0.177
304	0.176
305	0.176
305	0.176
305	0.175
306	0.175
306	0.174
307	0.174
307	0.173
308	0.173
308	0.173
309	0.172
309	0.172
310	0.171
310	0.171
311	0.17
311	0.17
311	0.17
312	0.169
312	0.169
313	0.168
313	0.168
314	0.167
314	0.167
315	0.167
315	0.166
316	0.166
316	0.165
317	0.165
317	0.164
318	0.164
318	0.163
318	0.163
319	0.163
319	0.162
320	0.162
320	0.161
321	0.161
321	0.16
322	0.16
322	0.159
323	0.159
323	0.158
324	0.158
324	0.157
324	0.157
325	0.157
325	0.156
326	0.156
326	0.156
327	0.155
327	0.155
328	0.154
328	0.154
329	0.153
329	0.153
330	0.153
330	0.152
330	0.152
331	0.151
331	0.151
332	0.15
332	0.15
333	0.149
333	0.149
334	0.149
334	0.148
335	0.148
335	0.147
336	0.147
336	0.146
336	0.146
337	0.145
337	0.145
338	0.144
338	0.144
339	0.144
339	0.143
340	0.143
340	0.142
341	0.142
341	0.142
342	0.142
342	0.141
342	0.141
343	0.141
343	0.14
344	0.14
344	0.14
345	0.139
345	0.139
346	0.139
346	0.138
347	0.138
347	0.138
348	0.137
348	0.137
348	0.137
349	0.137
349	0.137
350	0.136
350	0.136
351	0.136
351	0.136
352	0.135
352	0.135
353	0.135
353	0.135
354	0.134
354	0.134
354	0.133
355	0.133
355	0.133
356	0.132
356	0.132
357	0.132
357	0.132
358	0.132
358	0.132
359	0.132
359	0.132
360	0.132
360	0.132
360	0.132
361	0.132
361	0.132
362	0.132
362	0.132
363	0.132
363	0.131
364	0.131
364	0.131
365	0.131
365	0.131
366	0.131
366	0.13
366	0.13
367	0.13
367	0.13
368	0.13
368	0.129
369	0.129
369	0.129
370	0.129
370	0.129
371	0.128
371	0.128
372	0.128
372	0.128
372	0.128
373	0.128
373	0.127
374	0.127
374	0.127
375	0.127
375	0.127
376	0.127
376	0.127
377	0.126
377	0.127
378	0.127
378	0.127
378	0.127
379	0.127
379	0.127
380	0.127
380	0.127
381	0.126
381	0.126
382	0.126
382	0.126
383	0.126
383	0.126
383	0.126
384	0.125
384	0.125
385	0.125
385	0.124
386	0.124
386	0.124
387	0.124
387	0.124
388	0.124
388	0.124
389	0.123
389	0.123
389	0.123
390	0.123
390	0.123
391	0.123
391	0.123
392	0.123
392	0.123
393	0.123
393	0.122
394	0.122
394	0.122
394	0.122
395	0.122
395	0.122
396	0.121
396	0.121
397	0.121
397	0.121
398	0.121
398	0.121
399	0.121
399	0.121
400	0.12
400	0.12
400	0.12
401	0.12
401	0.12
402	0.119
402	0.119
403	0.119
403	0.119
404	0.119
404	0.119
405	0.118
405	0.118
405	0.118
406	0.118
406	0.117
407	0.117
407	0.116
408	0.116
408	0.116
409	0.116
409	0.115
410	0.115
410	0.115
411	0.115
411	0.115
411	0.115
412	0.115
412	0.115
413	0.115
413	0.115
414	0.115
414	0.115
415	0.115
415	0.115
416	0.115
416	0.115
416	0.114
417	0.114
417	0.114
418	0.114
418	0.114
419	0.114
419	0.114
420	0.114
420	0.114
421	0.114
421	0.114
421	0.114
422	0.114
422	0.114
423	0.114
423	0.114
424	0.114
424	0.114
425	0.113
425	0.113
426	0.113
426	0.113
427	0.113
427	0.113
427	0.113
428	0.113
428	0.113
429	0.113
429	0.113
430	0.113
430	0.113
431	0.113
431	0.113
432	0.113
432	0.112
432	0.112
433	0.111
433	0.111
434	0.111
434	0.111
435	0.111
435	0.111
436	0.111
436	0.111
437	0.111
437	0.11
437	0.11
438	0.11
438	0.11
439	0.11
439	0.11
440	0.109
440	0.109
441	0.109
441	0.109
442	0.109
442	0.109
442	0.11
443	0.11
443	0.11
444	0.11
444	0.11
445	0.11
445	0.11
446	0.109
446	0.109
447	0.109
447	0.109
447	0.109
448	0.109
448	0.109
449	0.109
449	0.109
450	0.109
450	0.109
451	0.109
451	0.109
452	0.109
452	0.108
452	0.108
453	0.108
453	0.108
454	0.108
454	0.108
455	0.107
455	0.107
456	0.107
456	0.107
457	0.107
457	0.107
458	0.107
458	0.107
458	0.107
459	0.107
459	0.107
460	0.106
460	0.106
461	0.106
461	0.106
462	0.106
462	0.107
463	0.107
463	0.107
463	0.107
464	0.108
464	0.108
465	0.108
465	0.108
466	0.108
466	0.108
467	0.108
467	0.108
467	0.108
468	0.108
468	0.107
469	0.107
469	0.107
470	0.106
470	0.106
471	0.106
471	0.107
472	0.107
472	0.107
472	0.107
473	0.108
473	0.108
474	0.109
474	0.109
475	0.11
475	0.11
476	0.111
476	0.111
477	0.111
477	0.111
477	0.111
478	0.111
478	0.111
479	0.111
479	0.112
480	0.112
480	0.112
481	0.113
481	0.113
482	0.114
482	0.115
482	0.115
483	0.116
483	0.118
484	0.119
484	0.12
485	0.121
485	0.122
486	0.122
486	0.123
487	0.123
487	0.124
487	0.124
488	0.124
488	0.124
489	0.125
489	0.125
490	0.125
490	0.125
491	0.125
491	0.126
492	0.126
492	0.127
492	0.127
493	0.128
493	0.129
494	0.13
494	0.131
495	0.132
495	0.133
496	0.134
496	0.135
496	0.136
497	0.138
497	0.139
498	0.14
498	0.141
499	0.141
499	0.142
500	0.143
500	0.144
501	0.145
501	0.146
501	0.147
502	0.148
502	0.149
503	0.15
503	0.151
504	0.152
504	0.153
505	0.154
505	0.155
506	0.155
506	0.156
506	0.157
507	0.157
507	0.158
508	0.159
508	0.16
509	0.16
509	0.161
510	0.162
510	0.163
511	0.164
511	0.164
511	0.165
512	0.165
512	0.165
513	0.166
513	0.166
514	0.166
514	0.167
515	0.167
515	0.167
515	0.167
516	0.168
516	0.168
517	0.168
517	0.169
518	0.169
518	0.17
519	0.17
519	0.17
520	0.17
520	0.169
520	0.169
521	0.168
521	0.168
522	0.167
522	0.166
523	0.165
523	0.165
524	0.164
524	0.164
524	0.164
525	0.165
525	0.165
526	0.166
526	0.167
527	0.168
527	0.169
528	0.169
528	0.17
529	0.171
529	0.171
529	0.171
530	0.171
530	0.171
531	0.171
531	0.17
532	0.17
532	0.17
533	0.17
533	0.169
533	0.168
534	0.168
534	0.167
535	0.167
535	0.166
536	0.165
536	0.165
537	0.164
537	0.163
538	0.162
538	0.161
538	0.16
539	0.159
539	0.158
540	0.157
540	0.156
541	0.155
541	0.154
542	0.153
542	0.151
542	0.15
543	0.149
543	0.148
544	0.147
544	0.146
545	0.145
545	0.144
546	0.143
546	0.142
547	0.141
547	0.14
547	0.139
548	0.138
548	0.136
549	0.135
549	0.134
550	0.133
550	0.132
551	0.131
551	0.129
551	0.128
552	0.128
552	0.127
553	0.126
553	0.126
554	0.125
554	0.124
555	0.122
555	0.121
556	0.12
556	0.118
556	0.117
557	0.115
557	0.114
558	0.112
558	0.111
559	0.109
559	0.108
560	0.108
560	0.107
560	0.106
561	0.105
561	0.105
562	0.104
562	0.103
563	0.102
563	0.101
564	0.1
564	0.099
564	0.097
565	0.096
565	0.096
566	0.095
566	0.094
567	0.093
567	0.093
568	0.093
568	0.093
568	0.093
569	0.093
569	0.092
570	0.092
570	0.092
571	0.091
571	0.091
572	0.091
572	0.09
573	0.09
573	0.089
573	0.089
574	0.088
574	0.087
575	0.087
575	0.087
576	0.086
576	0.086
577	0.086
577	0.085
577	0.085
578	0.084
578	0.084
579	0.084
579	0.083
580	0.083
580	0.082
581	0.081
581	0.08
581	0.08
582	0.079
582	0.079
583	0.079
583	0.079
584	0.078
584	0.077
585	0.076
585	0.075
585	0.074
586	0.074
586	0.073
587	0.072
587	0.071
588	0.07
588	0.069
589	0.068
589	0.067
590	0.067
590	0.067
590	0.067
591	0.067
591	0.066
592	0.066
592	0.066
593	0.066
593	0.066
594	0.065
594	0.065
594	0.064
595	0.064
595	0.063
596	0.063
596	0.062
597	0.063
597	0.063
598	0.063
598	0.064
598	0.064
599	0.064
599	0.064
600	0.063
600	0.063
601	0.063
601	0.063
602	0.062
602	0.062
602	0.062
603	0.061
603	0.062
604	0.062
604	0.062
605	0.063
605	0.063
606	0.064
606	0.064
606	0.063
607	0.063
607	0.063
608	0.062
608	0.062
609	0.061
609	0.06
610	0.06
610	0.059
610	0.058
611	0.058
611	0.058
612	0.058
612	0.058
613	0.059
613	0.059
614	0.06
614	0.06
614	0.06
615	0.061
615	0.061
616	0.062
616	0.062
617	0.062
617	0.063
618	0.063
618	0.062
618	0.062
619	0.063
619	0.063
620	0.063
620	0.064
621	0.064
621	0.064
622	0.064
622	0.064
622	0.064
623	0.065
623	0.065
624	0.065
624	0.065
625	0.065
625	0.065
626	0.065
626	0.065
626	0.066
627	0.066
627	0.067
628	0.068
628	0.069
629	0.07
629	0.071
630	0.072
630	0.072
630	0.073
631	0.073
631	0.073
632	0.074
632	0.074
633	0.074
633	0.075
634	0.076
634	0.077
634	0.078
635	0.079
635	0.08
636	0.08
636	0.081
637	0.082
637	0.082
638	0.083
638	0.083
638	0.084
639	0.085
639	0.085
640	0.086
640	0.088
641	0.089
641	0.091
642	0.093
642	0.094
642	0.096
643	0.098
643	0.099
644	0.101
644	0.102
645	0.104
645	0.105
646	0.107
646	0.109
646	0.111
647	0.113
647	0.115
648	0.118
648	0.12
649	0.122
649	0.125
650	0.127
650	0.129
650	0.131
651	0.133
651	0.134
652	0.136
652	0.138
653	0.14
653	0.144
653	0.146
654	0.117
654	0.095
655	0.1
655	0.101
656	0.103
656	0.104
657	0.105
657	0.106
657	0.107
658	0.107
658	0.103
659	0.13
659	0.168
660	0.169
660	0.171
661	0.173
661	0.174
661	0.177
662	0.179
662	0.181
663	0.183
663	0.185
664	0.188
664	0.19
665	0.192
665	0.194
665	0.196
666	0.198
666	0.199
667	0.201
667	0.203
668	0.205
668	0.206
669	0.208
669	0.209
669	0.211
670	0.212
670	0.213
671	0.214
671	0.215
672	0.216
672	0.217
672	0.218
673	0.219
673	0.22
674	0.222
674	0.223
675	0.224
675	0.226
676	0.227
676	0.229
676	0.23
677	0.232
677	0.233
678	0.234
678	0.236
679	0.237
679	0.238
680	0.239
680	0.24
680	0.241
681	0.242
681	0.242
682	0.243
682	0.244
683	0.245
683	0.246
684	0.247
684	0.247
684	0.248
685	0.248
685	0.248
686	0.249
686	0.249
687	0.249
687	0.249
687	0.248
688	0.247
688	0.247
689	0.246
689	0.246
690	0.245
690	0.245
691	0.245
691	0.244
691	0.244
692	0.244
692	0.244
693	0.243
693	0.243
694	0.242
694	0.241
695	0.241
695	0.24
695	0.239
696	0.238
696	0.237
697	0.235
697	0.234
698	0.232
698	0.231
698	0.23
699	0.229
699	0.227
700	0.226
700	0.224
701	0.223
701	0.221
702	0.22
702	0.219
702	0.218
703	0.217
703	0.215
704	0.214
704	0.214
705	0.213
705	0.212
705	0.212
706	0.211
706	0.21
707	0.21
707	0.208
708	0.207
708	0.206
709	0.205
709	0.203
709	0.201
710	0.199
710	0.196
711	0.194
711	0.192
712	0.189
712	0.187
713	0.185
713	0.182
713	0.18
714	0.178
714	0.177
715	0.175
715	0.173
716	0.172
716	0.17
716	0.169
717	0.167
717	0.166
718	0.164
718	0.162
719	0.161
719	0.159
720	0.157
720	0.156
720	0.154
721	0.152
721	0.151
722	0.149
722	0.148
723	0.146
723	0.145
723	0.142
724	0.14
724	0.138
725	0.136
725	0.134
726	0.132
726	0.13
727	0.129
727	0.127
727	0.126
728	0.124
728	0.123
729	0.123
729	0.123
730	0.122
730	0.121
730	0.121
731	0.12
731	0.119
732	0.119
732	0.118
733	0.117
733	0.116
734	0.115
734	0.114
734	0.113
735	0.111
735	0.109
736	0.108
736	0.106
737	0.104
737	0.103
737	0.101
738	0.099
738	0.097
739	0.095
739	0.093
740	0.092
740	0.091
741	0.09
741	0.088
741	0.087
742	0.085
742	0.083
743	0.081
743	0.08
744	0.079
744	0.077
744	0.076
745	0.074
745	0.073
746	0.072
746	0.071
747	0.071
747	0.071
748	0.071
748	0.07
748	0.069
749	0.069
749	0.068
750	0.067
750	0.065
751	0.064
751	0.063
751	0.062
752	0.06
752	0.059
753	0.057
753	0.056
754	0.055
754	0.054
754	0.053
755	0.053
755	0.053
756	0.052
756	0.052
757	0.051
757	0.051
758	0.05
758	0.05
758	0.049
759	0.049
759	0.048
760	0.046
760	0.045
761	0.043
761	0.042
761	0.041
762	0.039
762	0.038
763	0.037
763	0.036
764	0.034
764	0.032
764	0.03
765	0.028
765	0.026
766	0.024
766	0.022
767	0.02
767	0.018
768	0.016
768	0.013
768	0.011
769	0.01
769	0.008
770	0.007
770	0.006
771	0.005
771	0.003
771	0.001
772	0
772	-0.001
773	-0.002
773	-0.003
774	-0.005
774	-0.007
775	-0.008
775	-0.01
775	-0.013
776	-0.015
776	-0.018
777	-0.02
777	-0.023
778	-0.026
778	-0.029
778	-0.032
779	-0.035
779	-0.038
780	-0.041
780	-0.044
781	-0.048
781	-0.053
781	-0.058
782	-0.063
782	-0.069
783	-0.074
783	-0.079
784	-0.085
784	-0.092
784	-0.099
785	-0.106
785	-0.113
786	-0.119
786	-0.124
787	-0.126
787	-0.129
788	-0.134
788	-0.14
788	-0.146
789	-0.151
789	-0.154
790	-0.154
790	-0.155
791	-0.157
791	-0.159
791	-0.161
792	-0.156
792	-0.146
793	-0.14
793	-0.135
794	-0.134
794	-0.135
794	-0.139
795	-0.141
795	-0.14
796	-0.141
796	-0.143
797	-0.152
797	-0.162
797	-0.169
798	-0.174
798	-0.177
799	-0.178
799	-0.177
800	-0.177
800	-0.179
801	-0.181
801	-0.182
801	-0.182
802	-0.182
802	-0.183
803	-0.184
803	-0.184
804	-0.183
804	-0.178
804	-0.171
805	-0.167
805	-0.165
806	-0.163
806	-0.162
807	-0.161
807	-0.16
807	-0.16
808	-0.159
808	-0.16
809	-0.165
809	-0.17
810	-0.174
810	-0.177
810	-0.18
811	-0.183
811	-0.184
812	-0.181
812	-0.178
813	-0.179
813	-0.18
813	-0.181
814	-0.182
814	-0.183
815	-0.181
815	-0.177
816	-0.173
816	-0.169
817	-0.167
817	-0.163
817	-0.155
818	-0.146
818	-0.134
819	-0.123
819	-0.112
820	-0.102
820	-0.094
820	-0.086
821	-0.079
821	-0.072
822	-0.066
822	-0.061
823	-0.057
823	-0.053
823	-0.049
824	-0.044
824	-0.04
825	-0.035
825	-0.03
826	-0.026
826	-0.023
826	-0.02
827	-0.017
827	-0.015
828	-0.012
828	-0.01
829	-0.008
829	-0.007
829	-0.006
830	-0.005
830	-0.005
831	-0.004
831	-0.004
832	-0.004
832	-0.003
832	-0.004
833	-0.004
833	-0.004
834	-0.004
834	-0.004
835	-0.004
835	-0.004
835	-0.004
836	-0.003
836	-0.002
837	-0.002
837	-0.001
838	-0
838	0.001
839	0.002
839	0.003
839	0.004
840	0.005
840	0.006
841	0.007
841	0.007
842	0.008
842	0.009
842	0.009
843	0.01
843	0.01
844	0.011
844	0.011
845	0.011
845	0.011
845	0.011
846	0.011
846	0.01
847	0.01
847	0.009
848	0.008
848	0.007
848	0.005
849	0.004
849	0.003
850	0.003
850	0.002
851	0.002
851	0.002
851	0.002
852	0.002
852	0.003
853	0.003
853	0.004
854	0.004
854	0.005
854	0.005
855	0.006
855	0.006
856	0.006
856	0.007
857	0.007
857	0.007
857	0.008
858	0.008
858	0.008
859	0.008
859	0.009
860	0.009
860	0.01
860	0.01
861	0.011
861	0.011
862	0.011
862	0.011
863	0.011
863	0.011
863	0.01
864	0.01
864	0.01
865	0.01
865	0.01
866	0.009
866	0.009
866	0.009
867	0.01
867	0.01
868	0.01
868	0.01
869	0.01
869	0.01
869	0.011
870	0.011
870	0.011
871	0.011
871	0.011
872	0.011
872	0.012
872	0.012
873	0.012
873	0.012
874	0.012
874	0.012
875	0.012
875	0.012
875	0.012
876	0.011
876	0.011
877	0.01
877	0.009
878	0.008
878	0.007
878	0.007
879	0.006
879	0.005
880	0.005
880	0.005
881	0.005
881	0.005
881	0.005
882	0.006
882	0.007
883	0.008
883	0.009
884	0.01
884	0.012
884	0.013
885	0.014
885	0.015
886	0.015
886	0.016
887	0.016
887	0.017
887	0.017
888	0.016
888	0.016
889	0.016
889	0.016
890	0.016
890	0.015
890	0.015
891	0.015
891	0.015
892	0.015
892	0.015
893	0.016
893	0.016
893	0.016
894	0.016
894	0.016
895	0.016
895	0.016
895	0.016
896	0.016
896	0.016
897	0.016
897	0.016
898	0.015
898	0.015
898	0.015
899	0.015
899	0.014
900	0.014
900	0.014
901	0.013
901	0.013
901	0.012
902	0.012
902	0.011
903	0.011
903	0.01
904	0.01
904	0.009
904	0.009
905	0.009
905	0.008
906	0.008
906	0.008
907	0.009
907	0.009
907	0.01
908	0.01
908	0.01
909	0.011
909	0.011
910	0.011
910	0.011
910	0.011
911	0.011
911	0.01
912	0.01
912	0.01
913	0.01
913	0.011
913	0.011
914	0.011
914	0.011
915	0.012
915	0.012
916	0.013
916	0.013
916	0.013
917	0.013
917	0.013
918	0.013
918	0.014
918	0.014
919	0.014
919	0.014
920	0.014
920	0.014
921	0.014
921	0.014
921	0.014
922	0.014
922	0.014
923	0.014
923	0.014
924	0.013
924	0.012
924	0.012
925	0.011
925	0.01
926	0.009
926	0.008
927	0.007
927	0.007
927	0.006
928	0.006
928	0.006
929	0.006
929	0.006
930	0.006
930	0.007
930	0.007
931	0.008
931	0.008
932	0.008
932	0.008
933	0.008
933	0.008
933	0.007
934	0.007
934	0.007
935	0.006
935	0.006
935	0.005
936	0.005
936	0.005
937	0.005
937	0.006
938	0.006
938	0.007
938	0.007
939	0.008
939	0.008
940	0.008
940	0.009
941	0.009
941	0.009
941	0.008
942	0.008
942	0.009
943	0.009
943	0.009
944	0.009
944	0.01
944	0.01
945	0.011
945	0.011
946	0.011
946	0.012
946	0.012
947	0.011
947	0.011
948	0.011
948	0.01
949	0.009
949	0.009
949	0.008
950	0.008
950	0.008
951	0.007
951	0.007
952	0.007
952	0.007
952	0.006
953	0.006
953	0.006
954	0.006
954	0.005
955	0.005
955	0.004
955	0.004
956	0.003
956	0.003
957	0.002
957	0.002
957	0.001
958	0.001
958	0.001
959	0.001
959	0.001
960	0.001
960	0.001
960	0.001
961	0.001
961	0.001
962	0.001
962	0.001
963	0.001
963	0.001
963	0.001
964	0.001
964	0
965	0.001
965	0.001
966	0.001
966	0.001
966	0.001
967	0.001
967	0.001
968	0.001
968	0.001
968	0.002
969	0.002
969	0.002
970	0.002
970	0.001
971	0.001
971	0.001
971	0.001
972	0.002
972	0.003
973	0.003
973	0.004
974	0.005
974	0.005
974	0.006
975	0.007
975	0.008
976	0.009
976	0.01
976	0.011
977	0.011
977	0.012
978	0.012
978	0.012
979	0.013
979	0.013
979	0.013
980	0.012
980	0.012
981	0.012
981	0.012
982	0.012
982	0.012
982	0.012
983	0.012
983	0.012
984	0.011
984	0.011
984	0.011
985	0.011
985	0.01
986	0.009
986	0.009
987	0.009
987	0.009
987	0.008
988	0.009
988	0.009
989	0.009
989	0.01
990	0.01
990	0.01
990	0.011
991	0.011
991	0.011
992	0.011
992	0.011
992	0.011
993	0.01
993	0.009
994	0.009
994	0.008
995	0.007
995	0.007
995	0.006
996	0.006
996	0.006
997	0.007
997	0.007
997	0.008
998	0.009
998	0.009
999	0.01
999	0.011
1000	0.011
1000	0.012
1000	0.012
1001	0.012
1001	0.012
1002	0.011
1002	0.01
1003	0.01
1003	0.009
1003	0.008
1004	0.008
1004	0.007
1005	0.007
1005	0.007
1005	0.007
1006	0.007
1006	0.007
1007	0.007
1007	0.007
1008	0.007
1008	0.007
1008	0.007
1009	0.007
1009	0.006
1010	0.006
1010	0.005
1010	0.004
1011	0.004
1011	0.003
1012	0.003
1012	0.003
1013	0.003
1013	0.003
1013	0.003
1014	0.003
1014	0.003
1015	0.004
1015	0.004
1016	0.005
1016	0.005
1016	0.005
1017	0.005
1017	0.005
1018	0.005
1018	0.005
1018	0.005
1019	0.005
1019	0.005
1020	0.005
1020	0.005
1021	0.005
1021	0.005
1021	0.005
1022	0.005
1022	0.005
1023	0.005
1023	0.005
1023	0.005
1024	0.005
1024	0.005
1025	0.005
1025	0.005
1026	0.005
1026	0.005
1026	0.005
1027	0.005
1027	0.005
1028	0.005
1028	0.004
1028	0.004
1029	0.003
1029	0.003
1030	0.002
1030	0.001
1031	0
1031	-0.001
1031	-0.001
1032	-0.002
1032	-0.003
1033	-0.003
1033	-0.004
1033	-0.004
1034	-0.004
1034	-0.004
1035	-0.004
1035	-0.004
1036	-0.004
1036	-0.003
1036	-0.003
1037	-0.003
1037	-0.002
1038	-0.002
1038	-0.002
1039	-0.001
1039	-0.001
1039	-0
1040	-0
1040	0
1041	0
1041	0.001
1041	0.001
1042	0.001
1042	0.001
1043	0.001
1043	0.001
1044	0.001
1044	0.001
1044	0.002
1045	0.002
1045	0.002
1046	0.002
1046	0.003
1046	0.004
1047	0.005
1047	0.005
1048	0.006
1048	0.007
1049	0.008
1049	0.009
1049	0.01
1050	0.01
1050	0.011
1051	0.011
1051	0.012
1051	0.012
1052	0.013
1052	0.013
1053	0.014
1053	0.014
1053	0.014
1054	0.014
1054	0.014
1055	0.014
1055	0.014
1056	0.014
1056	0.014
1056	0.013
1057	0.013
1057	0.013
1058	0.013
1058	0.013
1058	0.012
1059	0.013
1059	0.013
1060	0.013
1060	0.013
1061	0.013
1061	0.013
1061	0.013
1062	0.013
1062	0.012
1063	0.012
1063	0.012
1063	0.012
1064	0.011
1064	0.011
1065	0.011
1065	0.01
1066	0.01
1066	0.01
1066	0.01
1067	0.01
1067	0.009
1068	0.009
1068	0.009
1068	0.009
1069	0.009
1069	0.009
1070	0.01
1070	0.011
1071	0.012
1071	0.013
1071	0.013
1072	0.014
1072	0.015
1073	0.016
1073	0.017
1073	0.019
1074	0.019
1074	0.02
1075	0.02
1075	0.021
1076	0.022
1076	0.023
1076	0.023
1077	0.024
1077	0.024
1078	0.024
1078	0.025
1078	0.026
1079	0.026
1079	0.027
1080	0.028
1080	0.028
1080	0.029
1081	0.03
1081	0.03
1082	0.031
1082	0.032
1083	0.033
1083	0.033
1083	0.033
1084	0.035
1084	0.035
1085	0.036
1085	0.038
1085	0.039
1086	0.039
1086	0.04
1087	0.041
1087	0.042
1088	0.044
1088	0.044
1088	0.046
1089	0.046
1089	0.047
1090	0.048
1090	0.05
1090	0.052
1091	0.053
1091	0.055
1092	0.057
1092	0.059
1092	0.06
1093	0.061
1093	0.063
1094	0.065
1094	0.067
1095	0.069
1095	0.071
1095	0.074
1096	0.077
1096	0.079
1097	0.082
1097	0.086
1097	0.09
1098	0.094
1098	0.098
1099	0.101
1099	0.105
1100	0.11
1100	0.114
1100	0.119
1101	0.125
1101	0.131
1102	0.139
1102	0.148
1102	0.156
1103	0.166
1103	0.178
1104	0.19
1104	0.202
1104	0.217
1105	0.233
1105	0.249
1106	0.265
1106	0.283
1107	0.305
1107	0.335
1107	0.37
1108	0.473
1108	0.642
1109	1.041
1109	-0
1109	-0
1110	-0
1110	-0
1111	-0
1111	-0
