Data from 15c-2a_Absorbance__1388__01388.txt Node

Date: Fri Jan 19 10:27:50 CET 2024
User: Marek
Spectrometer: MAYP115816
Trigger mode: 0
Integration Time (sec): 2.000000E-1
Scans to average: 10
Electric dark correction enabled: true
Nonlinearity correction enabled: true
Boxcar width: 5
XAxis mode: Wavelengths
Number of Pixels in Spectrum: 2068
>>>>>Begin Spectral Data<<<<<
199	-1.448
199	-1.304
200	-1.169
200	-1.056
201	-0.993
201	-0.944
202	-0.881
202	-0.832
203	-0.791
203	-0.756
204	-0.732
204	-0.71
205	-0.692
205	-0.682
205	-0.682
206	-0.678
206	-0.676
207	-0.672
207	-0.668
208	-0.667
208	-0.665
209	-0.663
209	-0.661
210	-0.659
210	-0.658
211	-0.657
211	-0.655
212	-0.656
212	-0.656
213	-0.656
213	-0.652
213	-0.653
214	-0.649
214	-0.647
215	-0.645
215	-0.644
216	-0.641
216	-0.643
217	-0.637
217	-0.636
218	-0.634
218	-0.632
219	-0.628
219	-0.629
220	-0.628
220	-0.629
221	-0.628
221	-0.624
221	-0.619
222	-0.616
222	-0.613
223	-0.608
223	-0.606
224	-0.6
224	-0.593
225	-0.586
225	-0.575
226	-0.566
226	-0.556
227	-0.544
227	-0.533
228	-0.519
228	-0.505
229	-0.487
229	-0.467
229	-0.443
230	-0.418
230	-0.39
231	-0.359
231	-0.326
232	-0.294
232	-0.258
233	-0.221
233	-0.182
234	-0.147
234	-0.11
235	-0.076
235	-0.044
236	-0.013
236	0.017
236	0.044
237	0.07
237	0.093
238	0.115
238	0.134
239	0.152
239	0.167
240	0.181
240	0.194
241	0.206
241	0.216
242	0.225
242	0.233
243	0.241
243	0.247
243	0.253
244	0.259
244	0.265
245	0.269
245	0.273
246	0.278
246	0.282
247	0.285
247	0.288
248	0.292
248	0.295
249	0.298
249	0.3
250	0.303
250	0.305
250	0.308
251	0.31
251	0.312
252	0.314
252	0.316
253	0.318
253	0.319
254	0.32
254	0.322
255	0.323
255	0.325
256	0.326
256	0.327
257	0.328
257	0.328
258	0.329
258	0.329
258	0.33
259	0.33
259	0.33
260	0.33
260	0.329
261	0.329
261	0.329
262	0.329
262	0.328
263	0.328
263	0.328
264	0.327
264	0.326
265	0.326
265	0.325
265	0.324
266	0.323
266	0.322
267	0.32
267	0.319
268	0.318
268	0.316
269	0.314
269	0.313
270	0.311
270	0.309
271	0.307
271	0.305
272	0.304
272	0.302
272	0.3
273	0.298
273	0.296
274	0.294
274	0.292
275	0.29
275	0.288
276	0.286
276	0.284
277	0.282
277	0.28
278	0.277
278	0.275
278	0.273
279	0.271
279	0.268
280	0.266
280	0.264
281	0.262
281	0.259
282	0.257
282	0.256
283	0.254
283	0.252
284	0.25
284	0.248
285	0.247
285	0.245
285	0.243
286	0.241
286	0.24
287	0.238
287	0.236
288	0.235
288	0.233
289	0.231
289	0.23
290	0.228
290	0.227
291	0.225
291	0.224
292	0.223
292	0.222
292	0.22
293	0.219
293	0.218
294	0.217
294	0.216
295	0.215
295	0.215
296	0.214
296	0.213
297	0.212
297	0.212
298	0.211
298	0.21
298	0.21
299	0.209
299	0.208
300	0.208
300	0.207
301	0.206
301	0.206
302	0.205
302	0.204
303	0.204
303	0.203
304	0.202
304	0.202
305	0.201
305	0.201
305	0.2
306	0.2
306	0.199
307	0.198
307	0.198
308	0.197
308	0.197
309	0.196
309	0.196
310	0.195
310	0.194
311	0.194
311	0.194
311	0.193
312	0.193
312	0.192
313	0.191
313	0.191
314	0.19
314	0.19
315	0.189
315	0.188
316	0.188
316	0.187
317	0.186
317	0.186
318	0.185
318	0.185
318	0.184
319	0.184
319	0.183
320	0.183
320	0.182
321	0.181
321	0.181
322	0.18
322	0.18
323	0.179
323	0.178
324	0.178
324	0.177
324	0.177
325	0.176
325	0.176
326	0.175
326	0.175
327	0.174
327	0.173
328	0.173
328	0.172
329	0.172
329	0.171
330	0.171
330	0.17
330	0.17
331	0.169
331	0.169
332	0.168
332	0.168
333	0.167
333	0.167
334	0.166
334	0.166
335	0.165
335	0.165
336	0.164
336	0.164
336	0.163
337	0.162
337	0.162
338	0.162
338	0.161
339	0.161
339	0.16
340	0.16
340	0.159
341	0.159
341	0.159
342	0.159
342	0.158
342	0.158
343	0.157
343	0.157
344	0.157
344	0.157
345	0.156
345	0.156
346	0.155
346	0.155
347	0.154
347	0.154
348	0.154
348	0.154
348	0.153
349	0.153
349	0.152
350	0.152
350	0.152
351	0.152
351	0.152
352	0.151
352	0.151
353	0.151
353	0.15
354	0.15
354	0.15
354	0.149
355	0.149
355	0.149
356	0.149
356	0.148
357	0.148
357	0.148
358	0.148
358	0.147
359	0.147
359	0.147
360	0.147
360	0.147
360	0.147
361	0.147
361	0.147
362	0.147
362	0.147
363	0.146
363	0.146
364	0.146
364	0.146
365	0.146
365	0.145
366	0.145
366	0.145
366	0.145
367	0.145
367	0.144
368	0.145
368	0.144
369	0.144
369	0.144
370	0.144
370	0.144
371	0.144
371	0.144
372	0.143
372	0.143
372	0.143
373	0.142
373	0.142
374	0.142
374	0.142
375	0.142
375	0.142
376	0.142
376	0.142
377	0.142
377	0.142
378	0.142
378	0.142
378	0.142
379	0.142
379	0.142
380	0.142
380	0.142
381	0.141
381	0.141
382	0.141
382	0.141
383	0.14
383	0.14
383	0.14
384	0.14
384	0.14
385	0.139
385	0.139
386	0.139
386	0.139
387	0.139
387	0.139
388	0.139
388	0.139
389	0.138
389	0.138
389	0.138
390	0.138
390	0.138
391	0.138
391	0.138
392	0.138
392	0.137
393	0.137
393	0.137
394	0.137
394	0.137
394	0.137
395	0.137
395	0.136
396	0.136
396	0.136
397	0.136
397	0.136
398	0.136
398	0.135
399	0.135
399	0.135
400	0.135
400	0.135
400	0.135
401	0.134
401	0.134
402	0.134
402	0.133
403	0.133
403	0.133
404	0.133
404	0.133
405	0.133
405	0.133
405	0.133
406	0.133
406	0.133
407	0.132
407	0.132
408	0.132
408	0.131
409	0.131
409	0.131
410	0.131
410	0.131
411	0.131
411	0.131
411	0.131
412	0.131
412	0.13
413	0.13
413	0.13
414	0.13
414	0.13
415	0.129
415	0.129
416	0.129
416	0.129
416	0.128
417	0.128
417	0.128
418	0.129
418	0.129
419	0.129
419	0.129
420	0.129
420	0.129
421	0.129
421	0.129
421	0.129
422	0.129
422	0.129
423	0.129
423	0.129
424	0.128
424	0.128
425	0.128
425	0.128
426	0.128
426	0.127
427	0.127
427	0.128
427	0.128
428	0.128
428	0.128
429	0.128
429	0.128
430	0.128
430	0.128
431	0.128
431	0.127
432	0.127
432	0.126
432	0.126
433	0.125
433	0.125
434	0.124
434	0.124
435	0.124
435	0.124
436	0.124
436	0.124
437	0.124
437	0.125
437	0.125
438	0.124
438	0.124
439	0.124
439	0.124
440	0.124
440	0.124
441	0.124
441	0.124
442	0.124
442	0.124
442	0.124
443	0.125
443	0.125
444	0.125
444	0.125
445	0.125
445	0.125
446	0.125
446	0.125
447	0.125
447	0.125
447	0.124
448	0.124
448	0.124
449	0.124
449	0.124
450	0.124
450	0.124
451	0.124
451	0.124
452	0.123
452	0.123
452	0.123
453	0.123
453	0.123
454	0.123
454	0.123
455	0.123
455	0.123
456	0.123
456	0.123
457	0.123
457	0.123
458	0.123
458	0.123
458	0.124
459	0.124
459	0.123
460	0.123
460	0.123
461	0.123
461	0.123
462	0.123
462	0.124
463	0.124
463	0.124
463	0.125
464	0.125
464	0.125
465	0.125
465	0.126
466	0.126
466	0.126
467	0.126
467	0.126
467	0.125
468	0.125
468	0.125
469	0.125
469	0.125
470	0.125
470	0.126
471	0.126
471	0.126
472	0.126
472	0.126
472	0.127
473	0.128
473	0.128
474	0.128
474	0.129
475	0.129
475	0.129
476	0.129
476	0.13
477	0.13
477	0.13
477	0.131
478	0.131
478	0.131
479	0.132
479	0.132
480	0.133
480	0.133
481	0.134
481	0.135
482	0.135
482	0.136
482	0.137
483	0.139
483	0.141
484	0.142
484	0.142
485	0.143
485	0.144
486	0.144
486	0.145
487	0.145
487	0.146
487	0.146
488	0.146
488	0.146
489	0.146
489	0.147
490	0.148
490	0.149
491	0.15
491	0.151
492	0.151
492	0.152
492	0.153
493	0.154
493	0.155
494	0.157
494	0.158
495	0.159
495	0.16
496	0.162
496	0.163
496	0.164
497	0.165
497	0.166
498	0.168
498	0.168
499	0.169
499	0.17
500	0.171
500	0.172
501	0.174
501	0.175
501	0.176
502	0.178
502	0.179
503	0.18
503	0.182
504	0.183
504	0.184
505	0.185
505	0.186
506	0.187
506	0.188
506	0.189
507	0.19
507	0.191
508	0.192
508	0.193
509	0.194
509	0.195
510	0.196
510	0.197
511	0.198
511	0.199
511	0.2
512	0.201
512	0.201
513	0.202
513	0.202
514	0.202
514	0.203
515	0.203
515	0.203
515	0.203
516	0.203
516	0.204
517	0.204
517	0.204
518	0.205
518	0.205
519	0.205
519	0.205
520	0.204
520	0.204
520	0.204
521	0.203
521	0.203
522	0.202
522	0.202
523	0.202
523	0.203
524	0.203
524	0.204
524	0.204
525	0.205
525	0.205
526	0.206
526	0.207
527	0.208
527	0.208
528	0.208
528	0.208
529	0.207
529	0.207
529	0.207
530	0.206
530	0.206
531	0.205
531	0.204
532	0.203
532	0.203
533	0.202
533	0.202
533	0.201
534	0.199
534	0.198
535	0.198
535	0.197
536	0.196
536	0.195
537	0.194
537	0.192
538	0.191
538	0.189
538	0.188
539	0.187
539	0.185
540	0.184
540	0.182
541	0.18
541	0.179
542	0.178
542	0.176
542	0.174
543	0.173
543	0.172
544	0.17
544	0.169
545	0.168
545	0.167
546	0.165
546	0.164
547	0.162
547	0.16
547	0.158
548	0.156
548	0.154
549	0.153
549	0.151
550	0.149
550	0.148
551	0.146
551	0.144
551	0.143
552	0.141
552	0.14
553	0.139
553	0.138
554	0.137
554	0.135
555	0.133
555	0.131
556	0.129
556	0.127
556	0.125
557	0.124
557	0.123
558	0.121
558	0.12
559	0.118
559	0.117
560	0.116
560	0.115
560	0.114
561	0.113
561	0.112
562	0.111
562	0.109
563	0.108
563	0.106
564	0.104
564	0.102
564	0.101
565	0.099
565	0.098
566	0.097
566	0.096
567	0.095
567	0.095
568	0.094
568	0.094
568	0.093
569	0.093
569	0.092
570	0.091
570	0.089
571	0.088
571	0.088
572	0.086
572	0.085
573	0.084
573	0.083
573	0.082
574	0.081
574	0.081
575	0.08
575	0.081
576	0.081
576	0.079
577	0.078
577	0.077
577	0.077
578	0.076
578	0.076
579	0.076
579	0.076
580	0.075
580	0.072
581	0.07
581	0.069
581	0.069
582	0.069
582	0.069
583	0.069
583	0.068
584	0.066
584	0.064
585	0.063
585	0.064
585	0.064
586	0.064
586	0.063
587	0.061
587	0.06
588	0.058
588	0.057
589	0.057
589	0.057
590	0.057
590	0.057
590	0.058
591	0.058
591	0.058
592	0.057
592	0.056
593	0.056
593	0.056
594	0.055
594	0.055
594	0.054
595	0.054
595	0.052
596	0.051
596	0.052
597	0.054
597	0.054
598	0.054
598	0.054
598	0.054
599	0.054
599	0.053
600	0.052
600	0.051
601	0.051
601	0.05
602	0.049
602	0.048
602	0.047
603	0.047
603	0.048
604	0.049
604	0.05
605	0.051
605	0.052
606	0.052
606	0.051
606	0.051
607	0.051
607	0.051
608	0.051
608	0.05
609	0.05
609	0.05
610	0.049
610	0.048
610	0.048
611	0.049
611	0.05
612	0.051
612	0.052
613	0.052
613	0.053
614	0.053
614	0.052
614	0.053
615	0.053
615	0.053
616	0.053
616	0.053
617	0.053
617	0.053
618	0.053
618	0.053
618	0.054
619	0.054
619	0.055
620	0.057
620	0.057
621	0.058
621	0.058
622	0.058
622	0.058
622	0.058
623	0.058
623	0.059
624	0.06
624	0.059
625	0.059
625	0.059
626	0.059
626	0.06
626	0.061
627	0.062
627	0.063
628	0.064
628	0.065
629	0.065
629	0.066
630	0.066
630	0.067
630	0.068
631	0.069
631	0.069
632	0.069
632	0.07
633	0.071
633	0.072
634	0.073
634	0.075
634	0.077
635	0.078
635	0.079
636	0.08
636	0.08
637	0.081
637	0.082
638	0.083
638	0.083
638	0.084
639	0.084
639	0.085
640	0.086
640	0.087
641	0.088
641	0.089
642	0.091
642	0.093
642	0.094
643	0.096
643	0.097
644	0.1
644	0.101
645	0.103
645	0.105
646	0.107
646	0.11
646	0.112
647	0.115
647	0.117
648	0.12
648	0.122
649	0.125
649	0.127
650	0.13
650	0.132
650	0.135
651	0.137
651	0.139
652	0.141
652	0.143
653	0.146
653	0.152
653	0.166
654	0.132
654	0.108
655	0.109
655	0.11
656	0.112
656	0.113
657	0.114
657	0.116
657	0.117
658	0.115
658	0.103
659	0.132
659	0.171
660	0.178
660	0.18
661	0.182
661	0.185
661	0.187
662	0.19
662	0.192
663	0.195
663	0.197
664	0.199
664	0.201
665	0.203
665	0.205
665	0.207
666	0.209
666	0.21
667	0.212
667	0.214
668	0.216
668	0.218
669	0.22
669	0.222
669	0.224
670	0.226
670	0.228
671	0.229
671	0.23
672	0.232
672	0.233
672	0.235
673	0.236
673	0.238
674	0.24
674	0.241
675	0.243
675	0.245
676	0.247
676	0.249
676	0.25
677	0.252
677	0.254
678	0.254
678	0.255
679	0.256
679	0.257
680	0.258
680	0.259
680	0.259
681	0.26
681	0.261
682	0.262
682	0.263
683	0.264
683	0.265
684	0.265
684	0.265
684	0.265
685	0.265
685	0.265
686	0.265
686	0.264
687	0.263
687	0.262
687	0.262
688	0.261
688	0.26
689	0.261
689	0.261
690	0.26
690	0.259
691	0.259
691	0.259
691	0.258
692	0.258
692	0.257
693	0.257
693	0.256
694	0.255
694	0.254
695	0.254
695	0.254
695	0.254
696	0.252
696	0.251
697	0.251
697	0.25
698	0.248
698	0.247
698	0.245
699	0.244
699	0.242
700	0.24
700	0.238
701	0.237
701	0.235
702	0.233
702	0.231
702	0.229
703	0.227
703	0.226
704	0.224
704	0.222
705	0.221
705	0.219
705	0.217
706	0.216
706	0.214
707	0.213
707	0.211
708	0.21
708	0.208
709	0.207
709	0.206
709	0.203
710	0.202
710	0.2
711	0.199
711	0.197
712	0.195
712	0.193
713	0.19
713	0.188
713	0.185
714	0.182
714	0.18
715	0.178
715	0.176
716	0.174
716	0.172
716	0.171
717	0.17
717	0.169
718	0.167
718	0.166
719	0.165
719	0.164
720	0.162
720	0.161
720	0.159
721	0.157
721	0.156
722	0.154
722	0.152
723	0.15
723	0.149
723	0.146
724	0.144
724	0.142
725	0.14
725	0.138
726	0.135
726	0.133
727	0.131
727	0.129
727	0.127
728	0.125
728	0.123
729	0.122
729	0.121
730	0.119
730	0.117
730	0.115
731	0.114
731	0.112
732	0.111
732	0.109
733	0.108
733	0.107
734	0.105
734	0.104
734	0.103
735	0.102
735	0.1
736	0.098
736	0.096
737	0.095
737	0.093
737	0.091
738	0.088
738	0.086
739	0.084
739	0.083
740	0.081
740	0.081
741	0.08
741	0.079
741	0.077
742	0.075
742	0.074
743	0.073
743	0.072
744	0.071
744	0.069
744	0.068
745	0.066
745	0.065
746	0.064
746	0.063
747	0.063
747	0.064
748	0.064
748	0.064
748	0.063
749	0.062
749	0.062
750	0.06
750	0.059
751	0.057
751	0.056
751	0.054
752	0.052
752	0.049
753	0.047
753	0.045
754	0.043
754	0.042
754	0.041
755	0.04
755	0.04
756	0.039
756	0.037
757	0.036
757	0.036
758	0.036
758	0.035
758	0.035
759	0.034
759	0.033
760	0.031
760	0.03
761	0.029
761	0.029
761	0.028
762	0.027
762	0.026
763	0.025
763	0.023
764	0.021
764	0.019
764	0.018
765	0.016
765	0.015
766	0.014
766	0.013
767	0.012
767	0.01
768	0.008
768	0.007
768	0.007
769	0.006
769	0.005
770	0.004
770	0.002
771	0
771	-0.001
771	-0.003
772	-0.004
772	-0.006
773	-0.007
773	-0.008
774	-0.01
774	-0.012
775	-0.013
775	-0.015
775	-0.017
776	-0.019
776	-0.021
777	-0.022
777	-0.024
778	-0.026
778	-0.027
778	-0.029
779	-0.03
779	-0.031
780	-0.033
780	-0.035
781	-0.037
781	-0.04
781	-0.044
782	-0.047
782	-0.051
783	-0.055
783	-0.059
784	-0.064
784	-0.069
784	-0.074
785	-0.079
785	-0.085
786	-0.09
786	-0.094
787	-0.098
787	-0.103
788	-0.108
788	-0.115
788	-0.122
789	-0.129
789	-0.135
790	-0.138
790	-0.142
791	-0.148
791	-0.152
791	-0.155
792	-0.15
792	-0.142
793	-0.138
793	-0.135
794	-0.134
794	-0.136
794	-0.139
795	-0.141
795	-0.141
796	-0.141
796	-0.144
797	-0.152
797	-0.163
797	-0.169
798	-0.175
798	-0.178
799	-0.178
799	-0.178
800	-0.178
800	-0.179
801	-0.182
801	-0.183
801	-0.182
802	-0.183
802	-0.184
803	-0.184
803	-0.184
804	-0.183
804	-0.178
804	-0.172
805	-0.168
805	-0.166
806	-0.164
806	-0.162
807	-0.161
807	-0.161
807	-0.16
808	-0.16
808	-0.161
809	-0.165
809	-0.171
810	-0.175
810	-0.177
810	-0.181
811	-0.184
811	-0.185
812	-0.181
812	-0.179
813	-0.179
813	-0.18
813	-0.182
814	-0.183
814	-0.182
815	-0.179
815	-0.175
816	-0.169
816	-0.165
817	-0.163
817	-0.158
817	-0.15
818	-0.14
818	-0.129
819	-0.117
819	-0.107
820	-0.099
820	-0.092
820	-0.085
821	-0.079
821	-0.073
822	-0.068
822	-0.063
823	-0.059
823	-0.056
823	-0.053
824	-0.05
824	-0.046
825	-0.042
825	-0.038
826	-0.035
826	-0.032
826	-0.029
827	-0.027
827	-0.025
828	-0.023
828	-0.021
829	-0.019
829	-0.018
829	-0.017
830	-0.017
830	-0.016
831	-0.015
831	-0.015
832	-0.015
832	-0.015
832	-0.016
833	-0.016
833	-0.017
834	-0.017
834	-0.018
835	-0.018
835	-0.018
835	-0.019
836	-0.018
836	-0.018
837	-0.018
837	-0.017
838	-0.017
838	-0.016
839	-0.015
839	-0.014
839	-0.014
840	-0.013
840	-0.012
841	-0.012
841	-0.011
842	-0.01
842	-0.01
842	-0.009
843	-0.008
843	-0.007
844	-0.006
844	-0.006
845	-0.005
845	-0.005
845	-0.005
846	-0.005
846	-0.005
847	-0.005
847	-0.006
848	-0.006
848	-0.007
848	-0.008
849	-0.008
849	-0.009
850	-0.01
850	-0.01
851	-0.011
851	-0.011
851	-0.012
852	-0.013
852	-0.013
853	-0.013
853	-0.014
854	-0.014
854	-0.014
854	-0.014
855	-0.014
855	-0.014
856	-0.014
856	-0.014
857	-0.013
857	-0.013
857	-0.012
858	-0.012
858	-0.011
859	-0.011
859	-0.01
860	-0.01
860	-0.009
860	-0.008
861	-0.007
861	-0.007
862	-0.007
862	-0.007
863	-0.007
863	-0.008
863	-0.008
864	-0.009
864	-0.009
865	-0.009
865	-0.009
866	-0.01
866	-0.01
866	-0.01
867	-0.009
867	-0.009
868	-0.009
868	-0.008
869	-0.008
869	-0.008
869	-0.008
870	-0.009
870	-0.009
871	-0.01
871	-0.01
872	-0.011
872	-0.012
872	-0.012
873	-0.012
873	-0.012
874	-0.012
874	-0.012
875	-0.012
875	-0.011
875	-0.01
876	-0.009
876	-0.009
877	-0.009
877	-0.008
878	-0.009
878	-0.009
878	-0.01
879	-0.01
879	-0.011
880	-0.012
880	-0.013
881	-0.014
881	-0.014
881	-0.014
882	-0.014
882	-0.014
883	-0.013
883	-0.012
884	-0.01
884	-0.009
884	-0.008
885	-0.007
885	-0.005
886	-0.004
886	-0.003
887	-0.003
887	-0.003
887	-0.003
888	-0.002
888	-0.002
889	-0.002
889	-0.002
890	-0.002
890	-0.002
890	-0.002
891	-0.003
891	-0.003
892	-0.004
892	-0.004
893	-0.005
893	-0.006
893	-0.006
894	-0.007
894	-0.008
895	-0.008
895	-0.009
895	-0.009
896	-0.009
896	-0.009
897	-0.009
897	-0.009
898	-0.009
898	-0.009
898	-0.009
899	-0.008
899	-0.008
900	-0.007
900	-0.006
901	-0.006
901	-0.005
901	-0.004
902	-0.003
902	-0.003
903	-0.002
903	-0.002
904	-0.002
904	-0.002
904	-0.002
905	-0.002
905	-0.002
906	-0.003
906	-0.003
907	-0.004
907	-0.004
907	-0.004
908	-0.005
908	-0.005
909	-0.005
909	-0.005
910	-0.005
910	-0.006
910	-0.006
911	-0.006
911	-0.006
912	-0.007
912	-0.007
913	-0.008
913	-0.008
913	-0.008
914	-0.009
914	-0.009
915	-0.01
915	-0.01
916	-0.011
916	-0.011
916	-0.011
917	-0.011
917	-0.011
918	-0.011
918	-0.01
918	-0.009
919	-0.009
919	-0.008
920	-0.006
920	-0.005
921	-0.004
921	-0.003
921	-0.002
922	-0.001
922	-0.001
923	-0.001
923	-0.001
924	-0.001
924	-0.002
924	-0.003
925	-0.003
925	-0.004
926	-0.004
926	-0.005
927	-0.006
927	-0.006
927	-0.006
928	-0.007
928	-0.007
929	-0.007
929	-0.007
930	-0.007
930	-0.007
930	-0.007
931	-0.008
931	-0.008
932	-0.009
932	-0.009
933	-0.01
933	-0.01
933	-0.011
934	-0.011
934	-0.011
935	-0.011
935	-0.011
935	-0.011
936	-0.011
936	-0.011
937	-0.011
937	-0.011
938	-0.011
938	-0.011
938	-0.011
939	-0.011
939	-0.011
940	-0.012
940	-0.012
941	-0.013
941	-0.013
941	-0.014
942	-0.014
942	-0.015
943	-0.015
943	-0.016
944	-0.016
944	-0.016
944	-0.016
945	-0.016
945	-0.016
946	-0.015
946	-0.015
946	-0.015
947	-0.015
947	-0.015
948	-0.015
948	-0.015
949	-0.015
949	-0.014
949	-0.014
950	-0.014
950	-0.013
951	-0.013
951	-0.012
952	-0.012
952	-0.011
952	-0.011
953	-0.01
953	-0.009
954	-0.009
954	-0.009
955	-0.008
955	-0.008
955	-0.008
956	-0.007
956	-0.007
957	-0.007
957	-0.006
957	-0.006
958	-0.007
958	-0.007
959	-0.007
959	-0.007
960	-0.008
960	-0.008
960	-0.009
961	-0.01
961	-0.011
962	-0.012
962	-0.013
963	-0.014
963	-0.015
963	-0.016
964	-0.017
964	-0.018
965	-0.019
965	-0.02
966	-0.02
966	-0.02
966	-0.02
967	-0.019
967	-0.019
968	-0.018
968	-0.017
968	-0.016
969	-0.015
969	-0.014
970	-0.013
970	-0.013
971	-0.012
971	-0.012
971	-0.011
972	-0.011
972	-0.01
973	-0.009
973	-0.009
974	-0.008
974	-0.008
974	-0.007
975	-0.007
975	-0.006
976	-0.005
976	-0.005
976	-0.005
977	-0.005
977	-0.005
978	-0.006
978	-0.006
979	-0.007
979	-0.008
979	-0.009
980	-0.01
980	-0.011
981	-0.012
981	-0.013
982	-0.013
982	-0.014
982	-0.014
983	-0.014
983	-0.015
984	-0.015
984	-0.015
984	-0.015
985	-0.015
985	-0.016
986	-0.016
986	-0.017
987	-0.017
987	-0.017
987	-0.017
988	-0.017
988	-0.016
989	-0.016
989	-0.016
990	-0.015
990	-0.015
990	-0.014
991	-0.013
991	-0.013
992	-0.013
992	-0.013
992	-0.013
993	-0.014
993	-0.015
994	-0.015
994	-0.016
995	-0.017
995	-0.018
995	-0.019
996	-0.019
996	-0.02
997	-0.02
997	-0.02
997	-0.02
998	-0.019
998	-0.018
999	-0.017
999	-0.016
1000	-0.016
1000	-0.015
1000	-0.015
1001	-0.015
1001	-0.014
1002	-0.014
1002	-0.015
1003	-0.016
1003	-0.017
1003	-0.018
1004	-0.019
1004	-0.02
1005	-0.021
1005	-0.022
1005	-0.023
1006	-0.024
1006	-0.024
1007	-0.025
1007	-0.025
1008	-0.025
1008	-0.026
1008	-0.026
1009	-0.026
1009	-0.026
1010	-0.026
1010	-0.025
1010	-0.025
1011	-0.024
1011	-0.024
1012	-0.024
1012	-0.024
1013	-0.024
1013	-0.024
1013	-0.024
1014	-0.024
1014	-0.024
1015	-0.024
1015	-0.024
1016	-0.024
1016	-0.024
1016	-0.024
1017	-0.024
1017	-0.024
1018	-0.023
1018	-0.023
1018	-0.022
1019	-0.022
1019	-0.021
1020	-0.021
1020	-0.021
1021	-0.021
1021	-0.021
1021	-0.021
1022	-0.021
1022	-0.021
1023	-0.021
1023	-0.021
1023	-0.021
1024	-0.022
1024	-0.022
1025	-0.022
1025	-0.022
1026	-0.022
1026	-0.022
1026	-0.021
1027	-0.021
1027	-0.021
1028	-0.021
1028	-0.02
1028	-0.021
1029	-0.021
1029	-0.021
1030	-0.022
1030	-0.022
1031	-0.023
1031	-0.024
1031	-0.024
1032	-0.025
1032	-0.026
1033	-0.026
1033	-0.027
1033	-0.028
1034	-0.028
1034	-0.029
1035	-0.029
1035	-0.03
1036	-0.03
1036	-0.03
1036	-0.03
1037	-0.03
1037	-0.03
1038	-0.03
1038	-0.029
1039	-0.029
1039	-0.028
1039	-0.027
1040	-0.026
1040	-0.026
1041	-0.026
1041	-0.025
1041	-0.025
1042	-0.026
1042	-0.026
1043	-0.026
1043	-0.027
1044	-0.027
1044	-0.027
1044	-0.028
1045	-0.028
1045	-0.028
1046	-0.029
1046	-0.029
1046	-0.028
1047	-0.028
1047	-0.028
1048	-0.027
1048	-0.027
1049	-0.027
1049	-0.027
1049	-0.027
1050	-0.027
1050	-0.027
1051	-0.028
1051	-0.028
1051	-0.028
1052	-0.028
1052	-0.028
1053	-0.029
1053	-0.029
1053	-0.029
1054	-0.03
1054	-0.03
1055	-0.03
1055	-0.031
1056	-0.032
1056	-0.033
1056	-0.034
1057	-0.035
1057	-0.035
1058	-0.036
1058	-0.037
1058	-0.037
1059	-0.037
1059	-0.038
1060	-0.038
1060	-0.038
1061	-0.038
1061	-0.038
1061	-0.038
1062	-0.038
1062	-0.039
1063	-0.039
1063	-0.039
1063	-0.039
1064	-0.04
1064	-0.04
1065	-0.04
1065	-0.04
1066	-0.041
1066	-0.041
1066	-0.041
1067	-0.042
1067	-0.041
1068	-0.042
1068	-0.042
1068	-0.042
1069	-0.043
1069	-0.043
1070	-0.043
1070	-0.043
1071	-0.043
1071	-0.042
1071	-0.042
1072	-0.042
1072	-0.041
1073	-0.041
1073	-0.04
1073	-0.039
1074	-0.038
1074	-0.038
1075	-0.038
1075	-0.038
1076	-0.038
1076	-0.038
1076	-0.038
1077	-0.038
1077	-0.039
1078	-0.039
1078	-0.039
1078	-0.039
1079	-0.039
1079	-0.038
1080	-0.038
1080	-0.037
1080	-0.037
1081	-0.036
1081	-0.035
1082	-0.034
1082	-0.034
1083	-0.033
1083	-0.033
1083	-0.032
1084	-0.032
1084	-0.031
1085	-0.031
1085	-0.03
1085	-0.029
1086	-0.028
1086	-0.029
1087	-0.028
1087	-0.027
1088	-0.028
1088	-0.028
1088	-0.028
1089	-0.03
1089	-0.031
1090	-0.032
1090	-0.033
1090	-0.034
1091	-0.034
1091	-0.035
1092	-0.035
1092	-0.034
1092	-0.035
1093	-0.036
1093	-0.034
1094	-0.034
1094	-0.033
1095	-0.033
1095	-0.033
1095	-0.032
1096	-0.031
1096	-0.031
1097	-0.03
1097	-0.03
1097	-0.029
1098	-0.028
1098	-0.028
1099	-0.028
1099	-0.028
1100	-0.027
1100	-0.026
1100	-0.026
1101	-0.025
1101	-0.025
1102	-0.023
1102	-0.023
1102	-0.021
1103	-0.018
1103	-0.016
1104	-0.012
1104	-0.01
1104	-0.006
1105	-0.002
1105	0.002
1106	0.006
1106	0.011
1107	0.016
1107	0.024
1107	0.031
1108	0.06
1108	0.096
1109	0.147
1109	0.222
1109	0.278
1110	0.379
1110	0.599
1111	-0
1111	-0
