Data from 15c-2a_Absorbance__966__00966.txt Node

Date: Fri Jan 19 10:13:46 CET 2024
User: Marek
Spectrometer: MAYP115816
Trigger mode: 0
Integration Time (sec): 2.000000E-1
Scans to average: 10
Electric dark correction enabled: true
Nonlinearity correction enabled: true
Boxcar width: 5
XAxis mode: Wavelengths
Number of Pixels in Spectrum: 2068
>>>>>Begin Spectral Data<<<<<
199	-1.446
199	-1.299
200	-1.164
200	-1.052
201	-0.989
201	-0.94
202	-0.877
202	-0.827
203	-0.784
203	-0.749
204	-0.725
204	-0.703
205	-0.686
205	-0.676
205	-0.675
206	-0.67
206	-0.667
207	-0.663
207	-0.66
208	-0.659
208	-0.656
209	-0.653
209	-0.65
210	-0.648
210	-0.647
211	-0.646
211	-0.645
212	-0.647
212	-0.647
213	-0.647
213	-0.644
213	-0.645
214	-0.642
214	-0.641
215	-0.638
215	-0.637
216	-0.635
216	-0.635
217	-0.631
217	-0.629
218	-0.626
218	-0.623
219	-0.619
219	-0.619
220	-0.618
220	-0.619
221	-0.618
221	-0.614
221	-0.609
222	-0.607
222	-0.604
223	-0.599
223	-0.596
224	-0.59
224	-0.584
225	-0.577
225	-0.566
226	-0.556
226	-0.546
227	-0.534
227	-0.523
228	-0.508
228	-0.496
229	-0.478
229	-0.459
229	-0.435
230	-0.411
230	-0.384
231	-0.353
231	-0.322
232	-0.291
232	-0.256
233	-0.22
233	-0.182
234	-0.147
234	-0.112
235	-0.079
235	-0.047
236	-0.017
236	0.011
236	0.037
237	0.062
237	0.084
238	0.104
238	0.122
239	0.139
239	0.154
240	0.167
240	0.179
241	0.19
241	0.2
242	0.208
242	0.216
243	0.224
243	0.231
243	0.237
244	0.242
244	0.247
245	0.252
245	0.256
246	0.26
246	0.264
247	0.267
247	0.271
248	0.274
248	0.276
249	0.279
249	0.282
250	0.284
250	0.287
250	0.289
251	0.291
251	0.293
252	0.295
252	0.297
253	0.299
253	0.301
254	0.302
254	0.304
255	0.305
255	0.306
256	0.307
256	0.307
257	0.308
257	0.309
258	0.309
258	0.31
258	0.31
259	0.311
259	0.31
260	0.311
260	0.31
261	0.31
261	0.31
262	0.31
262	0.31
263	0.309
263	0.309
264	0.308
264	0.307
265	0.306
265	0.306
265	0.305
266	0.304
266	0.303
267	0.301
267	0.3
268	0.299
268	0.297
269	0.296
269	0.294
270	0.292
270	0.291
271	0.289
271	0.287
272	0.285
272	0.283
272	0.281
273	0.279
273	0.277
274	0.275
274	0.273
275	0.271
275	0.27
276	0.268
276	0.266
277	0.263
277	0.261
278	0.259
278	0.257
278	0.255
279	0.253
279	0.25
280	0.248
280	0.246
281	0.244
281	0.242
282	0.24
282	0.238
283	0.236
283	0.234
284	0.233
284	0.231
285	0.229
285	0.227
285	0.225
286	0.224
286	0.222
287	0.22
287	0.218
288	0.217
288	0.215
289	0.214
289	0.213
290	0.211
290	0.21
291	0.208
291	0.207
292	0.206
292	0.204
292	0.203
293	0.202
293	0.201
294	0.2
294	0.199
295	0.198
295	0.197
296	0.196
296	0.196
297	0.195
297	0.195
298	0.194
298	0.193
298	0.193
299	0.192
299	0.192
300	0.191
300	0.19
301	0.19
301	0.189
302	0.188
302	0.188
303	0.187
303	0.186
304	0.186
304	0.185
305	0.185
305	0.184
305	0.184
306	0.183
306	0.183
307	0.182
307	0.182
308	0.181
308	0.181
309	0.18
309	0.18
310	0.179
310	0.179
311	0.178
311	0.177
311	0.177
312	0.176
312	0.176
313	0.175
313	0.175
314	0.174
314	0.174
315	0.173
315	0.173
316	0.172
316	0.171
317	0.171
317	0.17
318	0.17
318	0.169
318	0.169
319	0.168
319	0.168
320	0.167
320	0.167
321	0.166
321	0.166
322	0.165
322	0.165
323	0.164
323	0.163
324	0.163
324	0.162
324	0.162
325	0.161
325	0.161
326	0.16
326	0.16
327	0.159
327	0.159
328	0.158
328	0.158
329	0.157
329	0.157
330	0.156
330	0.156
330	0.155
331	0.155
331	0.154
332	0.154
332	0.154
333	0.153
333	0.153
334	0.152
334	0.152
335	0.151
335	0.151
336	0.15
336	0.15
336	0.149
337	0.149
337	0.148
338	0.148
338	0.147
339	0.147
339	0.147
340	0.146
340	0.146
341	0.145
341	0.145
342	0.145
342	0.145
342	0.144
343	0.144
343	0.144
344	0.143
344	0.143
345	0.143
345	0.142
346	0.142
346	0.141
347	0.141
347	0.141
348	0.14
348	0.14
348	0.14
349	0.139
349	0.139
350	0.139
350	0.138
351	0.138
351	0.138
352	0.138
352	0.138
353	0.137
353	0.137
354	0.136
354	0.136
354	0.136
355	0.135
355	0.135
356	0.135
356	0.135
357	0.134
357	0.134
358	0.134
358	0.134
359	0.134
359	0.133
360	0.134
360	0.134
360	0.133
361	0.133
361	0.133
362	0.133
362	0.133
363	0.133
363	0.133
364	0.133
364	0.133
365	0.133
365	0.133
366	0.133
366	0.132
366	0.132
367	0.132
367	0.132
368	0.132
368	0.131
369	0.131
369	0.131
370	0.131
370	0.131
371	0.131
371	0.13
372	0.13
372	0.13
372	0.13
373	0.13
373	0.13
374	0.129
374	0.129
375	0.129
375	0.129
376	0.129
376	0.129
377	0.129
377	0.129
378	0.129
378	0.129
378	0.129
379	0.128
379	0.128
380	0.128
380	0.128
381	0.128
381	0.128
382	0.128
382	0.128
383	0.128
383	0.127
383	0.127
384	0.127
384	0.127
385	0.127
385	0.127
386	0.127
386	0.127
387	0.126
387	0.126
388	0.126
388	0.126
389	0.125
389	0.125
389	0.125
390	0.125
390	0.124
391	0.124
391	0.124
392	0.124
392	0.124
393	0.124
393	0.124
394	0.124
394	0.124
394	0.124
395	0.124
395	0.123
396	0.123
396	0.123
397	0.123
397	0.123
398	0.123
398	0.123
399	0.123
399	0.122
400	0.122
400	0.122
400	0.122
401	0.122
401	0.122
402	0.121
402	0.121
403	0.121
403	0.121
404	0.121
404	0.12
405	0.12
405	0.12
405	0.12
406	0.12
406	0.12
407	0.12
407	0.119
408	0.119
408	0.118
409	0.118
409	0.118
410	0.118
410	0.118
411	0.118
411	0.118
411	0.118
412	0.117
412	0.117
413	0.117
413	0.117
414	0.117
414	0.117
415	0.117
415	0.116
416	0.116
416	0.116
416	0.116
417	0.116
417	0.116
418	0.116
418	0.116
419	0.116
419	0.116
420	0.116
420	0.116
421	0.116
421	0.116
421	0.117
422	0.117
422	0.117
423	0.117
423	0.116
424	0.116
424	0.116
425	0.116
425	0.116
426	0.116
426	0.115
427	0.115
427	0.115
427	0.115
428	0.116
428	0.116
429	0.116
429	0.116
430	0.116
430	0.116
431	0.115
431	0.115
432	0.115
432	0.115
432	0.114
433	0.114
433	0.113
434	0.113
434	0.113
435	0.113
435	0.113
436	0.113
436	0.113
437	0.113
437	0.113
437	0.113
438	0.113
438	0.113
439	0.113
439	0.113
440	0.112
440	0.112
441	0.112
441	0.112
442	0.112
442	0.112
442	0.112
443	0.112
443	0.112
444	0.112
444	0.112
445	0.112
445	0.112
446	0.112
446	0.112
447	0.112
447	0.112
447	0.112
448	0.112
448	0.112
449	0.112
449	0.112
450	0.112
450	0.112
451	0.112
451	0.112
452	0.112
452	0.112
452	0.112
453	0.112
453	0.112
454	0.112
454	0.112
455	0.112
455	0.112
456	0.112
456	0.112
457	0.112
457	0.112
458	0.112
458	0.112
458	0.112
459	0.112
459	0.112
460	0.112
460	0.111
461	0.111
461	0.111
462	0.111
462	0.112
463	0.112
463	0.112
463	0.112
464	0.113
464	0.113
465	0.113
465	0.113
466	0.113
466	0.114
467	0.114
467	0.114
467	0.113
468	0.113
468	0.112
469	0.112
469	0.112
470	0.113
470	0.113
471	0.113
471	0.113
472	0.113
472	0.114
472	0.114
473	0.115
473	0.115
474	0.116
474	0.116
475	0.117
475	0.117
476	0.117
476	0.118
477	0.118
477	0.118
477	0.118
478	0.118
478	0.118
479	0.119
479	0.119
480	0.12
480	0.12
481	0.12
481	0.121
482	0.121
482	0.122
482	0.123
483	0.125
483	0.126
484	0.127
484	0.128
485	0.129
485	0.13
486	0.13
486	0.131
487	0.132
487	0.132
487	0.132
488	0.133
488	0.133
489	0.133
489	0.134
490	0.135
490	0.135
491	0.136
491	0.137
492	0.137
492	0.138
492	0.139
493	0.139
493	0.14
494	0.142
494	0.143
495	0.144
495	0.145
496	0.146
496	0.148
496	0.149
497	0.15
497	0.151
498	0.152
498	0.153
499	0.154
499	0.155
500	0.156
500	0.157
501	0.158
501	0.159
501	0.16
502	0.161
502	0.163
503	0.164
503	0.165
504	0.166
504	0.167
505	0.168
505	0.169
506	0.17
506	0.172
506	0.173
507	0.174
507	0.175
508	0.176
508	0.177
509	0.178
509	0.179
510	0.18
510	0.181
511	0.182
511	0.183
511	0.184
512	0.185
512	0.186
513	0.186
513	0.186
514	0.187
514	0.187
515	0.187
515	0.188
515	0.188
516	0.188
516	0.188
517	0.189
517	0.188
518	0.188
518	0.189
519	0.188
519	0.188
520	0.188
520	0.187
520	0.187
521	0.186
521	0.185
522	0.185
522	0.185
523	0.185
523	0.185
524	0.186
524	0.186
524	0.187
525	0.187
525	0.188
526	0.189
526	0.19
527	0.19
527	0.19
528	0.19
528	0.19
529	0.19
529	0.19
529	0.189
530	0.189
530	0.188
531	0.187
531	0.187
532	0.186
532	0.186
533	0.185
533	0.184
533	0.183
534	0.182
534	0.181
535	0.18
535	0.18
536	0.179
536	0.178
537	0.177
537	0.176
538	0.175
538	0.173
538	0.172
539	0.171
539	0.17
540	0.168
540	0.166
541	0.165
541	0.163
542	0.161
542	0.16
542	0.158
543	0.157
543	0.155
544	0.154
544	0.153
545	0.152
545	0.151
546	0.149
546	0.148
547	0.146
547	0.144
547	0.143
548	0.141
548	0.14
549	0.138
549	0.137
550	0.135
550	0.134
551	0.132
551	0.131
551	0.129
552	0.128
552	0.127
553	0.126
553	0.125
554	0.124
554	0.122
555	0.12
555	0.118
556	0.116
556	0.114
556	0.112
557	0.111
557	0.109
558	0.108
558	0.106
559	0.105
559	0.103
560	0.102
560	0.101
560	0.1
561	0.1
561	0.099
562	0.098
562	0.096
563	0.095
563	0.093
564	0.092
564	0.09
564	0.089
565	0.088
565	0.087
566	0.085
566	0.084
567	0.084
567	0.083
568	0.083
568	0.082
568	0.082
569	0.082
569	0.081
570	0.08
570	0.079
571	0.078
571	0.078
572	0.076
572	0.075
573	0.074
573	0.073
573	0.072
574	0.071
574	0.071
575	0.071
575	0.072
576	0.071
576	0.07
577	0.069
577	0.069
577	0.069
578	0.068
578	0.068
579	0.068
579	0.068
580	0.067
580	0.065
581	0.063
581	0.062
581	0.062
582	0.061
582	0.061
583	0.061
583	0.06
584	0.058
584	0.056
585	0.055
585	0.055
585	0.055
586	0.054
586	0.054
587	0.052
587	0.051
588	0.049
588	0.049
589	0.048
589	0.048
590	0.048
590	0.049
590	0.05
591	0.05
591	0.05
592	0.05
592	0.049
593	0.049
593	0.049
594	0.048
594	0.047
594	0.046
595	0.046
595	0.045
596	0.044
596	0.045
597	0.046
597	0.046
598	0.046
598	0.047
598	0.047
599	0.047
599	0.046
600	0.045
600	0.045
601	0.044
601	0.044
602	0.043
602	0.043
602	0.042
603	0.042
603	0.043
604	0.044
604	0.045
605	0.046
605	0.047
606	0.047
606	0.047
606	0.046
607	0.046
607	0.046
608	0.046
608	0.045
609	0.044
609	0.044
610	0.043
610	0.042
610	0.042
611	0.043
611	0.043
612	0.044
612	0.045
613	0.045
613	0.046
614	0.046
614	0.045
614	0.046
615	0.046
615	0.046
616	0.046
616	0.046
617	0.046
617	0.046
618	0.046
618	0.046
618	0.046
619	0.047
619	0.048
620	0.049
620	0.05
621	0.05
621	0.051
622	0.051
622	0.051
622	0.051
623	0.051
623	0.052
624	0.053
624	0.052
625	0.052
625	0.052
626	0.052
626	0.052
626	0.053
627	0.054
627	0.055
628	0.056
628	0.057
629	0.058
629	0.058
630	0.059
630	0.059
630	0.06
631	0.061
631	0.062
632	0.062
632	0.063
633	0.064
633	0.065
634	0.066
634	0.067
634	0.069
635	0.07
635	0.071
636	0.072
636	0.073
637	0.074
637	0.075
638	0.076
638	0.077
638	0.077
639	0.078
639	0.078
640	0.079
640	0.08
641	0.081
641	0.082
642	0.083
642	0.085
642	0.086
643	0.087
643	0.089
644	0.091
644	0.093
645	0.095
645	0.097
646	0.099
646	0.102
646	0.105
647	0.107
647	0.11
648	0.112
648	0.114
649	0.116
649	0.119
650	0.121
650	0.123
650	0.125
651	0.126
651	0.128
652	0.13
652	0.132
653	0.135
653	0.141
653	0.151
654	0.121
654	0.099
655	0.101
655	0.103
656	0.104
656	0.105
657	0.107
657	0.108
657	0.109
658	0.107
658	0.098
659	0.124
659	0.161
660	0.166
660	0.168
661	0.17
661	0.172
661	0.175
662	0.177
662	0.18
663	0.182
663	0.184
664	0.186
664	0.188
665	0.19
665	0.192
665	0.194
666	0.196
666	0.197
667	0.199
667	0.201
668	0.203
668	0.205
669	0.206
669	0.208
669	0.21
670	0.212
670	0.214
671	0.215
671	0.216
672	0.218
672	0.22
672	0.221
673	0.223
673	0.225
674	0.226
674	0.227
675	0.229
675	0.231
676	0.233
676	0.234
676	0.235
677	0.236
677	0.237
678	0.238
678	0.239
679	0.24
679	0.241
680	0.242
680	0.243
680	0.244
681	0.244
681	0.245
682	0.246
682	0.246
683	0.247
683	0.248
684	0.249
684	0.248
684	0.248
685	0.249
685	0.249
686	0.248
686	0.248
687	0.248
687	0.247
687	0.247
688	0.246
688	0.246
689	0.246
689	0.246
690	0.245
690	0.245
691	0.245
691	0.245
691	0.245
692	0.244
692	0.244
693	0.243
693	0.243
694	0.242
694	0.24
695	0.24
695	0.24
695	0.239
696	0.238
696	0.236
697	0.235
697	0.234
698	0.233
698	0.231
698	0.23
699	0.229
699	0.227
700	0.225
700	0.224
701	0.223
701	0.222
702	0.22
702	0.219
702	0.218
703	0.216
703	0.215
704	0.213
704	0.213
705	0.212
705	0.21
705	0.209
706	0.207
706	0.206
707	0.205
707	0.203
708	0.202
708	0.201
709	0.199
709	0.197
709	0.195
710	0.193
710	0.192
711	0.19
711	0.188
712	0.185
712	0.183
713	0.181
713	0.178
713	0.176
714	0.173
714	0.171
715	0.169
715	0.167
716	0.165
716	0.164
716	0.162
717	0.161
717	0.16
718	0.159
718	0.158
719	0.157
719	0.155
720	0.154
720	0.152
720	0.15
721	0.148
721	0.146
722	0.144
722	0.142
723	0.14
723	0.138
723	0.136
724	0.134
724	0.132
725	0.13
725	0.128
726	0.126
726	0.124
727	0.122
727	0.12
727	0.119
728	0.117
728	0.115
729	0.114
729	0.113
730	0.111
730	0.109
730	0.108
731	0.106
731	0.105
732	0.104
732	0.102
733	0.101
733	0.1
734	0.098
734	0.097
734	0.095
735	0.094
735	0.092
736	0.09
736	0.089
737	0.087
737	0.086
737	0.084
738	0.082
738	0.08
739	0.078
739	0.078
740	0.077
740	0.076
741	0.076
741	0.075
741	0.074
742	0.072
742	0.071
743	0.07
743	0.068
744	0.067
744	0.065
744	0.063
745	0.061
745	0.06
746	0.058
746	0.058
747	0.057
747	0.057
748	0.056
748	0.056
748	0.055
749	0.054
749	0.053
750	0.051
750	0.05
751	0.048
751	0.047
751	0.045
752	0.043
752	0.041
753	0.04
753	0.039
754	0.038
754	0.037
754	0.036
755	0.036
755	0.036
756	0.035
756	0.034
757	0.033
757	0.033
758	0.033
758	0.032
758	0.031
759	0.031
759	0.03
760	0.029
760	0.028
761	0.027
761	0.027
761	0.026
762	0.025
762	0.024
763	0.023
763	0.021
764	0.019
764	0.017
764	0.015
765	0.014
765	0.012
766	0.011
766	0.01
767	0.009
767	0.007
768	0.005
768	0.004
768	0.003
769	0.002
769	0
770	-0.001
770	-0.002
771	-0.004
771	-0.006
771	-0.007
772	-0.008
772	-0.009
773	-0.01
773	-0.011
774	-0.012
774	-0.013
775	-0.014
775	-0.016
775	-0.018
776	-0.02
776	-0.021
777	-0.023
777	-0.025
778	-0.027
778	-0.029
778	-0.031
779	-0.033
779	-0.035
780	-0.037
780	-0.039
781	-0.042
781	-0.044
781	-0.048
782	-0.051
782	-0.055
783	-0.059
783	-0.063
784	-0.068
784	-0.073
784	-0.078
785	-0.083
785	-0.088
786	-0.094
786	-0.098
787	-0.102
787	-0.107
788	-0.112
788	-0.118
788	-0.125
789	-0.132
789	-0.138
790	-0.141
790	-0.145
791	-0.15
791	-0.154
791	-0.156
792	-0.152
792	-0.143
793	-0.139
793	-0.136
794	-0.134
794	-0.136
794	-0.139
795	-0.141
795	-0.141
796	-0.141
796	-0.144
797	-0.152
797	-0.163
797	-0.169
798	-0.175
798	-0.178
799	-0.178
799	-0.178
800	-0.178
800	-0.179
801	-0.182
801	-0.183
801	-0.182
802	-0.183
802	-0.184
803	-0.184
803	-0.184
804	-0.183
804	-0.178
804	-0.172
805	-0.168
805	-0.166
806	-0.164
806	-0.162
807	-0.161
807	-0.161
807	-0.16
808	-0.16
808	-0.161
809	-0.165
809	-0.171
810	-0.175
810	-0.177
810	-0.181
811	-0.184
811	-0.185
812	-0.181
812	-0.179
813	-0.179
813	-0.18
813	-0.182
814	-0.183
814	-0.183
815	-0.18
815	-0.175
816	-0.17
816	-0.165
817	-0.163
817	-0.159
817	-0.151
818	-0.142
818	-0.13
819	-0.119
819	-0.109
820	-0.101
820	-0.094
820	-0.087
821	-0.081
821	-0.075
822	-0.07
822	-0.065
823	-0.061
823	-0.058
823	-0.055
824	-0.051
824	-0.047
825	-0.044
825	-0.04
826	-0.037
826	-0.035
826	-0.033
827	-0.031
827	-0.029
828	-0.027
828	-0.026
829	-0.025
829	-0.024
829	-0.023
830	-0.023
830	-0.023
831	-0.022
831	-0.022
832	-0.021
832	-0.021
832	-0.021
833	-0.021
833	-0.022
834	-0.022
834	-0.022
835	-0.021
835	-0.021
835	-0.021
836	-0.021
836	-0.021
837	-0.02
837	-0.02
838	-0.019
838	-0.019
839	-0.018
839	-0.017
839	-0.017
840	-0.016
840	-0.015
841	-0.015
841	-0.014
842	-0.014
842	-0.013
842	-0.012
843	-0.012
843	-0.011
844	-0.011
844	-0.01
845	-0.01
845	-0.01
845	-0.009
846	-0.009
846	-0.009
847	-0.009
847	-0.009
848	-0.009
848	-0.009
848	-0.01
849	-0.01
849	-0.01
850	-0.011
850	-0.012
851	-0.012
851	-0.013
851	-0.013
852	-0.013
852	-0.013
853	-0.014
853	-0.014
854	-0.014
854	-0.014
854	-0.015
855	-0.015
855	-0.016
856	-0.016
856	-0.017
857	-0.017
857	-0.018
857	-0.018
858	-0.018
858	-0.018
859	-0.018
859	-0.017
860	-0.017
860	-0.016
860	-0.015
861	-0.014
861	-0.013
862	-0.013
862	-0.012
863	-0.012
863	-0.011
863	-0.011
864	-0.011
864	-0.01
865	-0.01
865	-0.009
866	-0.009
866	-0.008
866	-0.008
867	-0.007
867	-0.006
868	-0.006
868	-0.006
869	-0.006
869	-0.007
869	-0.008
870	-0.009
870	-0.01
871	-0.011
871	-0.012
872	-0.013
872	-0.014
872	-0.014
873	-0.014
873	-0.014
874	-0.014
874	-0.013
875	-0.013
875	-0.012
875	-0.012
876	-0.011
876	-0.01
877	-0.01
877	-0.01
878	-0.011
878	-0.011
878	-0.012
879	-0.013
879	-0.013
880	-0.014
880	-0.015
881	-0.015
881	-0.016
881	-0.016
882	-0.015
882	-0.015
883	-0.014
883	-0.013
884	-0.012
884	-0.011
884	-0.01
885	-0.009
885	-0.008
886	-0.008
886	-0.008
887	-0.008
887	-0.008
887	-0.009
888	-0.009
888	-0.01
889	-0.011
889	-0.011
890	-0.012
890	-0.012
890	-0.013
891	-0.013
891	-0.013
892	-0.013
892	-0.013
893	-0.013
893	-0.013
893	-0.012
894	-0.012
894	-0.011
895	-0.011
895	-0.011
895	-0.011
896	-0.011
896	-0.011
897	-0.01
897	-0.01
898	-0.01
898	-0.01
898	-0.009
899	-0.009
899	-0.009
900	-0.008
900	-0.007
901	-0.007
901	-0.006
901	-0.005
902	-0.004
902	-0.003
903	-0.002
903	-0.002
904	-0.001
904	-0.001
904	-0
905	-0
905	-0
906	-0
906	-0.001
907	-0.001
907	-0.001
907	-0.002
908	-0.002
908	-0.003
909	-0.003
909	-0.003
910	-0.004
910	-0.004
910	-0.005
911	-0.006
911	-0.007
912	-0.007
912	-0.008
913	-0.008
913	-0.009
913	-0.01
914	-0.01
914	-0.011
915	-0.012
915	-0.012
916	-0.013
916	-0.013
916	-0.013
917	-0.013
917	-0.013
918	-0.013
918	-0.012
918	-0.012
919	-0.011
919	-0.01
920	-0.008
920	-0.006
921	-0.005
921	-0.004
921	-0.002
922	-0.001
922	-0
923	-0
923	0
924	0
924	-0.001
924	-0.002
925	-0.003
925	-0.004
926	-0.005
926	-0.006
927	-0.007
927	-0.007
927	-0.008
928	-0.008
928	-0.008
929	-0.008
929	-0.008
930	-0.008
930	-0.008
930	-0.008
931	-0.008
931	-0.008
932	-0.008
932	-0.009
933	-0.01
933	-0.01
933	-0.011
934	-0.012
934	-0.012
935	-0.013
935	-0.013
935	-0.013
936	-0.013
936	-0.013
937	-0.013
937	-0.013
938	-0.012
938	-0.012
938	-0.012
939	-0.012
939	-0.012
940	-0.012
940	-0.013
941	-0.013
941	-0.014
941	-0.015
942	-0.015
942	-0.016
943	-0.016
943	-0.016
944	-0.016
944	-0.016
944	-0.016
945	-0.016
945	-0.015
946	-0.015
946	-0.015
946	-0.015
947	-0.015
947	-0.015
948	-0.016
948	-0.016
949	-0.016
949	-0.016
949	-0.016
950	-0.016
950	-0.016
951	-0.016
951	-0.015
952	-0.014
952	-0.014
952	-0.013
953	-0.012
953	-0.011
954	-0.01
954	-0.01
955	-0.009
955	-0.008
955	-0.008
956	-0.007
956	-0.007
957	-0.007
957	-0.007
957	-0.007
958	-0.008
958	-0.008
959	-0.008
959	-0.008
960	-0.009
960	-0.009
960	-0.01
961	-0.011
961	-0.012
962	-0.013
962	-0.014
963	-0.014
963	-0.015
963	-0.017
964	-0.018
964	-0.018
965	-0.019
965	-0.02
966	-0.02
966	-0.019
966	-0.019
967	-0.018
967	-0.018
968	-0.017
968	-0.016
968	-0.015
969	-0.014
969	-0.013
970	-0.012
970	-0.012
971	-0.011
971	-0.011
971	-0.01
972	-0.009
972	-0.009
973	-0.008
973	-0.007
974	-0.007
974	-0.006
974	-0.006
975	-0.005
975	-0.005
976	-0.005
976	-0.005
976	-0.005
977	-0.006
977	-0.007
978	-0.007
978	-0.008
979	-0.009
979	-0.011
979	-0.012
980	-0.013
980	-0.014
981	-0.016
981	-0.016
982	-0.017
982	-0.017
982	-0.018
983	-0.018
983	-0.018
984	-0.018
984	-0.018
984	-0.018
985	-0.018
985	-0.018
986	-0.018
986	-0.018
987	-0.018
987	-0.018
987	-0.017
988	-0.017
988	-0.016
989	-0.016
989	-0.016
990	-0.015
990	-0.015
990	-0.014
991	-0.013
991	-0.013
992	-0.013
992	-0.013
992	-0.014
993	-0.014
993	-0.015
994	-0.016
994	-0.016
995	-0.017
995	-0.018
995	-0.019
996	-0.02
996	-0.02
997	-0.021
997	-0.02
997	-0.02
998	-0.019
998	-0.018
999	-0.017
999	-0.017
1000	-0.016
1000	-0.016
1000	-0.016
1001	-0.016
1001	-0.016
1002	-0.016
1002	-0.017
1003	-0.018
1003	-0.019
1003	-0.021
1004	-0.022
1004	-0.023
1005	-0.023
1005	-0.024
1005	-0.025
1006	-0.025
1006	-0.026
1007	-0.026
1007	-0.026
1008	-0.026
1008	-0.025
1008	-0.025
1009	-0.024
1009	-0.024
1010	-0.024
1010	-0.023
1010	-0.022
1011	-0.022
1011	-0.021
1012	-0.021
1012	-0.02
1013	-0.02
1013	-0.02
1013	-0.02
1014	-0.019
1014	-0.019
1015	-0.019
1015	-0.018
1016	-0.018
1016	-0.018
1016	-0.018
1017	-0.018
1017	-0.017
1018	-0.017
1018	-0.016
1018	-0.016
1019	-0.015
1019	-0.015
1020	-0.015
1020	-0.015
1021	-0.015
1021	-0.015
1021	-0.015
1022	-0.015
1022	-0.016
1023	-0.016
1023	-0.017
1023	-0.018
1024	-0.019
1024	-0.02
1025	-0.02
1025	-0.021
1026	-0.021
1026	-0.021
1026	-0.022
1027	-0.022
1027	-0.022
1028	-0.021
1028	-0.021
1028	-0.021
1029	-0.021
1029	-0.021
1030	-0.021
1030	-0.022
1031	-0.023
1031	-0.023
1031	-0.024
1032	-0.024
1032	-0.025
1033	-0.026
1033	-0.026
1033	-0.027
1034	-0.028
1034	-0.028
1035	-0.028
1035	-0.029
1036	-0.029
1036	-0.029
1036	-0.029
1037	-0.029
1037	-0.029
1038	-0.029
1038	-0.028
1039	-0.028
1039	-0.027
1039	-0.026
1040	-0.026
1040	-0.025
1041	-0.025
1041	-0.025
1041	-0.025
1042	-0.025
1042	-0.026
1043	-0.026
1043	-0.027
1044	-0.027
1044	-0.028
1044	-0.028
1045	-0.028
1045	-0.029
1046	-0.029
1046	-0.029
1046	-0.029
1047	-0.028
1047	-0.028
1048	-0.027
1048	-0.027
1049	-0.027
1049	-0.027
1049	-0.027
1050	-0.027
1050	-0.028
1051	-0.028
1051	-0.029
1051	-0.029
1052	-0.03
1052	-0.03
1053	-0.03
1053	-0.031
1053	-0.031
1054	-0.031
1054	-0.032
1055	-0.032
1055	-0.032
1056	-0.032
1056	-0.033
1056	-0.033
1057	-0.034
1057	-0.034
1058	-0.034
1058	-0.034
1058	-0.034
1059	-0.034
1059	-0.034
1060	-0.034
1060	-0.033
1061	-0.032
1061	-0.031
1061	-0.031
1062	-0.031
1062	-0.031
1063	-0.031
1063	-0.03
1063	-0.03
1064	-0.03
1064	-0.03
1065	-0.031
1065	-0.031
1066	-0.032
1066	-0.032
1066	-0.033
1067	-0.033
1067	-0.033
1068	-0.034
1068	-0.035
1068	-0.035
1069	-0.036
1069	-0.037
1070	-0.037
1070	-0.037
1071	-0.037
1071	-0.037
1071	-0.037
1072	-0.037
1072	-0.037
1073	-0.036
1073	-0.035
1073	-0.034
1074	-0.034
1074	-0.033
1075	-0.033
1075	-0.033
1076	-0.033
1076	-0.032
1076	-0.032
1077	-0.032
1077	-0.032
1078	-0.032
1078	-0.032
1078	-0.032
1079	-0.032
1079	-0.032
1080	-0.031
1080	-0.031
1080	-0.03
1081	-0.029
1081	-0.029
1082	-0.028
1082	-0.028
1083	-0.028
1083	-0.028
1083	-0.027
1084	-0.027
1084	-0.026
1085	-0.026
1085	-0.026
1085	-0.024
1086	-0.024
1086	-0.024
1087	-0.024
1087	-0.023
1088	-0.024
1088	-0.024
1088	-0.023
1089	-0.024
1089	-0.025
1090	-0.026
1090	-0.025
1090	-0.025
1091	-0.026
1091	-0.025
1092	-0.025
1092	-0.024
1092	-0.024
1093	-0.023
1093	-0.022
1094	-0.021
1094	-0.02
1095	-0.021
1095	-0.02
1095	-0.019
1096	-0.018
1096	-0.017
1097	-0.017
1097	-0.016
1097	-0.015
1098	-0.015
1098	-0.015
1099	-0.014
1099	-0.013
1100	-0.012
1100	-0.011
1100	-0.011
1101	-0.01
1101	-0.01
1102	-0.007
1102	-0.004
1102	-0.002
1103	0.001
1103	0.004
1104	0.007
1104	0.011
1104	0.015
1105	0.02
1105	0.025
1106	0.03
1106	0.034
1107	0.037
1107	0.044
1107	0.053
1108	0.084
1108	0.125
1109	0.179
1109	0.263
1109	0.326
1110	0.438
1110	0.697
1111	-0
1111	-0
