Data from 15c-2a_Absorbance__477__00477.txt Node

Date: Fri Jan 19 09:57:28 CET 2024
User: Marek
Spectrometer: MAYP115816
Trigger mode: 0
Integration Time (sec): 2.000000E-1
Scans to average: 10
Electric dark correction enabled: true
Nonlinearity correction enabled: true
Boxcar width: 5
XAxis mode: Wavelengths
Number of Pixels in Spectrum: 2068
>>>>>Begin Spectral Data<<<<<
199	-1.462
199	-1.312
200	-1.173
200	-1.059
201	-0.994
201	-0.944
202	-0.878
202	-0.827
203	-0.782
203	-0.744
204	-0.72
204	-0.698
205	-0.681
205	-0.671
205	-0.67
206	-0.666
206	-0.662
207	-0.658
207	-0.654
208	-0.653
208	-0.649
209	-0.647
209	-0.644
210	-0.642
210	-0.641
211	-0.64
211	-0.639
212	-0.64
212	-0.641
213	-0.641
213	-0.638
213	-0.639
214	-0.635
214	-0.633
215	-0.63
215	-0.629
216	-0.626
216	-0.626
217	-0.622
217	-0.619
218	-0.617
218	-0.614
219	-0.611
219	-0.611
220	-0.61
220	-0.61
221	-0.609
221	-0.604
221	-0.598
222	-0.596
222	-0.592
223	-0.587
223	-0.584
224	-0.578
224	-0.57
225	-0.564
225	-0.552
226	-0.543
226	-0.534
227	-0.523
227	-0.51
228	-0.496
228	-0.483
229	-0.467
229	-0.447
229	-0.425
230	-0.4
230	-0.374
231	-0.345
231	-0.315
232	-0.284
232	-0.251
233	-0.216
233	-0.179
234	-0.145
234	-0.111
235	-0.079
235	-0.049
236	-0.021
236	0.007
236	0.032
237	0.055
237	0.076
238	0.095
238	0.112
239	0.127
239	0.141
240	0.154
240	0.166
241	0.176
241	0.185
242	0.194
242	0.202
243	0.209
243	0.215
243	0.221
244	0.226
244	0.231
245	0.236
245	0.24
246	0.244
246	0.247
247	0.25
247	0.254
248	0.257
248	0.259
249	0.262
249	0.264
250	0.266
250	0.269
250	0.271
251	0.273
251	0.275
252	0.277
252	0.279
253	0.281
253	0.282
254	0.284
254	0.285
255	0.287
255	0.288
256	0.289
256	0.29
257	0.291
257	0.292
258	0.292
258	0.292
258	0.293
259	0.293
259	0.293
260	0.293
260	0.293
261	0.293
261	0.293
262	0.293
262	0.293
263	0.292
263	0.292
264	0.291
264	0.29
265	0.289
265	0.288
265	0.288
266	0.287
266	0.285
267	0.284
267	0.283
268	0.281
268	0.279
269	0.278
269	0.276
270	0.274
270	0.273
271	0.271
271	0.269
272	0.268
272	0.266
272	0.264
273	0.262
273	0.261
274	0.259
274	0.257
275	0.255
275	0.253
276	0.251
276	0.249
277	0.246
277	0.244
278	0.242
278	0.24
278	0.238
279	0.236
279	0.234
280	0.232
280	0.23
281	0.228
281	0.226
282	0.224
282	0.222
283	0.22
283	0.218
284	0.217
284	0.215
285	0.213
285	0.211
285	0.209
286	0.208
286	0.206
287	0.204
287	0.203
288	0.201
288	0.2
289	0.199
289	0.197
290	0.196
290	0.195
291	0.193
291	0.192
292	0.191
292	0.19
292	0.189
293	0.187
293	0.186
294	0.185
294	0.184
295	0.183
295	0.183
296	0.182
296	0.181
297	0.18
297	0.18
298	0.179
298	0.178
298	0.178
299	0.177
299	0.177
300	0.176
300	0.176
301	0.175
301	0.174
302	0.174
302	0.173
303	0.173
303	0.172
304	0.172
304	0.171
305	0.171
305	0.171
305	0.17
306	0.17
306	0.169
307	0.169
307	0.168
308	0.168
308	0.167
309	0.167
309	0.166
310	0.166
310	0.165
311	0.165
311	0.164
311	0.164
312	0.164
312	0.163
313	0.163
313	0.162
314	0.162
314	0.161
315	0.161
315	0.16
316	0.16
316	0.159
317	0.158
317	0.158
318	0.157
318	0.157
318	0.156
319	0.156
319	0.156
320	0.155
320	0.155
321	0.154
321	0.154
322	0.153
322	0.153
323	0.152
323	0.152
324	0.151
324	0.151
324	0.15
325	0.15
325	0.149
326	0.149
326	0.148
327	0.148
327	0.147
328	0.147
328	0.147
329	0.146
329	0.146
330	0.145
330	0.145
330	0.144
331	0.143
331	0.143
332	0.143
332	0.142
333	0.141
333	0.141
334	0.14
334	0.14
335	0.139
335	0.139
336	0.139
336	0.138
336	0.138
337	0.137
337	0.137
338	0.137
338	0.136
339	0.136
339	0.136
340	0.135
340	0.135
341	0.135
341	0.134
342	0.134
342	0.134
342	0.134
343	0.133
343	0.133
344	0.133
344	0.132
345	0.132
345	0.132
346	0.131
346	0.131
347	0.13
347	0.13
348	0.13
348	0.13
348	0.13
349	0.129
349	0.129
350	0.129
350	0.128
351	0.128
351	0.128
352	0.127
352	0.127
353	0.127
353	0.127
354	0.126
354	0.126
354	0.125
355	0.125
355	0.125
356	0.125
356	0.124
357	0.124
357	0.124
358	0.124
358	0.124
359	0.124
359	0.124
360	0.124
360	0.124
360	0.124
361	0.124
361	0.124
362	0.124
362	0.124
363	0.123
363	0.123
364	0.123
364	0.123
365	0.123
365	0.122
366	0.122
366	0.122
366	0.122
367	0.122
367	0.122
368	0.122
368	0.121
369	0.121
369	0.121
370	0.121
370	0.121
371	0.121
371	0.121
372	0.12
372	0.12
372	0.12
373	0.12
373	0.119
374	0.119
374	0.119
375	0.119
375	0.119
376	0.119
376	0.119
377	0.119
377	0.119
378	0.119
378	0.119
378	0.119
379	0.119
379	0.119
380	0.119
380	0.119
381	0.118
381	0.118
382	0.118
382	0.118
383	0.118
383	0.118
383	0.117
384	0.117
384	0.117
385	0.117
385	0.116
386	0.116
386	0.116
387	0.116
387	0.116
388	0.116
388	0.116
389	0.116
389	0.115
389	0.115
390	0.115
390	0.115
391	0.115
391	0.115
392	0.115
392	0.114
393	0.114
393	0.114
394	0.114
394	0.114
394	0.114
395	0.114
395	0.113
396	0.113
396	0.113
397	0.113
397	0.113
398	0.113
398	0.113
399	0.113
399	0.113
400	0.113
400	0.113
400	0.112
401	0.112
401	0.112
402	0.112
402	0.111
403	0.111
403	0.111
404	0.111
404	0.111
405	0.11
405	0.11
405	0.11
406	0.11
406	0.11
407	0.11
407	0.11
408	0.109
408	0.109
409	0.109
409	0.109
410	0.109
410	0.109
411	0.109
411	0.109
411	0.109
412	0.109
412	0.108
413	0.108
413	0.108
414	0.108
414	0.108
415	0.108
415	0.107
416	0.107
416	0.107
416	0.107
417	0.107
417	0.107
418	0.107
418	0.107
419	0.107
419	0.107
420	0.107
420	0.107
421	0.107
421	0.108
421	0.108
422	0.108
422	0.108
423	0.107
423	0.107
424	0.107
424	0.107
425	0.107
425	0.106
426	0.106
426	0.106
427	0.106
427	0.106
427	0.106
428	0.106
428	0.106
429	0.106
429	0.106
430	0.106
430	0.106
431	0.106
431	0.106
432	0.105
432	0.105
432	0.105
433	0.104
433	0.104
434	0.104
434	0.104
435	0.103
435	0.103
436	0.104
436	0.103
437	0.103
437	0.104
437	0.104
438	0.103
438	0.103
439	0.103
439	0.103
440	0.103
440	0.103
441	0.103
441	0.103
442	0.103
442	0.103
442	0.103
443	0.104
443	0.104
444	0.104
444	0.104
445	0.103
445	0.103
446	0.103
446	0.103
447	0.103
447	0.103
447	0.103
448	0.103
448	0.103
449	0.103
449	0.103
450	0.103
450	0.103
451	0.103
451	0.103
452	0.102
452	0.102
452	0.102
453	0.102
453	0.102
454	0.102
454	0.103
455	0.103
455	0.103
456	0.103
456	0.103
457	0.103
457	0.103
458	0.103
458	0.103
458	0.103
459	0.103
459	0.102
460	0.102
460	0.102
461	0.102
461	0.102
462	0.102
462	0.102
463	0.102
463	0.102
463	0.103
464	0.103
464	0.103
465	0.103
465	0.103
466	0.104
466	0.104
467	0.104
467	0.104
467	0.104
468	0.104
468	0.104
469	0.104
469	0.104
470	0.104
470	0.104
471	0.104
471	0.104
472	0.104
472	0.105
472	0.105
473	0.105
473	0.105
474	0.106
474	0.106
475	0.107
475	0.107
476	0.107
476	0.108
477	0.108
477	0.108
477	0.108
478	0.108
478	0.108
479	0.109
479	0.109
480	0.109
480	0.109
481	0.11
481	0.111
482	0.112
482	0.112
482	0.113
483	0.115
483	0.116
484	0.117
484	0.117
485	0.118
485	0.119
486	0.119
486	0.12
487	0.12
487	0.121
487	0.121
488	0.121
488	0.121
489	0.122
489	0.123
490	0.123
490	0.124
491	0.124
491	0.125
492	0.126
492	0.126
492	0.127
493	0.128
493	0.129
494	0.13
494	0.131
495	0.133
495	0.134
496	0.135
496	0.136
496	0.137
497	0.138
497	0.139
498	0.14
498	0.141
499	0.142
499	0.142
500	0.143
500	0.144
501	0.146
501	0.147
501	0.148
502	0.149
502	0.151
503	0.152
503	0.153
504	0.154
504	0.155
505	0.156
505	0.156
506	0.157
506	0.157
506	0.158
507	0.159
507	0.16
508	0.161
508	0.161
509	0.162
509	0.163
510	0.164
510	0.165
511	0.166
511	0.167
511	0.168
512	0.169
512	0.17
513	0.17
513	0.171
514	0.171
514	0.171
515	0.171
515	0.171
515	0.171
516	0.172
516	0.172
517	0.172
517	0.172
518	0.173
518	0.173
519	0.173
519	0.172
520	0.172
520	0.172
520	0.171
521	0.17
521	0.17
522	0.169
522	0.168
523	0.168
523	0.168
524	0.168
524	0.168
524	0.169
525	0.169
525	0.17
526	0.171
526	0.172
527	0.173
527	0.173
528	0.173
528	0.174
529	0.174
529	0.174
529	0.174
530	0.173
530	0.173
531	0.172
531	0.171
532	0.171
532	0.17
533	0.169
533	0.168
533	0.167
534	0.166
534	0.165
535	0.164
535	0.163
536	0.162
536	0.161
537	0.16
537	0.159
538	0.158
538	0.157
538	0.155
539	0.154
539	0.153
540	0.152
540	0.15
541	0.149
541	0.148
542	0.146
542	0.145
542	0.143
543	0.142
543	0.141
544	0.139
544	0.138
545	0.138
545	0.137
546	0.136
546	0.135
547	0.133
547	0.132
547	0.131
548	0.129
548	0.128
549	0.127
549	0.126
550	0.124
550	0.123
551	0.121
551	0.12
551	0.119
552	0.118
552	0.117
553	0.116
553	0.115
554	0.114
554	0.112
555	0.111
555	0.109
556	0.107
556	0.106
556	0.104
557	0.102
557	0.101
558	0.099
558	0.098
559	0.096
559	0.095
560	0.094
560	0.094
560	0.093
561	0.092
561	0.092
562	0.091
562	0.089
563	0.088
563	0.087
564	0.085
564	0.084
564	0.082
565	0.081
565	0.079
566	0.078
566	0.077
567	0.077
567	0.076
568	0.076
568	0.076
568	0.076
569	0.076
569	0.075
570	0.074
570	0.073
571	0.073
571	0.072
572	0.07
572	0.07
573	0.069
573	0.068
573	0.067
574	0.066
574	0.066
575	0.065
575	0.066
576	0.065
576	0.064
577	0.064
577	0.063
577	0.063
578	0.062
578	0.062
579	0.061
579	0.061
580	0.06
580	0.058
581	0.057
581	0.056
581	0.056
582	0.055
582	0.055
583	0.055
583	0.055
584	0.054
584	0.053
585	0.052
585	0.052
585	0.052
586	0.052
586	0.051
587	0.05
587	0.049
588	0.048
588	0.047
589	0.046
589	0.046
590	0.045
590	0.045
590	0.046
591	0.045
591	0.044
592	0.044
592	0.043
593	0.043
593	0.043
594	0.043
594	0.042
594	0.042
595	0.042
595	0.041
596	0.041
596	0.041
597	0.042
597	0.042
598	0.042
598	0.042
598	0.042
599	0.042
599	0.041
600	0.041
600	0.04
601	0.04
601	0.04
602	0.039
602	0.039
602	0.039
603	0.039
603	0.039
604	0.04
604	0.041
605	0.042
605	0.043
606	0.043
606	0.043
606	0.043
607	0.043
607	0.043
608	0.042
608	0.041
609	0.041
609	0.04
610	0.039
610	0.038
610	0.038
611	0.039
611	0.039
612	0.04
612	0.04
613	0.041
613	0.042
614	0.043
614	0.043
614	0.043
615	0.044
615	0.044
616	0.044
616	0.044
617	0.044
617	0.044
618	0.043
618	0.043
618	0.043
619	0.043
619	0.044
620	0.045
620	0.045
621	0.045
621	0.046
622	0.046
622	0.047
622	0.047
623	0.047
623	0.048
624	0.048
624	0.048
625	0.048
625	0.048
626	0.048
626	0.049
626	0.05
627	0.051
627	0.052
628	0.054
628	0.055
629	0.056
629	0.056
630	0.057
630	0.058
630	0.059
631	0.059
631	0.06
632	0.06
632	0.06
633	0.061
633	0.062
634	0.063
634	0.064
634	0.066
635	0.067
635	0.068
636	0.068
636	0.07
637	0.07
637	0.071
638	0.072
638	0.073
638	0.074
639	0.074
639	0.074
640	0.075
640	0.076
641	0.077
641	0.078
642	0.079
642	0.08
642	0.081
643	0.082
643	0.083
644	0.085
644	0.086
645	0.088
645	0.09
646	0.092
646	0.094
646	0.097
647	0.1
647	0.102
648	0.104
648	0.107
649	0.109
649	0.112
650	0.114
650	0.117
650	0.119
651	0.121
651	0.123
652	0.125
652	0.127
653	0.13
653	0.135
653	0.141
654	0.113
654	0.092
655	0.095
655	0.097
656	0.098
656	0.099
657	0.1
657	0.102
657	0.103
658	0.102
658	0.096
659	0.121
659	0.156
660	0.16
660	0.162
661	0.164
661	0.166
661	0.168
662	0.17
662	0.172
663	0.174
663	0.176
664	0.178
664	0.179
665	0.181
665	0.183
665	0.184
666	0.185
666	0.187
667	0.188
667	0.189
668	0.191
668	0.193
669	0.194
669	0.196
669	0.198
670	0.2
670	0.202
671	0.204
671	0.205
672	0.207
672	0.209
672	0.211
673	0.213
673	0.215
674	0.216
674	0.217
675	0.219
675	0.221
676	0.223
676	0.224
676	0.225
677	0.226
677	0.227
678	0.228
678	0.229
679	0.23
679	0.231
680	0.232
680	0.232
680	0.233
681	0.233
681	0.234
682	0.234
682	0.235
683	0.236
683	0.237
684	0.237
684	0.237
684	0.237
685	0.237
685	0.237
686	0.237
686	0.237
687	0.237
687	0.236
687	0.236
688	0.235
688	0.235
689	0.235
689	0.235
690	0.234
690	0.234
691	0.233
691	0.233
691	0.232
692	0.232
692	0.231
693	0.231
693	0.231
694	0.23
694	0.229
695	0.229
695	0.228
695	0.228
696	0.227
696	0.226
697	0.224
697	0.223
698	0.222
698	0.22
698	0.219
699	0.218
699	0.216
700	0.214
700	0.213
701	0.211
701	0.21
702	0.209
702	0.208
702	0.207
703	0.205
703	0.204
704	0.203
704	0.202
705	0.201
705	0.2
705	0.198
706	0.196
706	0.195
707	0.193
707	0.191
708	0.189
708	0.188
709	0.186
709	0.184
709	0.182
710	0.18
710	0.179
711	0.178
711	0.176
712	0.174
712	0.172
713	0.17
713	0.168
713	0.166
714	0.163
714	0.161
715	0.16
715	0.158
716	0.156
716	0.154
716	0.153
717	0.153
717	0.152
718	0.151
718	0.15
719	0.15
719	0.148
720	0.147
720	0.145
720	0.143
721	0.141
721	0.139
722	0.137
722	0.135
723	0.133
723	0.131
723	0.129
724	0.127
724	0.125
725	0.123
725	0.122
726	0.12
726	0.118
727	0.117
727	0.115
727	0.113
728	0.111
728	0.11
729	0.109
729	0.107
730	0.106
730	0.104
730	0.103
731	0.101
731	0.1
732	0.099
732	0.098
733	0.097
733	0.096
734	0.094
734	0.093
734	0.091
735	0.09
735	0.088
736	0.087
736	0.085
737	0.083
737	0.081
737	0.079
738	0.077
738	0.075
739	0.073
739	0.072
740	0.07
740	0.069
741	0.068
741	0.067
741	0.065
742	0.064
742	0.062
743	0.061
743	0.059
744	0.058
744	0.057
744	0.055
745	0.054
745	0.053
746	0.052
746	0.051
747	0.051
747	0.051
748	0.051
748	0.05
748	0.049
749	0.048
749	0.048
750	0.046
750	0.044
751	0.043
751	0.041
751	0.04
752	0.038
752	0.037
753	0.036
753	0.034
754	0.034
754	0.033
754	0.033
755	0.033
755	0.034
756	0.033
756	0.032
757	0.031
757	0.031
758	0.03
758	0.029
758	0.029
759	0.028
759	0.026
760	0.025
760	0.024
761	0.023
761	0.022
761	0.022
762	0.021
762	0.02
763	0.019
763	0.018
764	0.016
764	0.015
764	0.014
765	0.012
765	0.011
766	0.01
766	0.009
767	0.008
767	0.007
768	0.005
768	0.004
768	0.003
769	0.002
769	0
770	-0.001
770	-0.002
771	-0.003
771	-0.005
771	-0.006
772	-0.007
772	-0.008
773	-0.009
773	-0.011
774	-0.013
774	-0.014
775	-0.016
775	-0.018
775	-0.021
776	-0.023
776	-0.025
777	-0.027
777	-0.029
778	-0.031
778	-0.033
778	-0.035
779	-0.036
779	-0.038
780	-0.04
780	-0.042
781	-0.045
781	-0.048
781	-0.052
782	-0.056
782	-0.06
783	-0.065
783	-0.069
784	-0.074
784	-0.079
784	-0.084
785	-0.089
785	-0.095
786	-0.1
786	-0.105
787	-0.108
787	-0.112
788	-0.117
788	-0.124
788	-0.13
789	-0.138
789	-0.142
790	-0.145
790	-0.149
791	-0.153
791	-0.156
791	-0.159
792	-0.154
792	-0.145
793	-0.14
793	-0.136
794	-0.134
794	-0.136
794	-0.139
795	-0.141
795	-0.141
796	-0.141
796	-0.144
797	-0.152
797	-0.163
797	-0.169
798	-0.175
798	-0.178
799	-0.178
799	-0.178
800	-0.178
800	-0.179
801	-0.182
801	-0.182
801	-0.182
802	-0.183
802	-0.184
803	-0.184
803	-0.184
804	-0.183
804	-0.178
804	-0.172
805	-0.168
805	-0.166
806	-0.163
806	-0.162
807	-0.161
807	-0.161
807	-0.16
808	-0.16
808	-0.161
809	-0.165
809	-0.171
810	-0.174
810	-0.177
810	-0.181
811	-0.184
811	-0.185
812	-0.181
812	-0.179
813	-0.179
813	-0.18
813	-0.182
814	-0.183
814	-0.182
815	-0.179
815	-0.175
816	-0.169
816	-0.165
817	-0.163
817	-0.158
817	-0.15
818	-0.141
818	-0.129
819	-0.117
819	-0.107
820	-0.099
820	-0.092
820	-0.085
821	-0.079
821	-0.073
822	-0.068
822	-0.063
823	-0.059
823	-0.056
823	-0.053
824	-0.05
824	-0.047
825	-0.043
825	-0.04
826	-0.037
826	-0.035
826	-0.033
827	-0.032
827	-0.03
828	-0.028
828	-0.026
829	-0.024
829	-0.023
829	-0.022
830	-0.021
830	-0.02
831	-0.019
831	-0.018
832	-0.018
832	-0.018
832	-0.018
833	-0.018
833	-0.019
834	-0.019
834	-0.02
835	-0.02
835	-0.021
835	-0.021
836	-0.021
836	-0.021
837	-0.021
837	-0.021
838	-0.021
838	-0.02
839	-0.02
839	-0.019
839	-0.018
840	-0.017
840	-0.016
841	-0.016
841	-0.014
842	-0.013
842	-0.012
842	-0.011
843	-0.01
843	-0.009
844	-0.008
844	-0.007
845	-0.007
845	-0.006
845	-0.005
846	-0.005
846	-0.005
847	-0.005
847	-0.006
848	-0.006
848	-0.006
848	-0.007
849	-0.008
849	-0.008
850	-0.009
850	-0.01
851	-0.011
851	-0.012
851	-0.013
852	-0.014
852	-0.014
853	-0.015
853	-0.015
854	-0.016
854	-0.016
854	-0.016
855	-0.016
855	-0.016
856	-0.016
856	-0.016
857	-0.016
857	-0.016
857	-0.015
858	-0.015
858	-0.014
859	-0.014
859	-0.013
860	-0.012
860	-0.011
860	-0.01
861	-0.009
861	-0.009
862	-0.008
862	-0.008
863	-0.008
863	-0.009
863	-0.009
864	-0.01
864	-0.01
865	-0.01
865	-0.01
866	-0.011
866	-0.011
866	-0.01
867	-0.01
867	-0.009
868	-0.009
868	-0.008
869	-0.008
869	-0.008
869	-0.008
870	-0.009
870	-0.009
871	-0.01
871	-0.011
872	-0.011
872	-0.012
872	-0.012
873	-0.013
873	-0.013
874	-0.013
874	-0.013
875	-0.013
875	-0.013
875	-0.012
876	-0.012
876	-0.012
877	-0.012
877	-0.012
878	-0.012
878	-0.012
878	-0.012
879	-0.012
879	-0.012
880	-0.013
880	-0.013
881	-0.013
881	-0.013
881	-0.013
882	-0.012
882	-0.012
883	-0.011
883	-0.011
884	-0.01
884	-0.009
884	-0.008
885	-0.008
885	-0.007
886	-0.006
886	-0.006
887	-0.006
887	-0.006
887	-0.006
888	-0.006
888	-0.006
889	-0.006
889	-0.006
890	-0.006
890	-0.006
890	-0.006
891	-0.006
891	-0.006
892	-0.006
892	-0.006
893	-0.006
893	-0.007
893	-0.007
894	-0.007
894	-0.008
895	-0.008
895	-0.009
895	-0.009
896	-0.01
896	-0.01
897	-0.009
897	-0.009
898	-0.009
898	-0.008
898	-0.008
899	-0.007
899	-0.007
900	-0.006
900	-0.005
901	-0.005
901	-0.004
901	-0.004
902	-0.003
902	-0.003
903	-0.002
903	-0.002
904	-0.001
904	-0.001
904	-0.001
905	-0.001
905	-0
906	-0.001
906	-0.001
907	-0.001
907	-0.001
907	-0.002
908	-0.002
908	-0.003
909	-0.004
909	-0.004
910	-0.005
910	-0.006
910	-0.007
911	-0.008
911	-0.008
912	-0.009
912	-0.01
913	-0.01
913	-0.011
913	-0.011
914	-0.012
914	-0.012
915	-0.013
915	-0.013
916	-0.013
916	-0.013
916	-0.013
917	-0.012
917	-0.012
918	-0.011
918	-0.01
918	-0.009
919	-0.008
919	-0.007
920	-0.005
920	-0.004
921	-0.003
921	-0.002
921	-0.001
922	0
922	0.001
923	0.002
923	0.002
924	0.002
924	0.002
924	0.001
925	0
925	-0.001
926	-0.002
926	-0.003
927	-0.004
927	-0.005
927	-0.005
928	-0.005
928	-0.005
929	-0.005
929	-0.005
930	-0.004
930	-0.004
930	-0.003
931	-0.003
931	-0.003
932	-0.003
932	-0.003
933	-0.003
933	-0.003
933	-0.004
934	-0.005
934	-0.005
935	-0.006
935	-0.007
935	-0.008
936	-0.008
936	-0.009
937	-0.009
937	-0.01
938	-0.01
938	-0.01
938	-0.01
939	-0.01
939	-0.01
940	-0.01
940	-0.011
941	-0.011
941	-0.011
941	-0.011
942	-0.011
942	-0.011
943	-0.011
943	-0.011
944	-0.011
944	-0.011
944	-0.011
945	-0.011
945	-0.011
946	-0.012
946	-0.012
946	-0.012
947	-0.012
947	-0.013
948	-0.013
948	-0.014
949	-0.014
949	-0.013
949	-0.013
950	-0.012
950	-0.011
951	-0.011
951	-0.01
952	-0.009
952	-0.008
952	-0.007
953	-0.006
953	-0.005
954	-0.004
954	-0.004
955	-0.003
955	-0.003
955	-0.003
956	-0.003
956	-0.003
957	-0.003
957	-0.003
957	-0.004
958	-0.004
958	-0.005
959	-0.006
959	-0.006
960	-0.007
960	-0.008
960	-0.008
961	-0.009
961	-0.01
962	-0.011
962	-0.012
963	-0.013
963	-0.014
963	-0.016
964	-0.018
964	-0.019
965	-0.02
965	-0.021
966	-0.022
966	-0.023
966	-0.023
967	-0.023
967	-0.022
968	-0.022
968	-0.02
968	-0.019
969	-0.018
969	-0.016
970	-0.015
970	-0.013
971	-0.012
971	-0.011
971	-0.009
972	-0.008
972	-0.006
973	-0.005
973	-0.004
974	-0.004
974	-0.003
974	-0.002
975	-0.002
975	-0.001
976	-0.001
976	-0.001
976	-0.001
977	-0.001
977	-0.002
978	-0.002
978	-0.003
979	-0.004
979	-0.004
979	-0.005
980	-0.006
980	-0.007
981	-0.008
981	-0.009
982	-0.009
982	-0.01
982	-0.011
983	-0.011
983	-0.012
984	-0.012
984	-0.012
984	-0.013
985	-0.013
985	-0.013
986	-0.013
986	-0.013
987	-0.013
987	-0.013
987	-0.013
988	-0.012
988	-0.012
989	-0.011
989	-0.01
990	-0.01
990	-0.009
990	-0.008
991	-0.008
991	-0.008
992	-0.008
992	-0.008
992	-0.009
993	-0.009
993	-0.01
994	-0.011
994	-0.012
995	-0.013
995	-0.014
995	-0.015
996	-0.015
996	-0.016
997	-0.016
997	-0.016
997	-0.016
998	-0.015
998	-0.014
999	-0.014
999	-0.013
1000	-0.013
1000	-0.012
1000	-0.012
1001	-0.012
1001	-0.012
1002	-0.012
1002	-0.013
1003	-0.014
1003	-0.015
1003	-0.016
1004	-0.017
1004	-0.018
1005	-0.018
1005	-0.019
1005	-0.019
1006	-0.02
1006	-0.02
1007	-0.02
1007	-0.02
1008	-0.02
1008	-0.02
1008	-0.02
1009	-0.02
1009	-0.02
1010	-0.02
1010	-0.02
1010	-0.019
1011	-0.019
1011	-0.019
1012	-0.018
1012	-0.018
1013	-0.017
1013	-0.017
1013	-0.017
1014	-0.016
1014	-0.015
1015	-0.015
1015	-0.014
1016	-0.013
1016	-0.013
1016	-0.012
1017	-0.011
1017	-0.011
1018	-0.01
1018	-0.009
1018	-0.008
1019	-0.008
1019	-0.007
1020	-0.007
1020	-0.007
1021	-0.007
1021	-0.007
1021	-0.006
1022	-0.007
1022	-0.007
1023	-0.007
1023	-0.007
1023	-0.007
1024	-0.008
1024	-0.008
1025	-0.008
1025	-0.008
1026	-0.009
1026	-0.009
1026	-0.009
1027	-0.01
1027	-0.01
1028	-0.01
1028	-0.011
1028	-0.012
1029	-0.012
1029	-0.013
1030	-0.014
1030	-0.015
1031	-0.016
1031	-0.016
1031	-0.017
1032	-0.017
1032	-0.018
1033	-0.018
1033	-0.018
1033	-0.018
1034	-0.019
1034	-0.019
1035	-0.019
1035	-0.019
1036	-0.019
1036	-0.019
1036	-0.019
1037	-0.018
1037	-0.018
1038	-0.018
1038	-0.017
1039	-0.017
1039	-0.016
1039	-0.016
1040	-0.016
1040	-0.015
1041	-0.016
1041	-0.016
1041	-0.016
1042	-0.016
1042	-0.016
1043	-0.017
1043	-0.017
1044	-0.018
1044	-0.018
1044	-0.018
1045	-0.018
1045	-0.018
1046	-0.018
1046	-0.017
1046	-0.017
1047	-0.016
1047	-0.015
1048	-0.015
1048	-0.014
1049	-0.014
1049	-0.014
1049	-0.014
1050	-0.014
1050	-0.014
1051	-0.015
1051	-0.015
1051	-0.015
1052	-0.016
1052	-0.017
1053	-0.017
1053	-0.017
1053	-0.018
1054	-0.018
1054	-0.019
1055	-0.019
1055	-0.019
1056	-0.02
1056	-0.02
1056	-0.021
1057	-0.021
1057	-0.021
1058	-0.021
1058	-0.021
1058	-0.021
1059	-0.021
1059	-0.021
1060	-0.021
1060	-0.02
1061	-0.02
1061	-0.019
1061	-0.019
1062	-0.019
1062	-0.018
1063	-0.018
1063	-0.018
1063	-0.018
1064	-0.019
1064	-0.019
1065	-0.019
1065	-0.02
1066	-0.021
1066	-0.021
1066	-0.022
1067	-0.022
1067	-0.023
1068	-0.023
1068	-0.024
1068	-0.024
1069	-0.025
1069	-0.025
1070	-0.024
1070	-0.024
1071	-0.024
1071	-0.024
1071	-0.024
1072	-0.023
1072	-0.023
1073	-0.022
1073	-0.021
1073	-0.021
1074	-0.02
1074	-0.02
1075	-0.019
1075	-0.019
1076	-0.018
1076	-0.018
1076	-0.018
1077	-0.017
1077	-0.017
1078	-0.017
1078	-0.016
1078	-0.016
1079	-0.015
1079	-0.015
1080	-0.014
1080	-0.014
1080	-0.013
1081	-0.013
1081	-0.012
1082	-0.011
1082	-0.011
1083	-0.011
1083	-0.011
1083	-0.01
1084	-0.01
1084	-0.01
1085	-0.009
1085	-0.009
1085	-0.008
1086	-0.007
1086	-0.007
1087	-0.007
1087	-0.006
1088	-0.005
1088	-0.005
1088	-0.004
1089	-0.005
1089	-0.005
1090	-0.005
1090	-0.005
1090	-0.005
1091	-0.004
1091	-0.004
1092	-0.004
1092	-0.003
1092	-0.003
1093	-0.002
1093	-0.001
1094	0.001
1094	0.002
1095	0.003
1095	0.004
1095	0.006
1096	0.007
1096	0.008
1097	0.01
1097	0.011
1097	0.013
1098	0.014
1098	0.015
1099	0.017
1099	0.018
1100	0.02
1100	0.022
1100	0.024
1101	0.027
1101	0.028
1102	0.032
1102	0.036
1102	0.04
1103	0.045
1103	0.05
1104	0.054
1104	0.06
1104	0.065
1105	0.072
1105	0.079
1106	0.086
1106	0.093
1107	0.102
1107	0.113
1107	0.125
1108	0.166
1108	0.22
1109	0.298
1109	0.426
1109	0.53
1110	0.752
1110	-0
1111	-0
1111	-0
