Data from 15c-2a_Absorbance__9__00009.txt Node

Date: Fri Jan 19 09:41:52 CET 2024
User: Marek
Spectrometer: MAYP115816
Trigger mode: 0
Integration Time (sec): 2.000000E-1
Scans to average: 10
Electric dark correction enabled: true
Nonlinearity correction enabled: true
Boxcar width: 5
XAxis mode: Wavelengths
Number of Pixels in Spectrum: 2068
>>>>>Begin Spectral Data<<<<<
199	-1.756
199	-1.599
200	-1.454
200	-1.335
201	-1.267
201	-1.213
202	-1.141
202	-1.082
203	-1.03
203	-0.986
204	-0.959
204	-0.936
205	-0.917
205	-0.906
205	-0.904
206	-0.898
206	-0.893
207	-0.888
207	-0.884
208	-0.882
208	-0.878
209	-0.877
209	-0.872
210	-0.869
210	-0.868
211	-0.866
211	-0.864
212	-0.865
212	-0.865
213	-0.865
213	-0.862
213	-0.861
214	-0.857
214	-0.855
215	-0.853
215	-0.851
216	-0.848
216	-0.847
217	-0.843
217	-0.841
218	-0.839
218	-0.836
219	-0.834
219	-0.833
220	-0.831
220	-0.831
221	-0.829
221	-0.824
221	-0.819
222	-0.817
222	-0.813
223	-0.808
223	-0.803
224	-0.796
224	-0.789
225	-0.783
225	-0.772
226	-0.762
226	-0.753
227	-0.741
227	-0.727
228	-0.712
228	-0.698
229	-0.68
229	-0.66
229	-0.636
230	-0.611
230	-0.584
231	-0.554
231	-0.521
232	-0.487
232	-0.451
233	-0.413
233	-0.374
234	-0.336
234	-0.299
235	-0.264
235	-0.228
236	-0.195
236	-0.163
236	-0.133
237	-0.106
237	-0.081
238	-0.057
238	-0.036
239	-0.017
239	0
240	0.017
240	0.031
241	0.044
241	0.057
242	0.067
242	0.077
243	0.086
243	0.094
243	0.102
244	0.108
244	0.115
245	0.121
245	0.126
246	0.131
246	0.135
247	0.14
247	0.144
248	0.148
248	0.151
249	0.155
249	0.158
250	0.161
250	0.164
250	0.166
251	0.169
251	0.172
252	0.174
252	0.176
253	0.179
253	0.181
254	0.182
254	0.184
255	0.186
255	0.188
256	0.189
256	0.19
257	0.192
257	0.193
258	0.193
258	0.194
258	0.195
259	0.195
259	0.196
260	0.196
260	0.196
261	0.196
261	0.196
262	0.196
262	0.196
263	0.196
263	0.196
264	0.196
264	0.195
265	0.195
265	0.195
265	0.194
266	0.194
266	0.193
267	0.192
267	0.192
268	0.191
268	0.19
269	0.189
269	0.188
270	0.186
270	0.185
271	0.184
271	0.183
272	0.181
272	0.18
272	0.179
273	0.177
273	0.176
274	0.175
274	0.174
275	0.172
275	0.171
276	0.169
276	0.168
277	0.166
277	0.164
278	0.163
278	0.161
278	0.16
279	0.158
279	0.157
280	0.155
280	0.154
281	0.152
281	0.151
282	0.15
282	0.149
283	0.147
283	0.146
284	0.145
284	0.144
285	0.143
285	0.142
285	0.141
286	0.139
286	0.138
287	0.137
287	0.136
288	0.135
288	0.134
289	0.133
289	0.132
290	0.132
290	0.131
291	0.13
291	0.129
292	0.128
292	0.128
292	0.127
293	0.126
293	0.126
294	0.125
294	0.124
295	0.124
295	0.124
296	0.123
296	0.123
297	0.123
297	0.123
298	0.122
298	0.122
298	0.122
299	0.122
299	0.121
300	0.121
300	0.121
301	0.121
301	0.121
302	0.12
302	0.12
303	0.12
303	0.12
304	0.12
304	0.119
305	0.119
305	0.119
305	0.119
306	0.119
306	0.119
307	0.119
307	0.119
308	0.119
308	0.119
309	0.118
309	0.118
310	0.118
310	0.118
311	0.118
311	0.117
311	0.117
312	0.117
312	0.117
313	0.117
313	0.117
314	0.116
314	0.116
315	0.116
315	0.116
316	0.116
316	0.115
317	0.115
317	0.115
318	0.115
318	0.114
318	0.114
319	0.114
319	0.114
320	0.114
320	0.114
321	0.113
321	0.113
322	0.113
322	0.112
323	0.112
323	0.112
324	0.112
324	0.111
324	0.111
325	0.111
325	0.11
326	0.11
326	0.11
327	0.11
327	0.109
328	0.109
328	0.109
329	0.108
329	0.108
330	0.108
330	0.108
330	0.108
331	0.107
331	0.107
332	0.107
332	0.107
333	0.106
333	0.106
334	0.106
334	0.106
335	0.105
335	0.105
336	0.105
336	0.104
336	0.104
337	0.104
337	0.103
338	0.103
338	0.103
339	0.102
339	0.102
340	0.102
340	0.101
341	0.101
341	0.101
342	0.101
342	0.101
342	0.1
343	0.1
343	0.1
344	0.1
344	0.1
345	0.099
345	0.099
346	0.099
346	0.098
347	0.098
347	0.097
348	0.097
348	0.097
348	0.097
349	0.097
349	0.096
350	0.096
350	0.096
351	0.096
351	0.096
352	0.095
352	0.095
353	0.095
353	0.095
354	0.094
354	0.094
354	0.093
355	0.093
355	0.093
356	0.093
356	0.093
357	0.092
357	0.092
358	0.092
358	0.092
359	0.092
359	0.093
360	0.093
360	0.093
360	0.093
361	0.093
361	0.093
362	0.094
362	0.094
363	0.093
363	0.093
364	0.093
364	0.093
365	0.093
365	0.093
366	0.092
366	0.092
366	0.092
367	0.092
367	0.092
368	0.092
368	0.092
369	0.091
369	0.091
370	0.091
370	0.091
371	0.091
371	0.091
372	0.091
372	0.09
372	0.09
373	0.09
373	0.09
374	0.09
374	0.09
375	0.09
375	0.09
376	0.09
376	0.09
377	0.09
377	0.09
378	0.09
378	0.09
378	0.09
379	0.09
379	0.09
380	0.09
380	0.09
381	0.09
381	0.09
382	0.09
382	0.09
383	0.09
383	0.09
383	0.09
384	0.09
384	0.089
385	0.089
385	0.089
386	0.089
386	0.089
387	0.089
387	0.089
388	0.089
388	0.089
389	0.089
389	0.088
389	0.088
390	0.088
390	0.088
391	0.088
391	0.088
392	0.088
392	0.088
393	0.088
393	0.088
394	0.088
394	0.088
394	0.088
395	0.087
395	0.087
396	0.087
396	0.087
397	0.087
397	0.087
398	0.087
398	0.087
399	0.088
399	0.088
400	0.088
400	0.088
400	0.088
401	0.087
401	0.087
402	0.087
402	0.087
403	0.086
403	0.086
404	0.086
404	0.086
405	0.085
405	0.085
405	0.085
406	0.085
406	0.084
407	0.084
407	0.084
408	0.084
408	0.084
409	0.084
409	0.083
410	0.083
410	0.083
411	0.083
411	0.083
411	0.083
412	0.083
412	0.083
413	0.083
413	0.083
414	0.083
414	0.083
415	0.083
415	0.083
416	0.083
416	0.082
416	0.082
417	0.082
417	0.082
418	0.082
418	0.082
419	0.082
419	0.082
420	0.082
420	0.082
421	0.083
421	0.083
421	0.083
422	0.083
422	0.083
423	0.083
423	0.083
424	0.083
424	0.083
425	0.082
425	0.082
426	0.082
426	0.081
427	0.081
427	0.081
427	0.081
428	0.082
428	0.082
429	0.082
429	0.082
430	0.082
430	0.082
431	0.082
431	0.082
432	0.081
432	0.081
432	0.081
433	0.08
433	0.08
434	0.079
434	0.079
435	0.079
435	0.079
436	0.08
436	0.08
437	0.08
437	0.08
437	0.08
438	0.08
438	0.079
439	0.079
439	0.079
440	0.079
440	0.078
441	0.078
441	0.078
442	0.078
442	0.078
442	0.078
443	0.078
443	0.079
444	0.079
444	0.078
445	0.078
445	0.078
446	0.078
446	0.078
447	0.078
447	0.078
447	0.078
448	0.078
448	0.077
449	0.077
449	0.077
450	0.077
450	0.077
451	0.077
451	0.076
452	0.076
452	0.076
452	0.075
453	0.075
453	0.075
454	0.075
454	0.075
455	0.074
455	0.074
456	0.074
456	0.074
457	0.074
457	0.074
458	0.074
458	0.074
458	0.073
459	0.073
459	0.073
460	0.073
460	0.073
461	0.072
461	0.072
462	0.072
462	0.072
463	0.072
463	0.072
463	0.073
464	0.073
464	0.073
465	0.072
465	0.072
466	0.072
466	0.072
467	0.072
467	0.072
467	0.071
468	0.071
468	0.07
469	0.069
469	0.069
470	0.068
470	0.068
471	0.068
471	0.068
472	0.068
472	0.068
472	0.069
473	0.069
473	0.07
474	0.07
474	0.07
475	0.071
475	0.071
476	0.071
476	0.071
477	0.071
477	0.071
477	0.071
478	0.071
478	0.071
479	0.071
479	0.071
480	0.071
480	0.071
481	0.071
481	0.071
482	0.071
482	0.072
482	0.073
483	0.073
483	0.074
484	0.075
484	0.076
485	0.077
485	0.078
486	0.078
486	0.078
487	0.078
487	0.079
487	0.078
488	0.078
488	0.077
489	0.077
489	0.076
490	0.075
490	0.075
491	0.075
491	0.074
492	0.074
492	0.074
492	0.074
493	0.074
493	0.075
494	0.075
494	0.076
495	0.077
495	0.077
496	0.078
496	0.078
496	0.079
497	0.079
497	0.08
498	0.081
498	0.081
499	0.081
499	0.081
500	0.081
500	0.082
501	0.083
501	0.083
501	0.084
502	0.084
502	0.085
503	0.085
503	0.086
504	0.086
504	0.087
505	0.086
505	0.086
506	0.086
506	0.086
506	0.086
507	0.086
507	0.086
508	0.087
508	0.087
509	0.087
509	0.087
510	0.088
510	0.088
511	0.088
511	0.089
511	0.089
512	0.089
512	0.089
513	0.088
513	0.088
514	0.088
514	0.088
515	0.088
515	0.088
515	0.087
516	0.087
516	0.086
517	0.086
517	0.086
518	0.086
518	0.086
519	0.086
519	0.086
520	0.086
520	0.085
520	0.085
521	0.084
521	0.084
522	0.083
522	0.082
523	0.081
523	0.08
524	0.08
524	0.079
524	0.079
525	0.079
525	0.08
526	0.081
526	0.082
527	0.084
527	0.085
528	0.086
528	0.088
529	0.089
529	0.09
529	0.091
530	0.092
530	0.093
531	0.093
531	0.093
532	0.093
532	0.093
533	0.094
533	0.093
533	0.093
534	0.093
534	0.094
535	0.093
535	0.094
536	0.094
536	0.094
537	0.094
537	0.094
538	0.094
538	0.094
538	0.094
539	0.094
539	0.095
540	0.095
540	0.095
541	0.094
541	0.094
542	0.094
542	0.094
542	0.094
543	0.094
543	0.094
544	0.094
544	0.094
545	0.094
545	0.095
546	0.095
546	0.096
547	0.096
547	0.096
547	0.095
548	0.095
548	0.094
549	0.093
549	0.093
550	0.093
550	0.092
551	0.092
551	0.092
551	0.092
552	0.092
552	0.093
553	0.093
553	0.094
554	0.095
554	0.095
555	0.095
555	0.095
556	0.094
556	0.094
556	0.093
557	0.093
557	0.092
558	0.092
558	0.092
559	0.092
559	0.092
560	0.093
560	0.093
560	0.094
561	0.094
561	0.095
562	0.095
562	0.095
563	0.096
563	0.095
564	0.095
564	0.094
564	0.094
565	0.094
565	0.094
566	0.094
566	0.094
567	0.095
567	0.096
568	0.097
568	0.098
568	0.099
569	0.101
569	0.102
570	0.103
570	0.103
571	0.104
571	0.104
572	0.105
572	0.105
573	0.106
573	0.106
573	0.106
574	0.107
574	0.107
575	0.107
575	0.107
576	0.108
576	0.108
577	0.109
577	0.109
577	0.108
578	0.108
578	0.108
579	0.108
579	0.108
580	0.109
580	0.109
581	0.108
581	0.107
581	0.107
582	0.107
582	0.107
583	0.107
583	0.108
584	0.108
584	0.107
585	0.107
585	0.106
585	0.106
586	0.106
586	0.106
587	0.106
587	0.105
588	0.104
588	0.102
589	0.101
589	0.101
590	0.1
590	0.1
590	0.099
591	0.099
591	0.099
592	0.099
592	0.099
593	0.099
593	0.1
594	0.1
594	0.099
594	0.099
595	0.099
595	0.099
596	0.098
596	0.098
597	0.098
597	0.099
598	0.099
598	0.1
598	0.1
599	0.1
599	0.1
600	0.1
600	0.1
601	0.1
601	0.099
602	0.099
602	0.099
602	0.098
603	0.098
603	0.097
604	0.098
604	0.098
605	0.099
605	0.099
606	0.1
606	0.1
606	0.1
607	0.099
607	0.099
608	0.098
608	0.098
609	0.096
609	0.096
610	0.094
610	0.093
610	0.093
611	0.092
611	0.092
612	0.092
612	0.092
613	0.092
613	0.093
614	0.093
614	0.093
614	0.093
615	0.093
615	0.093
616	0.092
616	0.092
617	0.092
617	0.092
618	0.091
618	0.091
618	0.09
619	0.09
619	0.09
620	0.09
620	0.09
621	0.09
621	0.09
622	0.09
622	0.089
622	0.089
623	0.089
623	0.089
624	0.089
624	0.088
625	0.088
625	0.087
626	0.087
626	0.087
626	0.087
627	0.087
627	0.087
628	0.088
628	0.088
629	0.088
629	0.088
630	0.088
630	0.088
630	0.088
631	0.088
631	0.088
632	0.088
632	0.087
633	0.088
633	0.088
634	0.088
634	0.089
634	0.09
635	0.091
635	0.092
636	0.092
636	0.092
637	0.092
637	0.093
638	0.093
638	0.093
638	0.093
639	0.093
639	0.092
640	0.092
640	0.093
641	0.093
641	0.094
642	0.094
642	0.095
642	0.096
643	0.097
643	0.098
644	0.098
644	0.099
645	0.1
645	0.101
646	0.102
646	0.104
646	0.105
647	0.107
647	0.109
648	0.111
648	0.113
649	0.115
649	0.116
650	0.118
650	0.12
650	0.121
651	0.123
651	0.124
652	0.125
652	0.126
653	0.127
653	0.13
653	0.133
654	0.107
654	0.087
655	0.092
655	0.093
656	0.094
656	0.095
657	0.096
657	0.097
657	0.097
658	0.096
658	0.092
659	0.115
659	0.147
660	0.147
660	0.148
661	0.149
661	0.15
661	0.151
662	0.153
662	0.154
663	0.156
663	0.158
664	0.159
664	0.161
665	0.163
665	0.164
665	0.166
666	0.167
666	0.169
667	0.17
667	0.171
668	0.172
668	0.173
669	0.174
669	0.175
669	0.176
670	0.177
670	0.178
671	0.179
671	0.18
672	0.181
672	0.182
672	0.183
673	0.184
673	0.185
674	0.186
674	0.187
675	0.188
675	0.19
676	0.191
676	0.192
676	0.193
677	0.195
677	0.196
678	0.198
678	0.199
679	0.2
679	0.201
680	0.202
680	0.202
680	0.203
681	0.204
681	0.205
682	0.206
682	0.207
683	0.208
683	0.209
684	0.21
684	0.211
684	0.212
685	0.212
685	0.213
686	0.213
686	0.213
687	0.213
687	0.213
687	0.213
688	0.212
688	0.212
689	0.211
689	0.211
690	0.211
690	0.211
691	0.211
691	0.211
691	0.211
692	0.211
692	0.21
693	0.21
693	0.21
694	0.209
694	0.209
695	0.208
695	0.209
695	0.209
696	0.209
696	0.208
697	0.208
697	0.207
698	0.207
698	0.206
698	0.206
699	0.206
699	0.205
700	0.204
700	0.203
701	0.202
701	0.202
702	0.202
702	0.201
702	0.201
703	0.201
703	0.2
704	0.199
704	0.199
705	0.199
705	0.199
705	0.199
706	0.198
706	0.198
707	0.197
707	0.196
708	0.195
708	0.195
709	0.194
709	0.193
709	0.191
710	0.19
710	0.189
711	0.187
711	0.186
712	0.185
712	0.184
713	0.182
713	0.181
713	0.18
714	0.179
714	0.178
715	0.177
715	0.176
716	0.175
716	0.174
716	0.173
717	0.172
717	0.172
718	0.17
718	0.169
719	0.168
719	0.167
720	0.165
720	0.164
720	0.163
721	0.162
721	0.162
722	0.161
722	0.16
723	0.159
723	0.158
723	0.157
724	0.157
724	0.156
725	0.154
725	0.153
726	0.152
726	0.151
727	0.149
727	0.148
727	0.147
728	0.146
728	0.145
729	0.144
729	0.144
730	0.143
730	0.142
730	0.141
731	0.14
731	0.14
732	0.139
732	0.139
733	0.138
733	0.138
734	0.137
734	0.136
734	0.135
735	0.134
735	0.133
736	0.131
736	0.13
737	0.129
737	0.127
737	0.126
738	0.125
738	0.123
739	0.122
739	0.12
740	0.12
740	0.119
741	0.119
741	0.118
741	0.116
742	0.115
742	0.113
743	0.112
743	0.111
744	0.11
744	0.109
744	0.108
745	0.106
745	0.105
746	0.104
746	0.104
747	0.104
747	0.104
748	0.104
748	0.104
748	0.103
749	0.102
749	0.101
750	0.1
750	0.099
751	0.098
751	0.097
751	0.097
752	0.095
752	0.094
753	0.093
753	0.092
754	0.091
754	0.091
754	0.091
755	0.091
755	0.091
756	0.091
756	0.09
757	0.089
757	0.089
758	0.088
758	0.087
758	0.087
759	0.086
759	0.085
760	0.083
760	0.081
761	0.079
761	0.078
761	0.077
762	0.076
762	0.075
763	0.075
763	0.074
764	0.072
764	0.07
764	0.068
765	0.066
765	0.064
766	0.062
766	0.06
767	0.058
767	0.055
768	0.052
768	0.049
768	0.047
769	0.045
769	0.043
770	0.042
770	0.04
771	0.038
771	0.036
771	0.033
772	0.03
772	0.028
773	0.026
773	0.023
774	0.02
774	0.017
775	0.014
775	0.011
775	0.008
776	0.005
776	0.002
777	-0.002
777	-0.005
778	-0.008
778	-0.013
778	-0.017
779	-0.021
779	-0.025
780	-0.03
780	-0.036
781	-0.043
781	-0.05
781	-0.058
782	-0.066
782	-0.074
783	-0.083
783	-0.091
784	-0.1
784	-0.109
784	-0.119
785	-0.128
785	-0.137
786	-0.143
786	-0.145
787	-0.146
787	-0.146
788	-0.149
788	-0.153
788	-0.156
789	-0.158
789	-0.158
790	-0.156
790	-0.155
791	-0.155
791	-0.157
791	-0.16
792	-0.155
792	-0.144
793	-0.138
793	-0.134
794	-0.132
794	-0.134
794	-0.137
795	-0.139
795	-0.139
796	-0.139
796	-0.142
797	-0.15
797	-0.161
797	-0.167
798	-0.173
798	-0.176
799	-0.176
799	-0.176
800	-0.176
800	-0.177
801	-0.18
801	-0.181
801	-0.18
802	-0.181
802	-0.182
803	-0.182
803	-0.182
804	-0.181
804	-0.176
804	-0.17
805	-0.166
805	-0.164
806	-0.162
806	-0.16
807	-0.159
807	-0.159
807	-0.158
808	-0.158
808	-0.159
809	-0.163
809	-0.169
810	-0.173
810	-0.175
810	-0.179
811	-0.182
811	-0.183
812	-0.179
812	-0.177
813	-0.177
813	-0.178
813	-0.18
814	-0.181
814	-0.181
815	-0.179
815	-0.177
816	-0.175
816	-0.173
817	-0.173
817	-0.171
817	-0.164
818	-0.156
818	-0.145
819	-0.133
819	-0.123
820	-0.113
820	-0.103
820	-0.093
821	-0.082
821	-0.073
822	-0.064
822	-0.056
823	-0.049
823	-0.042
823	-0.036
824	-0.029
824	-0.022
825	-0.015
825	-0.009
826	-0.002
826	0.003
826	0.007
827	0.011
827	0.015
828	0.018
828	0.021
829	0.023
829	0.025
829	0.026
830	0.027
830	0.028
831	0.029
831	0.03
832	0.031
832	0.032
832	0.032
833	0.033
833	0.033
834	0.034
834	0.034
835	0.034
835	0.035
835	0.035
836	0.035
836	0.036
837	0.036
837	0.036
838	0.037
838	0.038
839	0.039
839	0.04
839	0.041
840	0.042
840	0.043
841	0.044
841	0.045
842	0.046
842	0.048
842	0.049
843	0.049
843	0.05
844	0.051
844	0.051
845	0.051
845	0.051
845	0.051
846	0.051
846	0.051
847	0.051
847	0.05
848	0.05
848	0.049
848	0.049
849	0.049
849	0.049
850	0.049
850	0.049
851	0.049
851	0.049
851	0.049
852	0.05
852	0.05
853	0.05
853	0.051
854	0.051
854	0.052
854	0.052
855	0.052
855	0.053
856	0.053
856	0.054
857	0.054
857	0.055
857	0.055
858	0.056
858	0.056
859	0.056
859	0.057
860	0.057
860	0.057
860	0.057
861	0.058
861	0.058
862	0.058
862	0.058
863	0.058
863	0.057
863	0.057
864	0.057
864	0.057
865	0.056
865	0.056
866	0.055
866	0.054
866	0.054
867	0.053
867	0.053
868	0.052
868	0.052
869	0.052
869	0.051
869	0.051
870	0.052
870	0.052
871	0.052
871	0.053
872	0.053
872	0.054
872	0.054
873	0.055
873	0.055
874	0.055
874	0.055
875	0.055
875	0.055
875	0.054
876	0.054
876	0.053
877	0.053
877	0.052
878	0.051
878	0.051
878	0.05
879	0.05
879	0.05
880	0.049
880	0.049
881	0.049
881	0.049
881	0.05
882	0.05
882	0.051
883	0.052
883	0.053
884	0.053
884	0.054
884	0.055
885	0.056
885	0.057
886	0.058
886	0.058
887	0.058
887	0.058
887	0.058
888	0.058
888	0.058
889	0.058
889	0.058
890	0.057
890	0.057
890	0.057
891	0.057
891	0.058
892	0.058
892	0.059
893	0.059
893	0.06
893	0.06
894	0.06
894	0.06
895	0.06
895	0.06
895	0.06
896	0.059
896	0.059
897	0.059
897	0.058
898	0.058
898	0.057
898	0.057
899	0.056
899	0.056
900	0.056
900	0.056
901	0.056
901	0.056
901	0.055
902	0.055
902	0.055
903	0.054
903	0.054
904	0.053
904	0.053
904	0.052
905	0.052
905	0.051
906	0.051
906	0.05
907	0.05
907	0.05
907	0.05
908	0.05
908	0.051
909	0.051
909	0.051
910	0.052
910	0.052
910	0.052
911	0.053
911	0.053
912	0.053
912	0.053
913	0.053
913	0.053
913	0.052
914	0.052
914	0.052
915	0.051
915	0.051
916	0.051
916	0.051
916	0.051
917	0.051
917	0.051
918	0.051
918	0.052
918	0.052
919	0.052
919	0.052
920	0.053
920	0.053
921	0.054
921	0.054
921	0.054
922	0.054
922	0.054
923	0.054
923	0.054
924	0.054
924	0.054
924	0.053
925	0.053
925	0.052
926	0.052
926	0.051
927	0.05
927	0.05
927	0.049
928	0.049
928	0.048
929	0.048
929	0.048
930	0.048
930	0.049
930	0.049
931	0.049
931	0.049
932	0.049
932	0.049
933	0.049
933	0.048
933	0.048
934	0.047
934	0.046
935	0.045
935	0.045
935	0.044
936	0.044
936	0.043
937	0.043
937	0.044
938	0.044
938	0.045
938	0.045
939	0.046
939	0.046
940	0.047
940	0.047
941	0.048
941	0.049
941	0.049
942	0.05
942	0.05
943	0.05
943	0.051
944	0.052
944	0.052
944	0.053
945	0.053
945	0.053
946	0.054
946	0.054
946	0.054
947	0.054
947	0.053
948	0.053
948	0.052
949	0.052
949	0.052
949	0.051
950	0.051
950	0.051
951	0.05
951	0.05
952	0.05
952	0.05
952	0.05
953	0.05
953	0.05
954	0.05
954	0.05
955	0.05
955	0.049
955	0.049
956	0.049
956	0.048
957	0.048
957	0.047
957	0.046
958	0.045
958	0.045
959	0.044
959	0.043
960	0.043
960	0.042
960	0.042
961	0.042
961	0.042
962	0.042
962	0.042
963	0.043
963	0.043
963	0.043
964	0.043
964	0.043
965	0.043
965	0.043
966	0.043
966	0.043
966	0.044
967	0.044
967	0.044
968	0.044
968	0.044
968	0.045
969	0.045
969	0.045
970	0.045
970	0.045
971	0.045
971	0.045
971	0.045
972	0.045
972	0.045
973	0.045
973	0.045
974	0.045
974	0.045
974	0.045
975	0.045
975	0.045
976	0.046
976	0.046
976	0.046
977	0.046
977	0.046
978	0.046
978	0.047
979	0.047
979	0.047
979	0.046
980	0.046
980	0.046
981	0.046
981	0.046
982	0.046
982	0.046
982	0.046
983	0.046
983	0.046
984	0.046
984	0.046
984	0.046
985	0.045
985	0.045
986	0.044
986	0.044
987	0.043
987	0.043
987	0.043
988	0.043
988	0.043
989	0.043
989	0.043
990	0.044
990	0.044
990	0.045
991	0.045
991	0.046
992	0.046
992	0.046
992	0.046
993	0.046
993	0.045
994	0.045
994	0.044
995	0.044
995	0.043
995	0.043
996	0.043
996	0.043
997	0.043
997	0.043
997	0.043
998	0.044
998	0.044
999	0.044
999	0.045
1000	0.045
1000	0.045
1000	0.045
1001	0.045
1001	0.044
1002	0.044
1002	0.043
1003	0.042
1003	0.042
1003	0.041
1004	0.041
1004	0.04
1005	0.04
1005	0.04
1005	0.04
1006	0.04
1006	0.039
1007	0.04
1007	0.039
1008	0.039
1008	0.039
1008	0.039
1009	0.039
1009	0.038
1010	0.038
1010	0.037
1010	0.037
1011	0.037
1011	0.037
1012	0.037
1012	0.037
1013	0.037
1013	0.037
1013	0.038
1014	0.038
1014	0.039
1015	0.039
1015	0.04
1016	0.041
1016	0.041
1016	0.042
1017	0.043
1017	0.043
1018	0.043
1018	0.043
1018	0.043
1019	0.043
1019	0.043
1020	0.043
1020	0.043
1021	0.043
1021	0.042
1021	0.042
1022	0.042
1022	0.042
1023	0.042
1023	0.042
1023	0.042
1024	0.041
1024	0.041
1025	0.041
1025	0.041
1026	0.041
1026	0.04
1026	0.04
1027	0.04
1027	0.04
1028	0.04
1028	0.04
1028	0.039
1029	0.038
1029	0.038
1030	0.037
1030	0.036
1031	0.036
1031	0.035
1031	0.034
1032	0.034
1032	0.033
1033	0.033
1033	0.033
1033	0.033
1034	0.033
1034	0.033
1035	0.033
1035	0.034
1036	0.034
1036	0.035
1036	0.036
1037	0.036
1037	0.037
1038	0.037
1038	0.038
1039	0.039
1039	0.039
1039	0.04
1040	0.04
1040	0.04
1041	0.04
1041	0.041
1041	0.041
1042	0.04
1042	0.04
1043	0.04
1043	0.039
1044	0.039
1044	0.039
1044	0.039
1045	0.039
1045	0.039
1046	0.039
1046	0.04
1046	0.04
1047	0.041
1047	0.042
1048	0.043
1048	0.044
1049	0.045
1049	0.046
1049	0.047
1050	0.048
1050	0.049
1051	0.05
1051	0.051
1051	0.052
1052	0.053
1052	0.053
1053	0.054
1053	0.055
1053	0.055
1054	0.056
1054	0.056
1055	0.056
1055	0.056
1056	0.056
1056	0.056
1056	0.056
1057	0.056
1057	0.057
1058	0.057
1058	0.057
1058	0.058
1059	0.058
1059	0.059
1060	0.059
1060	0.06
1061	0.06
1061	0.061
1061	0.061
1062	0.061
1062	0.062
1063	0.062
1063	0.062
1063	0.062
1064	0.062
1064	0.062
1065	0.062
1065	0.062
1066	0.062
1066	0.062
1066	0.062
1067	0.062
1067	0.062
1068	0.062
1068	0.062
1068	0.062
1069	0.062
1069	0.063
1070	0.063
1070	0.064
1071	0.065
1071	0.065
1071	0.066
1072	0.066
1072	0.067
1073	0.068
1073	0.069
1073	0.07
1074	0.071
1074	0.071
1075	0.072
1075	0.073
1076	0.073
1076	0.074
1076	0.075
1077	0.076
1077	0.077
1078	0.077
1078	0.078
1078	0.079
1079	0.08
1079	0.081
1080	0.082
1080	0.083
1080	0.084
1081	0.086
1081	0.086
1082	0.088
1082	0.09
1083	0.091
1083	0.092
1083	0.094
1084	0.095
1084	0.097
1085	0.098
1085	0.1
1085	0.102
1086	0.104
1086	0.105
1087	0.107
1087	0.108
1088	0.11
1088	0.113
1088	0.115
1089	0.117
1089	0.12
1090	0.123
1090	0.126
1090	0.13
1091	0.134
1091	0.138
1092	0.143
1092	0.147
1092	0.151
1093	0.155
1093	0.159
1094	0.163
1094	0.168
1095	0.173
1095	0.178
1095	0.184
1096	0.189
1096	0.196
1097	0.203
1097	0.21
1097	0.218
1098	0.227
1098	0.236
1099	0.247
1099	0.257
1100	0.268
1100	0.281
1100	0.295
1101	0.311
1101	0.33
1102	0.351
1102	0.374
1102	0.399
1103	0.427
1103	0.461
1104	0.498
1104	0.541
1104	0.589
1105	0.645
1105	0.714
1106	0.795
1106	0.915
1107	1.111
1107	1.594
1107	-0
1108	-0
1108	-0
1109	-0
1109	-0
1109	-0
1110	-0
1110	-0
1111	-0
1111	-0
