Data from 15c-2a_Absorbance__1152__01152.txt Node

Date: Fri Jan 19 10:19:58 CET 2024
User: Marek
Spectrometer: MAYP115816
Trigger mode: 0
Integration Time (sec): 2.000000E-1
Scans to average: 10
Electric dark correction enabled: true
Nonlinearity correction enabled: true
Boxcar width: 5
XAxis mode: Wavelengths
Number of Pixels in Spectrum: 2068
>>>>>Begin Spectral Data<<<<<
199	-1.446
199	-1.301
200	-1.164
200	-1.052
201	-0.989
201	-0.941
202	-0.878
202	-0.83
203	-0.788
203	-0.752
204	-0.729
204	-0.706
205	-0.688
205	-0.679
205	-0.678
206	-0.673
206	-0.67
207	-0.665
207	-0.661
208	-0.66
208	-0.658
209	-0.656
209	-0.653
210	-0.652
210	-0.652
211	-0.651
211	-0.65
212	-0.651
212	-0.652
213	-0.652
213	-0.649
213	-0.65
214	-0.646
214	-0.645
215	-0.642
215	-0.641
216	-0.639
216	-0.639
217	-0.634
217	-0.632
218	-0.63
218	-0.626
219	-0.622
219	-0.622
220	-0.621
220	-0.623
221	-0.622
221	-0.617
221	-0.612
222	-0.61
222	-0.607
223	-0.602
223	-0.599
224	-0.593
224	-0.587
225	-0.58
225	-0.569
226	-0.56
226	-0.551
227	-0.54
227	-0.528
228	-0.513
228	-0.501
229	-0.483
229	-0.462
229	-0.439
230	-0.414
230	-0.386
231	-0.356
231	-0.324
232	-0.292
232	-0.257
233	-0.22
233	-0.182
234	-0.146
234	-0.111
235	-0.079
235	-0.046
236	-0.017
236	0.012
236	0.039
237	0.064
237	0.087
238	0.107
238	0.125
239	0.143
239	0.159
240	0.172
240	0.185
241	0.196
241	0.206
242	0.216
242	0.223
243	0.231
243	0.237
243	0.243
244	0.249
244	0.253
245	0.258
245	0.263
246	0.266
246	0.27
247	0.274
247	0.277
248	0.28
248	0.283
249	0.286
249	0.288
250	0.291
250	0.293
250	0.295
251	0.297
251	0.299
252	0.301
252	0.303
253	0.305
253	0.307
254	0.308
254	0.31
255	0.311
255	0.313
256	0.313
256	0.314
257	0.315
257	0.316
258	0.316
258	0.317
258	0.317
259	0.317
259	0.317
260	0.317
260	0.317
261	0.317
261	0.317
262	0.316
262	0.316
263	0.316
263	0.315
264	0.314
264	0.314
265	0.313
265	0.312
265	0.311
266	0.31
266	0.309
267	0.308
267	0.306
268	0.305
268	0.304
269	0.302
269	0.301
270	0.299
270	0.297
271	0.295
271	0.293
272	0.292
272	0.29
272	0.288
273	0.286
273	0.284
274	0.282
274	0.28
275	0.278
275	0.276
276	0.274
276	0.272
277	0.269
277	0.267
278	0.265
278	0.263
278	0.261
279	0.258
279	0.256
280	0.254
280	0.252
281	0.25
281	0.248
282	0.246
282	0.244
283	0.242
283	0.24
284	0.238
284	0.237
285	0.235
285	0.233
285	0.231
286	0.229
286	0.228
287	0.226
287	0.224
288	0.223
288	0.221
289	0.22
289	0.218
290	0.217
290	0.215
291	0.214
291	0.213
292	0.211
292	0.21
292	0.209
293	0.208
293	0.207
294	0.206
294	0.205
295	0.204
295	0.203
296	0.202
296	0.202
297	0.201
297	0.2
298	0.2
298	0.199
298	0.198
299	0.198
299	0.197
300	0.196
300	0.196
301	0.195
301	0.194
302	0.194
302	0.193
303	0.193
303	0.192
304	0.191
304	0.191
305	0.19
305	0.19
305	0.189
306	0.189
306	0.188
307	0.188
307	0.187
308	0.186
308	0.186
309	0.185
309	0.184
310	0.184
310	0.183
311	0.183
311	0.182
311	0.182
312	0.181
312	0.181
313	0.18
313	0.18
314	0.179
314	0.179
315	0.178
315	0.178
316	0.177
316	0.177
317	0.176
317	0.175
318	0.175
318	0.174
318	0.174
319	0.174
319	0.173
320	0.173
320	0.172
321	0.171
321	0.171
322	0.17
322	0.17
323	0.169
323	0.169
324	0.168
324	0.168
324	0.167
325	0.166
325	0.166
326	0.165
326	0.165
327	0.164
327	0.164
328	0.163
328	0.163
329	0.162
329	0.162
330	0.161
330	0.16
330	0.16
331	0.159
331	0.159
332	0.158
332	0.158
333	0.157
333	0.157
334	0.157
334	0.156
335	0.156
335	0.155
336	0.155
336	0.154
336	0.153
337	0.153
337	0.153
338	0.152
338	0.152
339	0.152
339	0.151
340	0.151
340	0.15
341	0.15
341	0.15
342	0.15
342	0.149
342	0.149
343	0.148
343	0.148
344	0.148
344	0.147
345	0.147
345	0.147
346	0.146
346	0.146
347	0.145
347	0.145
348	0.145
348	0.144
348	0.144
349	0.144
349	0.143
350	0.143
350	0.143
351	0.143
351	0.142
352	0.142
352	0.142
353	0.142
353	0.141
354	0.141
354	0.14
354	0.14
355	0.14
355	0.139
356	0.139
356	0.139
357	0.138
357	0.138
358	0.138
358	0.138
359	0.138
359	0.138
360	0.138
360	0.138
360	0.138
361	0.138
361	0.137
362	0.138
362	0.138
363	0.138
363	0.137
364	0.137
364	0.137
365	0.137
365	0.137
366	0.137
366	0.136
366	0.136
367	0.136
367	0.136
368	0.136
368	0.136
369	0.135
369	0.135
370	0.135
370	0.135
371	0.134
371	0.134
372	0.134
372	0.134
372	0.134
373	0.134
373	0.133
374	0.133
374	0.133
375	0.133
375	0.133
376	0.133
376	0.133
377	0.133
377	0.133
378	0.133
378	0.133
378	0.133
379	0.133
379	0.133
380	0.133
380	0.133
381	0.133
381	0.132
382	0.132
382	0.132
383	0.132
383	0.132
383	0.132
384	0.132
384	0.131
385	0.131
385	0.131
386	0.131
386	0.131
387	0.13
387	0.13
388	0.13
388	0.13
389	0.129
389	0.129
389	0.129
390	0.128
390	0.129
391	0.129
391	0.128
392	0.129
392	0.128
393	0.128
393	0.128
394	0.128
394	0.128
394	0.128
395	0.128
395	0.128
396	0.127
396	0.127
397	0.127
397	0.127
398	0.127
398	0.127
399	0.127
399	0.127
400	0.127
400	0.126
400	0.126
401	0.126
401	0.125
402	0.125
402	0.125
403	0.125
403	0.125
404	0.124
404	0.124
405	0.124
405	0.124
405	0.124
406	0.124
406	0.124
407	0.123
407	0.123
408	0.123
408	0.122
409	0.122
409	0.122
410	0.122
410	0.122
411	0.122
411	0.122
411	0.122
412	0.122
412	0.122
413	0.121
413	0.121
414	0.121
414	0.121
415	0.121
415	0.12
416	0.12
416	0.12
416	0.12
417	0.12
417	0.12
418	0.12
418	0.12
419	0.12
419	0.12
420	0.12
420	0.121
421	0.121
421	0.121
421	0.121
422	0.121
422	0.121
423	0.121
423	0.12
424	0.12
424	0.12
425	0.12
425	0.12
426	0.119
426	0.119
427	0.119
427	0.119
427	0.119
428	0.12
428	0.12
429	0.12
429	0.12
430	0.12
430	0.12
431	0.12
431	0.12
432	0.119
432	0.119
432	0.118
433	0.118
433	0.117
434	0.117
434	0.117
435	0.117
435	0.117
436	0.117
436	0.117
437	0.117
437	0.117
437	0.117
438	0.117
438	0.117
439	0.117
439	0.117
440	0.116
440	0.116
441	0.117
441	0.117
442	0.117
442	0.117
442	0.117
443	0.117
443	0.117
444	0.117
444	0.117
445	0.117
445	0.117
446	0.116
446	0.116
447	0.116
447	0.116
447	0.116
448	0.116
448	0.116
449	0.116
449	0.116
450	0.116
450	0.116
451	0.116
451	0.116
452	0.116
452	0.116
452	0.115
453	0.115
453	0.115
454	0.115
454	0.115
455	0.115
455	0.115
456	0.115
456	0.115
457	0.115
457	0.115
458	0.116
458	0.116
458	0.116
459	0.116
459	0.116
460	0.116
460	0.115
461	0.115
461	0.115
462	0.115
462	0.115
463	0.116
463	0.116
463	0.116
464	0.116
464	0.116
465	0.116
465	0.117
466	0.117
466	0.117
467	0.117
467	0.117
467	0.117
468	0.117
468	0.116
469	0.116
469	0.116
470	0.117
470	0.117
471	0.117
471	0.117
472	0.117
472	0.118
472	0.118
473	0.119
473	0.119
474	0.12
474	0.12
475	0.121
475	0.121
476	0.121
476	0.122
477	0.122
477	0.123
477	0.123
478	0.123
478	0.123
479	0.123
479	0.124
480	0.124
480	0.125
481	0.125
481	0.126
482	0.126
482	0.127
482	0.128
483	0.13
483	0.132
484	0.133
484	0.134
485	0.134
485	0.135
486	0.136
486	0.136
487	0.137
487	0.137
487	0.138
488	0.138
488	0.137
489	0.138
489	0.139
490	0.139
490	0.14
491	0.14
491	0.141
492	0.142
492	0.143
492	0.143
493	0.144
493	0.145
494	0.146
494	0.148
495	0.149
495	0.15
496	0.151
496	0.152
496	0.154
497	0.155
497	0.156
498	0.157
498	0.158
499	0.159
499	0.16
500	0.161
500	0.162
501	0.163
501	0.165
501	0.166
502	0.167
502	0.168
503	0.17
503	0.171
504	0.172
504	0.173
505	0.173
505	0.175
506	0.176
506	0.177
506	0.178
507	0.179
507	0.18
508	0.181
508	0.182
509	0.183
509	0.184
510	0.186
510	0.187
511	0.188
511	0.189
511	0.19
512	0.191
512	0.192
513	0.192
513	0.192
514	0.193
514	0.193
515	0.193
515	0.194
515	0.194
516	0.194
516	0.194
517	0.195
517	0.195
518	0.195
518	0.195
519	0.195
519	0.195
520	0.194
520	0.194
520	0.194
521	0.193
521	0.192
522	0.192
522	0.192
523	0.192
523	0.192
524	0.193
524	0.193
524	0.194
525	0.194
525	0.195
526	0.196
526	0.197
527	0.197
527	0.197
528	0.197
528	0.197
529	0.197
529	0.196
529	0.196
530	0.195
530	0.194
531	0.194
531	0.193
532	0.192
532	0.191
533	0.191
533	0.19
533	0.189
534	0.188
534	0.187
535	0.186
535	0.186
536	0.185
536	0.184
537	0.183
537	0.182
538	0.181
538	0.18
538	0.179
539	0.177
539	0.176
540	0.174
540	0.172
541	0.171
541	0.169
542	0.167
542	0.166
542	0.164
543	0.162
543	0.161
544	0.159
544	0.158
545	0.157
545	0.156
546	0.155
546	0.153
547	0.152
547	0.15
547	0.148
548	0.146
548	0.145
549	0.143
549	0.142
550	0.14
550	0.138
551	0.136
551	0.135
551	0.134
552	0.133
552	0.132
553	0.131
553	0.13
554	0.129
554	0.126
555	0.124
555	0.123
556	0.121
556	0.119
556	0.118
557	0.116
557	0.114
558	0.112
558	0.111
559	0.109
559	0.108
560	0.106
560	0.105
560	0.104
561	0.103
561	0.102
562	0.101
562	0.1
563	0.098
563	0.097
564	0.095
564	0.094
564	0.092
565	0.091
565	0.09
566	0.089
566	0.088
567	0.087
567	0.087
568	0.086
568	0.086
568	0.085
569	0.085
569	0.084
570	0.083
570	0.081
571	0.081
571	0.08
572	0.079
572	0.078
573	0.077
573	0.076
573	0.075
574	0.074
574	0.074
575	0.074
575	0.075
576	0.075
576	0.073
577	0.072
577	0.072
577	0.072
578	0.071
578	0.071
579	0.071
579	0.071
580	0.07
580	0.067
581	0.065
581	0.064
581	0.064
582	0.064
582	0.063
583	0.063
583	0.062
584	0.06
584	0.058
585	0.057
585	0.057
585	0.057
586	0.057
586	0.056
587	0.055
587	0.053
588	0.052
588	0.051
589	0.051
589	0.051
590	0.051
590	0.051
590	0.052
591	0.053
591	0.052
592	0.052
592	0.051
593	0.051
593	0.051
594	0.05
594	0.049
594	0.048
595	0.048
595	0.047
596	0.046
596	0.047
597	0.048
597	0.048
598	0.048
598	0.049
598	0.049
599	0.049
599	0.048
600	0.047
600	0.047
601	0.046
601	0.046
602	0.045
602	0.045
602	0.044
603	0.044
603	0.045
604	0.046
604	0.047
605	0.048
605	0.049
606	0.049
606	0.048
606	0.048
607	0.048
607	0.048
608	0.048
608	0.046
609	0.046
609	0.045
610	0.044
610	0.043
610	0.044
611	0.044
611	0.045
612	0.046
612	0.046
613	0.047
613	0.048
614	0.048
614	0.047
614	0.048
615	0.048
615	0.048
616	0.048
616	0.048
617	0.048
617	0.048
618	0.048
618	0.048
618	0.048
619	0.049
619	0.05
620	0.051
620	0.052
621	0.052
621	0.053
622	0.053
622	0.054
622	0.054
623	0.054
623	0.055
624	0.055
624	0.055
625	0.054
625	0.054
626	0.054
626	0.054
626	0.055
627	0.056
627	0.057
628	0.058
628	0.059
629	0.06
629	0.061
630	0.061
630	0.062
630	0.063
631	0.064
631	0.065
632	0.065
632	0.066
633	0.066
633	0.067
634	0.069
634	0.07
634	0.072
635	0.073
635	0.074
636	0.075
636	0.076
637	0.076
637	0.077
638	0.078
638	0.079
638	0.079
639	0.079
639	0.08
640	0.081
640	0.082
641	0.084
641	0.085
642	0.086
642	0.087
642	0.089
643	0.09
643	0.092
644	0.094
644	0.096
645	0.097
645	0.099
646	0.101
646	0.104
646	0.107
647	0.109
647	0.112
648	0.114
648	0.116
649	0.119
649	0.121
650	0.123
650	0.125
650	0.127
651	0.129
651	0.131
652	0.133
652	0.135
653	0.138
653	0.144
653	0.155
654	0.124
654	0.101
655	0.103
655	0.104
656	0.106
656	0.107
657	0.108
657	0.11
657	0.111
658	0.109
658	0.099
659	0.126
659	0.163
660	0.169
660	0.172
661	0.174
661	0.176
661	0.179
662	0.181
662	0.184
663	0.186
663	0.189
664	0.191
664	0.192
665	0.195
665	0.197
665	0.198
666	0.2
666	0.202
667	0.204
667	0.206
668	0.207
668	0.209
669	0.211
669	0.213
669	0.215
670	0.217
670	0.218
671	0.219
671	0.22
672	0.222
672	0.223
672	0.225
673	0.227
673	0.229
674	0.23
674	0.231
675	0.233
675	0.234
676	0.236
676	0.238
676	0.239
677	0.241
677	0.242
678	0.243
678	0.243
679	0.244
679	0.246
680	0.247
680	0.248
680	0.249
681	0.25
681	0.251
682	0.251
682	0.252
683	0.253
683	0.254
684	0.255
684	0.254
684	0.254
685	0.254
685	0.254
686	0.254
686	0.253
687	0.253
687	0.252
687	0.251
688	0.251
688	0.25
689	0.25
689	0.25
690	0.249
690	0.249
691	0.248
691	0.248
691	0.248
692	0.248
692	0.247
693	0.247
693	0.247
694	0.245
694	0.244
695	0.245
695	0.245
695	0.244
696	0.243
696	0.242
697	0.241
697	0.239
698	0.238
698	0.236
698	0.235
699	0.234
699	0.232
700	0.229
700	0.228
701	0.227
701	0.226
702	0.224
702	0.223
702	0.221
703	0.219
703	0.218
704	0.217
704	0.216
705	0.215
705	0.213
705	0.211
706	0.21
706	0.209
707	0.207
707	0.206
708	0.205
708	0.203
709	0.202
709	0.2
709	0.198
710	0.195
710	0.194
711	0.192
711	0.19
712	0.188
712	0.185
713	0.183
713	0.181
713	0.178
714	0.176
714	0.174
715	0.172
715	0.17
716	0.168
716	0.167
716	0.165
717	0.164
717	0.164
718	0.162
718	0.161
719	0.16
719	0.158
720	0.157
720	0.155
720	0.153
721	0.151
721	0.149
722	0.147
722	0.145
723	0.144
723	0.142
723	0.14
724	0.137
724	0.135
725	0.133
725	0.131
726	0.129
726	0.127
727	0.125
727	0.123
727	0.121
728	0.119
728	0.117
729	0.117
729	0.115
730	0.114
730	0.112
730	0.11
731	0.109
731	0.107
732	0.106
732	0.105
733	0.103
733	0.102
734	0.101
734	0.099
734	0.098
735	0.097
735	0.095
736	0.093
736	0.091
737	0.09
737	0.088
737	0.086
738	0.084
738	0.082
739	0.081
739	0.08
740	0.079
740	0.079
741	0.078
741	0.077
741	0.075
742	0.074
742	0.072
743	0.071
743	0.07
744	0.068
744	0.067
744	0.065
745	0.063
745	0.061
746	0.06
746	0.059
747	0.059
747	0.059
748	0.059
748	0.058
748	0.057
749	0.056
749	0.055
750	0.054
750	0.053
751	0.051
751	0.049
751	0.048
752	0.045
752	0.043
753	0.042
753	0.04
754	0.039
754	0.037
754	0.037
755	0.036
755	0.036
756	0.035
756	0.033
757	0.033
757	0.033
758	0.032
758	0.032
758	0.032
759	0.031
759	0.03
760	0.029
760	0.028
761	0.028
761	0.028
761	0.027
762	0.026
762	0.025
763	0.023
763	0.021
764	0.019
764	0.017
764	0.016
765	0.014
765	0.013
766	0.012
766	0.011
767	0.01
767	0.008
768	0.006
768	0.005
768	0.004
769	0.003
769	0.002
770	0.001
770	-0
771	-0.002
771	-0.004
771	-0.006
772	-0.007
772	-0.008
773	-0.009
773	-0.01
774	-0.011
774	-0.012
775	-0.013
775	-0.015
775	-0.017
776	-0.019
776	-0.02
777	-0.022
777	-0.024
778	-0.026
778	-0.028
778	-0.03
779	-0.031
779	-0.033
780	-0.035
780	-0.037
781	-0.039
781	-0.042
781	-0.045
782	-0.049
782	-0.053
783	-0.057
783	-0.061
784	-0.065
784	-0.07
784	-0.075
785	-0.08
785	-0.086
786	-0.091
786	-0.096
787	-0.1
787	-0.104
788	-0.11
788	-0.117
788	-0.124
789	-0.131
789	-0.137
790	-0.14
790	-0.144
791	-0.149
791	-0.153
791	-0.156
792	-0.152
792	-0.143
793	-0.139
793	-0.136
794	-0.134
794	-0.136
794	-0.139
795	-0.141
795	-0.141
796	-0.141
796	-0.144
797	-0.152
797	-0.163
797	-0.169
798	-0.175
798	-0.178
799	-0.178
799	-0.178
800	-0.178
800	-0.179
801	-0.182
801	-0.183
801	-0.182
802	-0.183
802	-0.184
803	-0.184
803	-0.184
804	-0.183
804	-0.178
804	-0.172
805	-0.168
805	-0.166
806	-0.164
806	-0.162
807	-0.161
807	-0.161
807	-0.16
808	-0.16
808	-0.161
809	-0.165
809	-0.171
810	-0.175
810	-0.177
810	-0.181
811	-0.184
811	-0.185
812	-0.181
812	-0.179
813	-0.179
813	-0.18
813	-0.182
814	-0.183
814	-0.183
815	-0.18
815	-0.176
816	-0.171
816	-0.167
817	-0.165
817	-0.161
817	-0.153
818	-0.143
818	-0.132
819	-0.121
819	-0.11
820	-0.102
820	-0.095
820	-0.088
821	-0.082
821	-0.076
822	-0.071
822	-0.066
823	-0.062
823	-0.058
823	-0.055
824	-0.052
824	-0.048
825	-0.044
825	-0.04
826	-0.037
826	-0.034
826	-0.032
827	-0.03
827	-0.028
828	-0.026
828	-0.025
829	-0.023
829	-0.022
829	-0.021
830	-0.022
830	-0.021
831	-0.02
831	-0.02
832	-0.02
832	-0.02
832	-0.021
833	-0.021
833	-0.021
834	-0.021
834	-0.021
835	-0.021
835	-0.021
835	-0.021
836	-0.021
836	-0.02
837	-0.02
837	-0.02
838	-0.019
838	-0.018
839	-0.018
839	-0.017
839	-0.016
840	-0.016
840	-0.015
841	-0.014
841	-0.014
842	-0.013
842	-0.013
842	-0.012
843	-0.012
843	-0.011
844	-0.011
844	-0.01
845	-0.01
845	-0.01
845	-0.01
846	-0.01
846	-0.01
847	-0.01
847	-0.01
848	-0.01
848	-0.011
848	-0.011
849	-0.011
849	-0.012
850	-0.012
850	-0.013
851	-0.013
851	-0.014
851	-0.014
852	-0.014
852	-0.014
853	-0.015
853	-0.015
854	-0.015
854	-0.015
854	-0.016
855	-0.016
855	-0.016
856	-0.017
856	-0.017
857	-0.017
857	-0.017
857	-0.017
858	-0.017
858	-0.016
859	-0.016
859	-0.015
860	-0.014
860	-0.014
860	-0.013
861	-0.012
861	-0.011
862	-0.011
862	-0.011
863	-0.011
863	-0.011
863	-0.011
864	-0.012
864	-0.011
865	-0.011
865	-0.011
866	-0.01
866	-0.01
866	-0.009
867	-0.009
867	-0.008
868	-0.008
868	-0.008
869	-0.008
869	-0.008
869	-0.009
870	-0.01
870	-0.011
871	-0.012
871	-0.013
872	-0.014
872	-0.015
872	-0.015
873	-0.015
873	-0.015
874	-0.015
874	-0.014
875	-0.013
875	-0.012
875	-0.012
876	-0.011
876	-0.01
877	-0.01
877	-0.01
878	-0.01
878	-0.011
878	-0.012
879	-0.012
879	-0.013
880	-0.014
880	-0.015
881	-0.016
881	-0.016
881	-0.016
882	-0.016
882	-0.015
883	-0.015
883	-0.014
884	-0.012
884	-0.011
884	-0.01
885	-0.009
885	-0.008
886	-0.007
886	-0.007
887	-0.007
887	-0.007
887	-0.007
888	-0.008
888	-0.008
889	-0.008
889	-0.008
890	-0.009
890	-0.009
890	-0.009
891	-0.01
891	-0.01
892	-0.011
892	-0.011
893	-0.011
893	-0.011
893	-0.011
894	-0.011
894	-0.011
895	-0.011
895	-0.011
895	-0.011
896	-0.011
896	-0.011
897	-0.011
897	-0.011
898	-0.01
898	-0.01
898	-0.01
899	-0.01
899	-0.009
900	-0.008
900	-0.008
901	-0.007
901	-0.006
901	-0.005
902	-0.004
902	-0.003
903	-0.002
903	-0.002
904	-0.002
904	-0.001
904	-0.001
905	-0.001
905	-0.002
906	-0.002
906	-0.002
907	-0.003
907	-0.003
907	-0.004
908	-0.004
908	-0.004
909	-0.005
909	-0.005
910	-0.005
910	-0.005
910	-0.006
911	-0.007
911	-0.007
912	-0.008
912	-0.008
913	-0.009
913	-0.009
913	-0.01
914	-0.01
914	-0.011
915	-0.012
915	-0.012
916	-0.013
916	-0.013
916	-0.013
917	-0.014
917	-0.014
918	-0.014
918	-0.013
918	-0.013
919	-0.012
919	-0.011
920	-0.01
920	-0.008
921	-0.007
921	-0.006
921	-0.005
922	-0.004
922	-0.003
923	-0.002
923	-0.002
924	-0.002
924	-0.003
924	-0.003
925	-0.004
925	-0.005
926	-0.005
926	-0.006
927	-0.006
927	-0.007
927	-0.007
928	-0.007
928	-0.007
929	-0.006
929	-0.006
930	-0.006
930	-0.007
930	-0.007
931	-0.007
931	-0.008
932	-0.008
932	-0.009
933	-0.01
933	-0.011
933	-0.011
934	-0.012
934	-0.013
935	-0.013
935	-0.013
935	-0.014
936	-0.013
936	-0.013
937	-0.013
937	-0.013
938	-0.012
938	-0.012
938	-0.012
939	-0.013
939	-0.013
940	-0.013
940	-0.013
941	-0.014
941	-0.015
941	-0.016
942	-0.016
942	-0.017
943	-0.017
943	-0.017
944	-0.017
944	-0.017
944	-0.017
945	-0.017
945	-0.016
946	-0.016
946	-0.016
946	-0.016
947	-0.015
947	-0.016
948	-0.016
948	-0.016
949	-0.016
949	-0.016
949	-0.016
950	-0.015
950	-0.015
951	-0.015
951	-0.015
952	-0.014
952	-0.013
952	-0.012
953	-0.011
953	-0.01
954	-0.01
954	-0.009
955	-0.008
955	-0.008
955	-0.007
956	-0.007
956	-0.006
957	-0.006
957	-0.006
957	-0.007
958	-0.007
958	-0.007
959	-0.008
959	-0.008
960	-0.008
960	-0.009
960	-0.01
961	-0.011
961	-0.011
962	-0.012
962	-0.013
963	-0.014
963	-0.015
963	-0.016
964	-0.017
964	-0.018
965	-0.018
965	-0.019
966	-0.019
966	-0.019
966	-0.019
967	-0.018
967	-0.018
968	-0.017
968	-0.016
968	-0.016
969	-0.015
969	-0.014
970	-0.014
970	-0.013
971	-0.013
971	-0.012
971	-0.012
972	-0.011
972	-0.011
973	-0.01
973	-0.01
974	-0.009
974	-0.009
974	-0.008
975	-0.007
975	-0.007
976	-0.007
976	-0.007
976	-0.007
977	-0.008
977	-0.008
978	-0.009
978	-0.01
979	-0.011
979	-0.012
979	-0.013
980	-0.014
980	-0.015
981	-0.016
981	-0.016
982	-0.017
982	-0.017
982	-0.017
983	-0.017
983	-0.017
984	-0.017
984	-0.017
984	-0.016
985	-0.016
985	-0.016
986	-0.016
986	-0.016
987	-0.016
987	-0.016
987	-0.016
988	-0.016
988	-0.015
989	-0.015
989	-0.015
990	-0.014
990	-0.014
990	-0.013
991	-0.012
991	-0.012
992	-0.012
992	-0.012
992	-0.013
993	-0.014
993	-0.014
994	-0.015
994	-0.016
995	-0.017
995	-0.019
995	-0.02
996	-0.02
996	-0.021
997	-0.021
997	-0.021
997	-0.021
998	-0.021
998	-0.02
999	-0.019
999	-0.018
1000	-0.018
1000	-0.017
1000	-0.017
1001	-0.017
1001	-0.017
1002	-0.018
1002	-0.018
1003	-0.019
1003	-0.02
1003	-0.021
1004	-0.022
1004	-0.023
1005	-0.024
1005	-0.025
1005	-0.025
1006	-0.026
1006	-0.026
1007	-0.026
1007	-0.026
1008	-0.026
1008	-0.026
1008	-0.026
1009	-0.026
1009	-0.025
1010	-0.025
1010	-0.025
1010	-0.024
1011	-0.024
1011	-0.023
1012	-0.023
1012	-0.023
1013	-0.022
1013	-0.022
1013	-0.022
1014	-0.022
1014	-0.022
1015	-0.022
1015	-0.021
1016	-0.021
1016	-0.021
1016	-0.021
1017	-0.021
1017	-0.021
1018	-0.02
1018	-0.02
1018	-0.02
1019	-0.02
1019	-0.019
1020	-0.02
1020	-0.02
1021	-0.02
1021	-0.02
1021	-0.02
1022	-0.02
1022	-0.021
1023	-0.021
1023	-0.021
1023	-0.022
1024	-0.022
1024	-0.023
1025	-0.023
1025	-0.023
1026	-0.023
1026	-0.023
1026	-0.023
1027	-0.023
1027	-0.023
1028	-0.022
1028	-0.022
1028	-0.022
1029	-0.022
1029	-0.022
1030	-0.022
1030	-0.022
1031	-0.023
1031	-0.024
1031	-0.024
1032	-0.025
1032	-0.026
1033	-0.026
1033	-0.027
1033	-0.028
1034	-0.029
1034	-0.03
1035	-0.03
1035	-0.03
1036	-0.031
1036	-0.031
1036	-0.031
1037	-0.031
1037	-0.031
1038	-0.031
1038	-0.03
1039	-0.03
1039	-0.029
1039	-0.028
1040	-0.028
1040	-0.027
1041	-0.027
1041	-0.026
1041	-0.026
1042	-0.027
1042	-0.027
1043	-0.027
1043	-0.028
1044	-0.028
1044	-0.029
1044	-0.029
1045	-0.029
1045	-0.03
1046	-0.03
1046	-0.03
1046	-0.029
1047	-0.029
1047	-0.029
1048	-0.028
1048	-0.028
1049	-0.028
1049	-0.028
1049	-0.028
1050	-0.028
1050	-0.028
1051	-0.028
1051	-0.029
1051	-0.029
1052	-0.029
1052	-0.029
1053	-0.03
1053	-0.03
1053	-0.03
1054	-0.031
1054	-0.031
1055	-0.031
1055	-0.032
1056	-0.033
1056	-0.033
1056	-0.034
1057	-0.035
1057	-0.035
1058	-0.036
1058	-0.036
1058	-0.037
1059	-0.037
1059	-0.037
1060	-0.037
1060	-0.037
1061	-0.037
1061	-0.036
1061	-0.036
1062	-0.036
1062	-0.035
1063	-0.035
1063	-0.035
1063	-0.035
1064	-0.034
1064	-0.034
1065	-0.035
1065	-0.035
1066	-0.035
1066	-0.036
1066	-0.036
1067	-0.036
1067	-0.036
1068	-0.037
1068	-0.038
1068	-0.039
1069	-0.039
1069	-0.04
1070	-0.04
1070	-0.04
1071	-0.04
1071	-0.04
1071	-0.041
1072	-0.041
1072	-0.04
1073	-0.039
1073	-0.039
1073	-0.038
1074	-0.037
1074	-0.036
1075	-0.036
1075	-0.036
1076	-0.036
1076	-0.036
1076	-0.036
1077	-0.036
1077	-0.036
1078	-0.037
1078	-0.036
1078	-0.036
1079	-0.036
1079	-0.036
1080	-0.035
1080	-0.034
1080	-0.033
1081	-0.033
1081	-0.032
1082	-0.031
1082	-0.031
1083	-0.03
1083	-0.03
1083	-0.03
1084	-0.029
1084	-0.029
1085	-0.028
1085	-0.028
1085	-0.027
1086	-0.026
1086	-0.027
1087	-0.026
1087	-0.026
1088	-0.026
1088	-0.026
1088	-0.026
1089	-0.027
1089	-0.027
1090	-0.028
1090	-0.029
1090	-0.029
1091	-0.029
1091	-0.029
1092	-0.029
1092	-0.029
1092	-0.029
1093	-0.029
1093	-0.028
1094	-0.028
1094	-0.027
1095	-0.027
1095	-0.027
1095	-0.026
1096	-0.025
1096	-0.024
1097	-0.023
1097	-0.023
1097	-0.022
1098	-0.022
1098	-0.021
1099	-0.02
1099	-0.019
1100	-0.018
1100	-0.018
1100	-0.018
1101	-0.017
1101	-0.017
1102	-0.015
1102	-0.013
1102	-0.011
1103	-0.009
1103	-0.006
1104	-0.004
1104	-0
1104	0.004
1105	0.008
1105	0.012
1106	0.016
1106	0.021
1107	0.026
1107	0.033
1107	0.04
1108	0.07
1108	0.108
1109	0.159
1109	0.238
1109	0.295
1110	0.401
1110	0.637
1111	-0
1111	-0
