Data from 15c-2a_Absorbance__1487__01487.txt Node

Date: Fri Jan 19 10:31:08 CET 2024
User: Marek
Spectrometer: MAYP115816
Trigger mode: 0
Integration Time (sec): 2.000000E-1
Scans to average: 10
Electric dark correction enabled: true
Nonlinearity correction enabled: true
Boxcar width: 5
XAxis mode: Wavelengths
Number of Pixels in Spectrum: 2068
>>>>>Begin Spectral Data<<<<<
199	-1.453
199	-1.308
200	-1.173
200	-1.061
201	-0.999
201	-0.95
202	-0.887
202	-0.84
203	-0.797
203	-0.762
204	-0.738
204	-0.716
205	-0.698
205	-0.689
205	-0.688
206	-0.683
206	-0.681
207	-0.676
207	-0.673
208	-0.672
208	-0.67
209	-0.668
209	-0.665
210	-0.664
210	-0.663
211	-0.662
211	-0.661
212	-0.663
212	-0.663
213	-0.663
213	-0.661
213	-0.661
214	-0.657
214	-0.657
215	-0.654
215	-0.653
216	-0.651
216	-0.652
217	-0.647
217	-0.645
218	-0.643
218	-0.64
219	-0.636
219	-0.637
220	-0.636
220	-0.637
221	-0.636
221	-0.632
221	-0.627
222	-0.625
222	-0.621
223	-0.616
223	-0.614
224	-0.608
224	-0.601
225	-0.593
225	-0.582
226	-0.572
226	-0.562
227	-0.55
227	-0.539
228	-0.524
228	-0.51
229	-0.492
229	-0.472
229	-0.449
230	-0.424
230	-0.396
231	-0.365
231	-0.332
232	-0.3
232	-0.264
233	-0.227
233	-0.189
234	-0.152
234	-0.116
235	-0.081
235	-0.048
236	-0.018
236	0.012
236	0.04
237	0.067
237	0.091
238	0.113
238	0.132
239	0.151
239	0.166
240	0.181
240	0.194
241	0.207
241	0.217
242	0.227
242	0.235
243	0.243
243	0.25
243	0.256
244	0.262
244	0.268
245	0.273
245	0.277
246	0.281
246	0.285
247	0.288
247	0.292
248	0.296
248	0.299
249	0.302
249	0.304
250	0.307
250	0.31
250	0.312
251	0.315
251	0.317
252	0.319
252	0.321
253	0.322
253	0.324
254	0.325
254	0.327
255	0.328
255	0.33
256	0.331
256	0.331
257	0.332
257	0.333
258	0.333
258	0.334
258	0.334
259	0.335
259	0.335
260	0.335
260	0.334
261	0.334
261	0.334
262	0.333
262	0.333
263	0.333
263	0.332
264	0.331
264	0.33
265	0.329
265	0.329
265	0.328
266	0.327
266	0.325
267	0.324
267	0.323
268	0.321
268	0.32
269	0.318
269	0.317
270	0.315
270	0.313
271	0.311
271	0.309
272	0.308
272	0.306
272	0.304
273	0.302
273	0.3
274	0.298
274	0.296
275	0.294
275	0.292
276	0.29
276	0.288
277	0.286
277	0.284
278	0.281
278	0.279
278	0.277
279	0.275
279	0.272
280	0.27
280	0.268
281	0.266
281	0.264
282	0.262
282	0.26
283	0.258
283	0.256
284	0.254
284	0.253
285	0.251
285	0.249
285	0.247
286	0.246
286	0.244
287	0.242
287	0.241
288	0.239
288	0.237
289	0.236
289	0.234
290	0.233
290	0.231
291	0.23
291	0.228
292	0.227
292	0.226
292	0.224
293	0.223
293	0.222
294	0.221
294	0.22
295	0.219
295	0.218
296	0.218
296	0.217
297	0.216
297	0.215
298	0.215
298	0.214
298	0.213
299	0.213
299	0.212
300	0.211
300	0.211
301	0.21
301	0.21
302	0.209
302	0.208
303	0.208
303	0.207
304	0.206
304	0.206
305	0.205
305	0.205
305	0.204
306	0.203
306	0.203
307	0.202
307	0.202
308	0.201
308	0.201
309	0.2
309	0.2
310	0.199
310	0.199
311	0.198
311	0.197
311	0.197
312	0.196
312	0.196
313	0.195
313	0.194
314	0.194
314	0.193
315	0.193
315	0.192
316	0.191
316	0.191
317	0.19
317	0.189
318	0.189
318	0.188
318	0.188
319	0.187
319	0.187
320	0.186
320	0.186
321	0.185
321	0.185
322	0.184
322	0.184
323	0.183
323	0.183
324	0.182
324	0.181
324	0.18
325	0.18
325	0.179
326	0.179
326	0.178
327	0.178
327	0.177
328	0.177
328	0.176
329	0.176
329	0.175
330	0.175
330	0.174
330	0.174
331	0.173
331	0.172
332	0.172
332	0.172
333	0.171
333	0.17
334	0.17
334	0.169
335	0.169
335	0.168
336	0.168
336	0.167
336	0.167
337	0.166
337	0.165
338	0.165
338	0.164
339	0.164
339	0.163
340	0.163
340	0.162
341	0.162
341	0.162
342	0.162
342	0.162
342	0.161
343	0.161
343	0.161
344	0.16
344	0.16
345	0.16
345	0.159
346	0.159
346	0.159
347	0.158
347	0.158
348	0.157
348	0.157
348	0.157
349	0.156
349	0.156
350	0.156
350	0.155
351	0.155
351	0.155
352	0.155
352	0.154
353	0.154
353	0.154
354	0.153
354	0.153
354	0.153
355	0.153
355	0.152
356	0.152
356	0.152
357	0.151
357	0.151
358	0.151
358	0.151
359	0.151
359	0.15
360	0.15
360	0.15
360	0.15
361	0.15
361	0.15
362	0.15
362	0.15
363	0.15
363	0.149
364	0.149
364	0.149
365	0.149
365	0.149
366	0.148
366	0.148
366	0.148
367	0.148
367	0.148
368	0.148
368	0.148
369	0.147
369	0.147
370	0.147
370	0.147
371	0.147
371	0.147
372	0.146
372	0.146
372	0.146
373	0.146
373	0.146
374	0.146
374	0.145
375	0.145
375	0.145
376	0.145
376	0.145
377	0.145
377	0.145
378	0.145
378	0.145
378	0.145
379	0.145
379	0.145
380	0.145
380	0.145
381	0.145
381	0.144
382	0.144
382	0.144
383	0.144
383	0.144
383	0.143
384	0.143
384	0.143
385	0.143
385	0.143
386	0.142
386	0.142
387	0.142
387	0.142
388	0.142
388	0.142
389	0.142
389	0.141
389	0.141
390	0.141
390	0.141
391	0.141
391	0.141
392	0.141
392	0.14
393	0.14
393	0.14
394	0.14
394	0.14
394	0.14
395	0.14
395	0.139
396	0.139
396	0.139
397	0.139
397	0.139
398	0.139
398	0.139
399	0.139
399	0.139
400	0.139
400	0.139
400	0.138
401	0.138
401	0.138
402	0.137
402	0.137
403	0.137
403	0.137
404	0.137
404	0.136
405	0.136
405	0.136
405	0.136
406	0.136
406	0.136
407	0.136
407	0.136
408	0.135
408	0.135
409	0.135
409	0.135
410	0.135
410	0.135
411	0.135
411	0.135
411	0.134
412	0.134
412	0.134
413	0.133
413	0.133
414	0.133
414	0.133
415	0.133
415	0.132
416	0.132
416	0.132
416	0.131
417	0.131
417	0.132
418	0.132
418	0.132
419	0.132
419	0.132
420	0.132
420	0.132
421	0.132
421	0.132
421	0.132
422	0.132
422	0.132
423	0.132
423	0.132
424	0.132
424	0.132
425	0.131
425	0.131
426	0.131
426	0.131
427	0.131
427	0.131
427	0.131
428	0.131
428	0.131
429	0.131
429	0.131
430	0.131
430	0.131
431	0.131
431	0.131
432	0.13
432	0.13
432	0.129
433	0.129
433	0.128
434	0.128
434	0.128
435	0.128
435	0.128
436	0.128
436	0.128
437	0.128
437	0.128
437	0.128
438	0.128
438	0.128
439	0.128
439	0.127
440	0.127
440	0.127
441	0.127
441	0.128
442	0.128
442	0.128
442	0.128
443	0.128
443	0.128
444	0.128
444	0.128
445	0.128
445	0.128
446	0.128
446	0.128
447	0.128
447	0.128
447	0.127
448	0.127
448	0.127
449	0.127
449	0.127
450	0.127
450	0.127
451	0.127
451	0.127
452	0.127
452	0.127
452	0.127
453	0.127
453	0.127
454	0.126
454	0.126
455	0.127
455	0.127
456	0.127
456	0.127
457	0.127
457	0.127
458	0.126
458	0.126
458	0.126
459	0.127
459	0.126
460	0.126
460	0.126
461	0.126
461	0.126
462	0.126
462	0.127
463	0.127
463	0.128
463	0.128
464	0.128
464	0.128
465	0.129
465	0.129
466	0.129
466	0.129
467	0.129
467	0.129
467	0.128
468	0.128
468	0.127
469	0.128
469	0.128
470	0.128
470	0.128
471	0.129
471	0.129
472	0.129
472	0.129
472	0.13
473	0.13
473	0.131
474	0.131
474	0.132
475	0.132
475	0.132
476	0.133
476	0.133
477	0.133
477	0.134
477	0.134
478	0.134
478	0.135
479	0.135
479	0.136
480	0.136
480	0.137
481	0.137
481	0.138
482	0.139
482	0.139
482	0.14
483	0.142
483	0.144
484	0.145
484	0.146
485	0.146
485	0.147
486	0.148
486	0.149
487	0.149
487	0.15
487	0.15
488	0.15
488	0.15
489	0.15
489	0.15
490	0.151
490	0.152
491	0.153
491	0.154
492	0.155
492	0.156
492	0.157
493	0.158
493	0.159
494	0.161
494	0.162
495	0.163
495	0.164
496	0.165
496	0.166
496	0.168
497	0.169
497	0.17
498	0.171
498	0.172
499	0.173
499	0.174
500	0.175
500	0.177
501	0.178
501	0.179
501	0.181
502	0.182
502	0.183
503	0.185
503	0.186
504	0.187
504	0.188
505	0.189
505	0.19
506	0.191
506	0.192
506	0.193
507	0.194
507	0.195
508	0.196
508	0.197
509	0.198
509	0.199
510	0.2
510	0.201
511	0.202
511	0.203
511	0.204
512	0.205
512	0.205
513	0.206
513	0.206
514	0.206
514	0.207
515	0.207
515	0.207
515	0.207
516	0.208
516	0.208
517	0.209
517	0.209
518	0.209
518	0.21
519	0.21
519	0.21
520	0.209
520	0.209
520	0.209
521	0.208
521	0.208
522	0.207
522	0.207
523	0.207
523	0.207
524	0.208
524	0.209
524	0.209
525	0.21
525	0.21
526	0.211
526	0.212
527	0.212
527	0.213
528	0.212
528	0.212
529	0.212
529	0.211
529	0.211
530	0.211
530	0.21
531	0.209
531	0.209
532	0.208
532	0.207
533	0.206
533	0.205
533	0.204
534	0.204
534	0.203
535	0.202
535	0.201
536	0.2
536	0.199
537	0.198
537	0.196
538	0.195
538	0.193
538	0.192
539	0.19
539	0.189
540	0.187
540	0.186
541	0.184
541	0.183
542	0.181
542	0.18
542	0.178
543	0.177
543	0.175
544	0.174
544	0.173
545	0.172
545	0.171
546	0.17
546	0.168
547	0.166
547	0.164
547	0.162
548	0.16
548	0.158
549	0.157
549	0.155
550	0.153
550	0.151
551	0.15
551	0.148
551	0.147
552	0.145
552	0.144
553	0.143
553	0.142
554	0.14
554	0.138
555	0.136
555	0.134
556	0.132
556	0.13
556	0.128
557	0.127
557	0.125
558	0.124
558	0.122
559	0.121
559	0.12
560	0.119
560	0.118
560	0.117
561	0.116
561	0.115
562	0.114
562	0.112
563	0.11
563	0.109
564	0.107
564	0.105
564	0.103
565	0.102
565	0.101
566	0.099
566	0.098
567	0.098
567	0.097
568	0.097
568	0.096
568	0.096
569	0.095
569	0.095
570	0.093
570	0.091
571	0.091
571	0.09
572	0.089
572	0.088
573	0.087
573	0.086
573	0.084
574	0.084
574	0.083
575	0.083
575	0.084
576	0.083
576	0.082
577	0.08
577	0.079
577	0.079
578	0.078
578	0.078
579	0.078
579	0.078
580	0.077
580	0.074
581	0.072
581	0.071
581	0.071
582	0.071
582	0.071
583	0.071
583	0.07
584	0.068
584	0.065
585	0.065
585	0.066
585	0.066
586	0.066
586	0.065
587	0.063
587	0.062
588	0.06
588	0.059
589	0.059
589	0.059
590	0.059
590	0.059
590	0.06
591	0.061
591	0.06
592	0.059
592	0.058
593	0.058
593	0.057
594	0.057
594	0.056
594	0.055
595	0.055
595	0.054
596	0.053
596	0.054
597	0.055
597	0.056
598	0.056
598	0.056
598	0.056
599	0.055
599	0.054
600	0.053
600	0.053
601	0.052
601	0.052
602	0.05
602	0.05
602	0.049
603	0.049
603	0.05
604	0.051
604	0.051
605	0.053
605	0.054
606	0.054
606	0.053
606	0.053
607	0.053
607	0.053
608	0.053
608	0.051
609	0.051
609	0.051
610	0.05
610	0.049
610	0.049
611	0.05
611	0.051
612	0.052
612	0.053
613	0.054
613	0.055
614	0.054
614	0.054
614	0.054
615	0.054
615	0.054
616	0.055
616	0.055
617	0.055
617	0.054
618	0.054
618	0.054
618	0.055
619	0.056
619	0.056
620	0.058
620	0.059
621	0.059
621	0.059
622	0.059
622	0.059
622	0.059
623	0.059
623	0.06
624	0.061
624	0.06
625	0.06
625	0.06
626	0.061
626	0.061
626	0.063
627	0.064
627	0.065
628	0.066
628	0.067
629	0.068
629	0.068
630	0.068
630	0.069
630	0.07
631	0.07
631	0.071
632	0.071
632	0.072
633	0.073
633	0.074
634	0.075
634	0.077
634	0.079
635	0.08
635	0.081
636	0.082
636	0.083
637	0.083
637	0.084
638	0.085
638	0.085
638	0.086
639	0.086
639	0.086
640	0.088
640	0.089
641	0.09
641	0.091
642	0.093
642	0.095
642	0.096
643	0.098
643	0.1
644	0.102
644	0.103
645	0.105
645	0.107
646	0.109
646	0.112
646	0.115
647	0.117
647	0.119
648	0.122
648	0.124
649	0.127
649	0.13
650	0.132
650	0.135
650	0.137
651	0.139
651	0.141
652	0.143
652	0.146
653	0.149
653	0.155
653	0.169
654	0.135
654	0.109
655	0.111
655	0.112
656	0.114
656	0.115
657	0.116
657	0.118
657	0.119
658	0.117
658	0.105
659	0.134
659	0.174
660	0.181
660	0.183
661	0.185
661	0.188
661	0.19
662	0.193
662	0.195
663	0.198
663	0.2
664	0.202
664	0.204
665	0.206
665	0.208
665	0.21
666	0.211
666	0.213
667	0.215
667	0.217
668	0.219
668	0.221
669	0.223
669	0.225
669	0.227
670	0.23
670	0.231
671	0.233
671	0.234
672	0.236
672	0.237
672	0.239
673	0.24
673	0.242
674	0.244
674	0.245
675	0.246
675	0.248
676	0.25
676	0.252
676	0.253
677	0.255
677	0.257
678	0.258
678	0.258
679	0.259
679	0.26
680	0.262
680	0.263
680	0.263
681	0.264
681	0.265
682	0.265
682	0.266
683	0.267
683	0.268
684	0.268
684	0.268
684	0.268
685	0.268
685	0.268
686	0.268
686	0.267
687	0.266
687	0.266
687	0.265
688	0.264
688	0.264
689	0.264
689	0.264
690	0.263
690	0.263
691	0.262
691	0.262
691	0.262
692	0.261
692	0.261
693	0.26
693	0.26
694	0.259
694	0.258
695	0.258
695	0.258
695	0.257
696	0.256
696	0.254
697	0.254
697	0.253
698	0.251
698	0.25
698	0.248
699	0.247
699	0.245
700	0.242
700	0.241
701	0.24
701	0.238
702	0.236
702	0.234
702	0.232
703	0.23
703	0.228
704	0.227
704	0.226
705	0.224
705	0.222
705	0.22
706	0.219
706	0.217
707	0.216
707	0.214
708	0.213
708	0.211
709	0.21
709	0.208
709	0.206
710	0.204
710	0.203
711	0.201
711	0.199
712	0.197
712	0.195
713	0.193
713	0.19
713	0.187
714	0.185
714	0.182
715	0.18
715	0.178
716	0.176
716	0.175
716	0.173
717	0.172
717	0.171
718	0.17
718	0.168
719	0.168
719	0.166
720	0.165
720	0.163
720	0.161
721	0.159
721	0.158
722	0.156
722	0.154
723	0.152
723	0.15
723	0.148
724	0.146
724	0.144
725	0.142
725	0.14
726	0.138
726	0.135
727	0.133
727	0.131
727	0.129
728	0.127
728	0.126
729	0.125
729	0.123
730	0.121
730	0.119
730	0.117
731	0.116
731	0.114
732	0.113
732	0.111
733	0.11
733	0.109
734	0.107
734	0.106
734	0.104
735	0.104
735	0.102
736	0.1
736	0.099
737	0.097
737	0.096
737	0.093
738	0.091
738	0.088
739	0.086
739	0.085
740	0.083
740	0.082
741	0.082
741	0.08
741	0.078
742	0.076
742	0.075
743	0.074
743	0.072
744	0.071
744	0.07
744	0.068
745	0.066
745	0.065
746	0.064
746	0.064
747	0.064
747	0.064
748	0.064
748	0.064
748	0.064
749	0.063
749	0.063
750	0.061
750	0.06
751	0.059
751	0.057
751	0.055
752	0.053
752	0.051
753	0.048
753	0.047
754	0.045
754	0.043
754	0.043
755	0.042
755	0.042
756	0.041
756	0.039
757	0.038
757	0.038
758	0.038
758	0.037
758	0.036
759	0.036
759	0.034
760	0.033
760	0.031
761	0.03
761	0.03
761	0.029
762	0.028
762	0.027
763	0.026
763	0.024
764	0.022
764	0.02
764	0.019
765	0.017
765	0.016
766	0.015
766	0.014
767	0.013
767	0.011
768	0.009
768	0.008
768	0.007
769	0.007
769	0.006
770	0.004
770	0.003
771	0.001
771	-0.001
771	-0.003
772	-0.004
772	-0.005
773	-0.006
773	-0.007
774	-0.009
774	-0.011
775	-0.013
775	-0.014
775	-0.017
776	-0.019
776	-0.02
777	-0.022
777	-0.024
778	-0.025
778	-0.027
778	-0.029
779	-0.029
779	-0.031
780	-0.033
780	-0.035
781	-0.037
781	-0.04
781	-0.043
782	-0.047
782	-0.051
783	-0.055
783	-0.059
784	-0.063
784	-0.068
784	-0.073
785	-0.079
785	-0.084
786	-0.089
786	-0.094
787	-0.098
787	-0.102
788	-0.108
788	-0.114
788	-0.121
789	-0.129
789	-0.134
790	-0.138
790	-0.142
791	-0.148
791	-0.152
791	-0.155
792	-0.15
792	-0.142
793	-0.138
793	-0.135
794	-0.134
794	-0.136
794	-0.139
795	-0.141
795	-0.141
796	-0.141
796	-0.144
797	-0.152
797	-0.163
797	-0.169
798	-0.175
798	-0.178
799	-0.178
799	-0.178
800	-0.178
800	-0.179
801	-0.182
801	-0.182
801	-0.182
802	-0.183
802	-0.184
803	-0.184
803	-0.184
804	-0.183
804	-0.178
804	-0.172
805	-0.168
805	-0.166
806	-0.164
806	-0.162
807	-0.161
807	-0.161
807	-0.16
808	-0.16
808	-0.161
809	-0.165
809	-0.171
810	-0.175
810	-0.177
810	-0.181
811	-0.184
811	-0.185
812	-0.181
812	-0.179
813	-0.179
813	-0.18
813	-0.182
814	-0.183
814	-0.183
815	-0.18
815	-0.175
816	-0.17
816	-0.166
817	-0.164
817	-0.16
817	-0.152
818	-0.142
818	-0.13
819	-0.118
819	-0.108
820	-0.1
820	-0.093
820	-0.086
821	-0.08
821	-0.074
822	-0.069
822	-0.064
823	-0.06
823	-0.057
823	-0.054
824	-0.051
824	-0.047
825	-0.043
825	-0.039
826	-0.035
826	-0.033
826	-0.03
827	-0.028
827	-0.025
828	-0.023
828	-0.021
829	-0.019
829	-0.018
829	-0.017
830	-0.017
830	-0.016
831	-0.015
831	-0.015
832	-0.015
832	-0.016
832	-0.016
833	-0.016
833	-0.017
834	-0.017
834	-0.018
835	-0.018
835	-0.018
835	-0.019
836	-0.018
836	-0.018
837	-0.018
837	-0.017
838	-0.017
838	-0.016
839	-0.015
839	-0.014
839	-0.013
840	-0.012
840	-0.012
841	-0.011
841	-0.01
842	-0.01
842	-0.009
842	-0.008
843	-0.007
843	-0.006
844	-0.005
844	-0.005
845	-0.004
845	-0.004
845	-0.003
846	-0.003
846	-0.004
847	-0.004
847	-0.004
848	-0.005
848	-0.006
848	-0.006
849	-0.007
849	-0.007
850	-0.008
850	-0.009
851	-0.01
851	-0.01
851	-0.011
852	-0.012
852	-0.012
853	-0.013
853	-0.013
854	-0.014
854	-0.014
854	-0.014
855	-0.014
855	-0.014
856	-0.014
856	-0.013
857	-0.013
857	-0.013
857	-0.012
858	-0.011
858	-0.011
859	-0.01
859	-0.01
860	-0.009
860	-0.009
860	-0.008
861	-0.007
861	-0.007
862	-0.007
862	-0.007
863	-0.007
863	-0.008
863	-0.008
864	-0.009
864	-0.009
865	-0.009
865	-0.009
866	-0.01
866	-0.01
866	-0.01
867	-0.009
867	-0.009
868	-0.008
868	-0.008
869	-0.008
869	-0.008
869	-0.008
870	-0.008
870	-0.008
871	-0.009
871	-0.01
872	-0.01
872	-0.011
872	-0.011
873	-0.011
873	-0.011
874	-0.011
874	-0.011
875	-0.011
875	-0.01
875	-0.01
876	-0.009
876	-0.009
877	-0.009
877	-0.009
878	-0.009
878	-0.009
878	-0.009
879	-0.01
879	-0.011
880	-0.012
880	-0.013
881	-0.013
881	-0.014
881	-0.014
882	-0.013
882	-0.013
883	-0.012
883	-0.011
884	-0.01
884	-0.008
884	-0.007
885	-0.006
885	-0.005
886	-0.004
886	-0.003
887	-0.002
887	-0.002
887	-0.002
888	-0.002
888	-0.002
889	-0.002
889	-0.001
890	-0.001
890	-0.001
890	-0.002
891	-0.002
891	-0.002
892	-0.003
892	-0.003
893	-0.004
893	-0.004
893	-0.005
894	-0.006
894	-0.006
895	-0.007
895	-0.007
895	-0.008
896	-0.009
896	-0.009
897	-0.009
897	-0.009
898	-0.008
898	-0.008
898	-0.008
899	-0.008
899	-0.007
900	-0.007
900	-0.006
901	-0.005
901	-0.004
901	-0.004
902	-0.003
902	-0.002
903	-0.002
903	-0.002
904	-0.001
904	-0.001
904	-0.001
905	-0.001
905	-0.001
906	-0.002
906	-0.002
907	-0.003
907	-0.003
907	-0.003
908	-0.003
908	-0.004
909	-0.004
909	-0.004
910	-0.004
910	-0.005
910	-0.005
911	-0.005
911	-0.006
912	-0.006
912	-0.007
913	-0.007
913	-0.007
913	-0.008
914	-0.009
914	-0.009
915	-0.01
915	-0.01
916	-0.01
916	-0.011
916	-0.011
917	-0.011
917	-0.011
918	-0.01
918	-0.01
918	-0.009
919	-0.008
919	-0.007
920	-0.005
920	-0.004
921	-0.003
921	-0.002
921	-0.001
922	0
922	0
923	0.001
923	0
924	0
924	-0
924	-0.001
925	-0.002
925	-0.003
926	-0.004
926	-0.005
927	-0.006
927	-0.006
927	-0.006
928	-0.006
928	-0.006
929	-0.006
929	-0.006
930	-0.006
930	-0.007
930	-0.007
931	-0.008
931	-0.008
932	-0.008
932	-0.009
933	-0.009
933	-0.01
933	-0.011
934	-0.011
934	-0.011
935	-0.011
935	-0.011
935	-0.012
936	-0.012
936	-0.011
937	-0.011
937	-0.011
938	-0.011
938	-0.011
938	-0.011
939	-0.011
939	-0.011
940	-0.012
940	-0.012
941	-0.013
941	-0.013
941	-0.014
942	-0.014
942	-0.015
943	-0.015
943	-0.015
944	-0.015
944	-0.015
944	-0.015
945	-0.015
945	-0.015
946	-0.014
946	-0.014
946	-0.014
947	-0.014
947	-0.014
948	-0.014
948	-0.014
949	-0.014
949	-0.014
949	-0.014
950	-0.013
950	-0.013
951	-0.012
951	-0.012
952	-0.011
952	-0.01
952	-0.01
953	-0.009
953	-0.009
954	-0.008
954	-0.008
955	-0.007
955	-0.007
955	-0.007
956	-0.006
956	-0.006
957	-0.006
957	-0.006
957	-0.006
958	-0.006
958	-0.006
959	-0.007
959	-0.007
960	-0.007
960	-0.008
960	-0.009
961	-0.01
961	-0.011
962	-0.011
962	-0.012
963	-0.013
963	-0.014
963	-0.016
964	-0.017
964	-0.018
965	-0.018
965	-0.019
966	-0.019
966	-0.019
966	-0.019
967	-0.019
967	-0.018
968	-0.018
968	-0.017
968	-0.016
969	-0.015
969	-0.014
970	-0.013
970	-0.012
971	-0.012
971	-0.012
971	-0.011
972	-0.011
972	-0.01
973	-0.01
973	-0.009
974	-0.009
974	-0.008
974	-0.007
975	-0.006
975	-0.006
976	-0.005
976	-0.005
976	-0.005
977	-0.005
977	-0.005
978	-0.006
978	-0.006
979	-0.007
979	-0.008
979	-0.009
980	-0.01
980	-0.011
981	-0.012
981	-0.013
982	-0.014
982	-0.014
982	-0.015
983	-0.015
983	-0.015
984	-0.015
984	-0.015
984	-0.015
985	-0.015
985	-0.016
986	-0.016
986	-0.016
987	-0.017
987	-0.017
987	-0.017
988	-0.016
988	-0.016
989	-0.016
989	-0.015
990	-0.015
990	-0.015
990	-0.014
991	-0.013
991	-0.013
992	-0.012
992	-0.013
992	-0.013
993	-0.014
993	-0.014
994	-0.015
994	-0.016
995	-0.017
995	-0.018
995	-0.019
996	-0.019
996	-0.02
997	-0.02
997	-0.02
997	-0.02
998	-0.019
998	-0.019
999	-0.018
999	-0.017
1000	-0.016
1000	-0.015
1000	-0.015
1001	-0.014
1001	-0.014
1002	-0.014
1002	-0.015
1003	-0.016
1003	-0.017
1003	-0.018
1004	-0.019
1004	-0.02
1005	-0.021
1005	-0.022
1005	-0.023
1006	-0.024
1006	-0.025
1007	-0.025
1007	-0.025
1008	-0.026
1008	-0.026
1008	-0.026
1009	-0.026
1009	-0.026
1010	-0.026
1010	-0.025
1010	-0.025
1011	-0.024
1011	-0.024
1012	-0.024
1012	-0.024
1013	-0.023
1013	-0.024
1013	-0.023
1014	-0.024
1014	-0.024
1015	-0.024
1015	-0.023
1016	-0.023
1016	-0.023
1016	-0.023
1017	-0.023
1017	-0.023
1018	-0.022
1018	-0.022
1018	-0.021
1019	-0.021
1019	-0.02
1020	-0.02
1020	-0.02
1021	-0.019
1021	-0.019
1021	-0.019
1022	-0.019
1022	-0.019
1023	-0.019
1023	-0.019
1023	-0.019
1024	-0.019
1024	-0.02
1025	-0.02
1025	-0.02
1026	-0.019
1026	-0.019
1026	-0.019
1027	-0.019
1027	-0.019
1028	-0.019
1028	-0.019
1028	-0.019
1029	-0.02
1029	-0.02
1030	-0.021
1030	-0.022
1031	-0.023
1031	-0.023
1031	-0.024
1032	-0.025
1032	-0.026
1033	-0.027
1033	-0.027
1033	-0.028
1034	-0.028
1034	-0.029
1035	-0.03
1035	-0.03
1036	-0.03
1036	-0.031
1036	-0.03
1037	-0.03
1037	-0.03
1038	-0.03
1038	-0.029
1039	-0.028
1039	-0.028
1039	-0.027
1040	-0.026
1040	-0.026
1041	-0.025
1041	-0.026
1041	-0.025
1042	-0.026
1042	-0.026
1043	-0.026
1043	-0.027
1044	-0.027
1044	-0.027
1044	-0.028
1045	-0.028
1045	-0.029
1046	-0.029
1046	-0.029
1046	-0.029
1047	-0.028
1047	-0.028
1048	-0.027
1048	-0.027
1049	-0.027
1049	-0.027
1049	-0.027
1050	-0.027
1050	-0.027
1051	-0.027
1051	-0.027
1051	-0.027
1052	-0.027
1052	-0.028
1053	-0.028
1053	-0.029
1053	-0.029
1054	-0.03
1054	-0.03
1055	-0.03
1055	-0.031
1056	-0.032
1056	-0.033
1056	-0.034
1057	-0.035
1057	-0.035
1058	-0.036
1058	-0.037
1058	-0.037
1059	-0.038
1059	-0.039
1060	-0.039
1060	-0.039
1061	-0.04
1061	-0.039
1061	-0.039
1062	-0.04
1062	-0.04
1063	-0.04
1063	-0.04
1063	-0.041
1064	-0.041
1064	-0.041
1065	-0.041
1065	-0.042
1066	-0.042
1066	-0.043
1066	-0.043
1067	-0.044
1067	-0.044
1068	-0.044
1068	-0.044
1068	-0.044
1069	-0.045
1069	-0.045
1070	-0.045
1070	-0.045
1071	-0.045
1071	-0.044
1071	-0.044
1072	-0.044
1072	-0.043
1073	-0.042
1073	-0.041
1073	-0.04
1074	-0.039
1074	-0.038
1075	-0.039
1075	-0.038
1076	-0.038
1076	-0.038
1076	-0.039
1077	-0.039
1077	-0.039
1078	-0.039
1078	-0.039
1078	-0.039
1079	-0.039
1079	-0.038
1080	-0.038
1080	-0.037
1080	-0.037
1081	-0.036
1081	-0.035
1082	-0.034
1082	-0.034
1083	-0.034
1083	-0.034
1083	-0.033
1084	-0.033
1084	-0.032
1085	-0.032
1085	-0.031
1085	-0.03
1086	-0.029
1086	-0.03
1087	-0.029
1087	-0.029
1088	-0.029
1088	-0.029
1088	-0.029
1089	-0.031
1089	-0.031
1090	-0.033
1090	-0.034
1090	-0.035
1091	-0.035
1091	-0.035
1092	-0.036
1092	-0.035
1092	-0.036
1093	-0.036
1093	-0.035
1094	-0.035
1094	-0.034
1095	-0.034
1095	-0.034
1095	-0.032
1096	-0.032
1096	-0.032
1097	-0.031
1097	-0.031
1097	-0.03
1098	-0.03
1098	-0.03
1099	-0.03
1099	-0.029
1100	-0.029
1100	-0.029
1100	-0.028
1101	-0.028
1101	-0.027
1102	-0.025
1102	-0.024
1102	-0.021
1103	-0.018
1103	-0.016
1104	-0.013
1104	-0.01
1104	-0.008
1105	-0.003
1105	0.001
1106	0.005
1106	0.01
1107	0.014
1107	0.02
1107	0.026
1108	0.054
1108	0.091
1109	0.142
1109	0.224
1109	0.28
1110	0.383
1110	0.604
1111	-0
1111	-0
