Data from 15c-2a_Absorbance__1125__01125.txt Node

Date: Fri Jan 19 10:19:04 CET 2024
User: Marek
Spectrometer: MAYP115816
Trigger mode: 0
Integration Time (sec): 2.000000E-1
Scans to average: 10
Electric dark correction enabled: true
Nonlinearity correction enabled: true
Boxcar width: 5
XAxis mode: Wavelengths
Number of Pixels in Spectrum: 2068
>>>>>Begin Spectral Data<<<<<
199	-1.448
199	-1.303
200	-1.166
200	-1.054
201	-0.99
201	-0.942
202	-0.878
202	-0.829
203	-0.786
203	-0.751
204	-0.726
204	-0.704
205	-0.686
205	-0.676
205	-0.675
206	-0.671
206	-0.668
207	-0.663
207	-0.66
208	-0.659
208	-0.657
209	-0.655
209	-0.652
210	-0.651
210	-0.651
211	-0.649
211	-0.648
212	-0.651
212	-0.651
213	-0.651
213	-0.648
213	-0.648
214	-0.644
214	-0.644
215	-0.64
215	-0.64
216	-0.637
216	-0.638
217	-0.633
217	-0.631
218	-0.629
218	-0.627
219	-0.623
219	-0.622
220	-0.622
220	-0.623
221	-0.622
221	-0.617
221	-0.612
222	-0.61
222	-0.607
223	-0.602
223	-0.599
224	-0.595
224	-0.588
225	-0.58
225	-0.57
226	-0.56
226	-0.551
227	-0.539
227	-0.527
228	-0.512
228	-0.499
229	-0.48
229	-0.459
229	-0.435
230	-0.411
230	-0.384
231	-0.353
231	-0.321
232	-0.29
232	-0.255
233	-0.219
233	-0.181
234	-0.146
234	-0.11
235	-0.078
235	-0.046
236	-0.016
236	0.012
236	0.039
237	0.065
237	0.087
238	0.108
238	0.126
239	0.143
239	0.158
240	0.171
240	0.184
241	0.195
241	0.205
242	0.214
242	0.222
243	0.229
243	0.235
243	0.241
244	0.247
244	0.252
245	0.256
245	0.26
246	0.264
246	0.268
247	0.271
247	0.275
248	0.278
248	0.281
249	0.284
249	0.287
250	0.289
250	0.292
250	0.295
251	0.297
251	0.298
252	0.3
252	0.302
253	0.304
253	0.305
254	0.307
254	0.308
255	0.31
255	0.311
256	0.312
256	0.313
257	0.314
257	0.314
258	0.315
258	0.315
258	0.316
259	0.316
259	0.316
260	0.316
260	0.316
261	0.315
261	0.315
262	0.315
262	0.315
263	0.314
263	0.314
264	0.313
264	0.312
265	0.312
265	0.311
265	0.31
266	0.309
266	0.307
267	0.306
267	0.305
268	0.303
268	0.302
269	0.3
269	0.298
270	0.297
270	0.295
271	0.293
271	0.291
272	0.29
272	0.288
272	0.286
273	0.284
273	0.282
274	0.28
274	0.278
275	0.276
275	0.274
276	0.272
276	0.27
277	0.268
277	0.266
278	0.263
278	0.262
278	0.26
279	0.257
279	0.255
280	0.253
280	0.251
281	0.249
281	0.247
282	0.244
282	0.242
283	0.241
283	0.239
284	0.237
284	0.235
285	0.233
285	0.231
285	0.229
286	0.228
286	0.226
287	0.224
287	0.223
288	0.221
288	0.22
289	0.218
289	0.217
290	0.215
290	0.214
291	0.213
291	0.211
292	0.21
292	0.209
292	0.208
293	0.207
293	0.206
294	0.204
294	0.203
295	0.203
295	0.202
296	0.201
296	0.2
297	0.2
297	0.199
298	0.198
298	0.197
298	0.197
299	0.196
299	0.195
300	0.195
300	0.194
301	0.193
301	0.193
302	0.192
302	0.191
303	0.191
303	0.19
304	0.19
304	0.189
305	0.189
305	0.188
305	0.188
306	0.187
306	0.187
307	0.186
307	0.186
308	0.185
308	0.185
309	0.184
309	0.183
310	0.183
310	0.182
311	0.182
311	0.181
311	0.181
312	0.18
312	0.18
313	0.179
313	0.179
314	0.178
314	0.178
315	0.177
315	0.176
316	0.176
316	0.175
317	0.175
317	0.174
318	0.173
318	0.173
318	0.172
319	0.172
319	0.172
320	0.171
320	0.171
321	0.17
321	0.169
322	0.169
322	0.168
323	0.168
323	0.167
324	0.167
324	0.166
324	0.166
325	0.165
325	0.165
326	0.164
326	0.164
327	0.163
327	0.163
328	0.162
328	0.161
329	0.161
329	0.16
330	0.16
330	0.159
330	0.159
331	0.158
331	0.158
332	0.157
332	0.157
333	0.156
333	0.156
334	0.156
334	0.155
335	0.155
335	0.154
336	0.154
336	0.153
336	0.153
337	0.152
337	0.152
338	0.152
338	0.151
339	0.15
339	0.15
340	0.15
340	0.149
341	0.149
341	0.148
342	0.148
342	0.148
342	0.147
343	0.147
343	0.147
344	0.146
344	0.146
345	0.146
345	0.145
346	0.145
346	0.144
347	0.144
347	0.144
348	0.143
348	0.143
348	0.143
349	0.143
349	0.142
350	0.142
350	0.142
351	0.142
351	0.142
352	0.141
352	0.141
353	0.141
353	0.14
354	0.14
354	0.139
354	0.139
355	0.139
355	0.138
356	0.138
356	0.138
357	0.137
357	0.137
358	0.137
358	0.137
359	0.137
359	0.137
360	0.137
360	0.137
360	0.137
361	0.137
361	0.137
362	0.137
362	0.137
363	0.137
363	0.136
364	0.136
364	0.136
365	0.136
365	0.136
366	0.136
366	0.136
366	0.135
367	0.135
367	0.135
368	0.135
368	0.134
369	0.134
369	0.134
370	0.134
370	0.134
371	0.134
371	0.133
372	0.133
372	0.133
372	0.133
373	0.133
373	0.133
374	0.133
374	0.133
375	0.132
375	0.132
376	0.132
376	0.132
377	0.132
377	0.132
378	0.132
378	0.132
378	0.132
379	0.132
379	0.132
380	0.132
380	0.132
381	0.131
381	0.131
382	0.131
382	0.131
383	0.131
383	0.131
383	0.131
384	0.131
384	0.131
385	0.13
385	0.13
386	0.13
386	0.13
387	0.13
387	0.129
388	0.129
388	0.129
389	0.128
389	0.128
389	0.128
390	0.128
390	0.128
391	0.128
391	0.128
392	0.128
392	0.127
393	0.127
393	0.127
394	0.127
394	0.127
394	0.127
395	0.127
395	0.126
396	0.126
396	0.126
397	0.126
397	0.126
398	0.126
398	0.126
399	0.125
399	0.125
400	0.125
400	0.125
400	0.125
401	0.125
401	0.124
402	0.124
402	0.124
403	0.124
403	0.124
404	0.124
404	0.123
405	0.123
405	0.123
405	0.123
406	0.123
406	0.123
407	0.123
407	0.122
408	0.122
408	0.122
409	0.121
409	0.121
410	0.121
410	0.121
411	0.121
411	0.121
411	0.121
412	0.12
412	0.12
413	0.12
413	0.12
414	0.12
414	0.12
415	0.119
415	0.119
416	0.119
416	0.118
416	0.118
417	0.118
417	0.118
418	0.118
418	0.119
419	0.119
419	0.119
420	0.119
420	0.119
421	0.119
421	0.119
421	0.12
422	0.12
422	0.119
423	0.119
423	0.119
424	0.119
424	0.119
425	0.119
425	0.118
426	0.118
426	0.118
427	0.118
427	0.118
427	0.118
428	0.118
428	0.119
429	0.119
429	0.119
430	0.119
430	0.118
431	0.118
431	0.118
432	0.118
432	0.117
432	0.117
433	0.116
433	0.116
434	0.116
434	0.115
435	0.115
435	0.115
436	0.115
436	0.115
437	0.115
437	0.115
437	0.115
438	0.115
438	0.115
439	0.115
439	0.115
440	0.115
440	0.115
441	0.115
441	0.115
442	0.115
442	0.115
442	0.115
443	0.115
443	0.115
444	0.115
444	0.115
445	0.115
445	0.115
446	0.115
446	0.115
447	0.115
447	0.115
447	0.115
448	0.115
448	0.115
449	0.115
449	0.114
450	0.114
450	0.114
451	0.114
451	0.114
452	0.114
452	0.114
452	0.114
453	0.114
453	0.114
454	0.114
454	0.114
455	0.114
455	0.114
456	0.114
456	0.114
457	0.115
457	0.114
458	0.114
458	0.115
458	0.115
459	0.115
459	0.115
460	0.114
460	0.114
461	0.114
461	0.114
462	0.114
462	0.114
463	0.115
463	0.115
463	0.115
464	0.115
464	0.116
465	0.116
465	0.116
466	0.116
466	0.116
467	0.116
467	0.116
467	0.116
468	0.116
468	0.115
469	0.115
469	0.115
470	0.115
470	0.116
471	0.116
471	0.116
472	0.116
472	0.116
472	0.117
473	0.117
473	0.118
474	0.118
474	0.119
475	0.119
475	0.12
476	0.12
476	0.12
477	0.121
477	0.121
477	0.121
478	0.121
478	0.121
479	0.122
479	0.122
480	0.123
480	0.123
481	0.123
481	0.124
482	0.125
482	0.125
482	0.126
483	0.128
483	0.129
484	0.131
484	0.131
485	0.132
485	0.133
486	0.134
486	0.134
487	0.135
487	0.135
487	0.136
488	0.136
488	0.136
489	0.136
489	0.137
490	0.138
490	0.138
491	0.139
491	0.14
492	0.14
492	0.141
492	0.142
493	0.142
493	0.143
494	0.145
494	0.146
495	0.147
495	0.148
496	0.15
496	0.151
496	0.152
497	0.153
497	0.155
498	0.156
498	0.157
499	0.157
499	0.158
500	0.16
500	0.161
501	0.162
501	0.163
501	0.164
502	0.165
502	0.167
503	0.168
503	0.17
504	0.171
504	0.172
505	0.172
505	0.173
506	0.174
506	0.175
506	0.176
507	0.178
507	0.179
508	0.18
508	0.181
509	0.182
509	0.183
510	0.184
510	0.185
511	0.187
511	0.187
511	0.188
512	0.189
512	0.19
513	0.19
513	0.19
514	0.191
514	0.191
515	0.191
515	0.191
515	0.191
516	0.192
516	0.192
517	0.192
517	0.192
518	0.192
518	0.193
519	0.193
519	0.192
520	0.192
520	0.192
520	0.191
521	0.191
521	0.19
522	0.19
522	0.19
523	0.19
523	0.19
524	0.19
524	0.191
524	0.192
525	0.192
525	0.193
526	0.194
526	0.194
527	0.195
527	0.195
528	0.195
528	0.195
529	0.195
529	0.194
529	0.194
530	0.193
530	0.193
531	0.192
531	0.191
532	0.191
532	0.19
533	0.19
533	0.189
533	0.188
534	0.187
534	0.186
535	0.185
535	0.184
536	0.184
536	0.183
537	0.181
537	0.181
538	0.179
538	0.178
538	0.177
539	0.175
539	0.174
540	0.172
540	0.171
541	0.169
541	0.168
542	0.166
542	0.164
542	0.163
543	0.161
543	0.16
544	0.158
544	0.157
545	0.156
545	0.155
546	0.154
546	0.152
547	0.15
547	0.148
547	0.147
548	0.145
548	0.143
549	0.142
549	0.14
550	0.139
550	0.137
551	0.135
551	0.134
551	0.132
552	0.131
552	0.13
553	0.129
553	0.128
554	0.127
554	0.125
555	0.123
555	0.121
556	0.119
556	0.117
556	0.116
557	0.114
557	0.113
558	0.111
558	0.109
559	0.108
559	0.106
560	0.105
560	0.104
560	0.103
561	0.102
561	0.101
562	0.1
562	0.098
563	0.097
563	0.095
564	0.094
564	0.092
564	0.091
565	0.09
565	0.089
566	0.087
566	0.086
567	0.086
567	0.085
568	0.085
568	0.085
568	0.084
569	0.084
569	0.083
570	0.082
570	0.08
571	0.08
571	0.079
572	0.078
572	0.077
573	0.076
573	0.075
573	0.074
574	0.073
574	0.073
575	0.073
575	0.074
576	0.073
576	0.072
577	0.071
577	0.071
577	0.071
578	0.071
578	0.07
579	0.071
579	0.071
580	0.069
580	0.067
581	0.065
581	0.064
581	0.064
582	0.063
582	0.063
583	0.063
583	0.062
584	0.06
584	0.057
585	0.057
585	0.057
585	0.056
586	0.056
586	0.055
587	0.054
587	0.052
588	0.051
588	0.05
589	0.049
589	0.049
590	0.05
590	0.05
590	0.051
591	0.052
591	0.051
592	0.051
592	0.05
593	0.05
593	0.05
594	0.049
594	0.048
594	0.048
595	0.047
595	0.046
596	0.045
596	0.046
597	0.047
597	0.048
598	0.048
598	0.048
598	0.049
599	0.048
599	0.048
600	0.047
600	0.046
601	0.046
601	0.045
602	0.044
602	0.044
602	0.043
603	0.043
603	0.044
604	0.045
604	0.046
605	0.047
605	0.048
606	0.048
606	0.048
606	0.047
607	0.047
607	0.047
608	0.047
608	0.046
609	0.045
609	0.045
610	0.043
610	0.042
610	0.043
611	0.043
611	0.044
612	0.045
612	0.046
613	0.047
613	0.047
614	0.047
614	0.047
614	0.047
615	0.047
615	0.047
616	0.048
616	0.048
617	0.048
617	0.047
618	0.047
618	0.047
618	0.047
619	0.048
619	0.049
620	0.05
620	0.051
621	0.051
621	0.052
622	0.052
622	0.052
622	0.053
623	0.053
623	0.054
624	0.054
624	0.054
625	0.053
625	0.053
626	0.053
626	0.054
626	0.055
627	0.056
627	0.057
628	0.058
628	0.058
629	0.059
629	0.06
630	0.061
630	0.061
630	0.062
631	0.063
631	0.064
632	0.064
632	0.065
633	0.066
633	0.066
634	0.068
634	0.069
634	0.071
635	0.072
635	0.073
636	0.074
636	0.075
637	0.075
637	0.076
638	0.077
638	0.078
638	0.078
639	0.079
639	0.079
640	0.08
640	0.081
641	0.083
641	0.084
642	0.085
642	0.087
642	0.088
643	0.09
643	0.091
644	0.093
644	0.095
645	0.097
645	0.099
646	0.101
646	0.104
646	0.106
647	0.109
647	0.112
648	0.114
648	0.116
649	0.118
649	0.121
650	0.123
650	0.125
650	0.127
651	0.128
651	0.13
652	0.132
652	0.134
653	0.137
653	0.143
653	0.154
654	0.123
654	0.1
655	0.102
655	0.104
656	0.105
656	0.107
657	0.108
657	0.109
657	0.11
658	0.108
658	0.099
659	0.126
659	0.162
660	0.168
660	0.17
661	0.173
661	0.175
661	0.177
662	0.18
662	0.182
663	0.185
663	0.187
664	0.189
664	0.191
665	0.193
665	0.195
665	0.197
666	0.198
666	0.2
667	0.202
667	0.204
668	0.206
668	0.208
669	0.209
669	0.211
669	0.213
670	0.215
670	0.216
671	0.218
671	0.219
672	0.22
672	0.222
672	0.224
673	0.225
673	0.227
674	0.229
674	0.23
675	0.231
675	0.233
676	0.235
676	0.237
676	0.238
677	0.239
677	0.24
678	0.241
678	0.242
679	0.243
679	0.244
680	0.246
680	0.246
680	0.247
681	0.248
681	0.249
682	0.25
682	0.251
683	0.252
683	0.252
684	0.253
684	0.253
684	0.253
685	0.253
685	0.253
686	0.252
686	0.252
687	0.251
687	0.251
687	0.25
688	0.249
688	0.248
689	0.249
689	0.249
690	0.248
690	0.248
691	0.248
691	0.247
691	0.247
692	0.247
692	0.246
693	0.246
693	0.246
694	0.245
694	0.244
695	0.244
695	0.244
695	0.243
696	0.242
696	0.24
697	0.239
697	0.238
698	0.237
698	0.235
698	0.234
699	0.233
699	0.231
700	0.229
700	0.227
701	0.226
701	0.225
702	0.224
702	0.222
702	0.221
703	0.219
703	0.218
704	0.216
704	0.215
705	0.214
705	0.212
705	0.21
706	0.209
706	0.208
707	0.206
707	0.205
708	0.204
708	0.202
709	0.201
709	0.199
709	0.197
710	0.194
710	0.193
711	0.191
711	0.189
712	0.187
712	0.184
713	0.182
713	0.179
713	0.177
714	0.175
714	0.172
715	0.171
715	0.169
716	0.167
716	0.165
716	0.164
717	0.163
717	0.162
718	0.161
718	0.16
719	0.159
719	0.157
720	0.155
720	0.154
720	0.152
721	0.15
721	0.148
722	0.146
722	0.143
723	0.142
723	0.14
723	0.138
724	0.136
724	0.134
725	0.131
725	0.129
726	0.127
726	0.125
727	0.123
727	0.122
727	0.12
728	0.118
728	0.116
729	0.116
729	0.114
730	0.113
730	0.111
730	0.109
731	0.108
731	0.106
732	0.105
732	0.104
733	0.102
733	0.101
734	0.1
734	0.098
734	0.096
735	0.095
735	0.093
736	0.092
736	0.09
737	0.088
737	0.087
737	0.085
738	0.083
738	0.081
739	0.08
739	0.079
740	0.078
740	0.078
741	0.078
741	0.076
741	0.075
742	0.073
742	0.072
743	0.071
743	0.069
744	0.068
744	0.066
744	0.064
745	0.062
745	0.06
746	0.059
746	0.059
747	0.058
747	0.058
748	0.058
748	0.057
748	0.056
749	0.055
749	0.054
750	0.053
750	0.052
751	0.05
751	0.048
751	0.047
752	0.045
752	0.042
753	0.041
753	0.04
754	0.038
754	0.037
754	0.037
755	0.036
755	0.036
756	0.035
756	0.033
757	0.033
757	0.033
758	0.032
758	0.032
758	0.031
759	0.031
759	0.03
760	0.029
760	0.028
761	0.027
761	0.027
761	0.026
762	0.025
762	0.024
763	0.023
763	0.021
764	0.019
764	0.017
764	0.015
765	0.014
765	0.012
766	0.011
766	0.01
767	0.009
767	0.008
768	0.006
768	0.004
768	0.003
769	0.002
769	0.001
770	-0
770	-0.002
771	-0.003
771	-0.005
771	-0.007
772	-0.008
772	-0.008
773	-0.009
773	-0.01
774	-0.011
774	-0.013
775	-0.014
775	-0.015
775	-0.017
776	-0.019
776	-0.021
777	-0.022
777	-0.024
778	-0.026
778	-0.029
778	-0.031
779	-0.032
779	-0.034
780	-0.036
780	-0.039
781	-0.041
781	-0.044
781	-0.047
782	-0.05
782	-0.054
783	-0.058
783	-0.062
784	-0.066
784	-0.071
784	-0.076
785	-0.081
785	-0.087
786	-0.092
786	-0.097
787	-0.101
787	-0.105
788	-0.111
788	-0.118
788	-0.125
789	-0.132
789	-0.137
790	-0.141
790	-0.145
791	-0.15
791	-0.154
791	-0.156
792	-0.152
792	-0.143
793	-0.139
793	-0.136
794	-0.134
794	-0.136
794	-0.139
795	-0.141
795	-0.141
796	-0.141
796	-0.144
797	-0.152
797	-0.163
797	-0.169
798	-0.175
798	-0.178
799	-0.178
799	-0.178
800	-0.178
800	-0.179
801	-0.182
801	-0.182
801	-0.182
802	-0.183
802	-0.184
803	-0.184
803	-0.184
804	-0.183
804	-0.178
804	-0.172
805	-0.168
805	-0.166
806	-0.164
806	-0.162
807	-0.161
807	-0.161
807	-0.16
808	-0.16
808	-0.161
809	-0.165
809	-0.171
810	-0.175
810	-0.177
810	-0.181
811	-0.184
811	-0.185
812	-0.181
812	-0.179
813	-0.179
813	-0.18
813	-0.182
814	-0.183
814	-0.183
815	-0.18
815	-0.175
816	-0.17
816	-0.166
817	-0.164
817	-0.16
817	-0.152
818	-0.143
818	-0.132
819	-0.12
819	-0.11
820	-0.102
820	-0.095
820	-0.088
821	-0.082
821	-0.076
822	-0.071
822	-0.066
823	-0.062
823	-0.058
823	-0.055
824	-0.052
824	-0.048
825	-0.044
825	-0.04
826	-0.037
826	-0.034
826	-0.032
827	-0.031
827	-0.029
828	-0.027
828	-0.026
829	-0.024
829	-0.023
829	-0.023
830	-0.023
830	-0.022
831	-0.021
831	-0.021
832	-0.021
832	-0.021
832	-0.021
833	-0.021
833	-0.021
834	-0.022
834	-0.022
835	-0.022
835	-0.022
835	-0.022
836	-0.021
836	-0.021
837	-0.021
837	-0.02
838	-0.019
838	-0.019
839	-0.018
839	-0.017
839	-0.017
840	-0.016
840	-0.015
841	-0.014
841	-0.014
842	-0.013
842	-0.013
842	-0.012
843	-0.012
843	-0.012
844	-0.011
844	-0.011
845	-0.011
845	-0.011
845	-0.01
846	-0.01
846	-0.01
847	-0.01
847	-0.01
848	-0.011
848	-0.011
848	-0.011
849	-0.011
849	-0.012
850	-0.012
850	-0.013
851	-0.013
851	-0.013
851	-0.014
852	-0.014
852	-0.014
853	-0.014
853	-0.015
854	-0.015
854	-0.015
854	-0.015
855	-0.015
855	-0.016
856	-0.016
856	-0.017
857	-0.017
857	-0.018
857	-0.018
858	-0.017
858	-0.017
859	-0.017
859	-0.017
860	-0.016
860	-0.015
860	-0.015
861	-0.014
861	-0.013
862	-0.013
862	-0.012
863	-0.012
863	-0.012
863	-0.012
864	-0.012
864	-0.012
865	-0.011
865	-0.011
866	-0.011
866	-0.01
866	-0.009
867	-0.009
867	-0.008
868	-0.008
868	-0.008
869	-0.008
869	-0.008
869	-0.009
870	-0.01
870	-0.011
871	-0.013
871	-0.014
872	-0.015
872	-0.015
872	-0.016
873	-0.016
873	-0.016
874	-0.016
874	-0.015
875	-0.014
875	-0.013
875	-0.013
876	-0.012
876	-0.011
877	-0.011
877	-0.011
878	-0.011
878	-0.011
878	-0.012
879	-0.013
879	-0.014
880	-0.015
880	-0.016
881	-0.017
881	-0.017
881	-0.017
882	-0.017
882	-0.016
883	-0.015
883	-0.014
884	-0.013
884	-0.012
884	-0.011
885	-0.01
885	-0.009
886	-0.009
886	-0.008
887	-0.008
887	-0.009
887	-0.009
888	-0.01
888	-0.01
889	-0.011
889	-0.011
890	-0.011
890	-0.012
890	-0.012
891	-0.012
891	-0.013
892	-0.013
892	-0.013
893	-0.013
893	-0.012
893	-0.012
894	-0.012
894	-0.012
895	-0.011
895	-0.011
895	-0.011
896	-0.011
896	-0.011
897	-0.011
897	-0.011
898	-0.01
898	-0.01
898	-0.01
899	-0.01
899	-0.009
900	-0.009
900	-0.008
901	-0.007
901	-0.006
901	-0.005
902	-0.004
902	-0.003
903	-0.002
903	-0.002
904	-0.001
904	-0.001
904	-0.001
905	-0.001
905	-0.001
906	-0.001
906	-0.002
907	-0.002
907	-0.002
907	-0.003
908	-0.003
908	-0.003
909	-0.004
909	-0.004
910	-0.004
910	-0.005
910	-0.006
911	-0.006
911	-0.007
912	-0.008
912	-0.008
913	-0.009
913	-0.01
913	-0.01
914	-0.011
914	-0.012
915	-0.013
915	-0.013
916	-0.014
916	-0.014
916	-0.014
917	-0.015
917	-0.015
918	-0.014
918	-0.014
918	-0.014
919	-0.013
919	-0.012
920	-0.01
920	-0.009
921	-0.007
921	-0.006
921	-0.005
922	-0.004
922	-0.003
923	-0.002
923	-0.002
924	-0.002
924	-0.002
924	-0.003
925	-0.004
925	-0.005
926	-0.005
926	-0.006
927	-0.007
927	-0.007
927	-0.007
928	-0.007
928	-0.007
929	-0.007
929	-0.007
930	-0.008
930	-0.008
930	-0.008
931	-0.008
931	-0.009
932	-0.009
932	-0.01
933	-0.011
933	-0.012
933	-0.012
934	-0.013
934	-0.013
935	-0.014
935	-0.014
935	-0.014
936	-0.014
936	-0.014
937	-0.014
937	-0.013
938	-0.013
938	-0.013
938	-0.013
939	-0.013
939	-0.013
940	-0.013
940	-0.014
941	-0.014
941	-0.015
941	-0.015
942	-0.016
942	-0.016
943	-0.017
943	-0.017
944	-0.017
944	-0.017
944	-0.017
945	-0.017
945	-0.016
946	-0.016
946	-0.016
946	-0.016
947	-0.016
947	-0.016
948	-0.016
948	-0.017
949	-0.017
949	-0.017
949	-0.016
950	-0.016
950	-0.016
951	-0.015
951	-0.015
952	-0.014
952	-0.013
952	-0.013
953	-0.012
953	-0.011
954	-0.01
954	-0.01
955	-0.009
955	-0.009
955	-0.008
956	-0.007
956	-0.007
957	-0.007
957	-0.007
957	-0.007
958	-0.007
958	-0.007
959	-0.008
959	-0.008
960	-0.008
960	-0.009
960	-0.01
961	-0.01
961	-0.011
962	-0.012
962	-0.013
963	-0.014
963	-0.015
963	-0.016
964	-0.017
964	-0.018
965	-0.018
965	-0.019
966	-0.019
966	-0.019
966	-0.018
967	-0.018
967	-0.017
968	-0.017
968	-0.016
968	-0.015
969	-0.014
969	-0.014
970	-0.013
970	-0.013
971	-0.012
971	-0.012
971	-0.011
972	-0.01
972	-0.01
973	-0.009
973	-0.009
974	-0.008
974	-0.008
974	-0.007
975	-0.007
975	-0.007
976	-0.007
976	-0.007
976	-0.007
977	-0.008
977	-0.009
978	-0.009
978	-0.01
979	-0.011
979	-0.012
979	-0.013
980	-0.015
980	-0.016
981	-0.016
981	-0.017
982	-0.018
982	-0.018
982	-0.018
983	-0.018
983	-0.018
984	-0.018
984	-0.018
984	-0.018
985	-0.017
985	-0.017
986	-0.017
986	-0.017
987	-0.017
987	-0.017
987	-0.017
988	-0.016
988	-0.016
989	-0.016
989	-0.015
990	-0.015
990	-0.014
990	-0.013
991	-0.013
991	-0.012
992	-0.012
992	-0.012
992	-0.013
993	-0.014
993	-0.014
994	-0.015
994	-0.016
995	-0.017
995	-0.018
995	-0.02
996	-0.02
996	-0.021
997	-0.021
997	-0.021
997	-0.021
998	-0.021
998	-0.02
999	-0.019
999	-0.018
1000	-0.018
1000	-0.017
1000	-0.017
1001	-0.017
1001	-0.017
1002	-0.018
1002	-0.019
1003	-0.02
1003	-0.021
1003	-0.022
1004	-0.023
1004	-0.024
1005	-0.025
1005	-0.025
1005	-0.026
1006	-0.026
1006	-0.026
1007	-0.026
1007	-0.026
1008	-0.026
1008	-0.026
1008	-0.026
1009	-0.025
1009	-0.025
1010	-0.024
1010	-0.024
1010	-0.023
1011	-0.023
1011	-0.022
1012	-0.022
1012	-0.022
1013	-0.021
1013	-0.021
1013	-0.021
1014	-0.021
1014	-0.02
1015	-0.02
1015	-0.02
1016	-0.02
1016	-0.02
1016	-0.02
1017	-0.019
1017	-0.019
1018	-0.019
1018	-0.019
1018	-0.019
1019	-0.018
1019	-0.018
1020	-0.018
1020	-0.018
1021	-0.018
1021	-0.019
1021	-0.019
1022	-0.019
1022	-0.019
1023	-0.02
1023	-0.02
1023	-0.021
1024	-0.021
1024	-0.022
1025	-0.023
1025	-0.023
1026	-0.023
1026	-0.023
1026	-0.023
1027	-0.024
1027	-0.023
1028	-0.023
1028	-0.023
1028	-0.023
1029	-0.023
1029	-0.023
1030	-0.023
1030	-0.023
1031	-0.024
1031	-0.024
1031	-0.025
1032	-0.026
1032	-0.026
1033	-0.027
1033	-0.028
1033	-0.028
1034	-0.029
1034	-0.03
1035	-0.03
1035	-0.031
1036	-0.031
1036	-0.031
1036	-0.031
1037	-0.031
1037	-0.031
1038	-0.031
1038	-0.031
1039	-0.03
1039	-0.029
1039	-0.028
1040	-0.028
1040	-0.028
1041	-0.027
1041	-0.027
1041	-0.027
1042	-0.028
1042	-0.028
1043	-0.028
1043	-0.029
1044	-0.029
1044	-0.029
1044	-0.03
1045	-0.03
1045	-0.03
1046	-0.03
1046	-0.03
1046	-0.03
1047	-0.029
1047	-0.029
1048	-0.028
1048	-0.028
1049	-0.028
1049	-0.028
1049	-0.028
1050	-0.028
1050	-0.029
1051	-0.029
1051	-0.029
1051	-0.03
1052	-0.03
1052	-0.031
1053	-0.031
1053	-0.031
1053	-0.032
1054	-0.032
1054	-0.032
1055	-0.032
1055	-0.033
1056	-0.033
1056	-0.034
1056	-0.035
1057	-0.035
1057	-0.035
1058	-0.036
1058	-0.036
1058	-0.036
1059	-0.037
1059	-0.037
1060	-0.037
1060	-0.036
1061	-0.036
1061	-0.035
1061	-0.035
1062	-0.035
1062	-0.035
1063	-0.034
1063	-0.034
1063	-0.034
1064	-0.034
1064	-0.034
1065	-0.034
1065	-0.034
1066	-0.035
1066	-0.036
1066	-0.036
1067	-0.036
1067	-0.037
1068	-0.037
1068	-0.038
1068	-0.039
1069	-0.04
1069	-0.04
1070	-0.04
1070	-0.039
1071	-0.04
1071	-0.04
1071	-0.04
1072	-0.04
1072	-0.039
1073	-0.038
1073	-0.038
1073	-0.037
1074	-0.036
1074	-0.036
1075	-0.036
1075	-0.036
1076	-0.036
1076	-0.035
1076	-0.035
1077	-0.035
1077	-0.035
1078	-0.035
1078	-0.035
1078	-0.035
1079	-0.035
1079	-0.034
1080	-0.034
1080	-0.033
1080	-0.033
1081	-0.032
1081	-0.032
1082	-0.031
1082	-0.031
1083	-0.031
1083	-0.03
1083	-0.03
1084	-0.03
1084	-0.029
1085	-0.029
1085	-0.028
1085	-0.027
1086	-0.027
1086	-0.027
1087	-0.026
1087	-0.026
1088	-0.026
1088	-0.026
1088	-0.026
1089	-0.027
1089	-0.027
1090	-0.028
1090	-0.028
1090	-0.028
1091	-0.029
1091	-0.029
1092	-0.029
1092	-0.028
1092	-0.028
1093	-0.029
1093	-0.028
1094	-0.027
1094	-0.026
1095	-0.026
1095	-0.025
1095	-0.024
1096	-0.023
1096	-0.023
1097	-0.021
1097	-0.021
1097	-0.02
1098	-0.02
1098	-0.02
1099	-0.019
1099	-0.018
1100	-0.017
1100	-0.017
1100	-0.017
1101	-0.016
1101	-0.016
1102	-0.014
1102	-0.012
1102	-0.01
1103	-0.007
1103	-0.004
1104	-0.001
1104	0.003
1104	0.007
1105	0.012
1105	0.017
1106	0.02
1106	0.025
1107	0.029
1107	0.037
1107	0.045
1108	0.075
1108	0.115
1109	0.166
1109	0.248
1109	0.306
1110	0.416
1110	0.675
1111	-0
1111	-0
