Data from 15c-2a_Absorbance__156__00156.txt Node

Date: Fri Jan 19 09:46:46 CET 2024
User: Marek
Spectrometer: MAYP115816
Trigger mode: 0
Integration Time (sec): 2.000000E-1
Scans to average: 10
Electric dark correction enabled: true
Nonlinearity correction enabled: true
Boxcar width: 5
XAxis mode: Wavelengths
Number of Pixels in Spectrum: 2068
>>>>>Begin Spectral Data<<<<<
199	-1.503
199	-1.349
200	-1.208
200	-1.093
201	-1.026
201	-0.975
202	-0.907
202	-0.852
203	-0.805
203	-0.764
204	-0.739
204	-0.716
205	-0.698
205	-0.688
205	-0.686
206	-0.681
206	-0.677
207	-0.673
207	-0.669
208	-0.667
208	-0.664
209	-0.663
209	-0.659
210	-0.657
210	-0.656
211	-0.655
211	-0.653
212	-0.654
212	-0.653
213	-0.653
213	-0.65
213	-0.649
214	-0.644
214	-0.643
215	-0.64
215	-0.639
216	-0.636
216	-0.636
217	-0.631
217	-0.629
218	-0.627
218	-0.624
219	-0.621
219	-0.621
220	-0.618
220	-0.619
221	-0.616
221	-0.611
221	-0.605
222	-0.604
222	-0.599
223	-0.594
223	-0.59
224	-0.583
224	-0.578
225	-0.572
225	-0.561
226	-0.551
226	-0.542
227	-0.531
227	-0.518
228	-0.504
228	-0.491
229	-0.473
229	-0.454
229	-0.431
230	-0.406
230	-0.38
231	-0.35
231	-0.32
232	-0.288
232	-0.254
233	-0.218
233	-0.182
234	-0.147
234	-0.113
235	-0.081
235	-0.049
236	-0.019
236	0.008
236	0.034
237	0.058
237	0.08
238	0.1
238	0.118
239	0.134
239	0.148
240	0.161
240	0.174
241	0.184
241	0.195
242	0.203
242	0.211
243	0.218
243	0.225
243	0.231
244	0.237
244	0.242
245	0.247
245	0.251
246	0.255
246	0.259
247	0.263
247	0.266
248	0.269
248	0.272
249	0.275
249	0.278
250	0.28
250	0.283
250	0.285
251	0.288
251	0.289
252	0.291
252	0.293
253	0.295
253	0.297
254	0.299
254	0.3
255	0.302
255	0.303
256	0.304
256	0.305
257	0.306
257	0.307
258	0.308
258	0.308
258	0.309
259	0.309
259	0.309
260	0.309
260	0.309
261	0.309
261	0.308
262	0.308
262	0.308
263	0.307
263	0.307
264	0.306
264	0.306
265	0.305
265	0.304
265	0.303
266	0.303
266	0.301
267	0.3
267	0.299
268	0.298
268	0.296
269	0.295
269	0.293
270	0.291
270	0.29
271	0.288
271	0.286
272	0.284
272	0.282
272	0.281
273	0.278
273	0.277
274	0.275
274	0.273
275	0.271
275	0.269
276	0.267
276	0.265
277	0.262
277	0.26
278	0.258
278	0.256
278	0.254
279	0.252
279	0.25
280	0.248
280	0.245
281	0.243
281	0.241
282	0.239
282	0.238
283	0.236
283	0.234
284	0.232
284	0.23
285	0.229
285	0.227
285	0.225
286	0.223
286	0.221
287	0.22
287	0.218
288	0.217
288	0.215
289	0.214
289	0.213
290	0.211
290	0.21
291	0.208
291	0.207
292	0.206
292	0.205
292	0.204
293	0.203
293	0.201
294	0.2
294	0.199
295	0.198
295	0.198
296	0.197
296	0.196
297	0.195
297	0.195
298	0.194
298	0.193
298	0.193
299	0.192
299	0.192
300	0.191
300	0.19
301	0.19
301	0.189
302	0.189
302	0.188
303	0.188
303	0.187
304	0.186
304	0.186
305	0.186
305	0.185
305	0.185
306	0.184
306	0.184
307	0.183
307	0.183
308	0.183
308	0.182
309	0.182
309	0.181
310	0.181
310	0.18
311	0.18
311	0.179
311	0.179
312	0.178
312	0.178
313	0.177
313	0.177
314	0.176
314	0.176
315	0.175
315	0.175
316	0.174
316	0.174
317	0.173
317	0.173
318	0.172
318	0.172
318	0.171
319	0.171
319	0.17
320	0.17
320	0.169
321	0.169
321	0.168
322	0.167
322	0.167
323	0.166
323	0.166
324	0.165
324	0.164
324	0.164
325	0.163
325	0.163
326	0.163
326	0.162
327	0.162
327	0.161
328	0.161
328	0.161
329	0.16
329	0.16
330	0.16
330	0.159
330	0.159
331	0.158
331	0.158
332	0.157
332	0.157
333	0.156
333	0.156
334	0.155
334	0.155
335	0.154
335	0.154
336	0.153
336	0.153
336	0.152
337	0.152
337	0.151
338	0.151
338	0.151
339	0.15
339	0.15
340	0.149
340	0.149
341	0.149
341	0.148
342	0.148
342	0.148
342	0.148
343	0.147
343	0.147
344	0.147
344	0.146
345	0.146
345	0.146
346	0.145
346	0.145
347	0.144
347	0.144
348	0.144
348	0.144
348	0.144
349	0.143
349	0.143
350	0.143
350	0.143
351	0.143
351	0.143
352	0.142
352	0.142
353	0.142
353	0.141
354	0.141
354	0.141
354	0.14
355	0.14
355	0.14
356	0.14
356	0.139
357	0.139
357	0.139
358	0.139
358	0.139
359	0.139
359	0.139
360	0.139
360	0.139
360	0.139
361	0.139
361	0.139
362	0.139
362	0.139
363	0.139
363	0.138
364	0.138
364	0.138
365	0.138
365	0.137
366	0.137
366	0.137
366	0.137
367	0.137
367	0.137
368	0.137
368	0.136
369	0.136
369	0.136
370	0.136
370	0.136
371	0.135
371	0.135
372	0.135
372	0.135
372	0.134
373	0.134
373	0.134
374	0.134
374	0.134
375	0.134
375	0.134
376	0.133
376	0.133
377	0.133
377	0.133
378	0.133
378	0.133
378	0.133
379	0.133
379	0.133
380	0.133
380	0.133
381	0.133
381	0.133
382	0.133
382	0.132
383	0.132
383	0.132
383	0.132
384	0.131
384	0.131
385	0.131
385	0.131
386	0.13
386	0.13
387	0.13
387	0.13
388	0.13
388	0.13
389	0.13
389	0.129
389	0.129
390	0.129
390	0.129
391	0.129
391	0.129
392	0.129
392	0.128
393	0.128
393	0.128
394	0.128
394	0.128
394	0.128
395	0.127
395	0.127
396	0.127
396	0.127
397	0.127
397	0.127
398	0.127
398	0.127
399	0.127
399	0.127
400	0.127
400	0.127
400	0.127
401	0.126
401	0.126
402	0.126
402	0.126
403	0.125
403	0.125
404	0.125
404	0.125
405	0.125
405	0.124
405	0.124
406	0.124
406	0.124
407	0.123
407	0.123
408	0.123
408	0.122
409	0.122
409	0.122
410	0.122
410	0.121
411	0.121
411	0.121
411	0.121
412	0.121
412	0.121
413	0.121
413	0.121
414	0.121
414	0.121
415	0.121
415	0.121
416	0.121
416	0.12
416	0.12
417	0.12
417	0.12
418	0.12
418	0.12
419	0.12
419	0.12
420	0.12
420	0.121
421	0.12
421	0.12
421	0.12
422	0.12
422	0.12
423	0.12
423	0.12
424	0.12
424	0.12
425	0.119
425	0.119
426	0.119
426	0.119
427	0.119
427	0.119
427	0.119
428	0.118
428	0.119
429	0.119
429	0.119
430	0.119
430	0.118
431	0.118
431	0.118
432	0.118
432	0.118
432	0.117
433	0.117
433	0.117
434	0.116
434	0.116
435	0.116
435	0.116
436	0.116
436	0.116
437	0.116
437	0.116
437	0.116
438	0.116
438	0.116
439	0.116
439	0.116
440	0.116
440	0.116
441	0.116
441	0.116
442	0.116
442	0.116
442	0.116
443	0.116
443	0.116
444	0.116
444	0.116
445	0.116
445	0.116
446	0.116
446	0.116
447	0.116
447	0.116
447	0.116
448	0.115
448	0.115
449	0.115
449	0.115
450	0.116
450	0.116
451	0.116
451	0.116
452	0.115
452	0.115
452	0.115
453	0.115
453	0.115
454	0.115
454	0.115
455	0.114
455	0.114
456	0.114
456	0.114
457	0.114
457	0.114
458	0.114
458	0.114
458	0.114
459	0.114
459	0.114
460	0.114
460	0.113
461	0.113
461	0.113
462	0.113
462	0.114
463	0.114
463	0.115
463	0.115
464	0.116
464	0.116
465	0.116
465	0.116
466	0.116
466	0.117
467	0.117
467	0.117
467	0.116
468	0.116
468	0.116
469	0.116
469	0.116
470	0.116
470	0.116
471	0.116
471	0.116
472	0.116
472	0.116
472	0.117
473	0.117
473	0.117
474	0.118
474	0.118
475	0.119
475	0.119
476	0.119
476	0.12
477	0.12
477	0.12
477	0.12
478	0.121
478	0.121
479	0.121
479	0.122
480	0.122
480	0.123
481	0.123
481	0.124
482	0.125
482	0.126
482	0.127
483	0.128
483	0.129
484	0.13
484	0.131
485	0.131
485	0.132
486	0.133
486	0.133
487	0.134
487	0.134
487	0.134
488	0.135
488	0.135
489	0.135
489	0.136
490	0.136
490	0.137
491	0.137
491	0.138
492	0.138
492	0.139
492	0.139
493	0.14
493	0.141
494	0.142
494	0.143
495	0.144
495	0.146
496	0.147
496	0.149
496	0.15
497	0.152
497	0.153
498	0.154
498	0.155
499	0.156
499	0.157
500	0.158
500	0.159
501	0.16
501	0.162
501	0.163
502	0.164
502	0.165
503	0.166
503	0.167
504	0.168
504	0.17
505	0.17
505	0.171
506	0.172
506	0.173
506	0.174
507	0.174
507	0.175
508	0.176
508	0.177
509	0.178
509	0.179
510	0.18
510	0.181
511	0.182
511	0.182
511	0.183
512	0.184
512	0.184
513	0.185
513	0.185
514	0.186
514	0.186
515	0.186
515	0.187
515	0.187
516	0.187
516	0.187
517	0.188
517	0.188
518	0.189
518	0.189
519	0.189
519	0.189
520	0.189
520	0.189
520	0.189
521	0.188
521	0.187
522	0.187
522	0.186
523	0.185
523	0.185
524	0.185
524	0.185
524	0.185
525	0.185
525	0.186
526	0.187
526	0.188
527	0.188
527	0.189
528	0.189
528	0.19
529	0.19
529	0.19
529	0.19
530	0.19
530	0.19
531	0.189
531	0.188
532	0.187
532	0.187
533	0.186
533	0.186
533	0.185
534	0.184
534	0.183
535	0.182
535	0.181
536	0.18
536	0.179
537	0.178
537	0.177
538	0.176
538	0.175
538	0.173
539	0.172
539	0.171
540	0.17
540	0.168
541	0.167
541	0.166
542	0.164
542	0.163
542	0.161
543	0.16
543	0.158
544	0.157
544	0.155
545	0.154
545	0.153
546	0.152
546	0.15
547	0.149
547	0.148
547	0.146
548	0.145
548	0.143
549	0.142
549	0.14
550	0.139
550	0.137
551	0.136
551	0.135
551	0.133
552	0.132
552	0.131
553	0.13
553	0.129
554	0.128
554	0.126
555	0.124
555	0.123
556	0.121
556	0.119
556	0.117
557	0.115
557	0.114
558	0.112
558	0.11
559	0.109
559	0.108
560	0.107
560	0.106
560	0.105
561	0.105
561	0.104
562	0.103
562	0.102
563	0.101
563	0.1
564	0.099
564	0.098
564	0.096
565	0.095
565	0.093
566	0.092
566	0.091
567	0.09
567	0.089
568	0.089
568	0.088
568	0.088
569	0.087
569	0.087
570	0.086
570	0.085
571	0.085
571	0.084
572	0.083
572	0.083
573	0.082
573	0.081
573	0.08
574	0.08
574	0.079
575	0.078
575	0.078
576	0.077
576	0.077
577	0.076
577	0.076
577	0.075
578	0.075
578	0.074
579	0.074
579	0.074
580	0.073
580	0.072
581	0.071
581	0.07
581	0.07
582	0.069
582	0.069
583	0.069
583	0.069
584	0.068
584	0.066
585	0.066
585	0.065
585	0.064
586	0.064
586	0.063
587	0.062
587	0.061
588	0.059
588	0.058
589	0.057
589	0.057
590	0.056
590	0.056
590	0.056
591	0.056
591	0.056
592	0.055
592	0.055
593	0.055
593	0.054
594	0.054
594	0.053
594	0.053
595	0.052
595	0.052
596	0.051
596	0.051
597	0.052
597	0.052
598	0.053
598	0.053
598	0.053
599	0.053
599	0.053
600	0.053
600	0.052
601	0.052
601	0.052
602	0.051
602	0.051
602	0.051
603	0.05
603	0.05
604	0.051
604	0.051
605	0.052
605	0.053
606	0.053
606	0.053
606	0.053
607	0.053
607	0.052
608	0.052
608	0.051
609	0.051
609	0.05
610	0.049
610	0.048
610	0.048
611	0.047
611	0.047
612	0.047
612	0.048
613	0.048
613	0.049
614	0.05
614	0.05
614	0.05
615	0.051
615	0.051
616	0.052
616	0.052
617	0.053
617	0.053
618	0.053
618	0.053
618	0.053
619	0.054
619	0.054
620	0.055
620	0.055
621	0.056
621	0.056
622	0.056
622	0.056
622	0.056
623	0.056
623	0.057
624	0.057
624	0.056
625	0.056
625	0.057
626	0.057
626	0.057
626	0.058
627	0.059
627	0.06
628	0.062
628	0.063
629	0.064
629	0.065
630	0.066
630	0.067
630	0.068
631	0.069
631	0.069
632	0.07
632	0.07
633	0.071
633	0.071
634	0.072
634	0.073
634	0.074
635	0.075
635	0.076
636	0.077
636	0.078
637	0.078
637	0.079
638	0.08
638	0.081
638	0.082
639	0.082
639	0.083
640	0.084
640	0.086
641	0.087
641	0.089
642	0.091
642	0.092
642	0.094
643	0.096
643	0.097
644	0.099
644	0.101
645	0.103
645	0.104
646	0.106
646	0.108
646	0.11
647	0.112
647	0.115
648	0.117
648	0.119
649	0.121
649	0.124
650	0.126
650	0.129
650	0.13
651	0.132
651	0.134
652	0.136
652	0.138
653	0.141
653	0.145
653	0.148
654	0.118
654	0.096
655	0.101
655	0.103
656	0.104
656	0.106
657	0.107
657	0.108
657	0.109
658	0.109
658	0.105
659	0.132
659	0.171
660	0.173
660	0.175
661	0.177
661	0.179
661	0.181
662	0.183
662	0.185
663	0.187
663	0.189
664	0.19
664	0.192
665	0.194
665	0.196
665	0.198
666	0.199
666	0.201
667	0.202
667	0.204
668	0.206
668	0.208
669	0.21
669	0.211
669	0.213
670	0.215
670	0.216
671	0.218
671	0.219
672	0.221
672	0.222
672	0.223
673	0.225
673	0.227
674	0.229
674	0.23
675	0.232
675	0.233
676	0.235
676	0.236
676	0.238
677	0.239
677	0.24
678	0.241
678	0.242
679	0.243
679	0.244
680	0.245
680	0.246
680	0.247
681	0.248
681	0.249
682	0.25
682	0.251
683	0.252
683	0.253
684	0.254
684	0.255
684	0.255
685	0.255
685	0.255
686	0.256
686	0.256
687	0.256
687	0.255
687	0.255
688	0.254
688	0.253
689	0.253
689	0.253
690	0.253
690	0.252
691	0.252
691	0.252
691	0.251
692	0.251
692	0.251
693	0.25
693	0.249
694	0.248
694	0.246
695	0.245
695	0.244
695	0.243
696	0.241
696	0.24
697	0.238
697	0.237
698	0.236
698	0.234
698	0.233
699	0.232
699	0.231
700	0.229
700	0.227
701	0.226
701	0.225
702	0.223
702	0.222
702	0.22
703	0.219
703	0.218
704	0.217
704	0.216
705	0.215
705	0.214
705	0.213
706	0.211
706	0.21
707	0.209
707	0.208
708	0.206
708	0.205
709	0.203
709	0.201
709	0.199
710	0.196
710	0.194
711	0.192
711	0.19
712	0.187
712	0.185
713	0.183
713	0.181
713	0.178
714	0.176
714	0.174
715	0.172
715	0.171
716	0.169
716	0.167
716	0.166
717	0.164
717	0.163
718	0.161
718	0.159
719	0.158
719	0.156
720	0.155
720	0.153
720	0.152
721	0.15
721	0.148
722	0.147
722	0.145
723	0.144
723	0.142
723	0.14
724	0.137
724	0.135
725	0.132
725	0.13
726	0.128
726	0.126
727	0.124
727	0.122
727	0.12
728	0.119
728	0.118
729	0.118
729	0.118
730	0.117
730	0.116
730	0.116
731	0.115
731	0.115
732	0.114
732	0.113
733	0.112
733	0.111
734	0.11
734	0.108
734	0.107
735	0.105
735	0.104
736	0.102
736	0.1
737	0.098
737	0.096
737	0.094
738	0.092
738	0.09
739	0.088
739	0.086
740	0.085
740	0.084
741	0.082
741	0.081
741	0.079
742	0.077
742	0.075
743	0.073
743	0.071
744	0.07
744	0.068
744	0.066
745	0.065
745	0.063
746	0.062
746	0.061
747	0.06
747	0.06
748	0.059
748	0.059
748	0.058
749	0.057
749	0.056
750	0.055
750	0.054
751	0.053
751	0.052
751	0.05
752	0.049
752	0.047
753	0.046
753	0.045
754	0.044
754	0.043
754	0.043
755	0.043
755	0.043
756	0.043
756	0.043
757	0.042
757	0.042
758	0.042
758	0.041
758	0.04
759	0.039
759	0.037
760	0.036
760	0.034
761	0.033
761	0.032
761	0.031
762	0.03
762	0.029
763	0.029
763	0.027
764	0.026
764	0.025
764	0.023
765	0.022
765	0.02
766	0.018
766	0.017
767	0.015
767	0.013
768	0.01
768	0.008
768	0.005
769	0.004
769	0.002
770	0.001
770	-0.001
771	-0.003
771	-0.004
771	-0.006
772	-0.007
772	-0.008
773	-0.009
773	-0.01
774	-0.011
774	-0.012
775	-0.014
775	-0.015
775	-0.018
776	-0.02
776	-0.022
777	-0.025
777	-0.027
778	-0.029
778	-0.032
778	-0.034
779	-0.036
779	-0.038
780	-0.04
780	-0.043
781	-0.046
781	-0.049
781	-0.053
782	-0.057
782	-0.062
783	-0.066
783	-0.071
784	-0.076
784	-0.082
784	-0.088
785	-0.094
785	-0.1
786	-0.106
786	-0.111
787	-0.114
787	-0.118
788	-0.125
788	-0.132
788	-0.138
789	-0.145
789	-0.149
790	-0.15
790	-0.153
791	-0.157
791	-0.159
791	-0.161
792	-0.156
792	-0.146
793	-0.14
793	-0.136
794	-0.134
794	-0.135
794	-0.139
795	-0.141
795	-0.141
796	-0.141
796	-0.144
797	-0.152
797	-0.163
797	-0.169
798	-0.175
798	-0.178
799	-0.178
799	-0.178
800	-0.177
800	-0.179
801	-0.181
801	-0.182
801	-0.182
802	-0.183
802	-0.184
803	-0.184
803	-0.184
804	-0.183
804	-0.178
804	-0.172
805	-0.168
805	-0.166
806	-0.163
806	-0.162
807	-0.161
807	-0.16
807	-0.16
808	-0.16
808	-0.161
809	-0.165
809	-0.171
810	-0.174
810	-0.177
810	-0.181
811	-0.184
811	-0.185
812	-0.181
812	-0.178
813	-0.179
813	-0.18
813	-0.181
814	-0.183
814	-0.182
815	-0.178
815	-0.174
816	-0.168
816	-0.163
817	-0.161
817	-0.156
817	-0.148
818	-0.138
818	-0.126
819	-0.114
819	-0.104
820	-0.096
820	-0.089
820	-0.082
821	-0.076
821	-0.07
822	-0.064
822	-0.06
823	-0.055
823	-0.052
823	-0.049
824	-0.045
824	-0.041
825	-0.037
825	-0.034
826	-0.031
826	-0.029
826	-0.027
827	-0.025
827	-0.023
828	-0.021
828	-0.02
829	-0.019
829	-0.018
829	-0.017
830	-0.017
830	-0.017
831	-0.016
831	-0.016
832	-0.016
832	-0.016
832	-0.016
833	-0.016
833	-0.016
834	-0.016
834	-0.016
835	-0.015
835	-0.015
835	-0.014
836	-0.013
836	-0.012
837	-0.011
837	-0.01
838	-0.009
838	-0.007
839	-0.006
839	-0.005
839	-0.004
840	-0.003
840	-0.002
841	-0.002
841	-0.002
842	-0.001
842	-0.001
842	-0
843	0
843	0.001
844	0.002
844	0.002
845	0.002
845	0.003
845	0.003
846	0.003
846	0.002
847	0.002
847	0.001
848	-0
848	-0.001
848	-0.002
849	-0.003
849	-0.004
850	-0.005
850	-0.005
851	-0.006
851	-0.006
851	-0.006
852	-0.006
852	-0.006
853	-0.006
853	-0.006
854	-0.006
854	-0.006
854	-0.005
855	-0.005
855	-0.005
856	-0.005
856	-0.005
857	-0.004
857	-0.004
857	-0.004
858	-0.003
858	-0.003
859	-0.003
859	-0.002
860	-0.002
860	-0.001
860	-0.001
861	-0
861	0
862	0
862	0
863	-0
863	-0
863	-0.001
864	-0.001
864	-0.001
865	-0.001
865	-0.001
866	-0.001
866	-0.001
866	-0
867	0
867	0.001
868	0.001
868	0.002
869	0.002
869	0.002
869	0.001
870	0.001
870	0.001
871	0.001
871	0
872	0
872	0
872	0.001
873	0.001
873	0.001
874	0.001
874	0.001
875	0.001
875	0.001
875	0.001
876	0.001
876	0
877	-0.001
877	-0.001
878	-0.002
878	-0.003
878	-0.004
879	-0.004
879	-0.005
880	-0.005
880	-0.006
881	-0.006
881	-0.006
881	-0.005
882	-0.004
882	-0.004
883	-0.002
883	-0.001
884	0
884	0.001
884	0.002
885	0.003
885	0.005
886	0.006
886	0.007
887	0.007
887	0.008
887	0.008
888	0.009
888	0.009
889	0.009
889	0.009
890	0.009
890	0.008
890	0.008
891	0.007
891	0.007
892	0.007
892	0.006
893	0.006
893	0.005
893	0.005
894	0.005
894	0.005
895	0.005
895	0.004
895	0.004
896	0.004
896	0.004
897	0.004
897	0.004
898	0.004
898	0.004
898	0.004
899	0.004
899	0.004
900	0.003
900	0.003
901	0.003
901	0.003
901	0.002
902	0.002
902	0.002
903	0.001
903	0.001
904	0.001
904	0.001
904	0.001
905	0.001
905	0.001
906	0.001
906	0.001
907	0.002
907	0.002
907	0.002
908	0.002
908	0.003
909	0.003
909	0.002
910	0.002
910	0.001
910	0.001
911	0
911	0
912	-0
912	-0
913	-0
913	-0
913	-0
914	-0
914	0
915	0.001
915	0.001
916	0.001
916	0.001
916	0.002
917	0.002
917	0.002
918	0.002
918	0.002
918	0.002
919	0.002
919	0.003
920	0.003
920	0.003
921	0.004
921	0.004
921	0.005
922	0.005
922	0.005
923	0.005
923	0.005
924	0.005
924	0.005
924	0.004
925	0.003
925	0.003
926	0.002
926	0.001
927	0
927	-0
927	-0
928	-0.001
928	-0.001
929	-0
929	-0
930	0
930	0
930	0.001
931	0.001
931	0.001
932	0.002
932	0.001
933	0.001
933	0.001
933	0.001
934	0.001
934	0.001
935	0
935	0
935	0
936	0
936	0.001
937	0.001
937	0.001
938	0.001
938	0.002
938	0.002
939	0.002
939	0.002
940	0.002
940	0.002
941	0.001
941	0.001
941	0
942	0
942	0
943	0
943	0.001
944	0.001
944	0.001
944	0.002
945	0.003
945	0.003
946	0.004
946	0.004
946	0.004
947	0.004
947	0.003
948	0.003
948	0.002
949	0.001
949	0.001
949	0
950	-0
950	-0
951	-0
951	-0.001
952	-0.001
952	-0.001
952	-0.001
953	-0.001
953	-0.001
954	-0.002
954	-0.002
955	-0.002
955	-0.003
955	-0.003
956	-0.004
956	-0.004
957	-0.004
957	-0.005
957	-0.005
958	-0.005
958	-0.006
959	-0.006
959	-0.006
960	-0.006
960	-0.006
960	-0.006
961	-0.007
961	-0.007
962	-0.006
962	-0.006
963	-0.006
963	-0.007
963	-0.007
964	-0.007
964	-0.008
965	-0.008
965	-0.008
966	-0.009
966	-0.009
966	-0.009
967	-0.009
967	-0.009
968	-0.009
968	-0.008
968	-0.008
969	-0.007
969	-0.007
970	-0.006
970	-0.006
971	-0.005
971	-0.005
971	-0.004
972	-0.003
972	-0.003
973	-0.002
973	-0.001
974	-0.001
974	0
974	0.001
975	0.002
975	0.002
976	0.003
976	0.004
976	0.004
977	0.005
977	0.005
978	0.005
978	0.005
979	0.005
979	0.005
979	0.005
980	0.004
980	0.004
981	0.003
981	0.003
982	0.002
982	0.002
982	0.001
983	0
983	-0
984	-0.001
984	-0.001
984	-0.002
985	-0.002
985	-0.003
986	-0.003
986	-0.004
987	-0.004
987	-0.004
987	-0.004
988	-0.004
988	-0.003
989	-0.003
989	-0.003
990	-0.002
990	-0.002
990	-0.002
991	-0.002
991	-0.001
992	-0.002
992	-0.002
992	-0.002
993	-0.003
993	-0.003
994	-0.004
994	-0.004
995	-0.004
995	-0.005
995	-0.005
996	-0.005
996	-0.004
997	-0.004
997	-0.003
997	-0.002
998	-0.001
998	-0.001
999	0
999	0.001
1000	0.001
1000	0.001
1000	0.001
1001	0.001
1001	0
1002	-0
1002	-0.001
1003	-0.002
1003	-0.002
1003	-0.003
1004	-0.003
1004	-0.004
1005	-0.004
1005	-0.004
1005	-0.004
1006	-0.004
1006	-0.004
1007	-0.003
1007	-0.003
1008	-0.003
1008	-0.003
1008	-0.003
1009	-0.004
1009	-0.004
1010	-0.004
1010	-0.005
1010	-0.005
1011	-0.005
1011	-0.005
1012	-0.006
1012	-0.006
1013	-0.006
1013	-0.006
1013	-0.005
1014	-0.005
1014	-0.005
1015	-0.004
1015	-0.004
1016	-0.003
1016	-0.003
1016	-0.003
1017	-0.003
1017	-0.003
1018	-0.002
1018	-0.002
1018	-0.002
1019	-0.002
1019	-0.002
1020	-0.002
1020	-0.002
1021	-0.001
1021	-0.001
1021	-0.001
1022	-0.001
1022	-0
1023	-0
1023	-0
1023	0
1024	0
1024	0
1025	0
1025	0
1026	0
1026	0
1026	0
1027	0
1027	0
1028	-0
1028	-0
1028	-0.001
1029	-0.001
1029	-0.002
1030	-0.002
1030	-0.003
1031	-0.004
1031	-0.004
1031	-0.005
1032	-0.006
1032	-0.006
1033	-0.007
1033	-0.008
1033	-0.008
1034	-0.009
1034	-0.009
1035	-0.009
1035	-0.009
1036	-0.01
1036	-0.01
1036	-0.01
1037	-0.01
1037	-0.009
1038	-0.009
1038	-0.009
1039	-0.009
1039	-0.009
1039	-0.008
1040	-0.008
1040	-0.008
1041	-0.007
1041	-0.007
1041	-0.007
1042	-0.007
1042	-0.007
1043	-0.006
1043	-0.007
1044	-0.006
1044	-0.006
1044	-0.006
1045	-0.006
1045	-0.006
1046	-0.005
1046	-0.005
1046	-0.004
1047	-0.004
1047	-0.003
1048	-0.002
1048	-0.002
1049	-0.001
1049	-0.001
1049	-0.001
1050	0
1050	0
1051	0.001
1051	0.001
1051	0.001
1052	0.001
1052	0.001
1053	0.001
1053	0.001
1053	0.001
1054	0.001
1054	0.001
1055	0.001
1055	0
1056	-0.001
1056	-0.001
1056	-0.001
1057	-0.002
1057	-0.002
1058	-0.002
1058	-0.003
1058	-0.003
1059	-0.003
1059	-0.003
1060	-0.003
1060	-0.002
1061	-0.002
1061	-0.002
1061	-0.002
1062	-0.002
1062	-0.002
1063	-0.002
1063	-0.002
1063	-0.002
1064	-0.002
1064	-0.002
1065	-0.003
1065	-0.003
1066	-0.004
1066	-0.004
1066	-0.004
1067	-0.005
1067	-0.005
1068	-0.005
1068	-0.005
1068	-0.005
1069	-0.005
1069	-0.004
1070	-0.004
1070	-0.003
1071	-0.002
1071	-0.002
1071	-0.001
1072	-0
1072	0.001
1073	0.001
1073	0.002
1073	0.003
1074	0.004
1074	0.004
1075	0.005
1075	0.006
1076	0.006
1076	0.007
1076	0.007
1077	0.008
1077	0.009
1078	0.009
1078	0.01
1078	0.011
1079	0.012
1079	0.012
1080	0.014
1080	0.014
1080	0.015
1081	0.016
1081	0.016
1082	0.017
1082	0.018
1083	0.018
1083	0.018
1083	0.019
1084	0.02
1084	0.021
1085	0.021
1085	0.023
1085	0.024
1086	0.025
1086	0.025
1087	0.026
1087	0.027
1088	0.027
1088	0.027
1088	0.028
1089	0.029
1089	0.029
1090	0.029
1090	0.03
1090	0.031
1091	0.031
1091	0.032
1092	0.033
1092	0.034
1092	0.035
1093	0.035
1093	0.037
1094	0.038
1094	0.04
1095	0.041
1095	0.043
1095	0.046
1096	0.048
1096	0.05
1097	0.053
1097	0.055
1097	0.059
1098	0.062
1098	0.065
1099	0.068
1099	0.071
1100	0.074
1100	0.078
1100	0.082
1101	0.087
1101	0.092
1102	0.097
1102	0.103
1102	0.108
1103	0.115
1103	0.122
1104	0.13
1104	0.139
1104	0.147
1105	0.159
1105	0.169
1106	0.18
1106	0.193
1107	0.207
1107	0.227
1107	0.251
1108	0.317
1108	0.41
1109	0.565
1109	0.924
1109	1.625
1110	-0
1110	-0
1111	-0
1111	-0
