Data from 15c-2a_Absorbance__1684__01684.txt Node

Date: Fri Jan 19 10:37:42 CET 2024
User: Marek
Spectrometer: MAYP115816
Trigger mode: 0
Integration Time (sec): 2.000000E-1
Scans to average: 10
Electric dark correction enabled: true
Nonlinearity correction enabled: true
Boxcar width: 5
XAxis mode: Wavelengths
Number of Pixels in Spectrum: 2068
>>>>>Begin Spectral Data<<<<<
199	-1.454
199	-1.311
200	-1.175
200	-1.063
201	-1
201	-0.952
202	-0.889
202	-0.841
203	-0.799
203	-0.764
204	-0.74
204	-0.718
205	-0.699
205	-0.689
205	-0.689
206	-0.684
206	-0.682
207	-0.678
207	-0.674
208	-0.673
208	-0.67
209	-0.668
209	-0.665
210	-0.664
210	-0.664
211	-0.662
211	-0.662
212	-0.664
212	-0.663
213	-0.664
213	-0.662
213	-0.663
214	-0.66
214	-0.659
215	-0.656
215	-0.656
216	-0.653
216	-0.653
217	-0.648
217	-0.646
218	-0.644
218	-0.641
219	-0.637
219	-0.637
220	-0.636
220	-0.638
221	-0.637
221	-0.633
221	-0.629
222	-0.627
222	-0.623
223	-0.617
223	-0.615
224	-0.609
224	-0.602
225	-0.595
225	-0.583
226	-0.573
226	-0.563
227	-0.551
227	-0.539
228	-0.525
228	-0.512
229	-0.493
229	-0.472
229	-0.448
230	-0.423
230	-0.395
231	-0.365
231	-0.332
232	-0.299
232	-0.263
233	-0.225
233	-0.186
234	-0.148
234	-0.111
235	-0.077
235	-0.043
236	-0.012
236	0.019
236	0.047
237	0.074
237	0.098
238	0.12
238	0.139
239	0.158
239	0.174
240	0.189
240	0.202
241	0.214
241	0.225
242	0.235
242	0.244
243	0.252
243	0.258
243	0.265
244	0.271
244	0.276
245	0.281
245	0.286
246	0.29
246	0.294
247	0.298
247	0.301
248	0.305
248	0.308
249	0.311
249	0.314
250	0.316
250	0.319
250	0.321
251	0.323
251	0.325
252	0.327
252	0.329
253	0.331
253	0.333
254	0.334
254	0.336
255	0.337
255	0.338
256	0.34
256	0.34
257	0.341
257	0.342
258	0.342
258	0.342
258	0.343
259	0.343
259	0.343
260	0.343
260	0.343
261	0.342
261	0.342
262	0.342
262	0.342
263	0.342
263	0.341
264	0.341
264	0.34
265	0.339
265	0.338
265	0.337
266	0.336
266	0.335
267	0.334
267	0.332
268	0.331
268	0.329
269	0.328
269	0.326
270	0.324
270	0.322
271	0.32
271	0.318
272	0.316
272	0.314
272	0.313
273	0.311
273	0.309
274	0.307
274	0.305
275	0.303
275	0.301
276	0.299
276	0.297
277	0.295
277	0.293
278	0.29
278	0.288
278	0.286
279	0.283
279	0.281
280	0.279
280	0.277
281	0.275
281	0.273
282	0.27
282	0.269
283	0.267
283	0.265
284	0.263
284	0.262
285	0.26
285	0.258
285	0.256
286	0.254
286	0.253
287	0.251
287	0.249
288	0.248
288	0.246
289	0.245
289	0.243
290	0.241
290	0.24
291	0.238
291	0.237
292	0.236
292	0.234
292	0.233
293	0.232
293	0.231
294	0.229
294	0.228
295	0.228
295	0.227
296	0.226
296	0.225
297	0.224
297	0.223
298	0.222
298	0.222
298	0.221
299	0.22
299	0.22
300	0.219
300	0.218
301	0.218
301	0.217
302	0.216
302	0.216
303	0.215
303	0.214
304	0.214
304	0.213
305	0.213
305	0.212
305	0.212
306	0.211
306	0.21
307	0.21
307	0.209
308	0.209
308	0.208
309	0.208
309	0.207
310	0.206
310	0.206
311	0.205
311	0.205
311	0.204
312	0.204
312	0.203
313	0.203
313	0.202
314	0.202
314	0.201
315	0.2
315	0.2
316	0.199
316	0.198
317	0.198
317	0.197
318	0.196
318	0.196
318	0.195
319	0.195
319	0.194
320	0.194
320	0.193
321	0.192
321	0.192
322	0.191
322	0.19
323	0.19
323	0.189
324	0.189
324	0.188
324	0.187
325	0.187
325	0.186
326	0.186
326	0.185
327	0.184
327	0.184
328	0.183
328	0.183
329	0.182
329	0.182
330	0.181
330	0.181
330	0.18
331	0.18
331	0.179
332	0.178
332	0.178
333	0.177
333	0.177
334	0.176
334	0.176
335	0.175
335	0.175
336	0.174
336	0.174
336	0.173
337	0.173
337	0.172
338	0.172
338	0.171
339	0.171
339	0.17
340	0.17
340	0.169
341	0.169
341	0.169
342	0.169
342	0.168
342	0.168
343	0.167
343	0.167
344	0.167
344	0.166
345	0.166
345	0.166
346	0.165
346	0.165
347	0.164
347	0.164
348	0.164
348	0.163
348	0.163
349	0.163
349	0.163
350	0.162
350	0.162
351	0.162
351	0.162
352	0.161
352	0.161
353	0.161
353	0.16
354	0.16
354	0.159
354	0.159
355	0.159
355	0.159
356	0.158
356	0.158
357	0.158
357	0.158
358	0.157
358	0.157
359	0.157
359	0.157
360	0.157
360	0.157
360	0.157
361	0.157
361	0.157
362	0.156
362	0.156
363	0.156
363	0.156
364	0.156
364	0.155
365	0.155
365	0.155
366	0.155
366	0.154
366	0.154
367	0.154
367	0.154
368	0.154
368	0.154
369	0.154
369	0.154
370	0.154
370	0.154
371	0.153
371	0.153
372	0.153
372	0.153
372	0.153
373	0.152
373	0.152
374	0.152
374	0.152
375	0.152
375	0.152
376	0.152
376	0.151
377	0.151
377	0.152
378	0.152
378	0.152
378	0.152
379	0.151
379	0.151
380	0.151
380	0.151
381	0.151
381	0.151
382	0.151
382	0.15
383	0.15
383	0.15
383	0.15
384	0.15
384	0.149
385	0.149
385	0.149
386	0.149
386	0.149
387	0.149
387	0.148
388	0.148
388	0.148
389	0.148
389	0.148
389	0.147
390	0.147
390	0.147
391	0.147
391	0.147
392	0.147
392	0.147
393	0.147
393	0.146
394	0.146
394	0.146
394	0.146
395	0.146
395	0.146
396	0.145
396	0.145
397	0.145
397	0.145
398	0.145
398	0.145
399	0.145
399	0.145
400	0.145
400	0.144
400	0.144
401	0.144
401	0.144
402	0.143
402	0.143
403	0.143
403	0.143
404	0.143
404	0.143
405	0.142
405	0.142
405	0.142
406	0.142
406	0.142
407	0.142
407	0.141
408	0.141
408	0.141
409	0.141
409	0.141
410	0.141
410	0.14
411	0.14
411	0.14
411	0.14
412	0.14
412	0.139
413	0.139
413	0.139
414	0.139
414	0.138
415	0.138
415	0.138
416	0.137
416	0.137
416	0.137
417	0.137
417	0.137
418	0.137
418	0.137
419	0.138
419	0.138
420	0.138
420	0.138
421	0.138
421	0.138
421	0.138
422	0.138
422	0.138
423	0.138
423	0.138
424	0.138
424	0.137
425	0.137
425	0.137
426	0.137
426	0.137
427	0.137
427	0.136
427	0.137
428	0.137
428	0.137
429	0.137
429	0.137
430	0.137
430	0.137
431	0.137
431	0.137
432	0.136
432	0.136
432	0.135
433	0.134
433	0.134
434	0.134
434	0.134
435	0.134
435	0.133
436	0.134
436	0.134
437	0.134
437	0.134
437	0.134
438	0.134
438	0.134
439	0.133
439	0.133
440	0.133
440	0.133
441	0.133
441	0.133
442	0.133
442	0.133
442	0.134
443	0.134
443	0.134
444	0.134
444	0.134
445	0.134
445	0.134
446	0.134
446	0.134
447	0.134
447	0.134
447	0.133
448	0.133
448	0.133
449	0.133
449	0.133
450	0.133
450	0.133
451	0.133
451	0.133
452	0.133
452	0.132
452	0.132
453	0.132
453	0.132
454	0.132
454	0.132
455	0.132
455	0.132
456	0.132
456	0.132
457	0.132
457	0.132
458	0.132
458	0.132
458	0.132
459	0.133
459	0.132
460	0.132
460	0.131
461	0.132
461	0.132
462	0.132
462	0.133
463	0.133
463	0.133
463	0.134
464	0.134
464	0.134
465	0.134
465	0.135
466	0.135
466	0.135
467	0.135
467	0.135
467	0.134
468	0.134
468	0.134
469	0.134
469	0.134
470	0.134
470	0.135
471	0.135
471	0.135
472	0.135
472	0.136
472	0.136
473	0.137
473	0.137
474	0.138
474	0.138
475	0.138
475	0.139
476	0.139
476	0.139
477	0.14
477	0.14
477	0.14
478	0.141
478	0.141
479	0.141
479	0.142
480	0.143
480	0.143
481	0.144
481	0.144
482	0.145
482	0.146
482	0.147
483	0.149
483	0.15
484	0.152
484	0.152
485	0.153
485	0.154
486	0.155
486	0.155
487	0.156
487	0.156
487	0.157
488	0.157
488	0.156
489	0.157
489	0.158
490	0.159
490	0.159
491	0.16
491	0.161
492	0.162
492	0.163
492	0.164
493	0.165
493	0.166
494	0.168
494	0.169
495	0.17
495	0.171
496	0.172
496	0.174
496	0.175
497	0.176
497	0.178
498	0.179
498	0.18
499	0.181
499	0.182
500	0.183
500	0.184
501	0.186
501	0.187
501	0.188
502	0.19
502	0.191
503	0.193
503	0.194
504	0.195
504	0.196
505	0.197
505	0.198
506	0.199
506	0.2
506	0.202
507	0.203
507	0.203
508	0.204
508	0.205
509	0.207
509	0.208
510	0.209
510	0.21
511	0.211
511	0.212
511	0.213
512	0.214
512	0.215
513	0.215
513	0.216
514	0.216
514	0.216
515	0.217
515	0.216
515	0.217
516	0.217
516	0.217
517	0.218
517	0.218
518	0.218
518	0.218
519	0.218
519	0.218
520	0.218
520	0.218
520	0.217
521	0.217
521	0.216
522	0.216
522	0.216
523	0.216
523	0.216
524	0.217
524	0.218
524	0.218
525	0.219
525	0.22
526	0.221
526	0.221
527	0.222
527	0.222
528	0.222
528	0.222
529	0.221
529	0.221
529	0.22
530	0.22
530	0.219
531	0.218
531	0.218
532	0.217
532	0.216
533	0.215
533	0.214
533	0.214
534	0.213
534	0.212
535	0.211
535	0.21
536	0.209
536	0.208
537	0.206
537	0.205
538	0.204
538	0.202
538	0.201
539	0.199
539	0.198
540	0.196
540	0.194
541	0.193
541	0.191
542	0.189
542	0.188
542	0.186
543	0.185
543	0.184
544	0.182
544	0.181
545	0.18
545	0.179
546	0.177
546	0.176
547	0.174
547	0.171
547	0.169
548	0.168
548	0.166
549	0.164
549	0.162
550	0.161
550	0.159
551	0.157
551	0.156
551	0.154
552	0.153
552	0.152
553	0.15
553	0.149
554	0.147
554	0.145
555	0.143
555	0.141
556	0.139
556	0.136
556	0.135
557	0.133
557	0.132
558	0.13
558	0.128
559	0.127
559	0.126
560	0.125
560	0.124
560	0.123
561	0.122
561	0.121
562	0.12
562	0.118
563	0.116
563	0.114
564	0.112
564	0.11
564	0.108
565	0.107
565	0.105
566	0.104
566	0.103
567	0.102
567	0.102
568	0.101
568	0.101
568	0.101
569	0.1
569	0.1
570	0.098
570	0.096
571	0.096
571	0.095
572	0.094
572	0.093
573	0.092
573	0.09
573	0.089
574	0.088
574	0.088
575	0.087
575	0.088
576	0.088
576	0.086
577	0.085
577	0.084
577	0.083
578	0.083
578	0.083
579	0.083
579	0.083
580	0.081
580	0.078
581	0.076
581	0.075
581	0.075
582	0.075
582	0.074
583	0.075
583	0.074
584	0.072
584	0.069
585	0.069
585	0.07
585	0.07
586	0.069
586	0.069
587	0.067
587	0.065
588	0.064
588	0.062
589	0.062
589	0.062
590	0.062
590	0.062
590	0.063
591	0.064
591	0.063
592	0.063
592	0.061
593	0.061
593	0.061
594	0.06
594	0.059
594	0.059
595	0.059
595	0.057
596	0.056
596	0.057
597	0.059
597	0.059
598	0.059
598	0.059
598	0.059
599	0.058
599	0.057
600	0.056
600	0.055
601	0.055
601	0.054
602	0.053
602	0.052
602	0.052
603	0.051
603	0.052
604	0.053
604	0.054
605	0.055
605	0.056
606	0.056
606	0.055
606	0.055
607	0.055
607	0.056
608	0.055
608	0.054
609	0.054
609	0.054
610	0.053
610	0.052
610	0.052
611	0.053
611	0.054
612	0.054
612	0.055
613	0.056
613	0.057
614	0.057
614	0.056
614	0.057
615	0.057
615	0.057
616	0.057
616	0.057
617	0.057
617	0.057
618	0.057
618	0.057
618	0.057
619	0.058
619	0.059
620	0.061
620	0.062
621	0.062
621	0.062
622	0.062
622	0.063
622	0.062
623	0.062
623	0.063
624	0.064
624	0.064
625	0.063
625	0.064
626	0.064
626	0.064
626	0.066
627	0.067
627	0.068
628	0.069
628	0.07
629	0.07
629	0.071
630	0.071
630	0.071
630	0.073
631	0.073
631	0.074
632	0.074
632	0.075
633	0.075
633	0.077
634	0.078
634	0.08
634	0.082
635	0.083
635	0.084
636	0.085
636	0.086
637	0.087
637	0.087
638	0.088
638	0.089
638	0.09
639	0.09
639	0.09
640	0.091
640	0.093
641	0.094
641	0.096
642	0.097
642	0.099
642	0.1
643	0.102
643	0.104
644	0.106
644	0.107
645	0.109
645	0.111
646	0.113
646	0.116
646	0.119
647	0.121
647	0.124
648	0.126
648	0.128
649	0.131
649	0.134
650	0.137
650	0.139
650	0.142
651	0.144
651	0.146
652	0.148
652	0.151
653	0.154
653	0.16
653	0.175
654	0.139
654	0.113
655	0.114
655	0.116
656	0.117
656	0.118
657	0.12
657	0.121
657	0.122
658	0.12
658	0.108
659	0.138
659	0.179
660	0.186
660	0.189
661	0.191
661	0.194
661	0.196
662	0.199
662	0.201
663	0.203
663	0.206
664	0.208
664	0.209
665	0.211
665	0.214
665	0.215
666	0.217
666	0.219
667	0.221
667	0.223
668	0.225
668	0.227
669	0.229
669	0.232
669	0.234
670	0.236
670	0.238
671	0.239
671	0.241
672	0.242
672	0.244
672	0.245
673	0.247
673	0.249
674	0.25
674	0.252
675	0.253
675	0.255
676	0.258
676	0.259
676	0.261
677	0.263
677	0.265
678	0.266
678	0.266
679	0.267
679	0.268
680	0.27
680	0.27
680	0.271
681	0.271
681	0.273
682	0.273
682	0.274
683	0.274
683	0.276
684	0.276
684	0.276
684	0.275
685	0.276
685	0.276
686	0.275
686	0.274
687	0.274
687	0.273
687	0.273
688	0.272
688	0.271
689	0.271
689	0.271
690	0.271
690	0.27
691	0.27
691	0.27
691	0.269
692	0.269
692	0.268
693	0.267
693	0.267
694	0.266
694	0.264
695	0.265
695	0.265
695	0.264
696	0.262
696	0.261
697	0.26
697	0.259
698	0.258
698	0.256
698	0.255
699	0.254
699	0.251
700	0.249
700	0.247
701	0.246
701	0.244
702	0.242
702	0.24
702	0.239
703	0.237
703	0.235
704	0.233
704	0.232
705	0.231
705	0.229
705	0.227
706	0.226
706	0.224
707	0.222
707	0.221
708	0.219
708	0.218
709	0.217
709	0.215
709	0.212
710	0.21
710	0.209
711	0.207
711	0.205
712	0.203
712	0.201
713	0.198
713	0.196
713	0.193
714	0.19
714	0.188
715	0.186
715	0.184
716	0.181
716	0.18
716	0.178
717	0.177
717	0.176
718	0.174
718	0.173
719	0.172
719	0.171
720	0.169
720	0.167
720	0.166
721	0.163
721	0.162
722	0.16
722	0.158
723	0.156
723	0.155
723	0.152
724	0.15
724	0.148
725	0.146
725	0.144
726	0.142
726	0.14
727	0.137
727	0.135
727	0.133
728	0.131
728	0.129
729	0.129
729	0.127
730	0.125
730	0.123
730	0.121
731	0.119
731	0.117
732	0.116
732	0.115
733	0.113
733	0.112
734	0.111
734	0.109
734	0.108
735	0.107
735	0.105
736	0.103
736	0.102
737	0.1
737	0.099
737	0.096
738	0.094
738	0.091
739	0.089
739	0.087
740	0.086
740	0.085
741	0.084
741	0.083
741	0.081
742	0.079
742	0.077
743	0.077
743	0.075
744	0.074
744	0.073
744	0.071
745	0.069
745	0.068
746	0.067
746	0.067
747	0.067
747	0.067
748	0.067
748	0.067
748	0.067
749	0.066
749	0.065
750	0.064
750	0.063
751	0.061
751	0.059
751	0.058
752	0.055
752	0.053
753	0.051
753	0.049
754	0.048
754	0.046
754	0.045
755	0.045
755	0.044
756	0.043
756	0.042
757	0.041
757	0.041
758	0.04
758	0.039
758	0.039
759	0.038
759	0.036
760	0.035
760	0.033
761	0.032
761	0.032
761	0.031
762	0.029
762	0.028
763	0.027
763	0.025
764	0.023
764	0.021
764	0.02
765	0.018
765	0.017
766	0.016
766	0.015
767	0.014
767	0.012
768	0.01
768	0.009
768	0.008
769	0.008
769	0.007
770	0.005
770	0.004
771	0.002
771	0
771	-0.002
772	-0.003
772	-0.004
773	-0.005
773	-0.006
774	-0.008
774	-0.01
775	-0.011
775	-0.013
775	-0.016
776	-0.018
776	-0.02
777	-0.021
777	-0.023
778	-0.025
778	-0.026
778	-0.028
779	-0.028
779	-0.03
780	-0.032
780	-0.034
781	-0.036
781	-0.039
781	-0.042
782	-0.046
782	-0.05
783	-0.053
783	-0.057
784	-0.062
784	-0.067
784	-0.072
785	-0.077
785	-0.083
786	-0.088
786	-0.093
787	-0.097
787	-0.102
788	-0.107
788	-0.114
788	-0.12
789	-0.128
789	-0.134
790	-0.137
790	-0.142
791	-0.147
791	-0.151
791	-0.154
792	-0.15
792	-0.142
793	-0.138
793	-0.135
794	-0.134
794	-0.136
794	-0.139
795	-0.141
795	-0.141
796	-0.141
796	-0.144
797	-0.152
797	-0.163
797	-0.169
798	-0.175
798	-0.178
799	-0.178
799	-0.178
800	-0.178
800	-0.179
801	-0.182
801	-0.182
801	-0.182
802	-0.183
802	-0.184
803	-0.184
803	-0.184
804	-0.183
804	-0.178
804	-0.172
805	-0.168
805	-0.166
806	-0.164
806	-0.162
807	-0.161
807	-0.161
807	-0.16
808	-0.16
808	-0.161
809	-0.165
809	-0.171
810	-0.175
810	-0.177
810	-0.181
811	-0.184
811	-0.185
812	-0.181
812	-0.179
813	-0.179
813	-0.18
813	-0.182
814	-0.183
814	-0.183
815	-0.179
815	-0.175
816	-0.17
816	-0.166
817	-0.164
817	-0.159
817	-0.151
818	-0.142
818	-0.13
819	-0.118
819	-0.108
820	-0.1
820	-0.093
820	-0.086
821	-0.079
821	-0.073
822	-0.068
822	-0.064
823	-0.059
823	-0.056
823	-0.053
824	-0.05
824	-0.046
825	-0.042
825	-0.038
826	-0.034
826	-0.032
826	-0.029
827	-0.026
827	-0.024
828	-0.022
828	-0.021
829	-0.019
829	-0.017
829	-0.017
830	-0.016
830	-0.016
831	-0.015
831	-0.015
832	-0.015
832	-0.015
832	-0.015
833	-0.016
833	-0.016
834	-0.017
834	-0.017
835	-0.017
835	-0.018
835	-0.018
836	-0.018
836	-0.017
837	-0.017
837	-0.017
838	-0.016
838	-0.015
839	-0.014
839	-0.013
839	-0.012
840	-0.012
840	-0.011
841	-0.01
841	-0.009
842	-0.009
842	-0.008
842	-0.007
843	-0.006
843	-0.006
844	-0.005
844	-0.004
845	-0.004
845	-0.003
845	-0.003
846	-0.003
846	-0.003
847	-0.004
847	-0.004
848	-0.005
848	-0.005
848	-0.006
849	-0.007
849	-0.007
850	-0.008
850	-0.009
851	-0.009
851	-0.01
851	-0.01
852	-0.011
852	-0.011
853	-0.012
853	-0.012
854	-0.012
854	-0.013
854	-0.013
855	-0.013
855	-0.013
856	-0.013
856	-0.013
857	-0.012
857	-0.012
857	-0.012
858	-0.011
858	-0.011
859	-0.01
859	-0.01
860	-0.009
860	-0.008
860	-0.008
861	-0.007
861	-0.006
862	-0.006
862	-0.007
863	-0.007
863	-0.007
863	-0.008
864	-0.008
864	-0.009
865	-0.009
865	-0.009
866	-0.01
866	-0.01
866	-0.01
867	-0.01
867	-0.009
868	-0.009
868	-0.009
869	-0.008
869	-0.008
869	-0.008
870	-0.009
870	-0.009
871	-0.01
871	-0.01
872	-0.011
872	-0.011
872	-0.011
873	-0.012
873	-0.012
874	-0.012
874	-0.012
875	-0.011
875	-0.011
875	-0.01
876	-0.01
876	-0.009
877	-0.009
877	-0.009
878	-0.009
878	-0.009
878	-0.01
879	-0.011
879	-0.012
880	-0.013
880	-0.013
881	-0.014
881	-0.014
881	-0.014
882	-0.014
882	-0.013
883	-0.013
883	-0.011
884	-0.01
884	-0.008
884	-0.007
885	-0.006
885	-0.004
886	-0.003
886	-0.002
887	-0.002
887	-0.002
887	-0.001
888	-0.001
888	-0.001
889	-0.001
889	-0.001
890	-0.001
890	-0.001
890	-0.001
891	-0.002
891	-0.002
892	-0.002
892	-0.003
893	-0.003
893	-0.004
893	-0.005
894	-0.005
894	-0.006
895	-0.007
895	-0.007
895	-0.008
896	-0.008
896	-0.009
897	-0.009
897	-0.009
898	-0.009
898	-0.008
898	-0.008
899	-0.008
899	-0.007
900	-0.007
900	-0.006
901	-0.006
901	-0.005
901	-0.004
902	-0.003
902	-0.003
903	-0.002
903	-0.002
904	-0.002
904	-0.002
904	-0.002
905	-0.002
905	-0.002
906	-0.002
906	-0.002
907	-0.003
907	-0.003
907	-0.004
908	-0.004
908	-0.004
909	-0.004
909	-0.005
910	-0.005
910	-0.005
910	-0.005
911	-0.006
911	-0.006
912	-0.006
912	-0.006
913	-0.007
913	-0.007
913	-0.007
914	-0.008
914	-0.009
915	-0.009
915	-0.01
916	-0.01
916	-0.011
916	-0.011
917	-0.011
917	-0.011
918	-0.011
918	-0.01
918	-0.009
919	-0.008
919	-0.007
920	-0.006
920	-0.004
921	-0.003
921	-0.002
921	-0.001
922	-0
922	0
923	0.001
923	0
924	0
924	-0.001
924	-0.002
925	-0.002
925	-0.003
926	-0.004
926	-0.005
927	-0.006
927	-0.006
927	-0.006
928	-0.007
928	-0.007
929	-0.007
929	-0.007
930	-0.007
930	-0.007
930	-0.008
931	-0.008
931	-0.009
932	-0.009
932	-0.01
933	-0.01
933	-0.011
933	-0.011
934	-0.011
934	-0.011
935	-0.012
935	-0.012
935	-0.012
936	-0.012
936	-0.012
937	-0.011
937	-0.011
938	-0.011
938	-0.011
938	-0.011
939	-0.012
939	-0.012
940	-0.012
940	-0.012
941	-0.013
941	-0.013
941	-0.014
942	-0.014
942	-0.015
943	-0.015
943	-0.015
944	-0.015
944	-0.015
944	-0.015
945	-0.015
945	-0.015
946	-0.015
946	-0.015
946	-0.015
947	-0.015
947	-0.015
948	-0.015
948	-0.015
949	-0.015
949	-0.015
949	-0.014
950	-0.014
950	-0.013
951	-0.013
951	-0.012
952	-0.011
952	-0.011
952	-0.01
953	-0.009
953	-0.009
954	-0.008
954	-0.008
955	-0.008
955	-0.007
955	-0.007
956	-0.006
956	-0.006
957	-0.006
957	-0.006
957	-0.006
958	-0.006
958	-0.006
959	-0.006
959	-0.007
960	-0.007
960	-0.008
960	-0.009
961	-0.009
961	-0.01
962	-0.011
962	-0.012
963	-0.013
963	-0.014
963	-0.015
964	-0.016
964	-0.017
965	-0.018
965	-0.019
966	-0.019
966	-0.019
966	-0.019
967	-0.018
967	-0.018
968	-0.017
968	-0.016
968	-0.015
969	-0.014
969	-0.013
970	-0.012
970	-0.012
971	-0.012
971	-0.011
971	-0.011
972	-0.011
972	-0.01
973	-0.01
973	-0.009
974	-0.009
974	-0.008
974	-0.008
975	-0.007
975	-0.006
976	-0.006
976	-0.005
976	-0.005
977	-0.005
977	-0.006
978	-0.006
978	-0.007
979	-0.008
979	-0.008
979	-0.009
980	-0.011
980	-0.012
981	-0.013
981	-0.014
982	-0.014
982	-0.015
982	-0.015
983	-0.016
983	-0.016
984	-0.016
984	-0.016
984	-0.016
985	-0.016
985	-0.017
986	-0.017
986	-0.017
987	-0.018
987	-0.018
987	-0.017
988	-0.017
988	-0.017
989	-0.017
989	-0.016
990	-0.016
990	-0.015
990	-0.014
991	-0.014
991	-0.014
992	-0.013
992	-0.014
992	-0.014
993	-0.014
993	-0.015
994	-0.016
994	-0.017
995	-0.018
995	-0.019
995	-0.02
996	-0.02
996	-0.021
997	-0.021
997	-0.021
997	-0.021
998	-0.02
998	-0.019
999	-0.018
999	-0.018
1000	-0.017
1000	-0.016
1000	-0.016
1001	-0.015
1001	-0.015
1002	-0.015
1002	-0.016
1003	-0.016
1003	-0.017
1003	-0.018
1004	-0.019
1004	-0.02
1005	-0.021
1005	-0.022
1005	-0.023
1006	-0.024
1006	-0.025
1007	-0.026
1007	-0.026
1008	-0.026
1008	-0.027
1008	-0.027
1009	-0.027
1009	-0.027
1010	-0.026
1010	-0.026
1010	-0.026
1011	-0.025
1011	-0.025
1012	-0.025
1012	-0.025
1013	-0.024
1013	-0.025
1013	-0.025
1014	-0.025
1014	-0.025
1015	-0.025
1015	-0.024
1016	-0.024
1016	-0.024
1016	-0.024
1017	-0.024
1017	-0.023
1018	-0.023
1018	-0.022
1018	-0.022
1019	-0.021
1019	-0.021
1020	-0.021
1020	-0.02
1021	-0.02
1021	-0.02
1021	-0.02
1022	-0.02
1022	-0.02
1023	-0.02
1023	-0.02
1023	-0.02
1024	-0.02
1024	-0.02
1025	-0.021
1025	-0.021
1026	-0.02
1026	-0.02
1026	-0.02
1027	-0.02
1027	-0.02
1028	-0.02
1028	-0.02
1028	-0.02
1029	-0.02
1029	-0.021
1030	-0.021
1030	-0.022
1031	-0.023
1031	-0.024
1031	-0.024
1032	-0.025
1032	-0.026
1033	-0.027
1033	-0.028
1033	-0.028
1034	-0.029
1034	-0.03
1035	-0.03
1035	-0.031
1036	-0.031
1036	-0.031
1036	-0.031
1037	-0.031
1037	-0.031
1038	-0.031
1038	-0.031
1039	-0.03
1039	-0.029
1039	-0.028
1040	-0.028
1040	-0.027
1041	-0.027
1041	-0.027
1041	-0.027
1042	-0.027
1042	-0.027
1043	-0.027
1043	-0.028
1044	-0.028
1044	-0.028
1044	-0.029
1045	-0.029
1045	-0.03
1046	-0.03
1046	-0.03
1046	-0.029
1047	-0.029
1047	-0.029
1048	-0.028
1048	-0.028
1049	-0.028
1049	-0.028
1049	-0.028
1050	-0.028
1050	-0.028
1051	-0.028
1051	-0.029
1051	-0.029
1052	-0.029
1052	-0.03
1053	-0.03
1053	-0.03
1053	-0.031
1054	-0.031
1054	-0.032
1055	-0.032
1055	-0.032
1056	-0.033
1056	-0.034
1056	-0.035
1057	-0.036
1057	-0.037
1058	-0.038
1058	-0.039
1058	-0.039
1059	-0.04
1059	-0.041
1060	-0.041
1060	-0.042
1061	-0.042
1061	-0.042
1061	-0.041
1062	-0.042
1062	-0.042
1063	-0.042
1063	-0.042
1063	-0.043
1064	-0.042
1064	-0.043
1065	-0.043
1065	-0.044
1066	-0.044
1066	-0.045
1066	-0.045
1067	-0.045
1067	-0.045
1068	-0.045
1068	-0.045
1068	-0.046
1069	-0.046
1069	-0.046
1070	-0.046
1070	-0.046
1071	-0.046
1071	-0.045
1071	-0.045
1072	-0.045
1072	-0.045
1073	-0.044
1073	-0.043
1073	-0.042
1074	-0.042
1074	-0.041
1075	-0.041
1075	-0.041
1076	-0.041
1076	-0.041
1076	-0.041
1077	-0.041
1077	-0.042
1078	-0.042
1078	-0.042
1078	-0.042
1079	-0.042
1079	-0.041
1080	-0.04
1080	-0.039
1080	-0.039
1081	-0.038
1081	-0.038
1082	-0.037
1082	-0.037
1083	-0.037
1083	-0.037
1083	-0.036
1084	-0.036
1084	-0.035
1085	-0.034
1085	-0.034
1085	-0.033
1086	-0.032
1086	-0.033
1087	-0.032
1087	-0.032
1088	-0.032
1088	-0.033
1088	-0.033
1089	-0.034
1089	-0.035
1090	-0.037
1090	-0.037
1090	-0.038
1091	-0.039
1091	-0.039
1092	-0.04
1092	-0.039
1092	-0.039
1093	-0.04
1093	-0.038
1094	-0.038
1094	-0.037
1095	-0.038
1095	-0.037
1095	-0.036
1096	-0.037
1096	-0.036
1097	-0.036
1097	-0.036
1097	-0.035
1098	-0.035
1098	-0.035
1099	-0.035
1099	-0.034
1100	-0.033
1100	-0.033
1100	-0.033
1101	-0.033
1101	-0.032
1102	-0.031
1102	-0.03
1102	-0.028
1103	-0.026
1103	-0.024
1104	-0.021
1104	-0.018
1104	-0.014
1105	-0.01
1105	-0.006
1106	-0.003
1106	0.002
1107	0.005
1107	0.012
1107	0.019
1108	0.047
1108	0.084
1109	0.133
1109	0.207
1109	0.262
1110	0.361
1110	0.582
1111	-0
1111	-0
