Data from 15c-2a_Absorbance__75__00075.txt Node

Date: Fri Jan 19 09:44:04 CET 2024
User: Marek
Spectrometer: MAYP115816
Trigger mode: 0
Integration Time (sec): 2.000000E-1
Scans to average: 10
Electric dark correction enabled: true
Nonlinearity correction enabled: true
Boxcar width: 5
XAxis mode: Wavelengths
Number of Pixels in Spectrum: 2068
>>>>>Begin Spectral Data<<<<<
199	-1.569
199	-1.414
200	-1.271
200	-1.154
201	-1.088
201	-1.037
202	-0.968
202	-0.913
203	-0.864
203	-0.822
204	-0.796
204	-0.774
205	-0.756
205	-0.746
205	-0.745
206	-0.739
206	-0.735
207	-0.729
207	-0.725
208	-0.723
208	-0.719
209	-0.719
209	-0.714
210	-0.712
210	-0.71
211	-0.708
211	-0.706
212	-0.707
212	-0.706
213	-0.705
213	-0.702
213	-0.702
214	-0.697
214	-0.696
215	-0.693
215	-0.691
216	-0.688
216	-0.688
217	-0.684
217	-0.682
218	-0.679
218	-0.676
219	-0.672
219	-0.672
220	-0.67
220	-0.67
221	-0.668
221	-0.663
221	-0.658
222	-0.655
222	-0.651
223	-0.646
223	-0.643
224	-0.636
224	-0.629
225	-0.623
225	-0.611
226	-0.602
226	-0.593
227	-0.581
227	-0.568
228	-0.554
228	-0.54
229	-0.521
229	-0.502
229	-0.479
230	-0.455
230	-0.429
231	-0.398
231	-0.366
232	-0.334
232	-0.3
233	-0.263
233	-0.225
234	-0.19
234	-0.154
235	-0.121
235	-0.088
236	-0.058
236	-0.028
236	-0.002
237	0.024
237	0.046
238	0.067
238	0.086
239	0.103
239	0.119
240	0.133
240	0.146
241	0.158
241	0.169
242	0.179
242	0.187
243	0.196
243	0.203
243	0.21
244	0.216
244	0.221
245	0.226
245	0.231
246	0.236
246	0.24
247	0.243
247	0.247
248	0.25
248	0.253
249	0.256
249	0.259
250	0.262
250	0.265
250	0.267
251	0.269
251	0.271
252	0.273
252	0.276
253	0.278
253	0.279
254	0.281
254	0.283
255	0.284
255	0.286
256	0.287
256	0.288
257	0.289
257	0.29
258	0.29
258	0.291
258	0.291
259	0.292
259	0.291
260	0.291
260	0.291
261	0.291
261	0.291
262	0.291
262	0.291
263	0.29
263	0.29
264	0.29
264	0.289
265	0.288
265	0.288
265	0.287
266	0.286
266	0.285
267	0.284
267	0.283
268	0.281
268	0.28
269	0.279
269	0.277
270	0.275
270	0.274
271	0.272
271	0.27
272	0.269
272	0.266
272	0.265
273	0.263
273	0.261
274	0.259
274	0.257
275	0.256
275	0.254
276	0.252
276	0.25
277	0.248
277	0.246
278	0.243
278	0.241
278	0.239
279	0.237
279	0.235
280	0.233
280	0.231
281	0.229
281	0.228
282	0.226
282	0.224
283	0.223
283	0.221
284	0.219
284	0.217
285	0.216
285	0.214
285	0.213
286	0.211
286	0.209
287	0.208
287	0.206
288	0.205
288	0.204
289	0.202
289	0.201
290	0.2
290	0.198
291	0.197
291	0.196
292	0.194
292	0.193
292	0.192
293	0.191
293	0.19
294	0.189
294	0.188
295	0.187
295	0.187
296	0.186
296	0.185
297	0.185
297	0.184
298	0.184
298	0.183
298	0.182
299	0.182
299	0.181
300	0.181
300	0.18
301	0.18
301	0.179
302	0.179
302	0.178
303	0.178
303	0.177
304	0.177
304	0.176
305	0.176
305	0.175
305	0.175
306	0.175
306	0.174
307	0.174
307	0.174
308	0.173
308	0.173
309	0.172
309	0.172
310	0.171
310	0.171
311	0.17
311	0.17
311	0.169
312	0.169
312	0.169
313	0.168
313	0.168
314	0.167
314	0.167
315	0.167
315	0.166
316	0.166
316	0.165
317	0.165
317	0.164
318	0.164
318	0.163
318	0.163
319	0.163
319	0.162
320	0.162
320	0.161
321	0.161
321	0.161
322	0.16
322	0.16
323	0.159
323	0.159
324	0.158
324	0.157
324	0.157
325	0.156
325	0.156
326	0.155
326	0.155
327	0.154
327	0.154
328	0.154
328	0.153
329	0.153
329	0.153
330	0.152
330	0.152
330	0.151
331	0.151
331	0.15
332	0.15
332	0.15
333	0.149
333	0.149
334	0.148
334	0.148
335	0.148
335	0.147
336	0.147
336	0.146
336	0.145
337	0.145
337	0.145
338	0.144
338	0.144
339	0.144
339	0.143
340	0.143
340	0.142
341	0.142
341	0.142
342	0.142
342	0.141
342	0.141
343	0.141
343	0.14
344	0.14
344	0.14
345	0.139
345	0.139
346	0.139
346	0.138
347	0.138
347	0.138
348	0.138
348	0.137
348	0.137
349	0.137
349	0.137
350	0.136
350	0.136
351	0.136
351	0.136
352	0.135
352	0.135
353	0.135
353	0.135
354	0.134
354	0.134
354	0.134
355	0.133
355	0.133
356	0.133
356	0.133
357	0.133
357	0.132
358	0.132
358	0.132
359	0.132
359	0.132
360	0.132
360	0.132
360	0.132
361	0.132
361	0.132
362	0.132
362	0.132
363	0.132
363	0.132
364	0.132
364	0.131
365	0.131
365	0.131
366	0.131
366	0.13
366	0.13
367	0.13
367	0.13
368	0.13
368	0.129
369	0.129
369	0.129
370	0.129
370	0.129
371	0.129
371	0.128
372	0.128
372	0.128
372	0.128
373	0.127
373	0.127
374	0.127
374	0.127
375	0.127
375	0.127
376	0.127
376	0.127
377	0.127
377	0.127
378	0.127
378	0.127
378	0.127
379	0.127
379	0.127
380	0.127
380	0.127
381	0.126
381	0.126
382	0.126
382	0.126
383	0.126
383	0.126
383	0.125
384	0.125
384	0.125
385	0.125
385	0.124
386	0.124
386	0.124
387	0.124
387	0.124
388	0.124
388	0.124
389	0.123
389	0.123
389	0.123
390	0.123
390	0.123
391	0.123
391	0.123
392	0.123
392	0.122
393	0.122
393	0.122
394	0.122
394	0.122
394	0.122
395	0.122
395	0.122
396	0.121
396	0.121
397	0.121
397	0.121
398	0.121
398	0.121
399	0.121
399	0.12
400	0.12
400	0.12
400	0.12
401	0.12
401	0.12
402	0.119
402	0.119
403	0.119
403	0.119
404	0.119
404	0.119
405	0.118
405	0.118
405	0.118
406	0.118
406	0.117
407	0.117
407	0.117
408	0.116
408	0.116
409	0.116
409	0.115
410	0.115
410	0.115
411	0.115
411	0.115
411	0.115
412	0.115
412	0.115
413	0.115
413	0.115
414	0.115
414	0.115
415	0.115
415	0.115
416	0.115
416	0.115
416	0.114
417	0.114
417	0.114
418	0.114
418	0.114
419	0.114
419	0.114
420	0.114
420	0.114
421	0.114
421	0.114
421	0.114
422	0.114
422	0.114
423	0.114
423	0.114
424	0.114
424	0.113
425	0.113
425	0.113
426	0.113
426	0.112
427	0.112
427	0.112
427	0.112
428	0.113
428	0.113
429	0.113
429	0.113
430	0.113
430	0.113
431	0.113
431	0.112
432	0.112
432	0.112
432	0.112
433	0.111
433	0.111
434	0.11
434	0.11
435	0.11
435	0.11
436	0.11
436	0.11
437	0.11
437	0.11
437	0.11
438	0.11
438	0.11
439	0.11
439	0.109
440	0.109
440	0.109
441	0.109
441	0.109
442	0.109
442	0.109
442	0.11
443	0.11
443	0.11
444	0.11
444	0.11
445	0.11
445	0.11
446	0.109
446	0.109
447	0.109
447	0.109
447	0.109
448	0.109
448	0.109
449	0.109
449	0.109
450	0.109
450	0.109
451	0.109
451	0.109
452	0.109
452	0.108
452	0.108
453	0.108
453	0.108
454	0.107
454	0.107
455	0.107
455	0.107
456	0.107
456	0.107
457	0.107
457	0.107
458	0.106
458	0.106
458	0.106
459	0.106
459	0.106
460	0.106
460	0.106
461	0.106
461	0.106
462	0.106
462	0.106
463	0.107
463	0.107
463	0.107
464	0.108
464	0.108
465	0.108
465	0.108
466	0.108
466	0.108
467	0.108
467	0.108
467	0.108
468	0.107
468	0.107
469	0.107
469	0.106
470	0.106
470	0.106
471	0.106
471	0.107
472	0.107
472	0.107
472	0.107
473	0.108
473	0.108
474	0.109
474	0.109
475	0.11
475	0.11
476	0.11
476	0.111
477	0.111
477	0.111
477	0.111
478	0.111
478	0.111
479	0.112
479	0.112
480	0.112
480	0.112
481	0.113
481	0.113
482	0.114
482	0.114
482	0.115
483	0.116
483	0.117
484	0.118
484	0.119
485	0.12
485	0.121
486	0.122
486	0.122
487	0.123
487	0.123
487	0.123
488	0.124
488	0.124
489	0.124
489	0.125
490	0.125
490	0.125
491	0.125
491	0.126
492	0.126
492	0.127
492	0.127
493	0.128
493	0.128
494	0.129
494	0.131
495	0.132
495	0.133
496	0.134
496	0.135
496	0.136
497	0.138
497	0.139
498	0.14
498	0.141
499	0.142
499	0.142
500	0.143
500	0.144
501	0.145
501	0.146
501	0.147
502	0.148
502	0.149
503	0.15
503	0.152
504	0.152
504	0.153
505	0.154
505	0.155
506	0.156
506	0.157
506	0.157
507	0.158
507	0.158
508	0.159
508	0.16
509	0.16
509	0.161
510	0.162
510	0.163
511	0.164
511	0.164
511	0.165
512	0.165
512	0.166
513	0.166
513	0.166
514	0.167
514	0.167
515	0.168
515	0.168
515	0.168
516	0.168
516	0.168
517	0.168
517	0.169
518	0.169
518	0.17
519	0.17
519	0.17
520	0.17
520	0.169
520	0.169
521	0.169
521	0.168
522	0.167
522	0.167
523	0.166
523	0.165
524	0.164
524	0.164
524	0.164
525	0.165
525	0.165
526	0.166
526	0.167
527	0.168
527	0.169
528	0.169
528	0.17
529	0.171
529	0.171
529	0.171
530	0.171
530	0.171
531	0.171
531	0.17
532	0.17
532	0.17
533	0.17
533	0.169
533	0.168
534	0.168
534	0.167
535	0.166
535	0.166
536	0.165
536	0.164
537	0.163
537	0.162
538	0.161
538	0.16
538	0.16
539	0.159
539	0.158
540	0.157
540	0.156
541	0.155
541	0.154
542	0.153
542	0.151
542	0.15
543	0.149
543	0.148
544	0.146
544	0.145
545	0.144
545	0.143
546	0.142
546	0.141
547	0.141
547	0.14
547	0.138
548	0.137
548	0.136
549	0.135
549	0.133
550	0.132
550	0.131
551	0.13
551	0.129
551	0.128
552	0.127
552	0.126
553	0.126
553	0.125
554	0.125
554	0.123
555	0.122
555	0.121
556	0.119
556	0.118
556	0.116
557	0.115
557	0.113
558	0.112
558	0.11
559	0.109
559	0.108
560	0.107
560	0.107
560	0.106
561	0.105
561	0.104
562	0.104
562	0.103
563	0.102
563	0.101
564	0.099
564	0.098
564	0.097
565	0.096
565	0.095
566	0.094
566	0.093
567	0.093
567	0.092
568	0.092
568	0.092
568	0.092
569	0.092
569	0.092
570	0.091
570	0.091
571	0.091
571	0.091
572	0.09
572	0.09
573	0.089
573	0.088
573	0.088
574	0.088
574	0.087
575	0.087
575	0.086
576	0.086
576	0.086
577	0.085
577	0.085
577	0.085
578	0.084
578	0.084
579	0.083
579	0.083
580	0.083
580	0.082
581	0.081
581	0.08
581	0.079
582	0.079
582	0.079
583	0.079
583	0.078
584	0.078
584	0.076
585	0.075
585	0.074
585	0.074
586	0.073
586	0.073
587	0.072
587	0.071
588	0.07
588	0.068
589	0.067
589	0.067
590	0.066
590	0.066
590	0.066
591	0.066
591	0.066
592	0.066
592	0.065
593	0.065
593	0.065
594	0.065
594	0.064
594	0.064
595	0.063
595	0.063
596	0.062
596	0.062
597	0.062
597	0.063
598	0.063
598	0.063
598	0.064
599	0.063
599	0.063
600	0.063
600	0.062
601	0.062
601	0.062
602	0.062
602	0.061
602	0.061
603	0.061
603	0.061
604	0.061
604	0.061
605	0.062
605	0.063
606	0.063
606	0.063
606	0.062
607	0.062
607	0.062
608	0.061
608	0.061
609	0.06
609	0.06
610	0.059
610	0.058
610	0.058
611	0.057
611	0.057
612	0.057
612	0.057
613	0.058
613	0.059
614	0.059
614	0.059
614	0.06
615	0.06
615	0.061
616	0.061
616	0.062
617	0.062
617	0.062
618	0.062
618	0.062
618	0.062
619	0.062
619	0.063
620	0.063
620	0.063
621	0.063
621	0.064
622	0.064
622	0.064
622	0.064
623	0.064
623	0.064
624	0.064
624	0.064
625	0.064
625	0.064
626	0.064
626	0.065
626	0.065
627	0.066
627	0.067
628	0.068
628	0.069
629	0.07
629	0.07
630	0.071
630	0.072
630	0.072
631	0.073
631	0.073
632	0.073
632	0.073
633	0.074
633	0.074
634	0.075
634	0.076
634	0.077
635	0.078
635	0.079
636	0.08
636	0.08
637	0.081
637	0.082
638	0.082
638	0.083
638	0.084
639	0.084
639	0.085
640	0.086
640	0.087
641	0.089
641	0.09
642	0.092
642	0.094
642	0.095
643	0.097
643	0.098
644	0.1
644	0.102
645	0.103
645	0.105
646	0.106
646	0.108
646	0.11
647	0.113
647	0.115
648	0.117
648	0.119
649	0.122
649	0.124
650	0.126
650	0.128
650	0.13
651	0.132
651	0.134
652	0.136
652	0.138
653	0.14
653	0.144
653	0.146
654	0.117
654	0.095
655	0.099
655	0.101
656	0.102
656	0.104
657	0.105
657	0.106
657	0.107
658	0.107
658	0.103
659	0.13
659	0.168
660	0.169
660	0.171
661	0.173
661	0.174
661	0.176
662	0.179
662	0.181
663	0.183
663	0.185
664	0.187
664	0.189
665	0.192
665	0.194
665	0.196
666	0.197
666	0.199
667	0.201
667	0.203
668	0.204
668	0.206
669	0.207
669	0.209
669	0.21
670	0.212
670	0.213
671	0.214
671	0.215
672	0.216
672	0.217
672	0.218
673	0.219
673	0.22
674	0.221
674	0.223
675	0.224
675	0.225
676	0.227
676	0.228
676	0.23
677	0.231
677	0.233
678	0.234
678	0.236
679	0.237
679	0.238
680	0.239
680	0.24
680	0.241
681	0.242
681	0.243
682	0.243
682	0.244
683	0.245
683	0.246
684	0.247
684	0.248
684	0.248
685	0.248
685	0.249
686	0.249
686	0.249
687	0.249
687	0.249
687	0.248
688	0.248
688	0.247
689	0.246
689	0.246
690	0.245
690	0.245
691	0.245
691	0.244
691	0.244
692	0.244
692	0.244
693	0.243
693	0.243
694	0.243
694	0.242
695	0.241
695	0.24
695	0.239
696	0.238
696	0.237
697	0.236
697	0.234
698	0.232
698	0.231
698	0.23
699	0.229
699	0.227
700	0.226
700	0.224
701	0.223
701	0.221
702	0.22
702	0.219
702	0.217
703	0.216
703	0.215
704	0.214
704	0.213
705	0.213
705	0.212
705	0.211
706	0.211
706	0.21
707	0.209
707	0.208
708	0.207
708	0.206
709	0.205
709	0.203
709	0.201
710	0.198
710	0.196
711	0.194
711	0.191
712	0.189
712	0.187
713	0.185
713	0.182
713	0.18
714	0.178
714	0.177
715	0.175
715	0.174
716	0.172
716	0.17
716	0.168
717	0.167
717	0.165
718	0.164
718	0.162
719	0.16
719	0.159
720	0.157
720	0.155
720	0.154
721	0.152
721	0.151
722	0.149
722	0.148
723	0.146
723	0.144
723	0.142
724	0.14
724	0.138
725	0.136
725	0.134
726	0.132
726	0.13
727	0.128
727	0.127
727	0.126
728	0.124
728	0.123
729	0.123
729	0.123
730	0.122
730	0.121
730	0.12
731	0.12
731	0.119
732	0.119
732	0.118
733	0.117
733	0.116
734	0.115
734	0.113
734	0.112
735	0.111
735	0.109
736	0.107
736	0.105
737	0.104
737	0.102
737	0.1
738	0.098
738	0.096
739	0.094
739	0.093
740	0.092
740	0.09
741	0.089
741	0.088
741	0.086
742	0.084
742	0.082
743	0.081
743	0.08
744	0.078
744	0.077
744	0.075
745	0.074
745	0.073
746	0.072
746	0.071
747	0.071
747	0.071
748	0.07
748	0.07
748	0.069
749	0.068
749	0.067
750	0.066
750	0.065
751	0.064
751	0.062
751	0.061
752	0.059
752	0.058
753	0.057
753	0.055
754	0.054
754	0.053
754	0.053
755	0.052
755	0.052
756	0.052
756	0.051
757	0.051
757	0.051
758	0.05
758	0.049
758	0.049
759	0.048
759	0.047
760	0.046
760	0.044
761	0.043
761	0.042
761	0.04
762	0.039
762	0.038
763	0.037
763	0.035
764	0.034
764	0.032
764	0.03
765	0.028
765	0.026
766	0.024
766	0.022
767	0.02
767	0.018
768	0.015
768	0.013
768	0.011
769	0.009
769	0.008
770	0.007
770	0.006
771	0.004
771	0.003
771	0.001
772	0
772	-0.001
773	-0.002
773	-0.003
774	-0.005
774	-0.007
775	-0.009
775	-0.01
775	-0.013
776	-0.015
776	-0.018
777	-0.02
777	-0.023
778	-0.026
778	-0.029
778	-0.033
779	-0.035
779	-0.038
780	-0.041
780	-0.045
781	-0.049
781	-0.053
781	-0.059
782	-0.064
782	-0.069
783	-0.075
783	-0.08
784	-0.086
784	-0.093
784	-0.099
785	-0.106
785	-0.113
786	-0.12
786	-0.124
787	-0.126
787	-0.129
788	-0.134
788	-0.14
788	-0.146
789	-0.151
789	-0.154
790	-0.154
790	-0.155
791	-0.157
791	-0.159
791	-0.161
792	-0.156
792	-0.146
793	-0.14
793	-0.135
794	-0.133
794	-0.135
794	-0.139
795	-0.141
795	-0.14
796	-0.141
796	-0.143
797	-0.152
797	-0.162
797	-0.169
798	-0.174
798	-0.177
799	-0.178
799	-0.177
800	-0.177
800	-0.178
801	-0.181
801	-0.182
801	-0.182
802	-0.182
802	-0.183
803	-0.184
803	-0.184
804	-0.183
804	-0.178
804	-0.171
805	-0.167
805	-0.165
806	-0.163
806	-0.162
807	-0.161
807	-0.16
807	-0.16
808	-0.159
808	-0.16
809	-0.165
809	-0.17
810	-0.174
810	-0.177
810	-0.18
811	-0.183
811	-0.184
812	-0.181
812	-0.178
813	-0.178
813	-0.18
813	-0.181
814	-0.182
814	-0.183
815	-0.181
815	-0.177
816	-0.172
816	-0.169
817	-0.167
817	-0.163
817	-0.155
818	-0.146
818	-0.134
819	-0.123
819	-0.112
820	-0.102
820	-0.094
820	-0.086
821	-0.079
821	-0.073
822	-0.067
822	-0.062
823	-0.057
823	-0.053
823	-0.049
824	-0.045
824	-0.04
825	-0.035
825	-0.031
826	-0.027
826	-0.024
826	-0.021
827	-0.018
827	-0.015
828	-0.013
828	-0.011
829	-0.009
829	-0.008
829	-0.007
830	-0.006
830	-0.005
831	-0.005
831	-0.004
832	-0.004
832	-0.004
832	-0.004
833	-0.004
833	-0.004
834	-0.004
834	-0.005
835	-0.005
835	-0.004
835	-0.004
836	-0.004
836	-0.003
837	-0.002
837	-0.002
838	-0.001
838	0
839	0.001
839	0.003
839	0.004
840	0.005
840	0.006
841	0.006
841	0.007
842	0.007
842	0.008
842	0.009
843	0.01
843	0.01
844	0.011
844	0.011
845	0.011
845	0.011
845	0.011
846	0.011
846	0.01
847	0.009
847	0.009
848	0.007
848	0.006
848	0.005
849	0.004
849	0.003
850	0.003
850	0.002
851	0.001
851	0.001
851	0.001
852	0.002
852	0.002
853	0.003
853	0.003
854	0.004
854	0.004
854	0.005
855	0.005
855	0.006
856	0.006
856	0.006
857	0.007
857	0.007
857	0.007
858	0.007
858	0.008
859	0.008
859	0.009
860	0.009
860	0.009
860	0.01
861	0.011
861	0.011
862	0.011
862	0.011
863	0.011
863	0.01
863	0.01
864	0.01
864	0.01
865	0.009
865	0.009
866	0.009
866	0.009
866	0.009
867	0.009
867	0.009
868	0.01
868	0.01
869	0.01
869	0.01
869	0.01
870	0.011
870	0.011
871	0.011
871	0.011
872	0.011
872	0.011
872	0.011
873	0.012
873	0.012
874	0.012
874	0.012
875	0.012
875	0.012
875	0.011
876	0.011
876	0.01
877	0.01
877	0.009
878	0.008
878	0.007
878	0.006
879	0.006
879	0.005
880	0.005
880	0.004
881	0.004
881	0.004
881	0.005
882	0.005
882	0.006
883	0.008
883	0.009
884	0.01
884	0.011
884	0.012
885	0.013
885	0.014
886	0.015
886	0.016
887	0.016
887	0.016
887	0.016
888	0.016
888	0.016
889	0.016
889	0.016
890	0.015
890	0.015
890	0.015
891	0.015
891	0.015
892	0.015
892	0.015
893	0.015
893	0.015
893	0.015
894	0.015
894	0.015
895	0.015
895	0.015
895	0.015
896	0.015
896	0.015
897	0.015
897	0.015
898	0.015
898	0.015
898	0.015
899	0.014
899	0.014
900	0.014
900	0.013
901	0.013
901	0.013
901	0.012
902	0.011
902	0.011
903	0.01
903	0.01
904	0.009
904	0.009
904	0.008
905	0.008
905	0.008
906	0.008
906	0.008
907	0.009
907	0.009
907	0.009
908	0.01
908	0.01
909	0.01
909	0.011
910	0.01
910	0.01
910	0.01
911	0.01
911	0.01
912	0.01
912	0.01
913	0.01
913	0.01
913	0.01
914	0.011
914	0.011
915	0.012
915	0.012
916	0.012
916	0.013
916	0.013
917	0.013
917	0.013
918	0.013
918	0.014
918	0.014
919	0.014
919	0.014
920	0.014
920	0.014
921	0.014
921	0.014
921	0.014
922	0.014
922	0.014
923	0.014
923	0.013
924	0.013
924	0.012
924	0.012
925	0.011
925	0.01
926	0.009
926	0.008
927	0.007
927	0.007
927	0.006
928	0.006
928	0.006
929	0.006
929	0.006
930	0.006
930	0.007
930	0.007
931	0.007
931	0.008
932	0.008
932	0.008
933	0.008
933	0.007
933	0.007
934	0.007
934	0.006
935	0.006
935	0.005
935	0.005
936	0.005
936	0.005
937	0.005
937	0.005
938	0.006
938	0.006
938	0.007
939	0.007
939	0.008
940	0.008
940	0.008
941	0.008
941	0.008
941	0.008
942	0.008
942	0.008
943	0.008
943	0.009
944	0.009
944	0.009
944	0.01
945	0.01
945	0.011
946	0.011
946	0.011
946	0.012
947	0.011
947	0.011
948	0.011
948	0.01
949	0.009
949	0.009
949	0.008
950	0.008
950	0.008
951	0.007
951	0.007
952	0.007
952	0.006
952	0.006
953	0.006
953	0.006
954	0.005
954	0.005
955	0.004
955	0.004
955	0.003
956	0.003
956	0.003
957	0.002
957	0.002
957	0.001
958	0.001
958	0.001
959	0.001
959	0.001
960	0.001
960	0.001
960	0.001
961	0.001
961	0.001
962	0.001
962	0.001
963	0.001
963	0.001
963	0.001
964	0.001
964	0
965	0.001
965	0.001
966	0.001
966	0.001
966	0.001
967	0.001
967	0.001
968	0.001
968	0.001
968	0.001
969	0.001
969	0.001
970	0.001
970	0.001
971	0.001
971	0.001
971	0.001
972	0.002
972	0.002
973	0.003
973	0.003
974	0.004
974	0.005
974	0.006
975	0.007
975	0.008
976	0.009
976	0.01
976	0.01
977	0.011
977	0.012
978	0.012
978	0.012
979	0.012
979	0.012
979	0.012
980	0.012
980	0.012
981	0.012
981	0.012
982	0.012
982	0.012
982	0.012
983	0.012
983	0.012
984	0.012
984	0.011
984	0.011
985	0.01
985	0.01
986	0.009
986	0.009
987	0.008
987	0.008
987	0.008
988	0.008
988	0.009
989	0.009
989	0.009
990	0.01
990	0.01
990	0.011
991	0.011
991	0.011
992	0.011
992	0.011
992	0.01
993	0.01
993	0.009
994	0.009
994	0.008
995	0.007
995	0.007
995	0.006
996	0.006
996	0.006
997	0.007
997	0.007
997	0.008
998	0.009
998	0.009
999	0.01
999	0.011
1000	0.011
1000	0.012
1000	0.012
1001	0.012
1001	0.012
1002	0.011
1002	0.01
1003	0.01
1003	0.009
1003	0.008
1004	0.008
1004	0.007
1005	0.007
1005	0.007
1005	0.007
1006	0.007
1006	0.007
1007	0.007
1007	0.007
1008	0.007
1008	0.007
1008	0.007
1009	0.007
1009	0.006
1010	0.006
1010	0.005
1010	0.004
1011	0.004
1011	0.003
1012	0.003
1012	0.002
1013	0.002
1013	0.002
1013	0.002
1014	0.002
1014	0.003
1015	0.003
1015	0.004
1016	0.004
1016	0.005
1016	0.005
1017	0.005
1017	0.005
1018	0.005
1018	0.005
1018	0.005
1019	0.005
1019	0.005
1020	0.005
1020	0.005
1021	0.004
1021	0.004
1021	0.005
1022	0.005
1022	0.005
1023	0.005
1023	0.005
1023	0.005
1024	0.005
1024	0.005
1025	0.005
1025	0.005
1026	0.005
1026	0.005
1026	0.005
1027	0.005
1027	0.005
1028	0.005
1028	0.005
1028	0.004
1029	0.004
1029	0.003
1030	0.002
1030	0.002
1031	0.001
1031	0
1031	-0.001
1032	-0.001
1032	-0.002
1033	-0.003
1033	-0.003
1033	-0.003
1034	-0.004
1034	-0.004
1035	-0.004
1035	-0.004
1036	-0.004
1036	-0.004
1036	-0.004
1037	-0.004
1037	-0.003
1038	-0.003
1038	-0.003
1039	-0.002
1039	-0.001
1039	-0.001
1040	-0.001
1040	-0
1041	0
1041	0
1041	0.001
1042	0.001
1042	0.001
1043	0.001
1043	0.001
1044	0.001
1044	0.001
1044	0.001
1045	0.002
1045	0.002
1046	0.003
1046	0.003
1046	0.004
1047	0.005
1047	0.005
1048	0.007
1048	0.007
1049	0.008
1049	0.009
1049	0.009
1050	0.01
1050	0.01
1051	0.011
1051	0.011
1051	0.012
1052	0.012
1052	0.013
1053	0.013
1053	0.013
1053	0.014
1054	0.014
1054	0.014
1055	0.014
1055	0.014
1056	0.014
1056	0.014
1056	0.014
1057	0.013
1057	0.013
1058	0.013
1058	0.012
1058	0.013
1059	0.013
1059	0.013
1060	0.012
1060	0.012
1061	0.012
1061	0.012
1061	0.012
1062	0.012
1062	0.012
1063	0.012
1063	0.011
1063	0.011
1064	0.011
1064	0.01
1065	0.01
1065	0.01
1066	0.009
1066	0.009
1066	0.009
1067	0.009
1067	0.009
1068	0.008
1068	0.008
1068	0.008
1069	0.009
1069	0.009
1070	0.01
1070	0.01
1071	0.011
1071	0.012
1071	0.013
1072	0.014
1072	0.015
1073	0.016
1073	0.017
1073	0.018
1074	0.019
1074	0.02
1075	0.02
1075	0.021
1076	0.022
1076	0.022
1076	0.023
1077	0.024
1077	0.024
1078	0.025
1078	0.025
1078	0.026
1079	0.027
1079	0.027
1080	0.028
1080	0.029
1080	0.029
1081	0.029
1081	0.03
1082	0.031
1082	0.032
1083	0.032
1083	0.033
1083	0.033
1084	0.034
1084	0.035
1085	0.036
1085	0.037
1085	0.039
1086	0.04
1086	0.04
1087	0.041
1087	0.042
1088	0.043
1088	0.045
1088	0.046
1089	0.047
1089	0.048
1090	0.049
1090	0.051
1090	0.053
1091	0.054
1091	0.056
1092	0.057
1092	0.059
1092	0.06
1093	0.061
1093	0.063
1094	0.066
1094	0.068
1095	0.069
1095	0.072
1095	0.075
1096	0.078
1096	0.08
1097	0.084
1097	0.088
1097	0.091
1098	0.096
1098	0.099
1099	0.103
1099	0.107
1100	0.112
1100	0.116
1100	0.122
1101	0.129
1101	0.136
1102	0.143
1102	0.152
1102	0.16
1103	0.171
1103	0.182
1104	0.193
1104	0.206
1104	0.219
1105	0.233
1105	0.247
1106	0.264
1106	0.283
1107	0.305
1107	0.334
1107	0.37
1108	0.473
1108	0.645
1109	1.052
1109	-0
1109	-0
1110	-0
1110	-0
1111	-0
1111	-0
