Data from 17C_3.4A_35min_2sec_int_Absorbance__100__04185.txt Node

Date: Mon Jun 19 19:45:22 CEST 2023
User: Marek
Spectrometer: MAYP115816
Trigger mode: 0
Integration Time (sec): 2.500000E-1
Scans to average: 10
Electric dark correction enabled: true
Nonlinearity correction enabled: true
Boxcar width: 5
XAxis mode: Wavelengths
Number of Pixels in Spectrum: 2068
>>>>>Begin Spectral Data<<<<<
199	-0.754
199	-0.768
200	-0.665
200	-0.614
201	-0.579
201	-0.562
202	-0.544
202	-0.527
203	-0.519
203	-0.514
204	-0.502
204	-0.487
205	-0.463
205	-0.458
205	-0.457
206	-0.457
206	-0.461
207	-0.453
207	-0.455
208	-0.458
208	-0.456
209	-0.449
209	-0.45
210	-0.453
210	-0.459
211	-0.461
211	-0.464
212	-0.466
212	-0.475
213	-0.476
213	-0.477
213	-0.483
214	-0.482
214	-0.482
215	-0.482
215	-0.487
216	-0.488
216	-0.495
217	-0.493
217	-0.497
218	-0.497
218	-0.499
219	-0.501
219	-0.512
220	-0.517
220	-0.528
221	-0.527
221	-0.531
221	-0.525
222	-0.519
222	-0.519
223	-0.523
223	-0.524
224	-0.528
224	-0.529
225	-0.523
225	-0.515
226	-0.52
226	-0.52
227	-0.526
227	-0.536
228	-0.537
228	-0.539
229	-0.54
229	-0.533
229	-0.526
230	-0.53
230	-0.535
231	-0.53
231	-0.522
232	-0.515
232	-0.514
233	-0.507
233	-0.504
234	-0.502
234	-0.498
235	-0.502
235	-0.508
236	-0.505
236	-0.508
236	-0.514
237	-0.521
237	-0.52
238	-0.53
238	-0.531
239	-0.532
239	-0.543
240	-0.543
240	-0.54
241	-0.545
241	-0.543
242	-0.547
242	-0.544
243	-0.54
243	-0.54
243	-0.548
244	-0.547
244	-0.544
245	-0.558
245	-0.559
246	-0.564
246	-0.571
247	-0.574
247	-0.577
248	-0.584
248	-0.582
249	-0.584
249	-0.593
250	-0.592
250	-0.587
250	-0.586
251	-0.583
251	-0.581
252	-0.583
252	-0.573
253	-0.577
253	-0.587
254	-0.586
254	-0.584
255	-0.592
255	-0.585
256	-0.582
256	-0.593
257	-0.591
257	-0.588
258	-0.606
258	-0.604
258	-0.6
259	-0.598
259	-0.606
260	-0.605
260	-0.612
261	-0.625
261	-0.617
262	-0.613
262	-0.614
263	-0.602
263	-0.595
264	-0.596
264	-0.603
265	-0.598
265	-0.606
265	-0.607
266	-0.603
266	-0.6
267	-0.614
267	-0.623
268	-0.637
268	-0.649
269	-0.646
269	-0.64
270	-0.644
270	-0.648
271	-0.649
271	-0.653
272	-0.657
272	-0.652
272	-0.645
273	-0.644
273	-0.65
274	-0.656
274	-0.661
275	-0.663
275	-0.658
276	-0.664
276	-0.657
277	-0.661
277	-0.678
278	-0.688
278	-0.683
278	-0.678
279	-0.68
279	-0.689
280	-0.686
280	-0.685
281	-0.678
281	-0.687
282	-0.679
282	-0.679
283	-0.668
283	-0.67
284	-0.665
284	-0.654
285	-0.65
285	-0.647
285	-0.644
286	-0.653
286	-0.645
287	-0.643
287	-0.626
288	-0.619
288	-0.626
289	-0.638
289	-0.647
290	-0.638
290	-0.638
291	-0.636
291	-0.627
292	-0.63
292	-0.636
292	-0.643
293	-0.647
293	-0.638
294	-0.627
294	-0.618
295	-0.614
295	-0.611
296	-0.608
296	-0.608
297	-0.602
297	-0.586
298	-0.579
298	-0.587
298	-0.574
299	-0.567
299	-0.569
300	-0.562
300	-0.557
301	-0.553
301	-0.551
302	-0.559
302	-0.567
303	-0.555
303	-0.541
304	-0.544
304	-0.542
305	-0.543
305	-0.542
305	-0.537
306	-0.519
306	-0.512
307	-0.498
307	-0.499
308	-0.512
308	-0.51
309	-0.512
309	-0.503
310	-0.492
310	-0.491
311	-0.484
311	-0.493
311	-0.489
312	-0.484
312	-0.482
313	-0.468
313	-0.472
314	-0.468
314	-0.469
315	-0.469
315	-0.467
316	-0.464
316	-0.458
317	-0.45
317	-0.446
318	-0.435
318	-0.432
318	-0.425
319	-0.415
319	-0.411
320	-0.405
320	-0.406
321	-0.409
321	-0.406
322	-0.401
322	-0.395
323	-0.393
323	-0.387
324	-0.378
324	-0.369
324	-0.359
325	-0.348
325	-0.331
326	-0.316
326	-0.295
327	-0.279
327	-0.257
328	-0.23
328	-0.207
329	-0.181
329	-0.153
330	-0.122
330	-0.084
330	-0.052
331	-0.019
331	0.013
332	0.045
332	0.073
333	0.1
333	0.13
334	0.155
334	0.177
335	0.2
335	0.219
336	0.238
336	0.256
336	0.269
337	0.285
337	0.297
338	0.31
338	0.318
339	0.329
339	0.338
340	0.344
340	0.35
341	0.356
341	0.36
342	0.366
342	0.37
342	0.375
343	0.378
343	0.382
344	0.384
344	0.386
345	0.388
345	0.389
346	0.391
346	0.392
347	0.393
347	0.394
348	0.394
348	0.395
348	0.395
349	0.395
349	0.396
350	0.396
350	0.396
351	0.396
351	0.397
352	0.396
352	0.396
353	0.397
353	0.397
354	0.396
354	0.396
354	0.396
355	0.396
355	0.396
356	0.396
356	0.396
357	0.394
357	0.394
358	0.393
358	0.393
359	0.393
359	0.393
360	0.392
360	0.392
360	0.392
361	0.392
361	0.391
362	0.392
362	0.391
363	0.391
363	0.391
364	0.391
364	0.39
365	0.39
365	0.389
366	0.389
366	0.389
366	0.389
367	0.388
367	0.388
368	0.387
368	0.387
369	0.387
369	0.387
370	0.386
370	0.386
371	0.385
371	0.385
372	0.384
372	0.384
372	0.384
373	0.384
373	0.383
374	0.383
374	0.382
375	0.382
375	0.381
376	0.381
376	0.38
377	0.38
377	0.38
378	0.379
378	0.379
378	0.378
379	0.378
379	0.377
380	0.377
380	0.376
381	0.376
381	0.375
382	0.375
382	0.374
383	0.373
383	0.373
383	0.372
384	0.372
384	0.371
385	0.371
385	0.371
386	0.371
386	0.37
387	0.37
387	0.37
388	0.369
388	0.369
389	0.369
389	0.368
389	0.368
390	0.368
390	0.367
391	0.367
391	0.366
392	0.366
392	0.365
393	0.365
393	0.364
394	0.364
394	0.363
394	0.363
395	0.362
395	0.361
396	0.361
396	0.361
397	0.36
397	0.36
398	0.359
398	0.359
399	0.359
399	0.358
400	0.358
400	0.358
400	0.357
401	0.357
401	0.356
402	0.356
402	0.356
403	0.355
403	0.355
404	0.354
404	0.354
405	0.354
405	0.353
405	0.353
406	0.352
406	0.352
407	0.352
407	0.351
408	0.351
408	0.351
409	0.351
409	0.35
410	0.35
410	0.35
411	0.35
411	0.35
411	0.35
412	0.349
412	0.349
413	0.348
413	0.348
414	0.348
414	0.348
415	0.347
415	0.347
416	0.346
416	0.346
416	0.346
417	0.345
417	0.345
418	0.345
418	0.345
419	0.345
419	0.345
420	0.345
420	0.345
421	0.345
421	0.345
421	0.345
422	0.345
422	0.344
423	0.344
423	0.344
424	0.343
424	0.343
425	0.343
425	0.342
426	0.342
426	0.342
427	0.341
427	0.341
427	0.341
428	0.34
428	0.34
429	0.34
429	0.34
430	0.34
430	0.34
431	0.34
431	0.339
432	0.339
432	0.339
432	0.339
433	0.339
433	0.339
434	0.338
434	0.338
435	0.338
435	0.338
436	0.338
436	0.338
437	0.338
437	0.338
437	0.338
438	0.338
438	0.338
439	0.338
439	0.338
440	0.338
440	0.338
441	0.338
441	0.338
442	0.338
442	0.338
442	0.338
443	0.338
443	0.338
444	0.338
444	0.338
445	0.338
445	0.338
446	0.338
446	0.339
447	0.339
447	0.339
447	0.339
448	0.34
448	0.34
449	0.34
449	0.34
450	0.341
450	0.341
451	0.341
451	0.341
452	0.341
452	0.342
452	0.342
453	0.342
453	0.342
454	0.342
454	0.342
455	0.342
455	0.342
456	0.342
456	0.342
457	0.343
457	0.343
458	0.343
458	0.343
458	0.344
459	0.344
459	0.345
460	0.345
460	0.345
461	0.346
461	0.346
462	0.347
462	0.347
463	0.348
463	0.348
463	0.349
464	0.349
464	0.35
465	0.35
465	0.351
466	0.352
466	0.352
467	0.353
467	0.353
467	0.354
468	0.354
468	0.355
469	0.356
469	0.357
470	0.358
470	0.359
471	0.359
471	0.36
472	0.361
472	0.362
472	0.363
473	0.364
473	0.365
474	0.366
474	0.367
475	0.368
475	0.37
476	0.371
476	0.371
477	0.373
477	0.374
477	0.375
478	0.376
478	0.378
479	0.379
479	0.381
480	0.382
480	0.384
481	0.385
481	0.387
482	0.389
482	0.39
482	0.392
483	0.393
483	0.395
484	0.397
484	0.398
485	0.399
485	0.401
486	0.403
486	0.405
487	0.407
487	0.409
487	0.411
488	0.413
488	0.415
489	0.418
489	0.421
490	0.424
490	0.427
491	0.43
491	0.432
492	0.435
492	0.437
492	0.44
493	0.443
493	0.446
494	0.449
494	0.452
495	0.455
495	0.457
496	0.461
496	0.464
496	0.467
497	0.471
497	0.474
498	0.477
498	0.481
499	0.484
499	0.488
500	0.492
500	0.496
501	0.5
501	0.503
501	0.506
502	0.509
502	0.513
503	0.516
503	0.52
504	0.523
504	0.527
505	0.531
505	0.534
506	0.538
506	0.541
506	0.545
507	0.548
507	0.552
508	0.555
508	0.559
509	0.563
509	0.567
510	0.57
510	0.574
511	0.578
511	0.581
511	0.585
512	0.589
512	0.592
513	0.596
513	0.599
514	0.602
514	0.606
515	0.609
515	0.612
515	0.615
516	0.618
516	0.621
517	0.624
517	0.626
518	0.629
518	0.631
519	0.634
519	0.636
520	0.638
520	0.64
520	0.643
521	0.645
521	0.647
522	0.649
522	0.651
523	0.653
523	0.655
524	0.656
524	0.656
524	0.657
525	0.657
525	0.658
526	0.658
526	0.658
527	0.658
527	0.658
528	0.657
528	0.657
529	0.657
529	0.657
529	0.657
530	0.657
530	0.655
531	0.654
531	0.654
532	0.652
532	0.651
533	0.65
533	0.647
533	0.645
534	0.643
534	0.64
535	0.638
535	0.635
536	0.632
536	0.629
537	0.625
537	0.622
538	0.618
538	0.615
538	0.612
539	0.609
539	0.605
540	0.601
540	0.597
541	0.593
541	0.59
542	0.585
542	0.581
542	0.576
543	0.572
543	0.567
544	0.562
544	0.558
545	0.553
545	0.549
546	0.544
546	0.539
547	0.534
547	0.529
547	0.524
548	0.52
548	0.515
549	0.511
549	0.506
550	0.501
550	0.496
551	0.491
551	0.486
551	0.482
552	0.477
552	0.473
553	0.468
553	0.463
554	0.458
554	0.452
555	0.447
555	0.442
556	0.437
556	0.432
556	0.427
557	0.422
557	0.416
558	0.411
558	0.406
559	0.4
559	0.395
560	0.39
560	0.384
560	0.38
561	0.375
561	0.37
562	0.365
562	0.361
563	0.356
563	0.351
564	0.347
564	0.343
564	0.338
565	0.334
565	0.33
566	0.326
566	0.321
567	0.317
567	0.312
568	0.308
568	0.303
568	0.299
569	0.294
569	0.29
570	0.285
570	0.28
571	0.276
571	0.273
572	0.268
572	0.264
573	0.26
573	0.257
573	0.253
574	0.25
574	0.247
575	0.244
575	0.241
576	0.238
576	0.233
577	0.23
577	0.227
577	0.225
578	0.222
578	0.22
579	0.218
579	0.215
580	0.211
580	0.207
581	0.204
581	0.201
581	0.199
582	0.198
582	0.195
583	0.193
583	0.19
584	0.186
584	0.183
585	0.181
585	0.18
585	0.178
586	0.176
586	0.174
587	0.171
587	0.169
588	0.167
588	0.165
589	0.163
589	0.161
590	0.159
590	0.158
590	0.157
591	0.155
591	0.152
592	0.149
592	0.147
593	0.145
593	0.144
594	0.142
594	0.14
594	0.139
595	0.138
595	0.135
596	0.134
596	0.133
597	0.133
597	0.132
598	0.13
598	0.128
598	0.127
599	0.125
599	0.123
600	0.121
600	0.12
601	0.118
601	0.117
602	0.115
602	0.113
602	0.112
603	0.112
603	0.112
604	0.111
604	0.111
605	0.11
605	0.11
606	0.109
606	0.107
606	0.106
607	0.105
607	0.104
608	0.102
608	0.1
609	0.099
609	0.098
610	0.097
610	0.096
610	0.096
611	0.096
611	0.096
612	0.097
612	0.097
613	0.097
613	0.097
614	0.096
614	0.094
614	0.094
615	0.092
615	0.091
616	0.091
616	0.089
617	0.088
617	0.086
618	0.085
618	0.084
618	0.084
619	0.084
619	0.084
620	0.084
620	0.083
621	0.082
621	0.082
622	0.081
622	0.081
622	0.08
623	0.079
623	0.079
624	0.079
624	0.078
625	0.078
625	0.078
626	0.078
626	0.077
626	0.078
627	0.078
627	0.078
628	0.077
628	0.077
629	0.076
629	0.075
630	0.074
630	0.074
630	0.073
631	0.073
631	0.072
632	0.071
632	0.07
633	0.07
633	0.07
634	0.069
634	0.069
634	0.069
635	0.068
635	0.067
636	0.066
636	0.066
637	0.065
637	0.064
638	0.063
638	0.062
638	0.061
639	0.059
639	0.058
640	0.057
640	0.057
641	0.056
641	0.055
642	0.054
642	0.053
642	0.051
643	0.05
643	0.048
644	0.047
644	0.045
645	0.044
645	0.042
646	0.04
646	0.038
646	0.036
647	0.034
647	0.032
648	0.03
648	0.028
649	0.025
649	0.023
650	0.019
650	0.016
650	0.011
651	0.007
651	0.002
652	-0.005
652	-0.01
653	-0.015
653	-0.021
653	-0.018
654	-0.017
654	-0.022
655	-0.027
655	-0.03
656	-0.035
656	-0.04
657	-0.043
657	-0.046
657	-0.051
658	-0.055
658	-0.072
659	-0.11
659	-0.147
660	-0.168
660	-0.183
661	-0.199
661	-0.216
661	-0.235
662	-0.251
662	-0.267
663	-0.284
663	-0.303
664	-0.321
664	-0.347
665	-0.366
665	-0.392
665	-0.416
666	-0.437
666	-0.461
667	-0.489
667	-0.519
668	-0.557
668	-0.601
669	-0.644
669	-0.684
669	-0.727
670	-0.765
670	-0.866
671	-1.136
671	-1.54
672	-1.966
672	-2.233
672	-2.403
673	-2.464
673	-2.485
674	-2.502
674	-2.516
675	-2.541
675	-2.682
676	-2.883
676	-2.846
676	-2.561
677	-2.242
677	-1.774
678	-1.211
678	-0.943
679	-0.845
679	-0.793
680	-0.759
680	-0.729
680	-0.705
681	-0.704
681	-0.683
682	-0.681
682	-0.675
683	-0.667
683	-0.683
684	-0.688
684	-0.693
684	-0.693
685	-0.692
685	-0.692
686	-0.684
686	-0.685
687	-0.674
687	-0.678
687	-0.672
688	-0.656
688	-0.648
689	-0.638
689	-0.636
690	-0.625
690	-0.62
691	-0.622
691	-0.635
691	-0.659
692	-0.658
692	-0.657
693	-0.658
693	-0.674
694	-0.671
694	-0.667
695	-0.676
695	-0.679
695	-0.668
696	-0.668
696	-0.647
697	-0.651
697	-0.668
698	-0.672
698	-0.663
698	-0.682
699	-0.687
699	-0.688
700	-0.682
700	-0.699
701	-0.699
701	-0.709
702	-0.711
702	-0.7
702	-0.695
703	-0.689
703	-0.683
704	-0.681
704	-0.682
705	-0.694
705	-0.687
705	-0.678
706	-0.68
706	-0.676
707	-0.682
707	-0.681
708	-0.68
708	-0.671
709	-0.676
709	-0.68
709	-0.671
710	-0.682
710	-0.693
711	-0.684
711	-0.685
712	-0.686
712	-0.698
713	-0.699
713	-0.709
713	-0.699
714	-0.697
714	-0.698
715	-0.69
715	-0.675
716	-0.685
716	-0.688
716	-0.679
717	-0.682
717	-0.686
718	-0.676
718	-0.679
719	-0.685
719	-0.688
720	-0.682
720	-0.693
720	-0.686
721	-0.676
721	-0.678
722	-0.666
722	-0.656
723	-0.656
723	-0.66
723	-0.649
724	-0.655
724	-0.659
725	-0.659
725	-0.669
726	-0.681
726	-0.687
727	-0.692
727	-0.706
727	-0.713
728	-0.713
728	-0.72
729	-0.719
729	-0.723
730	-0.729
730	-0.722
730	-0.714
731	-0.695
731	-0.706
732	-0.711
732	-0.713
733	-0.712
733	-0.717
734	-0.712
734	-0.713
734	-0.7
735	-0.7
735	-0.7
736	-0.713
736	-0.7
737	-0.693
737	-0.695
737	-0.704
738	-0.7
738	-0.699
739	-0.697
739	-0.71
740	-0.709
740	-0.708
741	-0.706
741	-0.707
741	-0.71
742	-0.707
742	-0.708
743	-0.715
743	-0.721
744	-0.72
744	-0.707
744	-0.709
745	-0.714
745	-0.706
746	-0.705
746	-0.7
747	-0.703
747	-0.69
748	-0.677
748	-0.682
748	-0.681
749	-0.683
749	-0.685
750	-0.674
750	-0.676
751	-0.682
751	-0.693
751	-0.696
752	-0.702
752	-0.713
753	-0.709
753	-0.708
754	-0.712
754	-0.705
754	-0.723
755	-0.737
755	-0.747
756	-0.735
756	-0.73
757	-0.726
757	-0.72
758	-0.722
758	-0.72
758	-0.723
759	-0.732
759	-0.715
760	-0.708
760	-0.704
761	-0.715
761	-0.713
761	-0.712
762	-0.72
762	-0.721
763	-0.729
763	-0.726
764	-0.722
764	-0.729
764	-0.734
765	-0.724
765	-0.71
766	-0.72
766	-0.726
767	-0.742
767	-0.734
768	-0.726
768	-0.732
768	-0.736
769	-0.753
769	-0.757
770	-0.762
770	-0.776
771	-0.772
771	-0.777
771	-0.777
772	-0.781
772	-0.781
773	-0.783
773	-0.779
774	-0.778
774	-0.779
775	-0.781
775	-0.776
775	-0.782
776	-0.78
776	-0.769
777	-0.775
777	-0.793
778	-0.789
778	-0.81
778	-0.797
779	-0.817
779	-0.824
780	-0.835
780	-0.834
781	-0.844
781	-0.838
781	-0.854
782	-0.854
782	-0.856
783	-0.84
783	-0.838
784	-0.818
784	-0.808
784	-0.818
785	-0.825
785	-0.814
786	-0.822
786	-0.802
787	-0.789
787	-0.79
788	-0.794
788	-0.806
788	-0.82
789	-0.823
789	-0.804
790	-0.788
790	-0.791
791	-0.792
791	-0.811
791	-0.817
792	-0.813
792	-0.789
793	-0.779
793	-0.757
794	-0.761
794	-0.754
794	-0.762
795	-0.758
795	-0.748
796	-0.732
796	-0.74
797	-0.732
797	-0.745
797	-0.75
798	-0.763
798	-0.757
799	-0.769
799	-0.754
800	-0.761
800	-0.757
801	-0.762
801	-0.748
801	-0.76
802	-0.767
802	-0.77
803	-0.769
803	-0.779
804	-0.772
804	-0.783
804	-0.771
805	-0.776
805	-0.765
806	-0.768
806	-0.751
807	-0.751
807	-0.733
807	-0.721
808	-0.712
808	-0.706
809	-0.692
809	-0.701
810	-0.7
810	-0.693
810	-0.69
811	-0.698
811	-0.688
812	-0.689
812	-0.694
813	-0.698
813	-0.695
813	-0.701
814	-0.7
814	-0.703
815	-0.707
815	-0.711
816	-0.703
816	-0.709
817	-0.717
817	-0.733
817	-0.747
818	-0.754
818	-0.759
819	-0.751
819	-0.753
820	-0.763
820	-0.76
820	-0.771
821	-0.769
821	-0.755
822	-0.724
822	-0.699
823	-0.696
823	-0.696
823	-0.695
824	-0.69
824	-0.692
825	-0.685
825	-0.667
826	-0.661
826	-0.67
826	-0.68
827	-0.676
827	-0.674
828	-0.653
828	-0.652
829	-0.64
829	-0.623
829	-0.615
830	-0.624
830	-0.62
831	-0.61
831	-0.601
832	-0.603
832	-0.592
832	-0.602
833	-0.597
833	-0.598
834	-0.599
834	-0.607
835	-0.595
835	-0.59
835	-0.588
836	-0.585
836	-0.581
837	-0.58
837	-0.57
838	-0.565
838	-0.554
839	-0.541
839	-0.529
839	-0.521
840	-0.513
840	-0.51
841	-0.5
841	-0.491
842	-0.486
842	-0.475
842	-0.466
843	-0.46
843	-0.456
844	-0.449
844	-0.442
845	-0.432
845	-0.423
845	-0.41
846	-0.397
846	-0.383
847	-0.373
847	-0.364
848	-0.354
848	-0.343
848	-0.328
849	-0.319
849	-0.308
850	-0.295
850	-0.289
851	-0.283
851	-0.273
851	-0.266
852	-0.251
852	-0.239
853	-0.231
853	-0.225
854	-0.215
854	-0.203
854	-0.193
855	-0.184
855	-0.177
856	-0.167
856	-0.16
857	-0.155
857	-0.147
857	-0.137
858	-0.128
858	-0.122
859	-0.115
859	-0.106
860	-0.098
860	-0.086
860	-0.08
861	-0.072
861	-0.065
862	-0.059
862	-0.053
863	-0.047
863	-0.04
863	-0.035
864	-0.03
864	-0.026
865	-0.021
865	-0.018
866	-0.014
866	-0.011
866	-0.008
867	-0.005
867	-0.002
868	-0.001
868	0.002
869	0.005
869	0.007
869	0.008
870	0.01
870	0.013
871	0.015
871	0.017
872	0.019
872	0.02
872	0.021
873	0.022
873	0.022
874	0.022
874	0.022
875	0.021
875	0.02
875	0.019
876	0.018
876	0.017
877	0.015
877	0.014
878	0.012
878	0.011
878	0.009
879	0.007
879	0.006
880	0.006
880	0.005
881	0.005
881	0.005
881	0.005
882	0.004
882	0.003
883	0.002
883	0.001
884	0
884	-0
884	-0.001
885	-0.001
885	-0.001
886	-0.001
886	-0.002
887	-0.002
887	-0.001
887	-0.001
888	-0
888	-0
889	0.001
889	0.001
890	0.002
890	0.002
890	0.002
891	0.002
891	0.003
892	0.003
892	0.004
893	0.004
893	0.004
893	0.004
894	0.004
894	0.004
895	0.004
895	0.004
895	0.004
896	0.003
896	0.002
897	0.001
897	-0
898	-0.001
898	-0.002
898	-0.002
899	-0.002
899	-0.001
900	-0.001
900	-0.001
901	0
901	0.001
901	0.002
902	0.003
902	0.004
903	0.005
903	0.005
904	0.006
904	0.006
904	0.007
905	0.007
905	0.008
906	0.008
906	0.008
907	0.008
907	0.008
907	0.008
908	0.008
908	0.007
909	0.007
909	0.006
910	0.005
910	0.005
910	0.005
911	0.005
911	0.006
912	0.006
912	0.007
913	0.008
913	0.009
913	0.01
914	0.011
914	0.011
915	0.012
915	0.012
916	0.013
916	0.013
916	0.013
917	0.013
917	0.013
918	0.013
918	0.013
918	0.012
919	0.012
919	0.012
920	0.012
920	0.012
921	0.012
921	0.012
921	0.012
922	0.012
922	0.011
923	0.011
923	0.01
924	0.01
924	0.01
924	0.009
925	0.008
925	0.007
926	0.007
926	0.006
927	0.005
927	0.004
927	0.004
928	0.004
928	0.003
929	0.003
929	0.003
930	0.002
930	0.002
930	0.002
931	0.001
931	0.001
932	0.001
932	0
933	-0
933	-0.001
933	-0.002
934	-0.003
934	-0.004
935	-0.005
935	-0.006
935	-0.006
936	-0.007
936	-0.008
937	-0.009
937	-0.01
938	-0.01
938	-0.01
938	-0.009
939	-0.009
939	-0.008
940	-0.008
940	-0.007
941	-0.006
941	-0.005
941	-0.004
942	-0.003
942	-0.003
943	-0.002
943	-0.002
944	-0.002
944	-0.002
944	-0.003
945	-0.003
945	-0.004
946	-0.005
946	-0.006
946	-0.007
947	-0.007
947	-0.007
948	-0.008
948	-0.008
949	-0.008
949	-0.008
949	-0.008
950	-0.007
950	-0.007
951	-0.006
951	-0.006
952	-0.005
952	-0.004
952	-0.003
953	-0.002
953	-0.001
954	-0
954	0.001
955	0.002
955	0.003
955	0.004
956	0.005
956	0.006
957	0.006
957	0.007
957	0.007
958	0.007
958	0.008
959	0.009
959	0.009
960	0.009
960	0.009
960	0.01
961	0.01
961	0.011
962	0.011
962	0.011
963	0.011
963	0.011
963	0.011
964	0.011
964	0.011
965	0.011
965	0.011
966	0.011
966	0.011
966	0.011
967	0.011
967	0.011
968	0.01
968	0.01
968	0.009
969	0.009
969	0.008
970	0.008
970	0.008
971	0.008
971	0.008
971	0.008
972	0.008
972	0.008
973	0.009
973	0.008
974	0.008
974	0.008
974	0.009
975	0.009
975	0.008
976	0.008
976	0.007
976	0.007
977	0.007
977	0.007
978	0.007
978	0.007
979	0.007
979	0.007
979	0.007
980	0.007
980	0.007
981	0.007
981	0.007
982	0.007
982	0.006
982	0.006
983	0.005
983	0.005
984	0.005
984	0.005
984	0.005
985	0.005
985	0.005
986	0.004
986	0.004
987	0.004
987	0.004
987	0.003
988	0.002
988	0.002
989	0.001
989	-0
990	-0.001
990	-0.002
990	-0.002
991	-0.002
991	-0.003
992	-0.003
992	-0.003
992	-0.004
993	-0.004
993	-0.004
994	-0.004
994	-0.004
995	-0.004
995	-0.005
995	-0.005
996	-0.006
996	-0.006
997	-0.007
997	-0.007
997	-0.007
998	-0.007
998	-0.007
999	-0.007
999	-0.006
1000	-0.006
1000	-0.006
1000	-0.005
1001	-0.005
1001	-0.004
1002	-0.004
1002	-0.004
1003	-0.004
1003	-0.004
1003	-0.005
1004	-0.005
1004	-0.005
1005	-0.006
1005	-0.007
1005	-0.008
1006	-0.009
1006	-0.01
1007	-0.011
1007	-0.012
1008	-0.012
1008	-0.013
1008	-0.013
1009	-0.013
1009	-0.013
1010	-0.013
1010	-0.013
1010	-0.013
1011	-0.012
1011	-0.012
1012	-0.012
1012	-0.012
1013	-0.013
1013	-0.013
1013	-0.013
1014	-0.014
1014	-0.014
1015	-0.015
1015	-0.015
1016	-0.016
1016	-0.017
1016	-0.017
1017	-0.018
1017	-0.018
1018	-0.019
1018	-0.02
1018	-0.021
1019	-0.021
1019	-0.022
1020	-0.023
1020	-0.023
1021	-0.024
1021	-0.025
1021	-0.025
1022	-0.026
1022	-0.027
1023	-0.027
1023	-0.027
1023	-0.028
1024	-0.028
1024	-0.028
1025	-0.028
1025	-0.028
1026	-0.028
1026	-0.027
1026	-0.027
1027	-0.027
1027	-0.026
1028	-0.026
1028	-0.026
1028	-0.026
1029	-0.026
1029	-0.026
1030	-0.026
1030	-0.026
1031	-0.027
1031	-0.027
1031	-0.027
1032	-0.027
1032	-0.027
1033	-0.027
1033	-0.027
1033	-0.026
1034	-0.026
1034	-0.026
1035	-0.026
1035	-0.026
1036	-0.026
1036	-0.027
1036	-0.027
1037	-0.027
1037	-0.026
1038	-0.026
1038	-0.026
1039	-0.026
1039	-0.025
1039	-0.025
1040	-0.024
1040	-0.023
1041	-0.023
1041	-0.022
1041	-0.022
1042	-0.022
1042	-0.022
1043	-0.022
1043	-0.022
1044	-0.023
1044	-0.024
1044	-0.024
1045	-0.025
1045	-0.026
1046	-0.027
1046	-0.028
1046	-0.028
1047	-0.029
1047	-0.029
1048	-0.029
1048	-0.029
1049	-0.029
1049	-0.028
1049	-0.028
1050	-0.028
1050	-0.027
1051	-0.027
1051	-0.027
1051	-0.026
1052	-0.026
1052	-0.026
1053	-0.026
1053	-0.026
1053	-0.026
1054	-0.026
1054	-0.026
1055	-0.026
1055	-0.026
1056	-0.027
1056	-0.028
1056	-0.029
1057	-0.029
1057	-0.03
1058	-0.03
1058	-0.031
1058	-0.031
1059	-0.032
1059	-0.033
1060	-0.033
1060	-0.034
1061	-0.034
1061	-0.034
1061	-0.034
1062	-0.034
1062	-0.034
1063	-0.034
1063	-0.034
1063	-0.034
1064	-0.033
1064	-0.033
1065	-0.033
1065	-0.033
1066	-0.033
1066	-0.033
1066	-0.033
1067	-0.033
1067	-0.033
1068	-0.034
1068	-0.034
1068	-0.034
1069	-0.034
1069	-0.035
1070	-0.035
1070	-0.035
1071	-0.036
1071	-0.036
1071	-0.037
1072	-0.037
1072	-0.038
1073	-0.038
1073	-0.038
1073	-0.039
1074	-0.039
1074	-0.038
1075	-0.039
1075	-0.039
1076	-0.04
1076	-0.04
1076	-0.04
1077	-0.041
1077	-0.041
1078	-0.042
1078	-0.042
1078	-0.043
1079	-0.043
1079	-0.044
1080	-0.045
1080	-0.045
1080	-0.046
1081	-0.046
1081	-0.046
1082	-0.047
1082	-0.048
1083	-0.048
1083	-0.049
1083	-0.05
1084	-0.05
1084	-0.051
1085	-0.052
1085	-0.052
1085	-0.052
1086	-0.053
1086	-0.054
1087	-0.054
1087	-0.054
1088	-0.055
1088	-0.055
1088	-0.056
1089	-0.057
1089	-0.057
1090	-0.059
1090	-0.059
1090	-0.06
1091	-0.061
1091	-0.061
1092	-0.063
1092	-0.063
1092	-0.064
1093	-0.064
1093	-0.064
1094	-0.065
1094	-0.065
1095	-0.066
1095	-0.067
1095	-0.067
1096	-0.067
1096	-0.068
1097	-0.069
1097	-0.07
1097	-0.07
1098	-0.071
1098	-0.072
1099	-0.073
1099	-0.073
1100	-0.075
1100	-0.076
1100	-0.078
1101	-0.08
1101	-0.081
1102	-0.082
1102	-0.084
1102	-0.085
1103	-0.087
1103	-0.089
1104	-0.092
1104	-0.094
1104	-0.096
1105	-0.098
1105	-0.101
1106	-0.106
1106	-0.108
1107	-0.113
1107	-0.117
1107	-0.122
1108	-0.124
1108	-0.125
1109	-0.129
1109	-0.133
1109	-0.136
1110	-0.136
1110	-0.139
1111	-0.146
1111	-0.146
