Data from 17C_3.4A_35min_2sec_int_Absorbance__179__04264.txt Node

Date: Mon Jun 19 19:48:39 CEST 2023
User: Marek
Spectrometer: MAYP115816
Trigger mode: 0
Integration Time (sec): 2.500000E-1
Scans to average: 10
Electric dark correction enabled: true
Nonlinearity correction enabled: true
Boxcar width: 5
XAxis mode: Wavelengths
Number of Pixels in Spectrum: 2068
>>>>>Begin Spectral Data<<<<<
199	-0.768
199	-0.774
200	-0.673
200	-0.621
201	-0.578
201	-0.568
202	-0.552
202	-0.536
203	-0.527
203	-0.523
204	-0.509
204	-0.493
205	-0.47
205	-0.466
205	-0.463
206	-0.468
206	-0.468
207	-0.459
207	-0.463
208	-0.465
208	-0.461
209	-0.456
209	-0.458
210	-0.459
210	-0.465
211	-0.466
211	-0.469
212	-0.472
212	-0.481
213	-0.478
213	-0.479
213	-0.486
214	-0.482
214	-0.483
215	-0.484
215	-0.488
216	-0.494
216	-0.501
217	-0.498
217	-0.5
218	-0.504
218	-0.505
219	-0.509
219	-0.519
220	-0.522
220	-0.533
221	-0.532
221	-0.534
221	-0.527
222	-0.522
222	-0.523
223	-0.525
223	-0.527
224	-0.531
224	-0.531
225	-0.528
225	-0.521
226	-0.525
226	-0.524
227	-0.528
227	-0.538
228	-0.539
228	-0.539
229	-0.539
229	-0.532
229	-0.527
230	-0.527
230	-0.531
231	-0.526
231	-0.518
232	-0.514
232	-0.512
233	-0.504
233	-0.505
234	-0.507
234	-0.504
235	-0.505
235	-0.514
236	-0.513
236	-0.517
236	-0.524
237	-0.53
237	-0.532
238	-0.541
238	-0.541
239	-0.537
239	-0.545
240	-0.547
240	-0.542
241	-0.548
241	-0.544
242	-0.548
242	-0.544
243	-0.539
243	-0.539
243	-0.545
244	-0.547
244	-0.546
245	-0.56
245	-0.561
246	-0.565
246	-0.573
247	-0.574
247	-0.578
248	-0.588
248	-0.586
249	-0.588
249	-0.596
250	-0.593
250	-0.588
250	-0.587
251	-0.583
251	-0.58
252	-0.585
252	-0.575
253	-0.577
253	-0.588
254	-0.587
254	-0.586
255	-0.596
255	-0.591
256	-0.589
256	-0.603
257	-0.6
257	-0.597
258	-0.611
258	-0.608
258	-0.603
259	-0.598
259	-0.606
260	-0.604
260	-0.608
261	-0.619
261	-0.608
262	-0.605
262	-0.605
263	-0.594
263	-0.591
264	-0.592
264	-0.603
265	-0.597
265	-0.605
265	-0.608
266	-0.604
266	-0.603
267	-0.616
267	-0.625
268	-0.641
268	-0.648
269	-0.646
269	-0.641
270	-0.646
270	-0.648
271	-0.646
271	-0.65
272	-0.651
272	-0.644
272	-0.637
273	-0.635
273	-0.646
274	-0.65
274	-0.655
275	-0.655
275	-0.649
276	-0.656
276	-0.652
277	-0.658
277	-0.678
278	-0.687
278	-0.681
278	-0.673
279	-0.676
279	-0.685
280	-0.683
280	-0.685
281	-0.68
281	-0.686
282	-0.679
282	-0.677
283	-0.667
283	-0.67
284	-0.666
284	-0.653
285	-0.65
285	-0.648
285	-0.643
286	-0.652
286	-0.649
287	-0.646
287	-0.631
288	-0.626
288	-0.633
289	-0.646
289	-0.658
290	-0.646
290	-0.645
291	-0.641
291	-0.632
292	-0.634
292	-0.639
292	-0.641
293	-0.645
293	-0.633
294	-0.622
294	-0.612
295	-0.61
295	-0.607
296	-0.607
296	-0.605
297	-0.596
297	-0.58
298	-0.575
298	-0.583
298	-0.572
299	-0.567
299	-0.568
300	-0.565
300	-0.56
301	-0.556
301	-0.554
302	-0.564
302	-0.572
303	-0.559
303	-0.543
304	-0.546
304	-0.543
305	-0.546
305	-0.544
305	-0.54
306	-0.525
306	-0.521
307	-0.508
307	-0.511
308	-0.525
308	-0.524
309	-0.528
309	-0.518
310	-0.504
310	-0.497
311	-0.489
311	-0.497
311	-0.492
312	-0.486
312	-0.485
313	-0.47
313	-0.472
314	-0.467
314	-0.469
315	-0.472
315	-0.474
316	-0.47
316	-0.462
317	-0.455
317	-0.451
318	-0.437
318	-0.435
318	-0.431
319	-0.42
319	-0.416
320	-0.408
320	-0.408
321	-0.414
321	-0.412
322	-0.405
322	-0.402
323	-0.403
323	-0.396
324	-0.388
324	-0.378
324	-0.367
325	-0.355
325	-0.339
326	-0.323
326	-0.302
327	-0.285
327	-0.261
328	-0.23
328	-0.207
329	-0.181
329	-0.154
330	-0.124
330	-0.087
330	-0.053
331	-0.019
331	0.012
332	0.042
332	0.072
333	0.098
333	0.128
334	0.155
334	0.176
335	0.198
335	0.216
336	0.235
336	0.253
336	0.267
337	0.282
337	0.294
338	0.305
338	0.313
339	0.324
339	0.332
340	0.339
340	0.345
341	0.351
341	0.356
342	0.361
342	0.365
342	0.37
343	0.373
343	0.377
344	0.379
344	0.381
345	0.383
345	0.385
346	0.386
346	0.387
347	0.388
347	0.389
348	0.39
348	0.39
348	0.391
349	0.391
349	0.391
350	0.391
350	0.391
351	0.391
351	0.392
352	0.392
352	0.392
353	0.391
353	0.392
354	0.391
354	0.391
354	0.391
355	0.39
355	0.391
356	0.39
356	0.39
357	0.39
357	0.389
358	0.389
358	0.388
359	0.388
359	0.388
360	0.388
360	0.388
360	0.387
361	0.387
361	0.387
362	0.387
362	0.387
363	0.386
363	0.386
364	0.386
364	0.385
365	0.385
365	0.385
366	0.384
366	0.384
366	0.384
367	0.384
367	0.383
368	0.383
368	0.383
369	0.382
369	0.382
370	0.382
370	0.381
371	0.381
371	0.38
372	0.38
372	0.379
372	0.379
373	0.379
373	0.378
374	0.378
374	0.378
375	0.377
375	0.377
376	0.377
376	0.376
377	0.376
377	0.375
378	0.375
378	0.375
378	0.374
379	0.374
379	0.373
380	0.373
380	0.372
381	0.372
381	0.371
382	0.371
382	0.37
383	0.37
383	0.369
383	0.368
384	0.368
384	0.368
385	0.367
385	0.367
386	0.367
386	0.366
387	0.366
387	0.365
388	0.365
388	0.365
389	0.364
389	0.364
389	0.364
390	0.364
390	0.363
391	0.363
391	0.363
392	0.362
392	0.361
393	0.361
393	0.36
394	0.36
394	0.359
394	0.359
395	0.358
395	0.358
396	0.357
396	0.357
397	0.356
397	0.356
398	0.356
398	0.356
399	0.355
399	0.355
400	0.354
400	0.354
400	0.354
401	0.353
401	0.353
402	0.352
402	0.352
403	0.352
403	0.351
404	0.351
404	0.35
405	0.35
405	0.35
405	0.349
406	0.349
406	0.349
407	0.348
407	0.348
408	0.348
408	0.347
409	0.347
409	0.347
410	0.347
410	0.347
411	0.347
411	0.346
411	0.346
412	0.346
412	0.346
413	0.345
413	0.345
414	0.344
414	0.344
415	0.344
415	0.343
416	0.343
416	0.343
416	0.342
417	0.342
417	0.342
418	0.342
418	0.342
419	0.342
419	0.342
420	0.342
420	0.342
421	0.342
421	0.341
421	0.341
422	0.341
422	0.341
423	0.341
423	0.34
424	0.34
424	0.34
425	0.339
425	0.339
426	0.339
426	0.338
427	0.338
427	0.338
427	0.337
428	0.337
428	0.337
429	0.337
429	0.337
430	0.337
430	0.337
431	0.337
431	0.336
432	0.336
432	0.336
432	0.336
433	0.336
433	0.336
434	0.335
434	0.335
435	0.335
435	0.335
436	0.335
436	0.335
437	0.335
437	0.335
437	0.335
438	0.335
438	0.335
439	0.335
439	0.335
440	0.335
440	0.335
441	0.335
441	0.335
442	0.335
442	0.335
442	0.334
443	0.334
443	0.335
444	0.335
444	0.335
445	0.335
445	0.335
446	0.335
446	0.335
447	0.336
447	0.336
447	0.336
448	0.336
448	0.336
449	0.337
449	0.337
450	0.337
450	0.337
451	0.337
451	0.338
452	0.338
452	0.338
452	0.338
453	0.338
453	0.338
454	0.338
454	0.338
455	0.338
455	0.338
456	0.339
456	0.339
457	0.339
457	0.339
458	0.339
458	0.34
458	0.34
459	0.341
459	0.341
460	0.341
460	0.341
461	0.341
461	0.342
462	0.342
462	0.343
463	0.343
463	0.344
463	0.344
464	0.345
464	0.345
465	0.346
465	0.346
466	0.347
466	0.348
467	0.348
467	0.349
467	0.349
468	0.35
468	0.35
469	0.352
469	0.353
470	0.354
470	0.354
471	0.355
471	0.356
472	0.357
472	0.358
472	0.359
473	0.36
473	0.361
474	0.361
474	0.362
475	0.363
475	0.364
476	0.365
476	0.366
477	0.367
477	0.368
477	0.369
478	0.37
478	0.372
479	0.373
479	0.374
480	0.376
480	0.377
481	0.379
481	0.381
482	0.382
482	0.384
482	0.385
483	0.387
483	0.389
484	0.39
484	0.391
485	0.393
485	0.395
486	0.396
486	0.398
487	0.4
487	0.402
487	0.403
488	0.405
488	0.407
489	0.41
489	0.414
490	0.416
490	0.419
491	0.421
491	0.424
492	0.427
492	0.429
492	0.432
493	0.435
493	0.437
494	0.44
494	0.443
495	0.446
495	0.449
496	0.452
496	0.455
496	0.458
497	0.461
497	0.464
498	0.467
498	0.471
499	0.474
499	0.477
500	0.481
500	0.485
501	0.488
501	0.491
501	0.494
502	0.498
502	0.501
503	0.505
503	0.508
504	0.512
504	0.516
505	0.519
505	0.523
506	0.527
506	0.53
506	0.534
507	0.537
507	0.541
508	0.544
508	0.548
509	0.551
509	0.555
510	0.559
510	0.562
511	0.566
511	0.569
511	0.573
512	0.577
512	0.58
513	0.583
513	0.587
514	0.59
514	0.593
515	0.596
515	0.599
515	0.602
516	0.605
516	0.608
517	0.61
517	0.613
518	0.616
518	0.618
519	0.62
519	0.622
520	0.625
520	0.627
520	0.63
521	0.632
521	0.634
522	0.636
522	0.638
523	0.64
523	0.642
524	0.643
524	0.644
524	0.644
525	0.645
525	0.645
526	0.646
526	0.646
527	0.646
527	0.646
528	0.646
528	0.646
529	0.646
529	0.646
529	0.646
530	0.646
530	0.645
531	0.644
531	0.643
532	0.642
532	0.641
533	0.64
533	0.638
533	0.636
534	0.634
534	0.632
535	0.63
535	0.628
536	0.625
536	0.622
537	0.619
537	0.616
538	0.613
538	0.609
538	0.606
539	0.603
539	0.601
540	0.597
540	0.594
541	0.59
541	0.587
542	0.584
542	0.579
542	0.575
543	0.571
543	0.566
544	0.562
544	0.558
545	0.554
545	0.55
546	0.546
546	0.541
547	0.536
547	0.532
547	0.527
548	0.524
548	0.519
549	0.515
549	0.511
550	0.506
550	0.502
551	0.497
551	0.492
551	0.488
552	0.484
552	0.48
553	0.475
553	0.471
554	0.466
554	0.461
555	0.456
555	0.452
556	0.447
556	0.442
556	0.437
557	0.432
557	0.428
558	0.422
558	0.417
559	0.412
559	0.407
560	0.402
560	0.398
560	0.393
561	0.389
561	0.384
562	0.38
562	0.375
563	0.371
563	0.367
564	0.363
564	0.359
564	0.355
565	0.351
565	0.347
566	0.343
566	0.339
567	0.335
567	0.33
568	0.326
568	0.321
568	0.317
569	0.313
569	0.308
570	0.303
570	0.299
571	0.295
571	0.291
572	0.287
572	0.284
573	0.28
573	0.276
573	0.273
574	0.27
574	0.267
575	0.263
575	0.261
576	0.258
576	0.253
577	0.25
577	0.248
577	0.245
578	0.243
578	0.241
579	0.239
579	0.236
580	0.232
580	0.228
581	0.225
581	0.222
581	0.22
582	0.218
582	0.216
583	0.214
583	0.211
584	0.207
584	0.204
585	0.202
585	0.2
585	0.198
586	0.196
586	0.194
587	0.191
587	0.189
588	0.187
588	0.185
589	0.183
589	0.181
590	0.179
590	0.177
590	0.176
591	0.174
591	0.171
592	0.169
592	0.166
593	0.165
593	0.163
594	0.161
594	0.16
594	0.158
595	0.157
595	0.155
596	0.153
596	0.153
597	0.152
597	0.15
598	0.149
598	0.147
598	0.145
599	0.144
599	0.142
600	0.14
600	0.138
601	0.136
601	0.135
602	0.132
602	0.131
602	0.13
603	0.129
603	0.129
604	0.128
604	0.128
605	0.127
605	0.127
606	0.126
606	0.124
606	0.123
607	0.122
607	0.121
608	0.119
608	0.117
609	0.116
609	0.115
610	0.114
610	0.113
610	0.112
611	0.112
611	0.112
612	0.113
612	0.113
613	0.113
613	0.112
614	0.111
614	0.109
614	0.108
615	0.107
615	0.106
616	0.105
616	0.104
617	0.102
617	0.101
618	0.099
618	0.098
618	0.098
619	0.098
619	0.098
620	0.098
620	0.097
621	0.096
621	0.095
622	0.094
622	0.094
622	0.093
623	0.092
623	0.092
624	0.091
624	0.091
625	0.09
625	0.09
626	0.089
626	0.089
626	0.089
627	0.089
627	0.089
628	0.088
628	0.088
629	0.087
629	0.086
630	0.084
630	0.083
630	0.083
631	0.082
631	0.081
632	0.08
632	0.079
633	0.078
633	0.077
634	0.077
634	0.076
634	0.076
635	0.074
635	0.073
636	0.072
636	0.071
637	0.07
637	0.068
638	0.067
638	0.065
638	0.063
639	0.061
639	0.06
640	0.058
640	0.057
641	0.055
641	0.053
642	0.051
642	0.05
642	0.048
643	0.045
643	0.043
644	0.041
644	0.039
645	0.036
645	0.034
646	0.031
646	0.028
646	0.025
647	0.022
647	0.019
648	0.016
648	0.014
649	0.01
649	0.007
650	0.003
650	-0.001
650	-0.006
651	-0.012
651	-0.018
652	-0.026
652	-0.033
653	-0.038
653	-0.045
653	-0.042
654	-0.037
654	-0.039
655	-0.043
655	-0.047
656	-0.051
656	-0.056
657	-0.058
657	-0.062
657	-0.067
658	-0.07
658	-0.088
659	-0.134
659	-0.181
660	-0.206
660	-0.222
661	-0.241
661	-0.261
661	-0.282
662	-0.3
662	-0.319
663	-0.339
663	-0.363
664	-0.384
664	-0.415
665	-0.441
665	-0.473
665	-0.502
666	-0.532
666	-0.567
667	-0.606
667	-0.645
668	-0.694
668	-0.746
669	-0.799
669	-0.85
669	-0.903
670	-0.936
670	-0.941
671	-1.124
671	-1.579
672	-1.982
672	-2.243
672	-2.41
673	-2.526
673	-2.573
674	-2.593
674	-2.608
675	-2.634
675	-2.778
676	-2.985
676	-2.953
676	-2.701
677	-2.451
677	-2.198
678	-1.758
678	-1.274
679	-1.087
679	-1
680	-0.942
680	-0.891
680	-0.85
681	-0.835
681	-0.802
682	-0.788
682	-0.77
683	-0.754
683	-0.761
684	-0.76
684	-0.76
684	-0.754
685	-0.748
685	-0.741
686	-0.729
686	-0.725
687	-0.712
687	-0.715
687	-0.706
688	-0.689
688	-0.679
689	-0.666
689	-0.66
690	-0.648
690	-0.643
691	-0.645
691	-0.655
691	-0.678
692	-0.676
692	-0.674
693	-0.673
693	-0.687
694	-0.685
694	-0.683
695	-0.692
695	-0.693
695	-0.681
696	-0.68
696	-0.658
697	-0.659
697	-0.677
698	-0.683
698	-0.676
698	-0.693
699	-0.698
699	-0.698
700	-0.692
700	-0.71
701	-0.711
701	-0.72
702	-0.724
702	-0.714
702	-0.706
703	-0.702
703	-0.693
704	-0.691
704	-0.69
705	-0.705
705	-0.7
705	-0.692
706	-0.695
706	-0.691
707	-0.697
707	-0.694
708	-0.691
708	-0.686
709	-0.689
709	-0.695
709	-0.684
710	-0.692
710	-0.702
711	-0.693
711	-0.695
712	-0.694
712	-0.707
713	-0.708
713	-0.717
713	-0.709
714	-0.703
714	-0.705
715	-0.697
715	-0.684
716	-0.694
716	-0.697
716	-0.691
717	-0.693
717	-0.695
718	-0.685
718	-0.687
719	-0.696
719	-0.7
720	-0.693
720	-0.704
720	-0.697
721	-0.685
721	-0.687
722	-0.677
722	-0.666
723	-0.667
723	-0.672
723	-0.658
724	-0.659
724	-0.665
725	-0.663
725	-0.673
726	-0.688
726	-0.692
727	-0.694
727	-0.711
727	-0.72
728	-0.72
728	-0.727
729	-0.728
729	-0.733
730	-0.74
730	-0.731
730	-0.721
731	-0.703
731	-0.715
732	-0.719
732	-0.717
733	-0.715
733	-0.723
734	-0.715
734	-0.719
734	-0.706
735	-0.706
735	-0.707
736	-0.719
736	-0.707
737	-0.7
737	-0.702
737	-0.713
738	-0.707
738	-0.707
739	-0.703
739	-0.717
740	-0.715
740	-0.716
741	-0.713
741	-0.714
741	-0.718
742	-0.715
742	-0.714
743	-0.722
743	-0.728
744	-0.724
744	-0.713
744	-0.716
745	-0.724
745	-0.716
746	-0.716
746	-0.712
747	-0.712
747	-0.701
748	-0.688
748	-0.693
748	-0.696
749	-0.694
749	-0.695
750	-0.683
750	-0.686
751	-0.687
751	-0.695
751	-0.699
752	-0.701
752	-0.711
753	-0.706
753	-0.703
754	-0.709
754	-0.7
754	-0.713
755	-0.728
755	-0.741
756	-0.732
756	-0.73
757	-0.731
757	-0.724
758	-0.724
758	-0.723
758	-0.727
759	-0.738
759	-0.722
760	-0.714
760	-0.709
761	-0.716
761	-0.713
761	-0.71
762	-0.719
762	-0.719
763	-0.728
763	-0.723
764	-0.719
764	-0.728
764	-0.736
765	-0.725
765	-0.714
766	-0.722
766	-0.731
767	-0.744
767	-0.738
768	-0.729
768	-0.737
768	-0.741
769	-0.757
769	-0.758
770	-0.765
770	-0.779
771	-0.777
771	-0.779
771	-0.779
772	-0.785
772	-0.783
773	-0.785
773	-0.782
774	-0.781
774	-0.781
775	-0.782
775	-0.775
775	-0.782
776	-0.781
776	-0.772
777	-0.776
777	-0.796
778	-0.79
778	-0.81
778	-0.798
779	-0.82
779	-0.827
780	-0.842
780	-0.838
781	-0.851
781	-0.846
781	-0.862
782	-0.862
782	-0.864
783	-0.847
783	-0.843
784	-0.824
784	-0.814
784	-0.823
785	-0.832
785	-0.818
786	-0.824
786	-0.805
787	-0.791
787	-0.796
788	-0.802
788	-0.815
788	-0.825
789	-0.829
789	-0.812
790	-0.794
790	-0.796
791	-0.798
791	-0.815
791	-0.82
792	-0.814
792	-0.791
793	-0.782
793	-0.76
794	-0.764
794	-0.755
794	-0.764
795	-0.76
795	-0.752
796	-0.735
796	-0.743
797	-0.736
797	-0.748
797	-0.754
798	-0.768
798	-0.762
799	-0.772
799	-0.758
800	-0.763
800	-0.754
801	-0.761
801	-0.747
801	-0.756
802	-0.764
802	-0.763
803	-0.765
803	-0.773
804	-0.767
804	-0.78
804	-0.768
805	-0.775
805	-0.765
806	-0.769
806	-0.756
807	-0.753
807	-0.736
807	-0.722
808	-0.713
808	-0.709
809	-0.691
809	-0.702
810	-0.698
810	-0.69
810	-0.687
811	-0.692
811	-0.685
812	-0.687
812	-0.691
813	-0.695
813	-0.691
813	-0.698
814	-0.698
814	-0.702
815	-0.709
815	-0.71
816	-0.704
816	-0.708
817	-0.716
817	-0.733
817	-0.747
818	-0.754
818	-0.757
819	-0.751
819	-0.753
820	-0.761
820	-0.759
820	-0.769
821	-0.768
821	-0.756
822	-0.724
822	-0.7
823	-0.698
823	-0.701
823	-0.698
824	-0.694
824	-0.696
825	-0.689
825	-0.67
826	-0.665
826	-0.674
826	-0.684
827	-0.678
827	-0.675
828	-0.655
828	-0.654
829	-0.644
829	-0.63
829	-0.622
830	-0.632
830	-0.628
831	-0.619
831	-0.609
832	-0.61
832	-0.604
832	-0.611
833	-0.608
833	-0.611
834	-0.609
834	-0.617
835	-0.606
835	-0.601
835	-0.598
836	-0.595
836	-0.593
837	-0.591
837	-0.581
838	-0.571
838	-0.558
839	-0.545
839	-0.534
839	-0.524
840	-0.514
840	-0.511
841	-0.5
841	-0.491
842	-0.485
842	-0.475
842	-0.47
843	-0.465
843	-0.463
844	-0.453
844	-0.446
845	-0.438
845	-0.428
845	-0.415
846	-0.405
846	-0.39
847	-0.378
847	-0.365
848	-0.354
848	-0.343
848	-0.329
849	-0.319
849	-0.308
850	-0.296
850	-0.29
851	-0.283
851	-0.273
851	-0.266
852	-0.253
852	-0.24
853	-0.23
853	-0.225
854	-0.214
854	-0.203
854	-0.192
855	-0.182
855	-0.176
856	-0.167
856	-0.16
857	-0.155
857	-0.147
857	-0.137
858	-0.127
858	-0.122
859	-0.114
859	-0.105
860	-0.097
860	-0.085
860	-0.078
861	-0.071
861	-0.064
862	-0.058
862	-0.052
863	-0.047
863	-0.039
863	-0.035
864	-0.03
864	-0.025
865	-0.021
865	-0.017
866	-0.012
866	-0.009
866	-0.006
867	-0.003
867	0.001
868	0.002
868	0.005
869	0.007
869	0.009
869	0.01
870	0.012
870	0.015
871	0.017
871	0.019
872	0.021
872	0.022
872	0.023
873	0.023
873	0.024
874	0.024
874	0.023
875	0.023
875	0.022
875	0.021
876	0.019
876	0.018
877	0.017
877	0.016
878	0.014
878	0.012
878	0.011
879	0.009
879	0.008
880	0.008
880	0.008
881	0.008
881	0.008
881	0.008
882	0.007
882	0.006
883	0.005
883	0.004
884	0.003
884	0.002
884	0.001
885	0
885	0
886	0
886	-0
887	-0.001
887	-0
887	-0
888	0.001
888	0.001
889	0.002
889	0.003
890	0.003
890	0.003
890	0.003
891	0.004
891	0.004
892	0.005
892	0.005
893	0.005
893	0.005
893	0.006
894	0.005
894	0.005
895	0.005
895	0.005
895	0.005
896	0.004
896	0.004
897	0.003
897	0.002
898	0.001
898	0
898	0
899	0
899	0.001
900	0.001
900	0.001
901	0.002
901	0.003
901	0.004
902	0.005
902	0.006
903	0.007
903	0.007
904	0.008
904	0.008
904	0.008
905	0.009
905	0.01
906	0.01
906	0.01
907	0.01
907	0.01
907	0.01
908	0.009
908	0.009
909	0.008
909	0.008
910	0.008
910	0.007
910	0.007
911	0.007
911	0.008
912	0.008
912	0.009
913	0.01
913	0.011
913	0.012
914	0.013
914	0.013
915	0.014
915	0.014
916	0.014
916	0.014
916	0.015
917	0.015
917	0.015
918	0.014
918	0.014
918	0.013
919	0.013
919	0.013
920	0.013
920	0.013
921	0.013
921	0.013
921	0.012
922	0.012
922	0.012
923	0.012
923	0.011
924	0.011
924	0.011
924	0.01
925	0.009
925	0.009
926	0.008
926	0.007
927	0.007
927	0.006
927	0.006
928	0.006
928	0.006
929	0.005
929	0.005
930	0.005
930	0.004
930	0.004
931	0.003
931	0.003
932	0.003
932	0.002
933	0.002
933	0.001
933	-0.001
934	-0.002
934	-0.002
935	-0.003
935	-0.004
935	-0.005
936	-0.006
936	-0.007
937	-0.007
937	-0.008
938	-0.008
938	-0.008
938	-0.008
939	-0.007
939	-0.007
940	-0.006
940	-0.006
941	-0.005
941	-0.004
941	-0.003
942	-0.003
942	-0.002
943	-0.001
943	-0.001
944	-0.002
944	-0.002
944	-0.002
945	-0.002
945	-0.003
946	-0.004
946	-0.005
946	-0.006
947	-0.007
947	-0.008
948	-0.008
948	-0.008
949	-0.008
949	-0.008
949	-0.007
950	-0.007
950	-0.006
951	-0.005
951	-0.005
952	-0.004
952	-0.002
952	-0.001
953	-0
953	0.001
954	0.001
954	0.002
955	0.003
955	0.005
955	0.006
956	0.007
956	0.007
957	0.007
957	0.008
957	0.008
958	0.008
958	0.01
959	0.01
959	0.01
960	0.011
960	0.011
960	0.012
961	0.012
961	0.012
962	0.013
962	0.013
963	0.013
963	0.012
963	0.012
964	0.012
964	0.012
965	0.013
965	0.013
966	0.012
966	0.012
966	0.012
967	0.012
967	0.011
968	0.011
968	0.01
968	0.01
969	0.01
969	0.009
970	0.009
970	0.008
971	0.009
971	0.009
971	0.009
972	0.009
972	0.009
973	0.01
973	0.009
974	0.009
974	0.009
974	0.01
975	0.01
975	0.009
976	0.008
976	0.008
976	0.008
977	0.008
977	0.008
978	0.008
978	0.008
979	0.008
979	0.008
979	0.008
980	0.007
980	0.007
981	0.007
981	0.007
982	0.007
982	0.007
982	0.007
983	0.007
983	0.007
984	0.007
984	0.007
984	0.007
985	0.007
985	0.007
986	0.007
986	0.007
987	0.006
987	0.006
987	0.006
988	0.005
988	0.004
989	0.003
989	0.002
990	0.001
990	0
990	-0
991	-0.001
991	-0.001
992	-0.001
992	-0.002
992	-0.002
993	-0.002
993	-0.002
994	-0.002
994	-0.002
995	-0.002
995	-0.003
995	-0.003
996	-0.004
996	-0.004
997	-0.005
997	-0.005
997	-0.005
998	-0.005
998	-0.005
999	-0.005
999	-0.005
1000	-0.004
1000	-0.004
1000	-0.003
1001	-0.003
1001	-0.003
1002	-0.002
1002	-0.002
1003	-0.002
1003	-0.002
1003	-0.003
1004	-0.003
1004	-0.003
1005	-0.004
1005	-0.005
1005	-0.006
1006	-0.007
1006	-0.008
1007	-0.009
1007	-0.01
1008	-0.01
1008	-0.011
1008	-0.011
1009	-0.011
1009	-0.012
1010	-0.011
1010	-0.011
1010	-0.01
1011	-0.01
1011	-0.01
1012	-0.01
1012	-0.01
1013	-0.01
1013	-0.011
1013	-0.012
1014	-0.012
1014	-0.013
1015	-0.013
1015	-0.013
1016	-0.014
1016	-0.015
1016	-0.016
1017	-0.017
1017	-0.017
1018	-0.018
1018	-0.019
1018	-0.02
1019	-0.02
1019	-0.021
1020	-0.022
1020	-0.022
1021	-0.023
1021	-0.024
1021	-0.024
1022	-0.025
1022	-0.026
1023	-0.026
1023	-0.026
1023	-0.026
1024	-0.026
1024	-0.026
1025	-0.027
1025	-0.026
1026	-0.026
1026	-0.025
1026	-0.025
1027	-0.025
1027	-0.024
1028	-0.024
1028	-0.024
1028	-0.024
1029	-0.024
1029	-0.024
1030	-0.025
1030	-0.025
1031	-0.025
1031	-0.025
1031	-0.026
1032	-0.026
1032	-0.026
1033	-0.026
1033	-0.026
1033	-0.025
1034	-0.025
1034	-0.025
1035	-0.025
1035	-0.025
1036	-0.026
1036	-0.026
1036	-0.026
1037	-0.026
1037	-0.025
1038	-0.025
1038	-0.025
1039	-0.024
1039	-0.024
1039	-0.023
1040	-0.023
1040	-0.022
1041	-0.021
1041	-0.021
1041	-0.02
1042	-0.02
1042	-0.02
1043	-0.021
1043	-0.021
1044	-0.022
1044	-0.022
1044	-0.023
1045	-0.024
1045	-0.025
1046	-0.026
1046	-0.027
1046	-0.027
1047	-0.027
1047	-0.027
1048	-0.027
1048	-0.027
1049	-0.027
1049	-0.027
1049	-0.027
1050	-0.027
1050	-0.026
1051	-0.026
1051	-0.026
1051	-0.025
1052	-0.025
1052	-0.025
1053	-0.024
1053	-0.024
1053	-0.024
1054	-0.024
1054	-0.024
1055	-0.024
1055	-0.024
1056	-0.025
1056	-0.026
1056	-0.027
1057	-0.028
1057	-0.028
1058	-0.028
1058	-0.029
1058	-0.029
1059	-0.03
1059	-0.031
1060	-0.032
1060	-0.032
1061	-0.033
1061	-0.033
1061	-0.032
1062	-0.033
1062	-0.033
1063	-0.033
1063	-0.033
1063	-0.032
1064	-0.031
1064	-0.031
1065	-0.031
1065	-0.031
1066	-0.031
1066	-0.031
1066	-0.031
1067	-0.031
1067	-0.031
1068	-0.031
1068	-0.032
1068	-0.032
1069	-0.032
1069	-0.033
1070	-0.034
1070	-0.034
1071	-0.034
1071	-0.035
1071	-0.036
1072	-0.036
1072	-0.037
1073	-0.037
1073	-0.037
1073	-0.037
1074	-0.037
1074	-0.036
1075	-0.037
1075	-0.037
1076	-0.038
1076	-0.037
1076	-0.038
1077	-0.039
1077	-0.039
1078	-0.04
1078	-0.04
1078	-0.041
1079	-0.042
1079	-0.042
1080	-0.043
1080	-0.043
1080	-0.044
1081	-0.044
1081	-0.044
1082	-0.045
1082	-0.046
1083	-0.047
1083	-0.047
1083	-0.048
1084	-0.049
1084	-0.049
1085	-0.05
1085	-0.051
1085	-0.051
1086	-0.052
1086	-0.052
1087	-0.052
1087	-0.052
1088	-0.053
1088	-0.053
1088	-0.053
1089	-0.055
1089	-0.055
1090	-0.056
1090	-0.057
1090	-0.059
1091	-0.06
1091	-0.06
1092	-0.061
1092	-0.061
1092	-0.062
1093	-0.063
1093	-0.062
1094	-0.063
1094	-0.064
1095	-0.064
1095	-0.065
1095	-0.065
1096	-0.066
1096	-0.066
1097	-0.066
1097	-0.067
1097	-0.068
1098	-0.069
1098	-0.071
1099	-0.072
1099	-0.073
1100	-0.074
1100	-0.075
1100	-0.078
1101	-0.08
1101	-0.083
1102	-0.085
1102	-0.086
1102	-0.088
1103	-0.09
1103	-0.092
1104	-0.095
1104	-0.096
1104	-0.098
1105	-0.1
1105	-0.103
1106	-0.107
1106	-0.109
1107	-0.113
1107	-0.117
1107	-0.122
1108	-0.124
1108	-0.126
1109	-0.13
1109	-0.134
1109	-0.138
1110	-0.138
1110	-0.141
1111	-0.146
1111	-0.147
