Data from 17C_3.4A_35min_2sec_int_Absorbance__747__04832.txt Node

Date: Mon Jun 19 20:12:19 CEST 2023
User: Marek
Spectrometer: MAYP115816
Trigger mode: 0
Integration Time (sec): 2.500000E-1
Scans to average: 10
Electric dark correction enabled: true
Nonlinearity correction enabled: true
Boxcar width: 5
XAxis mode: Wavelengths
Number of Pixels in Spectrum: 2068
>>>>>Begin Spectral Data<<<<<
199	-0.811
199	-0.818
200	-0.719
200	-0.659
201	-0.621
201	-0.607
202	-0.59
202	-0.575
203	-0.567
203	-0.563
204	-0.547
204	-0.531
205	-0.508
205	-0.503
205	-0.503
206	-0.504
206	-0.508
207	-0.498
207	-0.501
208	-0.504
208	-0.502
209	-0.496
209	-0.497
210	-0.501
210	-0.507
211	-0.508
211	-0.509
212	-0.51
212	-0.518
213	-0.516
213	-0.515
213	-0.52
214	-0.515
214	-0.515
215	-0.515
215	-0.52
216	-0.525
216	-0.535
217	-0.531
217	-0.536
218	-0.539
218	-0.539
219	-0.543
219	-0.554
220	-0.56
220	-0.571
221	-0.57
221	-0.572
221	-0.563
222	-0.559
222	-0.559
223	-0.563
223	-0.565
224	-0.569
224	-0.571
225	-0.564
225	-0.558
226	-0.561
226	-0.562
227	-0.568
227	-0.579
228	-0.582
228	-0.581
229	-0.585
229	-0.577
229	-0.572
230	-0.577
230	-0.576
231	-0.572
231	-0.562
232	-0.558
232	-0.555
233	-0.549
233	-0.55
234	-0.546
234	-0.543
235	-0.545
235	-0.55
236	-0.551
236	-0.554
236	-0.562
237	-0.565
237	-0.569
238	-0.576
238	-0.573
239	-0.575
239	-0.585
240	-0.585
240	-0.583
241	-0.589
241	-0.587
242	-0.591
242	-0.589
243	-0.583
243	-0.585
243	-0.594
244	-0.594
244	-0.593
245	-0.607
245	-0.608
246	-0.613
246	-0.621
247	-0.624
247	-0.628
248	-0.635
248	-0.632
249	-0.635
249	-0.644
250	-0.64
250	-0.636
250	-0.636
251	-0.63
251	-0.63
252	-0.631
252	-0.62
253	-0.625
253	-0.636
254	-0.635
254	-0.632
255	-0.641
255	-0.635
256	-0.631
256	-0.646
257	-0.642
257	-0.64
258	-0.659
258	-0.656
258	-0.651
259	-0.648
259	-0.657
260	-0.657
260	-0.661
261	-0.674
261	-0.664
262	-0.661
262	-0.663
263	-0.651
263	-0.647
264	-0.647
264	-0.656
265	-0.651
265	-0.658
265	-0.662
266	-0.659
266	-0.657
267	-0.67
267	-0.677
268	-0.692
268	-0.702
269	-0.7
269	-0.694
270	-0.7
270	-0.703
271	-0.703
271	-0.709
272	-0.713
272	-0.707
272	-0.699
273	-0.699
273	-0.706
274	-0.71
274	-0.715
275	-0.715
275	-0.707
276	-0.712
276	-0.704
277	-0.708
277	-0.727
278	-0.739
278	-0.732
278	-0.726
279	-0.73
279	-0.74
280	-0.737
280	-0.737
281	-0.734
281	-0.742
282	-0.734
282	-0.735
283	-0.723
283	-0.726
284	-0.72
284	-0.71
285	-0.707
285	-0.704
285	-0.702
286	-0.711
286	-0.707
287	-0.705
287	-0.688
288	-0.683
288	-0.692
289	-0.707
289	-0.716
290	-0.704
290	-0.704
291	-0.702
291	-0.693
292	-0.694
292	-0.699
292	-0.704
293	-0.708
293	-0.695
294	-0.682
294	-0.672
295	-0.671
295	-0.666
296	-0.663
296	-0.661
297	-0.655
297	-0.639
298	-0.631
298	-0.639
298	-0.629
299	-0.622
299	-0.625
300	-0.619
300	-0.615
301	-0.612
301	-0.61
302	-0.618
302	-0.628
303	-0.613
303	-0.599
304	-0.601
304	-0.6
305	-0.601
305	-0.599
305	-0.597
306	-0.581
306	-0.577
307	-0.563
307	-0.564
308	-0.58
308	-0.577
309	-0.579
309	-0.568
310	-0.558
310	-0.554
311	-0.546
311	-0.554
311	-0.549
312	-0.546
312	-0.545
313	-0.528
313	-0.532
314	-0.531
314	-0.533
315	-0.533
315	-0.532
316	-0.53
316	-0.522
317	-0.515
317	-0.509
318	-0.496
318	-0.494
318	-0.488
319	-0.475
319	-0.47
320	-0.465
320	-0.465
321	-0.469
321	-0.467
322	-0.461
322	-0.456
323	-0.456
323	-0.45
324	-0.444
324	-0.436
324	-0.427
325	-0.415
325	-0.397
326	-0.381
326	-0.363
327	-0.347
327	-0.326
328	-0.3
328	-0.28
329	-0.256
329	-0.233
330	-0.206
330	-0.173
330	-0.145
331	-0.114
331	-0.084
332	-0.058
332	-0.034
333	-0.01
333	0.017
334	0.039
334	0.059
335	0.078
335	0.094
336	0.11
336	0.125
336	0.136
337	0.149
337	0.159
338	0.169
338	0.175
339	0.184
339	0.191
340	0.197
340	0.202
341	0.206
341	0.21
342	0.214
342	0.218
342	0.222
343	0.224
343	0.228
344	0.229
344	0.231
345	0.232
345	0.234
346	0.235
346	0.236
347	0.237
347	0.237
348	0.237
348	0.238
348	0.239
349	0.239
349	0.24
350	0.24
350	0.24
351	0.24
351	0.24
352	0.24
352	0.241
353	0.241
353	0.241
354	0.24
354	0.24
354	0.24
355	0.239
355	0.239
356	0.239
356	0.239
357	0.238
357	0.238
358	0.238
358	0.237
359	0.237
359	0.237
360	0.237
360	0.238
360	0.238
361	0.237
361	0.237
362	0.238
362	0.238
363	0.238
363	0.238
364	0.238
364	0.238
365	0.238
365	0.238
366	0.238
366	0.238
366	0.238
367	0.238
367	0.238
368	0.237
368	0.237
369	0.237
369	0.237
370	0.237
370	0.237
371	0.237
371	0.237
372	0.236
372	0.237
372	0.237
373	0.237
373	0.237
374	0.236
374	0.237
375	0.236
375	0.236
376	0.236
376	0.236
377	0.236
377	0.236
378	0.236
378	0.236
378	0.236
379	0.235
379	0.235
380	0.235
380	0.235
381	0.235
381	0.235
382	0.235
382	0.235
383	0.235
383	0.235
383	0.234
384	0.234
384	0.234
385	0.234
385	0.234
386	0.234
386	0.234
387	0.234
387	0.234
388	0.234
388	0.233
389	0.234
389	0.234
389	0.234
390	0.234
390	0.234
391	0.234
391	0.234
392	0.234
392	0.234
393	0.234
393	0.234
394	0.233
394	0.233
394	0.232
395	0.232
395	0.232
396	0.231
396	0.231
397	0.231
397	0.231
398	0.231
398	0.231
399	0.231
399	0.231
400	0.231
400	0.23
400	0.23
401	0.23
401	0.23
402	0.23
402	0.23
403	0.23
403	0.23
404	0.23
404	0.229
405	0.229
405	0.229
405	0.229
406	0.229
406	0.229
407	0.229
407	0.229
408	0.228
408	0.228
409	0.228
409	0.228
410	0.228
410	0.228
411	0.228
411	0.228
411	0.228
412	0.228
412	0.228
413	0.228
413	0.228
414	0.228
414	0.227
415	0.227
415	0.227
416	0.227
416	0.227
416	0.227
417	0.227
417	0.226
418	0.227
418	0.227
419	0.227
419	0.227
420	0.227
420	0.227
421	0.227
421	0.227
421	0.227
422	0.227
422	0.228
423	0.227
423	0.227
424	0.227
424	0.227
425	0.226
425	0.226
426	0.226
426	0.226
427	0.225
427	0.225
427	0.225
428	0.225
428	0.225
429	0.225
429	0.225
430	0.225
430	0.225
431	0.225
431	0.224
432	0.224
432	0.224
432	0.224
433	0.224
433	0.223
434	0.223
434	0.223
435	0.223
435	0.223
436	0.223
436	0.223
437	0.222
437	0.222
437	0.222
438	0.222
438	0.222
439	0.222
439	0.223
440	0.223
440	0.223
441	0.223
441	0.222
442	0.222
442	0.222
442	0.222
443	0.222
443	0.222
444	0.222
444	0.222
445	0.221
445	0.221
446	0.222
446	0.221
447	0.221
447	0.221
447	0.222
448	0.222
448	0.222
449	0.222
449	0.222
450	0.222
450	0.222
451	0.222
451	0.222
452	0.222
452	0.222
452	0.221
453	0.221
453	0.221
454	0.22
454	0.22
455	0.22
455	0.22
456	0.22
456	0.219
457	0.219
457	0.219
458	0.219
458	0.219
458	0.219
459	0.22
459	0.219
460	0.219
460	0.219
461	0.219
461	0.219
462	0.219
462	0.219
463	0.219
463	0.219
463	0.219
464	0.219
464	0.219
465	0.219
465	0.219
466	0.219
466	0.219
467	0.219
467	0.219
467	0.219
468	0.219
468	0.219
469	0.219
469	0.22
470	0.22
470	0.22
471	0.22
471	0.22
472	0.22
472	0.22
472	0.22
473	0.221
473	0.221
474	0.221
474	0.22
475	0.221
475	0.221
476	0.221
476	0.221
477	0.221
477	0.221
477	0.221
478	0.222
478	0.222
479	0.222
479	0.222
480	0.223
480	0.223
481	0.223
481	0.224
482	0.224
482	0.224
482	0.224
483	0.225
483	0.226
484	0.225
484	0.225
485	0.225
485	0.225
486	0.225
486	0.225
487	0.226
487	0.226
487	0.227
488	0.227
488	0.227
489	0.229
489	0.23
490	0.231
490	0.232
491	0.233
491	0.234
492	0.235
492	0.235
492	0.236
493	0.237
493	0.238
494	0.239
494	0.24
495	0.241
495	0.241
496	0.242
496	0.243
496	0.244
497	0.246
497	0.246
498	0.247
498	0.248
499	0.249
499	0.25
500	0.251
500	0.252
501	0.252
501	0.253
501	0.253
502	0.254
502	0.254
503	0.256
503	0.257
504	0.257
504	0.258
505	0.259
505	0.261
506	0.262
506	0.263
506	0.265
507	0.266
507	0.268
508	0.269
508	0.271
509	0.272
509	0.273
510	0.275
510	0.276
511	0.277
511	0.278
511	0.279
512	0.28
512	0.281
513	0.282
513	0.283
514	0.284
514	0.285
515	0.286
515	0.287
515	0.288
516	0.29
516	0.291
517	0.293
517	0.294
518	0.296
518	0.297
519	0.298
519	0.299
520	0.301
520	0.302
520	0.304
521	0.305
521	0.307
522	0.308
522	0.31
523	0.311
523	0.313
524	0.314
524	0.315
524	0.316
525	0.317
525	0.318
526	0.319
526	0.32
527	0.321
527	0.322
528	0.323
528	0.324
529	0.325
529	0.326
529	0.327
530	0.328
530	0.329
531	0.329
531	0.33
532	0.331
532	0.332
533	0.333
533	0.334
533	0.335
534	0.335
534	0.336
535	0.337
535	0.337
536	0.338
536	0.338
537	0.338
537	0.339
538	0.34
538	0.34
538	0.341
539	0.341
539	0.342
540	0.343
540	0.343
541	0.344
541	0.345
542	0.346
542	0.347
542	0.347
543	0.348
543	0.348
544	0.349
544	0.349
545	0.35
545	0.351
546	0.352
546	0.352
547	0.352
547	0.352
547	0.353
548	0.353
548	0.353
549	0.354
549	0.355
550	0.355
550	0.355
551	0.355
551	0.355
551	0.356
552	0.356
552	0.356
553	0.357
553	0.357
554	0.357
554	0.356
555	0.356
555	0.357
556	0.357
556	0.357
556	0.358
557	0.358
557	0.359
558	0.359
558	0.359
559	0.36
559	0.36
560	0.36
560	0.36
560	0.36
561	0.36
561	0.36
562	0.359
562	0.358
563	0.357
563	0.357
564	0.356
564	0.356
564	0.355
565	0.355
565	0.355
566	0.354
566	0.354
567	0.353
567	0.353
568	0.353
568	0.352
568	0.352
569	0.352
569	0.351
570	0.35
570	0.348
571	0.349
571	0.348
572	0.347
572	0.347
573	0.346
573	0.345
573	0.344
574	0.344
574	0.344
575	0.344
575	0.344
576	0.343
576	0.342
577	0.34
577	0.339
577	0.339
578	0.339
578	0.338
579	0.338
579	0.338
580	0.336
580	0.334
581	0.333
581	0.333
581	0.333
582	0.333
582	0.333
583	0.333
583	0.332
584	0.33
584	0.329
585	0.33
585	0.331
585	0.33
586	0.33
586	0.33
587	0.329
587	0.328
588	0.327
588	0.326
589	0.326
589	0.326
590	0.326
590	0.325
590	0.326
591	0.326
591	0.324
592	0.324
592	0.323
593	0.322
593	0.322
594	0.321
594	0.321
594	0.321
595	0.321
595	0.321
596	0.321
596	0.322
597	0.324
597	0.323
598	0.322
598	0.322
598	0.322
599	0.321
599	0.319
600	0.318
600	0.317
601	0.316
601	0.314
602	0.312
602	0.312
602	0.311
603	0.31
603	0.31
604	0.31
604	0.309
605	0.309
605	0.309
606	0.308
606	0.306
606	0.306
607	0.305
607	0.305
608	0.303
608	0.302
609	0.302
609	0.302
610	0.302
610	0.302
610	0.303
611	0.304
611	0.305
612	0.306
612	0.307
613	0.307
613	0.307
614	0.306
614	0.305
614	0.305
615	0.304
615	0.303
616	0.302
616	0.301
617	0.3
617	0.298
618	0.298
618	0.297
618	0.297
619	0.297
619	0.297
620	0.298
620	0.297
621	0.297
621	0.297
622	0.297
622	0.296
622	0.296
623	0.295
623	0.296
624	0.296
624	0.295
625	0.295
625	0.295
626	0.295
626	0.295
626	0.296
627	0.296
627	0.296
628	0.296
628	0.295
629	0.295
629	0.295
630	0.294
630	0.294
630	0.294
631	0.294
631	0.293
632	0.292
632	0.292
633	0.292
633	0.291
634	0.291
634	0.291
634	0.29
635	0.288
635	0.287
636	0.287
636	0.286
637	0.285
637	0.284
638	0.283
638	0.283
638	0.282
639	0.281
639	0.28
640	0.28
640	0.28
641	0.279
641	0.279
642	0.279
642	0.278
642	0.278
643	0.277
643	0.276
644	0.275
644	0.274
645	0.273
645	0.271
646	0.27
646	0.268
646	0.266
647	0.264
647	0.261
648	0.259
648	0.256
649	0.252
649	0.248
650	0.244
650	0.239
650	0.233
651	0.226
651	0.218
652	0.208
652	0.198
653	0.19
653	0.18
653	0.179
654	0.178
654	0.171
655	0.163
655	0.156
656	0.149
656	0.14
657	0.134
657	0.128
657	0.12
658	0.114
658	0.092
659	0.037
659	-0.022
660	-0.055
660	-0.076
661	-0.098
661	-0.12
661	-0.142
662	-0.161
662	-0.178
663	-0.192
663	-0.212
664	-0.223
664	-0.247
665	-0.258
665	-0.274
665	-0.287
666	-0.294
666	-0.303
667	-0.309
667	-0.315
668	-0.328
668	-0.344
669	-0.353
669	-0.344
669	-0.312
670	-0.127
670	-0
671	-0
671	-0
672	-0
672	-0
672	-0
673	-0
673	-0
674	-0
674	-0
675	-0
675	-0
676	-0
676	-0
676	-0.186
677	-0.515
677	-0.537
678	-0.551
678	-0.549
679	-0.549
679	-0.562
680	-0.575
680	-0.579
680	-0.582
681	-0.603
681	-0.597
682	-0.61
682	-0.612
683	-0.612
683	-0.637
684	-0.651
684	-0.663
684	-0.671
685	-0.676
685	-0.679
686	-0.674
686	-0.679
687	-0.675
687	-0.684
687	-0.682
688	-0.669
688	-0.664
689	-0.656
689	-0.654
690	-0.642
690	-0.638
691	-0.641
691	-0.653
691	-0.675
692	-0.675
692	-0.674
693	-0.676
693	-0.69
694	-0.689
694	-0.687
695	-0.699
695	-0.702
695	-0.69
696	-0.693
696	-0.675
697	-0.677
697	-0.697
698	-0.703
698	-0.696
698	-0.717
699	-0.721
699	-0.721
700	-0.718
700	-0.736
701	-0.736
701	-0.745
702	-0.747
702	-0.736
702	-0.729
703	-0.723
703	-0.716
704	-0.715
704	-0.715
705	-0.728
705	-0.723
705	-0.711
706	-0.714
706	-0.709
707	-0.717
707	-0.714
708	-0.715
708	-0.707
709	-0.712
709	-0.718
709	-0.708
710	-0.719
710	-0.729
711	-0.72
711	-0.725
712	-0.724
712	-0.739
713	-0.738
713	-0.748
713	-0.738
714	-0.736
714	-0.739
715	-0.729
715	-0.718
716	-0.727
716	-0.729
716	-0.724
717	-0.723
717	-0.725
718	-0.715
718	-0.718
719	-0.725
719	-0.727
720	-0.724
720	-0.733
720	-0.728
721	-0.717
721	-0.717
722	-0.708
722	-0.7
723	-0.698
723	-0.703
723	-0.69
724	-0.693
724	-0.699
725	-0.698
725	-0.707
726	-0.721
726	-0.727
727	-0.729
727	-0.743
727	-0.751
728	-0.752
728	-0.758
729	-0.758
729	-0.762
730	-0.77
730	-0.763
730	-0.752
731	-0.734
731	-0.747
732	-0.754
732	-0.756
733	-0.756
733	-0.763
734	-0.758
734	-0.76
734	-0.747
735	-0.745
735	-0.748
736	-0.757
736	-0.743
737	-0.734
737	-0.734
737	-0.743
738	-0.737
738	-0.736
739	-0.732
739	-0.746
740	-0.746
740	-0.746
741	-0.744
741	-0.746
741	-0.751
742	-0.749
742	-0.749
743	-0.758
743	-0.764
744	-0.763
744	-0.752
744	-0.754
745	-0.761
745	-0.753
746	-0.753
746	-0.75
747	-0.752
747	-0.74
748	-0.728
748	-0.735
748	-0.736
749	-0.734
749	-0.735
750	-0.723
750	-0.726
751	-0.729
751	-0.738
751	-0.741
752	-0.745
752	-0.755
753	-0.747
753	-0.744
754	-0.749
754	-0.744
754	-0.761
755	-0.777
755	-0.788
756	-0.779
756	-0.776
757	-0.773
757	-0.768
758	-0.772
758	-0.772
758	-0.774
759	-0.782
759	-0.766
760	-0.758
760	-0.754
761	-0.762
761	-0.759
761	-0.758
762	-0.766
762	-0.763
763	-0.772
763	-0.77
764	-0.766
764	-0.772
764	-0.779
765	-0.768
765	-0.754
766	-0.762
766	-0.769
767	-0.786
767	-0.78
768	-0.771
768	-0.779
768	-0.784
769	-0.801
769	-0.801
770	-0.806
770	-0.821
771	-0.818
771	-0.821
771	-0.822
772	-0.828
772	-0.827
773	-0.826
773	-0.819
774	-0.819
774	-0.82
775	-0.823
775	-0.816
775	-0.822
776	-0.82
776	-0.807
777	-0.813
777	-0.83
778	-0.827
778	-0.849
778	-0.834
779	-0.857
779	-0.864
780	-0.877
780	-0.875
781	-0.888
781	-0.882
781	-0.897
782	-0.897
782	-0.9
783	-0.885
783	-0.883
784	-0.863
784	-0.854
784	-0.865
785	-0.871
785	-0.858
786	-0.867
786	-0.847
787	-0.834
787	-0.837
788	-0.841
788	-0.854
788	-0.866
789	-0.867
789	-0.851
790	-0.833
790	-0.834
791	-0.834
791	-0.853
791	-0.86
792	-0.855
792	-0.833
793	-0.821
793	-0.799
794	-0.806
794	-0.797
794	-0.808
795	-0.805
795	-0.798
796	-0.781
796	-0.789
797	-0.782
797	-0.795
797	-0.801
798	-0.813
798	-0.805
799	-0.814
799	-0.798
800	-0.805
800	-0.797
801	-0.803
801	-0.787
801	-0.798
802	-0.805
802	-0.805
803	-0.807
803	-0.814
804	-0.81
804	-0.823
804	-0.81
805	-0.816
805	-0.805
806	-0.809
806	-0.792
807	-0.788
807	-0.772
807	-0.76
808	-0.751
808	-0.744
809	-0.727
809	-0.736
810	-0.734
810	-0.726
810	-0.723
811	-0.73
811	-0.724
812	-0.726
812	-0.729
813	-0.733
813	-0.73
813	-0.738
814	-0.742
814	-0.746
815	-0.749
815	-0.754
816	-0.747
816	-0.751
817	-0.757
817	-0.775
817	-0.791
818	-0.798
818	-0.799
819	-0.787
819	-0.789
820	-0.802
820	-0.797
820	-0.808
821	-0.807
821	-0.795
822	-0.764
822	-0.739
823	-0.737
823	-0.74
823	-0.738
824	-0.731
824	-0.73
825	-0.722
825	-0.701
826	-0.695
826	-0.702
826	-0.713
827	-0.708
827	-0.703
828	-0.683
828	-0.683
829	-0.673
829	-0.66
829	-0.652
830	-0.664
830	-0.66
831	-0.651
831	-0.64
832	-0.638
832	-0.63
832	-0.636
833	-0.632
833	-0.634
834	-0.632
834	-0.641
835	-0.627
835	-0.621
835	-0.616
836	-0.613
836	-0.61
837	-0.608
837	-0.596
838	-0.586
838	-0.573
839	-0.559
839	-0.546
839	-0.536
840	-0.525
840	-0.522
841	-0.51
841	-0.501
842	-0.494
842	-0.486
842	-0.479
843	-0.472
843	-0.468
844	-0.457
844	-0.449
845	-0.438
845	-0.428
845	-0.412
846	-0.401
846	-0.385
847	-0.372
847	-0.36
848	-0.347
848	-0.333
848	-0.317
849	-0.304
849	-0.293
850	-0.277
850	-0.271
851	-0.261
851	-0.25
851	-0.24
852	-0.222
852	-0.209
853	-0.2
853	-0.192
854	-0.179
854	-0.166
854	-0.154
855	-0.142
855	-0.134
856	-0.122
856	-0.112
857	-0.105
857	-0.094
857	-0.079
858	-0.066
858	-0.058
859	-0.048
859	-0.035
860	-0.024
860	-0.007
860	0.003
861	0.013
861	0.024
862	0.033
862	0.04
863	0.048
863	0.058
863	0.064
864	0.068
864	0.075
865	0.081
865	0.087
866	0.093
866	0.098
866	0.102
867	0.107
867	0.112
868	0.116
868	0.122
869	0.126
869	0.129
869	0.132
870	0.135
870	0.139
871	0.142
871	0.144
872	0.145
872	0.146
872	0.147
873	0.148
873	0.147
874	0.147
874	0.147
875	0.146
875	0.145
875	0.144
876	0.143
876	0.142
877	0.141
877	0.14
878	0.139
878	0.138
878	0.137
879	0.136
879	0.135
880	0.135
880	0.134
881	0.134
881	0.134
881	0.133
882	0.133
882	0.132
883	0.131
883	0.131
884	0.131
884	0.13
884	0.129
885	0.129
885	0.128
886	0.127
886	0.126
887	0.124
887	0.124
887	0.123
888	0.123
888	0.122
889	0.122
889	0.121
890	0.121
890	0.12
890	0.118
891	0.117
891	0.116
892	0.116
892	0.116
893	0.115
893	0.116
893	0.116
894	0.115
894	0.115
895	0.115
895	0.115
895	0.115
896	0.114
896	0.113
897	0.113
897	0.112
898	0.111
898	0.11
898	0.111
899	0.11
899	0.111
900	0.111
900	0.111
901	0.112
901	0.113
901	0.114
902	0.115
902	0.116
903	0.117
903	0.118
904	0.119
904	0.12
904	0.121
905	0.123
905	0.124
906	0.125
906	0.126
907	0.127
907	0.128
907	0.129
908	0.129
908	0.13
909	0.13
909	0.13
910	0.13
910	0.129
910	0.129
911	0.129
911	0.128
912	0.128
912	0.128
913	0.127
913	0.127
913	0.126
914	0.125
914	0.125
915	0.124
915	0.123
916	0.122
916	0.121
916	0.121
917	0.12
917	0.12
918	0.119
918	0.119
918	0.119
919	0.118
919	0.119
920	0.118
920	0.118
921	0.118
921	0.118
921	0.117
922	0.116
922	0.116
923	0.115
923	0.114
924	0.113
924	0.113
924	0.112
925	0.111
925	0.11
926	0.109
926	0.108
927	0.108
927	0.107
927	0.106
928	0.106
928	0.105
929	0.104
929	0.103
930	0.102
930	0.101
930	0.1
931	0.099
931	0.099
932	0.098
932	0.097
933	0.097
933	0.096
933	0.094
934	0.093
934	0.092
935	0.091
935	0.09
935	0.089
936	0.088
936	0.087
937	0.085
937	0.085
938	0.084
938	0.084
938	0.084
939	0.084
939	0.085
940	0.086
940	0.086
941	0.086
941	0.087
941	0.087
942	0.087
942	0.087
943	0.086
943	0.086
944	0.085
944	0.084
944	0.084
945	0.083
945	0.083
946	0.083
946	0.082
946	0.082
947	0.082
947	0.082
948	0.082
948	0.082
949	0.082
949	0.082
949	0.082
950	0.083
950	0.082
951	0.082
951	0.081
952	0.081
952	0.08
952	0.08
953	0.079
953	0.079
954	0.078
954	0.078
955	0.078
955	0.079
955	0.078
956	0.079
956	0.079
957	0.079
957	0.08
957	0.08
958	0.08
958	0.08
959	0.081
959	0.081
960	0.081
960	0.081
960	0.081
961	0.081
961	0.082
962	0.082
962	0.082
963	0.083
963	0.083
963	0.083
964	0.083
964	0.083
965	0.083
965	0.083
966	0.083
966	0.084
966	0.084
967	0.084
967	0.084
968	0.084
968	0.084
968	0.085
969	0.086
969	0.086
970	0.087
970	0.088
971	0.09
971	0.091
971	0.092
972	0.093
972	0.094
973	0.095
973	0.095
974	0.096
974	0.096
974	0.095
975	0.095
975	0.094
976	0.093
976	0.092
976	0.091
977	0.09
977	0.089
978	0.088
978	0.088
979	0.087
979	0.086
979	0.086
980	0.085
980	0.085
981	0.084
981	0.084
982	0.084
982	0.083
982	0.082
983	0.082
983	0.081
984	0.08
984	0.08
984	0.08
985	0.08
985	0.079
986	0.079
986	0.079
987	0.079
987	0.079
987	0.079
988	0.079
988	0.079
989	0.078
989	0.078
990	0.077
990	0.077
990	0.076
991	0.075
991	0.075
992	0.074
992	0.074
992	0.074
993	0.074
993	0.074
994	0.074
994	0.074
995	0.074
995	0.075
995	0.075
996	0.075
996	0.075
997	0.076
997	0.077
997	0.077
998	0.078
998	0.078
999	0.079
999	0.079
1000	0.08
1000	0.08
1000	0.08
1001	0.08
1001	0.08
1002	0.08
1002	0.08
1003	0.08
1003	0.079
1003	0.078
1004	0.077
1004	0.076
1005	0.075
1005	0.073
1005	0.072
1006	0.071
1006	0.069
1007	0.068
1007	0.067
1008	0.067
1008	0.066
1008	0.066
1009	0.066
1009	0.066
1010	0.067
1010	0.067
1010	0.067
1011	0.067
1011	0.067
1012	0.067
1012	0.066
1013	0.066
1013	0.065
1013	0.064
1014	0.064
1014	0.064
1015	0.064
1015	0.064
1016	0.063
1016	0.064
1016	0.063
1017	0.063
1017	0.064
1018	0.064
1018	0.063
1018	0.063
1019	0.063
1019	0.062
1020	0.061
1020	0.061
1021	0.06
1021	0.059
1021	0.059
1022	0.058
1022	0.057
1023	0.057
1023	0.056
1023	0.056
1024	0.056
1024	0.055
1025	0.055
1025	0.055
1026	0.055
1026	0.056
1026	0.056
1027	0.056
1027	0.057
1028	0.057
1028	0.057
1028	0.058
1029	0.058
1029	0.059
1030	0.059
1030	0.059
1031	0.06
1031	0.061
1031	0.061
1032	0.062
1032	0.063
1033	0.064
1033	0.065
1033	0.066
1034	0.066
1034	0.067
1035	0.068
1035	0.068
1036	0.068
1036	0.068
1036	0.068
1037	0.068
1037	0.068
1038	0.067
1038	0.068
1039	0.068
1039	0.068
1039	0.067
1040	0.067
1040	0.068
1041	0.068
1041	0.068
1041	0.068
1042	0.068
1042	0.068
1043	0.067
1043	0.067
1044	0.067
1044	0.067
1044	0.067
1045	0.066
1045	0.066
1046	0.065
1046	0.065
1046	0.065
1047	0.065
1047	0.066
1048	0.066
1048	0.065
1049	0.065
1049	0.065
1049	0.065
1050	0.065
1050	0.065
1051	0.064
1051	0.064
1051	0.063
1052	0.063
1052	0.062
1053	0.062
1053	0.061
1053	0.061
1054	0.06
1054	0.059
1055	0.059
1055	0.058
1056	0.056
1056	0.055
1056	0.054
1057	0.053
1057	0.052
1058	0.051
1058	0.05
1058	0.049
1059	0.048
1059	0.047
1060	0.046
1060	0.046
1061	0.046
1061	0.046
1061	0.046
1062	0.045
1062	0.045
1063	0.045
1063	0.045
1063	0.045
1064	0.046
1064	0.046
1065	0.045
1065	0.045
1066	0.045
1066	0.045
1066	0.045
1067	0.046
1067	0.046
1068	0.046
1068	0.045
1068	0.045
1069	0.046
1069	0.046
1070	0.046
1070	0.046
1071	0.046
1071	0.047
1071	0.046
1072	0.047
1072	0.047
1073	0.047
1073	0.047
1073	0.047
1074	0.047
1074	0.048
1075	0.047
1075	0.047
1076	0.046
1076	0.046
1076	0.045
1077	0.044
1077	0.043
1078	0.042
1078	0.041
1078	0.04
1079	0.039
1079	0.038
1080	0.037
1080	0.036
1080	0.035
1081	0.033
1081	0.032
1082	0.031
1082	0.03
1083	0.029
1083	0.027
1083	0.026
1084	0.025
1084	0.023
1085	0.021
1085	0.02
1085	0.019
1086	0.018
1086	0.017
1087	0.016
1087	0.016
1088	0.014
1088	0.013
1088	0.013
1089	0.012
1089	0.011
1090	0.01
1090	0.009
1090	0.008
1091	0.007
1091	0.007
1092	0.006
1092	0.006
1092	0.005
1093	0.004
1093	0.005
1094	0.005
1094	0.004
1095	0.003
1095	0.003
1095	0.002
1096	0.001
1096	-0.001
1097	-0.001
1097	-0.003
1097	-0.004
1098	-0.006
1098	-0.009
1099	-0.01
1099	-0.011
1100	-0.013
1100	-0.015
1100	-0.017
1101	-0.021
1101	-0.024
1102	-0.026
1102	-0.029
1102	-0.03
1103	-0.033
1103	-0.035
1104	-0.039
1104	-0.041
1104	-0.044
1105	-0.046
1105	-0.048
1106	-0.053
1106	-0.056
1107	-0.061
1107	-0.065
1107	-0.072
1108	-0.074
1108	-0.076
1109	-0.081
1109	-0.085
1109	-0.089
1110	-0.092
1110	-0.095
1111	-0.102
1111	-0.1
