Data from 17C_3.4A_35min_2sec_int_Absorbance__467__04552.txt Node

Date: Mon Jun 19 20:00:39 CEST 2023
User: Marek
Spectrometer: MAYP115816
Trigger mode: 0
Integration Time (sec): 2.500000E-1
Scans to average: 10
Electric dark correction enabled: true
Nonlinearity correction enabled: true
Boxcar width: 5
XAxis mode: Wavelengths
Number of Pixels in Spectrum: 2068
>>>>>Begin Spectral Data<<<<<
199	-0.754
199	-0.77
200	-0.676
200	-0.619
201	-0.583
201	-0.57
202	-0.554
202	-0.54
203	-0.531
203	-0.528
204	-0.511
204	-0.497
205	-0.474
205	-0.467
205	-0.466
206	-0.468
206	-0.471
207	-0.462
207	-0.464
208	-0.466
208	-0.463
209	-0.46
209	-0.46
210	-0.464
210	-0.471
211	-0.473
211	-0.476
212	-0.478
212	-0.488
213	-0.486
213	-0.485
213	-0.491
214	-0.487
214	-0.487
215	-0.485
215	-0.49
216	-0.494
216	-0.5
217	-0.496
217	-0.499
218	-0.501
218	-0.5
219	-0.504
219	-0.515
220	-0.52
220	-0.531
221	-0.529
221	-0.531
221	-0.525
222	-0.521
222	-0.522
223	-0.527
223	-0.532
224	-0.533
224	-0.533
225	-0.528
225	-0.525
226	-0.53
226	-0.531
227	-0.535
227	-0.545
228	-0.547
228	-0.548
229	-0.549
229	-0.544
229	-0.539
230	-0.542
230	-0.543
231	-0.536
231	-0.527
232	-0.523
232	-0.519
233	-0.513
233	-0.513
234	-0.51
234	-0.508
235	-0.513
235	-0.52
236	-0.519
236	-0.524
236	-0.53
237	-0.537
237	-0.538
238	-0.546
238	-0.543
239	-0.542
239	-0.551
240	-0.548
240	-0.545
241	-0.551
241	-0.548
242	-0.551
242	-0.546
243	-0.542
243	-0.543
243	-0.554
244	-0.555
244	-0.555
245	-0.571
245	-0.571
246	-0.575
246	-0.583
247	-0.586
247	-0.591
248	-0.597
248	-0.595
249	-0.595
249	-0.605
250	-0.602
250	-0.596
250	-0.597
251	-0.592
251	-0.591
252	-0.593
252	-0.583
253	-0.588
253	-0.599
254	-0.598
254	-0.593
255	-0.6
255	-0.593
256	-0.591
256	-0.602
257	-0.599
257	-0.598
258	-0.615
258	-0.612
258	-0.606
259	-0.601
259	-0.612
260	-0.613
260	-0.619
261	-0.628
261	-0.62
262	-0.619
262	-0.618
263	-0.605
263	-0.601
264	-0.603
264	-0.611
265	-0.605
265	-0.61
265	-0.612
266	-0.61
266	-0.608
267	-0.621
267	-0.629
268	-0.644
268	-0.654
269	-0.651
269	-0.643
270	-0.651
270	-0.655
271	-0.655
271	-0.662
272	-0.665
272	-0.657
272	-0.65
273	-0.649
273	-0.657
274	-0.663
274	-0.67
275	-0.669
275	-0.664
276	-0.672
276	-0.665
277	-0.669
277	-0.688
278	-0.699
278	-0.694
278	-0.688
279	-0.693
279	-0.702
280	-0.7
280	-0.699
281	-0.693
281	-0.7
282	-0.692
282	-0.692
283	-0.682
283	-0.681
284	-0.678
284	-0.664
285	-0.662
285	-0.659
285	-0.654
286	-0.661
286	-0.654
287	-0.654
287	-0.637
288	-0.63
288	-0.64
289	-0.651
289	-0.662
290	-0.652
290	-0.651
291	-0.651
291	-0.644
292	-0.648
292	-0.653
292	-0.659
293	-0.664
293	-0.652
294	-0.642
294	-0.632
295	-0.629
295	-0.626
296	-0.622
296	-0.617
297	-0.61
297	-0.594
298	-0.585
298	-0.596
298	-0.584
299	-0.576
299	-0.578
300	-0.572
300	-0.567
301	-0.563
301	-0.565
302	-0.573
302	-0.582
303	-0.569
303	-0.554
304	-0.557
304	-0.557
305	-0.556
305	-0.557
305	-0.554
306	-0.539
306	-0.532
307	-0.518
307	-0.519
308	-0.533
308	-0.531
309	-0.531
309	-0.52
310	-0.509
310	-0.504
311	-0.497
311	-0.505
311	-0.502
312	-0.498
312	-0.496
313	-0.481
313	-0.485
314	-0.483
314	-0.485
315	-0.487
315	-0.486
316	-0.482
316	-0.472
317	-0.463
317	-0.458
318	-0.447
318	-0.443
318	-0.438
319	-0.426
319	-0.423
320	-0.415
320	-0.417
321	-0.422
321	-0.42
322	-0.417
322	-0.412
323	-0.409
323	-0.405
324	-0.397
324	-0.389
324	-0.378
325	-0.367
325	-0.347
326	-0.331
326	-0.314
327	-0.297
327	-0.275
328	-0.249
328	-0.228
329	-0.203
329	-0.177
330	-0.148
330	-0.114
330	-0.085
331	-0.053
331	-0.022
332	0.008
332	0.034
333	0.06
333	0.088
334	0.111
334	0.131
335	0.151
335	0.167
336	0.184
336	0.199
336	0.211
337	0.225
337	0.235
338	0.245
338	0.252
339	0.261
339	0.268
340	0.274
340	0.279
341	0.284
341	0.288
342	0.293
342	0.297
342	0.301
343	0.303
343	0.307
344	0.309
344	0.311
345	0.313
345	0.314
346	0.315
346	0.316
347	0.316
347	0.317
348	0.318
348	0.319
348	0.319
349	0.319
349	0.319
350	0.32
350	0.32
351	0.32
351	0.32
352	0.321
352	0.321
353	0.321
353	0.32
354	0.32
354	0.32
354	0.32
355	0.319
355	0.319
356	0.319
356	0.318
357	0.317
357	0.316
358	0.316
358	0.316
359	0.316
359	0.316
360	0.316
360	0.316
360	0.315
361	0.315
361	0.315
362	0.315
362	0.315
363	0.315
363	0.315
364	0.315
364	0.314
365	0.314
365	0.314
366	0.314
366	0.313
366	0.314
367	0.314
367	0.313
368	0.313
368	0.313
369	0.312
369	0.312
370	0.312
370	0.312
371	0.311
371	0.311
372	0.311
372	0.31
372	0.31
373	0.31
373	0.31
374	0.31
374	0.31
375	0.309
375	0.309
376	0.309
376	0.309
377	0.309
377	0.308
378	0.308
378	0.308
378	0.308
379	0.307
379	0.307
380	0.307
380	0.306
381	0.306
381	0.305
382	0.305
382	0.305
383	0.304
383	0.304
383	0.304
384	0.303
384	0.303
385	0.303
385	0.303
386	0.303
386	0.302
387	0.302
387	0.302
388	0.302
388	0.302
389	0.302
389	0.302
389	0.301
390	0.301
390	0.301
391	0.301
391	0.301
392	0.301
392	0.3
393	0.3
393	0.299
394	0.299
394	0.299
394	0.298
395	0.298
395	0.297
396	0.297
396	0.296
397	0.296
397	0.296
398	0.296
398	0.296
399	0.296
399	0.296
400	0.295
400	0.295
400	0.295
401	0.295
401	0.294
402	0.294
402	0.294
403	0.293
403	0.293
404	0.293
404	0.293
405	0.292
405	0.292
405	0.292
406	0.292
406	0.291
407	0.291
407	0.291
408	0.291
408	0.291
409	0.291
409	0.29
410	0.291
410	0.291
411	0.29
411	0.29
411	0.29
412	0.29
412	0.29
413	0.29
413	0.29
414	0.289
414	0.289
415	0.289
415	0.288
416	0.288
416	0.288
416	0.288
417	0.287
417	0.287
418	0.287
418	0.287
419	0.287
419	0.287
420	0.287
420	0.287
421	0.287
421	0.287
421	0.286
422	0.286
422	0.286
423	0.286
423	0.286
424	0.285
424	0.285
425	0.285
425	0.284
426	0.284
426	0.284
427	0.284
427	0.284
427	0.283
428	0.283
428	0.283
429	0.283
429	0.283
430	0.283
430	0.283
431	0.283
431	0.282
432	0.282
432	0.282
432	0.282
433	0.282
433	0.282
434	0.282
434	0.282
435	0.282
435	0.281
436	0.281
436	0.281
437	0.281
437	0.281
437	0.281
438	0.281
438	0.281
439	0.281
439	0.281
440	0.281
440	0.281
441	0.281
441	0.281
442	0.281
442	0.281
442	0.281
443	0.28
443	0.281
444	0.281
444	0.281
445	0.28
445	0.28
446	0.281
446	0.281
447	0.281
447	0.281
447	0.281
448	0.282
448	0.282
449	0.282
449	0.282
450	0.282
450	0.282
451	0.282
451	0.282
452	0.282
452	0.282
452	0.282
453	0.282
453	0.282
454	0.282
454	0.282
455	0.282
455	0.282
456	0.282
456	0.282
457	0.282
457	0.282
458	0.282
458	0.282
458	0.282
459	0.282
459	0.282
460	0.282
460	0.282
461	0.283
461	0.283
462	0.283
462	0.283
463	0.284
463	0.284
463	0.284
464	0.284
464	0.284
465	0.285
465	0.285
466	0.286
466	0.286
467	0.286
467	0.287
467	0.287
468	0.287
468	0.287
469	0.288
469	0.289
470	0.289
470	0.29
471	0.29
471	0.29
472	0.29
472	0.291
472	0.292
473	0.292
473	0.293
474	0.293
474	0.294
475	0.295
475	0.295
476	0.296
476	0.297
477	0.297
477	0.298
477	0.298
478	0.299
478	0.3
479	0.301
479	0.302
480	0.302
480	0.303
481	0.304
481	0.305
482	0.306
482	0.307
482	0.307
483	0.309
483	0.31
484	0.31
484	0.311
485	0.312
485	0.313
486	0.314
486	0.315
487	0.316
487	0.318
487	0.319
488	0.32
488	0.322
489	0.324
489	0.326
490	0.328
490	0.33
491	0.331
491	0.333
492	0.334
492	0.336
492	0.338
493	0.339
493	0.341
494	0.343
494	0.345
495	0.346
495	0.348
496	0.35
496	0.352
496	0.354
497	0.356
497	0.359
498	0.36
498	0.363
499	0.365
499	0.367
500	0.37
500	0.372
501	0.374
501	0.376
501	0.378
502	0.38
502	0.383
503	0.385
503	0.387
504	0.39
504	0.392
505	0.395
505	0.397
506	0.4
506	0.402
506	0.404
507	0.406
507	0.409
508	0.411
508	0.413
509	0.415
509	0.418
510	0.42
510	0.422
511	0.425
511	0.427
511	0.429
512	0.432
512	0.434
513	0.436
513	0.439
514	0.441
514	0.444
515	0.446
515	0.447
515	0.449
516	0.452
516	0.454
517	0.456
517	0.458
518	0.46
518	0.461
519	0.463
519	0.464
520	0.467
520	0.469
520	0.47
521	0.472
521	0.473
522	0.475
522	0.476
523	0.478
523	0.479
524	0.481
524	0.481
524	0.482
525	0.483
525	0.483
526	0.484
526	0.485
527	0.485
527	0.486
528	0.486
528	0.486
529	0.486
529	0.487
529	0.487
530	0.487
530	0.488
531	0.487
531	0.487
532	0.486
532	0.486
533	0.486
533	0.485
533	0.484
534	0.483
534	0.482
535	0.481
535	0.48
536	0.478
536	0.477
537	0.476
537	0.474
538	0.473
538	0.471
538	0.47
539	0.468
539	0.467
540	0.466
540	0.464
541	0.462
541	0.461
542	0.46
542	0.458
542	0.455
543	0.453
543	0.451
544	0.449
544	0.447
545	0.445
545	0.443
546	0.441
546	0.438
547	0.436
547	0.433
547	0.431
548	0.429
548	0.427
549	0.425
549	0.423
550	0.421
550	0.419
551	0.416
551	0.415
551	0.413
552	0.411
552	0.41
553	0.408
553	0.406
554	0.404
554	0.401
555	0.399
555	0.397
556	0.394
556	0.392
556	0.389
557	0.387
557	0.385
558	0.382
558	0.38
559	0.377
559	0.375
560	0.373
560	0.37
560	0.368
561	0.366
561	0.364
562	0.361
562	0.359
563	0.357
563	0.355
564	0.353
564	0.351
564	0.349
565	0.347
565	0.345
566	0.343
566	0.341
567	0.339
567	0.337
568	0.335
568	0.333
568	0.33
569	0.328
569	0.326
570	0.323
570	0.32
571	0.319
571	0.317
572	0.315
572	0.313
573	0.311
573	0.309
573	0.307
574	0.306
574	0.305
575	0.303
575	0.303
576	0.301
576	0.299
577	0.297
577	0.296
577	0.296
578	0.295
578	0.294
579	0.293
579	0.292
580	0.29
580	0.287
581	0.285
581	0.284
581	0.283
582	0.283
582	0.282
583	0.281
583	0.28
584	0.278
584	0.276
585	0.276
585	0.276
585	0.275
586	0.274
586	0.273
587	0.271
587	0.27
588	0.268
588	0.268
589	0.267
589	0.266
590	0.265
590	0.264
590	0.265
591	0.264
591	0.262
592	0.261
592	0.259
593	0.258
593	0.258
594	0.256
594	0.255
594	0.255
595	0.254
595	0.253
596	0.252
596	0.253
597	0.253
597	0.252
598	0.251
598	0.25
598	0.25
599	0.248
599	0.247
600	0.246
600	0.244
601	0.243
601	0.242
602	0.24
602	0.24
602	0.239
603	0.238
603	0.239
604	0.239
604	0.239
605	0.239
605	0.239
606	0.238
606	0.237
606	0.236
607	0.235
607	0.234
608	0.233
608	0.232
609	0.231
609	0.23
610	0.229
610	0.229
610	0.229
611	0.229
611	0.229
612	0.23
612	0.231
613	0.231
613	0.231
614	0.23
614	0.229
614	0.228
615	0.227
615	0.226
616	0.225
616	0.224
617	0.223
617	0.221
618	0.22
618	0.219
618	0.218
619	0.218
619	0.218
620	0.218
620	0.217
621	0.216
621	0.216
622	0.215
622	0.214
622	0.213
623	0.212
623	0.212
624	0.212
624	0.211
625	0.21
625	0.209
626	0.208
626	0.208
626	0.207
627	0.207
627	0.206
628	0.204
628	0.203
629	0.202
629	0.2
630	0.198
630	0.196
630	0.195
631	0.193
631	0.191
632	0.188
632	0.186
633	0.184
633	0.182
634	0.18
634	0.179
634	0.177
635	0.174
635	0.172
636	0.169
636	0.167
637	0.164
637	0.161
638	0.158
638	0.155
638	0.151
639	0.147
639	0.143
640	0.139
640	0.135
641	0.131
641	0.127
642	0.123
642	0.119
642	0.114
643	0.11
643	0.105
644	0.1
644	0.095
645	0.089
645	0.084
646	0.078
646	0.072
646	0.066
647	0.06
647	0.054
648	0.048
648	0.043
649	0.036
649	0.029
650	0.023
650	0.016
650	0.008
651	-0.001
651	-0.012
652	-0.025
652	-0.038
653	-0.05
653	-0.062
653	-0.059
654	-0.044
654	-0.037
655	-0.042
655	-0.047
656	-0.053
656	-0.058
657	-0.063
657	-0.067
657	-0.073
658	-0.079
658	-0.106
659	-0.181
659	-0.267
660	-0.307
660	-0.332
661	-0.358
661	-0.386
661	-0.417
662	-0.447
662	-0.477
663	-0.513
663	-0.552
664	-0.592
664	-0.641
665	-0.688
665	-0.743
665	-0.795
666	-0.847
666	-0.906
667	-0.968
667	-1.03
668	-1.1
668	-1.17
669	-1.241
669	-1.311
669	-1.384
670	-1.443
670	-1.453
671	-1.541
671	-1.899
672	-2.154
672	-2.357
672	-2.495
673	-2.592
673	-2.676
674	-2.743
674	-2.766
675	-2.793
675	-2.936
676	-3.143
676	-3.098
676	-2.88
677	-2.684
677	-2.535
678	-2.384
678	-2.152
679	-1.767
679	-1.59
680	-1.486
680	-1.399
680	-1.326
681	-1.28
681	-1.22
682	-1.18
682	-1.143
683	-1.109
683	-1.092
684	-1.072
684	-1.053
684	-1.032
685	-1.008
685	-0.986
686	-0.962
686	-0.949
687	-0.924
687	-0.914
687	-0.894
688	-0.869
688	-0.85
689	-0.831
689	-0.819
690	-0.802
690	-0.791
691	-0.785
691	-0.789
691	-0.805
692	-0.799
692	-0.79
693	-0.785
693	-0.793
694	-0.788
694	-0.781
695	-0.787
695	-0.785
695	-0.77
696	-0.767
696	-0.745
697	-0.745
697	-0.762
698	-0.765
698	-0.756
698	-0.77
699	-0.772
699	-0.771
700	-0.763
700	-0.777
701	-0.776
701	-0.782
702	-0.783
702	-0.772
702	-0.765
703	-0.759
703	-0.75
704	-0.748
704	-0.746
705	-0.758
705	-0.754
705	-0.743
706	-0.743
706	-0.739
707	-0.741
707	-0.736
708	-0.736
708	-0.73
709	-0.734
709	-0.735
709	-0.725
710	-0.733
710	-0.744
711	-0.735
711	-0.735
712	-0.735
712	-0.75
713	-0.749
713	-0.755
713	-0.746
714	-0.744
714	-0.747
715	-0.738
715	-0.724
716	-0.733
716	-0.734
716	-0.729
717	-0.73
717	-0.731
718	-0.721
718	-0.722
719	-0.729
719	-0.729
720	-0.724
720	-0.734
720	-0.726
721	-0.716
721	-0.716
722	-0.704
722	-0.694
723	-0.692
723	-0.695
723	-0.68
724	-0.684
724	-0.688
725	-0.687
725	-0.697
726	-0.711
726	-0.717
727	-0.72
727	-0.735
727	-0.743
728	-0.745
728	-0.751
729	-0.751
729	-0.755
730	-0.762
730	-0.756
730	-0.746
731	-0.728
731	-0.738
732	-0.745
732	-0.744
733	-0.743
733	-0.749
734	-0.744
734	-0.744
734	-0.732
735	-0.729
735	-0.729
736	-0.74
736	-0.726
737	-0.718
737	-0.721
737	-0.731
738	-0.726
738	-0.726
739	-0.724
739	-0.736
740	-0.735
740	-0.733
741	-0.729
741	-0.728
741	-0.731
742	-0.725
742	-0.726
743	-0.733
743	-0.736
744	-0.732
744	-0.722
744	-0.725
745	-0.732
745	-0.725
746	-0.726
746	-0.724
747	-0.727
747	-0.716
748	-0.704
748	-0.708
748	-0.711
749	-0.708
749	-0.709
750	-0.698
750	-0.7
751	-0.703
751	-0.711
751	-0.712
752	-0.717
752	-0.729
753	-0.725
753	-0.723
754	-0.728
754	-0.72
754	-0.735
755	-0.75
755	-0.762
756	-0.75
756	-0.747
757	-0.744
757	-0.737
758	-0.737
758	-0.734
758	-0.737
759	-0.744
759	-0.728
760	-0.72
760	-0.714
761	-0.724
761	-0.722
761	-0.722
762	-0.732
762	-0.733
763	-0.742
763	-0.741
764	-0.738
764	-0.746
764	-0.751
765	-0.742
765	-0.727
766	-0.736
766	-0.743
767	-0.757
767	-0.751
768	-0.74
768	-0.747
768	-0.753
769	-0.77
769	-0.771
770	-0.776
770	-0.791
771	-0.787
771	-0.789
771	-0.787
772	-0.79
772	-0.791
773	-0.789
773	-0.786
774	-0.785
774	-0.786
775	-0.787
775	-0.784
775	-0.791
776	-0.792
776	-0.783
777	-0.791
777	-0.809
778	-0.808
778	-0.829
778	-0.817
779	-0.838
779	-0.848
780	-0.861
780	-0.86
781	-0.872
781	-0.866
781	-0.881
782	-0.883
782	-0.884
783	-0.868
783	-0.867
784	-0.846
784	-0.835
784	-0.844
785	-0.85
785	-0.834
786	-0.841
786	-0.819
787	-0.804
787	-0.807
788	-0.811
788	-0.822
788	-0.835
789	-0.837
789	-0.816
790	-0.798
790	-0.8
791	-0.799
791	-0.816
791	-0.823
792	-0.818
792	-0.794
793	-0.781
793	-0.758
794	-0.763
794	-0.756
794	-0.767
795	-0.762
795	-0.756
796	-0.74
796	-0.746
797	-0.74
797	-0.754
797	-0.762
798	-0.776
798	-0.769
799	-0.782
799	-0.765
800	-0.772
800	-0.764
801	-0.77
801	-0.756
801	-0.767
802	-0.773
802	-0.772
803	-0.771
803	-0.78
804	-0.775
804	-0.788
804	-0.775
805	-0.78
805	-0.767
806	-0.77
806	-0.756
807	-0.753
807	-0.736
807	-0.723
808	-0.715
808	-0.709
809	-0.693
809	-0.702
810	-0.701
810	-0.693
810	-0.69
811	-0.696
811	-0.689
812	-0.69
812	-0.694
813	-0.699
813	-0.692
813	-0.699
814	-0.699
814	-0.703
815	-0.709
815	-0.713
816	-0.706
816	-0.712
817	-0.716
817	-0.734
817	-0.746
818	-0.757
818	-0.758
819	-0.752
819	-0.753
820	-0.759
820	-0.755
820	-0.767
821	-0.764
821	-0.754
822	-0.72
822	-0.697
823	-0.691
823	-0.696
823	-0.692
824	-0.687
824	-0.691
825	-0.684
825	-0.664
826	-0.661
826	-0.67
826	-0.681
827	-0.677
827	-0.673
828	-0.653
828	-0.654
829	-0.644
829	-0.631
829	-0.624
830	-0.634
830	-0.629
831	-0.619
831	-0.611
832	-0.61
832	-0.604
832	-0.611
833	-0.605
833	-0.606
834	-0.604
834	-0.613
835	-0.6
835	-0.596
835	-0.593
836	-0.587
836	-0.583
837	-0.581
837	-0.57
838	-0.562
838	-0.549
839	-0.536
839	-0.523
839	-0.513
840	-0.501
840	-0.497
841	-0.486
841	-0.476
842	-0.469
842	-0.459
842	-0.454
843	-0.448
843	-0.442
844	-0.433
844	-0.425
845	-0.417
845	-0.407
845	-0.393
846	-0.383
846	-0.37
847	-0.359
847	-0.348
848	-0.337
848	-0.327
848	-0.312
849	-0.302
849	-0.29
850	-0.276
850	-0.272
851	-0.262
851	-0.251
851	-0.243
852	-0.226
852	-0.213
853	-0.204
853	-0.198
854	-0.186
854	-0.175
854	-0.164
855	-0.152
855	-0.147
856	-0.136
856	-0.128
857	-0.123
857	-0.113
857	-0.102
858	-0.091
858	-0.084
859	-0.077
859	-0.067
860	-0.058
860	-0.046
860	-0.038
861	-0.03
861	-0.022
862	-0.016
862	-0.01
863	-0.003
863	0.004
863	0.01
864	0.015
864	0.021
865	0.026
865	0.031
866	0.035
866	0.039
866	0.043
867	0.046
867	0.05
868	0.052
868	0.056
869	0.059
869	0.06
869	0.062
870	0.065
870	0.067
871	0.07
871	0.071
872	0.073
872	0.073
872	0.074
873	0.075
873	0.075
874	0.075
874	0.075
875	0.074
875	0.073
875	0.072
876	0.07
876	0.069
877	0.068
877	0.067
878	0.065
878	0.064
878	0.062
879	0.061
879	0.06
880	0.059
880	0.059
881	0.059
881	0.059
881	0.059
882	0.058
882	0.057
883	0.056
883	0.055
884	0.055
884	0.054
884	0.054
885	0.053
885	0.053
886	0.053
886	0.052
887	0.052
887	0.052
887	0.052
888	0.052
888	0.052
889	0.052
889	0.052
890	0.052
890	0.052
890	0.051
891	0.051
891	0.051
892	0.052
892	0.052
893	0.052
893	0.052
893	0.052
894	0.051
894	0.051
895	0.051
895	0.051
895	0.05
896	0.05
896	0.049
897	0.048
897	0.047
898	0.046
898	0.045
898	0.046
899	0.046
899	0.047
900	0.047
900	0.048
901	0.049
901	0.05
901	0.051
902	0.052
902	0.053
903	0.054
903	0.055
904	0.056
904	0.056
904	0.057
905	0.057
905	0.058
906	0.058
906	0.058
907	0.058
907	0.058
907	0.057
908	0.057
908	0.056
909	0.055
909	0.055
910	0.054
910	0.053
910	0.053
911	0.053
911	0.053
912	0.054
912	0.054
913	0.055
913	0.056
913	0.057
914	0.058
914	0.059
915	0.059
915	0.06
916	0.06
916	0.06
916	0.06
917	0.061
917	0.061
918	0.06
918	0.06
918	0.06
919	0.059
919	0.059
920	0.059
920	0.059
921	0.058
921	0.058
921	0.057
922	0.057
922	0.056
923	0.055
923	0.055
924	0.054
924	0.053
924	0.053
925	0.052
925	0.051
926	0.05
926	0.049
927	0.048
927	0.047
927	0.047
928	0.046
928	0.046
929	0.045
929	0.044
930	0.044
930	0.043
930	0.042
931	0.041
931	0.041
932	0.04
932	0.039
933	0.039
933	0.038
933	0.037
934	0.036
934	0.035
935	0.035
935	0.034
935	0.034
936	0.033
936	0.032
937	0.031
937	0.031
938	0.031
938	0.031
938	0.031
939	0.031
939	0.032
940	0.033
940	0.033
941	0.034
941	0.034
941	0.036
942	0.036
942	0.037
943	0.037
943	0.037
944	0.037
944	0.037
944	0.037
945	0.036
945	0.036
946	0.035
946	0.034
946	0.033
947	0.033
947	0.032
948	0.031
948	0.031
949	0.031
949	0.031
949	0.031
950	0.032
950	0.032
951	0.033
951	0.034
952	0.034
952	0.035
952	0.036
953	0.037
953	0.039
954	0.039
954	0.04
955	0.041
955	0.042
955	0.043
956	0.043
956	0.044
957	0.044
957	0.044
957	0.044
958	0.044
958	0.045
959	0.046
959	0.046
960	0.046
960	0.046
960	0.046
961	0.046
961	0.047
962	0.047
962	0.047
963	0.047
963	0.047
963	0.047
964	0.048
964	0.048
965	0.048
965	0.048
966	0.048
966	0.048
966	0.047
967	0.047
967	0.047
968	0.046
968	0.045
968	0.045
969	0.045
969	0.044
970	0.044
970	0.045
971	0.045
971	0.045
971	0.045
972	0.046
972	0.046
973	0.046
973	0.046
974	0.046
974	0.046
974	0.045
975	0.045
975	0.044
976	0.043
976	0.042
976	0.042
977	0.041
977	0.041
978	0.041
978	0.041
979	0.041
979	0.041
979	0.041
980	0.041
980	0.041
981	0.041
981	0.041
982	0.041
982	0.041
982	0.04
983	0.04
983	0.04
984	0.04
984	0.039
984	0.04
985	0.04
985	0.04
986	0.039
986	0.039
987	0.038
987	0.038
987	0.037
988	0.036
988	0.035
989	0.034
989	0.033
990	0.032
990	0.031
990	0.031
991	0.03
991	0.03
992	0.03
992	0.03
992	0.029
993	0.029
993	0.03
994	0.03
994	0.03
995	0.029
995	0.029
995	0.028
996	0.028
996	0.027
997	0.027
997	0.026
997	0.026
998	0.026
998	0.026
999	0.026
999	0.026
1000	0.027
1000	0.027
1000	0.027
1001	0.028
1001	0.028
1002	0.028
1002	0.029
1003	0.029
1003	0.029
1003	0.029
1004	0.028
1004	0.028
1005	0.027
1005	0.027
1005	0.026
1006	0.025
1006	0.024
1007	0.023
1007	0.022
1008	0.021
1008	0.021
1008	0.021
1009	0.021
1009	0.021
1010	0.021
1010	0.022
1010	0.022
1011	0.022
1011	0.022
1012	0.022
1012	0.022
1013	0.022
1013	0.022
1013	0.021
1014	0.021
1014	0.02
1015	0.02
1015	0.02
1016	0.019
1016	0.018
1016	0.018
1017	0.017
1017	0.016
1018	0.015
1018	0.014
1018	0.013
1019	0.012
1019	0.011
1020	0.011
1020	0.01
1021	0.009
1021	0.008
1021	0.007
1022	0.007
1022	0.006
1023	0.006
1023	0.006
1023	0.005
1024	0.005
1024	0.005
1025	0.005
1025	0.005
1026	0.005
1026	0.006
1026	0.006
1027	0.006
1027	0.007
1028	0.007
1028	0.007
1028	0.007
1029	0.007
1029	0.007
1030	0.007
1030	0.006
1031	0.006
1031	0.006
1031	0.006
1032	0.006
1032	0.006
1033	0.006
1033	0.006
1033	0.006
1034	0.007
1034	0.007
1035	0.007
1035	0.007
1036	0.007
1036	0.007
1036	0.007
1037	0.007
1037	0.007
1038	0.007
1038	0.007
1039	0.008
1039	0.008
1039	0.008
1040	0.008
1040	0.009
1041	0.009
1041	0.01
1041	0.01
1042	0.01
1042	0.009
1043	0.009
1043	0.008
1044	0.007
1044	0.007
1044	0.006
1045	0.005
1045	0.004
1046	0.003
1046	0.002
1046	0.002
1047	0.002
1047	0.002
1048	0.002
1048	0.002
1049	0.002
1049	0.002
1049	0.002
1050	0.002
1050	0.003
1051	0.003
1051	0.003
1051	0.003
1052	0.003
1052	0.003
1053	0.004
1053	0.004
1053	0.004
1054	0.004
1054	0.004
1055	0.004
1055	0.003
1056	0.003
1056	0.002
1056	0.001
1057	0
1057	-0
1058	-0.001
1058	-0.001
1058	-0.002
1059	-0.002
1059	-0.003
1060	-0.004
1060	-0.004
1061	-0.005
1061	-0.005
1061	-0.005
1062	-0.005
1062	-0.006
1063	-0.006
1063	-0.006
1063	-0.006
1064	-0.005
1064	-0.005
1065	-0.005
1065	-0.005
1066	-0.005
1066	-0.005
1066	-0.005
1067	-0.005
1067	-0.005
1068	-0.005
1068	-0.006
1068	-0.007
1069	-0.007
1069	-0.008
1070	-0.008
1070	-0.008
1071	-0.009
1071	-0.009
1071	-0.01
1072	-0.01
1072	-0.011
1073	-0.012
1073	-0.012
1073	-0.012
1074	-0.012
1074	-0.012
1075	-0.013
1075	-0.014
1076	-0.015
1076	-0.015
1076	-0.015
1077	-0.016
1077	-0.016
1078	-0.017
1078	-0.018
1078	-0.019
1079	-0.02
1079	-0.02
1080	-0.021
1080	-0.022
1080	-0.022
1081	-0.023
1081	-0.023
1082	-0.024
1082	-0.025
1083	-0.025
1083	-0.026
1083	-0.027
1084	-0.028
1084	-0.028
1085	-0.029
1085	-0.029
1085	-0.029
1086	-0.029
1086	-0.03
1087	-0.03
1087	-0.03
1088	-0.031
1088	-0.031
1088	-0.031
1089	-0.032
1089	-0.033
1090	-0.035
1090	-0.036
1090	-0.037
1091	-0.037
1091	-0.037
1092	-0.039
1092	-0.038
1092	-0.039
1093	-0.04
1093	-0.04
1094	-0.04
1094	-0.04
1095	-0.041
1095	-0.042
1095	-0.042
1096	-0.043
1096	-0.044
1097	-0.045
1097	-0.045
1097	-0.046
1098	-0.048
1098	-0.049
1099	-0.05
1099	-0.051
1100	-0.053
1100	-0.054
1100	-0.056
1101	-0.058
1101	-0.062
1102	-0.063
1102	-0.065
1102	-0.066
1103	-0.068
1103	-0.07
1104	-0.073
1104	-0.075
1104	-0.077
1105	-0.079
1105	-0.082
1106	-0.086
1106	-0.088
1107	-0.093
1107	-0.097
1107	-0.102
1108	-0.105
1108	-0.107
1109	-0.11
1109	-0.115
1109	-0.118
1110	-0.119
1110	-0.121
1111	-0.129
1111	-0.128
