Data from 17C_3.4A_35min_2sec_int_Absorbance__481__04566.txt Node

Date: Mon Jun 19 20:01:14 CEST 2023
User: Marek
Spectrometer: MAYP115816
Trigger mode: 0
Integration Time (sec): 2.500000E-1
Scans to average: 10
Electric dark correction enabled: true
Nonlinearity correction enabled: true
Boxcar width: 5
XAxis mode: Wavelengths
Number of Pixels in Spectrum: 2068
>>>>>Begin Spectral Data<<<<<
199	-0.773
199	-0.778
200	-0.683
200	-0.627
201	-0.589
201	-0.574
202	-0.557
202	-0.541
203	-0.532
203	-0.528
204	-0.514
204	-0.5
205	-0.477
205	-0.47
205	-0.469
206	-0.473
206	-0.475
207	-0.466
207	-0.47
208	-0.472
208	-0.471
209	-0.464
209	-0.464
210	-0.467
210	-0.474
211	-0.477
211	-0.476
212	-0.479
212	-0.487
213	-0.484
213	-0.484
213	-0.489
214	-0.484
214	-0.485
215	-0.485
215	-0.49
216	-0.492
216	-0.499
217	-0.496
217	-0.498
218	-0.503
218	-0.504
219	-0.507
219	-0.521
220	-0.524
220	-0.534
221	-0.535
221	-0.536
221	-0.531
222	-0.527
222	-0.53
223	-0.531
223	-0.534
224	-0.536
224	-0.534
225	-0.53
225	-0.524
226	-0.528
226	-0.529
227	-0.533
227	-0.541
228	-0.541
228	-0.543
229	-0.545
229	-0.54
229	-0.534
230	-0.537
230	-0.539
231	-0.532
231	-0.525
232	-0.52
232	-0.519
233	-0.515
233	-0.513
234	-0.511
234	-0.509
235	-0.514
235	-0.522
236	-0.521
236	-0.524
236	-0.53
237	-0.537
237	-0.538
238	-0.547
238	-0.545
239	-0.543
239	-0.551
240	-0.55
240	-0.544
241	-0.549
241	-0.547
242	-0.553
242	-0.547
243	-0.543
243	-0.541
243	-0.55
244	-0.55
244	-0.551
245	-0.566
245	-0.567
246	-0.572
246	-0.579
247	-0.58
247	-0.584
248	-0.592
248	-0.591
249	-0.595
249	-0.605
250	-0.602
250	-0.597
250	-0.595
251	-0.59
251	-0.589
252	-0.592
252	-0.583
253	-0.587
253	-0.597
254	-0.596
254	-0.593
255	-0.601
255	-0.595
256	-0.595
256	-0.605
257	-0.602
257	-0.599
258	-0.617
258	-0.612
258	-0.609
259	-0.605
259	-0.614
260	-0.614
260	-0.619
261	-0.63
261	-0.624
262	-0.621
262	-0.621
263	-0.61
263	-0.607
264	-0.608
264	-0.617
265	-0.612
265	-0.62
265	-0.623
266	-0.618
266	-0.615
267	-0.629
267	-0.638
268	-0.651
268	-0.659
269	-0.654
269	-0.649
270	-0.654
270	-0.656
271	-0.654
271	-0.662
272	-0.665
272	-0.658
272	-0.651
273	-0.649
273	-0.658
274	-0.665
274	-0.668
275	-0.668
275	-0.663
276	-0.67
276	-0.66
277	-0.665
277	-0.684
278	-0.694
278	-0.691
278	-0.684
279	-0.688
279	-0.696
280	-0.694
280	-0.693
281	-0.687
281	-0.695
282	-0.688
282	-0.687
283	-0.677
283	-0.678
284	-0.672
284	-0.66
285	-0.658
285	-0.655
285	-0.652
286	-0.66
286	-0.654
287	-0.651
287	-0.636
288	-0.631
288	-0.639
289	-0.651
289	-0.661
290	-0.65
290	-0.648
291	-0.645
291	-0.638
292	-0.644
292	-0.649
292	-0.652
293	-0.656
293	-0.644
294	-0.634
294	-0.624
295	-0.622
295	-0.621
296	-0.62
296	-0.617
297	-0.608
297	-0.594
298	-0.589
298	-0.597
298	-0.585
299	-0.578
299	-0.579
300	-0.573
300	-0.569
301	-0.563
301	-0.563
302	-0.573
302	-0.582
303	-0.568
303	-0.554
304	-0.558
304	-0.557
305	-0.557
305	-0.558
305	-0.556
306	-0.54
306	-0.533
307	-0.518
307	-0.521
308	-0.534
308	-0.533
309	-0.535
309	-0.525
310	-0.516
310	-0.511
311	-0.503
311	-0.511
311	-0.507
312	-0.503
312	-0.498
313	-0.483
313	-0.485
314	-0.482
314	-0.483
315	-0.482
315	-0.481
316	-0.475
316	-0.467
317	-0.462
317	-0.457
318	-0.447
318	-0.444
318	-0.437
319	-0.427
319	-0.424
320	-0.42
320	-0.421
321	-0.427
321	-0.427
322	-0.421
322	-0.417
323	-0.416
323	-0.41
324	-0.404
324	-0.395
324	-0.383
325	-0.371
325	-0.353
326	-0.337
326	-0.316
327	-0.298
327	-0.275
328	-0.248
328	-0.227
329	-0.202
329	-0.177
330	-0.148
330	-0.113
330	-0.082
331	-0.052
331	-0.023
332	0.005
332	0.033
333	0.059
333	0.086
334	0.11
334	0.129
335	0.15
335	0.166
336	0.184
336	0.2
336	0.212
337	0.225
337	0.235
338	0.244
338	0.251
339	0.26
339	0.267
340	0.272
340	0.278
341	0.282
341	0.286
342	0.29
342	0.294
342	0.298
343	0.301
343	0.304
344	0.306
344	0.308
345	0.31
345	0.311
346	0.312
346	0.313
347	0.314
347	0.315
348	0.315
348	0.316
348	0.316
349	0.316
349	0.317
350	0.317
350	0.317
351	0.317
351	0.317
352	0.317
352	0.317
353	0.317
353	0.317
354	0.317
354	0.317
354	0.317
355	0.316
355	0.316
356	0.316
356	0.316
357	0.314
357	0.314
358	0.313
358	0.313
359	0.313
359	0.313
360	0.312
360	0.313
360	0.313
361	0.312
361	0.312
362	0.312
362	0.312
363	0.312
363	0.312
364	0.312
364	0.311
365	0.311
365	0.311
366	0.311
366	0.311
366	0.311
367	0.311
367	0.31
368	0.31
368	0.31
369	0.31
369	0.31
370	0.309
370	0.309
371	0.309
371	0.308
372	0.308
372	0.308
372	0.308
373	0.308
373	0.307
374	0.307
374	0.307
375	0.307
375	0.306
376	0.306
376	0.306
377	0.306
377	0.306
378	0.305
378	0.305
378	0.305
379	0.305
379	0.304
380	0.304
380	0.304
381	0.303
381	0.303
382	0.302
382	0.302
383	0.302
383	0.302
383	0.301
384	0.301
384	0.301
385	0.301
385	0.301
386	0.301
386	0.3
387	0.3
387	0.3
388	0.3
388	0.3
389	0.3
389	0.299
389	0.299
390	0.299
390	0.299
391	0.299
391	0.298
392	0.298
392	0.298
393	0.297
393	0.297
394	0.297
394	0.296
394	0.296
395	0.295
395	0.295
396	0.294
396	0.294
397	0.294
397	0.294
398	0.294
398	0.294
399	0.294
399	0.293
400	0.293
400	0.293
400	0.293
401	0.293
401	0.292
402	0.292
402	0.291
403	0.291
403	0.291
404	0.29
404	0.29
405	0.29
405	0.29
405	0.289
406	0.289
406	0.289
407	0.289
407	0.288
408	0.288
408	0.288
409	0.288
409	0.288
410	0.288
410	0.288
411	0.288
411	0.288
411	0.288
412	0.288
412	0.288
413	0.287
413	0.287
414	0.287
414	0.287
415	0.287
415	0.286
416	0.286
416	0.286
416	0.286
417	0.285
417	0.285
418	0.285
418	0.285
419	0.285
419	0.285
420	0.285
420	0.285
421	0.285
421	0.285
421	0.284
422	0.284
422	0.284
423	0.284
423	0.284
424	0.283
424	0.283
425	0.283
425	0.282
426	0.282
426	0.282
427	0.282
427	0.282
427	0.281
428	0.281
428	0.282
429	0.282
429	0.281
430	0.281
430	0.281
431	0.281
431	0.28
432	0.28
432	0.28
432	0.279
433	0.279
433	0.279
434	0.279
434	0.279
435	0.279
435	0.279
436	0.279
436	0.279
437	0.279
437	0.279
437	0.279
438	0.279
438	0.279
439	0.279
439	0.279
440	0.279
440	0.279
441	0.279
441	0.279
442	0.278
442	0.278
442	0.278
443	0.278
443	0.278
444	0.278
444	0.278
445	0.278
445	0.278
446	0.279
446	0.279
447	0.279
447	0.279
447	0.279
448	0.279
448	0.279
449	0.279
449	0.279
450	0.28
450	0.28
451	0.28
451	0.28
452	0.28
452	0.28
452	0.28
453	0.28
453	0.28
454	0.28
454	0.28
455	0.28
455	0.28
456	0.28
456	0.28
457	0.28
457	0.28
458	0.28
458	0.28
458	0.28
459	0.28
459	0.28
460	0.28
460	0.28
461	0.281
461	0.281
462	0.281
462	0.281
463	0.282
463	0.282
463	0.282
464	0.282
464	0.283
465	0.283
465	0.283
466	0.284
466	0.284
467	0.284
467	0.285
467	0.285
468	0.285
468	0.285
469	0.286
469	0.286
470	0.287
470	0.287
471	0.287
471	0.288
472	0.288
472	0.289
472	0.29
473	0.29
473	0.291
474	0.292
474	0.292
475	0.293
475	0.293
476	0.294
476	0.295
477	0.295
477	0.296
477	0.296
478	0.297
478	0.298
479	0.299
479	0.3
480	0.3
480	0.301
481	0.302
481	0.303
482	0.304
482	0.305
482	0.305
483	0.307
483	0.308
484	0.308
484	0.309
485	0.31
485	0.31
486	0.311
486	0.312
487	0.314
487	0.315
487	0.316
488	0.318
488	0.319
489	0.321
489	0.323
490	0.325
490	0.327
491	0.329
491	0.33
492	0.332
492	0.333
492	0.335
493	0.337
493	0.338
494	0.34
494	0.342
495	0.343
495	0.345
496	0.347
496	0.349
496	0.352
497	0.354
497	0.356
498	0.358
498	0.36
499	0.362
499	0.364
500	0.367
500	0.369
501	0.371
501	0.373
501	0.375
502	0.377
502	0.379
503	0.382
503	0.384
504	0.386
504	0.388
505	0.391
505	0.393
506	0.396
506	0.398
506	0.4
507	0.402
507	0.404
508	0.406
508	0.408
509	0.41
509	0.413
510	0.415
510	0.417
511	0.419
511	0.422
511	0.424
512	0.427
512	0.429
513	0.432
513	0.434
514	0.437
514	0.439
515	0.441
515	0.443
515	0.445
516	0.447
516	0.449
517	0.451
517	0.453
518	0.455
518	0.456
519	0.458
519	0.459
520	0.461
520	0.463
520	0.465
521	0.467
521	0.468
522	0.47
522	0.471
523	0.473
523	0.475
524	0.476
524	0.477
524	0.478
525	0.478
525	0.478
526	0.479
526	0.48
527	0.48
527	0.48
528	0.481
528	0.481
529	0.481
529	0.482
529	0.482
530	0.483
530	0.483
531	0.482
531	0.482
532	0.481
532	0.481
533	0.48
533	0.48
533	0.479
534	0.478
534	0.476
535	0.475
535	0.474
536	0.473
536	0.472
537	0.47
537	0.469
538	0.468
538	0.466
538	0.465
539	0.464
539	0.463
540	0.462
540	0.46
541	0.459
541	0.457
542	0.456
542	0.453
542	0.451
543	0.449
543	0.447
544	0.444
544	0.442
545	0.44
545	0.438
546	0.436
546	0.433
547	0.431
547	0.428
547	0.426
548	0.424
548	0.422
549	0.421
549	0.419
550	0.417
550	0.415
551	0.412
551	0.411
551	0.409
552	0.408
552	0.406
553	0.404
553	0.403
554	0.4
554	0.398
555	0.396
555	0.394
556	0.391
556	0.389
556	0.386
557	0.384
557	0.382
558	0.379
558	0.377
559	0.374
559	0.372
560	0.369
560	0.367
560	0.364
561	0.362
561	0.36
562	0.357
562	0.355
563	0.353
563	0.351
564	0.349
564	0.347
564	0.345
565	0.344
565	0.342
566	0.34
566	0.338
567	0.337
567	0.335
568	0.333
568	0.33
568	0.328
569	0.326
569	0.324
570	0.321
570	0.318
571	0.317
571	0.315
572	0.313
572	0.311
573	0.309
573	0.307
573	0.306
574	0.304
574	0.303
575	0.302
575	0.302
576	0.3
576	0.298
577	0.297
577	0.295
577	0.295
578	0.294
578	0.293
579	0.292
579	0.291
580	0.288
580	0.286
581	0.284
581	0.283
581	0.282
582	0.281
582	0.281
583	0.28
583	0.279
584	0.276
584	0.275
585	0.275
585	0.275
585	0.275
586	0.274
586	0.273
587	0.271
587	0.27
588	0.269
588	0.268
589	0.267
589	0.266
590	0.265
590	0.264
590	0.265
591	0.264
591	0.262
592	0.261
592	0.259
593	0.259
593	0.258
594	0.257
594	0.256
594	0.256
595	0.255
595	0.254
596	0.253
596	0.254
597	0.254
597	0.253
598	0.252
598	0.251
598	0.25
599	0.249
599	0.248
600	0.246
600	0.245
601	0.244
601	0.243
602	0.241
602	0.24
602	0.239
603	0.239
603	0.239
604	0.239
604	0.239
605	0.239
605	0.239
606	0.238
606	0.237
606	0.237
607	0.236
607	0.235
608	0.234
608	0.232
609	0.231
609	0.231
610	0.23
610	0.23
610	0.23
611	0.23
611	0.23
612	0.231
612	0.232
613	0.232
613	0.232
614	0.231
614	0.23
614	0.229
615	0.228
615	0.228
616	0.227
616	0.226
617	0.225
617	0.223
618	0.222
618	0.221
618	0.22
619	0.22
619	0.22
620	0.22
620	0.219
621	0.218
621	0.218
622	0.217
622	0.216
622	0.215
623	0.214
623	0.214
624	0.214
624	0.213
625	0.212
625	0.211
626	0.21
626	0.209
626	0.209
627	0.208
627	0.207
628	0.206
628	0.205
629	0.204
629	0.202
630	0.2
630	0.199
630	0.198
631	0.196
631	0.194
632	0.192
632	0.19
633	0.188
633	0.186
634	0.184
634	0.181
634	0.179
635	0.177
635	0.174
636	0.171
636	0.169
637	0.166
637	0.163
638	0.16
638	0.156
638	0.153
639	0.149
639	0.145
640	0.141
640	0.137
641	0.133
641	0.129
642	0.125
642	0.121
642	0.117
643	0.112
643	0.107
644	0.102
644	0.097
645	0.091
645	0.086
646	0.081
646	0.075
646	0.069
647	0.063
647	0.057
648	0.051
648	0.045
649	0.038
649	0.032
650	0.025
650	0.018
650	0.01
651	0.001
651	-0.011
652	-0.024
652	-0.037
653	-0.049
653	-0.06
653	-0.058
654	-0.042
654	-0.036
655	-0.04
655	-0.045
656	-0.051
656	-0.057
657	-0.062
657	-0.066
657	-0.073
658	-0.079
658	-0.106
659	-0.181
659	-0.268
660	-0.308
660	-0.332
661	-0.359
661	-0.387
661	-0.418
662	-0.447
662	-0.479
663	-0.515
663	-0.554
664	-0.594
664	-0.642
665	-0.69
665	-0.744
665	-0.796
666	-0.85
666	-0.908
667	-0.97
667	-1.032
668	-1.101
668	-1.172
669	-1.243
669	-1.313
669	-1.385
670	-1.444
670	-1.453
671	-1.529
671	-1.878
672	-2.14
672	-2.348
672	-2.487
673	-2.586
673	-2.671
674	-2.743
674	-2.768
675	-2.795
675	-2.939
676	-3.147
676	-3.107
676	-2.89
677	-2.696
677	-2.55
678	-2.405
678	-2.187
679	-1.799
679	-1.6
680	-1.492
680	-1.404
680	-1.33
681	-1.282
681	-1.221
682	-1.182
682	-1.145
683	-1.11
683	-1.094
684	-1.074
684	-1.055
684	-1.035
685	-1.012
685	-0.99
686	-0.967
686	-0.953
687	-0.928
687	-0.918
687	-0.9
688	-0.875
688	-0.855
689	-0.837
689	-0.823
690	-0.803
690	-0.793
691	-0.787
691	-0.793
691	-0.81
692	-0.8
692	-0.793
693	-0.791
693	-0.799
694	-0.793
694	-0.787
695	-0.794
695	-0.792
695	-0.777
696	-0.773
696	-0.749
697	-0.752
697	-0.767
698	-0.768
698	-0.758
698	-0.773
699	-0.776
699	-0.773
700	-0.764
700	-0.779
701	-0.779
701	-0.786
702	-0.787
702	-0.777
702	-0.77
703	-0.764
703	-0.755
704	-0.751
704	-0.751
705	-0.763
705	-0.757
705	-0.747
706	-0.749
706	-0.742
707	-0.745
707	-0.739
708	-0.736
708	-0.729
709	-0.733
709	-0.735
709	-0.725
710	-0.733
710	-0.744
711	-0.736
711	-0.737
712	-0.738
712	-0.753
713	-0.754
713	-0.761
713	-0.751
714	-0.746
714	-0.75
715	-0.739
715	-0.723
716	-0.73
716	-0.731
716	-0.724
717	-0.725
717	-0.728
718	-0.721
718	-0.723
719	-0.73
719	-0.733
720	-0.729
720	-0.74
720	-0.732
721	-0.723
721	-0.722
722	-0.709
722	-0.697
723	-0.693
723	-0.695
723	-0.683
724	-0.684
724	-0.688
725	-0.687
725	-0.696
726	-0.709
726	-0.712
727	-0.719
727	-0.731
727	-0.74
728	-0.741
728	-0.747
729	-0.746
729	-0.751
730	-0.756
730	-0.75
730	-0.737
731	-0.721
731	-0.732
732	-0.739
732	-0.738
733	-0.738
733	-0.743
734	-0.737
734	-0.737
734	-0.725
735	-0.723
735	-0.727
736	-0.737
736	-0.722
737	-0.715
737	-0.715
737	-0.726
738	-0.721
738	-0.72
739	-0.718
739	-0.731
740	-0.73
740	-0.728
741	-0.727
741	-0.726
741	-0.73
742	-0.728
742	-0.729
743	-0.737
743	-0.74
744	-0.739
744	-0.728
744	-0.73
745	-0.735
745	-0.727
746	-0.727
746	-0.722
747	-0.724
747	-0.709
748	-0.696
748	-0.703
748	-0.706
749	-0.705
749	-0.707
750	-0.696
750	-0.697
751	-0.7
751	-0.71
751	-0.713
752	-0.718
752	-0.727
753	-0.721
753	-0.715
754	-0.72
754	-0.714
754	-0.729
755	-0.746
755	-0.758
756	-0.749
756	-0.744
757	-0.741
757	-0.738
758	-0.74
758	-0.738
758	-0.742
759	-0.748
759	-0.734
760	-0.726
760	-0.72
761	-0.728
761	-0.729
761	-0.729
762	-0.736
762	-0.736
763	-0.746
763	-0.742
764	-0.741
764	-0.747
764	-0.752
765	-0.743
765	-0.728
766	-0.734
766	-0.739
767	-0.755
767	-0.751
768	-0.741
768	-0.751
768	-0.756
769	-0.774
769	-0.778
770	-0.783
770	-0.798
771	-0.797
771	-0.801
771	-0.799
772	-0.802
772	-0.802
773	-0.802
773	-0.797
774	-0.794
774	-0.794
775	-0.795
775	-0.79
775	-0.797
776	-0.797
776	-0.787
777	-0.795
777	-0.813
778	-0.811
778	-0.83
778	-0.818
779	-0.84
779	-0.849
780	-0.863
780	-0.861
781	-0.874
781	-0.871
781	-0.885
782	-0.887
782	-0.888
783	-0.874
783	-0.87
784	-0.85
784	-0.839
784	-0.847
785	-0.85
785	-0.833
786	-0.839
786	-0.816
787	-0.801
787	-0.805
788	-0.809
788	-0.821
788	-0.834
789	-0.834
789	-0.817
790	-0.8
790	-0.804
791	-0.804
791	-0.821
791	-0.828
792	-0.82
792	-0.798
793	-0.788
793	-0.765
794	-0.768
794	-0.76
794	-0.769
795	-0.764
795	-0.757
796	-0.742
796	-0.749
797	-0.744
797	-0.754
797	-0.76
798	-0.772
798	-0.768
799	-0.78
799	-0.767
800	-0.775
800	-0.767
801	-0.773
801	-0.757
801	-0.765
802	-0.774
802	-0.774
803	-0.776
803	-0.784
804	-0.779
804	-0.789
804	-0.775
805	-0.782
805	-0.772
806	-0.777
806	-0.764
807	-0.764
807	-0.747
807	-0.731
808	-0.723
808	-0.715
809	-0.701
809	-0.71
810	-0.706
810	-0.698
810	-0.693
811	-0.701
811	-0.689
812	-0.691
812	-0.698
813	-0.702
813	-0.698
813	-0.704
814	-0.707
814	-0.711
815	-0.715
815	-0.72
816	-0.713
816	-0.718
817	-0.725
817	-0.74
817	-0.754
818	-0.763
818	-0.764
819	-0.755
819	-0.754
820	-0.765
820	-0.759
820	-0.77
821	-0.767
821	-0.755
822	-0.724
822	-0.701
823	-0.698
823	-0.699
823	-0.694
824	-0.692
824	-0.694
825	-0.688
825	-0.667
826	-0.664
826	-0.673
826	-0.681
827	-0.675
827	-0.672
828	-0.653
828	-0.656
829	-0.645
829	-0.629
829	-0.621
830	-0.63
830	-0.625
831	-0.615
831	-0.606
832	-0.606
832	-0.599
832	-0.606
833	-0.599
833	-0.602
834	-0.601
834	-0.611
835	-0.598
835	-0.593
835	-0.591
836	-0.588
836	-0.586
837	-0.583
837	-0.573
838	-0.565
838	-0.551
839	-0.539
839	-0.526
839	-0.517
840	-0.506
840	-0.502
841	-0.489
841	-0.481
842	-0.476
842	-0.464
842	-0.458
843	-0.453
843	-0.448
844	-0.438
844	-0.43
845	-0.422
845	-0.413
845	-0.4
846	-0.389
846	-0.374
847	-0.365
847	-0.353
848	-0.341
848	-0.33
848	-0.315
849	-0.304
849	-0.291
850	-0.276
850	-0.271
851	-0.262
851	-0.251
851	-0.242
852	-0.226
852	-0.215
853	-0.206
853	-0.199
854	-0.188
854	-0.176
854	-0.166
855	-0.154
855	-0.146
856	-0.135
856	-0.126
857	-0.12
857	-0.112
857	-0.1
858	-0.091
858	-0.085
859	-0.078
859	-0.067
860	-0.058
860	-0.045
860	-0.038
861	-0.03
861	-0.022
862	-0.015
862	-0.009
863	-0.002
863	0.007
863	0.013
864	0.017
864	0.024
865	0.029
865	0.034
866	0.038
866	0.042
866	0.046
867	0.049
867	0.052
868	0.055
868	0.058
869	0.061
869	0.063
869	0.065
870	0.068
870	0.07
871	0.072
871	0.074
872	0.076
872	0.076
872	0.077
873	0.077
873	0.077
874	0.077
874	0.077
875	0.076
875	0.075
875	0.074
876	0.073
876	0.071
877	0.07
877	0.069
878	0.067
878	0.066
878	0.065
879	0.063
879	0.062
880	0.062
880	0.062
881	0.062
881	0.062
881	0.062
882	0.061
882	0.06
883	0.059
883	0.058
884	0.058
884	0.057
884	0.056
885	0.056
885	0.056
886	0.055
886	0.055
887	0.055
887	0.055
887	0.055
888	0.055
888	0.055
889	0.055
889	0.055
890	0.055
890	0.055
890	0.055
891	0.055
891	0.055
892	0.055
892	0.055
893	0.055
893	0.055
893	0.055
894	0.055
894	0.055
895	0.055
895	0.054
895	0.054
896	0.053
896	0.052
897	0.051
897	0.05
898	0.05
898	0.049
898	0.049
899	0.049
899	0.05
900	0.05
900	0.05
901	0.051
901	0.052
901	0.053
902	0.054
902	0.055
903	0.056
903	0.057
904	0.058
904	0.058
904	0.059
905	0.06
905	0.06
906	0.06
906	0.06
907	0.06
907	0.059
907	0.059
908	0.059
908	0.058
909	0.057
909	0.056
910	0.055
910	0.055
910	0.054
911	0.054
911	0.055
912	0.056
912	0.056
913	0.057
913	0.058
913	0.059
914	0.06
914	0.06
915	0.061
915	0.062
916	0.062
916	0.062
916	0.063
917	0.063
917	0.063
918	0.063
918	0.062
918	0.062
919	0.062
919	0.061
920	0.061
920	0.061
921	0.06
921	0.06
921	0.059
922	0.059
922	0.058
923	0.058
923	0.057
924	0.057
924	0.056
924	0.055
925	0.055
925	0.054
926	0.053
926	0.052
927	0.052
927	0.051
927	0.05
928	0.05
928	0.049
929	0.048
929	0.047
930	0.046
930	0.045
930	0.044
931	0.043
931	0.042
932	0.041
932	0.04
933	0.039
933	0.038
933	0.037
934	0.037
934	0.036
935	0.036
935	0.035
935	0.035
936	0.035
936	0.034
937	0.033
937	0.033
938	0.033
938	0.033
938	0.033
939	0.034
939	0.034
940	0.035
940	0.035
941	0.036
941	0.037
941	0.038
942	0.039
942	0.039
943	0.04
943	0.04
944	0.04
944	0.04
944	0.039
945	0.039
945	0.038
946	0.037
946	0.036
946	0.035
947	0.035
947	0.034
948	0.034
948	0.034
949	0.034
949	0.034
949	0.034
950	0.034
950	0.034
951	0.035
951	0.035
952	0.036
952	0.037
952	0.038
953	0.039
953	0.04
954	0.04
954	0.041
955	0.041
955	0.042
955	0.043
956	0.043
956	0.044
957	0.043
957	0.044
957	0.044
958	0.044
958	0.045
959	0.045
959	0.046
960	0.046
960	0.047
960	0.047
961	0.047
961	0.048
962	0.048
962	0.048
963	0.048
963	0.048
963	0.048
964	0.047
964	0.048
965	0.048
965	0.047
966	0.047
966	0.047
966	0.047
967	0.047
967	0.046
968	0.046
968	0.046
968	0.046
969	0.046
969	0.045
970	0.045
970	0.045
971	0.046
971	0.046
971	0.046
972	0.047
972	0.047
973	0.047
973	0.047
974	0.046
974	0.046
974	0.046
975	0.045
975	0.044
976	0.043
976	0.043
976	0.042
977	0.042
977	0.042
978	0.042
978	0.042
979	0.042
979	0.042
979	0.042
980	0.042
980	0.042
981	0.043
981	0.043
982	0.042
982	0.042
982	0.041
983	0.041
983	0.04
984	0.04
984	0.04
984	0.04
985	0.04
985	0.039
986	0.038
986	0.038
987	0.038
987	0.037
987	0.037
988	0.036
988	0.035
989	0.034
989	0.033
990	0.032
990	0.031
990	0.031
991	0.031
991	0.031
992	0.031
992	0.03
992	0.03
993	0.03
993	0.03
994	0.031
994	0.03
995	0.03
995	0.03
995	0.029
996	0.029
996	0.028
997	0.028
997	0.028
997	0.027
998	0.027
998	0.027
999	0.028
999	0.028
1000	0.028
1000	0.029
1000	0.029
1001	0.029
1001	0.03
1002	0.03
1002	0.03
1003	0.03
1003	0.03
1003	0.03
1004	0.03
1004	0.029
1005	0.028
1005	0.028
1005	0.027
1006	0.026
1006	0.025
1007	0.024
1007	0.023
1008	0.023
1008	0.022
1008	0.022
1009	0.022
1009	0.022
1010	0.023
1010	0.023
1010	0.023
1011	0.024
1011	0.024
1012	0.024
1012	0.024
1013	0.023
1013	0.023
1013	0.023
1014	0.023
1014	0.022
1015	0.022
1015	0.022
1016	0.021
1016	0.021
1016	0.02
1017	0.019
1017	0.019
1018	0.017
1018	0.016
1018	0.015
1019	0.014
1019	0.013
1020	0.012
1020	0.012
1021	0.011
1021	0.01
1021	0.01
1022	0.009
1022	0.009
1023	0.009
1023	0.008
1023	0.008
1024	0.008
1024	0.008
1025	0.008
1025	0.008
1026	0.008
1026	0.009
1026	0.009
1027	0.009
1027	0.01
1028	0.011
1028	0.011
1028	0.011
1029	0.011
1029	0.011
1030	0.011
1030	0.01
1031	0.01
1031	0.01
1031	0.01
1032	0.009
1032	0.009
1033	0.009
1033	0.01
1033	0.01
1034	0.01
1034	0.01
1035	0.01
1035	0.01
1036	0.009
1036	0.009
1036	0.01
1037	0.009
1037	0.009
1038	0.009
1038	0.009
1039	0.01
1039	0.01
1039	0.01
1040	0.01
1040	0.011
1041	0.011
1041	0.011
1041	0.011
1042	0.011
1042	0.01
1043	0.01
1043	0.01
1044	0.009
1044	0.009
1044	0.008
1045	0.007
1045	0.006
1046	0.006
1046	0.005
1046	0.005
1047	0.004
1047	0.004
1048	0.004
1048	0.004
1049	0.004
1049	0.004
1049	0.004
1050	0.004
1050	0.004
1051	0.004
1051	0.004
1051	0.004
1052	0.005
1052	0.005
1053	0.005
1053	0.005
1053	0.005
1054	0.005
1054	0.005
1055	0.005
1055	0.005
1056	0.005
1056	0.004
1056	0.003
1057	0.002
1057	0.002
1058	0.001
1058	0.001
1058	0
1059	-0
1059	-0.001
1060	-0.002
1060	-0.003
1061	-0.004
1061	-0.004
1061	-0.004
1062	-0.005
1062	-0.005
1063	-0.006
1063	-0.006
1063	-0.005
1064	-0.005
1064	-0.005
1065	-0.005
1065	-0.004
1066	-0.005
1066	-0.004
1066	-0.004
1067	-0.004
1067	-0.003
1068	-0.004
1068	-0.004
1068	-0.004
1069	-0.004
1069	-0.005
1070	-0.005
1070	-0.005
1071	-0.006
1071	-0.006
1071	-0.007
1072	-0.008
1072	-0.009
1073	-0.009
1073	-0.01
1073	-0.01
1074	-0.01
1074	-0.01
1075	-0.011
1075	-0.012
1076	-0.013
1076	-0.013
1076	-0.014
1077	-0.014
1077	-0.015
1078	-0.016
1078	-0.017
1078	-0.018
1079	-0.018
1079	-0.018
1080	-0.019
1080	-0.019
1080	-0.02
1081	-0.02
1081	-0.021
1082	-0.021
1082	-0.022
1083	-0.023
1083	-0.023
1083	-0.024
1084	-0.025
1084	-0.026
1085	-0.027
1085	-0.027
1085	-0.027
1086	-0.028
1086	-0.029
1087	-0.029
1087	-0.029
1088	-0.03
1088	-0.03
1088	-0.031
1089	-0.032
1089	-0.032
1090	-0.034
1090	-0.034
1090	-0.036
1091	-0.036
1091	-0.037
1092	-0.038
1092	-0.038
1092	-0.039
1093	-0.04
1093	-0.04
1094	-0.04
1094	-0.04
1095	-0.041
1095	-0.041
1095	-0.041
1096	-0.042
1096	-0.043
1097	-0.044
1097	-0.045
1097	-0.046
1098	-0.048
1098	-0.049
1099	-0.05
1099	-0.051
1100	-0.052
1100	-0.054
1100	-0.056
1101	-0.058
1101	-0.06
1102	-0.061
1102	-0.063
1102	-0.064
1103	-0.067
1103	-0.069
1104	-0.072
1104	-0.074
1104	-0.076
1105	-0.077
1105	-0.08
1106	-0.086
1106	-0.089
1107	-0.093
1107	-0.097
1107	-0.101
1108	-0.104
1108	-0.106
1109	-0.11
1109	-0.114
1109	-0.118
1110	-0.118
1110	-0.118
1111	-0.124
1111	-0.124
