Data from 17C_3.4A_35min_2sec_int_Absorbance__668__04753.txt Node

Date: Mon Jun 19 20:09:01 CEST 2023
User: Marek
Spectrometer: MAYP115816
Trigger mode: 0
Integration Time (sec): 2.500000E-1
Scans to average: 10
Electric dark correction enabled: true
Nonlinearity correction enabled: true
Boxcar width: 5
XAxis mode: Wavelengths
Number of Pixels in Spectrum: 2068
>>>>>Begin Spectral Data<<<<<
199	-0.776
199	-0.79
200	-0.697
200	-0.644
201	-0.606
201	-0.596
202	-0.578
202	-0.564
203	-0.555
203	-0.551
204	-0.535
204	-0.523
205	-0.5
205	-0.493
205	-0.491
206	-0.494
206	-0.493
207	-0.484
207	-0.487
208	-0.491
208	-0.489
209	-0.483
209	-0.482
210	-0.485
210	-0.492
211	-0.493
211	-0.495
212	-0.502
212	-0.51
213	-0.507
213	-0.506
213	-0.512
214	-0.512
214	-0.512
215	-0.513
215	-0.517
216	-0.52
216	-0.527
217	-0.521
217	-0.526
218	-0.53
218	-0.53
219	-0.534
219	-0.544
220	-0.548
220	-0.559
221	-0.557
221	-0.56
221	-0.553
222	-0.546
222	-0.546
223	-0.548
223	-0.551
224	-0.555
224	-0.554
225	-0.548
225	-0.541
226	-0.545
226	-0.546
227	-0.553
227	-0.565
228	-0.565
228	-0.568
229	-0.57
229	-0.563
229	-0.557
230	-0.562
230	-0.565
231	-0.559
231	-0.549
232	-0.544
232	-0.544
233	-0.538
233	-0.537
234	-0.535
234	-0.533
235	-0.537
235	-0.541
236	-0.54
236	-0.544
236	-0.551
237	-0.558
237	-0.558
238	-0.566
238	-0.563
239	-0.564
239	-0.573
240	-0.571
240	-0.568
241	-0.576
241	-0.576
242	-0.58
242	-0.575
243	-0.57
243	-0.572
243	-0.581
244	-0.58
244	-0.578
245	-0.594
245	-0.594
246	-0.597
246	-0.602
247	-0.604
247	-0.608
248	-0.615
248	-0.61
249	-0.612
249	-0.621
250	-0.618
250	-0.613
250	-0.614
251	-0.611
251	-0.611
252	-0.613
252	-0.603
253	-0.609
253	-0.622
254	-0.621
254	-0.62
255	-0.631
255	-0.625
256	-0.622
256	-0.635
257	-0.631
257	-0.629
258	-0.647
258	-0.641
258	-0.636
259	-0.632
259	-0.642
260	-0.64
260	-0.646
261	-0.658
261	-0.648
262	-0.648
262	-0.649
263	-0.635
263	-0.631
264	-0.633
264	-0.641
265	-0.635
265	-0.642
265	-0.645
266	-0.642
266	-0.641
267	-0.653
267	-0.662
268	-0.677
268	-0.687
269	-0.683
269	-0.679
270	-0.684
270	-0.689
271	-0.691
271	-0.695
272	-0.698
272	-0.691
272	-0.683
273	-0.683
273	-0.693
274	-0.699
274	-0.704
275	-0.703
275	-0.696
276	-0.699
276	-0.693
277	-0.696
277	-0.715
278	-0.726
278	-0.72
278	-0.713
279	-0.717
279	-0.726
280	-0.723
280	-0.724
281	-0.718
281	-0.725
282	-0.718
282	-0.719
283	-0.709
283	-0.71
284	-0.702
284	-0.691
285	-0.688
285	-0.688
285	-0.685
286	-0.692
286	-0.687
287	-0.684
287	-0.669
288	-0.663
288	-0.671
289	-0.684
289	-0.695
290	-0.683
290	-0.681
291	-0.678
291	-0.671
292	-0.673
292	-0.68
292	-0.685
293	-0.691
293	-0.682
294	-0.673
294	-0.663
295	-0.66
295	-0.657
296	-0.655
296	-0.652
297	-0.646
297	-0.629
298	-0.619
298	-0.627
298	-0.615
299	-0.606
299	-0.607
300	-0.602
300	-0.598
301	-0.594
301	-0.593
302	-0.6
302	-0.61
303	-0.597
303	-0.583
304	-0.586
304	-0.587
305	-0.591
305	-0.591
305	-0.589
306	-0.573
306	-0.567
307	-0.554
307	-0.553
308	-0.568
308	-0.564
309	-0.566
309	-0.555
310	-0.543
310	-0.539
311	-0.53
311	-0.538
311	-0.535
312	-0.529
312	-0.526
313	-0.512
313	-0.515
314	-0.511
314	-0.513
315	-0.512
315	-0.51
316	-0.506
316	-0.498
317	-0.492
317	-0.488
318	-0.478
318	-0.474
318	-0.47
319	-0.46
319	-0.456
320	-0.449
320	-0.451
321	-0.457
321	-0.454
322	-0.448
322	-0.443
323	-0.442
323	-0.437
324	-0.431
324	-0.422
324	-0.413
325	-0.404
325	-0.386
326	-0.368
326	-0.351
327	-0.335
327	-0.314
328	-0.287
328	-0.263
329	-0.237
329	-0.212
330	-0.183
330	-0.149
330	-0.119
331	-0.089
331	-0.059
332	-0.031
332	-0.006
333	0.02
333	0.044
334	0.066
334	0.084
335	0.104
335	0.12
336	0.136
336	0.151
336	0.162
337	0.175
337	0.185
338	0.195
338	0.202
339	0.211
339	0.218
340	0.223
340	0.228
341	0.233
341	0.237
342	0.242
342	0.245
342	0.249
343	0.25
343	0.254
344	0.256
344	0.257
345	0.259
345	0.26
346	0.26
346	0.261
347	0.262
347	0.262
348	0.263
348	0.264
348	0.264
349	0.264
349	0.265
350	0.265
350	0.265
351	0.265
351	0.266
352	0.266
352	0.266
353	0.266
353	0.266
354	0.266
354	0.266
354	0.266
355	0.266
355	0.265
356	0.265
356	0.265
357	0.264
357	0.264
358	0.264
358	0.264
359	0.263
359	0.263
360	0.264
360	0.263
360	0.263
361	0.263
361	0.263
362	0.263
362	0.263
363	0.263
363	0.263
364	0.263
364	0.262
365	0.262
365	0.262
366	0.262
366	0.262
366	0.262
367	0.262
367	0.262
368	0.262
368	0.262
369	0.262
369	0.261
370	0.261
370	0.261
371	0.261
371	0.261
372	0.26
372	0.26
372	0.261
373	0.26
373	0.26
374	0.26
374	0.26
375	0.26
375	0.26
376	0.26
376	0.26
377	0.26
377	0.259
378	0.259
378	0.259
378	0.259
379	0.259
379	0.259
380	0.259
380	0.259
381	0.258
381	0.258
382	0.258
382	0.258
383	0.258
383	0.257
383	0.257
384	0.257
384	0.257
385	0.257
385	0.257
386	0.257
386	0.257
387	0.256
387	0.256
388	0.256
388	0.256
389	0.256
389	0.256
389	0.256
390	0.256
390	0.256
391	0.256
391	0.255
392	0.255
392	0.255
393	0.255
393	0.255
394	0.255
394	0.254
394	0.254
395	0.253
395	0.253
396	0.253
396	0.252
397	0.252
397	0.252
398	0.252
398	0.252
399	0.252
399	0.252
400	0.252
400	0.252
400	0.252
401	0.251
401	0.251
402	0.251
402	0.251
403	0.251
403	0.251
404	0.25
404	0.25
405	0.25
405	0.25
405	0.25
406	0.25
406	0.249
407	0.249
407	0.249
408	0.249
408	0.249
409	0.249
409	0.249
410	0.249
410	0.249
411	0.249
411	0.249
411	0.249
412	0.249
412	0.248
413	0.248
413	0.248
414	0.248
414	0.247
415	0.247
415	0.247
416	0.247
416	0.246
416	0.246
417	0.246
417	0.246
418	0.246
418	0.246
419	0.247
419	0.246
420	0.246
420	0.247
421	0.247
421	0.247
421	0.247
422	0.247
422	0.247
423	0.247
423	0.247
424	0.246
424	0.246
425	0.246
425	0.246
426	0.245
426	0.245
427	0.245
427	0.245
427	0.245
428	0.244
428	0.244
429	0.244
429	0.244
430	0.244
430	0.243
431	0.243
431	0.243
432	0.243
432	0.242
432	0.242
433	0.242
433	0.242
434	0.242
434	0.242
435	0.242
435	0.242
436	0.242
436	0.242
437	0.242
437	0.242
437	0.242
438	0.242
438	0.242
439	0.242
439	0.242
440	0.242
440	0.242
441	0.242
441	0.242
442	0.242
442	0.241
442	0.241
443	0.241
443	0.241
444	0.241
444	0.241
445	0.241
445	0.24
446	0.24
446	0.24
447	0.24
447	0.24
447	0.24
448	0.24
448	0.24
449	0.24
449	0.24
450	0.241
450	0.241
451	0.241
451	0.241
452	0.241
452	0.241
452	0.241
453	0.24
453	0.24
454	0.24
454	0.239
455	0.239
455	0.239
456	0.239
456	0.239
457	0.239
457	0.239
458	0.239
458	0.239
458	0.239
459	0.24
459	0.24
460	0.24
460	0.24
461	0.24
461	0.24
462	0.24
462	0.241
463	0.24
463	0.24
463	0.24
464	0.24
464	0.24
465	0.24
465	0.24
466	0.24
466	0.24
467	0.24
467	0.24
467	0.24
468	0.24
468	0.24
469	0.241
469	0.241
470	0.242
470	0.242
471	0.242
471	0.242
472	0.242
472	0.242
472	0.243
473	0.243
473	0.243
474	0.243
474	0.243
475	0.244
475	0.244
476	0.244
476	0.245
477	0.245
477	0.245
477	0.246
478	0.246
478	0.247
479	0.247
479	0.247
480	0.248
480	0.248
481	0.249
481	0.249
482	0.25
482	0.25
482	0.25
483	0.251
483	0.251
484	0.251
484	0.251
485	0.251
485	0.252
486	0.252
486	0.253
487	0.253
487	0.254
487	0.254
488	0.255
488	0.256
489	0.257
489	0.259
490	0.26
490	0.261
491	0.262
491	0.263
492	0.265
492	0.265
492	0.267
493	0.268
493	0.269
494	0.27
494	0.272
495	0.273
495	0.274
496	0.275
496	0.276
496	0.278
497	0.279
497	0.281
498	0.282
498	0.283
499	0.284
499	0.285
500	0.287
500	0.288
501	0.289
501	0.29
501	0.291
502	0.292
502	0.293
503	0.294
503	0.296
504	0.297
504	0.298
505	0.3
505	0.301
506	0.303
506	0.305
506	0.307
507	0.309
507	0.31
508	0.312
508	0.314
509	0.316
509	0.318
510	0.319
510	0.321
511	0.322
511	0.323
511	0.325
512	0.326
512	0.327
513	0.328
513	0.33
514	0.331
514	0.333
515	0.334
515	0.335
515	0.336
516	0.338
516	0.34
517	0.342
517	0.343
518	0.345
518	0.346
519	0.348
519	0.35
520	0.352
520	0.354
520	0.356
521	0.358
521	0.36
522	0.362
522	0.364
523	0.366
523	0.367
524	0.369
524	0.37
524	0.371
525	0.372
525	0.373
526	0.374
526	0.375
527	0.377
527	0.378
528	0.379
528	0.38
529	0.381
529	0.382
529	0.383
530	0.384
530	0.385
531	0.386
531	0.386
532	0.387
532	0.387
533	0.388
533	0.389
533	0.389
534	0.39
534	0.39
535	0.391
535	0.392
536	0.392
536	0.392
537	0.392
537	0.392
538	0.393
538	0.393
538	0.393
539	0.393
539	0.393
540	0.393
540	0.393
541	0.393
541	0.393
542	0.394
542	0.394
542	0.393
543	0.393
543	0.393
544	0.393
544	0.393
545	0.393
545	0.393
546	0.393
546	0.392
547	0.392
547	0.391
547	0.391
548	0.391
548	0.391
549	0.391
549	0.391
550	0.39
550	0.39
551	0.389
551	0.389
551	0.389
552	0.388
552	0.388
553	0.387
553	0.387
554	0.386
554	0.385
555	0.384
555	0.383
556	0.382
556	0.382
556	0.381
557	0.381
557	0.38
558	0.379
558	0.379
559	0.378
559	0.377
560	0.376
560	0.375
560	0.374
561	0.374
561	0.373
562	0.371
562	0.37
563	0.369
563	0.368
564	0.367
564	0.366
564	0.365
565	0.365
565	0.364
566	0.363
566	0.362
567	0.361
567	0.36
568	0.359
568	0.357
568	0.356
569	0.355
569	0.353
570	0.352
570	0.35
571	0.349
571	0.348
572	0.346
572	0.345
573	0.343
573	0.342
573	0.341
574	0.34
574	0.339
575	0.338
575	0.338
576	0.337
576	0.334
577	0.333
577	0.332
577	0.331
578	0.33
578	0.33
579	0.329
579	0.328
580	0.326
580	0.324
581	0.322
581	0.321
581	0.32
582	0.32
582	0.319
583	0.319
583	0.317
584	0.315
584	0.314
585	0.314
585	0.314
585	0.314
586	0.314
586	0.314
587	0.313
587	0.312
588	0.311
588	0.31
589	0.31
589	0.31
590	0.309
590	0.308
590	0.309
591	0.308
591	0.307
592	0.305
592	0.304
593	0.304
593	0.304
594	0.303
594	0.303
594	0.302
595	0.303
595	0.302
596	0.302
596	0.303
597	0.304
597	0.303
598	0.303
598	0.302
598	0.302
599	0.301
599	0.299
600	0.298
600	0.296
601	0.295
601	0.294
602	0.292
602	0.291
602	0.29
603	0.29
603	0.289
604	0.289
604	0.289
605	0.289
605	0.289
606	0.287
606	0.286
606	0.285
607	0.284
607	0.284
608	0.283
608	0.282
609	0.281
609	0.281
610	0.281
610	0.281
610	0.282
611	0.282
611	0.283
612	0.284
612	0.284
613	0.284
613	0.284
614	0.282
614	0.281
614	0.28
615	0.279
615	0.278
616	0.278
616	0.276
617	0.275
617	0.274
618	0.274
618	0.273
618	0.273
619	0.274
619	0.275
620	0.275
620	0.275
621	0.275
621	0.275
622	0.275
622	0.275
622	0.274
623	0.274
623	0.275
624	0.274
624	0.273
625	0.273
625	0.273
626	0.272
626	0.272
626	0.272
627	0.272
627	0.272
628	0.272
628	0.272
629	0.271
629	0.271
630	0.27
630	0.27
630	0.271
631	0.271
631	0.27
632	0.27
632	0.269
633	0.269
633	0.269
634	0.269
634	0.268
634	0.267
635	0.266
635	0.265
636	0.264
636	0.263
637	0.262
637	0.261
638	0.261
638	0.26
638	0.26
639	0.259
639	0.259
640	0.259
640	0.259
641	0.258
641	0.258
642	0.258
642	0.257
642	0.257
643	0.255
643	0.254
644	0.253
644	0.252
645	0.251
645	0.249
646	0.248
646	0.245
646	0.243
647	0.242
647	0.239
648	0.238
648	0.235
649	0.232
649	0.229
650	0.224
650	0.219
650	0.214
651	0.207
651	0.201
652	0.192
652	0.183
653	0.175
653	0.165
653	0.165
654	0.164
654	0.159
655	0.152
655	0.145
656	0.138
656	0.13
657	0.124
657	0.119
657	0.111
658	0.105
658	0.083
659	0.033
659	-0.022
660	-0.055
660	-0.074
661	-0.094
661	-0.116
661	-0.138
662	-0.155
662	-0.172
663	-0.187
663	-0.205
664	-0.218
664	-0.24
665	-0.251
665	-0.269
665	-0.281
666	-0.289
666	-0.298
667	-0.307
667	-0.313
668	-0.323
668	-0.341
669	-0.347
669	-0.338
669	-0.306
670	-0.113
670	-0
671	-0
671	-0
672	-0
672	-0
672	-0
673	-0
673	-0
674	-0
674	-0
675	-0
675	-0
676	-0
676	-0
676	-0.121
677	-0.493
677	-0.517
678	-0.531
678	-0.53
679	-0.532
679	-0.544
680	-0.558
680	-0.56
680	-0.564
681	-0.583
681	-0.58
682	-0.596
682	-0.597
683	-0.598
683	-0.623
684	-0.636
684	-0.647
684	-0.654
685	-0.66
685	-0.665
686	-0.661
686	-0.665
687	-0.655
687	-0.665
687	-0.662
688	-0.647
688	-0.642
689	-0.634
689	-0.631
690	-0.621
690	-0.618
691	-0.622
691	-0.636
691	-0.663
692	-0.662
692	-0.662
693	-0.666
693	-0.682
694	-0.682
694	-0.681
695	-0.692
695	-0.694
695	-0.683
696	-0.683
696	-0.664
697	-0.666
697	-0.685
698	-0.69
698	-0.68
698	-0.701
699	-0.706
699	-0.707
700	-0.701
700	-0.717
701	-0.72
701	-0.729
702	-0.731
702	-0.72
702	-0.716
703	-0.711
703	-0.7
704	-0.699
704	-0.698
705	-0.711
705	-0.704
705	-0.695
706	-0.697
706	-0.696
707	-0.703
707	-0.699
708	-0.698
708	-0.695
709	-0.701
709	-0.706
709	-0.697
710	-0.708
710	-0.717
711	-0.707
711	-0.708
712	-0.707
712	-0.723
713	-0.723
713	-0.731
713	-0.722
714	-0.719
714	-0.723
715	-0.714
715	-0.704
716	-0.713
716	-0.715
716	-0.708
717	-0.707
717	-0.71
718	-0.7
718	-0.699
719	-0.707
719	-0.708
720	-0.703
720	-0.711
720	-0.705
721	-0.694
721	-0.697
722	-0.688
722	-0.679
723	-0.679
723	-0.686
723	-0.673
724	-0.677
724	-0.682
725	-0.682
725	-0.691
726	-0.705
726	-0.709
727	-0.713
727	-0.729
727	-0.736
728	-0.736
728	-0.744
729	-0.744
729	-0.751
730	-0.76
730	-0.754
730	-0.745
731	-0.73
731	-0.741
732	-0.745
732	-0.746
733	-0.745
733	-0.748
734	-0.742
734	-0.741
734	-0.725
735	-0.727
735	-0.731
736	-0.741
736	-0.726
737	-0.718
737	-0.72
737	-0.732
738	-0.728
738	-0.727
739	-0.726
739	-0.74
740	-0.737
740	-0.733
741	-0.731
741	-0.731
741	-0.734
742	-0.73
742	-0.73
743	-0.737
743	-0.744
744	-0.741
744	-0.731
744	-0.733
745	-0.742
745	-0.736
746	-0.739
746	-0.736
747	-0.739
747	-0.726
748	-0.715
748	-0.72
748	-0.721
749	-0.72
749	-0.723
750	-0.711
750	-0.711
751	-0.714
751	-0.725
751	-0.728
752	-0.734
752	-0.743
753	-0.737
753	-0.734
754	-0.739
754	-0.731
754	-0.746
755	-0.763
755	-0.773
756	-0.761
756	-0.758
757	-0.754
757	-0.75
758	-0.752
758	-0.751
758	-0.754
759	-0.762
759	-0.744
760	-0.737
760	-0.732
761	-0.743
761	-0.741
761	-0.743
762	-0.75
762	-0.75
763	-0.761
763	-0.757
764	-0.754
764	-0.763
764	-0.768
765	-0.76
765	-0.745
766	-0.753
766	-0.757
767	-0.771
767	-0.766
768	-0.755
768	-0.764
768	-0.769
769	-0.786
769	-0.787
770	-0.791
770	-0.804
771	-0.802
771	-0.806
771	-0.809
772	-0.811
772	-0.811
773	-0.81
773	-0.804
774	-0.804
774	-0.805
775	-0.806
775	-0.8
775	-0.808
776	-0.805
776	-0.791
777	-0.799
777	-0.817
778	-0.814
778	-0.837
778	-0.822
779	-0.845
779	-0.853
780	-0.868
780	-0.866
781	-0.879
781	-0.873
781	-0.888
782	-0.887
782	-0.888
783	-0.872
783	-0.869
784	-0.849
784	-0.838
784	-0.847
785	-0.852
785	-0.839
786	-0.846
786	-0.826
787	-0.814
787	-0.817
788	-0.821
788	-0.835
788	-0.848
789	-0.854
789	-0.836
790	-0.82
790	-0.824
791	-0.827
791	-0.846
791	-0.854
792	-0.85
792	-0.827
793	-0.814
793	-0.792
794	-0.794
794	-0.786
794	-0.796
795	-0.79
795	-0.78
796	-0.762
796	-0.769
797	-0.763
797	-0.776
797	-0.784
798	-0.794
798	-0.787
799	-0.798
799	-0.782
800	-0.79
800	-0.784
801	-0.79
801	-0.773
801	-0.785
802	-0.791
802	-0.793
803	-0.795
803	-0.805
804	-0.8
804	-0.812
804	-0.799
805	-0.805
805	-0.793
806	-0.798
806	-0.781
807	-0.782
807	-0.765
807	-0.751
808	-0.743
808	-0.734
809	-0.718
809	-0.726
810	-0.724
810	-0.72
810	-0.715
811	-0.722
811	-0.71
812	-0.709
812	-0.715
813	-0.72
813	-0.717
813	-0.724
814	-0.728
814	-0.731
815	-0.735
815	-0.738
816	-0.73
816	-0.735
817	-0.743
817	-0.76
817	-0.773
818	-0.781
818	-0.782
819	-0.772
819	-0.772
820	-0.782
820	-0.781
820	-0.792
821	-0.791
821	-0.78
822	-0.745
822	-0.722
823	-0.719
823	-0.723
823	-0.719
824	-0.715
824	-0.714
825	-0.707
825	-0.687
826	-0.684
826	-0.692
826	-0.702
827	-0.697
827	-0.693
828	-0.672
828	-0.675
829	-0.664
829	-0.651
829	-0.643
830	-0.653
830	-0.648
831	-0.637
831	-0.628
832	-0.626
832	-0.619
832	-0.627
833	-0.619
833	-0.625
834	-0.623
834	-0.631
835	-0.618
835	-0.613
835	-0.61
836	-0.607
836	-0.603
837	-0.599
837	-0.59
838	-0.582
838	-0.567
839	-0.553
839	-0.54
839	-0.53
840	-0.518
840	-0.516
841	-0.505
841	-0.496
842	-0.49
842	-0.479
842	-0.472
843	-0.465
843	-0.46
844	-0.451
844	-0.441
845	-0.433
845	-0.42
845	-0.405
846	-0.394
846	-0.38
847	-0.367
847	-0.354
848	-0.34
848	-0.329
848	-0.313
849	-0.302
849	-0.289
850	-0.275
850	-0.269
851	-0.259
851	-0.246
851	-0.237
852	-0.221
852	-0.209
853	-0.2
853	-0.192
854	-0.18
854	-0.167
854	-0.156
855	-0.143
855	-0.135
856	-0.124
856	-0.114
857	-0.108
857	-0.098
857	-0.084
858	-0.072
858	-0.065
859	-0.056
859	-0.044
860	-0.033
860	-0.018
860	-0.009
861	-0
861	0.01
862	0.018
862	0.026
863	0.033
863	0.042
863	0.048
864	0.053
864	0.06
865	0.066
865	0.071
866	0.077
866	0.081
866	0.086
867	0.091
867	0.096
868	0.1
868	0.105
869	0.109
869	0.112
869	0.115
870	0.118
870	0.121
871	0.124
871	0.126
872	0.127
872	0.128
872	0.128
873	0.128
873	0.128
874	0.127
874	0.126
875	0.125
875	0.124
875	0.123
876	0.122
876	0.121
877	0.12
877	0.119
878	0.118
878	0.117
878	0.116
879	0.116
879	0.115
880	0.115
880	0.115
881	0.115
881	0.114
881	0.114
882	0.113
882	0.112
883	0.111
883	0.11
884	0.11
884	0.108
884	0.107
885	0.107
885	0.106
886	0.105
886	0.104
887	0.103
887	0.102
887	0.101
888	0.101
888	0.1
889	0.1
889	0.1
890	0.099
890	0.098
890	0.098
891	0.097
891	0.097
892	0.097
892	0.097
893	0.097
893	0.097
893	0.097
894	0.097
894	0.098
895	0.098
895	0.098
895	0.098
896	0.097
896	0.097
897	0.096
897	0.095
898	0.094
898	0.093
898	0.093
899	0.092
899	0.093
900	0.093
900	0.092
901	0.093
901	0.093
901	0.094
902	0.095
902	0.096
903	0.096
903	0.097
904	0.098
904	0.099
904	0.1
905	0.101
905	0.102
906	0.103
906	0.104
907	0.105
907	0.105
907	0.106
908	0.107
908	0.108
909	0.108
909	0.108
910	0.108
910	0.108
910	0.108
911	0.108
911	0.108
912	0.107
912	0.107
913	0.106
913	0.106
913	0.105
914	0.104
914	0.103
915	0.102
915	0.101
916	0.1
916	0.099
916	0.098
917	0.098
917	0.097
918	0.097
918	0.096
918	0.096
919	0.096
919	0.096
920	0.096
920	0.097
921	0.097
921	0.097
921	0.097
922	0.097
922	0.097
923	0.097
923	0.097
924	0.097
924	0.097
924	0.097
925	0.096
925	0.096
926	0.095
926	0.094
927	0.094
927	0.093
927	0.092
928	0.091
928	0.091
929	0.09
929	0.089
930	0.088
930	0.087
930	0.086
931	0.086
931	0.085
932	0.085
932	0.084
933	0.083
933	0.082
933	0.081
934	0.08
934	0.078
935	0.077
935	0.076
935	0.075
936	0.073
936	0.072
937	0.071
937	0.07
938	0.07
938	0.07
938	0.071
939	0.072
939	0.073
940	0.074
940	0.075
941	0.076
941	0.076
941	0.077
942	0.077
942	0.077
943	0.076
943	0.076
944	0.075
944	0.074
944	0.074
945	0.073
945	0.072
946	0.071
946	0.07
946	0.069
947	0.069
947	0.069
948	0.069
948	0.069
949	0.068
949	0.068
949	0.068
950	0.068
950	0.067
951	0.068
951	0.067
952	0.066
952	0.066
952	0.065
953	0.065
953	0.065
954	0.064
954	0.064
955	0.064
955	0.065
955	0.065
956	0.065
956	0.065
957	0.065
957	0.065
957	0.066
958	0.066
958	0.066
959	0.067
959	0.067
960	0.067
960	0.067
960	0.068
961	0.068
961	0.068
962	0.069
962	0.069
963	0.07
963	0.07
963	0.07
964	0.07
964	0.07
965	0.071
965	0.07
966	0.07
966	0.07
966	0.07
967	0.07
967	0.07
968	0.071
968	0.071
968	0.072
969	0.073
969	0.074
970	0.075
970	0.076
971	0.078
971	0.079
971	0.08
972	0.081
972	0.082
973	0.082
973	0.082
974	0.082
974	0.081
974	0.081
975	0.08
975	0.079
976	0.078
976	0.077
976	0.076
977	0.075
977	0.074
978	0.073
978	0.072
979	0.071
979	0.07
979	0.069
980	0.068
980	0.067
981	0.067
981	0.066
982	0.066
982	0.065
982	0.064
983	0.063
983	0.063
984	0.062
984	0.062
984	0.061
985	0.061
985	0.061
986	0.061
986	0.061
987	0.061
987	0.061
987	0.061
988	0.06
988	0.06
989	0.059
989	0.058
990	0.058
990	0.057
990	0.056
991	0.056
991	0.055
992	0.055
992	0.055
992	0.055
993	0.055
993	0.055
994	0.056
994	0.056
995	0.057
995	0.058
995	0.058
996	0.059
996	0.059
997	0.059
997	0.06
997	0.06
998	0.061
998	0.061
999	0.062
999	0.063
1000	0.063
1000	0.063
1000	0.063
1001	0.063
1001	0.063
1002	0.063
1002	0.063
1003	0.062
1003	0.062
1003	0.061
1004	0.059
1004	0.058
1005	0.057
1005	0.055
1005	0.054
1006	0.052
1006	0.051
1007	0.05
1007	0.049
1008	0.048
1008	0.047
1008	0.047
1009	0.047
1009	0.048
1010	0.048
1010	0.048
1010	0.049
1011	0.049
1011	0.049
1012	0.049
1012	0.049
1013	0.048
1013	0.048
1013	0.047
1014	0.047
1014	0.047
1015	0.047
1015	0.047
1016	0.047
1016	0.048
1016	0.048
1017	0.049
1017	0.049
1018	0.049
1018	0.049
1018	0.049
1019	0.049
1019	0.048
1020	0.048
1020	0.048
1021	0.047
1021	0.046
1021	0.045
1022	0.045
1022	0.044
1023	0.044
1023	0.044
1023	0.044
1024	0.044
1024	0.044
1025	0.043
1025	0.043
1026	0.044
1026	0.044
1026	0.044
1027	0.044
1027	0.044
1028	0.045
1028	0.045
1028	0.045
1029	0.045
1029	0.045
1030	0.045
1030	0.045
1031	0.046
1031	0.047
1031	0.047
1032	0.047
1032	0.048
1033	0.049
1033	0.049
1033	0.05
1034	0.05
1034	0.051
1035	0.051
1035	0.05
1036	0.05
1036	0.05
1036	0.049
1037	0.049
1037	0.049
1038	0.049
1038	0.049
1039	0.049
1039	0.049
1039	0.049
1040	0.049
1040	0.05
1041	0.051
1041	0.051
1041	0.051
1042	0.051
1042	0.051
1043	0.051
1043	0.051
1044	0.051
1044	0.051
1044	0.051
1045	0.05
1045	0.05
1046	0.05
1046	0.05
1046	0.05
1047	0.051
1047	0.051
1048	0.051
1048	0.051
1049	0.051
1049	0.051
1049	0.051
1050	0.051
1050	0.051
1051	0.051
1051	0.05
1051	0.05
1052	0.05
1052	0.049
1053	0.049
1053	0.048
1053	0.047
1054	0.046
1054	0.045
1055	0.044
1055	0.043
1056	0.042
1056	0.04
1056	0.039
1057	0.038
1057	0.037
1058	0.036
1058	0.035
1058	0.034
1059	0.034
1059	0.033
1060	0.032
1060	0.031
1061	0.031
1061	0.031
1061	0.031
1062	0.031
1062	0.031
1063	0.031
1063	0.03
1063	0.03
1064	0.031
1064	0.03
1065	0.03
1065	0.03
1066	0.03
1066	0.03
1066	0.03
1067	0.03
1067	0.03
1068	0.03
1068	0.03
1068	0.03
1069	0.031
1069	0.031
1070	0.03
1070	0.031
1071	0.031
1071	0.031
1071	0.03
1072	0.03
1072	0.031
1073	0.031
1073	0.031
1073	0.031
1074	0.031
1074	0.031
1075	0.031
1075	0.03
1076	0.03
1076	0.03
1076	0.029
1077	0.028
1077	0.027
1078	0.026
1078	0.025
1078	0.024
1079	0.023
1079	0.022
1080	0.021
1080	0.02
1080	0.018
1081	0.017
1081	0.016
1082	0.015
1082	0.014
1083	0.013
1083	0.012
1083	0.01
1084	0.009
1084	0.008
1085	0.006
1085	0.005
1085	0.004
1086	0.003
1086	0.002
1087	0.002
1087	0.001
1088	-0
1088	-0.001
1088	-0.002
1089	-0.002
1089	-0.003
1090	-0.004
1090	-0.004
1090	-0.006
1091	-0.006
1091	-0.006
1092	-0.007
1092	-0.006
1092	-0.007
1093	-0.007
1093	-0.007
1094	-0.007
1094	-0.007
1095	-0.009
1095	-0.009
1095	-0.009
1096	-0.01
1096	-0.011
1097	-0.012
1097	-0.013
1097	-0.014
1098	-0.015
1098	-0.017
1099	-0.018
1099	-0.019
1100	-0.02
1100	-0.021
1100	-0.024
1101	-0.027
1101	-0.031
1102	-0.032
1102	-0.035
1102	-0.037
1103	-0.04
1103	-0.043
1104	-0.046
1104	-0.048
1104	-0.052
1105	-0.054
1105	-0.057
1106	-0.061
1106	-0.064
1107	-0.068
1107	-0.073
1107	-0.076
1108	-0.078
1108	-0.08
1109	-0.084
1109	-0.088
1109	-0.09
1110	-0.092
1110	-0.094
1111	-0.1
1111	-0.099
