Data from 17C_3.4A_35min_2sec_int_Absorbance__164__04249.txt Node

Date: Mon Jun 19 19:48:02 CEST 2023
User: Marek
Spectrometer: MAYP115816
Trigger mode: 0
Integration Time (sec): 2.500000E-1
Scans to average: 10
Electric dark correction enabled: true
Nonlinearity correction enabled: true
Boxcar width: 5
XAxis mode: Wavelengths
Number of Pixels in Spectrum: 2068
>>>>>Begin Spectral Data<<<<<
199	-0.758
199	-0.772
200	-0.676
200	-0.621
201	-0.582
201	-0.571
202	-0.554
202	-0.538
203	-0.53
203	-0.526
204	-0.513
204	-0.498
205	-0.473
205	-0.469
205	-0.467
206	-0.469
206	-0.471
207	-0.461
207	-0.465
208	-0.467
208	-0.468
209	-0.464
209	-0.465
210	-0.47
210	-0.475
211	-0.478
211	-0.481
212	-0.482
212	-0.49
213	-0.489
213	-0.489
213	-0.493
214	-0.488
214	-0.488
215	-0.487
215	-0.491
216	-0.493
216	-0.501
217	-0.496
217	-0.501
218	-0.503
218	-0.502
219	-0.504
219	-0.513
220	-0.517
220	-0.528
221	-0.528
221	-0.532
221	-0.524
222	-0.522
222	-0.522
223	-0.524
223	-0.527
224	-0.532
224	-0.535
225	-0.53
225	-0.524
226	-0.529
226	-0.526
227	-0.534
227	-0.542
228	-0.542
228	-0.543
229	-0.544
229	-0.539
229	-0.532
230	-0.536
230	-0.538
231	-0.532
231	-0.525
232	-0.517
232	-0.516
233	-0.512
233	-0.512
234	-0.51
234	-0.505
235	-0.508
235	-0.514
236	-0.513
236	-0.516
236	-0.522
237	-0.529
237	-0.529
238	-0.538
238	-0.535
239	-0.537
239	-0.546
240	-0.545
240	-0.541
241	-0.549
241	-0.548
242	-0.553
242	-0.55
243	-0.547
243	-0.547
243	-0.555
244	-0.555
244	-0.554
245	-0.568
245	-0.568
246	-0.57
246	-0.574
247	-0.576
247	-0.581
248	-0.587
248	-0.583
249	-0.587
249	-0.595
250	-0.592
250	-0.588
250	-0.589
251	-0.585
251	-0.584
252	-0.586
252	-0.575
253	-0.579
253	-0.59
254	-0.587
254	-0.585
255	-0.595
255	-0.588
256	-0.587
256	-0.598
257	-0.597
257	-0.594
258	-0.611
258	-0.608
258	-0.605
259	-0.603
259	-0.611
260	-0.61
260	-0.615
261	-0.626
261	-0.617
262	-0.614
262	-0.616
263	-0.602
263	-0.598
264	-0.596
264	-0.604
265	-0.599
265	-0.606
265	-0.609
266	-0.604
266	-0.602
267	-0.615
267	-0.622
268	-0.639
268	-0.648
269	-0.646
269	-0.642
270	-0.646
270	-0.651
271	-0.652
271	-0.655
272	-0.659
272	-0.653
272	-0.644
273	-0.642
273	-0.652
274	-0.657
274	-0.659
275	-0.66
275	-0.652
276	-0.659
276	-0.654
277	-0.658
277	-0.677
278	-0.69
278	-0.685
278	-0.679
279	-0.681
279	-0.691
280	-0.69
280	-0.69
281	-0.684
281	-0.69
282	-0.683
282	-0.682
283	-0.671
283	-0.672
284	-0.666
284	-0.657
285	-0.654
285	-0.649
285	-0.646
286	-0.653
286	-0.647
287	-0.644
287	-0.628
288	-0.621
288	-0.629
289	-0.64
289	-0.649
290	-0.639
290	-0.638
291	-0.636
291	-0.629
292	-0.633
292	-0.64
292	-0.648
293	-0.652
293	-0.64
294	-0.633
294	-0.621
295	-0.617
295	-0.614
296	-0.611
296	-0.609
297	-0.601
297	-0.585
298	-0.575
298	-0.583
298	-0.572
299	-0.563
299	-0.567
300	-0.563
300	-0.559
301	-0.554
301	-0.555
302	-0.562
302	-0.571
303	-0.559
303	-0.544
304	-0.547
304	-0.546
305	-0.547
305	-0.544
305	-0.539
306	-0.522
306	-0.516
307	-0.501
307	-0.502
308	-0.513
308	-0.511
309	-0.515
309	-0.504
310	-0.492
310	-0.489
311	-0.482
311	-0.491
311	-0.487
312	-0.482
312	-0.481
313	-0.468
313	-0.47
314	-0.466
314	-0.47
315	-0.47
315	-0.471
316	-0.468
316	-0.458
317	-0.453
317	-0.45
318	-0.439
318	-0.437
318	-0.431
319	-0.42
319	-0.416
320	-0.409
320	-0.41
321	-0.415
321	-0.414
322	-0.408
322	-0.403
323	-0.402
323	-0.396
324	-0.39
324	-0.379
324	-0.367
325	-0.355
325	-0.336
326	-0.319
326	-0.299
327	-0.283
327	-0.259
328	-0.231
328	-0.207
329	-0.181
329	-0.156
330	-0.125
330	-0.089
330	-0.057
331	-0.022
331	0.011
332	0.041
332	0.069
333	0.097
333	0.127
334	0.153
334	0.175
335	0.197
335	0.217
336	0.235
336	0.253
336	0.266
337	0.281
337	0.294
338	0.307
338	0.315
339	0.326
339	0.335
340	0.342
340	0.348
341	0.354
341	0.358
342	0.363
342	0.368
342	0.372
343	0.374
343	0.378
344	0.381
344	0.382
345	0.385
345	0.386
346	0.387
346	0.388
347	0.389
347	0.39
348	0.391
348	0.392
348	0.392
349	0.392
349	0.393
350	0.393
350	0.394
351	0.394
351	0.394
352	0.394
352	0.394
353	0.394
353	0.393
354	0.393
354	0.393
354	0.393
355	0.392
355	0.392
356	0.392
356	0.392
357	0.391
357	0.391
358	0.391
358	0.391
359	0.39
359	0.39
360	0.39
360	0.39
360	0.39
361	0.389
361	0.389
362	0.389
362	0.388
363	0.388
363	0.388
364	0.388
364	0.387
365	0.387
365	0.387
366	0.387
366	0.386
366	0.386
367	0.386
367	0.385
368	0.385
368	0.385
369	0.384
369	0.384
370	0.383
370	0.383
371	0.382
371	0.382
372	0.381
372	0.381
372	0.381
373	0.381
373	0.38
374	0.38
374	0.379
375	0.379
375	0.379
376	0.378
376	0.378
377	0.378
377	0.377
378	0.377
378	0.376
378	0.376
379	0.376
379	0.375
380	0.374
380	0.374
381	0.373
381	0.373
382	0.372
382	0.372
383	0.371
383	0.37
383	0.37
384	0.369
384	0.369
385	0.369
385	0.369
386	0.369
386	0.368
387	0.368
387	0.367
388	0.367
388	0.367
389	0.366
389	0.366
389	0.366
390	0.365
390	0.365
391	0.365
391	0.364
392	0.364
392	0.363
393	0.363
393	0.362
394	0.362
394	0.361
394	0.361
395	0.36
395	0.36
396	0.359
396	0.359
397	0.358
397	0.358
398	0.358
398	0.357
399	0.357
399	0.357
400	0.356
400	0.356
400	0.356
401	0.355
401	0.355
402	0.354
402	0.354
403	0.354
403	0.353
404	0.353
404	0.352
405	0.352
405	0.352
405	0.351
406	0.351
406	0.351
407	0.35
407	0.35
408	0.349
408	0.349
409	0.349
409	0.348
410	0.348
410	0.348
411	0.348
411	0.347
411	0.347
412	0.347
412	0.347
413	0.347
413	0.347
414	0.346
414	0.346
415	0.346
415	0.345
416	0.345
416	0.345
416	0.344
417	0.344
417	0.344
418	0.344
418	0.344
419	0.344
419	0.344
420	0.343
420	0.343
421	0.343
421	0.343
421	0.343
422	0.343
422	0.343
423	0.343
423	0.342
424	0.342
424	0.341
425	0.341
425	0.341
426	0.34
426	0.34
427	0.339
427	0.339
427	0.339
428	0.339
428	0.339
429	0.339
429	0.338
430	0.338
430	0.338
431	0.338
431	0.338
432	0.338
432	0.338
432	0.337
433	0.337
433	0.337
434	0.337
434	0.337
435	0.337
435	0.337
436	0.337
436	0.337
437	0.337
437	0.337
437	0.337
438	0.337
438	0.337
439	0.337
439	0.337
440	0.337
440	0.337
441	0.336
441	0.337
442	0.336
442	0.336
442	0.336
443	0.336
443	0.336
444	0.336
444	0.336
445	0.337
445	0.337
446	0.337
446	0.337
447	0.338
447	0.338
447	0.338
448	0.338
448	0.338
449	0.338
449	0.338
450	0.339
450	0.339
451	0.339
451	0.339
452	0.339
452	0.339
452	0.339
453	0.339
453	0.339
454	0.339
454	0.339
455	0.34
455	0.34
456	0.34
456	0.34
457	0.34
457	0.341
458	0.341
458	0.341
458	0.342
459	0.342
459	0.343
460	0.343
460	0.343
461	0.343
461	0.344
462	0.344
462	0.345
463	0.345
463	0.346
463	0.346
464	0.347
464	0.347
465	0.348
465	0.349
466	0.349
466	0.35
467	0.351
467	0.351
467	0.352
468	0.352
468	0.353
469	0.354
469	0.355
470	0.356
470	0.356
471	0.357
471	0.357
472	0.358
472	0.359
472	0.36
473	0.361
473	0.362
474	0.363
474	0.364
475	0.365
475	0.366
476	0.367
476	0.368
477	0.369
477	0.37
477	0.372
478	0.373
478	0.374
479	0.376
479	0.377
480	0.378
480	0.38
481	0.382
481	0.383
482	0.385
482	0.386
482	0.388
483	0.39
483	0.392
484	0.393
484	0.394
485	0.396
485	0.398
486	0.399
486	0.401
487	0.403
487	0.405
487	0.407
488	0.409
488	0.411
489	0.414
489	0.417
490	0.42
490	0.423
491	0.425
491	0.428
492	0.431
492	0.433
492	0.436
493	0.438
493	0.441
494	0.444
494	0.447
495	0.45
495	0.452
496	0.455
496	0.458
496	0.461
497	0.465
497	0.468
498	0.471
498	0.474
499	0.477
499	0.481
500	0.485
500	0.489
501	0.492
501	0.496
501	0.499
502	0.502
502	0.505
503	0.509
503	0.513
504	0.516
504	0.52
505	0.524
505	0.527
506	0.531
506	0.534
506	0.538
507	0.541
507	0.545
508	0.549
508	0.552
509	0.556
509	0.56
510	0.564
510	0.567
511	0.571
511	0.574
511	0.578
512	0.582
512	0.585
513	0.588
513	0.591
514	0.595
514	0.599
515	0.602
515	0.605
515	0.607
516	0.611
516	0.614
517	0.617
517	0.62
518	0.622
518	0.624
519	0.626
519	0.628
520	0.631
520	0.633
520	0.636
521	0.637
521	0.639
522	0.641
522	0.643
523	0.645
523	0.647
524	0.648
524	0.649
524	0.649
525	0.65
525	0.65
526	0.651
526	0.651
527	0.652
527	0.651
528	0.651
528	0.651
529	0.651
529	0.651
529	0.651
530	0.651
530	0.65
531	0.649
531	0.648
532	0.647
532	0.646
533	0.644
533	0.643
533	0.641
534	0.638
534	0.636
535	0.634
535	0.631
536	0.628
536	0.624
537	0.621
537	0.618
538	0.615
538	0.612
538	0.609
539	0.606
539	0.603
540	0.599
540	0.595
541	0.592
541	0.589
542	0.585
542	0.581
542	0.576
543	0.572
543	0.568
544	0.563
544	0.559
545	0.555
545	0.55
546	0.546
546	0.541
547	0.536
547	0.531
547	0.527
548	0.523
548	0.518
549	0.514
549	0.509
550	0.505
550	0.5
551	0.495
551	0.491
551	0.486
552	0.482
552	0.478
553	0.474
553	0.469
554	0.464
554	0.459
555	0.454
555	0.449
556	0.444
556	0.439
556	0.434
557	0.429
557	0.424
558	0.419
558	0.414
559	0.408
559	0.404
560	0.399
560	0.394
560	0.389
561	0.385
561	0.38
562	0.376
562	0.371
563	0.367
563	0.362
564	0.358
564	0.354
564	0.35
565	0.346
565	0.342
566	0.337
566	0.333
567	0.328
567	0.324
568	0.319
568	0.315
568	0.31
569	0.306
569	0.301
570	0.296
570	0.292
571	0.289
571	0.285
572	0.281
572	0.277
573	0.273
573	0.269
573	0.266
574	0.263
574	0.259
575	0.256
575	0.254
576	0.25
576	0.246
577	0.243
577	0.24
577	0.238
578	0.235
578	0.233
579	0.231
579	0.228
580	0.224
580	0.22
581	0.217
581	0.215
581	0.213
582	0.211
582	0.209
583	0.206
583	0.203
584	0.199
584	0.196
585	0.194
585	0.192
585	0.19
586	0.188
586	0.186
587	0.184
587	0.181
588	0.179
588	0.177
589	0.175
589	0.173
590	0.171
590	0.17
590	0.169
591	0.166
591	0.163
592	0.161
592	0.159
593	0.157
593	0.156
594	0.154
594	0.152
594	0.151
595	0.149
595	0.147
596	0.146
596	0.145
597	0.145
597	0.143
598	0.141
598	0.139
598	0.138
599	0.136
599	0.134
600	0.132
600	0.13
601	0.129
601	0.127
602	0.125
602	0.124
602	0.122
603	0.122
603	0.122
604	0.121
604	0.121
605	0.121
605	0.12
606	0.119
606	0.117
606	0.116
607	0.115
607	0.114
608	0.112
608	0.11
609	0.109
609	0.108
610	0.107
610	0.106
610	0.106
611	0.106
611	0.106
612	0.107
612	0.107
613	0.107
613	0.107
614	0.105
614	0.104
614	0.103
615	0.101
615	0.1
616	0.1
616	0.098
617	0.097
617	0.095
618	0.094
618	0.093
618	0.092
619	0.092
619	0.092
620	0.092
620	0.091
621	0.09
621	0.09
622	0.089
622	0.089
622	0.088
623	0.087
623	0.087
624	0.087
624	0.086
625	0.086
625	0.086
626	0.085
626	0.085
626	0.085
627	0.085
627	0.084
628	0.084
628	0.083
629	0.083
629	0.082
630	0.081
630	0.08
630	0.079
631	0.078
631	0.077
632	0.076
632	0.076
633	0.075
633	0.074
634	0.074
634	0.074
634	0.073
635	0.072
635	0.071
636	0.07
636	0.069
637	0.068
637	0.067
638	0.066
638	0.064
638	0.063
639	0.061
639	0.06
640	0.059
640	0.057
641	0.056
641	0.055
642	0.053
642	0.052
642	0.05
643	0.048
643	0.046
644	0.044
644	0.042
645	0.04
645	0.037
646	0.035
646	0.032
646	0.03
647	0.027
647	0.025
648	0.022
648	0.02
649	0.017
649	0.014
650	0.01
650	0.007
650	0.002
651	-0.003
651	-0.009
652	-0.016
652	-0.023
653	-0.028
653	-0.035
653	-0.033
654	-0.03
654	-0.033
655	-0.038
655	-0.041
656	-0.046
656	-0.051
657	-0.055
657	-0.058
657	-0.063
658	-0.067
658	-0.085
659	-0.127
659	-0.172
660	-0.196
660	-0.211
661	-0.227
661	-0.245
661	-0.264
662	-0.281
662	-0.297
663	-0.317
663	-0.339
664	-0.359
664	-0.387
665	-0.41
665	-0.44
665	-0.468
666	-0.495
666	-0.526
667	-0.56
667	-0.596
668	-0.639
668	-0.685
669	-0.734
669	-0.78
669	-0.826
670	-0.851
670	-0.858
671	-1.03
671	-1.452
672	-1.93
672	-2.21
672	-2.387
673	-2.508
673	-2.548
674	-2.567
674	-2.581
675	-2.607
675	-2.751
676	-2.961
676	-2.939
676	-2.684
677	-2.427
677	-2.158
678	-1.638
678	-1.176
679	-1.008
679	-0.928
680	-0.877
680	-0.832
680	-0.797
681	-0.787
681	-0.757
682	-0.748
682	-0.735
683	-0.72
683	-0.729
684	-0.731
684	-0.734
684	-0.73
685	-0.726
685	-0.722
686	-0.71
686	-0.709
687	-0.697
687	-0.702
687	-0.697
688	-0.682
688	-0.671
689	-0.661
689	-0.656
690	-0.644
690	-0.639
691	-0.643
691	-0.653
691	-0.677
692	-0.674
692	-0.671
693	-0.671
693	-0.686
694	-0.684
694	-0.681
695	-0.691
695	-0.693
695	-0.679
696	-0.68
696	-0.659
697	-0.664
697	-0.682
698	-0.687
698	-0.681
698	-0.697
699	-0.703
699	-0.703
700	-0.697
700	-0.714
701	-0.715
701	-0.724
702	-0.725
702	-0.717
702	-0.71
703	-0.702
703	-0.695
704	-0.693
704	-0.69
705	-0.7
705	-0.693
705	-0.682
706	-0.683
706	-0.678
707	-0.68
707	-0.676
708	-0.676
708	-0.671
709	-0.675
709	-0.681
709	-0.674
710	-0.684
710	-0.695
711	-0.688
711	-0.692
712	-0.694
712	-0.707
713	-0.71
713	-0.718
713	-0.709
714	-0.706
714	-0.707
715	-0.701
715	-0.688
716	-0.698
716	-0.7
716	-0.692
717	-0.694
717	-0.696
718	-0.687
718	-0.688
719	-0.695
719	-0.699
720	-0.691
720	-0.702
720	-0.694
721	-0.684
721	-0.686
722	-0.672
722	-0.662
723	-0.661
723	-0.665
723	-0.651
724	-0.654
724	-0.66
725	-0.659
725	-0.668
726	-0.68
726	-0.685
727	-0.693
727	-0.707
727	-0.717
728	-0.717
728	-0.725
729	-0.724
729	-0.729
730	-0.737
730	-0.73
730	-0.721
731	-0.704
731	-0.712
732	-0.719
732	-0.717
733	-0.719
733	-0.725
734	-0.72
734	-0.72
734	-0.706
735	-0.705
735	-0.707
736	-0.715
736	-0.704
737	-0.695
737	-0.699
737	-0.708
738	-0.703
738	-0.705
739	-0.703
739	-0.717
740	-0.717
740	-0.717
741	-0.713
741	-0.713
741	-0.718
742	-0.716
742	-0.717
743	-0.726
743	-0.73
744	-0.725
744	-0.715
744	-0.716
745	-0.723
745	-0.717
746	-0.716
746	-0.713
747	-0.714
747	-0.701
748	-0.687
748	-0.693
748	-0.696
749	-0.695
749	-0.698
750	-0.685
750	-0.688
751	-0.693
751	-0.701
751	-0.701
752	-0.708
752	-0.717
753	-0.713
753	-0.711
754	-0.716
754	-0.707
754	-0.723
755	-0.74
755	-0.751
756	-0.74
756	-0.737
757	-0.733
757	-0.728
758	-0.728
758	-0.726
758	-0.73
759	-0.737
759	-0.721
760	-0.712
760	-0.71
761	-0.719
761	-0.716
761	-0.714
762	-0.721
762	-0.721
763	-0.729
763	-0.725
764	-0.722
764	-0.73
764	-0.736
765	-0.725
765	-0.712
766	-0.721
766	-0.73
767	-0.745
767	-0.737
768	-0.728
768	-0.737
768	-0.742
769	-0.759
769	-0.761
770	-0.766
770	-0.782
771	-0.778
771	-0.78
771	-0.782
772	-0.787
772	-0.786
773	-0.787
773	-0.782
774	-0.781
774	-0.78
775	-0.782
775	-0.775
775	-0.78
776	-0.78
776	-0.768
777	-0.776
777	-0.796
778	-0.792
778	-0.811
778	-0.799
779	-0.82
779	-0.827
780	-0.839
780	-0.839
781	-0.851
781	-0.845
781	-0.861
782	-0.862
782	-0.862
783	-0.846
783	-0.843
784	-0.823
784	-0.811
784	-0.82
785	-0.827
785	-0.811
786	-0.818
786	-0.798
787	-0.785
787	-0.789
788	-0.794
788	-0.805
788	-0.818
789	-0.824
789	-0.809
790	-0.793
790	-0.798
791	-0.799
791	-0.817
791	-0.824
792	-0.818
792	-0.795
793	-0.786
793	-0.763
794	-0.764
794	-0.754
794	-0.761
795	-0.757
795	-0.75
796	-0.735
796	-0.742
797	-0.737
797	-0.751
797	-0.757
798	-0.771
798	-0.768
799	-0.781
799	-0.766
800	-0.774
800	-0.766
801	-0.77
801	-0.756
801	-0.765
802	-0.773
802	-0.773
803	-0.774
803	-0.781
804	-0.773
804	-0.786
804	-0.771
805	-0.777
805	-0.767
806	-0.768
806	-0.754
807	-0.749
807	-0.731
807	-0.719
808	-0.71
808	-0.706
809	-0.691
809	-0.699
810	-0.697
810	-0.691
810	-0.689
811	-0.696
811	-0.689
812	-0.693
812	-0.696
813	-0.7
813	-0.695
813	-0.701
814	-0.704
814	-0.706
815	-0.708
815	-0.714
816	-0.707
816	-0.712
817	-0.718
817	-0.737
817	-0.753
818	-0.761
818	-0.764
819	-0.757
819	-0.76
820	-0.771
820	-0.766
820	-0.778
821	-0.775
821	-0.763
822	-0.731
822	-0.706
823	-0.703
823	-0.706
823	-0.702
824	-0.698
824	-0.699
825	-0.691
825	-0.671
826	-0.667
826	-0.676
826	-0.685
827	-0.681
827	-0.678
828	-0.658
828	-0.66
829	-0.65
829	-0.637
829	-0.629
830	-0.638
830	-0.633
831	-0.624
831	-0.616
832	-0.614
832	-0.606
832	-0.615
833	-0.608
833	-0.608
834	-0.605
834	-0.615
835	-0.603
835	-0.6
835	-0.595
836	-0.594
836	-0.591
837	-0.588
837	-0.576
838	-0.569
838	-0.557
839	-0.545
839	-0.532
839	-0.523
840	-0.511
840	-0.507
841	-0.495
841	-0.486
842	-0.482
842	-0.473
842	-0.466
843	-0.462
843	-0.457
844	-0.449
844	-0.443
845	-0.437
845	-0.428
845	-0.413
846	-0.403
846	-0.389
847	-0.378
847	-0.367
848	-0.356
848	-0.346
848	-0.332
849	-0.323
849	-0.312
850	-0.298
850	-0.292
851	-0.284
851	-0.275
851	-0.266
852	-0.253
852	-0.241
853	-0.233
853	-0.227
854	-0.215
854	-0.205
854	-0.196
855	-0.186
855	-0.18
856	-0.17
856	-0.163
857	-0.158
857	-0.15
857	-0.139
858	-0.129
858	-0.122
859	-0.115
859	-0.105
860	-0.097
860	-0.086
860	-0.08
861	-0.073
861	-0.065
862	-0.059
862	-0.053
863	-0.047
863	-0.04
863	-0.035
864	-0.031
864	-0.026
865	-0.021
865	-0.017
866	-0.014
866	-0.011
866	-0.008
867	-0.005
867	-0.002
868	0
868	0.003
869	0.005
869	0.008
869	0.009
870	0.011
870	0.014
871	0.016
871	0.018
872	0.02
872	0.021
872	0.022
873	0.023
873	0.023
874	0.023
874	0.023
875	0.022
875	0.021
875	0.02
876	0.019
876	0.018
877	0.016
877	0.015
878	0.013
878	0.012
878	0.01
879	0.008
879	0.007
880	0.007
880	0.007
881	0.007
881	0.007
881	0.006
882	0.006
882	0.005
883	0.004
883	0.002
884	0.002
884	0.001
884	0
885	-0
885	-0.001
886	-0.001
886	-0.001
887	-0.001
887	-0.001
887	-0
888	0.001
888	0.001
889	0.002
889	0.002
890	0.003
890	0.003
890	0.003
891	0.003
891	0.004
892	0.004
892	0.005
893	0.005
893	0.005
893	0.005
894	0.006
894	0.006
895	0.005
895	0.006
895	0.006
896	0.005
896	0.004
897	0.003
897	0.002
898	0.001
898	0
898	0
899	0
899	0.001
900	0.001
900	0.001
901	0.002
901	0.003
901	0.004
902	0.005
902	0.006
903	0.007
903	0.007
904	0.008
904	0.008
904	0.008
905	0.009
905	0.009
906	0.009
906	0.01
907	0.009
907	0.009
907	0.009
908	0.009
908	0.008
909	0.008
909	0.007
910	0.007
910	0.007
910	0.007
911	0.007
911	0.007
912	0.008
912	0.008
913	0.009
913	0.01
913	0.011
914	0.012
914	0.012
915	0.013
915	0.013
916	0.013
916	0.014
916	0.014
917	0.014
917	0.014
918	0.014
918	0.014
918	0.013
919	0.013
919	0.013
920	0.013
920	0.013
921	0.013
921	0.012
921	0.012
922	0.012
922	0.012
923	0.011
923	0.011
924	0.011
924	0.01
924	0.01
925	0.009
925	0.008
926	0.008
926	0.007
927	0.007
927	0.006
927	0.006
928	0.005
928	0.005
929	0.005
929	0.005
930	0.004
930	0.004
930	0.003
931	0.003
931	0.003
932	0.003
932	0.002
933	0.001
933	0
933	-0.001
934	-0.002
934	-0.003
935	-0.003
935	-0.004
935	-0.005
936	-0.006
936	-0.007
937	-0.008
937	-0.008
938	-0.009
938	-0.009
938	-0.009
939	-0.008
939	-0.008
940	-0.007
940	-0.007
941	-0.006
941	-0.005
941	-0.004
942	-0.004
942	-0.003
943	-0.002
943	-0.002
944	-0.002
944	-0.002
944	-0.002
945	-0.003
945	-0.004
946	-0.004
946	-0.006
946	-0.006
947	-0.007
947	-0.008
948	-0.008
948	-0.008
949	-0.009
949	-0.008
949	-0.008
950	-0.007
950	-0.007
951	-0.006
951	-0.005
952	-0.004
952	-0.003
952	-0.002
953	-0.001
953	0
954	0.001
954	0.002
955	0.003
955	0.004
955	0.005
956	0.006
956	0.007
957	0.007
957	0.008
957	0.008
958	0.008
958	0.009
959	0.01
959	0.01
960	0.011
960	0.011
960	0.012
961	0.012
961	0.012
962	0.012
962	0.012
963	0.013
963	0.013
963	0.013
964	0.013
964	0.013
965	0.013
965	0.013
966	0.013
966	0.013
966	0.012
967	0.012
967	0.011
968	0.011
968	0.01
968	0.01
969	0.009
969	0.009
970	0.009
970	0.008
971	0.008
971	0.009
971	0.009
972	0.009
972	0.009
973	0.01
973	0.01
974	0.01
974	0.01
974	0.01
975	0.01
975	0.009
976	0.009
976	0.009
976	0.008
977	0.008
977	0.008
978	0.008
978	0.008
979	0.008
979	0.008
979	0.008
980	0.008
980	0.008
981	0.008
981	0.008
982	0.008
982	0.007
982	0.007
983	0.007
983	0.007
984	0.007
984	0.007
984	0.007
985	0.007
985	0.007
986	0.007
986	0.006
987	0.006
987	0.006
987	0.005
988	0.004
988	0.004
989	0.003
989	0.002
990	0.001
990	-0
990	-0.001
991	-0.001
991	-0.002
992	-0.002
992	-0.002
992	-0.003
993	-0.003
993	-0.003
994	-0.002
994	-0.003
995	-0.003
995	-0.003
995	-0.004
996	-0.004
996	-0.004
997	-0.005
997	-0.005
997	-0.005
998	-0.005
998	-0.005
999	-0.005
999	-0.005
1000	-0.004
1000	-0.004
1000	-0.004
1001	-0.003
1001	-0.003
1002	-0.003
1002	-0.003
1003	-0.003
1003	-0.003
1003	-0.003
1004	-0.003
1004	-0.004
1005	-0.004
1005	-0.005
1005	-0.006
1006	-0.007
1006	-0.008
1007	-0.009
1007	-0.01
1008	-0.011
1008	-0.011
1008	-0.012
1009	-0.012
1009	-0.012
1010	-0.012
1010	-0.011
1010	-0.011
1011	-0.011
1011	-0.011
1012	-0.011
1012	-0.011
1013	-0.011
1013	-0.012
1013	-0.012
1014	-0.012
1014	-0.013
1015	-0.013
1015	-0.014
1016	-0.014
1016	-0.015
1016	-0.016
1017	-0.017
1017	-0.018
1018	-0.018
1018	-0.019
1018	-0.02
1019	-0.02
1019	-0.021
1020	-0.022
1020	-0.023
1021	-0.023
1021	-0.024
1021	-0.024
1022	-0.025
1022	-0.025
1023	-0.026
1023	-0.026
1023	-0.026
1024	-0.027
1024	-0.027
1025	-0.027
1025	-0.027
1026	-0.027
1026	-0.026
1026	-0.026
1027	-0.026
1027	-0.025
1028	-0.025
1028	-0.025
1028	-0.025
1029	-0.025
1029	-0.024
1030	-0.025
1030	-0.025
1031	-0.026
1031	-0.026
1031	-0.026
1032	-0.026
1032	-0.026
1033	-0.026
1033	-0.026
1033	-0.025
1034	-0.025
1034	-0.025
1035	-0.025
1035	-0.025
1036	-0.025
1036	-0.026
1036	-0.025
1037	-0.025
1037	-0.025
1038	-0.025
1038	-0.025
1039	-0.024
1039	-0.024
1039	-0.023
1040	-0.023
1040	-0.022
1041	-0.021
1041	-0.021
1041	-0.02
1042	-0.02
1042	-0.021
1043	-0.021
1043	-0.022
1044	-0.022
1044	-0.023
1044	-0.024
1045	-0.025
1045	-0.026
1046	-0.027
1046	-0.027
1046	-0.028
1047	-0.028
1047	-0.028
1048	-0.028
1048	-0.028
1049	-0.028
1049	-0.027
1049	-0.027
1050	-0.027
1050	-0.027
1051	-0.026
1051	-0.026
1051	-0.026
1052	-0.025
1052	-0.025
1053	-0.025
1053	-0.024
1053	-0.024
1054	-0.024
1054	-0.024
1055	-0.024
1055	-0.024
1056	-0.025
1056	-0.026
1056	-0.027
1057	-0.027
1057	-0.028
1058	-0.028
1058	-0.029
1058	-0.029
1059	-0.03
1059	-0.031
1060	-0.031
1060	-0.032
1061	-0.032
1061	-0.032
1061	-0.032
1062	-0.032
1062	-0.032
1063	-0.032
1063	-0.032
1063	-0.032
1064	-0.031
1064	-0.031
1065	-0.031
1065	-0.031
1066	-0.031
1066	-0.031
1066	-0.031
1067	-0.031
1067	-0.031
1068	-0.031
1068	-0.032
1068	-0.032
1069	-0.033
1069	-0.033
1070	-0.033
1070	-0.034
1071	-0.034
1071	-0.035
1071	-0.035
1072	-0.036
1072	-0.036
1073	-0.037
1073	-0.037
1073	-0.038
1074	-0.037
1074	-0.037
1075	-0.038
1075	-0.038
1076	-0.038
1076	-0.038
1076	-0.039
1077	-0.039
1077	-0.039
1078	-0.04
1078	-0.041
1078	-0.042
1079	-0.042
1079	-0.043
1080	-0.043
1080	-0.044
1080	-0.045
1081	-0.045
1081	-0.046
1082	-0.047
1082	-0.047
1083	-0.047
1083	-0.048
1083	-0.049
1084	-0.049
1084	-0.05
1085	-0.051
1085	-0.051
1085	-0.052
1086	-0.052
1086	-0.053
1087	-0.052
1087	-0.053
1088	-0.053
1088	-0.054
1088	-0.054
1089	-0.055
1089	-0.056
1090	-0.058
1090	-0.058
1090	-0.06
1091	-0.061
1091	-0.061
1092	-0.062
1092	-0.062
1092	-0.063
1093	-0.064
1093	-0.064
1094	-0.064
1094	-0.064
1095	-0.065
1095	-0.065
1095	-0.065
1096	-0.066
1096	-0.066
1097	-0.067
1097	-0.068
1097	-0.068
1098	-0.07
1098	-0.072
1099	-0.072
1099	-0.073
1100	-0.074
1100	-0.075
1100	-0.077
1101	-0.08
1101	-0.082
1102	-0.084
1102	-0.086
1102	-0.087
1103	-0.089
1103	-0.091
1104	-0.093
1104	-0.096
1104	-0.099
1105	-0.101
1105	-0.104
1106	-0.108
1106	-0.109
1107	-0.114
1107	-0.117
1107	-0.122
1108	-0.124
1108	-0.127
1109	-0.129
1109	-0.134
1109	-0.136
1110	-0.136
1110	-0.137
1111	-0.144
1111	-0.14
