Data from 17C_3.4A_35min_2sec_int_Absorbance__236__04321.txt Node

Date: Mon Jun 19 19:51:02 CEST 2023
User: Marek
Spectrometer: MAYP115816
Trigger mode: 0
Integration Time (sec): 2.500000E-1
Scans to average: 10
Electric dark correction enabled: true
Nonlinearity correction enabled: true
Boxcar width: 5
XAxis mode: Wavelengths
Number of Pixels in Spectrum: 2068
>>>>>Begin Spectral Data<<<<<
199	-0.777
199	-0.782
200	-0.679
200	-0.623
201	-0.586
201	-0.572
202	-0.555
202	-0.54
203	-0.532
203	-0.525
204	-0.508
204	-0.492
205	-0.469
205	-0.465
205	-0.463
206	-0.466
206	-0.468
207	-0.459
207	-0.462
208	-0.463
208	-0.463
209	-0.458
209	-0.458
210	-0.461
210	-0.466
211	-0.468
211	-0.468
212	-0.47
212	-0.476
213	-0.474
213	-0.477
213	-0.482
214	-0.48
214	-0.48
215	-0.479
215	-0.485
216	-0.489
216	-0.498
217	-0.493
217	-0.497
218	-0.5
218	-0.498
219	-0.501
219	-0.512
220	-0.518
220	-0.528
221	-0.526
221	-0.528
221	-0.52
222	-0.519
222	-0.522
223	-0.524
223	-0.529
224	-0.532
224	-0.53
225	-0.525
225	-0.52
226	-0.526
226	-0.526
227	-0.533
227	-0.542
228	-0.541
228	-0.543
229	-0.544
229	-0.537
229	-0.533
230	-0.535
230	-0.538
231	-0.532
231	-0.524
232	-0.518
232	-0.517
233	-0.511
233	-0.508
234	-0.507
234	-0.504
235	-0.506
235	-0.511
236	-0.512
236	-0.514
236	-0.519
237	-0.524
237	-0.523
238	-0.532
238	-0.533
239	-0.533
239	-0.543
240	-0.543
240	-0.541
241	-0.545
241	-0.545
242	-0.548
242	-0.546
243	-0.544
243	-0.544
243	-0.553
244	-0.551
244	-0.549
245	-0.564
245	-0.566
246	-0.57
246	-0.577
247	-0.578
247	-0.582
248	-0.586
248	-0.584
249	-0.584
249	-0.592
250	-0.592
250	-0.587
250	-0.586
251	-0.582
251	-0.58
252	-0.584
252	-0.575
253	-0.581
253	-0.593
254	-0.594
254	-0.591
255	-0.6
255	-0.594
256	-0.591
256	-0.603
257	-0.599
257	-0.596
258	-0.612
258	-0.607
258	-0.602
259	-0.599
259	-0.609
260	-0.608
260	-0.614
261	-0.625
261	-0.615
262	-0.613
262	-0.614
263	-0.603
263	-0.599
264	-0.6
264	-0.606
265	-0.602
265	-0.607
265	-0.611
266	-0.609
266	-0.608
267	-0.623
267	-0.629
268	-0.643
268	-0.652
269	-0.65
269	-0.645
270	-0.65
270	-0.655
271	-0.653
271	-0.659
272	-0.663
272	-0.657
272	-0.649
273	-0.65
273	-0.658
274	-0.663
274	-0.666
275	-0.666
275	-0.658
276	-0.664
276	-0.658
277	-0.662
277	-0.68
278	-0.693
278	-0.685
278	-0.679
279	-0.682
279	-0.693
280	-0.691
280	-0.693
281	-0.688
281	-0.693
282	-0.685
282	-0.684
283	-0.673
283	-0.675
284	-0.67
284	-0.66
285	-0.656
285	-0.654
285	-0.648
286	-0.654
286	-0.648
287	-0.643
287	-0.629
288	-0.622
288	-0.631
289	-0.642
289	-0.654
290	-0.642
290	-0.639
291	-0.637
291	-0.631
292	-0.633
292	-0.642
292	-0.644
293	-0.649
293	-0.636
294	-0.626
294	-0.612
295	-0.61
295	-0.607
296	-0.605
296	-0.604
297	-0.598
297	-0.58
298	-0.574
298	-0.581
298	-0.571
299	-0.565
299	-0.567
300	-0.562
300	-0.556
301	-0.552
301	-0.55
302	-0.558
302	-0.568
303	-0.554
303	-0.541
304	-0.545
304	-0.543
305	-0.546
305	-0.548
305	-0.547
306	-0.532
306	-0.525
307	-0.512
307	-0.513
308	-0.529
308	-0.527
309	-0.53
309	-0.521
310	-0.507
310	-0.502
311	-0.493
311	-0.501
311	-0.498
312	-0.493
312	-0.491
313	-0.476
313	-0.478
314	-0.473
314	-0.477
315	-0.477
315	-0.474
316	-0.47
316	-0.462
317	-0.453
317	-0.449
318	-0.439
318	-0.435
318	-0.429
319	-0.417
319	-0.413
320	-0.407
320	-0.409
321	-0.413
321	-0.411
322	-0.407
322	-0.402
323	-0.4
323	-0.396
324	-0.387
324	-0.379
324	-0.364
325	-0.355
325	-0.337
326	-0.323
326	-0.304
327	-0.286
327	-0.263
328	-0.234
328	-0.211
329	-0.187
329	-0.159
330	-0.129
330	-0.092
330	-0.061
331	-0.027
331	0.005
332	0.035
332	0.063
333	0.09
333	0.12
334	0.148
334	0.17
335	0.191
335	0.21
336	0.228
336	0.245
336	0.259
337	0.274
337	0.286
338	0.296
338	0.304
339	0.314
339	0.322
340	0.328
340	0.334
341	0.34
341	0.344
342	0.349
342	0.354
342	0.358
343	0.36
343	0.365
344	0.367
344	0.369
345	0.371
345	0.373
346	0.374
346	0.375
347	0.376
347	0.376
348	0.377
348	0.378
348	0.378
349	0.378
349	0.379
350	0.379
350	0.379
351	0.379
351	0.379
352	0.379
352	0.379
353	0.379
353	0.379
354	0.379
354	0.379
354	0.379
355	0.378
355	0.378
356	0.378
356	0.378
357	0.377
357	0.377
358	0.377
358	0.376
359	0.376
359	0.376
360	0.375
360	0.375
360	0.375
361	0.375
361	0.374
362	0.374
362	0.374
363	0.374
363	0.374
364	0.374
364	0.373
365	0.373
365	0.373
366	0.373
366	0.372
366	0.372
367	0.372
367	0.371
368	0.371
368	0.371
369	0.37
369	0.37
370	0.37
370	0.37
371	0.369
371	0.369
372	0.368
372	0.368
372	0.368
373	0.367
373	0.367
374	0.367
374	0.366
375	0.366
375	0.366
376	0.365
376	0.365
377	0.365
377	0.364
378	0.364
378	0.364
378	0.363
379	0.363
379	0.363
380	0.362
380	0.362
381	0.361
381	0.361
382	0.36
382	0.36
383	0.359
383	0.359
383	0.358
384	0.358
384	0.358
385	0.357
385	0.357
386	0.357
386	0.356
387	0.356
387	0.356
388	0.355
388	0.355
389	0.355
389	0.354
389	0.354
390	0.354
390	0.354
391	0.353
391	0.353
392	0.353
392	0.352
393	0.352
393	0.352
394	0.351
394	0.351
394	0.35
395	0.349
395	0.349
396	0.348
396	0.348
397	0.347
397	0.347
398	0.347
398	0.346
399	0.346
399	0.346
400	0.346
400	0.345
400	0.345
401	0.345
401	0.344
402	0.344
402	0.344
403	0.343
403	0.343
404	0.342
404	0.342
405	0.342
405	0.341
405	0.341
406	0.341
406	0.34
407	0.34
407	0.34
408	0.339
408	0.339
409	0.339
409	0.339
410	0.338
410	0.338
411	0.338
411	0.338
411	0.338
412	0.338
412	0.337
413	0.337
413	0.337
414	0.337
414	0.336
415	0.336
415	0.335
416	0.335
416	0.335
416	0.335
417	0.334
417	0.334
418	0.334
418	0.334
419	0.334
419	0.334
420	0.334
420	0.334
421	0.333
421	0.333
421	0.333
422	0.333
422	0.333
423	0.333
423	0.332
424	0.332
424	0.331
425	0.331
425	0.331
426	0.33
426	0.33
427	0.33
427	0.33
427	0.329
428	0.329
428	0.329
429	0.329
429	0.329
430	0.329
430	0.329
431	0.329
431	0.328
432	0.328
432	0.328
432	0.328
433	0.328
433	0.327
434	0.327
434	0.327
435	0.327
435	0.327
436	0.327
436	0.327
437	0.327
437	0.327
437	0.327
438	0.327
438	0.327
439	0.327
439	0.327
440	0.327
440	0.327
441	0.327
441	0.327
442	0.327
442	0.327
442	0.327
443	0.327
443	0.327
444	0.327
444	0.327
445	0.327
445	0.327
446	0.327
446	0.327
447	0.327
447	0.328
447	0.328
448	0.328
448	0.328
449	0.328
449	0.328
450	0.329
450	0.329
451	0.329
451	0.329
452	0.329
452	0.329
452	0.329
453	0.329
453	0.329
454	0.329
454	0.329
455	0.329
455	0.33
456	0.33
456	0.33
457	0.33
457	0.33
458	0.331
458	0.331
458	0.331
459	0.331
459	0.332
460	0.331
460	0.332
461	0.332
461	0.332
462	0.333
462	0.333
463	0.333
463	0.334
463	0.334
464	0.335
464	0.335
465	0.336
465	0.336
466	0.337
466	0.338
467	0.338
467	0.339
467	0.339
468	0.34
468	0.34
469	0.341
469	0.342
470	0.343
470	0.343
471	0.344
471	0.344
472	0.345
472	0.346
472	0.347
473	0.347
473	0.348
474	0.349
474	0.35
475	0.351
475	0.351
476	0.352
476	0.353
477	0.354
477	0.355
477	0.356
478	0.358
478	0.359
479	0.36
479	0.361
480	0.362
480	0.364
481	0.365
481	0.367
482	0.368
482	0.369
482	0.37
483	0.372
483	0.374
484	0.375
484	0.376
485	0.377
485	0.379
486	0.38
486	0.382
487	0.384
487	0.385
487	0.387
488	0.389
488	0.391
489	0.393
489	0.396
490	0.399
490	0.401
491	0.403
491	0.406
492	0.408
492	0.41
492	0.412
493	0.415
493	0.417
494	0.42
494	0.423
495	0.425
495	0.427
496	0.43
496	0.433
496	0.436
497	0.439
497	0.442
498	0.445
498	0.448
499	0.451
499	0.454
500	0.458
500	0.461
501	0.464
501	0.467
501	0.47
502	0.473
502	0.476
503	0.479
503	0.482
504	0.485
504	0.489
505	0.492
505	0.495
506	0.498
506	0.502
506	0.505
507	0.508
507	0.512
508	0.515
508	0.518
509	0.521
509	0.524
510	0.528
510	0.531
511	0.534
511	0.538
511	0.541
512	0.545
512	0.548
513	0.551
513	0.554
514	0.557
514	0.561
515	0.563
515	0.566
515	0.569
516	0.572
516	0.575
517	0.578
517	0.58
518	0.582
518	0.585
519	0.587
519	0.589
520	0.591
520	0.594
520	0.596
521	0.597
521	0.599
522	0.601
522	0.603
523	0.605
523	0.607
524	0.608
524	0.609
524	0.61
525	0.611
525	0.611
526	0.612
526	0.612
527	0.613
527	0.613
528	0.613
528	0.614
529	0.614
529	0.614
529	0.614
530	0.614
530	0.614
531	0.614
531	0.613
532	0.612
532	0.611
533	0.61
533	0.609
533	0.608
534	0.606
534	0.604
535	0.602
535	0.6
536	0.598
536	0.595
537	0.593
537	0.591
538	0.588
538	0.586
538	0.584
539	0.582
539	0.579
540	0.576
540	0.574
541	0.571
541	0.568
542	0.565
542	0.562
542	0.558
543	0.555
543	0.551
544	0.548
544	0.544
545	0.541
545	0.538
546	0.535
546	0.531
547	0.527
547	0.523
547	0.52
548	0.517
548	0.513
549	0.51
549	0.506
550	0.502
550	0.499
551	0.495
551	0.491
551	0.488
552	0.485
552	0.482
553	0.478
553	0.475
554	0.471
554	0.467
555	0.463
555	0.459
556	0.455
556	0.451
556	0.447
557	0.443
557	0.439
558	0.435
558	0.431
559	0.427
559	0.422
560	0.418
560	0.414
560	0.411
561	0.407
561	0.404
562	0.4
562	0.396
563	0.392
563	0.388
564	0.385
564	0.382
564	0.379
565	0.376
565	0.372
566	0.369
566	0.365
567	0.362
567	0.358
568	0.355
568	0.35
568	0.347
569	0.343
569	0.339
570	0.335
570	0.331
571	0.328
571	0.324
572	0.321
572	0.317
573	0.314
573	0.311
573	0.308
574	0.305
574	0.303
575	0.3
575	0.298
576	0.295
576	0.292
577	0.289
577	0.287
577	0.285
578	0.283
578	0.281
579	0.279
579	0.277
580	0.273
580	0.27
581	0.267
581	0.265
581	0.263
582	0.261
582	0.26
583	0.258
583	0.255
584	0.251
584	0.248
585	0.247
585	0.245
585	0.243
586	0.241
586	0.239
587	0.237
587	0.235
588	0.232
588	0.23
589	0.229
589	0.227
590	0.225
590	0.223
590	0.223
591	0.22
591	0.218
592	0.215
592	0.213
593	0.212
593	0.21
594	0.208
594	0.207
594	0.205
595	0.204
595	0.202
596	0.2
596	0.2
597	0.199
597	0.197
598	0.196
598	0.194
598	0.192
599	0.191
599	0.189
600	0.187
600	0.185
601	0.184
601	0.182
602	0.179
602	0.178
602	0.177
603	0.176
603	0.176
604	0.175
604	0.174
605	0.174
605	0.173
606	0.172
606	0.17
606	0.169
607	0.168
607	0.166
608	0.165
608	0.162
609	0.161
609	0.16
610	0.159
610	0.158
610	0.157
611	0.157
611	0.157
612	0.157
612	0.157
613	0.157
613	0.156
614	0.155
614	0.153
614	0.152
615	0.151
615	0.149
616	0.148
616	0.147
617	0.145
617	0.143
618	0.142
618	0.14
618	0.139
619	0.139
619	0.139
620	0.139
620	0.137
621	0.136
621	0.136
622	0.135
622	0.134
622	0.133
623	0.132
623	0.132
624	0.131
624	0.13
625	0.129
625	0.129
626	0.128
626	0.127
626	0.127
627	0.126
627	0.125
628	0.124
628	0.123
629	0.122
629	0.121
630	0.119
630	0.117
630	0.116
631	0.115
631	0.113
632	0.111
632	0.11
633	0.108
633	0.106
634	0.105
634	0.104
634	0.102
635	0.1
635	0.098
636	0.096
636	0.094
637	0.091
637	0.089
638	0.086
638	0.083
638	0.08
639	0.077
639	0.074
640	0.071
640	0.068
641	0.065
641	0.062
642	0.058
642	0.055
642	0.051
643	0.048
643	0.044
644	0.039
644	0.035
645	0.031
645	0.027
646	0.023
646	0.018
646	0.013
647	0.009
647	0.004
648	-0.001
648	-0.005
649	-0.01
649	-0.015
650	-0.02
650	-0.026
650	-0.032
651	-0.039
651	-0.048
652	-0.058
652	-0.068
653	-0.077
653	-0.085
653	-0.081
654	-0.07
654	-0.067
655	-0.07
655	-0.074
656	-0.078
656	-0.083
657	-0.086
657	-0.089
657	-0.094
658	-0.099
658	-0.12
659	-0.179
659	-0.246
660	-0.278
660	-0.297
661	-0.317
661	-0.34
661	-0.365
662	-0.388
662	-0.412
663	-0.44
663	-0.47
664	-0.502
664	-0.541
665	-0.577
665	-0.622
665	-0.666
666	-0.71
666	-0.759
667	-0.811
667	-0.865
668	-0.927
668	-0.992
669	-1.057
669	-1.122
669	-1.192
670	-1.245
670	-1.263
671	-1.432
671	-1.855
672	-2.128
672	-2.34
672	-2.482
673	-2.583
673	-2.67
674	-2.697
674	-2.713
675	-2.739
675	-2.882
676	-3.084
676	-3.03
676	-2.797
677	-2.579
677	-2.392
678	-2.165
678	-1.669
679	-1.418
679	-1.3
680	-1.218
680	-1.147
680	-1.088
681	-1.055
681	-1.008
682	-0.98
682	-0.952
683	-0.927
683	-0.92
684	-0.909
684	-0.899
684	-0.887
685	-0.872
685	-0.858
686	-0.839
686	-0.83
687	-0.812
687	-0.808
687	-0.794
688	-0.773
688	-0.759
689	-0.745
689	-0.736
690	-0.719
690	-0.712
691	-0.712
691	-0.72
691	-0.739
692	-0.733
692	-0.729
693	-0.726
693	-0.735
694	-0.731
694	-0.729
695	-0.737
695	-0.735
695	-0.721
696	-0.72
696	-0.7
697	-0.703
697	-0.721
698	-0.725
698	-0.717
698	-0.734
699	-0.737
699	-0.735
700	-0.728
700	-0.744
701	-0.746
701	-0.753
702	-0.752
702	-0.739
702	-0.73
703	-0.725
703	-0.715
704	-0.711
704	-0.713
705	-0.725
705	-0.719
705	-0.708
706	-0.71
706	-0.705
707	-0.712
707	-0.71
708	-0.708
708	-0.7
709	-0.708
709	-0.709
709	-0.7
710	-0.71
710	-0.721
711	-0.712
711	-0.715
712	-0.714
712	-0.728
713	-0.728
713	-0.738
713	-0.727
714	-0.726
714	-0.728
715	-0.716
715	-0.703
716	-0.712
716	-0.713
716	-0.706
717	-0.707
717	-0.708
718	-0.698
718	-0.7
719	-0.706
719	-0.707
720	-0.705
720	-0.715
720	-0.709
721	-0.697
721	-0.698
722	-0.686
722	-0.678
723	-0.678
723	-0.683
723	-0.669
724	-0.672
724	-0.675
725	-0.673
725	-0.679
726	-0.695
726	-0.7
727	-0.707
727	-0.719
727	-0.727
728	-0.725
728	-0.733
729	-0.732
729	-0.736
730	-0.743
730	-0.738
730	-0.727
731	-0.71
731	-0.72
732	-0.726
732	-0.726
733	-0.725
733	-0.73
734	-0.726
734	-0.727
734	-0.712
735	-0.711
735	-0.712
736	-0.724
736	-0.711
737	-0.704
737	-0.706
737	-0.716
738	-0.712
738	-0.709
739	-0.707
739	-0.722
740	-0.722
740	-0.723
741	-0.717
741	-0.717
741	-0.721
742	-0.717
742	-0.718
743	-0.724
743	-0.728
744	-0.728
744	-0.717
744	-0.718
745	-0.725
745	-0.719
746	-0.718
746	-0.713
747	-0.717
747	-0.706
748	-0.695
748	-0.703
748	-0.703
749	-0.701
749	-0.702
750	-0.692
750	-0.694
751	-0.699
751	-0.709
751	-0.71
752	-0.716
752	-0.727
753	-0.72
753	-0.717
754	-0.724
754	-0.716
754	-0.729
755	-0.743
755	-0.753
756	-0.742
756	-0.739
757	-0.736
757	-0.729
758	-0.731
758	-0.728
758	-0.73
759	-0.738
759	-0.723
760	-0.715
760	-0.713
761	-0.724
761	-0.721
761	-0.718
762	-0.727
762	-0.726
763	-0.737
763	-0.735
764	-0.734
764	-0.741
764	-0.747
765	-0.736
765	-0.72
766	-0.728
766	-0.737
767	-0.75
767	-0.746
768	-0.734
768	-0.743
768	-0.748
769	-0.766
769	-0.767
770	-0.769
770	-0.786
771	-0.783
771	-0.786
771	-0.786
772	-0.789
772	-0.79
773	-0.788
773	-0.783
774	-0.779
774	-0.779
775	-0.784
775	-0.777
775	-0.783
776	-0.781
776	-0.771
777	-0.779
777	-0.798
778	-0.795
778	-0.814
778	-0.803
779	-0.825
779	-0.833
780	-0.846
780	-0.846
781	-0.857
781	-0.852
781	-0.868
782	-0.868
782	-0.871
783	-0.858
783	-0.856
784	-0.836
784	-0.826
784	-0.835
785	-0.843
785	-0.83
786	-0.836
786	-0.813
787	-0.801
787	-0.801
788	-0.805
788	-0.818
788	-0.829
789	-0.831
789	-0.812
790	-0.792
790	-0.796
791	-0.796
791	-0.816
791	-0.821
792	-0.818
792	-0.794
793	-0.781
793	-0.758
794	-0.762
794	-0.756
794	-0.766
795	-0.761
795	-0.756
796	-0.738
796	-0.745
797	-0.737
797	-0.753
797	-0.761
798	-0.774
798	-0.769
799	-0.778
799	-0.763
800	-0.769
800	-0.759
801	-0.762
801	-0.747
801	-0.759
802	-0.766
802	-0.765
803	-0.768
803	-0.776
804	-0.772
804	-0.783
804	-0.77
805	-0.777
805	-0.77
806	-0.774
806	-0.757
807	-0.756
807	-0.736
807	-0.724
808	-0.715
808	-0.71
809	-0.696
809	-0.706
810	-0.704
810	-0.695
810	-0.692
811	-0.699
811	-0.689
812	-0.691
812	-0.695
813	-0.7
813	-0.695
813	-0.7
814	-0.703
814	-0.707
815	-0.713
815	-0.717
816	-0.709
816	-0.713
817	-0.722
817	-0.739
817	-0.755
818	-0.763
818	-0.767
819	-0.757
819	-0.757
820	-0.765
820	-0.762
820	-0.775
821	-0.773
821	-0.761
822	-0.729
822	-0.704
823	-0.701
823	-0.702
823	-0.7
824	-0.695
824	-0.696
825	-0.688
825	-0.667
826	-0.664
826	-0.672
826	-0.682
827	-0.677
827	-0.673
828	-0.654
828	-0.653
829	-0.645
829	-0.633
829	-0.626
830	-0.636
830	-0.632
831	-0.625
831	-0.614
832	-0.613
832	-0.605
832	-0.611
833	-0.607
833	-0.607
834	-0.605
834	-0.612
835	-0.601
835	-0.595
835	-0.59
836	-0.588
836	-0.584
837	-0.582
837	-0.573
838	-0.566
838	-0.555
839	-0.542
839	-0.531
839	-0.521
840	-0.511
840	-0.509
841	-0.499
841	-0.492
842	-0.486
842	-0.476
842	-0.468
843	-0.462
843	-0.457
844	-0.446
844	-0.437
845	-0.43
845	-0.418
845	-0.406
846	-0.396
846	-0.382
847	-0.372
847	-0.359
848	-0.347
848	-0.337
848	-0.323
849	-0.315
849	-0.304
850	-0.292
850	-0.286
851	-0.277
851	-0.267
851	-0.258
852	-0.245
852	-0.233
853	-0.225
853	-0.22
854	-0.209
854	-0.199
854	-0.188
855	-0.177
855	-0.171
856	-0.162
856	-0.155
857	-0.149
857	-0.142
857	-0.131
858	-0.121
858	-0.115
859	-0.108
859	-0.097
860	-0.09
860	-0.077
860	-0.071
861	-0.064
861	-0.057
862	-0.05
862	-0.044
863	-0.038
863	-0.03
863	-0.025
864	-0.021
864	-0.016
865	-0.011
865	-0.007
866	-0.003
866	-0
866	0.003
867	0.005
867	0.008
868	0.011
868	0.014
869	0.016
869	0.018
869	0.02
870	0.022
870	0.024
871	0.026
871	0.028
872	0.029
872	0.031
872	0.032
873	0.032
873	0.033
874	0.033
874	0.033
875	0.032
875	0.031
875	0.03
876	0.029
876	0.028
877	0.026
877	0.025
878	0.023
878	0.021
878	0.02
879	0.018
879	0.017
880	0.017
880	0.016
881	0.016
881	0.016
881	0.016
882	0.016
882	0.015
883	0.014
883	0.012
884	0.012
884	0.011
884	0.01
885	0.009
885	0.009
886	0.008
886	0.008
887	0.008
887	0.008
887	0.008
888	0.009
888	0.009
889	0.01
889	0.01
890	0.011
890	0.011
890	0.011
891	0.012
891	0.012
892	0.013
892	0.013
893	0.014
893	0.014
893	0.014
894	0.014
894	0.014
895	0.014
895	0.014
895	0.013
896	0.012
896	0.012
897	0.011
897	0.01
898	0.009
898	0.008
898	0.008
899	0.008
899	0.009
900	0.009
900	0.009
901	0.01
901	0.011
901	0.012
902	0.013
902	0.013
903	0.014
903	0.015
904	0.015
904	0.015
904	0.016
905	0.017
905	0.017
906	0.018
906	0.018
907	0.018
907	0.018
907	0.017
908	0.017
908	0.017
909	0.016
909	0.015
910	0.015
910	0.015
910	0.014
911	0.015
911	0.015
912	0.016
912	0.016
913	0.017
913	0.018
913	0.019
914	0.02
914	0.02
915	0.021
915	0.021
916	0.022
916	0.022
916	0.022
917	0.022
917	0.022
918	0.022
918	0.021
918	0.021
919	0.021
919	0.02
920	0.02
920	0.02
921	0.02
921	0.02
921	0.02
922	0.019
922	0.019
923	0.019
923	0.019
924	0.019
924	0.018
924	0.018
925	0.017
925	0.016
926	0.016
926	0.015
927	0.014
927	0.014
927	0.014
928	0.013
928	0.013
929	0.013
929	0.012
930	0.012
930	0.011
930	0.011
931	0.011
931	0.01
932	0.01
932	0.01
933	0.009
933	0.008
933	0.007
934	0.006
934	0.005
935	0.004
935	0.003
935	0.003
936	0.002
936	0
937	-0
937	-0.001
938	-0.001
938	-0.001
938	-0
939	0
939	0
940	0.001
940	0.001
941	0.002
941	0.003
941	0.004
942	0.005
942	0.005
943	0.006
943	0.006
944	0.005
944	0.005
944	0.005
945	0.004
945	0.003
946	0.003
946	0.001
946	0
947	-0.001
947	-0.001
948	-0.001
948	-0.001
949	-0.002
949	-0.001
949	-0.001
950	0
950	0
951	0.001
951	0.002
952	0.003
952	0.004
952	0.005
953	0.006
953	0.007
954	0.007
954	0.008
955	0.009
955	0.011
955	0.012
956	0.013
956	0.013
957	0.013
957	0.014
957	0.014
958	0.015
958	0.016
959	0.016
959	0.017
960	0.017
960	0.017
960	0.018
961	0.018
961	0.019
962	0.019
962	0.019
963	0.019
963	0.019
963	0.019
964	0.019
964	0.019
965	0.019
965	0.019
966	0.019
966	0.019
966	0.019
967	0.018
967	0.018
968	0.017
968	0.017
968	0.016
969	0.016
969	0.015
970	0.015
970	0.015
971	0.015
971	0.015
971	0.015
972	0.015
972	0.015
973	0.016
973	0.016
974	0.016
974	0.016
974	0.016
975	0.016
975	0.016
976	0.015
976	0.015
976	0.015
977	0.015
977	0.015
978	0.015
978	0.015
979	0.014
979	0.014
979	0.014
980	0.014
980	0.013
981	0.014
981	0.014
982	0.013
982	0.013
982	0.013
983	0.013
983	0.013
984	0.013
984	0.013
984	0.013
985	0.013
985	0.013
986	0.013
986	0.013
987	0.012
987	0.012
987	0.011
988	0.011
988	0.01
989	0.009
989	0.008
990	0.007
990	0.006
990	0.006
991	0.005
991	0.005
992	0.004
992	0.004
992	0.004
993	0.004
993	0.004
994	0.004
994	0.003
995	0.003
995	0.003
995	0.002
996	0.002
996	0.001
997	0.001
997	0.001
997	0.001
998	0.001
998	0.001
999	0.001
999	0.001
1000	0.002
1000	0.002
1000	0.003
1001	0.003
1001	0.003
1002	0.004
1002	0.004
1003	0.003
1003	0.003
1003	0.003
1004	0.003
1004	0.002
1005	0.001
1005	0
1005	-0.001
1006	-0.002
1006	-0.003
1007	-0.004
1007	-0.005
1008	-0.006
1008	-0.006
1008	-0.007
1009	-0.007
1009	-0.007
1010	-0.007
1010	-0.006
1010	-0.006
1011	-0.005
1011	-0.005
1012	-0.005
1012	-0.005
1013	-0.006
1013	-0.006
1013	-0.007
1014	-0.007
1014	-0.007
1015	-0.008
1015	-0.008
1016	-0.009
1016	-0.01
1016	-0.01
1017	-0.011
1017	-0.012
1018	-0.013
1018	-0.014
1018	-0.014
1019	-0.015
1019	-0.016
1020	-0.017
1020	-0.017
1021	-0.018
1021	-0.018
1021	-0.019
1022	-0.02
1022	-0.02
1023	-0.021
1023	-0.021
1023	-0.021
1024	-0.021
1024	-0.022
1025	-0.022
1025	-0.022
1026	-0.021
1026	-0.021
1026	-0.021
1027	-0.02
1027	-0.02
1028	-0.02
1028	-0.02
1028	-0.02
1029	-0.02
1029	-0.019
1030	-0.02
1030	-0.02
1031	-0.021
1031	-0.021
1031	-0.021
1032	-0.021
1032	-0.021
1033	-0.021
1033	-0.021
1033	-0.021
1034	-0.021
1034	-0.021
1035	-0.02
1035	-0.02
1036	-0.02
1036	-0.02
1036	-0.02
1037	-0.02
1037	-0.019
1038	-0.019
1038	-0.019
1039	-0.019
1039	-0.018
1039	-0.018
1040	-0.017
1040	-0.017
1041	-0.016
1041	-0.016
1041	-0.015
1042	-0.016
1042	-0.016
1043	-0.016
1043	-0.016
1044	-0.017
1044	-0.018
1044	-0.018
1045	-0.019
1045	-0.02
1046	-0.021
1046	-0.022
1046	-0.022
1047	-0.023
1047	-0.022
1048	-0.023
1048	-0.022
1049	-0.022
1049	-0.022
1049	-0.022
1050	-0.021
1050	-0.021
1051	-0.021
1051	-0.02
1051	-0.02
1052	-0.02
1052	-0.019
1053	-0.019
1053	-0.019
1053	-0.019
1054	-0.019
1054	-0.019
1055	-0.019
1055	-0.02
1056	-0.021
1056	-0.021
1056	-0.022
1057	-0.023
1057	-0.024
1058	-0.024
1058	-0.025
1058	-0.026
1059	-0.026
1059	-0.027
1060	-0.028
1060	-0.028
1061	-0.028
1061	-0.028
1061	-0.028
1062	-0.028
1062	-0.029
1063	-0.029
1063	-0.028
1063	-0.028
1064	-0.027
1064	-0.027
1065	-0.027
1065	-0.027
1066	-0.027
1066	-0.027
1066	-0.027
1067	-0.027
1067	-0.027
1068	-0.027
1068	-0.028
1068	-0.028
1069	-0.028
1069	-0.029
1070	-0.029
1070	-0.03
1071	-0.03
1071	-0.03
1071	-0.031
1072	-0.032
1072	-0.032
1073	-0.032
1073	-0.032
1073	-0.033
1074	-0.032
1074	-0.032
1075	-0.032
1075	-0.033
1076	-0.034
1076	-0.034
1076	-0.034
1077	-0.035
1077	-0.035
1078	-0.036
1078	-0.036
1078	-0.037
1079	-0.038
1079	-0.038
1080	-0.039
1080	-0.039
1080	-0.04
1081	-0.04
1081	-0.04
1082	-0.041
1082	-0.042
1083	-0.042
1083	-0.043
1083	-0.044
1084	-0.044
1084	-0.045
1085	-0.046
1085	-0.046
1085	-0.047
1086	-0.047
1086	-0.048
1087	-0.048
1087	-0.048
1088	-0.049
1088	-0.049
1088	-0.05
1089	-0.052
1089	-0.052
1090	-0.054
1090	-0.054
1090	-0.056
1091	-0.056
1091	-0.056
1092	-0.057
1092	-0.057
1092	-0.059
1093	-0.059
1093	-0.059
1094	-0.059
1094	-0.059
1095	-0.06
1095	-0.06
1095	-0.061
1096	-0.062
1096	-0.063
1097	-0.064
1097	-0.064
1097	-0.065
1098	-0.066
1098	-0.068
1099	-0.069
1099	-0.069
1100	-0.072
1100	-0.073
1100	-0.075
1101	-0.077
1101	-0.08
1102	-0.081
1102	-0.083
1102	-0.084
1103	-0.087
1103	-0.088
1104	-0.091
1104	-0.092
1104	-0.094
1105	-0.096
1105	-0.099
1106	-0.102
1106	-0.104
1107	-0.108
1107	-0.111
1107	-0.116
1108	-0.118
1108	-0.121
1109	-0.123
1109	-0.128
1109	-0.131
1110	-0.131
1110	-0.134
1111	-0.141
1111	-0.139
