Data from 17C_3.4A_35min_2sec_int_Absorbance__688__04773.txt Node

Date: Mon Jun 19 20:09:51 CEST 2023
User: Marek
Spectrometer: MAYP115816
Trigger mode: 0
Integration Time (sec): 2.500000E-1
Scans to average: 10
Electric dark correction enabled: true
Nonlinearity correction enabled: true
Boxcar width: 5
XAxis mode: Wavelengths
Number of Pixels in Spectrum: 2068
>>>>>Begin Spectral Data<<<<<
199	-0.783
199	-0.802
200	-0.702
200	-0.645
201	-0.607
201	-0.596
202	-0.581
202	-0.565
203	-0.557
203	-0.551
204	-0.538
204	-0.524
205	-0.499
205	-0.493
205	-0.493
206	-0.495
206	-0.496
207	-0.486
207	-0.49
208	-0.493
208	-0.492
209	-0.484
209	-0.485
210	-0.488
210	-0.496
211	-0.495
211	-0.497
212	-0.501
212	-0.51
213	-0.508
213	-0.508
213	-0.513
214	-0.512
214	-0.512
215	-0.512
215	-0.517
216	-0.522
216	-0.53
217	-0.525
217	-0.529
218	-0.533
218	-0.532
219	-0.536
219	-0.546
220	-0.549
220	-0.56
221	-0.559
221	-0.562
221	-0.555
222	-0.552
222	-0.552
223	-0.555
223	-0.558
224	-0.561
224	-0.562
225	-0.558
225	-0.553
226	-0.557
226	-0.558
227	-0.564
227	-0.572
228	-0.572
228	-0.573
229	-0.574
229	-0.569
229	-0.562
230	-0.563
230	-0.564
231	-0.558
231	-0.548
232	-0.541
232	-0.54
233	-0.533
233	-0.532
234	-0.532
234	-0.53
235	-0.533
235	-0.541
236	-0.541
236	-0.544
236	-0.552
237	-0.56
237	-0.561
238	-0.571
238	-0.569
239	-0.567
239	-0.575
240	-0.574
240	-0.57
241	-0.576
241	-0.577
242	-0.58
242	-0.574
243	-0.569
243	-0.569
243	-0.58
244	-0.58
244	-0.58
245	-0.594
245	-0.595
246	-0.6
246	-0.604
247	-0.608
247	-0.614
248	-0.622
248	-0.621
249	-0.622
249	-0.63
250	-0.628
250	-0.624
250	-0.624
251	-0.62
251	-0.622
252	-0.623
252	-0.614
253	-0.619
253	-0.631
254	-0.629
254	-0.629
255	-0.638
255	-0.632
256	-0.629
256	-0.641
257	-0.635
257	-0.633
258	-0.648
258	-0.644
258	-0.638
259	-0.637
259	-0.646
260	-0.645
260	-0.651
261	-0.662
261	-0.655
262	-0.653
262	-0.654
263	-0.642
263	-0.637
264	-0.637
264	-0.645
265	-0.638
265	-0.645
265	-0.646
266	-0.643
266	-0.641
267	-0.655
267	-0.663
268	-0.678
268	-0.687
269	-0.687
269	-0.681
270	-0.687
270	-0.692
271	-0.692
271	-0.696
272	-0.699
272	-0.693
272	-0.688
273	-0.688
273	-0.697
274	-0.701
274	-0.704
275	-0.705
275	-0.699
276	-0.708
276	-0.701
277	-0.705
277	-0.721
278	-0.732
278	-0.724
278	-0.717
279	-0.721
279	-0.731
280	-0.729
280	-0.728
281	-0.72
281	-0.728
282	-0.72
282	-0.72
283	-0.709
283	-0.712
284	-0.707
284	-0.695
285	-0.69
285	-0.687
285	-0.684
286	-0.69
286	-0.683
287	-0.681
287	-0.667
288	-0.659
288	-0.669
289	-0.681
289	-0.693
290	-0.68
290	-0.68
291	-0.676
291	-0.671
292	-0.674
292	-0.682
292	-0.687
293	-0.694
293	-0.68
294	-0.669
294	-0.66
295	-0.66
295	-0.657
296	-0.655
296	-0.653
297	-0.648
297	-0.632
298	-0.622
298	-0.63
298	-0.62
299	-0.613
299	-0.613
300	-0.608
300	-0.603
301	-0.6
301	-0.599
302	-0.606
302	-0.614
303	-0.603
303	-0.589
304	-0.592
304	-0.592
305	-0.593
305	-0.591
305	-0.589
306	-0.572
306	-0.564
307	-0.55
307	-0.55
308	-0.564
308	-0.563
309	-0.565
309	-0.555
310	-0.544
310	-0.542
311	-0.533
311	-0.543
311	-0.54
312	-0.536
312	-0.535
313	-0.52
313	-0.521
314	-0.517
314	-0.519
315	-0.52
315	-0.516
316	-0.511
316	-0.502
317	-0.495
317	-0.492
318	-0.483
318	-0.48
318	-0.475
319	-0.466
319	-0.463
320	-0.455
320	-0.459
321	-0.465
321	-0.464
322	-0.459
322	-0.453
323	-0.45
323	-0.445
324	-0.437
324	-0.428
324	-0.417
325	-0.407
325	-0.388
326	-0.372
326	-0.354
327	-0.338
327	-0.316
328	-0.29
328	-0.267
329	-0.241
329	-0.216
330	-0.188
330	-0.156
330	-0.129
331	-0.098
331	-0.068
332	-0.041
332	-0.015
333	0.009
333	0.035
334	0.058
334	0.077
335	0.096
335	0.112
336	0.129
336	0.144
336	0.155
337	0.168
337	0.179
338	0.19
338	0.196
339	0.205
339	0.211
340	0.217
340	0.223
341	0.227
341	0.231
342	0.235
342	0.239
342	0.242
343	0.243
343	0.247
344	0.248
344	0.25
345	0.252
345	0.253
346	0.254
346	0.254
347	0.255
347	0.256
348	0.257
348	0.258
348	0.258
349	0.258
349	0.259
350	0.259
350	0.259
351	0.259
351	0.26
352	0.26
352	0.26
353	0.26
353	0.26
354	0.259
354	0.259
354	0.259
355	0.259
355	0.259
356	0.259
356	0.259
357	0.258
357	0.258
358	0.258
358	0.258
359	0.258
359	0.258
360	0.258
360	0.258
360	0.258
361	0.258
361	0.258
362	0.257
362	0.257
363	0.257
363	0.257
364	0.257
364	0.257
365	0.256
365	0.256
366	0.256
366	0.256
366	0.256
367	0.256
367	0.256
368	0.256
368	0.256
369	0.256
369	0.256
370	0.255
370	0.255
371	0.255
371	0.255
372	0.255
372	0.255
372	0.255
373	0.255
373	0.255
374	0.255
374	0.255
375	0.255
375	0.255
376	0.255
376	0.255
377	0.255
377	0.254
378	0.254
378	0.254
378	0.254
379	0.254
379	0.254
380	0.253
380	0.253
381	0.253
381	0.253
382	0.253
382	0.253
383	0.253
383	0.253
383	0.252
384	0.252
384	0.252
385	0.252
385	0.252
386	0.252
386	0.252
387	0.252
387	0.251
388	0.251
388	0.251
389	0.251
389	0.251
389	0.251
390	0.251
390	0.251
391	0.251
391	0.251
392	0.251
392	0.251
393	0.25
393	0.25
394	0.25
394	0.25
394	0.249
395	0.249
395	0.249
396	0.248
396	0.248
397	0.248
397	0.248
398	0.248
398	0.248
399	0.248
399	0.248
400	0.247
400	0.247
400	0.247
401	0.247
401	0.247
402	0.247
402	0.247
403	0.246
403	0.246
404	0.246
404	0.245
405	0.245
405	0.245
405	0.245
406	0.245
406	0.245
407	0.244
407	0.244
408	0.244
408	0.244
409	0.245
409	0.245
410	0.245
410	0.245
411	0.245
411	0.245
411	0.245
412	0.245
412	0.244
413	0.244
413	0.244
414	0.244
414	0.244
415	0.243
415	0.243
416	0.243
416	0.243
416	0.242
417	0.242
417	0.242
418	0.242
418	0.242
419	0.242
419	0.242
420	0.242
420	0.243
421	0.243
421	0.243
421	0.243
422	0.243
422	0.243
423	0.243
423	0.243
424	0.242
424	0.242
425	0.242
425	0.241
426	0.241
426	0.241
427	0.241
427	0.241
427	0.241
428	0.241
428	0.241
429	0.24
429	0.24
430	0.24
430	0.24
431	0.24
431	0.239
432	0.239
432	0.239
432	0.238
433	0.238
433	0.238
434	0.238
434	0.238
435	0.238
435	0.238
436	0.238
436	0.238
437	0.238
437	0.238
437	0.238
438	0.238
438	0.239
439	0.239
439	0.239
440	0.239
440	0.239
441	0.238
441	0.238
442	0.238
442	0.237
442	0.237
443	0.237
443	0.237
444	0.237
444	0.236
445	0.236
445	0.236
446	0.236
446	0.236
447	0.236
447	0.236
447	0.236
448	0.237
448	0.237
449	0.237
449	0.237
450	0.237
450	0.237
451	0.237
451	0.237
452	0.236
452	0.236
452	0.236
453	0.236
453	0.235
454	0.235
454	0.235
455	0.235
455	0.235
456	0.235
456	0.234
457	0.234
457	0.234
458	0.234
458	0.234
458	0.235
459	0.235
459	0.235
460	0.235
460	0.235
461	0.235
461	0.235
462	0.236
462	0.236
463	0.236
463	0.236
463	0.235
464	0.235
464	0.235
465	0.234
465	0.234
466	0.235
466	0.235
467	0.234
467	0.234
467	0.235
468	0.235
468	0.235
469	0.235
469	0.236
470	0.236
470	0.236
471	0.236
471	0.236
472	0.237
472	0.237
472	0.237
473	0.237
473	0.237
474	0.237
474	0.237
475	0.237
475	0.238
476	0.238
476	0.238
477	0.238
477	0.239
477	0.239
478	0.24
478	0.24
479	0.24
479	0.241
480	0.241
480	0.241
481	0.242
481	0.242
482	0.242
482	0.243
482	0.243
483	0.243
483	0.244
484	0.244
484	0.243
485	0.243
485	0.243
486	0.244
486	0.244
487	0.245
487	0.245
487	0.246
488	0.246
488	0.247
489	0.248
489	0.25
490	0.251
490	0.252
491	0.253
491	0.254
492	0.255
492	0.256
492	0.256
493	0.257
493	0.259
494	0.26
494	0.261
495	0.262
495	0.263
496	0.264
496	0.266
496	0.267
497	0.268
497	0.269
498	0.27
498	0.271
499	0.272
499	0.273
500	0.275
500	0.276
501	0.276
501	0.277
501	0.278
502	0.279
502	0.28
503	0.281
503	0.282
504	0.283
504	0.285
505	0.286
505	0.287
506	0.289
506	0.29
506	0.292
507	0.293
507	0.295
508	0.297
508	0.298
509	0.3
509	0.301
510	0.303
510	0.305
511	0.306
511	0.307
511	0.309
512	0.31
512	0.311
513	0.312
513	0.313
514	0.315
514	0.316
515	0.317
515	0.318
515	0.319
516	0.32
516	0.322
517	0.324
517	0.325
518	0.327
518	0.328
519	0.33
519	0.332
520	0.334
520	0.336
520	0.338
521	0.34
521	0.342
522	0.343
522	0.345
523	0.347
523	0.348
524	0.35
524	0.351
524	0.352
525	0.353
525	0.354
526	0.356
526	0.357
527	0.358
527	0.359
528	0.36
528	0.361
529	0.363
529	0.364
529	0.365
530	0.367
530	0.367
531	0.368
531	0.369
532	0.37
532	0.371
533	0.372
533	0.373
533	0.373
534	0.374
534	0.375
535	0.376
535	0.376
536	0.377
536	0.377
537	0.378
537	0.379
538	0.379
538	0.379
538	0.38
539	0.38
539	0.381
540	0.381
540	0.381
541	0.382
541	0.382
542	0.383
542	0.383
542	0.383
543	0.384
543	0.384
544	0.384
544	0.384
545	0.385
545	0.385
546	0.386
546	0.386
547	0.386
547	0.386
547	0.386
548	0.387
548	0.387
549	0.387
549	0.387
550	0.387
550	0.387
551	0.387
551	0.387
551	0.387
552	0.387
552	0.387
553	0.387
553	0.386
554	0.386
554	0.385
555	0.385
555	0.384
556	0.384
556	0.384
556	0.384
557	0.384
557	0.384
558	0.384
558	0.384
559	0.383
559	0.383
560	0.382
560	0.382
560	0.381
561	0.381
561	0.38
562	0.379
562	0.378
563	0.377
563	0.376
564	0.376
564	0.375
564	0.375
565	0.374
565	0.374
566	0.373
566	0.372
567	0.371
567	0.371
568	0.37
568	0.369
568	0.368
569	0.367
569	0.366
570	0.364
570	0.363
571	0.362
571	0.361
572	0.36
572	0.359
573	0.358
573	0.357
573	0.355
574	0.355
574	0.354
575	0.354
575	0.354
576	0.352
576	0.35
577	0.349
577	0.348
577	0.348
578	0.347
578	0.346
579	0.346
579	0.345
580	0.343
580	0.341
581	0.339
581	0.338
581	0.338
582	0.338
582	0.337
583	0.337
583	0.336
584	0.334
584	0.332
585	0.333
585	0.333
585	0.333
586	0.333
586	0.332
587	0.331
587	0.33
588	0.329
588	0.329
589	0.328
589	0.328
590	0.327
590	0.327
590	0.327
591	0.326
591	0.325
592	0.324
592	0.322
593	0.322
593	0.322
594	0.321
594	0.32
594	0.32
595	0.32
595	0.32
596	0.32
596	0.321
597	0.322
597	0.321
598	0.321
598	0.32
598	0.32
599	0.319
599	0.317
600	0.316
600	0.315
601	0.314
601	0.312
602	0.31
602	0.309
602	0.308
603	0.308
603	0.307
604	0.307
604	0.306
605	0.306
605	0.306
606	0.304
606	0.303
606	0.302
607	0.302
607	0.301
608	0.3
608	0.299
609	0.298
609	0.299
610	0.298
610	0.298
610	0.299
611	0.3
611	0.3
612	0.301
612	0.302
613	0.302
613	0.301
614	0.3
614	0.298
614	0.298
615	0.296
615	0.296
616	0.295
616	0.294
617	0.293
617	0.292
618	0.291
618	0.29
618	0.29
619	0.29
619	0.291
620	0.292
620	0.291
621	0.291
621	0.291
622	0.291
622	0.291
622	0.29
623	0.29
623	0.29
624	0.29
624	0.289
625	0.289
625	0.289
626	0.288
626	0.288
626	0.289
627	0.289
627	0.289
628	0.289
628	0.288
629	0.288
629	0.287
630	0.287
630	0.286
630	0.286
631	0.286
631	0.286
632	0.285
632	0.284
633	0.284
633	0.283
634	0.283
634	0.283
634	0.282
635	0.281
635	0.279
636	0.278
636	0.278
637	0.277
637	0.276
638	0.276
638	0.275
638	0.275
639	0.274
639	0.273
640	0.273
640	0.273
641	0.273
641	0.272
642	0.272
642	0.272
642	0.271
643	0.269
643	0.268
644	0.267
644	0.266
645	0.265
645	0.263
646	0.262
646	0.26
646	0.258
647	0.256
647	0.254
648	0.251
648	0.249
649	0.245
649	0.242
650	0.238
650	0.233
650	0.226
651	0.219
651	0.211
652	0.202
652	0.193
653	0.185
653	0.175
653	0.173
654	0.173
654	0.167
655	0.159
655	0.152
656	0.145
656	0.137
657	0.131
657	0.125
657	0.117
658	0.112
658	0.091
659	0.039
659	-0.017
660	-0.048
660	-0.068
661	-0.088
661	-0.112
661	-0.134
662	-0.151
662	-0.168
663	-0.184
663	-0.201
664	-0.214
664	-0.236
665	-0.249
665	-0.267
665	-0.278
666	-0.286
666	-0.294
667	-0.302
667	-0.306
668	-0.318
668	-0.335
669	-0.343
669	-0.334
669	-0.301
670	-0.11
670	-0
671	-0
671	-0
672	-0
672	-0
672	-0
673	-0
673	-0
674	-0
674	-0
675	-0
675	-0
676	-0
676	-0
676	-0.114
677	-0.491
677	-0.519
678	-0.533
678	-0.531
679	-0.533
679	-0.545
680	-0.561
680	-0.564
680	-0.568
681	-0.587
681	-0.585
682	-0.598
682	-0.6
683	-0.6
683	-0.625
684	-0.639
684	-0.652
684	-0.659
685	-0.664
685	-0.667
686	-0.663
686	-0.666
687	-0.659
687	-0.666
687	-0.664
688	-0.65
688	-0.644
689	-0.637
689	-0.634
690	-0.623
690	-0.62
691	-0.624
691	-0.64
691	-0.664
692	-0.662
692	-0.662
693	-0.666
693	-0.681
694	-0.679
694	-0.68
695	-0.691
695	-0.693
695	-0.682
696	-0.68
696	-0.661
697	-0.668
697	-0.687
698	-0.693
698	-0.685
698	-0.706
699	-0.708
699	-0.71
700	-0.705
700	-0.723
701	-0.725
701	-0.733
702	-0.732
702	-0.722
702	-0.715
703	-0.711
703	-0.703
704	-0.702
704	-0.703
705	-0.716
705	-0.708
705	-0.698
706	-0.702
706	-0.699
707	-0.706
707	-0.703
708	-0.702
708	-0.695
709	-0.701
709	-0.704
709	-0.696
710	-0.708
710	-0.721
711	-0.712
711	-0.717
712	-0.716
712	-0.729
713	-0.729
713	-0.738
713	-0.727
714	-0.721
714	-0.725
715	-0.712
715	-0.699
716	-0.709
716	-0.711
716	-0.704
717	-0.707
717	-0.712
718	-0.704
718	-0.706
719	-0.715
719	-0.717
720	-0.715
720	-0.725
720	-0.718
721	-0.707
721	-0.71
722	-0.698
722	-0.689
723	-0.688
723	-0.692
723	-0.679
724	-0.682
724	-0.687
725	-0.687
725	-0.695
726	-0.707
726	-0.711
727	-0.716
727	-0.73
727	-0.739
728	-0.742
728	-0.75
729	-0.749
729	-0.755
730	-0.764
730	-0.758
730	-0.751
731	-0.735
731	-0.746
732	-0.75
732	-0.75
733	-0.747
733	-0.753
734	-0.749
734	-0.749
734	-0.733
735	-0.732
735	-0.733
736	-0.745
736	-0.731
737	-0.723
737	-0.723
737	-0.735
738	-0.729
738	-0.729
739	-0.727
739	-0.742
740	-0.74
740	-0.74
741	-0.736
741	-0.736
741	-0.742
742	-0.74
742	-0.739
743	-0.748
743	-0.755
744	-0.752
744	-0.74
744	-0.743
745	-0.749
745	-0.742
746	-0.742
746	-0.738
747	-0.74
747	-0.728
748	-0.714
748	-0.72
748	-0.722
749	-0.721
749	-0.723
750	-0.712
750	-0.713
751	-0.716
751	-0.726
751	-0.729
752	-0.736
752	-0.749
753	-0.741
753	-0.74
754	-0.744
754	-0.737
754	-0.752
755	-0.768
755	-0.779
756	-0.766
756	-0.763
757	-0.759
757	-0.751
758	-0.753
758	-0.75
758	-0.752
759	-0.76
759	-0.745
760	-0.737
760	-0.734
761	-0.745
761	-0.744
761	-0.743
762	-0.752
762	-0.75
763	-0.758
763	-0.756
764	-0.752
764	-0.759
764	-0.765
765	-0.755
765	-0.742
766	-0.748
766	-0.756
767	-0.771
767	-0.765
768	-0.758
768	-0.765
768	-0.772
769	-0.788
769	-0.79
770	-0.794
770	-0.807
771	-0.806
771	-0.807
771	-0.808
772	-0.811
772	-0.811
773	-0.811
773	-0.806
774	-0.806
774	-0.806
775	-0.809
775	-0.802
775	-0.809
776	-0.809
776	-0.797
777	-0.804
777	-0.821
778	-0.82
778	-0.84
778	-0.826
779	-0.85
779	-0.857
780	-0.87
780	-0.869
781	-0.88
781	-0.875
781	-0.89
782	-0.891
782	-0.891
783	-0.876
783	-0.874
784	-0.853
784	-0.843
784	-0.855
785	-0.861
785	-0.849
786	-0.859
786	-0.839
787	-0.825
787	-0.832
788	-0.835
788	-0.85
788	-0.861
789	-0.863
789	-0.845
790	-0.826
790	-0.83
791	-0.828
791	-0.845
791	-0.853
792	-0.846
792	-0.824
793	-0.811
793	-0.789
794	-0.793
794	-0.787
794	-0.796
795	-0.79
795	-0.782
796	-0.767
796	-0.773
797	-0.765
797	-0.778
797	-0.784
798	-0.797
798	-0.791
799	-0.8
799	-0.785
800	-0.791
800	-0.786
801	-0.791
801	-0.777
801	-0.79
802	-0.796
802	-0.797
803	-0.796
803	-0.806
804	-0.802
804	-0.814
804	-0.801
805	-0.804
805	-0.791
806	-0.794
806	-0.778
807	-0.778
807	-0.759
807	-0.747
808	-0.738
808	-0.731
809	-0.714
809	-0.725
810	-0.724
810	-0.717
810	-0.713
811	-0.721
811	-0.713
812	-0.715
812	-0.719
813	-0.722
813	-0.717
813	-0.724
814	-0.723
814	-0.727
815	-0.733
815	-0.737
816	-0.729
816	-0.732
817	-0.739
817	-0.757
817	-0.771
818	-0.78
818	-0.783
819	-0.777
819	-0.778
820	-0.786
820	-0.783
820	-0.795
821	-0.794
821	-0.781
822	-0.748
822	-0.723
823	-0.722
823	-0.723
823	-0.719
824	-0.712
824	-0.714
825	-0.709
825	-0.687
826	-0.681
826	-0.687
826	-0.699
827	-0.694
827	-0.69
828	-0.67
828	-0.671
829	-0.661
829	-0.648
829	-0.64
830	-0.651
830	-0.647
831	-0.64
831	-0.628
832	-0.628
832	-0.62
832	-0.629
833	-0.622
833	-0.625
834	-0.621
834	-0.629
835	-0.617
835	-0.611
835	-0.608
836	-0.606
836	-0.602
837	-0.599
837	-0.587
838	-0.579
838	-0.567
839	-0.554
839	-0.54
839	-0.53
840	-0.521
840	-0.516
841	-0.504
841	-0.495
842	-0.491
842	-0.481
842	-0.472
843	-0.464
843	-0.458
844	-0.449
844	-0.441
845	-0.43
845	-0.419
845	-0.405
846	-0.394
846	-0.379
847	-0.367
847	-0.355
848	-0.343
848	-0.332
848	-0.316
849	-0.304
849	-0.293
850	-0.277
850	-0.272
851	-0.261
851	-0.247
851	-0.238
852	-0.221
852	-0.207
853	-0.196
853	-0.19
854	-0.177
854	-0.165
854	-0.154
855	-0.14
855	-0.133
856	-0.122
856	-0.112
857	-0.104
857	-0.094
857	-0.081
858	-0.068
858	-0.059
859	-0.048
859	-0.036
860	-0.026
860	-0.012
860	-0.002
861	0.007
861	0.017
862	0.025
862	0.033
863	0.04
863	0.049
863	0.054
864	0.059
864	0.066
865	0.072
865	0.078
866	0.084
866	0.088
866	0.093
867	0.098
867	0.103
868	0.107
868	0.113
869	0.117
869	0.12
869	0.123
870	0.126
870	0.129
871	0.132
871	0.134
872	0.135
872	0.136
872	0.137
873	0.137
873	0.137
874	0.136
874	0.135
875	0.134
875	0.133
875	0.132
876	0.131
876	0.13
877	0.129
877	0.128
878	0.127
878	0.126
878	0.125
879	0.124
879	0.124
880	0.123
880	0.123
881	0.123
881	0.122
881	0.122
882	0.121
882	0.12
883	0.119
883	0.119
884	0.118
884	0.117
884	0.116
885	0.115
885	0.114
886	0.114
886	0.113
887	0.111
887	0.11
887	0.109
888	0.109
888	0.108
889	0.108
889	0.108
890	0.107
890	0.106
890	0.105
891	0.105
891	0.104
892	0.104
892	0.104
893	0.103
893	0.104
893	0.104
894	0.104
894	0.105
895	0.105
895	0.105
895	0.105
896	0.104
896	0.103
897	0.102
897	0.102
898	0.1
898	0.1
898	0.1
899	0.1
899	0.1
900	0.1
900	0.1
901	0.101
901	0.101
901	0.102
902	0.103
902	0.104
903	0.105
903	0.105
904	0.106
904	0.108
904	0.109
905	0.11
905	0.11
906	0.111
906	0.112
907	0.113
907	0.114
907	0.115
908	0.116
908	0.116
909	0.116
909	0.116
910	0.117
910	0.117
910	0.116
911	0.116
911	0.116
912	0.115
912	0.115
913	0.114
913	0.114
913	0.113
914	0.112
914	0.111
915	0.11
915	0.109
916	0.108
916	0.107
916	0.106
917	0.106
917	0.105
918	0.105
918	0.105
918	0.104
919	0.104
919	0.105
920	0.105
920	0.105
921	0.105
921	0.105
921	0.105
922	0.104
922	0.104
923	0.104
923	0.103
924	0.103
924	0.103
924	0.102
925	0.102
925	0.101
926	0.1
926	0.1
927	0.099
927	0.098
927	0.097
928	0.097
928	0.096
929	0.095
929	0.095
930	0.094
930	0.093
930	0.092
931	0.091
931	0.09
932	0.09
932	0.089
933	0.089
933	0.087
933	0.086
934	0.084
934	0.083
935	0.082
935	0.081
935	0.08
936	0.079
936	0.077
937	0.076
937	0.075
938	0.075
938	0.075
938	0.076
939	0.077
939	0.078
940	0.079
940	0.079
941	0.08
941	0.081
941	0.082
942	0.081
942	0.081
943	0.081
943	0.08
944	0.079
944	0.079
944	0.078
945	0.077
945	0.076
946	0.075
946	0.074
946	0.074
947	0.074
947	0.073
948	0.074
948	0.074
949	0.073
949	0.074
949	0.074
950	0.074
950	0.073
951	0.073
951	0.073
952	0.072
952	0.072
952	0.071
953	0.07
953	0.07
954	0.069
954	0.069
955	0.068
955	0.069
955	0.068
956	0.069
956	0.069
957	0.069
957	0.069
957	0.069
958	0.069
958	0.07
959	0.07
959	0.071
960	0.071
960	0.071
960	0.072
961	0.072
961	0.073
962	0.074
962	0.074
963	0.075
963	0.075
963	0.075
964	0.075
964	0.075
965	0.076
965	0.076
966	0.076
966	0.076
966	0.076
967	0.076
967	0.076
968	0.076
968	0.077
968	0.078
969	0.078
969	0.079
970	0.08
970	0.081
971	0.083
971	0.084
971	0.085
972	0.086
972	0.087
973	0.088
973	0.088
974	0.087
974	0.087
974	0.087
975	0.086
975	0.085
976	0.084
976	0.083
976	0.082
977	0.081
977	0.08
978	0.079
978	0.078
979	0.077
979	0.076
979	0.075
980	0.074
980	0.074
981	0.073
981	0.073
982	0.072
982	0.071
982	0.071
983	0.07
983	0.069
984	0.068
984	0.068
984	0.068
985	0.068
985	0.067
986	0.067
986	0.067
987	0.067
987	0.067
987	0.067
988	0.067
988	0.067
989	0.066
989	0.065
990	0.064
990	0.063
990	0.063
991	0.062
991	0.062
992	0.062
992	0.061
992	0.061
993	0.061
993	0.062
994	0.062
994	0.063
995	0.063
995	0.063
995	0.064
996	0.064
996	0.064
997	0.065
997	0.066
997	0.066
998	0.067
998	0.067
999	0.068
999	0.068
1000	0.069
1000	0.069
1000	0.069
1001	0.069
1001	0.069
1002	0.069
1002	0.069
1003	0.069
1003	0.068
1003	0.067
1004	0.066
1004	0.064
1005	0.063
1005	0.062
1005	0.06
1006	0.058
1006	0.057
1007	0.056
1007	0.055
1008	0.054
1008	0.054
1008	0.054
1009	0.054
1009	0.054
1010	0.054
1010	0.055
1010	0.055
1011	0.055
1011	0.055
1012	0.054
1012	0.054
1013	0.054
1013	0.053
1013	0.052
1014	0.052
1014	0.052
1015	0.052
1015	0.052
1016	0.053
1016	0.053
1016	0.054
1017	0.054
1017	0.054
1018	0.055
1018	0.055
1018	0.054
1019	0.054
1019	0.054
1020	0.053
1020	0.052
1021	0.052
1021	0.051
1021	0.05
1022	0.049
1022	0.049
1023	0.049
1023	0.048
1023	0.048
1024	0.048
1024	0.048
1025	0.048
1025	0.048
1026	0.048
1026	0.049
1026	0.049
1027	0.049
1027	0.049
1028	0.05
1028	0.05
1028	0.05
1029	0.05
1029	0.051
1030	0.051
1030	0.051
1031	0.052
1031	0.053
1031	0.053
1032	0.054
1032	0.055
1033	0.055
1033	0.056
1033	0.056
1034	0.056
1034	0.057
1035	0.057
1035	0.057
1036	0.056
1036	0.056
1036	0.056
1037	0.055
1037	0.055
1038	0.055
1038	0.055
1039	0.056
1039	0.056
1039	0.056
1040	0.056
1040	0.057
1041	0.057
1041	0.057
1041	0.058
1042	0.058
1042	0.058
1043	0.058
1043	0.057
1044	0.057
1044	0.057
1044	0.057
1045	0.056
1045	0.056
1046	0.056
1046	0.056
1046	0.056
1047	0.056
1047	0.056
1048	0.056
1048	0.056
1049	0.056
1049	0.056
1049	0.056
1050	0.056
1050	0.056
1051	0.055
1051	0.055
1051	0.055
1052	0.055
1052	0.054
1053	0.054
1053	0.053
1053	0.052
1054	0.052
1054	0.051
1055	0.05
1055	0.049
1056	0.048
1056	0.046
1056	0.045
1057	0.043
1057	0.043
1058	0.042
1058	0.041
1058	0.04
1059	0.039
1059	0.038
1060	0.037
1060	0.037
1061	0.036
1061	0.036
1061	0.036
1062	0.036
1062	0.036
1063	0.036
1063	0.036
1063	0.036
1064	0.036
1064	0.036
1065	0.036
1065	0.036
1066	0.036
1066	0.036
1066	0.036
1067	0.036
1067	0.037
1068	0.036
1068	0.036
1068	0.036
1069	0.037
1069	0.037
1070	0.037
1070	0.037
1071	0.037
1071	0.037
1071	0.037
1072	0.037
1072	0.037
1073	0.037
1073	0.037
1073	0.037
1074	0.037
1074	0.037
1075	0.037
1075	0.037
1076	0.036
1076	0.036
1076	0.035
1077	0.035
1077	0.034
1078	0.033
1078	0.032
1078	0.031
1079	0.029
1079	0.029
1080	0.027
1080	0.026
1080	0.024
1081	0.023
1081	0.022
1082	0.021
1082	0.02
1083	0.019
1083	0.017
1083	0.016
1084	0.015
1084	0.014
1085	0.012
1085	0.011
1085	0.01
1086	0.009
1086	0.007
1087	0.006
1087	0.006
1088	0.005
1088	0.004
1088	0.004
1089	0.002
1089	0.002
1090	0
1090	0
1090	-0.001
1091	-0.001
1091	-0.001
1092	-0.002
1092	-0.001
1092	-0.002
1093	-0.003
1093	-0.002
1094	-0.002
1094	-0.002
1095	-0.004
1095	-0.004
1095	-0.004
1096	-0.005
1096	-0.006
1097	-0.007
1097	-0.008
1097	-0.009
1098	-0.011
1098	-0.013
1099	-0.014
1099	-0.015
1100	-0.017
1100	-0.019
1100	-0.021
1101	-0.024
1101	-0.027
1102	-0.03
1102	-0.033
1102	-0.034
1103	-0.036
1103	-0.039
1104	-0.042
1104	-0.044
1104	-0.047
1105	-0.049
1105	-0.052
1106	-0.057
1106	-0.059
1107	-0.064
1107	-0.069
1107	-0.074
1108	-0.076
1108	-0.079
1109	-0.082
1109	-0.087
1109	-0.09
1110	-0.092
1110	-0.094
1111	-0.103
1111	-0.101
