Data from 17C_3.4A_35min_2sec_int_Absorbance__690__04775.txt Node

Date: Mon Jun 19 20:09:56 CEST 2023
User: Marek
Spectrometer: MAYP115816
Trigger mode: 0
Integration Time (sec): 2.500000E-1
Scans to average: 10
Electric dark correction enabled: true
Nonlinearity correction enabled: true
Boxcar width: 5
XAxis mode: Wavelengths
Number of Pixels in Spectrum: 2068
>>>>>Begin Spectral Data<<<<<
199	-0.779
199	-0.8
200	-0.705
200	-0.649
201	-0.614
201	-0.599
202	-0.584
202	-0.57
203	-0.561
203	-0.557
204	-0.543
204	-0.529
205	-0.503
205	-0.496
205	-0.494
206	-0.494
206	-0.497
207	-0.487
207	-0.489
208	-0.493
208	-0.491
209	-0.485
209	-0.486
210	-0.49
210	-0.496
211	-0.498
211	-0.5
212	-0.505
212	-0.512
213	-0.508
213	-0.506
213	-0.513
214	-0.51
214	-0.511
215	-0.511
215	-0.517
216	-0.521
216	-0.53
217	-0.525
217	-0.532
218	-0.538
218	-0.539
219	-0.541
219	-0.551
220	-0.554
220	-0.564
221	-0.561
221	-0.564
221	-0.557
222	-0.553
222	-0.553
223	-0.555
223	-0.558
224	-0.56
224	-0.559
225	-0.556
225	-0.551
226	-0.559
226	-0.559
227	-0.565
227	-0.572
228	-0.574
228	-0.574
229	-0.575
229	-0.57
229	-0.566
230	-0.568
230	-0.57
231	-0.562
231	-0.552
232	-0.547
232	-0.547
233	-0.539
233	-0.539
234	-0.538
234	-0.536
235	-0.54
235	-0.547
236	-0.546
236	-0.548
236	-0.556
237	-0.561
237	-0.562
238	-0.571
238	-0.569
239	-0.567
239	-0.576
240	-0.573
240	-0.57
241	-0.573
241	-0.575
242	-0.579
242	-0.574
243	-0.57
243	-0.57
243	-0.579
244	-0.581
244	-0.582
245	-0.596
245	-0.596
246	-0.603
246	-0.608
247	-0.611
247	-0.616
248	-0.623
248	-0.621
249	-0.622
249	-0.631
250	-0.628
250	-0.624
250	-0.625
251	-0.62
251	-0.621
252	-0.624
252	-0.613
253	-0.617
253	-0.628
254	-0.628
254	-0.622
255	-0.63
255	-0.623
256	-0.62
256	-0.634
257	-0.628
257	-0.625
258	-0.644
258	-0.64
258	-0.636
259	-0.634
259	-0.645
260	-0.644
260	-0.651
261	-0.662
261	-0.653
262	-0.652
262	-0.654
263	-0.641
263	-0.637
264	-0.64
264	-0.647
265	-0.642
265	-0.65
265	-0.653
266	-0.652
266	-0.649
267	-0.663
267	-0.669
268	-0.686
268	-0.694
269	-0.691
269	-0.686
270	-0.692
270	-0.696
271	-0.695
271	-0.699
272	-0.703
272	-0.697
272	-0.69
273	-0.688
273	-0.696
274	-0.702
274	-0.706
275	-0.707
275	-0.7
276	-0.706
276	-0.699
277	-0.702
277	-0.719
278	-0.731
278	-0.725
278	-0.719
279	-0.722
279	-0.733
280	-0.729
280	-0.728
281	-0.724
281	-0.729
282	-0.722
282	-0.722
283	-0.711
283	-0.712
284	-0.708
284	-0.695
285	-0.691
285	-0.689
285	-0.687
286	-0.693
286	-0.689
287	-0.687
287	-0.67
288	-0.664
288	-0.675
289	-0.687
289	-0.697
290	-0.687
290	-0.684
291	-0.68
291	-0.674
292	-0.677
292	-0.684
292	-0.69
293	-0.695
293	-0.681
294	-0.67
294	-0.662
295	-0.659
295	-0.658
296	-0.656
296	-0.653
297	-0.646
297	-0.63
298	-0.623
298	-0.628
298	-0.619
299	-0.611
299	-0.613
300	-0.608
300	-0.602
301	-0.599
301	-0.598
302	-0.606
302	-0.615
303	-0.603
303	-0.589
304	-0.593
304	-0.592
305	-0.594
305	-0.593
305	-0.592
306	-0.576
306	-0.572
307	-0.557
307	-0.559
308	-0.571
308	-0.568
309	-0.569
309	-0.559
310	-0.548
310	-0.545
311	-0.536
311	-0.544
311	-0.538
312	-0.535
312	-0.535
313	-0.521
313	-0.525
314	-0.522
314	-0.524
315	-0.522
315	-0.52
316	-0.515
316	-0.506
317	-0.498
317	-0.494
318	-0.48
318	-0.478
318	-0.47
319	-0.46
319	-0.456
320	-0.451
320	-0.452
321	-0.46
321	-0.461
322	-0.456
322	-0.451
323	-0.449
323	-0.443
324	-0.438
324	-0.43
324	-0.419
325	-0.409
325	-0.392
326	-0.374
326	-0.354
327	-0.337
327	-0.316
328	-0.29
328	-0.27
329	-0.244
329	-0.219
330	-0.191
330	-0.155
330	-0.126
331	-0.096
331	-0.066
332	-0.04
332	-0.014
333	0.011
333	0.037
334	0.059
334	0.078
335	0.097
335	0.114
336	0.129
336	0.144
336	0.155
337	0.168
337	0.179
338	0.188
338	0.195
339	0.204
339	0.211
340	0.216
340	0.221
341	0.226
341	0.229
342	0.233
342	0.236
342	0.24
343	0.242
343	0.245
344	0.247
344	0.249
345	0.251
345	0.252
346	0.253
346	0.254
347	0.255
347	0.256
348	0.257
348	0.258
348	0.258
349	0.258
349	0.259
350	0.259
350	0.259
351	0.259
351	0.26
352	0.26
352	0.26
353	0.26
353	0.26
354	0.259
354	0.259
354	0.259
355	0.259
355	0.259
356	0.258
356	0.258
357	0.258
357	0.258
358	0.257
358	0.257
359	0.257
359	0.257
360	0.257
360	0.257
360	0.257
361	0.257
361	0.257
362	0.257
362	0.256
363	0.256
363	0.256
364	0.256
364	0.256
365	0.256
365	0.256
366	0.256
366	0.256
366	0.256
367	0.256
367	0.256
368	0.255
368	0.255
369	0.255
369	0.255
370	0.255
370	0.255
371	0.254
371	0.255
372	0.254
372	0.254
372	0.254
373	0.254
373	0.254
374	0.254
374	0.254
375	0.254
375	0.254
376	0.254
376	0.254
377	0.254
377	0.253
378	0.253
378	0.253
378	0.253
379	0.253
379	0.253
380	0.253
380	0.253
381	0.253
381	0.252
382	0.252
382	0.253
383	0.252
383	0.252
383	0.252
384	0.252
384	0.252
385	0.252
385	0.252
386	0.252
386	0.252
387	0.251
387	0.251
388	0.251
388	0.25
389	0.25
389	0.25
389	0.25
390	0.25
390	0.25
391	0.25
391	0.25
392	0.25
392	0.25
393	0.25
393	0.25
394	0.249
394	0.249
394	0.249
395	0.249
395	0.248
396	0.248
396	0.248
397	0.247
397	0.247
398	0.247
398	0.247
399	0.247
399	0.247
400	0.247
400	0.247
400	0.247
401	0.246
401	0.246
402	0.246
402	0.246
403	0.246
403	0.246
404	0.245
404	0.245
405	0.245
405	0.245
405	0.245
406	0.245
406	0.245
407	0.244
407	0.244
408	0.244
408	0.244
409	0.244
409	0.244
410	0.244
410	0.244
411	0.244
411	0.244
411	0.244
412	0.244
412	0.244
413	0.243
413	0.243
414	0.243
414	0.243
415	0.242
415	0.242
416	0.242
416	0.242
416	0.242
417	0.241
417	0.241
418	0.242
418	0.242
419	0.242
419	0.242
420	0.242
420	0.242
421	0.242
421	0.242
421	0.242
422	0.242
422	0.242
423	0.242
423	0.242
424	0.242
424	0.242
425	0.241
425	0.241
426	0.241
426	0.241
427	0.24
427	0.24
427	0.24
428	0.24
428	0.24
429	0.24
429	0.239
430	0.239
430	0.239
431	0.239
431	0.239
432	0.239
432	0.238
432	0.238
433	0.238
433	0.238
434	0.238
434	0.238
435	0.238
435	0.238
436	0.238
436	0.238
437	0.238
437	0.238
437	0.238
438	0.238
438	0.238
439	0.238
439	0.238
440	0.238
440	0.238
441	0.238
441	0.238
442	0.238
442	0.237
442	0.237
443	0.237
443	0.236
444	0.236
444	0.236
445	0.236
445	0.236
446	0.236
446	0.236
447	0.236
447	0.236
447	0.236
448	0.236
448	0.236
449	0.236
449	0.236
450	0.237
450	0.236
451	0.236
451	0.236
452	0.236
452	0.236
452	0.236
453	0.236
453	0.235
454	0.235
454	0.235
455	0.234
455	0.234
456	0.234
456	0.234
457	0.234
457	0.234
458	0.234
458	0.234
458	0.234
459	0.235
459	0.235
460	0.235
460	0.235
461	0.235
461	0.235
462	0.235
462	0.236
463	0.235
463	0.235
463	0.235
464	0.235
464	0.234
465	0.234
465	0.234
466	0.234
466	0.234
467	0.234
467	0.234
467	0.234
468	0.234
468	0.234
469	0.234
469	0.235
470	0.235
470	0.236
471	0.236
471	0.236
472	0.236
472	0.236
472	0.236
473	0.236
473	0.237
474	0.237
474	0.237
475	0.237
475	0.237
476	0.237
476	0.237
477	0.238
477	0.238
477	0.238
478	0.239
478	0.239
479	0.239
479	0.24
480	0.24
480	0.24
481	0.241
481	0.241
482	0.242
482	0.242
482	0.242
483	0.242
483	0.243
484	0.243
484	0.242
485	0.243
485	0.243
486	0.243
486	0.244
487	0.244
487	0.245
487	0.245
488	0.246
488	0.246
489	0.248
489	0.249
490	0.25
490	0.251
491	0.252
491	0.253
492	0.254
492	0.255
492	0.256
493	0.257
493	0.258
494	0.259
494	0.26
495	0.261
495	0.262
496	0.263
496	0.264
496	0.266
497	0.267
497	0.268
498	0.269
498	0.27
499	0.271
499	0.272
500	0.274
500	0.275
501	0.275
501	0.276
501	0.277
502	0.277
502	0.278
503	0.28
503	0.281
504	0.282
504	0.283
505	0.284
505	0.286
506	0.287
506	0.289
506	0.291
507	0.292
507	0.294
508	0.296
508	0.297
509	0.299
509	0.301
510	0.302
510	0.304
511	0.305
511	0.306
511	0.307
512	0.309
512	0.31
513	0.311
513	0.312
514	0.313
514	0.314
515	0.315
515	0.317
515	0.318
516	0.319
516	0.321
517	0.323
517	0.324
518	0.326
518	0.327
519	0.329
519	0.33
520	0.332
520	0.334
520	0.336
521	0.338
521	0.34
522	0.342
522	0.344
523	0.345
523	0.347
524	0.348
524	0.35
524	0.351
525	0.352
525	0.353
526	0.354
526	0.355
527	0.357
527	0.358
528	0.359
528	0.36
529	0.361
529	0.362
529	0.363
530	0.365
530	0.365
531	0.366
531	0.367
532	0.368
532	0.369
533	0.37
533	0.371
533	0.372
534	0.372
534	0.373
535	0.374
535	0.375
536	0.375
536	0.376
537	0.376
537	0.377
538	0.377
538	0.377
538	0.378
539	0.379
539	0.379
540	0.379
540	0.379
541	0.38
541	0.381
542	0.381
542	0.381
542	0.382
543	0.382
543	0.382
544	0.383
544	0.383
545	0.384
545	0.384
546	0.385
546	0.384
547	0.384
547	0.385
547	0.385
548	0.385
548	0.386
549	0.386
549	0.386
550	0.386
550	0.386
551	0.386
551	0.386
551	0.387
552	0.386
552	0.386
553	0.386
553	0.386
554	0.386
554	0.385
555	0.385
555	0.384
556	0.384
556	0.384
556	0.384
557	0.384
557	0.384
558	0.383
558	0.383
559	0.383
559	0.383
560	0.382
560	0.381
560	0.381
561	0.381
561	0.38
562	0.379
562	0.378
563	0.377
563	0.377
564	0.376
564	0.375
564	0.375
565	0.375
565	0.374
566	0.373
566	0.373
567	0.372
567	0.372
568	0.371
568	0.37
568	0.369
569	0.368
569	0.367
570	0.365
570	0.363
571	0.363
571	0.362
572	0.361
572	0.36
573	0.358
573	0.357
573	0.356
574	0.355
574	0.355
575	0.354
575	0.354
576	0.353
576	0.351
577	0.35
577	0.349
577	0.348
578	0.348
578	0.347
579	0.347
579	0.346
580	0.344
580	0.341
581	0.34
581	0.339
581	0.338
582	0.338
582	0.338
583	0.337
583	0.336
584	0.334
584	0.333
585	0.334
585	0.334
585	0.334
586	0.333
586	0.333
587	0.332
587	0.331
588	0.33
588	0.329
589	0.329
589	0.329
590	0.328
590	0.328
590	0.328
591	0.327
591	0.326
592	0.325
592	0.323
593	0.323
593	0.323
594	0.322
594	0.322
594	0.321
595	0.322
595	0.321
596	0.321
596	0.322
597	0.323
597	0.323
598	0.322
598	0.321
598	0.321
599	0.32
599	0.319
600	0.317
600	0.316
601	0.315
601	0.313
602	0.311
602	0.31
602	0.309
603	0.309
603	0.309
604	0.308
604	0.307
605	0.307
605	0.307
606	0.305
606	0.304
606	0.303
607	0.302
607	0.302
608	0.301
608	0.299
609	0.299
609	0.299
610	0.299
610	0.299
610	0.299
611	0.3
611	0.301
612	0.302
612	0.302
613	0.302
613	0.302
614	0.301
614	0.299
614	0.298
615	0.297
615	0.297
616	0.296
616	0.295
617	0.294
617	0.292
618	0.292
618	0.291
618	0.292
619	0.292
619	0.292
620	0.293
620	0.292
621	0.292
621	0.292
622	0.292
622	0.292
622	0.291
623	0.291
623	0.291
624	0.291
624	0.29
625	0.29
625	0.29
626	0.29
626	0.29
626	0.29
627	0.29
627	0.29
628	0.29
628	0.289
629	0.289
629	0.288
630	0.288
630	0.287
630	0.288
631	0.287
631	0.287
632	0.286
632	0.285
633	0.285
633	0.285
634	0.285
634	0.284
634	0.283
635	0.282
635	0.28
636	0.28
636	0.279
637	0.278
637	0.277
638	0.277
638	0.276
638	0.276
639	0.275
639	0.274
640	0.274
640	0.274
641	0.274
641	0.274
642	0.273
642	0.273
642	0.272
643	0.271
643	0.27
644	0.268
644	0.267
645	0.266
645	0.264
646	0.263
646	0.261
646	0.259
647	0.257
647	0.254
648	0.252
648	0.25
649	0.246
649	0.243
650	0.239
650	0.233
650	0.227
651	0.22
651	0.212
652	0.203
652	0.194
653	0.186
653	0.176
653	0.174
654	0.174
654	0.167
655	0.159
655	0.153
656	0.145
656	0.137
657	0.131
657	0.126
657	0.117
658	0.11
658	0.09
659	0.037
659	-0.02
660	-0.052
660	-0.072
661	-0.092
661	-0.113
661	-0.135
662	-0.152
662	-0.169
663	-0.182
663	-0.201
664	-0.214
664	-0.236
665	-0.248
665	-0.267
665	-0.279
666	-0.287
666	-0.296
667	-0.305
667	-0.311
668	-0.323
668	-0.338
669	-0.346
669	-0.338
669	-0.307
670	-0.114
670	-0
671	-0
671	-0
672	-0
672	-0
672	-0
673	-0
673	-0
674	-0
674	-0
675	-0
675	-0
676	-0
676	-0
676	-0.12
677	-0.495
677	-0.521
678	-0.534
678	-0.532
679	-0.531
679	-0.543
680	-0.558
680	-0.561
680	-0.565
681	-0.586
681	-0.583
682	-0.598
682	-0.598
683	-0.6
683	-0.624
684	-0.637
684	-0.648
684	-0.656
685	-0.662
685	-0.667
686	-0.663
686	-0.665
687	-0.658
687	-0.666
687	-0.663
688	-0.653
688	-0.65
689	-0.643
689	-0.64
690	-0.629
690	-0.628
691	-0.63
691	-0.643
691	-0.666
692	-0.667
692	-0.664
693	-0.667
693	-0.68
694	-0.679
694	-0.678
695	-0.691
695	-0.69
695	-0.681
696	-0.683
696	-0.666
697	-0.67
697	-0.69
698	-0.694
698	-0.687
698	-0.707
699	-0.711
699	-0.711
700	-0.706
700	-0.723
701	-0.724
701	-0.733
702	-0.733
702	-0.724
702	-0.72
703	-0.713
703	-0.705
704	-0.703
704	-0.704
705	-0.717
705	-0.712
705	-0.701
706	-0.704
706	-0.7
707	-0.706
707	-0.703
708	-0.702
708	-0.695
709	-0.702
709	-0.706
709	-0.7
710	-0.709
710	-0.719
711	-0.71
711	-0.712
712	-0.712
712	-0.727
713	-0.729
713	-0.738
713	-0.727
714	-0.723
714	-0.724
715	-0.715
715	-0.704
716	-0.714
716	-0.716
716	-0.709
717	-0.711
717	-0.713
718	-0.704
718	-0.707
719	-0.713
719	-0.716
720	-0.71
720	-0.719
720	-0.713
721	-0.704
721	-0.704
722	-0.694
722	-0.682
723	-0.681
723	-0.686
723	-0.672
724	-0.675
724	-0.681
725	-0.682
725	-0.692
726	-0.704
726	-0.709
727	-0.715
727	-0.73
727	-0.74
728	-0.742
728	-0.751
729	-0.753
729	-0.759
730	-0.767
730	-0.758
730	-0.75
731	-0.734
731	-0.745
732	-0.752
732	-0.751
733	-0.75
733	-0.755
734	-0.748
734	-0.749
734	-0.734
735	-0.734
735	-0.736
736	-0.747
736	-0.733
737	-0.726
737	-0.727
737	-0.738
738	-0.734
738	-0.732
739	-0.729
739	-0.744
740	-0.742
740	-0.741
741	-0.737
741	-0.737
741	-0.739
742	-0.737
742	-0.738
743	-0.744
743	-0.751
744	-0.749
744	-0.739
744	-0.742
745	-0.749
745	-0.741
746	-0.744
746	-0.742
747	-0.741
747	-0.73
748	-0.719
748	-0.724
748	-0.726
749	-0.723
749	-0.726
750	-0.713
750	-0.716
751	-0.719
751	-0.727
751	-0.731
752	-0.736
752	-0.745
753	-0.74
753	-0.735
754	-0.74
754	-0.732
754	-0.748
755	-0.764
755	-0.775
756	-0.764
756	-0.759
757	-0.755
757	-0.751
758	-0.754
758	-0.752
758	-0.756
759	-0.764
759	-0.747
760	-0.739
760	-0.733
761	-0.744
761	-0.745
761	-0.745
762	-0.753
762	-0.753
763	-0.762
763	-0.757
764	-0.756
764	-0.765
764	-0.771
765	-0.76
765	-0.746
766	-0.753
766	-0.758
767	-0.772
767	-0.764
768	-0.754
768	-0.764
768	-0.767
769	-0.783
769	-0.784
770	-0.791
770	-0.805
771	-0.801
771	-0.805
771	-0.808
772	-0.813
772	-0.813
773	-0.813
773	-0.81
774	-0.81
774	-0.813
775	-0.814
775	-0.807
775	-0.815
776	-0.812
776	-0.801
777	-0.808
777	-0.828
778	-0.824
778	-0.844
778	-0.829
779	-0.849
779	-0.858
780	-0.87
780	-0.867
781	-0.88
781	-0.873
781	-0.888
782	-0.886
782	-0.886
783	-0.87
783	-0.867
784	-0.847
784	-0.834
784	-0.844
785	-0.853
785	-0.839
786	-0.849
786	-0.827
787	-0.815
787	-0.821
788	-0.828
788	-0.841
788	-0.855
789	-0.857
789	-0.842
790	-0.822
790	-0.825
791	-0.825
791	-0.848
791	-0.856
792	-0.847
792	-0.823
793	-0.812
793	-0.788
794	-0.794
794	-0.785
794	-0.795
795	-0.791
795	-0.781
796	-0.763
796	-0.771
797	-0.768
797	-0.78
797	-0.787
798	-0.8
798	-0.795
799	-0.807
799	-0.792
800	-0.799
800	-0.792
801	-0.799
801	-0.784
801	-0.795
802	-0.802
802	-0.803
803	-0.802
803	-0.809
804	-0.804
804	-0.815
804	-0.801
805	-0.807
805	-0.793
806	-0.794
806	-0.78
807	-0.781
807	-0.761
807	-0.749
808	-0.741
808	-0.734
809	-0.718
809	-0.727
810	-0.726
810	-0.719
810	-0.717
811	-0.722
811	-0.712
812	-0.713
812	-0.719
813	-0.722
813	-0.719
813	-0.725
814	-0.729
814	-0.732
815	-0.737
815	-0.741
816	-0.735
816	-0.738
817	-0.748
817	-0.765
817	-0.78
818	-0.787
818	-0.791
819	-0.781
819	-0.782
820	-0.792
820	-0.788
820	-0.799
821	-0.798
821	-0.784
822	-0.752
822	-0.728
823	-0.726
823	-0.728
823	-0.723
824	-0.719
824	-0.72
825	-0.712
825	-0.692
826	-0.689
826	-0.698
826	-0.708
827	-0.701
827	-0.697
828	-0.676
828	-0.679
829	-0.666
829	-0.652
829	-0.645
830	-0.655
830	-0.649
831	-0.64
831	-0.629
832	-0.629
832	-0.619
832	-0.628
833	-0.622
833	-0.624
834	-0.621
834	-0.629
835	-0.616
835	-0.613
835	-0.608
836	-0.605
836	-0.602
837	-0.603
837	-0.591
838	-0.582
838	-0.57
839	-0.557
839	-0.544
839	-0.533
840	-0.522
840	-0.52
841	-0.509
841	-0.499
842	-0.491
842	-0.481
842	-0.473
843	-0.468
843	-0.463
844	-0.452
844	-0.444
845	-0.433
845	-0.423
845	-0.409
846	-0.397
846	-0.382
847	-0.369
847	-0.356
848	-0.343
848	-0.332
848	-0.315
849	-0.304
849	-0.293
850	-0.276
850	-0.269
851	-0.259
851	-0.248
851	-0.239
852	-0.223
852	-0.21
853	-0.199
853	-0.193
854	-0.18
854	-0.167
854	-0.155
855	-0.142
855	-0.135
856	-0.123
856	-0.113
857	-0.104
857	-0.094
857	-0.08
858	-0.067
858	-0.059
859	-0.049
859	-0.036
860	-0.027
860	-0.011
860	-0.001
861	0.009
861	0.017
862	0.025
862	0.032
863	0.039
863	0.049
863	0.054
864	0.059
864	0.066
865	0.072
865	0.077
866	0.083
866	0.088
866	0.094
867	0.099
867	0.104
868	0.108
868	0.113
869	0.117
869	0.12
869	0.123
870	0.126
870	0.129
871	0.132
871	0.134
872	0.135
872	0.136
872	0.137
873	0.137
873	0.137
874	0.136
874	0.135
875	0.134
875	0.134
875	0.133
876	0.132
876	0.131
877	0.13
877	0.129
878	0.128
878	0.127
878	0.126
879	0.125
879	0.125
880	0.124
880	0.124
881	0.123
881	0.123
881	0.122
882	0.122
882	0.121
883	0.12
883	0.119
884	0.119
884	0.118
884	0.117
885	0.116
885	0.116
886	0.115
886	0.114
887	0.113
887	0.112
887	0.111
888	0.111
888	0.11
889	0.11
889	0.11
890	0.109
890	0.108
890	0.107
891	0.106
891	0.105
892	0.105
892	0.105
893	0.105
893	0.105
893	0.105
894	0.105
894	0.105
895	0.105
895	0.105
895	0.105
896	0.105
896	0.104
897	0.103
897	0.102
898	0.101
898	0.1
898	0.1
899	0.1
899	0.1
900	0.1
900	0.1
901	0.101
901	0.101
901	0.102
902	0.103
902	0.104
903	0.105
903	0.106
904	0.107
904	0.108
904	0.109
905	0.11
905	0.111
906	0.112
906	0.113
907	0.113
907	0.114
907	0.115
908	0.116
908	0.116
909	0.117
909	0.117
910	0.117
910	0.117
910	0.116
911	0.116
911	0.116
912	0.116
912	0.115
913	0.114
913	0.114
913	0.113
914	0.113
914	0.111
915	0.11
915	0.109
916	0.108
916	0.108
916	0.107
917	0.106
917	0.106
918	0.105
918	0.105
918	0.105
919	0.105
919	0.105
920	0.105
920	0.105
921	0.105
921	0.105
921	0.105
922	0.105
922	0.104
923	0.104
923	0.103
924	0.103
924	0.103
924	0.102
925	0.102
925	0.101
926	0.101
926	0.1
927	0.099
927	0.098
927	0.097
928	0.097
928	0.096
929	0.095
929	0.094
930	0.093
930	0.092
930	0.091
931	0.091
931	0.09
932	0.09
932	0.089
933	0.088
933	0.087
933	0.086
934	0.084
934	0.083
935	0.082
935	0.081
935	0.079
936	0.078
936	0.077
937	0.076
937	0.075
938	0.075
938	0.075
938	0.076
939	0.077
939	0.078
940	0.079
940	0.079
941	0.08
941	0.08
941	0.081
942	0.081
942	0.081
943	0.081
943	0.08
944	0.079
944	0.079
944	0.078
945	0.078
945	0.077
946	0.076
946	0.076
946	0.075
947	0.075
947	0.075
948	0.075
948	0.075
949	0.075
949	0.075
949	0.075
950	0.074
950	0.073
951	0.073
951	0.073
952	0.072
952	0.071
952	0.07
953	0.07
953	0.07
954	0.069
954	0.069
955	0.069
955	0.069
955	0.069
956	0.07
956	0.07
957	0.07
957	0.07
957	0.071
958	0.071
958	0.071
959	0.072
959	0.072
960	0.072
960	0.072
960	0.073
961	0.073
961	0.073
962	0.074
962	0.074
963	0.075
963	0.075
963	0.075
964	0.075
964	0.075
965	0.076
965	0.076
966	0.076
966	0.076
966	0.076
967	0.076
967	0.076
968	0.076
968	0.077
968	0.077
969	0.078
969	0.079
970	0.08
970	0.082
971	0.083
971	0.084
971	0.085
972	0.086
972	0.087
973	0.088
973	0.088
974	0.087
974	0.087
974	0.087
975	0.086
975	0.086
976	0.084
976	0.083
976	0.082
977	0.081
977	0.08
978	0.079
978	0.078
979	0.077
979	0.076
979	0.076
980	0.075
980	0.074
981	0.074
981	0.074
982	0.073
982	0.072
982	0.071
983	0.07
983	0.07
984	0.069
984	0.068
984	0.068
985	0.068
985	0.068
986	0.067
986	0.067
987	0.067
987	0.068
987	0.068
988	0.068
988	0.067
989	0.066
989	0.066
990	0.065
990	0.064
990	0.063
991	0.063
991	0.062
992	0.062
992	0.062
992	0.061
993	0.062
993	0.062
994	0.062
994	0.063
995	0.064
995	0.064
995	0.064
996	0.065
996	0.065
997	0.066
997	0.067
997	0.067
998	0.068
998	0.068
999	0.069
999	0.069
1000	0.07
1000	0.07
1000	0.07
1001	0.07
1001	0.07
1002	0.069
1002	0.069
1003	0.069
1003	0.068
1003	0.067
1004	0.066
1004	0.065
1005	0.063
1005	0.062
1005	0.06
1006	0.059
1006	0.058
1007	0.056
1007	0.055
1008	0.055
1008	0.054
1008	0.054
1009	0.054
1009	0.055
1010	0.055
1010	0.055
1010	0.056
1011	0.056
1011	0.056
1012	0.055
1012	0.055
1013	0.055
1013	0.054
1013	0.054
1014	0.054
1014	0.053
1015	0.053
1015	0.054
1016	0.053
1016	0.054
1016	0.054
1017	0.054
1017	0.054
1018	0.055
1018	0.055
1018	0.054
1019	0.054
1019	0.054
1020	0.053
1020	0.053
1021	0.052
1021	0.051
1021	0.05
1022	0.049
1022	0.049
1023	0.048
1023	0.048
1023	0.048
1024	0.048
1024	0.047
1025	0.047
1025	0.048
1026	0.048
1026	0.048
1026	0.049
1027	0.049
1027	0.049
1028	0.05
1028	0.05
1028	0.05
1029	0.051
1029	0.051
1030	0.051
1030	0.051
1031	0.051
1031	0.052
1031	0.053
1032	0.053
1032	0.054
1033	0.055
1033	0.055
1033	0.056
1034	0.056
1034	0.057
1035	0.057
1035	0.057
1036	0.057
1036	0.057
1036	0.057
1037	0.057
1037	0.057
1038	0.057
1038	0.056
1039	0.057
1039	0.057
1039	0.057
1040	0.057
1040	0.058
1041	0.058
1041	0.058
1041	0.058
1042	0.058
1042	0.058
1043	0.058
1043	0.058
1044	0.058
1044	0.058
1044	0.058
1045	0.057
1045	0.057
1046	0.056
1046	0.056
1046	0.056
1047	0.056
1047	0.056
1048	0.056
1048	0.057
1049	0.057
1049	0.056
1049	0.057
1050	0.056
1050	0.056
1051	0.056
1051	0.056
1051	0.056
1052	0.056
1052	0.055
1053	0.054
1053	0.054
1053	0.053
1054	0.052
1054	0.051
1055	0.051
1055	0.05
1056	0.048
1056	0.047
1056	0.045
1057	0.044
1057	0.043
1058	0.042
1058	0.041
1058	0.04
1059	0.039
1059	0.038
1060	0.038
1060	0.037
1061	0.037
1061	0.037
1061	0.037
1062	0.036
1062	0.036
1063	0.036
1063	0.036
1063	0.036
1064	0.037
1064	0.036
1065	0.036
1065	0.036
1066	0.036
1066	0.036
1066	0.036
1067	0.037
1067	0.037
1068	0.037
1068	0.037
1068	0.037
1069	0.037
1069	0.037
1070	0.037
1070	0.038
1071	0.038
1071	0.038
1071	0.037
1072	0.037
1072	0.037
1073	0.037
1073	0.037
1073	0.037
1074	0.037
1074	0.037
1075	0.037
1075	0.036
1076	0.036
1076	0.036
1076	0.035
1077	0.035
1077	0.034
1078	0.033
1078	0.033
1078	0.032
1079	0.031
1079	0.03
1080	0.029
1080	0.028
1080	0.026
1081	0.025
1081	0.024
1082	0.023
1082	0.021
1083	0.02
1083	0.018
1083	0.017
1084	0.015
1084	0.014
1085	0.012
1085	0.011
1085	0.01
1086	0.009
1086	0.007
1087	0.007
1087	0.006
1088	0.005
1088	0.005
1088	0.004
1089	0.003
1089	0.002
1090	0.001
1090	0
1090	-0.001
1091	-0.001
1091	-0.001
1092	-0.001
1092	-0.001
1092	-0.002
1093	-0.002
1093	-0.001
1094	-0.001
1094	-0.001
1095	-0.002
1095	-0.002
1095	-0.003
1096	-0.005
1096	-0.006
1097	-0.006
1097	-0.007
1097	-0.007
1098	-0.01
1098	-0.012
1099	-0.013
1099	-0.015
1100	-0.017
1100	-0.019
1100	-0.021
1101	-0.025
1101	-0.028
1102	-0.031
1102	-0.035
1102	-0.036
1103	-0.038
1103	-0.04
1104	-0.043
1104	-0.045
1104	-0.047
1105	-0.049
1105	-0.052
1106	-0.057
1106	-0.059
1107	-0.065
1107	-0.069
1107	-0.076
1108	-0.079
1108	-0.08
1109	-0.085
1109	-0.09
1109	-0.094
1110	-0.095
1110	-0.098
1111	-0.105
1111	-0.105
