Data from 17C_3.4A_35min_2sec_int_Absorbance__829__04914.txt Node

Date: Mon Jun 19 20:15:44 CEST 2023
User: Marek
Spectrometer: MAYP115816
Trigger mode: 0
Integration Time (sec): 2.500000E-1
Scans to average: 10
Electric dark correction enabled: true
Nonlinearity correction enabled: true
Boxcar width: 5
XAxis mode: Wavelengths
Number of Pixels in Spectrum: 2068
>>>>>Begin Spectral Data<<<<<
199	-0.8
199	-0.82
200	-0.724
200	-0.67
201	-0.633
201	-0.622
202	-0.606
202	-0.592
203	-0.584
203	-0.58
204	-0.565
204	-0.553
205	-0.529
205	-0.522
205	-0.521
206	-0.523
206	-0.523
207	-0.514
207	-0.515
208	-0.516
208	-0.514
209	-0.508
209	-0.51
210	-0.514
210	-0.52
211	-0.519
211	-0.52
212	-0.524
212	-0.531
213	-0.53
213	-0.53
213	-0.537
214	-0.534
214	-0.532
215	-0.53
215	-0.536
216	-0.542
216	-0.553
217	-0.548
217	-0.554
218	-0.556
218	-0.557
219	-0.56
219	-0.571
220	-0.576
220	-0.587
221	-0.585
221	-0.587
221	-0.578
222	-0.574
222	-0.574
223	-0.575
223	-0.579
224	-0.582
224	-0.581
225	-0.576
225	-0.57
226	-0.576
226	-0.577
227	-0.582
227	-0.592
228	-0.593
228	-0.595
229	-0.597
229	-0.59
229	-0.586
230	-0.589
230	-0.592
231	-0.586
231	-0.575
232	-0.572
232	-0.571
233	-0.564
233	-0.561
234	-0.559
234	-0.557
235	-0.559
235	-0.565
236	-0.564
236	-0.569
236	-0.577
237	-0.582
237	-0.581
238	-0.59
238	-0.59
239	-0.59
239	-0.596
240	-0.595
240	-0.595
241	-0.601
241	-0.598
242	-0.603
242	-0.598
243	-0.596
243	-0.596
243	-0.606
244	-0.607
244	-0.609
245	-0.624
245	-0.622
246	-0.626
246	-0.633
247	-0.635
247	-0.639
248	-0.645
248	-0.644
249	-0.644
249	-0.652
250	-0.649
250	-0.645
250	-0.645
251	-0.642
251	-0.642
252	-0.644
252	-0.635
253	-0.64
253	-0.651
254	-0.653
254	-0.65
255	-0.659
255	-0.652
256	-0.649
256	-0.659
257	-0.655
257	-0.653
258	-0.669
258	-0.666
258	-0.662
259	-0.657
259	-0.667
260	-0.666
260	-0.671
261	-0.684
261	-0.677
262	-0.674
262	-0.673
263	-0.664
263	-0.66
264	-0.661
264	-0.669
265	-0.663
265	-0.672
265	-0.674
266	-0.671
266	-0.669
267	-0.684
267	-0.694
268	-0.71
268	-0.718
269	-0.716
269	-0.712
270	-0.717
270	-0.719
271	-0.718
271	-0.723
272	-0.727
272	-0.721
272	-0.712
273	-0.711
273	-0.721
274	-0.723
274	-0.727
275	-0.73
275	-0.725
276	-0.733
276	-0.726
277	-0.731
277	-0.75
278	-0.761
278	-0.754
278	-0.749
279	-0.753
279	-0.764
280	-0.761
280	-0.761
281	-0.756
281	-0.765
282	-0.756
282	-0.757
283	-0.747
283	-0.748
284	-0.741
284	-0.729
285	-0.726
285	-0.721
285	-0.717
286	-0.726
286	-0.718
287	-0.715
287	-0.698
288	-0.69
288	-0.702
289	-0.716
289	-0.727
290	-0.713
290	-0.715
291	-0.712
291	-0.704
292	-0.706
292	-0.714
292	-0.719
293	-0.726
293	-0.712
294	-0.702
294	-0.692
295	-0.69
295	-0.687
296	-0.685
296	-0.682
297	-0.676
297	-0.66
298	-0.653
298	-0.66
298	-0.649
299	-0.641
299	-0.642
300	-0.637
300	-0.631
301	-0.627
301	-0.626
302	-0.636
302	-0.645
303	-0.632
303	-0.616
304	-0.619
304	-0.618
305	-0.623
305	-0.622
305	-0.62
306	-0.605
306	-0.598
307	-0.582
307	-0.585
308	-0.598
308	-0.596
309	-0.598
309	-0.588
310	-0.574
310	-0.57
311	-0.561
311	-0.57
311	-0.567
312	-0.564
312	-0.559
313	-0.545
313	-0.548
314	-0.546
314	-0.549
315	-0.548
315	-0.547
316	-0.545
316	-0.535
317	-0.526
317	-0.523
318	-0.513
318	-0.509
318	-0.503
319	-0.493
319	-0.488
320	-0.483
320	-0.484
321	-0.488
321	-0.487
322	-0.483
322	-0.477
323	-0.477
323	-0.471
324	-0.465
324	-0.455
324	-0.444
325	-0.434
325	-0.417
326	-0.4
326	-0.382
327	-0.367
327	-0.345
328	-0.318
328	-0.298
329	-0.274
329	-0.251
330	-0.222
330	-0.189
330	-0.159
331	-0.13
331	-0.102
332	-0.074
332	-0.05
333	-0.026
333	-0.002
334	0.021
334	0.039
335	0.057
335	0.073
336	0.088
336	0.102
336	0.114
337	0.126
337	0.136
338	0.146
338	0.152
339	0.161
339	0.167
340	0.172
340	0.177
341	0.182
341	0.186
342	0.19
342	0.194
342	0.197
343	0.199
343	0.203
344	0.205
344	0.206
345	0.208
345	0.209
346	0.21
346	0.211
347	0.212
347	0.213
348	0.213
348	0.214
348	0.214
349	0.215
349	0.215
350	0.215
350	0.216
351	0.216
351	0.216
352	0.216
352	0.216
353	0.216
353	0.216
354	0.216
354	0.215
354	0.215
355	0.215
355	0.215
356	0.215
356	0.215
357	0.214
357	0.214
358	0.214
358	0.214
359	0.214
359	0.214
360	0.214
360	0.214
360	0.214
361	0.214
361	0.214
362	0.214
362	0.214
363	0.214
363	0.214
364	0.214
364	0.214
365	0.214
365	0.214
366	0.214
366	0.214
366	0.214
367	0.214
367	0.214
368	0.214
368	0.213
369	0.214
369	0.214
370	0.214
370	0.214
371	0.213
371	0.213
372	0.213
372	0.213
372	0.213
373	0.214
373	0.214
374	0.213
374	0.213
375	0.213
375	0.213
376	0.213
376	0.213
377	0.213
377	0.213
378	0.213
378	0.213
378	0.213
379	0.213
379	0.213
380	0.213
380	0.212
381	0.212
381	0.212
382	0.212
382	0.212
383	0.212
383	0.212
383	0.211
384	0.211
384	0.211
385	0.211
385	0.212
386	0.212
386	0.212
387	0.212
387	0.211
388	0.211
388	0.211
389	0.211
389	0.211
389	0.211
390	0.212
390	0.212
391	0.211
391	0.211
392	0.211
392	0.211
393	0.211
393	0.211
394	0.211
394	0.211
394	0.21
395	0.21
395	0.21
396	0.21
396	0.21
397	0.21
397	0.21
398	0.21
398	0.21
399	0.21
399	0.21
400	0.209
400	0.209
400	0.209
401	0.209
401	0.209
402	0.209
402	0.209
403	0.208
403	0.208
404	0.208
404	0.208
405	0.208
405	0.208
405	0.208
406	0.208
406	0.207
407	0.207
407	0.207
408	0.207
408	0.207
409	0.207
409	0.207
410	0.207
410	0.207
411	0.207
411	0.207
411	0.207
412	0.207
412	0.207
413	0.207
413	0.207
414	0.207
414	0.207
415	0.207
415	0.206
416	0.206
416	0.206
416	0.206
417	0.206
417	0.206
418	0.206
418	0.206
419	0.206
419	0.206
420	0.206
420	0.207
421	0.207
421	0.207
421	0.207
422	0.207
422	0.207
423	0.207
423	0.207
424	0.206
424	0.206
425	0.206
425	0.206
426	0.206
426	0.206
427	0.205
427	0.205
427	0.205
428	0.205
428	0.205
429	0.205
429	0.205
430	0.205
430	0.205
431	0.204
431	0.204
432	0.204
432	0.204
432	0.204
433	0.204
433	0.204
434	0.204
434	0.204
435	0.203
435	0.203
436	0.203
436	0.203
437	0.203
437	0.203
437	0.203
438	0.203
438	0.203
439	0.203
439	0.203
440	0.203
440	0.203
441	0.202
441	0.202
442	0.202
442	0.201
442	0.201
443	0.201
443	0.201
444	0.201
444	0.201
445	0.201
445	0.201
446	0.201
446	0.201
447	0.201
447	0.201
447	0.201
448	0.201
448	0.201
449	0.201
449	0.201
450	0.201
450	0.201
451	0.201
451	0.201
452	0.202
452	0.202
452	0.202
453	0.201
453	0.201
454	0.201
454	0.201
455	0.201
455	0.201
456	0.201
456	0.2
457	0.2
457	0.2
458	0.2
458	0.2
458	0.2
459	0.201
459	0.2
460	0.2
460	0.2
461	0.199
461	0.2
462	0.2
462	0.2
463	0.2
463	0.2
463	0.2
464	0.199
464	0.199
465	0.199
465	0.199
466	0.199
466	0.199
467	0.199
467	0.199
467	0.199
468	0.199
468	0.199
469	0.2
469	0.2
470	0.2
470	0.2
471	0.2
471	0.2
472	0.2
472	0.2
472	0.2
473	0.2
473	0.2
474	0.2
474	0.2
475	0.201
475	0.201
476	0.201
476	0.201
477	0.201
477	0.201
477	0.201
478	0.201
478	0.201
479	0.201
479	0.202
480	0.202
480	0.202
481	0.202
481	0.202
482	0.203
482	0.203
482	0.203
483	0.203
483	0.204
484	0.204
484	0.204
485	0.204
485	0.204
486	0.204
486	0.204
487	0.204
487	0.205
487	0.205
488	0.205
488	0.206
489	0.207
489	0.208
490	0.209
490	0.21
491	0.211
491	0.212
492	0.212
492	0.213
492	0.214
493	0.215
493	0.216
494	0.217
494	0.217
495	0.218
495	0.218
496	0.219
496	0.22
496	0.221
497	0.222
497	0.222
498	0.223
498	0.223
499	0.224
499	0.224
500	0.225
500	0.226
501	0.227
501	0.227
501	0.227
502	0.227
502	0.228
503	0.229
503	0.23
504	0.23
504	0.231
505	0.232
505	0.233
506	0.234
506	0.236
506	0.237
507	0.238
507	0.239
508	0.24
508	0.242
509	0.243
509	0.244
510	0.245
510	0.245
511	0.246
511	0.247
511	0.247
512	0.248
512	0.249
513	0.25
513	0.25
514	0.251
514	0.253
515	0.253
515	0.254
515	0.255
516	0.257
516	0.258
517	0.26
517	0.261
518	0.262
518	0.263
519	0.264
519	0.265
520	0.267
520	0.268
520	0.27
521	0.271
521	0.272
522	0.273
522	0.274
523	0.276
523	0.277
524	0.278
524	0.279
524	0.28
525	0.281
525	0.281
526	0.283
526	0.284
527	0.285
527	0.285
528	0.286
528	0.287
529	0.288
529	0.289
529	0.289
530	0.29
530	0.29
531	0.291
531	0.291
532	0.292
532	0.292
533	0.293
533	0.293
533	0.294
534	0.295
534	0.295
535	0.296
535	0.297
536	0.297
536	0.297
537	0.298
537	0.299
538	0.299
538	0.299
538	0.3
539	0.301
539	0.302
540	0.302
540	0.303
541	0.304
541	0.305
542	0.306
542	0.306
542	0.307
543	0.307
543	0.307
544	0.308
544	0.308
545	0.308
545	0.309
546	0.31
546	0.309
547	0.309
547	0.31
547	0.311
548	0.311
548	0.312
549	0.312
549	0.312
550	0.313
550	0.313
551	0.313
551	0.314
551	0.315
552	0.315
552	0.316
553	0.317
553	0.317
554	0.317
554	0.317
555	0.318
555	0.318
556	0.318
556	0.319
556	0.319
557	0.32
557	0.32
558	0.321
558	0.321
559	0.322
559	0.322
560	0.322
560	0.322
560	0.322
561	0.323
561	0.322
562	0.322
562	0.321
563	0.32
563	0.32
564	0.319
564	0.319
564	0.319
565	0.319
565	0.318
566	0.318
566	0.317
567	0.317
567	0.317
568	0.317
568	0.316
568	0.316
569	0.316
569	0.316
570	0.315
570	0.314
571	0.314
571	0.314
572	0.313
572	0.313
573	0.313
573	0.312
573	0.311
574	0.311
574	0.312
575	0.312
575	0.313
576	0.312
576	0.311
577	0.309
577	0.309
577	0.309
578	0.308
578	0.308
579	0.309
579	0.308
580	0.306
580	0.304
581	0.303
581	0.303
581	0.303
582	0.303
582	0.303
583	0.304
583	0.303
584	0.301
584	0.3
585	0.301
585	0.302
585	0.302
586	0.302
586	0.302
587	0.3
587	0.3
588	0.299
588	0.299
589	0.299
589	0.299
590	0.299
590	0.299
590	0.3
591	0.3
591	0.299
592	0.298
592	0.298
593	0.297
593	0.297
594	0.297
594	0.296
594	0.296
595	0.296
595	0.296
596	0.296
596	0.298
597	0.299
597	0.299
598	0.298
598	0.298
598	0.298
599	0.297
599	0.296
600	0.295
600	0.294
601	0.293
601	0.292
602	0.29
602	0.29
602	0.289
603	0.289
603	0.29
604	0.289
604	0.289
605	0.289
605	0.289
606	0.287
606	0.286
606	0.285
607	0.284
607	0.284
608	0.283
608	0.282
609	0.282
609	0.282
610	0.282
610	0.283
610	0.284
611	0.286
611	0.287
612	0.288
612	0.289
613	0.289
613	0.29
614	0.289
614	0.288
614	0.287
615	0.286
615	0.286
616	0.285
616	0.284
617	0.283
617	0.282
618	0.281
618	0.28
618	0.28
619	0.28
619	0.281
620	0.282
620	0.281
621	0.281
621	0.281
622	0.281
622	0.282
622	0.281
623	0.281
623	0.282
624	0.282
624	0.281
625	0.281
625	0.281
626	0.281
626	0.281
626	0.281
627	0.282
627	0.282
628	0.282
628	0.281
629	0.281
629	0.281
630	0.281
630	0.281
630	0.281
631	0.281
631	0.281
632	0.28
632	0.28
633	0.28
633	0.279
634	0.279
634	0.279
634	0.278
635	0.277
635	0.276
636	0.275
636	0.274
637	0.274
637	0.273
638	0.272
638	0.271
638	0.27
639	0.269
639	0.269
640	0.268
640	0.268
641	0.267
641	0.267
642	0.266
642	0.266
642	0.265
643	0.264
643	0.264
644	0.263
644	0.262
645	0.261
645	0.261
646	0.26
646	0.258
646	0.257
647	0.256
647	0.254
648	0.251
648	0.249
649	0.245
649	0.242
650	0.238
650	0.232
650	0.226
651	0.219
651	0.211
652	0.202
652	0.191
653	0.182
653	0.172
653	0.17
654	0.168
654	0.16
655	0.152
655	0.144
656	0.136
656	0.126
657	0.12
657	0.116
657	0.108
658	0.101
658	0.079
659	0.025
659	-0.033
660	-0.065
660	-0.086
661	-0.107
661	-0.128
661	-0.151
662	-0.17
662	-0.187
663	-0.202
663	-0.222
664	-0.234
664	-0.258
665	-0.27
665	-0.288
665	-0.301
666	-0.31
666	-0.318
667	-0.328
667	-0.333
668	-0.347
668	-0.362
669	-0.371
669	-0.363
669	-0.332
670	-0.155
670	-0
671	-0
671	-0
672	-0
672	-0
672	-0
673	-0
673	-0
674	-0
674	-0
675	-0
675	-0
676	-0
676	-0
676	-0.221
677	-0.53
677	-0.552
678	-0.566
678	-0.563
679	-0.564
679	-0.575
680	-0.588
680	-0.592
680	-0.595
681	-0.616
681	-0.613
682	-0.626
682	-0.628
683	-0.63
683	-0.655
684	-0.669
684	-0.68
684	-0.689
685	-0.694
685	-0.699
686	-0.694
686	-0.696
687	-0.688
687	-0.697
687	-0.693
688	-0.679
688	-0.674
689	-0.669
689	-0.664
690	-0.653
690	-0.65
691	-0.654
691	-0.666
691	-0.691
692	-0.689
692	-0.688
693	-0.693
693	-0.708
694	-0.707
694	-0.704
695	-0.715
695	-0.716
695	-0.706
696	-0.708
696	-0.688
697	-0.692
697	-0.711
698	-0.714
698	-0.707
698	-0.726
699	-0.733
699	-0.735
700	-0.731
700	-0.747
701	-0.749
701	-0.759
702	-0.762
702	-0.752
702	-0.747
703	-0.742
703	-0.735
704	-0.735
704	-0.735
705	-0.748
705	-0.742
705	-0.73
706	-0.732
706	-0.728
707	-0.735
707	-0.732
708	-0.732
708	-0.724
709	-0.728
709	-0.731
709	-0.724
710	-0.735
710	-0.746
711	-0.738
711	-0.74
712	-0.738
712	-0.752
713	-0.754
713	-0.763
713	-0.752
714	-0.749
714	-0.75
715	-0.741
715	-0.729
716	-0.739
716	-0.743
716	-0.737
717	-0.738
717	-0.739
718	-0.729
718	-0.732
719	-0.74
719	-0.743
720	-0.74
720	-0.751
720	-0.744
721	-0.732
721	-0.736
722	-0.724
722	-0.714
723	-0.714
723	-0.719
723	-0.707
724	-0.71
724	-0.714
725	-0.713
725	-0.723
726	-0.739
726	-0.743
727	-0.749
727	-0.765
727	-0.773
728	-0.774
728	-0.782
729	-0.782
729	-0.788
730	-0.795
730	-0.785
730	-0.773
731	-0.755
731	-0.766
732	-0.769
732	-0.769
733	-0.767
733	-0.771
734	-0.765
734	-0.764
734	-0.749
735	-0.75
735	-0.752
736	-0.765
736	-0.751
737	-0.744
737	-0.745
737	-0.756
738	-0.751
738	-0.752
739	-0.751
739	-0.765
740	-0.764
740	-0.764
741	-0.76
741	-0.761
741	-0.766
742	-0.764
742	-0.765
743	-0.773
743	-0.779
744	-0.777
744	-0.766
744	-0.768
745	-0.775
745	-0.769
746	-0.768
746	-0.763
747	-0.763
747	-0.75
748	-0.738
748	-0.742
748	-0.744
749	-0.743
749	-0.744
750	-0.734
750	-0.733
751	-0.738
751	-0.748
751	-0.753
752	-0.759
752	-0.769
753	-0.764
753	-0.759
754	-0.764
754	-0.758
754	-0.772
755	-0.79
755	-0.801
756	-0.79
756	-0.787
757	-0.783
757	-0.778
758	-0.78
758	-0.778
758	-0.781
759	-0.788
759	-0.772
760	-0.763
760	-0.757
761	-0.766
761	-0.764
761	-0.763
762	-0.771
762	-0.77
763	-0.778
763	-0.775
764	-0.772
764	-0.779
764	-0.786
765	-0.777
765	-0.766
766	-0.774
766	-0.781
767	-0.795
767	-0.789
768	-0.78
768	-0.788
768	-0.796
769	-0.814
769	-0.815
770	-0.819
770	-0.831
771	-0.829
771	-0.833
771	-0.833
772	-0.837
772	-0.837
773	-0.836
773	-0.831
774	-0.829
774	-0.829
775	-0.831
775	-0.825
775	-0.831
776	-0.83
776	-0.82
777	-0.828
777	-0.848
778	-0.845
778	-0.864
778	-0.851
779	-0.874
779	-0.882
780	-0.896
780	-0.895
781	-0.906
781	-0.9
781	-0.914
782	-0.915
782	-0.915
783	-0.901
783	-0.898
784	-0.876
784	-0.866
784	-0.876
785	-0.881
785	-0.868
786	-0.876
786	-0.856
787	-0.843
787	-0.848
788	-0.853
788	-0.867
788	-0.882
789	-0.884
789	-0.867
790	-0.851
790	-0.855
791	-0.856
791	-0.876
791	-0.883
792	-0.876
792	-0.851
793	-0.84
793	-0.816
794	-0.82
794	-0.811
794	-0.821
795	-0.815
795	-0.807
796	-0.789
796	-0.796
797	-0.791
797	-0.806
797	-0.814
798	-0.827
798	-0.821
799	-0.832
799	-0.817
800	-0.823
800	-0.815
801	-0.82
801	-0.805
801	-0.816
802	-0.822
802	-0.822
803	-0.821
803	-0.831
804	-0.826
804	-0.837
804	-0.823
805	-0.828
805	-0.819
806	-0.823
806	-0.806
807	-0.805
807	-0.785
807	-0.775
808	-0.763
808	-0.757
809	-0.743
809	-0.754
810	-0.752
810	-0.743
810	-0.739
811	-0.746
811	-0.737
812	-0.741
812	-0.744
813	-0.75
813	-0.745
813	-0.75
814	-0.751
814	-0.755
815	-0.76
815	-0.765
816	-0.756
816	-0.761
817	-0.767
817	-0.786
817	-0.8
818	-0.808
818	-0.81
819	-0.802
819	-0.803
820	-0.815
820	-0.809
820	-0.821
821	-0.818
821	-0.805
822	-0.772
822	-0.748
823	-0.747
823	-0.75
823	-0.747
824	-0.743
824	-0.745
825	-0.738
825	-0.719
826	-0.715
826	-0.723
826	-0.733
827	-0.729
827	-0.722
828	-0.701
828	-0.701
829	-0.69
829	-0.673
829	-0.664
830	-0.674
830	-0.67
831	-0.663
831	-0.652
832	-0.651
832	-0.644
832	-0.652
833	-0.648
833	-0.648
834	-0.646
834	-0.655
835	-0.642
835	-0.637
835	-0.631
836	-0.629
836	-0.625
837	-0.622
837	-0.61
838	-0.6
838	-0.587
839	-0.575
839	-0.562
839	-0.553
840	-0.542
840	-0.538
841	-0.527
841	-0.516
842	-0.509
842	-0.499
842	-0.491
843	-0.484
843	-0.477
844	-0.466
844	-0.455
845	-0.446
845	-0.435
845	-0.42
846	-0.41
846	-0.394
847	-0.381
847	-0.369
848	-0.356
848	-0.344
848	-0.328
849	-0.317
849	-0.303
850	-0.285
850	-0.278
851	-0.266
851	-0.254
851	-0.244
852	-0.227
852	-0.213
853	-0.204
853	-0.196
854	-0.183
854	-0.171
854	-0.159
855	-0.146
855	-0.137
856	-0.125
856	-0.115
857	-0.107
857	-0.097
857	-0.081
858	-0.068
858	-0.058
859	-0.046
859	-0.033
860	-0.022
860	-0.006
860	0.005
861	0.015
861	0.027
862	0.037
862	0.045
863	0.052
863	0.063
863	0.069
864	0.074
864	0.081
865	0.087
865	0.093
866	0.099
866	0.104
866	0.11
867	0.115
867	0.121
868	0.125
868	0.13
869	0.135
869	0.138
869	0.141
870	0.145
870	0.148
871	0.151
871	0.153
872	0.154
872	0.155
872	0.156
873	0.156
873	0.156
874	0.156
874	0.155
875	0.155
875	0.154
875	0.154
876	0.153
876	0.152
877	0.151
877	0.15
878	0.149
878	0.148
878	0.147
879	0.146
879	0.145
880	0.144
880	0.143
881	0.143
881	0.142
881	0.142
882	0.141
882	0.141
883	0.14
883	0.139
884	0.139
884	0.139
884	0.139
885	0.138
885	0.137
886	0.137
886	0.135
887	0.135
887	0.134
887	0.133
888	0.133
888	0.132
889	0.132
889	0.131
890	0.13
890	0.129
890	0.128
891	0.127
891	0.126
892	0.125
892	0.125
893	0.124
893	0.125
893	0.125
894	0.125
894	0.125
895	0.124
895	0.124
895	0.124
896	0.123
896	0.121
897	0.121
897	0.12
898	0.119
898	0.119
898	0.119
899	0.119
899	0.12
900	0.12
900	0.121
901	0.122
901	0.124
901	0.125
902	0.126
902	0.127
903	0.129
903	0.13
904	0.131
904	0.133
904	0.134
905	0.135
905	0.136
906	0.137
906	0.138
907	0.138
907	0.139
907	0.14
908	0.14
908	0.14
909	0.141
909	0.141
910	0.141
910	0.14
910	0.14
911	0.139
911	0.139
912	0.139
912	0.138
913	0.138
913	0.138
913	0.137
914	0.137
914	0.136
915	0.136
915	0.135
916	0.135
916	0.134
916	0.133
917	0.133
917	0.133
918	0.132
918	0.132
918	0.132
919	0.132
919	0.131
920	0.131
920	0.131
921	0.131
921	0.131
921	0.13
922	0.129
922	0.128
923	0.127
923	0.126
924	0.126
924	0.125
924	0.124
925	0.123
925	0.122
926	0.121
926	0.12
927	0.119
927	0.118
927	0.117
928	0.116
928	0.115
929	0.114
929	0.113
930	0.112
930	0.11
930	0.109
931	0.108
931	0.107
932	0.106
932	0.105
933	0.104
933	0.103
933	0.102
934	0.101
934	0.1
935	0.099
935	0.098
935	0.097
936	0.096
936	0.095
937	0.094
937	0.093
938	0.092
938	0.092
938	0.091
939	0.091
939	0.092
940	0.092
940	0.092
941	0.092
941	0.093
941	0.093
942	0.093
942	0.093
943	0.093
943	0.093
944	0.092
944	0.092
944	0.092
945	0.092
945	0.092
946	0.091
946	0.091
946	0.091
947	0.092
947	0.092
948	0.092
948	0.093
949	0.093
949	0.093
949	0.093
950	0.093
950	0.093
951	0.093
951	0.092
952	0.092
952	0.092
952	0.091
953	0.09
953	0.091
954	0.09
954	0.09
955	0.09
955	0.09
955	0.09
956	0.09
956	0.091
957	0.09
957	0.09
957	0.091
958	0.091
958	0.091
959	0.091
959	0.091
960	0.091
960	0.091
960	0.092
961	0.092
961	0.092
962	0.092
962	0.092
963	0.092
963	0.092
963	0.092
964	0.092
964	0.092
965	0.092
965	0.092
966	0.092
966	0.092
966	0.092
967	0.092
967	0.091
968	0.091
968	0.092
968	0.092
969	0.093
969	0.093
970	0.094
970	0.095
971	0.096
971	0.098
971	0.099
972	0.1
972	0.101
973	0.102
973	0.103
974	0.103
974	0.104
974	0.104
975	0.104
975	0.103
976	0.102
976	0.102
976	0.101
977	0.1
977	0.099
978	0.098
978	0.097
979	0.097
979	0.096
979	0.095
980	0.095
980	0.094
981	0.094
981	0.094
982	0.093
982	0.092
982	0.091
983	0.09
983	0.09
984	0.089
984	0.089
984	0.088
985	0.088
985	0.089
986	0.089
986	0.089
987	0.089
987	0.09
987	0.091
988	0.091
988	0.091
989	0.091
989	0.092
990	0.091
990	0.091
990	0.091
991	0.091
991	0.09
992	0.09
992	0.09
992	0.09
993	0.089
993	0.089
994	0.089
994	0.089
995	0.088
995	0.088
995	0.088
996	0.088
996	0.088
997	0.088
997	0.088
997	0.088
998	0.088
998	0.088
999	0.089
999	0.089
1000	0.09
1000	0.089
1000	0.09
1001	0.09
1001	0.09
1002	0.09
1002	0.09
1003	0.091
1003	0.091
1003	0.09
1004	0.089
1004	0.088
1005	0.088
1005	0.086
1005	0.085
1006	0.084
1006	0.083
1007	0.082
1007	0.081
1008	0.08
1008	0.08
1008	0.079
1009	0.08
1009	0.08
1010	0.08
1010	0.08
1010	0.08
1011	0.08
1011	0.08
1012	0.079
1012	0.079
1013	0.078
1013	0.078
1013	0.077
1014	0.077
1014	0.076
1015	0.076
1015	0.076
1016	0.076
1016	0.076
1016	0.076
1017	0.075
1017	0.075
1018	0.075
1018	0.074
1018	0.074
1019	0.074
1019	0.073
1020	0.072
1020	0.072
1021	0.071
1021	0.07
1021	0.069
1022	0.068
1022	0.067
1023	0.067
1023	0.066
1023	0.066
1024	0.065
1024	0.064
1025	0.064
1025	0.064
1026	0.063
1026	0.064
1026	0.064
1027	0.064
1027	0.065
1028	0.065
1028	0.065
1028	0.066
1029	0.066
1029	0.067
1030	0.067
1030	0.067
1031	0.068
1031	0.069
1031	0.07
1032	0.07
1032	0.071
1033	0.072
1033	0.073
1033	0.074
1034	0.075
1034	0.076
1035	0.077
1035	0.077
1036	0.077
1036	0.077
1036	0.077
1037	0.077
1037	0.077
1038	0.077
1038	0.077
1039	0.076
1039	0.077
1039	0.077
1040	0.077
1040	0.077
1041	0.077
1041	0.077
1041	0.077
1042	0.077
1042	0.077
1043	0.076
1043	0.076
1044	0.076
1044	0.075
1044	0.075
1045	0.075
1045	0.075
1046	0.074
1046	0.074
1046	0.074
1047	0.074
1047	0.074
1048	0.074
1048	0.074
1049	0.074
1049	0.073
1049	0.073
1050	0.073
1050	0.072
1051	0.071
1051	0.071
1051	0.071
1052	0.071
1052	0.07
1053	0.07
1053	0.07
1053	0.069
1054	0.068
1054	0.068
1055	0.067
1055	0.066
1056	0.065
1056	0.064
1056	0.062
1057	0.061
1057	0.06
1058	0.059
1058	0.058
1058	0.057
1059	0.056
1059	0.056
1060	0.055
1060	0.054
1061	0.054
1061	0.054
1061	0.054
1062	0.053
1062	0.053
1063	0.053
1063	0.053
1063	0.053
1064	0.053
1064	0.053
1065	0.053
1065	0.052
1066	0.052
1066	0.052
1066	0.052
1067	0.053
1067	0.053
1068	0.053
1068	0.053
1068	0.052
1069	0.053
1069	0.053
1070	0.053
1070	0.054
1071	0.054
1071	0.055
1071	0.054
1072	0.055
1072	0.055
1073	0.055
1073	0.055
1073	0.054
1074	0.055
1074	0.055
1075	0.055
1075	0.055
1076	0.054
1076	0.054
1076	0.054
1077	0.053
1077	0.053
1078	0.052
1078	0.051
1078	0.05
1079	0.048
1079	0.047
1080	0.046
1080	0.045
1080	0.044
1081	0.043
1081	0.042
1082	0.041
1082	0.039
1083	0.038
1083	0.037
1083	0.036
1084	0.034
1084	0.033
1085	0.031
1085	0.03
1085	0.029
1086	0.028
1086	0.026
1087	0.026
1087	0.026
1088	0.025
1088	0.024
1088	0.024
1089	0.022
1089	0.021
1090	0.02
1090	0.02
1090	0.018
1091	0.017
1091	0.017
1092	0.015
1092	0.016
1092	0.014
1093	0.013
1093	0.014
1094	0.014
1094	0.013
1095	0.011
1095	0.01
1095	0.01
1096	0.008
1096	0.007
1097	0.007
1097	0.005
1097	0.003
1098	0
1098	-0.002
1099	-0.003
1099	-0.005
1100	-0.007
1100	-0.009
1100	-0.012
1101	-0.016
1101	-0.02
1102	-0.022
1102	-0.025
1102	-0.027
1103	-0.03
1103	-0.033
1104	-0.036
1104	-0.04
1104	-0.042
1105	-0.044
1105	-0.047
1106	-0.053
1106	-0.054
1107	-0.06
1107	-0.063
1107	-0.07
1108	-0.072
1108	-0.075
1109	-0.078
1109	-0.083
1109	-0.088
1110	-0.09
1110	-0.09
1111	-0.099
1111	-0.099
