Data from 17C_3.4A_35min_2sec_int_Absorbance__252__04337.txt Node

Date: Mon Jun 19 19:51:41 CEST 2023
User: Marek
Spectrometer: MAYP115816
Trigger mode: 0
Integration Time (sec): 2.500000E-1
Scans to average: 10
Electric dark correction enabled: true
Nonlinearity correction enabled: true
Boxcar width: 5
XAxis mode: Wavelengths
Number of Pixels in Spectrum: 2068
>>>>>Begin Spectral Data<<<<<
199	-0.747
199	-0.764
200	-0.673
200	-0.619
201	-0.579
201	-0.568
202	-0.552
202	-0.541
203	-0.533
203	-0.527
204	-0.514
204	-0.501
205	-0.477
205	-0.47
205	-0.467
206	-0.469
206	-0.471
207	-0.461
207	-0.46
208	-0.463
208	-0.462
209	-0.456
209	-0.456
210	-0.459
210	-0.465
211	-0.467
211	-0.471
212	-0.473
212	-0.483
213	-0.483
213	-0.482
213	-0.488
214	-0.485
214	-0.484
215	-0.485
215	-0.491
216	-0.493
216	-0.499
217	-0.495
217	-0.497
218	-0.5
218	-0.499
219	-0.503
219	-0.512
220	-0.517
220	-0.527
221	-0.525
221	-0.528
221	-0.521
222	-0.516
222	-0.518
223	-0.52
223	-0.524
224	-0.527
224	-0.528
225	-0.524
225	-0.518
226	-0.521
226	-0.521
227	-0.53
227	-0.54
228	-0.541
228	-0.543
229	-0.543
229	-0.536
229	-0.53
230	-0.534
230	-0.536
231	-0.532
231	-0.525
232	-0.518
232	-0.515
233	-0.507
233	-0.505
234	-0.506
234	-0.502
235	-0.506
235	-0.511
236	-0.51
236	-0.512
236	-0.517
237	-0.524
237	-0.526
238	-0.537
238	-0.537
239	-0.536
239	-0.546
240	-0.545
240	-0.542
241	-0.547
241	-0.547
242	-0.553
242	-0.548
243	-0.543
243	-0.543
243	-0.55
244	-0.551
244	-0.549
245	-0.564
245	-0.564
246	-0.57
246	-0.575
247	-0.577
247	-0.58
248	-0.587
248	-0.584
249	-0.587
249	-0.594
250	-0.592
250	-0.587
250	-0.588
251	-0.583
251	-0.583
252	-0.586
252	-0.578
253	-0.583
253	-0.595
254	-0.591
254	-0.589
255	-0.599
255	-0.591
256	-0.589
256	-0.602
257	-0.6
257	-0.596
258	-0.613
258	-0.606
258	-0.599
259	-0.598
259	-0.608
260	-0.607
260	-0.614
261	-0.627
261	-0.617
262	-0.614
262	-0.614
263	-0.604
263	-0.601
264	-0.602
264	-0.612
265	-0.604
265	-0.611
265	-0.614
266	-0.608
266	-0.606
267	-0.618
267	-0.628
268	-0.642
268	-0.651
269	-0.649
269	-0.642
270	-0.649
270	-0.653
271	-0.652
271	-0.657
272	-0.66
272	-0.653
272	-0.645
273	-0.644
273	-0.654
274	-0.659
274	-0.662
275	-0.661
275	-0.652
276	-0.66
276	-0.654
277	-0.662
277	-0.681
278	-0.692
278	-0.688
278	-0.679
279	-0.683
279	-0.693
280	-0.691
280	-0.692
281	-0.684
281	-0.69
282	-0.682
282	-0.68
283	-0.67
283	-0.672
284	-0.666
284	-0.656
285	-0.652
285	-0.65
285	-0.645
286	-0.653
286	-0.648
287	-0.645
287	-0.63
288	-0.625
288	-0.635
289	-0.646
289	-0.654
290	-0.644
290	-0.645
291	-0.642
291	-0.634
292	-0.638
292	-0.646
292	-0.65
293	-0.653
293	-0.64
294	-0.63
294	-0.622
295	-0.619
295	-0.616
296	-0.614
296	-0.612
297	-0.604
297	-0.586
298	-0.579
298	-0.586
298	-0.573
299	-0.567
299	-0.569
300	-0.563
300	-0.558
301	-0.555
301	-0.555
302	-0.56
302	-0.569
303	-0.555
303	-0.542
304	-0.546
304	-0.546
305	-0.548
305	-0.548
305	-0.547
306	-0.53
306	-0.523
307	-0.512
307	-0.511
308	-0.525
308	-0.523
309	-0.522
309	-0.512
310	-0.5
310	-0.496
311	-0.487
311	-0.495
311	-0.491
312	-0.488
312	-0.489
313	-0.474
313	-0.477
314	-0.475
314	-0.476
315	-0.474
315	-0.472
316	-0.467
316	-0.459
317	-0.453
317	-0.447
318	-0.436
318	-0.432
318	-0.427
319	-0.415
319	-0.411
320	-0.406
320	-0.409
321	-0.416
321	-0.414
322	-0.409
322	-0.403
323	-0.4
323	-0.394
324	-0.388
324	-0.38
324	-0.368
325	-0.358
325	-0.339
326	-0.321
326	-0.302
327	-0.283
327	-0.261
328	-0.234
328	-0.213
329	-0.188
329	-0.161
330	-0.131
330	-0.094
330	-0.061
331	-0.03
331	0.002
332	0.033
332	0.061
333	0.088
333	0.118
334	0.144
334	0.165
335	0.187
335	0.206
336	0.224
336	0.241
336	0.254
337	0.269
337	0.281
338	0.293
338	0.3
339	0.31
339	0.318
340	0.323
340	0.33
341	0.336
341	0.341
342	0.346
342	0.349
342	0.354
343	0.356
343	0.361
344	0.363
344	0.364
345	0.366
345	0.368
346	0.369
346	0.37
347	0.371
347	0.372
348	0.372
348	0.373
348	0.373
349	0.373
349	0.374
350	0.374
350	0.374
351	0.374
351	0.375
352	0.375
352	0.375
353	0.375
353	0.375
354	0.375
354	0.374
354	0.374
355	0.374
355	0.374
356	0.374
356	0.373
357	0.371
357	0.371
358	0.37
358	0.37
359	0.37
359	0.37
360	0.369
360	0.369
360	0.369
361	0.369
361	0.368
362	0.369
362	0.369
363	0.369
363	0.368
364	0.368
364	0.368
365	0.368
365	0.367
366	0.367
366	0.367
366	0.367
367	0.367
367	0.367
368	0.366
368	0.366
369	0.366
369	0.366
370	0.365
370	0.364
371	0.364
371	0.364
372	0.363
372	0.363
372	0.363
373	0.363
373	0.362
374	0.362
374	0.362
375	0.361
375	0.361
376	0.361
376	0.36
377	0.36
377	0.36
378	0.359
378	0.359
378	0.358
379	0.358
379	0.358
380	0.357
380	0.357
381	0.356
381	0.356
382	0.355
382	0.355
383	0.354
383	0.354
383	0.353
384	0.353
384	0.353
385	0.352
385	0.352
386	0.352
386	0.352
387	0.352
387	0.351
388	0.351
388	0.35
389	0.35
389	0.35
389	0.35
390	0.35
390	0.349
391	0.349
391	0.349
392	0.348
392	0.348
393	0.348
393	0.347
394	0.347
394	0.346
394	0.346
395	0.345
395	0.345
396	0.344
396	0.344
397	0.343
397	0.343
398	0.343
398	0.342
399	0.342
399	0.342
400	0.342
400	0.342
400	0.341
401	0.341
401	0.34
402	0.34
402	0.34
403	0.339
403	0.339
404	0.338
404	0.338
405	0.337
405	0.337
405	0.337
406	0.337
406	0.336
407	0.336
407	0.336
408	0.335
408	0.335
409	0.335
409	0.335
410	0.335
410	0.335
411	0.334
411	0.334
411	0.334
412	0.334
412	0.334
413	0.333
413	0.333
414	0.333
414	0.333
415	0.332
415	0.332
416	0.331
416	0.331
416	0.331
417	0.331
417	0.331
418	0.331
418	0.33
419	0.33
419	0.33
420	0.33
420	0.33
421	0.33
421	0.33
421	0.33
422	0.33
422	0.33
423	0.329
423	0.329
424	0.328
424	0.328
425	0.328
425	0.327
426	0.327
426	0.327
427	0.326
427	0.326
427	0.326
428	0.326
428	0.326
429	0.326
429	0.325
430	0.325
430	0.325
431	0.325
431	0.325
432	0.325
432	0.325
432	0.324
433	0.324
433	0.324
434	0.324
434	0.324
435	0.324
435	0.324
436	0.323
436	0.323
437	0.323
437	0.323
437	0.323
438	0.323
438	0.323
439	0.323
439	0.323
440	0.323
440	0.323
441	0.323
441	0.323
442	0.323
442	0.322
442	0.322
443	0.322
443	0.323
444	0.323
444	0.323
445	0.323
445	0.323
446	0.323
446	0.323
447	0.324
447	0.324
447	0.324
448	0.324
448	0.324
449	0.324
449	0.325
450	0.325
450	0.325
451	0.325
451	0.325
452	0.325
452	0.325
452	0.325
453	0.325
453	0.325
454	0.325
454	0.325
455	0.325
455	0.325
456	0.326
456	0.326
457	0.326
457	0.326
458	0.326
458	0.326
458	0.327
459	0.327
459	0.327
460	0.327
460	0.327
461	0.328
461	0.328
462	0.328
462	0.329
463	0.329
463	0.329
463	0.33
464	0.33
464	0.33
465	0.331
465	0.331
466	0.332
466	0.333
467	0.333
467	0.334
467	0.334
468	0.335
468	0.335
469	0.336
469	0.337
470	0.338
470	0.339
471	0.339
471	0.34
472	0.34
472	0.341
472	0.342
473	0.343
473	0.343
474	0.344
474	0.345
475	0.345
475	0.347
476	0.347
476	0.348
477	0.349
477	0.35
477	0.351
478	0.352
478	0.353
479	0.354
479	0.356
480	0.357
480	0.358
481	0.359
481	0.361
482	0.362
482	0.363
482	0.365
483	0.366
483	0.368
484	0.369
484	0.369
485	0.371
485	0.372
486	0.374
486	0.375
487	0.377
487	0.378
487	0.38
488	0.382
488	0.383
489	0.386
489	0.389
490	0.392
490	0.394
491	0.396
491	0.398
492	0.401
492	0.403
492	0.405
493	0.408
493	0.41
494	0.413
494	0.415
495	0.417
495	0.42
496	0.423
496	0.425
496	0.428
497	0.431
497	0.434
498	0.437
498	0.44
499	0.442
499	0.446
500	0.449
500	0.453
501	0.455
501	0.458
501	0.461
502	0.464
502	0.467
503	0.47
503	0.473
504	0.476
504	0.479
505	0.482
505	0.485
506	0.489
506	0.492
506	0.495
507	0.498
507	0.501
508	0.504
508	0.508
509	0.511
509	0.514
510	0.518
510	0.521
511	0.524
511	0.527
511	0.53
512	0.534
512	0.537
513	0.54
513	0.543
514	0.546
514	0.549
515	0.552
515	0.554
515	0.557
516	0.56
516	0.563
517	0.566
517	0.568
518	0.57
518	0.573
519	0.575
519	0.577
520	0.579
520	0.581
520	0.584
521	0.586
521	0.588
522	0.589
522	0.592
523	0.593
523	0.595
524	0.596
524	0.597
524	0.598
525	0.599
525	0.599
526	0.6
526	0.6
527	0.601
527	0.601
528	0.601
528	0.601
529	0.601
529	0.602
529	0.602
530	0.602
530	0.602
531	0.602
531	0.601
532	0.6
532	0.6
533	0.599
533	0.598
533	0.596
534	0.595
534	0.593
535	0.591
535	0.59
536	0.587
536	0.585
537	0.583
537	0.58
538	0.578
538	0.576
538	0.574
539	0.572
539	0.57
540	0.567
540	0.565
541	0.562
541	0.56
542	0.557
542	0.554
542	0.551
543	0.547
543	0.544
544	0.541
544	0.537
545	0.534
545	0.531
546	0.528
546	0.524
547	0.521
547	0.517
547	0.514
548	0.511
548	0.508
549	0.505
549	0.502
550	0.498
550	0.494
551	0.491
551	0.488
551	0.485
552	0.482
552	0.478
553	0.475
553	0.472
554	0.468
554	0.464
555	0.46
555	0.457
556	0.453
556	0.449
556	0.445
557	0.442
557	0.438
558	0.434
558	0.43
559	0.426
559	0.422
560	0.418
560	0.414
560	0.411
561	0.408
561	0.404
562	0.4
562	0.397
563	0.393
563	0.39
564	0.387
564	0.384
564	0.381
565	0.378
565	0.375
566	0.372
566	0.369
567	0.365
567	0.362
568	0.358
568	0.355
568	0.351
569	0.348
569	0.344
570	0.34
570	0.336
571	0.333
571	0.33
572	0.327
572	0.324
573	0.321
573	0.318
573	0.315
574	0.312
574	0.31
575	0.307
575	0.306
576	0.303
576	0.299
577	0.297
577	0.294
577	0.293
578	0.291
578	0.289
579	0.288
579	0.286
580	0.282
580	0.279
581	0.276
581	0.274
581	0.272
582	0.271
582	0.269
583	0.267
583	0.264
584	0.261
584	0.258
585	0.256
585	0.255
585	0.253
586	0.251
586	0.249
587	0.247
587	0.245
588	0.243
588	0.241
589	0.239
589	0.238
590	0.236
590	0.234
590	0.234
591	0.232
591	0.229
592	0.227
592	0.225
593	0.223
593	0.222
594	0.22
594	0.219
594	0.217
595	0.216
595	0.214
596	0.212
596	0.212
597	0.211
597	0.209
598	0.208
598	0.206
598	0.205
599	0.203
599	0.201
600	0.199
600	0.197
601	0.196
601	0.194
602	0.192
602	0.19
602	0.189
603	0.188
603	0.188
604	0.187
604	0.187
605	0.186
605	0.186
606	0.184
606	0.183
606	0.182
607	0.18
607	0.179
608	0.178
608	0.175
609	0.174
609	0.173
610	0.172
610	0.171
610	0.17
611	0.17
611	0.17
612	0.17
612	0.17
613	0.17
613	0.169
614	0.168
614	0.166
614	0.165
615	0.164
615	0.162
616	0.161
616	0.16
617	0.158
617	0.156
618	0.154
618	0.153
618	0.152
619	0.152
619	0.152
620	0.151
620	0.15
621	0.149
621	0.148
622	0.147
622	0.147
622	0.145
623	0.144
623	0.144
624	0.143
624	0.142
625	0.141
625	0.14
626	0.139
626	0.139
626	0.138
627	0.138
627	0.137
628	0.136
628	0.134
629	0.133
629	0.131
630	0.13
630	0.128
630	0.127
631	0.125
631	0.123
632	0.121
632	0.119
633	0.118
633	0.116
634	0.114
634	0.113
634	0.111
635	0.109
635	0.106
636	0.104
636	0.102
637	0.099
637	0.097
638	0.094
638	0.091
638	0.088
639	0.084
639	0.081
640	0.077
640	0.074
641	0.07
641	0.067
642	0.063
642	0.06
642	0.056
643	0.052
643	0.048
644	0.043
644	0.038
645	0.034
645	0.029
646	0.025
646	0.02
646	0.015
647	0.01
647	0.005
648	-0
648	-0.005
649	-0.011
649	-0.016
650	-0.021
650	-0.027
650	-0.034
651	-0.041
651	-0.051
652	-0.061
652	-0.072
653	-0.082
653	-0.091
653	-0.087
654	-0.074
654	-0.07
655	-0.074
655	-0.078
656	-0.082
656	-0.087
657	-0.09
657	-0.093
657	-0.098
658	-0.102
658	-0.125
659	-0.188
659	-0.26
660	-0.293
660	-0.314
661	-0.336
661	-0.36
661	-0.385
662	-0.41
662	-0.436
663	-0.466
663	-0.497
664	-0.53
664	-0.571
665	-0.61
665	-0.659
665	-0.703
666	-0.749
666	-0.8
667	-0.855
667	-0.911
668	-0.975
668	-1.042
669	-1.108
669	-1.175
669	-1.246
670	-1.306
670	-1.343
671	-1.538
671	-1.9
672	-2.155
672	-2.359
672	-2.497
673	-2.595
673	-2.679
674	-2.708
674	-2.725
675	-2.75
675	-2.891
676	-3.088
676	-3.034
676	-2.802
677	-2.586
677	-2.403
678	-2.183
678	-1.722
679	-1.472
679	-1.353
680	-1.269
680	-1.195
680	-1.134
681	-1.099
681	-1.05
682	-1.021
682	-0.991
683	-0.963
683	-0.955
684	-0.941
684	-0.928
684	-0.914
685	-0.898
685	-0.883
686	-0.865
686	-0.854
687	-0.833
687	-0.827
687	-0.812
688	-0.791
688	-0.776
689	-0.76
689	-0.749
690	-0.732
690	-0.725
691	-0.723
691	-0.73
691	-0.749
692	-0.743
692	-0.737
693	-0.736
693	-0.746
694	-0.743
694	-0.739
695	-0.748
695	-0.745
695	-0.731
696	-0.729
696	-0.709
697	-0.712
697	-0.73
698	-0.734
698	-0.723
698	-0.737
699	-0.741
699	-0.738
700	-0.731
700	-0.746
701	-0.747
701	-0.753
702	-0.753
702	-0.742
702	-0.736
703	-0.731
703	-0.723
704	-0.72
704	-0.72
705	-0.732
705	-0.725
705	-0.715
706	-0.715
706	-0.712
707	-0.715
707	-0.712
708	-0.712
708	-0.706
709	-0.711
709	-0.712
709	-0.706
710	-0.717
710	-0.728
711	-0.72
711	-0.72
712	-0.721
712	-0.733
713	-0.732
713	-0.736
713	-0.726
714	-0.726
714	-0.726
715	-0.716
715	-0.702
716	-0.712
716	-0.715
716	-0.709
717	-0.711
717	-0.714
718	-0.706
718	-0.708
719	-0.714
719	-0.715
720	-0.709
720	-0.719
720	-0.71
721	-0.7
721	-0.701
722	-0.686
722	-0.676
723	-0.673
723	-0.679
723	-0.666
724	-0.669
724	-0.674
725	-0.673
725	-0.682
726	-0.694
726	-0.698
727	-0.704
727	-0.72
727	-0.73
728	-0.73
728	-0.737
729	-0.738
729	-0.741
730	-0.75
730	-0.742
730	-0.732
731	-0.715
731	-0.725
732	-0.73
732	-0.73
733	-0.728
733	-0.734
734	-0.728
734	-0.73
734	-0.715
735	-0.716
735	-0.718
736	-0.728
736	-0.716
737	-0.706
737	-0.708
737	-0.718
738	-0.714
738	-0.713
739	-0.713
739	-0.726
740	-0.725
740	-0.724
741	-0.722
741	-0.723
741	-0.728
742	-0.725
742	-0.725
743	-0.731
743	-0.737
744	-0.732
744	-0.721
744	-0.722
745	-0.728
745	-0.72
746	-0.72
746	-0.716
747	-0.717
747	-0.706
748	-0.692
748	-0.695
748	-0.698
749	-0.698
749	-0.698
750	-0.688
750	-0.689
751	-0.691
751	-0.701
751	-0.704
752	-0.708
752	-0.719
753	-0.714
753	-0.71
754	-0.716
754	-0.712
754	-0.725
755	-0.743
755	-0.756
756	-0.746
756	-0.742
757	-0.739
757	-0.736
758	-0.74
758	-0.737
758	-0.74
759	-0.745
759	-0.73
760	-0.721
760	-0.715
761	-0.725
761	-0.723
761	-0.722
762	-0.728
762	-0.729
763	-0.738
763	-0.736
764	-0.733
764	-0.739
764	-0.745
765	-0.735
765	-0.721
766	-0.728
766	-0.737
767	-0.751
767	-0.743
768	-0.734
768	-0.741
768	-0.747
769	-0.764
769	-0.766
770	-0.771
770	-0.784
771	-0.782
771	-0.781
771	-0.783
772	-0.788
772	-0.786
773	-0.785
773	-0.782
774	-0.782
774	-0.784
775	-0.785
775	-0.778
775	-0.787
776	-0.788
776	-0.778
777	-0.785
777	-0.804
778	-0.801
778	-0.819
778	-0.804
779	-0.825
779	-0.835
780	-0.849
780	-0.848
781	-0.862
781	-0.856
781	-0.871
782	-0.871
782	-0.873
783	-0.861
783	-0.86
784	-0.839
784	-0.828
784	-0.838
785	-0.842
785	-0.827
786	-0.833
786	-0.813
787	-0.799
787	-0.801
788	-0.804
788	-0.814
788	-0.829
789	-0.83
789	-0.814
790	-0.795
790	-0.799
791	-0.8
791	-0.817
791	-0.826
792	-0.821
792	-0.797
793	-0.789
793	-0.765
794	-0.768
794	-0.761
794	-0.769
795	-0.765
795	-0.759
796	-0.744
796	-0.748
797	-0.742
797	-0.757
797	-0.762
798	-0.776
798	-0.771
799	-0.78
799	-0.767
800	-0.773
800	-0.763
801	-0.767
801	-0.754
801	-0.763
802	-0.769
802	-0.769
803	-0.77
803	-0.78
804	-0.774
804	-0.786
804	-0.774
805	-0.781
805	-0.771
806	-0.775
806	-0.76
807	-0.758
807	-0.739
807	-0.724
808	-0.716
808	-0.71
809	-0.697
809	-0.706
810	-0.703
810	-0.695
810	-0.691
811	-0.698
811	-0.69
812	-0.693
812	-0.699
813	-0.703
813	-0.697
813	-0.702
814	-0.703
814	-0.705
815	-0.712
815	-0.715
816	-0.708
816	-0.712
817	-0.719
817	-0.738
817	-0.751
818	-0.761
818	-0.76
819	-0.752
819	-0.754
820	-0.763
820	-0.761
820	-0.773
821	-0.771
821	-0.761
822	-0.727
822	-0.703
823	-0.698
823	-0.705
823	-0.701
824	-0.696
824	-0.697
825	-0.689
825	-0.669
826	-0.665
826	-0.671
826	-0.681
827	-0.676
827	-0.674
828	-0.652
828	-0.653
829	-0.644
829	-0.63
829	-0.624
830	-0.633
830	-0.631
831	-0.623
831	-0.613
832	-0.61
832	-0.602
832	-0.611
833	-0.606
833	-0.606
834	-0.604
834	-0.61
835	-0.6
835	-0.594
835	-0.588
836	-0.587
836	-0.585
837	-0.583
837	-0.573
838	-0.565
838	-0.553
839	-0.539
839	-0.529
839	-0.518
840	-0.507
840	-0.504
841	-0.493
841	-0.484
842	-0.478
842	-0.468
842	-0.459
843	-0.453
843	-0.45
844	-0.44
844	-0.434
845	-0.426
845	-0.418
845	-0.403
846	-0.393
846	-0.38
847	-0.37
847	-0.361
848	-0.35
848	-0.34
848	-0.326
849	-0.314
849	-0.303
850	-0.289
850	-0.285
851	-0.277
851	-0.267
851	-0.258
852	-0.244
852	-0.233
853	-0.224
853	-0.219
854	-0.209
854	-0.198
854	-0.189
855	-0.178
855	-0.173
856	-0.162
856	-0.154
857	-0.148
857	-0.139
857	-0.129
858	-0.12
858	-0.114
859	-0.106
859	-0.096
860	-0.088
860	-0.076
860	-0.068
861	-0.062
861	-0.053
862	-0.046
862	-0.04
863	-0.034
863	-0.026
863	-0.021
864	-0.017
864	-0.012
865	-0.007
865	-0.002
866	0.001
866	0.004
866	0.007
867	0.009
867	0.013
868	0.015
868	0.018
869	0.02
869	0.022
869	0.024
870	0.026
870	0.028
871	0.03
871	0.032
872	0.034
872	0.035
872	0.035
873	0.036
873	0.037
874	0.037
874	0.036
875	0.035
875	0.034
875	0.033
876	0.032
876	0.031
877	0.03
877	0.028
878	0.026
878	0.025
878	0.023
879	0.021
879	0.02
880	0.02
880	0.02
881	0.02
881	0.02
881	0.02
882	0.019
882	0.018
883	0.017
883	0.016
884	0.015
884	0.014
884	0.013
885	0.013
885	0.013
886	0.012
886	0.012
887	0.011
887	0.012
887	0.012
888	0.013
888	0.013
889	0.014
889	0.014
890	0.015
890	0.015
890	0.015
891	0.015
891	0.016
892	0.016
892	0.016
893	0.016
893	0.016
893	0.016
894	0.016
894	0.016
895	0.016
895	0.016
895	0.016
896	0.015
896	0.015
897	0.014
897	0.013
898	0.012
898	0.011
898	0.011
899	0.011
899	0.012
900	0.012
900	0.012
901	0.013
901	0.014
901	0.015
902	0.016
902	0.017
903	0.017
903	0.018
904	0.018
904	0.019
904	0.019
905	0.02
905	0.02
906	0.02
906	0.02
907	0.02
907	0.02
907	0.02
908	0.02
908	0.019
909	0.019
909	0.018
910	0.018
910	0.017
910	0.017
911	0.017
911	0.018
912	0.018
912	0.019
913	0.02
913	0.021
913	0.022
914	0.023
914	0.023
915	0.024
915	0.024
916	0.025
916	0.025
916	0.025
917	0.025
917	0.025
918	0.025
918	0.025
918	0.024
919	0.024
919	0.024
920	0.024
920	0.024
921	0.024
921	0.023
921	0.023
922	0.023
922	0.023
923	0.022
923	0.022
924	0.021
924	0.021
924	0.02
925	0.019
925	0.018
926	0.018
926	0.017
927	0.016
927	0.016
927	0.016
928	0.016
928	0.015
929	0.015
929	0.015
930	0.014
930	0.014
930	0.013
931	0.013
931	0.013
932	0.013
932	0.012
933	0.011
933	0.01
933	0.009
934	0.008
934	0.007
935	0.006
935	0.006
935	0.005
936	0.004
936	0.003
937	0.002
937	0.001
938	0.001
938	0.001
938	0.002
939	0.002
939	0.003
940	0.003
940	0.004
941	0.005
941	0.006
941	0.007
942	0.008
942	0.008
943	0.009
943	0.009
944	0.009
944	0.008
944	0.008
945	0.007
945	0.006
946	0.005
946	0.004
946	0.003
947	0.002
947	0.002
948	0.002
948	0.001
949	0.001
949	0.001
949	0.001
950	0.002
950	0.002
951	0.004
951	0.004
952	0.005
952	0.006
952	0.007
953	0.008
953	0.009
954	0.01
954	0.011
955	0.012
955	0.013
955	0.014
956	0.015
956	0.016
957	0.016
957	0.016
957	0.016
958	0.016
958	0.018
959	0.018
959	0.018
960	0.019
960	0.019
960	0.02
961	0.02
961	0.02
962	0.02
962	0.02
963	0.021
963	0.021
963	0.02
964	0.02
964	0.021
965	0.021
965	0.021
966	0.02
966	0.02
966	0.02
967	0.02
967	0.02
968	0.019
968	0.018
968	0.018
969	0.018
969	0.017
970	0.017
970	0.017
971	0.017
971	0.017
971	0.017
972	0.017
972	0.018
973	0.018
973	0.018
974	0.017
974	0.018
974	0.018
975	0.018
975	0.017
976	0.017
976	0.016
976	0.016
977	0.016
977	0.016
978	0.016
978	0.016
979	0.016
979	0.016
979	0.016
980	0.015
980	0.015
981	0.016
981	0.016
982	0.015
982	0.015
982	0.015
983	0.015
983	0.015
984	0.015
984	0.015
984	0.015
985	0.015
985	0.015
986	0.014
986	0.014
987	0.014
987	0.013
987	0.013
988	0.012
988	0.011
989	0.011
989	0.01
990	0.009
990	0.008
990	0.008
991	0.007
991	0.007
992	0.006
992	0.006
992	0.006
993	0.006
993	0.006
994	0.006
994	0.006
995	0.006
995	0.005
995	0.005
996	0.004
996	0.003
997	0.003
997	0.003
997	0.003
998	0.002
998	0.002
999	0.003
999	0.003
1000	0.004
1000	0.004
1000	0.004
1001	0.005
1001	0.005
1002	0.005
1002	0.005
1003	0.005
1003	0.005
1003	0.005
1004	0.004
1004	0.004
1005	0.003
1005	0.002
1005	0.001
1006	0
1006	-0.001
1007	-0.002
1007	-0.003
1008	-0.003
1008	-0.004
1008	-0.004
1009	-0.004
1009	-0.004
1010	-0.004
1010	-0.004
1010	-0.004
1011	-0.003
1011	-0.003
1012	-0.003
1012	-0.003
1013	-0.004
1013	-0.004
1013	-0.005
1014	-0.005
1014	-0.006
1015	-0.006
1015	-0.006
1016	-0.007
1016	-0.008
1016	-0.008
1017	-0.009
1017	-0.01
1018	-0.01
1018	-0.011
1018	-0.012
1019	-0.013
1019	-0.014
1020	-0.015
1020	-0.015
1021	-0.015
1021	-0.016
1021	-0.017
1022	-0.018
1022	-0.018
1023	-0.018
1023	-0.019
1023	-0.019
1024	-0.019
1024	-0.019
1025	-0.02
1025	-0.02
1026	-0.019
1026	-0.019
1026	-0.018
1027	-0.018
1027	-0.017
1028	-0.017
1028	-0.017
1028	-0.018
1029	-0.017
1029	-0.017
1030	-0.018
1030	-0.018
1031	-0.018
1031	-0.018
1031	-0.019
1032	-0.019
1032	-0.019
1033	-0.019
1033	-0.018
1033	-0.018
1034	-0.018
1034	-0.018
1035	-0.018
1035	-0.018
1036	-0.018
1036	-0.018
1036	-0.018
1037	-0.018
1037	-0.018
1038	-0.018
1038	-0.018
1039	-0.017
1039	-0.016
1039	-0.016
1040	-0.015
1040	-0.015
1041	-0.014
1041	-0.013
1041	-0.013
1042	-0.013
1042	-0.013
1043	-0.013
1043	-0.014
1044	-0.014
1044	-0.015
1044	-0.016
1045	-0.017
1045	-0.018
1046	-0.019
1046	-0.02
1046	-0.02
1047	-0.02
1047	-0.021
1048	-0.02
1048	-0.021
1049	-0.021
1049	-0.021
1049	-0.02
1050	-0.02
1050	-0.02
1051	-0.02
1051	-0.019
1051	-0.019
1052	-0.018
1052	-0.018
1053	-0.018
1053	-0.017
1053	-0.017
1054	-0.018
1054	-0.017
1055	-0.017
1055	-0.018
1056	-0.018
1056	-0.019
1056	-0.02
1057	-0.021
1057	-0.022
1058	-0.022
1058	-0.023
1058	-0.024
1059	-0.024
1059	-0.025
1060	-0.025
1060	-0.026
1061	-0.026
1061	-0.026
1061	-0.026
1062	-0.027
1062	-0.027
1063	-0.027
1063	-0.027
1063	-0.026
1064	-0.026
1064	-0.026
1065	-0.026
1065	-0.025
1066	-0.026
1066	-0.026
1066	-0.026
1067	-0.026
1067	-0.026
1068	-0.026
1068	-0.027
1068	-0.027
1069	-0.028
1069	-0.028
1070	-0.029
1070	-0.029
1071	-0.03
1071	-0.03
1071	-0.03
1072	-0.031
1072	-0.031
1073	-0.032
1073	-0.032
1073	-0.032
1074	-0.032
1074	-0.031
1075	-0.032
1075	-0.032
1076	-0.032
1076	-0.032
1076	-0.033
1077	-0.033
1077	-0.034
1078	-0.034
1078	-0.035
1078	-0.036
1079	-0.037
1079	-0.037
1080	-0.038
1080	-0.038
1080	-0.039
1081	-0.04
1081	-0.04
1082	-0.041
1082	-0.042
1083	-0.042
1083	-0.042
1083	-0.043
1084	-0.044
1084	-0.044
1085	-0.045
1085	-0.046
1085	-0.046
1086	-0.047
1086	-0.047
1087	-0.047
1087	-0.048
1088	-0.048
1088	-0.049
1088	-0.049
1089	-0.05
1089	-0.051
1090	-0.052
1090	-0.052
1090	-0.053
1091	-0.054
1091	-0.054
1092	-0.056
1092	-0.056
1092	-0.057
1093	-0.057
1093	-0.057
1094	-0.058
1094	-0.058
1095	-0.06
1095	-0.06
1095	-0.06
1096	-0.061
1096	-0.062
1097	-0.062
1097	-0.063
1097	-0.064
1098	-0.065
1098	-0.067
1099	-0.068
1099	-0.068
1100	-0.07
1100	-0.071
1100	-0.073
1101	-0.075
1101	-0.078
1102	-0.08
1102	-0.082
1102	-0.082
1103	-0.085
1103	-0.086
1104	-0.088
1104	-0.09
1104	-0.092
1105	-0.094
1105	-0.097
1106	-0.101
1106	-0.103
1107	-0.107
1107	-0.112
1107	-0.116
1108	-0.117
1108	-0.12
1109	-0.124
1109	-0.128
1109	-0.131
1110	-0.132
1110	-0.134
1111	-0.14
1111	-0.141
