Data from 17C_3.4A_35min_2sec_int_Absorbance__665__04750.txt Node

Date: Mon Jun 19 20:08:54 CEST 2023
User: Marek
Spectrometer: MAYP115816
Trigger mode: 0
Integration Time (sec): 2.500000E-1
Scans to average: 10
Electric dark correction enabled: true
Nonlinearity correction enabled: true
Boxcar width: 5
XAxis mode: Wavelengths
Number of Pixels in Spectrum: 2068
>>>>>Begin Spectral Data<<<<<
199	-0.786
199	-0.8
200	-0.702
200	-0.646
201	-0.607
201	-0.596
202	-0.58
202	-0.564
203	-0.556
203	-0.552
204	-0.536
204	-0.52
205	-0.495
205	-0.489
205	-0.487
206	-0.49
206	-0.492
207	-0.483
207	-0.486
208	-0.489
208	-0.488
209	-0.483
209	-0.484
210	-0.489
210	-0.496
211	-0.495
211	-0.498
212	-0.501
212	-0.508
213	-0.506
213	-0.505
213	-0.511
214	-0.509
214	-0.508
215	-0.508
215	-0.512
216	-0.518
216	-0.526
217	-0.521
217	-0.527
218	-0.53
218	-0.53
219	-0.534
219	-0.542
220	-0.547
220	-0.557
221	-0.556
221	-0.559
221	-0.551
222	-0.547
222	-0.547
223	-0.55
223	-0.555
224	-0.558
224	-0.558
225	-0.553
225	-0.548
226	-0.553
226	-0.553
227	-0.555
227	-0.565
228	-0.565
228	-0.566
229	-0.566
229	-0.561
229	-0.554
230	-0.558
230	-0.561
231	-0.554
231	-0.546
232	-0.544
232	-0.541
233	-0.536
233	-0.535
234	-0.534
234	-0.529
235	-0.534
235	-0.541
236	-0.539
236	-0.543
236	-0.55
237	-0.556
237	-0.558
238	-0.567
238	-0.565
239	-0.565
239	-0.575
240	-0.575
240	-0.572
241	-0.576
241	-0.576
242	-0.582
242	-0.578
243	-0.573
243	-0.575
243	-0.584
244	-0.583
244	-0.584
245	-0.598
245	-0.598
246	-0.603
246	-0.609
247	-0.608
247	-0.61
248	-0.617
248	-0.613
249	-0.614
249	-0.625
250	-0.621
250	-0.616
250	-0.615
251	-0.61
251	-0.611
252	-0.614
252	-0.604
253	-0.607
253	-0.62
254	-0.618
254	-0.613
255	-0.622
255	-0.616
256	-0.615
256	-0.626
257	-0.623
257	-0.621
258	-0.64
258	-0.637
258	-0.632
259	-0.63
259	-0.64
260	-0.642
260	-0.649
261	-0.659
261	-0.649
262	-0.647
262	-0.647
263	-0.635
263	-0.631
264	-0.632
264	-0.642
265	-0.638
265	-0.645
265	-0.648
266	-0.643
266	-0.642
267	-0.655
267	-0.663
268	-0.678
268	-0.689
269	-0.687
269	-0.681
270	-0.685
270	-0.687
271	-0.684
271	-0.692
272	-0.696
272	-0.688
272	-0.683
273	-0.682
273	-0.69
274	-0.694
274	-0.696
275	-0.695
275	-0.689
276	-0.696
276	-0.688
277	-0.693
277	-0.714
278	-0.724
278	-0.718
278	-0.71
279	-0.715
279	-0.728
280	-0.727
280	-0.727
281	-0.722
281	-0.729
282	-0.72
282	-0.72
283	-0.708
283	-0.709
284	-0.705
284	-0.692
285	-0.687
285	-0.685
285	-0.678
286	-0.685
286	-0.679
287	-0.676
287	-0.661
288	-0.656
288	-0.664
289	-0.678
289	-0.688
290	-0.677
290	-0.675
291	-0.676
291	-0.669
292	-0.671
292	-0.679
292	-0.683
293	-0.688
293	-0.678
294	-0.666
294	-0.656
295	-0.654
295	-0.652
296	-0.648
296	-0.647
297	-0.641
297	-0.626
298	-0.618
298	-0.625
298	-0.614
299	-0.605
299	-0.608
300	-0.603
300	-0.598
301	-0.594
301	-0.593
302	-0.601
302	-0.609
303	-0.595
303	-0.581
304	-0.583
304	-0.583
305	-0.586
305	-0.584
305	-0.583
306	-0.568
306	-0.561
307	-0.548
307	-0.549
308	-0.565
308	-0.563
309	-0.567
309	-0.555
310	-0.54
310	-0.539
311	-0.529
311	-0.54
311	-0.536
312	-0.53
312	-0.529
313	-0.514
313	-0.517
314	-0.513
314	-0.517
315	-0.518
315	-0.515
316	-0.511
316	-0.502
317	-0.495
317	-0.491
318	-0.479
318	-0.475
318	-0.469
319	-0.46
319	-0.456
320	-0.451
320	-0.453
321	-0.458
321	-0.457
322	-0.451
322	-0.445
323	-0.446
323	-0.441
324	-0.431
324	-0.422
324	-0.411
325	-0.4
325	-0.382
326	-0.37
326	-0.35
327	-0.334
327	-0.314
328	-0.286
328	-0.264
329	-0.24
329	-0.215
330	-0.186
330	-0.151
330	-0.121
331	-0.088
331	-0.061
332	-0.035
332	-0.009
333	0.015
333	0.042
334	0.063
334	0.083
335	0.102
335	0.118
336	0.134
336	0.149
336	0.163
337	0.177
337	0.187
338	0.196
338	0.203
339	0.212
339	0.218
340	0.224
340	0.229
341	0.233
341	0.237
342	0.241
342	0.245
342	0.248
343	0.25
343	0.254
344	0.256
344	0.257
345	0.259
345	0.26
346	0.261
346	0.262
347	0.262
347	0.263
348	0.264
348	0.264
348	0.265
349	0.265
349	0.265
350	0.265
350	0.265
351	0.266
351	0.266
352	0.266
352	0.266
353	0.266
353	0.266
354	0.266
354	0.266
354	0.266
355	0.266
355	0.266
356	0.266
356	0.266
357	0.265
357	0.264
358	0.264
358	0.264
359	0.264
359	0.264
360	0.264
360	0.264
360	0.264
361	0.263
361	0.263
362	0.263
362	0.263
363	0.263
363	0.263
364	0.263
364	0.263
365	0.262
365	0.262
366	0.262
366	0.262
366	0.262
367	0.263
367	0.263
368	0.262
368	0.262
369	0.262
369	0.262
370	0.262
370	0.261
371	0.261
371	0.261
372	0.261
372	0.261
372	0.261
373	0.261
373	0.261
374	0.261
374	0.261
375	0.26
375	0.26
376	0.26
376	0.26
377	0.26
377	0.26
378	0.259
378	0.259
378	0.259
379	0.259
379	0.259
380	0.259
380	0.259
381	0.259
381	0.258
382	0.258
382	0.258
383	0.258
383	0.258
383	0.258
384	0.258
384	0.258
385	0.257
385	0.257
386	0.257
386	0.257
387	0.257
387	0.257
388	0.256
388	0.256
389	0.256
389	0.256
389	0.256
390	0.256
390	0.256
391	0.256
391	0.256
392	0.256
392	0.256
393	0.256
393	0.255
394	0.255
394	0.255
394	0.254
395	0.254
395	0.253
396	0.253
396	0.253
397	0.252
397	0.252
398	0.252
398	0.252
399	0.252
399	0.252
400	0.252
400	0.252
400	0.252
401	0.252
401	0.252
402	0.252
402	0.251
403	0.251
403	0.251
404	0.251
404	0.25
405	0.25
405	0.25
405	0.25
406	0.25
406	0.25
407	0.249
407	0.249
408	0.249
408	0.249
409	0.249
409	0.249
410	0.249
410	0.249
411	0.249
411	0.249
411	0.249
412	0.249
412	0.248
413	0.248
413	0.248
414	0.248
414	0.248
415	0.247
415	0.247
416	0.247
416	0.247
416	0.246
417	0.246
417	0.246
418	0.246
418	0.246
419	0.247
419	0.247
420	0.247
420	0.247
421	0.247
421	0.247
421	0.247
422	0.247
422	0.247
423	0.247
423	0.246
424	0.246
424	0.246
425	0.246
425	0.245
426	0.245
426	0.245
427	0.245
427	0.244
427	0.244
428	0.244
428	0.244
429	0.244
429	0.244
430	0.244
430	0.243
431	0.243
431	0.243
432	0.243
432	0.243
432	0.242
433	0.242
433	0.242
434	0.242
434	0.242
435	0.242
435	0.242
436	0.242
436	0.242
437	0.242
437	0.242
437	0.242
438	0.242
438	0.242
439	0.242
439	0.242
440	0.242
440	0.242
441	0.242
441	0.242
442	0.242
442	0.241
442	0.241
443	0.241
443	0.241
444	0.241
444	0.241
445	0.241
445	0.24
446	0.24
446	0.24
447	0.24
447	0.24
447	0.241
448	0.241
448	0.241
449	0.241
449	0.241
450	0.241
450	0.241
451	0.241
451	0.241
452	0.241
452	0.241
452	0.241
453	0.241
453	0.24
454	0.24
454	0.239
455	0.239
455	0.239
456	0.239
456	0.239
457	0.238
457	0.239
458	0.239
458	0.239
458	0.239
459	0.24
459	0.24
460	0.24
460	0.24
461	0.24
461	0.241
462	0.241
462	0.241
463	0.241
463	0.241
463	0.241
464	0.24
464	0.24
465	0.24
465	0.24
466	0.24
466	0.24
467	0.24
467	0.24
467	0.24
468	0.24
468	0.241
469	0.241
469	0.241
470	0.242
470	0.242
471	0.242
471	0.242
472	0.242
472	0.242
472	0.242
473	0.243
473	0.243
474	0.243
474	0.243
475	0.244
475	0.244
476	0.245
476	0.245
477	0.245
477	0.246
477	0.246
478	0.247
478	0.247
479	0.248
479	0.248
480	0.249
480	0.249
481	0.25
481	0.25
482	0.25
482	0.251
482	0.251
483	0.251
483	0.252
484	0.252
484	0.252
485	0.252
485	0.252
486	0.253
486	0.253
487	0.254
487	0.254
487	0.255
488	0.256
488	0.256
489	0.258
489	0.26
490	0.261
490	0.262
491	0.263
491	0.264
492	0.266
492	0.267
492	0.268
493	0.269
493	0.27
494	0.272
494	0.273
495	0.274
495	0.275
496	0.277
496	0.278
496	0.279
497	0.281
497	0.283
498	0.284
498	0.285
499	0.286
499	0.287
500	0.289
500	0.29
501	0.291
501	0.292
501	0.293
502	0.294
502	0.295
503	0.296
503	0.298
504	0.299
504	0.301
505	0.302
505	0.304
506	0.306
506	0.307
506	0.309
507	0.311
507	0.313
508	0.315
508	0.316
509	0.318
509	0.32
510	0.322
510	0.323
511	0.325
511	0.326
511	0.327
512	0.329
512	0.33
513	0.331
513	0.332
514	0.333
514	0.335
515	0.336
515	0.337
515	0.339
516	0.34
516	0.342
517	0.344
517	0.346
518	0.348
518	0.349
519	0.351
519	0.353
520	0.355
520	0.357
520	0.359
521	0.361
521	0.363
522	0.365
522	0.367
523	0.368
523	0.37
524	0.371
524	0.373
524	0.374
525	0.375
525	0.376
526	0.377
526	0.378
527	0.379
527	0.38
528	0.381
528	0.382
529	0.383
529	0.384
529	0.385
530	0.386
530	0.387
531	0.387
531	0.388
532	0.388
532	0.389
533	0.39
533	0.39
533	0.391
534	0.391
534	0.391
535	0.392
535	0.393
536	0.393
536	0.393
537	0.393
537	0.393
538	0.393
538	0.393
538	0.393
539	0.394
539	0.394
540	0.393
540	0.393
541	0.393
541	0.393
542	0.393
542	0.393
542	0.393
543	0.393
543	0.392
544	0.392
544	0.391
545	0.391
545	0.391
546	0.392
546	0.391
547	0.39
547	0.39
547	0.39
548	0.39
548	0.389
549	0.389
549	0.389
550	0.388
550	0.388
551	0.387
551	0.387
551	0.387
552	0.386
552	0.386
553	0.385
553	0.384
554	0.383
554	0.382
555	0.381
555	0.38
556	0.38
556	0.379
556	0.378
557	0.378
557	0.377
558	0.376
558	0.375
559	0.374
559	0.373
560	0.372
560	0.371
560	0.37
561	0.369
561	0.368
562	0.366
562	0.365
563	0.364
563	0.363
564	0.362
564	0.361
564	0.36
565	0.359
565	0.358
566	0.357
566	0.356
567	0.355
567	0.354
568	0.353
568	0.352
568	0.35
569	0.349
569	0.348
570	0.346
570	0.344
571	0.343
571	0.342
572	0.341
572	0.339
573	0.338
573	0.336
573	0.335
574	0.334
574	0.333
575	0.332
575	0.332
576	0.331
576	0.329
577	0.327
577	0.326
577	0.326
578	0.325
578	0.324
579	0.324
579	0.323
580	0.32
580	0.318
581	0.316
581	0.315
581	0.314
582	0.314
582	0.313
583	0.312
583	0.311
584	0.309
584	0.308
585	0.308
585	0.308
585	0.308
586	0.308
586	0.307
587	0.306
587	0.306
588	0.305
588	0.304
589	0.304
589	0.304
590	0.303
590	0.303
590	0.303
591	0.302
591	0.301
592	0.3
592	0.299
593	0.298
593	0.298
594	0.297
594	0.297
594	0.297
595	0.297
595	0.296
596	0.296
596	0.297
597	0.299
597	0.298
598	0.297
598	0.297
598	0.296
599	0.295
599	0.294
600	0.292
600	0.291
601	0.29
601	0.289
602	0.287
602	0.286
602	0.285
603	0.285
603	0.284
604	0.284
604	0.284
605	0.284
605	0.283
606	0.282
606	0.281
606	0.28
607	0.279
607	0.279
608	0.278
608	0.277
609	0.276
609	0.277
610	0.276
610	0.276
610	0.277
611	0.278
611	0.278
612	0.279
612	0.279
613	0.279
613	0.279
614	0.277
614	0.276
614	0.275
615	0.274
615	0.273
616	0.273
616	0.271
617	0.27
617	0.269
618	0.269
618	0.268
618	0.268
619	0.269
619	0.269
620	0.27
620	0.27
621	0.27
621	0.27
622	0.27
622	0.27
622	0.27
623	0.27
623	0.27
624	0.27
624	0.269
625	0.269
625	0.269
626	0.268
626	0.268
626	0.268
627	0.268
627	0.268
628	0.268
628	0.268
629	0.267
629	0.267
630	0.266
630	0.266
630	0.267
631	0.267
631	0.266
632	0.265
632	0.265
633	0.265
633	0.265
634	0.264
634	0.264
634	0.263
635	0.262
635	0.261
636	0.26
636	0.259
637	0.258
637	0.257
638	0.257
638	0.256
638	0.256
639	0.255
639	0.255
640	0.255
640	0.254
641	0.254
641	0.254
642	0.254
642	0.253
642	0.252
643	0.251
643	0.25
644	0.25
644	0.248
645	0.247
645	0.245
646	0.244
646	0.242
646	0.24
647	0.238
647	0.236
648	0.233
648	0.231
649	0.227
649	0.223
650	0.22
650	0.215
650	0.209
651	0.203
651	0.196
652	0.188
652	0.179
653	0.172
653	0.163
653	0.163
654	0.162
654	0.155
655	0.148
655	0.142
656	0.134
656	0.126
657	0.12
657	0.115
657	0.106
658	0.101
658	0.08
659	0.029
659	-0.024
660	-0.056
660	-0.077
661	-0.096
661	-0.119
661	-0.139
662	-0.156
662	-0.172
663	-0.188
663	-0.206
664	-0.218
664	-0.24
665	-0.252
665	-0.269
665	-0.281
666	-0.287
666	-0.298
667	-0.307
667	-0.313
668	-0.324
668	-0.342
669	-0.351
669	-0.342
669	-0.311
670	-0.122
670	-0
671	-0
671	-0
672	-0
672	-0
672	-0
673	-0
673	-0
674	-0
674	-0
675	-0
675	-0
676	-0
676	-0
676	-0.12
677	-0.492
677	-0.517
678	-0.531
678	-0.53
679	-0.531
679	-0.544
680	-0.561
680	-0.562
680	-0.564
681	-0.584
681	-0.582
682	-0.597
682	-0.598
683	-0.598
683	-0.622
684	-0.637
684	-0.648
684	-0.653
685	-0.659
685	-0.662
686	-0.656
686	-0.661
687	-0.656
687	-0.666
687	-0.664
688	-0.652
688	-0.648
689	-0.641
689	-0.638
690	-0.627
690	-0.625
691	-0.629
691	-0.64
691	-0.663
692	-0.661
692	-0.659
693	-0.662
693	-0.676
694	-0.676
694	-0.675
695	-0.685
695	-0.689
695	-0.679
696	-0.681
696	-0.66
697	-0.662
697	-0.683
698	-0.688
698	-0.681
698	-0.699
699	-0.704
699	-0.705
700	-0.698
700	-0.715
701	-0.716
701	-0.728
702	-0.73
702	-0.72
702	-0.716
703	-0.71
703	-0.703
704	-0.702
704	-0.703
705	-0.716
705	-0.709
705	-0.697
706	-0.698
706	-0.696
707	-0.702
707	-0.698
708	-0.697
708	-0.69
709	-0.693
709	-0.697
709	-0.69
710	-0.701
710	-0.712
711	-0.704
711	-0.707
712	-0.705
712	-0.721
713	-0.722
713	-0.73
713	-0.722
714	-0.719
714	-0.72
715	-0.711
715	-0.7
716	-0.708
716	-0.708
716	-0.701
717	-0.701
717	-0.703
718	-0.694
718	-0.695
719	-0.702
719	-0.705
720	-0.702
720	-0.71
720	-0.706
721	-0.697
721	-0.699
722	-0.689
722	-0.679
723	-0.679
723	-0.685
723	-0.674
724	-0.678
724	-0.684
725	-0.684
725	-0.693
726	-0.707
726	-0.711
727	-0.717
727	-0.733
727	-0.74
728	-0.74
728	-0.745
729	-0.745
729	-0.75
730	-0.757
730	-0.749
730	-0.74
731	-0.723
731	-0.734
732	-0.741
732	-0.741
733	-0.739
733	-0.748
734	-0.741
734	-0.742
734	-0.727
735	-0.727
735	-0.729
736	-0.742
736	-0.727
737	-0.717
737	-0.718
737	-0.731
738	-0.726
738	-0.727
739	-0.725
739	-0.741
740	-0.739
740	-0.737
741	-0.732
741	-0.735
741	-0.74
742	-0.738
742	-0.738
743	-0.746
743	-0.751
744	-0.749
744	-0.739
744	-0.739
745	-0.746
745	-0.74
746	-0.738
746	-0.733
747	-0.736
747	-0.724
748	-0.711
748	-0.715
748	-0.715
749	-0.714
749	-0.715
750	-0.705
750	-0.707
751	-0.711
751	-0.721
751	-0.724
752	-0.728
752	-0.737
753	-0.733
753	-0.729
754	-0.735
754	-0.729
754	-0.743
755	-0.757
755	-0.769
756	-0.758
756	-0.754
757	-0.752
757	-0.748
758	-0.751
758	-0.749
758	-0.752
759	-0.761
759	-0.745
760	-0.739
760	-0.733
761	-0.745
761	-0.742
761	-0.742
762	-0.75
762	-0.748
763	-0.759
763	-0.756
764	-0.753
764	-0.759
764	-0.766
765	-0.756
765	-0.742
766	-0.749
766	-0.755
767	-0.77
767	-0.764
768	-0.755
768	-0.763
768	-0.768
769	-0.785
769	-0.784
770	-0.788
770	-0.801
771	-0.797
771	-0.799
771	-0.801
772	-0.804
772	-0.804
773	-0.804
773	-0.801
774	-0.802
774	-0.803
775	-0.805
775	-0.802
775	-0.811
776	-0.81
776	-0.797
777	-0.807
777	-0.826
778	-0.822
778	-0.841
778	-0.826
779	-0.848
779	-0.854
780	-0.867
780	-0.865
781	-0.878
781	-0.872
781	-0.887
782	-0.885
782	-0.886
783	-0.87
783	-0.868
784	-0.849
784	-0.84
784	-0.849
785	-0.855
785	-0.841
786	-0.852
786	-0.831
787	-0.82
787	-0.822
788	-0.829
788	-0.843
788	-0.856
789	-0.858
789	-0.843
790	-0.825
790	-0.827
791	-0.824
791	-0.84
791	-0.846
792	-0.841
792	-0.817
793	-0.806
793	-0.782
794	-0.787
794	-0.778
794	-0.788
795	-0.783
795	-0.777
796	-0.762
796	-0.769
797	-0.763
797	-0.777
797	-0.781
798	-0.797
798	-0.79
799	-0.799
799	-0.784
800	-0.791
800	-0.785
801	-0.79
801	-0.776
801	-0.788
802	-0.795
802	-0.796
803	-0.794
803	-0.803
804	-0.798
804	-0.81
804	-0.797
805	-0.802
805	-0.79
806	-0.794
806	-0.778
807	-0.775
807	-0.757
807	-0.745
808	-0.736
808	-0.73
809	-0.715
809	-0.722
810	-0.718
810	-0.711
810	-0.706
811	-0.712
811	-0.705
812	-0.707
812	-0.711
813	-0.716
813	-0.713
813	-0.718
814	-0.721
814	-0.726
815	-0.731
815	-0.734
816	-0.728
816	-0.733
817	-0.74
817	-0.759
817	-0.775
818	-0.782
818	-0.784
819	-0.775
819	-0.775
820	-0.785
820	-0.782
820	-0.793
821	-0.79
821	-0.777
822	-0.744
822	-0.717
823	-0.716
823	-0.721
823	-0.719
824	-0.714
824	-0.718
825	-0.709
825	-0.689
826	-0.684
826	-0.692
826	-0.702
827	-0.697
827	-0.69
828	-0.67
828	-0.672
829	-0.661
829	-0.646
829	-0.641
830	-0.65
830	-0.649
831	-0.641
831	-0.632
832	-0.631
832	-0.626
832	-0.632
833	-0.624
833	-0.626
834	-0.623
834	-0.63
835	-0.618
835	-0.609
835	-0.605
836	-0.602
836	-0.598
837	-0.596
837	-0.586
838	-0.579
838	-0.566
839	-0.554
839	-0.541
839	-0.532
840	-0.523
840	-0.52
841	-0.509
841	-0.5
842	-0.492
842	-0.481
842	-0.474
843	-0.468
843	-0.461
844	-0.452
844	-0.444
845	-0.433
845	-0.422
845	-0.407
846	-0.398
846	-0.383
847	-0.371
847	-0.357
848	-0.344
848	-0.332
848	-0.315
849	-0.303
849	-0.292
850	-0.277
850	-0.272
851	-0.261
851	-0.25
851	-0.24
852	-0.225
852	-0.212
853	-0.202
853	-0.196
854	-0.183
854	-0.171
854	-0.159
855	-0.145
855	-0.137
856	-0.124
856	-0.116
857	-0.108
857	-0.099
857	-0.086
858	-0.074
858	-0.066
859	-0.056
859	-0.044
860	-0.033
860	-0.019
860	-0.011
861	-0.002
861	0.007
862	0.016
862	0.023
863	0.03
863	0.039
863	0.045
864	0.049
864	0.056
865	0.062
865	0.068
866	0.074
866	0.079
866	0.084
867	0.089
867	0.095
868	0.099
868	0.103
869	0.108
869	0.111
869	0.113
870	0.116
870	0.119
871	0.122
871	0.124
872	0.125
872	0.125
872	0.126
873	0.126
873	0.125
874	0.124
874	0.124
875	0.123
875	0.122
875	0.121
876	0.12
876	0.119
877	0.118
877	0.117
878	0.116
878	0.115
878	0.115
879	0.114
879	0.114
880	0.114
880	0.114
881	0.113
881	0.113
881	0.112
882	0.112
882	0.111
883	0.11
883	0.109
884	0.108
884	0.107
884	0.106
885	0.105
885	0.104
886	0.103
886	0.102
887	0.101
887	0.1
887	0.099
888	0.099
888	0.099
889	0.099
889	0.099
890	0.098
890	0.097
890	0.096
891	0.096
891	0.095
892	0.096
892	0.096
893	0.095
893	0.096
893	0.096
894	0.096
894	0.096
895	0.096
895	0.096
895	0.096
896	0.096
896	0.095
897	0.094
897	0.093
898	0.092
898	0.091
898	0.091
899	0.091
899	0.091
900	0.091
900	0.091
901	0.091
901	0.092
901	0.093
902	0.094
902	0.095
903	0.095
903	0.096
904	0.097
904	0.098
904	0.099
905	0.099
905	0.1
906	0.101
906	0.102
907	0.103
907	0.103
907	0.104
908	0.105
908	0.105
909	0.106
909	0.106
910	0.106
910	0.106
910	0.106
911	0.106
911	0.105
912	0.105
912	0.105
913	0.104
913	0.104
913	0.103
914	0.102
914	0.101
915	0.1
915	0.1
916	0.099
916	0.098
916	0.097
917	0.096
917	0.096
918	0.096
918	0.095
918	0.095
919	0.095
919	0.095
920	0.095
920	0.095
921	0.095
921	0.095
921	0.095
922	0.095
922	0.095
923	0.095
923	0.095
924	0.095
924	0.095
924	0.095
925	0.095
925	0.094
926	0.094
926	0.093
927	0.093
927	0.092
927	0.091
928	0.09
928	0.089
929	0.088
929	0.088
930	0.087
930	0.086
930	0.085
931	0.084
931	0.084
932	0.083
932	0.082
933	0.082
933	0.081
933	0.08
934	0.078
934	0.077
935	0.076
935	0.075
935	0.074
936	0.073
936	0.071
937	0.07
937	0.07
938	0.07
938	0.07
938	0.07
939	0.071
939	0.072
940	0.073
940	0.073
941	0.074
941	0.074
941	0.075
942	0.075
942	0.075
943	0.075
943	0.074
944	0.073
944	0.073
944	0.072
945	0.071
945	0.07
946	0.07
946	0.068
946	0.068
947	0.068
947	0.068
948	0.068
948	0.068
949	0.067
949	0.068
949	0.067
950	0.067
950	0.067
951	0.067
951	0.066
952	0.065
952	0.065
952	0.064
953	0.064
953	0.064
954	0.063
954	0.062
955	0.063
955	0.063
955	0.063
956	0.063
956	0.064
957	0.064
957	0.064
957	0.064
958	0.064
958	0.065
959	0.065
959	0.065
960	0.066
960	0.066
960	0.066
961	0.066
961	0.067
962	0.067
962	0.068
963	0.068
963	0.068
963	0.068
964	0.068
964	0.068
965	0.069
965	0.069
966	0.069
966	0.069
966	0.069
967	0.069
967	0.069
968	0.07
968	0.07
968	0.071
969	0.072
969	0.072
970	0.074
970	0.075
971	0.076
971	0.077
971	0.078
972	0.079
972	0.08
973	0.081
973	0.08
974	0.08
974	0.08
974	0.079
975	0.079
975	0.078
976	0.076
976	0.075
976	0.074
977	0.073
977	0.072
978	0.071
978	0.07
979	0.068
979	0.067
979	0.067
980	0.066
980	0.065
981	0.065
981	0.064
982	0.064
982	0.063
982	0.062
983	0.061
983	0.061
984	0.06
984	0.06
984	0.059
985	0.059
985	0.059
986	0.059
986	0.059
987	0.059
987	0.059
987	0.059
988	0.059
988	0.058
989	0.058
989	0.057
990	0.056
990	0.055
990	0.055
991	0.054
991	0.054
992	0.054
992	0.053
992	0.053
993	0.054
993	0.054
994	0.055
994	0.055
995	0.056
995	0.056
995	0.057
996	0.057
996	0.057
997	0.058
997	0.058
997	0.059
998	0.06
998	0.06
999	0.06
999	0.061
1000	0.061
1000	0.061
1000	0.061
1001	0.061
1001	0.061
1002	0.061
1002	0.061
1003	0.06
1003	0.06
1003	0.058
1004	0.057
1004	0.056
1005	0.054
1005	0.053
1005	0.051
1006	0.05
1006	0.049
1007	0.047
1007	0.046
1008	0.046
1008	0.045
1008	0.045
1009	0.045
1009	0.046
1010	0.046
1010	0.047
1010	0.047
1011	0.048
1011	0.048
1012	0.047
1012	0.047
1013	0.046
1013	0.046
1013	0.046
1014	0.045
1014	0.045
1015	0.045
1015	0.045
1016	0.045
1016	0.046
1016	0.046
1017	0.047
1017	0.047
1018	0.048
1018	0.048
1018	0.048
1019	0.048
1019	0.047
1020	0.047
1020	0.046
1021	0.046
1021	0.045
1021	0.044
1022	0.043
1022	0.043
1023	0.043
1023	0.042
1023	0.042
1024	0.042
1024	0.042
1025	0.042
1025	0.042
1026	0.042
1026	0.043
1026	0.043
1027	0.043
1027	0.043
1028	0.043
1028	0.043
1028	0.044
1029	0.044
1029	0.044
1030	0.044
1030	0.045
1031	0.045
1031	0.046
1031	0.046
1032	0.046
1032	0.047
1033	0.047
1033	0.048
1033	0.048
1034	0.048
1034	0.048
1035	0.048
1035	0.048
1036	0.048
1036	0.048
1036	0.048
1037	0.047
1037	0.047
1038	0.047
1038	0.047
1039	0.047
1039	0.047
1039	0.047
1040	0.048
1040	0.048
1041	0.049
1041	0.049
1041	0.049
1042	0.05
1042	0.05
1043	0.05
1043	0.05
1044	0.05
1044	0.049
1044	0.049
1045	0.049
1045	0.049
1046	0.048
1046	0.048
1046	0.049
1047	0.049
1047	0.049
1048	0.049
1048	0.05
1049	0.05
1049	0.05
1049	0.05
1050	0.049
1050	0.049
1051	0.049
1051	0.049
1051	0.049
1052	0.049
1052	0.048
1053	0.048
1053	0.047
1053	0.046
1054	0.045
1054	0.044
1055	0.043
1055	0.042
1056	0.041
1056	0.039
1056	0.037
1057	0.036
1057	0.035
1058	0.034
1058	0.033
1058	0.033
1059	0.032
1059	0.031
1060	0.03
1060	0.03
1061	0.03
1061	0.03
1061	0.03
1062	0.029
1062	0.029
1063	0.029
1063	0.029
1063	0.029
1064	0.03
1064	0.029
1065	0.029
1065	0.029
1066	0.028
1066	0.029
1066	0.029
1067	0.029
1067	0.029
1068	0.029
1068	0.029
1068	0.028
1069	0.029
1069	0.028
1070	0.029
1070	0.029
1071	0.029
1071	0.029
1071	0.029
1072	0.029
1072	0.029
1073	0.028
1073	0.029
1073	0.029
1074	0.029
1074	0.03
1075	0.029
1075	0.029
1076	0.028
1076	0.028
1076	0.027
1077	0.027
1077	0.026
1078	0.025
1078	0.024
1078	0.023
1079	0.022
1079	0.021
1080	0.02
1080	0.019
1080	0.017
1081	0.017
1081	0.016
1082	0.015
1082	0.013
1083	0.012
1083	0.011
1083	0.009
1084	0.008
1084	0.006
1085	0.005
1085	0.004
1085	0.003
1086	0.002
1086	0
1087	-0
1087	-0
1088	-0.002
1088	-0.002
1088	-0.003
1089	-0.004
1089	-0.005
1090	-0.006
1090	-0.006
1090	-0.007
1091	-0.007
1091	-0.007
1092	-0.008
1092	-0.007
1092	-0.008
1093	-0.008
1093	-0.007
1094	-0.007
1094	-0.008
1095	-0.008
1095	-0.008
1095	-0.009
1096	-0.01
1096	-0.012
1097	-0.012
1097	-0.014
1097	-0.014
1098	-0.016
1098	-0.018
1099	-0.019
1099	-0.021
1100	-0.023
1100	-0.025
1100	-0.028
1101	-0.031
1101	-0.034
1102	-0.035
1102	-0.038
1102	-0.039
1103	-0.043
1103	-0.046
1104	-0.049
1104	-0.051
1104	-0.054
1105	-0.055
1105	-0.057
1106	-0.061
1106	-0.064
1107	-0.069
1107	-0.074
1107	-0.078
1108	-0.08
1108	-0.082
1109	-0.085
1109	-0.089
1109	-0.094
1110	-0.094
1110	-0.098
1111	-0.108
1111	-0.106
