Data from 17C_3.4A_35min_2sec_int_Absorbance__766__04851.txt Node

Date: Mon Jun 19 20:13:06 CEST 2023
User: Marek
Spectrometer: MAYP115816
Trigger mode: 0
Integration Time (sec): 2.500000E-1
Scans to average: 10
Electric dark correction enabled: true
Nonlinearity correction enabled: true
Boxcar width: 5
XAxis mode: Wavelengths
Number of Pixels in Spectrum: 2068
>>>>>Begin Spectral Data<<<<<
199	-0.805
199	-0.816
200	-0.714
200	-0.659
201	-0.621
201	-0.609
202	-0.593
202	-0.578
203	-0.569
203	-0.565
204	-0.55
204	-0.534
205	-0.511
205	-0.506
205	-0.505
206	-0.507
206	-0.51
207	-0.501
207	-0.503
208	-0.507
208	-0.505
209	-0.499
209	-0.501
210	-0.503
210	-0.51
211	-0.511
211	-0.513
212	-0.515
212	-0.523
213	-0.52
213	-0.52
213	-0.526
214	-0.523
214	-0.524
215	-0.526
215	-0.531
216	-0.533
216	-0.542
217	-0.539
217	-0.544
218	-0.547
218	-0.547
219	-0.551
219	-0.562
220	-0.566
220	-0.574
221	-0.572
221	-0.576
221	-0.567
222	-0.564
222	-0.564
223	-0.567
223	-0.569
224	-0.573
224	-0.573
225	-0.567
225	-0.561
226	-0.569
226	-0.568
227	-0.574
227	-0.584
228	-0.584
228	-0.586
229	-0.588
229	-0.581
229	-0.575
230	-0.579
230	-0.582
231	-0.576
231	-0.567
232	-0.562
232	-0.56
233	-0.553
233	-0.551
234	-0.551
234	-0.547
235	-0.549
235	-0.555
236	-0.554
236	-0.556
236	-0.563
237	-0.568
237	-0.567
238	-0.578
238	-0.58
239	-0.578
239	-0.587
240	-0.588
240	-0.585
241	-0.592
241	-0.591
242	-0.597
242	-0.592
243	-0.59
243	-0.589
243	-0.596
244	-0.596
244	-0.597
245	-0.611
245	-0.611
246	-0.617
246	-0.623
247	-0.625
247	-0.63
248	-0.636
248	-0.634
249	-0.636
249	-0.646
250	-0.642
250	-0.638
250	-0.636
251	-0.632
251	-0.632
252	-0.633
252	-0.623
253	-0.628
253	-0.638
254	-0.638
254	-0.635
255	-0.642
255	-0.635
256	-0.635
256	-0.647
257	-0.643
257	-0.64
258	-0.656
258	-0.654
258	-0.65
259	-0.647
259	-0.657
260	-0.658
260	-0.663
261	-0.673
261	-0.665
262	-0.664
262	-0.665
263	-0.654
263	-0.649
264	-0.65
264	-0.657
265	-0.653
265	-0.662
265	-0.665
266	-0.664
266	-0.66
267	-0.672
267	-0.68
268	-0.695
268	-0.705
269	-0.703
269	-0.697
270	-0.701
270	-0.703
271	-0.702
271	-0.707
272	-0.712
272	-0.706
272	-0.7
273	-0.7
273	-0.708
274	-0.713
274	-0.716
275	-0.716
275	-0.71
276	-0.717
276	-0.708
277	-0.714
277	-0.731
278	-0.741
278	-0.734
278	-0.729
279	-0.734
279	-0.745
280	-0.741
280	-0.74
281	-0.735
281	-0.742
282	-0.733
282	-0.734
283	-0.727
283	-0.727
284	-0.721
284	-0.709
285	-0.705
285	-0.705
285	-0.703
286	-0.71
286	-0.706
287	-0.703
287	-0.687
288	-0.679
288	-0.69
289	-0.701
289	-0.709
290	-0.7
290	-0.697
291	-0.694
291	-0.686
292	-0.69
292	-0.696
292	-0.7
293	-0.704
293	-0.693
294	-0.682
294	-0.672
295	-0.67
295	-0.668
296	-0.666
296	-0.665
297	-0.657
297	-0.642
298	-0.635
298	-0.644
298	-0.633
299	-0.628
299	-0.629
300	-0.624
300	-0.62
301	-0.613
301	-0.612
302	-0.619
302	-0.63
303	-0.616
303	-0.602
304	-0.604
304	-0.602
305	-0.607
305	-0.605
305	-0.602
306	-0.588
306	-0.581
307	-0.569
307	-0.569
308	-0.583
308	-0.581
309	-0.583
309	-0.572
310	-0.56
310	-0.556
311	-0.547
311	-0.557
311	-0.553
312	-0.549
312	-0.546
313	-0.532
313	-0.535
314	-0.533
314	-0.535
315	-0.535
315	-0.534
316	-0.53
316	-0.522
317	-0.516
317	-0.512
318	-0.503
318	-0.499
318	-0.495
319	-0.484
319	-0.483
320	-0.475
320	-0.476
321	-0.481
321	-0.479
322	-0.471
322	-0.466
323	-0.464
323	-0.458
324	-0.449
324	-0.44
324	-0.429
325	-0.418
325	-0.4
326	-0.385
326	-0.366
327	-0.351
327	-0.33
328	-0.305
328	-0.284
329	-0.259
329	-0.234
330	-0.207
330	-0.174
330	-0.146
331	-0.116
331	-0.089
332	-0.059
332	-0.034
333	-0.009
333	0.017
334	0.038
334	0.057
335	0.076
335	0.091
336	0.107
336	0.122
336	0.134
337	0.146
337	0.155
338	0.165
338	0.171
339	0.18
339	0.186
340	0.192
340	0.197
341	0.201
341	0.205
342	0.209
342	0.212
342	0.216
343	0.219
343	0.222
344	0.223
344	0.225
345	0.226
345	0.228
346	0.229
346	0.23
347	0.231
347	0.231
348	0.232
348	0.232
348	0.233
349	0.233
349	0.234
350	0.234
350	0.234
351	0.235
351	0.235
352	0.235
352	0.235
353	0.235
353	0.235
354	0.235
354	0.235
354	0.235
355	0.234
355	0.234
356	0.234
356	0.234
357	0.233
357	0.232
358	0.232
358	0.232
359	0.232
359	0.232
360	0.232
360	0.232
360	0.232
361	0.232
361	0.232
362	0.233
362	0.232
363	0.232
363	0.232
364	0.232
364	0.232
365	0.232
365	0.232
366	0.232
366	0.232
366	0.232
367	0.232
367	0.232
368	0.232
368	0.232
369	0.232
369	0.232
370	0.231
370	0.231
371	0.231
371	0.231
372	0.231
372	0.231
372	0.231
373	0.231
373	0.232
374	0.231
374	0.231
375	0.231
375	0.231
376	0.231
376	0.231
377	0.231
377	0.231
378	0.231
378	0.231
378	0.231
379	0.231
379	0.23
380	0.23
380	0.23
381	0.23
381	0.23
382	0.23
382	0.23
383	0.229
383	0.229
383	0.229
384	0.229
384	0.229
385	0.229
385	0.229
386	0.229
386	0.229
387	0.229
387	0.229
388	0.229
388	0.229
389	0.229
389	0.229
389	0.229
390	0.229
390	0.229
391	0.229
391	0.229
392	0.229
392	0.228
393	0.228
393	0.228
394	0.228
394	0.227
394	0.227
395	0.227
395	0.227
396	0.227
396	0.227
397	0.226
397	0.226
398	0.226
398	0.227
399	0.227
399	0.226
400	0.226
400	0.226
400	0.226
401	0.226
401	0.226
402	0.226
402	0.226
403	0.226
403	0.225
404	0.225
404	0.225
405	0.225
405	0.225
405	0.225
406	0.225
406	0.225
407	0.224
407	0.224
408	0.224
408	0.224
409	0.224
409	0.224
410	0.224
410	0.224
411	0.224
411	0.224
411	0.224
412	0.223
412	0.223
413	0.223
413	0.223
414	0.223
414	0.223
415	0.223
415	0.223
416	0.223
416	0.222
416	0.222
417	0.222
417	0.222
418	0.222
418	0.222
419	0.222
419	0.222
420	0.222
420	0.223
421	0.223
421	0.223
421	0.223
422	0.223
422	0.223
423	0.223
423	0.222
424	0.222
424	0.222
425	0.222
425	0.221
426	0.221
426	0.221
427	0.221
427	0.221
427	0.221
428	0.221
428	0.221
429	0.22
429	0.22
430	0.22
430	0.22
431	0.22
431	0.22
432	0.22
432	0.219
432	0.219
433	0.219
433	0.219
434	0.219
434	0.219
435	0.219
435	0.219
436	0.218
436	0.218
437	0.218
437	0.218
437	0.218
438	0.218
438	0.218
439	0.218
439	0.218
440	0.218
440	0.218
441	0.218
441	0.218
442	0.218
442	0.218
442	0.218
443	0.217
443	0.217
444	0.217
444	0.217
445	0.217
445	0.217
446	0.217
446	0.217
447	0.217
447	0.217
447	0.217
448	0.217
448	0.217
449	0.217
449	0.217
450	0.217
450	0.217
451	0.217
451	0.218
452	0.218
452	0.217
452	0.217
453	0.217
453	0.216
454	0.216
454	0.216
455	0.216
455	0.216
456	0.215
456	0.215
457	0.215
457	0.215
458	0.215
458	0.215
458	0.215
459	0.216
459	0.216
460	0.215
460	0.215
461	0.215
461	0.215
462	0.215
462	0.216
463	0.216
463	0.216
463	0.215
464	0.215
464	0.215
465	0.215
465	0.215
466	0.215
466	0.215
467	0.215
467	0.215
467	0.215
468	0.215
468	0.215
469	0.215
469	0.215
470	0.216
470	0.216
471	0.216
471	0.216
472	0.216
472	0.216
472	0.216
473	0.216
473	0.216
474	0.216
474	0.216
475	0.216
475	0.216
476	0.216
476	0.216
477	0.216
477	0.216
477	0.217
478	0.217
478	0.217
479	0.217
479	0.218
480	0.218
480	0.218
481	0.218
481	0.219
482	0.219
482	0.219
482	0.219
483	0.22
483	0.22
484	0.22
484	0.22
485	0.22
485	0.22
486	0.22
486	0.221
487	0.221
487	0.221
487	0.222
488	0.222
488	0.222
489	0.224
489	0.225
490	0.226
490	0.226
491	0.227
491	0.228
492	0.229
492	0.23
492	0.231
493	0.231
493	0.232
494	0.234
494	0.234
495	0.235
495	0.236
496	0.237
496	0.238
496	0.239
497	0.24
497	0.241
498	0.241
498	0.242
499	0.243
499	0.243
500	0.244
500	0.245
501	0.246
501	0.246
501	0.247
502	0.247
502	0.248
503	0.249
503	0.25
504	0.25
504	0.252
505	0.253
505	0.254
506	0.255
506	0.257
506	0.258
507	0.26
507	0.261
508	0.262
508	0.264
509	0.265
509	0.266
510	0.267
510	0.269
511	0.27
511	0.271
511	0.271
512	0.272
512	0.273
513	0.274
513	0.274
514	0.275
514	0.277
515	0.278
515	0.279
515	0.281
516	0.282
516	0.284
517	0.285
517	0.286
518	0.287
518	0.289
519	0.29
519	0.291
520	0.292
520	0.294
520	0.295
521	0.297
521	0.298
522	0.299
522	0.301
523	0.302
523	0.304
524	0.305
524	0.306
524	0.307
525	0.308
525	0.309
526	0.31
526	0.311
527	0.312
527	0.313
528	0.314
528	0.315
529	0.316
529	0.317
529	0.318
530	0.318
530	0.319
531	0.32
531	0.32
532	0.321
532	0.322
533	0.323
533	0.323
533	0.324
534	0.325
534	0.326
535	0.326
535	0.327
536	0.328
536	0.328
537	0.328
537	0.329
538	0.33
538	0.33
538	0.331
539	0.332
539	0.332
540	0.333
540	0.334
541	0.334
541	0.336
542	0.337
542	0.337
542	0.338
543	0.338
543	0.339
544	0.339
544	0.339
545	0.34
545	0.341
546	0.341
546	0.341
547	0.341
547	0.342
547	0.342
548	0.343
548	0.343
549	0.344
549	0.344
550	0.344
550	0.345
551	0.345
551	0.345
551	0.346
552	0.346
552	0.346
553	0.347
553	0.347
554	0.347
554	0.347
555	0.347
555	0.347
556	0.347
556	0.348
556	0.348
557	0.349
557	0.35
558	0.35
558	0.351
559	0.351
559	0.351
560	0.352
560	0.351
560	0.352
561	0.352
561	0.351
562	0.351
562	0.35
563	0.349
563	0.349
564	0.349
564	0.348
564	0.348
565	0.348
565	0.347
566	0.346
566	0.346
567	0.346
567	0.345
568	0.345
568	0.345
568	0.344
569	0.344
569	0.343
570	0.342
570	0.341
571	0.341
571	0.341
572	0.34
572	0.34
573	0.339
573	0.338
573	0.337
574	0.337
574	0.337
575	0.337
575	0.338
576	0.337
576	0.335
577	0.334
577	0.333
577	0.333
578	0.332
578	0.332
579	0.332
579	0.332
580	0.33
580	0.328
581	0.327
581	0.327
581	0.327
582	0.327
582	0.327
583	0.328
583	0.327
584	0.325
584	0.324
585	0.325
585	0.325
585	0.325
586	0.325
586	0.324
587	0.323
587	0.322
588	0.321
588	0.321
589	0.321
589	0.321
590	0.32
590	0.32
590	0.321
591	0.321
591	0.319
592	0.319
592	0.318
593	0.318
593	0.317
594	0.316
594	0.316
594	0.316
595	0.316
595	0.316
596	0.316
596	0.318
597	0.319
597	0.318
598	0.318
598	0.317
598	0.317
599	0.317
599	0.315
600	0.314
600	0.313
601	0.312
601	0.31
602	0.308
602	0.308
602	0.307
603	0.307
603	0.307
604	0.306
604	0.306
605	0.306
605	0.306
606	0.305
606	0.303
606	0.303
607	0.302
607	0.301
608	0.3
608	0.299
609	0.299
609	0.299
610	0.299
610	0.299
610	0.3
611	0.302
611	0.303
612	0.304
612	0.305
613	0.305
613	0.305
614	0.304
614	0.303
614	0.302
615	0.301
615	0.3
616	0.3
616	0.298
617	0.297
617	0.296
618	0.295
618	0.295
618	0.294
619	0.295
619	0.295
620	0.295
620	0.295
621	0.295
621	0.295
622	0.294
622	0.294
622	0.294
623	0.293
623	0.294
624	0.294
624	0.293
625	0.293
625	0.293
626	0.293
626	0.293
626	0.294
627	0.294
627	0.294
628	0.294
628	0.293
629	0.293
629	0.293
630	0.292
630	0.292
630	0.292
631	0.292
631	0.291
632	0.291
632	0.291
633	0.29
633	0.29
634	0.29
634	0.29
634	0.289
635	0.288
635	0.287
636	0.286
636	0.285
637	0.284
637	0.283
638	0.283
638	0.282
638	0.281
639	0.28
639	0.279
640	0.279
640	0.278
641	0.278
641	0.278
642	0.277
642	0.277
642	0.276
643	0.275
643	0.274
644	0.274
644	0.273
645	0.272
645	0.27
646	0.269
646	0.267
646	0.265
647	0.263
647	0.261
648	0.259
648	0.256
649	0.253
649	0.249
650	0.246
650	0.242
650	0.235
651	0.228
651	0.221
652	0.211
652	0.2
653	0.191
653	0.18
653	0.178
654	0.177
654	0.17
655	0.16
655	0.153
656	0.144
656	0.136
657	0.13
657	0.124
657	0.117
658	0.11
658	0.089
659	0.035
659	-0.023
660	-0.055
660	-0.077
661	-0.096
661	-0.119
661	-0.142
662	-0.16
662	-0.178
663	-0.192
663	-0.211
664	-0.224
664	-0.248
665	-0.26
665	-0.278
665	-0.291
666	-0.3
666	-0.309
667	-0.316
667	-0.323
668	-0.336
668	-0.354
669	-0.364
669	-0.355
669	-0.324
670	-0.14
670	-0
671	-0
671	-0
672	-0
672	-0
672	-0
673	-0
673	-0
674	-0
674	-0
675	-0
675	-0
676	-0
676	-0
676	-0.171
677	-0.508
677	-0.531
678	-0.545
678	-0.542
679	-0.541
679	-0.552
680	-0.568
680	-0.57
680	-0.572
681	-0.592
681	-0.592
682	-0.606
682	-0.608
683	-0.609
683	-0.634
684	-0.651
684	-0.665
684	-0.672
685	-0.679
685	-0.683
686	-0.678
686	-0.68
687	-0.675
687	-0.685
687	-0.683
688	-0.669
688	-0.664
689	-0.655
689	-0.652
690	-0.641
690	-0.639
691	-0.642
691	-0.655
691	-0.68
692	-0.679
692	-0.677
693	-0.68
693	-0.697
694	-0.696
694	-0.694
695	-0.706
695	-0.707
695	-0.695
696	-0.697
696	-0.676
697	-0.679
697	-0.698
698	-0.704
698	-0.694
698	-0.714
699	-0.72
699	-0.72
700	-0.715
700	-0.736
701	-0.736
701	-0.744
702	-0.746
702	-0.736
702	-0.732
703	-0.727
703	-0.719
704	-0.717
704	-0.717
705	-0.73
705	-0.722
705	-0.715
706	-0.719
706	-0.716
707	-0.721
707	-0.717
708	-0.717
708	-0.71
709	-0.716
709	-0.721
709	-0.713
710	-0.723
710	-0.734
711	-0.724
711	-0.724
712	-0.726
712	-0.741
713	-0.742
713	-0.749
713	-0.738
714	-0.734
714	-0.736
715	-0.726
715	-0.713
716	-0.723
716	-0.727
716	-0.721
717	-0.721
717	-0.723
718	-0.714
718	-0.714
719	-0.722
719	-0.723
720	-0.719
720	-0.729
720	-0.723
721	-0.715
721	-0.715
722	-0.703
722	-0.693
723	-0.693
723	-0.7
723	-0.687
724	-0.692
724	-0.696
725	-0.694
725	-0.703
726	-0.714
726	-0.721
727	-0.728
727	-0.743
727	-0.752
728	-0.753
728	-0.76
729	-0.758
729	-0.763
730	-0.774
730	-0.767
730	-0.758
731	-0.74
731	-0.749
732	-0.756
732	-0.755
733	-0.754
733	-0.761
734	-0.757
734	-0.758
734	-0.741
735	-0.741
735	-0.744
736	-0.753
736	-0.74
737	-0.731
737	-0.736
737	-0.748
738	-0.742
738	-0.742
739	-0.74
739	-0.753
740	-0.752
740	-0.751
741	-0.749
741	-0.751
741	-0.754
742	-0.75
742	-0.749
743	-0.758
743	-0.764
744	-0.761
744	-0.751
744	-0.754
745	-0.76
745	-0.752
746	-0.751
746	-0.749
747	-0.752
747	-0.741
748	-0.729
748	-0.736
748	-0.739
749	-0.739
749	-0.739
750	-0.728
750	-0.731
751	-0.735
751	-0.744
751	-0.746
752	-0.747
752	-0.757
753	-0.749
753	-0.746
754	-0.75
754	-0.744
754	-0.76
755	-0.775
755	-0.788
756	-0.778
756	-0.776
757	-0.776
757	-0.771
758	-0.773
758	-0.77
758	-0.773
759	-0.78
759	-0.763
760	-0.757
760	-0.751
761	-0.76
761	-0.757
761	-0.756
762	-0.764
762	-0.765
763	-0.775
763	-0.772
764	-0.77
764	-0.777
764	-0.78
765	-0.772
765	-0.758
766	-0.766
766	-0.774
767	-0.787
767	-0.78
768	-0.77
768	-0.778
768	-0.782
769	-0.799
769	-0.802
770	-0.808
770	-0.822
771	-0.82
771	-0.82
771	-0.823
772	-0.829
772	-0.829
773	-0.829
773	-0.825
774	-0.824
774	-0.825
775	-0.825
775	-0.819
775	-0.825
776	-0.824
776	-0.811
777	-0.816
777	-0.835
778	-0.831
778	-0.853
778	-0.839
779	-0.862
779	-0.871
780	-0.887
780	-0.886
781	-0.898
781	-0.895
781	-0.911
782	-0.91
782	-0.909
783	-0.894
783	-0.892
784	-0.87
784	-0.858
784	-0.867
785	-0.874
785	-0.861
786	-0.867
786	-0.848
787	-0.836
787	-0.841
788	-0.846
788	-0.857
788	-0.871
789	-0.874
789	-0.857
790	-0.839
790	-0.841
791	-0.842
791	-0.859
791	-0.866
792	-0.861
792	-0.838
793	-0.827
793	-0.805
794	-0.808
794	-0.799
794	-0.808
795	-0.805
795	-0.796
796	-0.78
796	-0.787
797	-0.779
797	-0.791
797	-0.798
798	-0.81
798	-0.804
799	-0.814
799	-0.8
800	-0.804
800	-0.799
801	-0.805
801	-0.79
801	-0.803
802	-0.809
802	-0.81
803	-0.812
803	-0.821
804	-0.815
804	-0.825
804	-0.813
805	-0.817
805	-0.805
806	-0.807
806	-0.789
807	-0.788
807	-0.767
807	-0.756
808	-0.747
808	-0.739
809	-0.725
809	-0.734
810	-0.732
810	-0.725
810	-0.722
811	-0.73
811	-0.721
812	-0.723
812	-0.726
813	-0.73
813	-0.729
813	-0.735
814	-0.737
814	-0.741
815	-0.746
815	-0.75
816	-0.743
816	-0.747
817	-0.755
817	-0.772
817	-0.785
818	-0.792
818	-0.794
819	-0.787
819	-0.787
820	-0.796
820	-0.792
820	-0.803
821	-0.803
821	-0.792
822	-0.761
822	-0.737
823	-0.735
823	-0.738
823	-0.734
824	-0.73
824	-0.733
825	-0.727
825	-0.707
826	-0.701
826	-0.708
826	-0.717
827	-0.712
827	-0.708
828	-0.687
828	-0.688
829	-0.678
829	-0.662
829	-0.655
830	-0.664
830	-0.659
831	-0.651
831	-0.641
832	-0.641
832	-0.631
832	-0.638
833	-0.632
833	-0.633
834	-0.631
834	-0.638
835	-0.627
835	-0.624
835	-0.62
836	-0.617
836	-0.615
837	-0.613
837	-0.604
838	-0.594
838	-0.582
839	-0.569
839	-0.555
839	-0.544
840	-0.533
840	-0.529
841	-0.516
841	-0.505
842	-0.498
842	-0.488
842	-0.479
843	-0.473
843	-0.467
844	-0.457
844	-0.449
845	-0.439
845	-0.426
845	-0.412
846	-0.401
846	-0.386
847	-0.374
847	-0.362
848	-0.349
848	-0.336
848	-0.319
849	-0.306
849	-0.295
850	-0.28
850	-0.274
851	-0.262
851	-0.25
851	-0.239
852	-0.222
852	-0.207
853	-0.197
853	-0.191
854	-0.179
854	-0.164
854	-0.152
855	-0.139
855	-0.132
856	-0.121
856	-0.11
857	-0.103
857	-0.093
857	-0.079
858	-0.065
858	-0.056
859	-0.046
859	-0.032
860	-0.021
860	-0.005
860	0.005
861	0.016
861	0.026
862	0.035
862	0.043
863	0.05
863	0.06
863	0.066
864	0.071
864	0.078
865	0.085
865	0.09
866	0.096
866	0.101
866	0.106
867	0.111
867	0.116
868	0.12
868	0.125
869	0.129
869	0.133
869	0.135
870	0.139
870	0.142
871	0.145
871	0.147
872	0.148
872	0.149
872	0.15
873	0.151
873	0.151
874	0.15
874	0.15
875	0.149
875	0.148
875	0.147
876	0.147
876	0.146
877	0.145
877	0.144
878	0.143
878	0.142
878	0.141
879	0.14
879	0.139
880	0.138
880	0.138
881	0.137
881	0.137
881	0.136
882	0.136
882	0.135
883	0.134
883	0.134
884	0.133
884	0.133
884	0.132
885	0.131
885	0.131
886	0.131
886	0.13
887	0.128
887	0.128
887	0.127
888	0.127
888	0.126
889	0.126
889	0.125
890	0.125
890	0.123
890	0.122
891	0.121
891	0.12
892	0.12
892	0.119
893	0.118
893	0.118
893	0.118
894	0.118
894	0.118
895	0.118
895	0.118
895	0.117
896	0.116
896	0.116
897	0.115
897	0.114
898	0.113
898	0.113
898	0.113
899	0.113
899	0.113
900	0.114
900	0.114
901	0.115
901	0.116
901	0.118
902	0.119
902	0.12
903	0.121
903	0.122
904	0.123
904	0.124
904	0.126
905	0.127
905	0.128
906	0.129
906	0.13
907	0.131
907	0.132
907	0.133
908	0.134
908	0.134
909	0.134
909	0.134
910	0.134
910	0.133
910	0.133
911	0.133
911	0.132
912	0.132
912	0.131
913	0.131
913	0.13
913	0.13
914	0.129
914	0.128
915	0.127
915	0.126
916	0.126
916	0.125
916	0.124
917	0.124
917	0.123
918	0.123
918	0.123
918	0.122
919	0.122
919	0.122
920	0.122
920	0.122
921	0.122
921	0.122
921	0.121
922	0.12
922	0.12
923	0.119
923	0.118
924	0.117
924	0.116
924	0.115
925	0.114
925	0.113
926	0.113
926	0.112
927	0.111
927	0.11
927	0.11
928	0.109
928	0.108
929	0.107
929	0.106
930	0.105
930	0.104
930	0.103
931	0.102
931	0.102
932	0.101
932	0.1
933	0.099
933	0.098
933	0.097
934	0.096
934	0.095
935	0.094
935	0.093
935	0.092
936	0.091
936	0.089
937	0.088
937	0.087
938	0.087
938	0.087
938	0.086
939	0.087
939	0.087
940	0.088
940	0.088
941	0.089
941	0.089
941	0.09
942	0.09
942	0.089
943	0.089
943	0.088
944	0.088
944	0.087
944	0.087
945	0.087
945	0.086
946	0.086
946	0.085
946	0.085
947	0.085
947	0.085
948	0.086
948	0.086
949	0.086
949	0.086
949	0.086
950	0.086
950	0.085
951	0.086
951	0.085
952	0.085
952	0.084
952	0.084
953	0.083
953	0.083
954	0.082
954	0.082
955	0.082
955	0.082
955	0.082
956	0.082
956	0.083
957	0.083
957	0.083
957	0.083
958	0.083
958	0.084
959	0.084
959	0.084
960	0.084
960	0.084
960	0.085
961	0.084
961	0.085
962	0.085
962	0.086
963	0.086
963	0.086
963	0.086
964	0.086
964	0.087
965	0.087
965	0.087
966	0.087
966	0.087
966	0.087
967	0.086
967	0.086
968	0.086
968	0.086
968	0.087
969	0.088
969	0.088
970	0.089
970	0.091
971	0.092
971	0.093
971	0.095
972	0.096
972	0.097
973	0.098
973	0.099
974	0.099
974	0.099
974	0.099
975	0.098
975	0.098
976	0.096
976	0.095
976	0.094
977	0.094
977	0.093
978	0.092
978	0.091
979	0.09
979	0.09
979	0.089
980	0.089
980	0.089
981	0.089
981	0.088
982	0.088
982	0.087
982	0.086
983	0.085
983	0.084
984	0.084
984	0.083
984	0.083
985	0.083
985	0.082
986	0.082
986	0.082
987	0.082
987	0.082
987	0.083
988	0.083
988	0.082
989	0.082
989	0.082
990	0.081
990	0.08
990	0.08
991	0.08
991	0.079
992	0.079
992	0.078
992	0.078
993	0.078
993	0.078
994	0.078
994	0.078
995	0.078
995	0.078
995	0.078
996	0.079
996	0.079
997	0.079
997	0.08
997	0.08
998	0.081
998	0.081
999	0.082
999	0.082
1000	0.082
1000	0.082
1000	0.082
1001	0.083
1001	0.083
1002	0.083
1002	0.083
1003	0.083
1003	0.082
1003	0.082
1004	0.081
1004	0.08
1005	0.079
1005	0.077
1005	0.076
1006	0.074
1006	0.073
1007	0.072
1007	0.071
1008	0.07
1008	0.07
1008	0.07
1009	0.07
1009	0.07
1010	0.071
1010	0.071
1010	0.071
1011	0.071
1011	0.071
1012	0.071
1012	0.07
1013	0.07
1013	0.069
1013	0.068
1014	0.068
1014	0.067
1015	0.067
1015	0.067
1016	0.067
1016	0.067
1016	0.067
1017	0.067
1017	0.067
1018	0.067
1018	0.066
1018	0.066
1019	0.065
1019	0.065
1020	0.064
1020	0.064
1021	0.063
1021	0.062
1021	0.061
1022	0.06
1022	0.06
1023	0.06
1023	0.059
1023	0.059
1024	0.059
1024	0.058
1025	0.058
1025	0.058
1026	0.058
1026	0.059
1026	0.059
1027	0.059
1027	0.06
1028	0.06
1028	0.06
1028	0.061
1029	0.061
1029	0.062
1030	0.062
1030	0.062
1031	0.063
1031	0.064
1031	0.064
1032	0.065
1032	0.066
1033	0.067
1033	0.068
1033	0.068
1034	0.069
1034	0.07
1035	0.07
1035	0.071
1036	0.071
1036	0.071
1036	0.071
1037	0.071
1037	0.071
1038	0.07
1038	0.071
1039	0.071
1039	0.071
1039	0.071
1040	0.071
1040	0.071
1041	0.071
1041	0.071
1041	0.071
1042	0.071
1042	0.071
1043	0.071
1043	0.07
1044	0.07
1044	0.07
1044	0.07
1045	0.069
1045	0.069
1046	0.068
1046	0.068
1046	0.068
1047	0.069
1047	0.069
1048	0.068
1048	0.068
1049	0.068
1049	0.068
1049	0.068
1050	0.067
1050	0.067
1051	0.067
1051	0.067
1051	0.066
1052	0.066
1052	0.066
1053	0.065
1053	0.065
1053	0.064
1054	0.063
1054	0.063
1055	0.062
1055	0.061
1056	0.06
1056	0.059
1056	0.057
1057	0.056
1057	0.055
1058	0.054
1058	0.053
1058	0.052
1059	0.051
1059	0.05
1060	0.049
1060	0.049
1061	0.049
1061	0.049
1061	0.049
1062	0.048
1062	0.048
1063	0.048
1063	0.048
1063	0.048
1064	0.048
1064	0.048
1065	0.048
1065	0.047
1066	0.046
1066	0.046
1066	0.046
1067	0.047
1067	0.047
1068	0.047
1068	0.047
1068	0.047
1069	0.048
1069	0.048
1070	0.049
1070	0.049
1071	0.05
1071	0.05
1071	0.05
1072	0.05
1072	0.05
1073	0.05
1073	0.05
1073	0.05
1074	0.051
1074	0.051
1075	0.05
1075	0.05
1076	0.049
1076	0.049
1076	0.048
1077	0.048
1077	0.047
1078	0.045
1078	0.045
1078	0.044
1079	0.042
1079	0.041
1080	0.04
1080	0.039
1080	0.037
1081	0.036
1081	0.035
1082	0.034
1082	0.033
1083	0.032
1083	0.03
1083	0.029
1084	0.027
1084	0.026
1085	0.024
1085	0.023
1085	0.022
1086	0.021
1086	0.019
1087	0.018
1087	0.017
1088	0.016
1088	0.016
1088	0.015
1089	0.014
1089	0.014
1090	0.013
1090	0.012
1090	0.011
1091	0.01
1091	0.01
1092	0.009
1092	0.009
1092	0.007
1093	0.006
1093	0.007
1094	0.007
1094	0.007
1095	0.005
1095	0.005
1095	0.005
1096	0.003
1096	0.002
1097	0.002
1097	0.001
1097	0.001
1098	-0.002
1098	-0.004
1099	-0.005
1099	-0.007
1100	-0.009
1100	-0.011
1100	-0.014
1101	-0.017
1101	-0.021
1102	-0.024
1102	-0.027
1102	-0.028
1103	-0.031
1103	-0.035
1104	-0.037
1104	-0.04
1104	-0.041
1105	-0.044
1105	-0.047
1106	-0.052
1106	-0.054
1107	-0.059
1107	-0.064
1107	-0.07
1108	-0.072
1108	-0.074
1109	-0.078
1109	-0.083
1109	-0.088
1110	-0.088
1110	-0.09
1111	-0.097
1111	-0.093
