Data from 17C_3.4A_35min_2sec_int_Absorbance__610__04695.txt Node

Date: Mon Jun 19 20:06:36 CEST 2023
User: Marek
Spectrometer: MAYP115816
Trigger mode: 0
Integration Time (sec): 2.500000E-1
Scans to average: 10
Electric dark correction enabled: true
Nonlinearity correction enabled: true
Boxcar width: 5
XAxis mode: Wavelengths
Number of Pixels in Spectrum: 2068
>>>>>Begin Spectral Data<<<<<
199	-0.769
199	-0.789
200	-0.689
200	-0.641
201	-0.606
201	-0.595
202	-0.578
202	-0.561
203	-0.55
203	-0.548
204	-0.532
204	-0.517
205	-0.492
205	-0.488
205	-0.485
206	-0.486
206	-0.485
207	-0.476
207	-0.479
208	-0.482
208	-0.48
209	-0.475
209	-0.476
210	-0.481
210	-0.486
211	-0.486
211	-0.488
212	-0.494
212	-0.502
213	-0.499
213	-0.501
213	-0.507
214	-0.504
214	-0.503
215	-0.503
215	-0.509
216	-0.513
216	-0.52
217	-0.514
217	-0.519
218	-0.524
218	-0.523
219	-0.525
219	-0.536
220	-0.542
220	-0.553
221	-0.552
221	-0.553
221	-0.546
222	-0.541
222	-0.542
223	-0.544
223	-0.549
224	-0.552
224	-0.551
225	-0.545
225	-0.537
226	-0.541
226	-0.542
227	-0.548
227	-0.558
228	-0.558
228	-0.561
229	-0.563
229	-0.556
229	-0.552
230	-0.558
230	-0.562
231	-0.556
231	-0.548
232	-0.543
232	-0.542
233	-0.537
233	-0.534
234	-0.533
234	-0.529
235	-0.532
235	-0.537
236	-0.534
236	-0.539
236	-0.546
237	-0.553
237	-0.555
238	-0.563
238	-0.562
239	-0.56
239	-0.571
240	-0.57
240	-0.568
241	-0.574
241	-0.571
242	-0.574
242	-0.567
243	-0.56
243	-0.562
243	-0.569
244	-0.571
244	-0.57
245	-0.584
245	-0.585
246	-0.588
246	-0.595
247	-0.598
247	-0.604
248	-0.611
248	-0.608
249	-0.611
249	-0.618
250	-0.615
250	-0.612
250	-0.609
251	-0.606
251	-0.605
252	-0.606
252	-0.597
253	-0.601
253	-0.611
254	-0.611
254	-0.61
255	-0.618
255	-0.61
256	-0.608
256	-0.621
257	-0.619
257	-0.617
258	-0.634
258	-0.631
258	-0.626
259	-0.621
259	-0.63
260	-0.629
260	-0.634
261	-0.648
261	-0.641
262	-0.637
262	-0.639
263	-0.628
263	-0.623
264	-0.627
264	-0.636
265	-0.63
265	-0.637
265	-0.64
266	-0.636
266	-0.632
267	-0.647
267	-0.655
268	-0.669
268	-0.678
269	-0.674
269	-0.67
270	-0.676
270	-0.682
271	-0.683
271	-0.687
272	-0.691
272	-0.683
272	-0.675
273	-0.674
273	-0.682
274	-0.687
274	-0.691
275	-0.692
275	-0.685
276	-0.691
276	-0.687
277	-0.692
277	-0.714
278	-0.725
278	-0.718
278	-0.713
279	-0.717
279	-0.727
280	-0.722
280	-0.721
281	-0.715
281	-0.721
282	-0.71
282	-0.708
283	-0.697
283	-0.701
284	-0.694
284	-0.682
285	-0.679
285	-0.68
285	-0.675
286	-0.683
286	-0.678
287	-0.677
287	-0.66
288	-0.654
288	-0.662
289	-0.675
289	-0.686
290	-0.676
290	-0.674
291	-0.672
291	-0.664
292	-0.667
292	-0.673
292	-0.68
293	-0.684
293	-0.673
294	-0.662
294	-0.652
295	-0.648
295	-0.646
296	-0.644
296	-0.641
297	-0.634
297	-0.617
298	-0.609
298	-0.619
298	-0.608
299	-0.598
299	-0.599
300	-0.595
300	-0.588
301	-0.583
301	-0.584
302	-0.592
302	-0.601
303	-0.587
303	-0.572
304	-0.573
304	-0.575
305	-0.576
305	-0.575
305	-0.574
306	-0.559
306	-0.55
307	-0.536
307	-0.538
308	-0.552
308	-0.55
309	-0.552
309	-0.542
310	-0.531
310	-0.527
311	-0.519
311	-0.527
311	-0.526
312	-0.522
312	-0.519
313	-0.505
313	-0.507
314	-0.503
314	-0.505
315	-0.507
315	-0.505
316	-0.502
316	-0.494
317	-0.485
317	-0.48
318	-0.471
318	-0.469
318	-0.463
319	-0.453
319	-0.45
320	-0.443
320	-0.444
321	-0.447
321	-0.447
322	-0.443
322	-0.438
323	-0.436
323	-0.43
324	-0.423
324	-0.415
324	-0.404
325	-0.393
325	-0.377
326	-0.362
326	-0.342
327	-0.324
327	-0.303
328	-0.276
328	-0.256
329	-0.231
329	-0.205
330	-0.177
330	-0.142
330	-0.111
331	-0.078
331	-0.049
332	-0.02
332	0.006
333	0.03
333	0.058
334	0.081
334	0.1
335	0.121
335	0.138
336	0.154
336	0.169
336	0.181
337	0.193
337	0.204
338	0.214
338	0.221
339	0.23
339	0.237
340	0.242
340	0.248
341	0.253
341	0.256
342	0.261
342	0.265
342	0.268
343	0.271
343	0.275
344	0.277
344	0.278
345	0.28
345	0.281
346	0.282
346	0.283
347	0.284
347	0.285
348	0.285
348	0.286
348	0.286
349	0.286
349	0.287
350	0.287
350	0.287
351	0.287
351	0.287
352	0.287
352	0.287
353	0.287
353	0.287
354	0.287
354	0.286
354	0.286
355	0.286
355	0.286
356	0.286
356	0.285
357	0.285
357	0.285
358	0.285
358	0.285
359	0.284
359	0.284
360	0.284
360	0.284
360	0.284
361	0.284
361	0.283
362	0.283
362	0.283
363	0.283
363	0.283
364	0.283
364	0.282
365	0.282
365	0.282
366	0.282
366	0.281
366	0.281
367	0.281
367	0.281
368	0.281
368	0.28
369	0.28
369	0.28
370	0.28
370	0.28
371	0.28
371	0.279
372	0.279
372	0.279
372	0.279
373	0.279
373	0.279
374	0.279
374	0.278
375	0.278
375	0.278
376	0.278
376	0.278
377	0.277
377	0.277
378	0.277
378	0.277
378	0.277
379	0.277
379	0.276
380	0.276
380	0.276
381	0.275
381	0.275
382	0.275
382	0.275
383	0.274
383	0.274
383	0.274
384	0.273
384	0.273
385	0.273
385	0.273
386	0.273
386	0.273
387	0.273
387	0.272
388	0.272
388	0.272
389	0.272
389	0.271
389	0.271
390	0.271
390	0.271
391	0.271
391	0.271
392	0.271
392	0.271
393	0.27
393	0.27
394	0.27
394	0.269
394	0.269
395	0.269
395	0.268
396	0.268
396	0.268
397	0.268
397	0.267
398	0.267
398	0.267
399	0.267
399	0.267
400	0.267
400	0.266
400	0.266
401	0.266
401	0.266
402	0.266
402	0.265
403	0.265
403	0.265
404	0.265
404	0.264
405	0.264
405	0.264
405	0.264
406	0.264
406	0.263
407	0.263
407	0.263
408	0.263
408	0.263
409	0.263
409	0.263
410	0.263
410	0.263
411	0.263
411	0.263
411	0.263
412	0.262
412	0.262
413	0.262
413	0.262
414	0.261
414	0.261
415	0.261
415	0.261
416	0.26
416	0.26
416	0.26
417	0.26
417	0.259
418	0.26
418	0.259
419	0.259
419	0.259
420	0.259
420	0.259
421	0.259
421	0.26
421	0.26
422	0.26
422	0.26
423	0.26
423	0.26
424	0.26
424	0.259
425	0.259
425	0.259
426	0.258
426	0.258
427	0.258
427	0.257
427	0.257
428	0.257
428	0.257
429	0.256
429	0.256
430	0.256
430	0.256
431	0.256
431	0.256
432	0.256
432	0.255
432	0.255
433	0.255
433	0.255
434	0.255
434	0.255
435	0.255
435	0.255
436	0.255
436	0.255
437	0.255
437	0.255
437	0.255
438	0.255
438	0.255
439	0.255
439	0.255
440	0.255
440	0.254
441	0.254
441	0.254
442	0.254
442	0.254
442	0.254
443	0.254
443	0.254
444	0.254
444	0.254
445	0.254
445	0.254
446	0.254
446	0.254
447	0.254
447	0.254
447	0.254
448	0.254
448	0.254
449	0.254
449	0.254
450	0.254
450	0.255
451	0.255
451	0.255
452	0.255
452	0.255
452	0.255
453	0.255
453	0.255
454	0.255
454	0.255
455	0.255
455	0.255
456	0.254
456	0.254
457	0.254
457	0.254
458	0.254
458	0.254
458	0.254
459	0.255
459	0.255
460	0.255
460	0.255
461	0.256
461	0.256
462	0.257
462	0.257
463	0.257
463	0.257
463	0.257
464	0.257
464	0.257
465	0.257
465	0.258
466	0.258
466	0.258
467	0.259
467	0.259
467	0.259
468	0.259
468	0.259
469	0.26
469	0.26
470	0.26
470	0.26
471	0.26
471	0.261
472	0.261
472	0.261
472	0.262
473	0.262
473	0.263
474	0.263
474	0.264
475	0.264
475	0.265
476	0.265
476	0.266
477	0.266
477	0.267
477	0.268
478	0.268
478	0.269
479	0.27
479	0.27
480	0.271
480	0.272
481	0.273
481	0.274
482	0.274
482	0.275
482	0.276
483	0.276
483	0.277
484	0.278
484	0.278
485	0.279
485	0.279
486	0.279
486	0.28
487	0.281
487	0.282
487	0.283
488	0.284
488	0.285
489	0.287
489	0.29
490	0.291
490	0.293
491	0.295
491	0.296
492	0.298
492	0.3
492	0.301
493	0.303
493	0.304
494	0.306
494	0.308
495	0.31
495	0.311
496	0.313
496	0.315
496	0.317
497	0.318
497	0.32
498	0.322
498	0.323
499	0.325
499	0.327
500	0.329
500	0.331
501	0.332
501	0.334
501	0.335
502	0.337
502	0.338
503	0.34
503	0.342
504	0.343
504	0.345
505	0.347
505	0.349
506	0.351
506	0.353
506	0.355
507	0.357
507	0.36
508	0.362
508	0.364
509	0.366
509	0.368
510	0.37
510	0.372
511	0.374
511	0.376
511	0.378
512	0.38
512	0.381
513	0.383
513	0.385
514	0.386
514	0.388
515	0.39
515	0.391
515	0.393
516	0.395
516	0.396
517	0.398
517	0.4
518	0.402
518	0.404
519	0.406
519	0.407
520	0.409
520	0.411
520	0.413
521	0.415
521	0.416
522	0.417
522	0.419
523	0.42
523	0.421
524	0.422
524	0.423
524	0.423
525	0.423
525	0.424
526	0.424
526	0.425
527	0.425
527	0.425
528	0.425
528	0.425
529	0.425
529	0.425
529	0.425
530	0.426
530	0.425
531	0.425
531	0.425
532	0.424
532	0.424
533	0.423
533	0.423
533	0.423
534	0.422
534	0.421
535	0.421
535	0.42
536	0.419
536	0.418
537	0.417
537	0.416
538	0.416
538	0.415
538	0.414
539	0.413
539	0.412
540	0.41
540	0.409
541	0.407
541	0.407
542	0.405
542	0.404
542	0.402
543	0.401
543	0.399
544	0.397
544	0.395
545	0.394
545	0.392
546	0.391
546	0.388
547	0.386
547	0.384
547	0.383
548	0.381
548	0.38
549	0.378
549	0.377
550	0.375
550	0.373
551	0.371
551	0.37
551	0.368
552	0.367
552	0.365
553	0.364
553	0.362
554	0.36
554	0.358
555	0.356
555	0.354
556	0.353
556	0.351
556	0.349
557	0.347
557	0.346
558	0.344
558	0.342
559	0.34
559	0.338
560	0.337
560	0.335
560	0.334
561	0.332
561	0.33
562	0.328
562	0.326
563	0.324
563	0.323
564	0.321
564	0.32
564	0.318
565	0.317
565	0.315
566	0.313
566	0.312
567	0.31
567	0.308
568	0.307
568	0.305
568	0.304
569	0.302
569	0.3
570	0.299
570	0.296
571	0.296
571	0.294
572	0.293
572	0.291
573	0.29
573	0.288
573	0.286
574	0.285
574	0.284
575	0.283
575	0.283
576	0.282
576	0.279
577	0.278
577	0.277
577	0.277
578	0.276
578	0.275
579	0.275
579	0.274
580	0.272
580	0.269
581	0.267
581	0.267
581	0.266
582	0.266
582	0.265
583	0.264
583	0.263
584	0.261
584	0.259
585	0.259
585	0.26
585	0.259
586	0.258
586	0.258
587	0.256
587	0.256
588	0.254
588	0.254
589	0.254
589	0.253
590	0.253
590	0.252
590	0.253
591	0.253
591	0.251
592	0.25
592	0.249
593	0.25
593	0.249
594	0.249
594	0.249
594	0.249
595	0.249
595	0.248
596	0.248
596	0.25
597	0.251
597	0.25
598	0.25
598	0.249
598	0.248
599	0.247
599	0.246
600	0.244
600	0.243
601	0.243
601	0.241
602	0.24
602	0.239
602	0.238
603	0.238
603	0.239
604	0.239
604	0.239
605	0.239
605	0.239
606	0.238
606	0.237
606	0.236
607	0.235
607	0.235
608	0.234
608	0.233
609	0.232
609	0.232
610	0.231
610	0.231
610	0.231
611	0.231
611	0.232
612	0.232
612	0.232
613	0.232
613	0.232
614	0.23
614	0.229
614	0.228
615	0.227
615	0.227
616	0.226
616	0.225
617	0.224
617	0.223
618	0.223
618	0.222
618	0.223
619	0.223
619	0.223
620	0.224
620	0.223
621	0.223
621	0.223
622	0.222
622	0.223
622	0.222
623	0.221
623	0.221
624	0.221
624	0.219
625	0.219
625	0.218
626	0.217
626	0.216
626	0.216
627	0.216
627	0.215
628	0.214
628	0.213
629	0.212
629	0.211
630	0.21
630	0.209
630	0.208
631	0.207
631	0.205
632	0.204
632	0.202
633	0.201
633	0.199
634	0.197
634	0.195
634	0.192
635	0.19
635	0.187
636	0.184
636	0.182
637	0.179
637	0.176
638	0.172
638	0.169
638	0.166
639	0.162
639	0.158
640	0.154
640	0.15
641	0.146
641	0.143
642	0.138
642	0.134
642	0.13
643	0.125
643	0.12
644	0.116
644	0.111
645	0.105
645	0.1
646	0.095
646	0.089
646	0.083
647	0.077
647	0.072
648	0.066
648	0.06
649	0.053
649	0.047
650	0.04
650	0.033
650	0.026
651	0.016
651	0.006
652	-0.008
652	-0.022
653	-0.033
653	-0.045
653	-0.042
654	-0.026
654	-0.021
655	-0.026
655	-0.031
656	-0.038
656	-0.046
657	-0.05
657	-0.055
657	-0.062
658	-0.068
658	-0.097
659	-0.175
659	-0.265
660	-0.307
660	-0.333
661	-0.358
661	-0.387
661	-0.42
662	-0.45
662	-0.481
663	-0.517
663	-0.555
664	-0.595
664	-0.643
665	-0.69
665	-0.743
665	-0.795
666	-0.847
666	-0.904
667	-0.964
667	-1.025
668	-1.094
668	-1.165
669	-1.234
669	-1.302
669	-1.373
670	-1.428
670	-1.428
671	-1.475
671	-1.721
672	-2.049
672	-2.284
672	-2.438
673	-2.546
673	-2.637
674	-2.718
674	-2.749
675	-2.777
675	-2.922
676	-3.134
676	-3.119
676	-2.904
677	-2.713
677	-2.572
678	-2.436
678	-2.237
679	-1.874
679	-1.651
680	-1.535
680	-1.444
680	-1.366
681	-1.315
681	-1.252
682	-1.212
682	-1.174
683	-1.139
683	-1.122
684	-1.101
684	-1.083
684	-1.062
685	-1.039
685	-1.018
686	-0.994
686	-0.979
687	-0.954
687	-0.944
687	-0.924
688	-0.899
688	-0.878
689	-0.858
689	-0.845
690	-0.827
690	-0.815
691	-0.81
691	-0.817
691	-0.832
692	-0.824
692	-0.814
693	-0.81
693	-0.819
694	-0.815
694	-0.81
695	-0.814
695	-0.812
695	-0.796
696	-0.792
696	-0.772
697	-0.772
697	-0.789
698	-0.792
698	-0.783
698	-0.796
699	-0.799
699	-0.798
700	-0.789
700	-0.804
701	-0.804
701	-0.808
702	-0.809
702	-0.798
702	-0.791
703	-0.784
703	-0.777
704	-0.771
704	-0.771
705	-0.784
705	-0.778
705	-0.766
706	-0.768
706	-0.763
707	-0.767
707	-0.762
708	-0.761
708	-0.753
709	-0.758
709	-0.759
709	-0.747
710	-0.755
710	-0.765
711	-0.755
711	-0.757
712	-0.757
712	-0.769
713	-0.766
713	-0.774
713	-0.764
714	-0.762
714	-0.764
715	-0.754
715	-0.741
716	-0.748
716	-0.749
716	-0.741
717	-0.744
717	-0.746
718	-0.737
718	-0.736
719	-0.744
719	-0.746
720	-0.741
720	-0.751
720	-0.746
721	-0.737
721	-0.738
722	-0.725
722	-0.716
723	-0.714
723	-0.723
723	-0.708
724	-0.709
724	-0.716
725	-0.713
725	-0.721
726	-0.732
726	-0.738
727	-0.742
727	-0.758
727	-0.766
728	-0.764
728	-0.772
729	-0.772
729	-0.775
730	-0.783
730	-0.778
730	-0.769
731	-0.752
731	-0.762
732	-0.767
732	-0.767
733	-0.765
733	-0.771
734	-0.766
734	-0.766
734	-0.751
735	-0.748
735	-0.749
736	-0.76
736	-0.745
737	-0.737
737	-0.738
737	-0.748
738	-0.741
738	-0.741
739	-0.741
739	-0.755
740	-0.753
740	-0.754
741	-0.75
741	-0.751
741	-0.752
742	-0.749
742	-0.751
743	-0.759
743	-0.764
744	-0.76
744	-0.75
744	-0.751
745	-0.757
745	-0.749
746	-0.748
746	-0.748
747	-0.75
747	-0.737
748	-0.724
748	-0.73
748	-0.731
749	-0.729
749	-0.731
750	-0.719
750	-0.721
751	-0.724
751	-0.733
751	-0.735
752	-0.74
752	-0.751
753	-0.745
753	-0.742
754	-0.747
754	-0.74
754	-0.757
755	-0.771
755	-0.781
756	-0.77
756	-0.768
757	-0.764
757	-0.758
758	-0.761
758	-0.759
758	-0.762
759	-0.768
759	-0.751
760	-0.746
760	-0.742
761	-0.752
761	-0.749
761	-0.748
762	-0.755
762	-0.753
763	-0.763
763	-0.76
764	-0.761
764	-0.769
764	-0.774
765	-0.764
765	-0.751
766	-0.758
766	-0.766
767	-0.781
767	-0.775
768	-0.763
768	-0.772
768	-0.776
769	-0.794
769	-0.796
770	-0.801
770	-0.814
771	-0.812
771	-0.814
771	-0.816
772	-0.82
772	-0.821
773	-0.821
773	-0.815
774	-0.812
774	-0.813
775	-0.815
775	-0.808
775	-0.816
776	-0.816
776	-0.807
777	-0.816
777	-0.834
778	-0.83
778	-0.85
778	-0.839
779	-0.863
779	-0.87
780	-0.884
780	-0.882
781	-0.893
781	-0.888
781	-0.904
782	-0.904
782	-0.907
783	-0.892
783	-0.889
784	-0.867
784	-0.858
784	-0.866
785	-0.872
785	-0.857
786	-0.864
786	-0.839
787	-0.826
787	-0.827
788	-0.83
788	-0.841
788	-0.853
789	-0.854
789	-0.836
790	-0.819
790	-0.823
791	-0.823
791	-0.841
791	-0.848
792	-0.844
792	-0.821
793	-0.811
793	-0.786
794	-0.791
794	-0.783
794	-0.791
795	-0.787
795	-0.778
796	-0.763
796	-0.77
797	-0.763
797	-0.775
797	-0.784
798	-0.796
798	-0.789
799	-0.801
799	-0.787
800	-0.791
800	-0.783
801	-0.79
801	-0.776
801	-0.785
802	-0.793
802	-0.793
803	-0.794
803	-0.806
804	-0.8
804	-0.81
804	-0.799
805	-0.806
805	-0.792
806	-0.795
806	-0.78
807	-0.779
807	-0.76
807	-0.748
808	-0.738
808	-0.731
809	-0.717
809	-0.726
810	-0.722
810	-0.716
810	-0.711
811	-0.718
811	-0.708
812	-0.71
812	-0.714
813	-0.719
813	-0.716
813	-0.722
814	-0.723
814	-0.727
815	-0.732
815	-0.737
816	-0.731
816	-0.735
817	-0.743
817	-0.761
817	-0.776
818	-0.782
818	-0.785
819	-0.778
819	-0.78
820	-0.787
820	-0.784
820	-0.795
821	-0.792
821	-0.779
822	-0.746
822	-0.72
823	-0.717
823	-0.72
823	-0.716
824	-0.71
824	-0.713
825	-0.705
825	-0.686
826	-0.682
826	-0.69
826	-0.7
827	-0.696
827	-0.691
828	-0.669
828	-0.67
829	-0.659
829	-0.646
829	-0.638
830	-0.647
830	-0.644
831	-0.636
831	-0.625
832	-0.623
832	-0.616
832	-0.624
833	-0.62
833	-0.621
834	-0.618
834	-0.625
835	-0.611
835	-0.606
835	-0.602
836	-0.599
836	-0.597
837	-0.595
837	-0.587
838	-0.577
838	-0.566
839	-0.554
839	-0.54
839	-0.532
840	-0.519
840	-0.516
841	-0.505
841	-0.497
842	-0.489
842	-0.477
842	-0.471
843	-0.463
843	-0.459
844	-0.45
844	-0.442
845	-0.435
845	-0.423
845	-0.408
846	-0.397
846	-0.383
847	-0.371
847	-0.357
848	-0.346
848	-0.333
848	-0.318
849	-0.306
849	-0.296
850	-0.283
850	-0.277
851	-0.267
851	-0.256
851	-0.247
852	-0.232
852	-0.219
853	-0.211
853	-0.205
854	-0.193
854	-0.178
854	-0.167
855	-0.156
855	-0.149
856	-0.137
856	-0.128
857	-0.119
857	-0.111
857	-0.098
858	-0.085
858	-0.079
859	-0.071
859	-0.059
860	-0.05
860	-0.037
860	-0.029
861	-0.021
861	-0.012
862	-0.005
862	0.003
863	0.009
863	0.018
863	0.024
864	0.028
864	0.034
865	0.04
865	0.044
866	0.05
866	0.053
866	0.057
867	0.06
867	0.065
868	0.068
868	0.072
869	0.076
869	0.079
869	0.081
870	0.084
870	0.086
871	0.088
871	0.089
872	0.09
872	0.09
872	0.09
873	0.089
873	0.089
874	0.088
874	0.087
875	0.086
875	0.085
875	0.084
876	0.083
876	0.082
877	0.081
877	0.08
878	0.079
878	0.078
878	0.077
879	0.076
879	0.075
880	0.074
880	0.074
881	0.074
881	0.074
881	0.074
882	0.074
882	0.073
883	0.072
883	0.071
884	0.071
884	0.071
884	0.07
885	0.07
885	0.069
886	0.069
886	0.068
887	0.067
887	0.067
887	0.066
888	0.066
888	0.066
889	0.066
889	0.066
890	0.065
890	0.065
890	0.064
891	0.064
891	0.064
892	0.065
892	0.066
893	0.066
893	0.067
893	0.068
894	0.068
894	0.069
895	0.07
895	0.07
895	0.071
896	0.071
896	0.07
897	0.069
897	0.069
898	0.068
898	0.067
898	0.067
899	0.066
899	0.066
900	0.066
900	0.065
901	0.066
901	0.066
901	0.066
902	0.067
902	0.068
903	0.069
903	0.069
904	0.071
904	0.072
904	0.073
905	0.075
905	0.076
906	0.076
906	0.077
907	0.078
907	0.078
907	0.079
908	0.079
908	0.078
909	0.078
909	0.078
910	0.077
910	0.077
910	0.077
911	0.077
911	0.077
912	0.078
912	0.078
913	0.078
913	0.078
913	0.078
914	0.078
914	0.078
915	0.077
915	0.076
916	0.076
916	0.075
916	0.074
917	0.073
917	0.073
918	0.072
918	0.071
918	0.071
919	0.071
919	0.07
920	0.07
920	0.07
921	0.07
921	0.071
921	0.071
922	0.072
922	0.072
923	0.073
923	0.074
924	0.075
924	0.076
924	0.076
925	0.077
925	0.077
926	0.077
926	0.076
927	0.076
927	0.075
927	0.074
928	0.074
928	0.072
929	0.071
929	0.071
930	0.069
930	0.069
930	0.068
931	0.068
931	0.067
932	0.067
932	0.067
933	0.067
933	0.066
933	0.065
934	0.065
934	0.064
935	0.063
935	0.062
935	0.061
936	0.06
936	0.058
937	0.057
937	0.056
938	0.056
938	0.056
938	0.056
939	0.056
939	0.056
940	0.057
940	0.057
941	0.058
941	0.058
941	0.059
942	0.059
942	0.059
943	0.059
943	0.058
944	0.058
944	0.058
944	0.057
945	0.057
945	0.056
946	0.056
946	0.055
946	0.055
947	0.055
947	0.054
948	0.054
948	0.054
949	0.054
949	0.054
949	0.054
950	0.054
950	0.053
951	0.053
951	0.053
952	0.052
952	0.052
952	0.051
953	0.051
953	0.051
954	0.051
954	0.051
955	0.051
955	0.051
955	0.052
956	0.052
956	0.052
957	0.052
957	0.053
957	0.053
958	0.054
958	0.055
959	0.055
959	0.055
960	0.055
960	0.055
960	0.056
961	0.056
961	0.056
962	0.056
962	0.056
963	0.056
963	0.055
963	0.055
964	0.054
964	0.054
965	0.054
965	0.053
966	0.053
966	0.052
966	0.052
967	0.052
967	0.052
968	0.052
968	0.053
968	0.053
969	0.054
969	0.055
970	0.056
970	0.057
971	0.058
971	0.059
971	0.06
972	0.06
972	0.06
973	0.06
973	0.06
974	0.059
974	0.059
974	0.058
975	0.056
975	0.055
976	0.053
976	0.052
976	0.051
977	0.05
977	0.048
978	0.047
978	0.046
979	0.045
979	0.044
979	0.043
980	0.042
980	0.042
981	0.041
981	0.041
982	0.04
982	0.04
982	0.039
983	0.039
983	0.039
984	0.039
984	0.039
984	0.039
985	0.04
985	0.04
986	0.04
986	0.041
987	0.042
987	0.042
987	0.042
988	0.042
988	0.042
989	0.041
989	0.04
990	0.04
990	0.039
990	0.039
991	0.038
991	0.038
992	0.038
992	0.038
992	0.038
993	0.038
993	0.039
994	0.04
994	0.04
995	0.041
995	0.041
995	0.042
996	0.042
996	0.042
997	0.043
997	0.043
997	0.044
998	0.044
998	0.045
999	0.046
999	0.046
1000	0.047
1000	0.047
1000	0.047
1001	0.047
1001	0.047
1002	0.047
1002	0.046
1003	0.045
1003	0.044
1003	0.043
1004	0.041
1004	0.039
1005	0.037
1005	0.035
1005	0.033
1006	0.031
1006	0.03
1007	0.028
1007	0.027
1008	0.026
1008	0.025
1008	0.025
1009	0.025
1009	0.026
1010	0.027
1010	0.028
1010	0.028
1011	0.029
1011	0.029
1012	0.03
1012	0.03
1013	0.03
1013	0.03
1013	0.03
1014	0.03
1014	0.03
1015	0.03
1015	0.03
1016	0.03
1016	0.03
1016	0.03
1017	0.03
1017	0.031
1018	0.031
1018	0.031
1018	0.031
1019	0.031
1019	0.031
1020	0.03
1020	0.03
1021	0.029
1021	0.028
1021	0.027
1022	0.026
1022	0.026
1023	0.025
1023	0.025
1023	0.024
1024	0.024
1024	0.023
1025	0.023
1025	0.024
1026	0.024
1026	0.025
1026	0.025
1027	0.025
1027	0.025
1028	0.026
1028	0.026
1028	0.026
1029	0.026
1029	0.026
1030	0.026
1030	0.026
1031	0.026
1031	0.026
1031	0.026
1032	0.026
1032	0.026
1033	0.026
1033	0.026
1033	0.026
1034	0.026
1034	0.025
1035	0.025
1035	0.024
1036	0.024
1036	0.023
1036	0.023
1037	0.023
1037	0.022
1038	0.022
1038	0.022
1039	0.023
1039	0.023
1039	0.024
1040	0.025
1040	0.026
1041	0.026
1041	0.027
1041	0.028
1042	0.028
1042	0.028
1043	0.029
1043	0.029
1044	0.029
1044	0.028
1044	0.028
1045	0.028
1045	0.028
1046	0.028
1046	0.028
1046	0.029
1047	0.029
1047	0.03
1048	0.031
1048	0.031
1049	0.032
1049	0.032
1049	0.033
1050	0.033
1050	0.033
1051	0.032
1051	0.032
1051	0.032
1052	0.032
1052	0.031
1053	0.03
1053	0.029
1053	0.028
1054	0.027
1054	0.026
1055	0.025
1055	0.024
1056	0.022
1056	0.02
1056	0.018
1057	0.016
1057	0.015
1058	0.014
1058	0.013
1058	0.012
1059	0.011
1059	0.01
1060	0.009
1060	0.009
1061	0.009
1061	0.008
1061	0.008
1062	0.008
1062	0.007
1063	0.007
1063	0.007
1063	0.007
1064	0.008
1064	0.008
1065	0.008
1065	0.008
1066	0.007
1066	0.008
1066	0.008
1067	0.008
1067	0.008
1068	0.008
1068	0.009
1068	0.008
1069	0.008
1069	0.008
1070	0.007
1070	0.008
1071	0.007
1071	0.007
1071	0.006
1072	0.007
1072	0.007
1073	0.006
1073	0.007
1073	0.007
1074	0.007
1074	0.008
1075	0.008
1075	0.007
1076	0.007
1076	0.007
1076	0.006
1077	0.005
1077	0.004
1078	0.003
1078	0.002
1078	0
1079	-0.001
1079	-0.002
1080	-0.004
1080	-0.004
1080	-0.006
1081	-0.007
1081	-0.007
1082	-0.008
1082	-0.009
1083	-0.01
1083	-0.01
1083	-0.011
1084	-0.011
1084	-0.012
1085	-0.013
1085	-0.013
1085	-0.013
1086	-0.013
1086	-0.014
1087	-0.014
1087	-0.014
1088	-0.015
1088	-0.015
1088	-0.015
1089	-0.017
1089	-0.017
1090	-0.018
1090	-0.018
1090	-0.019
1091	-0.019
1091	-0.019
1092	-0.02
1092	-0.019
1092	-0.02
1093	-0.02
1093	-0.019
1094	-0.019
1094	-0.019
1095	-0.02
1095	-0.02
1095	-0.02
1096	-0.022
1096	-0.022
1097	-0.023
1097	-0.024
1097	-0.025
1098	-0.027
1098	-0.028
1099	-0.03
1099	-0.03
1100	-0.031
1100	-0.033
1100	-0.036
1101	-0.039
1101	-0.042
1102	-0.044
1102	-0.047
1102	-0.047
1103	-0.051
1103	-0.053
1104	-0.056
1104	-0.059
1104	-0.061
1105	-0.063
1105	-0.067
1106	-0.071
1106	-0.074
1107	-0.079
1107	-0.083
1107	-0.088
1108	-0.091
1108	-0.093
1109	-0.097
1109	-0.103
1109	-0.105
1110	-0.108
1110	-0.109
1111	-0.116
1111	-0.115
