Data from 17C_3.4A_35min_2sec_int_Absorbance__1__04086.txt Node

Date: Mon Jun 19 19:41:14 CEST 2023
User: Marek
Spectrometer: MAYP115816
Trigger mode: 0
Integration Time (sec): 2.500000E-1
Scans to average: 10
Electric dark correction enabled: true
Nonlinearity correction enabled: true
Boxcar width: 5
XAxis mode: Wavelengths
Number of Pixels in Spectrum: 2068
>>>>>Begin Spectral Data<<<<<
199	-0.768
199	-0.784
200	-0.684
200	-0.628
201	-0.588
201	-0.574
202	-0.556
202	-0.539
203	-0.53
203	-0.525
204	-0.51
204	-0.495
205	-0.471
205	-0.464
205	-0.461
206	-0.464
206	-0.466
207	-0.456
207	-0.461
208	-0.463
208	-0.463
209	-0.457
209	-0.457
210	-0.46
210	-0.466
211	-0.469
211	-0.472
212	-0.475
212	-0.484
213	-0.481
213	-0.483
213	-0.488
214	-0.483
214	-0.483
215	-0.481
215	-0.486
216	-0.489
216	-0.496
217	-0.493
217	-0.498
218	-0.499
218	-0.5
219	-0.503
219	-0.514
220	-0.52
220	-0.533
221	-0.53
221	-0.531
221	-0.524
222	-0.518
222	-0.517
223	-0.523
223	-0.523
224	-0.529
224	-0.531
225	-0.523
225	-0.517
226	-0.524
226	-0.525
227	-0.53
227	-0.542
228	-0.545
228	-0.545
229	-0.546
229	-0.536
229	-0.531
230	-0.536
230	-0.538
231	-0.531
231	-0.523
232	-0.517
232	-0.513
233	-0.506
233	-0.505
234	-0.505
234	-0.503
235	-0.505
235	-0.512
236	-0.511
236	-0.514
236	-0.521
237	-0.53
237	-0.532
238	-0.54
238	-0.538
239	-0.537
239	-0.546
240	-0.545
240	-0.542
241	-0.547
241	-0.546
242	-0.55
242	-0.544
243	-0.539
243	-0.539
243	-0.547
244	-0.546
244	-0.544
245	-0.558
245	-0.558
246	-0.563
246	-0.569
247	-0.571
247	-0.576
248	-0.583
248	-0.581
249	-0.586
249	-0.593
250	-0.591
250	-0.587
250	-0.586
251	-0.582
251	-0.584
252	-0.586
252	-0.579
253	-0.581
253	-0.591
254	-0.587
254	-0.588
255	-0.596
255	-0.59
256	-0.589
256	-0.6
257	-0.595
257	-0.591
258	-0.606
258	-0.603
258	-0.599
259	-0.598
259	-0.607
260	-0.607
260	-0.613
261	-0.625
261	-0.616
262	-0.613
262	-0.614
263	-0.603
263	-0.597
264	-0.596
264	-0.603
265	-0.598
265	-0.605
265	-0.605
266	-0.602
266	-0.6
267	-0.612
267	-0.62
268	-0.636
268	-0.646
269	-0.645
269	-0.639
270	-0.643
270	-0.646
271	-0.646
271	-0.65
272	-0.653
272	-0.649
272	-0.641
273	-0.64
273	-0.648
274	-0.652
274	-0.657
275	-0.659
275	-0.651
276	-0.658
276	-0.652
277	-0.656
277	-0.673
278	-0.686
278	-0.681
278	-0.677
279	-0.684
279	-0.694
280	-0.689
280	-0.69
281	-0.683
281	-0.691
282	-0.684
282	-0.685
283	-0.673
283	-0.673
284	-0.668
284	-0.655
285	-0.649
285	-0.647
285	-0.645
286	-0.654
286	-0.644
287	-0.64
287	-0.624
288	-0.616
288	-0.626
289	-0.638
289	-0.649
290	-0.639
290	-0.637
291	-0.633
291	-0.626
292	-0.63
292	-0.638
292	-0.643
293	-0.648
293	-0.636
294	-0.626
294	-0.613
295	-0.613
295	-0.61
296	-0.607
296	-0.607
297	-0.6
297	-0.582
298	-0.574
298	-0.582
298	-0.569
299	-0.561
299	-0.564
300	-0.559
300	-0.556
301	-0.554
301	-0.552
302	-0.56
302	-0.571
303	-0.558
303	-0.544
304	-0.549
304	-0.548
305	-0.548
305	-0.548
305	-0.546
306	-0.529
306	-0.522
307	-0.51
307	-0.508
308	-0.523
308	-0.521
309	-0.523
309	-0.513
310	-0.501
310	-0.497
311	-0.488
311	-0.498
311	-0.495
312	-0.49
312	-0.489
313	-0.472
313	-0.474
314	-0.471
314	-0.471
315	-0.471
315	-0.468
316	-0.464
316	-0.455
317	-0.446
317	-0.442
318	-0.43
318	-0.43
318	-0.425
319	-0.414
319	-0.41
320	-0.403
320	-0.405
321	-0.409
321	-0.406
322	-0.401
322	-0.396
323	-0.395
323	-0.389
324	-0.381
324	-0.372
324	-0.363
325	-0.354
325	-0.334
326	-0.318
326	-0.299
327	-0.28
327	-0.257
328	-0.227
328	-0.203
329	-0.176
329	-0.149
330	-0.116
330	-0.08
330	-0.05
331	-0.016
331	0.017
332	0.046
332	0.074
333	0.101
333	0.131
334	0.155
334	0.177
335	0.199
335	0.217
336	0.236
336	0.254
336	0.268
337	0.283
337	0.296
338	0.308
338	0.316
339	0.327
339	0.336
340	0.343
340	0.348
341	0.354
341	0.359
342	0.364
342	0.369
342	0.373
343	0.376
343	0.38
344	0.382
344	0.384
345	0.386
345	0.388
346	0.389
346	0.39
347	0.391
347	0.393
348	0.393
348	0.394
348	0.394
349	0.394
349	0.395
350	0.395
350	0.396
351	0.396
351	0.396
352	0.396
352	0.395
353	0.396
353	0.396
354	0.395
354	0.395
354	0.395
355	0.395
355	0.395
356	0.395
356	0.394
357	0.394
357	0.394
358	0.393
358	0.393
359	0.393
359	0.392
360	0.392
360	0.391
360	0.391
361	0.391
361	0.39
362	0.39
362	0.39
363	0.39
363	0.389
364	0.389
364	0.389
365	0.389
365	0.388
366	0.388
366	0.388
366	0.388
367	0.387
367	0.387
368	0.387
368	0.386
369	0.386
369	0.385
370	0.385
370	0.384
371	0.384
371	0.384
372	0.383
372	0.383
372	0.383
373	0.382
373	0.382
374	0.382
374	0.382
375	0.381
375	0.381
376	0.38
376	0.38
377	0.38
377	0.379
378	0.379
378	0.378
378	0.378
379	0.378
379	0.377
380	0.376
380	0.376
381	0.375
381	0.375
382	0.374
382	0.374
383	0.373
383	0.372
383	0.372
384	0.371
384	0.371
385	0.37
385	0.37
386	0.37
386	0.37
387	0.369
387	0.369
388	0.368
388	0.368
389	0.368
389	0.368
389	0.367
390	0.367
390	0.366
391	0.366
391	0.366
392	0.365
392	0.365
393	0.364
393	0.364
394	0.363
394	0.362
394	0.362
395	0.361
395	0.361
396	0.36
396	0.36
397	0.359
397	0.359
398	0.359
398	0.359
399	0.359
399	0.358
400	0.358
400	0.357
400	0.357
401	0.357
401	0.356
402	0.356
402	0.355
403	0.355
403	0.354
404	0.354
404	0.353
405	0.353
405	0.352
405	0.352
406	0.352
406	0.351
407	0.351
407	0.35
408	0.35
408	0.35
409	0.349
409	0.349
410	0.349
410	0.348
411	0.349
411	0.348
411	0.348
412	0.348
412	0.348
413	0.348
413	0.347
414	0.347
414	0.347
415	0.346
415	0.346
416	0.346
416	0.345
416	0.345
417	0.345
417	0.345
418	0.344
418	0.345
419	0.344
419	0.344
420	0.344
420	0.344
421	0.344
421	0.344
421	0.344
422	0.344
422	0.344
423	0.343
423	0.343
424	0.342
424	0.342
425	0.342
425	0.341
426	0.341
426	0.341
427	0.34
427	0.34
427	0.34
428	0.34
428	0.34
429	0.339
429	0.339
430	0.339
430	0.339
431	0.339
431	0.339
432	0.339
432	0.338
432	0.338
433	0.338
433	0.338
434	0.338
434	0.338
435	0.338
435	0.338
436	0.338
436	0.338
437	0.338
437	0.338
437	0.338
438	0.338
438	0.338
439	0.338
439	0.338
440	0.338
440	0.338
441	0.337
441	0.337
442	0.337
442	0.337
442	0.337
443	0.337
443	0.337
444	0.337
444	0.337
445	0.337
445	0.337
446	0.338
446	0.338
447	0.338
447	0.339
447	0.339
448	0.339
448	0.339
449	0.339
449	0.339
450	0.34
450	0.34
451	0.34
451	0.34
452	0.34
452	0.34
452	0.34
453	0.341
453	0.341
454	0.341
454	0.341
455	0.341
455	0.341
456	0.341
456	0.341
457	0.342
457	0.342
458	0.343
458	0.343
458	0.343
459	0.344
459	0.344
460	0.344
460	0.345
461	0.345
461	0.345
462	0.346
462	0.346
463	0.347
463	0.348
463	0.348
464	0.349
464	0.349
465	0.35
465	0.351
466	0.352
466	0.352
467	0.353
467	0.354
467	0.354
468	0.355
468	0.355
469	0.356
469	0.357
470	0.358
470	0.359
471	0.36
471	0.36
472	0.361
472	0.362
472	0.363
473	0.364
473	0.365
474	0.366
474	0.367
475	0.368
475	0.369
476	0.37
476	0.371
477	0.372
477	0.373
477	0.374
478	0.375
478	0.376
479	0.378
479	0.379
480	0.38
480	0.382
481	0.384
481	0.385
482	0.387
482	0.389
482	0.39
483	0.393
483	0.394
484	0.396
484	0.397
485	0.399
485	0.401
486	0.403
486	0.404
487	0.406
487	0.408
487	0.41
488	0.412
488	0.415
489	0.418
489	0.421
490	0.424
490	0.426
491	0.429
491	0.432
492	0.434
492	0.437
492	0.44
493	0.442
493	0.445
494	0.448
494	0.451
495	0.453
495	0.456
496	0.459
496	0.463
496	0.466
497	0.469
497	0.472
498	0.475
498	0.479
499	0.482
499	0.486
500	0.49
500	0.494
501	0.497
501	0.5
501	0.504
502	0.507
502	0.51
503	0.514
503	0.518
504	0.521
504	0.525
505	0.529
505	0.532
506	0.536
506	0.54
506	0.543
507	0.547
507	0.55
508	0.554
508	0.558
509	0.561
509	0.565
510	0.569
510	0.573
511	0.576
511	0.58
511	0.583
512	0.587
512	0.591
513	0.594
513	0.598
514	0.601
514	0.604
515	0.608
515	0.61
515	0.613
516	0.616
516	0.619
517	0.622
517	0.625
518	0.627
518	0.629
519	0.632
519	0.634
520	0.636
520	0.638
520	0.641
521	0.642
521	0.645
522	0.646
522	0.648
523	0.65
523	0.652
524	0.653
524	0.653
524	0.654
525	0.654
525	0.655
526	0.655
526	0.655
527	0.655
527	0.655
528	0.655
528	0.654
529	0.654
529	0.654
529	0.654
530	0.653
530	0.653
531	0.652
531	0.651
532	0.649
532	0.648
533	0.646
533	0.644
533	0.643
534	0.64
534	0.637
535	0.634
535	0.632
536	0.629
536	0.625
537	0.622
537	0.618
538	0.615
538	0.611
538	0.608
539	0.605
539	0.602
540	0.598
540	0.594
541	0.59
541	0.587
542	0.583
542	0.578
542	0.573
543	0.569
543	0.564
544	0.559
544	0.555
545	0.55
545	0.546
546	0.541
546	0.536
547	0.531
547	0.526
547	0.522
548	0.517
548	0.512
549	0.508
549	0.503
550	0.498
550	0.493
551	0.488
551	0.483
551	0.478
552	0.474
552	0.469
553	0.465
553	0.46
554	0.455
554	0.45
555	0.445
555	0.44
556	0.435
556	0.429
556	0.425
557	0.42
557	0.415
558	0.409
558	0.404
559	0.398
559	0.393
560	0.387
560	0.382
560	0.377
561	0.373
561	0.368
562	0.363
562	0.358
563	0.353
563	0.349
564	0.345
564	0.34
564	0.336
565	0.332
565	0.328
566	0.324
566	0.319
567	0.315
567	0.311
568	0.306
568	0.301
568	0.297
569	0.293
569	0.288
570	0.283
570	0.278
571	0.275
571	0.271
572	0.267
572	0.263
573	0.259
573	0.255
573	0.251
574	0.248
574	0.245
575	0.242
575	0.239
576	0.236
576	0.232
577	0.228
577	0.226
577	0.223
578	0.221
578	0.219
579	0.217
579	0.214
580	0.21
580	0.206
581	0.203
581	0.2
581	0.198
582	0.196
582	0.194
583	0.192
583	0.189
584	0.185
584	0.182
585	0.18
585	0.178
585	0.176
586	0.174
586	0.172
587	0.17
587	0.167
588	0.165
588	0.163
589	0.161
589	0.16
590	0.158
590	0.156
590	0.155
591	0.153
591	0.15
592	0.148
592	0.146
593	0.144
593	0.143
594	0.141
594	0.139
594	0.138
595	0.137
595	0.135
596	0.133
596	0.133
597	0.133
597	0.131
598	0.129
598	0.128
598	0.126
599	0.124
599	0.122
600	0.121
600	0.119
601	0.118
601	0.116
602	0.114
602	0.113
602	0.111
603	0.111
603	0.111
604	0.11
604	0.11
605	0.11
605	0.109
606	0.108
606	0.107
606	0.106
607	0.104
607	0.103
608	0.102
608	0.1
609	0.099
609	0.098
610	0.097
610	0.095
610	0.095
611	0.095
611	0.096
612	0.096
612	0.096
613	0.096
613	0.096
614	0.094
614	0.093
614	0.092
615	0.091
615	0.09
616	0.089
616	0.088
617	0.086
617	0.085
618	0.083
618	0.083
618	0.082
619	0.082
619	0.082
620	0.082
620	0.082
621	0.081
621	0.081
622	0.08
622	0.079
622	0.079
623	0.078
623	0.078
624	0.078
624	0.077
625	0.077
625	0.077
626	0.076
626	0.076
626	0.076
627	0.077
627	0.076
628	0.076
628	0.076
629	0.075
629	0.074
630	0.073
630	0.073
630	0.072
631	0.072
631	0.071
632	0.07
632	0.07
633	0.069
633	0.069
634	0.069
634	0.068
634	0.068
635	0.067
635	0.066
636	0.066
636	0.065
637	0.064
637	0.063
638	0.062
638	0.061
638	0.06
639	0.059
639	0.058
640	0.057
640	0.056
641	0.056
641	0.055
642	0.054
642	0.053
642	0.051
643	0.05
643	0.049
644	0.047
644	0.046
645	0.044
645	0.042
646	0.041
646	0.039
646	0.037
647	0.035
647	0.033
648	0.03
648	0.028
649	0.026
649	0.023
650	0.02
650	0.016
650	0.012
651	0.007
651	0.002
652	-0.004
652	-0.011
653	-0.015
653	-0.02
653	-0.018
654	-0.017
654	-0.021
655	-0.026
655	-0.03
656	-0.034
656	-0.039
657	-0.042
657	-0.046
657	-0.051
658	-0.056
658	-0.073
659	-0.111
659	-0.149
660	-0.172
660	-0.187
661	-0.203
661	-0.222
661	-0.242
662	-0.258
662	-0.273
663	-0.291
663	-0.311
664	-0.329
664	-0.355
665	-0.376
665	-0.404
665	-0.429
666	-0.452
666	-0.479
667	-0.51
667	-0.543
668	-0.583
668	-0.63
669	-0.679
669	-0.73
669	-0.801
670	-0.969
670	-1.272
671	-1.58
671	-1.9
672	-2.158
672	-2.363
672	-2.456
673	-2.481
673	-2.496
674	-2.511
674	-2.524
675	-2.545
675	-2.67
676	-2.835
676	-2.729
676	-2.391
677	-1.92
677	-1.326
678	-0.98
678	-0.858
679	-0.793
679	-0.755
680	-0.732
680	-0.709
680	-0.69
681	-0.693
681	-0.675
682	-0.677
682	-0.668
683	-0.661
683	-0.676
684	-0.683
684	-0.688
684	-0.689
685	-0.688
685	-0.689
686	-0.678
686	-0.678
687	-0.667
687	-0.674
687	-0.67
688	-0.657
688	-0.649
689	-0.641
689	-0.636
690	-0.628
690	-0.624
691	-0.627
691	-0.639
691	-0.661
692	-0.659
692	-0.657
693	-0.656
693	-0.67
694	-0.669
694	-0.668
695	-0.678
695	-0.678
695	-0.667
696	-0.668
696	-0.648
697	-0.651
697	-0.669
698	-0.675
698	-0.669
698	-0.684
699	-0.69
699	-0.689
700	-0.682
700	-0.699
701	-0.699
701	-0.709
702	-0.711
702	-0.701
702	-0.696
703	-0.691
703	-0.685
704	-0.682
704	-0.682
705	-0.696
705	-0.69
705	-0.678
706	-0.681
706	-0.678
707	-0.685
707	-0.683
708	-0.681
708	-0.675
709	-0.682
709	-0.685
709	-0.677
710	-0.688
710	-0.7
711	-0.69
711	-0.692
712	-0.692
712	-0.706
713	-0.708
713	-0.717
713	-0.706
714	-0.705
714	-0.704
715	-0.695
715	-0.681
716	-0.692
716	-0.695
716	-0.685
717	-0.686
717	-0.686
718	-0.676
718	-0.678
719	-0.684
719	-0.686
720	-0.682
720	-0.694
720	-0.687
721	-0.674
721	-0.678
722	-0.666
722	-0.658
723	-0.658
723	-0.661
723	-0.649
724	-0.653
724	-0.656
725	-0.655
725	-0.664
726	-0.677
726	-0.682
727	-0.689
727	-0.704
727	-0.711
728	-0.713
728	-0.722
729	-0.721
729	-0.727
730	-0.735
730	-0.727
730	-0.719
731	-0.702
731	-0.713
732	-0.718
732	-0.721
733	-0.719
733	-0.721
734	-0.717
734	-0.716
734	-0.703
735	-0.702
735	-0.704
736	-0.715
736	-0.7
737	-0.692
737	-0.692
737	-0.702
738	-0.699
738	-0.698
739	-0.696
739	-0.709
740	-0.707
740	-0.707
741	-0.704
741	-0.705
741	-0.71
742	-0.707
742	-0.708
743	-0.717
743	-0.722
744	-0.722
744	-0.71
744	-0.71
745	-0.717
745	-0.709
746	-0.71
746	-0.705
747	-0.707
747	-0.693
748	-0.68
748	-0.686
748	-0.685
749	-0.684
749	-0.687
750	-0.676
750	-0.677
751	-0.681
751	-0.689
751	-0.692
752	-0.697
752	-0.707
753	-0.703
753	-0.7
754	-0.707
754	-0.7
754	-0.713
755	-0.73
755	-0.74
756	-0.731
756	-0.728
757	-0.726
757	-0.722
758	-0.722
758	-0.72
758	-0.722
759	-0.731
759	-0.715
760	-0.707
760	-0.703
761	-0.713
761	-0.712
761	-0.714
762	-0.721
762	-0.72
763	-0.729
763	-0.726
764	-0.724
764	-0.732
764	-0.739
765	-0.73
765	-0.717
766	-0.722
766	-0.728
767	-0.741
767	-0.737
768	-0.729
768	-0.738
768	-0.742
769	-0.76
769	-0.762
770	-0.766
770	-0.777
771	-0.776
771	-0.779
771	-0.781
772	-0.785
772	-0.782
773	-0.781
773	-0.777
774	-0.775
774	-0.774
775	-0.777
775	-0.773
775	-0.783
776	-0.781
776	-0.77
777	-0.777
777	-0.796
778	-0.794
778	-0.812
778	-0.8
779	-0.823
779	-0.831
780	-0.844
780	-0.84
781	-0.85
781	-0.844
781	-0.858
782	-0.858
782	-0.86
783	-0.846
783	-0.845
784	-0.823
784	-0.812
784	-0.819
785	-0.827
785	-0.814
786	-0.822
786	-0.802
787	-0.79
787	-0.793
788	-0.798
788	-0.808
788	-0.82
789	-0.822
789	-0.808
790	-0.788
790	-0.792
791	-0.792
791	-0.811
791	-0.817
792	-0.81
792	-0.787
793	-0.777
793	-0.755
794	-0.759
794	-0.75
794	-0.76
795	-0.756
795	-0.748
796	-0.733
796	-0.74
797	-0.735
797	-0.749
797	-0.755
798	-0.769
798	-0.763
799	-0.775
799	-0.761
800	-0.767
800	-0.763
801	-0.768
801	-0.754
801	-0.764
802	-0.771
802	-0.77
803	-0.771
803	-0.78
804	-0.775
804	-0.786
804	-0.772
805	-0.775
805	-0.764
806	-0.769
806	-0.753
807	-0.751
807	-0.733
807	-0.72
808	-0.711
808	-0.703
809	-0.689
809	-0.7
810	-0.7
810	-0.692
810	-0.688
811	-0.695
811	-0.688
812	-0.69
812	-0.696
813	-0.7
813	-0.698
813	-0.704
814	-0.706
814	-0.707
815	-0.713
815	-0.716
816	-0.71
816	-0.713
817	-0.72
817	-0.738
817	-0.752
818	-0.759
818	-0.76
819	-0.751
819	-0.754
820	-0.762
820	-0.758
820	-0.767
821	-0.767
821	-0.756
822	-0.723
822	-0.7
823	-0.698
823	-0.7
823	-0.697
824	-0.692
824	-0.696
825	-0.688
825	-0.67
826	-0.665
826	-0.672
826	-0.682
827	-0.678
827	-0.672
828	-0.651
828	-0.653
829	-0.642
829	-0.625
829	-0.619
830	-0.63
830	-0.627
831	-0.62
831	-0.61
832	-0.606
832	-0.6
832	-0.607
833	-0.6
833	-0.605
834	-0.605
834	-0.612
835	-0.598
835	-0.594
835	-0.589
836	-0.588
836	-0.588
837	-0.585
837	-0.576
838	-0.568
838	-0.554
839	-0.54
839	-0.529
839	-0.522
840	-0.512
840	-0.51
841	-0.499
841	-0.49
842	-0.483
842	-0.475
842	-0.468
843	-0.465
843	-0.461
844	-0.452
844	-0.445
845	-0.436
845	-0.426
845	-0.413
846	-0.403
846	-0.39
847	-0.38
847	-0.369
848	-0.357
848	-0.346
848	-0.331
849	-0.322
849	-0.312
850	-0.298
850	-0.292
851	-0.284
851	-0.275
851	-0.268
852	-0.254
852	-0.243
853	-0.235
853	-0.229
854	-0.217
854	-0.205
854	-0.195
855	-0.185
855	-0.178
856	-0.17
856	-0.16
857	-0.155
857	-0.147
857	-0.137
858	-0.127
858	-0.121
859	-0.114
859	-0.105
860	-0.097
860	-0.085
860	-0.078
861	-0.072
861	-0.064
862	-0.059
862	-0.053
863	-0.048
863	-0.041
863	-0.037
864	-0.033
864	-0.028
865	-0.023
865	-0.02
866	-0.016
866	-0.013
866	-0.01
867	-0.007
867	-0.004
868	-0.002
868	0.001
869	0.003
869	0.005
869	0.007
870	0.009
870	0.011
871	0.014
871	0.015
872	0.017
872	0.018
872	0.019
873	0.02
873	0.02
874	0.02
874	0.02
875	0.019
875	0.019
875	0.017
876	0.016
876	0.015
877	0.014
877	0.012
878	0.011
878	0.009
878	0.007
879	0.006
879	0.005
880	0.004
880	0.004
881	0.004
881	0.004
881	0.004
882	0.004
882	0.003
883	0.002
883	0.001
884	0
884	-0.001
884	-0.001
885	-0.002
885	-0.002
886	-0.002
886	-0.003
887	-0.003
887	-0.003
887	-0.002
888	-0.002
888	-0.001
889	-0.001
889	0
890	0
890	0.001
890	0.001
891	0.001
891	0.001
892	0.002
892	0.003
893	0.003
893	0.003
893	0.003
894	0.003
894	0.003
895	0.003
895	0.003
895	0.003
896	0.002
896	0.001
897	0
897	-0.001
898	-0.002
898	-0.003
898	-0.003
899	-0.003
899	-0.002
900	-0.002
900	-0.002
901	-0.001
901	0
901	0.001
902	0.002
902	0.003
903	0.003
903	0.004
904	0.004
904	0.004
904	0.005
905	0.005
905	0.006
906	0.006
906	0.006
907	0.006
907	0.006
907	0.006
908	0.006
908	0.005
909	0.005
909	0.004
910	0.004
910	0.004
910	0.004
911	0.004
911	0.005
912	0.005
912	0.006
913	0.006
913	0.007
913	0.008
914	0.009
914	0.01
915	0.01
915	0.011
916	0.011
916	0.011
916	0.011
917	0.012
917	0.012
918	0.011
918	0.011
918	0.011
919	0.01
919	0.01
920	0.01
920	0.01
921	0.01
921	0.01
921	0.009
922	0.009
922	0.009
923	0.009
923	0.009
924	0.009
924	0.008
924	0.008
925	0.007
925	0.007
926	0.006
926	0.006
927	0.005
927	0.005
927	0.005
928	0.005
928	0.004
929	0.004
929	0.004
930	0.004
930	0.003
930	0.003
931	0.003
931	0.003
932	0.003
932	0.002
933	0.001
933	0
933	-0.001
934	-0.002
934	-0.003
935	-0.004
935	-0.004
935	-0.005
936	-0.006
936	-0.007
937	-0.008
937	-0.008
938	-0.008
938	-0.008
938	-0.008
939	-0.008
939	-0.007
940	-0.007
940	-0.006
941	-0.006
941	-0.005
941	-0.004
942	-0.003
942	-0.002
943	-0.001
943	-0.001
944	-0.001
944	-0.001
944	-0.002
945	-0.002
945	-0.002
946	-0.003
946	-0.005
946	-0.005
947	-0.006
947	-0.007
948	-0.007
948	-0.007
949	-0.007
949	-0.007
949	-0.006
950	-0.006
950	-0.005
951	-0.004
951	-0.004
952	-0.003
952	-0.002
952	-0.001
953	0.001
953	0.002
954	0.003
954	0.004
955	0.005
955	0.007
955	0.008
956	0.009
956	0.01
957	0.01
957	0.011
957	0.011
958	0.012
958	0.013
959	0.013
959	0.014
960	0.014
960	0.014
960	0.015
961	0.015
961	0.016
962	0.016
962	0.016
963	0.016
963	0.016
963	0.016
964	0.016
964	0.016
965	0.016
965	0.016
966	0.015
966	0.015
966	0.015
967	0.015
967	0.014
968	0.014
968	0.013
968	0.013
969	0.012
969	0.012
970	0.012
970	0.011
971	0.011
971	0.011
971	0.011
972	0.011
972	0.011
973	0.011
973	0.011
974	0.011
974	0.011
974	0.011
975	0.011
975	0.011
976	0.01
976	0.01
976	0.01
977	0.01
977	0.01
978	0.01
978	0.01
979	0.01
979	0.009
979	0.009
980	0.009
980	0.008
981	0.008
981	0.008
982	0.008
982	0.008
982	0.008
983	0.008
983	0.008
984	0.007
984	0.008
984	0.008
985	0.008
985	0.008
986	0.008
986	0.007
987	0.007
987	0.006
987	0.006
988	0.005
988	0.004
989	0.003
989	0.002
990	0.001
990	0
990	-0
991	-0.001
991	-0.001
992	-0.002
992	-0.002
992	-0.002
993	-0.002
993	-0.002
994	-0.002
994	-0.003
995	-0.003
995	-0.003
995	-0.004
996	-0.004
996	-0.005
997	-0.005
997	-0.006
997	-0.006
998	-0.006
998	-0.006
999	-0.006
999	-0.006
1000	-0.005
1000	-0.005
1000	-0.005
1001	-0.004
1001	-0.004
1002	-0.004
1002	-0.004
1003	-0.004
1003	-0.005
1003	-0.005
1004	-0.005
1004	-0.006
1005	-0.007
1005	-0.008
1005	-0.009
1006	-0.01
1006	-0.011
1007	-0.012
1007	-0.013
1008	-0.014
1008	-0.015
1008	-0.015
1009	-0.015
1009	-0.015
1010	-0.015
1010	-0.015
1010	-0.015
1011	-0.014
1011	-0.014
1012	-0.014
1012	-0.014
1013	-0.014
1013	-0.014
1013	-0.015
1014	-0.015
1014	-0.016
1015	-0.017
1015	-0.017
1016	-0.018
1016	-0.019
1016	-0.019
1017	-0.02
1017	-0.021
1018	-0.022
1018	-0.022
1018	-0.023
1019	-0.024
1019	-0.025
1020	-0.025
1020	-0.026
1021	-0.027
1021	-0.028
1021	-0.028
1022	-0.029
1022	-0.029
1023	-0.03
1023	-0.03
1023	-0.03
1024	-0.03
1024	-0.031
1025	-0.031
1025	-0.03
1026	-0.03
1026	-0.029
1026	-0.029
1027	-0.029
1027	-0.028
1028	-0.028
1028	-0.028
1028	-0.028
1029	-0.028
1029	-0.028
1030	-0.029
1030	-0.029
1031	-0.03
1031	-0.03
1031	-0.03
1032	-0.03
1032	-0.03
1033	-0.03
1033	-0.03
1033	-0.029
1034	-0.029
1034	-0.029
1035	-0.029
1035	-0.029
1036	-0.029
1036	-0.029
1036	-0.029
1037	-0.029
1037	-0.029
1038	-0.029
1038	-0.028
1039	-0.028
1039	-0.027
1039	-0.027
1040	-0.026
1040	-0.025
1041	-0.025
1041	-0.024
1041	-0.024
1042	-0.024
1042	-0.024
1043	-0.024
1043	-0.024
1044	-0.025
1044	-0.025
1044	-0.026
1045	-0.027
1045	-0.028
1046	-0.029
1046	-0.029
1046	-0.029
1047	-0.029
1047	-0.029
1048	-0.029
1048	-0.029
1049	-0.029
1049	-0.029
1049	-0.028
1050	-0.028
1050	-0.027
1051	-0.027
1051	-0.027
1051	-0.026
1052	-0.026
1052	-0.026
1053	-0.026
1053	-0.026
1053	-0.026
1054	-0.026
1054	-0.026
1055	-0.026
1055	-0.027
1056	-0.028
1056	-0.029
1056	-0.03
1057	-0.03
1057	-0.031
1058	-0.031
1058	-0.032
1058	-0.032
1059	-0.033
1059	-0.034
1060	-0.034
1060	-0.034
1061	-0.034
1061	-0.034
1061	-0.034
1062	-0.034
1062	-0.035
1063	-0.034
1063	-0.034
1063	-0.034
1064	-0.033
1064	-0.033
1065	-0.033
1065	-0.033
1066	-0.033
1066	-0.033
1066	-0.033
1067	-0.033
1067	-0.033
1068	-0.034
1068	-0.034
1068	-0.035
1069	-0.035
1069	-0.036
1070	-0.036
1070	-0.036
1071	-0.037
1071	-0.037
1071	-0.037
1072	-0.038
1072	-0.038
1073	-0.038
1073	-0.038
1073	-0.038
1074	-0.038
1074	-0.038
1075	-0.038
1075	-0.038
1076	-0.039
1076	-0.039
1076	-0.039
1077	-0.04
1077	-0.04
1078	-0.041
1078	-0.041
1078	-0.042
1079	-0.043
1079	-0.043
1080	-0.044
1080	-0.045
1080	-0.046
1081	-0.046
1081	-0.046
1082	-0.047
1082	-0.048
1083	-0.049
1083	-0.049
1083	-0.05
1084	-0.051
1084	-0.051
1085	-0.052
1085	-0.053
1085	-0.053
1086	-0.053
1086	-0.055
1087	-0.054
1087	-0.054
1088	-0.055
1088	-0.055
1088	-0.056
1089	-0.057
1089	-0.057
1090	-0.059
1090	-0.059
1090	-0.06
1091	-0.061
1091	-0.061
1092	-0.063
1092	-0.062
1092	-0.063
1093	-0.064
1093	-0.064
1094	-0.064
1094	-0.064
1095	-0.065
1095	-0.065
1095	-0.066
1096	-0.067
1096	-0.068
1097	-0.068
1097	-0.069
1097	-0.069
1098	-0.071
1098	-0.072
1099	-0.073
1099	-0.074
1100	-0.076
1100	-0.077
1100	-0.078
1101	-0.081
1101	-0.083
1102	-0.085
1102	-0.088
1102	-0.088
1103	-0.091
1103	-0.092
1104	-0.094
1104	-0.096
1104	-0.098
1105	-0.1
1105	-0.103
1106	-0.107
1106	-0.109
1107	-0.113
1107	-0.117
1107	-0.122
1108	-0.124
1108	-0.126
1109	-0.13
1109	-0.135
1109	-0.138
1110	-0.138
1110	-0.141
1111	-0.146
1111	-0.148
