Data from 17C_3.4A_35min_2sec_int_Absorbance__342__04427.txt Node

Date: Mon Jun 19 19:55:26 CEST 2023
User: Marek
Spectrometer: MAYP115816
Trigger mode: 0
Integration Time (sec): 2.500000E-1
Scans to average: 10
Electric dark correction enabled: true
Nonlinearity correction enabled: true
Boxcar width: 5
XAxis mode: Wavelengths
Number of Pixels in Spectrum: 2068
>>>>>Begin Spectral Data<<<<<
199	-0.754
199	-0.767
200	-0.669
200	-0.614
201	-0.58
201	-0.568
202	-0.551
202	-0.538
203	-0.532
203	-0.528
204	-0.515
204	-0.5
205	-0.476
205	-0.469
205	-0.467
206	-0.469
206	-0.471
207	-0.463
207	-0.464
208	-0.466
208	-0.465
209	-0.458
209	-0.461
210	-0.465
210	-0.474
211	-0.475
211	-0.476
212	-0.478
212	-0.486
213	-0.484
213	-0.483
213	-0.488
214	-0.486
214	-0.483
215	-0.482
215	-0.487
216	-0.491
216	-0.498
217	-0.493
217	-0.497
218	-0.499
218	-0.5
219	-0.504
219	-0.513
220	-0.519
220	-0.529
221	-0.527
221	-0.529
221	-0.523
222	-0.519
222	-0.52
223	-0.523
223	-0.527
224	-0.528
224	-0.529
225	-0.525
225	-0.519
226	-0.522
226	-0.524
227	-0.53
227	-0.541
228	-0.542
228	-0.543
229	-0.543
229	-0.539
229	-0.531
230	-0.537
230	-0.541
231	-0.537
231	-0.529
232	-0.523
232	-0.522
233	-0.515
233	-0.512
234	-0.512
234	-0.509
235	-0.513
235	-0.518
236	-0.515
236	-0.518
236	-0.523
237	-0.528
237	-0.527
238	-0.536
238	-0.536
239	-0.534
239	-0.543
240	-0.543
240	-0.541
241	-0.545
241	-0.545
242	-0.551
242	-0.547
243	-0.544
243	-0.544
243	-0.551
244	-0.55
244	-0.548
245	-0.563
245	-0.563
246	-0.567
246	-0.573
247	-0.574
247	-0.58
248	-0.585
248	-0.586
249	-0.588
249	-0.598
250	-0.596
250	-0.588
250	-0.587
251	-0.583
251	-0.583
252	-0.584
252	-0.575
253	-0.581
253	-0.59
254	-0.592
254	-0.588
255	-0.596
255	-0.592
256	-0.589
256	-0.602
257	-0.598
257	-0.597
258	-0.614
258	-0.61
258	-0.606
259	-0.601
259	-0.611
260	-0.611
260	-0.615
261	-0.626
261	-0.617
262	-0.614
262	-0.614
263	-0.602
263	-0.597
264	-0.595
264	-0.603
265	-0.598
265	-0.607
265	-0.609
266	-0.608
266	-0.606
267	-0.62
267	-0.628
268	-0.645
268	-0.654
269	-0.653
269	-0.649
270	-0.654
270	-0.654
271	-0.655
271	-0.66
272	-0.662
272	-0.657
272	-0.647
273	-0.645
273	-0.653
274	-0.658
274	-0.662
275	-0.664
275	-0.659
276	-0.663
276	-0.655
277	-0.661
277	-0.68
278	-0.692
278	-0.686
278	-0.679
279	-0.684
279	-0.692
280	-0.688
280	-0.69
281	-0.684
281	-0.691
282	-0.682
282	-0.681
283	-0.671
283	-0.673
284	-0.667
284	-0.655
285	-0.651
285	-0.649
285	-0.644
286	-0.652
286	-0.645
287	-0.643
287	-0.628
288	-0.622
288	-0.63
289	-0.645
289	-0.656
290	-0.645
290	-0.642
291	-0.637
291	-0.632
292	-0.634
292	-0.639
292	-0.643
293	-0.647
293	-0.636
294	-0.625
294	-0.612
295	-0.609
295	-0.608
296	-0.608
296	-0.605
297	-0.599
297	-0.584
298	-0.575
298	-0.582
298	-0.569
299	-0.563
299	-0.565
300	-0.561
300	-0.556
301	-0.552
301	-0.551
302	-0.559
302	-0.569
303	-0.557
303	-0.544
304	-0.548
304	-0.546
305	-0.548
305	-0.549
305	-0.548
306	-0.531
306	-0.526
307	-0.513
307	-0.515
308	-0.529
308	-0.526
309	-0.528
309	-0.517
310	-0.506
310	-0.5
311	-0.491
311	-0.501
311	-0.497
312	-0.491
312	-0.489
313	-0.473
313	-0.476
314	-0.475
314	-0.48
315	-0.48
315	-0.48
316	-0.475
316	-0.464
317	-0.456
317	-0.453
318	-0.443
318	-0.441
318	-0.434
319	-0.422
319	-0.416
320	-0.409
320	-0.409
321	-0.416
321	-0.417
322	-0.413
322	-0.408
323	-0.407
323	-0.403
324	-0.396
324	-0.389
324	-0.38
325	-0.369
325	-0.35
326	-0.335
326	-0.315
327	-0.296
327	-0.273
328	-0.244
328	-0.22
329	-0.193
329	-0.166
330	-0.134
330	-0.097
330	-0.069
331	-0.036
331	-0.005
332	0.024
332	0.051
333	0.076
333	0.104
334	0.127
334	0.148
335	0.168
335	0.186
336	0.204
336	0.22
336	0.233
337	0.247
337	0.259
338	0.27
338	0.277
339	0.288
339	0.296
340	0.303
340	0.308
341	0.313
341	0.317
342	0.322
342	0.326
342	0.33
343	0.333
343	0.336
344	0.338
344	0.339
345	0.341
345	0.342
346	0.343
346	0.344
347	0.345
347	0.346
348	0.346
348	0.347
348	0.347
349	0.347
349	0.348
350	0.348
350	0.349
351	0.349
351	0.349
352	0.349
352	0.349
353	0.349
353	0.349
354	0.349
354	0.348
354	0.348
355	0.348
355	0.348
356	0.348
356	0.347
357	0.346
357	0.346
358	0.345
358	0.345
359	0.345
359	0.345
360	0.345
360	0.345
360	0.345
361	0.344
361	0.344
362	0.345
362	0.344
363	0.344
363	0.344
364	0.344
364	0.343
365	0.343
365	0.343
366	0.343
366	0.342
366	0.342
367	0.342
367	0.342
368	0.341
368	0.341
369	0.341
369	0.341
370	0.34
370	0.34
371	0.339
371	0.339
372	0.339
372	0.339
372	0.339
373	0.339
373	0.339
374	0.338
374	0.338
375	0.338
375	0.338
376	0.337
376	0.337
377	0.337
377	0.337
378	0.336
378	0.336
378	0.336
379	0.335
379	0.335
380	0.334
380	0.334
381	0.333
381	0.333
382	0.332
382	0.332
383	0.332
383	0.331
383	0.331
384	0.33
384	0.33
385	0.33
385	0.33
386	0.33
386	0.33
387	0.329
387	0.329
388	0.329
388	0.329
389	0.328
389	0.328
389	0.328
390	0.328
390	0.327
391	0.327
391	0.327
392	0.326
392	0.326
393	0.326
393	0.325
394	0.325
394	0.324
394	0.324
395	0.324
395	0.323
396	0.323
396	0.322
397	0.322
397	0.322
398	0.322
398	0.322
399	0.321
399	0.321
400	0.321
400	0.32
400	0.32
401	0.32
401	0.32
402	0.319
402	0.319
403	0.319
403	0.318
404	0.318
404	0.318
405	0.317
405	0.317
405	0.317
406	0.316
406	0.316
407	0.316
407	0.315
408	0.315
408	0.315
409	0.315
409	0.315
410	0.314
410	0.314
411	0.314
411	0.314
411	0.314
412	0.314
412	0.314
413	0.314
413	0.314
414	0.313
414	0.313
415	0.313
415	0.313
416	0.312
416	0.312
416	0.312
417	0.311
417	0.311
418	0.311
418	0.311
419	0.311
419	0.311
420	0.311
420	0.311
421	0.311
421	0.311
421	0.311
422	0.31
422	0.31
423	0.31
423	0.309
424	0.309
424	0.309
425	0.309
425	0.308
426	0.308
426	0.308
427	0.307
427	0.307
427	0.307
428	0.307
428	0.307
429	0.307
429	0.307
430	0.306
430	0.306
431	0.306
431	0.306
432	0.306
432	0.305
432	0.305
433	0.305
433	0.305
434	0.304
434	0.304
435	0.304
435	0.304
436	0.304
436	0.304
437	0.304
437	0.304
437	0.304
438	0.304
438	0.304
439	0.304
439	0.304
440	0.304
440	0.304
441	0.304
441	0.304
442	0.304
442	0.304
442	0.304
443	0.304
443	0.304
444	0.304
444	0.304
445	0.304
445	0.304
446	0.304
446	0.304
447	0.304
447	0.305
447	0.305
448	0.305
448	0.305
449	0.305
449	0.305
450	0.305
450	0.305
451	0.305
451	0.305
452	0.305
452	0.305
452	0.305
453	0.306
453	0.306
454	0.305
454	0.306
455	0.306
455	0.306
456	0.306
456	0.306
457	0.306
457	0.306
458	0.306
458	0.306
458	0.307
459	0.307
459	0.307
460	0.307
460	0.307
461	0.307
461	0.308
462	0.308
462	0.308
463	0.308
463	0.309
463	0.309
464	0.309
464	0.309
465	0.31
465	0.31
466	0.311
466	0.311
467	0.312
467	0.312
467	0.312
468	0.313
468	0.313
469	0.314
469	0.315
470	0.315
470	0.316
471	0.316
471	0.316
472	0.317
472	0.318
472	0.319
473	0.319
473	0.32
474	0.321
474	0.321
475	0.322
475	0.323
476	0.323
476	0.324
477	0.324
477	0.325
477	0.326
478	0.327
478	0.328
479	0.329
479	0.33
480	0.331
480	0.332
481	0.333
481	0.334
482	0.335
482	0.337
482	0.338
483	0.339
483	0.341
484	0.342
484	0.342
485	0.343
485	0.344
486	0.346
486	0.347
487	0.348
487	0.35
487	0.351
488	0.352
488	0.354
489	0.356
489	0.359
490	0.361
490	0.363
491	0.365
491	0.366
492	0.368
492	0.37
492	0.372
493	0.374
493	0.376
494	0.379
494	0.381
495	0.382
495	0.384
496	0.387
496	0.389
496	0.392
497	0.394
497	0.397
498	0.399
498	0.401
499	0.404
499	0.407
500	0.41
500	0.413
501	0.415
501	0.418
501	0.42
502	0.423
502	0.425
503	0.428
503	0.431
504	0.434
504	0.436
505	0.439
505	0.442
506	0.445
506	0.448
506	0.451
507	0.453
507	0.456
508	0.459
508	0.461
509	0.464
509	0.466
510	0.469
510	0.472
511	0.475
511	0.478
511	0.48
512	0.483
512	0.486
513	0.488
513	0.491
514	0.494
514	0.497
515	0.499
515	0.502
515	0.504
516	0.506
516	0.509
517	0.511
517	0.513
518	0.515
518	0.517
519	0.519
519	0.521
520	0.523
520	0.525
520	0.527
521	0.529
521	0.531
522	0.532
522	0.534
523	0.536
523	0.538
524	0.539
524	0.54
524	0.541
525	0.541
525	0.542
526	0.542
526	0.543
527	0.544
527	0.544
528	0.544
528	0.544
529	0.545
529	0.545
529	0.545
530	0.546
530	0.545
531	0.545
531	0.545
532	0.544
532	0.544
533	0.544
533	0.543
533	0.542
534	0.541
534	0.54
535	0.538
535	0.537
536	0.535
536	0.533
537	0.531
537	0.529
538	0.528
538	0.526
538	0.524
539	0.523
539	0.521
540	0.519
540	0.517
541	0.515
541	0.513
542	0.511
542	0.509
542	0.506
543	0.504
543	0.501
544	0.498
544	0.496
545	0.494
545	0.491
546	0.489
546	0.486
547	0.483
547	0.48
547	0.477
548	0.475
548	0.472
549	0.47
549	0.468
550	0.465
550	0.462
551	0.459
551	0.457
551	0.455
552	0.453
552	0.45
553	0.448
553	0.446
554	0.443
554	0.44
555	0.437
555	0.434
556	0.431
556	0.428
556	0.425
557	0.422
557	0.419
558	0.416
558	0.413
559	0.41
559	0.407
560	0.404
560	0.401
560	0.398
561	0.396
561	0.393
562	0.39
562	0.387
563	0.384
563	0.381
564	0.379
564	0.377
564	0.374
565	0.372
565	0.37
566	0.367
566	0.365
567	0.362
567	0.359
568	0.357
568	0.354
568	0.351
569	0.349
569	0.346
570	0.342
570	0.339
571	0.337
571	0.335
572	0.332
572	0.33
573	0.327
573	0.325
573	0.323
574	0.321
574	0.319
575	0.317
575	0.316
576	0.314
576	0.311
577	0.309
577	0.308
577	0.307
578	0.305
578	0.304
579	0.303
579	0.301
580	0.299
580	0.296
581	0.293
581	0.292
581	0.291
582	0.29
582	0.289
583	0.287
583	0.285
584	0.282
584	0.28
585	0.28
585	0.279
585	0.278
586	0.276
586	0.275
587	0.273
587	0.272
588	0.27
588	0.269
589	0.268
589	0.267
590	0.266
590	0.264
590	0.264
591	0.263
591	0.261
592	0.259
592	0.257
593	0.256
593	0.255
594	0.253
594	0.252
594	0.251
595	0.25
595	0.248
596	0.247
596	0.247
597	0.247
597	0.245
598	0.244
598	0.243
598	0.241
599	0.24
599	0.238
600	0.236
600	0.235
601	0.234
601	0.232
602	0.23
602	0.229
602	0.228
603	0.228
603	0.228
604	0.227
604	0.227
605	0.227
605	0.227
606	0.225
606	0.224
606	0.223
607	0.222
607	0.221
608	0.219
608	0.217
609	0.216
609	0.216
610	0.215
610	0.214
610	0.213
611	0.213
611	0.213
612	0.214
612	0.214
613	0.214
613	0.214
614	0.212
614	0.211
614	0.21
615	0.209
615	0.208
616	0.207
616	0.205
617	0.204
617	0.202
618	0.2
618	0.199
618	0.198
619	0.198
619	0.197
620	0.197
620	0.196
621	0.195
621	0.194
622	0.193
622	0.192
622	0.191
623	0.19
623	0.19
624	0.189
624	0.188
625	0.187
625	0.186
626	0.185
626	0.184
626	0.184
627	0.183
627	0.182
628	0.181
628	0.179
629	0.178
629	0.176
630	0.174
630	0.172
630	0.17
631	0.169
631	0.166
632	0.164
632	0.162
633	0.16
633	0.158
634	0.155
634	0.153
634	0.151
635	0.149
635	0.146
636	0.144
636	0.141
637	0.138
637	0.135
638	0.131
638	0.128
638	0.124
639	0.12
639	0.116
640	0.112
640	0.108
641	0.104
641	0.1
642	0.096
642	0.092
642	0.087
643	0.083
643	0.078
644	0.073
644	0.067
645	0.062
645	0.056
646	0.051
646	0.045
646	0.039
647	0.034
647	0.028
648	0.022
648	0.016
649	0.01
649	0.003
650	-0.003
650	-0.009
650	-0.017
651	-0.025
651	-0.036
652	-0.049
652	-0.062
653	-0.073
653	-0.084
653	-0.081
654	-0.065
654	-0.059
655	-0.063
655	-0.068
656	-0.073
656	-0.079
657	-0.082
657	-0.086
657	-0.092
658	-0.097
658	-0.122
659	-0.193
659	-0.276
660	-0.314
660	-0.338
661	-0.362
661	-0.389
661	-0.421
662	-0.449
662	-0.479
663	-0.513
663	-0.549
664	-0.587
664	-0.634
665	-0.678
665	-0.731
665	-0.781
666	-0.833
666	-0.889
667	-0.949
667	-1.011
668	-1.08
668	-1.15
669	-1.221
669	-1.291
669	-1.364
670	-1.424
670	-1.438
671	-1.542
671	-1.9
672	-2.154
672	-2.358
672	-2.496
673	-2.593
673	-2.677
674	-2.723
674	-2.742
675	-2.768
675	-2.911
676	-3.115
676	-3.066
676	-2.841
677	-2.636
677	-2.471
678	-2.291
678	-1.981
679	-1.658
679	-1.513
680	-1.418
680	-1.336
680	-1.267
681	-1.224
681	-1.167
682	-1.131
682	-1.096
683	-1.064
683	-1.051
684	-1.033
684	-1.018
684	-0.999
685	-0.979
685	-0.96
686	-0.938
686	-0.925
687	-0.902
687	-0.894
687	-0.876
688	-0.852
688	-0.832
689	-0.812
689	-0.8
690	-0.781
690	-0.771
691	-0.767
691	-0.773
691	-0.79
692	-0.781
692	-0.773
693	-0.77
693	-0.778
694	-0.776
694	-0.771
695	-0.778
695	-0.775
695	-0.759
696	-0.755
696	-0.733
697	-0.736
697	-0.752
698	-0.755
698	-0.744
698	-0.759
699	-0.761
699	-0.759
700	-0.751
700	-0.767
701	-0.767
701	-0.774
702	-0.773
702	-0.761
702	-0.753
703	-0.749
703	-0.741
704	-0.738
704	-0.736
705	-0.748
705	-0.741
705	-0.729
706	-0.729
706	-0.726
707	-0.732
707	-0.726
708	-0.725
708	-0.718
709	-0.721
709	-0.726
709	-0.717
710	-0.727
710	-0.739
711	-0.73
711	-0.732
712	-0.732
712	-0.748
713	-0.746
713	-0.753
713	-0.744
714	-0.741
714	-0.741
715	-0.731
715	-0.716
716	-0.725
716	-0.727
716	-0.718
717	-0.718
717	-0.72
718	-0.71
718	-0.71
719	-0.717
719	-0.72
720	-0.714
720	-0.724
720	-0.717
721	-0.706
721	-0.708
722	-0.698
722	-0.688
723	-0.687
723	-0.691
723	-0.677
724	-0.68
724	-0.688
725	-0.686
725	-0.695
726	-0.708
726	-0.712
727	-0.716
727	-0.733
727	-0.738
728	-0.739
728	-0.748
729	-0.747
729	-0.751
730	-0.759
730	-0.751
730	-0.741
731	-0.725
731	-0.736
732	-0.739
732	-0.742
733	-0.739
733	-0.742
734	-0.738
734	-0.736
734	-0.723
735	-0.72
735	-0.722
736	-0.732
736	-0.716
737	-0.707
737	-0.709
737	-0.72
738	-0.716
738	-0.714
739	-0.712
739	-0.725
740	-0.725
740	-0.723
741	-0.719
741	-0.721
741	-0.725
742	-0.723
742	-0.723
743	-0.731
743	-0.735
744	-0.734
744	-0.724
744	-0.727
745	-0.735
745	-0.727
746	-0.728
746	-0.725
747	-0.725
747	-0.714
748	-0.701
748	-0.707
748	-0.707
749	-0.704
749	-0.706
750	-0.694
750	-0.698
751	-0.7
751	-0.709
751	-0.71
752	-0.716
752	-0.725
753	-0.719
753	-0.716
754	-0.722
754	-0.714
754	-0.728
755	-0.744
755	-0.758
756	-0.747
756	-0.746
757	-0.743
757	-0.741
758	-0.743
758	-0.738
758	-0.741
759	-0.749
759	-0.734
760	-0.727
760	-0.721
761	-0.731
761	-0.728
761	-0.728
762	-0.733
762	-0.733
763	-0.743
763	-0.74
764	-0.737
764	-0.743
764	-0.746
765	-0.735
765	-0.72
766	-0.727
766	-0.732
767	-0.748
767	-0.742
768	-0.733
768	-0.742
768	-0.748
769	-0.767
769	-0.77
770	-0.775
770	-0.789
771	-0.787
771	-0.79
771	-0.79
772	-0.793
772	-0.792
773	-0.791
773	-0.786
774	-0.783
774	-0.784
775	-0.787
775	-0.782
775	-0.788
776	-0.788
776	-0.777
777	-0.785
777	-0.805
778	-0.801
778	-0.821
778	-0.81
779	-0.832
779	-0.839
780	-0.854
780	-0.853
781	-0.865
781	-0.862
781	-0.879
782	-0.881
782	-0.885
783	-0.87
783	-0.869
784	-0.848
784	-0.838
784	-0.846
785	-0.853
785	-0.839
786	-0.846
786	-0.823
787	-0.808
787	-0.81
788	-0.814
788	-0.822
788	-0.831
789	-0.833
789	-0.815
790	-0.797
790	-0.799
791	-0.798
791	-0.817
791	-0.824
792	-0.814
792	-0.791
793	-0.78
793	-0.758
794	-0.763
794	-0.756
794	-0.764
795	-0.761
795	-0.754
796	-0.736
796	-0.743
797	-0.738
797	-0.752
797	-0.761
798	-0.775
798	-0.768
799	-0.778
799	-0.765
800	-0.77
800	-0.762
801	-0.768
801	-0.753
801	-0.764
802	-0.772
802	-0.771
803	-0.772
803	-0.782
804	-0.777
804	-0.787
804	-0.775
805	-0.782
805	-0.769
806	-0.773
806	-0.759
807	-0.756
807	-0.739
807	-0.726
808	-0.716
808	-0.711
809	-0.696
809	-0.704
810	-0.702
810	-0.696
810	-0.693
811	-0.699
811	-0.691
812	-0.691
812	-0.697
813	-0.703
813	-0.698
813	-0.705
814	-0.708
814	-0.711
815	-0.717
815	-0.722
816	-0.713
816	-0.717
817	-0.726
817	-0.742
817	-0.756
818	-0.761
818	-0.761
819	-0.753
819	-0.753
820	-0.763
820	-0.759
820	-0.771
821	-0.769
821	-0.757
822	-0.725
822	-0.7
823	-0.699
823	-0.705
823	-0.7
824	-0.694
824	-0.697
825	-0.688
825	-0.668
826	-0.663
826	-0.668
826	-0.677
827	-0.674
827	-0.67
828	-0.648
828	-0.65
829	-0.64
829	-0.625
829	-0.619
830	-0.629
830	-0.627
831	-0.62
831	-0.61
832	-0.609
832	-0.6
832	-0.611
833	-0.605
833	-0.604
834	-0.601
834	-0.611
835	-0.598
835	-0.593
835	-0.588
836	-0.586
836	-0.583
837	-0.582
837	-0.572
838	-0.563
838	-0.553
839	-0.54
839	-0.526
839	-0.518
840	-0.506
840	-0.503
841	-0.491
841	-0.481
842	-0.475
842	-0.465
842	-0.457
843	-0.451
843	-0.446
844	-0.437
844	-0.429
845	-0.423
845	-0.413
845	-0.402
846	-0.391
846	-0.376
847	-0.364
847	-0.354
848	-0.344
848	-0.335
848	-0.32
849	-0.31
849	-0.298
850	-0.285
850	-0.278
851	-0.271
851	-0.262
851	-0.254
852	-0.239
852	-0.227
853	-0.216
853	-0.209
854	-0.197
854	-0.187
854	-0.176
855	-0.165
855	-0.158
856	-0.149
856	-0.139
857	-0.134
857	-0.125
857	-0.115
858	-0.105
858	-0.099
859	-0.09
859	-0.08
860	-0.071
860	-0.059
860	-0.051
861	-0.044
861	-0.035
862	-0.029
862	-0.023
863	-0.017
863	-0.009
863	-0.005
864	-0.001
864	0.004
865	0.009
865	0.013
866	0.017
866	0.02
866	0.023
867	0.026
867	0.029
868	0.031
868	0.034
869	0.037
869	0.039
869	0.041
870	0.043
870	0.046
871	0.048
871	0.05
872	0.052
872	0.053
872	0.053
873	0.054
873	0.054
874	0.054
874	0.053
875	0.052
875	0.051
875	0.05
876	0.049
876	0.048
877	0.046
877	0.045
878	0.043
878	0.042
878	0.04
879	0.039
879	0.038
880	0.038
880	0.038
881	0.038
881	0.038
881	0.038
882	0.037
882	0.037
883	0.036
883	0.035
884	0.034
884	0.033
884	0.033
885	0.032
885	0.032
886	0.032
886	0.031
887	0.031
887	0.031
887	0.031
888	0.032
888	0.032
889	0.032
889	0.032
890	0.032
890	0.032
890	0.031
891	0.031
891	0.031
892	0.032
892	0.032
893	0.033
893	0.033
893	0.033
894	0.033
894	0.033
895	0.033
895	0.033
895	0.033
896	0.032
896	0.031
897	0.03
897	0.029
898	0.028
898	0.027
898	0.027
899	0.028
899	0.028
900	0.028
900	0.029
901	0.03
901	0.031
901	0.032
902	0.033
902	0.034
903	0.035
903	0.036
904	0.036
904	0.037
904	0.038
905	0.038
905	0.039
906	0.039
906	0.039
907	0.039
907	0.039
907	0.038
908	0.038
908	0.037
909	0.037
909	0.036
910	0.035
910	0.034
910	0.034
911	0.034
911	0.035
912	0.035
912	0.036
913	0.037
913	0.038
913	0.039
914	0.04
914	0.04
915	0.041
915	0.041
916	0.041
916	0.042
916	0.042
917	0.042
917	0.042
918	0.042
918	0.042
918	0.041
919	0.041
919	0.041
920	0.041
920	0.041
921	0.041
921	0.04
921	0.04
922	0.039
922	0.039
923	0.038
923	0.038
924	0.037
924	0.037
924	0.036
925	0.035
925	0.034
926	0.033
926	0.032
927	0.031
927	0.031
927	0.03
928	0.03
928	0.03
929	0.029
929	0.029
930	0.028
930	0.027
930	0.027
931	0.026
931	0.026
932	0.025
932	0.024
933	0.024
933	0.023
933	0.021
934	0.021
934	0.02
935	0.019
935	0.019
935	0.018
936	0.018
936	0.017
937	0.016
937	0.015
938	0.015
938	0.015
938	0.016
939	0.016
939	0.017
940	0.017
940	0.018
941	0.019
941	0.019
941	0.021
942	0.021
942	0.022
943	0.022
943	0.023
944	0.022
944	0.022
944	0.022
945	0.022
945	0.021
946	0.02
946	0.019
946	0.018
947	0.017
947	0.016
948	0.016
948	0.016
949	0.016
949	0.016
949	0.016
950	0.017
950	0.017
951	0.018
951	0.018
952	0.019
952	0.02
952	0.021
953	0.021
953	0.022
954	0.023
954	0.023
955	0.024
955	0.025
955	0.026
956	0.027
956	0.027
957	0.028
957	0.028
957	0.028
958	0.028
958	0.029
959	0.03
959	0.03
960	0.03
960	0.031
960	0.031
961	0.031
961	0.032
962	0.032
962	0.032
963	0.033
963	0.033
963	0.033
964	0.033
964	0.033
965	0.033
965	0.033
966	0.033
966	0.033
966	0.033
967	0.033
967	0.032
968	0.032
968	0.031
968	0.031
969	0.031
969	0.03
970	0.03
970	0.029
971	0.03
971	0.03
971	0.03
972	0.03
972	0.03
973	0.03
973	0.03
974	0.03
974	0.03
974	0.03
975	0.03
975	0.029
976	0.028
976	0.028
976	0.027
977	0.027
977	0.027
978	0.027
978	0.027
979	0.027
979	0.027
979	0.027
980	0.026
980	0.026
981	0.027
981	0.027
982	0.027
982	0.026
982	0.026
983	0.026
983	0.026
984	0.026
984	0.026
984	0.026
985	0.026
985	0.025
986	0.025
986	0.024
987	0.024
987	0.023
987	0.023
988	0.022
988	0.021
989	0.02
989	0.019
990	0.019
990	0.018
990	0.017
991	0.017
991	0.017
992	0.017
992	0.016
992	0.016
993	0.016
993	0.016
994	0.016
994	0.016
995	0.016
995	0.015
995	0.014
996	0.014
996	0.013
997	0.013
997	0.013
997	0.013
998	0.013
998	0.012
999	0.013
999	0.013
1000	0.013
1000	0.013
1000	0.014
1001	0.014
1001	0.014
1002	0.014
1002	0.014
1003	0.014
1003	0.014
1003	0.014
1004	0.014
1004	0.013
1005	0.013
1005	0.012
1005	0.011
1006	0.01
1006	0.009
1007	0.008
1007	0.007
1008	0.007
1008	0.006
1008	0.006
1009	0.006
1009	0.006
1010	0.007
1010	0.007
1010	0.007
1011	0.008
1011	0.008
1012	0.008
1012	0.008
1013	0.008
1013	0.007
1013	0.007
1014	0.007
1014	0.006
1015	0.006
1015	0.006
1016	0.005
1016	0.004
1016	0.004
1017	0.002
1017	0.002
1018	0.001
1018	0
1018	-0.001
1019	-0.001
1019	-0.002
1020	-0.003
1020	-0.004
1021	-0.004
1021	-0.005
1021	-0.006
1022	-0.006
1022	-0.007
1023	-0.007
1023	-0.007
1023	-0.008
1024	-0.008
1024	-0.008
1025	-0.008
1025	-0.008
1026	-0.008
1026	-0.008
1026	-0.007
1027	-0.007
1027	-0.007
1028	-0.006
1028	-0.006
1028	-0.006
1029	-0.006
1029	-0.006
1030	-0.007
1030	-0.007
1031	-0.008
1031	-0.008
1031	-0.008
1032	-0.009
1032	-0.008
1033	-0.008
1033	-0.008
1033	-0.007
1034	-0.007
1034	-0.007
1035	-0.007
1035	-0.007
1036	-0.007
1036	-0.007
1036	-0.007
1037	-0.007
1037	-0.007
1038	-0.007
1038	-0.007
1039	-0.006
1039	-0.006
1039	-0.006
1040	-0.005
1040	-0.005
1041	-0.004
1041	-0.004
1041	-0.004
1042	-0.004
1042	-0.004
1043	-0.004
1043	-0.005
1044	-0.005
1044	-0.006
1044	-0.007
1045	-0.008
1045	-0.009
1046	-0.009
1046	-0.01
1046	-0.011
1047	-0.011
1047	-0.011
1048	-0.011
1048	-0.011
1049	-0.011
1049	-0.011
1049	-0.01
1050	-0.01
1050	-0.01
1051	-0.01
1051	-0.009
1051	-0.009
1052	-0.009
1052	-0.008
1053	-0.008
1053	-0.008
1053	-0.008
1054	-0.008
1054	-0.008
1055	-0.008
1055	-0.008
1056	-0.009
1056	-0.01
1056	-0.011
1057	-0.012
1057	-0.012
1058	-0.013
1058	-0.013
1058	-0.013
1059	-0.014
1059	-0.015
1060	-0.015
1060	-0.016
1061	-0.016
1061	-0.016
1061	-0.017
1062	-0.017
1062	-0.017
1063	-0.017
1063	-0.017
1063	-0.017
1064	-0.017
1064	-0.016
1065	-0.016
1065	-0.016
1066	-0.017
1066	-0.016
1066	-0.016
1067	-0.016
1067	-0.016
1068	-0.017
1068	-0.017
1068	-0.017
1069	-0.018
1069	-0.018
1070	-0.019
1070	-0.019
1071	-0.019
1071	-0.02
1071	-0.021
1072	-0.021
1072	-0.022
1073	-0.023
1073	-0.023
1073	-0.023
1074	-0.023
1074	-0.023
1075	-0.023
1075	-0.023
1076	-0.024
1076	-0.024
1076	-0.025
1077	-0.025
1077	-0.025
1078	-0.026
1078	-0.027
1078	-0.028
1079	-0.029
1079	-0.029
1080	-0.03
1080	-0.031
1080	-0.031
1081	-0.032
1081	-0.032
1082	-0.033
1082	-0.034
1083	-0.034
1083	-0.035
1083	-0.036
1084	-0.036
1084	-0.037
1085	-0.038
1085	-0.038
1085	-0.039
1086	-0.039
1086	-0.04
1087	-0.04
1087	-0.04
1088	-0.04
1088	-0.04
1088	-0.041
1089	-0.042
1089	-0.042
1090	-0.044
1090	-0.044
1090	-0.045
1091	-0.046
1091	-0.046
1092	-0.047
1092	-0.047
1092	-0.048
1093	-0.049
1093	-0.049
1094	-0.049
1094	-0.05
1095	-0.051
1095	-0.051
1095	-0.052
1096	-0.053
1096	-0.054
1097	-0.055
1097	-0.056
1097	-0.057
1098	-0.058
1098	-0.06
1099	-0.06
1099	-0.061
1100	-0.063
1100	-0.064
1100	-0.066
1101	-0.069
1101	-0.071
1102	-0.072
1102	-0.075
1102	-0.075
1103	-0.077
1103	-0.08
1104	-0.082
1104	-0.084
1104	-0.086
1105	-0.087
1105	-0.09
1106	-0.095
1106	-0.097
1107	-0.101
1107	-0.106
1107	-0.111
1108	-0.113
1108	-0.115
1109	-0.118
1109	-0.123
1109	-0.128
1110	-0.129
1110	-0.131
1111	-0.137
1111	-0.137
