Data from 17C_3.4A_35min_2sec_int_Absorbance__777__04862.txt Node

Date: Mon Jun 19 20:13:34 CEST 2023
User: Marek
Spectrometer: MAYP115816
Trigger mode: 0
Integration Time (sec): 2.500000E-1
Scans to average: 10
Electric dark correction enabled: true
Nonlinearity correction enabled: true
Boxcar width: 5
XAxis mode: Wavelengths
Number of Pixels in Spectrum: 2068
>>>>>Begin Spectral Data<<<<<
199	-0.794
199	-0.814
200	-0.71
200	-0.658
201	-0.62
201	-0.61
202	-0.595
202	-0.58
203	-0.572
203	-0.57
204	-0.555
204	-0.54
205	-0.517
205	-0.513
205	-0.511
206	-0.514
206	-0.514
207	-0.503
207	-0.506
208	-0.507
208	-0.504
209	-0.5
209	-0.503
210	-0.505
210	-0.512
211	-0.511
211	-0.514
212	-0.518
212	-0.526
213	-0.525
213	-0.526
213	-0.53
214	-0.527
214	-0.525
215	-0.525
215	-0.531
216	-0.536
216	-0.544
217	-0.541
217	-0.546
218	-0.548
218	-0.549
219	-0.553
219	-0.563
220	-0.569
220	-0.579
221	-0.577
221	-0.58
221	-0.57
222	-0.565
222	-0.565
223	-0.567
223	-0.57
224	-0.574
224	-0.573
225	-0.567
225	-0.562
226	-0.566
226	-0.564
227	-0.571
227	-0.582
228	-0.585
228	-0.587
229	-0.588
229	-0.582
229	-0.577
230	-0.58
230	-0.582
231	-0.578
231	-0.569
232	-0.564
232	-0.56
233	-0.553
233	-0.552
234	-0.551
234	-0.546
235	-0.549
235	-0.556
236	-0.555
236	-0.557
236	-0.565
237	-0.571
237	-0.572
238	-0.581
238	-0.578
239	-0.578
239	-0.59
240	-0.588
240	-0.587
241	-0.594
241	-0.593
242	-0.597
242	-0.591
243	-0.587
243	-0.589
243	-0.597
244	-0.598
244	-0.595
245	-0.611
245	-0.61
246	-0.613
246	-0.619
247	-0.623
247	-0.628
248	-0.636
248	-0.633
249	-0.637
249	-0.646
250	-0.644
250	-0.639
250	-0.64
251	-0.637
251	-0.638
252	-0.641
252	-0.63
253	-0.633
253	-0.645
254	-0.643
254	-0.639
255	-0.649
255	-0.642
256	-0.637
256	-0.647
257	-0.643
257	-0.639
258	-0.658
258	-0.656
258	-0.651
259	-0.648
259	-0.659
260	-0.658
260	-0.664
261	-0.678
261	-0.67
262	-0.668
262	-0.67
263	-0.658
263	-0.653
264	-0.654
264	-0.661
265	-0.656
265	-0.664
265	-0.667
266	-0.662
266	-0.66
267	-0.674
267	-0.681
268	-0.697
268	-0.707
269	-0.704
269	-0.7
270	-0.707
270	-0.709
271	-0.711
271	-0.718
272	-0.722
272	-0.716
272	-0.708
273	-0.707
273	-0.714
274	-0.72
274	-0.724
275	-0.725
275	-0.719
276	-0.723
276	-0.716
277	-0.72
277	-0.739
278	-0.749
278	-0.744
278	-0.74
279	-0.742
279	-0.754
280	-0.751
280	-0.753
281	-0.748
281	-0.755
282	-0.746
282	-0.746
283	-0.736
283	-0.738
284	-0.734
284	-0.723
285	-0.717
285	-0.715
285	-0.711
286	-0.716
286	-0.711
287	-0.708
287	-0.693
288	-0.688
288	-0.696
289	-0.708
289	-0.717
290	-0.708
290	-0.705
291	-0.701
291	-0.694
292	-0.698
292	-0.705
292	-0.708
293	-0.711
293	-0.7
294	-0.689
294	-0.681
295	-0.679
295	-0.677
296	-0.675
296	-0.673
297	-0.667
297	-0.651
298	-0.644
298	-0.652
298	-0.641
299	-0.633
299	-0.634
300	-0.628
300	-0.622
301	-0.62
301	-0.619
302	-0.626
302	-0.634
303	-0.622
303	-0.608
304	-0.61
304	-0.61
305	-0.61
305	-0.608
305	-0.607
306	-0.589
306	-0.584
307	-0.57
307	-0.573
308	-0.589
308	-0.585
309	-0.588
309	-0.577
310	-0.567
310	-0.563
311	-0.554
311	-0.563
311	-0.558
312	-0.552
312	-0.548
313	-0.532
313	-0.536
314	-0.534
314	-0.537
315	-0.539
315	-0.538
316	-0.534
316	-0.527
317	-0.521
317	-0.519
318	-0.51
318	-0.507
318	-0.5
319	-0.489
319	-0.484
320	-0.476
320	-0.478
321	-0.482
321	-0.481
322	-0.475
322	-0.469
323	-0.469
323	-0.464
324	-0.457
324	-0.449
324	-0.439
325	-0.429
325	-0.411
326	-0.396
326	-0.376
327	-0.359
327	-0.336
328	-0.309
328	-0.287
329	-0.262
329	-0.238
330	-0.21
330	-0.176
330	-0.149
331	-0.119
331	-0.091
332	-0.066
332	-0.04
333	-0.015
333	0.012
334	0.034
334	0.052
335	0.072
335	0.088
336	0.104
336	0.119
336	0.131
337	0.144
337	0.153
338	0.162
338	0.168
339	0.177
339	0.184
340	0.189
340	0.194
341	0.198
341	0.201
342	0.205
342	0.208
342	0.211
343	0.213
343	0.217
344	0.219
344	0.22
345	0.222
345	0.223
346	0.225
346	0.225
347	0.227
347	0.228
348	0.228
348	0.23
348	0.23
349	0.23
349	0.23
350	0.231
350	0.231
351	0.231
351	0.232
352	0.232
352	0.232
353	0.232
353	0.231
354	0.231
354	0.231
354	0.231
355	0.231
355	0.231
356	0.23
356	0.23
357	0.229
357	0.229
358	0.229
358	0.229
359	0.229
359	0.229
360	0.229
360	0.229
360	0.229
361	0.229
361	0.229
362	0.229
362	0.229
363	0.229
363	0.229
364	0.229
364	0.229
365	0.229
365	0.229
366	0.229
366	0.229
366	0.229
367	0.229
367	0.229
368	0.229
368	0.229
369	0.228
369	0.228
370	0.228
370	0.228
371	0.228
371	0.228
372	0.228
372	0.228
372	0.228
373	0.228
373	0.228
374	0.228
374	0.228
375	0.228
375	0.228
376	0.228
376	0.228
377	0.228
377	0.227
378	0.227
378	0.227
378	0.227
379	0.227
379	0.227
380	0.227
380	0.227
381	0.226
381	0.226
382	0.226
382	0.226
383	0.226
383	0.226
383	0.226
384	0.226
384	0.226
385	0.226
385	0.226
386	0.226
386	0.226
387	0.226
387	0.226
388	0.225
388	0.225
389	0.225
389	0.225
389	0.226
390	0.226
390	0.226
391	0.226
391	0.226
392	0.225
392	0.225
393	0.225
393	0.225
394	0.225
394	0.224
394	0.224
395	0.224
395	0.223
396	0.223
396	0.223
397	0.223
397	0.223
398	0.223
398	0.223
399	0.223
399	0.223
400	0.223
400	0.223
400	0.223
401	0.223
401	0.223
402	0.223
402	0.222
403	0.222
403	0.222
404	0.222
404	0.222
405	0.222
405	0.222
405	0.221
406	0.221
406	0.221
407	0.221
407	0.221
408	0.221
408	0.22
409	0.22
409	0.221
410	0.221
410	0.221
411	0.221
411	0.221
411	0.221
412	0.221
412	0.22
413	0.22
413	0.22
414	0.22
414	0.22
415	0.22
415	0.219
416	0.219
416	0.219
416	0.219
417	0.219
417	0.219
418	0.219
418	0.219
419	0.219
419	0.219
420	0.22
420	0.22
421	0.22
421	0.22
421	0.22
422	0.22
422	0.22
423	0.22
423	0.22
424	0.219
424	0.219
425	0.219
425	0.219
426	0.219
426	0.218
427	0.218
427	0.218
427	0.218
428	0.218
428	0.218
429	0.218
429	0.217
430	0.217
430	0.217
431	0.217
431	0.217
432	0.217
432	0.216
432	0.216
433	0.216
433	0.216
434	0.216
434	0.216
435	0.216
435	0.215
436	0.215
436	0.215
437	0.215
437	0.215
437	0.215
438	0.215
438	0.215
439	0.215
439	0.215
440	0.215
440	0.215
441	0.215
441	0.215
442	0.215
442	0.214
442	0.214
443	0.214
443	0.214
444	0.214
444	0.214
445	0.214
445	0.214
446	0.214
446	0.214
447	0.214
447	0.214
447	0.214
448	0.214
448	0.214
449	0.214
449	0.214
450	0.214
450	0.214
451	0.214
451	0.214
452	0.214
452	0.214
452	0.214
453	0.214
453	0.213
454	0.213
454	0.213
455	0.213
455	0.213
456	0.213
456	0.213
457	0.212
457	0.212
458	0.212
458	0.212
458	0.212
459	0.213
459	0.212
460	0.212
460	0.212
461	0.212
461	0.212
462	0.212
462	0.212
463	0.212
463	0.212
463	0.212
464	0.212
464	0.212
465	0.212
465	0.212
466	0.212
466	0.212
467	0.212
467	0.212
467	0.212
468	0.211
468	0.211
469	0.212
469	0.212
470	0.212
470	0.212
471	0.212
471	0.213
472	0.213
472	0.213
472	0.213
473	0.213
473	0.213
474	0.213
474	0.213
475	0.213
475	0.213
476	0.213
476	0.213
477	0.213
477	0.213
477	0.214
478	0.214
478	0.214
479	0.214
479	0.215
480	0.215
480	0.215
481	0.215
481	0.216
482	0.216
482	0.216
482	0.217
483	0.217
483	0.218
484	0.218
484	0.217
485	0.217
485	0.217
486	0.217
486	0.217
487	0.218
487	0.218
487	0.218
488	0.219
488	0.219
489	0.22
489	0.222
490	0.222
490	0.223
491	0.224
491	0.225
492	0.226
492	0.226
492	0.227
493	0.228
493	0.229
494	0.23
494	0.231
495	0.232
495	0.232
496	0.233
496	0.234
496	0.235
497	0.236
497	0.237
498	0.237
498	0.238
499	0.239
499	0.239
500	0.241
500	0.241
501	0.242
501	0.242
501	0.243
502	0.243
502	0.244
503	0.245
503	0.246
504	0.247
504	0.248
505	0.249
505	0.25
506	0.252
506	0.253
506	0.254
507	0.255
507	0.257
508	0.258
508	0.259
509	0.26
509	0.262
510	0.263
510	0.264
511	0.265
511	0.266
511	0.267
512	0.268
512	0.268
513	0.269
513	0.27
514	0.271
514	0.272
515	0.273
515	0.275
515	0.276
516	0.277
516	0.279
517	0.28
517	0.281
518	0.282
518	0.284
519	0.285
519	0.286
520	0.287
520	0.289
520	0.29
521	0.291
521	0.293
522	0.294
522	0.296
523	0.297
523	0.299
524	0.3
524	0.301
524	0.302
525	0.303
525	0.304
526	0.305
526	0.306
527	0.307
527	0.308
528	0.308
528	0.309
529	0.31
529	0.311
529	0.311
530	0.312
530	0.313
531	0.314
531	0.314
532	0.315
532	0.316
533	0.317
533	0.318
533	0.319
534	0.319
534	0.32
535	0.321
535	0.322
536	0.322
536	0.322
537	0.322
537	0.323
538	0.324
538	0.324
538	0.325
539	0.325
539	0.326
540	0.327
540	0.327
541	0.328
541	0.33
542	0.331
542	0.331
542	0.332
543	0.333
543	0.333
544	0.333
544	0.334
545	0.334
545	0.335
546	0.336
546	0.336
547	0.336
547	0.336
547	0.337
548	0.337
548	0.338
549	0.338
549	0.338
550	0.339
550	0.339
551	0.339
551	0.339
551	0.34
552	0.34
552	0.341
553	0.341
553	0.342
554	0.342
554	0.342
555	0.342
555	0.342
556	0.342
556	0.342
556	0.343
557	0.344
557	0.345
558	0.345
558	0.345
559	0.346
559	0.346
560	0.346
560	0.346
560	0.347
561	0.347
561	0.346
562	0.346
562	0.345
563	0.344
563	0.344
564	0.343
564	0.343
564	0.343
565	0.342
565	0.342
566	0.341
566	0.341
567	0.341
567	0.34
568	0.34
568	0.339
568	0.339
569	0.339
569	0.338
570	0.337
570	0.336
571	0.336
571	0.336
572	0.335
572	0.335
573	0.334
573	0.334
573	0.333
574	0.333
574	0.333
575	0.333
575	0.334
576	0.333
576	0.331
577	0.33
577	0.329
577	0.329
578	0.328
578	0.328
579	0.328
579	0.328
580	0.326
580	0.324
581	0.323
581	0.323
581	0.323
582	0.323
582	0.323
583	0.323
583	0.323
584	0.321
584	0.32
585	0.321
585	0.322
585	0.322
586	0.321
586	0.321
587	0.32
587	0.319
588	0.318
588	0.318
589	0.318
589	0.318
590	0.317
590	0.317
590	0.318
591	0.317
591	0.316
592	0.315
592	0.315
593	0.314
593	0.314
594	0.313
594	0.313
594	0.313
595	0.313
595	0.313
596	0.313
596	0.315
597	0.316
597	0.315
598	0.315
598	0.314
598	0.314
599	0.314
599	0.312
600	0.311
600	0.31
601	0.309
601	0.307
602	0.305
602	0.305
602	0.304
603	0.304
603	0.304
604	0.303
604	0.303
605	0.303
605	0.303
606	0.301
606	0.3
606	0.3
607	0.299
607	0.299
608	0.297
608	0.296
609	0.296
609	0.297
610	0.296
610	0.296
610	0.298
611	0.299
611	0.3
612	0.301
612	0.302
613	0.302
613	0.303
614	0.302
614	0.3
614	0.3
615	0.299
615	0.298
616	0.298
616	0.296
617	0.295
617	0.294
618	0.293
618	0.293
618	0.292
619	0.292
619	0.293
620	0.293
620	0.293
621	0.292
621	0.292
622	0.292
622	0.292
622	0.291
623	0.291
623	0.292
624	0.291
624	0.291
625	0.291
625	0.291
626	0.291
626	0.291
626	0.292
627	0.292
627	0.292
628	0.292
628	0.292
629	0.291
629	0.291
630	0.291
630	0.29
630	0.291
631	0.291
631	0.29
632	0.289
632	0.289
633	0.289
633	0.288
634	0.288
634	0.288
634	0.287
635	0.286
635	0.285
636	0.284
636	0.284
637	0.283
637	0.282
638	0.281
638	0.28
638	0.279
639	0.278
639	0.278
640	0.278
640	0.277
641	0.277
641	0.277
642	0.276
642	0.276
642	0.275
643	0.274
643	0.273
644	0.272
644	0.271
645	0.27
645	0.269
646	0.268
646	0.266
646	0.264
647	0.263
647	0.261
648	0.258
648	0.256
649	0.252
649	0.248
650	0.245
650	0.24
650	0.233
651	0.226
651	0.218
652	0.208
652	0.198
653	0.189
653	0.178
653	0.176
654	0.175
654	0.168
655	0.158
655	0.151
656	0.143
656	0.135
657	0.129
657	0.123
657	0.115
658	0.109
658	0.087
659	0.035
659	-0.023
660	-0.055
660	-0.076
661	-0.096
661	-0.118
661	-0.141
662	-0.159
662	-0.175
663	-0.19
663	-0.209
664	-0.223
664	-0.246
665	-0.259
665	-0.277
665	-0.29
666	-0.3
666	-0.311
667	-0.32
667	-0.328
668	-0.341
668	-0.358
669	-0.367
669	-0.359
669	-0.326
670	-0.146
670	-0
671	-0
671	-0
672	-0
672	-0
672	-0
673	-0
673	-0
674	-0
674	-0
675	-0
675	-0
676	-0
676	-0
676	-0.177
677	-0.513
677	-0.536
678	-0.55
678	-0.549
679	-0.549
679	-0.561
680	-0.576
680	-0.576
680	-0.581
681	-0.601
681	-0.599
682	-0.615
682	-0.616
683	-0.618
683	-0.642
684	-0.657
684	-0.669
684	-0.677
685	-0.683
685	-0.686
686	-0.683
686	-0.687
687	-0.678
687	-0.687
687	-0.683
688	-0.67
688	-0.663
689	-0.654
689	-0.651
690	-0.64
690	-0.637
691	-0.64
691	-0.653
691	-0.676
692	-0.675
692	-0.675
693	-0.678
693	-0.694
694	-0.695
694	-0.692
695	-0.705
695	-0.705
695	-0.696
696	-0.696
696	-0.678
697	-0.683
697	-0.702
698	-0.708
698	-0.7
698	-0.72
699	-0.727
699	-0.727
700	-0.723
700	-0.74
701	-0.743
701	-0.752
702	-0.754
702	-0.745
702	-0.74
703	-0.736
703	-0.729
704	-0.727
704	-0.728
705	-0.742
705	-0.735
705	-0.725
706	-0.726
706	-0.722
707	-0.73
707	-0.724
708	-0.724
708	-0.716
709	-0.72
709	-0.725
709	-0.718
710	-0.727
710	-0.736
711	-0.731
711	-0.733
712	-0.733
712	-0.747
713	-0.748
713	-0.754
713	-0.745
714	-0.742
714	-0.744
715	-0.734
715	-0.724
716	-0.731
716	-0.735
716	-0.727
717	-0.729
717	-0.732
718	-0.725
718	-0.727
719	-0.734
719	-0.736
720	-0.734
720	-0.742
720	-0.735
721	-0.725
721	-0.727
722	-0.715
722	-0.704
723	-0.702
723	-0.707
723	-0.693
724	-0.697
724	-0.702
725	-0.703
725	-0.712
726	-0.725
726	-0.729
727	-0.736
727	-0.753
727	-0.762
728	-0.765
728	-0.773
729	-0.771
729	-0.776
730	-0.783
730	-0.777
730	-0.766
731	-0.75
731	-0.762
732	-0.766
732	-0.766
733	-0.763
733	-0.77
734	-0.764
734	-0.766
734	-0.754
735	-0.751
735	-0.753
736	-0.764
736	-0.75
737	-0.74
737	-0.74
737	-0.751
738	-0.745
738	-0.746
739	-0.745
739	-0.757
740	-0.757
740	-0.758
741	-0.752
741	-0.753
741	-0.757
742	-0.756
742	-0.757
743	-0.764
743	-0.769
744	-0.764
744	-0.753
744	-0.755
745	-0.762
745	-0.754
746	-0.754
746	-0.752
747	-0.755
747	-0.743
748	-0.731
748	-0.737
748	-0.739
749	-0.738
749	-0.738
750	-0.728
750	-0.731
751	-0.734
751	-0.742
751	-0.742
752	-0.747
752	-0.755
753	-0.748
753	-0.745
754	-0.751
754	-0.746
754	-0.758
755	-0.773
755	-0.785
756	-0.777
756	-0.773
757	-0.77
757	-0.768
758	-0.77
758	-0.768
758	-0.77
759	-0.778
759	-0.764
760	-0.756
760	-0.751
761	-0.76
761	-0.759
761	-0.76
762	-0.766
762	-0.767
763	-0.776
763	-0.773
764	-0.77
764	-0.777
764	-0.783
765	-0.771
765	-0.757
766	-0.765
766	-0.769
767	-0.784
767	-0.776
768	-0.768
768	-0.776
768	-0.783
769	-0.802
769	-0.804
770	-0.81
770	-0.825
771	-0.821
771	-0.826
771	-0.828
772	-0.834
772	-0.831
773	-0.831
773	-0.825
774	-0.823
774	-0.824
775	-0.827
775	-0.823
775	-0.83
776	-0.826
776	-0.815
777	-0.822
777	-0.842
778	-0.84
778	-0.86
778	-0.846
779	-0.868
779	-0.874
780	-0.886
780	-0.885
781	-0.9
781	-0.892
781	-0.904
782	-0.902
782	-0.903
783	-0.888
783	-0.886
784	-0.867
784	-0.857
784	-0.867
785	-0.873
785	-0.861
786	-0.87
786	-0.853
787	-0.841
787	-0.847
788	-0.851
788	-0.863
788	-0.877
789	-0.879
789	-0.862
790	-0.845
790	-0.847
791	-0.847
791	-0.865
791	-0.874
792	-0.867
792	-0.842
793	-0.83
793	-0.804
794	-0.81
794	-0.803
794	-0.813
795	-0.808
795	-0.801
796	-0.784
796	-0.788
797	-0.782
797	-0.797
797	-0.805
798	-0.817
798	-0.812
799	-0.821
799	-0.805
800	-0.811
800	-0.804
801	-0.81
801	-0.798
801	-0.81
802	-0.818
802	-0.817
803	-0.819
803	-0.827
804	-0.823
804	-0.834
804	-0.82
805	-0.825
805	-0.811
806	-0.814
806	-0.797
807	-0.793
807	-0.776
807	-0.761
808	-0.752
808	-0.744
809	-0.729
809	-0.739
810	-0.74
810	-0.732
810	-0.729
811	-0.734
811	-0.728
812	-0.729
812	-0.734
813	-0.739
813	-0.736
813	-0.742
814	-0.743
814	-0.743
815	-0.748
815	-0.751
816	-0.745
816	-0.747
817	-0.755
817	-0.776
817	-0.79
818	-0.797
818	-0.801
819	-0.795
819	-0.796
820	-0.808
820	-0.806
820	-0.817
821	-0.817
821	-0.804
822	-0.769
822	-0.746
823	-0.743
823	-0.745
823	-0.74
824	-0.732
824	-0.733
825	-0.725
825	-0.706
826	-0.701
826	-0.709
826	-0.719
827	-0.711
827	-0.705
828	-0.684
828	-0.683
829	-0.676
829	-0.661
829	-0.654
830	-0.664
830	-0.66
831	-0.651
831	-0.641
832	-0.64
832	-0.633
832	-0.642
833	-0.639
833	-0.641
834	-0.637
834	-0.645
835	-0.632
835	-0.628
835	-0.625
836	-0.623
836	-0.62
837	-0.617
837	-0.606
838	-0.595
838	-0.58
839	-0.568
839	-0.554
839	-0.544
840	-0.531
840	-0.527
841	-0.515
841	-0.505
842	-0.499
842	-0.489
842	-0.481
843	-0.476
843	-0.471
844	-0.461
844	-0.452
845	-0.443
845	-0.43
845	-0.415
846	-0.405
846	-0.39
847	-0.378
847	-0.366
848	-0.353
848	-0.34
848	-0.324
849	-0.313
849	-0.299
850	-0.283
850	-0.276
851	-0.266
851	-0.254
851	-0.244
852	-0.226
852	-0.211
853	-0.201
853	-0.194
854	-0.18
854	-0.167
854	-0.156
855	-0.143
855	-0.133
856	-0.121
856	-0.111
857	-0.104
857	-0.093
857	-0.079
858	-0.065
858	-0.056
859	-0.046
859	-0.032
860	-0.021
860	-0.005
860	0.005
861	0.016
861	0.027
862	0.036
862	0.044
863	0.053
863	0.062
863	0.068
864	0.073
864	0.079
865	0.085
865	0.09
866	0.096
866	0.1
866	0.106
867	0.111
867	0.116
868	0.119
868	0.124
869	0.129
869	0.133
869	0.136
870	0.139
870	0.143
871	0.146
871	0.148
872	0.149
872	0.15
872	0.151
873	0.152
873	0.152
874	0.151
874	0.151
875	0.15
875	0.15
875	0.149
876	0.148
876	0.147
877	0.146
877	0.145
878	0.144
878	0.143
878	0.142
879	0.141
879	0.14
880	0.14
880	0.139
881	0.139
881	0.138
881	0.138
882	0.137
882	0.137
883	0.136
883	0.135
884	0.135
884	0.134
884	0.134
885	0.133
885	0.133
886	0.132
886	0.131
887	0.13
887	0.129
887	0.128
888	0.128
888	0.127
889	0.127
889	0.126
890	0.125
890	0.124
890	0.122
891	0.121
891	0.12
892	0.12
892	0.12
893	0.119
893	0.119
893	0.12
894	0.12
894	0.12
895	0.119
895	0.119
895	0.119
896	0.118
896	0.117
897	0.116
897	0.115
898	0.115
898	0.114
898	0.114
899	0.114
899	0.115
900	0.115
900	0.116
901	0.117
901	0.118
901	0.119
902	0.12
902	0.121
903	0.122
903	0.123
904	0.124
904	0.126
904	0.127
905	0.128
905	0.129
906	0.13
906	0.131
907	0.132
907	0.133
907	0.134
908	0.134
908	0.135
909	0.135
909	0.135
910	0.135
910	0.134
910	0.134
911	0.133
911	0.133
912	0.133
912	0.133
913	0.132
913	0.132
913	0.131
914	0.131
914	0.13
915	0.129
915	0.129
916	0.128
916	0.127
916	0.127
917	0.126
917	0.125
918	0.125
918	0.125
918	0.125
919	0.125
919	0.125
920	0.124
920	0.124
921	0.124
921	0.123
921	0.123
922	0.122
922	0.121
923	0.12
923	0.119
924	0.118
924	0.117
924	0.117
925	0.116
925	0.114
926	0.114
926	0.113
927	0.112
927	0.111
927	0.111
928	0.11
928	0.109
929	0.108
929	0.107
930	0.106
930	0.105
930	0.104
931	0.103
931	0.102
932	0.102
932	0.101
933	0.1
933	0.099
933	0.098
934	0.097
934	0.096
935	0.095
935	0.094
935	0.093
936	0.092
936	0.09
937	0.089
937	0.088
938	0.087
938	0.087
938	0.087
939	0.087
939	0.088
940	0.088
940	0.089
941	0.089
941	0.09
941	0.091
942	0.091
942	0.09
943	0.09
943	0.089
944	0.089
944	0.088
944	0.088
945	0.087
945	0.087
946	0.086
946	0.086
946	0.086
947	0.086
947	0.086
948	0.087
948	0.088
949	0.087
949	0.088
949	0.088
950	0.088
950	0.087
951	0.087
951	0.087
952	0.086
952	0.086
952	0.085
953	0.084
953	0.084
954	0.083
954	0.083
955	0.083
955	0.084
955	0.083
956	0.083
956	0.084
957	0.083
957	0.084
957	0.084
958	0.084
958	0.085
959	0.085
959	0.085
960	0.085
960	0.085
960	0.086
961	0.086
961	0.086
962	0.087
962	0.087
963	0.087
963	0.087
963	0.087
964	0.088
964	0.088
965	0.088
965	0.088
966	0.088
966	0.087
966	0.087
967	0.087
967	0.087
968	0.087
968	0.087
968	0.088
969	0.088
969	0.089
970	0.09
970	0.091
971	0.093
971	0.094
971	0.095
972	0.096
972	0.097
973	0.099
973	0.099
974	0.099
974	0.099
974	0.099
975	0.099
975	0.098
976	0.097
976	0.096
976	0.096
977	0.095
977	0.094
978	0.093
978	0.092
979	0.092
979	0.091
979	0.091
980	0.09
980	0.09
981	0.09
981	0.089
982	0.089
982	0.088
982	0.087
983	0.086
983	0.085
984	0.085
984	0.084
984	0.084
985	0.083
985	0.083
986	0.083
986	0.083
987	0.083
987	0.084
987	0.084
988	0.084
988	0.084
989	0.084
989	0.084
990	0.084
990	0.083
990	0.083
991	0.082
991	0.082
992	0.082
992	0.081
992	0.081
993	0.081
993	0.081
994	0.081
994	0.081
995	0.081
995	0.081
995	0.081
996	0.081
996	0.081
997	0.081
997	0.082
997	0.082
998	0.082
998	0.082
999	0.083
999	0.083
1000	0.084
1000	0.083
1000	0.083
1001	0.084
1001	0.084
1002	0.084
1002	0.084
1003	0.084
1003	0.084
1003	0.083
1004	0.082
1004	0.081
1005	0.08
1005	0.078
1005	0.077
1006	0.076
1006	0.074
1007	0.073
1007	0.072
1008	0.072
1008	0.071
1008	0.071
1009	0.072
1009	0.072
1010	0.072
1010	0.072
1010	0.072
1011	0.072
1011	0.072
1012	0.072
1012	0.071
1013	0.071
1013	0.07
1013	0.069
1014	0.069
1014	0.069
1015	0.068
1015	0.069
1016	0.069
1016	0.069
1016	0.068
1017	0.068
1017	0.068
1018	0.068
1018	0.068
1018	0.068
1019	0.067
1019	0.066
1020	0.066
1020	0.065
1021	0.065
1021	0.064
1021	0.063
1022	0.062
1022	0.061
1023	0.061
1023	0.06
1023	0.06
1024	0.06
1024	0.059
1025	0.059
1025	0.059
1026	0.059
1026	0.059
1026	0.059
1027	0.059
1027	0.06
1028	0.06
1028	0.06
1028	0.061
1029	0.062
1029	0.062
1030	0.062
1030	0.063
1031	0.063
1031	0.064
1031	0.065
1032	0.066
1032	0.067
1033	0.068
1033	0.069
1033	0.07
1034	0.071
1034	0.071
1035	0.072
1035	0.073
1036	0.072
1036	0.073
1036	0.072
1037	0.072
1037	0.072
1038	0.072
1038	0.071
1039	0.071
1039	0.071
1039	0.072
1040	0.071
1040	0.072
1041	0.072
1041	0.072
1041	0.072
1042	0.072
1042	0.072
1043	0.072
1043	0.071
1044	0.071
1044	0.071
1044	0.071
1045	0.07
1045	0.069
1046	0.069
1046	0.069
1046	0.069
1047	0.069
1047	0.07
1048	0.07
1048	0.069
1049	0.069
1049	0.069
1049	0.069
1050	0.069
1050	0.068
1051	0.068
1051	0.068
1051	0.067
1052	0.067
1052	0.066
1053	0.066
1053	0.065
1053	0.065
1054	0.064
1054	0.063
1055	0.063
1055	0.062
1056	0.06
1056	0.059
1056	0.057
1057	0.056
1057	0.055
1058	0.054
1058	0.053
1058	0.052
1059	0.051
1059	0.05
1060	0.049
1060	0.049
1061	0.049
1061	0.049
1061	0.048
1062	0.048
1062	0.048
1063	0.048
1063	0.048
1063	0.048
1064	0.048
1064	0.048
1065	0.048
1065	0.047
1066	0.047
1066	0.047
1066	0.047
1067	0.048
1067	0.048
1068	0.048
1068	0.048
1068	0.048
1069	0.048
1069	0.048
1070	0.049
1070	0.05
1071	0.049
1071	0.05
1071	0.05
1072	0.05
1072	0.05
1073	0.05
1073	0.051
1073	0.05
1074	0.051
1074	0.052
1075	0.051
1075	0.051
1076	0.05
1076	0.051
1076	0.05
1077	0.049
1077	0.048
1078	0.047
1078	0.046
1078	0.045
1079	0.044
1079	0.043
1080	0.042
1080	0.041
1080	0.039
1081	0.038
1081	0.038
1082	0.037
1082	0.035
1083	0.034
1083	0.033
1083	0.031
1084	0.029
1084	0.028
1085	0.026
1085	0.025
1085	0.024
1086	0.022
1086	0.021
1087	0.021
1087	0.02
1088	0.019
1088	0.019
1088	0.018
1089	0.017
1089	0.016
1090	0.014
1090	0.014
1090	0.013
1091	0.012
1091	0.011
1092	0.01
1092	0.01
1092	0.008
1093	0.008
1093	0.008
1094	0.008
1094	0.008
1095	0.006
1095	0.006
1095	0.006
1096	0.006
1096	0.005
1097	0.004
1097	0.003
1097	0.001
1098	-0.001
1098	-0.004
1099	-0.005
1099	-0.006
1100	-0.009
1100	-0.011
1100	-0.015
1101	-0.018
1101	-0.022
1102	-0.024
1102	-0.027
1102	-0.028
1103	-0.031
1103	-0.034
1104	-0.036
1104	-0.039
1104	-0.041
1105	-0.043
1105	-0.046
1106	-0.051
1106	-0.053
1107	-0.059
1107	-0.064
1107	-0.07
1108	-0.072
1108	-0.075
1109	-0.078
1109	-0.084
1109	-0.087
1110	-0.089
1110	-0.093
1111	-0.102
1111	-0.103
