Data from 17C_3.4A_35min_2sec_int_Absorbance__580__04665.txt Node

Date: Mon Jun 19 20:05:21 CEST 2023
User: Marek
Spectrometer: MAYP115816
Trigger mode: 0
Integration Time (sec): 2.500000E-1
Scans to average: 10
Electric dark correction enabled: true
Nonlinearity correction enabled: true
Boxcar width: 5
XAxis mode: Wavelengths
Number of Pixels in Spectrum: 2068
>>>>>Begin Spectral Data<<<<<
199	-0.775
199	-0.782
200	-0.684
200	-0.629
201	-0.591
201	-0.577
202	-0.56
202	-0.546
203	-0.538
203	-0.534
204	-0.519
204	-0.504
205	-0.481
205	-0.474
205	-0.472
206	-0.475
206	-0.476
207	-0.467
207	-0.471
208	-0.472
208	-0.472
209	-0.466
209	-0.467
210	-0.473
210	-0.48
211	-0.482
211	-0.484
212	-0.488
212	-0.496
213	-0.495
213	-0.496
213	-0.502
214	-0.499
214	-0.5
215	-0.499
215	-0.504
216	-0.508
216	-0.515
217	-0.511
217	-0.516
218	-0.518
218	-0.517
219	-0.52
219	-0.531
220	-0.535
220	-0.545
221	-0.543
221	-0.544
221	-0.537
222	-0.534
222	-0.536
223	-0.537
223	-0.538
224	-0.542
224	-0.54
225	-0.534
225	-0.528
226	-0.533
226	-0.535
227	-0.542
227	-0.55
228	-0.549
228	-0.554
229	-0.557
229	-0.55
229	-0.544
230	-0.549
230	-0.553
231	-0.547
231	-0.538
232	-0.532
232	-0.531
233	-0.527
233	-0.524
234	-0.521
234	-0.52
235	-0.523
235	-0.528
236	-0.528
236	-0.533
236	-0.54
237	-0.547
237	-0.547
238	-0.554
238	-0.551
239	-0.552
239	-0.561
240	-0.563
240	-0.56
241	-0.565
241	-0.562
242	-0.568
242	-0.563
243	-0.559
243	-0.56
243	-0.568
244	-0.568
244	-0.567
245	-0.581
245	-0.582
246	-0.586
246	-0.591
247	-0.593
247	-0.597
248	-0.604
248	-0.603
249	-0.605
249	-0.614
250	-0.611
250	-0.605
250	-0.605
251	-0.6
251	-0.601
252	-0.603
252	-0.594
253	-0.598
253	-0.608
254	-0.609
254	-0.607
255	-0.617
255	-0.61
256	-0.608
256	-0.618
257	-0.616
257	-0.613
258	-0.63
258	-0.626
258	-0.621
259	-0.617
259	-0.626
260	-0.625
260	-0.631
261	-0.642
261	-0.635
262	-0.63
262	-0.632
263	-0.621
263	-0.616
264	-0.618
264	-0.626
265	-0.618
265	-0.626
265	-0.628
266	-0.625
266	-0.624
267	-0.638
267	-0.643
268	-0.658
268	-0.669
269	-0.666
269	-0.658
270	-0.665
270	-0.667
271	-0.67
271	-0.676
272	-0.678
272	-0.672
272	-0.667
273	-0.665
273	-0.675
274	-0.681
274	-0.687
275	-0.686
275	-0.68
276	-0.685
276	-0.678
277	-0.682
277	-0.702
278	-0.713
278	-0.708
278	-0.699
279	-0.703
279	-0.715
280	-0.715
280	-0.716
281	-0.71
281	-0.717
282	-0.709
282	-0.709
283	-0.699
283	-0.701
284	-0.698
284	-0.685
285	-0.679
285	-0.676
285	-0.671
286	-0.679
286	-0.675
287	-0.673
287	-0.656
288	-0.649
288	-0.656
289	-0.667
289	-0.679
290	-0.668
290	-0.665
291	-0.661
291	-0.654
292	-0.655
292	-0.661
292	-0.667
293	-0.671
293	-0.66
294	-0.65
294	-0.64
295	-0.638
295	-0.637
296	-0.636
296	-0.632
297	-0.626
297	-0.612
298	-0.604
298	-0.615
298	-0.604
299	-0.597
299	-0.598
300	-0.593
300	-0.588
301	-0.583
301	-0.582
302	-0.589
302	-0.597
303	-0.583
303	-0.567
304	-0.569
304	-0.57
305	-0.571
305	-0.569
305	-0.566
306	-0.552
306	-0.546
307	-0.533
307	-0.535
308	-0.548
308	-0.545
309	-0.548
309	-0.535
310	-0.523
310	-0.518
311	-0.511
311	-0.519
311	-0.514
312	-0.509
312	-0.506
313	-0.492
313	-0.497
314	-0.493
314	-0.496
315	-0.498
315	-0.496
316	-0.493
316	-0.484
317	-0.477
317	-0.472
318	-0.46
318	-0.457
318	-0.451
319	-0.439
319	-0.436
320	-0.429
320	-0.431
321	-0.435
321	-0.434
322	-0.43
322	-0.427
323	-0.428
323	-0.422
324	-0.416
324	-0.408
324	-0.398
325	-0.388
325	-0.371
326	-0.358
326	-0.34
327	-0.324
327	-0.301
328	-0.274
328	-0.251
329	-0.226
329	-0.2
330	-0.172
330	-0.137
330	-0.107
331	-0.074
331	-0.044
332	-0.015
332	0.012
333	0.036
333	0.062
334	0.086
334	0.107
335	0.127
335	0.144
336	0.161
336	0.176
336	0.187
337	0.2
337	0.21
338	0.221
338	0.228
339	0.238
339	0.245
340	0.25
340	0.256
341	0.261
341	0.265
342	0.269
342	0.273
342	0.277
343	0.28
343	0.283
344	0.285
344	0.286
345	0.288
345	0.289
346	0.29
346	0.291
347	0.292
347	0.292
348	0.293
348	0.294
348	0.294
349	0.294
349	0.295
350	0.295
350	0.295
351	0.295
351	0.295
352	0.295
352	0.295
353	0.295
353	0.294
354	0.294
354	0.294
354	0.293
355	0.293
355	0.292
356	0.292
356	0.292
357	0.291
357	0.29
358	0.29
358	0.29
359	0.29
359	0.29
360	0.29
360	0.29
360	0.29
361	0.29
361	0.29
362	0.291
362	0.29
363	0.29
363	0.29
364	0.29
364	0.29
365	0.289
365	0.289
366	0.289
366	0.289
366	0.289
367	0.289
367	0.289
368	0.288
368	0.288
369	0.288
369	0.288
370	0.288
370	0.287
371	0.287
371	0.287
372	0.286
372	0.286
372	0.286
373	0.286
373	0.286
374	0.285
374	0.285
375	0.285
375	0.285
376	0.285
376	0.285
377	0.285
377	0.284
378	0.284
378	0.284
378	0.284
379	0.284
379	0.283
380	0.283
380	0.282
381	0.282
381	0.282
382	0.281
382	0.281
383	0.281
383	0.281
383	0.28
384	0.28
384	0.28
385	0.28
385	0.28
386	0.28
386	0.279
387	0.279
387	0.279
388	0.279
388	0.278
389	0.278
389	0.278
389	0.278
390	0.278
390	0.278
391	0.278
391	0.278
392	0.278
392	0.277
393	0.277
393	0.277
394	0.277
394	0.276
394	0.276
395	0.275
395	0.275
396	0.275
396	0.274
397	0.274
397	0.274
398	0.274
398	0.274
399	0.274
399	0.273
400	0.273
400	0.273
400	0.273
401	0.273
401	0.272
402	0.272
402	0.272
403	0.271
403	0.271
404	0.271
404	0.27
405	0.27
405	0.27
405	0.27
406	0.27
406	0.27
407	0.269
407	0.269
408	0.269
408	0.269
409	0.269
409	0.269
410	0.269
410	0.269
411	0.269
411	0.269
411	0.269
412	0.269
412	0.268
413	0.268
413	0.268
414	0.268
414	0.267
415	0.267
415	0.267
416	0.267
416	0.266
416	0.266
417	0.266
417	0.266
418	0.266
418	0.267
419	0.267
419	0.267
420	0.266
420	0.266
421	0.266
421	0.266
421	0.266
422	0.267
422	0.267
423	0.266
423	0.266
424	0.266
424	0.265
425	0.265
425	0.265
426	0.264
426	0.264
427	0.264
427	0.264
427	0.264
428	0.263
428	0.263
429	0.263
429	0.263
430	0.263
430	0.263
431	0.262
431	0.262
432	0.262
432	0.262
432	0.261
433	0.261
433	0.261
434	0.261
434	0.261
435	0.261
435	0.261
436	0.261
436	0.261
437	0.261
437	0.261
437	0.261
438	0.261
438	0.261
439	0.261
439	0.261
440	0.261
440	0.26
441	0.26
441	0.26
442	0.26
442	0.259
442	0.26
443	0.26
443	0.26
444	0.26
444	0.26
445	0.26
445	0.26
446	0.261
446	0.261
447	0.261
447	0.261
447	0.261
448	0.261
448	0.261
449	0.261
449	0.261
450	0.261
450	0.261
451	0.261
451	0.261
452	0.261
452	0.262
452	0.261
453	0.261
453	0.261
454	0.261
454	0.261
455	0.261
455	0.261
456	0.26
456	0.26
457	0.26
457	0.259
458	0.26
458	0.26
458	0.26
459	0.261
459	0.261
460	0.261
460	0.261
461	0.261
461	0.262
462	0.262
462	0.263
463	0.263
463	0.263
463	0.264
464	0.264
464	0.264
465	0.264
465	0.264
466	0.265
466	0.265
467	0.265
467	0.265
467	0.265
468	0.266
468	0.266
469	0.266
469	0.266
470	0.267
470	0.267
471	0.267
471	0.267
472	0.267
472	0.268
472	0.268
473	0.269
473	0.269
474	0.27
474	0.27
475	0.271
475	0.272
476	0.272
476	0.273
477	0.273
477	0.274
477	0.275
478	0.275
478	0.276
479	0.277
479	0.277
480	0.278
480	0.279
481	0.28
481	0.281
482	0.281
482	0.282
482	0.282
483	0.283
483	0.284
484	0.285
484	0.285
485	0.286
485	0.286
486	0.287
486	0.288
487	0.289
487	0.29
487	0.29
488	0.291
488	0.292
489	0.294
489	0.296
490	0.298
490	0.3
491	0.302
491	0.303
492	0.305
492	0.307
492	0.309
493	0.31
493	0.312
494	0.314
494	0.315
495	0.317
495	0.318
496	0.32
496	0.322
496	0.324
497	0.326
497	0.328
498	0.33
498	0.332
499	0.333
499	0.336
500	0.338
500	0.34
501	0.342
501	0.344
501	0.345
502	0.347
502	0.348
503	0.35
503	0.352
504	0.354
504	0.356
505	0.358
505	0.359
506	0.362
506	0.364
506	0.366
507	0.368
507	0.37
508	0.372
508	0.375
509	0.377
509	0.379
510	0.381
510	0.383
511	0.385
511	0.387
511	0.389
512	0.391
512	0.392
513	0.394
513	0.395
514	0.396
514	0.398
515	0.4
515	0.402
515	0.403
516	0.405
516	0.407
517	0.409
517	0.411
518	0.413
518	0.415
519	0.417
519	0.418
520	0.42
520	0.422
520	0.425
521	0.426
521	0.428
522	0.43
522	0.431
523	0.433
523	0.434
524	0.435
524	0.435
524	0.436
525	0.436
525	0.436
526	0.436
526	0.437
527	0.437
527	0.437
528	0.437
528	0.437
529	0.438
529	0.438
529	0.438
530	0.438
530	0.438
531	0.438
531	0.438
532	0.438
532	0.437
533	0.437
533	0.436
533	0.436
534	0.435
534	0.435
535	0.434
535	0.433
536	0.432
536	0.431
537	0.429
537	0.428
538	0.427
538	0.426
538	0.425
539	0.424
539	0.423
540	0.422
540	0.42
541	0.419
541	0.419
542	0.418
542	0.416
542	0.415
543	0.413
543	0.411
544	0.409
544	0.407
545	0.405
545	0.403
546	0.401
546	0.399
547	0.396
547	0.394
547	0.393
548	0.391
548	0.389
549	0.387
549	0.386
550	0.384
550	0.383
551	0.381
551	0.38
551	0.378
552	0.377
552	0.376
553	0.374
553	0.372
554	0.371
554	0.368
555	0.366
555	0.365
556	0.363
556	0.36
556	0.359
557	0.357
557	0.355
558	0.353
558	0.351
559	0.349
559	0.347
560	0.345
560	0.343
560	0.341
561	0.34
561	0.338
562	0.336
562	0.334
563	0.332
563	0.33
564	0.328
564	0.326
564	0.324
565	0.323
565	0.321
566	0.319
566	0.317
567	0.315
567	0.314
568	0.312
568	0.31
568	0.309
569	0.307
569	0.306
570	0.303
570	0.301
571	0.301
571	0.299
572	0.298
572	0.296
573	0.294
573	0.293
573	0.291
574	0.29
574	0.289
575	0.288
575	0.288
576	0.286
576	0.284
577	0.282
577	0.281
577	0.281
578	0.28
578	0.279
579	0.279
579	0.278
580	0.276
580	0.274
581	0.272
581	0.271
581	0.271
582	0.271
582	0.27
583	0.27
583	0.268
584	0.266
584	0.264
585	0.265
585	0.265
585	0.264
586	0.263
586	0.263
587	0.261
587	0.26
588	0.259
588	0.258
589	0.258
589	0.257
590	0.257
590	0.256
590	0.257
591	0.256
591	0.255
592	0.254
592	0.253
593	0.253
593	0.253
594	0.252
594	0.252
594	0.251
595	0.251
595	0.251
596	0.251
596	0.252
597	0.253
597	0.252
598	0.251
598	0.251
598	0.25
599	0.249
599	0.247
600	0.246
600	0.245
601	0.244
601	0.242
602	0.241
602	0.24
602	0.239
603	0.239
603	0.24
604	0.24
604	0.24
605	0.241
605	0.241
606	0.24
606	0.239
606	0.238
607	0.237
607	0.237
608	0.236
608	0.234
609	0.233
609	0.233
610	0.232
610	0.231
610	0.231
611	0.231
611	0.231
612	0.232
612	0.232
613	0.232
613	0.232
614	0.231
614	0.231
614	0.23
615	0.23
615	0.229
616	0.229
616	0.228
617	0.227
617	0.225
618	0.225
618	0.224
618	0.224
619	0.224
619	0.224
620	0.224
620	0.223
621	0.223
621	0.222
622	0.222
622	0.221
622	0.221
623	0.22
623	0.22
624	0.219
624	0.218
625	0.217
625	0.217
626	0.216
626	0.215
626	0.215
627	0.214
627	0.213
628	0.212
628	0.211
629	0.21
629	0.209
630	0.208
630	0.206
630	0.205
631	0.204
631	0.203
632	0.201
632	0.199
633	0.198
633	0.196
634	0.194
634	0.192
634	0.189
635	0.187
635	0.184
636	0.181
636	0.179
637	0.176
637	0.173
638	0.17
638	0.166
638	0.163
639	0.159
639	0.155
640	0.151
640	0.147
641	0.143
641	0.139
642	0.135
642	0.131
642	0.126
643	0.122
643	0.117
644	0.112
644	0.107
645	0.102
645	0.097
646	0.092
646	0.087
646	0.081
647	0.075
647	0.07
648	0.064
648	0.058
649	0.052
649	0.046
650	0.039
650	0.032
650	0.024
651	0.015
651	0.003
652	-0.01
652	-0.024
653	-0.037
653	-0.049
653	-0.046
654	-0.031
654	-0.024
655	-0.029
655	-0.034
656	-0.04
656	-0.047
657	-0.051
657	-0.055
657	-0.062
658	-0.068
658	-0.096
659	-0.173
659	-0.263
660	-0.305
660	-0.33
661	-0.357
661	-0.385
661	-0.418
662	-0.448
662	-0.479
663	-0.515
663	-0.555
664	-0.595
664	-0.642
665	-0.689
665	-0.743
665	-0.794
666	-0.847
666	-0.905
667	-0.967
667	-1.028
668	-1.098
668	-1.167
669	-1.237
669	-1.306
669	-1.378
670	-1.434
670	-1.435
671	-1.482
671	-1.768
672	-2.075
672	-2.301
672	-2.451
673	-2.557
673	-2.646
674	-2.726
674	-2.754
675	-2.782
675	-2.927
676	-3.138
676	-3.116
676	-2.901
677	-2.71
677	-2.567
678	-2.429
678	-2.227
679	-1.851
679	-1.638
680	-1.525
680	-1.435
680	-1.357
681	-1.307
681	-1.245
682	-1.204
682	-1.166
683	-1.13
683	-1.114
684	-1.093
684	-1.076
684	-1.055
685	-1.031
685	-1.01
686	-0.986
686	-0.972
687	-0.948
687	-0.937
687	-0.917
688	-0.893
688	-0.872
689	-0.851
689	-0.838
690	-0.82
690	-0.81
691	-0.805
691	-0.811
691	-0.827
692	-0.819
692	-0.811
693	-0.807
693	-0.815
694	-0.811
694	-0.805
695	-0.81
695	-0.806
695	-0.789
696	-0.786
696	-0.763
697	-0.763
697	-0.779
698	-0.782
698	-0.772
698	-0.786
699	-0.788
699	-0.786
700	-0.778
700	-0.795
701	-0.794
701	-0.801
702	-0.803
702	-0.792
702	-0.783
703	-0.778
703	-0.77
704	-0.766
704	-0.767
705	-0.779
705	-0.772
705	-0.759
706	-0.76
706	-0.754
707	-0.759
707	-0.756
708	-0.753
708	-0.745
709	-0.75
709	-0.752
709	-0.743
710	-0.752
710	-0.763
711	-0.754
711	-0.755
712	-0.753
712	-0.765
713	-0.765
713	-0.773
713	-0.762
714	-0.759
714	-0.76
715	-0.75
715	-0.737
716	-0.745
716	-0.746
716	-0.74
717	-0.741
717	-0.744
718	-0.733
718	-0.734
719	-0.74
719	-0.742
720	-0.737
720	-0.748
720	-0.74
721	-0.73
721	-0.73
722	-0.718
722	-0.707
723	-0.705
723	-0.711
723	-0.697
724	-0.699
724	-0.704
725	-0.702
725	-0.712
726	-0.724
726	-0.731
727	-0.737
727	-0.75
727	-0.759
728	-0.759
728	-0.766
729	-0.765
729	-0.77
730	-0.775
730	-0.769
730	-0.76
731	-0.742
731	-0.752
732	-0.758
732	-0.757
733	-0.757
733	-0.763
734	-0.758
734	-0.754
734	-0.741
735	-0.739
735	-0.74
736	-0.75
736	-0.736
737	-0.727
737	-0.729
737	-0.739
738	-0.733
738	-0.734
739	-0.733
739	-0.748
740	-0.747
740	-0.745
741	-0.741
741	-0.743
741	-0.749
742	-0.745
742	-0.743
743	-0.75
743	-0.754
744	-0.751
744	-0.74
744	-0.741
745	-0.749
745	-0.742
746	-0.74
746	-0.734
747	-0.738
747	-0.726
748	-0.714
748	-0.72
748	-0.724
749	-0.721
749	-0.724
750	-0.71
750	-0.711
751	-0.716
751	-0.726
751	-0.726
752	-0.731
752	-0.742
753	-0.736
753	-0.731
754	-0.737
754	-0.73
754	-0.746
755	-0.762
755	-0.772
756	-0.761
756	-0.759
757	-0.756
757	-0.751
758	-0.754
758	-0.752
758	-0.755
759	-0.76
759	-0.743
760	-0.736
760	-0.734
761	-0.744
761	-0.742
761	-0.742
762	-0.75
762	-0.749
763	-0.756
763	-0.751
764	-0.751
764	-0.761
764	-0.767
765	-0.754
765	-0.738
766	-0.744
766	-0.751
767	-0.765
767	-0.758
768	-0.751
768	-0.76
768	-0.767
769	-0.782
769	-0.785
770	-0.79
770	-0.805
771	-0.803
771	-0.806
771	-0.809
772	-0.815
772	-0.814
773	-0.813
773	-0.808
774	-0.806
774	-0.807
775	-0.812
775	-0.806
775	-0.813
776	-0.811
776	-0.799
777	-0.805
777	-0.826
778	-0.822
778	-0.84
778	-0.828
779	-0.849
779	-0.855
780	-0.869
780	-0.87
781	-0.884
781	-0.88
781	-0.897
782	-0.896
782	-0.899
783	-0.885
783	-0.882
784	-0.863
784	-0.851
784	-0.86
785	-0.865
785	-0.848
786	-0.854
786	-0.832
787	-0.818
787	-0.821
788	-0.826
788	-0.838
788	-0.848
789	-0.851
789	-0.833
790	-0.814
790	-0.818
791	-0.818
791	-0.835
791	-0.841
792	-0.835
792	-0.813
793	-0.803
793	-0.779
794	-0.781
794	-0.774
794	-0.784
795	-0.78
795	-0.771
796	-0.756
796	-0.763
797	-0.756
797	-0.766
797	-0.772
798	-0.786
798	-0.782
799	-0.792
799	-0.777
800	-0.783
800	-0.777
801	-0.782
801	-0.768
801	-0.779
802	-0.785
802	-0.784
803	-0.785
803	-0.793
804	-0.788
804	-0.8
804	-0.785
805	-0.79
805	-0.778
806	-0.782
806	-0.766
807	-0.766
807	-0.75
807	-0.737
808	-0.729
808	-0.724
809	-0.708
809	-0.717
810	-0.715
810	-0.709
810	-0.705
811	-0.712
811	-0.702
812	-0.702
812	-0.708
813	-0.711
813	-0.705
813	-0.711
814	-0.716
814	-0.719
815	-0.723
815	-0.726
816	-0.721
816	-0.726
817	-0.735
817	-0.753
817	-0.767
818	-0.777
818	-0.777
819	-0.768
819	-0.768
820	-0.779
820	-0.774
820	-0.783
821	-0.781
821	-0.768
822	-0.734
822	-0.71
823	-0.708
823	-0.712
823	-0.708
824	-0.703
824	-0.705
825	-0.698
825	-0.677
826	-0.672
826	-0.679
826	-0.69
827	-0.686
827	-0.682
828	-0.661
828	-0.662
829	-0.653
829	-0.636
829	-0.629
830	-0.642
830	-0.638
831	-0.628
831	-0.62
832	-0.618
832	-0.608
832	-0.618
833	-0.613
833	-0.615
834	-0.614
834	-0.622
835	-0.608
835	-0.604
835	-0.601
836	-0.599
836	-0.593
837	-0.591
837	-0.577
838	-0.569
838	-0.558
839	-0.545
839	-0.533
839	-0.522
840	-0.512
840	-0.509
841	-0.497
841	-0.486
842	-0.482
842	-0.474
842	-0.467
843	-0.461
843	-0.455
844	-0.446
844	-0.439
845	-0.429
845	-0.417
845	-0.405
846	-0.395
846	-0.38
847	-0.368
847	-0.355
848	-0.343
848	-0.332
848	-0.316
849	-0.305
849	-0.294
850	-0.28
850	-0.274
851	-0.266
851	-0.256
851	-0.246
852	-0.23
852	-0.216
853	-0.207
853	-0.201
854	-0.189
854	-0.177
854	-0.167
855	-0.155
855	-0.147
856	-0.136
856	-0.128
857	-0.121
857	-0.113
857	-0.101
858	-0.089
858	-0.082
859	-0.073
859	-0.062
860	-0.052
860	-0.039
860	-0.03
861	-0.021
861	-0.012
862	-0.005
862	0.003
863	0.01
863	0.019
863	0.024
864	0.028
864	0.034
865	0.039
865	0.044
866	0.048
866	0.051
866	0.055
867	0.058
867	0.062
868	0.065
868	0.069
869	0.072
869	0.074
869	0.076
870	0.079
870	0.081
871	0.083
871	0.084
872	0.084
872	0.085
872	0.085
873	0.085
873	0.084
874	0.083
874	0.082
875	0.081
875	0.08
875	0.079
876	0.078
876	0.076
877	0.075
877	0.074
878	0.072
878	0.071
878	0.07
879	0.069
879	0.068
880	0.068
880	0.068
881	0.067
881	0.067
881	0.067
882	0.067
882	0.066
883	0.065
883	0.065
884	0.064
884	0.063
884	0.063
885	0.063
885	0.063
886	0.062
886	0.062
887	0.061
887	0.061
887	0.061
888	0.062
888	0.062
889	0.063
889	0.063
890	0.062
890	0.062
890	0.061
891	0.061
891	0.061
892	0.062
892	0.062
893	0.063
893	0.063
893	0.064
894	0.065
894	0.066
895	0.067
895	0.068
895	0.068
896	0.068
896	0.068
897	0.067
897	0.066
898	0.065
898	0.064
898	0.063
899	0.062
899	0.062
900	0.062
900	0.061
901	0.061
901	0.062
901	0.063
902	0.064
902	0.065
903	0.067
903	0.068
904	0.07
904	0.071
904	0.073
905	0.074
905	0.075
906	0.076
906	0.076
907	0.076
907	0.076
907	0.076
908	0.076
908	0.076
909	0.075
909	0.074
910	0.074
910	0.073
910	0.073
911	0.073
911	0.074
912	0.074
912	0.074
913	0.074
913	0.075
913	0.075
914	0.075
914	0.074
915	0.073
915	0.073
916	0.072
916	0.071
916	0.071
917	0.07
917	0.069
918	0.068
918	0.068
918	0.067
919	0.067
919	0.067
920	0.066
920	0.066
921	0.066
921	0.066
921	0.066
922	0.067
922	0.068
923	0.068
923	0.069
924	0.07
924	0.071
924	0.072
925	0.072
925	0.072
926	0.072
926	0.072
927	0.071
927	0.071
927	0.07
928	0.069
928	0.068
929	0.067
929	0.066
930	0.065
930	0.064
930	0.064
931	0.063
931	0.063
932	0.063
932	0.062
933	0.062
933	0.061
933	0.06
934	0.059
934	0.058
935	0.057
935	0.056
935	0.055
936	0.054
936	0.053
937	0.052
937	0.051
938	0.051
938	0.051
938	0.051
939	0.052
939	0.052
940	0.053
940	0.053
941	0.054
941	0.054
941	0.055
942	0.055
942	0.055
943	0.055
943	0.055
944	0.055
944	0.055
944	0.054
945	0.055
945	0.054
946	0.053
946	0.052
946	0.052
947	0.051
947	0.051
948	0.051
948	0.051
949	0.05
949	0.05
949	0.05
950	0.05
950	0.049
951	0.05
951	0.05
952	0.049
952	0.05
952	0.049
953	0.049
953	0.049
954	0.047
954	0.047
955	0.047
955	0.047
955	0.048
956	0.047
956	0.048
957	0.048
957	0.049
957	0.049
958	0.05
958	0.051
959	0.052
959	0.053
960	0.053
960	0.053
960	0.054
961	0.054
961	0.054
962	0.054
962	0.053
963	0.053
963	0.053
963	0.052
964	0.052
964	0.052
965	0.052
965	0.051
966	0.051
966	0.05
966	0.051
967	0.051
967	0.051
968	0.051
968	0.051
968	0.051
969	0.052
969	0.052
970	0.053
970	0.054
971	0.055
971	0.056
971	0.056
972	0.056
972	0.056
973	0.056
973	0.056
974	0.055
974	0.054
974	0.054
975	0.052
975	0.051
976	0.05
976	0.048
976	0.047
977	0.046
977	0.045
978	0.044
978	0.043
979	0.042
979	0.041
979	0.04
980	0.04
980	0.039
981	0.039
981	0.038
982	0.038
982	0.037
982	0.037
983	0.037
983	0.037
984	0.037
984	0.037
984	0.038
985	0.039
985	0.039
986	0.039
986	0.04
987	0.04
987	0.041
987	0.041
988	0.041
988	0.041
989	0.04
989	0.04
990	0.039
990	0.038
990	0.038
991	0.038
991	0.037
992	0.037
992	0.037
992	0.037
993	0.038
993	0.039
994	0.04
994	0.04
995	0.041
995	0.041
995	0.041
996	0.042
996	0.041
997	0.041
997	0.042
997	0.042
998	0.042
998	0.042
999	0.043
999	0.043
1000	0.044
1000	0.044
1000	0.044
1001	0.044
1001	0.044
1002	0.043
1002	0.043
1003	0.042
1003	0.041
1003	0.04
1004	0.038
1004	0.036
1005	0.034
1005	0.033
1005	0.031
1006	0.03
1006	0.029
1007	0.027
1007	0.026
1008	0.025
1008	0.025
1008	0.025
1009	0.025
1009	0.026
1010	0.026
1010	0.027
1010	0.027
1011	0.028
1011	0.028
1012	0.029
1012	0.029
1013	0.029
1013	0.029
1013	0.028
1014	0.028
1014	0.028
1015	0.028
1015	0.028
1016	0.028
1016	0.028
1016	0.028
1017	0.027
1017	0.028
1018	0.028
1018	0.028
1018	0.028
1019	0.028
1019	0.027
1020	0.027
1020	0.026
1021	0.026
1021	0.025
1021	0.024
1022	0.023
1022	0.022
1023	0.022
1023	0.021
1023	0.02
1024	0.02
1024	0.02
1025	0.02
1025	0.02
1026	0.021
1026	0.021
1026	0.021
1027	0.022
1027	0.022
1028	0.023
1028	0.023
1028	0.023
1029	0.023
1029	0.023
1030	0.023
1030	0.023
1031	0.023
1031	0.023
1031	0.023
1032	0.022
1032	0.022
1033	0.022
1033	0.022
1033	0.022
1034	0.022
1034	0.021
1035	0.021
1035	0.021
1036	0.021
1036	0.02
1036	0.02
1037	0.02
1037	0.02
1038	0.02
1038	0.021
1039	0.021
1039	0.021
1039	0.022
1040	0.023
1040	0.024
1041	0.024
1041	0.025
1041	0.026
1042	0.026
1042	0.026
1043	0.025
1043	0.025
1044	0.025
1044	0.025
1044	0.025
1045	0.025
1045	0.024
1046	0.024
1046	0.024
1046	0.025
1047	0.026
1047	0.027
1048	0.027
1048	0.028
1049	0.029
1049	0.029
1049	0.03
1050	0.03
1050	0.031
1051	0.03
1051	0.03
1051	0.03
1052	0.03
1052	0.03
1053	0.029
1053	0.028
1053	0.027
1054	0.026
1054	0.025
1055	0.024
1055	0.023
1056	0.022
1056	0.02
1056	0.018
1057	0.017
1057	0.016
1058	0.014
1058	0.013
1058	0.012
1059	0.011
1059	0.01
1060	0.008
1060	0.008
1061	0.007
1061	0.007
1061	0.007
1062	0.006
1062	0.006
1063	0.006
1063	0.006
1063	0.006
1064	0.007
1064	0.007
1065	0.008
1065	0.007
1066	0.007
1066	0.008
1066	0.008
1067	0.008
1067	0.008
1068	0.008
1068	0.007
1068	0.006
1069	0.006
1069	0.005
1070	0.005
1070	0.005
1071	0.005
1071	0.005
1071	0.004
1072	0.004
1072	0.004
1073	0.004
1073	0.004
1073	0.004
1074	0.004
1074	0.005
1075	0.004
1075	0.004
1076	0.003
1076	0.003
1076	0.001
1077	0.001
1077	-0
1078	-0.002
1078	-0.003
1078	-0.004
1079	-0.005
1079	-0.006
1080	-0.007
1080	-0.007
1080	-0.009
1081	-0.01
1081	-0.01
1082	-0.011
1082	-0.012
1083	-0.013
1083	-0.014
1083	-0.014
1084	-0.015
1084	-0.015
1085	-0.016
1085	-0.017
1085	-0.017
1086	-0.017
1086	-0.018
1087	-0.017
1087	-0.017
1088	-0.017
1088	-0.017
1088	-0.018
1089	-0.019
1089	-0.019
1090	-0.02
1090	-0.02
1090	-0.021
1091	-0.021
1091	-0.021
1092	-0.022
1092	-0.021
1092	-0.022
1093	-0.022
1093	-0.021
1094	-0.021
1094	-0.021
1095	-0.022
1095	-0.023
1095	-0.023
1096	-0.024
1096	-0.024
1097	-0.025
1097	-0.026
1097	-0.027
1098	-0.029
1098	-0.03
1099	-0.031
1099	-0.032
1100	-0.034
1100	-0.035
1100	-0.037
1101	-0.04
1101	-0.043
1102	-0.044
1102	-0.047
1102	-0.048
1103	-0.05
1103	-0.053
1104	-0.055
1104	-0.057
1104	-0.06
1105	-0.062
1105	-0.067
1106	-0.071
1106	-0.073
1107	-0.078
1107	-0.083
1107	-0.088
1108	-0.09
1108	-0.093
1109	-0.097
1109	-0.1
1109	-0.105
1110	-0.104
1110	-0.106
1111	-0.115
1111	-0.111
