Data from 17C_3.4A_35min_2sec_int_Absorbance__195__04280.txt Node

Date: Mon Jun 19 19:49:19 CEST 2023
User: Marek
Spectrometer: MAYP115816
Trigger mode: 0
Integration Time (sec): 2.500000E-1
Scans to average: 10
Electric dark correction enabled: true
Nonlinearity correction enabled: true
Boxcar width: 5
XAxis mode: Wavelengths
Number of Pixels in Spectrum: 2068
>>>>>Begin Spectral Data<<<<<
199	-0.755
199	-0.774
200	-0.671
200	-0.623
201	-0.582
201	-0.567
202	-0.552
202	-0.537
203	-0.526
203	-0.523
204	-0.508
204	-0.495
205	-0.469
205	-0.464
205	-0.46
206	-0.465
206	-0.468
207	-0.456
207	-0.462
208	-0.465
208	-0.464
209	-0.46
209	-0.46
210	-0.464
210	-0.472
211	-0.473
211	-0.474
212	-0.477
212	-0.486
213	-0.483
213	-0.484
213	-0.488
214	-0.484
214	-0.484
215	-0.484
215	-0.488
216	-0.493
216	-0.5
217	-0.495
217	-0.501
218	-0.504
218	-0.504
219	-0.508
219	-0.519
220	-0.525
220	-0.534
221	-0.532
221	-0.534
221	-0.527
222	-0.524
222	-0.523
223	-0.525
223	-0.528
224	-0.532
224	-0.53
225	-0.524
225	-0.52
226	-0.526
226	-0.528
227	-0.533
227	-0.542
228	-0.544
228	-0.545
229	-0.548
229	-0.54
229	-0.534
230	-0.539
230	-0.541
231	-0.536
231	-0.525
232	-0.52
232	-0.519
233	-0.512
233	-0.511
234	-0.511
234	-0.509
235	-0.512
235	-0.52
236	-0.517
236	-0.52
236	-0.528
237	-0.532
237	-0.531
238	-0.54
238	-0.536
239	-0.535
239	-0.542
240	-0.541
240	-0.536
241	-0.542
241	-0.54
242	-0.542
242	-0.539
243	-0.536
243	-0.536
243	-0.545
244	-0.545
244	-0.547
245	-0.565
245	-0.565
246	-0.57
246	-0.576
247	-0.58
247	-0.583
248	-0.59
248	-0.586
249	-0.588
249	-0.596
250	-0.591
250	-0.584
250	-0.584
251	-0.582
251	-0.582
252	-0.583
252	-0.574
253	-0.579
253	-0.592
254	-0.591
254	-0.587
255	-0.596
255	-0.589
256	-0.587
256	-0.596
257	-0.593
257	-0.589
258	-0.606
258	-0.604
258	-0.6
259	-0.598
259	-0.609
260	-0.609
260	-0.614
261	-0.626
261	-0.619
262	-0.617
262	-0.617
263	-0.606
263	-0.598
264	-0.597
264	-0.605
265	-0.598
265	-0.608
265	-0.61
266	-0.604
266	-0.602
267	-0.615
267	-0.624
268	-0.638
268	-0.649
269	-0.648
269	-0.643
270	-0.647
270	-0.649
271	-0.649
271	-0.655
272	-0.657
272	-0.652
272	-0.643
273	-0.644
273	-0.653
274	-0.659
274	-0.663
275	-0.664
275	-0.657
276	-0.664
276	-0.658
277	-0.662
277	-0.681
278	-0.692
278	-0.683
278	-0.678
279	-0.679
279	-0.687
280	-0.685
280	-0.685
281	-0.679
281	-0.686
282	-0.68
282	-0.68
283	-0.668
283	-0.672
284	-0.667
284	-0.658
285	-0.655
285	-0.652
285	-0.648
286	-0.657
286	-0.651
287	-0.647
287	-0.633
288	-0.626
288	-0.636
289	-0.646
289	-0.655
290	-0.646
290	-0.644
291	-0.642
291	-0.633
292	-0.638
292	-0.644
292	-0.645
293	-0.65
293	-0.637
294	-0.626
294	-0.614
295	-0.611
295	-0.61
296	-0.608
296	-0.605
297	-0.598
297	-0.583
298	-0.577
298	-0.585
298	-0.573
299	-0.566
299	-0.569
300	-0.563
300	-0.558
301	-0.552
301	-0.551
302	-0.557
302	-0.564
303	-0.552
303	-0.539
304	-0.543
304	-0.543
305	-0.543
305	-0.545
305	-0.544
306	-0.53
306	-0.524
307	-0.511
307	-0.513
308	-0.527
308	-0.523
309	-0.525
309	-0.514
310	-0.502
310	-0.497
311	-0.489
311	-0.496
311	-0.494
312	-0.488
312	-0.486
313	-0.47
313	-0.475
314	-0.47
314	-0.473
315	-0.474
315	-0.473
316	-0.471
316	-0.463
317	-0.455
317	-0.45
318	-0.439
318	-0.436
318	-0.43
319	-0.42
319	-0.417
320	-0.41
320	-0.409
321	-0.412
321	-0.412
322	-0.406
322	-0.402
323	-0.402
323	-0.397
324	-0.388
324	-0.377
324	-0.366
325	-0.357
325	-0.34
326	-0.324
326	-0.303
327	-0.286
327	-0.263
328	-0.234
328	-0.212
329	-0.187
329	-0.161
330	-0.131
330	-0.093
330	-0.061
331	-0.027
331	0.004
332	0.036
332	0.065
333	0.092
333	0.123
334	0.15
334	0.171
335	0.194
335	0.213
336	0.232
336	0.249
336	0.263
337	0.278
337	0.291
338	0.302
338	0.31
339	0.321
339	0.33
340	0.336
340	0.343
341	0.349
341	0.353
342	0.359
342	0.363
342	0.367
343	0.37
343	0.374
344	0.377
344	0.379
345	0.38
345	0.382
346	0.383
346	0.385
347	0.386
347	0.386
348	0.387
348	0.388
348	0.388
349	0.388
349	0.388
350	0.389
350	0.389
351	0.389
351	0.389
352	0.389
352	0.389
353	0.389
353	0.389
354	0.389
354	0.389
354	0.388
355	0.388
355	0.388
356	0.388
356	0.387
357	0.386
357	0.385
358	0.385
358	0.385
359	0.384
359	0.384
360	0.384
360	0.384
360	0.384
361	0.383
361	0.383
362	0.384
362	0.383
363	0.383
363	0.383
364	0.383
364	0.382
365	0.382
365	0.381
366	0.381
366	0.381
366	0.381
367	0.381
367	0.381
368	0.38
368	0.38
369	0.379
369	0.379
370	0.379
370	0.378
371	0.378
371	0.377
372	0.377
372	0.376
372	0.376
373	0.376
373	0.376
374	0.375
374	0.375
375	0.375
375	0.375
376	0.374
376	0.374
377	0.374
377	0.373
378	0.373
378	0.373
378	0.372
379	0.372
379	0.371
380	0.371
380	0.37
381	0.37
381	0.369
382	0.368
382	0.368
383	0.367
383	0.366
383	0.366
384	0.365
384	0.365
385	0.365
385	0.365
386	0.364
386	0.364
387	0.364
387	0.363
388	0.363
388	0.363
389	0.362
389	0.362
389	0.362
390	0.362
390	0.361
391	0.361
391	0.36
392	0.36
392	0.36
393	0.359
393	0.358
394	0.358
394	0.357
394	0.357
395	0.356
395	0.356
396	0.355
396	0.355
397	0.355
397	0.354
398	0.354
398	0.354
399	0.354
399	0.353
400	0.353
400	0.352
400	0.352
401	0.352
401	0.351
402	0.351
402	0.35
403	0.35
403	0.349
404	0.349
404	0.348
405	0.348
405	0.348
405	0.348
406	0.347
406	0.347
407	0.347
407	0.346
408	0.346
408	0.346
409	0.345
409	0.345
410	0.345
410	0.345
411	0.345
411	0.344
411	0.344
412	0.344
412	0.344
413	0.343
413	0.343
414	0.343
414	0.343
415	0.342
415	0.342
416	0.341
416	0.341
416	0.341
417	0.341
417	0.34
418	0.34
418	0.34
419	0.34
419	0.34
420	0.34
420	0.34
421	0.34
421	0.34
421	0.34
422	0.34
422	0.34
423	0.339
423	0.339
424	0.338
424	0.338
425	0.338
425	0.337
426	0.337
426	0.337
427	0.337
427	0.336
427	0.336
428	0.336
428	0.336
429	0.336
429	0.336
430	0.335
430	0.335
431	0.335
431	0.335
432	0.335
432	0.334
432	0.334
433	0.334
433	0.334
434	0.334
434	0.334
435	0.334
435	0.334
436	0.333
436	0.333
437	0.333
437	0.333
437	0.333
438	0.333
438	0.333
439	0.333
439	0.333
440	0.333
440	0.333
441	0.333
441	0.333
442	0.333
442	0.333
442	0.333
443	0.333
443	0.333
444	0.333
444	0.333
445	0.333
445	0.333
446	0.334
446	0.334
447	0.334
447	0.334
447	0.334
448	0.335
448	0.335
449	0.335
449	0.335
450	0.335
450	0.335
451	0.335
451	0.335
452	0.335
452	0.336
452	0.336
453	0.336
453	0.336
454	0.335
454	0.336
455	0.336
455	0.336
456	0.336
456	0.336
457	0.337
457	0.337
458	0.337
458	0.337
458	0.338
459	0.338
459	0.339
460	0.339
460	0.339
461	0.339
461	0.34
462	0.34
462	0.341
463	0.341
463	0.342
463	0.342
464	0.342
464	0.343
465	0.344
465	0.344
466	0.345
466	0.346
467	0.346
467	0.347
467	0.348
468	0.348
468	0.349
469	0.35
469	0.351
470	0.352
470	0.352
471	0.353
471	0.353
472	0.354
472	0.355
472	0.356
473	0.357
473	0.358
474	0.358
474	0.359
475	0.36
475	0.361
476	0.362
476	0.363
477	0.364
477	0.365
477	0.366
478	0.367
478	0.369
479	0.37
479	0.372
480	0.373
480	0.374
481	0.376
481	0.377
482	0.379
482	0.38
482	0.382
483	0.384
483	0.386
484	0.387
484	0.388
485	0.389
485	0.391
486	0.393
486	0.394
487	0.396
487	0.398
487	0.4
488	0.402
488	0.403
489	0.406
489	0.41
490	0.412
490	0.415
491	0.417
491	0.42
492	0.422
492	0.425
492	0.428
493	0.43
493	0.433
494	0.436
494	0.439
495	0.441
495	0.444
496	0.447
496	0.45
496	0.453
497	0.456
497	0.459
498	0.462
498	0.465
499	0.468
499	0.472
500	0.476
500	0.479
501	0.483
501	0.486
501	0.489
502	0.492
502	0.495
503	0.499
503	0.503
504	0.506
504	0.509
505	0.513
505	0.517
506	0.52
506	0.524
506	0.527
507	0.531
507	0.534
508	0.538
508	0.541
509	0.545
509	0.549
510	0.552
510	0.556
511	0.559
511	0.563
511	0.566
512	0.569
512	0.573
513	0.576
513	0.579
514	0.582
514	0.586
515	0.589
515	0.591
515	0.594
516	0.597
516	0.601
517	0.604
517	0.606
518	0.609
518	0.611
519	0.613
519	0.615
520	0.617
520	0.62
520	0.622
521	0.624
521	0.626
522	0.627
522	0.629
523	0.631
523	0.633
524	0.635
524	0.635
524	0.636
525	0.637
525	0.637
526	0.638
526	0.638
527	0.639
527	0.639
528	0.639
528	0.639
529	0.639
529	0.639
529	0.639
530	0.639
530	0.639
531	0.638
531	0.638
532	0.636
532	0.635
533	0.634
533	0.632
533	0.631
534	0.629
534	0.627
535	0.625
535	0.622
536	0.619
536	0.616
537	0.614
537	0.611
538	0.608
538	0.605
538	0.602
539	0.599
539	0.596
540	0.593
540	0.59
541	0.587
541	0.584
542	0.581
542	0.577
542	0.572
543	0.569
543	0.565
544	0.561
544	0.557
545	0.553
545	0.549
546	0.545
546	0.54
547	0.535
547	0.531
547	0.527
548	0.523
548	0.519
549	0.515
549	0.511
550	0.507
550	0.502
551	0.498
551	0.494
551	0.49
552	0.486
552	0.482
553	0.478
553	0.474
554	0.469
554	0.465
555	0.46
555	0.456
556	0.451
556	0.446
556	0.442
557	0.437
557	0.433
558	0.428
558	0.423
559	0.418
559	0.413
560	0.408
560	0.404
560	0.4
561	0.396
561	0.391
562	0.387
562	0.382
563	0.378
563	0.374
564	0.37
564	0.366
564	0.362
565	0.359
565	0.355
566	0.351
566	0.347
567	0.343
567	0.339
568	0.334
568	0.33
568	0.325
569	0.321
569	0.317
570	0.312
570	0.308
571	0.305
571	0.301
572	0.297
572	0.294
573	0.29
573	0.286
573	0.283
574	0.28
574	0.277
575	0.274
575	0.271
576	0.268
576	0.264
577	0.261
577	0.258
577	0.256
578	0.253
578	0.251
579	0.25
579	0.247
580	0.243
580	0.239
581	0.236
581	0.233
581	0.231
582	0.23
582	0.228
583	0.225
583	0.222
584	0.219
584	0.215
585	0.213
585	0.212
585	0.209
586	0.207
586	0.205
587	0.203
587	0.2
588	0.198
588	0.196
589	0.194
589	0.192
590	0.191
590	0.189
590	0.188
591	0.186
591	0.183
592	0.18
592	0.178
593	0.177
593	0.175
594	0.173
594	0.171
594	0.17
595	0.168
595	0.166
596	0.164
596	0.164
597	0.163
597	0.161
598	0.16
598	0.158
598	0.156
599	0.155
599	0.152
600	0.151
600	0.149
601	0.147
601	0.146
602	0.143
602	0.142
602	0.14
603	0.14
603	0.14
604	0.139
604	0.138
605	0.138
605	0.138
606	0.136
606	0.134
606	0.133
607	0.132
607	0.131
608	0.129
608	0.127
609	0.126
609	0.125
610	0.124
610	0.123
610	0.122
611	0.122
611	0.122
612	0.123
612	0.123
613	0.123
613	0.122
614	0.121
614	0.119
614	0.118
615	0.117
615	0.116
616	0.115
616	0.113
617	0.112
617	0.11
618	0.109
618	0.108
618	0.107
619	0.107
619	0.107
620	0.107
620	0.106
621	0.105
621	0.104
622	0.103
622	0.103
622	0.102
623	0.101
623	0.101
624	0.1
624	0.099
625	0.098
625	0.098
626	0.097
626	0.097
626	0.097
627	0.097
627	0.096
628	0.096
628	0.095
629	0.094
629	0.093
630	0.091
630	0.09
630	0.09
631	0.089
631	0.088
632	0.086
632	0.085
633	0.084
633	0.083
634	0.082
634	0.081
634	0.08
635	0.079
635	0.078
636	0.076
636	0.075
637	0.073
637	0.072
638	0.07
638	0.068
638	0.066
639	0.064
639	0.062
640	0.06
640	0.058
641	0.056
641	0.054
642	0.051
642	0.049
642	0.047
643	0.044
643	0.042
644	0.039
644	0.036
645	0.033
645	0.03
646	0.027
646	0.024
646	0.02
647	0.017
647	0.014
648	0.01
648	0.007
649	0.003
649	-0.001
650	-0.005
650	-0.01
650	-0.015
651	-0.021
651	-0.028
652	-0.036
652	-0.045
653	-0.052
653	-0.059
653	-0.056
654	-0.05
654	-0.049
655	-0.054
655	-0.057
656	-0.061
656	-0.066
657	-0.069
657	-0.072
657	-0.076
658	-0.08
658	-0.099
659	-0.148
659	-0.201
660	-0.228
660	-0.245
661	-0.264
661	-0.283
661	-0.305
662	-0.323
662	-0.343
663	-0.366
663	-0.391
664	-0.415
664	-0.448
665	-0.478
665	-0.514
665	-0.547
666	-0.582
666	-0.623
667	-0.667
667	-0.712
668	-0.764
668	-0.82
669	-0.877
669	-0.934
669	-0.992
670	-1.03
670	-1.029
671	-1.181
671	-1.629
672	-2.005
672	-2.257
672	-2.42
673	-2.534
673	-2.592
674	-2.614
674	-2.629
675	-2.655
675	-2.799
676	-3.007
676	-2.971
676	-2.724
677	-2.483
677	-2.25
678	-1.889
678	-1.393
679	-1.19
679	-1.093
680	-1.024
680	-0.964
680	-0.919
681	-0.897
681	-0.86
682	-0.841
682	-0.82
683	-0.801
683	-0.805
684	-0.801
684	-0.798
684	-0.791
685	-0.781
685	-0.772
686	-0.759
686	-0.756
687	-0.742
687	-0.744
687	-0.735
688	-0.716
688	-0.704
689	-0.691
689	-0.684
690	-0.673
690	-0.667
691	-0.666
691	-0.675
691	-0.696
692	-0.693
692	-0.687
693	-0.687
693	-0.701
694	-0.7
694	-0.696
695	-0.704
695	-0.704
695	-0.693
696	-0.692
696	-0.673
697	-0.675
697	-0.694
698	-0.699
698	-0.69
698	-0.708
699	-0.713
699	-0.712
700	-0.707
700	-0.724
701	-0.725
701	-0.734
702	-0.734
702	-0.724
702	-0.716
703	-0.711
703	-0.699
704	-0.697
704	-0.696
705	-0.71
705	-0.704
705	-0.692
706	-0.693
706	-0.689
707	-0.695
707	-0.691
708	-0.69
708	-0.685
709	-0.689
709	-0.693
709	-0.683
710	-0.694
710	-0.706
711	-0.697
711	-0.7
712	-0.698
712	-0.712
713	-0.713
713	-0.721
713	-0.713
714	-0.713
714	-0.714
715	-0.702
715	-0.69
716	-0.7
716	-0.701
716	-0.694
717	-0.695
717	-0.697
718	-0.689
718	-0.689
719	-0.694
719	-0.696
720	-0.694
720	-0.703
720	-0.696
721	-0.687
721	-0.687
722	-0.677
722	-0.666
723	-0.663
723	-0.668
723	-0.656
724	-0.658
724	-0.662
725	-0.662
725	-0.672
726	-0.685
726	-0.693
727	-0.699
727	-0.715
727	-0.725
728	-0.725
728	-0.732
729	-0.732
729	-0.74
730	-0.746
730	-0.738
730	-0.729
731	-0.711
731	-0.72
732	-0.726
732	-0.727
733	-0.726
733	-0.732
734	-0.728
734	-0.726
734	-0.714
735	-0.714
735	-0.714
736	-0.725
736	-0.714
737	-0.706
737	-0.706
737	-0.719
738	-0.713
738	-0.712
739	-0.711
739	-0.723
740	-0.721
740	-0.722
741	-0.717
741	-0.715
741	-0.718
742	-0.715
742	-0.713
743	-0.722
743	-0.727
744	-0.723
744	-0.714
744	-0.715
745	-0.722
745	-0.716
746	-0.717
746	-0.715
747	-0.715
747	-0.704
748	-0.691
748	-0.697
748	-0.699
749	-0.696
749	-0.698
750	-0.687
750	-0.689
751	-0.692
751	-0.7
751	-0.704
752	-0.709
752	-0.72
753	-0.713
753	-0.711
754	-0.716
754	-0.71
754	-0.726
755	-0.741
755	-0.754
756	-0.744
756	-0.739
757	-0.737
757	-0.73
758	-0.736
758	-0.732
758	-0.735
759	-0.741
759	-0.725
760	-0.716
760	-0.712
761	-0.72
761	-0.719
761	-0.718
762	-0.725
762	-0.722
763	-0.732
763	-0.729
764	-0.727
764	-0.736
764	-0.742
765	-0.732
765	-0.72
766	-0.728
766	-0.734
767	-0.749
767	-0.743
768	-0.732
768	-0.74
768	-0.744
769	-0.757
769	-0.759
770	-0.764
770	-0.777
771	-0.775
771	-0.779
771	-0.779
772	-0.784
772	-0.783
773	-0.784
773	-0.781
774	-0.782
774	-0.783
775	-0.786
775	-0.78
775	-0.786
776	-0.782
776	-0.772
777	-0.78
777	-0.801
778	-0.796
778	-0.815
778	-0.801
779	-0.821
779	-0.827
780	-0.841
780	-0.84
781	-0.853
781	-0.848
781	-0.863
782	-0.862
782	-0.866
783	-0.853
783	-0.851
784	-0.831
784	-0.822
784	-0.832
785	-0.841
785	-0.826
786	-0.835
786	-0.816
787	-0.803
787	-0.805
788	-0.811
788	-0.823
788	-0.836
789	-0.837
789	-0.818
790	-0.798
790	-0.799
791	-0.796
791	-0.813
791	-0.82
792	-0.815
792	-0.789
793	-0.779
793	-0.756
794	-0.76
794	-0.754
794	-0.764
795	-0.762
795	-0.757
796	-0.741
796	-0.748
797	-0.741
797	-0.755
797	-0.762
798	-0.773
798	-0.769
799	-0.78
799	-0.766
800	-0.773
800	-0.765
801	-0.769
801	-0.755
801	-0.766
802	-0.775
802	-0.776
803	-0.777
803	-0.784
804	-0.777
804	-0.787
804	-0.773
805	-0.78
805	-0.77
806	-0.772
806	-0.754
807	-0.751
807	-0.732
807	-0.721
808	-0.712
808	-0.706
809	-0.69
809	-0.699
810	-0.695
810	-0.688
810	-0.687
811	-0.695
811	-0.686
812	-0.689
812	-0.692
813	-0.697
813	-0.694
813	-0.701
814	-0.703
814	-0.709
815	-0.715
815	-0.716
816	-0.71
816	-0.716
817	-0.723
817	-0.741
817	-0.756
818	-0.764
818	-0.766
819	-0.758
819	-0.758
820	-0.766
820	-0.764
820	-0.773
821	-0.772
821	-0.759
822	-0.728
822	-0.702
823	-0.699
823	-0.704
823	-0.701
824	-0.696
824	-0.697
825	-0.689
825	-0.67
826	-0.664
826	-0.673
826	-0.682
827	-0.679
827	-0.675
828	-0.655
828	-0.657
829	-0.648
829	-0.636
829	-0.629
830	-0.639
830	-0.635
831	-0.625
831	-0.616
832	-0.615
832	-0.606
832	-0.612
833	-0.604
833	-0.605
834	-0.601
834	-0.609
835	-0.598
835	-0.594
835	-0.592
836	-0.59
836	-0.586
837	-0.586
837	-0.577
838	-0.569
838	-0.558
839	-0.547
839	-0.533
839	-0.523
840	-0.512
840	-0.511
841	-0.498
841	-0.489
842	-0.482
842	-0.472
842	-0.467
843	-0.462
843	-0.456
844	-0.447
844	-0.44
845	-0.433
845	-0.421
845	-0.408
846	-0.399
846	-0.384
847	-0.374
847	-0.363
848	-0.352
848	-0.343
848	-0.329
849	-0.319
849	-0.308
850	-0.295
850	-0.29
851	-0.282
851	-0.272
851	-0.265
852	-0.25
852	-0.239
853	-0.23
853	-0.225
854	-0.214
854	-0.204
854	-0.194
855	-0.183
855	-0.177
856	-0.168
856	-0.16
857	-0.154
857	-0.146
857	-0.136
858	-0.126
858	-0.12
859	-0.113
859	-0.104
860	-0.096
860	-0.085
860	-0.077
861	-0.07
861	-0.063
862	-0.057
862	-0.05
863	-0.045
863	-0.038
863	-0.033
864	-0.028
864	-0.023
865	-0.018
865	-0.015
866	-0.011
866	-0.008
866	-0.005
867	-0.002
867	0.001
868	0.003
868	0.007
869	0.009
869	0.011
869	0.012
870	0.014
870	0.016
871	0.019
871	0.021
872	0.022
872	0.023
872	0.024
873	0.025
873	0.025
874	0.025
874	0.025
875	0.024
875	0.023
875	0.022
876	0.021
876	0.02
877	0.019
877	0.017
878	0.016
878	0.014
878	0.012
879	0.011
879	0.01
880	0.009
880	0.009
881	0.009
881	0.009
881	0.008
882	0.008
882	0.007
883	0.006
883	0.005
884	0.004
884	0.003
884	0.003
885	0.002
885	0.002
886	0.001
886	0.001
887	0.001
887	0.001
887	0.001
888	0.002
888	0.002
889	0.003
889	0.004
890	0.004
890	0.005
890	0.005
891	0.005
891	0.005
892	0.006
892	0.007
893	0.006
893	0.007
893	0.007
894	0.007
894	0.007
895	0.007
895	0.007
895	0.007
896	0.006
896	0.006
897	0.005
897	0.004
898	0.003
898	0.002
898	0.002
899	0.002
899	0.003
900	0.003
900	0.003
901	0.004
901	0.005
901	0.005
902	0.006
902	0.007
903	0.008
903	0.008
904	0.009
904	0.009
904	0.01
905	0.01
905	0.011
906	0.011
906	0.011
907	0.011
907	0.011
907	0.011
908	0.01
908	0.01
909	0.009
909	0.009
910	0.009
910	0.008
910	0.008
911	0.008
911	0.009
912	0.009
912	0.01
913	0.011
913	0.012
913	0.013
914	0.014
914	0.014
915	0.015
915	0.015
916	0.015
916	0.015
916	0.015
917	0.015
917	0.015
918	0.015
918	0.015
918	0.014
919	0.014
919	0.014
920	0.014
920	0.014
921	0.014
921	0.014
921	0.014
922	0.013
922	0.013
923	0.013
923	0.013
924	0.012
924	0.012
924	0.011
925	0.011
925	0.01
926	0.009
926	0.009
927	0.008
927	0.008
927	0.007
928	0.007
928	0.007
929	0.007
929	0.007
930	0.006
930	0.006
930	0.005
931	0.005
931	0.005
932	0.005
932	0.004
933	0.003
933	0.002
933	0.001
934	-0
934	-0.001
935	-0.002
935	-0.003
935	-0.003
936	-0.004
936	-0.006
937	-0.006
937	-0.007
938	-0.007
938	-0.007
938	-0.007
939	-0.006
939	-0.006
940	-0.005
940	-0.005
941	-0.004
941	-0.003
941	-0.002
942	-0.001
942	-0
943	0
943	0
944	0
944	-0
944	-0.001
945	-0.001
945	-0.002
946	-0.003
946	-0.004
946	-0.005
947	-0.005
947	-0.006
948	-0.007
948	-0.006
949	-0.007
949	-0.006
949	-0.006
950	-0.005
950	-0.005
951	-0.004
951	-0.004
952	-0.003
952	-0.002
952	-0.001
953	-0
953	0.001
954	0.002
954	0.003
955	0.004
955	0.005
955	0.006
956	0.007
956	0.008
957	0.008
957	0.008
957	0.009
958	0.009
958	0.01
959	0.011
959	0.011
960	0.012
960	0.012
960	0.013
961	0.013
961	0.013
962	0.014
962	0.014
963	0.014
963	0.014
963	0.014
964	0.014
964	0.014
965	0.014
965	0.014
966	0.013
966	0.013
966	0.013
967	0.013
967	0.013
968	0.012
968	0.012
968	0.011
969	0.011
969	0.01
970	0.01
970	0.01
971	0.01
971	0.01
971	0.01
972	0.01
972	0.01
973	0.011
973	0.01
974	0.01
974	0.011
974	0.011
975	0.011
975	0.011
976	0.01
976	0.01
976	0.01
977	0.01
977	0.01
978	0.01
978	0.01
979	0.01
979	0.009
979	0.009
980	0.009
980	0.009
981	0.009
981	0.009
982	0.009
982	0.009
982	0.008
983	0.008
983	0.008
984	0.008
984	0.008
984	0.008
985	0.009
985	0.008
986	0.008
986	0.008
987	0.007
987	0.007
987	0.006
988	0.006
988	0.005
989	0.004
989	0.003
990	0.002
990	0.002
990	0.001
991	0.001
991	0
992	-0
992	-0.001
992	-0.001
993	-0.001
993	-0.001
994	-0.001
994	-0.001
995	-0.002
995	-0.002
995	-0.003
996	-0.003
996	-0.004
997	-0.004
997	-0.004
997	-0.004
998	-0.004
998	-0.004
999	-0.004
999	-0.003
1000	-0.003
1000	-0.003
1000	-0.002
1001	-0.002
1001	-0.001
1002	-0.001
1002	-0.001
1003	-0.001
1003	-0.001
1003	-0.002
1004	-0.002
1004	-0.002
1005	-0.003
1005	-0.004
1005	-0.005
1006	-0.006
1006	-0.007
1007	-0.008
1007	-0.009
1008	-0.01
1008	-0.01
1008	-0.011
1009	-0.011
1009	-0.011
1010	-0.011
1010	-0.01
1010	-0.01
1011	-0.009
1011	-0.009
1012	-0.009
1012	-0.009
1013	-0.009
1013	-0.01
1013	-0.01
1014	-0.011
1014	-0.011
1015	-0.012
1015	-0.012
1016	-0.013
1016	-0.013
1016	-0.014
1017	-0.015
1017	-0.016
1018	-0.017
1018	-0.018
1018	-0.018
1019	-0.019
1019	-0.02
1020	-0.021
1020	-0.021
1021	-0.022
1021	-0.023
1021	-0.023
1022	-0.024
1022	-0.024
1023	-0.024
1023	-0.025
1023	-0.025
1024	-0.025
1024	-0.026
1025	-0.026
1025	-0.026
1026	-0.025
1026	-0.025
1026	-0.025
1027	-0.024
1027	-0.024
1028	-0.024
1028	-0.024
1028	-0.024
1029	-0.024
1029	-0.024
1030	-0.024
1030	-0.025
1031	-0.025
1031	-0.025
1031	-0.026
1032	-0.026
1032	-0.026
1033	-0.025
1033	-0.025
1033	-0.025
1034	-0.025
1034	-0.024
1035	-0.024
1035	-0.024
1036	-0.024
1036	-0.024
1036	-0.024
1037	-0.024
1037	-0.024
1038	-0.024
1038	-0.024
1039	-0.023
1039	-0.023
1039	-0.022
1040	-0.022
1040	-0.021
1041	-0.02
1041	-0.02
1041	-0.019
1042	-0.019
1042	-0.019
1043	-0.02
1043	-0.02
1044	-0.021
1044	-0.021
1044	-0.022
1045	-0.023
1045	-0.024
1046	-0.025
1046	-0.026
1046	-0.026
1047	-0.026
1047	-0.026
1048	-0.026
1048	-0.026
1049	-0.026
1049	-0.026
1049	-0.026
1050	-0.026
1050	-0.025
1051	-0.025
1051	-0.024
1051	-0.024
1052	-0.024
1052	-0.024
1053	-0.023
1053	-0.023
1053	-0.023
1054	-0.024
1054	-0.023
1055	-0.024
1055	-0.024
1056	-0.025
1056	-0.025
1056	-0.026
1057	-0.027
1057	-0.027
1058	-0.028
1058	-0.028
1058	-0.029
1059	-0.029
1059	-0.03
1060	-0.031
1060	-0.031
1061	-0.031
1061	-0.031
1061	-0.032
1062	-0.032
1062	-0.032
1063	-0.032
1063	-0.032
1063	-0.031
1064	-0.031
1064	-0.03
1065	-0.03
1065	-0.03
1066	-0.03
1066	-0.03
1066	-0.03
1067	-0.03
1067	-0.03
1068	-0.03
1068	-0.031
1068	-0.032
1069	-0.032
1069	-0.033
1070	-0.033
1070	-0.033
1071	-0.034
1071	-0.034
1071	-0.034
1072	-0.035
1072	-0.035
1073	-0.036
1073	-0.035
1073	-0.036
1074	-0.036
1074	-0.035
1075	-0.036
1075	-0.036
1076	-0.036
1076	-0.036
1076	-0.037
1077	-0.037
1077	-0.038
1078	-0.038
1078	-0.039
1078	-0.04
1079	-0.041
1079	-0.041
1080	-0.042
1080	-0.043
1080	-0.044
1081	-0.044
1081	-0.044
1082	-0.044
1082	-0.045
1083	-0.046
1083	-0.047
1083	-0.047
1084	-0.048
1084	-0.049
1085	-0.049
1085	-0.05
1085	-0.05
1086	-0.051
1086	-0.052
1087	-0.052
1087	-0.051
1088	-0.052
1088	-0.053
1088	-0.053
1089	-0.054
1089	-0.055
1090	-0.057
1090	-0.057
1090	-0.058
1091	-0.059
1091	-0.059
1092	-0.061
1092	-0.06
1092	-0.062
1093	-0.062
1093	-0.062
1094	-0.062
1094	-0.063
1095	-0.064
1095	-0.065
1095	-0.065
1096	-0.066
1096	-0.066
1097	-0.067
1097	-0.068
1097	-0.068
1098	-0.069
1098	-0.072
1099	-0.072
1099	-0.072
1100	-0.073
1100	-0.075
1100	-0.077
1101	-0.079
1101	-0.082
1102	-0.083
1102	-0.086
1102	-0.087
1103	-0.088
1103	-0.09
1104	-0.093
1104	-0.096
1104	-0.098
1105	-0.1
1105	-0.103
1106	-0.107
1106	-0.109
1107	-0.112
1107	-0.116
1107	-0.12
1108	-0.122
1108	-0.125
1109	-0.127
1109	-0.13
1109	-0.132
1110	-0.131
1110	-0.133
1111	-0.138
1111	-0.139
