Data from 17C_3.4A_35min_2sec_int_Absorbance__141__04226.txt Node

Date: Mon Jun 19 19:47:04 CEST 2023
User: Marek
Spectrometer: MAYP115816
Trigger mode: 0
Integration Time (sec): 2.500000E-1
Scans to average: 10
Electric dark correction enabled: true
Nonlinearity correction enabled: true
Boxcar width: 5
XAxis mode: Wavelengths
Number of Pixels in Spectrum: 2068
>>>>>Begin Spectral Data<<<<<
199	-0.741
199	-0.769
200	-0.667
200	-0.615
201	-0.575
201	-0.563
202	-0.548
202	-0.535
203	-0.525
203	-0.521
204	-0.509
204	-0.495
205	-0.47
205	-0.465
205	-0.463
206	-0.467
206	-0.468
207	-0.458
207	-0.461
208	-0.462
208	-0.461
209	-0.455
209	-0.453
210	-0.456
210	-0.465
211	-0.465
211	-0.466
212	-0.47
212	-0.478
213	-0.477
213	-0.477
213	-0.481
214	-0.479
214	-0.481
215	-0.48
215	-0.484
216	-0.49
216	-0.497
217	-0.492
217	-0.497
218	-0.499
218	-0.501
219	-0.505
219	-0.514
220	-0.519
220	-0.529
221	-0.527
221	-0.529
221	-0.522
222	-0.519
222	-0.52
223	-0.522
223	-0.526
224	-0.529
224	-0.529
225	-0.524
225	-0.518
226	-0.521
226	-0.52
227	-0.526
227	-0.535
228	-0.535
228	-0.539
229	-0.54
229	-0.533
229	-0.527
230	-0.53
230	-0.533
231	-0.53
231	-0.522
232	-0.517
232	-0.516
233	-0.512
233	-0.507
234	-0.506
234	-0.502
235	-0.505
235	-0.511
236	-0.509
236	-0.512
236	-0.519
237	-0.525
237	-0.525
238	-0.534
238	-0.533
239	-0.532
239	-0.54
240	-0.541
240	-0.539
241	-0.547
241	-0.543
242	-0.546
242	-0.542
243	-0.539
243	-0.537
243	-0.546
244	-0.545
244	-0.547
245	-0.562
245	-0.561
246	-0.564
246	-0.571
247	-0.573
247	-0.574
248	-0.58
248	-0.579
249	-0.582
249	-0.591
250	-0.588
250	-0.581
250	-0.581
251	-0.578
251	-0.579
252	-0.582
252	-0.574
253	-0.578
253	-0.59
254	-0.587
254	-0.584
255	-0.592
255	-0.587
256	-0.585
256	-0.595
257	-0.593
257	-0.588
258	-0.604
258	-0.599
258	-0.594
259	-0.592
259	-0.603
260	-0.601
260	-0.607
261	-0.618
261	-0.61
262	-0.605
262	-0.606
263	-0.597
263	-0.594
264	-0.595
264	-0.602
265	-0.597
265	-0.606
265	-0.61
266	-0.606
266	-0.604
267	-0.616
267	-0.627
268	-0.64
268	-0.648
269	-0.644
269	-0.639
270	-0.643
270	-0.646
271	-0.645
271	-0.65
272	-0.653
272	-0.649
272	-0.641
273	-0.641
273	-0.649
274	-0.655
274	-0.659
275	-0.66
275	-0.653
276	-0.658
276	-0.653
277	-0.658
277	-0.676
278	-0.687
278	-0.679
278	-0.674
279	-0.677
279	-0.687
280	-0.685
280	-0.685
281	-0.68
281	-0.684
282	-0.677
282	-0.677
283	-0.666
283	-0.67
284	-0.663
284	-0.651
285	-0.646
285	-0.64
285	-0.636
286	-0.646
286	-0.641
287	-0.638
287	-0.621
288	-0.614
288	-0.623
289	-0.635
289	-0.647
290	-0.637
290	-0.638
291	-0.635
291	-0.626
292	-0.627
292	-0.634
292	-0.639
293	-0.643
293	-0.632
294	-0.623
294	-0.611
295	-0.61
295	-0.607
296	-0.607
296	-0.605
297	-0.601
297	-0.585
298	-0.579
298	-0.587
298	-0.575
299	-0.567
299	-0.569
300	-0.56
300	-0.556
301	-0.551
301	-0.55
302	-0.559
302	-0.565
303	-0.55
303	-0.536
304	-0.539
304	-0.537
305	-0.54
305	-0.541
305	-0.539
306	-0.523
306	-0.515
307	-0.499
307	-0.504
308	-0.518
308	-0.515
309	-0.518
309	-0.509
310	-0.497
310	-0.495
311	-0.486
311	-0.493
311	-0.49
312	-0.489
312	-0.485
313	-0.472
313	-0.475
314	-0.471
314	-0.473
315	-0.472
315	-0.469
316	-0.465
316	-0.459
317	-0.451
317	-0.444
318	-0.433
318	-0.429
318	-0.422
319	-0.413
319	-0.409
320	-0.402
320	-0.406
321	-0.412
321	-0.41
322	-0.405
322	-0.398
323	-0.397
323	-0.392
324	-0.385
324	-0.376
324	-0.365
325	-0.355
325	-0.335
326	-0.318
326	-0.299
327	-0.281
327	-0.26
328	-0.229
328	-0.204
329	-0.179
329	-0.149
330	-0.119
330	-0.082
330	-0.051
331	-0.017
331	0.016
332	0.047
332	0.074
333	0.1
333	0.13
334	0.157
334	0.178
335	0.201
335	0.219
336	0.239
336	0.257
336	0.271
337	0.287
337	0.3
338	0.311
338	0.318
339	0.328
339	0.337
340	0.343
340	0.35
341	0.356
341	0.36
342	0.365
342	0.369
342	0.373
343	0.376
343	0.38
344	0.383
344	0.385
345	0.387
345	0.388
346	0.389
346	0.39
347	0.391
347	0.392
348	0.392
348	0.393
348	0.394
349	0.394
349	0.395
350	0.395
350	0.395
351	0.395
351	0.396
352	0.396
352	0.396
353	0.396
353	0.396
354	0.396
354	0.395
354	0.395
355	0.395
355	0.395
356	0.395
356	0.394
357	0.393
357	0.393
358	0.392
358	0.392
359	0.391
359	0.391
360	0.391
360	0.391
360	0.39
361	0.39
361	0.39
362	0.39
362	0.39
363	0.39
363	0.389
364	0.389
364	0.388
365	0.388
365	0.388
366	0.388
366	0.387
366	0.387
367	0.387
367	0.387
368	0.386
368	0.386
369	0.385
369	0.385
370	0.385
370	0.384
371	0.384
371	0.384
372	0.383
372	0.383
372	0.382
373	0.382
373	0.382
374	0.381
374	0.381
375	0.38
375	0.38
376	0.38
376	0.379
377	0.379
377	0.378
378	0.378
378	0.378
378	0.377
379	0.377
379	0.376
380	0.376
380	0.375
381	0.374
381	0.374
382	0.373
382	0.373
383	0.372
383	0.372
383	0.371
384	0.371
384	0.371
385	0.37
385	0.37
386	0.37
386	0.369
387	0.369
387	0.369
388	0.368
388	0.368
389	0.368
389	0.367
389	0.367
390	0.367
390	0.366
391	0.366
391	0.366
392	0.365
392	0.365
393	0.364
393	0.364
394	0.363
394	0.362
394	0.362
395	0.361
395	0.361
396	0.36
396	0.36
397	0.359
397	0.359
398	0.359
398	0.358
399	0.358
399	0.358
400	0.357
400	0.357
400	0.357
401	0.356
401	0.356
402	0.355
402	0.355
403	0.354
403	0.354
404	0.353
404	0.353
405	0.353
405	0.353
405	0.352
406	0.352
406	0.352
407	0.351
407	0.351
408	0.351
408	0.35
409	0.35
409	0.35
410	0.349
410	0.349
411	0.349
411	0.349
411	0.348
412	0.348
412	0.348
413	0.348
413	0.347
414	0.347
414	0.347
415	0.346
415	0.346
416	0.345
416	0.345
416	0.345
417	0.345
417	0.344
418	0.344
418	0.344
419	0.344
419	0.344
420	0.344
420	0.344
421	0.344
421	0.344
421	0.344
422	0.343
422	0.343
423	0.343
423	0.343
424	0.342
424	0.342
425	0.342
425	0.341
426	0.341
426	0.341
427	0.34
427	0.34
427	0.34
428	0.34
428	0.34
429	0.34
429	0.339
430	0.339
430	0.339
431	0.339
431	0.339
432	0.339
432	0.338
432	0.338
433	0.338
433	0.338
434	0.338
434	0.338
435	0.338
435	0.338
436	0.338
436	0.338
437	0.337
437	0.338
437	0.338
438	0.338
438	0.338
439	0.338
439	0.338
440	0.338
440	0.337
441	0.337
441	0.337
442	0.337
442	0.337
442	0.337
443	0.337
443	0.337
444	0.337
444	0.337
445	0.337
445	0.338
446	0.338
446	0.338
447	0.338
447	0.339
447	0.339
448	0.339
448	0.339
449	0.339
449	0.34
450	0.34
450	0.34
451	0.34
451	0.34
452	0.34
452	0.341
452	0.341
453	0.341
453	0.341
454	0.341
454	0.341
455	0.341
455	0.342
456	0.342
456	0.342
457	0.342
457	0.342
458	0.342
458	0.343
458	0.343
459	0.344
459	0.344
460	0.344
460	0.344
461	0.345
461	0.345
462	0.345
462	0.346
463	0.346
463	0.347
463	0.347
464	0.348
464	0.349
465	0.349
465	0.35
466	0.35
466	0.351
467	0.352
467	0.352
467	0.353
468	0.353
468	0.354
469	0.355
469	0.356
470	0.357
470	0.358
471	0.358
471	0.359
472	0.36
472	0.361
472	0.362
473	0.363
473	0.364
474	0.365
474	0.366
475	0.367
475	0.368
476	0.369
476	0.37
477	0.371
477	0.372
477	0.373
478	0.375
478	0.376
479	0.377
479	0.379
480	0.38
480	0.381
481	0.383
481	0.385
482	0.387
482	0.388
482	0.39
483	0.392
483	0.394
484	0.395
484	0.396
485	0.398
485	0.4
486	0.401
486	0.403
487	0.405
487	0.407
487	0.409
488	0.411
488	0.413
489	0.416
489	0.419
490	0.422
490	0.425
491	0.427
491	0.43
492	0.433
492	0.435
492	0.438
493	0.441
493	0.444
494	0.447
494	0.45
495	0.452
495	0.455
496	0.458
496	0.461
496	0.465
497	0.468
497	0.471
498	0.474
498	0.477
499	0.481
499	0.484
500	0.488
500	0.492
501	0.495
501	0.499
501	0.502
502	0.505
502	0.509
503	0.513
503	0.516
504	0.52
504	0.523
505	0.527
505	0.531
506	0.534
506	0.538
506	0.542
507	0.546
507	0.549
508	0.553
508	0.556
509	0.56
509	0.564
510	0.568
510	0.571
511	0.575
511	0.579
511	0.582
512	0.586
512	0.589
513	0.593
513	0.596
514	0.599
514	0.603
515	0.606
515	0.609
515	0.611
516	0.614
516	0.618
517	0.621
517	0.624
518	0.626
518	0.628
519	0.63
519	0.632
520	0.635
520	0.638
520	0.64
521	0.642
521	0.644
522	0.646
522	0.648
523	0.649
523	0.651
524	0.652
524	0.653
524	0.654
525	0.654
525	0.654
526	0.655
526	0.655
527	0.656
527	0.656
528	0.656
528	0.656
529	0.655
529	0.655
529	0.655
530	0.655
530	0.654
531	0.653
531	0.652
532	0.65
532	0.649
533	0.647
533	0.646
533	0.644
534	0.641
534	0.639
535	0.636
535	0.633
536	0.63
536	0.627
537	0.623
537	0.62
538	0.617
538	0.613
538	0.61
539	0.607
539	0.604
540	0.6
540	0.596
541	0.593
541	0.589
542	0.585
542	0.581
542	0.576
543	0.572
543	0.567
544	0.563
544	0.558
545	0.554
545	0.55
546	0.545
546	0.54
547	0.535
547	0.53
547	0.526
548	0.522
548	0.517
549	0.512
549	0.508
550	0.503
550	0.498
551	0.493
551	0.488
551	0.484
552	0.479
552	0.475
553	0.47
553	0.465
554	0.46
554	0.455
555	0.45
555	0.445
556	0.44
556	0.435
556	0.43
557	0.425
557	0.42
558	0.414
558	0.409
559	0.404
559	0.398
560	0.393
560	0.388
560	0.384
561	0.379
561	0.374
562	0.369
562	0.365
563	0.36
563	0.356
564	0.351
564	0.347
564	0.343
565	0.339
565	0.335
566	0.33
566	0.326
567	0.322
567	0.317
568	0.313
568	0.308
568	0.304
569	0.299
569	0.294
570	0.289
570	0.285
571	0.281
571	0.277
572	0.273
572	0.269
573	0.265
573	0.262
573	0.258
574	0.255
574	0.252
575	0.248
575	0.246
576	0.243
576	0.238
577	0.235
577	0.232
577	0.23
578	0.227
578	0.225
579	0.223
579	0.22
580	0.216
580	0.212
581	0.209
581	0.206
581	0.204
582	0.203
582	0.2
583	0.198
583	0.195
584	0.191
584	0.188
585	0.186
585	0.184
585	0.182
586	0.18
586	0.178
587	0.175
587	0.173
588	0.171
588	0.168
589	0.167
589	0.165
590	0.163
590	0.161
590	0.161
591	0.159
591	0.156
592	0.153
592	0.151
593	0.15
593	0.148
594	0.147
594	0.145
594	0.143
595	0.142
595	0.14
596	0.138
596	0.138
597	0.138
597	0.136
598	0.134
598	0.132
598	0.131
599	0.129
599	0.127
600	0.125
600	0.124
601	0.122
601	0.121
602	0.118
602	0.117
602	0.116
603	0.115
603	0.115
604	0.115
604	0.114
605	0.114
605	0.114
606	0.112
606	0.111
606	0.11
607	0.109
607	0.108
608	0.106
608	0.104
609	0.103
609	0.102
610	0.101
610	0.1
610	0.1
611	0.1
611	0.1
612	0.1
612	0.101
613	0.101
613	0.1
614	0.099
614	0.097
614	0.097
615	0.095
615	0.094
616	0.094
616	0.092
617	0.091
617	0.089
618	0.088
618	0.087
618	0.087
619	0.087
619	0.087
620	0.087
620	0.086
621	0.086
621	0.085
622	0.084
622	0.084
622	0.083
623	0.082
623	0.082
624	0.082
624	0.081
625	0.081
625	0.081
626	0.08
626	0.08
626	0.08
627	0.08
627	0.08
628	0.08
628	0.079
629	0.079
629	0.078
630	0.077
630	0.076
630	0.075
631	0.075
631	0.074
632	0.073
632	0.072
633	0.072
633	0.071
634	0.071
634	0.07
634	0.07
635	0.069
635	0.068
636	0.068
636	0.067
637	0.066
637	0.065
638	0.064
638	0.063
638	0.062
639	0.061
639	0.06
640	0.059
640	0.057
641	0.056
641	0.055
642	0.054
642	0.053
642	0.051
643	0.05
643	0.048
644	0.046
644	0.045
645	0.042
645	0.041
646	0.039
646	0.037
646	0.034
647	0.032
647	0.03
648	0.027
648	0.025
649	0.022
649	0.019
650	0.016
650	0.012
650	0.008
651	0.003
651	-0.003
652	-0.009
652	-0.015
653	-0.019
653	-0.026
653	-0.024
654	-0.021
654	-0.026
655	-0.031
655	-0.035
656	-0.039
656	-0.044
657	-0.048
657	-0.051
657	-0.056
658	-0.06
658	-0.078
659	-0.119
659	-0.159
660	-0.181
660	-0.196
661	-0.212
661	-0.231
661	-0.249
662	-0.265
662	-0.281
663	-0.298
663	-0.317
664	-0.334
664	-0.361
665	-0.382
665	-0.411
665	-0.434
666	-0.457
666	-0.485
667	-0.516
667	-0.547
668	-0.587
668	-0.631
669	-0.676
669	-0.717
669	-0.761
670	-0.786
670	-0.833
671	-1.032
671	-1.453
672	-1.93
672	-2.211
672	-2.387
673	-2.484
673	-2.512
674	-2.53
674	-2.544
675	-2.57
675	-2.713
676	-2.921
676	-2.896
676	-2.627
677	-2.345
677	-2.009
678	-1.42
678	-1.045
679	-0.915
679	-0.85
680	-0.808
680	-0.769
680	-0.74
681	-0.735
681	-0.711
682	-0.707
682	-0.696
683	-0.686
683	-0.697
684	-0.704
684	-0.709
684	-0.71
685	-0.706
685	-0.705
686	-0.697
686	-0.696
687	-0.685
687	-0.689
687	-0.683
688	-0.667
688	-0.657
689	-0.648
689	-0.642
690	-0.632
690	-0.624
691	-0.624
691	-0.634
691	-0.656
692	-0.655
692	-0.654
693	-0.656
693	-0.668
694	-0.667
694	-0.666
695	-0.676
695	-0.679
695	-0.667
696	-0.669
696	-0.648
697	-0.65
697	-0.669
698	-0.673
698	-0.669
698	-0.688
699	-0.692
699	-0.692
700	-0.686
700	-0.703
701	-0.705
701	-0.715
702	-0.718
702	-0.707
702	-0.701
703	-0.694
703	-0.685
704	-0.685
704	-0.684
705	-0.699
705	-0.692
705	-0.683
706	-0.684
706	-0.68
707	-0.685
707	-0.682
708	-0.681
708	-0.674
709	-0.678
709	-0.681
709	-0.671
710	-0.682
710	-0.689
711	-0.68
711	-0.682
712	-0.682
712	-0.697
713	-0.698
713	-0.707
713	-0.696
714	-0.696
714	-0.698
715	-0.689
715	-0.679
716	-0.689
716	-0.69
716	-0.684
717	-0.685
717	-0.685
718	-0.676
718	-0.678
719	-0.684
719	-0.685
720	-0.683
720	-0.692
720	-0.686
721	-0.675
721	-0.676
722	-0.665
722	-0.657
723	-0.655
723	-0.661
723	-0.651
724	-0.655
724	-0.659
725	-0.66
725	-0.669
726	-0.684
726	-0.69
727	-0.695
727	-0.708
727	-0.717
728	-0.719
728	-0.724
729	-0.723
729	-0.727
730	-0.735
730	-0.727
730	-0.717
731	-0.701
731	-0.712
732	-0.718
732	-0.717
733	-0.714
733	-0.72
734	-0.715
734	-0.714
734	-0.697
735	-0.698
735	-0.699
736	-0.709
736	-0.695
737	-0.688
737	-0.689
737	-0.7
738	-0.694
738	-0.695
739	-0.694
739	-0.709
740	-0.707
740	-0.709
741	-0.707
741	-0.708
741	-0.71
742	-0.709
742	-0.709
743	-0.716
743	-0.721
744	-0.718
744	-0.708
744	-0.71
745	-0.714
745	-0.707
746	-0.707
746	-0.705
747	-0.707
747	-0.697
748	-0.685
748	-0.692
748	-0.693
749	-0.691
749	-0.693
750	-0.684
750	-0.686
751	-0.689
751	-0.697
751	-0.697
752	-0.701
752	-0.712
753	-0.706
753	-0.702
754	-0.707
754	-0.701
754	-0.714
755	-0.731
755	-0.742
756	-0.732
756	-0.732
757	-0.73
757	-0.723
758	-0.724
758	-0.725
758	-0.731
759	-0.738
759	-0.723
760	-0.716
760	-0.713
761	-0.72
761	-0.715
761	-0.715
762	-0.724
762	-0.724
763	-0.731
763	-0.725
764	-0.722
764	-0.729
764	-0.733
765	-0.722
765	-0.711
766	-0.721
766	-0.726
767	-0.741
767	-0.735
768	-0.726
768	-0.737
768	-0.743
769	-0.76
769	-0.762
770	-0.767
770	-0.78
771	-0.777
771	-0.78
771	-0.781
772	-0.782
772	-0.781
773	-0.778
773	-0.774
774	-0.775
774	-0.775
775	-0.774
775	-0.769
775	-0.776
776	-0.775
776	-0.764
777	-0.773
777	-0.791
778	-0.788
778	-0.806
778	-0.793
779	-0.813
779	-0.822
780	-0.835
780	-0.832
781	-0.845
781	-0.84
781	-0.853
782	-0.853
782	-0.855
783	-0.839
783	-0.838
784	-0.817
784	-0.808
784	-0.819
785	-0.827
785	-0.813
786	-0.821
786	-0.803
787	-0.791
787	-0.796
788	-0.802
788	-0.813
788	-0.825
789	-0.828
789	-0.809
790	-0.788
790	-0.791
791	-0.789
791	-0.807
791	-0.815
792	-0.808
792	-0.783
793	-0.772
793	-0.749
794	-0.754
794	-0.747
794	-0.759
795	-0.755
795	-0.748
796	-0.732
796	-0.74
797	-0.734
797	-0.747
797	-0.755
798	-0.768
798	-0.761
799	-0.772
799	-0.757
800	-0.763
800	-0.758
801	-0.761
801	-0.745
801	-0.757
802	-0.765
802	-0.764
803	-0.764
803	-0.773
804	-0.769
804	-0.781
804	-0.769
805	-0.772
805	-0.763
806	-0.767
806	-0.751
807	-0.75
807	-0.734
807	-0.723
808	-0.713
808	-0.706
809	-0.689
809	-0.698
810	-0.695
810	-0.686
810	-0.684
811	-0.692
811	-0.683
812	-0.683
812	-0.689
813	-0.695
813	-0.692
813	-0.7
814	-0.702
814	-0.707
815	-0.712
815	-0.714
816	-0.705
816	-0.713
817	-0.722
817	-0.738
817	-0.752
818	-0.76
818	-0.761
819	-0.754
819	-0.756
820	-0.765
820	-0.762
820	-0.775
821	-0.771
821	-0.757
822	-0.726
822	-0.701
823	-0.699
823	-0.702
823	-0.698
824	-0.692
824	-0.695
825	-0.687
825	-0.666
826	-0.66
826	-0.668
826	-0.677
827	-0.674
827	-0.671
828	-0.65
828	-0.651
829	-0.644
829	-0.629
829	-0.622
830	-0.633
830	-0.628
831	-0.619
831	-0.608
832	-0.605
832	-0.596
832	-0.605
833	-0.599
833	-0.598
834	-0.597
834	-0.609
835	-0.597
835	-0.593
835	-0.59
836	-0.589
836	-0.587
837	-0.586
837	-0.576
838	-0.567
838	-0.556
839	-0.544
839	-0.531
839	-0.522
840	-0.511
840	-0.509
841	-0.498
841	-0.489
842	-0.483
842	-0.475
842	-0.468
843	-0.461
843	-0.455
844	-0.446
844	-0.439
845	-0.431
845	-0.421
845	-0.406
846	-0.396
846	-0.383
847	-0.371
847	-0.361
848	-0.352
848	-0.341
848	-0.326
849	-0.316
849	-0.306
850	-0.294
850	-0.291
851	-0.282
851	-0.272
851	-0.264
852	-0.25
852	-0.238
853	-0.229
853	-0.225
854	-0.214
854	-0.204
854	-0.193
855	-0.181
855	-0.176
856	-0.167
856	-0.159
857	-0.154
857	-0.147
857	-0.138
858	-0.128
858	-0.122
859	-0.115
859	-0.105
860	-0.098
860	-0.086
860	-0.079
861	-0.072
861	-0.065
862	-0.059
862	-0.053
863	-0.047
863	-0.039
863	-0.035
864	-0.031
864	-0.026
865	-0.021
865	-0.017
866	-0.014
866	-0.011
866	-0.008
867	-0.005
867	-0.002
868	-0
868	0.003
869	0.005
869	0.007
869	0.009
870	0.01
870	0.013
871	0.015
871	0.017
872	0.018
872	0.02
872	0.021
873	0.021
873	0.022
874	0.022
874	0.022
875	0.021
875	0.02
875	0.019
876	0.018
876	0.017
877	0.016
877	0.014
878	0.013
878	0.011
878	0.009
879	0.007
879	0.006
880	0.006
880	0.006
881	0.005
881	0.006
881	0.005
882	0.005
882	0.004
883	0.003
883	0.001
884	0.001
884	-0
884	-0.001
885	-0.001
885	-0.002
886	-0.002
886	-0.002
887	-0.002
887	-0.002
887	-0.001
888	-0
888	-0
889	0.001
889	0.002
890	0.002
890	0.002
890	0.002
891	0.002
891	0.003
892	0.003
892	0.004
893	0.004
893	0.004
893	0.004
894	0.004
894	0.004
895	0.004
895	0.004
895	0.004
896	0.003
896	0.002
897	0.001
897	0
898	-0
898	-0.001
898	-0.001
899	-0.001
899	-0.001
900	-0
900	-0
901	0.001
901	0.001
901	0.002
902	0.003
902	0.004
903	0.005
903	0.005
904	0.006
904	0.006
904	0.007
905	0.007
905	0.008
906	0.008
906	0.009
907	0.008
907	0.008
907	0.008
908	0.008
908	0.007
909	0.007
909	0.006
910	0.006
910	0.005
910	0.005
911	0.005
911	0.006
912	0.006
912	0.007
913	0.008
913	0.008
913	0.009
914	0.01
914	0.011
915	0.012
915	0.012
916	0.012
916	0.013
916	0.013
917	0.013
917	0.013
918	0.013
918	0.013
918	0.012
919	0.012
919	0.012
920	0.012
920	0.012
921	0.012
921	0.012
921	0.012
922	0.011
922	0.011
923	0.011
923	0.011
924	0.01
924	0.01
924	0.009
925	0.009
925	0.008
926	0.007
926	0.006
927	0.006
927	0.005
927	0.005
928	0.005
928	0.004
929	0.004
929	0.004
930	0.003
930	0.003
930	0.003
931	0.003
931	0.003
932	0.002
932	0.002
933	0.001
933	-0
933	-0.001
934	-0.002
934	-0.003
935	-0.004
935	-0.005
935	-0.006
936	-0.006
936	-0.008
937	-0.009
937	-0.009
938	-0.009
938	-0.009
938	-0.009
939	-0.008
939	-0.008
940	-0.007
940	-0.007
941	-0.006
941	-0.005
941	-0.004
942	-0.003
942	-0.002
943	-0.002
943	-0.002
944	-0.002
944	-0.003
944	-0.003
945	-0.004
945	-0.005
946	-0.006
946	-0.007
946	-0.008
947	-0.009
947	-0.009
948	-0.009
948	-0.009
949	-0.01
949	-0.009
949	-0.009
950	-0.008
950	-0.008
951	-0.006
951	-0.006
952	-0.005
952	-0.004
952	-0.003
953	-0.002
953	-0.001
954	-0
954	0.001
955	0.002
955	0.003
955	0.004
956	0.006
956	0.006
957	0.007
957	0.007
957	0.007
958	0.008
958	0.009
959	0.009
959	0.01
960	0.01
960	0.01
960	0.011
961	0.011
961	0.011
962	0.011
962	0.012
963	0.012
963	0.011
963	0.011
964	0.011
964	0.012
965	0.012
965	0.011
966	0.011
966	0.011
966	0.011
967	0.011
967	0.011
968	0.01
968	0.01
968	0.009
969	0.009
969	0.008
970	0.008
970	0.008
971	0.008
971	0.008
971	0.008
972	0.009
972	0.009
973	0.009
973	0.009
974	0.009
974	0.009
974	0.009
975	0.009
975	0.009
976	0.008
976	0.008
976	0.008
977	0.008
977	0.008
978	0.008
978	0.008
979	0.008
979	0.007
979	0.007
980	0.007
980	0.007
981	0.007
981	0.007
982	0.007
982	0.006
982	0.006
983	0.006
983	0.006
984	0.006
984	0.006
984	0.006
985	0.006
985	0.006
986	0.005
986	0.005
987	0.004
987	0.004
987	0.004
988	0.003
988	0.002
989	0.002
989	0.001
990	0
990	-0.001
990	-0.001
991	-0.001
991	-0.002
992	-0.002
992	-0.003
992	-0.003
993	-0.003
993	-0.003
994	-0.003
994	-0.003
995	-0.003
995	-0.004
995	-0.004
996	-0.005
996	-0.006
997	-0.006
997	-0.006
997	-0.006
998	-0.006
998	-0.006
999	-0.006
999	-0.005
1000	-0.005
1000	-0.005
1000	-0.004
1001	-0.004
1001	-0.003
1002	-0.003
1002	-0.003
1003	-0.003
1003	-0.003
1003	-0.004
1004	-0.004
1004	-0.005
1005	-0.005
1005	-0.006
1005	-0.007
1006	-0.008
1006	-0.009
1007	-0.01
1007	-0.011
1008	-0.012
1008	-0.012
1008	-0.012
1009	-0.012
1009	-0.013
1010	-0.013
1010	-0.012
1010	-0.012
1011	-0.012
1011	-0.011
1012	-0.011
1012	-0.011
1013	-0.011
1013	-0.012
1013	-0.013
1014	-0.013
1014	-0.013
1015	-0.014
1015	-0.014
1016	-0.015
1016	-0.016
1016	-0.016
1017	-0.017
1017	-0.018
1018	-0.019
1018	-0.02
1018	-0.02
1019	-0.021
1019	-0.022
1020	-0.023
1020	-0.023
1021	-0.024
1021	-0.024
1021	-0.025
1022	-0.026
1022	-0.026
1023	-0.027
1023	-0.027
1023	-0.027
1024	-0.027
1024	-0.028
1025	-0.028
1025	-0.028
1026	-0.027
1026	-0.027
1026	-0.027
1027	-0.026
1027	-0.026
1028	-0.026
1028	-0.026
1028	-0.026
1029	-0.026
1029	-0.026
1030	-0.026
1030	-0.027
1031	-0.027
1031	-0.027
1031	-0.027
1032	-0.027
1032	-0.027
1033	-0.027
1033	-0.027
1033	-0.027
1034	-0.026
1034	-0.027
1035	-0.026
1035	-0.026
1036	-0.026
1036	-0.026
1036	-0.026
1037	-0.026
1037	-0.026
1038	-0.026
1038	-0.026
1039	-0.025
1039	-0.025
1039	-0.024
1040	-0.024
1040	-0.023
1041	-0.022
1041	-0.022
1041	-0.021
1042	-0.021
1042	-0.021
1043	-0.022
1043	-0.022
1044	-0.023
1044	-0.023
1044	-0.024
1045	-0.025
1045	-0.026
1046	-0.027
1046	-0.027
1046	-0.028
1047	-0.028
1047	-0.028
1048	-0.028
1048	-0.028
1049	-0.028
1049	-0.028
1049	-0.028
1050	-0.028
1050	-0.027
1051	-0.027
1051	-0.027
1051	-0.026
1052	-0.026
1052	-0.026
1053	-0.025
1053	-0.025
1053	-0.025
1054	-0.025
1054	-0.025
1055	-0.025
1055	-0.025
1056	-0.026
1056	-0.027
1056	-0.028
1057	-0.029
1057	-0.029
1058	-0.03
1058	-0.03
1058	-0.031
1059	-0.032
1059	-0.033
1060	-0.033
1060	-0.033
1061	-0.034
1061	-0.034
1061	-0.034
1062	-0.034
1062	-0.034
1063	-0.034
1063	-0.034
1063	-0.033
1064	-0.032
1064	-0.032
1065	-0.032
1065	-0.032
1066	-0.032
1066	-0.032
1066	-0.032
1067	-0.032
1067	-0.032
1068	-0.033
1068	-0.033
1068	-0.033
1069	-0.034
1069	-0.034
1070	-0.035
1070	-0.035
1071	-0.035
1071	-0.035
1071	-0.036
1072	-0.037
1072	-0.037
1073	-0.037
1073	-0.038
1073	-0.038
1074	-0.037
1074	-0.037
1075	-0.038
1075	-0.038
1076	-0.038
1076	-0.038
1076	-0.039
1077	-0.039
1077	-0.039
1078	-0.04
1078	-0.04
1078	-0.041
1079	-0.042
1079	-0.042
1080	-0.043
1080	-0.043
1080	-0.044
1081	-0.044
1081	-0.045
1082	-0.046
1082	-0.047
1083	-0.048
1083	-0.048
1083	-0.05
1084	-0.05
1084	-0.05
1085	-0.051
1085	-0.052
1085	-0.052
1086	-0.052
1086	-0.053
1087	-0.053
1087	-0.053
1088	-0.054
1088	-0.054
1088	-0.055
1089	-0.056
1089	-0.056
1090	-0.058
1090	-0.058
1090	-0.059
1091	-0.06
1091	-0.061
1092	-0.062
1092	-0.062
1092	-0.063
1093	-0.064
1093	-0.064
1094	-0.064
1094	-0.064
1095	-0.065
1095	-0.065
1095	-0.065
1096	-0.066
1096	-0.067
1097	-0.067
1097	-0.068
1097	-0.068
1098	-0.069
1098	-0.071
1099	-0.071
1099	-0.072
1100	-0.074
1100	-0.075
1100	-0.077
1101	-0.079
1101	-0.081
1102	-0.082
1102	-0.084
1102	-0.085
1103	-0.087
1103	-0.089
1104	-0.091
1104	-0.094
1104	-0.096
1105	-0.097
1105	-0.101
1106	-0.105
1106	-0.108
1107	-0.112
1107	-0.116
1107	-0.121
1108	-0.123
1108	-0.126
1109	-0.128
1109	-0.133
1109	-0.136
1110	-0.136
1110	-0.139
1111	-0.144
1111	-0.145
