Data from 17C_3.4A_35min_2sec_int_Absorbance__423__04508.txt Node

Date: Mon Jun 19 19:58:49 CEST 2023
User: Marek
Spectrometer: MAYP115816
Trigger mode: 0
Integration Time (sec): 2.500000E-1
Scans to average: 10
Electric dark correction enabled: true
Nonlinearity correction enabled: true
Boxcar width: 5
XAxis mode: Wavelengths
Number of Pixels in Spectrum: 2068
>>>>>Begin Spectral Data<<<<<
199	-0.744
199	-0.76
200	-0.663
200	-0.615
201	-0.578
201	-0.565
202	-0.549
202	-0.535
203	-0.525
203	-0.521
204	-0.506
204	-0.494
205	-0.47
205	-0.465
205	-0.461
206	-0.463
206	-0.465
207	-0.456
207	-0.457
208	-0.458
208	-0.458
209	-0.452
209	-0.451
210	-0.455
210	-0.462
211	-0.464
211	-0.467
212	-0.47
212	-0.478
213	-0.477
213	-0.481
213	-0.485
214	-0.482
214	-0.483
215	-0.483
215	-0.487
216	-0.49
216	-0.498
217	-0.493
217	-0.5
218	-0.504
218	-0.502
219	-0.505
219	-0.515
220	-0.519
220	-0.531
221	-0.53
221	-0.533
221	-0.526
222	-0.523
222	-0.521
223	-0.524
223	-0.527
224	-0.531
224	-0.531
225	-0.527
225	-0.521
226	-0.525
226	-0.525
227	-0.53
227	-0.537
228	-0.538
228	-0.539
229	-0.541
229	-0.535
229	-0.529
230	-0.533
230	-0.535
231	-0.53
231	-0.522
232	-0.516
232	-0.517
233	-0.511
233	-0.51
234	-0.51
234	-0.508
235	-0.512
235	-0.518
236	-0.514
236	-0.518
236	-0.524
237	-0.529
237	-0.529
238	-0.538
238	-0.535
239	-0.534
239	-0.542
240	-0.54
240	-0.538
241	-0.547
241	-0.544
242	-0.55
242	-0.546
243	-0.543
243	-0.544
243	-0.553
244	-0.554
244	-0.554
245	-0.571
245	-0.569
246	-0.573
246	-0.58
247	-0.582
247	-0.588
248	-0.593
248	-0.589
249	-0.59
249	-0.599
250	-0.596
250	-0.589
250	-0.591
251	-0.587
251	-0.587
252	-0.589
252	-0.578
253	-0.586
253	-0.598
254	-0.598
254	-0.595
255	-0.602
255	-0.595
256	-0.591
256	-0.602
257	-0.597
257	-0.593
258	-0.612
258	-0.607
258	-0.604
259	-0.601
259	-0.611
260	-0.611
260	-0.617
261	-0.629
261	-0.622
262	-0.62
262	-0.621
263	-0.609
263	-0.603
264	-0.603
264	-0.611
265	-0.604
265	-0.612
265	-0.614
266	-0.611
266	-0.607
267	-0.621
267	-0.63
268	-0.645
268	-0.654
269	-0.65
269	-0.644
270	-0.649
270	-0.651
271	-0.653
271	-0.659
272	-0.662
272	-0.655
272	-0.647
273	-0.645
273	-0.654
274	-0.659
274	-0.663
275	-0.664
275	-0.659
276	-0.665
276	-0.655
277	-0.659
277	-0.676
278	-0.689
278	-0.683
278	-0.678
279	-0.68
279	-0.691
280	-0.688
280	-0.687
281	-0.68
281	-0.688
282	-0.68
282	-0.682
283	-0.67
283	-0.673
284	-0.667
284	-0.658
285	-0.651
285	-0.65
285	-0.646
286	-0.656
286	-0.651
287	-0.65
287	-0.633
288	-0.629
288	-0.637
289	-0.648
289	-0.658
290	-0.647
290	-0.646
291	-0.645
291	-0.638
292	-0.641
292	-0.647
292	-0.652
293	-0.655
293	-0.645
294	-0.634
294	-0.623
295	-0.622
295	-0.621
296	-0.617
296	-0.613
297	-0.607
297	-0.589
298	-0.583
298	-0.592
298	-0.58
299	-0.573
299	-0.575
300	-0.569
300	-0.563
301	-0.561
301	-0.56
302	-0.566
302	-0.575
303	-0.56
303	-0.545
304	-0.546
304	-0.546
305	-0.549
305	-0.549
305	-0.547
306	-0.531
306	-0.527
307	-0.516
307	-0.515
308	-0.53
308	-0.529
309	-0.532
309	-0.522
310	-0.51
310	-0.507
311	-0.498
311	-0.506
311	-0.501
312	-0.494
312	-0.494
313	-0.479
313	-0.481
314	-0.478
314	-0.48
315	-0.48
315	-0.478
316	-0.474
316	-0.466
317	-0.459
317	-0.456
318	-0.444
318	-0.441
318	-0.435
319	-0.425
319	-0.419
320	-0.413
320	-0.413
321	-0.418
321	-0.416
322	-0.411
322	-0.405
323	-0.408
323	-0.402
324	-0.394
324	-0.387
324	-0.378
325	-0.367
325	-0.348
326	-0.333
326	-0.314
327	-0.298
327	-0.275
328	-0.245
328	-0.223
329	-0.2
329	-0.171
330	-0.141
330	-0.107
330	-0.078
331	-0.046
331	-0.015
332	0.013
332	0.039
333	0.064
333	0.09
334	0.115
334	0.135
335	0.157
335	0.174
336	0.19
336	0.207
336	0.219
337	0.233
337	0.244
338	0.255
338	0.262
339	0.272
339	0.28
340	0.286
340	0.292
341	0.297
341	0.301
342	0.305
342	0.308
342	0.312
343	0.314
343	0.318
344	0.32
344	0.321
345	0.322
345	0.323
346	0.325
346	0.325
347	0.326
347	0.327
348	0.328
348	0.329
348	0.328
349	0.329
349	0.329
350	0.329
350	0.329
351	0.329
351	0.33
352	0.33
352	0.33
353	0.33
353	0.329
354	0.329
354	0.329
354	0.329
355	0.329
355	0.329
356	0.329
356	0.328
357	0.328
357	0.328
358	0.327
358	0.327
359	0.327
359	0.327
360	0.327
360	0.327
360	0.326
361	0.326
361	0.326
362	0.326
362	0.325
363	0.325
363	0.325
364	0.325
364	0.325
365	0.325
365	0.324
366	0.324
366	0.324
366	0.324
367	0.324
367	0.324
368	0.323
368	0.323
369	0.323
369	0.322
370	0.322
370	0.322
371	0.321
371	0.321
372	0.32
372	0.32
372	0.32
373	0.32
373	0.32
374	0.32
374	0.32
375	0.319
375	0.319
376	0.319
376	0.319
377	0.319
377	0.318
378	0.318
378	0.318
378	0.317
379	0.317
379	0.317
380	0.317
380	0.316
381	0.316
381	0.315
382	0.315
382	0.314
383	0.314
383	0.314
383	0.313
384	0.313
384	0.313
385	0.313
385	0.313
386	0.312
386	0.312
387	0.312
387	0.312
388	0.311
388	0.311
389	0.311
389	0.311
389	0.311
390	0.311
390	0.31
391	0.31
391	0.31
392	0.31
392	0.31
393	0.309
393	0.309
394	0.309
394	0.308
394	0.308
395	0.307
395	0.307
396	0.306
396	0.306
397	0.306
397	0.306
398	0.305
398	0.305
399	0.305
399	0.305
400	0.305
400	0.305
400	0.304
401	0.304
401	0.304
402	0.304
402	0.303
403	0.303
403	0.302
404	0.302
404	0.302
405	0.301
405	0.301
405	0.301
406	0.3
406	0.3
407	0.3
407	0.3
408	0.3
408	0.3
409	0.299
409	0.299
410	0.299
410	0.299
411	0.299
411	0.299
411	0.299
412	0.299
412	0.298
413	0.298
413	0.298
414	0.298
414	0.297
415	0.297
415	0.297
416	0.296
416	0.296
416	0.296
417	0.296
417	0.296
418	0.295
418	0.295
419	0.295
419	0.295
420	0.295
420	0.295
421	0.295
421	0.295
421	0.295
422	0.295
422	0.295
423	0.295
423	0.294
424	0.294
424	0.294
425	0.293
425	0.293
426	0.293
426	0.293
427	0.292
427	0.292
427	0.292
428	0.292
428	0.292
429	0.292
429	0.292
430	0.292
430	0.292
431	0.292
431	0.291
432	0.291
432	0.291
432	0.29
433	0.29
433	0.29
434	0.29
434	0.289
435	0.29
435	0.289
436	0.289
436	0.289
437	0.289
437	0.29
437	0.29
438	0.289
438	0.289
439	0.289
439	0.289
440	0.289
440	0.289
441	0.289
441	0.289
442	0.289
442	0.289
442	0.289
443	0.289
443	0.289
444	0.289
444	0.289
445	0.289
445	0.289
446	0.289
446	0.289
447	0.289
447	0.29
447	0.29
448	0.29
448	0.29
449	0.29
449	0.29
450	0.29
450	0.29
451	0.29
451	0.29
452	0.29
452	0.29
452	0.29
453	0.29
453	0.29
454	0.29
454	0.29
455	0.29
455	0.29
456	0.29
456	0.29
457	0.29
457	0.29
458	0.29
458	0.291
458	0.291
459	0.291
459	0.291
460	0.291
460	0.291
461	0.291
461	0.291
462	0.292
462	0.292
463	0.292
463	0.292
463	0.293
464	0.293
464	0.293
465	0.293
465	0.294
466	0.294
466	0.295
467	0.295
467	0.296
467	0.296
468	0.296
468	0.297
469	0.297
469	0.298
470	0.299
470	0.299
471	0.299
471	0.3
472	0.3
472	0.301
472	0.301
473	0.302
473	0.303
474	0.303
474	0.303
475	0.304
475	0.305
476	0.306
476	0.306
477	0.307
477	0.308
477	0.308
478	0.309
478	0.31
479	0.311
479	0.312
480	0.312
480	0.313
481	0.314
481	0.315
482	0.316
482	0.317
482	0.318
483	0.319
483	0.321
484	0.322
484	0.322
485	0.323
485	0.324
486	0.325
486	0.326
487	0.327
487	0.329
487	0.33
488	0.331
488	0.333
489	0.335
489	0.337
490	0.339
490	0.341
491	0.343
491	0.345
492	0.347
492	0.348
492	0.35
493	0.352
493	0.354
494	0.356
494	0.357
495	0.359
495	0.361
496	0.363
496	0.365
496	0.367
497	0.369
497	0.372
498	0.374
498	0.376
499	0.378
499	0.381
500	0.384
500	0.386
501	0.388
501	0.391
501	0.393
502	0.395
502	0.397
503	0.4
503	0.402
504	0.404
504	0.407
505	0.41
505	0.412
506	0.415
506	0.417
506	0.42
507	0.422
507	0.424
508	0.427
508	0.429
509	0.432
509	0.434
510	0.437
510	0.439
511	0.442
511	0.444
511	0.447
512	0.45
512	0.452
513	0.455
513	0.457
514	0.459
514	0.462
515	0.464
515	0.466
515	0.468
516	0.47
516	0.473
517	0.475
517	0.476
518	0.478
518	0.48
519	0.482
519	0.483
520	0.485
520	0.487
520	0.489
521	0.49
521	0.492
522	0.493
522	0.496
523	0.497
523	0.499
524	0.5
524	0.501
524	0.502
525	0.502
525	0.503
526	0.504
526	0.504
527	0.505
527	0.505
528	0.505
528	0.506
529	0.506
529	0.506
529	0.507
530	0.507
530	0.507
531	0.507
531	0.507
532	0.506
532	0.506
533	0.506
533	0.504
533	0.504
534	0.503
534	0.501
535	0.5
535	0.499
536	0.497
536	0.495
537	0.493
537	0.492
538	0.49
538	0.488
538	0.487
539	0.486
539	0.485
540	0.483
540	0.481
541	0.48
541	0.478
542	0.477
542	0.475
542	0.472
543	0.47
543	0.468
544	0.465
544	0.463
545	0.461
545	0.458
546	0.456
546	0.454
547	0.451
547	0.449
547	0.447
548	0.445
548	0.443
549	0.441
549	0.438
550	0.436
550	0.434
551	0.431
551	0.429
551	0.428
552	0.426
552	0.424
553	0.422
553	0.42
554	0.417
554	0.415
555	0.412
555	0.41
556	0.407
556	0.404
556	0.402
557	0.399
557	0.397
558	0.394
558	0.391
559	0.389
559	0.386
560	0.384
560	0.381
560	0.379
561	0.377
561	0.374
562	0.372
562	0.369
563	0.366
563	0.364
564	0.362
564	0.36
564	0.358
565	0.356
565	0.354
566	0.352
566	0.35
567	0.348
567	0.346
568	0.344
568	0.341
568	0.339
569	0.336
569	0.334
570	0.331
570	0.328
571	0.326
571	0.324
572	0.322
572	0.32
573	0.318
573	0.316
573	0.314
574	0.313
574	0.311
575	0.31
575	0.309
576	0.307
576	0.305
577	0.303
577	0.302
577	0.301
578	0.3
578	0.299
579	0.298
579	0.297
580	0.295
580	0.292
581	0.29
581	0.289
581	0.288
582	0.287
582	0.286
583	0.285
583	0.284
584	0.281
584	0.279
585	0.279
585	0.278
585	0.277
586	0.276
586	0.275
587	0.274
587	0.272
588	0.271
588	0.27
589	0.269
589	0.268
590	0.267
590	0.266
590	0.267
591	0.266
591	0.264
592	0.262
592	0.261
593	0.26
593	0.259
594	0.258
594	0.257
594	0.256
595	0.255
595	0.254
596	0.253
596	0.253
597	0.253
597	0.252
598	0.251
598	0.25
598	0.249
599	0.248
599	0.246
600	0.245
600	0.244
601	0.242
601	0.241
602	0.239
602	0.239
602	0.237
603	0.237
603	0.238
604	0.237
604	0.237
605	0.237
605	0.237
606	0.236
606	0.235
606	0.234
607	0.234
607	0.233
608	0.232
608	0.23
609	0.229
609	0.229
610	0.228
610	0.227
610	0.227
611	0.227
611	0.227
612	0.227
612	0.228
613	0.228
613	0.228
614	0.227
614	0.225
614	0.224
615	0.223
615	0.222
616	0.221
616	0.22
617	0.218
617	0.217
618	0.215
618	0.214
618	0.213
619	0.213
619	0.213
620	0.213
620	0.212
621	0.211
621	0.21
622	0.21
622	0.209
622	0.208
623	0.207
623	0.207
624	0.206
624	0.205
625	0.204
625	0.203
626	0.202
626	0.202
626	0.201
627	0.2
627	0.199
628	0.198
628	0.197
629	0.195
629	0.194
630	0.192
630	0.19
630	0.188
631	0.187
631	0.185
632	0.182
632	0.18
633	0.178
633	0.176
634	0.174
634	0.172
634	0.17
635	0.167
635	0.165
636	0.162
636	0.159
637	0.157
637	0.153
638	0.15
638	0.147
638	0.143
639	0.139
639	0.135
640	0.131
640	0.127
641	0.123
641	0.119
642	0.115
642	0.111
642	0.106
643	0.101
643	0.097
644	0.092
644	0.086
645	0.081
645	0.075
646	0.07
646	0.064
646	0.058
647	0.052
647	0.046
648	0.04
648	0.034
649	0.027
649	0.02
650	0.014
650	0.007
650	-0.001
651	-0.01
651	-0.021
652	-0.034
652	-0.047
653	-0.059
653	-0.069
653	-0.066
654	-0.05
654	-0.044
655	-0.047
655	-0.052
656	-0.058
656	-0.063
657	-0.067
657	-0.071
657	-0.077
658	-0.083
658	-0.11
659	-0.184
659	-0.27
660	-0.31
660	-0.335
661	-0.361
661	-0.389
661	-0.42
662	-0.449
662	-0.479
663	-0.515
663	-0.554
664	-0.593
664	-0.642
665	-0.689
665	-0.743
665	-0.794
666	-0.847
666	-0.905
667	-0.967
667	-1.03
668	-1.1
668	-1.17
669	-1.241
669	-1.311
669	-1.385
670	-1.445
670	-1.458
671	-1.561
671	-1.908
672	-2.159
672	-2.362
672	-2.498
673	-2.595
673	-2.678
674	-2.731
674	-2.752
675	-2.778
675	-2.921
676	-3.126
676	-3.079
676	-2.856
677	-2.655
677	-2.497
678	-2.329
678	-2.056
679	-1.72
679	-1.566
680	-1.467
680	-1.381
680	-1.309
681	-1.263
681	-1.204
682	-1.166
682	-1.13
683	-1.096
683	-1.081
684	-1.062
684	-1.045
684	-1.024
685	-1.002
685	-0.981
686	-0.958
686	-0.944
687	-0.919
687	-0.909
687	-0.891
688	-0.866
688	-0.846
689	-0.825
689	-0.813
690	-0.794
690	-0.784
691	-0.779
691	-0.785
691	-0.802
692	-0.796
692	-0.789
693	-0.784
693	-0.792
694	-0.789
694	-0.783
695	-0.789
695	-0.787
695	-0.771
696	-0.767
696	-0.745
697	-0.745
697	-0.759
698	-0.763
698	-0.753
698	-0.765
699	-0.769
699	-0.765
700	-0.758
700	-0.773
701	-0.772
701	-0.779
702	-0.779
702	-0.768
702	-0.76
703	-0.754
703	-0.747
704	-0.741
704	-0.742
705	-0.753
705	-0.746
705	-0.734
706	-0.734
706	-0.73
707	-0.736
707	-0.731
708	-0.732
708	-0.725
709	-0.729
709	-0.731
709	-0.724
710	-0.732
710	-0.744
711	-0.734
711	-0.736
712	-0.737
712	-0.751
713	-0.748
713	-0.755
713	-0.747
714	-0.744
714	-0.743
715	-0.734
715	-0.721
716	-0.73
716	-0.729
716	-0.722
717	-0.722
717	-0.725
718	-0.715
718	-0.714
719	-0.722
719	-0.725
720	-0.72
720	-0.729
720	-0.723
721	-0.713
721	-0.711
722	-0.697
722	-0.687
723	-0.687
723	-0.691
723	-0.677
724	-0.679
724	-0.683
725	-0.682
725	-0.689
726	-0.704
726	-0.712
727	-0.719
727	-0.733
727	-0.739
728	-0.741
728	-0.747
729	-0.746
729	-0.751
730	-0.758
730	-0.752
730	-0.742
731	-0.724
731	-0.734
732	-0.741
732	-0.741
733	-0.737
733	-0.744
734	-0.738
734	-0.738
734	-0.725
735	-0.723
735	-0.724
736	-0.735
736	-0.723
737	-0.714
737	-0.714
737	-0.726
738	-0.718
738	-0.719
739	-0.719
739	-0.731
740	-0.729
740	-0.729
741	-0.723
741	-0.723
741	-0.728
742	-0.727
742	-0.727
743	-0.735
743	-0.739
744	-0.734
744	-0.726
744	-0.727
745	-0.735
745	-0.728
746	-0.726
746	-0.724
747	-0.726
747	-0.712
748	-0.699
748	-0.705
748	-0.707
749	-0.706
749	-0.707
750	-0.694
750	-0.695
751	-0.699
751	-0.704
751	-0.706
752	-0.711
752	-0.721
753	-0.714
753	-0.711
754	-0.714
754	-0.709
754	-0.725
755	-0.741
755	-0.753
756	-0.744
756	-0.74
757	-0.738
757	-0.733
758	-0.738
758	-0.735
758	-0.738
759	-0.742
759	-0.725
760	-0.718
760	-0.712
761	-0.721
761	-0.719
761	-0.718
762	-0.726
762	-0.726
763	-0.735
763	-0.733
764	-0.735
764	-0.743
764	-0.748
765	-0.739
765	-0.726
766	-0.733
766	-0.739
767	-0.754
767	-0.745
768	-0.735
768	-0.745
768	-0.748
769	-0.765
769	-0.766
770	-0.771
770	-0.786
771	-0.782
771	-0.785
771	-0.787
772	-0.793
772	-0.794
773	-0.794
773	-0.79
774	-0.789
774	-0.788
775	-0.792
775	-0.786
775	-0.796
776	-0.796
776	-0.783
777	-0.791
777	-0.808
778	-0.804
778	-0.823
778	-0.809
779	-0.835
779	-0.843
780	-0.857
780	-0.855
781	-0.867
781	-0.864
781	-0.879
782	-0.881
782	-0.882
783	-0.868
783	-0.866
784	-0.844
784	-0.832
784	-0.84
785	-0.847
785	-0.831
786	-0.839
786	-0.817
787	-0.802
787	-0.807
788	-0.811
788	-0.822
788	-0.834
789	-0.837
789	-0.819
790	-0.8
790	-0.803
791	-0.801
791	-0.818
791	-0.824
792	-0.817
792	-0.794
793	-0.783
793	-0.759
794	-0.763
794	-0.755
794	-0.764
795	-0.759
795	-0.753
796	-0.739
796	-0.745
797	-0.739
797	-0.75
797	-0.757
798	-0.77
798	-0.763
799	-0.775
799	-0.761
800	-0.767
800	-0.76
801	-0.764
801	-0.75
801	-0.76
802	-0.769
802	-0.768
803	-0.77
803	-0.778
804	-0.772
804	-0.784
804	-0.772
805	-0.778
805	-0.766
806	-0.77
806	-0.754
807	-0.754
807	-0.736
807	-0.724
808	-0.717
808	-0.712
809	-0.697
809	-0.704
810	-0.701
810	-0.693
810	-0.689
811	-0.696
811	-0.686
812	-0.689
812	-0.691
813	-0.695
813	-0.691
813	-0.696
814	-0.699
814	-0.702
815	-0.708
815	-0.712
816	-0.703
816	-0.709
817	-0.713
817	-0.732
817	-0.746
818	-0.753
818	-0.753
819	-0.745
819	-0.747
820	-0.756
820	-0.75
820	-0.763
821	-0.761
821	-0.752
822	-0.718
822	-0.695
823	-0.693
823	-0.7
823	-0.697
824	-0.692
824	-0.694
825	-0.688
825	-0.67
826	-0.664
826	-0.671
826	-0.682
827	-0.676
827	-0.671
828	-0.649
828	-0.649
829	-0.639
829	-0.625
829	-0.617
830	-0.625
830	-0.62
831	-0.612
831	-0.601
832	-0.601
832	-0.594
832	-0.601
833	-0.595
833	-0.596
834	-0.594
834	-0.604
835	-0.59
835	-0.587
835	-0.581
836	-0.58
836	-0.577
837	-0.575
837	-0.566
838	-0.558
838	-0.546
839	-0.533
839	-0.52
839	-0.51
840	-0.5
840	-0.497
841	-0.485
841	-0.476
842	-0.471
842	-0.462
842	-0.457
843	-0.45
843	-0.446
844	-0.436
844	-0.43
845	-0.42
845	-0.409
845	-0.397
846	-0.386
846	-0.372
847	-0.359
847	-0.348
848	-0.338
848	-0.326
848	-0.313
849	-0.302
849	-0.291
850	-0.278
850	-0.272
851	-0.264
851	-0.252
851	-0.244
852	-0.228
852	-0.215
853	-0.207
853	-0.201
854	-0.19
854	-0.179
854	-0.168
855	-0.157
855	-0.149
856	-0.139
856	-0.131
857	-0.125
857	-0.118
857	-0.107
858	-0.096
858	-0.09
859	-0.083
859	-0.072
860	-0.063
860	-0.051
860	-0.043
861	-0.035
861	-0.027
862	-0.019
862	-0.013
863	-0.006
863	0.002
863	0.007
864	0.011
864	0.016
865	0.021
865	0.026
866	0.03
866	0.034
866	0.037
867	0.04
867	0.043
868	0.045
868	0.048
869	0.051
869	0.053
869	0.054
870	0.056
870	0.059
871	0.061
871	0.063
872	0.065
872	0.066
872	0.067
873	0.067
873	0.068
874	0.067
874	0.067
875	0.066
875	0.065
875	0.064
876	0.063
876	0.061
877	0.06
877	0.059
878	0.057
878	0.056
878	0.054
879	0.053
879	0.052
880	0.051
880	0.051
881	0.051
881	0.051
881	0.051
882	0.05
882	0.05
883	0.048
883	0.047
884	0.047
884	0.046
884	0.045
885	0.044
885	0.044
886	0.044
886	0.044
887	0.044
887	0.044
887	0.044
888	0.044
888	0.044
889	0.045
889	0.045
890	0.045
890	0.045
890	0.044
891	0.044
891	0.044
892	0.044
892	0.044
893	0.044
893	0.044
893	0.044
894	0.044
894	0.044
895	0.044
895	0.044
895	0.044
896	0.044
896	0.043
897	0.042
897	0.041
898	0.04
898	0.04
898	0.04
899	0.04
899	0.04
900	0.041
900	0.041
901	0.042
901	0.043
901	0.044
902	0.045
902	0.046
903	0.047
903	0.048
904	0.049
904	0.049
904	0.05
905	0.051
905	0.051
906	0.052
906	0.052
907	0.052
907	0.051
907	0.051
908	0.051
908	0.05
909	0.049
909	0.048
910	0.048
910	0.047
910	0.047
911	0.047
911	0.047
912	0.047
912	0.048
913	0.048
913	0.049
913	0.05
914	0.051
914	0.052
915	0.052
915	0.053
916	0.053
916	0.053
916	0.053
917	0.054
917	0.054
918	0.053
918	0.053
918	0.052
919	0.052
919	0.052
920	0.052
920	0.052
921	0.051
921	0.051
921	0.051
922	0.05
922	0.05
923	0.049
923	0.048
924	0.048
924	0.048
924	0.047
925	0.046
925	0.045
926	0.044
926	0.043
927	0.043
927	0.042
927	0.042
928	0.041
928	0.041
929	0.041
929	0.04
930	0.039
930	0.039
930	0.038
931	0.037
931	0.037
932	0.036
932	0.035
933	0.035
933	0.034
933	0.032
934	0.031
934	0.031
935	0.03
935	0.029
935	0.029
936	0.028
936	0.027
937	0.026
937	0.026
938	0.026
938	0.026
938	0.026
939	0.027
939	0.027
940	0.028
940	0.028
941	0.029
941	0.03
941	0.031
942	0.032
942	0.032
943	0.033
943	0.033
944	0.033
944	0.033
944	0.032
945	0.032
945	0.031
946	0.029
946	0.028
946	0.027
947	0.027
947	0.026
948	0.026
948	0.025
949	0.025
949	0.025
949	0.025
950	0.026
950	0.026
951	0.028
951	0.028
952	0.029
952	0.03
952	0.031
953	0.032
953	0.033
954	0.034
954	0.034
955	0.035
955	0.037
955	0.038
956	0.038
956	0.039
957	0.039
957	0.039
957	0.04
958	0.04
958	0.041
959	0.041
959	0.042
960	0.042
960	0.042
960	0.042
961	0.042
961	0.043
962	0.043
962	0.043
963	0.043
963	0.043
963	0.043
964	0.043
964	0.043
965	0.043
965	0.043
966	0.043
966	0.043
966	0.042
967	0.043
967	0.042
968	0.041
968	0.041
968	0.04
969	0.04
969	0.04
970	0.04
970	0.04
971	0.04
971	0.04
971	0.04
972	0.04
972	0.041
973	0.041
973	0.041
974	0.04
974	0.04
974	0.04
975	0.04
975	0.04
976	0.039
976	0.038
976	0.038
977	0.037
977	0.037
978	0.037
978	0.037
979	0.037
979	0.036
979	0.036
980	0.036
980	0.036
981	0.036
981	0.036
982	0.036
982	0.036
982	0.035
983	0.035
983	0.035
984	0.035
984	0.035
984	0.036
985	0.036
985	0.036
986	0.035
986	0.035
987	0.034
987	0.034
987	0.033
988	0.033
988	0.032
989	0.031
989	0.03
990	0.029
990	0.028
990	0.027
991	0.027
991	0.026
992	0.026
992	0.026
992	0.026
993	0.026
993	0.026
994	0.026
994	0.026
995	0.025
995	0.025
995	0.024
996	0.024
996	0.023
997	0.022
997	0.022
997	0.022
998	0.022
998	0.022
999	0.022
999	0.022
1000	0.023
1000	0.023
1000	0.023
1001	0.024
1001	0.024
1002	0.024
1002	0.024
1003	0.024
1003	0.024
1003	0.024
1004	0.024
1004	0.023
1005	0.023
1005	0.022
1005	0.021
1006	0.02
1006	0.019
1007	0.018
1007	0.017
1008	0.017
1008	0.016
1008	0.016
1009	0.016
1009	0.016
1010	0.016
1010	0.016
1010	0.017
1011	0.017
1011	0.017
1012	0.017
1012	0.017
1013	0.017
1013	0.017
1013	0.016
1014	0.016
1014	0.015
1015	0.015
1015	0.015
1016	0.014
1016	0.013
1016	0.012
1017	0.011
1017	0.011
1018	0.01
1018	0.009
1018	0.008
1019	0.007
1019	0.006
1020	0.005
1020	0.004
1021	0.004
1021	0.003
1021	0.002
1022	0.002
1022	0.001
1023	0.001
1023	0.001
1023	0.001
1024	0
1024	-0
1025	-0
1025	-0
1026	0
1026	0
1026	0
1027	0.001
1027	0.001
1028	0.001
1028	0.001
1028	0.001
1029	0.001
1029	0.001
1030	0.001
1030	0.001
1031	0
1031	0
1031	0
1032	-0
1032	-0
1033	0
1033	0.001
1033	0.001
1034	0.001
1034	0.001
1035	0.001
1035	0.002
1036	0.002
1036	0.002
1036	0.002
1037	0.002
1037	0.002
1038	0.003
1038	0.003
1039	0.003
1039	0.004
1039	0.004
1040	0.004
1040	0.005
1041	0.005
1041	0.005
1041	0.005
1042	0.005
1042	0.005
1043	0.004
1043	0.004
1044	0.003
1044	0.003
1044	0.002
1045	0.001
1045	0
1046	-0.001
1046	-0.001
1046	-0.002
1047	-0.002
1047	-0.002
1048	-0.002
1048	-0.002
1049	-0.002
1049	-0.002
1049	-0.001
1050	-0.001
1050	-0.001
1051	-0.001
1051	-0.001
1051	-0
1052	-0
1052	-0
1053	-0
1053	0
1053	0
1054	0
1054	0
1055	0
1055	0
1056	-0
1056	-0.001
1056	-0.002
1057	-0.003
1057	-0.003
1058	-0.004
1058	-0.004
1058	-0.005
1059	-0.006
1059	-0.007
1060	-0.008
1060	-0.008
1061	-0.009
1061	-0.009
1061	-0.009
1062	-0.009
1062	-0.01
1063	-0.01
1063	-0.01
1063	-0.01
1064	-0.009
1064	-0.009
1065	-0.009
1065	-0.009
1066	-0.009
1066	-0.009
1066	-0.009
1067	-0.009
1067	-0.009
1068	-0.009
1068	-0.01
1068	-0.01
1069	-0.01
1069	-0.011
1070	-0.012
1070	-0.012
1071	-0.013
1071	-0.013
1071	-0.014
1072	-0.014
1072	-0.015
1073	-0.015
1073	-0.015
1073	-0.016
1074	-0.016
1074	-0.016
1075	-0.016
1075	-0.017
1076	-0.018
1076	-0.018
1076	-0.019
1077	-0.019
1077	-0.019
1078	-0.021
1078	-0.021
1078	-0.022
1079	-0.023
1079	-0.023
1080	-0.023
1080	-0.024
1080	-0.025
1081	-0.025
1081	-0.025
1082	-0.026
1082	-0.027
1083	-0.028
1083	-0.028
1083	-0.029
1084	-0.03
1084	-0.031
1085	-0.032
1085	-0.032
1085	-0.032
1086	-0.032
1086	-0.033
1087	-0.033
1087	-0.033
1088	-0.033
1088	-0.034
1088	-0.034
1089	-0.035
1089	-0.035
1090	-0.037
1090	-0.038
1090	-0.039
1091	-0.04
1091	-0.04
1092	-0.042
1092	-0.041
1092	-0.043
1093	-0.043
1093	-0.043
1094	-0.044
1094	-0.044
1095	-0.045
1095	-0.045
1095	-0.045
1096	-0.046
1096	-0.047
1097	-0.047
1097	-0.048
1097	-0.048
1098	-0.05
1098	-0.052
1099	-0.052
1099	-0.054
1100	-0.055
1100	-0.056
1100	-0.058
1101	-0.061
1101	-0.063
1102	-0.065
1102	-0.068
1102	-0.068
1103	-0.07
1103	-0.072
1104	-0.075
1104	-0.077
1104	-0.079
1105	-0.082
1105	-0.085
1106	-0.09
1106	-0.093
1107	-0.097
1107	-0.101
1107	-0.106
1108	-0.108
1108	-0.11
1109	-0.113
1109	-0.116
1109	-0.119
1110	-0.118
1110	-0.119
1111	-0.122
1111	-0.12
