Data from 17C_3.4A_35min_2sec_int_Absorbance__354__04439.txt Node

Date: Mon Jun 19 19:55:56 CEST 2023
User: Marek
Spectrometer: MAYP115816
Trigger mode: 0
Integration Time (sec): 2.500000E-1
Scans to average: 10
Electric dark correction enabled: true
Nonlinearity correction enabled: true
Boxcar width: 5
XAxis mode: Wavelengths
Number of Pixels in Spectrum: 2068
>>>>>Begin Spectral Data<<<<<
199	-0.754
199	-0.77
200	-0.672
200	-0.618
201	-0.579
201	-0.569
202	-0.55
202	-0.54
203	-0.529
203	-0.526
204	-0.512
204	-0.499
205	-0.474
205	-0.47
205	-0.468
206	-0.472
206	-0.473
207	-0.466
207	-0.467
208	-0.471
208	-0.47
209	-0.465
209	-0.464
210	-0.469
210	-0.475
211	-0.476
211	-0.476
212	-0.478
212	-0.487
213	-0.484
213	-0.483
213	-0.487
214	-0.481
214	-0.482
215	-0.481
215	-0.486
216	-0.492
216	-0.499
217	-0.496
217	-0.501
218	-0.504
218	-0.506
219	-0.51
219	-0.521
220	-0.526
220	-0.536
221	-0.533
221	-0.535
221	-0.528
222	-0.524
222	-0.523
223	-0.526
223	-0.529
224	-0.532
224	-0.532
225	-0.526
225	-0.522
226	-0.528
226	-0.528
227	-0.534
227	-0.543
228	-0.544
228	-0.544
229	-0.545
229	-0.539
229	-0.532
230	-0.537
230	-0.54
231	-0.533
231	-0.525
232	-0.519
232	-0.519
233	-0.514
233	-0.515
234	-0.512
234	-0.509
235	-0.514
235	-0.518
236	-0.515
236	-0.52
236	-0.527
237	-0.531
237	-0.53
238	-0.537
238	-0.535
239	-0.537
239	-0.546
240	-0.545
240	-0.544
241	-0.548
241	-0.548
242	-0.55
242	-0.546
243	-0.542
243	-0.543
243	-0.551
244	-0.549
244	-0.551
245	-0.564
245	-0.563
246	-0.57
246	-0.576
247	-0.579
247	-0.584
248	-0.59
248	-0.588
249	-0.591
249	-0.598
250	-0.594
250	-0.589
250	-0.589
251	-0.585
251	-0.582
252	-0.585
252	-0.576
253	-0.582
253	-0.593
254	-0.59
254	-0.59
255	-0.598
255	-0.594
256	-0.592
256	-0.604
257	-0.601
257	-0.597
258	-0.613
258	-0.608
258	-0.604
259	-0.602
259	-0.609
260	-0.609
260	-0.613
261	-0.624
261	-0.614
262	-0.612
262	-0.612
263	-0.601
263	-0.598
264	-0.597
264	-0.606
265	-0.602
265	-0.609
265	-0.613
266	-0.609
266	-0.608
267	-0.621
267	-0.629
268	-0.646
268	-0.654
269	-0.651
269	-0.643
270	-0.648
270	-0.652
271	-0.651
271	-0.657
272	-0.659
272	-0.654
272	-0.646
273	-0.644
273	-0.653
274	-0.66
274	-0.667
275	-0.666
275	-0.66
276	-0.665
276	-0.659
277	-0.663
277	-0.68
278	-0.692
278	-0.686
278	-0.679
279	-0.682
279	-0.69
280	-0.687
280	-0.686
281	-0.682
281	-0.687
282	-0.68
282	-0.681
283	-0.67
283	-0.673
284	-0.668
284	-0.657
285	-0.653
285	-0.652
285	-0.647
286	-0.653
286	-0.649
287	-0.646
287	-0.63
288	-0.624
288	-0.633
289	-0.644
289	-0.654
290	-0.641
290	-0.641
291	-0.641
291	-0.634
292	-0.638
292	-0.644
292	-0.648
293	-0.652
293	-0.641
294	-0.632
294	-0.623
295	-0.623
295	-0.621
296	-0.616
296	-0.613
297	-0.606
297	-0.592
298	-0.584
298	-0.593
298	-0.582
299	-0.574
299	-0.573
300	-0.568
300	-0.561
301	-0.559
301	-0.559
302	-0.565
302	-0.574
303	-0.561
303	-0.546
304	-0.548
304	-0.548
305	-0.55
305	-0.548
305	-0.546
306	-0.53
306	-0.523
307	-0.51
307	-0.511
308	-0.525
308	-0.523
309	-0.525
309	-0.514
310	-0.502
310	-0.498
311	-0.491
311	-0.501
311	-0.499
312	-0.496
312	-0.495
313	-0.481
313	-0.482
314	-0.48
314	-0.484
315	-0.486
315	-0.485
316	-0.48
316	-0.47
317	-0.463
317	-0.456
318	-0.444
318	-0.439
318	-0.434
319	-0.422
319	-0.415
320	-0.409
320	-0.412
321	-0.415
321	-0.417
322	-0.41
322	-0.406
323	-0.406
323	-0.401
324	-0.393
324	-0.384
324	-0.375
325	-0.362
325	-0.343
326	-0.329
326	-0.309
327	-0.293
327	-0.271
328	-0.243
328	-0.222
329	-0.197
329	-0.171
330	-0.139
330	-0.105
330	-0.074
331	-0.042
331	-0.011
332	0.02
332	0.046
333	0.072
333	0.099
334	0.123
334	0.144
335	0.164
335	0.182
336	0.2
336	0.217
336	0.23
337	0.243
337	0.256
338	0.267
338	0.275
339	0.285
339	0.292
340	0.298
340	0.304
341	0.309
341	0.313
342	0.318
342	0.322
342	0.326
343	0.329
343	0.333
344	0.335
344	0.337
345	0.338
345	0.339
346	0.341
346	0.342
347	0.343
347	0.343
348	0.344
348	0.345
348	0.345
349	0.345
349	0.345
350	0.346
350	0.346
351	0.346
351	0.346
352	0.346
352	0.347
353	0.347
353	0.346
354	0.346
354	0.346
354	0.346
355	0.346
355	0.345
356	0.345
356	0.345
357	0.344
357	0.343
358	0.343
358	0.342
359	0.342
359	0.342
360	0.342
360	0.342
360	0.342
361	0.342
361	0.341
362	0.342
362	0.342
363	0.342
363	0.341
364	0.341
364	0.341
365	0.341
365	0.34
366	0.34
366	0.34
366	0.34
367	0.34
367	0.34
368	0.339
368	0.339
369	0.339
369	0.338
370	0.338
370	0.338
371	0.337
371	0.337
372	0.337
372	0.336
372	0.336
373	0.336
373	0.336
374	0.335
374	0.335
375	0.335
375	0.335
376	0.334
376	0.334
377	0.334
377	0.334
378	0.333
378	0.333
378	0.333
379	0.332
379	0.332
380	0.332
380	0.331
381	0.331
381	0.33
382	0.33
382	0.33
383	0.33
383	0.329
383	0.329
384	0.328
384	0.328
385	0.328
385	0.328
386	0.328
386	0.327
387	0.327
387	0.327
388	0.326
388	0.326
389	0.326
389	0.326
389	0.326
390	0.325
390	0.325
391	0.325
391	0.324
392	0.324
392	0.324
393	0.323
393	0.323
394	0.323
394	0.322
394	0.322
395	0.321
395	0.321
396	0.32
396	0.32
397	0.32
397	0.32
398	0.32
398	0.32
399	0.319
399	0.319
400	0.319
400	0.318
400	0.318
401	0.318
401	0.317
402	0.317
402	0.317
403	0.316
403	0.316
404	0.315
404	0.315
405	0.315
405	0.315
405	0.314
406	0.314
406	0.314
407	0.314
407	0.313
408	0.313
408	0.313
409	0.313
409	0.313
410	0.313
410	0.313
411	0.313
411	0.313
411	0.313
412	0.313
412	0.312
413	0.312
413	0.312
414	0.312
414	0.311
415	0.311
415	0.311
416	0.31
416	0.31
416	0.31
417	0.31
417	0.309
418	0.309
418	0.309
419	0.309
419	0.309
420	0.309
420	0.309
421	0.309
421	0.309
421	0.309
422	0.309
422	0.309
423	0.308
423	0.308
424	0.307
424	0.307
425	0.307
425	0.306
426	0.306
426	0.305
427	0.305
427	0.305
427	0.305
428	0.305
428	0.305
429	0.305
429	0.304
430	0.304
430	0.304
431	0.304
431	0.304
432	0.304
432	0.303
432	0.303
433	0.303
433	0.303
434	0.303
434	0.303
435	0.303
435	0.303
436	0.303
436	0.303
437	0.302
437	0.302
437	0.303
438	0.302
438	0.303
439	0.303
439	0.303
440	0.302
440	0.302
441	0.302
441	0.302
442	0.302
442	0.302
442	0.302
443	0.302
443	0.301
444	0.301
444	0.302
445	0.302
445	0.302
446	0.302
446	0.302
447	0.302
447	0.303
447	0.303
448	0.303
448	0.303
449	0.303
449	0.303
450	0.303
450	0.303
451	0.303
451	0.303
452	0.303
452	0.303
452	0.303
453	0.303
453	0.303
454	0.303
454	0.303
455	0.303
455	0.303
456	0.303
456	0.303
457	0.303
457	0.303
458	0.303
458	0.304
458	0.304
459	0.304
459	0.305
460	0.304
460	0.305
461	0.305
461	0.305
462	0.305
462	0.306
463	0.306
463	0.306
463	0.307
464	0.307
464	0.307
465	0.308
465	0.308
466	0.309
466	0.309
467	0.31
467	0.31
467	0.31
468	0.311
468	0.311
469	0.312
469	0.313
470	0.313
470	0.313
471	0.314
471	0.314
472	0.315
472	0.315
472	0.316
473	0.317
473	0.317
474	0.318
474	0.318
475	0.319
475	0.32
476	0.321
476	0.321
477	0.322
477	0.323
477	0.323
478	0.324
478	0.325
479	0.326
479	0.327
480	0.328
480	0.329
481	0.33
481	0.331
482	0.333
482	0.334
482	0.335
483	0.336
483	0.338
484	0.338
484	0.339
485	0.34
485	0.341
486	0.343
486	0.344
487	0.345
487	0.347
487	0.348
488	0.35
488	0.351
489	0.353
489	0.356
490	0.358
490	0.36
491	0.362
491	0.364
492	0.366
492	0.367
492	0.369
493	0.371
493	0.373
494	0.375
494	0.377
495	0.379
495	0.381
496	0.383
496	0.386
496	0.388
497	0.391
497	0.393
498	0.395
498	0.398
499	0.401
499	0.403
500	0.406
500	0.409
501	0.411
501	0.414
501	0.416
502	0.418
502	0.421
503	0.424
503	0.426
504	0.429
504	0.431
505	0.434
505	0.437
506	0.44
506	0.443
506	0.445
507	0.448
507	0.45
508	0.453
508	0.456
509	0.458
509	0.461
510	0.464
510	0.467
511	0.47
511	0.472
511	0.475
512	0.478
512	0.481
513	0.484
513	0.486
514	0.489
514	0.492
515	0.494
515	0.496
515	0.498
516	0.501
516	0.503
517	0.506
517	0.508
518	0.51
518	0.512
519	0.513
519	0.515
520	0.517
520	0.519
520	0.521
521	0.523
521	0.525
522	0.526
522	0.528
523	0.53
523	0.532
524	0.533
524	0.534
524	0.535
525	0.536
525	0.536
526	0.537
526	0.537
527	0.538
527	0.538
528	0.538
528	0.539
529	0.539
529	0.539
529	0.539
530	0.54
530	0.54
531	0.54
531	0.539
532	0.539
532	0.538
533	0.538
533	0.537
533	0.536
534	0.535
534	0.533
535	0.532
535	0.531
536	0.529
536	0.527
537	0.526
537	0.524
538	0.522
538	0.521
538	0.519
539	0.518
539	0.516
540	0.514
540	0.512
541	0.51
541	0.509
542	0.506
542	0.504
542	0.501
543	0.499
543	0.496
544	0.493
544	0.491
545	0.489
545	0.486
546	0.484
546	0.481
547	0.478
547	0.476
547	0.473
548	0.471
548	0.468
549	0.466
549	0.464
550	0.461
550	0.458
551	0.455
551	0.453
551	0.451
552	0.449
552	0.447
553	0.444
553	0.442
554	0.439
554	0.436
555	0.433
555	0.43
556	0.427
556	0.424
556	0.421
557	0.419
557	0.416
558	0.413
558	0.41
559	0.406
559	0.404
560	0.401
560	0.398
560	0.395
561	0.393
561	0.39
562	0.387
562	0.385
563	0.382
563	0.379
564	0.377
564	0.375
564	0.372
565	0.37
565	0.368
566	0.365
566	0.363
567	0.361
567	0.358
568	0.355
568	0.352
568	0.35
569	0.347
569	0.344
570	0.341
570	0.338
571	0.336
571	0.334
572	0.332
572	0.329
573	0.327
573	0.325
573	0.322
574	0.321
574	0.319
575	0.317
575	0.316
576	0.314
576	0.311
577	0.309
577	0.308
577	0.307
578	0.305
578	0.304
579	0.303
579	0.302
580	0.299
580	0.296
581	0.294
581	0.292
581	0.292
582	0.291
582	0.289
583	0.288
583	0.286
584	0.284
584	0.281
585	0.281
585	0.28
585	0.279
586	0.278
586	0.276
587	0.275
587	0.273
588	0.271
588	0.27
589	0.269
589	0.268
590	0.267
590	0.266
590	0.266
591	0.264
591	0.262
592	0.26
592	0.259
593	0.258
593	0.257
594	0.255
594	0.254
594	0.253
595	0.252
595	0.25
596	0.249
596	0.249
597	0.249
597	0.248
598	0.247
598	0.245
598	0.244
599	0.243
599	0.241
600	0.239
600	0.238
601	0.237
601	0.235
602	0.233
602	0.232
602	0.231
603	0.23
603	0.23
604	0.23
604	0.23
605	0.23
605	0.229
606	0.228
606	0.227
606	0.226
607	0.225
607	0.224
608	0.222
608	0.221
609	0.219
609	0.219
610	0.218
610	0.217
610	0.217
611	0.217
611	0.217
612	0.217
612	0.217
613	0.217
613	0.217
614	0.216
614	0.214
614	0.213
615	0.212
615	0.211
616	0.21
616	0.209
617	0.207
617	0.205
618	0.204
618	0.203
618	0.202
619	0.201
619	0.201
620	0.201
620	0.2
621	0.199
621	0.198
622	0.197
622	0.196
622	0.195
623	0.194
623	0.194
624	0.193
624	0.191
625	0.191
625	0.19
626	0.189
626	0.188
626	0.187
627	0.187
627	0.185
628	0.184
628	0.183
629	0.182
629	0.18
630	0.178
630	0.176
630	0.174
631	0.173
631	0.17
632	0.168
632	0.166
633	0.164
633	0.161
634	0.159
634	0.157
634	0.155
635	0.152
635	0.15
636	0.147
636	0.144
637	0.142
637	0.139
638	0.135
638	0.132
638	0.128
639	0.124
639	0.12
640	0.116
640	0.112
641	0.108
641	0.104
642	0.1
642	0.095
642	0.091
643	0.086
643	0.081
644	0.076
644	0.071
645	0.066
645	0.06
646	0.055
646	0.049
646	0.043
647	0.037
647	0.032
648	0.025
648	0.019
649	0.013
649	0.007
650	0.001
650	-0.006
650	-0.013
651	-0.023
651	-0.033
652	-0.046
652	-0.059
653	-0.071
653	-0.081
653	-0.078
654	-0.063
654	-0.057
655	-0.062
655	-0.066
656	-0.071
656	-0.077
657	-0.08
657	-0.083
657	-0.089
658	-0.094
658	-0.12
659	-0.192
659	-0.275
660	-0.313
660	-0.336
661	-0.362
661	-0.389
661	-0.42
662	-0.447
662	-0.478
663	-0.512
663	-0.548
664	-0.586
664	-0.632
665	-0.678
665	-0.731
665	-0.782
666	-0.834
666	-0.89
667	-0.95
667	-1.011
668	-1.08
668	-1.15
669	-1.221
669	-1.29
669	-1.363
670	-1.422
670	-1.434
671	-1.526
671	-1.893
672	-2.15
672	-2.355
672	-2.493
673	-2.591
673	-2.675
674	-2.724
674	-2.743
675	-2.769
675	-2.912
676	-3.118
676	-3.07
676	-2.846
677	-2.642
677	-2.479
678	-2.303
678	-2.006
679	-1.678
679	-1.528
680	-1.432
680	-1.348
680	-1.278
681	-1.235
681	-1.178
682	-1.141
682	-1.106
683	-1.073
683	-1.059
684	-1.041
684	-1.025
684	-1.007
685	-0.985
685	-0.966
686	-0.943
686	-0.929
687	-0.905
687	-0.897
687	-0.878
688	-0.854
688	-0.835
689	-0.815
689	-0.802
690	-0.785
690	-0.774
691	-0.769
691	-0.774
691	-0.79
692	-0.782
692	-0.776
693	-0.772
693	-0.78
694	-0.776
694	-0.771
695	-0.776
695	-0.775
695	-0.759
696	-0.757
696	-0.735
697	-0.738
697	-0.753
698	-0.756
698	-0.747
698	-0.762
699	-0.764
699	-0.764
700	-0.755
700	-0.771
701	-0.77
701	-0.777
702	-0.776
702	-0.764
702	-0.757
703	-0.752
703	-0.741
704	-0.739
704	-0.739
705	-0.753
705	-0.746
705	-0.737
706	-0.737
706	-0.732
707	-0.739
707	-0.733
708	-0.731
708	-0.726
709	-0.729
709	-0.731
709	-0.722
710	-0.732
710	-0.74
711	-0.734
711	-0.735
712	-0.732
712	-0.747
713	-0.746
713	-0.753
713	-0.744
714	-0.739
714	-0.739
715	-0.727
715	-0.713
716	-0.718
716	-0.722
716	-0.717
717	-0.717
717	-0.72
718	-0.711
718	-0.713
719	-0.72
719	-0.723
720	-0.719
720	-0.731
720	-0.725
721	-0.713
721	-0.713
722	-0.701
722	-0.689
723	-0.687
723	-0.692
723	-0.679
724	-0.684
724	-0.689
725	-0.687
725	-0.694
726	-0.706
726	-0.711
727	-0.715
727	-0.73
727	-0.738
728	-0.737
728	-0.744
729	-0.74
729	-0.745
730	-0.752
730	-0.746
730	-0.736
731	-0.72
731	-0.731
732	-0.738
732	-0.74
733	-0.738
733	-0.744
734	-0.738
734	-0.736
734	-0.723
735	-0.721
735	-0.724
736	-0.734
736	-0.72
737	-0.711
737	-0.712
737	-0.722
738	-0.718
738	-0.721
739	-0.72
739	-0.733
740	-0.731
740	-0.731
741	-0.725
741	-0.726
741	-0.728
742	-0.726
742	-0.726
743	-0.731
743	-0.733
744	-0.731
744	-0.72
744	-0.724
745	-0.731
745	-0.725
746	-0.725
746	-0.722
747	-0.724
747	-0.713
748	-0.703
748	-0.71
748	-0.712
749	-0.71
749	-0.709
750	-0.699
750	-0.7
751	-0.705
751	-0.715
751	-0.716
752	-0.72
752	-0.729
753	-0.723
753	-0.719
754	-0.726
754	-0.72
754	-0.735
755	-0.75
755	-0.761
756	-0.749
756	-0.745
757	-0.743
757	-0.736
758	-0.738
758	-0.735
758	-0.737
759	-0.743
759	-0.725
760	-0.717
760	-0.712
761	-0.721
761	-0.719
761	-0.72
762	-0.729
762	-0.73
763	-0.739
763	-0.737
764	-0.736
764	-0.745
764	-0.753
765	-0.742
765	-0.729
766	-0.736
766	-0.74
767	-0.755
767	-0.747
768	-0.739
768	-0.748
768	-0.753
769	-0.768
769	-0.767
770	-0.772
770	-0.787
771	-0.786
771	-0.789
771	-0.79
772	-0.794
772	-0.792
773	-0.79
773	-0.786
774	-0.785
774	-0.786
775	-0.792
775	-0.785
775	-0.791
776	-0.792
776	-0.781
777	-0.791
777	-0.81
778	-0.808
778	-0.827
778	-0.814
779	-0.836
779	-0.842
780	-0.857
780	-0.856
781	-0.867
781	-0.864
781	-0.878
782	-0.88
782	-0.882
783	-0.868
783	-0.868
784	-0.847
784	-0.835
784	-0.842
785	-0.849
785	-0.834
786	-0.839
786	-0.817
787	-0.802
787	-0.805
788	-0.808
788	-0.819
788	-0.831
789	-0.834
789	-0.817
790	-0.798
790	-0.802
791	-0.801
791	-0.819
791	-0.827
792	-0.818
792	-0.796
793	-0.786
793	-0.762
794	-0.766
794	-0.76
794	-0.768
795	-0.764
795	-0.757
796	-0.743
796	-0.747
797	-0.743
797	-0.754
797	-0.76
798	-0.773
798	-0.767
799	-0.777
799	-0.764
800	-0.77
800	-0.762
801	-0.765
801	-0.752
801	-0.763
802	-0.771
802	-0.772
803	-0.774
803	-0.784
804	-0.777
804	-0.787
804	-0.773
805	-0.779
805	-0.77
806	-0.774
806	-0.759
807	-0.756
807	-0.735
807	-0.722
808	-0.714
808	-0.711
809	-0.697
809	-0.706
810	-0.705
810	-0.697
810	-0.693
811	-0.7
811	-0.691
812	-0.695
812	-0.699
813	-0.701
813	-0.696
813	-0.703
814	-0.705
814	-0.708
815	-0.712
815	-0.717
816	-0.71
816	-0.716
817	-0.724
817	-0.743
817	-0.756
818	-0.764
818	-0.765
819	-0.756
819	-0.758
820	-0.767
820	-0.762
820	-0.773
821	-0.772
821	-0.758
822	-0.726
822	-0.702
823	-0.7
823	-0.702
823	-0.699
824	-0.692
824	-0.694
825	-0.687
825	-0.666
826	-0.66
826	-0.669
826	-0.678
827	-0.675
827	-0.672
828	-0.651
828	-0.653
829	-0.645
829	-0.63
829	-0.622
830	-0.631
830	-0.627
831	-0.619
831	-0.61
832	-0.609
832	-0.597
832	-0.608
833	-0.602
833	-0.603
834	-0.603
834	-0.611
835	-0.598
835	-0.592
835	-0.589
836	-0.584
836	-0.58
837	-0.58
837	-0.568
838	-0.561
838	-0.548
839	-0.534
839	-0.523
839	-0.513
840	-0.504
840	-0.5
841	-0.49
841	-0.482
842	-0.476
842	-0.466
842	-0.458
843	-0.452
843	-0.449
844	-0.44
844	-0.434
845	-0.427
845	-0.416
845	-0.403
846	-0.39
846	-0.376
847	-0.366
847	-0.354
848	-0.342
848	-0.33
848	-0.315
849	-0.304
849	-0.292
850	-0.28
850	-0.275
851	-0.269
851	-0.259
851	-0.25
852	-0.237
852	-0.225
853	-0.216
853	-0.211
854	-0.199
854	-0.188
854	-0.176
855	-0.166
855	-0.16
856	-0.15
856	-0.141
857	-0.134
857	-0.126
857	-0.115
858	-0.104
858	-0.098
859	-0.091
859	-0.082
860	-0.073
860	-0.06
860	-0.052
861	-0.044
861	-0.037
862	-0.03
862	-0.024
863	-0.018
863	-0.01
863	-0.005
864	-0.001
864	0.005
865	0.01
865	0.014
866	0.018
866	0.022
866	0.025
867	0.029
867	0.032
868	0.034
868	0.037
869	0.04
869	0.042
869	0.044
870	0.046
870	0.048
871	0.051
871	0.053
872	0.054
872	0.055
872	0.056
873	0.057
873	0.057
874	0.057
874	0.057
875	0.056
875	0.055
875	0.053
876	0.052
876	0.051
877	0.05
877	0.049
878	0.047
878	0.045
878	0.044
879	0.042
879	0.041
880	0.041
880	0.041
881	0.041
881	0.041
881	0.041
882	0.04
882	0.04
883	0.039
883	0.038
884	0.037
884	0.036
884	0.035
885	0.035
885	0.035
886	0.034
886	0.034
887	0.033
887	0.034
887	0.034
888	0.034
888	0.034
889	0.035
889	0.035
890	0.035
890	0.034
890	0.034
891	0.034
891	0.034
892	0.035
892	0.035
893	0.035
893	0.035
893	0.036
894	0.036
894	0.036
895	0.036
895	0.036
895	0.035
896	0.035
896	0.034
897	0.032
897	0.031
898	0.03
898	0.03
898	0.029
899	0.03
899	0.03
900	0.03
900	0.03
901	0.031
901	0.032
901	0.034
902	0.035
902	0.036
903	0.037
903	0.038
904	0.038
904	0.039
904	0.04
905	0.041
905	0.041
906	0.042
906	0.042
907	0.042
907	0.041
907	0.041
908	0.041
908	0.04
909	0.039
909	0.038
910	0.037
910	0.037
910	0.036
911	0.037
911	0.037
912	0.038
912	0.038
913	0.039
913	0.04
913	0.041
914	0.042
914	0.043
915	0.043
915	0.044
916	0.044
916	0.044
916	0.045
917	0.045
917	0.045
918	0.044
918	0.044
918	0.044
919	0.043
919	0.043
920	0.043
920	0.043
921	0.043
921	0.043
921	0.042
922	0.042
922	0.041
923	0.041
923	0.04
924	0.04
924	0.039
924	0.038
925	0.037
925	0.036
926	0.035
926	0.034
927	0.034
927	0.033
927	0.033
928	0.032
928	0.032
929	0.031
929	0.031
930	0.03
930	0.029
930	0.029
931	0.028
931	0.028
932	0.027
932	0.026
933	0.025
933	0.024
933	0.023
934	0.023
934	0.022
935	0.022
935	0.021
935	0.02
936	0.02
936	0.019
937	0.018
937	0.018
938	0.018
938	0.017
938	0.017
939	0.018
939	0.018
940	0.019
940	0.02
941	0.02
941	0.021
941	0.023
942	0.023
942	0.024
943	0.025
943	0.025
944	0.025
944	0.025
944	0.024
945	0.024
945	0.023
946	0.022
946	0.021
946	0.02
947	0.019
947	0.018
948	0.018
948	0.018
949	0.018
949	0.018
949	0.018
950	0.019
950	0.019
951	0.02
951	0.021
952	0.022
952	0.023
952	0.024
953	0.025
953	0.026
954	0.026
954	0.027
955	0.028
955	0.029
955	0.03
956	0.03
956	0.031
957	0.031
957	0.031
957	0.032
958	0.032
958	0.033
959	0.033
959	0.033
960	0.034
960	0.034
960	0.034
961	0.034
961	0.035
962	0.035
962	0.035
963	0.035
963	0.035
963	0.035
964	0.035
964	0.035
965	0.035
965	0.035
966	0.035
966	0.035
966	0.035
967	0.034
967	0.033
968	0.033
968	0.033
968	0.032
969	0.032
969	0.032
970	0.031
970	0.031
971	0.031
971	0.032
971	0.032
972	0.032
972	0.032
973	0.033
973	0.032
974	0.032
974	0.032
974	0.032
975	0.032
975	0.031
976	0.031
976	0.03
976	0.029
977	0.029
977	0.029
978	0.029
978	0.029
979	0.029
979	0.028
979	0.028
980	0.028
980	0.028
981	0.028
981	0.029
982	0.028
982	0.028
982	0.028
983	0.028
983	0.028
984	0.028
984	0.027
984	0.028
985	0.028
985	0.027
986	0.027
986	0.026
987	0.026
987	0.025
987	0.025
988	0.024
988	0.023
989	0.022
989	0.021
990	0.02
990	0.019
990	0.019
991	0.019
991	0.018
992	0.018
992	0.018
992	0.018
993	0.018
993	0.018
994	0.018
994	0.018
995	0.018
995	0.017
995	0.017
996	0.016
996	0.016
997	0.015
997	0.015
997	0.015
998	0.014
998	0.014
999	0.015
999	0.015
1000	0.015
1000	0.015
1000	0.015
1001	0.016
1001	0.016
1002	0.016
1002	0.017
1003	0.016
1003	0.016
1003	0.016
1004	0.016
1004	0.015
1005	0.015
1005	0.014
1005	0.013
1006	0.012
1006	0.011
1007	0.01
1007	0.009
1008	0.009
1008	0.008
1008	0.008
1009	0.008
1009	0.008
1010	0.009
1010	0.009
1010	0.01
1011	0.01
1011	0.01
1012	0.01
1012	0.01
1013	0.01
1013	0.009
1013	0.009
1014	0.009
1014	0.008
1015	0.008
1015	0.007
1016	0.007
1016	0.006
1016	0.006
1017	0.004
1017	0.004
1018	0.003
1018	0.002
1018	0.001
1019	0.001
1019	-0.001
1020	-0.001
1020	-0.002
1021	-0.003
1021	-0.003
1021	-0.004
1022	-0.005
1022	-0.005
1023	-0.006
1023	-0.006
1023	-0.006
1024	-0.006
1024	-0.007
1025	-0.007
1025	-0.007
1026	-0.006
1026	-0.006
1026	-0.006
1027	-0.005
1027	-0.005
1028	-0.005
1028	-0.005
1028	-0.004
1029	-0.004
1029	-0.004
1030	-0.005
1030	-0.005
1031	-0.006
1031	-0.006
1031	-0.006
1032	-0.006
1032	-0.006
1033	-0.006
1033	-0.006
1033	-0.006
1034	-0.005
1034	-0.005
1035	-0.005
1035	-0.005
1036	-0.005
1036	-0.005
1036	-0.005
1037	-0.005
1037	-0.005
1038	-0.005
1038	-0.004
1039	-0.004
1039	-0.004
1039	-0.003
1040	-0.003
1040	-0.002
1041	-0.002
1041	-0.002
1041	-0.001
1042	-0.001
1042	-0.002
1043	-0.002
1043	-0.003
1044	-0.003
1044	-0.004
1044	-0.005
1045	-0.006
1045	-0.006
1046	-0.007
1046	-0.008
1046	-0.009
1047	-0.009
1047	-0.009
1048	-0.009
1048	-0.009
1049	-0.009
1049	-0.009
1049	-0.009
1050	-0.008
1050	-0.008
1051	-0.008
1051	-0.008
1051	-0.007
1052	-0.007
1052	-0.007
1053	-0.007
1053	-0.007
1053	-0.006
1054	-0.006
1054	-0.006
1055	-0.006
1055	-0.007
1056	-0.007
1056	-0.008
1056	-0.009
1057	-0.01
1057	-0.01
1058	-0.01
1058	-0.011
1058	-0.012
1059	-0.012
1059	-0.013
1060	-0.014
1060	-0.014
1061	-0.015
1061	-0.015
1061	-0.015
1062	-0.016
1062	-0.016
1063	-0.016
1063	-0.016
1063	-0.016
1064	-0.015
1064	-0.015
1065	-0.015
1065	-0.015
1066	-0.016
1066	-0.015
1066	-0.015
1067	-0.014
1067	-0.014
1068	-0.015
1068	-0.015
1068	-0.016
1069	-0.016
1069	-0.016
1070	-0.017
1070	-0.017
1071	-0.018
1071	-0.019
1071	-0.02
1072	-0.02
1072	-0.021
1073	-0.022
1073	-0.022
1073	-0.023
1074	-0.023
1074	-0.023
1075	-0.024
1075	-0.024
1076	-0.024
1076	-0.024
1076	-0.025
1077	-0.025
1077	-0.025
1078	-0.026
1078	-0.026
1078	-0.027
1079	-0.028
1079	-0.028
1080	-0.029
1080	-0.029
1080	-0.03
1081	-0.03
1081	-0.031
1082	-0.031
1082	-0.032
1083	-0.033
1083	-0.033
1083	-0.034
1084	-0.035
1084	-0.035
1085	-0.036
1085	-0.037
1085	-0.038
1086	-0.038
1086	-0.039
1087	-0.038
1087	-0.038
1088	-0.039
1088	-0.04
1088	-0.04
1089	-0.041
1089	-0.041
1090	-0.043
1090	-0.043
1090	-0.045
1091	-0.045
1091	-0.046
1092	-0.047
1092	-0.047
1092	-0.048
1093	-0.049
1093	-0.048
1094	-0.049
1094	-0.05
1095	-0.051
1095	-0.051
1095	-0.052
1096	-0.053
1096	-0.053
1097	-0.054
1097	-0.054
1097	-0.054
1098	-0.056
1098	-0.058
1099	-0.058
1099	-0.059
1100	-0.06
1100	-0.062
1100	-0.063
1101	-0.066
1101	-0.069
1102	-0.071
1102	-0.073
1102	-0.074
1103	-0.076
1103	-0.078
1104	-0.08
1104	-0.082
1104	-0.083
1105	-0.086
1105	-0.089
1106	-0.093
1106	-0.095
1107	-0.1
1107	-0.105
1107	-0.109
1108	-0.111
1108	-0.114
1109	-0.118
1109	-0.123
1109	-0.126
1110	-0.127
1110	-0.127
1111	-0.134
1111	-0.131
