Data from 17C_3.4A_35min_2sec_int_Absorbance__305__04390.txt Node

Date: Mon Jun 19 19:53:54 CEST 2023
User: Marek
Spectrometer: MAYP115816
Trigger mode: 0
Integration Time (sec): 2.500000E-1
Scans to average: 10
Electric dark correction enabled: true
Nonlinearity correction enabled: true
Boxcar width: 5
XAxis mode: Wavelengths
Number of Pixels in Spectrum: 2068
>>>>>Begin Spectral Data<<<<<
199	-0.758
199	-0.77
200	-0.671
200	-0.616
201	-0.58
201	-0.568
202	-0.553
202	-0.537
203	-0.528
203	-0.522
204	-0.506
204	-0.491
205	-0.467
205	-0.462
205	-0.46
206	-0.464
206	-0.465
207	-0.455
207	-0.458
208	-0.459
208	-0.459
209	-0.456
209	-0.456
210	-0.46
210	-0.468
211	-0.47
211	-0.469
212	-0.475
212	-0.483
213	-0.482
213	-0.482
213	-0.486
214	-0.483
214	-0.482
215	-0.482
215	-0.487
216	-0.49
216	-0.499
217	-0.49
217	-0.497
218	-0.5
218	-0.501
219	-0.506
219	-0.515
220	-0.521
220	-0.53
221	-0.528
221	-0.531
221	-0.523
222	-0.52
222	-0.519
223	-0.52
223	-0.524
224	-0.528
224	-0.528
225	-0.524
225	-0.518
226	-0.522
226	-0.521
227	-0.529
227	-0.538
228	-0.539
228	-0.541
229	-0.542
229	-0.536
229	-0.53
230	-0.535
230	-0.539
231	-0.534
231	-0.526
232	-0.519
232	-0.518
233	-0.512
233	-0.511
234	-0.511
234	-0.507
235	-0.51
235	-0.517
236	-0.514
236	-0.519
236	-0.527
237	-0.534
237	-0.535
238	-0.543
238	-0.543
239	-0.542
239	-0.552
240	-0.552
240	-0.547
241	-0.553
241	-0.549
242	-0.554
242	-0.55
243	-0.545
243	-0.549
243	-0.557
244	-0.557
244	-0.554
245	-0.568
245	-0.566
246	-0.573
246	-0.581
247	-0.581
247	-0.585
248	-0.592
248	-0.588
249	-0.592
249	-0.599
250	-0.597
250	-0.593
250	-0.593
251	-0.587
251	-0.587
252	-0.59
252	-0.58
253	-0.585
253	-0.598
254	-0.595
254	-0.595
255	-0.605
255	-0.599
256	-0.598
256	-0.607
257	-0.603
257	-0.6
258	-0.617
258	-0.616
258	-0.61
259	-0.607
259	-0.614
260	-0.613
260	-0.618
261	-0.629
261	-0.623
262	-0.619
262	-0.619
263	-0.607
263	-0.599
264	-0.6
264	-0.607
265	-0.601
265	-0.609
265	-0.612
266	-0.61
266	-0.608
267	-0.622
267	-0.631
268	-0.648
268	-0.657
269	-0.654
269	-0.65
270	-0.656
270	-0.659
271	-0.657
271	-0.662
272	-0.664
272	-0.659
272	-0.649
273	-0.645
273	-0.652
274	-0.658
274	-0.66
275	-0.659
275	-0.652
276	-0.661
276	-0.652
277	-0.658
277	-0.676
278	-0.687
278	-0.681
278	-0.676
279	-0.679
279	-0.691
280	-0.69
280	-0.69
281	-0.683
281	-0.691
282	-0.683
282	-0.684
283	-0.675
283	-0.679
284	-0.674
284	-0.663
285	-0.659
285	-0.658
285	-0.656
286	-0.662
286	-0.657
287	-0.653
287	-0.636
288	-0.628
288	-0.637
289	-0.65
289	-0.657
290	-0.644
290	-0.642
291	-0.639
291	-0.631
292	-0.633
292	-0.641
292	-0.646
293	-0.651
293	-0.639
294	-0.629
294	-0.621
295	-0.619
295	-0.616
296	-0.611
296	-0.609
297	-0.601
297	-0.586
298	-0.578
298	-0.588
298	-0.577
299	-0.569
299	-0.571
300	-0.566
300	-0.561
301	-0.558
301	-0.558
302	-0.565
302	-0.572
303	-0.561
303	-0.546
304	-0.548
304	-0.546
305	-0.548
305	-0.548
305	-0.546
306	-0.532
306	-0.527
307	-0.516
307	-0.517
308	-0.529
308	-0.527
309	-0.528
309	-0.518
310	-0.504
310	-0.5
311	-0.493
311	-0.499
311	-0.495
312	-0.49
312	-0.488
313	-0.473
313	-0.474
314	-0.473
314	-0.475
315	-0.478
315	-0.477
316	-0.472
316	-0.464
317	-0.456
317	-0.451
318	-0.44
318	-0.439
318	-0.435
319	-0.423
319	-0.418
320	-0.41
320	-0.41
321	-0.415
321	-0.414
322	-0.407
322	-0.402
323	-0.403
323	-0.396
324	-0.387
324	-0.378
324	-0.368
325	-0.358
325	-0.338
326	-0.322
326	-0.303
327	-0.287
327	-0.265
328	-0.236
328	-0.213
329	-0.188
329	-0.163
330	-0.132
330	-0.096
330	-0.067
331	-0.035
331	-0.004
332	0.026
332	0.053
333	0.08
333	0.11
334	0.136
334	0.156
335	0.178
335	0.195
336	0.213
336	0.23
336	0.242
337	0.257
337	0.269
338	0.279
338	0.286
339	0.296
339	0.304
340	0.31
340	0.316
341	0.321
341	0.326
342	0.33
342	0.334
342	0.338
343	0.341
343	0.345
344	0.347
344	0.348
345	0.35
345	0.351
346	0.353
346	0.353
347	0.355
347	0.356
348	0.356
348	0.357
348	0.358
349	0.358
349	0.359
350	0.359
350	0.359
351	0.36
351	0.36
352	0.36
352	0.36
353	0.36
353	0.359
354	0.359
354	0.359
354	0.359
355	0.358
355	0.358
356	0.358
356	0.358
357	0.356
357	0.356
358	0.355
358	0.355
359	0.355
359	0.355
360	0.354
360	0.355
360	0.354
361	0.354
361	0.354
362	0.354
362	0.354
363	0.354
363	0.354
364	0.353
364	0.353
365	0.353
365	0.352
366	0.352
366	0.352
366	0.352
367	0.352
367	0.351
368	0.351
368	0.351
369	0.351
369	0.35
370	0.35
370	0.35
371	0.349
371	0.349
372	0.349
372	0.348
372	0.348
373	0.348
373	0.348
374	0.347
374	0.347
375	0.347
375	0.347
376	0.347
376	0.346
377	0.346
377	0.345
378	0.345
378	0.345
378	0.344
379	0.344
379	0.344
380	0.343
380	0.343
381	0.342
381	0.342
382	0.342
382	0.341
383	0.341
383	0.341
383	0.34
384	0.34
384	0.34
385	0.339
385	0.339
386	0.339
386	0.339
387	0.338
387	0.338
388	0.338
388	0.338
389	0.337
389	0.337
389	0.337
390	0.337
390	0.336
391	0.336
391	0.336
392	0.335
392	0.335
393	0.334
393	0.334
394	0.333
394	0.333
394	0.332
395	0.332
395	0.331
396	0.331
396	0.331
397	0.33
397	0.33
398	0.33
398	0.33
399	0.33
399	0.33
400	0.329
400	0.329
400	0.329
401	0.329
401	0.328
402	0.328
402	0.328
403	0.327
403	0.327
404	0.327
404	0.326
405	0.326
405	0.326
405	0.326
406	0.325
406	0.325
407	0.324
407	0.324
408	0.324
408	0.323
409	0.323
409	0.323
410	0.323
410	0.322
411	0.322
411	0.322
411	0.322
412	0.322
412	0.321
413	0.321
413	0.321
414	0.321
414	0.32
415	0.32
415	0.32
416	0.32
416	0.319
416	0.319
417	0.319
417	0.319
418	0.319
418	0.319
419	0.319
419	0.319
420	0.319
420	0.319
421	0.319
421	0.319
421	0.319
422	0.319
422	0.319
423	0.318
423	0.318
424	0.317
424	0.317
425	0.317
425	0.316
426	0.316
426	0.315
427	0.315
427	0.315
427	0.315
428	0.315
428	0.314
429	0.314
429	0.314
430	0.314
430	0.314
431	0.314
431	0.313
432	0.313
432	0.313
432	0.313
433	0.312
433	0.312
434	0.312
434	0.312
435	0.312
435	0.312
436	0.312
436	0.312
437	0.312
437	0.312
437	0.312
438	0.312
438	0.312
439	0.312
439	0.312
440	0.312
440	0.312
441	0.312
441	0.312
442	0.311
442	0.311
442	0.311
443	0.311
443	0.311
444	0.311
444	0.311
445	0.311
445	0.311
446	0.312
446	0.312
447	0.312
447	0.312
447	0.312
448	0.313
448	0.313
449	0.313
449	0.313
450	0.313
450	0.313
451	0.313
451	0.313
452	0.313
452	0.314
452	0.314
453	0.314
453	0.313
454	0.313
454	0.313
455	0.313
455	0.313
456	0.314
456	0.314
457	0.314
457	0.314
458	0.314
458	0.314
458	0.315
459	0.315
459	0.315
460	0.315
460	0.315
461	0.315
461	0.315
462	0.316
462	0.316
463	0.316
463	0.317
463	0.317
464	0.317
464	0.318
465	0.318
465	0.318
466	0.319
466	0.319
467	0.32
467	0.32
467	0.32
468	0.321
468	0.321
469	0.322
469	0.323
470	0.323
470	0.324
471	0.324
471	0.325
472	0.326
472	0.326
472	0.327
473	0.328
473	0.329
474	0.329
474	0.33
475	0.331
475	0.332
476	0.333
476	0.333
477	0.334
477	0.335
477	0.336
478	0.337
478	0.338
479	0.339
479	0.34
480	0.341
480	0.342
481	0.343
481	0.344
482	0.346
482	0.347
482	0.348
483	0.349
483	0.351
484	0.352
484	0.352
485	0.354
485	0.355
486	0.356
486	0.357
487	0.359
487	0.36
487	0.362
488	0.364
488	0.365
489	0.368
489	0.37
490	0.372
490	0.374
491	0.376
491	0.378
492	0.38
492	0.382
492	0.385
493	0.387
493	0.389
494	0.391
494	0.394
495	0.396
495	0.398
496	0.401
496	0.403
496	0.406
497	0.409
497	0.411
498	0.413
498	0.416
499	0.419
499	0.421
500	0.425
500	0.428
501	0.43
501	0.433
501	0.435
502	0.438
502	0.441
503	0.444
503	0.447
504	0.45
504	0.453
505	0.456
505	0.458
506	0.462
506	0.464
506	0.467
507	0.469
507	0.472
508	0.475
508	0.478
509	0.481
509	0.484
510	0.487
510	0.49
511	0.493
511	0.496
511	0.499
512	0.503
512	0.505
513	0.508
513	0.511
514	0.514
514	0.517
515	0.519
515	0.521
515	0.524
516	0.526
516	0.529
517	0.532
517	0.534
518	0.536
518	0.538
519	0.54
519	0.541
520	0.544
520	0.546
520	0.548
521	0.55
521	0.552
522	0.553
522	0.555
523	0.557
523	0.559
524	0.56
524	0.561
524	0.562
525	0.563
525	0.563
526	0.564
526	0.564
527	0.565
527	0.565
528	0.565
528	0.565
529	0.566
529	0.566
529	0.567
530	0.567
530	0.567
531	0.567
531	0.566
532	0.565
532	0.565
533	0.564
533	0.563
533	0.562
534	0.56
534	0.559
535	0.557
535	0.556
536	0.554
536	0.552
537	0.55
537	0.548
538	0.547
538	0.545
538	0.543
539	0.541
539	0.54
540	0.538
540	0.535
541	0.533
541	0.531
542	0.529
542	0.527
542	0.524
543	0.521
543	0.518
544	0.515
544	0.513
545	0.51
545	0.508
546	0.505
546	0.502
547	0.498
547	0.495
547	0.493
548	0.49
548	0.487
549	0.484
549	0.482
550	0.479
550	0.476
551	0.473
551	0.47
551	0.468
552	0.465
552	0.463
553	0.46
553	0.457
554	0.454
554	0.451
555	0.448
555	0.445
556	0.442
556	0.438
556	0.435
557	0.432
557	0.429
558	0.425
558	0.422
559	0.418
559	0.414
560	0.411
560	0.408
560	0.405
561	0.402
561	0.399
562	0.396
562	0.393
563	0.39
563	0.387
564	0.384
564	0.382
564	0.38
565	0.377
565	0.375
566	0.372
566	0.37
567	0.367
567	0.365
568	0.362
568	0.359
568	0.356
569	0.353
569	0.35
570	0.346
570	0.342
571	0.34
571	0.338
572	0.335
572	0.332
573	0.33
573	0.327
573	0.324
574	0.323
574	0.32
575	0.318
575	0.317
576	0.315
576	0.312
577	0.309
577	0.308
577	0.306
578	0.305
578	0.304
579	0.303
579	0.301
580	0.298
580	0.295
581	0.293
581	0.291
581	0.29
582	0.289
582	0.287
583	0.286
583	0.283
584	0.28
584	0.278
585	0.277
585	0.276
585	0.274
586	0.273
586	0.271
587	0.269
587	0.267
588	0.265
588	0.264
589	0.262
589	0.261
590	0.26
590	0.258
590	0.258
591	0.256
591	0.253
592	0.251
592	0.249
593	0.248
593	0.246
594	0.245
594	0.244
594	0.242
595	0.242
595	0.24
596	0.239
596	0.239
597	0.239
597	0.238
598	0.236
598	0.235
598	0.234
599	0.233
599	0.231
600	0.229
600	0.227
601	0.226
601	0.224
602	0.222
602	0.221
602	0.219
603	0.219
603	0.218
604	0.218
604	0.217
605	0.217
605	0.216
606	0.215
606	0.213
606	0.212
607	0.211
607	0.21
608	0.208
608	0.206
609	0.205
609	0.204
610	0.203
610	0.202
610	0.201
611	0.201
611	0.201
612	0.202
612	0.202
613	0.202
613	0.201
614	0.2
614	0.198
614	0.197
615	0.195
615	0.194
616	0.193
616	0.191
617	0.189
617	0.187
618	0.186
618	0.184
618	0.183
619	0.183
619	0.182
620	0.182
620	0.181
621	0.18
621	0.179
622	0.178
622	0.178
622	0.176
623	0.175
623	0.175
624	0.174
624	0.173
625	0.172
625	0.171
626	0.17
626	0.169
626	0.169
627	0.168
627	0.167
628	0.166
628	0.165
629	0.164
629	0.162
630	0.16
630	0.158
630	0.157
631	0.155
631	0.153
632	0.151
632	0.149
633	0.147
633	0.144
634	0.142
634	0.14
634	0.138
635	0.135
635	0.132
636	0.13
636	0.127
637	0.124
637	0.121
638	0.117
638	0.114
638	0.11
639	0.106
639	0.102
640	0.098
640	0.094
641	0.091
641	0.087
642	0.083
642	0.078
642	0.074
643	0.07
643	0.065
644	0.059
644	0.054
645	0.049
645	0.043
646	0.038
646	0.032
646	0.027
647	0.021
647	0.016
648	0.01
648	0.004
649	-0.002
649	-0.008
650	-0.013
650	-0.019
650	-0.027
651	-0.035
651	-0.045
652	-0.058
652	-0.07
653	-0.08
653	-0.09
653	-0.087
654	-0.072
654	-0.065
655	-0.069
655	-0.073
656	-0.078
656	-0.083
657	-0.086
657	-0.089
657	-0.095
658	-0.1
658	-0.125
659	-0.193
659	-0.273
660	-0.31
660	-0.332
661	-0.357
661	-0.382
661	-0.411
662	-0.437
662	-0.467
663	-0.5
663	-0.537
664	-0.574
664	-0.62
665	-0.663
665	-0.716
665	-0.765
666	-0.816
666	-0.872
667	-0.932
667	-0.992
668	-1.059
668	-1.128
669	-1.198
669	-1.267
669	-1.341
670	-1.402
670	-1.43
671	-1.56
671	-1.909
672	-2.16
672	-2.362
672	-2.499
673	-2.596
673	-2.68
674	-2.718
674	-2.736
675	-2.762
675	-2.903
676	-3.105
676	-3.054
676	-2.826
677	-2.617
677	-2.446
678	-2.252
678	-1.898
679	-1.605
679	-1.47
680	-1.38
680	-1.299
680	-1.233
681	-1.192
681	-1.137
682	-1.103
682	-1.069
683	-1.038
683	-1.027
684	-1.01
684	-0.995
684	-0.977
685	-0.958
685	-0.939
686	-0.918
686	-0.906
687	-0.883
687	-0.875
687	-0.859
688	-0.835
688	-0.819
689	-0.801
689	-0.789
690	-0.771
690	-0.76
691	-0.754
691	-0.76
691	-0.776
692	-0.769
692	-0.762
693	-0.759
693	-0.767
694	-0.763
694	-0.757
695	-0.765
695	-0.765
695	-0.751
696	-0.751
696	-0.73
697	-0.733
697	-0.749
698	-0.754
698	-0.744
698	-0.761
699	-0.764
699	-0.762
700	-0.755
700	-0.77
701	-0.769
701	-0.776
702	-0.774
702	-0.764
702	-0.756
703	-0.751
703	-0.741
704	-0.739
704	-0.738
705	-0.748
705	-0.742
705	-0.729
706	-0.73
706	-0.726
707	-0.73
707	-0.726
708	-0.723
708	-0.716
709	-0.719
709	-0.723
709	-0.714
710	-0.725
710	-0.735
711	-0.726
711	-0.727
712	-0.726
712	-0.741
713	-0.742
713	-0.751
713	-0.742
714	-0.738
714	-0.741
715	-0.73
715	-0.717
716	-0.725
716	-0.725
716	-0.719
717	-0.719
717	-0.72
718	-0.709
718	-0.708
719	-0.714
719	-0.716
720	-0.711
720	-0.722
720	-0.715
721	-0.705
721	-0.703
722	-0.691
722	-0.681
723	-0.678
723	-0.684
723	-0.674
724	-0.675
724	-0.678
725	-0.677
725	-0.688
726	-0.703
726	-0.709
727	-0.714
727	-0.728
727	-0.738
728	-0.739
728	-0.744
729	-0.743
729	-0.75
730	-0.756
730	-0.749
730	-0.739
731	-0.724
731	-0.734
732	-0.74
732	-0.741
733	-0.739
733	-0.745
734	-0.741
734	-0.74
734	-0.728
735	-0.727
735	-0.728
736	-0.74
736	-0.726
737	-0.718
737	-0.716
737	-0.726
738	-0.721
738	-0.72
739	-0.717
739	-0.731
740	-0.731
740	-0.73
741	-0.725
741	-0.726
741	-0.729
742	-0.728
742	-0.729
743	-0.736
743	-0.743
744	-0.74
744	-0.729
744	-0.73
745	-0.738
745	-0.729
746	-0.729
746	-0.727
747	-0.728
747	-0.714
748	-0.702
748	-0.706
748	-0.709
749	-0.706
749	-0.707
750	-0.693
750	-0.697
751	-0.699
751	-0.708
751	-0.712
752	-0.716
752	-0.725
753	-0.72
753	-0.715
754	-0.72
754	-0.714
754	-0.73
755	-0.744
755	-0.756
756	-0.744
756	-0.74
757	-0.737
757	-0.732
758	-0.736
758	-0.733
758	-0.737
759	-0.743
759	-0.725
760	-0.719
760	-0.713
761	-0.724
761	-0.72
761	-0.722
762	-0.729
762	-0.728
763	-0.736
763	-0.732
764	-0.732
764	-0.741
764	-0.748
765	-0.738
765	-0.726
766	-0.734
766	-0.742
767	-0.758
767	-0.752
768	-0.744
768	-0.754
768	-0.757
769	-0.775
769	-0.774
770	-0.78
770	-0.793
771	-0.791
771	-0.793
771	-0.792
772	-0.795
772	-0.794
773	-0.794
773	-0.789
774	-0.788
774	-0.789
775	-0.791
775	-0.785
775	-0.792
776	-0.791
776	-0.781
777	-0.789
777	-0.808
778	-0.804
778	-0.824
778	-0.809
779	-0.831
779	-0.838
780	-0.853
780	-0.853
781	-0.866
781	-0.861
781	-0.876
782	-0.877
782	-0.879
783	-0.866
783	-0.865
784	-0.847
784	-0.837
784	-0.845
785	-0.849
785	-0.833
786	-0.841
786	-0.821
787	-0.806
787	-0.809
788	-0.812
788	-0.821
788	-0.832
789	-0.836
789	-0.819
790	-0.8
790	-0.802
791	-0.803
791	-0.819
791	-0.825
792	-0.819
792	-0.795
793	-0.784
793	-0.759
794	-0.76
794	-0.752
794	-0.761
795	-0.757
795	-0.748
796	-0.731
796	-0.741
797	-0.735
797	-0.747
797	-0.756
798	-0.77
798	-0.765
799	-0.775
799	-0.76
800	-0.767
800	-0.758
801	-0.765
801	-0.749
801	-0.758
802	-0.766
802	-0.766
803	-0.767
803	-0.777
804	-0.773
804	-0.786
804	-0.773
805	-0.782
805	-0.769
806	-0.772
806	-0.756
807	-0.755
807	-0.737
807	-0.722
808	-0.715
808	-0.708
809	-0.692
809	-0.699
810	-0.695
810	-0.689
810	-0.687
811	-0.693
811	-0.686
812	-0.688
812	-0.694
813	-0.697
813	-0.694
813	-0.699
814	-0.701
814	-0.703
815	-0.71
815	-0.712
816	-0.705
816	-0.709
817	-0.716
817	-0.733
817	-0.748
818	-0.755
818	-0.756
819	-0.748
819	-0.752
820	-0.76
820	-0.756
820	-0.77
821	-0.767
821	-0.755
822	-0.723
822	-0.7
823	-0.699
823	-0.704
823	-0.702
824	-0.697
824	-0.698
825	-0.694
825	-0.672
826	-0.669
826	-0.676
826	-0.686
827	-0.681
827	-0.675
828	-0.654
828	-0.654
829	-0.644
829	-0.631
829	-0.621
830	-0.631
830	-0.627
831	-0.619
831	-0.61
832	-0.607
832	-0.601
832	-0.611
833	-0.605
833	-0.608
834	-0.606
834	-0.614
835	-0.602
835	-0.597
835	-0.593
836	-0.592
836	-0.588
837	-0.587
837	-0.576
838	-0.567
838	-0.553
839	-0.54
839	-0.529
839	-0.521
840	-0.511
840	-0.506
841	-0.494
841	-0.486
842	-0.48
842	-0.471
842	-0.464
843	-0.457
843	-0.453
844	-0.442
844	-0.433
845	-0.424
845	-0.415
845	-0.402
846	-0.392
846	-0.378
847	-0.366
847	-0.356
848	-0.346
848	-0.335
848	-0.321
849	-0.312
849	-0.301
850	-0.288
850	-0.282
851	-0.273
851	-0.263
851	-0.255
852	-0.24
852	-0.228
853	-0.218
853	-0.212
854	-0.201
854	-0.189
854	-0.179
855	-0.168
855	-0.162
856	-0.152
856	-0.144
857	-0.138
857	-0.131
857	-0.121
858	-0.111
858	-0.105
859	-0.097
859	-0.088
860	-0.08
860	-0.069
860	-0.061
861	-0.052
861	-0.045
862	-0.038
862	-0.032
863	-0.026
863	-0.017
863	-0.013
864	-0.008
864	-0.002
865	0.003
865	0.007
866	0.011
866	0.014
866	0.018
867	0.021
867	0.024
868	0.026
868	0.029
869	0.032
869	0.034
869	0.036
870	0.038
870	0.041
871	0.043
871	0.045
872	0.046
872	0.047
872	0.048
873	0.049
873	0.049
874	0.048
874	0.048
875	0.047
875	0.046
875	0.044
876	0.043
876	0.042
877	0.04
877	0.039
878	0.037
878	0.035
878	0.033
879	0.032
879	0.031
880	0.03
880	0.03
881	0.029
881	0.029
881	0.029
882	0.029
882	0.028
883	0.027
883	0.026
884	0.026
884	0.026
884	0.025
885	0.025
885	0.025
886	0.025
886	0.024
887	0.024
887	0.024
887	0.024
888	0.025
888	0.025
889	0.025
889	0.026
890	0.026
890	0.026
890	0.026
891	0.025
891	0.025
892	0.025
892	0.026
893	0.025
893	0.026
893	0.026
894	0.025
894	0.025
895	0.025
895	0.024
895	0.025
896	0.024
896	0.023
897	0.022
897	0.021
898	0.02
898	0.019
898	0.019
899	0.019
899	0.019
900	0.02
900	0.02
901	0.021
901	0.022
901	0.023
902	0.025
902	0.026
903	0.027
903	0.028
904	0.029
904	0.029
904	0.03
905	0.031
905	0.031
906	0.032
906	0.032
907	0.032
907	0.032
907	0.032
908	0.032
908	0.032
909	0.032
909	0.031
910	0.03
910	0.03
910	0.03
911	0.03
911	0.031
912	0.031
912	0.032
913	0.032
913	0.033
913	0.033
914	0.034
914	0.034
915	0.034
915	0.034
916	0.033
916	0.033
916	0.033
917	0.032
917	0.032
918	0.031
918	0.03
918	0.03
919	0.029
919	0.029
920	0.029
920	0.029
921	0.029
921	0.029
921	0.029
922	0.029
922	0.029
923	0.029
923	0.029
924	0.029
924	0.029
924	0.028
925	0.028
925	0.027
926	0.027
926	0.026
927	0.025
927	0.025
927	0.024
928	0.024
928	0.024
929	0.023
929	0.023
930	0.023
930	0.022
930	0.021
931	0.021
931	0.02
932	0.02
932	0.019
933	0.018
933	0.017
933	0.016
934	0.015
934	0.014
935	0.013
935	0.012
935	0.011
936	0.01
936	0.009
937	0.008
937	0.007
938	0.007
938	0.007
938	0.008
939	0.008
939	0.009
940	0.009
940	0.01
941	0.011
941	0.011
941	0.013
942	0.013
942	0.014
943	0.014
943	0.014
944	0.014
944	0.013
944	0.013
945	0.013
945	0.012
946	0.011
946	0.01
946	0.009
947	0.008
947	0.008
948	0.008
948	0.008
949	0.007
949	0.008
949	0.008
950	0.01
950	0.01
951	0.011
951	0.012
952	0.013
952	0.014
952	0.015
953	0.016
953	0.017
954	0.018
954	0.018
955	0.019
955	0.021
955	0.021
956	0.022
956	0.023
957	0.023
957	0.024
957	0.024
958	0.025
958	0.026
959	0.026
959	0.026
960	0.026
960	0.027
960	0.027
961	0.027
961	0.027
962	0.027
962	0.027
963	0.027
963	0.027
963	0.027
964	0.027
964	0.027
965	0.027
965	0.027
966	0.027
966	0.027
966	0.027
967	0.027
967	0.026
968	0.026
968	0.025
968	0.025
969	0.024
969	0.024
970	0.023
970	0.023
971	0.023
971	0.023
971	0.023
972	0.024
972	0.024
973	0.025
973	0.024
974	0.025
974	0.025
974	0.026
975	0.026
975	0.026
976	0.025
976	0.025
976	0.025
977	0.025
977	0.025
978	0.026
978	0.026
979	0.026
979	0.026
979	0.025
980	0.025
980	0.025
981	0.025
981	0.025
982	0.024
982	0.024
982	0.023
983	0.023
983	0.023
984	0.022
984	0.022
984	0.022
985	0.022
985	0.022
986	0.021
986	0.02
987	0.02
987	0.02
987	0.019
988	0.018
988	0.017
989	0.016
989	0.015
990	0.014
990	0.013
990	0.013
991	0.012
991	0.012
992	0.011
992	0.011
992	0.011
993	0.011
993	0.011
994	0.011
994	0.011
995	0.011
995	0.01
995	0.01
996	0.01
996	0.009
997	0.009
997	0.009
997	0.008
998	0.008
998	0.008
999	0.009
999	0.009
1000	0.01
1000	0.01
1000	0.01
1001	0.011
1001	0.011
1002	0.011
1002	0.011
1003	0.011
1003	0.011
1003	0.01
1004	0.01
1004	0.009
1005	0.009
1005	0.008
1005	0.007
1006	0.006
1006	0.005
1007	0.004
1007	0.003
1008	0.002
1008	0.002
1008	0.002
1009	0.002
1009	0.002
1010	0.002
1010	0.002
1010	0.003
1011	0.003
1011	0.003
1012	0.003
1012	0.003
1013	0.003
1013	0.002
1013	0.002
1014	0.001
1014	0.001
1015	0.001
1015	0
1016	-0.001
1016	-0.001
1016	-0.002
1017	-0.003
1017	-0.004
1018	-0.005
1018	-0.006
1018	-0.007
1019	-0.007
1019	-0.008
1020	-0.009
1020	-0.01
1021	-0.01
1021	-0.011
1021	-0.012
1022	-0.012
1022	-0.013
1023	-0.013
1023	-0.013
1023	-0.014
1024	-0.014
1024	-0.014
1025	-0.014
1025	-0.014
1026	-0.013
1026	-0.013
1026	-0.012
1027	-0.012
1027	-0.011
1028	-0.011
1028	-0.011
1028	-0.011
1029	-0.011
1029	-0.011
1030	-0.011
1030	-0.012
1031	-0.012
1031	-0.012
1031	-0.013
1032	-0.013
1032	-0.014
1033	-0.014
1033	-0.014
1033	-0.014
1034	-0.014
1034	-0.013
1035	-0.013
1035	-0.013
1036	-0.013
1036	-0.013
1036	-0.013
1037	-0.013
1037	-0.012
1038	-0.012
1038	-0.012
1039	-0.011
1039	-0.01
1039	-0.01
1040	-0.009
1040	-0.008
1041	-0.008
1041	-0.008
1041	-0.007
1042	-0.007
1042	-0.008
1043	-0.008
1043	-0.008
1044	-0.009
1044	-0.009
1044	-0.01
1045	-0.011
1045	-0.012
1046	-0.012
1046	-0.013
1046	-0.013
1047	-0.013
1047	-0.013
1048	-0.013
1048	-0.013
1049	-0.013
1049	-0.013
1049	-0.013
1050	-0.013
1050	-0.013
1051	-0.013
1051	-0.013
1051	-0.012
1052	-0.012
1052	-0.012
1053	-0.012
1053	-0.013
1053	-0.013
1054	-0.013
1054	-0.013
1055	-0.013
1055	-0.013
1056	-0.014
1056	-0.015
1056	-0.016
1057	-0.017
1057	-0.017
1058	-0.017
1058	-0.018
1058	-0.019
1059	-0.019
1059	-0.02
1060	-0.021
1060	-0.021
1061	-0.022
1061	-0.022
1061	-0.022
1062	-0.022
1062	-0.023
1063	-0.023
1063	-0.023
1063	-0.022
1064	-0.022
1064	-0.022
1065	-0.021
1065	-0.022
1066	-0.021
1066	-0.021
1066	-0.021
1067	-0.02
1067	-0.02
1068	-0.021
1068	-0.021
1068	-0.022
1069	-0.022
1069	-0.022
1070	-0.023
1070	-0.023
1071	-0.024
1071	-0.024
1071	-0.025
1072	-0.025
1072	-0.025
1073	-0.026
1073	-0.026
1073	-0.027
1074	-0.026
1074	-0.026
1075	-0.026
1075	-0.026
1076	-0.027
1076	-0.027
1076	-0.028
1077	-0.028
1077	-0.029
1078	-0.03
1078	-0.03
1078	-0.031
1079	-0.032
1079	-0.033
1080	-0.034
1080	-0.034
1080	-0.035
1081	-0.035
1081	-0.036
1082	-0.036
1082	-0.037
1083	-0.037
1083	-0.038
1083	-0.039
1084	-0.04
1084	-0.04
1085	-0.041
1085	-0.042
1085	-0.042
1086	-0.042
1086	-0.043
1087	-0.043
1087	-0.043
1088	-0.043
1088	-0.044
1088	-0.045
1089	-0.046
1089	-0.046
1090	-0.048
1090	-0.048
1090	-0.049
1091	-0.05
1091	-0.051
1092	-0.053
1092	-0.053
1092	-0.054
1093	-0.055
1093	-0.055
1094	-0.055
1094	-0.056
1095	-0.058
1095	-0.058
1095	-0.058
1096	-0.059
1096	-0.06
1097	-0.061
1097	-0.062
1097	-0.062
1098	-0.064
1098	-0.065
1099	-0.066
1099	-0.066
1100	-0.068
1100	-0.069
1100	-0.072
1101	-0.074
1101	-0.077
1102	-0.078
1102	-0.081
1102	-0.081
1103	-0.083
1103	-0.085
1104	-0.087
1104	-0.089
1104	-0.091
1105	-0.092
1105	-0.094
1106	-0.098
1106	-0.1
1107	-0.104
1107	-0.109
1107	-0.113
1108	-0.115
1108	-0.117
1109	-0.12
1109	-0.124
1109	-0.128
1110	-0.129
1110	-0.132
1111	-0.138
1111	-0.137
