Data from 17C_3.4A_35min_2sec_int_Absorbance__189__04274.txt Node

Date: Mon Jun 19 19:49:04 CEST 2023
User: Marek
Spectrometer: MAYP115816
Trigger mode: 0
Integration Time (sec): 2.500000E-1
Scans to average: 10
Electric dark correction enabled: true
Nonlinearity correction enabled: true
Boxcar width: 5
XAxis mode: Wavelengths
Number of Pixels in Spectrum: 2068
>>>>>Begin Spectral Data<<<<<
199	-0.771
199	-0.782
200	-0.681
200	-0.624
201	-0.583
201	-0.571
202	-0.553
202	-0.539
203	-0.532
203	-0.527
204	-0.512
204	-0.498
205	-0.472
205	-0.467
205	-0.466
206	-0.47
206	-0.472
207	-0.461
207	-0.464
208	-0.463
208	-0.461
209	-0.454
209	-0.454
210	-0.459
210	-0.465
211	-0.465
211	-0.466
212	-0.469
212	-0.48
213	-0.478
213	-0.477
213	-0.484
214	-0.482
214	-0.48
215	-0.482
215	-0.486
216	-0.491
216	-0.497
217	-0.493
217	-0.496
218	-0.496
218	-0.499
219	-0.504
219	-0.514
220	-0.521
220	-0.531
221	-0.53
221	-0.534
221	-0.528
222	-0.525
222	-0.525
223	-0.531
223	-0.532
224	-0.535
224	-0.534
225	-0.529
225	-0.522
226	-0.526
226	-0.524
227	-0.531
227	-0.541
228	-0.541
228	-0.542
229	-0.544
229	-0.537
229	-0.532
230	-0.536
230	-0.539
231	-0.535
231	-0.527
232	-0.521
232	-0.519
233	-0.515
233	-0.512
234	-0.512
234	-0.509
235	-0.512
235	-0.515
236	-0.513
236	-0.514
236	-0.521
237	-0.526
237	-0.524
238	-0.534
238	-0.532
239	-0.53
239	-0.539
240	-0.538
240	-0.539
241	-0.545
241	-0.545
242	-0.55
242	-0.547
243	-0.544
243	-0.545
243	-0.552
244	-0.554
244	-0.554
245	-0.567
245	-0.565
246	-0.57
246	-0.577
247	-0.576
247	-0.581
248	-0.586
248	-0.583
249	-0.587
249	-0.594
250	-0.592
250	-0.587
250	-0.587
251	-0.584
251	-0.583
252	-0.586
252	-0.576
253	-0.58
253	-0.589
254	-0.589
254	-0.588
255	-0.594
255	-0.587
256	-0.585
256	-0.596
257	-0.591
257	-0.587
258	-0.605
258	-0.603
258	-0.6
259	-0.594
259	-0.603
260	-0.602
260	-0.607
261	-0.619
261	-0.61
262	-0.609
262	-0.611
263	-0.6
263	-0.595
264	-0.594
264	-0.603
265	-0.596
265	-0.604
265	-0.608
266	-0.605
266	-0.602
267	-0.615
267	-0.623
268	-0.637
268	-0.645
269	-0.643
269	-0.637
270	-0.645
270	-0.648
271	-0.649
271	-0.654
272	-0.656
272	-0.651
272	-0.644
273	-0.641
273	-0.651
274	-0.655
274	-0.66
275	-0.658
275	-0.651
276	-0.656
276	-0.649
277	-0.655
277	-0.672
278	-0.683
278	-0.678
278	-0.671
279	-0.677
279	-0.686
280	-0.684
280	-0.684
281	-0.68
281	-0.686
282	-0.677
282	-0.678
283	-0.669
283	-0.672
284	-0.665
284	-0.655
285	-0.652
285	-0.651
285	-0.648
286	-0.653
286	-0.647
287	-0.645
287	-0.628
288	-0.621
288	-0.629
289	-0.643
289	-0.649
290	-0.638
290	-0.635
291	-0.633
291	-0.625
292	-0.631
292	-0.637
292	-0.642
293	-0.646
293	-0.637
294	-0.626
294	-0.618
295	-0.615
295	-0.615
296	-0.614
296	-0.614
297	-0.606
297	-0.59
298	-0.582
298	-0.59
298	-0.576
299	-0.569
299	-0.57
300	-0.564
300	-0.559
301	-0.553
301	-0.55
302	-0.559
302	-0.568
303	-0.555
303	-0.542
304	-0.547
304	-0.546
305	-0.548
305	-0.548
305	-0.544
306	-0.528
306	-0.522
307	-0.508
307	-0.509
308	-0.524
308	-0.52
309	-0.523
309	-0.512
310	-0.501
310	-0.497
311	-0.488
311	-0.498
311	-0.495
312	-0.492
312	-0.491
313	-0.475
313	-0.478
314	-0.475
314	-0.476
315	-0.475
315	-0.474
316	-0.47
316	-0.459
317	-0.453
317	-0.448
318	-0.435
318	-0.432
318	-0.426
319	-0.415
319	-0.413
320	-0.404
320	-0.406
321	-0.41
321	-0.409
322	-0.403
322	-0.395
323	-0.394
323	-0.389
324	-0.38
324	-0.37
324	-0.359
325	-0.35
325	-0.333
326	-0.317
326	-0.299
327	-0.281
327	-0.261
328	-0.233
328	-0.21
329	-0.185
329	-0.158
330	-0.128
330	-0.092
330	-0.058
331	-0.025
331	0.006
332	0.036
332	0.066
333	0.093
333	0.124
334	0.15
334	0.173
335	0.195
335	0.215
336	0.233
336	0.251
336	0.266
337	0.282
337	0.294
338	0.306
338	0.314
339	0.325
339	0.333
340	0.339
340	0.345
341	0.351
341	0.355
342	0.361
342	0.365
342	0.369
343	0.372
343	0.376
344	0.378
344	0.38
345	0.382
345	0.383
346	0.385
346	0.386
347	0.386
347	0.387
348	0.388
348	0.389
348	0.389
349	0.389
349	0.39
350	0.39
350	0.39
351	0.39
351	0.391
352	0.391
352	0.391
353	0.391
353	0.391
354	0.391
354	0.391
354	0.39
355	0.39
355	0.39
356	0.39
356	0.389
357	0.388
357	0.387
358	0.387
358	0.387
359	0.386
359	0.386
360	0.386
360	0.386
360	0.386
361	0.385
361	0.385
362	0.386
362	0.385
363	0.385
363	0.385
364	0.385
364	0.384
365	0.384
365	0.384
366	0.383
366	0.383
366	0.383
367	0.382
367	0.382
368	0.381
368	0.381
369	0.381
369	0.381
370	0.38
370	0.38
371	0.379
371	0.379
372	0.379
372	0.378
372	0.378
373	0.378
373	0.377
374	0.377
374	0.376
375	0.376
375	0.376
376	0.375
376	0.375
377	0.374
377	0.374
378	0.373
378	0.373
378	0.373
379	0.373
379	0.372
380	0.372
380	0.371
381	0.371
381	0.37
382	0.369
382	0.369
383	0.369
383	0.368
383	0.368
384	0.367
384	0.367
385	0.366
385	0.366
386	0.366
386	0.365
387	0.365
387	0.365
388	0.364
388	0.364
389	0.364
389	0.364
389	0.363
390	0.363
390	0.363
391	0.362
391	0.362
392	0.361
392	0.361
393	0.36
393	0.36
394	0.359
394	0.359
394	0.358
395	0.357
395	0.357
396	0.356
396	0.356
397	0.356
397	0.355
398	0.355
398	0.355
399	0.355
399	0.354
400	0.354
400	0.353
400	0.353
401	0.353
401	0.352
402	0.352
402	0.351
403	0.351
403	0.351
404	0.35
404	0.35
405	0.35
405	0.349
405	0.349
406	0.349
406	0.348
407	0.348
407	0.347
408	0.347
408	0.347
409	0.346
409	0.346
410	0.346
410	0.346
411	0.346
411	0.345
411	0.345
412	0.345
412	0.345
413	0.345
413	0.344
414	0.344
414	0.344
415	0.343
415	0.343
416	0.343
416	0.342
416	0.342
417	0.342
417	0.342
418	0.342
418	0.341
419	0.341
419	0.341
420	0.341
420	0.341
421	0.341
421	0.341
421	0.341
422	0.34
422	0.34
423	0.34
423	0.34
424	0.339
424	0.339
425	0.339
425	0.338
426	0.338
426	0.338
427	0.337
427	0.337
427	0.337
428	0.337
428	0.337
429	0.337
429	0.336
430	0.336
430	0.336
431	0.336
431	0.336
432	0.335
432	0.335
432	0.335
433	0.335
433	0.335
434	0.335
434	0.335
435	0.335
435	0.335
436	0.335
436	0.335
437	0.335
437	0.335
437	0.335
438	0.335
438	0.335
439	0.334
439	0.335
440	0.334
440	0.334
441	0.334
441	0.334
442	0.334
442	0.334
442	0.334
443	0.334
443	0.334
444	0.334
444	0.334
445	0.334
445	0.334
446	0.334
446	0.335
447	0.335
447	0.335
447	0.335
448	0.335
448	0.335
449	0.336
449	0.336
450	0.336
450	0.336
451	0.336
451	0.337
452	0.337
452	0.337
452	0.337
453	0.337
453	0.337
454	0.337
454	0.337
455	0.337
455	0.337
456	0.338
456	0.338
457	0.338
457	0.338
458	0.338
458	0.339
458	0.34
459	0.34
459	0.34
460	0.341
460	0.341
461	0.341
461	0.342
462	0.342
462	0.342
463	0.343
463	0.343
463	0.343
464	0.344
464	0.344
465	0.345
465	0.345
466	0.346
466	0.347
467	0.347
467	0.348
467	0.349
468	0.349
468	0.35
469	0.351
469	0.352
470	0.353
470	0.353
471	0.354
471	0.354
472	0.355
472	0.356
472	0.357
473	0.358
473	0.359
474	0.36
474	0.361
475	0.362
475	0.363
476	0.363
476	0.365
477	0.366
477	0.367
477	0.368
478	0.369
478	0.37
479	0.372
479	0.373
480	0.374
480	0.376
481	0.377
481	0.379
482	0.38
482	0.382
482	0.384
483	0.385
483	0.387
484	0.388
484	0.389
485	0.391
485	0.393
486	0.394
486	0.396
487	0.398
487	0.4
487	0.402
488	0.404
488	0.406
489	0.408
489	0.412
490	0.414
490	0.417
491	0.42
491	0.422
492	0.425
492	0.427
492	0.43
493	0.432
493	0.435
494	0.438
494	0.441
495	0.444
495	0.446
496	0.449
496	0.452
496	0.455
497	0.458
497	0.461
498	0.464
498	0.467
499	0.47
499	0.474
500	0.478
500	0.482
501	0.485
501	0.488
501	0.491
502	0.495
502	0.498
503	0.502
503	0.505
504	0.509
504	0.512
505	0.516
505	0.52
506	0.523
506	0.527
506	0.53
507	0.533
507	0.537
508	0.54
508	0.544
509	0.547
509	0.551
510	0.555
510	0.558
511	0.562
511	0.565
511	0.569
512	0.573
512	0.576
513	0.579
513	0.583
514	0.586
514	0.589
515	0.592
515	0.595
515	0.598
516	0.601
516	0.604
517	0.607
517	0.609
518	0.612
518	0.614
519	0.616
519	0.618
520	0.62
520	0.623
520	0.625
521	0.627
521	0.629
522	0.631
522	0.633
523	0.635
523	0.637
524	0.638
524	0.639
524	0.64
525	0.64
525	0.641
526	0.641
526	0.642
527	0.642
527	0.642
528	0.642
528	0.642
529	0.642
529	0.642
529	0.642
530	0.642
530	0.641
531	0.641
531	0.64
532	0.638
532	0.638
533	0.637
533	0.635
533	0.634
534	0.631
534	0.629
535	0.627
535	0.625
536	0.622
536	0.619
537	0.616
537	0.613
538	0.61
538	0.607
538	0.604
539	0.601
539	0.598
540	0.595
540	0.592
541	0.588
541	0.585
542	0.582
542	0.578
542	0.573
543	0.569
543	0.565
544	0.561
544	0.557
545	0.553
545	0.549
546	0.545
546	0.54
547	0.535
547	0.531
547	0.527
548	0.523
548	0.519
549	0.515
549	0.511
550	0.507
550	0.503
551	0.498
551	0.494
551	0.49
552	0.486
552	0.482
553	0.478
553	0.473
554	0.469
554	0.464
555	0.459
555	0.454
556	0.45
556	0.445
556	0.44
557	0.436
557	0.431
558	0.426
558	0.421
559	0.416
559	0.411
560	0.406
560	0.402
560	0.397
561	0.393
561	0.389
562	0.384
562	0.38
563	0.376
563	0.372
564	0.368
564	0.364
564	0.36
565	0.356
565	0.352
566	0.348
566	0.344
567	0.34
567	0.336
568	0.332
568	0.327
568	0.323
569	0.319
569	0.314
570	0.309
570	0.305
571	0.301
571	0.297
572	0.294
572	0.29
573	0.286
573	0.283
573	0.279
574	0.276
574	0.273
575	0.27
575	0.268
576	0.264
576	0.26
577	0.257
577	0.254
577	0.252
578	0.25
578	0.248
579	0.246
579	0.243
580	0.239
580	0.235
581	0.232
581	0.229
581	0.227
582	0.225
582	0.223
583	0.221
583	0.218
584	0.214
584	0.211
585	0.209
585	0.207
585	0.205
586	0.203
586	0.201
587	0.198
587	0.196
588	0.194
588	0.192
589	0.19
589	0.188
590	0.186
590	0.184
590	0.183
591	0.181
591	0.178
592	0.176
592	0.174
593	0.172
593	0.17
594	0.168
594	0.167
594	0.165
595	0.164
595	0.162
596	0.16
596	0.159
597	0.159
597	0.157
598	0.155
598	0.154
598	0.152
599	0.15
599	0.148
600	0.146
600	0.144
601	0.143
601	0.141
602	0.139
602	0.138
602	0.136
603	0.136
603	0.135
604	0.135
604	0.134
605	0.134
605	0.134
606	0.132
606	0.131
606	0.13
607	0.128
607	0.127
608	0.125
608	0.123
609	0.122
609	0.121
610	0.12
610	0.119
610	0.118
611	0.118
611	0.118
612	0.119
612	0.119
613	0.119
613	0.119
614	0.117
614	0.116
614	0.115
615	0.114
615	0.112
616	0.111
616	0.11
617	0.108
617	0.106
618	0.105
618	0.104
618	0.103
619	0.103
619	0.103
620	0.103
620	0.102
621	0.101
621	0.101
622	0.1
622	0.099
622	0.098
623	0.097
623	0.097
624	0.097
624	0.096
625	0.096
625	0.095
626	0.095
626	0.094
626	0.094
627	0.094
627	0.094
628	0.093
628	0.092
629	0.091
629	0.09
630	0.089
630	0.088
630	0.087
631	0.086
631	0.085
632	0.083
632	0.082
633	0.082
633	0.081
634	0.08
634	0.079
634	0.078
635	0.077
635	0.076
636	0.075
636	0.073
637	0.072
637	0.071
638	0.069
638	0.067
638	0.065
639	0.063
639	0.061
640	0.06
640	0.058
641	0.056
641	0.054
642	0.051
642	0.049
642	0.047
643	0.045
643	0.042
644	0.04
644	0.037
645	0.034
645	0.031
646	0.029
646	0.025
646	0.022
647	0.019
647	0.016
648	0.013
648	0.01
649	0.006
649	0.002
650	-0.002
650	-0.006
650	-0.012
651	-0.018
651	-0.025
652	-0.033
652	-0.041
653	-0.047
653	-0.054
653	-0.052
654	-0.045
654	-0.046
655	-0.05
655	-0.053
656	-0.057
656	-0.062
657	-0.065
657	-0.067
657	-0.072
658	-0.076
658	-0.096
659	-0.143
659	-0.194
660	-0.22
660	-0.236
661	-0.255
661	-0.274
661	-0.296
662	-0.315
662	-0.334
663	-0.355
663	-0.38
664	-0.403
664	-0.436
665	-0.463
665	-0.499
665	-0.531
666	-0.564
666	-0.602
667	-0.644
667	-0.686
668	-0.738
668	-0.792
669	-0.848
669	-0.903
669	-0.962
670	-0.999
670	-1.006
671	-1.184
671	-1.651
672	-2.016
672	-2.264
672	-2.426
673	-2.539
673	-2.589
674	-2.61
674	-2.625
675	-2.65
675	-2.794
676	-3.001
676	-2.96
676	-2.711
677	-2.464
677	-2.22
678	-1.817
678	-1.338
679	-1.149
679	-1.056
680	-0.992
680	-0.937
680	-0.893
681	-0.873
681	-0.838
682	-0.821
682	-0.803
683	-0.785
683	-0.789
684	-0.786
684	-0.784
684	-0.778
685	-0.77
685	-0.762
686	-0.75
686	-0.747
687	-0.734
687	-0.734
687	-0.726
688	-0.709
688	-0.698
689	-0.685
689	-0.678
690	-0.666
690	-0.662
691	-0.661
691	-0.67
691	-0.69
692	-0.688
692	-0.683
693	-0.681
693	-0.693
694	-0.693
694	-0.689
695	-0.698
695	-0.698
695	-0.686
696	-0.686
696	-0.665
697	-0.668
697	-0.686
698	-0.692
698	-0.684
698	-0.699
699	-0.705
699	-0.704
700	-0.698
700	-0.715
701	-0.715
701	-0.724
702	-0.727
702	-0.718
702	-0.713
703	-0.707
703	-0.7
704	-0.698
704	-0.7
705	-0.711
705	-0.706
705	-0.694
706	-0.697
706	-0.693
707	-0.699
707	-0.694
708	-0.692
708	-0.686
709	-0.69
709	-0.692
709	-0.683
710	-0.693
710	-0.702
711	-0.692
711	-0.695
712	-0.693
712	-0.707
713	-0.708
713	-0.716
713	-0.706
714	-0.704
714	-0.707
715	-0.698
715	-0.687
716	-0.696
716	-0.695
716	-0.689
717	-0.69
717	-0.691
718	-0.68
718	-0.684
719	-0.692
719	-0.693
720	-0.688
720	-0.7
720	-0.695
721	-0.686
721	-0.688
722	-0.678
722	-0.67
723	-0.669
723	-0.674
723	-0.661
724	-0.665
724	-0.67
725	-0.669
725	-0.677
726	-0.691
726	-0.696
727	-0.7
727	-0.714
727	-0.723
728	-0.724
728	-0.732
729	-0.729
729	-0.733
730	-0.742
730	-0.733
730	-0.723
731	-0.705
731	-0.716
732	-0.722
732	-0.723
733	-0.721
733	-0.725
734	-0.723
734	-0.724
734	-0.708
735	-0.709
735	-0.711
736	-0.723
736	-0.711
737	-0.704
737	-0.704
737	-0.714
738	-0.709
738	-0.711
739	-0.709
739	-0.723
740	-0.722
740	-0.722
741	-0.719
741	-0.718
741	-0.72
742	-0.718
742	-0.717
743	-0.723
743	-0.726
744	-0.723
744	-0.713
744	-0.714
745	-0.719
745	-0.711
746	-0.71
746	-0.706
747	-0.708
747	-0.697
748	-0.687
748	-0.691
748	-0.693
749	-0.691
749	-0.692
750	-0.682
750	-0.684
751	-0.689
751	-0.698
751	-0.701
752	-0.706
752	-0.715
753	-0.711
753	-0.706
754	-0.711
754	-0.705
754	-0.722
755	-0.738
755	-0.748
756	-0.737
756	-0.733
757	-0.731
757	-0.727
758	-0.728
758	-0.728
758	-0.732
759	-0.74
759	-0.72
760	-0.713
760	-0.709
761	-0.721
761	-0.72
761	-0.718
762	-0.726
762	-0.726
763	-0.735
763	-0.73
764	-0.726
764	-0.736
764	-0.742
765	-0.733
765	-0.719
766	-0.726
766	-0.733
767	-0.748
767	-0.741
768	-0.731
768	-0.739
768	-0.744
769	-0.759
769	-0.763
770	-0.766
770	-0.779
771	-0.778
771	-0.78
771	-0.781
772	-0.786
772	-0.787
773	-0.787
773	-0.782
774	-0.782
774	-0.779
775	-0.783
775	-0.777
775	-0.783
776	-0.782
776	-0.77
777	-0.775
777	-0.794
778	-0.792
778	-0.812
778	-0.799
779	-0.822
779	-0.829
780	-0.844
780	-0.842
781	-0.855
781	-0.852
781	-0.867
782	-0.868
782	-0.869
783	-0.855
783	-0.853
784	-0.834
784	-0.822
784	-0.828
785	-0.835
785	-0.819
786	-0.826
786	-0.806
787	-0.792
787	-0.796
788	-0.8
788	-0.81
788	-0.821
789	-0.825
789	-0.807
790	-0.789
790	-0.792
791	-0.791
791	-0.81
791	-0.818
792	-0.81
792	-0.785
793	-0.776
793	-0.756
794	-0.761
794	-0.754
794	-0.762
795	-0.759
795	-0.753
796	-0.738
796	-0.746
797	-0.742
797	-0.758
797	-0.765
798	-0.776
798	-0.769
799	-0.781
799	-0.768
800	-0.773
800	-0.765
801	-0.769
801	-0.753
801	-0.764
802	-0.771
802	-0.771
803	-0.771
803	-0.78
804	-0.774
804	-0.785
804	-0.774
805	-0.78
805	-0.768
806	-0.771
806	-0.755
807	-0.753
807	-0.734
807	-0.723
808	-0.714
808	-0.707
809	-0.691
809	-0.698
810	-0.695
810	-0.688
810	-0.685
811	-0.693
811	-0.682
812	-0.685
812	-0.691
813	-0.697
813	-0.693
813	-0.7
814	-0.705
814	-0.709
815	-0.716
815	-0.719
816	-0.71
816	-0.716
817	-0.721
817	-0.737
817	-0.75
818	-0.757
818	-0.759
819	-0.748
819	-0.746
820	-0.755
820	-0.751
820	-0.762
821	-0.76
821	-0.748
822	-0.715
822	-0.691
823	-0.69
823	-0.694
823	-0.692
824	-0.687
824	-0.689
825	-0.686
825	-0.667
826	-0.664
826	-0.673
826	-0.684
827	-0.68
827	-0.678
828	-0.658
828	-0.658
829	-0.65
829	-0.636
829	-0.626
830	-0.639
830	-0.633
831	-0.625
831	-0.617
832	-0.617
832	-0.608
832	-0.619
833	-0.616
833	-0.617
834	-0.613
834	-0.621
835	-0.606
835	-0.604
835	-0.598
836	-0.594
836	-0.591
837	-0.586
837	-0.572
838	-0.563
838	-0.551
839	-0.542
839	-0.529
839	-0.521
840	-0.509
840	-0.507
841	-0.496
841	-0.485
842	-0.482
842	-0.475
842	-0.465
843	-0.46
843	-0.455
844	-0.445
844	-0.437
845	-0.428
845	-0.416
845	-0.404
846	-0.395
846	-0.38
847	-0.369
847	-0.361
848	-0.35
848	-0.339
848	-0.325
849	-0.316
849	-0.308
850	-0.295
850	-0.291
851	-0.283
851	-0.273
851	-0.266
852	-0.252
852	-0.239
853	-0.232
853	-0.228
854	-0.217
854	-0.204
854	-0.195
855	-0.183
855	-0.177
856	-0.168
856	-0.16
857	-0.154
857	-0.146
857	-0.135
858	-0.125
858	-0.119
859	-0.113
859	-0.104
860	-0.097
860	-0.085
860	-0.078
861	-0.07
861	-0.063
862	-0.057
862	-0.051
863	-0.044
863	-0.037
863	-0.032
864	-0.028
864	-0.023
865	-0.018
865	-0.014
866	-0.01
866	-0.008
866	-0.005
867	-0.002
867	0.001
868	0.003
868	0.005
869	0.008
869	0.01
869	0.012
870	0.014
870	0.016
871	0.018
871	0.02
872	0.022
872	0.023
872	0.024
873	0.024
873	0.025
874	0.025
874	0.025
875	0.024
875	0.023
875	0.022
876	0.02
876	0.019
877	0.018
877	0.016
878	0.015
878	0.013
878	0.011
879	0.009
879	0.008
880	0.008
880	0.008
881	0.008
881	0.008
881	0.008
882	0.007
882	0.006
883	0.005
883	0.004
884	0.003
884	0.003
884	0.002
885	0.001
885	0.001
886	0.001
886	0.001
887	0.001
887	0
887	0.001
888	0.002
888	0.002
889	0.003
889	0.004
890	0.004
890	0.004
890	0.004
891	0.004
891	0.005
892	0.006
892	0.006
893	0.006
893	0.006
893	0.007
894	0.006
894	0.006
895	0.006
895	0.007
895	0.007
896	0.006
896	0.005
897	0.004
897	0.003
898	0.002
898	0.001
898	0.001
899	0.001
899	0.002
900	0.002
900	0.002
901	0.003
901	0.004
901	0.005
902	0.006
902	0.007
903	0.008
903	0.008
904	0.009
904	0.009
904	0.009
905	0.01
905	0.01
906	0.011
906	0.011
907	0.011
907	0.01
907	0.01
908	0.01
908	0.01
909	0.009
909	0.009
910	0.008
910	0.008
910	0.008
911	0.008
911	0.009
912	0.009
912	0.01
913	0.01
913	0.011
913	0.012
914	0.013
914	0.014
915	0.014
915	0.015
916	0.015
916	0.015
916	0.015
917	0.015
917	0.015
918	0.015
918	0.014
918	0.014
919	0.014
919	0.014
920	0.014
920	0.014
921	0.014
921	0.013
921	0.013
922	0.013
922	0.013
923	0.012
923	0.012
924	0.012
924	0.011
924	0.011
925	0.01
925	0.009
926	0.009
926	0.008
927	0.008
927	0.007
927	0.007
928	0.007
928	0.007
929	0.007
929	0.006
930	0.006
930	0.005
930	0.005
931	0.005
931	0.005
932	0.004
932	0.004
933	0.003
933	0.002
933	0.001
934	-0
934	-0.001
935	-0.002
935	-0.003
935	-0.003
936	-0.004
936	-0.005
937	-0.006
937	-0.007
938	-0.007
938	-0.007
938	-0.007
939	-0.006
939	-0.006
940	-0.005
940	-0.005
941	-0.004
941	-0.004
941	-0.002
942	-0.002
942	-0.001
943	-0
943	-0
944	-0
944	-0
944	-0.001
945	-0.001
945	-0.002
946	-0.003
946	-0.004
946	-0.005
947	-0.006
947	-0.007
948	-0.007
948	-0.007
949	-0.007
949	-0.007
949	-0.006
950	-0.006
950	-0.005
951	-0.004
951	-0.003
952	-0.003
952	-0.002
952	-0.001
953	0
953	0.001
954	0.002
954	0.003
955	0.004
955	0.005
955	0.006
956	0.007
956	0.008
957	0.008
957	0.009
957	0.009
958	0.009
958	0.01
959	0.011
959	0.011
960	0.012
960	0.012
960	0.012
961	0.012
961	0.013
962	0.013
962	0.013
963	0.014
963	0.014
963	0.013
964	0.013
964	0.013
965	0.014
965	0.013
966	0.013
966	0.013
966	0.013
967	0.013
967	0.013
968	0.012
968	0.012
968	0.011
969	0.011
969	0.01
970	0.01
970	0.01
971	0.009
971	0.01
971	0.01
972	0.01
972	0.01
973	0.011
973	0.01
974	0.01
974	0.011
974	0.011
975	0.011
975	0.011
976	0.01
976	0.01
976	0.01
977	0.009
977	0.01
978	0.01
978	0.01
979	0.009
979	0.009
979	0.009
980	0.009
980	0.009
981	0.009
981	0.009
982	0.009
982	0.008
982	0.008
983	0.008
983	0.008
984	0.008
984	0.008
984	0.008
985	0.008
985	0.008
986	0.008
986	0.007
987	0.007
987	0.007
987	0.006
988	0.005
988	0.005
989	0.004
989	0.003
990	0.002
990	0.001
990	0.001
991	0
991	-0
992	-0.001
992	-0.001
992	-0.001
993	-0.002
993	-0.002
994	-0.002
994	-0.002
995	-0.002
995	-0.003
995	-0.003
996	-0.004
996	-0.004
997	-0.005
997	-0.005
997	-0.005
998	-0.005
998	-0.005
999	-0.004
999	-0.004
1000	-0.004
1000	-0.003
1000	-0.003
1001	-0.002
1001	-0.002
1002	-0.002
1002	-0.002
1003	-0.002
1003	-0.002
1003	-0.002
1004	-0.003
1004	-0.003
1005	-0.004
1005	-0.005
1005	-0.006
1006	-0.007
1006	-0.008
1007	-0.009
1007	-0.01
1008	-0.01
1008	-0.011
1008	-0.011
1009	-0.011
1009	-0.011
1010	-0.011
1010	-0.011
1010	-0.01
1011	-0.01
1011	-0.01
1012	-0.01
1012	-0.01
1013	-0.01
1013	-0.01
1013	-0.011
1014	-0.011
1014	-0.012
1015	-0.012
1015	-0.012
1016	-0.013
1016	-0.014
1016	-0.015
1017	-0.016
1017	-0.016
1018	-0.017
1018	-0.018
1018	-0.019
1019	-0.019
1019	-0.02
1020	-0.021
1020	-0.022
1021	-0.022
1021	-0.023
1021	-0.023
1022	-0.024
1022	-0.024
1023	-0.024
1023	-0.025
1023	-0.025
1024	-0.025
1024	-0.025
1025	-0.025
1025	-0.025
1026	-0.025
1026	-0.025
1026	-0.025
1027	-0.025
1027	-0.024
1028	-0.024
1028	-0.024
1028	-0.024
1029	-0.023
1029	-0.024
1030	-0.024
1030	-0.024
1031	-0.025
1031	-0.025
1031	-0.025
1032	-0.025
1032	-0.025
1033	-0.025
1033	-0.025
1033	-0.025
1034	-0.025
1034	-0.025
1035	-0.025
1035	-0.024
1036	-0.025
1036	-0.025
1036	-0.024
1037	-0.025
1037	-0.024
1038	-0.024
1038	-0.024
1039	-0.024
1039	-0.023
1039	-0.023
1040	-0.022
1040	-0.021
1041	-0.021
1041	-0.02
1041	-0.02
1042	-0.02
1042	-0.02
1043	-0.02
1043	-0.02
1044	-0.021
1044	-0.022
1044	-0.022
1045	-0.024
1045	-0.024
1046	-0.025
1046	-0.026
1046	-0.026
1047	-0.027
1047	-0.027
1048	-0.027
1048	-0.027
1049	-0.027
1049	-0.027
1049	-0.026
1050	-0.026
1050	-0.025
1051	-0.025
1051	-0.025
1051	-0.025
1052	-0.024
1052	-0.024
1053	-0.024
1053	-0.023
1053	-0.023
1054	-0.023
1054	-0.023
1055	-0.023
1055	-0.024
1056	-0.024
1056	-0.025
1056	-0.026
1057	-0.027
1057	-0.028
1058	-0.028
1058	-0.029
1058	-0.029
1059	-0.03
1059	-0.03
1060	-0.031
1060	-0.031
1061	-0.031
1061	-0.031
1061	-0.031
1062	-0.031
1062	-0.031
1063	-0.031
1063	-0.031
1063	-0.031
1064	-0.03
1064	-0.03
1065	-0.03
1065	-0.03
1066	-0.03
1066	-0.03
1066	-0.03
1067	-0.03
1067	-0.03
1068	-0.03
1068	-0.031
1068	-0.031
1069	-0.031
1069	-0.032
1070	-0.032
1070	-0.033
1071	-0.033
1071	-0.033
1071	-0.034
1072	-0.035
1072	-0.035
1073	-0.035
1073	-0.036
1073	-0.036
1074	-0.036
1074	-0.035
1075	-0.036
1075	-0.036
1076	-0.036
1076	-0.036
1076	-0.037
1077	-0.037
1077	-0.037
1078	-0.038
1078	-0.038
1078	-0.039
1079	-0.04
1079	-0.04
1080	-0.041
1080	-0.042
1080	-0.043
1081	-0.044
1081	-0.044
1082	-0.045
1082	-0.045
1083	-0.046
1083	-0.047
1083	-0.047
1084	-0.048
1084	-0.049
1085	-0.05
1085	-0.05
1085	-0.05
1086	-0.051
1086	-0.051
1087	-0.052
1087	-0.052
1088	-0.053
1088	-0.053
1088	-0.054
1089	-0.054
1089	-0.055
1090	-0.056
1090	-0.056
1090	-0.057
1091	-0.059
1091	-0.059
1092	-0.06
1092	-0.06
1092	-0.061
1093	-0.062
1093	-0.062
1094	-0.063
1094	-0.064
1095	-0.065
1095	-0.065
1095	-0.065
1096	-0.067
1096	-0.067
1097	-0.067
1097	-0.068
1097	-0.068
1098	-0.07
1098	-0.071
1099	-0.071
1099	-0.072
1100	-0.073
1100	-0.075
1100	-0.076
1101	-0.079
1101	-0.081
1102	-0.083
1102	-0.085
1102	-0.086
1103	-0.088
1103	-0.09
1104	-0.092
1104	-0.094
1104	-0.097
1105	-0.098
1105	-0.1
1106	-0.104
1106	-0.107
1107	-0.112
1107	-0.115
1107	-0.12
1108	-0.122
1108	-0.125
1109	-0.128
1109	-0.132
1109	-0.136
1110	-0.139
1110	-0.141
1111	-0.147
1111	-0.145
