Data from 17C_3.4A_35min_2sec_int_Absorbance__576__04661.txt Node

Date: Mon Jun 19 20:05:11 CEST 2023
User: Marek
Spectrometer: MAYP115816
Trigger mode: 0
Integration Time (sec): 2.500000E-1
Scans to average: 10
Electric dark correction enabled: true
Nonlinearity correction enabled: true
Boxcar width: 5
XAxis mode: Wavelengths
Number of Pixels in Spectrum: 2068
>>>>>Begin Spectral Data<<<<<
199	-0.769
199	-0.78
200	-0.688
200	-0.635
201	-0.596
201	-0.582
202	-0.567
202	-0.556
203	-0.547
203	-0.543
204	-0.527
204	-0.513
205	-0.49
205	-0.484
205	-0.482
206	-0.487
206	-0.491
207	-0.479
207	-0.479
208	-0.479
208	-0.478
209	-0.475
209	-0.475
210	-0.478
210	-0.484
211	-0.484
211	-0.485
212	-0.487
212	-0.497
213	-0.496
213	-0.497
213	-0.501
214	-0.496
214	-0.499
215	-0.499
215	-0.503
216	-0.506
216	-0.513
217	-0.509
217	-0.513
218	-0.516
218	-0.517
219	-0.521
219	-0.532
220	-0.536
220	-0.545
221	-0.545
221	-0.547
221	-0.541
222	-0.536
222	-0.537
223	-0.54
223	-0.543
224	-0.546
224	-0.545
225	-0.54
225	-0.535
226	-0.539
226	-0.54
227	-0.547
227	-0.557
228	-0.558
228	-0.558
229	-0.56
229	-0.553
229	-0.547
230	-0.551
230	-0.552
231	-0.548
231	-0.539
232	-0.532
232	-0.53
233	-0.525
233	-0.524
234	-0.522
234	-0.52
235	-0.522
235	-0.528
236	-0.528
236	-0.532
236	-0.54
237	-0.546
237	-0.545
238	-0.554
238	-0.551
239	-0.55
239	-0.559
240	-0.559
240	-0.558
241	-0.562
241	-0.558
242	-0.562
242	-0.557
243	-0.554
243	-0.554
243	-0.565
244	-0.564
244	-0.564
245	-0.578
245	-0.578
246	-0.584
246	-0.59
247	-0.591
247	-0.596
248	-0.603
248	-0.601
249	-0.603
249	-0.613
250	-0.612
250	-0.608
250	-0.61
251	-0.606
251	-0.606
252	-0.61
252	-0.602
253	-0.607
253	-0.619
254	-0.619
254	-0.617
255	-0.624
255	-0.616
256	-0.611
256	-0.624
257	-0.62
257	-0.617
258	-0.633
258	-0.629
258	-0.624
259	-0.62
259	-0.629
260	-0.629
260	-0.635
261	-0.648
261	-0.638
262	-0.637
262	-0.637
263	-0.625
263	-0.621
264	-0.621
264	-0.628
265	-0.622
265	-0.63
265	-0.632
266	-0.628
266	-0.627
267	-0.639
267	-0.649
268	-0.665
268	-0.674
269	-0.671
269	-0.665
270	-0.671
270	-0.676
271	-0.676
271	-0.681
272	-0.684
272	-0.679
272	-0.672
273	-0.67
273	-0.68
274	-0.686
274	-0.69
275	-0.691
275	-0.682
276	-0.688
276	-0.679
277	-0.683
277	-0.7
278	-0.709
278	-0.702
278	-0.696
279	-0.7
279	-0.711
280	-0.706
280	-0.707
281	-0.702
281	-0.709
282	-0.701
282	-0.702
283	-0.694
283	-0.695
284	-0.689
284	-0.676
285	-0.673
285	-0.673
285	-0.668
286	-0.672
286	-0.666
287	-0.663
287	-0.648
288	-0.64
288	-0.649
289	-0.662
289	-0.674
290	-0.662
290	-0.661
291	-0.658
291	-0.653
292	-0.658
292	-0.666
292	-0.669
293	-0.676
293	-0.664
294	-0.654
294	-0.641
295	-0.638
295	-0.636
296	-0.633
296	-0.63
297	-0.625
297	-0.609
298	-0.6
298	-0.607
298	-0.595
299	-0.588
299	-0.592
300	-0.586
300	-0.581
301	-0.58
301	-0.58
302	-0.587
302	-0.595
303	-0.583
303	-0.568
304	-0.573
304	-0.571
305	-0.574
305	-0.573
305	-0.571
306	-0.555
306	-0.55
307	-0.538
307	-0.539
308	-0.553
308	-0.553
309	-0.553
309	-0.543
310	-0.531
310	-0.528
311	-0.519
311	-0.528
311	-0.524
312	-0.517
312	-0.515
313	-0.499
313	-0.5
314	-0.496
314	-0.499
315	-0.496
315	-0.494
316	-0.491
316	-0.48
317	-0.47
317	-0.468
318	-0.456
318	-0.455
318	-0.451
319	-0.442
319	-0.436
320	-0.431
320	-0.434
321	-0.438
321	-0.437
322	-0.433
322	-0.426
323	-0.425
323	-0.419
324	-0.41
324	-0.401
324	-0.391
325	-0.38
325	-0.361
326	-0.347
326	-0.328
327	-0.311
327	-0.29
328	-0.264
328	-0.243
329	-0.218
329	-0.193
330	-0.163
330	-0.13
330	-0.099
331	-0.068
331	-0.039
332	-0.009
332	0.018
333	0.043
333	0.071
334	0.093
334	0.113
335	0.131
335	0.147
336	0.163
336	0.178
336	0.19
337	0.202
337	0.212
338	0.222
338	0.229
339	0.237
339	0.245
340	0.251
340	0.257
341	0.261
341	0.265
342	0.27
342	0.274
342	0.278
343	0.28
343	0.284
344	0.286
344	0.287
345	0.289
345	0.29
346	0.291
346	0.292
347	0.293
347	0.293
348	0.294
348	0.294
348	0.295
349	0.295
349	0.295
350	0.295
350	0.296
351	0.296
351	0.296
352	0.296
352	0.296
353	0.296
353	0.296
354	0.295
354	0.295
354	0.295
355	0.295
355	0.294
356	0.294
356	0.294
357	0.293
357	0.292
358	0.292
358	0.292
359	0.292
359	0.292
360	0.292
360	0.291
360	0.291
361	0.291
361	0.291
362	0.291
362	0.291
363	0.291
363	0.291
364	0.291
364	0.291
365	0.291
365	0.291
366	0.291
366	0.29
366	0.29
367	0.291
367	0.29
368	0.29
368	0.29
369	0.289
369	0.289
370	0.289
370	0.288
371	0.288
371	0.288
372	0.288
372	0.287
372	0.287
373	0.287
373	0.287
374	0.287
374	0.286
375	0.286
375	0.286
376	0.286
376	0.286
377	0.286
377	0.285
378	0.285
378	0.285
378	0.285
379	0.284
379	0.284
380	0.284
380	0.283
381	0.283
381	0.282
382	0.282
382	0.282
383	0.282
383	0.282
383	0.281
384	0.281
384	0.281
385	0.281
385	0.28
386	0.28
386	0.28
387	0.28
387	0.28
388	0.279
388	0.279
389	0.279
389	0.279
389	0.279
390	0.279
390	0.279
391	0.279
391	0.279
392	0.279
392	0.278
393	0.278
393	0.278
394	0.277
394	0.277
394	0.277
395	0.276
395	0.275
396	0.275
396	0.275
397	0.275
397	0.275
398	0.275
398	0.275
399	0.275
399	0.275
400	0.274
400	0.274
400	0.274
401	0.274
401	0.274
402	0.273
402	0.273
403	0.273
403	0.272
404	0.272
404	0.272
405	0.272
405	0.271
405	0.271
406	0.271
406	0.271
407	0.27
407	0.27
408	0.27
408	0.27
409	0.27
409	0.27
410	0.27
410	0.27
411	0.269
411	0.269
411	0.269
412	0.269
412	0.269
413	0.269
413	0.268
414	0.268
414	0.268
415	0.268
415	0.268
416	0.268
416	0.267
416	0.267
417	0.267
417	0.267
418	0.267
418	0.267
419	0.267
419	0.267
420	0.267
420	0.267
421	0.267
421	0.267
421	0.267
422	0.267
422	0.267
423	0.267
423	0.267
424	0.266
424	0.266
425	0.266
425	0.265
426	0.265
426	0.265
427	0.265
427	0.265
427	0.264
428	0.264
428	0.264
429	0.264
429	0.264
430	0.264
430	0.264
431	0.263
431	0.263
432	0.263
432	0.263
432	0.263
433	0.263
433	0.262
434	0.262
434	0.262
435	0.262
435	0.262
436	0.262
436	0.263
437	0.262
437	0.262
437	0.262
438	0.262
438	0.262
439	0.262
439	0.262
440	0.262
440	0.261
441	0.261
441	0.26
442	0.26
442	0.26
442	0.26
443	0.26
443	0.261
444	0.261
444	0.261
445	0.261
445	0.261
446	0.261
446	0.261
447	0.261
447	0.262
447	0.261
448	0.262
448	0.261
449	0.261
449	0.262
450	0.262
450	0.262
451	0.262
451	0.262
452	0.262
452	0.262
452	0.262
453	0.262
453	0.262
454	0.262
454	0.262
455	0.262
455	0.262
456	0.261
456	0.261
457	0.261
457	0.261
458	0.261
458	0.261
458	0.261
459	0.261
459	0.261
460	0.261
460	0.262
461	0.262
461	0.263
462	0.263
462	0.264
463	0.264
463	0.265
463	0.265
464	0.265
464	0.265
465	0.265
465	0.266
466	0.266
466	0.266
467	0.266
467	0.266
467	0.266
468	0.267
468	0.267
469	0.267
469	0.268
470	0.268
470	0.268
471	0.268
471	0.268
472	0.269
472	0.269
472	0.27
473	0.27
473	0.271
474	0.271
474	0.272
475	0.272
475	0.273
476	0.273
476	0.274
477	0.275
477	0.275
477	0.276
478	0.277
478	0.277
479	0.278
479	0.279
480	0.279
480	0.28
481	0.281
481	0.281
482	0.282
482	0.283
482	0.283
483	0.284
483	0.285
484	0.286
484	0.286
485	0.287
485	0.288
486	0.288
486	0.289
487	0.29
487	0.291
487	0.292
488	0.292
488	0.293
489	0.295
489	0.297
490	0.299
490	0.301
491	0.302
491	0.304
492	0.306
492	0.308
492	0.309
493	0.311
493	0.313
494	0.315
494	0.317
495	0.318
495	0.32
496	0.321
496	0.323
496	0.325
497	0.327
497	0.329
498	0.331
498	0.333
499	0.335
499	0.337
500	0.339
500	0.341
501	0.343
501	0.345
501	0.347
502	0.348
502	0.35
503	0.352
503	0.354
504	0.355
504	0.357
505	0.359
505	0.361
506	0.364
506	0.365
506	0.368
507	0.37
507	0.372
508	0.375
508	0.377
509	0.379
509	0.381
510	0.383
510	0.385
511	0.387
511	0.389
511	0.39
512	0.392
512	0.393
513	0.395
513	0.396
514	0.398
514	0.4
515	0.402
515	0.403
515	0.405
516	0.407
516	0.409
517	0.411
517	0.413
518	0.415
518	0.417
519	0.419
519	0.421
520	0.423
520	0.425
520	0.427
521	0.429
521	0.43
522	0.432
522	0.434
523	0.435
523	0.436
524	0.436
524	0.437
524	0.437
525	0.437
525	0.438
526	0.438
526	0.438
527	0.438
527	0.439
528	0.439
528	0.439
529	0.44
529	0.44
529	0.44
530	0.441
530	0.441
531	0.441
531	0.44
532	0.44
532	0.439
533	0.439
533	0.438
533	0.438
534	0.437
534	0.436
535	0.435
535	0.435
536	0.434
536	0.432
537	0.431
537	0.43
538	0.429
538	0.428
538	0.427
539	0.426
539	0.425
540	0.423
540	0.422
541	0.421
541	0.42
542	0.418
542	0.417
542	0.415
543	0.414
543	0.412
544	0.41
544	0.408
545	0.406
545	0.404
546	0.403
546	0.4
547	0.398
547	0.396
547	0.394
548	0.392
548	0.39
549	0.389
549	0.387
550	0.385
550	0.384
551	0.382
551	0.381
551	0.38
552	0.378
552	0.377
553	0.376
553	0.374
554	0.372
554	0.37
555	0.368
555	0.366
556	0.364
556	0.362
556	0.36
557	0.358
557	0.356
558	0.354
558	0.352
559	0.349
559	0.347
560	0.345
560	0.344
560	0.342
561	0.341
561	0.339
562	0.337
562	0.335
563	0.333
563	0.331
564	0.329
564	0.327
564	0.326
565	0.324
565	0.322
566	0.32
566	0.318
567	0.316
567	0.315
568	0.313
568	0.311
568	0.31
569	0.308
569	0.306
570	0.304
570	0.302
571	0.301
571	0.3
572	0.298
572	0.297
573	0.295
573	0.294
573	0.292
574	0.291
574	0.29
575	0.289
575	0.288
576	0.287
576	0.284
577	0.283
577	0.282
577	0.281
578	0.28
578	0.279
579	0.279
579	0.279
580	0.276
580	0.274
581	0.272
581	0.272
581	0.272
582	0.271
582	0.271
583	0.271
583	0.269
584	0.267
584	0.265
585	0.266
585	0.266
585	0.265
586	0.264
586	0.263
587	0.262
587	0.261
588	0.259
588	0.259
589	0.258
589	0.258
590	0.257
590	0.257
590	0.257
591	0.257
591	0.255
592	0.254
592	0.253
593	0.253
593	0.253
594	0.253
594	0.252
594	0.252
595	0.252
595	0.251
596	0.251
596	0.252
597	0.253
597	0.253
598	0.252
598	0.251
598	0.25
599	0.249
599	0.248
600	0.247
600	0.245
601	0.244
601	0.243
602	0.241
602	0.241
602	0.24
603	0.24
603	0.24
604	0.24
604	0.24
605	0.241
605	0.241
606	0.24
606	0.239
606	0.238
607	0.238
607	0.237
608	0.236
608	0.234
609	0.234
609	0.233
610	0.232
610	0.231
610	0.231
611	0.231
611	0.231
612	0.232
612	0.232
613	0.232
613	0.233
614	0.232
614	0.231
614	0.231
615	0.23
615	0.23
616	0.229
616	0.228
617	0.227
617	0.226
618	0.225
618	0.225
618	0.224
619	0.224
619	0.224
620	0.224
620	0.223
621	0.223
621	0.223
622	0.222
622	0.221
622	0.221
623	0.22
623	0.22
624	0.22
624	0.218
625	0.217
625	0.217
626	0.216
626	0.215
626	0.215
627	0.214
627	0.213
628	0.212
628	0.211
629	0.21
629	0.209
630	0.208
630	0.206
630	0.205
631	0.204
631	0.203
632	0.201
632	0.199
633	0.197
633	0.195
634	0.193
634	0.191
634	0.189
635	0.186
635	0.184
636	0.181
636	0.178
637	0.176
637	0.173
638	0.17
638	0.166
638	0.163
639	0.159
639	0.155
640	0.151
640	0.147
641	0.143
641	0.139
642	0.135
642	0.131
642	0.126
643	0.122
643	0.117
644	0.112
644	0.107
645	0.102
645	0.097
646	0.092
646	0.086
646	0.08
647	0.075
647	0.069
648	0.063
648	0.057
649	0.051
649	0.045
650	0.038
650	0.031
650	0.024
651	0.015
651	0.003
652	-0.01
652	-0.024
653	-0.037
653	-0.049
653	-0.046
654	-0.031
654	-0.024
655	-0.029
655	-0.035
656	-0.042
656	-0.048
657	-0.053
657	-0.057
657	-0.063
658	-0.069
658	-0.097
659	-0.173
659	-0.263
660	-0.304
660	-0.329
661	-0.356
661	-0.386
661	-0.418
662	-0.447
662	-0.479
663	-0.515
663	-0.555
664	-0.595
664	-0.644
665	-0.691
665	-0.745
665	-0.797
666	-0.849
666	-0.907
667	-0.968
667	-1.031
668	-1.1
668	-1.17
669	-1.24
669	-1.309
669	-1.381
670	-1.437
670	-1.44
671	-1.503
671	-1.819
672	-2.104
672	-2.322
672	-2.467
673	-2.57
673	-2.657
674	-2.735
674	-2.763
675	-2.791
675	-2.936
676	-3.146
676	-3.116
676	-2.901
677	-2.71
677	-2.568
678	-2.43
678	-2.228
679	-1.853
679	-1.638
680	-1.525
680	-1.434
680	-1.356
681	-1.306
681	-1.244
682	-1.204
682	-1.165
683	-1.131
683	-1.114
684	-1.093
684	-1.075
684	-1.053
685	-1.03
685	-1.008
686	-0.985
686	-0.971
687	-0.946
687	-0.936
687	-0.916
688	-0.891
688	-0.872
689	-0.851
689	-0.838
690	-0.818
690	-0.808
691	-0.802
691	-0.805
691	-0.822
692	-0.814
692	-0.806
693	-0.801
693	-0.809
694	-0.805
694	-0.799
695	-0.805
695	-0.801
695	-0.785
696	-0.783
696	-0.761
697	-0.761
697	-0.777
698	-0.781
698	-0.771
698	-0.784
699	-0.787
699	-0.785
700	-0.778
700	-0.793
701	-0.791
701	-0.799
702	-0.8
702	-0.788
702	-0.777
703	-0.772
703	-0.764
704	-0.761
704	-0.76
705	-0.771
705	-0.764
705	-0.754
706	-0.752
706	-0.748
707	-0.754
707	-0.752
708	-0.749
708	-0.744
709	-0.746
709	-0.75
709	-0.741
710	-0.751
710	-0.762
711	-0.755
711	-0.755
712	-0.753
712	-0.766
713	-0.766
713	-0.772
713	-0.763
714	-0.76
714	-0.761
715	-0.75
715	-0.737
716	-0.745
716	-0.746
716	-0.74
717	-0.74
717	-0.742
718	-0.732
718	-0.733
719	-0.742
719	-0.743
720	-0.738
720	-0.748
720	-0.74
721	-0.731
721	-0.732
722	-0.72
722	-0.709
723	-0.707
723	-0.711
723	-0.696
724	-0.699
724	-0.704
725	-0.704
725	-0.712
726	-0.724
726	-0.726
727	-0.735
727	-0.749
727	-0.755
728	-0.755
728	-0.762
729	-0.762
729	-0.765
730	-0.77
730	-0.764
730	-0.755
731	-0.739
731	-0.746
732	-0.753
732	-0.754
733	-0.754
733	-0.76
734	-0.754
734	-0.754
734	-0.742
735	-0.741
735	-0.742
736	-0.753
736	-0.74
737	-0.732
737	-0.733
737	-0.742
738	-0.736
738	-0.735
739	-0.734
739	-0.746
740	-0.744
740	-0.744
741	-0.741
741	-0.741
741	-0.745
742	-0.742
742	-0.742
743	-0.75
743	-0.755
744	-0.751
744	-0.742
744	-0.744
745	-0.75
745	-0.743
746	-0.743
746	-0.739
747	-0.741
747	-0.728
748	-0.715
748	-0.723
748	-0.724
749	-0.722
749	-0.723
750	-0.711
750	-0.713
751	-0.717
751	-0.724
751	-0.727
752	-0.732
752	-0.744
753	-0.737
753	-0.735
754	-0.74
754	-0.735
754	-0.75
755	-0.767
755	-0.777
756	-0.767
756	-0.762
757	-0.761
757	-0.755
758	-0.757
758	-0.754
758	-0.756
759	-0.763
759	-0.746
760	-0.737
760	-0.732
761	-0.742
761	-0.74
761	-0.741
762	-0.75
762	-0.75
763	-0.76
763	-0.755
764	-0.75
764	-0.759
764	-0.765
765	-0.755
765	-0.742
766	-0.75
766	-0.754
767	-0.767
767	-0.76
768	-0.751
768	-0.761
768	-0.767
769	-0.784
769	-0.786
770	-0.791
770	-0.804
771	-0.8
771	-0.804
771	-0.805
772	-0.811
772	-0.809
773	-0.81
773	-0.807
774	-0.804
774	-0.804
775	-0.806
775	-0.802
775	-0.809
776	-0.808
776	-0.799
777	-0.806
777	-0.825
778	-0.821
778	-0.842
778	-0.83
779	-0.853
779	-0.863
780	-0.876
780	-0.876
781	-0.891
781	-0.886
781	-0.9
782	-0.9
782	-0.903
783	-0.889
783	-0.886
784	-0.863
784	-0.852
784	-0.859
785	-0.865
785	-0.847
786	-0.853
786	-0.831
787	-0.818
787	-0.818
788	-0.822
788	-0.832
788	-0.847
789	-0.847
789	-0.83
790	-0.812
790	-0.815
791	-0.815
791	-0.833
791	-0.843
792	-0.837
792	-0.812
793	-0.801
793	-0.776
794	-0.78
794	-0.773
794	-0.783
795	-0.778
795	-0.77
796	-0.753
796	-0.757
797	-0.753
797	-0.764
797	-0.774
798	-0.787
798	-0.78
799	-0.791
799	-0.775
800	-0.782
800	-0.776
801	-0.781
801	-0.767
801	-0.776
802	-0.785
802	-0.783
803	-0.783
803	-0.792
804	-0.788
804	-0.798
804	-0.785
805	-0.789
805	-0.777
806	-0.78
806	-0.767
807	-0.765
807	-0.746
807	-0.733
808	-0.725
808	-0.718
809	-0.703
809	-0.712
810	-0.709
810	-0.702
810	-0.701
811	-0.706
811	-0.697
812	-0.7
812	-0.707
813	-0.712
813	-0.708
813	-0.714
814	-0.718
814	-0.723
815	-0.728
815	-0.73
816	-0.724
816	-0.729
817	-0.737
817	-0.752
817	-0.766
818	-0.772
818	-0.775
819	-0.765
819	-0.766
820	-0.776
820	-0.773
820	-0.783
821	-0.781
821	-0.768
822	-0.736
822	-0.713
823	-0.712
823	-0.716
823	-0.712
824	-0.708
824	-0.71
825	-0.702
825	-0.681
826	-0.678
826	-0.684
826	-0.695
827	-0.69
827	-0.686
828	-0.664
828	-0.666
829	-0.654
829	-0.64
829	-0.632
830	-0.644
830	-0.639
831	-0.632
831	-0.622
832	-0.618
832	-0.609
832	-0.616
833	-0.609
833	-0.611
834	-0.609
834	-0.617
835	-0.603
835	-0.599
835	-0.594
836	-0.59
836	-0.589
837	-0.586
837	-0.577
838	-0.569
838	-0.558
839	-0.544
839	-0.532
839	-0.523
840	-0.512
840	-0.508
841	-0.498
841	-0.488
842	-0.482
842	-0.471
842	-0.463
843	-0.456
843	-0.453
844	-0.443
844	-0.434
845	-0.425
845	-0.415
845	-0.401
846	-0.392
846	-0.378
847	-0.369
847	-0.358
848	-0.346
848	-0.334
848	-0.318
849	-0.309
849	-0.297
850	-0.283
850	-0.278
851	-0.268
851	-0.256
851	-0.246
852	-0.232
852	-0.22
853	-0.21
853	-0.203
854	-0.191
854	-0.179
854	-0.168
855	-0.155
855	-0.148
856	-0.136
856	-0.126
857	-0.119
857	-0.11
857	-0.097
858	-0.086
858	-0.079
859	-0.071
859	-0.06
860	-0.05
860	-0.037
860	-0.029
861	-0.02
861	-0.011
862	-0.004
862	0.003
863	0.01
863	0.019
863	0.024
864	0.029
864	0.035
865	0.04
865	0.045
866	0.049
866	0.052
866	0.056
867	0.059
867	0.063
868	0.066
868	0.07
869	0.073
869	0.075
869	0.077
870	0.079
870	0.081
871	0.083
871	0.084
872	0.084
872	0.085
872	0.085
873	0.085
873	0.084
874	0.083
874	0.082
875	0.081
875	0.08
875	0.079
876	0.078
876	0.077
877	0.075
877	0.074
878	0.072
878	0.071
878	0.07
879	0.069
879	0.068
880	0.067
880	0.067
881	0.067
881	0.067
881	0.067
882	0.067
882	0.066
883	0.065
883	0.065
884	0.065
884	0.064
884	0.064
885	0.063
885	0.063
886	0.063
886	0.063
887	0.062
887	0.062
887	0.063
888	0.063
888	0.063
889	0.063
889	0.063
890	0.063
890	0.062
890	0.061
891	0.061
891	0.061
892	0.062
892	0.063
893	0.063
893	0.064
893	0.065
894	0.066
894	0.067
895	0.068
895	0.068
895	0.069
896	0.069
896	0.068
897	0.067
897	0.066
898	0.065
898	0.064
898	0.063
899	0.063
899	0.062
900	0.062
900	0.061
901	0.062
901	0.062
901	0.063
902	0.064
902	0.066
903	0.067
903	0.069
904	0.07
904	0.072
904	0.073
905	0.075
905	0.075
906	0.076
906	0.076
907	0.077
907	0.077
907	0.077
908	0.077
908	0.076
909	0.076
909	0.075
910	0.075
910	0.074
910	0.074
911	0.074
911	0.074
912	0.075
912	0.075
913	0.075
913	0.075
913	0.075
914	0.075
914	0.074
915	0.074
915	0.073
916	0.073
916	0.072
916	0.071
917	0.07
917	0.07
918	0.069
918	0.068
918	0.068
919	0.067
919	0.067
920	0.067
920	0.066
921	0.067
921	0.067
921	0.067
922	0.067
922	0.068
923	0.069
923	0.07
924	0.07
924	0.071
924	0.072
925	0.072
925	0.072
926	0.072
926	0.072
927	0.072
927	0.071
927	0.07
928	0.069
928	0.068
929	0.067
929	0.066
930	0.065
930	0.064
930	0.063
931	0.063
931	0.063
932	0.063
932	0.062
933	0.062
933	0.061
933	0.06
934	0.059
934	0.058
935	0.057
935	0.056
935	0.055
936	0.053
936	0.052
937	0.051
937	0.051
938	0.05
938	0.051
938	0.051
939	0.051
939	0.052
940	0.053
940	0.053
941	0.054
941	0.055
941	0.056
942	0.056
942	0.056
943	0.056
943	0.056
944	0.056
944	0.055
944	0.055
945	0.055
945	0.054
946	0.053
946	0.052
946	0.052
947	0.052
947	0.051
948	0.051
948	0.051
949	0.05
949	0.05
949	0.05
950	0.05
950	0.049
951	0.05
951	0.049
952	0.049
952	0.049
952	0.049
953	0.049
953	0.049
954	0.048
954	0.047
955	0.047
955	0.047
955	0.047
956	0.048
956	0.048
957	0.048
957	0.049
957	0.05
958	0.05
958	0.052
959	0.052
959	0.053
960	0.053
960	0.054
960	0.054
961	0.054
961	0.054
962	0.053
962	0.053
963	0.053
963	0.052
963	0.052
964	0.052
964	0.052
965	0.052
965	0.051
966	0.051
966	0.051
966	0.051
967	0.051
967	0.051
968	0.051
968	0.051
968	0.051
969	0.051
969	0.052
970	0.052
970	0.053
971	0.054
971	0.055
971	0.055
972	0.056
972	0.056
973	0.056
973	0.055
974	0.055
974	0.054
974	0.053
975	0.052
975	0.051
976	0.049
976	0.048
976	0.047
977	0.046
977	0.045
978	0.044
978	0.043
979	0.042
979	0.041
979	0.04
980	0.039
980	0.039
981	0.039
981	0.038
982	0.038
982	0.037
982	0.037
983	0.037
983	0.037
984	0.037
984	0.037
984	0.038
985	0.039
985	0.039
986	0.04
986	0.04
987	0.041
987	0.041
987	0.042
988	0.042
988	0.041
989	0.041
989	0.04
990	0.04
990	0.039
990	0.038
991	0.038
991	0.038
992	0.038
992	0.038
992	0.038
993	0.039
993	0.039
994	0.04
994	0.041
995	0.041
995	0.042
995	0.042
996	0.042
996	0.042
997	0.042
997	0.042
997	0.042
998	0.042
998	0.042
999	0.043
999	0.043
1000	0.043
1000	0.043
1000	0.043
1001	0.043
1001	0.043
1002	0.043
1002	0.042
1003	0.042
1003	0.041
1003	0.039
1004	0.038
1004	0.036
1005	0.035
1005	0.033
1005	0.031
1006	0.03
1006	0.029
1007	0.027
1007	0.027
1008	0.026
1008	0.025
1008	0.025
1009	0.026
1009	0.026
1010	0.027
1010	0.027
1010	0.028
1011	0.028
1011	0.029
1012	0.029
1012	0.029
1013	0.029
1013	0.029
1013	0.029
1014	0.029
1014	0.028
1015	0.028
1015	0.028
1016	0.028
1016	0.028
1016	0.028
1017	0.028
1017	0.028
1018	0.028
1018	0.028
1018	0.028
1019	0.028
1019	0.027
1020	0.027
1020	0.026
1021	0.026
1021	0.025
1021	0.024
1022	0.023
1022	0.022
1023	0.022
1023	0.021
1023	0.021
1024	0.02
1024	0.02
1025	0.02
1025	0.02
1026	0.02
1026	0.021
1026	0.021
1027	0.022
1027	0.022
1028	0.023
1028	0.023
1028	0.023
1029	0.024
1029	0.024
1030	0.024
1030	0.023
1031	0.023
1031	0.023
1031	0.023
1032	0.022
1032	0.022
1033	0.022
1033	0.022
1033	0.022
1034	0.021
1034	0.021
1035	0.021
1035	0.021
1036	0.02
1036	0.02
1036	0.02
1037	0.02
1037	0.02
1038	0.02
1038	0.02
1039	0.021
1039	0.021
1039	0.021
1040	0.022
1040	0.023
1041	0.024
1041	0.024
1041	0.025
1042	0.025
1042	0.026
1043	0.026
1043	0.026
1044	0.025
1044	0.025
1044	0.025
1045	0.025
1045	0.025
1046	0.024
1046	0.025
1046	0.025
1047	0.026
1047	0.027
1048	0.028
1048	0.029
1049	0.029
1049	0.03
1049	0.031
1050	0.031
1050	0.031
1051	0.031
1051	0.031
1051	0.031
1052	0.031
1052	0.03
1053	0.03
1053	0.029
1053	0.028
1054	0.027
1054	0.026
1055	0.025
1055	0.024
1056	0.022
1056	0.021
1056	0.019
1057	0.017
1057	0.016
1058	0.015
1058	0.014
1058	0.013
1059	0.012
1059	0.01
1060	0.009
1060	0.008
1061	0.008
1061	0.008
1061	0.008
1062	0.007
1062	0.007
1063	0.007
1063	0.007
1063	0.007
1064	0.007
1064	0.007
1065	0.007
1065	0.007
1066	0.007
1066	0.007
1066	0.007
1067	0.008
1067	0.008
1068	0.007
1068	0.007
1068	0.007
1069	0.006
1069	0.006
1070	0.006
1070	0.006
1071	0.005
1071	0.005
1071	0.004
1072	0.004
1072	0.004
1073	0.004
1073	0.004
1073	0.004
1074	0.004
1074	0.005
1075	0.004
1075	0.004
1076	0.003
1076	0.003
1076	0.002
1077	0.002
1077	0.001
1078	-0.001
1078	-0.001
1078	-0.003
1079	-0.004
1079	-0.004
1080	-0.005
1080	-0.006
1080	-0.008
1081	-0.009
1081	-0.009
1082	-0.01
1082	-0.011
1083	-0.012
1083	-0.013
1083	-0.013
1084	-0.014
1084	-0.015
1085	-0.016
1085	-0.016
1085	-0.016
1086	-0.017
1086	-0.018
1087	-0.017
1087	-0.017
1088	-0.018
1088	-0.018
1088	-0.019
1089	-0.019
1089	-0.02
1090	-0.021
1090	-0.021
1090	-0.021
1091	-0.022
1091	-0.022
1092	-0.023
1092	-0.022
1092	-0.023
1093	-0.023
1093	-0.022
1094	-0.022
1094	-0.022
1095	-0.023
1095	-0.023
1095	-0.023
1096	-0.024
1096	-0.025
1097	-0.025
1097	-0.027
1097	-0.027
1098	-0.029
1098	-0.031
1099	-0.032
1099	-0.034
1100	-0.036
1100	-0.037
1100	-0.04
1101	-0.042
1101	-0.045
1102	-0.047
1102	-0.049
1102	-0.05
1103	-0.052
1103	-0.055
1104	-0.058
1104	-0.06
1104	-0.063
1105	-0.066
1105	-0.068
1106	-0.074
1106	-0.076
1107	-0.081
1107	-0.086
1107	-0.091
1108	-0.093
1108	-0.095
1109	-0.099
1109	-0.102
1109	-0.105
1110	-0.106
1110	-0.109
1111	-0.114
1111	-0.113
