Data from 17C_3.4A_35min_2sec_int_Absorbance__242__04327.txt Node

Date: Mon Jun 19 19:51:17 CEST 2023
User: Marek
Spectrometer: MAYP115816
Trigger mode: 0
Integration Time (sec): 2.500000E-1
Scans to average: 10
Electric dark correction enabled: true
Nonlinearity correction enabled: true
Boxcar width: 5
XAxis mode: Wavelengths
Number of Pixels in Spectrum: 2068
>>>>>Begin Spectral Data<<<<<
199	-0.754
199	-0.765
200	-0.672
200	-0.619
201	-0.581
201	-0.567
202	-0.549
202	-0.534
203	-0.525
203	-0.522
204	-0.507
204	-0.494
205	-0.47
205	-0.464
205	-0.462
206	-0.465
206	-0.467
207	-0.46
207	-0.463
208	-0.466
208	-0.464
209	-0.458
209	-0.46
210	-0.464
210	-0.47
211	-0.472
211	-0.473
212	-0.477
212	-0.483
213	-0.483
213	-0.482
213	-0.487
214	-0.482
214	-0.481
215	-0.481
215	-0.486
216	-0.489
216	-0.498
217	-0.493
217	-0.499
218	-0.499
218	-0.501
219	-0.504
219	-0.516
220	-0.52
220	-0.532
221	-0.532
221	-0.534
221	-0.526
222	-0.523
222	-0.523
223	-0.527
223	-0.53
224	-0.536
224	-0.536
225	-0.531
225	-0.525
226	-0.529
226	-0.531
227	-0.537
227	-0.545
228	-0.545
228	-0.548
229	-0.55
229	-0.542
229	-0.536
230	-0.542
230	-0.544
231	-0.54
231	-0.53
232	-0.525
232	-0.523
233	-0.517
233	-0.514
234	-0.512
234	-0.509
235	-0.51
235	-0.515
236	-0.512
236	-0.514
236	-0.522
237	-0.528
237	-0.53
238	-0.539
238	-0.538
239	-0.538
239	-0.546
240	-0.546
240	-0.544
241	-0.55
241	-0.547
242	-0.55
242	-0.547
243	-0.543
243	-0.543
243	-0.55
244	-0.55
244	-0.551
245	-0.566
245	-0.566
246	-0.571
246	-0.58
247	-0.581
247	-0.584
248	-0.59
248	-0.588
249	-0.594
249	-0.603
250	-0.6
250	-0.595
250	-0.594
251	-0.59
251	-0.588
252	-0.59
252	-0.58
253	-0.585
253	-0.597
254	-0.592
254	-0.589
255	-0.596
255	-0.589
256	-0.588
256	-0.599
257	-0.595
257	-0.595
258	-0.613
258	-0.61
258	-0.606
259	-0.605
259	-0.614
260	-0.616
260	-0.62
261	-0.629
261	-0.621
262	-0.619
262	-0.618
263	-0.605
263	-0.6
264	-0.599
264	-0.606
265	-0.6
265	-0.607
265	-0.612
266	-0.61
266	-0.606
267	-0.62
267	-0.626
268	-0.642
268	-0.651
269	-0.649
269	-0.643
270	-0.65
270	-0.655
271	-0.653
271	-0.659
272	-0.664
272	-0.655
272	-0.65
273	-0.648
273	-0.657
274	-0.662
274	-0.665
275	-0.666
275	-0.659
276	-0.665
276	-0.657
277	-0.664
277	-0.684
278	-0.696
278	-0.689
278	-0.682
279	-0.685
279	-0.697
280	-0.69
280	-0.688
281	-0.679
281	-0.685
282	-0.675
282	-0.673
283	-0.661
283	-0.666
284	-0.662
284	-0.653
285	-0.647
285	-0.646
285	-0.643
286	-0.656
286	-0.651
287	-0.649
287	-0.634
288	-0.627
288	-0.635
289	-0.646
289	-0.654
290	-0.641
290	-0.641
291	-0.638
291	-0.629
292	-0.631
292	-0.638
292	-0.642
293	-0.647
293	-0.635
294	-0.625
294	-0.615
295	-0.613
295	-0.611
296	-0.609
296	-0.608
297	-0.603
297	-0.586
298	-0.58
298	-0.588
298	-0.576
299	-0.57
299	-0.572
300	-0.57
300	-0.564
301	-0.559
301	-0.555
302	-0.563
302	-0.573
303	-0.559
303	-0.543
304	-0.546
304	-0.545
305	-0.547
305	-0.544
305	-0.541
306	-0.528
306	-0.524
307	-0.51
307	-0.513
308	-0.528
308	-0.527
309	-0.53
309	-0.519
310	-0.507
310	-0.503
311	-0.495
311	-0.503
311	-0.498
312	-0.494
312	-0.489
313	-0.474
313	-0.477
314	-0.475
314	-0.476
315	-0.476
315	-0.475
316	-0.472
316	-0.462
317	-0.455
317	-0.451
318	-0.441
318	-0.439
318	-0.433
319	-0.42
319	-0.417
320	-0.411
320	-0.409
321	-0.413
321	-0.412
322	-0.407
322	-0.4
323	-0.4
323	-0.392
324	-0.383
324	-0.375
324	-0.365
325	-0.355
325	-0.337
326	-0.323
326	-0.304
327	-0.287
327	-0.264
328	-0.234
328	-0.212
329	-0.187
329	-0.159
330	-0.127
330	-0.09
330	-0.059
331	-0.024
331	0.007
332	0.038
332	0.066
333	0.092
333	0.121
334	0.146
334	0.168
335	0.189
335	0.208
336	0.226
336	0.243
336	0.257
337	0.272
337	0.283
338	0.294
338	0.302
339	0.312
339	0.32
340	0.326
340	0.333
341	0.338
341	0.342
342	0.347
342	0.351
342	0.355
343	0.358
343	0.363
344	0.365
344	0.366
345	0.368
345	0.37
346	0.371
346	0.372
347	0.373
347	0.374
348	0.375
348	0.376
348	0.376
349	0.376
349	0.377
350	0.378
350	0.378
351	0.378
351	0.378
352	0.378
352	0.378
353	0.378
353	0.378
354	0.378
354	0.378
354	0.377
355	0.377
355	0.377
356	0.377
356	0.376
357	0.376
357	0.375
358	0.375
358	0.375
359	0.374
359	0.374
360	0.374
360	0.374
360	0.373
361	0.373
361	0.373
362	0.373
362	0.373
363	0.372
363	0.372
364	0.372
364	0.371
365	0.371
365	0.371
366	0.371
366	0.37
366	0.37
367	0.37
367	0.369
368	0.369
368	0.369
369	0.368
369	0.368
370	0.368
370	0.367
371	0.367
371	0.367
372	0.366
372	0.366
372	0.366
373	0.366
373	0.365
374	0.365
374	0.365
375	0.364
375	0.364
376	0.364
376	0.364
377	0.363
377	0.363
378	0.362
378	0.362
378	0.362
379	0.361
379	0.361
380	0.36
380	0.36
381	0.359
381	0.359
382	0.358
382	0.358
383	0.357
383	0.357
383	0.356
384	0.356
384	0.356
385	0.355
385	0.355
386	0.355
386	0.354
387	0.354
387	0.354
388	0.354
388	0.353
389	0.353
389	0.353
389	0.353
390	0.352
390	0.352
391	0.352
391	0.351
392	0.351
392	0.35
393	0.35
393	0.349
394	0.349
394	0.349
394	0.348
395	0.348
395	0.347
396	0.347
396	0.346
397	0.346
397	0.346
398	0.345
398	0.345
399	0.345
399	0.345
400	0.344
400	0.344
400	0.343
401	0.343
401	0.343
402	0.342
402	0.342
403	0.342
403	0.341
404	0.341
404	0.34
405	0.34
405	0.34
405	0.339
406	0.339
406	0.339
407	0.338
407	0.338
408	0.338
408	0.338
409	0.337
409	0.337
410	0.337
410	0.337
411	0.337
411	0.337
411	0.336
412	0.336
412	0.336
413	0.336
413	0.335
414	0.335
414	0.335
415	0.334
415	0.334
416	0.334
416	0.334
416	0.333
417	0.333
417	0.333
418	0.333
418	0.333
419	0.332
419	0.332
420	0.332
420	0.332
421	0.332
421	0.332
421	0.332
422	0.332
422	0.332
423	0.332
423	0.331
424	0.331
424	0.33
425	0.33
425	0.33
426	0.33
426	0.329
427	0.329
427	0.328
427	0.328
428	0.328
428	0.328
429	0.328
429	0.327
430	0.327
430	0.327
431	0.327
431	0.327
432	0.327
432	0.326
432	0.326
433	0.326
433	0.326
434	0.326
434	0.326
435	0.326
435	0.326
436	0.326
436	0.326
437	0.326
437	0.326
437	0.326
438	0.326
438	0.326
439	0.326
439	0.326
440	0.325
440	0.325
441	0.325
441	0.325
442	0.325
442	0.325
442	0.325
443	0.325
443	0.325
444	0.325
444	0.325
445	0.325
445	0.325
446	0.326
446	0.326
447	0.326
447	0.326
447	0.326
448	0.326
448	0.326
449	0.326
449	0.327
450	0.327
450	0.327
451	0.327
451	0.327
452	0.327
452	0.328
452	0.328
453	0.328
453	0.328
454	0.328
454	0.327
455	0.328
455	0.328
456	0.328
456	0.328
457	0.328
457	0.328
458	0.328
458	0.329
458	0.329
459	0.329
459	0.329
460	0.329
460	0.33
461	0.33
461	0.33
462	0.331
462	0.331
463	0.331
463	0.332
463	0.332
464	0.333
464	0.333
465	0.334
465	0.334
466	0.335
466	0.336
467	0.336
467	0.337
467	0.337
468	0.338
468	0.338
469	0.339
469	0.34
470	0.341
470	0.341
471	0.342
471	0.342
472	0.343
472	0.344
472	0.345
473	0.346
473	0.347
474	0.347
474	0.348
475	0.349
475	0.35
476	0.351
476	0.352
477	0.352
477	0.353
477	0.354
478	0.355
478	0.356
479	0.358
479	0.359
480	0.36
480	0.361
481	0.363
481	0.364
482	0.366
482	0.367
482	0.368
483	0.37
483	0.372
484	0.373
484	0.374
485	0.375
485	0.376
486	0.378
486	0.379
487	0.381
487	0.383
487	0.384
488	0.386
488	0.388
489	0.391
489	0.394
490	0.396
490	0.398
491	0.401
491	0.403
492	0.405
492	0.407
492	0.41
493	0.412
493	0.415
494	0.417
494	0.42
495	0.422
495	0.425
496	0.427
496	0.43
496	0.433
497	0.436
497	0.439
498	0.442
498	0.445
499	0.447
499	0.451
500	0.454
500	0.458
501	0.461
501	0.464
501	0.466
502	0.469
502	0.473
503	0.476
503	0.479
504	0.482
504	0.486
505	0.489
505	0.492
506	0.495
506	0.498
506	0.501
507	0.504
507	0.508
508	0.511
508	0.514
509	0.518
509	0.521
510	0.524
510	0.528
511	0.531
511	0.534
511	0.537
512	0.541
512	0.544
513	0.547
513	0.549
514	0.552
514	0.556
515	0.558
515	0.561
515	0.564
516	0.567
516	0.57
517	0.573
517	0.575
518	0.577
518	0.58
519	0.582
519	0.584
520	0.586
520	0.589
520	0.591
521	0.593
521	0.594
522	0.596
522	0.598
523	0.6
523	0.602
524	0.603
524	0.604
524	0.605
525	0.605
525	0.606
526	0.607
526	0.607
527	0.608
527	0.608
528	0.608
528	0.609
529	0.609
529	0.609
529	0.609
530	0.61
530	0.609
531	0.609
531	0.608
532	0.607
532	0.606
533	0.605
533	0.604
533	0.603
534	0.601
534	0.599
535	0.598
535	0.596
536	0.594
536	0.591
537	0.589
537	0.587
538	0.584
538	0.582
538	0.58
539	0.578
539	0.576
540	0.573
540	0.57
541	0.567
541	0.565
542	0.562
542	0.559
542	0.555
543	0.552
543	0.549
544	0.545
544	0.542
545	0.539
545	0.535
546	0.532
546	0.528
547	0.524
547	0.521
547	0.517
548	0.514
548	0.511
549	0.507
549	0.504
550	0.5
550	0.497
551	0.493
551	0.49
551	0.486
552	0.483
552	0.48
553	0.476
553	0.473
554	0.469
554	0.465
555	0.462
555	0.458
556	0.454
556	0.45
556	0.447
557	0.443
557	0.439
558	0.435
558	0.431
559	0.427
559	0.423
560	0.418
560	0.414
560	0.411
561	0.407
561	0.404
562	0.4
562	0.396
563	0.392
563	0.389
564	0.386
564	0.382
564	0.379
565	0.377
565	0.373
566	0.37
566	0.366
567	0.363
567	0.359
568	0.356
568	0.352
568	0.348
569	0.345
569	0.341
570	0.337
570	0.333
571	0.33
571	0.327
572	0.324
572	0.321
573	0.317
573	0.314
573	0.311
574	0.308
574	0.306
575	0.303
575	0.301
576	0.298
576	0.295
577	0.292
577	0.29
577	0.288
578	0.286
578	0.284
579	0.283
579	0.281
580	0.277
580	0.274
581	0.271
581	0.268
581	0.267
582	0.265
582	0.263
583	0.261
583	0.259
584	0.255
584	0.252
585	0.251
585	0.249
585	0.247
586	0.245
586	0.243
587	0.241
587	0.239
588	0.236
588	0.235
589	0.233
589	0.231
590	0.23
590	0.228
590	0.227
591	0.225
591	0.222
592	0.22
592	0.218
593	0.217
593	0.215
594	0.213
594	0.211
594	0.21
595	0.209
595	0.207
596	0.205
596	0.205
597	0.204
597	0.202
598	0.2
598	0.199
598	0.197
599	0.196
599	0.194
600	0.192
600	0.19
601	0.188
601	0.187
602	0.184
602	0.183
602	0.181
603	0.181
603	0.18
604	0.18
604	0.179
605	0.179
605	0.178
606	0.177
606	0.175
606	0.174
607	0.172
607	0.171
608	0.17
608	0.167
609	0.166
609	0.165
610	0.164
610	0.163
610	0.162
611	0.162
611	0.162
612	0.162
612	0.162
613	0.162
613	0.161
614	0.16
614	0.158
614	0.157
615	0.156
615	0.154
616	0.153
616	0.152
617	0.15
617	0.148
618	0.147
618	0.145
618	0.144
619	0.144
619	0.144
620	0.143
620	0.142
621	0.141
621	0.14
622	0.139
622	0.139
622	0.137
623	0.136
623	0.136
624	0.135
624	0.134
625	0.133
625	0.133
626	0.132
626	0.131
626	0.131
627	0.13
627	0.129
628	0.129
628	0.127
629	0.126
629	0.125
630	0.123
630	0.121
630	0.12
631	0.119
631	0.117
632	0.115
632	0.113
633	0.112
633	0.11
634	0.109
634	0.107
634	0.105
635	0.103
635	0.101
636	0.099
636	0.097
637	0.094
637	0.092
638	0.089
638	0.086
638	0.083
639	0.079
639	0.076
640	0.073
640	0.07
641	0.067
641	0.063
642	0.06
642	0.056
642	0.053
643	0.049
643	0.045
644	0.041
644	0.036
645	0.032
645	0.028
646	0.023
646	0.018
646	0.013
647	0.009
647	0.004
648	-0.001
648	-0.006
649	-0.011
649	-0.016
650	-0.021
650	-0.027
650	-0.033
651	-0.04
651	-0.05
652	-0.06
652	-0.07
653	-0.079
653	-0.088
653	-0.084
654	-0.072
654	-0.069
655	-0.073
655	-0.077
656	-0.081
656	-0.086
657	-0.088
657	-0.091
657	-0.096
658	-0.1
658	-0.122
659	-0.183
659	-0.251
660	-0.283
660	-0.303
661	-0.325
661	-0.348
661	-0.375
662	-0.399
662	-0.423
663	-0.452
663	-0.484
664	-0.515
664	-0.555
665	-0.593
665	-0.64
665	-0.683
666	-0.728
666	-0.778
667	-0.832
667	-0.887
668	-0.95
668	-1.015
669	-1.081
669	-1.147
669	-1.216
670	-1.272
670	-1.295
671	-1.475
671	-1.873
672	-2.139
672	-2.348
672	-2.488
673	-2.588
673	-2.673
674	-2.701
674	-2.717
675	-2.742
675	-2.885
676	-3.085
676	-3.03
676	-2.798
677	-2.581
677	-2.395
678	-2.169
678	-1.68
679	-1.436
679	-1.319
680	-1.236
680	-1.164
680	-1.104
681	-1.069
681	-1.02
682	-0.992
682	-0.962
683	-0.935
683	-0.929
684	-0.917
684	-0.907
684	-0.896
685	-0.88
685	-0.867
686	-0.849
686	-0.84
687	-0.82
687	-0.818
687	-0.804
688	-0.783
688	-0.77
689	-0.753
689	-0.743
690	-0.727
690	-0.719
691	-0.717
691	-0.726
691	-0.743
692	-0.738
692	-0.733
693	-0.729
693	-0.738
694	-0.736
694	-0.73
695	-0.739
695	-0.737
695	-0.723
696	-0.721
696	-0.699
697	-0.701
697	-0.718
698	-0.721
698	-0.715
698	-0.73
699	-0.734
699	-0.733
700	-0.728
700	-0.744
701	-0.744
701	-0.752
702	-0.753
702	-0.742
702	-0.736
703	-0.73
703	-0.723
704	-0.721
704	-0.722
705	-0.733
705	-0.728
705	-0.718
706	-0.719
706	-0.715
707	-0.719
707	-0.714
708	-0.712
708	-0.703
709	-0.706
709	-0.706
709	-0.698
710	-0.707
710	-0.717
711	-0.71
711	-0.712
712	-0.711
712	-0.726
713	-0.726
713	-0.735
713	-0.726
714	-0.723
714	-0.724
715	-0.715
715	-0.701
716	-0.709
716	-0.711
716	-0.705
717	-0.708
717	-0.712
718	-0.701
718	-0.703
719	-0.71
719	-0.712
720	-0.707
720	-0.716
720	-0.707
721	-0.698
721	-0.695
722	-0.682
722	-0.67
723	-0.672
723	-0.676
723	-0.664
724	-0.667
724	-0.672
725	-0.671
725	-0.682
726	-0.694
726	-0.702
727	-0.707
727	-0.72
727	-0.726
728	-0.725
728	-0.733
729	-0.735
729	-0.738
730	-0.745
730	-0.738
730	-0.728
731	-0.711
731	-0.723
732	-0.73
732	-0.731
733	-0.732
733	-0.737
734	-0.73
734	-0.731
734	-0.719
735	-0.718
735	-0.718
736	-0.729
736	-0.715
737	-0.707
737	-0.708
737	-0.719
738	-0.713
738	-0.714
739	-0.713
739	-0.726
740	-0.725
740	-0.727
741	-0.723
741	-0.723
741	-0.727
742	-0.725
742	-0.722
743	-0.73
743	-0.735
744	-0.731
744	-0.721
744	-0.724
745	-0.731
745	-0.724
746	-0.723
746	-0.719
747	-0.722
747	-0.711
748	-0.699
748	-0.705
748	-0.709
749	-0.707
749	-0.707
750	-0.697
750	-0.698
751	-0.701
751	-0.711
751	-0.713
752	-0.716
752	-0.726
753	-0.72
753	-0.715
754	-0.719
754	-0.713
754	-0.726
755	-0.742
755	-0.754
756	-0.742
756	-0.739
757	-0.737
757	-0.732
758	-0.734
758	-0.729
758	-0.733
759	-0.739
759	-0.723
760	-0.714
760	-0.71
761	-0.721
761	-0.717
761	-0.718
762	-0.724
762	-0.722
763	-0.733
763	-0.731
764	-0.73
764	-0.738
764	-0.744
765	-0.735
765	-0.723
766	-0.731
766	-0.738
767	-0.753
767	-0.747
768	-0.74
768	-0.746
768	-0.752
769	-0.77
769	-0.772
770	-0.776
770	-0.788
771	-0.787
771	-0.79
771	-0.791
772	-0.795
772	-0.792
773	-0.792
773	-0.786
774	-0.784
774	-0.784
775	-0.785
775	-0.779
775	-0.785
776	-0.783
776	-0.772
777	-0.78
777	-0.8
778	-0.797
778	-0.818
778	-0.806
779	-0.827
779	-0.837
780	-0.851
780	-0.85
781	-0.863
781	-0.86
781	-0.877
782	-0.877
782	-0.879
783	-0.865
783	-0.866
784	-0.845
784	-0.834
784	-0.843
785	-0.85
785	-0.834
786	-0.839
786	-0.818
787	-0.805
787	-0.808
788	-0.811
788	-0.82
788	-0.834
789	-0.834
789	-0.817
790	-0.798
790	-0.801
791	-0.802
791	-0.817
791	-0.823
792	-0.817
792	-0.793
793	-0.782
793	-0.758
794	-0.762
794	-0.757
794	-0.766
795	-0.761
795	-0.754
796	-0.737
796	-0.745
797	-0.738
797	-0.753
797	-0.761
798	-0.775
798	-0.768
799	-0.777
799	-0.76
800	-0.768
800	-0.758
801	-0.765
801	-0.75
801	-0.761
802	-0.767
802	-0.766
803	-0.767
803	-0.78
804	-0.775
804	-0.786
804	-0.775
805	-0.782
805	-0.772
806	-0.775
806	-0.76
807	-0.757
807	-0.739
807	-0.724
808	-0.712
808	-0.706
809	-0.692
809	-0.701
810	-0.699
810	-0.69
810	-0.687
811	-0.693
811	-0.686
812	-0.69
812	-0.697
813	-0.701
813	-0.696
813	-0.702
814	-0.703
814	-0.707
815	-0.713
815	-0.716
816	-0.71
816	-0.714
817	-0.721
817	-0.735
817	-0.752
818	-0.76
818	-0.764
819	-0.756
819	-0.757
820	-0.768
820	-0.763
820	-0.776
821	-0.773
821	-0.761
822	-0.729
822	-0.702
823	-0.7
823	-0.703
823	-0.701
824	-0.695
824	-0.696
825	-0.689
825	-0.667
826	-0.661
826	-0.668
826	-0.679
827	-0.675
827	-0.671
828	-0.65
828	-0.649
829	-0.638
829	-0.624
829	-0.62
830	-0.632
830	-0.631
831	-0.625
831	-0.614
832	-0.614
832	-0.604
832	-0.612
833	-0.608
833	-0.61
834	-0.608
834	-0.614
835	-0.601
835	-0.597
835	-0.592
836	-0.59
836	-0.588
837	-0.587
837	-0.578
838	-0.57
838	-0.558
839	-0.547
839	-0.535
839	-0.525
840	-0.513
840	-0.51
841	-0.499
841	-0.489
842	-0.483
842	-0.472
842	-0.464
843	-0.458
843	-0.453
844	-0.443
844	-0.436
845	-0.429
845	-0.418
845	-0.405
846	-0.396
846	-0.382
847	-0.371
847	-0.36
848	-0.349
848	-0.338
848	-0.324
849	-0.314
849	-0.302
850	-0.29
850	-0.286
851	-0.277
851	-0.267
851	-0.259
852	-0.244
852	-0.233
853	-0.225
853	-0.219
854	-0.208
854	-0.197
854	-0.186
855	-0.176
855	-0.17
856	-0.161
856	-0.153
857	-0.149
857	-0.141
857	-0.13
858	-0.121
858	-0.115
859	-0.108
859	-0.098
860	-0.09
860	-0.079
860	-0.072
861	-0.064
861	-0.056
862	-0.05
862	-0.043
863	-0.037
863	-0.029
863	-0.024
864	-0.02
864	-0.015
865	-0.01
865	-0.006
866	-0.002
866	0.001
866	0.005
867	0.007
867	0.01
868	0.012
868	0.015
869	0.018
869	0.019
869	0.021
870	0.023
870	0.025
871	0.027
871	0.029
872	0.031
872	0.032
872	0.033
873	0.034
873	0.034
874	0.034
874	0.034
875	0.033
875	0.032
875	0.031
876	0.03
876	0.029
877	0.027
877	0.026
878	0.024
878	0.023
878	0.021
879	0.019
879	0.018
880	0.018
880	0.018
881	0.018
881	0.018
881	0.018
882	0.017
882	0.016
883	0.015
883	0.014
884	0.013
884	0.012
884	0.011
885	0.011
885	0.01
886	0.01
886	0.01
887	0.009
887	0.01
887	0.01
888	0.011
888	0.011
889	0.012
889	0.013
890	0.013
890	0.013
890	0.013
891	0.014
891	0.014
892	0.015
892	0.015
893	0.015
893	0.015
893	0.015
894	0.015
894	0.014
895	0.014
895	0.014
895	0.014
896	0.014
896	0.013
897	0.012
897	0.011
898	0.01
898	0.009
898	0.009
899	0.01
899	0.01
900	0.01
900	0.011
901	0.011
901	0.012
901	0.013
902	0.014
902	0.015
903	0.016
903	0.017
904	0.017
904	0.017
904	0.018
905	0.018
905	0.018
906	0.019
906	0.019
907	0.019
907	0.018
907	0.018
908	0.018
908	0.017
909	0.017
909	0.016
910	0.016
910	0.016
910	0.015
911	0.016
911	0.016
912	0.017
912	0.017
913	0.018
913	0.019
913	0.02
914	0.021
914	0.022
915	0.022
915	0.023
916	0.023
916	0.023
916	0.023
917	0.023
917	0.023
918	0.023
918	0.023
918	0.022
919	0.022
919	0.022
920	0.022
920	0.022
921	0.022
921	0.021
921	0.021
922	0.021
922	0.021
923	0.02
923	0.02
924	0.02
924	0.019
924	0.018
925	0.018
925	0.017
926	0.016
926	0.015
927	0.015
927	0.014
927	0.014
928	0.014
928	0.014
929	0.014
929	0.013
930	0.013
930	0.013
930	0.012
931	0.012
931	0.012
932	0.011
932	0.011
933	0.01
933	0.009
933	0.008
934	0.007
934	0.006
935	0.005
935	0.004
935	0.003
936	0.002
936	0.001
937	0
937	-0
938	-0
938	-0
938	-0
939	0
939	0.001
940	0.001
940	0.002
941	0.003
941	0.003
941	0.005
942	0.005
942	0.006
943	0.006
943	0.007
944	0.006
944	0.006
944	0.006
945	0.006
945	0.004
946	0.004
946	0.002
946	0.002
947	0.001
947	0.001
948	0
948	0
949	0
949	0.001
949	0.001
950	0.001
950	0.001
951	0.003
951	0.003
952	0.004
952	0.005
952	0.005
953	0.006
953	0.007
954	0.008
954	0.009
955	0.01
955	0.011
955	0.012
956	0.013
956	0.014
957	0.014
957	0.015
957	0.015
958	0.016
958	0.017
959	0.017
959	0.018
960	0.018
960	0.018
960	0.019
961	0.019
961	0.019
962	0.019
962	0.019
963	0.02
963	0.019
963	0.019
964	0.019
964	0.019
965	0.019
965	0.019
966	0.019
966	0.019
966	0.019
967	0.019
967	0.019
968	0.018
968	0.018
968	0.017
969	0.017
969	0.017
970	0.016
970	0.016
971	0.016
971	0.016
971	0.016
972	0.016
972	0.016
973	0.017
973	0.016
974	0.016
974	0.017
974	0.017
975	0.017
975	0.017
976	0.016
976	0.016
976	0.016
977	0.015
977	0.015
978	0.016
978	0.016
979	0.016
979	0.015
979	0.015
980	0.015
980	0.015
981	0.014
981	0.014
982	0.014
982	0.014
982	0.014
983	0.013
983	0.013
984	0.013
984	0.013
984	0.013
985	0.014
985	0.014
986	0.013
986	0.013
987	0.013
987	0.012
987	0.012
988	0.011
988	0.01
989	0.009
989	0.008
990	0.007
990	0.007
990	0.006
991	0.006
991	0.005
992	0.005
992	0.005
992	0.004
993	0.004
993	0.004
994	0.004
994	0.004
995	0.004
995	0.004
995	0.003
996	0.003
996	0.002
997	0.002
997	0.002
997	0.002
998	0.002
998	0.002
999	0.002
999	0.002
1000	0.002
1000	0.003
1000	0.003
1001	0.004
1001	0.004
1002	0.004
1002	0.004
1003	0.004
1003	0.004
1003	0.004
1004	0.004
1004	0.003
1005	0.002
1005	0.001
1005	0
1006	-0.001
1006	-0.002
1007	-0.003
1007	-0.004
1008	-0.005
1008	-0.005
1008	-0.006
1009	-0.006
1009	-0.006
1010	-0.005
1010	-0.005
1010	-0.005
1011	-0.005
1011	-0.005
1012	-0.005
1012	-0.005
1013	-0.005
1013	-0.005
1013	-0.006
1014	-0.006
1014	-0.007
1015	-0.007
1015	-0.008
1016	-0.008
1016	-0.009
1016	-0.01
1017	-0.011
1017	-0.011
1018	-0.012
1018	-0.013
1018	-0.014
1019	-0.014
1019	-0.015
1020	-0.016
1020	-0.016
1021	-0.017
1021	-0.017
1021	-0.018
1022	-0.019
1022	-0.019
1023	-0.019
1023	-0.02
1023	-0.02
1024	-0.02
1024	-0.021
1025	-0.021
1025	-0.021
1026	-0.02
1026	-0.02
1026	-0.019
1027	-0.019
1027	-0.019
1028	-0.019
1028	-0.018
1028	-0.019
1029	-0.019
1029	-0.019
1030	-0.019
1030	-0.02
1031	-0.02
1031	-0.02
1031	-0.021
1032	-0.021
1032	-0.021
1033	-0.021
1033	-0.02
1033	-0.02
1034	-0.02
1034	-0.019
1035	-0.019
1035	-0.019
1036	-0.019
1036	-0.019
1036	-0.019
1037	-0.019
1037	-0.019
1038	-0.019
1038	-0.019
1039	-0.018
1039	-0.018
1039	-0.018
1040	-0.017
1040	-0.016
1041	-0.015
1041	-0.015
1041	-0.015
1042	-0.015
1042	-0.015
1043	-0.015
1043	-0.015
1044	-0.016
1044	-0.017
1044	-0.018
1045	-0.019
1045	-0.02
1046	-0.021
1046	-0.021
1046	-0.022
1047	-0.022
1047	-0.022
1048	-0.022
1048	-0.022
1049	-0.022
1049	-0.022
1049	-0.021
1050	-0.021
1050	-0.021
1051	-0.021
1051	-0.02
1051	-0.02
1052	-0.019
1052	-0.019
1053	-0.019
1053	-0.019
1053	-0.019
1054	-0.019
1054	-0.019
1055	-0.019
1055	-0.019
1056	-0.02
1056	-0.021
1056	-0.022
1057	-0.022
1057	-0.023
1058	-0.023
1058	-0.024
1058	-0.024
1059	-0.025
1059	-0.026
1060	-0.026
1060	-0.027
1061	-0.027
1061	-0.027
1061	-0.028
1062	-0.028
1062	-0.028
1063	-0.028
1063	-0.028
1063	-0.027
1064	-0.027
1064	-0.027
1065	-0.027
1065	-0.027
1066	-0.027
1066	-0.026
1066	-0.027
1067	-0.027
1067	-0.027
1068	-0.027
1068	-0.028
1068	-0.028
1069	-0.028
1069	-0.029
1070	-0.03
1070	-0.03
1071	-0.031
1071	-0.031
1071	-0.031
1072	-0.032
1072	-0.032
1073	-0.033
1073	-0.033
1073	-0.033
1074	-0.033
1074	-0.032
1075	-0.033
1075	-0.033
1076	-0.033
1076	-0.033
1076	-0.033
1077	-0.033
1077	-0.034
1078	-0.035
1078	-0.035
1078	-0.036
1079	-0.037
1079	-0.037
1080	-0.038
1080	-0.038
1080	-0.04
1081	-0.04
1081	-0.041
1082	-0.041
1082	-0.042
1083	-0.042
1083	-0.043
1083	-0.044
1084	-0.045
1084	-0.045
1085	-0.046
1085	-0.046
1085	-0.046
1086	-0.046
1086	-0.048
1087	-0.048
1087	-0.048
1088	-0.049
1088	-0.049
1088	-0.05
1089	-0.051
1089	-0.052
1090	-0.053
1090	-0.054
1090	-0.055
1091	-0.056
1091	-0.056
1092	-0.058
1092	-0.057
1092	-0.059
1093	-0.059
1093	-0.059
1094	-0.059
1094	-0.06
1095	-0.06
1095	-0.06
1095	-0.061
1096	-0.062
1096	-0.062
1097	-0.063
1097	-0.064
1097	-0.064
1098	-0.066
1098	-0.068
1099	-0.068
1099	-0.069
1100	-0.07
1100	-0.071
1100	-0.074
1101	-0.076
1101	-0.078
1102	-0.08
1102	-0.082
1102	-0.082
1103	-0.084
1103	-0.086
1104	-0.088
1104	-0.09
1104	-0.093
1105	-0.094
1105	-0.097
1106	-0.103
1106	-0.105
1107	-0.11
1107	-0.115
1107	-0.12
1108	-0.122
1108	-0.126
1109	-0.13
1109	-0.135
1109	-0.139
1110	-0.14
1110	-0.142
1111	-0.149
1111	-0.146
