Data from 17C_3.4A_35min_2sec_int_Absorbance__188__04273.txt Node

Date: Mon Jun 19 19:49:02 CEST 2023
User: Marek
Spectrometer: MAYP115816
Trigger mode: 0
Integration Time (sec): 2.500000E-1
Scans to average: 10
Electric dark correction enabled: true
Nonlinearity correction enabled: true
Boxcar width: 5
XAxis mode: Wavelengths
Number of Pixels in Spectrum: 2068
>>>>>Begin Spectral Data<<<<<
199	-0.758
199	-0.774
200	-0.676
200	-0.618
201	-0.58
201	-0.568
202	-0.552
202	-0.539
203	-0.53
203	-0.524
204	-0.511
204	-0.496
205	-0.473
205	-0.469
205	-0.469
206	-0.471
206	-0.474
207	-0.465
207	-0.465
208	-0.464
208	-0.465
209	-0.459
209	-0.462
210	-0.463
210	-0.469
211	-0.469
211	-0.472
212	-0.472
212	-0.48
213	-0.478
213	-0.481
213	-0.486
214	-0.483
214	-0.481
215	-0.48
215	-0.483
216	-0.487
216	-0.497
217	-0.493
217	-0.498
218	-0.503
218	-0.502
219	-0.505
219	-0.514
220	-0.518
220	-0.529
221	-0.527
221	-0.53
221	-0.521
222	-0.517
222	-0.517
223	-0.519
223	-0.525
224	-0.529
224	-0.53
225	-0.527
225	-0.521
226	-0.527
226	-0.526
227	-0.532
227	-0.54
228	-0.541
228	-0.543
229	-0.542
229	-0.535
229	-0.53
230	-0.534
230	-0.538
231	-0.534
231	-0.525
232	-0.519
232	-0.52
233	-0.512
233	-0.509
234	-0.509
234	-0.506
235	-0.509
235	-0.512
236	-0.509
236	-0.512
236	-0.52
237	-0.526
237	-0.526
238	-0.537
238	-0.536
239	-0.534
239	-0.544
240	-0.542
240	-0.542
241	-0.547
241	-0.545
242	-0.55
242	-0.546
243	-0.541
243	-0.539
243	-0.548
244	-0.548
244	-0.547
245	-0.565
245	-0.564
246	-0.567
246	-0.572
247	-0.576
247	-0.58
248	-0.587
248	-0.585
249	-0.588
249	-0.599
250	-0.595
250	-0.588
250	-0.587
251	-0.586
251	-0.587
252	-0.586
252	-0.577
253	-0.582
253	-0.593
254	-0.589
254	-0.585
255	-0.594
255	-0.587
256	-0.586
256	-0.598
257	-0.595
257	-0.592
258	-0.609
258	-0.605
258	-0.6
259	-0.599
259	-0.61
260	-0.61
260	-0.615
261	-0.625
261	-0.617
262	-0.614
262	-0.616
263	-0.604
263	-0.6
264	-0.602
264	-0.609
265	-0.603
265	-0.611
265	-0.615
266	-0.61
266	-0.607
267	-0.621
267	-0.628
268	-0.644
268	-0.651
269	-0.648
269	-0.643
270	-0.648
270	-0.65
271	-0.65
271	-0.656
272	-0.659
272	-0.653
272	-0.645
273	-0.644
273	-0.653
274	-0.658
274	-0.662
275	-0.663
275	-0.654
276	-0.661
276	-0.654
277	-0.661
277	-0.677
278	-0.689
278	-0.682
278	-0.676
279	-0.679
279	-0.689
280	-0.685
280	-0.686
281	-0.677
281	-0.685
282	-0.674
282	-0.675
283	-0.665
283	-0.668
284	-0.664
284	-0.652
285	-0.647
285	-0.644
285	-0.642
286	-0.652
286	-0.647
287	-0.645
287	-0.628
288	-0.62
288	-0.629
289	-0.644
289	-0.655
290	-0.646
290	-0.645
291	-0.642
291	-0.633
292	-0.637
292	-0.644
292	-0.648
293	-0.653
293	-0.64
294	-0.627
294	-0.616
295	-0.612
295	-0.609
296	-0.607
296	-0.607
297	-0.6
297	-0.583
298	-0.575
298	-0.584
298	-0.573
299	-0.565
299	-0.567
300	-0.564
300	-0.559
301	-0.553
301	-0.55
302	-0.557
302	-0.567
303	-0.553
303	-0.539
304	-0.542
304	-0.542
305	-0.544
305	-0.541
305	-0.542
306	-0.526
306	-0.519
307	-0.506
307	-0.508
308	-0.522
308	-0.521
309	-0.521
309	-0.51
310	-0.5
310	-0.495
311	-0.486
311	-0.498
311	-0.495
312	-0.492
312	-0.489
313	-0.475
313	-0.475
314	-0.472
314	-0.474
315	-0.475
315	-0.475
316	-0.47
316	-0.459
317	-0.453
317	-0.447
318	-0.435
318	-0.432
318	-0.427
319	-0.418
319	-0.413
320	-0.404
320	-0.402
321	-0.406
321	-0.405
322	-0.399
322	-0.395
323	-0.395
323	-0.388
324	-0.38
324	-0.37
324	-0.36
325	-0.35
325	-0.334
326	-0.318
326	-0.299
327	-0.28
327	-0.258
328	-0.23
328	-0.208
329	-0.184
329	-0.157
330	-0.127
330	-0.091
330	-0.059
331	-0.026
331	0.007
332	0.038
332	0.066
333	0.094
333	0.125
334	0.152
334	0.174
335	0.196
335	0.215
336	0.235
336	0.253
336	0.267
337	0.281
337	0.294
338	0.307
338	0.314
339	0.325
339	0.332
340	0.339
340	0.345
341	0.35
341	0.355
342	0.36
342	0.365
342	0.368
343	0.371
343	0.375
344	0.378
344	0.38
345	0.382
345	0.383
346	0.384
346	0.385
347	0.386
347	0.387
348	0.387
348	0.388
348	0.389
349	0.389
349	0.389
350	0.39
350	0.39
351	0.391
351	0.391
352	0.391
352	0.391
353	0.391
353	0.391
354	0.391
354	0.39
354	0.39
355	0.39
355	0.39
356	0.39
356	0.39
357	0.388
357	0.388
358	0.387
358	0.387
359	0.386
359	0.386
360	0.386
360	0.386
360	0.385
361	0.385
361	0.385
362	0.386
362	0.385
363	0.385
363	0.385
364	0.384
364	0.384
365	0.384
365	0.383
366	0.383
366	0.383
366	0.383
367	0.382
367	0.382
368	0.382
368	0.381
369	0.381
369	0.381
370	0.38
370	0.38
371	0.379
371	0.379
372	0.379
372	0.378
372	0.378
373	0.378
373	0.377
374	0.377
374	0.377
375	0.376
375	0.376
376	0.375
376	0.375
377	0.375
377	0.374
378	0.374
378	0.373
378	0.373
379	0.373
379	0.372
380	0.372
380	0.371
381	0.37
381	0.37
382	0.37
382	0.369
383	0.369
383	0.368
383	0.368
384	0.367
384	0.367
385	0.366
385	0.366
386	0.366
386	0.366
387	0.365
387	0.365
388	0.364
388	0.364
389	0.364
389	0.364
389	0.363
390	0.363
390	0.362
391	0.362
391	0.361
392	0.361
392	0.36
393	0.36
393	0.36
394	0.359
394	0.358
394	0.358
395	0.357
395	0.357
396	0.356
396	0.356
397	0.355
397	0.355
398	0.355
398	0.355
399	0.355
399	0.354
400	0.354
400	0.353
400	0.353
401	0.352
401	0.352
402	0.352
402	0.351
403	0.351
403	0.351
404	0.35
404	0.35
405	0.349
405	0.349
405	0.349
406	0.349
406	0.348
407	0.348
407	0.348
408	0.347
408	0.347
409	0.346
409	0.346
410	0.346
410	0.346
411	0.346
411	0.346
411	0.345
412	0.345
412	0.345
413	0.344
413	0.344
414	0.344
414	0.344
415	0.343
415	0.343
416	0.343
416	0.342
416	0.342
417	0.342
417	0.342
418	0.342
418	0.342
419	0.342
419	0.342
420	0.342
420	0.342
421	0.341
421	0.341
421	0.341
422	0.341
422	0.341
423	0.34
423	0.34
424	0.339
424	0.339
425	0.338
425	0.338
426	0.338
426	0.338
427	0.337
427	0.337
427	0.337
428	0.337
428	0.337
429	0.337
429	0.336
430	0.336
430	0.336
431	0.336
431	0.336
432	0.336
432	0.335
432	0.335
433	0.335
433	0.335
434	0.335
434	0.335
435	0.335
435	0.335
436	0.335
436	0.335
437	0.335
437	0.335
437	0.335
438	0.335
438	0.335
439	0.335
439	0.335
440	0.334
440	0.334
441	0.334
441	0.334
442	0.334
442	0.334
442	0.334
443	0.334
443	0.334
444	0.334
444	0.334
445	0.334
445	0.334
446	0.335
446	0.335
447	0.335
447	0.335
447	0.336
448	0.336
448	0.336
449	0.336
449	0.336
450	0.336
450	0.336
451	0.336
451	0.337
452	0.337
452	0.337
452	0.337
453	0.337
453	0.337
454	0.337
454	0.337
455	0.337
455	0.338
456	0.338
456	0.338
457	0.338
457	0.338
458	0.338
458	0.339
458	0.339
459	0.34
459	0.34
460	0.34
460	0.34
461	0.341
461	0.341
462	0.341
462	0.342
463	0.342
463	0.343
463	0.343
464	0.344
464	0.344
465	0.345
465	0.345
466	0.346
466	0.347
467	0.348
467	0.348
467	0.349
468	0.349
468	0.35
469	0.351
469	0.352
470	0.353
470	0.353
471	0.354
471	0.354
472	0.355
472	0.356
472	0.357
473	0.358
473	0.359
474	0.36
474	0.361
475	0.362
475	0.363
476	0.364
476	0.365
477	0.366
477	0.367
477	0.368
478	0.369
478	0.371
479	0.372
479	0.373
480	0.375
480	0.376
481	0.377
481	0.379
482	0.38
482	0.382
482	0.383
483	0.385
483	0.387
484	0.388
484	0.389
485	0.391
485	0.393
486	0.394
486	0.396
487	0.398
487	0.4
487	0.401
488	0.403
488	0.405
489	0.408
489	0.412
490	0.414
490	0.417
491	0.42
491	0.422
492	0.425
492	0.427
492	0.43
493	0.433
493	0.436
494	0.439
494	0.441
495	0.444
495	0.446
496	0.449
496	0.452
496	0.455
497	0.459
497	0.462
498	0.465
498	0.468
499	0.471
499	0.475
500	0.479
500	0.482
501	0.486
501	0.489
501	0.492
502	0.495
502	0.499
503	0.503
503	0.506
504	0.509
504	0.513
505	0.516
505	0.52
506	0.523
506	0.527
506	0.53
507	0.534
507	0.537
508	0.54
508	0.544
509	0.548
509	0.552
510	0.555
510	0.559
511	0.562
511	0.566
511	0.569
512	0.573
512	0.576
513	0.58
513	0.583
514	0.586
514	0.59
515	0.593
515	0.595
515	0.598
516	0.601
516	0.604
517	0.607
517	0.61
518	0.613
518	0.615
519	0.617
519	0.619
520	0.622
520	0.624
520	0.626
521	0.628
521	0.63
522	0.632
522	0.634
523	0.636
523	0.638
524	0.638
524	0.639
524	0.64
525	0.641
525	0.641
526	0.642
526	0.642
527	0.643
527	0.643
528	0.643
528	0.643
529	0.642
529	0.643
529	0.642
530	0.643
530	0.642
531	0.641
531	0.64
532	0.639
532	0.638
533	0.637
533	0.636
533	0.634
534	0.632
534	0.629
535	0.627
535	0.625
536	0.622
536	0.619
537	0.616
537	0.613
538	0.61
538	0.607
538	0.604
539	0.602
539	0.599
540	0.596
540	0.593
541	0.589
541	0.586
542	0.582
542	0.578
542	0.574
543	0.57
543	0.566
544	0.561
544	0.557
545	0.554
545	0.55
546	0.546
546	0.541
547	0.536
547	0.531
547	0.527
548	0.523
548	0.519
549	0.515
549	0.511
550	0.507
550	0.502
551	0.497
551	0.493
551	0.489
552	0.486
552	0.482
553	0.477
553	0.473
554	0.468
554	0.463
555	0.459
555	0.454
556	0.45
556	0.445
556	0.44
557	0.436
557	0.431
558	0.426
558	0.421
559	0.416
559	0.411
560	0.407
560	0.402
560	0.398
561	0.394
561	0.389
562	0.384
562	0.38
563	0.376
563	0.371
564	0.367
564	0.363
564	0.359
565	0.356
565	0.352
566	0.347
566	0.343
567	0.339
567	0.335
568	0.331
568	0.326
568	0.322
569	0.318
569	0.313
570	0.308
570	0.304
571	0.301
571	0.297
572	0.293
572	0.289
573	0.286
573	0.282
573	0.278
574	0.275
574	0.272
575	0.269
575	0.267
576	0.264
576	0.26
577	0.256
577	0.254
577	0.252
578	0.249
578	0.247
579	0.245
579	0.242
580	0.238
580	0.234
581	0.231
581	0.229
581	0.227
582	0.225
582	0.223
583	0.22
583	0.217
584	0.214
584	0.21
585	0.208
585	0.207
585	0.205
586	0.202
586	0.2
587	0.198
587	0.196
588	0.193
588	0.191
589	0.189
589	0.188
590	0.186
590	0.184
590	0.183
591	0.18
591	0.178
592	0.175
592	0.173
593	0.171
593	0.17
594	0.168
594	0.166
594	0.165
595	0.163
595	0.161
596	0.159
596	0.159
597	0.158
597	0.156
598	0.154
598	0.153
598	0.151
599	0.149
599	0.147
600	0.145
600	0.144
601	0.142
601	0.14
602	0.138
602	0.137
602	0.136
603	0.135
603	0.135
604	0.134
604	0.134
605	0.133
605	0.133
606	0.132
606	0.13
606	0.129
607	0.127
607	0.126
608	0.125
608	0.123
609	0.121
609	0.121
610	0.119
610	0.118
610	0.118
611	0.118
611	0.118
612	0.118
612	0.118
613	0.118
613	0.118
614	0.116
614	0.115
614	0.114
615	0.113
615	0.112
616	0.111
616	0.109
617	0.108
617	0.106
618	0.104
618	0.103
618	0.103
619	0.103
619	0.103
620	0.103
620	0.102
621	0.101
621	0.1
622	0.099
622	0.099
622	0.098
623	0.097
623	0.097
624	0.096
624	0.095
625	0.095
625	0.095
626	0.094
626	0.094
626	0.094
627	0.093
627	0.093
628	0.092
628	0.092
629	0.091
629	0.09
630	0.088
630	0.087
630	0.087
631	0.086
631	0.085
632	0.083
632	0.082
633	0.081
633	0.081
634	0.08
634	0.079
634	0.078
635	0.077
635	0.076
636	0.075
636	0.074
637	0.072
637	0.071
638	0.069
638	0.068
638	0.066
639	0.063
639	0.061
640	0.06
640	0.058
641	0.056
641	0.054
642	0.052
642	0.049
642	0.047
643	0.045
643	0.042
644	0.04
644	0.037
645	0.034
645	0.031
646	0.029
646	0.025
646	0.022
647	0.019
647	0.016
648	0.012
648	0.01
649	0.005
649	0.002
650	-0.002
650	-0.006
650	-0.011
651	-0.017
651	-0.023
652	-0.031
652	-0.038
653	-0.044
653	-0.051
653	-0.049
654	-0.044
654	-0.044
655	-0.049
655	-0.052
656	-0.056
656	-0.061
657	-0.064
657	-0.067
657	-0.071
658	-0.075
658	-0.094
659	-0.14
659	-0.19
660	-0.216
660	-0.232
661	-0.251
661	-0.271
661	-0.293
662	-0.312
662	-0.332
663	-0.353
663	-0.379
664	-0.401
664	-0.433
665	-0.459
665	-0.495
665	-0.527
666	-0.559
666	-0.597
667	-0.639
667	-0.681
668	-0.733
668	-0.786
669	-0.843
669	-0.898
669	-0.955
670	-0.992
670	-0.996
671	-1.184
671	-1.654
672	-2.018
672	-2.266
672	-2.427
673	-2.539
673	-2.589
674	-2.61
674	-2.625
675	-2.65
675	-2.794
676	-3.001
676	-2.96
676	-2.71
677	-2.463
677	-2.218
678	-1.811
678	-1.328
679	-1.14
679	-1.048
680	-0.983
680	-0.929
680	-0.884
681	-0.865
681	-0.829
682	-0.814
682	-0.797
683	-0.781
683	-0.786
684	-0.784
684	-0.782
684	-0.777
685	-0.77
685	-0.764
686	-0.75
686	-0.747
687	-0.731
687	-0.73
687	-0.72
688	-0.704
688	-0.695
689	-0.683
689	-0.676
690	-0.662
690	-0.656
691	-0.655
691	-0.667
691	-0.689
692	-0.689
692	-0.685
693	-0.685
693	-0.696
694	-0.694
694	-0.693
695	-0.703
695	-0.702
695	-0.691
696	-0.69
696	-0.669
697	-0.671
697	-0.69
698	-0.695
698	-0.688
698	-0.703
699	-0.706
699	-0.705
700	-0.701
700	-0.717
701	-0.717
701	-0.728
702	-0.73
702	-0.718
702	-0.712
703	-0.706
703	-0.699
704	-0.698
704	-0.697
705	-0.708
705	-0.7
705	-0.69
706	-0.692
706	-0.687
707	-0.694
707	-0.691
708	-0.688
708	-0.68
709	-0.684
709	-0.687
709	-0.679
710	-0.691
710	-0.7
711	-0.691
711	-0.693
712	-0.692
712	-0.704
713	-0.705
713	-0.716
713	-0.706
714	-0.707
714	-0.709
715	-0.698
715	-0.685
716	-0.693
716	-0.695
716	-0.688
717	-0.69
717	-0.693
718	-0.683
718	-0.684
719	-0.689
719	-0.691
720	-0.688
720	-0.699
720	-0.694
721	-0.684
721	-0.686
722	-0.673
722	-0.663
723	-0.664
723	-0.669
723	-0.656
724	-0.658
724	-0.664
725	-0.662
725	-0.672
726	-0.684
726	-0.689
727	-0.696
727	-0.711
727	-0.717
728	-0.717
728	-0.726
729	-0.728
729	-0.731
730	-0.739
730	-0.732
730	-0.725
731	-0.708
731	-0.717
732	-0.722
732	-0.725
733	-0.723
733	-0.728
734	-0.722
734	-0.722
734	-0.709
735	-0.708
735	-0.709
736	-0.72
736	-0.707
737	-0.7
737	-0.702
737	-0.714
738	-0.708
738	-0.709
739	-0.706
739	-0.72
740	-0.718
740	-0.718
741	-0.715
741	-0.716
741	-0.718
742	-0.714
742	-0.713
743	-0.724
743	-0.727
744	-0.726
744	-0.715
744	-0.717
745	-0.723
745	-0.714
746	-0.714
746	-0.711
747	-0.713
747	-0.7
748	-0.686
748	-0.694
748	-0.696
749	-0.694
749	-0.694
750	-0.684
750	-0.686
751	-0.69
751	-0.699
751	-0.702
752	-0.706
752	-0.715
753	-0.708
753	-0.706
754	-0.712
754	-0.705
754	-0.719
755	-0.735
755	-0.748
756	-0.738
756	-0.734
757	-0.732
757	-0.728
758	-0.73
758	-0.725
758	-0.727
759	-0.737
759	-0.72
760	-0.711
760	-0.706
761	-0.715
761	-0.715
761	-0.716
762	-0.724
762	-0.723
763	-0.734
763	-0.732
764	-0.731
764	-0.738
764	-0.744
765	-0.734
765	-0.721
766	-0.727
766	-0.733
767	-0.747
767	-0.741
768	-0.731
768	-0.736
768	-0.74
769	-0.758
769	-0.759
770	-0.762
770	-0.777
771	-0.774
771	-0.777
771	-0.776
772	-0.78
772	-0.783
773	-0.785
773	-0.781
774	-0.778
774	-0.779
775	-0.785
775	-0.777
775	-0.785
776	-0.783
776	-0.772
777	-0.779
777	-0.796
778	-0.791
778	-0.811
778	-0.8
779	-0.822
779	-0.828
780	-0.842
780	-0.839
781	-0.852
781	-0.848
781	-0.864
782	-0.863
782	-0.866
783	-0.849
783	-0.847
784	-0.826
784	-0.817
784	-0.826
785	-0.833
785	-0.821
786	-0.829
786	-0.81
787	-0.796
787	-0.8
788	-0.804
788	-0.815
788	-0.829
789	-0.831
789	-0.815
790	-0.797
790	-0.797
791	-0.797
791	-0.813
791	-0.82
792	-0.812
792	-0.79
793	-0.78
793	-0.757
794	-0.76
794	-0.753
794	-0.764
795	-0.761
795	-0.755
796	-0.739
796	-0.748
797	-0.742
797	-0.755
797	-0.762
798	-0.774
798	-0.769
799	-0.778
799	-0.762
800	-0.769
800	-0.76
801	-0.766
801	-0.751
801	-0.763
802	-0.77
802	-0.768
803	-0.77
803	-0.779
804	-0.776
804	-0.787
804	-0.773
805	-0.78
805	-0.768
806	-0.77
806	-0.754
807	-0.75
807	-0.733
807	-0.721
808	-0.713
808	-0.705
809	-0.69
809	-0.7
810	-0.696
810	-0.689
810	-0.686
811	-0.693
811	-0.685
812	-0.687
812	-0.69
813	-0.694
813	-0.689
813	-0.695
814	-0.698
814	-0.703
815	-0.71
815	-0.712
816	-0.706
816	-0.709
817	-0.717
817	-0.734
817	-0.75
818	-0.758
818	-0.762
819	-0.751
819	-0.751
820	-0.759
820	-0.756
820	-0.767
821	-0.767
821	-0.756
822	-0.725
822	-0.699
823	-0.697
823	-0.701
823	-0.699
824	-0.693
824	-0.694
825	-0.688
825	-0.669
826	-0.663
826	-0.671
826	-0.68
827	-0.677
827	-0.673
828	-0.653
828	-0.654
829	-0.646
829	-0.633
829	-0.624
830	-0.634
830	-0.634
831	-0.625
831	-0.615
832	-0.613
832	-0.606
832	-0.613
833	-0.605
833	-0.606
834	-0.603
834	-0.612
835	-0.599
835	-0.595
835	-0.591
836	-0.59
836	-0.586
837	-0.584
837	-0.574
838	-0.567
838	-0.556
839	-0.544
839	-0.531
839	-0.522
840	-0.509
840	-0.506
841	-0.493
841	-0.486
842	-0.483
842	-0.474
842	-0.469
843	-0.463
843	-0.459
844	-0.451
844	-0.444
845	-0.436
845	-0.427
845	-0.416
846	-0.406
846	-0.389
847	-0.377
847	-0.366
848	-0.355
848	-0.343
848	-0.327
849	-0.318
849	-0.309
850	-0.295
850	-0.289
851	-0.28
851	-0.27
851	-0.264
852	-0.249
852	-0.238
853	-0.231
853	-0.227
854	-0.215
854	-0.203
854	-0.193
855	-0.183
855	-0.177
856	-0.168
856	-0.159
857	-0.153
857	-0.146
857	-0.135
858	-0.125
858	-0.119
859	-0.112
859	-0.103
860	-0.095
860	-0.084
860	-0.077
861	-0.07
861	-0.063
862	-0.057
862	-0.051
863	-0.045
863	-0.037
863	-0.032
864	-0.028
864	-0.023
865	-0.019
865	-0.015
866	-0.011
866	-0.008
866	-0.005
867	-0.003
867	0
868	0.002
868	0.005
869	0.008
869	0.01
869	0.011
870	0.013
870	0.015
871	0.018
871	0.02
872	0.021
872	0.022
872	0.023
873	0.024
873	0.025
874	0.025
874	0.025
875	0.024
875	0.023
875	0.022
876	0.02
876	0.019
877	0.018
877	0.017
878	0.015
878	0.013
878	0.011
879	0.01
879	0.009
880	0.008
880	0.008
881	0.008
881	0.008
881	0.008
882	0.008
882	0.007
883	0.005
883	0.004
884	0.003
884	0.002
884	0.002
885	0.001
885	0
886	0
886	-0
887	-0
887	0
887	0.001
888	0.001
888	0.002
889	0.003
889	0.004
890	0.005
890	0.005
890	0.005
891	0.005
891	0.006
892	0.006
892	0.007
893	0.007
893	0.007
893	0.007
894	0.007
894	0.007
895	0.007
895	0.007
895	0.007
896	0.006
896	0.006
897	0.005
897	0.004
898	0.003
898	0.002
898	0.002
899	0.002
899	0.002
900	0.002
900	0.003
901	0.003
901	0.004
901	0.005
902	0.006
902	0.007
903	0.007
903	0.008
904	0.008
904	0.008
904	0.009
905	0.01
905	0.01
906	0.01
906	0.01
907	0.01
907	0.01
907	0.01
908	0.01
908	0.01
909	0.009
909	0.009
910	0.008
910	0.008
910	0.008
911	0.008
911	0.009
912	0.009
912	0.01
913	0.01
913	0.011
913	0.012
914	0.013
914	0.014
915	0.014
915	0.015
916	0.015
916	0.015
916	0.015
917	0.015
917	0.015
918	0.015
918	0.014
918	0.014
919	0.013
919	0.013
920	0.013
920	0.013
921	0.013
921	0.013
921	0.013
922	0.012
922	0.012
923	0.012
923	0.011
924	0.011
924	0.011
924	0.01
925	0.01
925	0.009
926	0.008
926	0.008
927	0.007
927	0.007
927	0.007
928	0.007
928	0.007
929	0.006
929	0.006
930	0.006
930	0.005
930	0.005
931	0.005
931	0.004
932	0.004
932	0.003
933	0.003
933	0.002
933	0.001
934	-0
934	-0.001
935	-0.002
935	-0.003
935	-0.004
936	-0.005
936	-0.006
937	-0.006
937	-0.007
938	-0.007
938	-0.007
938	-0.007
939	-0.007
939	-0.006
940	-0.006
940	-0.005
941	-0.004
941	-0.004
941	-0.002
942	-0.002
942	-0.001
943	-0
943	-0
944	-0
944	-0.001
944	-0.001
945	-0.001
945	-0.002
946	-0.003
946	-0.004
946	-0.005
947	-0.006
947	-0.007
948	-0.007
948	-0.007
949	-0.008
949	-0.007
949	-0.007
950	-0.007
950	-0.006
951	-0.005
951	-0.004
952	-0.003
952	-0.002
952	-0.001
953	-0
953	0.001
954	0.002
954	0.003
955	0.004
955	0.005
955	0.006
956	0.007
956	0.008
957	0.008
957	0.009
957	0.009
958	0.009
958	0.01
959	0.01
959	0.011
960	0.011
960	0.011
960	0.012
961	0.012
961	0.013
962	0.013
962	0.013
963	0.014
963	0.013
963	0.014
964	0.014
964	0.014
965	0.014
965	0.014
966	0.014
966	0.013
966	0.013
967	0.013
967	0.012
968	0.012
968	0.011
968	0.011
969	0.011
969	0.01
970	0.01
970	0.01
971	0.01
971	0.01
971	0.01
972	0.01
972	0.01
973	0.01
973	0.01
974	0.01
974	0.011
974	0.011
975	0.011
975	0.01
976	0.01
976	0.01
976	0.009
977	0.009
977	0.009
978	0.01
978	0.01
979	0.009
979	0.009
979	0.009
980	0.009
980	0.009
981	0.008
981	0.009
982	0.008
982	0.008
982	0.008
983	0.007
983	0.007
984	0.008
984	0.008
984	0.008
985	0.008
985	0.008
986	0.008
986	0.008
987	0.007
987	0.007
987	0.006
988	0.006
988	0.005
989	0.004
989	0.003
990	0.002
990	0.001
990	0
991	0
991	-0
992	-0.001
992	-0.001
992	-0.001
993	-0.001
993	-0.001
994	-0.001
994	-0.002
995	-0.002
995	-0.002
995	-0.003
996	-0.003
996	-0.004
997	-0.004
997	-0.004
997	-0.004
998	-0.005
998	-0.005
999	-0.004
999	-0.004
1000	-0.004
1000	-0.003
1000	-0.003
1001	-0.002
1001	-0.002
1002	-0.002
1002	-0.002
1003	-0.002
1003	-0.001
1003	-0.002
1004	-0.002
1004	-0.003
1005	-0.003
1005	-0.004
1005	-0.005
1006	-0.006
1006	-0.008
1007	-0.008
1007	-0.009
1008	-0.01
1008	-0.011
1008	-0.011
1009	-0.011
1009	-0.011
1010	-0.011
1010	-0.01
1010	-0.01
1011	-0.01
1011	-0.01
1012	-0.009
1012	-0.009
1013	-0.009
1013	-0.01
1013	-0.01
1014	-0.011
1014	-0.012
1015	-0.012
1015	-0.012
1016	-0.013
1016	-0.014
1016	-0.015
1017	-0.015
1017	-0.016
1018	-0.017
1018	-0.018
1018	-0.019
1019	-0.019
1019	-0.02
1020	-0.021
1020	-0.021
1021	-0.022
1021	-0.022
1021	-0.023
1022	-0.024
1022	-0.024
1023	-0.024
1023	-0.025
1023	-0.025
1024	-0.025
1024	-0.025
1025	-0.026
1025	-0.026
1026	-0.025
1026	-0.025
1026	-0.025
1027	-0.024
1027	-0.024
1028	-0.023
1028	-0.023
1028	-0.023
1029	-0.023
1029	-0.023
1030	-0.023
1030	-0.024
1031	-0.024
1031	-0.025
1031	-0.025
1032	-0.025
1032	-0.025
1033	-0.026
1033	-0.025
1033	-0.026
1034	-0.026
1034	-0.025
1035	-0.025
1035	-0.025
1036	-0.025
1036	-0.025
1036	-0.025
1037	-0.025
1037	-0.025
1038	-0.025
1038	-0.024
1039	-0.024
1039	-0.023
1039	-0.023
1040	-0.022
1040	-0.022
1041	-0.021
1041	-0.02
1041	-0.02
1042	-0.02
1042	-0.02
1043	-0.02
1043	-0.02
1044	-0.021
1044	-0.022
1044	-0.022
1045	-0.023
1045	-0.024
1046	-0.025
1046	-0.026
1046	-0.027
1047	-0.027
1047	-0.027
1048	-0.027
1048	-0.027
1049	-0.027
1049	-0.027
1049	-0.026
1050	-0.026
1050	-0.026
1051	-0.026
1051	-0.025
1051	-0.024
1052	-0.024
1052	-0.024
1053	-0.024
1053	-0.024
1053	-0.023
1054	-0.023
1054	-0.023
1055	-0.023
1055	-0.024
1056	-0.024
1056	-0.025
1056	-0.026
1057	-0.027
1057	-0.027
1058	-0.028
1058	-0.028
1058	-0.029
1059	-0.029
1059	-0.03
1060	-0.031
1060	-0.031
1061	-0.031
1061	-0.031
1061	-0.031
1062	-0.031
1062	-0.031
1063	-0.032
1063	-0.031
1063	-0.031
1064	-0.03
1064	-0.03
1065	-0.03
1065	-0.03
1066	-0.03
1066	-0.03
1066	-0.031
1067	-0.03
1067	-0.03
1068	-0.031
1068	-0.031
1068	-0.032
1069	-0.032
1069	-0.032
1070	-0.033
1070	-0.033
1071	-0.033
1071	-0.034
1071	-0.035
1072	-0.035
1072	-0.036
1073	-0.036
1073	-0.036
1073	-0.036
1074	-0.036
1074	-0.036
1075	-0.036
1075	-0.037
1076	-0.037
1076	-0.037
1076	-0.037
1077	-0.037
1077	-0.037
1078	-0.038
1078	-0.039
1078	-0.04
1079	-0.041
1079	-0.041
1080	-0.042
1080	-0.042
1080	-0.043
1081	-0.044
1081	-0.044
1082	-0.045
1082	-0.046
1083	-0.046
1083	-0.047
1083	-0.048
1084	-0.048
1084	-0.049
1085	-0.05
1085	-0.05
1085	-0.05
1086	-0.051
1086	-0.052
1087	-0.051
1087	-0.051
1088	-0.052
1088	-0.053
1088	-0.054
1089	-0.055
1089	-0.055
1090	-0.057
1090	-0.057
1090	-0.059
1091	-0.059
1091	-0.059
1092	-0.061
1092	-0.06
1092	-0.062
1093	-0.062
1093	-0.062
1094	-0.063
1094	-0.063
1095	-0.064
1095	-0.064
1095	-0.065
1096	-0.066
1096	-0.067
1097	-0.067
1097	-0.068
1097	-0.068
1098	-0.07
1098	-0.071
1099	-0.072
1099	-0.073
1100	-0.074
1100	-0.075
1100	-0.077
1101	-0.08
1101	-0.083
1102	-0.085
1102	-0.088
1102	-0.088
1103	-0.09
1103	-0.093
1104	-0.094
1104	-0.096
1104	-0.098
1105	-0.099
1105	-0.102
1106	-0.106
1106	-0.108
1107	-0.112
1107	-0.117
1107	-0.122
1108	-0.123
1108	-0.126
1109	-0.129
1109	-0.133
1109	-0.137
1110	-0.138
1110	-0.14
1111	-0.149
1111	-0.149
