Data from 17C_3.4A_35min_2sec_int_Absorbance__650__04735.txt Node

Date: Mon Jun 19 20:08:16 CEST 2023
User: Marek
Spectrometer: MAYP115816
Trigger mode: 0
Integration Time (sec): 2.500000E-1
Scans to average: 10
Electric dark correction enabled: true
Nonlinearity correction enabled: true
Boxcar width: 5
XAxis mode: Wavelengths
Number of Pixels in Spectrum: 2068
>>>>>Begin Spectral Data<<<<<
199	-0.785
199	-0.793
200	-0.699
200	-0.645
201	-0.608
201	-0.595
202	-0.579
202	-0.567
203	-0.556
203	-0.551
204	-0.535
204	-0.521
205	-0.498
205	-0.492
205	-0.492
206	-0.493
206	-0.495
207	-0.485
207	-0.487
208	-0.49
208	-0.49
209	-0.484
209	-0.486
210	-0.488
210	-0.496
211	-0.495
211	-0.497
212	-0.497
212	-0.506
213	-0.502
213	-0.502
213	-0.505
214	-0.501
214	-0.499
215	-0.5
215	-0.504
216	-0.507
216	-0.517
217	-0.515
217	-0.52
218	-0.524
218	-0.525
219	-0.531
219	-0.543
220	-0.548
220	-0.558
221	-0.556
221	-0.558
221	-0.55
222	-0.547
222	-0.548
223	-0.55
223	-0.554
224	-0.556
224	-0.556
225	-0.553
225	-0.546
226	-0.552
226	-0.553
227	-0.557
227	-0.567
228	-0.565
228	-0.566
229	-0.566
229	-0.561
229	-0.553
230	-0.556
230	-0.559
231	-0.553
231	-0.546
232	-0.541
232	-0.538
233	-0.535
233	-0.533
234	-0.531
234	-0.528
235	-0.534
235	-0.54
236	-0.538
236	-0.543
236	-0.55
237	-0.555
237	-0.556
238	-0.564
238	-0.563
239	-0.562
239	-0.571
240	-0.569
240	-0.565
241	-0.571
241	-0.568
242	-0.572
242	-0.569
243	-0.566
243	-0.565
243	-0.575
244	-0.576
244	-0.574
245	-0.59
245	-0.589
246	-0.594
246	-0.6
247	-0.603
247	-0.607
248	-0.612
248	-0.611
249	-0.612
249	-0.621
250	-0.619
250	-0.613
250	-0.613
251	-0.608
251	-0.611
252	-0.613
252	-0.603
253	-0.607
253	-0.62
254	-0.618
254	-0.616
255	-0.624
255	-0.619
256	-0.617
256	-0.63
257	-0.625
257	-0.621
258	-0.639
258	-0.638
258	-0.633
259	-0.632
259	-0.642
260	-0.641
260	-0.644
261	-0.654
261	-0.645
262	-0.644
262	-0.644
263	-0.631
263	-0.625
264	-0.627
264	-0.634
265	-0.627
265	-0.635
265	-0.639
266	-0.638
266	-0.637
267	-0.65
267	-0.659
268	-0.676
268	-0.687
269	-0.684
269	-0.679
270	-0.684
270	-0.687
271	-0.687
271	-0.693
272	-0.696
272	-0.689
272	-0.683
273	-0.68
273	-0.688
274	-0.693
274	-0.696
275	-0.697
275	-0.692
276	-0.698
276	-0.692
277	-0.697
277	-0.716
278	-0.727
278	-0.721
278	-0.715
279	-0.717
279	-0.729
280	-0.727
280	-0.726
281	-0.719
281	-0.725
282	-0.717
282	-0.715
283	-0.704
283	-0.706
284	-0.7
284	-0.689
285	-0.682
285	-0.679
285	-0.676
286	-0.684
286	-0.681
287	-0.676
287	-0.661
288	-0.654
288	-0.663
289	-0.676
289	-0.686
290	-0.676
290	-0.675
291	-0.673
291	-0.666
292	-0.664
292	-0.671
292	-0.676
293	-0.682
293	-0.67
294	-0.659
294	-0.651
295	-0.649
295	-0.646
296	-0.643
296	-0.641
297	-0.637
297	-0.621
298	-0.612
298	-0.621
298	-0.609
299	-0.602
299	-0.604
300	-0.6
300	-0.597
301	-0.592
301	-0.593
302	-0.6
302	-0.608
303	-0.596
303	-0.582
304	-0.584
304	-0.584
305	-0.586
305	-0.584
305	-0.581
306	-0.567
306	-0.56
307	-0.546
307	-0.548
308	-0.562
308	-0.558
309	-0.562
309	-0.552
310	-0.539
310	-0.536
311	-0.526
311	-0.534
311	-0.531
312	-0.528
312	-0.524
313	-0.51
313	-0.514
314	-0.508
314	-0.509
315	-0.509
315	-0.507
316	-0.505
316	-0.496
317	-0.487
317	-0.483
318	-0.475
318	-0.47
318	-0.465
319	-0.454
319	-0.452
320	-0.444
320	-0.447
321	-0.452
321	-0.452
322	-0.449
322	-0.443
323	-0.441
323	-0.436
324	-0.429
324	-0.421
324	-0.409
325	-0.4
325	-0.382
326	-0.367
326	-0.348
327	-0.332
327	-0.31
328	-0.283
328	-0.263
329	-0.238
329	-0.214
330	-0.185
330	-0.149
330	-0.121
331	-0.089
331	-0.059
332	-0.031
332	-0.005
333	0.019
333	0.047
334	0.07
334	0.089
335	0.108
335	0.123
336	0.14
336	0.155
336	0.167
337	0.18
337	0.19
338	0.2
338	0.206
339	0.216
339	0.223
340	0.228
340	0.234
341	0.238
341	0.241
342	0.246
342	0.249
342	0.253
343	0.256
343	0.259
344	0.26
344	0.262
345	0.264
345	0.265
346	0.266
346	0.267
347	0.268
347	0.269
348	0.269
348	0.27
348	0.27
349	0.27
349	0.271
350	0.271
350	0.271
351	0.272
351	0.272
352	0.272
352	0.272
353	0.272
353	0.272
354	0.272
354	0.271
354	0.271
355	0.271
355	0.27
356	0.27
356	0.27
357	0.27
357	0.27
358	0.27
358	0.269
359	0.269
359	0.269
360	0.269
360	0.269
360	0.269
361	0.268
361	0.268
362	0.268
362	0.267
363	0.267
363	0.267
364	0.267
364	0.267
365	0.267
365	0.266
366	0.267
366	0.266
366	0.267
367	0.267
367	0.267
368	0.266
368	0.266
369	0.266
369	0.266
370	0.266
370	0.266
371	0.265
371	0.265
372	0.265
372	0.265
372	0.265
373	0.265
373	0.265
374	0.264
374	0.264
375	0.264
375	0.264
376	0.264
376	0.264
377	0.263
377	0.263
378	0.263
378	0.263
378	0.263
379	0.263
379	0.262
380	0.262
380	0.262
381	0.262
381	0.262
382	0.261
382	0.261
383	0.261
383	0.261
383	0.261
384	0.261
384	0.261
385	0.26
385	0.26
386	0.26
386	0.26
387	0.26
387	0.26
388	0.259
388	0.259
389	0.258
389	0.258
389	0.258
390	0.258
390	0.258
391	0.258
391	0.258
392	0.258
392	0.258
393	0.257
393	0.257
394	0.257
394	0.257
394	0.256
395	0.256
395	0.256
396	0.255
396	0.255
397	0.254
397	0.254
398	0.254
398	0.254
399	0.254
399	0.254
400	0.254
400	0.254
400	0.254
401	0.254
401	0.254
402	0.253
402	0.253
403	0.253
403	0.253
404	0.252
404	0.252
405	0.252
405	0.252
405	0.252
406	0.251
406	0.251
407	0.251
407	0.251
408	0.251
408	0.251
409	0.251
409	0.251
410	0.251
410	0.251
411	0.251
411	0.251
411	0.251
412	0.251
412	0.25
413	0.25
413	0.25
414	0.25
414	0.249
415	0.249
415	0.249
416	0.249
416	0.248
416	0.248
417	0.248
417	0.248
418	0.248
418	0.248
419	0.248
419	0.248
420	0.248
420	0.248
421	0.248
421	0.248
421	0.248
422	0.249
422	0.249
423	0.249
423	0.248
424	0.248
424	0.248
425	0.247
425	0.247
426	0.247
426	0.247
427	0.246
427	0.246
427	0.246
428	0.246
428	0.246
429	0.246
429	0.245
430	0.245
430	0.245
431	0.245
431	0.245
432	0.244
432	0.244
432	0.244
433	0.244
433	0.244
434	0.244
434	0.244
435	0.244
435	0.244
436	0.244
436	0.244
437	0.243
437	0.244
437	0.244
438	0.244
438	0.244
439	0.244
439	0.244
440	0.244
440	0.244
441	0.243
441	0.243
442	0.243
442	0.243
442	0.243
443	0.243
443	0.243
444	0.242
444	0.242
445	0.242
445	0.242
446	0.242
446	0.242
447	0.242
447	0.243
447	0.243
448	0.243
448	0.243
449	0.243
449	0.243
450	0.243
450	0.243
451	0.244
451	0.244
452	0.244
452	0.244
452	0.244
453	0.244
453	0.243
454	0.243
454	0.243
455	0.242
455	0.242
456	0.242
456	0.242
457	0.242
457	0.241
458	0.241
458	0.242
458	0.242
459	0.242
459	0.243
460	0.243
460	0.243
461	0.243
461	0.243
462	0.244
462	0.244
463	0.244
463	0.244
463	0.244
464	0.244
464	0.244
465	0.244
465	0.244
466	0.244
466	0.244
467	0.245
467	0.245
467	0.245
468	0.245
468	0.246
469	0.246
469	0.246
470	0.247
470	0.247
471	0.247
471	0.247
472	0.247
472	0.248
472	0.248
473	0.248
473	0.248
474	0.249
474	0.249
475	0.25
475	0.25
476	0.251
476	0.251
477	0.252
477	0.252
477	0.253
478	0.253
478	0.254
479	0.254
479	0.255
480	0.255
480	0.256
481	0.257
481	0.257
482	0.258
482	0.258
482	0.259
483	0.259
483	0.26
484	0.26
484	0.26
485	0.26
485	0.261
486	0.261
486	0.262
487	0.263
487	0.264
487	0.264
488	0.265
488	0.266
489	0.268
489	0.27
490	0.271
490	0.273
491	0.274
491	0.275
492	0.277
492	0.278
492	0.279
493	0.281
493	0.282
494	0.284
494	0.285
495	0.287
495	0.288
496	0.29
496	0.291
496	0.293
497	0.295
497	0.296
498	0.298
498	0.299
499	0.3
499	0.302
500	0.303
500	0.305
501	0.306
501	0.307
501	0.308
502	0.309
502	0.311
503	0.313
503	0.314
504	0.316
504	0.317
505	0.319
505	0.321
506	0.323
506	0.325
506	0.327
507	0.329
507	0.331
508	0.333
508	0.334
509	0.336
509	0.338
510	0.34
510	0.342
511	0.343
511	0.344
511	0.346
512	0.347
512	0.348
513	0.35
513	0.351
514	0.352
514	0.354
515	0.356
515	0.357
515	0.358
516	0.36
516	0.362
517	0.364
517	0.365
518	0.367
518	0.368
519	0.37
519	0.371
520	0.373
520	0.376
520	0.378
521	0.379
521	0.381
522	0.382
522	0.384
523	0.386
523	0.388
524	0.388
524	0.389
524	0.39
525	0.39
525	0.391
526	0.392
526	0.393
527	0.394
527	0.394
528	0.394
528	0.395
529	0.395
529	0.396
529	0.397
530	0.397
530	0.397
531	0.397
531	0.397
532	0.397
532	0.397
533	0.397
533	0.397
533	0.397
534	0.397
534	0.396
535	0.396
535	0.396
536	0.395
536	0.395
537	0.394
537	0.393
538	0.393
538	0.392
538	0.391
539	0.391
539	0.39
540	0.389
540	0.388
541	0.387
541	0.386
542	0.386
542	0.385
542	0.384
543	0.383
543	0.381
544	0.38
544	0.379
545	0.378
545	0.377
546	0.376
546	0.375
547	0.373
547	0.372
547	0.371
548	0.37
548	0.369
549	0.368
549	0.367
550	0.366
550	0.365
551	0.363
551	0.362
551	0.362
552	0.361
552	0.359
553	0.358
553	0.357
554	0.356
554	0.354
555	0.352
555	0.351
556	0.349
556	0.348
556	0.347
557	0.346
557	0.345
558	0.343
558	0.342
559	0.34
559	0.339
560	0.337
560	0.336
560	0.335
561	0.334
561	0.332
562	0.331
562	0.329
563	0.328
563	0.326
564	0.325
564	0.324
564	0.323
565	0.322
565	0.321
566	0.319
566	0.318
567	0.317
567	0.316
568	0.315
568	0.313
568	0.312
569	0.31
569	0.309
570	0.307
570	0.305
571	0.304
571	0.303
572	0.301
572	0.3
573	0.299
573	0.297
573	0.296
574	0.295
574	0.295
575	0.294
575	0.294
576	0.292
576	0.29
577	0.289
577	0.288
577	0.287
578	0.287
578	0.286
579	0.286
579	0.285
580	0.283
580	0.28
581	0.278
581	0.278
581	0.277
582	0.277
582	0.276
583	0.276
583	0.274
584	0.272
584	0.271
585	0.272
585	0.272
585	0.272
586	0.272
586	0.271
587	0.27
587	0.27
588	0.269
588	0.269
589	0.269
589	0.269
590	0.268
590	0.268
590	0.269
591	0.268
591	0.267
592	0.266
592	0.265
593	0.265
593	0.265
594	0.265
594	0.264
594	0.264
595	0.264
595	0.264
596	0.264
596	0.266
597	0.267
597	0.267
598	0.266
598	0.266
598	0.265
599	0.264
599	0.263
600	0.262
600	0.261
601	0.26
601	0.259
602	0.257
602	0.256
602	0.255
603	0.255
603	0.255
604	0.255
604	0.255
605	0.255
605	0.256
606	0.255
606	0.253
606	0.253
607	0.252
607	0.252
608	0.251
608	0.249
609	0.249
609	0.25
610	0.249
610	0.249
610	0.249
611	0.25
611	0.251
612	0.251
612	0.252
613	0.251
613	0.251
614	0.25
614	0.248
614	0.248
615	0.247
615	0.246
616	0.246
616	0.245
617	0.244
617	0.243
618	0.243
618	0.243
618	0.243
619	0.244
619	0.245
620	0.246
620	0.246
621	0.246
621	0.246
622	0.246
622	0.246
622	0.246
623	0.246
623	0.247
624	0.246
624	0.246
625	0.245
625	0.245
626	0.245
626	0.244
626	0.245
627	0.245
627	0.244
628	0.244
628	0.244
629	0.244
629	0.243
630	0.243
630	0.243
630	0.244
631	0.244
631	0.243
632	0.243
632	0.243
633	0.243
633	0.243
634	0.242
634	0.242
634	0.241
635	0.24
635	0.239
636	0.239
636	0.238
637	0.237
637	0.237
638	0.236
638	0.236
638	0.235
639	0.234
639	0.234
640	0.234
640	0.234
641	0.234
641	0.233
642	0.233
642	0.233
642	0.232
643	0.231
643	0.23
644	0.229
644	0.228
645	0.226
645	0.225
646	0.224
646	0.222
646	0.22
647	0.218
647	0.216
648	0.214
648	0.212
649	0.209
649	0.205
650	0.202
650	0.197
650	0.191
651	0.185
651	0.179
652	0.171
652	0.162
653	0.155
653	0.146
653	0.146
654	0.146
654	0.139
655	0.131
655	0.126
656	0.119
656	0.111
657	0.105
657	0.101
657	0.094
658	0.087
658	0.067
659	0.017
659	-0.033
660	-0.062
660	-0.08
661	-0.101
661	-0.122
661	-0.143
662	-0.162
662	-0.177
663	-0.19
663	-0.208
664	-0.219
664	-0.242
665	-0.255
665	-0.272
665	-0.283
666	-0.289
666	-0.297
667	-0.303
667	-0.309
668	-0.321
668	-0.337
669	-0.345
669	-0.335
669	-0.3
670	-0.106
670	-0
671	-0
671	-0
672	-0
672	-0
672	-0
673	-0
673	-0
674	-0
674	-0
675	-0
675	-0
676	-0
676	-0
676	-0.115
677	-0.492
677	-0.516
678	-0.531
678	-0.529
679	-0.528
679	-0.541
680	-0.556
680	-0.559
680	-0.562
681	-0.582
681	-0.58
682	-0.592
682	-0.595
683	-0.594
683	-0.618
684	-0.634
684	-0.646
684	-0.653
685	-0.66
685	-0.662
686	-0.658
686	-0.662
687	-0.655
687	-0.662
687	-0.662
688	-0.649
688	-0.644
689	-0.636
689	-0.634
690	-0.622
690	-0.621
691	-0.623
691	-0.637
691	-0.661
692	-0.66
692	-0.658
693	-0.661
693	-0.672
694	-0.672
694	-0.672
695	-0.682
695	-0.685
695	-0.674
696	-0.675
696	-0.656
697	-0.661
697	-0.682
698	-0.687
698	-0.682
698	-0.701
699	-0.707
699	-0.705
700	-0.7
700	-0.718
701	-0.719
701	-0.728
702	-0.73
702	-0.717
702	-0.711
703	-0.704
703	-0.696
704	-0.695
704	-0.697
705	-0.709
705	-0.703
705	-0.694
706	-0.695
706	-0.692
707	-0.7
707	-0.699
708	-0.7
708	-0.694
709	-0.696
709	-0.701
709	-0.692
710	-0.702
710	-0.712
711	-0.705
711	-0.707
712	-0.707
712	-0.719
713	-0.719
713	-0.726
713	-0.717
714	-0.714
714	-0.717
715	-0.708
715	-0.696
716	-0.706
716	-0.708
716	-0.702
717	-0.704
717	-0.706
718	-0.698
718	-0.699
719	-0.708
719	-0.71
720	-0.706
720	-0.716
720	-0.708
721	-0.699
721	-0.699
722	-0.686
722	-0.677
723	-0.677
723	-0.683
723	-0.669
724	-0.673
724	-0.68
725	-0.681
725	-0.691
726	-0.704
726	-0.711
727	-0.717
727	-0.731
727	-0.739
728	-0.74
728	-0.749
729	-0.749
729	-0.754
730	-0.76
730	-0.752
730	-0.742
731	-0.724
731	-0.736
732	-0.743
732	-0.743
733	-0.741
733	-0.744
734	-0.737
734	-0.737
734	-0.722
735	-0.722
735	-0.725
736	-0.737
736	-0.724
737	-0.715
737	-0.717
737	-0.727
738	-0.724
738	-0.725
739	-0.724
739	-0.737
740	-0.736
740	-0.733
741	-0.731
741	-0.732
741	-0.735
742	-0.733
742	-0.732
743	-0.741
743	-0.746
744	-0.742
744	-0.735
744	-0.737
745	-0.746
745	-0.737
746	-0.737
746	-0.734
747	-0.734
747	-0.724
748	-0.71
748	-0.716
748	-0.716
749	-0.713
749	-0.714
750	-0.703
750	-0.704
751	-0.708
751	-0.718
751	-0.723
752	-0.727
752	-0.736
753	-0.729
753	-0.729
754	-0.733
754	-0.725
754	-0.74
755	-0.757
755	-0.768
756	-0.757
756	-0.754
757	-0.752
757	-0.748
758	-0.75
758	-0.747
758	-0.75
759	-0.758
759	-0.741
760	-0.733
760	-0.73
761	-0.739
761	-0.737
761	-0.736
762	-0.746
762	-0.746
763	-0.756
763	-0.754
764	-0.752
764	-0.76
764	-0.765
765	-0.754
765	-0.739
766	-0.747
766	-0.754
767	-0.768
767	-0.763
768	-0.754
768	-0.762
768	-0.766
769	-0.784
769	-0.786
770	-0.792
770	-0.805
771	-0.801
771	-0.803
771	-0.804
772	-0.808
772	-0.806
773	-0.806
773	-0.802
774	-0.799
774	-0.8
775	-0.803
775	-0.799
775	-0.807
776	-0.807
776	-0.794
777	-0.801
777	-0.819
778	-0.815
778	-0.834
778	-0.821
779	-0.843
779	-0.849
780	-0.862
780	-0.86
781	-0.87
781	-0.865
781	-0.88
782	-0.882
782	-0.883
783	-0.869
783	-0.866
784	-0.844
784	-0.835
784	-0.843
785	-0.851
785	-0.839
786	-0.848
786	-0.829
787	-0.816
787	-0.821
788	-0.825
788	-0.837
788	-0.851
789	-0.854
789	-0.836
790	-0.82
790	-0.822
791	-0.822
791	-0.839
791	-0.847
792	-0.839
792	-0.816
793	-0.805
793	-0.783
794	-0.788
794	-0.781
794	-0.789
795	-0.785
795	-0.778
796	-0.762
796	-0.768
797	-0.762
797	-0.776
797	-0.783
798	-0.796
798	-0.789
799	-0.803
799	-0.788
800	-0.794
800	-0.787
801	-0.793
801	-0.777
801	-0.788
802	-0.797
802	-0.795
803	-0.793
803	-0.803
804	-0.795
804	-0.804
804	-0.791
805	-0.796
805	-0.784
806	-0.787
806	-0.773
807	-0.771
807	-0.754
807	-0.742
808	-0.731
808	-0.725
809	-0.713
809	-0.722
810	-0.72
810	-0.712
810	-0.709
811	-0.716
811	-0.707
812	-0.709
812	-0.714
813	-0.72
813	-0.716
813	-0.719
814	-0.723
814	-0.727
815	-0.733
815	-0.736
816	-0.727
816	-0.731
817	-0.738
817	-0.755
817	-0.769
818	-0.777
818	-0.781
819	-0.773
819	-0.773
820	-0.784
820	-0.78
820	-0.79
821	-0.788
821	-0.778
822	-0.748
822	-0.724
823	-0.722
823	-0.726
823	-0.721
824	-0.715
824	-0.716
825	-0.71
825	-0.691
826	-0.688
826	-0.695
826	-0.704
827	-0.699
827	-0.692
828	-0.671
828	-0.673
829	-0.663
829	-0.649
829	-0.641
830	-0.652
830	-0.647
831	-0.637
831	-0.627
832	-0.626
832	-0.62
832	-0.628
833	-0.621
833	-0.623
834	-0.62
834	-0.63
835	-0.616
835	-0.61
835	-0.606
836	-0.604
836	-0.598
837	-0.596
837	-0.585
838	-0.577
838	-0.563
839	-0.552
839	-0.537
839	-0.529
840	-0.518
840	-0.517
841	-0.504
841	-0.497
842	-0.49
842	-0.48
842	-0.471
843	-0.466
843	-0.461
844	-0.452
844	-0.443
845	-0.433
845	-0.42
845	-0.406
846	-0.394
846	-0.379
847	-0.367
847	-0.356
848	-0.343
848	-0.333
848	-0.317
849	-0.306
849	-0.295
850	-0.28
850	-0.274
851	-0.264
851	-0.252
851	-0.242
852	-0.225
852	-0.212
853	-0.201
853	-0.195
854	-0.181
854	-0.169
854	-0.159
855	-0.147
855	-0.14
856	-0.128
856	-0.119
857	-0.114
857	-0.105
857	-0.092
858	-0.08
858	-0.072
859	-0.062
859	-0.05
860	-0.04
860	-0.026
860	-0.018
861	-0.008
861	0.002
862	0.01
862	0.018
863	0.025
863	0.033
863	0.039
864	0.044
864	0.05
865	0.057
865	0.062
866	0.068
866	0.072
866	0.077
867	0.082
867	0.087
868	0.091
868	0.095
869	0.099
869	0.102
869	0.104
870	0.107
870	0.11
871	0.112
871	0.114
872	0.115
872	0.115
872	0.116
873	0.115
873	0.115
874	0.114
874	0.113
875	0.112
875	0.111
875	0.11
876	0.109
876	0.108
877	0.107
877	0.106
878	0.105
878	0.105
878	0.104
879	0.104
879	0.103
880	0.103
880	0.103
881	0.103
881	0.103
881	0.102
882	0.102
882	0.101
883	0.1
883	0.099
884	0.098
884	0.097
884	0.096
885	0.096
885	0.095
886	0.094
886	0.093
887	0.092
887	0.091
887	0.091
888	0.09
888	0.09
889	0.09
889	0.09
890	0.089
890	0.088
890	0.088
891	0.087
891	0.086
892	0.087
892	0.086
893	0.087
893	0.087
893	0.087
894	0.088
894	0.088
895	0.088
895	0.088
895	0.088
896	0.088
896	0.087
897	0.087
897	0.086
898	0.085
898	0.084
898	0.084
899	0.083
899	0.083
900	0.084
900	0.083
901	0.084
901	0.084
901	0.085
902	0.085
902	0.086
903	0.087
903	0.087
904	0.088
904	0.089
904	0.09
905	0.091
905	0.091
906	0.092
906	0.093
907	0.094
907	0.094
907	0.095
908	0.096
908	0.096
909	0.096
909	0.096
910	0.097
910	0.097
910	0.097
911	0.097
911	0.097
912	0.097
912	0.097
913	0.096
913	0.096
913	0.096
914	0.095
914	0.094
915	0.093
915	0.092
916	0.091
916	0.091
916	0.09
917	0.089
917	0.088
918	0.088
918	0.088
918	0.087
919	0.087
919	0.087
920	0.087
920	0.087
921	0.087
921	0.087
921	0.088
922	0.088
922	0.088
923	0.089
923	0.089
924	0.089
924	0.089
924	0.089
925	0.089
925	0.089
926	0.089
926	0.088
927	0.087
927	0.086
927	0.086
928	0.085
928	0.084
929	0.083
929	0.083
930	0.082
930	0.081
930	0.08
931	0.079
931	0.079
932	0.078
932	0.078
933	0.077
933	0.076
933	0.075
934	0.074
934	0.073
935	0.072
935	0.071
935	0.07
936	0.068
936	0.067
937	0.066
937	0.065
938	0.065
938	0.065
938	0.066
939	0.067
939	0.068
940	0.069
940	0.069
941	0.07
941	0.07
941	0.071
942	0.071
942	0.071
943	0.07
943	0.07
944	0.069
944	0.068
944	0.068
945	0.067
945	0.066
946	0.065
946	0.064
946	0.064
947	0.063
947	0.063
948	0.063
948	0.062
949	0.062
949	0.062
949	0.062
950	0.062
950	0.061
951	0.062
951	0.061
952	0.06
952	0.06
952	0.06
953	0.06
953	0.06
954	0.059
954	0.058
955	0.058
955	0.059
955	0.059
956	0.059
956	0.06
957	0.06
957	0.06
957	0.06
958	0.06
958	0.061
959	0.061
959	0.062
960	0.062
960	0.062
960	0.063
961	0.063
961	0.063
962	0.064
962	0.064
963	0.064
963	0.064
963	0.064
964	0.064
964	0.064
965	0.064
965	0.064
966	0.063
966	0.063
966	0.063
967	0.064
967	0.063
968	0.064
968	0.064
968	0.065
969	0.066
969	0.067
970	0.068
970	0.069
971	0.071
971	0.072
971	0.073
972	0.074
972	0.074
973	0.075
973	0.075
974	0.074
974	0.074
974	0.073
975	0.072
975	0.071
976	0.069
976	0.068
976	0.067
977	0.066
977	0.065
978	0.063
978	0.062
979	0.061
979	0.06
979	0.059
980	0.058
980	0.058
981	0.057
981	0.057
982	0.056
982	0.055
982	0.055
983	0.054
983	0.054
984	0.053
984	0.053
984	0.053
985	0.053
985	0.052
986	0.052
986	0.052
987	0.053
987	0.053
987	0.053
988	0.053
988	0.052
989	0.052
989	0.051
990	0.05
990	0.049
990	0.049
991	0.048
991	0.048
992	0.048
992	0.048
992	0.048
993	0.048
993	0.048
994	0.049
994	0.049
995	0.05
995	0.05
995	0.051
996	0.051
996	0.051
997	0.052
997	0.053
997	0.053
998	0.054
998	0.054
999	0.055
999	0.055
1000	0.056
1000	0.056
1000	0.056
1001	0.056
1001	0.056
1002	0.055
1002	0.055
1003	0.055
1003	0.054
1003	0.053
1004	0.052
1004	0.05
1005	0.048
1005	0.047
1005	0.045
1006	0.043
1006	0.042
1007	0.041
1007	0.04
1008	0.039
1008	0.038
1008	0.038
1009	0.039
1009	0.039
1010	0.04
1010	0.04
1010	0.041
1011	0.041
1011	0.041
1012	0.041
1012	0.041
1013	0.041
1013	0.041
1013	0.041
1014	0.041
1014	0.04
1015	0.04
1015	0.041
1016	0.041
1016	0.041
1016	0.042
1017	0.042
1017	0.043
1018	0.043
1018	0.043
1018	0.043
1019	0.043
1019	0.042
1020	0.042
1020	0.042
1021	0.041
1021	0.04
1021	0.039
1022	0.039
1022	0.038
1023	0.038
1023	0.038
1023	0.038
1024	0.038
1024	0.037
1025	0.037
1025	0.038
1026	0.038
1026	0.038
1026	0.038
1027	0.038
1027	0.038
1028	0.038
1028	0.038
1028	0.038
1029	0.039
1029	0.039
1030	0.039
1030	0.039
1031	0.04
1031	0.041
1031	0.041
1032	0.041
1032	0.041
1033	0.041
1033	0.042
1033	0.042
1034	0.042
1034	0.042
1035	0.041
1035	0.041
1036	0.04
1036	0.04
1036	0.04
1037	0.039
1037	0.039
1038	0.039
1038	0.039
1039	0.04
1039	0.04
1039	0.041
1040	0.041
1040	0.042
1041	0.042
1041	0.043
1041	0.044
1042	0.044
1042	0.044
1043	0.044
1043	0.044
1044	0.044
1044	0.044
1044	0.043
1045	0.043
1045	0.043
1046	0.043
1046	0.043
1046	0.043
1047	0.044
1047	0.044
1048	0.044
1048	0.044
1049	0.045
1049	0.045
1049	0.045
1050	0.045
1050	0.045
1051	0.044
1051	0.044
1051	0.044
1052	0.044
1052	0.043
1053	0.042
1053	0.042
1053	0.041
1054	0.039
1054	0.038
1055	0.037
1055	0.036
1056	0.034
1056	0.033
1056	0.031
1057	0.029
1057	0.028
1058	0.028
1058	0.027
1058	0.026
1059	0.025
1059	0.024
1060	0.024
1060	0.024
1061	0.023
1061	0.023
1061	0.023
1062	0.023
1062	0.023
1063	0.023
1063	0.023
1063	0.023
1064	0.023
1064	0.023
1065	0.023
1065	0.023
1066	0.022
1066	0.023
1066	0.023
1067	0.023
1067	0.023
1068	0.023
1068	0.023
1068	0.022
1069	0.023
1069	0.022
1070	0.022
1070	0.022
1071	0.022
1071	0.022
1071	0.022
1072	0.022
1072	0.022
1073	0.022
1073	0.022
1073	0.022
1074	0.023
1074	0.023
1075	0.023
1075	0.022
1076	0.021
1076	0.021
1076	0.02
1077	0.019
1077	0.018
1078	0.017
1078	0.016
1078	0.015
1079	0.014
1079	0.013
1080	0.012
1080	0.011
1080	0.01
1081	0.009
1081	0.009
1082	0.008
1082	0.006
1083	0.005
1083	0.004
1083	0.003
1084	0.002
1084	0
1085	-0.001
1085	-0.002
1085	-0.002
1086	-0.003
1086	-0.005
1087	-0.006
1087	-0.006
1088	-0.007
1088	-0.008
1088	-0.008
1089	-0.009
1089	-0.009
1090	-0.011
1090	-0.011
1090	-0.011
1091	-0.011
1091	-0.012
1092	-0.012
1092	-0.011
1092	-0.012
1093	-0.012
1093	-0.011
1094	-0.011
1094	-0.012
1095	-0.013
1095	-0.013
1095	-0.014
1096	-0.014
1096	-0.016
1097	-0.016
1097	-0.017
1097	-0.018
1098	-0.02
1098	-0.022
1099	-0.022
1099	-0.023
1100	-0.024
1100	-0.026
1100	-0.028
1101	-0.031
1101	-0.034
1102	-0.037
1102	-0.041
1102	-0.042
1103	-0.043
1103	-0.047
1104	-0.049
1104	-0.052
1104	-0.054
1105	-0.056
1105	-0.059
1106	-0.062
1106	-0.065
1107	-0.069
1107	-0.074
1107	-0.081
1108	-0.083
1108	-0.086
1109	-0.09
1109	-0.094
1109	-0.098
1110	-0.1
1110	-0.104
1111	-0.113
1111	-0.112
