Data from 17C_3.4A_35min_2sec_int_Absorbance__656__04741.txt Node

Date: Mon Jun 19 20:08:31 CEST 2023
User: Marek
Spectrometer: MAYP115816
Trigger mode: 0
Integration Time (sec): 2.500000E-1
Scans to average: 10
Electric dark correction enabled: true
Nonlinearity correction enabled: true
Boxcar width: 5
XAxis mode: Wavelengths
Number of Pixels in Spectrum: 2068
>>>>>Begin Spectral Data<<<<<
199	-0.788
199	-0.798
200	-0.7
200	-0.641
201	-0.602
201	-0.588
202	-0.57
202	-0.556
203	-0.548
203	-0.544
204	-0.531
204	-0.516
205	-0.494
205	-0.487
205	-0.488
206	-0.492
206	-0.493
207	-0.487
207	-0.488
208	-0.491
208	-0.488
209	-0.481
209	-0.482
210	-0.485
210	-0.491
211	-0.491
211	-0.494
212	-0.498
212	-0.506
213	-0.505
213	-0.505
213	-0.511
214	-0.508
214	-0.509
215	-0.507
215	-0.514
216	-0.517
216	-0.524
217	-0.519
217	-0.522
218	-0.524
218	-0.525
219	-0.527
219	-0.539
220	-0.544
220	-0.555
221	-0.55
221	-0.553
221	-0.546
222	-0.544
222	-0.544
223	-0.549
223	-0.553
224	-0.557
224	-0.556
225	-0.551
225	-0.545
226	-0.553
226	-0.553
227	-0.558
227	-0.566
228	-0.568
228	-0.569
229	-0.57
229	-0.565
229	-0.559
230	-0.565
230	-0.568
231	-0.561
231	-0.554
232	-0.55
232	-0.547
233	-0.542
233	-0.54
234	-0.539
234	-0.535
235	-0.538
235	-0.543
236	-0.542
236	-0.545
236	-0.55
237	-0.556
237	-0.558
238	-0.568
238	-0.566
239	-0.567
239	-0.575
240	-0.575
240	-0.572
241	-0.577
241	-0.575
242	-0.58
242	-0.575
243	-0.571
243	-0.57
243	-0.578
244	-0.578
244	-0.577
245	-0.591
245	-0.591
246	-0.597
246	-0.604
247	-0.607
247	-0.611
248	-0.617
248	-0.615
249	-0.617
249	-0.627
250	-0.627
250	-0.623
250	-0.623
251	-0.617
251	-0.617
252	-0.618
252	-0.608
253	-0.612
253	-0.625
254	-0.625
254	-0.622
255	-0.629
255	-0.621
256	-0.62
256	-0.632
257	-0.63
257	-0.63
258	-0.649
258	-0.646
258	-0.64
259	-0.636
259	-0.645
260	-0.644
260	-0.648
261	-0.659
261	-0.651
262	-0.646
262	-0.646
263	-0.634
263	-0.629
264	-0.629
264	-0.636
265	-0.631
265	-0.638
265	-0.643
266	-0.641
266	-0.64
267	-0.656
267	-0.667
268	-0.682
268	-0.69
269	-0.688
269	-0.682
270	-0.687
270	-0.69
271	-0.69
271	-0.695
272	-0.697
272	-0.688
272	-0.679
273	-0.678
273	-0.687
274	-0.693
274	-0.697
275	-0.696
275	-0.69
276	-0.696
276	-0.69
277	-0.693
277	-0.713
278	-0.725
278	-0.719
278	-0.712
279	-0.715
279	-0.727
280	-0.725
280	-0.725
281	-0.718
281	-0.724
282	-0.718
282	-0.717
283	-0.705
283	-0.707
284	-0.703
284	-0.692
285	-0.687
285	-0.685
285	-0.684
286	-0.692
286	-0.688
287	-0.685
287	-0.671
288	-0.663
288	-0.675
289	-0.688
289	-0.699
290	-0.689
290	-0.688
291	-0.686
291	-0.679
292	-0.681
292	-0.687
292	-0.691
293	-0.699
293	-0.687
294	-0.676
294	-0.663
295	-0.66
295	-0.656
296	-0.653
296	-0.649
297	-0.642
297	-0.625
298	-0.617
298	-0.626
298	-0.613
299	-0.606
299	-0.608
300	-0.605
300	-0.602
301	-0.598
301	-0.599
302	-0.608
302	-0.618
303	-0.606
303	-0.591
304	-0.592
304	-0.593
305	-0.593
305	-0.59
305	-0.587
306	-0.568
306	-0.562
307	-0.547
307	-0.547
308	-0.561
308	-0.557
309	-0.56
309	-0.548
310	-0.537
310	-0.533
311	-0.525
311	-0.536
311	-0.534
312	-0.528
312	-0.526
313	-0.51
313	-0.513
314	-0.509
314	-0.51
315	-0.512
315	-0.511
316	-0.507
316	-0.495
317	-0.487
317	-0.485
318	-0.474
318	-0.472
318	-0.467
319	-0.457
319	-0.455
320	-0.448
320	-0.448
321	-0.452
321	-0.453
322	-0.447
322	-0.442
323	-0.442
323	-0.437
324	-0.431
324	-0.421
324	-0.408
325	-0.399
325	-0.382
326	-0.367
326	-0.349
327	-0.333
327	-0.31
328	-0.284
328	-0.261
329	-0.236
329	-0.214
330	-0.187
330	-0.151
330	-0.123
331	-0.092
331	-0.061
332	-0.034
332	-0.009
333	0.016
333	0.042
334	0.065
334	0.085
335	0.105
335	0.121
336	0.137
336	0.152
336	0.163
337	0.177
337	0.187
338	0.197
338	0.203
339	0.213
339	0.22
340	0.226
340	0.231
341	0.236
341	0.239
342	0.244
342	0.247
342	0.25
343	0.253
343	0.257
344	0.258
344	0.259
345	0.261
345	0.262
346	0.263
346	0.264
347	0.265
347	0.266
348	0.267
348	0.268
348	0.268
349	0.269
349	0.269
350	0.269
350	0.269
351	0.27
351	0.27
352	0.27
352	0.27
353	0.27
353	0.27
354	0.269
354	0.269
354	0.269
355	0.269
355	0.269
356	0.269
356	0.269
357	0.267
357	0.267
358	0.267
358	0.267
359	0.267
359	0.267
360	0.267
360	0.267
360	0.266
361	0.266
361	0.266
362	0.266
362	0.266
363	0.265
363	0.265
364	0.265
364	0.265
365	0.265
365	0.264
366	0.264
366	0.264
366	0.264
367	0.265
367	0.265
368	0.264
368	0.264
369	0.264
369	0.264
370	0.264
370	0.264
371	0.264
371	0.264
372	0.263
372	0.264
372	0.264
373	0.264
373	0.263
374	0.263
374	0.263
375	0.263
375	0.263
376	0.263
376	0.263
377	0.263
377	0.262
378	0.262
378	0.262
378	0.262
379	0.262
379	0.261
380	0.261
380	0.261
381	0.261
381	0.261
382	0.261
382	0.26
383	0.26
383	0.26
383	0.26
384	0.26
384	0.26
385	0.259
385	0.259
386	0.259
386	0.259
387	0.259
387	0.258
388	0.258
388	0.257
389	0.257
389	0.257
389	0.257
390	0.257
390	0.257
391	0.257
391	0.257
392	0.257
392	0.257
393	0.257
393	0.257
394	0.256
394	0.256
394	0.256
395	0.255
395	0.255
396	0.255
396	0.254
397	0.254
397	0.254
398	0.254
398	0.254
399	0.254
399	0.254
400	0.254
400	0.253
400	0.253
401	0.253
401	0.253
402	0.253
402	0.252
403	0.252
403	0.252
404	0.252
404	0.252
405	0.252
405	0.252
405	0.251
406	0.251
406	0.251
407	0.251
407	0.251
408	0.25
408	0.25
409	0.25
409	0.25
410	0.25
410	0.25
411	0.25
411	0.25
411	0.25
412	0.25
412	0.25
413	0.25
413	0.25
414	0.249
414	0.249
415	0.249
415	0.248
416	0.248
416	0.248
416	0.248
417	0.247
417	0.247
418	0.248
418	0.248
419	0.248
419	0.248
420	0.248
420	0.248
421	0.248
421	0.248
421	0.248
422	0.248
422	0.248
423	0.248
423	0.248
424	0.247
424	0.247
425	0.247
425	0.247
426	0.246
426	0.246
427	0.246
427	0.245
427	0.245
428	0.245
428	0.245
429	0.245
429	0.245
430	0.245
430	0.245
431	0.244
431	0.244
432	0.244
432	0.244
432	0.243
433	0.244
433	0.243
434	0.243
434	0.243
435	0.243
435	0.243
436	0.243
436	0.243
437	0.243
437	0.243
437	0.243
438	0.243
438	0.243
439	0.244
439	0.244
440	0.244
440	0.244
441	0.243
441	0.243
442	0.243
442	0.242
442	0.242
443	0.242
443	0.242
444	0.242
444	0.242
445	0.242
445	0.242
446	0.242
446	0.242
447	0.242
447	0.242
447	0.242
448	0.242
448	0.242
449	0.242
449	0.242
450	0.243
450	0.243
451	0.243
451	0.243
452	0.243
452	0.243
452	0.243
453	0.242
453	0.242
454	0.241
454	0.241
455	0.241
455	0.241
456	0.241
456	0.241
457	0.24
457	0.241
458	0.241
458	0.241
458	0.241
459	0.241
459	0.242
460	0.242
460	0.242
461	0.242
461	0.243
462	0.243
462	0.243
463	0.243
463	0.243
463	0.243
464	0.243
464	0.242
465	0.242
465	0.242
466	0.242
466	0.243
467	0.243
467	0.243
467	0.243
468	0.244
468	0.244
469	0.244
469	0.245
470	0.245
470	0.245
471	0.245
471	0.245
472	0.245
472	0.246
472	0.246
473	0.246
473	0.247
474	0.247
474	0.247
475	0.247
475	0.248
476	0.248
476	0.249
477	0.249
477	0.249
477	0.25
478	0.25
478	0.251
479	0.251
479	0.252
480	0.253
480	0.253
481	0.254
481	0.254
482	0.255
482	0.255
482	0.255
483	0.256
483	0.256
484	0.256
484	0.256
485	0.257
485	0.257
486	0.258
486	0.259
487	0.259
487	0.26
487	0.261
488	0.262
488	0.263
489	0.264
489	0.266
490	0.268
490	0.269
491	0.27
491	0.271
492	0.273
492	0.274
492	0.275
493	0.276
493	0.277
494	0.279
494	0.28
495	0.281
495	0.283
496	0.285
496	0.286
496	0.288
497	0.289
497	0.291
498	0.292
498	0.293
499	0.294
499	0.296
500	0.297
500	0.298
501	0.3
501	0.301
501	0.302
502	0.303
502	0.304
503	0.306
503	0.307
504	0.309
504	0.31
505	0.312
505	0.314
506	0.316
506	0.317
506	0.32
507	0.321
507	0.324
508	0.325
508	0.327
509	0.329
509	0.331
510	0.333
510	0.334
511	0.336
511	0.337
511	0.338
512	0.339
512	0.34
513	0.342
513	0.343
514	0.344
514	0.346
515	0.348
515	0.349
515	0.35
516	0.352
516	0.354
517	0.356
517	0.358
518	0.36
518	0.361
519	0.363
519	0.365
520	0.366
520	0.368
520	0.37
521	0.372
521	0.374
522	0.376
522	0.377
523	0.379
523	0.381
524	0.382
524	0.383
524	0.384
525	0.385
525	0.385
526	0.386
526	0.387
527	0.388
527	0.389
528	0.39
528	0.391
529	0.391
529	0.392
529	0.393
530	0.394
530	0.394
531	0.394
531	0.395
532	0.395
532	0.395
533	0.395
533	0.395
533	0.396
534	0.396
534	0.396
535	0.396
535	0.396
536	0.396
536	0.396
537	0.396
537	0.395
538	0.395
538	0.394
538	0.394
539	0.394
539	0.394
540	0.393
540	0.392
541	0.391
541	0.391
542	0.391
542	0.39
542	0.389
543	0.389
543	0.388
544	0.387
544	0.386
545	0.386
545	0.385
546	0.385
546	0.384
547	0.383
547	0.381
547	0.381
548	0.38
548	0.38
549	0.379
549	0.378
550	0.377
550	0.376
551	0.375
551	0.375
551	0.374
552	0.373
552	0.372
553	0.371
553	0.37
554	0.369
554	0.368
555	0.367
555	0.366
556	0.364
556	0.363
556	0.362
557	0.361
557	0.36
558	0.359
558	0.357
559	0.356
559	0.355
560	0.353
560	0.352
560	0.351
561	0.35
561	0.349
562	0.347
562	0.346
563	0.344
563	0.343
564	0.342
564	0.341
564	0.34
565	0.339
565	0.338
566	0.336
566	0.335
567	0.334
567	0.333
568	0.332
568	0.33
568	0.329
569	0.328
569	0.326
570	0.324
570	0.322
571	0.321
571	0.32
572	0.319
572	0.317
573	0.316
573	0.314
573	0.313
574	0.312
574	0.311
575	0.31
575	0.31
576	0.309
576	0.307
577	0.305
577	0.304
577	0.304
578	0.303
578	0.302
579	0.302
579	0.301
580	0.299
580	0.296
581	0.294
581	0.294
581	0.293
582	0.293
582	0.292
583	0.291
583	0.29
584	0.288
584	0.287
585	0.287
585	0.287
585	0.287
586	0.287
586	0.287
587	0.286
587	0.285
588	0.284
588	0.284
589	0.283
589	0.283
590	0.283
590	0.283
590	0.283
591	0.283
591	0.281
592	0.28
592	0.279
593	0.279
593	0.279
594	0.278
594	0.278
594	0.278
595	0.278
595	0.277
596	0.278
596	0.279
597	0.28
597	0.28
598	0.279
598	0.279
598	0.278
599	0.277
599	0.276
600	0.275
600	0.273
601	0.272
601	0.271
602	0.269
602	0.269
602	0.267
603	0.267
603	0.267
604	0.267
604	0.267
605	0.267
605	0.267
606	0.266
606	0.265
606	0.264
607	0.263
607	0.263
608	0.262
608	0.261
609	0.26
609	0.261
610	0.26
610	0.26
610	0.261
611	0.261
611	0.262
612	0.263
612	0.263
613	0.263
613	0.263
614	0.262
614	0.26
614	0.259
615	0.258
615	0.257
616	0.257
616	0.256
617	0.255
617	0.254
618	0.254
618	0.254
618	0.254
619	0.254
619	0.255
620	0.256
620	0.256
621	0.256
621	0.256
622	0.256
622	0.257
622	0.256
623	0.256
623	0.256
624	0.256
624	0.255
625	0.255
625	0.255
626	0.254
626	0.254
626	0.254
627	0.254
627	0.254
628	0.254
628	0.254
629	0.253
629	0.253
630	0.253
630	0.253
630	0.253
631	0.253
631	0.253
632	0.252
632	0.252
633	0.252
633	0.252
634	0.251
634	0.251
634	0.25
635	0.249
635	0.248
636	0.247
636	0.247
637	0.246
637	0.245
638	0.245
638	0.244
638	0.244
639	0.243
639	0.243
640	0.243
640	0.243
641	0.242
641	0.242
642	0.242
642	0.242
642	0.241
643	0.24
643	0.239
644	0.238
644	0.236
645	0.235
645	0.234
646	0.232
646	0.23
646	0.228
647	0.226
647	0.224
648	0.222
648	0.22
649	0.216
649	0.213
650	0.209
650	0.204
650	0.199
651	0.193
651	0.186
652	0.178
652	0.168
653	0.161
653	0.152
653	0.151
654	0.151
654	0.145
655	0.138
655	0.131
656	0.125
656	0.117
657	0.111
657	0.107
657	0.099
658	0.094
658	0.073
659	0.023
659	-0.032
660	-0.062
660	-0.082
661	-0.102
661	-0.122
661	-0.142
662	-0.16
662	-0.175
663	-0.189
663	-0.205
664	-0.218
664	-0.24
665	-0.251
665	-0.268
665	-0.281
666	-0.288
666	-0.297
667	-0.305
667	-0.313
668	-0.326
668	-0.342
669	-0.35
669	-0.339
669	-0.306
670	-0.114
670	-0
671	-0
671	-0
672	-0
672	-0
672	-0
673	-0
673	-0
674	-0
674	-0
675	-0
675	-0
676	-0
676	-0
676	-0.113
677	-0.491
677	-0.516
678	-0.527
678	-0.526
679	-0.526
679	-0.539
680	-0.557
680	-0.561
680	-0.569
681	-0.589
681	-0.582
682	-0.596
682	-0.598
683	-0.601
683	-0.626
684	-0.643
684	-0.655
684	-0.662
685	-0.668
685	-0.67
686	-0.667
686	-0.671
687	-0.665
687	-0.675
687	-0.672
688	-0.659
688	-0.65
689	-0.642
689	-0.638
690	-0.628
690	-0.623
691	-0.626
691	-0.641
691	-0.664
692	-0.664
692	-0.663
693	-0.665
693	-0.681
694	-0.681
694	-0.679
695	-0.688
695	-0.691
695	-0.68
696	-0.68
696	-0.66
697	-0.662
697	-0.68
698	-0.687
698	-0.679
698	-0.699
699	-0.704
699	-0.707
700	-0.7
700	-0.717
701	-0.719
701	-0.732
702	-0.734
702	-0.724
702	-0.717
703	-0.711
703	-0.703
704	-0.701
704	-0.7
705	-0.715
705	-0.709
705	-0.698
706	-0.698
706	-0.695
707	-0.703
707	-0.701
708	-0.702
708	-0.694
709	-0.699
709	-0.704
709	-0.697
710	-0.708
710	-0.719
711	-0.71
711	-0.711
712	-0.71
712	-0.723
713	-0.722
713	-0.732
713	-0.723
714	-0.721
714	-0.722
715	-0.711
715	-0.699
716	-0.709
716	-0.711
716	-0.703
717	-0.704
717	-0.707
718	-0.697
718	-0.698
719	-0.704
719	-0.705
720	-0.701
720	-0.712
720	-0.706
721	-0.698
721	-0.702
722	-0.691
722	-0.681
723	-0.682
723	-0.688
723	-0.675
724	-0.68
724	-0.685
725	-0.686
725	-0.696
726	-0.71
726	-0.713
727	-0.722
727	-0.737
727	-0.743
728	-0.745
728	-0.753
729	-0.751
729	-0.756
730	-0.764
730	-0.755
730	-0.746
731	-0.727
731	-0.739
732	-0.745
732	-0.748
733	-0.746
733	-0.75
734	-0.746
734	-0.746
734	-0.731
735	-0.731
735	-0.732
736	-0.745
736	-0.729
737	-0.721
737	-0.721
737	-0.731
738	-0.726
738	-0.725
739	-0.722
739	-0.737
740	-0.735
740	-0.736
741	-0.73
741	-0.731
741	-0.734
742	-0.73
742	-0.731
743	-0.74
743	-0.746
744	-0.742
744	-0.731
744	-0.732
745	-0.739
745	-0.733
746	-0.734
746	-0.731
747	-0.734
747	-0.721
748	-0.709
748	-0.715
748	-0.718
749	-0.717
749	-0.718
750	-0.708
750	-0.709
751	-0.712
751	-0.721
751	-0.724
752	-0.728
752	-0.739
753	-0.732
753	-0.729
754	-0.733
754	-0.727
754	-0.74
755	-0.757
755	-0.768
756	-0.756
756	-0.754
757	-0.753
757	-0.746
758	-0.749
758	-0.746
758	-0.751
759	-0.76
759	-0.744
760	-0.737
760	-0.732
761	-0.743
761	-0.74
761	-0.74
762	-0.748
762	-0.748
763	-0.758
763	-0.755
764	-0.751
764	-0.758
764	-0.764
765	-0.755
765	-0.742
766	-0.749
766	-0.755
767	-0.769
767	-0.764
768	-0.754
768	-0.762
768	-0.767
769	-0.785
769	-0.785
770	-0.792
770	-0.804
771	-0.801
771	-0.804
771	-0.806
772	-0.809
772	-0.81
773	-0.808
773	-0.804
774	-0.802
774	-0.805
775	-0.806
775	-0.801
775	-0.808
776	-0.807
776	-0.795
777	-0.802
777	-0.819
778	-0.819
778	-0.838
778	-0.825
779	-0.846
779	-0.853
780	-0.866
780	-0.865
781	-0.878
781	-0.873
781	-0.888
782	-0.886
782	-0.887
783	-0.871
783	-0.869
784	-0.848
784	-0.836
784	-0.845
785	-0.851
785	-0.836
786	-0.843
786	-0.824
787	-0.814
787	-0.818
788	-0.824
788	-0.837
788	-0.852
789	-0.856
789	-0.84
790	-0.823
790	-0.826
791	-0.828
791	-0.847
791	-0.854
792	-0.847
792	-0.825
793	-0.812
793	-0.787
794	-0.791
794	-0.782
794	-0.79
795	-0.787
795	-0.778
796	-0.761
796	-0.766
797	-0.76
797	-0.774
797	-0.781
798	-0.794
798	-0.787
799	-0.797
799	-0.783
800	-0.789
800	-0.782
801	-0.788
801	-0.776
801	-0.786
802	-0.792
802	-0.794
803	-0.795
803	-0.805
804	-0.801
804	-0.813
804	-0.799
805	-0.804
805	-0.793
806	-0.795
806	-0.779
807	-0.778
807	-0.758
807	-0.746
808	-0.737
808	-0.731
809	-0.716
809	-0.725
810	-0.723
810	-0.716
810	-0.714
811	-0.721
811	-0.712
812	-0.713
812	-0.719
813	-0.723
813	-0.72
813	-0.726
814	-0.729
814	-0.732
815	-0.739
815	-0.742
816	-0.735
816	-0.74
817	-0.746
817	-0.763
817	-0.778
818	-0.784
818	-0.786
819	-0.777
819	-0.776
820	-0.785
820	-0.781
820	-0.792
821	-0.789
821	-0.779
822	-0.747
822	-0.721
823	-0.72
823	-0.724
823	-0.721
824	-0.717
824	-0.718
825	-0.711
825	-0.689
826	-0.685
826	-0.692
826	-0.703
827	-0.698
827	-0.694
828	-0.673
828	-0.673
829	-0.661
829	-0.647
829	-0.639
830	-0.651
830	-0.647
831	-0.64
831	-0.631
832	-0.628
832	-0.619
832	-0.628
833	-0.623
833	-0.625
834	-0.622
834	-0.63
835	-0.615
835	-0.611
835	-0.606
836	-0.602
836	-0.601
837	-0.598
837	-0.586
838	-0.577
838	-0.565
839	-0.553
839	-0.539
839	-0.531
840	-0.517
840	-0.513
841	-0.501
841	-0.49
842	-0.484
842	-0.473
842	-0.466
843	-0.46
843	-0.454
844	-0.445
844	-0.438
845	-0.429
845	-0.418
845	-0.405
846	-0.394
846	-0.38
847	-0.369
847	-0.356
848	-0.343
848	-0.332
848	-0.317
849	-0.305
849	-0.294
850	-0.278
850	-0.272
851	-0.264
851	-0.252
851	-0.243
852	-0.228
852	-0.214
853	-0.204
853	-0.197
854	-0.186
854	-0.173
854	-0.162
855	-0.149
855	-0.14
856	-0.129
856	-0.12
857	-0.112
857	-0.103
857	-0.088
858	-0.077
858	-0.068
859	-0.059
859	-0.047
860	-0.037
860	-0.022
860	-0.013
861	-0.003
861	0.007
862	0.015
862	0.021
863	0.029
863	0.038
863	0.044
864	0.049
864	0.055
865	0.061
865	0.066
866	0.071
866	0.076
866	0.081
867	0.086
867	0.09
868	0.094
868	0.098
869	0.102
869	0.106
869	0.108
870	0.111
870	0.114
871	0.117
871	0.119
872	0.12
872	0.12
872	0.12
873	0.12
873	0.12
874	0.119
874	0.118
875	0.117
875	0.116
875	0.115
876	0.114
876	0.113
877	0.112
877	0.111
878	0.11
878	0.109
878	0.109
879	0.108
879	0.108
880	0.108
880	0.108
881	0.108
881	0.108
881	0.107
882	0.107
882	0.106
883	0.105
883	0.103
884	0.103
884	0.102
884	0.101
885	0.1
885	0.099
886	0.098
886	0.097
887	0.095
887	0.094
887	0.093
888	0.093
888	0.093
889	0.093
889	0.093
890	0.092
890	0.091
890	0.09
891	0.09
891	0.09
892	0.09
892	0.09
893	0.09
893	0.09
893	0.091
894	0.091
894	0.091
895	0.091
895	0.091
895	0.092
896	0.091
896	0.09
897	0.09
897	0.089
898	0.088
898	0.087
898	0.087
899	0.087
899	0.087
900	0.087
900	0.087
901	0.088
901	0.088
901	0.089
902	0.089
902	0.09
903	0.091
903	0.091
904	0.092
904	0.093
904	0.094
905	0.095
905	0.095
906	0.096
906	0.097
907	0.098
907	0.098
907	0.099
908	0.1
908	0.1
909	0.101
909	0.101
910	0.101
910	0.101
910	0.1
911	0.101
911	0.1
912	0.1
912	0.1
913	0.1
913	0.099
913	0.099
914	0.098
914	0.097
915	0.096
915	0.095
916	0.095
916	0.094
916	0.093
917	0.092
917	0.092
918	0.091
918	0.091
918	0.091
919	0.091
919	0.091
920	0.091
920	0.091
921	0.091
921	0.091
921	0.091
922	0.091
922	0.092
923	0.092
923	0.092
924	0.092
924	0.092
924	0.092
925	0.092
925	0.092
926	0.091
926	0.091
927	0.09
927	0.089
927	0.088
928	0.087
928	0.086
929	0.086
929	0.085
930	0.084
930	0.083
930	0.082
931	0.082
931	0.081
932	0.081
932	0.08
933	0.08
933	0.079
933	0.077
934	0.076
934	0.075
935	0.074
935	0.073
935	0.072
936	0.07
936	0.069
937	0.068
937	0.067
938	0.067
938	0.067
938	0.068
939	0.069
939	0.07
940	0.071
940	0.071
941	0.072
941	0.072
941	0.073
942	0.073
942	0.072
943	0.072
943	0.071
944	0.07
944	0.07
944	0.069
945	0.068
945	0.067
946	0.066
946	0.066
946	0.065
947	0.065
947	0.065
948	0.065
948	0.065
949	0.065
949	0.065
949	0.065
950	0.064
950	0.063
951	0.063
951	0.063
952	0.062
952	0.062
952	0.061
953	0.06
953	0.06
954	0.06
954	0.06
955	0.06
955	0.061
955	0.061
956	0.061
956	0.062
957	0.062
957	0.062
957	0.062
958	0.063
958	0.063
959	0.064
959	0.064
960	0.065
960	0.065
960	0.065
961	0.066
961	0.066
962	0.066
962	0.066
963	0.067
963	0.067
963	0.066
964	0.066
964	0.066
965	0.066
965	0.066
966	0.066
966	0.066
966	0.066
967	0.066
967	0.066
968	0.066
968	0.067
968	0.068
969	0.069
969	0.07
970	0.071
970	0.072
971	0.073
971	0.075
971	0.076
972	0.076
972	0.077
973	0.078
973	0.077
974	0.077
974	0.076
974	0.076
975	0.075
975	0.074
976	0.072
976	0.071
976	0.07
977	0.069
977	0.068
978	0.067
978	0.066
979	0.065
979	0.063
979	0.063
980	0.062
980	0.061
981	0.061
981	0.06
982	0.06
982	0.059
982	0.058
983	0.058
983	0.057
984	0.057
984	0.056
984	0.056
985	0.056
985	0.056
986	0.055
986	0.055
987	0.056
987	0.056
987	0.056
988	0.056
988	0.055
989	0.055
989	0.054
990	0.053
990	0.052
990	0.052
991	0.051
991	0.051
992	0.05
992	0.05
992	0.05
993	0.051
993	0.051
994	0.052
994	0.052
995	0.053
995	0.053
995	0.053
996	0.054
996	0.054
997	0.054
997	0.055
997	0.055
998	0.056
998	0.056
999	0.057
999	0.057
1000	0.058
1000	0.058
1000	0.058
1001	0.058
1001	0.058
1002	0.058
1002	0.058
1003	0.057
1003	0.057
1003	0.056
1004	0.054
1004	0.053
1005	0.051
1005	0.05
1005	0.048
1006	0.047
1006	0.045
1007	0.044
1007	0.043
1008	0.042
1008	0.041
1008	0.041
1009	0.041
1009	0.042
1010	0.042
1010	0.043
1010	0.043
1011	0.044
1011	0.044
1012	0.044
1012	0.044
1013	0.044
1013	0.043
1013	0.043
1014	0.043
1014	0.042
1015	0.043
1015	0.043
1016	0.043
1016	0.044
1016	0.044
1017	0.044
1017	0.045
1018	0.045
1018	0.045
1018	0.045
1019	0.045
1019	0.045
1020	0.044
1020	0.044
1021	0.043
1021	0.042
1021	0.041
1022	0.041
1022	0.04
1023	0.04
1023	0.04
1023	0.039
1024	0.039
1024	0.039
1025	0.039
1025	0.039
1026	0.04
1026	0.04
1026	0.04
1027	0.04
1027	0.041
1028	0.041
1028	0.041
1028	0.041
1029	0.042
1029	0.042
1030	0.042
1030	0.042
1031	0.043
1031	0.043
1031	0.043
1032	0.044
1032	0.044
1033	0.044
1033	0.045
1033	0.045
1034	0.045
1034	0.045
1035	0.045
1035	0.044
1036	0.044
1036	0.043
1036	0.043
1037	0.043
1037	0.043
1038	0.043
1038	0.043
1039	0.043
1039	0.044
1039	0.044
1040	0.044
1040	0.045
1041	0.046
1041	0.046
1041	0.047
1042	0.047
1042	0.047
1043	0.047
1043	0.047
1044	0.047
1044	0.046
1044	0.046
1045	0.046
1045	0.045
1046	0.045
1046	0.045
1046	0.045
1047	0.045
1047	0.046
1048	0.046
1048	0.046
1049	0.046
1049	0.047
1049	0.047
1050	0.047
1050	0.047
1051	0.046
1051	0.046
1051	0.046
1052	0.046
1052	0.045
1053	0.045
1053	0.044
1053	0.043
1054	0.042
1054	0.041
1055	0.04
1055	0.039
1056	0.037
1056	0.036
1056	0.034
1057	0.033
1057	0.032
1058	0.031
1058	0.03
1058	0.029
1059	0.028
1059	0.027
1060	0.026
1060	0.026
1061	0.026
1061	0.026
1061	0.025
1062	0.025
1062	0.025
1063	0.025
1063	0.025
1063	0.025
1064	0.025
1064	0.025
1065	0.025
1065	0.025
1066	0.025
1066	0.025
1066	0.025
1067	0.025
1067	0.026
1068	0.026
1068	0.025
1068	0.025
1069	0.026
1069	0.025
1070	0.025
1070	0.025
1071	0.025
1071	0.025
1071	0.025
1072	0.025
1072	0.025
1073	0.025
1073	0.025
1073	0.025
1074	0.025
1074	0.026
1075	0.025
1075	0.026
1076	0.025
1076	0.025
1076	0.024
1077	0.023
1077	0.022
1078	0.02
1078	0.02
1078	0.019
1079	0.017
1079	0.017
1080	0.015
1080	0.014
1080	0.013
1081	0.012
1081	0.011
1082	0.01
1082	0.009
1083	0.008
1083	0.007
1083	0.006
1084	0.005
1084	0.004
1085	0.002
1085	0.001
1085	-0
1086	-0.001
1086	-0.003
1087	-0.003
1087	-0.003
1088	-0.004
1088	-0.005
1088	-0.005
1089	-0.006
1089	-0.007
1090	-0.008
1090	-0.008
1090	-0.009
1091	-0.009
1091	-0.009
1092	-0.01
1092	-0.01
1092	-0.011
1093	-0.011
1093	-0.01
1094	-0.011
1094	-0.011
1095	-0.012
1095	-0.012
1095	-0.012
1096	-0.013
1096	-0.014
1097	-0.015
1097	-0.015
1097	-0.016
1098	-0.018
1098	-0.019
1099	-0.02
1099	-0.021
1100	-0.024
1100	-0.025
1100	-0.027
1101	-0.03
1101	-0.033
1102	-0.036
1102	-0.039
1102	-0.04
1103	-0.043
1103	-0.046
1104	-0.049
1104	-0.051
1104	-0.053
1105	-0.056
1105	-0.059
1106	-0.063
1106	-0.065
1107	-0.07
1107	-0.075
1107	-0.081
1108	-0.083
1108	-0.085
1109	-0.089
1109	-0.094
1109	-0.098
1110	-0.1
1110	-0.103
1111	-0.114
1111	-0.113
