Data from 17C_3.4A_35min_2sec_int_Absorbance__700__04785.txt Node

Date: Mon Jun 19 20:10:21 CEST 2023
User: Marek
Spectrometer: MAYP115816
Trigger mode: 0
Integration Time (sec): 2.500000E-1
Scans to average: 10
Electric dark correction enabled: true
Nonlinearity correction enabled: true
Boxcar width: 5
XAxis mode: Wavelengths
Number of Pixels in Spectrum: 2068
>>>>>Begin Spectral Data<<<<<
199	-0.775
199	-0.791
200	-0.7
200	-0.646
201	-0.607
201	-0.596
202	-0.583
202	-0.57
203	-0.561
203	-0.557
204	-0.545
204	-0.531
205	-0.506
205	-0.5
205	-0.498
206	-0.502
206	-0.505
207	-0.493
207	-0.494
208	-0.495
208	-0.493
209	-0.487
209	-0.489
210	-0.492
210	-0.498
211	-0.501
211	-0.502
212	-0.502
212	-0.511
213	-0.511
213	-0.511
213	-0.517
214	-0.514
214	-0.513
215	-0.513
215	-0.518
216	-0.521
216	-0.53
217	-0.525
217	-0.531
218	-0.534
218	-0.534
219	-0.537
219	-0.547
220	-0.552
220	-0.561
221	-0.561
221	-0.563
221	-0.554
222	-0.551
222	-0.552
223	-0.556
223	-0.561
224	-0.564
224	-0.564
225	-0.56
225	-0.555
226	-0.559
226	-0.559
227	-0.566
227	-0.576
228	-0.576
228	-0.578
229	-0.578
229	-0.573
229	-0.568
230	-0.571
230	-0.572
231	-0.568
231	-0.56
232	-0.552
232	-0.55
233	-0.544
233	-0.542
234	-0.54
234	-0.537
235	-0.54
235	-0.546
236	-0.546
236	-0.548
236	-0.555
237	-0.563
237	-0.562
238	-0.572
238	-0.569
239	-0.57
239	-0.579
240	-0.578
240	-0.577
241	-0.584
241	-0.583
242	-0.587
242	-0.583
243	-0.58
243	-0.579
243	-0.589
244	-0.588
244	-0.585
245	-0.601
245	-0.598
246	-0.603
246	-0.609
247	-0.611
247	-0.614
248	-0.621
248	-0.619
249	-0.622
249	-0.631
250	-0.631
250	-0.625
250	-0.626
251	-0.622
251	-0.623
252	-0.626
252	-0.617
253	-0.625
253	-0.637
254	-0.633
254	-0.631
255	-0.641
255	-0.634
256	-0.631
256	-0.643
257	-0.637
257	-0.634
258	-0.651
258	-0.645
258	-0.638
259	-0.635
259	-0.643
260	-0.641
260	-0.648
261	-0.661
261	-0.651
262	-0.651
262	-0.652
263	-0.641
263	-0.636
264	-0.64
264	-0.648
265	-0.644
265	-0.65
265	-0.651
266	-0.648
266	-0.645
267	-0.66
267	-0.667
268	-0.681
268	-0.692
269	-0.687
269	-0.684
270	-0.689
270	-0.693
271	-0.695
271	-0.7
272	-0.704
272	-0.695
272	-0.688
273	-0.687
273	-0.694
274	-0.701
274	-0.704
275	-0.703
275	-0.696
276	-0.701
276	-0.692
277	-0.698
277	-0.717
278	-0.731
278	-0.726
278	-0.721
279	-0.723
279	-0.734
280	-0.732
280	-0.734
281	-0.729
281	-0.737
282	-0.729
282	-0.729
283	-0.719
283	-0.72
284	-0.714
284	-0.702
285	-0.698
285	-0.696
285	-0.693
286	-0.699
286	-0.695
287	-0.691
287	-0.674
288	-0.668
288	-0.679
289	-0.692
289	-0.704
290	-0.691
290	-0.69
291	-0.687
291	-0.683
292	-0.686
292	-0.692
292	-0.698
293	-0.703
293	-0.69
294	-0.678
294	-0.668
295	-0.667
295	-0.662
296	-0.659
296	-0.654
297	-0.646
297	-0.631
298	-0.623
298	-0.631
298	-0.618
299	-0.612
299	-0.615
300	-0.611
300	-0.609
301	-0.606
301	-0.607
302	-0.615
302	-0.623
303	-0.61
303	-0.596
304	-0.6
304	-0.598
305	-0.6
305	-0.597
305	-0.593
306	-0.578
306	-0.571
307	-0.557
307	-0.56
308	-0.573
308	-0.57
309	-0.57
309	-0.561
310	-0.549
310	-0.545
311	-0.536
311	-0.542
311	-0.539
312	-0.533
312	-0.53
313	-0.516
313	-0.52
314	-0.518
314	-0.521
315	-0.522
315	-0.522
316	-0.52
316	-0.511
317	-0.503
317	-0.5
318	-0.489
318	-0.485
318	-0.479
319	-0.468
319	-0.465
320	-0.457
320	-0.458
321	-0.461
321	-0.461
322	-0.456
322	-0.451
323	-0.451
323	-0.447
324	-0.439
324	-0.429
324	-0.416
325	-0.407
325	-0.389
326	-0.373
326	-0.354
327	-0.338
327	-0.316
328	-0.288
328	-0.266
329	-0.241
329	-0.217
330	-0.191
330	-0.156
330	-0.128
331	-0.098
331	-0.069
332	-0.043
332	-0.018
333	0.006
333	0.032
334	0.054
334	0.072
335	0.092
335	0.109
336	0.125
336	0.139
336	0.151
337	0.164
337	0.174
338	0.184
338	0.19
339	0.199
339	0.206
340	0.212
340	0.217
341	0.221
341	0.225
342	0.229
342	0.233
342	0.236
343	0.238
343	0.242
344	0.244
344	0.245
345	0.247
345	0.248
346	0.249
346	0.25
347	0.251
347	0.252
348	0.252
348	0.254
348	0.254
349	0.254
349	0.255
350	0.255
350	0.255
351	0.255
351	0.256
352	0.256
352	0.256
353	0.256
353	0.256
354	0.255
354	0.255
354	0.255
355	0.255
355	0.255
356	0.255
356	0.254
357	0.253
357	0.253
358	0.253
358	0.253
359	0.253
359	0.253
360	0.253
360	0.253
360	0.253
361	0.253
361	0.253
362	0.253
362	0.253
363	0.253
363	0.253
364	0.253
364	0.252
365	0.252
365	0.252
366	0.252
366	0.252
366	0.252
367	0.252
367	0.252
368	0.252
368	0.252
369	0.252
369	0.252
370	0.251
370	0.251
371	0.251
371	0.251
372	0.251
372	0.251
372	0.251
373	0.251
373	0.251
374	0.251
374	0.251
375	0.25
375	0.25
376	0.25
376	0.25
377	0.25
377	0.25
378	0.25
378	0.25
378	0.25
379	0.25
379	0.25
380	0.25
380	0.249
381	0.249
381	0.249
382	0.249
382	0.249
383	0.249
383	0.249
383	0.249
384	0.248
384	0.248
385	0.248
385	0.248
386	0.248
386	0.248
387	0.248
387	0.248
388	0.247
388	0.247
389	0.247
389	0.247
389	0.247
390	0.247
390	0.247
391	0.247
391	0.247
392	0.247
392	0.246
393	0.246
393	0.246
394	0.246
394	0.246
394	0.245
395	0.245
395	0.245
396	0.245
396	0.245
397	0.244
397	0.244
398	0.244
398	0.244
399	0.244
399	0.244
400	0.244
400	0.244
400	0.244
401	0.244
401	0.243
402	0.244
402	0.243
403	0.243
403	0.243
404	0.243
404	0.243
405	0.243
405	0.242
405	0.242
406	0.242
406	0.242
407	0.241
407	0.241
408	0.241
408	0.241
409	0.241
409	0.241
410	0.241
410	0.241
411	0.241
411	0.241
411	0.241
412	0.241
412	0.241
413	0.24
413	0.24
414	0.24
414	0.24
415	0.239
415	0.239
416	0.239
416	0.239
416	0.239
417	0.239
417	0.239
418	0.239
418	0.239
419	0.239
419	0.239
420	0.239
420	0.24
421	0.24
421	0.24
421	0.24
422	0.24
422	0.24
423	0.24
423	0.24
424	0.239
424	0.239
425	0.238
425	0.238
426	0.238
426	0.238
427	0.238
427	0.237
427	0.237
428	0.237
428	0.237
429	0.237
429	0.237
430	0.237
430	0.237
431	0.236
431	0.236
432	0.236
432	0.236
432	0.235
433	0.235
433	0.235
434	0.235
434	0.235
435	0.235
435	0.235
436	0.235
436	0.235
437	0.235
437	0.235
437	0.235
438	0.235
438	0.235
439	0.235
439	0.235
440	0.235
440	0.235
441	0.235
441	0.235
442	0.235
442	0.234
442	0.234
443	0.234
443	0.234
444	0.234
444	0.233
445	0.233
445	0.233
446	0.233
446	0.233
447	0.233
447	0.233
447	0.233
448	0.233
448	0.233
449	0.233
449	0.233
450	0.234
450	0.233
451	0.233
451	0.233
452	0.233
452	0.233
452	0.233
453	0.232
453	0.232
454	0.232
454	0.231
455	0.231
455	0.231
456	0.231
456	0.231
457	0.231
457	0.231
458	0.231
458	0.231
458	0.231
459	0.232
459	0.232
460	0.231
460	0.232
461	0.232
461	0.232
462	0.232
462	0.232
463	0.232
463	0.232
463	0.232
464	0.232
464	0.231
465	0.231
465	0.231
466	0.231
466	0.231
467	0.231
467	0.231
467	0.231
468	0.231
468	0.231
469	0.232
469	0.232
470	0.233
470	0.233
471	0.233
471	0.233
472	0.233
472	0.233
472	0.233
473	0.233
473	0.233
474	0.233
474	0.233
475	0.234
475	0.234
476	0.234
476	0.234
477	0.234
477	0.235
477	0.235
478	0.235
478	0.236
479	0.236
479	0.236
480	0.237
480	0.237
481	0.237
481	0.238
482	0.238
482	0.238
482	0.238
483	0.239
483	0.239
484	0.239
484	0.239
485	0.239
485	0.239
486	0.239
486	0.24
487	0.24
487	0.241
487	0.241
488	0.242
488	0.242
489	0.243
489	0.245
490	0.246
490	0.247
491	0.248
491	0.249
492	0.25
492	0.25
492	0.251
493	0.252
493	0.253
494	0.255
494	0.256
495	0.256
495	0.257
496	0.259
496	0.26
496	0.261
497	0.262
497	0.263
498	0.264
498	0.265
499	0.266
499	0.267
500	0.269
500	0.27
501	0.271
501	0.271
501	0.272
502	0.272
502	0.273
503	0.275
503	0.276
504	0.277
504	0.278
505	0.279
505	0.28
506	0.282
506	0.283
506	0.285
507	0.286
507	0.288
508	0.289
508	0.291
509	0.293
509	0.294
510	0.296
510	0.298
511	0.299
511	0.3
511	0.302
512	0.303
512	0.304
513	0.305
513	0.305
514	0.306
514	0.308
515	0.309
515	0.31
515	0.311
516	0.312
516	0.314
517	0.316
517	0.317
518	0.319
518	0.321
519	0.322
519	0.324
520	0.326
520	0.328
520	0.33
521	0.331
521	0.333
522	0.334
522	0.336
523	0.338
523	0.34
524	0.341
524	0.342
524	0.343
525	0.344
525	0.345
526	0.347
526	0.348
527	0.349
527	0.35
528	0.351
528	0.352
529	0.354
529	0.355
529	0.356
530	0.358
530	0.358
531	0.359
531	0.36
532	0.361
532	0.362
533	0.363
533	0.364
533	0.364
534	0.365
534	0.365
535	0.366
535	0.367
536	0.368
536	0.368
537	0.369
537	0.369
538	0.37
538	0.37
538	0.37
539	0.371
539	0.372
540	0.372
540	0.372
541	0.373
541	0.374
542	0.374
542	0.375
542	0.375
543	0.376
543	0.376
544	0.376
544	0.376
545	0.377
545	0.378
546	0.378
546	0.379
547	0.379
547	0.379
547	0.379
548	0.38
548	0.38
549	0.381
549	0.381
550	0.381
550	0.381
551	0.381
551	0.382
551	0.382
552	0.382
552	0.382
553	0.382
553	0.382
554	0.381
554	0.38
555	0.38
555	0.38
556	0.379
556	0.379
556	0.379
557	0.38
557	0.38
558	0.38
558	0.38
559	0.38
559	0.379
560	0.379
560	0.379
560	0.378
561	0.378
561	0.377
562	0.377
562	0.376
563	0.375
563	0.374
564	0.374
564	0.373
564	0.373
565	0.373
565	0.372
566	0.371
566	0.371
567	0.37
567	0.37
568	0.369
568	0.368
568	0.367
569	0.367
569	0.366
570	0.364
570	0.362
571	0.362
571	0.361
572	0.36
572	0.359
573	0.358
573	0.357
573	0.356
574	0.356
574	0.355
575	0.355
575	0.355
576	0.354
576	0.352
577	0.351
577	0.35
577	0.349
578	0.349
578	0.348
579	0.348
579	0.347
580	0.345
580	0.343
581	0.341
581	0.341
581	0.341
582	0.34
582	0.34
583	0.34
583	0.339
584	0.337
584	0.336
585	0.336
585	0.336
585	0.336
586	0.336
586	0.335
587	0.334
587	0.333
588	0.332
588	0.332
589	0.331
589	0.331
590	0.33
590	0.33
590	0.33
591	0.33
591	0.328
592	0.327
592	0.326
593	0.326
593	0.325
594	0.324
594	0.324
594	0.324
595	0.324
595	0.323
596	0.323
596	0.325
597	0.326
597	0.325
598	0.324
598	0.324
598	0.323
599	0.323
599	0.321
600	0.32
600	0.318
601	0.317
601	0.316
602	0.314
602	0.313
602	0.312
603	0.311
603	0.311
604	0.311
604	0.31
605	0.31
605	0.31
606	0.308
606	0.307
606	0.306
607	0.305
607	0.305
608	0.304
608	0.303
609	0.302
609	0.302
610	0.302
610	0.302
610	0.303
611	0.304
611	0.305
612	0.305
612	0.306
613	0.306
613	0.306
614	0.304
614	0.303
614	0.302
615	0.301
615	0.3
616	0.299
616	0.298
617	0.297
617	0.296
618	0.295
618	0.295
618	0.295
619	0.295
619	0.295
620	0.296
620	0.295
621	0.295
621	0.295
622	0.295
622	0.295
622	0.294
623	0.294
623	0.294
624	0.294
624	0.293
625	0.293
625	0.293
626	0.292
626	0.292
626	0.293
627	0.293
627	0.293
628	0.293
628	0.292
629	0.292
629	0.291
630	0.291
630	0.29
630	0.291
631	0.29
631	0.289
632	0.289
632	0.288
633	0.288
633	0.288
634	0.287
634	0.287
634	0.286
635	0.285
635	0.283
636	0.282
636	0.281
637	0.281
637	0.28
638	0.279
638	0.279
638	0.278
639	0.277
639	0.277
640	0.277
640	0.277
641	0.277
641	0.276
642	0.276
642	0.276
642	0.275
643	0.274
643	0.273
644	0.272
644	0.271
645	0.269
645	0.268
646	0.266
646	0.264
646	0.262
647	0.259
647	0.257
648	0.255
648	0.252
649	0.249
649	0.245
650	0.241
650	0.236
650	0.229
651	0.223
651	0.215
652	0.206
652	0.196
653	0.188
653	0.178
653	0.176
654	0.176
654	0.168
655	0.16
655	0.153
656	0.146
656	0.138
657	0.132
657	0.127
657	0.119
658	0.113
658	0.092
659	0.04
659	-0.016
660	-0.049
660	-0.07
661	-0.09
661	-0.113
661	-0.137
662	-0.155
662	-0.17
663	-0.185
663	-0.204
664	-0.218
664	-0.242
665	-0.254
665	-0.271
665	-0.284
666	-0.291
666	-0.299
667	-0.308
667	-0.315
668	-0.327
668	-0.342
669	-0.351
669	-0.342
669	-0.308
670	-0.115
670	-0
671	-0
671	-0
672	-0
672	-0
672	-0
673	-0
673	-0
674	-0
674	-0
675	-0
675	-0
676	-0
676	-0
676	-0.133
677	-0.499
677	-0.522
678	-0.534
678	-0.531
679	-0.531
679	-0.541
680	-0.557
680	-0.562
680	-0.565
681	-0.587
681	-0.583
682	-0.596
682	-0.6
683	-0.603
683	-0.627
684	-0.643
684	-0.655
684	-0.663
685	-0.668
685	-0.672
686	-0.667
686	-0.673
687	-0.664
687	-0.673
687	-0.67
688	-0.657
688	-0.651
689	-0.644
689	-0.639
690	-0.626
690	-0.624
691	-0.627
691	-0.638
691	-0.664
692	-0.661
692	-0.66
693	-0.662
693	-0.676
694	-0.676
694	-0.678
695	-0.69
695	-0.692
695	-0.681
696	-0.682
696	-0.663
697	-0.669
697	-0.689
698	-0.695
698	-0.687
698	-0.709
699	-0.712
699	-0.712
700	-0.708
700	-0.726
701	-0.724
701	-0.733
702	-0.733
702	-0.724
702	-0.719
703	-0.713
703	-0.702
704	-0.699
704	-0.701
705	-0.713
705	-0.707
705	-0.701
706	-0.703
706	-0.7
707	-0.706
707	-0.703
708	-0.703
708	-0.698
709	-0.705
709	-0.708
709	-0.7
710	-0.71
710	-0.719
711	-0.712
711	-0.716
712	-0.715
712	-0.731
713	-0.731
713	-0.739
713	-0.731
714	-0.728
714	-0.729
715	-0.72
715	-0.708
716	-0.715
716	-0.717
716	-0.709
717	-0.71
717	-0.713
718	-0.706
718	-0.707
719	-0.716
719	-0.719
720	-0.716
720	-0.726
720	-0.722
721	-0.713
721	-0.715
722	-0.704
722	-0.692
723	-0.69
723	-0.693
723	-0.679
724	-0.683
724	-0.687
725	-0.687
725	-0.694
726	-0.705
726	-0.71
727	-0.715
727	-0.732
727	-0.74
728	-0.743
728	-0.751
729	-0.749
729	-0.754
730	-0.761
730	-0.754
730	-0.745
731	-0.729
731	-0.741
732	-0.745
732	-0.746
733	-0.745
733	-0.749
734	-0.747
734	-0.747
734	-0.735
735	-0.734
735	-0.737
736	-0.749
736	-0.735
737	-0.729
737	-0.731
737	-0.741
738	-0.737
738	-0.736
739	-0.732
739	-0.746
740	-0.745
740	-0.744
741	-0.741
741	-0.742
741	-0.745
742	-0.743
742	-0.744
743	-0.752
743	-0.757
744	-0.755
744	-0.744
744	-0.746
745	-0.753
745	-0.746
746	-0.747
746	-0.743
747	-0.745
747	-0.733
748	-0.72
748	-0.725
748	-0.728
749	-0.727
749	-0.728
750	-0.715
750	-0.715
751	-0.718
751	-0.727
751	-0.729
752	-0.733
752	-0.744
753	-0.737
753	-0.734
754	-0.74
754	-0.735
754	-0.75
755	-0.768
755	-0.779
756	-0.769
756	-0.765
757	-0.761
757	-0.756
758	-0.76
758	-0.758
758	-0.759
759	-0.766
759	-0.751
760	-0.743
760	-0.739
761	-0.748
761	-0.748
761	-0.747
762	-0.754
762	-0.752
763	-0.76
763	-0.757
764	-0.755
764	-0.763
764	-0.766
765	-0.756
765	-0.742
766	-0.748
766	-0.756
767	-0.774
767	-0.767
768	-0.759
768	-0.768
768	-0.772
769	-0.789
769	-0.794
770	-0.8
770	-0.814
771	-0.812
771	-0.814
771	-0.813
772	-0.817
772	-0.817
773	-0.817
773	-0.814
774	-0.813
774	-0.811
775	-0.812
775	-0.806
775	-0.814
776	-0.811
776	-0.799
777	-0.805
777	-0.823
778	-0.818
778	-0.837
778	-0.821
779	-0.844
779	-0.852
780	-0.866
780	-0.863
781	-0.876
781	-0.871
781	-0.887
782	-0.888
782	-0.891
783	-0.876
783	-0.874
784	-0.854
784	-0.843
784	-0.851
785	-0.859
785	-0.847
786	-0.854
786	-0.835
787	-0.82
787	-0.825
788	-0.831
788	-0.844
788	-0.856
789	-0.86
789	-0.844
790	-0.825
790	-0.829
791	-0.83
791	-0.849
791	-0.857
792	-0.85
792	-0.826
793	-0.816
793	-0.792
794	-0.795
794	-0.79
794	-0.8
795	-0.796
795	-0.788
796	-0.772
796	-0.779
797	-0.773
797	-0.787
797	-0.794
798	-0.808
798	-0.801
799	-0.81
799	-0.795
800	-0.8
800	-0.792
801	-0.796
801	-0.781
801	-0.791
802	-0.798
802	-0.797
803	-0.8
803	-0.809
804	-0.803
804	-0.813
804	-0.799
805	-0.805
805	-0.792
806	-0.796
806	-0.779
807	-0.777
807	-0.759
807	-0.746
808	-0.737
808	-0.732
809	-0.719
809	-0.729
810	-0.728
810	-0.721
810	-0.716
811	-0.724
811	-0.715
812	-0.719
812	-0.722
813	-0.727
813	-0.722
813	-0.727
814	-0.731
814	-0.733
815	-0.738
815	-0.743
816	-0.735
816	-0.741
817	-0.746
817	-0.763
817	-0.777
818	-0.787
818	-0.79
819	-0.78
819	-0.781
820	-0.791
820	-0.787
820	-0.797
821	-0.796
821	-0.783
822	-0.752
822	-0.727
823	-0.724
823	-0.727
823	-0.724
824	-0.719
824	-0.721
825	-0.713
825	-0.694
826	-0.687
826	-0.695
826	-0.705
827	-0.7
827	-0.696
828	-0.674
828	-0.675
829	-0.663
829	-0.648
829	-0.641
830	-0.653
830	-0.648
831	-0.641
831	-0.629
832	-0.629
832	-0.62
832	-0.626
833	-0.621
833	-0.623
834	-0.621
834	-0.627
835	-0.614
835	-0.61
835	-0.606
836	-0.605
836	-0.601
837	-0.599
837	-0.588
838	-0.58
838	-0.568
839	-0.553
839	-0.542
839	-0.532
840	-0.519
840	-0.515
841	-0.503
841	-0.493
842	-0.488
842	-0.477
842	-0.47
843	-0.463
843	-0.459
844	-0.45
844	-0.44
845	-0.432
845	-0.421
845	-0.406
846	-0.395
846	-0.379
847	-0.368
847	-0.356
848	-0.343
848	-0.332
848	-0.314
849	-0.303
849	-0.291
850	-0.277
850	-0.271
851	-0.259
851	-0.247
851	-0.238
852	-0.221
852	-0.208
853	-0.197
853	-0.19
854	-0.177
854	-0.163
854	-0.151
855	-0.138
855	-0.13
856	-0.117
856	-0.106
857	-0.098
857	-0.089
857	-0.075
858	-0.063
858	-0.056
859	-0.046
859	-0.033
860	-0.023
860	-0.008
860	0.001
861	0.01
861	0.019
862	0.027
862	0.035
863	0.042
863	0.052
863	0.058
864	0.063
864	0.07
865	0.075
865	0.081
866	0.086
866	0.091
866	0.097
867	0.102
867	0.107
868	0.111
868	0.115
869	0.12
869	0.123
869	0.126
870	0.129
870	0.131
871	0.135
871	0.137
872	0.138
872	0.139
872	0.139
873	0.14
873	0.139
874	0.139
874	0.138
875	0.137
875	0.136
875	0.135
876	0.134
876	0.133
877	0.132
877	0.131
878	0.13
878	0.129
878	0.128
879	0.127
879	0.127
880	0.126
880	0.126
881	0.125
881	0.125
881	0.125
882	0.124
882	0.123
883	0.123
883	0.122
884	0.122
884	0.121
884	0.12
885	0.119
885	0.119
886	0.118
886	0.116
887	0.115
887	0.115
887	0.114
888	0.114
888	0.113
889	0.113
889	0.113
890	0.112
890	0.11
890	0.109
891	0.109
891	0.108
892	0.108
892	0.107
893	0.107
893	0.107
893	0.107
894	0.107
894	0.107
895	0.107
895	0.107
895	0.107
896	0.106
896	0.105
897	0.105
897	0.103
898	0.103
898	0.102
898	0.102
899	0.101
899	0.102
900	0.102
900	0.102
901	0.103
901	0.104
901	0.104
902	0.105
902	0.106
903	0.107
903	0.108
904	0.109
904	0.11
904	0.111
905	0.113
905	0.113
906	0.114
906	0.115
907	0.116
907	0.117
907	0.118
908	0.119
908	0.119
909	0.12
909	0.12
910	0.12
910	0.119
910	0.119
911	0.118
911	0.118
912	0.118
912	0.117
913	0.117
913	0.116
913	0.115
914	0.115
914	0.114
915	0.113
915	0.112
916	0.111
916	0.11
916	0.11
917	0.109
917	0.109
918	0.108
918	0.108
918	0.108
919	0.108
919	0.108
920	0.108
920	0.108
921	0.108
921	0.108
921	0.107
922	0.107
922	0.107
923	0.106
923	0.106
924	0.105
924	0.105
924	0.104
925	0.104
925	0.103
926	0.102
926	0.101
927	0.101
927	0.1
927	0.099
928	0.098
928	0.098
929	0.097
929	0.096
930	0.095
930	0.094
930	0.093
931	0.093
931	0.092
932	0.092
932	0.091
933	0.09
933	0.089
933	0.088
934	0.086
934	0.085
935	0.084
935	0.082
935	0.081
936	0.08
936	0.079
937	0.077
937	0.077
938	0.076
938	0.076
938	0.077
939	0.078
939	0.078
940	0.079
940	0.08
941	0.08
941	0.081
941	0.082
942	0.082
942	0.082
943	0.082
943	0.081
944	0.08
944	0.08
944	0.079
945	0.079
945	0.078
946	0.077
946	0.076
946	0.076
947	0.076
947	0.075
948	0.076
948	0.076
949	0.076
949	0.076
949	0.076
950	0.076
950	0.075
951	0.075
951	0.075
952	0.074
952	0.074
952	0.073
953	0.072
953	0.072
954	0.071
954	0.071
955	0.071
955	0.071
955	0.071
956	0.071
956	0.071
957	0.071
957	0.071
957	0.071
958	0.071
958	0.072
959	0.073
959	0.073
960	0.073
960	0.073
960	0.074
961	0.074
961	0.075
962	0.075
962	0.076
963	0.076
963	0.076
963	0.076
964	0.076
964	0.077
965	0.077
965	0.077
966	0.077
966	0.077
966	0.077
967	0.077
967	0.077
968	0.078
968	0.078
968	0.079
969	0.08
969	0.08
970	0.082
970	0.083
971	0.084
971	0.085
971	0.086
972	0.087
972	0.088
973	0.089
973	0.089
974	0.089
974	0.089
974	0.089
975	0.088
975	0.087
976	0.086
976	0.085
976	0.084
977	0.083
977	0.082
978	0.081
978	0.08
979	0.079
979	0.078
979	0.078
980	0.077
980	0.076
981	0.076
981	0.075
982	0.075
982	0.074
982	0.073
983	0.072
983	0.072
984	0.071
984	0.071
984	0.07
985	0.07
985	0.07
986	0.07
986	0.069
987	0.07
987	0.07
987	0.07
988	0.069
988	0.069
989	0.068
989	0.068
990	0.067
990	0.066
990	0.066
991	0.065
991	0.065
992	0.064
992	0.064
992	0.064
993	0.064
993	0.065
994	0.065
994	0.065
995	0.066
995	0.066
995	0.067
996	0.067
996	0.067
997	0.068
997	0.068
997	0.069
998	0.069
998	0.07
999	0.071
999	0.071
1000	0.072
1000	0.072
1000	0.072
1001	0.072
1001	0.072
1002	0.071
1002	0.071
1003	0.071
1003	0.07
1003	0.069
1004	0.068
1004	0.066
1005	0.065
1005	0.064
1005	0.062
1006	0.061
1006	0.059
1007	0.058
1007	0.057
1008	0.056
1008	0.056
1008	0.056
1009	0.056
1009	0.056
1010	0.057
1010	0.057
1010	0.057
1011	0.057
1011	0.057
1012	0.057
1012	0.056
1013	0.056
1013	0.055
1013	0.055
1014	0.055
1014	0.054
1015	0.054
1015	0.055
1016	0.055
1016	0.055
1016	0.055
1017	0.056
1017	0.056
1018	0.056
1018	0.056
1018	0.055
1019	0.055
1019	0.055
1020	0.054
1020	0.053
1021	0.053
1021	0.052
1021	0.051
1022	0.05
1022	0.05
1023	0.05
1023	0.049
1023	0.049
1024	0.049
1024	0.049
1025	0.049
1025	0.049
1026	0.049
1026	0.049
1026	0.05
1027	0.05
1027	0.05
1028	0.05
1028	0.051
1028	0.051
1029	0.051
1029	0.052
1030	0.052
1030	0.053
1031	0.053
1031	0.054
1031	0.055
1032	0.056
1032	0.056
1033	0.057
1033	0.058
1033	0.058
1034	0.058
1034	0.059
1035	0.059
1035	0.059
1036	0.059
1036	0.059
1036	0.058
1037	0.058
1037	0.058
1038	0.058
1038	0.058
1039	0.058
1039	0.058
1039	0.059
1040	0.059
1040	0.059
1041	0.06
1041	0.06
1041	0.06
1042	0.06
1042	0.06
1043	0.059
1043	0.059
1044	0.059
1044	0.059
1044	0.058
1045	0.058
1045	0.057
1046	0.057
1046	0.057
1046	0.057
1047	0.057
1047	0.057
1048	0.057
1048	0.058
1049	0.057
1049	0.057
1049	0.058
1050	0.058
1050	0.057
1051	0.057
1051	0.057
1051	0.057
1052	0.056
1052	0.056
1053	0.055
1053	0.055
1053	0.054
1054	0.053
1054	0.052
1055	0.052
1055	0.051
1056	0.049
1056	0.048
1056	0.047
1057	0.045
1057	0.045
1058	0.044
1058	0.043
1058	0.042
1059	0.041
1059	0.04
1060	0.04
1060	0.039
1061	0.039
1061	0.039
1061	0.039
1062	0.039
1062	0.038
1063	0.038
1063	0.038
1063	0.038
1064	0.038
1064	0.038
1065	0.038
1065	0.038
1066	0.037
1066	0.037
1066	0.037
1067	0.038
1067	0.039
1068	0.038
1068	0.038
1068	0.039
1069	0.039
1069	0.039
1070	0.039
1070	0.04
1071	0.04
1071	0.04
1071	0.039
1072	0.04
1072	0.039
1073	0.039
1073	0.04
1073	0.039
1074	0.039
1074	0.04
1075	0.039
1075	0.039
1076	0.038
1076	0.038
1076	0.037
1077	0.036
1077	0.036
1078	0.034
1078	0.034
1078	0.033
1079	0.032
1079	0.031
1080	0.029
1080	0.029
1080	0.027
1081	0.026
1081	0.026
1082	0.025
1082	0.023
1083	0.022
1083	0.021
1083	0.02
1084	0.018
1084	0.017
1085	0.015
1085	0.014
1085	0.012
1086	0.011
1086	0.009
1087	0.009
1087	0.008
1088	0.006
1088	0.006
1088	0.005
1089	0.004
1089	0.004
1090	0.002
1090	0.002
1090	0.001
1091	-0
1091	-0
1092	-0.001
1092	-0.001
1092	-0.002
1093	-0.002
1093	-0.002
1094	-0.002
1094	-0.002
1095	-0.003
1095	-0.003
1095	-0.003
1096	-0.004
1096	-0.005
1097	-0.006
1097	-0.008
1097	-0.009
1098	-0.011
1098	-0.013
1099	-0.014
1099	-0.015
1100	-0.017
1100	-0.019
1100	-0.022
1101	-0.025
1101	-0.027
1102	-0.028
1102	-0.031
1102	-0.032
1103	-0.035
1103	-0.037
1104	-0.04
1104	-0.043
1104	-0.045
1105	-0.048
1105	-0.05
1106	-0.056
1106	-0.058
1107	-0.063
1107	-0.067
1107	-0.073
1108	-0.077
1108	-0.079
1109	-0.083
1109	-0.087
1109	-0.091
1110	-0.092
1110	-0.094
1111	-0.103
1111	-0.102
