Data from 17C_3.4A_35min_2sec_int_Absorbance__643__04728.txt Node

Date: Mon Jun 19 20:07:59 CEST 2023
User: Marek
Spectrometer: MAYP115816
Trigger mode: 0
Integration Time (sec): 2.500000E-1
Scans to average: 10
Electric dark correction enabled: true
Nonlinearity correction enabled: true
Boxcar width: 5
XAxis mode: Wavelengths
Number of Pixels in Spectrum: 2068
>>>>>Begin Spectral Data<<<<<
199	-0.783
199	-0.8
200	-0.701
200	-0.641
201	-0.606
201	-0.592
202	-0.57
202	-0.557
203	-0.55
203	-0.547
204	-0.531
204	-0.518
205	-0.493
205	-0.486
205	-0.487
206	-0.486
206	-0.489
207	-0.483
207	-0.486
208	-0.486
208	-0.485
209	-0.481
209	-0.483
210	-0.487
210	-0.495
211	-0.495
211	-0.5
212	-0.503
212	-0.511
213	-0.508
213	-0.509
213	-0.513
214	-0.508
214	-0.506
215	-0.506
215	-0.51
216	-0.514
216	-0.521
217	-0.516
217	-0.521
218	-0.525
218	-0.524
219	-0.526
219	-0.538
220	-0.544
220	-0.552
221	-0.55
221	-0.552
221	-0.545
222	-0.54
222	-0.541
223	-0.543
223	-0.548
224	-0.551
224	-0.55
225	-0.545
225	-0.539
226	-0.545
226	-0.545
227	-0.55
227	-0.561
228	-0.562
228	-0.563
229	-0.564
229	-0.557
229	-0.553
230	-0.556
230	-0.559
231	-0.552
231	-0.543
232	-0.538
232	-0.536
233	-0.529
233	-0.527
234	-0.526
234	-0.523
235	-0.525
235	-0.533
236	-0.534
236	-0.537
236	-0.544
237	-0.55
237	-0.55
238	-0.559
238	-0.56
239	-0.559
239	-0.568
240	-0.57
240	-0.565
241	-0.57
241	-0.569
242	-0.575
242	-0.572
243	-0.569
243	-0.567
243	-0.575
244	-0.576
244	-0.575
245	-0.588
245	-0.589
246	-0.594
246	-0.599
247	-0.601
247	-0.605
248	-0.61
248	-0.61
249	-0.611
249	-0.619
250	-0.617
250	-0.613
250	-0.614
251	-0.611
251	-0.611
252	-0.613
252	-0.602
253	-0.608
253	-0.62
254	-0.621
254	-0.617
255	-0.625
255	-0.618
256	-0.615
256	-0.625
257	-0.62
257	-0.619
258	-0.636
258	-0.634
258	-0.63
259	-0.626
259	-0.639
260	-0.639
260	-0.644
261	-0.656
261	-0.648
262	-0.648
262	-0.648
263	-0.637
263	-0.631
264	-0.63
264	-0.64
265	-0.632
265	-0.64
265	-0.641
266	-0.638
266	-0.637
267	-0.65
267	-0.657
268	-0.673
268	-0.683
269	-0.68
269	-0.673
270	-0.678
270	-0.683
271	-0.685
271	-0.689
272	-0.694
272	-0.685
272	-0.679
273	-0.677
273	-0.686
274	-0.692
274	-0.696
275	-0.697
275	-0.69
276	-0.694
276	-0.688
277	-0.69
277	-0.71
278	-0.72
278	-0.714
278	-0.709
279	-0.712
279	-0.721
280	-0.719
280	-0.719
281	-0.715
281	-0.721
282	-0.714
282	-0.713
283	-0.702
283	-0.704
284	-0.696
284	-0.685
285	-0.681
285	-0.681
285	-0.677
286	-0.686
286	-0.679
287	-0.678
287	-0.663
288	-0.657
288	-0.667
289	-0.682
289	-0.694
290	-0.684
290	-0.681
291	-0.678
291	-0.671
292	-0.675
292	-0.681
292	-0.685
293	-0.689
293	-0.679
294	-0.666
294	-0.654
295	-0.651
295	-0.647
296	-0.645
296	-0.643
297	-0.634
297	-0.619
298	-0.61
298	-0.618
298	-0.605
299	-0.599
299	-0.601
300	-0.597
300	-0.593
301	-0.59
301	-0.59
302	-0.599
302	-0.608
303	-0.597
303	-0.585
304	-0.586
304	-0.586
305	-0.588
305	-0.586
305	-0.583
306	-0.567
306	-0.559
307	-0.546
307	-0.546
308	-0.559
308	-0.555
309	-0.558
309	-0.548
310	-0.536
310	-0.533
311	-0.526
311	-0.533
311	-0.529
312	-0.525
312	-0.525
313	-0.51
313	-0.512
314	-0.509
314	-0.512
315	-0.513
315	-0.512
316	-0.506
316	-0.499
317	-0.491
317	-0.486
318	-0.472
318	-0.468
318	-0.463
319	-0.453
319	-0.447
320	-0.441
320	-0.442
321	-0.448
321	-0.447
322	-0.444
322	-0.44
323	-0.441
323	-0.436
324	-0.429
324	-0.419
324	-0.409
325	-0.398
325	-0.379
326	-0.363
326	-0.344
327	-0.327
327	-0.305
328	-0.277
328	-0.256
329	-0.232
329	-0.207
330	-0.179
330	-0.145
330	-0.119
331	-0.087
331	-0.058
332	-0.029
332	-0.003
333	0.021
333	0.049
334	0.071
334	0.09
335	0.111
335	0.127
336	0.144
336	0.16
336	0.172
337	0.185
337	0.194
338	0.204
338	0.21
339	0.219
339	0.227
340	0.232
340	0.237
341	0.242
341	0.245
342	0.249
342	0.253
342	0.257
343	0.259
343	0.263
344	0.264
344	0.266
345	0.267
345	0.268
346	0.269
346	0.27
347	0.271
347	0.272
348	0.272
348	0.273
348	0.273
349	0.273
349	0.274
350	0.274
350	0.274
351	0.274
351	0.274
352	0.274
352	0.274
353	0.274
353	0.274
354	0.274
354	0.274
354	0.274
355	0.274
355	0.273
356	0.273
356	0.273
357	0.273
357	0.273
358	0.272
358	0.272
359	0.272
359	0.272
360	0.272
360	0.272
360	0.272
361	0.271
361	0.271
362	0.271
362	0.271
363	0.27
363	0.27
364	0.27
364	0.27
365	0.269
365	0.269
366	0.269
366	0.269
366	0.27
367	0.27
367	0.269
368	0.269
368	0.269
369	0.269
369	0.269
370	0.268
370	0.268
371	0.268
371	0.268
372	0.267
372	0.267
372	0.267
373	0.267
373	0.267
374	0.267
374	0.267
375	0.266
375	0.266
376	0.266
376	0.266
377	0.266
377	0.266
378	0.265
378	0.265
378	0.265
379	0.265
379	0.265
380	0.265
380	0.264
381	0.264
381	0.264
382	0.263
382	0.263
383	0.263
383	0.263
383	0.263
384	0.262
384	0.262
385	0.262
385	0.262
386	0.262
386	0.262
387	0.262
387	0.261
388	0.261
388	0.261
389	0.26
389	0.26
389	0.26
390	0.26
390	0.26
391	0.26
391	0.26
392	0.26
392	0.26
393	0.26
393	0.259
394	0.259
394	0.259
394	0.258
395	0.258
395	0.257
396	0.257
396	0.257
397	0.256
397	0.257
398	0.257
398	0.256
399	0.256
399	0.256
400	0.256
400	0.256
400	0.256
401	0.255
401	0.255
402	0.255
402	0.255
403	0.255
403	0.254
404	0.254
404	0.254
405	0.254
405	0.254
405	0.254
406	0.253
406	0.253
407	0.253
407	0.253
408	0.253
408	0.253
409	0.252
409	0.252
410	0.252
410	0.252
411	0.252
411	0.252
411	0.252
412	0.252
412	0.252
413	0.252
413	0.251
414	0.251
414	0.251
415	0.251
415	0.25
416	0.25
416	0.25
416	0.25
417	0.249
417	0.249
418	0.249
418	0.249
419	0.249
419	0.249
420	0.249
420	0.249
421	0.249
421	0.25
421	0.25
422	0.25
422	0.25
423	0.25
423	0.25
424	0.249
424	0.249
425	0.249
425	0.249
426	0.248
426	0.248
427	0.248
427	0.248
427	0.247
428	0.247
428	0.247
429	0.247
429	0.247
430	0.247
430	0.246
431	0.246
431	0.246
432	0.246
432	0.246
432	0.245
433	0.245
433	0.245
434	0.245
434	0.245
435	0.245
435	0.245
436	0.245
436	0.245
437	0.245
437	0.245
437	0.245
438	0.245
438	0.245
439	0.245
439	0.245
440	0.245
440	0.245
441	0.245
441	0.245
442	0.245
442	0.244
442	0.244
443	0.244
443	0.244
444	0.244
444	0.244
445	0.244
445	0.244
446	0.245
446	0.245
447	0.245
447	0.245
447	0.245
448	0.245
448	0.245
449	0.245
449	0.245
450	0.245
450	0.245
451	0.246
451	0.246
452	0.246
452	0.246
452	0.246
453	0.246
453	0.245
454	0.245
454	0.245
455	0.244
455	0.244
456	0.244
456	0.244
457	0.244
457	0.244
458	0.244
458	0.244
458	0.245
459	0.245
459	0.245
460	0.245
460	0.245
461	0.246
461	0.246
462	0.246
462	0.246
463	0.246
463	0.246
463	0.246
464	0.246
464	0.246
465	0.246
465	0.247
466	0.247
466	0.247
467	0.247
467	0.248
467	0.248
468	0.248
468	0.249
469	0.249
469	0.249
470	0.25
470	0.25
471	0.25
471	0.25
472	0.251
472	0.251
472	0.251
473	0.252
473	0.252
474	0.253
474	0.253
475	0.253
475	0.254
476	0.254
476	0.255
477	0.255
477	0.255
477	0.256
478	0.257
478	0.257
479	0.258
479	0.259
480	0.259
480	0.26
481	0.261
481	0.261
482	0.262
482	0.262
482	0.262
483	0.263
483	0.264
484	0.264
484	0.264
485	0.264
485	0.265
486	0.266
486	0.267
487	0.267
487	0.269
487	0.27
488	0.271
488	0.272
489	0.274
489	0.276
490	0.277
490	0.279
491	0.28
491	0.281
492	0.283
492	0.284
492	0.285
493	0.286
493	0.288
494	0.29
494	0.291
495	0.293
495	0.294
496	0.296
496	0.297
496	0.299
497	0.301
497	0.303
498	0.304
498	0.306
499	0.307
499	0.308
500	0.31
500	0.312
501	0.314
501	0.315
501	0.316
502	0.317
502	0.319
503	0.321
503	0.322
504	0.324
504	0.326
505	0.328
505	0.329
506	0.331
506	0.333
506	0.335
507	0.337
507	0.339
508	0.341
508	0.343
509	0.345
509	0.347
510	0.349
510	0.35
511	0.352
511	0.353
511	0.354
512	0.356
512	0.357
513	0.359
513	0.36
514	0.361
514	0.363
515	0.365
515	0.366
515	0.367
516	0.369
516	0.371
517	0.373
517	0.375
518	0.377
518	0.378
519	0.38
519	0.382
520	0.384
520	0.386
520	0.388
521	0.389
521	0.391
522	0.392
522	0.393
523	0.395
523	0.396
524	0.397
524	0.397
524	0.398
525	0.399
525	0.399
526	0.399
526	0.4
527	0.401
527	0.401
528	0.401
528	0.401
529	0.401
529	0.402
529	0.402
530	0.402
530	0.402
531	0.402
531	0.402
532	0.402
532	0.401
533	0.401
533	0.401
533	0.401
534	0.4
534	0.4
535	0.399
535	0.399
536	0.398
536	0.397
537	0.396
537	0.395
538	0.395
538	0.394
538	0.392
539	0.392
539	0.391
540	0.389
540	0.388
541	0.387
541	0.386
542	0.385
542	0.383
542	0.382
543	0.381
543	0.379
544	0.377
544	0.376
545	0.375
545	0.374
546	0.373
546	0.371
547	0.369
547	0.368
547	0.367
548	0.365
548	0.364
549	0.363
549	0.362
550	0.36
550	0.359
551	0.357
551	0.356
551	0.354
552	0.353
552	0.352
553	0.351
553	0.349
554	0.348
554	0.346
555	0.344
555	0.343
556	0.341
556	0.34
556	0.339
557	0.337
557	0.336
558	0.335
558	0.333
559	0.332
559	0.33
560	0.328
560	0.327
560	0.325
561	0.324
561	0.323
562	0.321
562	0.319
563	0.318
563	0.316
564	0.315
564	0.314
564	0.313
565	0.312
565	0.31
566	0.309
566	0.308
567	0.307
567	0.305
568	0.304
568	0.302
568	0.301
569	0.3
569	0.298
570	0.296
570	0.294
571	0.293
571	0.292
572	0.291
572	0.289
573	0.288
573	0.287
573	0.285
574	0.284
574	0.284
575	0.283
575	0.283
576	0.282
576	0.279
577	0.278
577	0.277
577	0.277
578	0.276
578	0.275
579	0.275
579	0.274
580	0.272
580	0.27
581	0.268
581	0.267
581	0.267
582	0.267
582	0.266
583	0.266
583	0.264
584	0.262
584	0.261
585	0.262
585	0.262
585	0.262
586	0.262
586	0.261
587	0.261
587	0.26
588	0.259
588	0.259
589	0.259
589	0.259
590	0.258
590	0.258
590	0.259
591	0.258
591	0.257
592	0.256
592	0.255
593	0.256
593	0.255
594	0.255
594	0.255
594	0.254
595	0.255
595	0.254
596	0.254
596	0.256
597	0.257
597	0.257
598	0.257
598	0.256
598	0.256
599	0.255
599	0.254
600	0.252
600	0.251
601	0.251
601	0.25
602	0.248
602	0.247
602	0.246
603	0.246
603	0.247
604	0.246
604	0.246
605	0.247
605	0.247
606	0.246
606	0.245
606	0.244
607	0.243
607	0.243
608	0.242
608	0.241
609	0.241
609	0.241
610	0.24
610	0.24
610	0.241
611	0.241
611	0.242
612	0.242
612	0.243
613	0.243
613	0.243
614	0.241
614	0.24
614	0.239
615	0.238
615	0.237
616	0.237
616	0.236
617	0.236
617	0.235
618	0.234
618	0.234
618	0.235
619	0.235
619	0.236
620	0.237
620	0.237
621	0.237
621	0.238
622	0.238
622	0.238
622	0.238
623	0.238
623	0.238
624	0.238
624	0.237
625	0.237
625	0.237
626	0.236
626	0.236
626	0.236
627	0.236
627	0.236
628	0.236
628	0.235
629	0.235
629	0.235
630	0.235
630	0.235
630	0.236
631	0.236
631	0.235
632	0.235
632	0.235
633	0.235
633	0.235
634	0.235
634	0.234
634	0.234
635	0.233
635	0.232
636	0.231
636	0.23
637	0.23
637	0.229
638	0.229
638	0.228
638	0.228
639	0.227
639	0.227
640	0.226
640	0.226
641	0.226
641	0.226
642	0.225
642	0.225
642	0.224
643	0.223
643	0.222
644	0.221
644	0.219
645	0.218
645	0.217
646	0.216
646	0.214
646	0.212
647	0.21
647	0.208
648	0.206
648	0.204
649	0.201
649	0.198
650	0.194
650	0.19
650	0.185
651	0.179
651	0.173
652	0.165
652	0.156
653	0.149
653	0.141
653	0.141
654	0.141
654	0.135
655	0.128
655	0.122
656	0.115
656	0.108
657	0.103
657	0.099
657	0.091
658	0.086
658	0.065
659	0.016
659	-0.036
660	-0.065
660	-0.085
661	-0.103
661	-0.125
661	-0.145
662	-0.163
662	-0.178
663	-0.192
663	-0.21
664	-0.222
664	-0.245
665	-0.258
665	-0.274
665	-0.285
666	-0.291
666	-0.302
667	-0.308
667	-0.314
668	-0.326
668	-0.34
669	-0.347
669	-0.336
669	-0.303
670	-0.112
670	-0
671	-0
671	-0
672	-0
672	-0
672	-0
673	-0
673	-0
674	-0
674	-0
675	-0
675	-0
676	-0
676	-0
676	-0.112
677	-0.49
677	-0.514
678	-0.53
678	-0.527
679	-0.528
679	-0.538
680	-0.553
680	-0.554
680	-0.557
681	-0.579
681	-0.576
682	-0.592
682	-0.595
683	-0.595
683	-0.622
684	-0.638
684	-0.651
684	-0.659
685	-0.665
685	-0.668
686	-0.662
686	-0.664
687	-0.655
687	-0.663
687	-0.661
688	-0.647
688	-0.639
689	-0.632
689	-0.629
690	-0.617
690	-0.614
691	-0.617
691	-0.631
691	-0.657
692	-0.655
692	-0.652
693	-0.656
693	-0.672
694	-0.671
694	-0.671
695	-0.682
695	-0.686
695	-0.677
696	-0.68
696	-0.659
697	-0.664
697	-0.686
698	-0.69
698	-0.681
698	-0.699
699	-0.703
699	-0.706
700	-0.699
700	-0.716
701	-0.716
701	-0.727
702	-0.73
702	-0.717
702	-0.712
703	-0.708
703	-0.699
704	-0.699
704	-0.698
705	-0.712
705	-0.706
705	-0.695
706	-0.697
706	-0.692
707	-0.7
707	-0.697
708	-0.697
708	-0.693
709	-0.696
709	-0.699
709	-0.689
710	-0.701
710	-0.712
711	-0.704
711	-0.707
712	-0.706
712	-0.72
713	-0.72
713	-0.729
713	-0.72
714	-0.718
714	-0.721
715	-0.712
715	-0.7
716	-0.709
716	-0.71
716	-0.704
717	-0.704
717	-0.705
718	-0.694
718	-0.695
719	-0.704
719	-0.706
720	-0.701
720	-0.712
720	-0.707
721	-0.696
721	-0.699
722	-0.686
722	-0.679
723	-0.679
723	-0.685
723	-0.67
724	-0.674
724	-0.681
725	-0.679
725	-0.687
726	-0.7
726	-0.705
727	-0.712
727	-0.727
727	-0.734
728	-0.735
728	-0.742
729	-0.743
729	-0.747
730	-0.753
730	-0.745
730	-0.736
731	-0.718
731	-0.729
732	-0.734
732	-0.735
733	-0.735
733	-0.74
734	-0.734
734	-0.736
734	-0.723
735	-0.724
735	-0.727
736	-0.737
736	-0.724
737	-0.716
737	-0.718
737	-0.73
738	-0.724
738	-0.725
739	-0.721
739	-0.736
740	-0.734
740	-0.733
741	-0.731
741	-0.73
741	-0.735
742	-0.731
742	-0.732
743	-0.74
743	-0.744
744	-0.742
744	-0.732
744	-0.733
745	-0.74
745	-0.733
746	-0.733
746	-0.731
747	-0.732
747	-0.719
748	-0.707
748	-0.713
748	-0.714
749	-0.712
749	-0.713
750	-0.702
750	-0.704
751	-0.708
751	-0.717
751	-0.722
752	-0.727
752	-0.737
753	-0.732
753	-0.729
754	-0.737
754	-0.729
754	-0.744
755	-0.761
755	-0.773
756	-0.762
756	-0.758
757	-0.754
757	-0.748
758	-0.75
758	-0.749
758	-0.75
759	-0.759
759	-0.743
760	-0.734
760	-0.727
761	-0.738
761	-0.737
761	-0.739
762	-0.749
762	-0.75
763	-0.76
763	-0.756
764	-0.752
764	-0.758
764	-0.766
765	-0.756
765	-0.742
766	-0.748
766	-0.755
767	-0.768
767	-0.759
768	-0.75
768	-0.76
768	-0.766
769	-0.785
769	-0.786
770	-0.792
770	-0.804
771	-0.803
771	-0.804
771	-0.803
772	-0.808
772	-0.806
773	-0.804
773	-0.8
774	-0.799
774	-0.8
775	-0.801
775	-0.794
775	-0.802
776	-0.8
776	-0.791
777	-0.796
777	-0.815
778	-0.813
778	-0.832
778	-0.82
779	-0.839
779	-0.848
780	-0.864
780	-0.862
781	-0.874
781	-0.868
781	-0.884
782	-0.885
782	-0.886
783	-0.871
783	-0.868
784	-0.848
784	-0.839
784	-0.847
785	-0.855
785	-0.843
786	-0.853
786	-0.832
787	-0.821
787	-0.825
788	-0.831
788	-0.843
788	-0.856
789	-0.858
789	-0.842
790	-0.824
790	-0.828
791	-0.828
791	-0.848
791	-0.854
792	-0.848
792	-0.822
793	-0.809
793	-0.787
794	-0.791
794	-0.782
794	-0.79
795	-0.783
795	-0.775
796	-0.758
796	-0.765
797	-0.76
797	-0.776
797	-0.783
798	-0.797
798	-0.79
799	-0.8
799	-0.786
800	-0.794
800	-0.787
801	-0.792
801	-0.777
801	-0.788
802	-0.794
802	-0.793
803	-0.793
803	-0.801
804	-0.797
804	-0.806
804	-0.793
805	-0.798
805	-0.788
806	-0.79
806	-0.774
807	-0.771
807	-0.752
807	-0.739
808	-0.732
808	-0.725
809	-0.71
809	-0.72
810	-0.717
810	-0.708
810	-0.706
811	-0.714
811	-0.707
812	-0.71
812	-0.714
813	-0.718
813	-0.715
813	-0.72
814	-0.722
814	-0.727
815	-0.733
815	-0.736
816	-0.728
816	-0.734
817	-0.742
817	-0.758
817	-0.771
818	-0.78
818	-0.783
819	-0.775
819	-0.774
820	-0.782
820	-0.779
820	-0.791
821	-0.788
821	-0.775
822	-0.744
822	-0.72
823	-0.716
823	-0.718
823	-0.714
824	-0.709
824	-0.712
825	-0.703
825	-0.683
826	-0.678
826	-0.686
826	-0.697
827	-0.692
827	-0.69
828	-0.668
828	-0.669
829	-0.659
829	-0.645
829	-0.638
830	-0.649
830	-0.644
831	-0.634
831	-0.623
832	-0.623
832	-0.615
832	-0.625
833	-0.62
833	-0.623
834	-0.62
834	-0.628
835	-0.615
835	-0.61
835	-0.606
836	-0.604
836	-0.599
837	-0.596
837	-0.585
838	-0.576
838	-0.563
839	-0.55
839	-0.535
839	-0.524
840	-0.514
840	-0.51
841	-0.498
841	-0.489
842	-0.483
842	-0.472
842	-0.464
843	-0.459
843	-0.455
844	-0.448
844	-0.442
845	-0.433
845	-0.424
845	-0.41
846	-0.399
846	-0.386
847	-0.374
847	-0.363
848	-0.349
848	-0.338
848	-0.32
849	-0.309
849	-0.297
850	-0.282
850	-0.276
851	-0.267
851	-0.254
851	-0.245
852	-0.227
852	-0.214
853	-0.205
853	-0.198
854	-0.186
854	-0.174
854	-0.162
855	-0.149
855	-0.142
856	-0.131
856	-0.121
857	-0.115
857	-0.106
857	-0.093
858	-0.08
858	-0.072
859	-0.063
859	-0.052
860	-0.042
860	-0.028
860	-0.019
861	-0.011
861	-0.001
862	0.007
862	0.015
863	0.022
863	0.031
863	0.037
864	0.042
864	0.048
865	0.054
865	0.059
866	0.065
866	0.069
866	0.073
867	0.078
867	0.083
868	0.086
868	0.09
869	0.094
869	0.097
869	0.1
870	0.102
870	0.105
871	0.108
871	0.109
872	0.11
872	0.11
872	0.111
873	0.11
873	0.11
874	0.109
874	0.108
875	0.107
875	0.106
875	0.105
876	0.104
876	0.103
877	0.102
877	0.101
878	0.1
878	0.1
878	0.099
879	0.099
879	0.098
880	0.098
880	0.099
881	0.098
881	0.098
881	0.098
882	0.098
882	0.097
883	0.096
883	0.095
884	0.094
884	0.092
884	0.091
885	0.09
885	0.089
886	0.088
886	0.087
887	0.086
887	0.085
887	0.084
888	0.084
888	0.083
889	0.084
889	0.084
890	0.083
890	0.082
890	0.082
891	0.081
891	0.081
892	0.082
892	0.082
893	0.082
893	0.082
893	0.083
894	0.083
894	0.084
895	0.084
895	0.084
895	0.085
896	0.084
896	0.083
897	0.083
897	0.082
898	0.081
898	0.081
898	0.08
899	0.08
899	0.08
900	0.08
900	0.08
901	0.08
901	0.081
901	0.081
902	0.082
902	0.082
903	0.083
903	0.084
904	0.084
904	0.085
904	0.086
905	0.087
905	0.088
906	0.088
906	0.089
907	0.09
907	0.09
907	0.091
908	0.091
908	0.092
909	0.092
909	0.092
910	0.092
910	0.092
910	0.092
911	0.092
911	0.093
912	0.093
912	0.093
913	0.092
913	0.092
913	0.092
914	0.091
914	0.09
915	0.089
915	0.089
916	0.088
916	0.087
916	0.086
917	0.085
917	0.085
918	0.084
918	0.084
918	0.083
919	0.083
919	0.083
920	0.083
920	0.083
921	0.083
921	0.083
921	0.084
922	0.084
922	0.084
923	0.085
923	0.085
924	0.086
924	0.086
924	0.086
925	0.086
925	0.086
926	0.086
926	0.085
927	0.085
927	0.084
927	0.083
928	0.082
928	0.081
929	0.08
929	0.08
930	0.079
930	0.078
930	0.077
931	0.077
931	0.076
932	0.076
932	0.076
933	0.075
933	0.074
933	0.073
934	0.072
934	0.071
935	0.07
935	0.069
935	0.068
936	0.067
936	0.065
937	0.064
937	0.064
938	0.064
938	0.064
938	0.064
939	0.065
939	0.065
940	0.066
940	0.067
941	0.067
941	0.068
941	0.068
942	0.068
942	0.068
943	0.068
943	0.067
944	0.066
944	0.065
944	0.064
945	0.064
945	0.063
946	0.062
946	0.061
946	0.061
947	0.061
947	0.06
948	0.06
948	0.061
949	0.06
949	0.06
949	0.06
950	0.06
950	0.059
951	0.059
951	0.058
952	0.057
952	0.057
952	0.057
953	0.056
953	0.056
954	0.056
954	0.056
955	0.056
955	0.057
955	0.057
956	0.057
956	0.058
957	0.058
957	0.059
957	0.059
958	0.059
958	0.06
959	0.06
959	0.06
960	0.061
960	0.061
960	0.062
961	0.062
961	0.062
962	0.063
962	0.062
963	0.063
963	0.062
963	0.062
964	0.062
964	0.062
965	0.062
965	0.061
966	0.061
966	0.061
966	0.061
967	0.061
967	0.061
968	0.061
968	0.062
968	0.062
969	0.063
969	0.064
970	0.065
970	0.067
971	0.068
971	0.07
971	0.07
972	0.071
972	0.072
973	0.072
973	0.072
974	0.071
974	0.07
974	0.07
975	0.069
975	0.067
976	0.066
976	0.065
976	0.063
977	0.062
977	0.061
978	0.06
978	0.059
979	0.058
979	0.057
979	0.056
980	0.055
980	0.054
981	0.054
981	0.053
982	0.053
982	0.052
982	0.051
983	0.051
983	0.05
984	0.05
984	0.05
984	0.05
985	0.05
985	0.05
986	0.049
986	0.049
987	0.05
987	0.05
987	0.05
988	0.05
988	0.05
989	0.049
989	0.048
990	0.047
990	0.046
990	0.046
991	0.045
991	0.045
992	0.045
992	0.044
992	0.044
993	0.045
993	0.045
994	0.046
994	0.046
995	0.047
995	0.048
995	0.048
996	0.048
996	0.048
997	0.049
997	0.049
997	0.05
998	0.05
998	0.051
999	0.051
999	0.052
1000	0.052
1000	0.053
1000	0.053
1001	0.053
1001	0.053
1002	0.053
1002	0.053
1003	0.052
1003	0.052
1003	0.05
1004	0.049
1004	0.047
1005	0.046
1005	0.044
1005	0.043
1006	0.041
1006	0.04
1007	0.038
1007	0.037
1008	0.036
1008	0.036
1008	0.036
1009	0.036
1009	0.036
1010	0.037
1010	0.038
1010	0.038
1011	0.039
1011	0.039
1012	0.039
1012	0.039
1013	0.039
1013	0.039
1013	0.038
1014	0.038
1014	0.038
1015	0.038
1015	0.038
1016	0.038
1016	0.038
1016	0.039
1017	0.039
1017	0.039
1018	0.04
1018	0.04
1018	0.039
1019	0.039
1019	0.039
1020	0.038
1020	0.038
1021	0.037
1021	0.037
1021	0.036
1022	0.035
1022	0.034
1023	0.034
1023	0.034
1023	0.034
1024	0.034
1024	0.033
1025	0.033
1025	0.033
1026	0.034
1026	0.034
1026	0.034
1027	0.034
1027	0.035
1028	0.035
1028	0.036
1028	0.036
1029	0.036
1029	0.036
1030	0.036
1030	0.036
1031	0.036
1031	0.037
1031	0.037
1032	0.037
1032	0.038
1033	0.037
1033	0.038
1033	0.038
1034	0.038
1034	0.038
1035	0.038
1035	0.037
1036	0.037
1036	0.037
1036	0.036
1037	0.036
1037	0.036
1038	0.035
1038	0.036
1039	0.036
1039	0.037
1039	0.037
1040	0.038
1040	0.038
1041	0.039
1041	0.039
1041	0.04
1042	0.04
1042	0.041
1043	0.041
1043	0.041
1044	0.041
1044	0.04
1044	0.04
1045	0.04
1045	0.04
1046	0.039
1046	0.04
1046	0.04
1047	0.041
1047	0.041
1048	0.042
1048	0.042
1049	0.042
1049	0.042
1049	0.043
1050	0.043
1050	0.043
1051	0.042
1051	0.042
1051	0.041
1052	0.041
1052	0.04
1053	0.039
1053	0.038
1053	0.037
1054	0.036
1054	0.035
1055	0.034
1055	0.033
1056	0.032
1056	0.03
1056	0.028
1057	0.027
1057	0.026
1058	0.025
1058	0.024
1058	0.023
1059	0.022
1059	0.021
1060	0.02
1060	0.02
1061	0.02
1061	0.02
1061	0.02
1062	0.019
1062	0.019
1063	0.019
1063	0.019
1063	0.019
1064	0.019
1064	0.019
1065	0.019
1065	0.019
1066	0.019
1066	0.019
1066	0.019
1067	0.02
1067	0.02
1068	0.019
1068	0.019
1068	0.019
1069	0.019
1069	0.019
1070	0.019
1070	0.019
1071	0.019
1071	0.019
1071	0.019
1072	0.019
1072	0.02
1073	0.019
1073	0.02
1073	0.02
1074	0.02
1074	0.021
1075	0.02
1075	0.02
1076	0.02
1076	0.019
1076	0.018
1077	0.017
1077	0.017
1078	0.016
1078	0.014
1078	0.013
1079	0.012
1079	0.011
1080	0.009
1080	0.008
1080	0.007
1081	0.006
1081	0.005
1082	0.004
1082	0.002
1083	0.002
1083	0.001
1083	-0.001
1084	-0.002
1084	-0.003
1085	-0.004
1085	-0.004
1085	-0.005
1086	-0.006
1086	-0.007
1087	-0.007
1087	-0.008
1088	-0.009
1088	-0.009
1088	-0.01
1089	-0.011
1089	-0.011
1090	-0.012
1090	-0.013
1090	-0.014
1091	-0.014
1091	-0.014
1092	-0.014
1092	-0.013
1092	-0.014
1093	-0.014
1093	-0.014
1094	-0.014
1094	-0.015
1095	-0.015
1095	-0.015
1095	-0.015
1096	-0.017
1096	-0.018
1097	-0.018
1097	-0.02
1097	-0.02
1098	-0.022
1098	-0.023
1099	-0.023
1099	-0.024
1100	-0.026
1100	-0.027
1100	-0.029
1101	-0.032
1101	-0.035
1102	-0.037
1102	-0.04
1102	-0.042
1103	-0.045
1103	-0.047
1104	-0.05
1104	-0.054
1104	-0.057
1105	-0.059
1105	-0.063
1106	-0.067
1106	-0.069
1107	-0.075
1107	-0.079
1107	-0.084
1108	-0.087
1108	-0.089
1109	-0.091
1109	-0.096
1109	-0.098
1110	-0.098
1110	-0.105
1111	-0.112
1111	-0.113
