Data from 17C_3.4A_35min_2sec_int_Absorbance__212__04297.txt Node

Date: Mon Jun 19 19:50:02 CEST 2023
User: Marek
Spectrometer: MAYP115816
Trigger mode: 0
Integration Time (sec): 2.500000E-1
Scans to average: 10
Electric dark correction enabled: true
Nonlinearity correction enabled: true
Boxcar width: 5
XAxis mode: Wavelengths
Number of Pixels in Spectrum: 2068
>>>>>Begin Spectral Data<<<<<
199	-0.769
199	-0.781
200	-0.683
200	-0.623
201	-0.586
201	-0.571
202	-0.554
202	-0.539
203	-0.529
203	-0.528
204	-0.512
204	-0.496
205	-0.473
205	-0.465
205	-0.465
206	-0.467
206	-0.471
207	-0.464
207	-0.467
208	-0.471
208	-0.468
209	-0.462
209	-0.462
210	-0.466
210	-0.474
211	-0.475
211	-0.476
212	-0.48
212	-0.485
213	-0.482
213	-0.483
213	-0.487
214	-0.484
214	-0.484
215	-0.482
215	-0.487
216	-0.492
216	-0.499
217	-0.493
217	-0.498
218	-0.501
218	-0.499
219	-0.504
219	-0.514
220	-0.52
220	-0.531
221	-0.529
221	-0.532
221	-0.525
222	-0.522
222	-0.522
223	-0.526
223	-0.529
224	-0.532
224	-0.533
225	-0.526
225	-0.519
226	-0.525
226	-0.525
227	-0.529
227	-0.539
228	-0.54
228	-0.541
229	-0.542
229	-0.535
229	-0.531
230	-0.535
230	-0.537
231	-0.533
231	-0.525
232	-0.521
232	-0.519
233	-0.512
233	-0.51
234	-0.511
234	-0.509
235	-0.513
235	-0.519
236	-0.519
236	-0.521
236	-0.526
237	-0.531
237	-0.531
238	-0.54
238	-0.539
239	-0.537
239	-0.545
240	-0.542
240	-0.539
241	-0.544
241	-0.543
242	-0.548
242	-0.545
243	-0.543
243	-0.543
243	-0.551
244	-0.55
244	-0.549
245	-0.566
245	-0.566
246	-0.569
246	-0.576
247	-0.579
247	-0.582
248	-0.587
248	-0.585
249	-0.588
249	-0.596
250	-0.595
250	-0.59
250	-0.59
251	-0.586
251	-0.584
252	-0.584
252	-0.573
253	-0.578
253	-0.588
254	-0.589
254	-0.587
255	-0.592
255	-0.584
256	-0.58
256	-0.593
257	-0.592
257	-0.59
258	-0.61
258	-0.607
258	-0.603
259	-0.598
259	-0.606
260	-0.608
260	-0.615
261	-0.627
261	-0.617
262	-0.613
262	-0.612
263	-0.599
263	-0.594
264	-0.593
264	-0.601
265	-0.599
265	-0.605
265	-0.607
266	-0.604
266	-0.602
267	-0.615
267	-0.623
268	-0.638
268	-0.649
269	-0.647
269	-0.639
270	-0.642
270	-0.644
271	-0.644
271	-0.649
272	-0.653
272	-0.646
272	-0.639
273	-0.638
273	-0.646
274	-0.651
274	-0.656
275	-0.657
275	-0.652
276	-0.657
276	-0.649
277	-0.654
277	-0.671
278	-0.682
278	-0.674
278	-0.667
279	-0.671
279	-0.682
280	-0.68
280	-0.68
281	-0.674
281	-0.681
282	-0.673
282	-0.674
283	-0.664
283	-0.667
284	-0.664
284	-0.653
285	-0.648
285	-0.646
285	-0.643
286	-0.652
286	-0.648
287	-0.647
287	-0.632
288	-0.626
288	-0.633
289	-0.643
289	-0.653
290	-0.642
290	-0.642
291	-0.638
291	-0.63
292	-0.632
292	-0.638
292	-0.642
293	-0.649
293	-0.64
294	-0.629
294	-0.619
295	-0.617
295	-0.613
296	-0.612
296	-0.612
297	-0.606
297	-0.591
298	-0.582
298	-0.589
298	-0.578
299	-0.571
299	-0.574
300	-0.569
300	-0.565
301	-0.561
301	-0.561
302	-0.566
302	-0.573
303	-0.56
303	-0.546
304	-0.546
304	-0.547
305	-0.546
305	-0.546
305	-0.543
306	-0.525
306	-0.517
307	-0.506
307	-0.509
308	-0.521
308	-0.519
309	-0.523
309	-0.513
310	-0.502
310	-0.497
311	-0.491
311	-0.5
311	-0.497
312	-0.491
312	-0.49
313	-0.476
313	-0.479
314	-0.474
314	-0.477
315	-0.477
315	-0.476
316	-0.471
316	-0.46
317	-0.452
317	-0.449
318	-0.436
318	-0.434
318	-0.427
319	-0.417
319	-0.412
320	-0.404
320	-0.407
321	-0.41
321	-0.412
322	-0.408
322	-0.403
323	-0.402
323	-0.396
324	-0.388
324	-0.379
324	-0.367
325	-0.355
325	-0.336
326	-0.32
326	-0.299
327	-0.28
327	-0.256
328	-0.229
328	-0.206
329	-0.181
329	-0.153
330	-0.123
330	-0.087
330	-0.054
331	-0.022
331	0.012
332	0.042
332	0.07
333	0.097
333	0.127
334	0.152
334	0.173
335	0.195
335	0.214
336	0.231
336	0.25
336	0.262
337	0.277
337	0.291
338	0.302
338	0.31
339	0.32
339	0.329
340	0.335
340	0.341
341	0.346
341	0.351
342	0.356
342	0.36
342	0.364
343	0.367
343	0.371
344	0.373
344	0.375
345	0.377
345	0.378
346	0.38
346	0.381
347	0.382
347	0.383
348	0.384
348	0.385
348	0.385
349	0.385
349	0.386
350	0.386
350	0.386
351	0.386
351	0.387
352	0.386
352	0.386
353	0.386
353	0.386
354	0.386
354	0.386
354	0.386
355	0.385
355	0.385
356	0.385
356	0.385
357	0.383
357	0.383
358	0.382
358	0.382
359	0.382
359	0.381
360	0.381
360	0.381
360	0.38
361	0.38
361	0.38
362	0.38
362	0.38
363	0.38
363	0.38
364	0.379
364	0.379
365	0.379
365	0.379
366	0.379
366	0.379
366	0.378
367	0.378
367	0.378
368	0.377
368	0.377
369	0.377
369	0.376
370	0.376
370	0.375
371	0.375
371	0.374
372	0.374
372	0.374
372	0.374
373	0.373
373	0.373
374	0.373
374	0.372
375	0.372
375	0.372
376	0.371
376	0.371
377	0.371
377	0.37
378	0.37
378	0.37
378	0.369
379	0.369
379	0.368
380	0.368
380	0.367
381	0.367
381	0.366
382	0.365
382	0.365
383	0.365
383	0.364
383	0.363
384	0.363
384	0.363
385	0.363
385	0.362
386	0.362
386	0.362
387	0.361
387	0.361
388	0.36
388	0.36
389	0.36
389	0.36
389	0.359
390	0.359
390	0.359
391	0.358
391	0.358
392	0.357
392	0.357
393	0.356
393	0.356
394	0.355
394	0.355
394	0.354
395	0.354
395	0.353
396	0.353
396	0.352
397	0.352
397	0.352
398	0.351
398	0.351
399	0.351
399	0.35
400	0.35
400	0.35
400	0.35
401	0.349
401	0.349
402	0.348
402	0.348
403	0.347
403	0.347
404	0.347
404	0.346
405	0.346
405	0.345
405	0.345
406	0.345
406	0.344
407	0.344
407	0.344
408	0.344
408	0.343
409	0.343
409	0.343
410	0.343
410	0.342
411	0.343
411	0.342
411	0.342
412	0.342
412	0.342
413	0.341
413	0.341
414	0.341
414	0.341
415	0.34
415	0.34
416	0.34
416	0.339
416	0.339
417	0.339
417	0.338
418	0.338
418	0.338
419	0.338
419	0.338
420	0.338
420	0.338
421	0.338
421	0.338
421	0.338
422	0.338
422	0.338
423	0.337
423	0.337
424	0.336
424	0.335
425	0.335
425	0.335
426	0.334
426	0.334
427	0.334
427	0.334
427	0.333
428	0.333
428	0.333
429	0.334
429	0.333
430	0.333
430	0.333
431	0.333
431	0.333
432	0.333
432	0.332
432	0.332
433	0.332
433	0.332
434	0.331
434	0.331
435	0.331
435	0.331
436	0.331
436	0.331
437	0.331
437	0.331
437	0.331
438	0.331
438	0.331
439	0.331
439	0.331
440	0.331
440	0.331
441	0.331
441	0.331
442	0.331
442	0.331
442	0.331
443	0.33
443	0.33
444	0.331
444	0.331
445	0.331
445	0.331
446	0.331
446	0.331
447	0.331
447	0.332
447	0.332
448	0.332
448	0.332
449	0.332
449	0.332
450	0.333
450	0.333
451	0.333
451	0.333
452	0.333
452	0.333
452	0.333
453	0.333
453	0.333
454	0.333
454	0.333
455	0.333
455	0.334
456	0.334
456	0.334
457	0.334
457	0.335
458	0.335
458	0.335
458	0.336
459	0.336
459	0.336
460	0.336
460	0.337
461	0.337
461	0.337
462	0.337
462	0.338
463	0.338
463	0.339
463	0.339
464	0.34
464	0.34
465	0.341
465	0.342
466	0.342
466	0.343
467	0.343
467	0.344
467	0.344
468	0.345
468	0.345
469	0.346
469	0.347
470	0.348
470	0.348
471	0.349
471	0.35
472	0.351
472	0.351
472	0.352
473	0.353
473	0.354
474	0.355
474	0.356
475	0.357
475	0.358
476	0.359
476	0.359
477	0.36
477	0.361
477	0.362
478	0.363
478	0.365
479	0.366
479	0.368
480	0.369
480	0.37
481	0.372
481	0.374
482	0.375
482	0.377
482	0.378
483	0.38
483	0.382
484	0.383
484	0.384
485	0.385
485	0.387
486	0.388
486	0.39
487	0.392
487	0.394
487	0.395
488	0.397
488	0.399
489	0.402
489	0.405
490	0.407
490	0.41
491	0.412
491	0.415
492	0.417
492	0.42
492	0.422
493	0.425
493	0.427
494	0.43
494	0.433
495	0.435
495	0.438
496	0.44
496	0.443
496	0.446
497	0.449
497	0.452
498	0.455
498	0.458
499	0.462
499	0.465
500	0.469
500	0.472
501	0.476
501	0.479
501	0.482
502	0.485
502	0.488
503	0.492
503	0.495
504	0.499
504	0.502
505	0.506
505	0.509
506	0.513
506	0.516
506	0.519
507	0.523
507	0.526
508	0.529
508	0.533
509	0.536
509	0.54
510	0.543
510	0.547
511	0.55
511	0.553
511	0.557
512	0.56
512	0.564
513	0.567
513	0.57
514	0.573
514	0.577
515	0.579
515	0.582
515	0.585
516	0.588
516	0.591
517	0.593
517	0.596
518	0.598
518	0.6
519	0.603
519	0.605
520	0.607
520	0.609
520	0.611
521	0.613
521	0.615
522	0.617
522	0.619
523	0.621
523	0.622
524	0.623
524	0.624
524	0.625
525	0.626
525	0.627
526	0.627
526	0.628
527	0.628
527	0.628
528	0.629
528	0.629
529	0.629
529	0.63
529	0.63
530	0.63
530	0.629
531	0.629
531	0.628
532	0.627
532	0.626
533	0.625
533	0.624
533	0.622
534	0.621
534	0.619
535	0.616
535	0.614
536	0.612
536	0.609
537	0.606
537	0.603
538	0.601
538	0.598
538	0.595
539	0.593
539	0.59
540	0.587
540	0.584
541	0.581
541	0.578
542	0.575
542	0.572
542	0.568
543	0.564
543	0.56
544	0.556
544	0.553
545	0.549
545	0.546
546	0.542
546	0.538
547	0.533
547	0.529
547	0.526
548	0.522
548	0.518
549	0.515
549	0.511
550	0.507
550	0.502
551	0.498
551	0.494
551	0.491
552	0.487
552	0.483
553	0.479
553	0.475
554	0.471
554	0.466
555	0.462
555	0.458
556	0.453
556	0.449
556	0.445
557	0.44
557	0.436
558	0.432
558	0.427
559	0.422
559	0.418
560	0.414
560	0.409
560	0.405
561	0.401
561	0.397
562	0.393
562	0.389
563	0.385
563	0.381
564	0.377
564	0.373
564	0.37
565	0.367
565	0.363
566	0.359
566	0.356
567	0.352
567	0.348
568	0.344
568	0.339
568	0.335
569	0.332
569	0.327
570	0.323
570	0.318
571	0.315
571	0.312
572	0.308
572	0.304
573	0.301
573	0.297
573	0.294
574	0.291
574	0.288
575	0.285
575	0.283
576	0.28
576	0.276
577	0.273
577	0.27
577	0.268
578	0.266
578	0.264
579	0.262
579	0.26
580	0.256
580	0.252
581	0.249
581	0.247
581	0.245
582	0.243
582	0.241
583	0.239
583	0.236
584	0.232
584	0.229
585	0.227
585	0.226
585	0.224
586	0.222
586	0.22
587	0.217
587	0.215
588	0.212
588	0.21
589	0.209
589	0.207
590	0.205
590	0.203
590	0.202
591	0.2
591	0.197
592	0.195
592	0.192
593	0.191
593	0.189
594	0.187
594	0.186
594	0.184
595	0.183
595	0.181
596	0.179
596	0.178
597	0.178
597	0.176
598	0.174
598	0.173
598	0.171
599	0.169
599	0.167
600	0.165
600	0.163
601	0.162
601	0.16
602	0.158
602	0.156
602	0.155
603	0.154
603	0.154
604	0.153
604	0.152
605	0.152
605	0.152
606	0.15
606	0.148
606	0.147
607	0.146
607	0.145
608	0.143
608	0.141
609	0.14
609	0.139
610	0.138
610	0.136
610	0.136
611	0.136
611	0.136
612	0.136
612	0.136
613	0.136
613	0.135
614	0.134
614	0.132
614	0.131
615	0.13
615	0.129
616	0.128
616	0.126
617	0.125
617	0.123
618	0.121
618	0.12
618	0.12
619	0.119
619	0.119
620	0.119
620	0.118
621	0.117
621	0.116
622	0.115
622	0.115
622	0.113
623	0.113
623	0.112
624	0.112
624	0.111
625	0.11
625	0.11
626	0.109
626	0.109
626	0.108
627	0.108
627	0.107
628	0.107
628	0.106
629	0.105
629	0.103
630	0.102
630	0.1
630	0.099
631	0.098
631	0.097
632	0.095
632	0.094
633	0.093
633	0.092
634	0.091
634	0.089
634	0.088
635	0.086
635	0.085
636	0.083
636	0.081
637	0.079
637	0.077
638	0.075
638	0.073
638	0.07
639	0.068
639	0.065
640	0.063
640	0.061
641	0.058
641	0.056
642	0.053
642	0.05
642	0.047
643	0.044
643	0.041
644	0.038
644	0.035
645	0.031
645	0.027
646	0.024
646	0.02
646	0.016
647	0.012
647	0.008
648	0.004
648	-0
649	-0.005
649	-0.01
650	-0.014
650	-0.019
650	-0.024
651	-0.031
651	-0.038
652	-0.047
652	-0.056
653	-0.063
653	-0.071
653	-0.068
654	-0.059
654	-0.058
655	-0.061
655	-0.065
656	-0.069
656	-0.074
657	-0.077
657	-0.079
657	-0.084
658	-0.088
658	-0.108
659	-0.161
659	-0.22
660	-0.251
660	-0.269
661	-0.289
661	-0.31
661	-0.333
662	-0.353
662	-0.375
663	-0.4
663	-0.429
664	-0.458
664	-0.495
665	-0.526
665	-0.568
665	-0.604
666	-0.643
666	-0.688
667	-0.735
667	-0.784
668	-0.841
668	-0.901
669	-0.963
669	-1.023
669	-1.088
670	-1.14
670	-1.187
671	-1.38
671	-1.786
672	-2.088
672	-2.312
672	-2.462
673	-2.567
673	-2.637
674	-2.662
674	-2.677
675	-2.702
675	-2.844
676	-3.046
676	-2.998
676	-2.758
677	-2.528
677	-2.318
678	-2.032
678	-1.529
679	-1.295
679	-1.186
680	-1.111
680	-1.046
680	-0.995
681	-0.969
681	-0.926
682	-0.904
682	-0.88
683	-0.858
683	-0.856
684	-0.848
684	-0.844
684	-0.834
685	-0.823
685	-0.812
686	-0.795
686	-0.789
687	-0.771
687	-0.77
687	-0.758
688	-0.739
688	-0.725
689	-0.709
689	-0.7
690	-0.685
690	-0.678
691	-0.678
691	-0.688
691	-0.708
692	-0.705
692	-0.701
693	-0.702
693	-0.714
694	-0.712
694	-0.709
695	-0.718
695	-0.718
695	-0.706
696	-0.707
696	-0.686
697	-0.686
697	-0.705
698	-0.71
698	-0.703
698	-0.719
699	-0.723
699	-0.723
700	-0.716
700	-0.731
701	-0.73
701	-0.739
702	-0.74
702	-0.728
702	-0.72
703	-0.713
703	-0.705
704	-0.704
704	-0.703
705	-0.716
705	-0.708
705	-0.699
706	-0.701
706	-0.699
707	-0.704
707	-0.704
708	-0.703
708	-0.697
709	-0.701
709	-0.705
709	-0.696
710	-0.706
710	-0.716
711	-0.709
711	-0.711
712	-0.709
712	-0.719
713	-0.72
713	-0.727
713	-0.716
714	-0.712
714	-0.715
715	-0.707
715	-0.694
716	-0.703
716	-0.706
716	-0.7
717	-0.702
717	-0.703
718	-0.694
718	-0.696
719	-0.703
719	-0.705
720	-0.7
720	-0.709
720	-0.7
721	-0.69
721	-0.691
722	-0.678
722	-0.668
723	-0.669
723	-0.673
723	-0.661
724	-0.663
724	-0.666
725	-0.666
725	-0.675
726	-0.687
726	-0.691
727	-0.699
727	-0.714
727	-0.721
728	-0.723
728	-0.729
729	-0.73
729	-0.737
730	-0.745
730	-0.739
730	-0.728
731	-0.712
731	-0.72
732	-0.726
732	-0.725
733	-0.724
733	-0.729
734	-0.721
734	-0.721
734	-0.708
735	-0.707
735	-0.71
736	-0.722
736	-0.71
737	-0.701
737	-0.704
737	-0.712
738	-0.708
738	-0.711
739	-0.708
739	-0.72
740	-0.719
740	-0.719
741	-0.716
741	-0.716
741	-0.722
742	-0.718
742	-0.719
743	-0.728
743	-0.732
744	-0.728
744	-0.717
744	-0.719
745	-0.726
745	-0.717
746	-0.716
746	-0.712
747	-0.713
747	-0.701
748	-0.688
748	-0.694
748	-0.696
749	-0.695
749	-0.696
750	-0.685
750	-0.688
751	-0.689
751	-0.697
751	-0.7
752	-0.704
752	-0.717
753	-0.712
753	-0.709
754	-0.715
754	-0.707
754	-0.723
755	-0.739
755	-0.753
756	-0.743
756	-0.74
757	-0.739
757	-0.732
758	-0.732
758	-0.728
758	-0.731
759	-0.737
759	-0.719
760	-0.711
760	-0.706
761	-0.717
761	-0.715
761	-0.715
762	-0.722
762	-0.722
763	-0.732
763	-0.729
764	-0.728
764	-0.737
764	-0.742
765	-0.733
765	-0.718
766	-0.724
766	-0.73
767	-0.744
767	-0.738
768	-0.729
768	-0.738
768	-0.742
769	-0.759
769	-0.763
770	-0.768
770	-0.783
771	-0.781
771	-0.784
771	-0.787
772	-0.791
772	-0.789
773	-0.787
773	-0.783
774	-0.782
774	-0.781
775	-0.784
775	-0.777
775	-0.782
776	-0.781
776	-0.767
777	-0.773
777	-0.795
778	-0.794
778	-0.812
778	-0.799
779	-0.821
779	-0.827
780	-0.841
780	-0.841
781	-0.853
781	-0.85
781	-0.867
782	-0.866
782	-0.866
783	-0.855
783	-0.853
784	-0.834
784	-0.822
784	-0.83
785	-0.838
785	-0.826
786	-0.833
786	-0.813
787	-0.799
787	-0.803
788	-0.806
788	-0.819
788	-0.831
789	-0.834
789	-0.817
790	-0.798
790	-0.8
791	-0.8
791	-0.816
791	-0.823
792	-0.819
792	-0.794
793	-0.783
793	-0.76
794	-0.762
794	-0.755
794	-0.765
795	-0.759
795	-0.752
796	-0.737
796	-0.742
797	-0.735
797	-0.748
797	-0.758
798	-0.772
798	-0.77
799	-0.78
799	-0.765
800	-0.771
800	-0.765
801	-0.769
801	-0.755
801	-0.765
802	-0.772
802	-0.77
803	-0.77
803	-0.779
804	-0.772
804	-0.784
804	-0.773
805	-0.778
805	-0.767
806	-0.772
806	-0.756
807	-0.752
807	-0.734
807	-0.722
808	-0.713
808	-0.708
809	-0.693
809	-0.703
810	-0.7
810	-0.693
810	-0.69
811	-0.7
811	-0.692
812	-0.694
812	-0.697
813	-0.701
813	-0.697
813	-0.704
814	-0.704
814	-0.708
815	-0.714
815	-0.717
816	-0.707
816	-0.713
817	-0.72
817	-0.74
817	-0.755
818	-0.763
818	-0.767
819	-0.761
819	-0.76
820	-0.77
820	-0.767
820	-0.779
821	-0.778
821	-0.763
822	-0.73
822	-0.704
823	-0.702
823	-0.703
823	-0.698
824	-0.693
824	-0.696
825	-0.688
825	-0.668
826	-0.662
826	-0.672
826	-0.683
827	-0.679
827	-0.675
828	-0.655
828	-0.656
829	-0.647
829	-0.632
829	-0.625
830	-0.634
830	-0.63
831	-0.622
831	-0.611
832	-0.61
832	-0.601
832	-0.609
833	-0.603
833	-0.603
834	-0.601
834	-0.607
835	-0.596
835	-0.591
835	-0.589
836	-0.588
836	-0.584
837	-0.583
837	-0.573
838	-0.565
838	-0.554
839	-0.542
839	-0.53
839	-0.521
840	-0.511
840	-0.506
841	-0.495
841	-0.486
842	-0.48
842	-0.472
842	-0.464
843	-0.459
843	-0.455
844	-0.447
844	-0.439
845	-0.432
845	-0.42
845	-0.406
846	-0.396
846	-0.382
847	-0.37
847	-0.359
848	-0.349
848	-0.338
848	-0.325
849	-0.316
849	-0.305
850	-0.294
850	-0.29
851	-0.282
851	-0.271
851	-0.263
852	-0.249
852	-0.237
853	-0.228
853	-0.223
854	-0.213
854	-0.201
854	-0.19
855	-0.18
855	-0.175
856	-0.165
856	-0.158
857	-0.153
857	-0.146
857	-0.135
858	-0.126
858	-0.12
859	-0.113
859	-0.105
860	-0.096
860	-0.084
860	-0.076
861	-0.069
861	-0.061
862	-0.055
862	-0.049
863	-0.043
863	-0.035
863	-0.031
864	-0.027
864	-0.022
865	-0.017
865	-0.013
866	-0.009
866	-0.006
866	-0.003
867	0
867	0.003
868	0.005
868	0.009
869	0.011
869	0.013
869	0.015
870	0.017
870	0.019
871	0.022
871	0.024
872	0.025
872	0.026
872	0.027
873	0.028
873	0.028
874	0.028
874	0.028
875	0.027
875	0.026
875	0.025
876	0.024
876	0.023
877	0.022
877	0.02
878	0.019
878	0.017
878	0.015
879	0.014
879	0.013
880	0.012
880	0.012
881	0.012
881	0.012
881	0.012
882	0.011
882	0.01
883	0.009
883	0.008
884	0.008
884	0.007
884	0.006
885	0.005
885	0.005
886	0.005
886	0.004
887	0.004
887	0.004
887	0.005
888	0.005
888	0.006
889	0.007
889	0.007
890	0.007
890	0.007
890	0.008
891	0.008
891	0.008
892	0.009
892	0.009
893	0.009
893	0.01
893	0.01
894	0.01
894	0.01
895	0.009
895	0.009
895	0.009
896	0.009
896	0.008
897	0.007
897	0.006
898	0.005
898	0.005
898	0.005
899	0.005
899	0.005
900	0.005
900	0.005
901	0.006
901	0.007
901	0.008
902	0.009
902	0.01
903	0.01
903	0.011
904	0.011
904	0.012
904	0.012
905	0.013
905	0.014
906	0.014
906	0.014
907	0.014
907	0.014
907	0.014
908	0.014
908	0.013
909	0.012
909	0.012
910	0.011
910	0.011
910	0.011
911	0.011
911	0.011
912	0.012
912	0.013
913	0.014
913	0.015
913	0.016
914	0.017
914	0.017
915	0.018
915	0.018
916	0.018
916	0.019
916	0.019
917	0.019
917	0.019
918	0.018
918	0.018
918	0.018
919	0.017
919	0.017
920	0.017
920	0.017
921	0.017
921	0.016
921	0.016
922	0.016
922	0.016
923	0.016
923	0.015
924	0.015
924	0.015
924	0.014
925	0.013
925	0.012
926	0.012
926	0.011
927	0.011
927	0.01
927	0.01
928	0.009
928	0.009
929	0.009
929	0.009
930	0.008
930	0.008
930	0.008
931	0.007
931	0.007
932	0.007
932	0.006
933	0.005
933	0.004
933	0.003
934	0.002
934	0.001
935	0
935	-0.001
935	-0.001
936	-0.002
936	-0.003
937	-0.005
937	-0.005
938	-0.005
938	-0.005
938	-0.005
939	-0.004
939	-0.004
940	-0.003
940	-0.003
941	-0.002
941	-0.001
941	0
942	0.001
942	0.002
943	0.002
943	0.002
944	0.002
944	0.002
944	0.001
945	0.001
945	-0
946	-0.001
946	-0.003
946	-0.003
947	-0.004
947	-0.005
948	-0.005
948	-0.005
949	-0.005
949	-0.004
949	-0.004
950	-0.004
950	-0.003
951	-0.002
951	-0.001
952	-0.001
952	0.001
952	0.001
953	0.002
953	0.003
954	0.004
954	0.005
955	0.006
955	0.007
955	0.008
956	0.009
956	0.01
957	0.01
957	0.011
957	0.011
958	0.011
958	0.012
959	0.013
959	0.013
960	0.013
960	0.013
960	0.014
961	0.014
961	0.014
962	0.015
962	0.015
963	0.015
963	0.015
963	0.015
964	0.015
964	0.016
965	0.016
965	0.016
966	0.016
966	0.015
966	0.015
967	0.015
967	0.014
968	0.014
968	0.013
968	0.013
969	0.012
969	0.012
970	0.012
970	0.012
971	0.011
971	0.012
971	0.012
972	0.012
972	0.012
973	0.013
973	0.012
974	0.012
974	0.013
974	0.013
975	0.013
975	0.013
976	0.012
976	0.012
976	0.012
977	0.011
977	0.011
978	0.012
978	0.011
979	0.011
979	0.011
979	0.011
980	0.011
980	0.01
981	0.01
981	0.01
982	0.01
982	0.01
982	0.01
983	0.01
983	0.01
984	0.01
984	0.01
984	0.01
985	0.01
985	0.01
986	0.01
986	0.009
987	0.009
987	0.009
987	0.008
988	0.007
988	0.006
989	0.005
989	0.005
990	0.004
990	0.003
990	0.002
991	0.002
991	0.001
992	0.001
992	0.001
992	0
993	0
993	0
994	0
994	0
995	-0
995	-0
995	-0.001
996	-0.001
996	-0.002
997	-0.002
997	-0.002
997	-0.002
998	-0.003
998	-0.003
999	-0.002
999	-0.002
1000	-0.001
1000	-0.001
1000	-0.001
1001	-0
1001	0
1002	0
1002	0.001
1003	0.001
1003	0.001
1003	0
1004	-0
1004	-0.001
1005	-0.001
1005	-0.002
1005	-0.003
1006	-0.005
1006	-0.006
1007	-0.007
1007	-0.008
1008	-0.008
1008	-0.009
1008	-0.009
1009	-0.009
1009	-0.009
1010	-0.009
1010	-0.008
1010	-0.008
1011	-0.008
1011	-0.008
1012	-0.008
1012	-0.008
1013	-0.008
1013	-0.008
1013	-0.009
1014	-0.009
1014	-0.01
1015	-0.01
1015	-0.011
1016	-0.011
1016	-0.012
1016	-0.012
1017	-0.013
1017	-0.014
1018	-0.015
1018	-0.016
1018	-0.016
1019	-0.017
1019	-0.018
1020	-0.019
1020	-0.019
1021	-0.02
1021	-0.021
1021	-0.021
1022	-0.022
1022	-0.023
1023	-0.023
1023	-0.023
1023	-0.024
1024	-0.024
1024	-0.024
1025	-0.024
1025	-0.024
1026	-0.024
1026	-0.023
1026	-0.023
1027	-0.022
1027	-0.022
1028	-0.022
1028	-0.022
1028	-0.022
1029	-0.021
1029	-0.021
1030	-0.022
1030	-0.022
1031	-0.023
1031	-0.023
1031	-0.023
1032	-0.023
1032	-0.023
1033	-0.023
1033	-0.022
1033	-0.023
1034	-0.022
1034	-0.022
1035	-0.022
1035	-0.022
1036	-0.022
1036	-0.022
1036	-0.022
1037	-0.022
1037	-0.022
1038	-0.022
1038	-0.021
1039	-0.021
1039	-0.021
1039	-0.02
1040	-0.02
1040	-0.019
1041	-0.018
1041	-0.018
1041	-0.017
1042	-0.018
1042	-0.018
1043	-0.018
1043	-0.019
1044	-0.019
1044	-0.02
1044	-0.02
1045	-0.021
1045	-0.022
1046	-0.023
1046	-0.024
1046	-0.024
1047	-0.024
1047	-0.024
1048	-0.024
1048	-0.025
1049	-0.024
1049	-0.024
1049	-0.024
1050	-0.024
1050	-0.024
1051	-0.023
1051	-0.023
1051	-0.023
1052	-0.022
1052	-0.022
1053	-0.022
1053	-0.022
1053	-0.021
1054	-0.022
1054	-0.021
1055	-0.022
1055	-0.022
1056	-0.023
1056	-0.023
1056	-0.024
1057	-0.025
1057	-0.026
1058	-0.026
1058	-0.027
1058	-0.028
1059	-0.028
1059	-0.029
1060	-0.03
1060	-0.03
1061	-0.03
1061	-0.031
1061	-0.031
1062	-0.031
1062	-0.031
1063	-0.031
1063	-0.031
1063	-0.031
1064	-0.03
1064	-0.03
1065	-0.029
1065	-0.029
1066	-0.029
1066	-0.029
1066	-0.029
1067	-0.029
1067	-0.029
1068	-0.029
1068	-0.03
1068	-0.03
1069	-0.03
1069	-0.031
1070	-0.032
1070	-0.032
1071	-0.032
1071	-0.032
1071	-0.033
1072	-0.034
1072	-0.034
1073	-0.035
1073	-0.035
1073	-0.035
1074	-0.035
1074	-0.035
1075	-0.036
1075	-0.036
1076	-0.036
1076	-0.036
1076	-0.037
1077	-0.037
1077	-0.037
1078	-0.038
1078	-0.038
1078	-0.039
1079	-0.04
1079	-0.04
1080	-0.041
1080	-0.041
1080	-0.041
1081	-0.042
1081	-0.042
1082	-0.043
1082	-0.044
1083	-0.045
1083	-0.045
1083	-0.046
1084	-0.047
1084	-0.048
1085	-0.049
1085	-0.05
1085	-0.05
1086	-0.05
1086	-0.051
1087	-0.051
1087	-0.051
1088	-0.051
1088	-0.052
1088	-0.052
1089	-0.053
1089	-0.053
1090	-0.054
1090	-0.055
1090	-0.056
1091	-0.057
1091	-0.058
1092	-0.059
1092	-0.058
1092	-0.06
1093	-0.061
1093	-0.061
1094	-0.062
1094	-0.062
1095	-0.063
1095	-0.063
1095	-0.063
1096	-0.064
1096	-0.065
1097	-0.065
1097	-0.066
1097	-0.067
1098	-0.068
1098	-0.07
1099	-0.071
1099	-0.072
1100	-0.073
1100	-0.075
1100	-0.077
1101	-0.08
1101	-0.082
1102	-0.083
1102	-0.085
1102	-0.086
1103	-0.087
1103	-0.088
1104	-0.09
1104	-0.092
1104	-0.093
1105	-0.095
1105	-0.098
1106	-0.102
1106	-0.105
1107	-0.109
1107	-0.113
1107	-0.119
1108	-0.121
1108	-0.124
1109	-0.127
1109	-0.132
1109	-0.135
1110	-0.136
1110	-0.14
1111	-0.146
1111	-0.149
