Data from 15c-2a_Absorbance__1069__01069.txt Node

Date: Wed Jan 17 10:16:02 CET 2024
User: Marek
Spectrometer: MAYP115816
Trigger mode: 0
Integration Time (sec): 2.000000E-1
Scans to average: 10
Electric dark correction enabled: true
Nonlinearity correction enabled: true
Boxcar width: 5
XAxis mode: Wavelengths
Number of Pixels in Spectrum: 2068
>>>>>Begin Spectral Data<<<<<
199	-1.583
199	-1.444
200	-1.285
200	-1.163
201	-1.087
201	-1.039
202	-0.969
202	-0.918
203	-0.873
203	-0.834
204	-0.81
204	-0.787
205	-0.764
205	-0.754
205	-0.753
206	-0.752
206	-0.748
207	-0.747
207	-0.743
208	-0.741
208	-0.74
209	-0.735
209	-0.734
210	-0.733
210	-0.733
211	-0.732
211	-0.731
212	-0.732
212	-0.731
213	-0.73
213	-0.73
213	-0.729
214	-0.728
214	-0.727
215	-0.726
215	-0.726
216	-0.726
216	-0.724
217	-0.719
217	-0.717
218	-0.717
218	-0.713
219	-0.711
219	-0.709
220	-0.706
220	-0.703
221	-0.698
221	-0.695
221	-0.691
222	-0.688
222	-0.683
223	-0.676
223	-0.675
224	-0.669
224	-0.662
225	-0.654
225	-0.646
226	-0.638
226	-0.625
227	-0.612
227	-0.599
228	-0.584
228	-0.566
229	-0.546
229	-0.522
229	-0.495
230	-0.467
230	-0.437
231	-0.403
231	-0.368
232	-0.332
232	-0.293
233	-0.252
233	-0.21
234	-0.168
234	-0.128
235	-0.089
235	-0.051
236	-0.015
236	0.019
236	0.052
237	0.082
237	0.11
238	0.136
238	0.16
239	0.183
239	0.203
240	0.221
240	0.237
241	0.253
241	0.267
242	0.279
242	0.291
243	0.301
243	0.31
243	0.318
244	0.326
244	0.333
245	0.339
245	0.345
246	0.35
246	0.355
247	0.359
247	0.363
248	0.367
248	0.371
249	0.375
249	0.378
250	0.381
250	0.384
250	0.386
251	0.389
251	0.391
252	0.394
252	0.396
253	0.398
253	0.399
254	0.4
254	0.402
255	0.403
255	0.405
256	0.406
256	0.406
257	0.407
257	0.408
258	0.408
258	0.409
258	0.409
259	0.409
259	0.409
260	0.409
260	0.409
261	0.408
261	0.408
262	0.408
262	0.407
263	0.407
263	0.406
264	0.405
264	0.404
265	0.403
265	0.402
265	0.401
266	0.4
266	0.398
267	0.397
267	0.396
268	0.394
268	0.393
269	0.391
269	0.39
270	0.388
270	0.386
271	0.384
271	0.382
272	0.38
272	0.378
272	0.376
273	0.374
273	0.372
274	0.37
274	0.368
275	0.366
275	0.364
276	0.362
276	0.359
277	0.357
277	0.355
278	0.353
278	0.351
278	0.349
279	0.346
279	0.344
280	0.342
280	0.339
281	0.337
281	0.335
282	0.333
282	0.331
283	0.329
283	0.327
284	0.325
284	0.323
285	0.322
285	0.32
285	0.318
286	0.317
286	0.315
287	0.313
287	0.312
288	0.31
288	0.309
289	0.307
289	0.305
290	0.304
290	0.302
291	0.301
291	0.3
292	0.298
292	0.297
292	0.295
293	0.294
293	0.293
294	0.292
294	0.291
295	0.29
295	0.289
296	0.288
296	0.287
297	0.286
297	0.285
298	0.284
298	0.283
298	0.282
299	0.282
299	0.281
300	0.28
300	0.279
301	0.279
301	0.278
302	0.277
302	0.276
303	0.276
303	0.275
304	0.274
304	0.273
305	0.273
305	0.272
305	0.271
306	0.27
306	0.27
307	0.269
307	0.268
308	0.267
308	0.267
309	0.266
309	0.265
310	0.265
310	0.264
311	0.263
311	0.263
311	0.262
312	0.261
312	0.261
313	0.26
313	0.259
314	0.258
314	0.258
315	0.257
315	0.256
316	0.255
316	0.255
317	0.254
317	0.253
318	0.253
318	0.252
318	0.251
319	0.25
319	0.249
320	0.249
320	0.248
321	0.247
321	0.246
322	0.245
322	0.245
323	0.244
323	0.243
324	0.242
324	0.241
324	0.241
325	0.24
325	0.239
326	0.239
326	0.238
327	0.237
327	0.237
328	0.236
328	0.235
329	0.234
329	0.234
330	0.233
330	0.232
330	0.232
331	0.231
331	0.23
332	0.229
332	0.229
333	0.228
333	0.227
334	0.226
334	0.226
335	0.225
335	0.224
336	0.223
336	0.223
336	0.222
337	0.222
337	0.221
338	0.221
338	0.22
339	0.22
339	0.219
340	0.219
340	0.218
341	0.217
341	0.217
342	0.216
342	0.216
342	0.215
343	0.214
343	0.214
344	0.214
344	0.213
345	0.213
345	0.212
346	0.212
346	0.212
347	0.211
347	0.211
348	0.21
348	0.21
348	0.21
349	0.209
349	0.209
350	0.208
350	0.208
351	0.208
351	0.207
352	0.207
352	0.206
353	0.206
353	0.206
354	0.205
354	0.205
354	0.204
355	0.204
355	0.203
356	0.203
356	0.202
357	0.202
357	0.201
358	0.201
358	0.201
359	0.201
359	0.201
360	0.201
360	0.201
360	0.201
361	0.201
361	0.201
362	0.201
362	0.201
363	0.201
363	0.201
364	0.201
364	0.2
365	0.2
365	0.2
366	0.2
366	0.2
366	0.199
367	0.199
367	0.199
368	0.199
368	0.199
369	0.198
369	0.198
370	0.198
370	0.197
371	0.197
371	0.197
372	0.197
372	0.197
372	0.196
373	0.196
373	0.196
374	0.196
374	0.196
375	0.195
375	0.195
376	0.195
376	0.195
377	0.195
377	0.195
378	0.195
378	0.195
378	0.195
379	0.195
379	0.195
380	0.195
380	0.195
381	0.195
381	0.195
382	0.194
382	0.194
383	0.194
383	0.194
383	0.193
384	0.193
384	0.193
385	0.193
385	0.193
386	0.193
386	0.193
387	0.192
387	0.192
388	0.192
388	0.192
389	0.192
389	0.192
389	0.191
390	0.191
390	0.191
391	0.191
391	0.191
392	0.191
392	0.191
393	0.191
393	0.191
394	0.19
394	0.19
394	0.19
395	0.19
395	0.189
396	0.189
396	0.189
397	0.189
397	0.189
398	0.189
398	0.188
399	0.188
399	0.188
400	0.188
400	0.188
400	0.187
401	0.187
401	0.186
402	0.186
402	0.186
403	0.185
403	0.186
404	0.186
404	0.185
405	0.185
405	0.185
405	0.185
406	0.184
406	0.184
407	0.184
407	0.184
408	0.183
408	0.183
409	0.182
409	0.182
410	0.182
410	0.182
411	0.182
411	0.182
411	0.182
412	0.182
412	0.181
413	0.181
413	0.181
414	0.181
414	0.181
415	0.181
415	0.18
416	0.18
416	0.18
416	0.18
417	0.18
417	0.18
418	0.18
418	0.18
419	0.18
419	0.181
420	0.181
420	0.181
421	0.181
421	0.182
421	0.182
422	0.182
422	0.182
423	0.182
423	0.181
424	0.181
424	0.18
425	0.18
425	0.179
426	0.179
426	0.179
427	0.179
427	0.179
427	0.179
428	0.179
428	0.179
429	0.179
429	0.179
430	0.179
430	0.179
431	0.179
431	0.179
432	0.179
432	0.178
432	0.178
433	0.177
433	0.177
434	0.176
434	0.176
435	0.176
435	0.177
436	0.177
436	0.177
437	0.177
437	0.177
437	0.177
438	0.177
438	0.177
439	0.177
439	0.177
440	0.176
440	0.176
441	0.176
441	0.176
442	0.176
442	0.176
442	0.176
443	0.176
443	0.176
444	0.176
444	0.176
445	0.176
445	0.176
446	0.176
446	0.176
447	0.176
447	0.176
447	0.176
448	0.176
448	0.176
449	0.176
449	0.176
450	0.176
450	0.176
451	0.176
451	0.176
452	0.176
452	0.176
452	0.176
453	0.176
453	0.176
454	0.175
454	0.175
455	0.175
455	0.175
456	0.175
456	0.175
457	0.175
457	0.176
458	0.176
458	0.176
458	0.176
459	0.176
459	0.176
460	0.176
460	0.176
461	0.175
461	0.175
462	0.175
462	0.176
463	0.176
463	0.176
463	0.177
464	0.177
464	0.177
465	0.177
465	0.177
466	0.178
466	0.178
467	0.179
467	0.179
467	0.179
468	0.178
468	0.178
469	0.178
469	0.178
470	0.178
470	0.178
471	0.178
471	0.178
472	0.178
472	0.178
472	0.178
473	0.178
473	0.179
474	0.179
474	0.18
475	0.181
475	0.181
476	0.181
476	0.182
477	0.182
477	0.182
477	0.183
478	0.183
478	0.183
479	0.183
479	0.184
480	0.185
480	0.185
481	0.186
481	0.187
482	0.188
482	0.189
482	0.19
483	0.192
483	0.194
484	0.195
484	0.196
485	0.196
485	0.197
486	0.198
486	0.199
487	0.199
487	0.2
487	0.201
488	0.201
488	0.201
489	0.202
489	0.203
490	0.204
490	0.205
491	0.206
491	0.208
492	0.209
492	0.209
492	0.21
493	0.211
493	0.212
494	0.214
494	0.215
495	0.217
495	0.218
496	0.22
496	0.221
496	0.223
497	0.224
497	0.226
498	0.227
498	0.228
499	0.229
499	0.231
500	0.232
500	0.233
501	0.235
501	0.236
501	0.237
502	0.239
502	0.24
503	0.242
503	0.243
504	0.245
504	0.246
505	0.247
505	0.248
506	0.25
506	0.251
506	0.252
507	0.253
507	0.254
508	0.255
508	0.257
509	0.258
509	0.26
510	0.262
510	0.263
511	0.264
511	0.265
511	0.266
512	0.267
512	0.268
513	0.268
513	0.268
514	0.269
514	0.269
515	0.27
515	0.27
515	0.271
516	0.272
516	0.273
517	0.274
517	0.274
518	0.275
518	0.275
519	0.275
519	0.275
520	0.275
520	0.274
520	0.274
521	0.273
521	0.273
522	0.272
522	0.272
523	0.272
523	0.272
524	0.272
524	0.272
524	0.272
525	0.273
525	0.273
526	0.273
526	0.273
527	0.274
527	0.273
528	0.273
528	0.273
529	0.273
529	0.272
529	0.272
530	0.271
530	0.27
531	0.269
531	0.269
532	0.268
532	0.267
533	0.266
533	0.265
533	0.264
534	0.263
534	0.262
535	0.261
535	0.26
536	0.259
536	0.258
537	0.257
537	0.256
538	0.255
538	0.253
538	0.252
539	0.25
539	0.249
540	0.247
540	0.245
541	0.243
541	0.241
542	0.239
542	0.237
542	0.235
543	0.233
543	0.231
544	0.229
544	0.227
545	0.225
545	0.224
546	0.223
546	0.221
547	0.218
547	0.215
547	0.213
548	0.211
548	0.209
549	0.207
549	0.204
550	0.202
550	0.199
551	0.196
551	0.194
551	0.192
552	0.191
552	0.189
553	0.187
553	0.186
554	0.184
554	0.182
555	0.179
555	0.177
556	0.174
556	0.172
556	0.169
557	0.167
557	0.165
558	0.163
558	0.16
559	0.159
559	0.157
560	0.155
560	0.153
560	0.152
561	0.151
561	0.15
562	0.149
562	0.146
563	0.144
563	0.142
564	0.139
564	0.137
564	0.134
565	0.132
565	0.13
566	0.128
566	0.125
567	0.124
567	0.123
568	0.122
568	0.121
568	0.12
569	0.12
569	0.119
570	0.118
570	0.117
571	0.116
571	0.115
572	0.114
572	0.113
573	0.112
573	0.111
573	0.109
574	0.108
574	0.108
575	0.107
575	0.107
576	0.106
576	0.105
577	0.103
577	0.102
577	0.102
578	0.101
578	0.1
579	0.1
579	0.1
580	0.098
580	0.095
581	0.092
581	0.091
581	0.09
582	0.089
582	0.088
583	0.088
583	0.087
584	0.084
584	0.081
585	0.08
585	0.08
585	0.079
586	0.079
586	0.078
587	0.077
587	0.075
588	0.074
588	0.073
589	0.073
589	0.073
590	0.072
590	0.072
590	0.073
591	0.074
591	0.073
592	0.073
592	0.071
593	0.071
593	0.071
594	0.07
594	0.068
594	0.067
595	0.067
595	0.065
596	0.065
596	0.066
597	0.067
597	0.068
598	0.068
598	0.069
598	0.07
599	0.07
599	0.07
600	0.069
600	0.069
601	0.068
601	0.067
602	0.065
602	0.065
602	0.065
603	0.065
603	0.066
604	0.066
604	0.067
605	0.069
605	0.07
606	0.07
606	0.07
606	0.07
607	0.069
607	0.069
608	0.068
608	0.067
609	0.066
609	0.066
610	0.065
610	0.065
610	0.065
611	0.066
611	0.067
612	0.069
612	0.07
613	0.071
613	0.072
614	0.072
614	0.071
614	0.07
615	0.07
615	0.069
616	0.068
616	0.067
617	0.066
617	0.065
618	0.064
618	0.062
618	0.062
619	0.063
619	0.064
620	0.065
620	0.066
621	0.066
621	0.066
622	0.067
622	0.067
622	0.067
623	0.068
623	0.069
624	0.069
624	0.068
625	0.068
625	0.069
626	0.069
626	0.069
626	0.07
627	0.071
627	0.071
628	0.072
628	0.073
629	0.073
629	0.074
630	0.074
630	0.074
630	0.075
631	0.076
631	0.077
632	0.077
632	0.078
633	0.079
633	0.081
634	0.082
634	0.084
634	0.085
635	0.087
635	0.088
636	0.089
636	0.09
637	0.091
637	0.091
638	0.093
638	0.094
638	0.095
639	0.096
639	0.097
640	0.098
640	0.099
641	0.101
641	0.103
642	0.104
642	0.107
642	0.108
643	0.11
643	0.112
644	0.114
644	0.116
645	0.118
645	0.12
646	0.122
646	0.125
646	0.127
647	0.13
647	0.132
648	0.134
648	0.136
649	0.139
649	0.141
650	0.143
650	0.145
650	0.147
651	0.149
651	0.151
652	0.153
652	0.156
653	0.158
653	0.165
653	0.175
654	0.14
654	0.113
655	0.116
655	0.118
656	0.119
656	0.121
657	0.122
657	0.124
657	0.125
658	0.123
658	0.114
659	0.146
659	0.19
660	0.196
660	0.198
661	0.2
661	0.203
661	0.207
662	0.21
662	0.214
663	0.217
663	0.22
664	0.224
664	0.227
665	0.23
665	0.232
665	0.235
666	0.238
666	0.24
667	0.242
667	0.244
668	0.246
668	0.249
669	0.251
669	0.254
669	0.258
670	0.261
670	0.264
671	0.267
671	0.269
672	0.271
672	0.274
672	0.275
673	0.277
673	0.279
674	0.28
674	0.281
675	0.281
675	0.282
676	0.284
676	0.285
676	0.286
677	0.288
677	0.29
678	0.291
678	0.292
679	0.294
679	0.295
680	0.298
680	0.3
680	0.301
681	0.302
681	0.304
682	0.305
682	0.306
683	0.307
683	0.308
684	0.309
684	0.309
684	0.309
685	0.309
685	0.31
686	0.31
686	0.31
687	0.31
687	0.31
687	0.31
688	0.31
688	0.31
689	0.31
689	0.31
690	0.309
690	0.308
691	0.307
691	0.306
691	0.305
692	0.304
692	0.302
693	0.301
693	0.301
694	0.299
694	0.297
695	0.297
695	0.298
695	0.298
696	0.297
696	0.296
697	0.295
697	0.294
698	0.293
698	0.292
698	0.291
699	0.29
699	0.288
700	0.285
700	0.283
701	0.282
701	0.28
702	0.279
702	0.277
702	0.275
703	0.273
703	0.271
704	0.269
704	0.267
705	0.265
705	0.263
705	0.261
706	0.259
706	0.257
707	0.255
707	0.253
708	0.251
708	0.249
709	0.247
709	0.244
709	0.241
710	0.238
710	0.235
711	0.232
711	0.23
712	0.227
712	0.225
713	0.223
713	0.221
713	0.219
714	0.217
714	0.215
715	0.214
715	0.212
716	0.21
716	0.209
716	0.207
717	0.206
717	0.204
718	0.202
718	0.2
719	0.199
719	0.198
720	0.196
720	0.193
720	0.191
721	0.189
721	0.187
722	0.184
722	0.182
723	0.18
723	0.178
723	0.176
724	0.173
724	0.171
725	0.168
725	0.166
726	0.163
726	0.161
727	0.158
727	0.155
727	0.153
728	0.15
728	0.148
729	0.146
729	0.145
730	0.143
730	0.141
730	0.14
731	0.138
731	0.136
732	0.135
732	0.133
733	0.131
733	0.129
734	0.126
734	0.124
734	0.122
735	0.121
735	0.119
736	0.117
736	0.116
737	0.116
737	0.116
737	0.115
738	0.113
738	0.111
739	0.109
739	0.107
740	0.105
740	0.103
741	0.101
741	0.098
741	0.094
742	0.091
742	0.088
743	0.086
743	0.083
744	0.082
744	0.08
744	0.078
745	0.076
745	0.074
746	0.073
746	0.072
747	0.071
747	0.07
748	0.07
748	0.069
748	0.067
749	0.066
749	0.065
750	0.063
750	0.062
751	0.062
751	0.061
751	0.061
752	0.06
752	0.059
753	0.059
753	0.058
754	0.058
754	0.057
754	0.057
755	0.057
755	0.057
756	0.056
756	0.054
757	0.053
757	0.052
758	0.051
758	0.05
758	0.049
759	0.048
759	0.046
760	0.044
760	0.041
761	0.04
761	0.039
761	0.038
762	0.036
762	0.035
763	0.035
763	0.033
764	0.031
764	0.029
764	0.028
765	0.026
765	0.024
766	0.023
766	0.022
767	0.021
767	0.019
768	0.016
768	0.015
768	0.014
769	0.013
769	0.012
770	0.011
770	0.009
771	0.007
771	0.005
771	0.002
772	0
772	-0.002
773	-0.004
773	-0.007
774	-0.01
774	-0.013
775	-0.015
775	-0.018
775	-0.02
776	-0.023
776	-0.026
777	-0.029
777	-0.031
778	-0.034
778	-0.036
778	-0.038
779	-0.039
779	-0.04
780	-0.043
780	-0.046
781	-0.048
781	-0.051
781	-0.055
782	-0.059
782	-0.065
783	-0.07
783	-0.075
784	-0.081
784	-0.088
784	-0.094
785	-0.1
785	-0.107
786	-0.113
786	-0.117
787	-0.118
787	-0.121
788	-0.127
788	-0.133
788	-0.138
789	-0.143
789	-0.146
790	-0.146
790	-0.148
791	-0.151
791	-0.153
791	-0.155
792	-0.15
792	-0.139
793	-0.133
793	-0.129
794	-0.128
794	-0.13
794	-0.134
795	-0.136
795	-0.137
796	-0.137
796	-0.14
797	-0.149
797	-0.16
797	-0.167
798	-0.172
798	-0.175
799	-0.175
799	-0.174
800	-0.174
800	-0.175
801	-0.178
801	-0.179
801	-0.179
802	-0.18
802	-0.182
803	-0.182
803	-0.183
804	-0.182
804	-0.177
804	-0.17
805	-0.166
805	-0.164
806	-0.162
806	-0.161
807	-0.16
807	-0.159
807	-0.159
808	-0.159
808	-0.161
809	-0.165
809	-0.171
810	-0.175
810	-0.178
810	-0.182
811	-0.185
811	-0.185
812	-0.181
812	-0.178
813	-0.178
813	-0.179
813	-0.179
814	-0.18
814	-0.179
815	-0.176
815	-0.172
816	-0.168
816	-0.165
817	-0.165
817	-0.162
817	-0.155
818	-0.147
818	-0.138
819	-0.127
819	-0.118
820	-0.111
820	-0.103
820	-0.096
821	-0.088
821	-0.082
822	-0.077
822	-0.072
823	-0.068
823	-0.066
823	-0.064
824	-0.061
824	-0.058
825	-0.055
825	-0.052
826	-0.049
826	-0.048
826	-0.046
827	-0.044
827	-0.042
828	-0.04
828	-0.039
829	-0.037
829	-0.036
829	-0.035
830	-0.034
830	-0.033
831	-0.031
831	-0.029
832	-0.028
832	-0.026
832	-0.025
833	-0.023
833	-0.021
834	-0.02
834	-0.018
835	-0.016
835	-0.015
835	-0.014
836	-0.013
836	-0.012
837	-0.011
837	-0.01
838	-0.01
838	-0.009
839	-0.009
839	-0.008
839	-0.009
840	-0.009
840	-0.008
841	-0.008
841	-0.008
842	-0.008
842	-0.008
842	-0.008
843	-0.008
843	-0.008
844	-0.007
844	-0.007
845	-0.006
845	-0.006
845	-0.005
846	-0.005
846	-0.004
847	-0.004
847	-0.004
848	-0.004
848	-0.004
848	-0.004
849	-0.004
849	-0.005
850	-0.005
850	-0.006
851	-0.007
851	-0.007
851	-0.007
852	-0.007
852	-0.007
853	-0.006
853	-0.006
854	-0.005
854	-0.005
854	-0.004
855	-0.004
855	-0.004
856	-0.005
856	-0.005
857	-0.005
857	-0.006
857	-0.006
858	-0.007
858	-0.007
859	-0.008
859	-0.008
860	-0.008
860	-0.008
860	-0.008
861	-0.008
861	-0.008
862	-0.008
862	-0.008
863	-0.008
863	-0.008
863	-0.008
864	-0.008
864	-0.008
865	-0.007
865	-0.007
866	-0.006
866	-0.006
866	-0.005
867	-0.003
867	-0.002
868	-0
868	0.001
869	0.002
869	0.003
869	0.003
870	0.003
870	0.003
871	0.003
871	0.002
872	0.001
872	-0
872	-0.002
873	-0.003
873	-0.004
874	-0.005
874	-0.005
875	-0.005
875	-0.005
875	-0.005
876	-0.004
876	-0.004
877	-0.003
877	-0.002
878	-0.001
878	-0
878	0.001
879	0.002
879	0.002
880	0.003
880	0.003
881	0.004
881	0.004
881	0.005
882	0.005
882	0.005
883	0.004
883	0.004
884	0.004
884	0.004
884	0.003
885	0.003
885	0.003
886	0.003
886	0.003
887	0.003
887	0.003
887	0.003
888	0.002
888	0.002
889	0.002
889	0.002
890	0.002
890	0.002
890	0.001
891	0.001
891	0
892	-0.001
892	-0.001
893	-0.002
893	-0.003
893	-0.004
894	-0.005
894	-0.006
895	-0.007
895	-0.008
895	-0.009
896	-0.01
896	-0.011
897	-0.011
897	-0.011
898	-0.011
898	-0.011
898	-0.011
899	-0.01
899	-0.01
900	-0.009
900	-0.008
901	-0.007
901	-0.006
901	-0.005
902	-0.004
902	-0.004
903	-0.003
903	-0.003
904	-0.003
904	-0.002
904	-0.002
905	-0.002
905	-0.001
906	-0.001
906	-0
907	0
907	0.001
907	0.001
908	0.002
908	0.002
909	0.003
909	0.003
910	0.003
910	0.004
910	0.004
911	0.004
911	0.005
912	0.006
912	0.006
913	0.006
913	0.006
913	0.006
914	0.006
914	0.005
915	0.004
915	0.002
916	0.001
916	-0.001
916	-0.003
917	-0.004
917	-0.006
918	-0.007
918	-0.007
918	-0.008
919	-0.008
919	-0.007
920	-0.007
920	-0.006
921	-0.005
921	-0.004
921	-0.004
922	-0.003
922	-0.002
923	-0.001
923	-0
924	0
924	-0
924	-0
925	-0.001
925	-0.001
926	-0.001
926	-0.001
927	-0.002
927	-0.002
927	-0.003
928	-0.003
928	-0.003
929	-0.003
929	-0.003
930	-0.003
930	-0.003
930	-0.002
931	-0.002
931	-0.002
932	-0.001
932	-0.001
933	-0
933	-0
933	0
934	0.001
934	0.001
935	0.001
935	0.002
935	0.002
936	0.002
936	0.002
937	0.002
937	0.001
938	0.001
938	0.001
938	0
939	-0
939	-0.001
940	-0.002
940	-0.002
941	-0.003
941	-0.003
941	-0.003
942	-0.003
942	-0.003
943	-0.003
943	-0.003
944	-0.003
944	-0.003
944	-0.003
945	-0.003
945	-0.003
946	-0.003
946	-0.003
946	-0.004
947	-0.004
947	-0.005
948	-0.005
948	-0.006
949	-0.006
949	-0.006
949	-0.006
950	-0.006
950	-0.005
951	-0.005
951	-0.005
952	-0.005
952	-0.004
952	-0.004
953	-0.004
953	-0.004
954	-0.005
954	-0.005
955	-0.006
955	-0.006
955	-0.007
956	-0.007
956	-0.007
957	-0.008
957	-0.008
957	-0.009
958	-0.01
958	-0.01
959	-0.011
959	-0.011
960	-0.012
960	-0.013
960	-0.013
961	-0.014
961	-0.014
962	-0.015
962	-0.014
963	-0.014
963	-0.013
963	-0.012
964	-0.011
964	-0.01
965	-0.009
965	-0.007
966	-0.006
966	-0.005
966	-0.003
967	-0.002
967	-0.002
968	-0.001
968	-0.001
968	-0.001
969	-0.001
969	-0.001
970	-0.001
970	-0.002
971	-0.003
971	-0.003
971	-0.004
972	-0.004
972	-0.004
973	-0.004
973	-0.004
974	-0.004
974	-0.004
974	-0.004
975	-0.004
975	-0.004
976	-0.004
976	-0.004
976	-0.004
977	-0.005
977	-0.006
978	-0.007
978	-0.008
979	-0.009
979	-0.01
979	-0.011
980	-0.012
980	-0.013
981	-0.014
981	-0.015
982	-0.015
982	-0.015
982	-0.015
983	-0.015
983	-0.015
984	-0.014
984	-0.013
984	-0.013
985	-0.012
985	-0.011
986	-0.011
986	-0.011
987	-0.01
987	-0.01
987	-0.01
988	-0.009
988	-0.009
989	-0.009
989	-0.008
990	-0.008
990	-0.007
990	-0.006
991	-0.005
991	-0.004
992	-0.003
992	-0.002
992	-0.001
993	-0
993	0
994	0.001
994	0
995	0
995	0
995	0
996	-0
996	-0.001
997	-0.001
997	-0.001
997	-0.001
998	-0.001
998	-0.001
999	-0.001
999	-0.001
1000	-0
1000	0
1000	0.001
1001	0.001
1001	0.002
1002	0.003
1002	0.003
1003	0.003
1003	0.003
1003	0.003
1004	0.003
1004	0.003
1005	0.002
1005	0.002
1005	0.001
1006	0.001
1006	-0
1007	-0.001
1007	-0.002
1008	-0.002
1008	-0.002
1008	-0.003
1009	-0.002
1009	-0.002
1010	-0.003
1010	-0.003
1010	-0.003
1011	-0.003
1011	-0.003
1012	-0.003
1012	-0.003
1013	-0.004
1013	-0.004
1013	-0.005
1014	-0.005
1014	-0.006
1015	-0.006
1015	-0.007
1016	-0.007
1016	-0.008
1016	-0.008
1017	-0.009
1017	-0.009
1018	-0.009
1018	-0.01
1018	-0.01
1019	-0.01
1019	-0.01
1020	-0.011
1020	-0.011
1021	-0.011
1021	-0.011
1021	-0.011
1022	-0.011
1022	-0.011
1023	-0.011
1023	-0.01
1023	-0.01
1024	-0.01
1024	-0.01
1025	-0.01
1025	-0.01
1026	-0.01
1026	-0.01
1026	-0.01
1027	-0.01
1027	-0.01
1028	-0.01
1028	-0.01
1028	-0.009
1029	-0.009
1029	-0.009
1030	-0.009
1030	-0.009
1031	-0.009
1031	-0.008
1031	-0.008
1032	-0.009
1032	-0.009
1033	-0.009
1033	-0.009
1033	-0.01
1034	-0.011
1034	-0.012
1035	-0.014
1035	-0.015
1036	-0.016
1036	-0.017
1036	-0.017
1037	-0.018
1037	-0.018
1038	-0.019
1038	-0.018
1039	-0.018
1039	-0.017
1039	-0.016
1040	-0.016
1040	-0.015
1041	-0.015
1041	-0.015
1041	-0.015
1042	-0.016
1042	-0.016
1043	-0.017
1043	-0.018
1044	-0.019
1044	-0.019
1044	-0.02
1045	-0.021
1045	-0.021
1046	-0.022
1046	-0.022
1046	-0.021
1047	-0.021
1047	-0.02
1048	-0.019
1048	-0.019
1049	-0.018
1049	-0.018
1049	-0.018
1050	-0.018
1050	-0.018
1051	-0.018
1051	-0.018
1051	-0.018
1052	-0.018
1052	-0.018
1053	-0.018
1053	-0.019
1053	-0.019
1054	-0.019
1054	-0.018
1055	-0.018
1055	-0.018
1056	-0.019
1056	-0.02
1056	-0.021
1057	-0.021
1057	-0.022
1058	-0.022
1058	-0.023
1058	-0.023
1059	-0.024
1059	-0.025
1060	-0.026
1060	-0.025
1061	-0.025
1061	-0.025
1061	-0.025
1062	-0.025
1062	-0.025
1063	-0.025
1063	-0.025
1063	-0.025
1064	-0.025
1064	-0.025
1065	-0.025
1065	-0.025
1066	-0.025
1066	-0.025
1066	-0.025
1067	-0.025
1067	-0.025
1068	-0.025
1068	-0.025
1068	-0.026
1069	-0.026
1069	-0.027
1070	-0.028
1070	-0.029
1071	-0.029
1071	-0.029
1071	-0.03
1072	-0.03
1072	-0.03
1073	-0.03
1073	-0.031
1073	-0.031
1074	-0.031
1074	-0.03
1075	-0.031
1075	-0.031
1076	-0.032
1076	-0.032
1076	-0.033
1077	-0.033
1077	-0.033
1078	-0.033
1078	-0.033
1078	-0.032
1079	-0.031
1079	-0.029
1080	-0.029
1080	-0.027
1080	-0.026
1081	-0.025
1081	-0.023
1082	-0.022
1082	-0.022
1083	-0.021
1083	-0.02
1083	-0.02
1084	-0.02
1084	-0.018
1085	-0.018
1085	-0.017
1085	-0.016
1086	-0.015
1086	-0.015
1087	-0.014
1087	-0.014
1088	-0.014
1088	-0.014
1088	-0.014
1089	-0.015
1089	-0.015
1090	-0.015
1090	-0.015
1090	-0.015
1091	-0.015
1091	-0.015
1092	-0.014
1092	-0.012
1092	-0.011
1093	-0.009
1093	-0.007
1094	-0.005
1094	-0.004
1095	-0.003
1095	-0.001
1095	0.002
1096	0.004
1096	0.007
1097	0.008
1097	0.01
1097	0.011
1098	0.012
1098	0.014
1099	0.016
1099	0.018
1100	0.02
1100	0.023
1100	0.024
1101	0.026
1101	0.029
1102	0.032
1102	0.037
1102	0.042
1103	0.046
1103	0.051
1104	0.056
1104	0.063
1104	0.07
1105	0.077
1105	0.083
1106	0.088
1106	0.097
1107	0.103
1107	0.116
1107	0.13
1108	0.18
1108	0.25
1109	0.353
1109	0.538
1109	0.717
1110	1.371
1110	-0
1111	-0
1111	-0
