Data from 15c-2a_Absorbance__10__00010.txt Node

Date: Wed Jan 17 09:40:45 CET 2024
User: Marek
Spectrometer: MAYP115816
Trigger mode: 0
Integration Time (sec): 2.000000E-1
Scans to average: 10
Electric dark correction enabled: true
Nonlinearity correction enabled: true
Boxcar width: 5
XAxis mode: Wavelengths
Number of Pixels in Spectrum: 2068
>>>>>Begin Spectral Data<<<<<
199	-1.958
199	-1.809
200	-1.643
200	-1.515
201	-1.434
201	-1.383
202	-1.306
202	-1.245
203	-1.193
203	-1.146
204	-1.119
204	-1.095
205	-1.071
205	-1.06
205	-1.058
206	-1.056
206	-1.051
207	-1.049
207	-1.045
208	-1.042
208	-1.041
209	-1.035
209	-1.032
210	-1.031
210	-1.031
211	-1.029
211	-1.027
212	-1.027
212	-1.026
213	-1.025
213	-1.024
213	-1.022
214	-1.022
214	-1.021
215	-1.02
215	-1.018
216	-1.018
216	-1.015
217	-1.01
217	-1.008
218	-1.007
218	-1.003
219	-1.001
219	-1
220	-0.995
220	-0.991
221	-0.985
221	-0.981
221	-0.977
222	-0.974
222	-0.969
223	-0.963
223	-0.959
224	-0.953
224	-0.946
225	-0.939
225	-0.932
226	-0.922
226	-0.91
227	-0.897
227	-0.883
228	-0.867
228	-0.848
229	-0.827
229	-0.804
229	-0.777
230	-0.748
230	-0.718
231	-0.684
231	-0.649
232	-0.612
232	-0.572
233	-0.53
233	-0.488
234	-0.445
234	-0.403
235	-0.362
235	-0.321
236	-0.282
236	-0.245
236	-0.209
237	-0.176
237	-0.146
238	-0.117
238	-0.09
239	-0.066
239	-0.043
240	-0.022
240	-0.003
241	0.015
241	0.031
242	0.045
242	0.058
243	0.07
243	0.081
243	0.091
244	0.101
244	0.109
245	0.116
245	0.123
246	0.13
246	0.136
247	0.141
247	0.146
248	0.151
248	0.156
249	0.16
249	0.164
250	0.167
250	0.171
250	0.174
251	0.177
251	0.18
252	0.183
252	0.185
253	0.187
253	0.19
254	0.191
254	0.193
255	0.195
255	0.197
256	0.198
256	0.2
257	0.201
257	0.202
258	0.203
258	0.204
258	0.204
259	0.205
259	0.206
260	0.206
260	0.206
261	0.206
261	0.207
262	0.207
262	0.207
263	0.207
263	0.206
264	0.206
264	0.206
265	0.206
265	0.205
265	0.205
266	0.204
266	0.203
267	0.203
267	0.202
268	0.201
268	0.2
269	0.199
269	0.198
270	0.197
270	0.195
271	0.194
271	0.193
272	0.192
272	0.19
272	0.189
273	0.188
273	0.187
274	0.186
274	0.184
275	0.183
275	0.182
276	0.18
276	0.179
277	0.178
277	0.176
278	0.175
278	0.173
278	0.172
279	0.17
279	0.169
280	0.168
280	0.167
281	0.166
281	0.165
282	0.164
282	0.163
283	0.162
283	0.161
284	0.16
284	0.159
285	0.158
285	0.157
285	0.157
286	0.156
286	0.155
287	0.154
287	0.153
288	0.152
288	0.152
289	0.151
289	0.15
290	0.149
290	0.148
291	0.148
291	0.147
292	0.146
292	0.146
292	0.145
293	0.145
293	0.144
294	0.144
294	0.143
295	0.143
295	0.143
296	0.142
296	0.142
297	0.142
297	0.141
298	0.141
298	0.141
298	0.141
299	0.141
299	0.141
300	0.141
300	0.14
301	0.14
301	0.14
302	0.14
302	0.14
303	0.139
303	0.139
304	0.139
304	0.139
305	0.139
305	0.139
305	0.139
306	0.139
306	0.139
307	0.138
307	0.138
308	0.138
308	0.138
309	0.138
309	0.137
310	0.137
310	0.137
311	0.137
311	0.137
311	0.136
312	0.136
312	0.136
313	0.136
313	0.135
314	0.135
314	0.135
315	0.135
315	0.134
316	0.134
316	0.134
317	0.133
317	0.133
318	0.133
318	0.133
318	0.132
319	0.132
319	0.132
320	0.131
320	0.131
321	0.131
321	0.13
322	0.13
322	0.13
323	0.129
323	0.129
324	0.129
324	0.128
324	0.128
325	0.128
325	0.127
326	0.127
326	0.127
327	0.126
327	0.126
328	0.126
328	0.125
329	0.125
329	0.125
330	0.125
330	0.124
330	0.124
331	0.123
331	0.123
332	0.123
332	0.122
333	0.122
333	0.122
334	0.121
334	0.121
335	0.12
335	0.12
336	0.12
336	0.12
336	0.119
337	0.119
337	0.118
338	0.118
338	0.118
339	0.117
339	0.117
340	0.117
340	0.116
341	0.116
341	0.116
342	0.116
342	0.115
342	0.115
343	0.115
343	0.115
344	0.115
344	0.114
345	0.114
345	0.114
346	0.113
346	0.113
347	0.113
347	0.112
348	0.112
348	0.111
348	0.111
349	0.11
349	0.11
350	0.109
350	0.109
351	0.108
351	0.108
352	0.108
352	0.107
353	0.107
353	0.107
354	0.106
354	0.106
354	0.105
355	0.105
355	0.104
356	0.104
356	0.104
357	0.103
357	0.103
358	0.103
358	0.103
359	0.103
359	0.104
360	0.104
360	0.104
360	0.104
361	0.105
361	0.105
362	0.105
362	0.105
363	0.105
363	0.105
364	0.105
364	0.104
365	0.104
365	0.104
366	0.104
366	0.104
366	0.104
367	0.103
367	0.103
368	0.103
368	0.103
369	0.103
369	0.103
370	0.103
370	0.103
371	0.102
371	0.102
372	0.102
372	0.102
372	0.101
373	0.101
373	0.101
374	0.101
374	0.101
375	0.101
375	0.101
376	0.101
376	0.101
377	0.101
377	0.101
378	0.101
378	0.101
378	0.102
379	0.102
379	0.102
380	0.102
380	0.102
381	0.102
381	0.102
382	0.102
382	0.102
383	0.102
383	0.101
383	0.101
384	0.101
384	0.101
385	0.101
385	0.101
386	0.101
386	0.101
387	0.101
387	0.101
388	0.101
388	0.101
389	0.101
389	0.101
389	0.101
390	0.101
390	0.101
391	0.101
391	0.102
392	0.102
392	0.102
393	0.102
393	0.102
394	0.102
394	0.101
394	0.101
395	0.101
395	0.101
396	0.101
396	0.101
397	0.101
397	0.101
398	0.102
398	0.102
399	0.102
399	0.102
400	0.102
400	0.101
400	0.101
401	0.101
401	0.1
402	0.1
402	0.099
403	0.099
403	0.099
404	0.099
404	0.099
405	0.099
405	0.098
405	0.098
406	0.098
406	0.098
407	0.098
407	0.098
408	0.097
408	0.097
409	0.097
409	0.097
410	0.097
410	0.097
411	0.097
411	0.097
411	0.097
412	0.097
412	0.097
413	0.097
413	0.096
414	0.096
414	0.096
415	0.096
415	0.095
416	0.095
416	0.095
416	0.094
417	0.094
417	0.094
418	0.094
418	0.094
419	0.094
419	0.095
420	0.095
420	0.096
421	0.096
421	0.096
421	0.097
422	0.097
422	0.097
423	0.097
423	0.097
424	0.097
424	0.097
425	0.096
425	0.096
426	0.095
426	0.095
427	0.095
427	0.094
427	0.094
428	0.095
428	0.095
429	0.095
429	0.096
430	0.096
430	0.096
431	0.096
431	0.096
432	0.095
432	0.095
432	0.095
433	0.094
433	0.093
434	0.093
434	0.092
435	0.093
435	0.093
436	0.093
436	0.093
437	0.093
437	0.093
437	0.093
438	0.093
438	0.093
439	0.093
439	0.092
440	0.092
440	0.092
441	0.092
441	0.092
442	0.091
442	0.091
442	0.091
443	0.091
443	0.091
444	0.091
444	0.091
445	0.092
445	0.092
446	0.092
446	0.092
447	0.092
447	0.092
447	0.092
448	0.092
448	0.092
449	0.091
449	0.091
450	0.091
450	0.091
451	0.091
451	0.09
452	0.09
452	0.089
452	0.089
453	0.089
453	0.089
454	0.088
454	0.088
455	0.088
455	0.088
456	0.087
456	0.087
457	0.087
457	0.087
458	0.087
458	0.086
458	0.086
459	0.086
459	0.086
460	0.086
460	0.085
461	0.085
461	0.085
462	0.084
462	0.084
463	0.084
463	0.085
463	0.085
464	0.085
464	0.085
465	0.085
465	0.085
466	0.085
466	0.085
467	0.085
467	0.085
467	0.084
468	0.084
468	0.083
469	0.082
469	0.081
470	0.08
470	0.079
471	0.079
471	0.079
472	0.079
472	0.078
472	0.079
473	0.079
473	0.079
474	0.08
474	0.08
475	0.081
475	0.081
476	0.081
476	0.081
477	0.081
477	0.081
477	0.081
478	0.081
478	0.08
479	0.08
479	0.08
480	0.08
480	0.08
481	0.08
481	0.08
482	0.081
482	0.081
482	0.082
483	0.083
483	0.084
484	0.086
484	0.087
485	0.088
485	0.088
486	0.089
486	0.09
487	0.09
487	0.09
487	0.09
488	0.089
488	0.089
489	0.088
489	0.087
490	0.086
490	0.085
491	0.084
491	0.084
492	0.084
492	0.084
492	0.084
493	0.084
493	0.084
494	0.084
494	0.085
495	0.085
495	0.086
496	0.086
496	0.087
496	0.087
497	0.088
497	0.088
498	0.089
498	0.089
499	0.089
499	0.089
500	0.089
500	0.089
501	0.09
501	0.09
501	0.091
502	0.091
502	0.092
503	0.092
503	0.093
504	0.093
504	0.093
505	0.093
505	0.093
506	0.093
506	0.093
506	0.093
507	0.093
507	0.093
508	0.092
508	0.093
509	0.093
509	0.093
510	0.093
510	0.094
511	0.094
511	0.094
511	0.094
512	0.094
512	0.094
513	0.093
513	0.092
514	0.092
514	0.091
515	0.091
515	0.091
515	0.091
516	0.09
516	0.09
517	0.089
517	0.089
518	0.09
518	0.09
519	0.09
519	0.09
520	0.089
520	0.088
520	0.087
521	0.087
521	0.085
522	0.084
522	0.083
523	0.081
523	0.08
524	0.079
524	0.078
524	0.077
525	0.077
525	0.077
526	0.078
526	0.079
527	0.081
527	0.082
528	0.084
528	0.085
529	0.087
529	0.088
529	0.089
530	0.09
530	0.09
531	0.091
531	0.092
532	0.092
532	0.092
533	0.093
533	0.094
533	0.093
534	0.094
534	0.094
535	0.094
535	0.094
536	0.094
536	0.094
537	0.094
537	0.094
538	0.094
538	0.094
538	0.093
539	0.093
539	0.093
540	0.093
540	0.093
541	0.093
541	0.093
542	0.092
542	0.092
542	0.092
543	0.092
543	0.091
544	0.091
544	0.091
545	0.091
545	0.091
546	0.091
546	0.092
547	0.092
547	0.092
547	0.091
548	0.091
548	0.09
549	0.09
549	0.09
550	0.089
550	0.088
551	0.088
551	0.087
551	0.087
552	0.087
552	0.087
553	0.088
553	0.088
554	0.089
554	0.089
555	0.088
555	0.088
556	0.087
556	0.086
556	0.086
557	0.085
557	0.083
558	0.083
558	0.082
559	0.081
559	0.081
560	0.082
560	0.082
560	0.082
561	0.083
561	0.084
562	0.084
562	0.085
563	0.085
563	0.084
564	0.084
564	0.083
564	0.082
565	0.082
565	0.082
566	0.081
566	0.081
567	0.081
567	0.082
568	0.083
568	0.085
568	0.086
569	0.088
569	0.09
570	0.092
570	0.093
571	0.094
571	0.095
572	0.096
572	0.097
573	0.097
573	0.098
573	0.098
574	0.098
574	0.098
575	0.098
575	0.099
576	0.1
576	0.101
577	0.101
577	0.101
577	0.101
578	0.101
578	0.101
579	0.101
579	0.102
580	0.103
580	0.103
581	0.102
581	0.101
581	0.1
582	0.099
582	0.099
583	0.099
583	0.1
584	0.099
584	0.098
585	0.096
585	0.095
585	0.095
586	0.095
586	0.095
587	0.095
587	0.094
588	0.092
588	0.091
589	0.09
589	0.089
590	0.089
590	0.088
590	0.088
591	0.089
591	0.089
592	0.089
592	0.089
593	0.089
593	0.089
594	0.089
594	0.089
594	0.088
595	0.088
595	0.087
596	0.086
596	0.086
597	0.086
597	0.087
598	0.088
598	0.089
598	0.09
599	0.09
599	0.091
600	0.091
600	0.09
601	0.089
601	0.089
602	0.088
602	0.088
602	0.087
603	0.087
603	0.087
604	0.088
604	0.089
605	0.09
605	0.091
606	0.093
606	0.093
606	0.093
607	0.092
607	0.091
608	0.09
608	0.089
609	0.088
609	0.087
610	0.086
610	0.085
610	0.084
611	0.084
611	0.085
612	0.085
612	0.087
613	0.088
613	0.089
614	0.089
614	0.089
614	0.088
615	0.088
615	0.087
616	0.086
616	0.085
617	0.084
617	0.083
618	0.082
618	0.08
618	0.08
619	0.079
619	0.079
620	0.08
620	0.081
621	0.081
621	0.081
622	0.081
622	0.081
622	0.081
623	0.081
623	0.081
624	0.08
624	0.08
625	0.08
625	0.079
626	0.079
626	0.079
626	0.079
627	0.079
627	0.079
628	0.08
628	0.08
629	0.081
629	0.081
630	0.08
630	0.079
630	0.079
631	0.079
631	0.078
632	0.078
632	0.078
633	0.078
633	0.078
634	0.078
634	0.079
634	0.08
635	0.081
635	0.082
636	0.083
636	0.083
637	0.084
637	0.084
638	0.084
638	0.084
638	0.084
639	0.084
639	0.084
640	0.084
640	0.084
641	0.084
641	0.084
642	0.085
642	0.086
642	0.086
643	0.087
643	0.088
644	0.088
644	0.089
645	0.09
645	0.09
646	0.091
646	0.093
646	0.094
647	0.096
647	0.098
648	0.1
648	0.101
649	0.103
649	0.104
650	0.106
650	0.108
650	0.109
651	0.11
651	0.111
652	0.112
652	0.113
653	0.114
653	0.118
653	0.118
654	0.096
654	0.079
655	0.084
655	0.085
656	0.086
656	0.087
657	0.088
657	0.089
657	0.089
658	0.088
658	0.086
659	0.107
659	0.135
660	0.133
660	0.134
661	0.135
661	0.136
661	0.137
662	0.139
662	0.142
663	0.144
663	0.147
664	0.149
664	0.15
665	0.152
665	0.153
665	0.154
666	0.155
666	0.156
667	0.157
667	0.157
668	0.158
668	0.16
669	0.161
669	0.163
669	0.165
670	0.168
670	0.17
671	0.171
671	0.173
672	0.174
672	0.176
672	0.177
673	0.178
673	0.178
674	0.179
674	0.179
675	0.179
675	0.179
676	0.18
676	0.182
676	0.182
677	0.183
677	0.184
678	0.185
678	0.186
679	0.187
679	0.187
680	0.189
680	0.19
680	0.19
681	0.19
681	0.191
682	0.192
682	0.193
683	0.194
683	0.195
684	0.197
684	0.198
684	0.199
685	0.2
685	0.201
686	0.202
686	0.203
687	0.203
687	0.203
687	0.204
688	0.203
688	0.203
689	0.203
689	0.204
690	0.204
690	0.204
691	0.203
691	0.203
691	0.203
692	0.202
692	0.201
693	0.201
693	0.201
694	0.2
694	0.199
695	0.199
695	0.2
695	0.201
696	0.201
696	0.201
697	0.201
697	0.201
698	0.201
698	0.2
698	0.2
699	0.199
699	0.198
700	0.196
700	0.195
701	0.194
701	0.193
702	0.193
702	0.192
702	0.191
703	0.19
703	0.189
704	0.189
704	0.188
705	0.188
705	0.187
705	0.187
706	0.186
706	0.186
707	0.185
707	0.185
708	0.184
708	0.183
709	0.183
709	0.182
709	0.181
710	0.18
710	0.178
711	0.177
711	0.176
712	0.175
712	0.174
713	0.173
713	0.172
713	0.17
714	0.169
714	0.168
715	0.166
715	0.165
716	0.164
716	0.163
716	0.162
717	0.161
717	0.161
718	0.16
718	0.158
719	0.158
719	0.157
720	0.157
720	0.156
720	0.155
721	0.153
721	0.152
722	0.151
722	0.149
723	0.148
723	0.147
723	0.145
724	0.144
724	0.143
725	0.142
725	0.14
726	0.139
726	0.138
727	0.138
727	0.137
727	0.136
728	0.135
728	0.134
729	0.134
729	0.134
730	0.133
730	0.132
730	0.132
731	0.131
731	0.13
732	0.129
732	0.128
733	0.127
733	0.125
734	0.124
734	0.122
734	0.12
735	0.119
735	0.117
736	0.116
736	0.114
737	0.113
737	0.112
737	0.112
738	0.111
738	0.11
739	0.108
739	0.107
740	0.105
740	0.104
741	0.102
741	0.101
741	0.099
742	0.096
742	0.093
743	0.091
743	0.09
744	0.089
744	0.088
744	0.087
745	0.086
745	0.084
746	0.084
746	0.084
747	0.084
747	0.084
748	0.085
748	0.085
748	0.085
749	0.085
749	0.085
750	0.085
750	0.085
751	0.085
751	0.085
751	0.085
752	0.085
752	0.084
753	0.083
753	0.082
754	0.082
754	0.081
754	0.081
755	0.081
755	0.081
756	0.081
756	0.08
757	0.079
757	0.079
758	0.078
758	0.077
758	0.076
759	0.075
759	0.073
760	0.071
760	0.068
761	0.065
761	0.063
761	0.061
762	0.059
762	0.058
763	0.057
763	0.056
764	0.054
764	0.052
764	0.05
765	0.048
765	0.047
766	0.046
766	0.046
767	0.045
767	0.044
768	0.041
768	0.039
768	0.038
769	0.037
769	0.036
770	0.035
770	0.033
771	0.031
771	0.027
771	0.024
772	0.02
772	0.016
773	0.013
773	0.008
774	0.004
774	-0.001
775	-0.006
775	-0.01
775	-0.016
776	-0.021
776	-0.027
777	-0.032
777	-0.037
778	-0.042
778	-0.047
778	-0.052
779	-0.056
779	-0.061
780	-0.066
780	-0.074
781	-0.081
781	-0.09
781	-0.099
782	-0.108
782	-0.118
783	-0.128
783	-0.135
784	-0.142
784	-0.148
784	-0.153
785	-0.157
785	-0.161
786	-0.162
786	-0.158
787	-0.153
787	-0.149
788	-0.147
788	-0.148
788	-0.149
789	-0.152
789	-0.151
790	-0.148
790	-0.147
791	-0.147
791	-0.149
791	-0.152
792	-0.146
792	-0.136
793	-0.13
793	-0.126
794	-0.124
794	-0.126
794	-0.13
795	-0.133
795	-0.133
796	-0.134
796	-0.137
797	-0.146
797	-0.157
797	-0.163
798	-0.168
798	-0.171
799	-0.172
799	-0.171
800	-0.17
800	-0.172
801	-0.174
801	-0.175
801	-0.175
802	-0.177
802	-0.178
803	-0.179
803	-0.179
804	-0.178
804	-0.173
804	-0.167
805	-0.163
805	-0.161
806	-0.159
806	-0.158
807	-0.157
807	-0.156
807	-0.156
808	-0.156
808	-0.157
809	-0.162
809	-0.168
810	-0.172
810	-0.175
810	-0.178
811	-0.181
811	-0.182
812	-0.178
812	-0.175
813	-0.175
813	-0.175
813	-0.176
814	-0.176
814	-0.176
815	-0.172
815	-0.169
816	-0.166
816	-0.166
817	-0.169
817	-0.171
817	-0.169
818	-0.165
818	-0.159
819	-0.152
819	-0.145
820	-0.14
820	-0.135
820	-0.128
821	-0.118
821	-0.107
822	-0.096
822	-0.086
823	-0.077
823	-0.07
823	-0.063
824	-0.055
824	-0.046
825	-0.038
825	-0.03
826	-0.022
826	-0.016
826	-0.011
827	-0.006
827	-0.001
828	0.004
828	0.008
829	0.012
829	0.015
829	0.017
830	0.019
830	0.021
831	0.024
831	0.027
832	0.029
832	0.031
832	0.034
833	0.036
833	0.038
834	0.04
834	0.042
835	0.043
835	0.045
835	0.046
836	0.047
836	0.047
837	0.047
837	0.047
838	0.047
838	0.048
839	0.048
839	0.048
839	0.047
840	0.047
840	0.047
841	0.046
841	0.046
842	0.047
842	0.047
842	0.048
843	0.048
843	0.048
844	0.049
844	0.05
845	0.052
845	0.054
845	0.055
846	0.057
846	0.058
847	0.059
847	0.06
848	0.06
848	0.061
848	0.061
849	0.061
849	0.06
850	0.06
850	0.06
851	0.06
851	0.06
851	0.061
852	0.061
852	0.062
853	0.063
853	0.063
854	0.064
854	0.065
854	0.065
855	0.065
855	0.065
856	0.066
856	0.066
857	0.066
857	0.066
857	0.065
858	0.065
858	0.065
859	0.064
859	0.064
860	0.064
860	0.063
860	0.063
861	0.063
861	0.063
862	0.063
862	0.063
863	0.063
863	0.064
863	0.064
864	0.064
864	0.065
865	0.066
865	0.066
866	0.067
866	0.067
866	0.068
867	0.068
867	0.069
868	0.07
868	0.07
869	0.071
869	0.072
869	0.072
870	0.073
870	0.073
871	0.073
871	0.074
872	0.074
872	0.074
872	0.073
873	0.073
873	0.073
874	0.072
874	0.072
875	0.072
875	0.072
875	0.072
876	0.072
876	0.071
877	0.071
877	0.072
878	0.072
878	0.072
878	0.073
879	0.073
879	0.073
880	0.073
880	0.073
881	0.073
881	0.073
881	0.073
882	0.072
882	0.071
883	0.07
883	0.07
884	0.069
884	0.069
884	0.068
885	0.069
885	0.069
886	0.069
886	0.07
887	0.07
887	0.071
887	0.072
888	0.072
888	0.073
889	0.073
889	0.073
890	0.073
890	0.073
890	0.072
891	0.071
891	0.071
892	0.07
892	0.069
893	0.069
893	0.068
893	0.068
894	0.068
894	0.068
895	0.068
895	0.068
895	0.069
896	0.069
896	0.069
897	0.069
897	0.07
898	0.07
898	0.07
898	0.07
899	0.069
899	0.069
900	0.069
900	0.07
901	0.07
901	0.07
901	0.07
902	0.071
902	0.071
903	0.071
903	0.071
904	0.071
904	0.071
904	0.071
905	0.071
905	0.071
906	0.07
906	0.07
907	0.07
907	0.07
907	0.07
908	0.07
908	0.07
909	0.07
909	0.07
910	0.07
910	0.07
910	0.07
911	0.07
911	0.071
912	0.071
912	0.072
913	0.072
913	0.072
913	0.072
914	0.073
914	0.072
915	0.072
915	0.072
916	0.072
916	0.072
916	0.072
917	0.072
917	0.072
918	0.072
918	0.072
918	0.071
919	0.071
919	0.07
920	0.07
920	0.07
921	0.069
921	0.068
921	0.068
922	0.068
922	0.068
923	0.068
923	0.068
924	0.069
924	0.069
924	0.07
925	0.07
925	0.07
926	0.07
926	0.07
927	0.07
927	0.07
927	0.07
928	0.069
928	0.069
929	0.068
929	0.068
930	0.067
930	0.067
930	0.066
931	0.066
931	0.066
932	0.066
932	0.066
933	0.066
933	0.066
933	0.066
934	0.067
934	0.068
935	0.068
935	0.069
935	0.069
936	0.07
936	0.07
937	0.07
937	0.07
938	0.07
938	0.07
938	0.07
939	0.07
939	0.07
940	0.07
940	0.07
941	0.071
941	0.071
941	0.071
942	0.072
942	0.072
943	0.073
943	0.073
944	0.073
944	0.073
944	0.073
945	0.073
945	0.073
946	0.073
946	0.073
946	0.073
947	0.073
947	0.073
948	0.072
948	0.072
949	0.072
949	0.072
949	0.072
950	0.072
950	0.072
951	0.072
951	0.072
952	0.072
952	0.072
952	0.073
953	0.073
953	0.073
954	0.072
954	0.073
955	0.072
955	0.072
955	0.072
956	0.072
956	0.072
957	0.072
957	0.072
957	0.072
958	0.072
958	0.072
959	0.071
959	0.071
960	0.071
960	0.071
960	0.07
961	0.069
961	0.069
962	0.069
962	0.068
963	0.067
963	0.067
963	0.067
964	0.067
964	0.067
965	0.067
965	0.067
966	0.067
966	0.067
966	0.067
967	0.067
967	0.067
968	0.067
968	0.067
968	0.067
969	0.066
969	0.066
970	0.066
970	0.066
971	0.066
971	0.066
971	0.066
972	0.066
972	0.067
973	0.067
973	0.067
974	0.067
974	0.068
974	0.068
975	0.068
975	0.068
976	0.069
976	0.069
976	0.069
977	0.068
977	0.068
978	0.068
978	0.068
979	0.068
979	0.068
979	0.068
980	0.068
980	0.068
981	0.068
981	0.068
982	0.068
982	0.068
982	0.067
983	0.067
983	0.066
984	0.066
984	0.066
984	0.066
985	0.066
985	0.065
986	0.065
986	0.064
987	0.064
987	0.065
987	0.065
988	0.065
988	0.065
989	0.065
989	0.064
990	0.064
990	0.065
990	0.065
991	0.065
991	0.066
992	0.066
992	0.067
992	0.067
993	0.068
993	0.068
994	0.069
994	0.069
995	0.07
995	0.07
995	0.07
996	0.07
996	0.07
997	0.07
997	0.07
997	0.07
998	0.07
998	0.07
999	0.07
999	0.07
1000	0.069
1000	0.07
1000	0.07
1001	0.07
1001	0.07
1002	0.07
1002	0.07
1003	0.07
1003	0.07
1003	0.07
1004	0.07
1004	0.07
1005	0.07
1005	0.069
1005	0.069
1006	0.069
1006	0.068
1007	0.068
1007	0.067
1008	0.067
1008	0.067
1008	0.067
1009	0.067
1009	0.067
1010	0.067
1010	0.067
1010	0.067
1011	0.067
1011	0.067
1012	0.067
1012	0.067
1013	0.066
1013	0.066
1013	0.066
1014	0.066
1014	0.066
1015	0.066
1015	0.067
1016	0.067
1016	0.068
1016	0.068
1017	0.068
1017	0.069
1018	0.069
1018	0.069
1018	0.07
1019	0.07
1019	0.07
1020	0.07
1020	0.071
1021	0.071
1021	0.071
1021	0.071
1022	0.071
1022	0.072
1023	0.072
1023	0.072
1023	0.072
1024	0.073
1024	0.072
1025	0.072
1025	0.072
1026	0.072
1026	0.071
1026	0.071
1027	0.071
1027	0.071
1028	0.071
1028	0.071
1028	0.071
1029	0.071
1029	0.071
1030	0.072
1030	0.072
1031	0.073
1031	0.073
1031	0.074
1032	0.074
1032	0.074
1033	0.074
1033	0.074
1033	0.074
1034	0.074
1034	0.073
1035	0.073
1035	0.073
1036	0.073
1036	0.073
1036	0.074
1037	0.074
1037	0.074
1038	0.074
1038	0.074
1039	0.074
1039	0.075
1039	0.075
1040	0.075
1040	0.075
1041	0.075
1041	0.075
1041	0.075
1042	0.075
1042	0.075
1043	0.075
1043	0.075
1044	0.076
1044	0.076
1044	0.076
1045	0.077
1045	0.077
1046	0.078
1046	0.079
1046	0.079
1047	0.079
1047	0.08
1048	0.08
1048	0.08
1049	0.081
1049	0.081
1049	0.08
1050	0.08
1050	0.081
1051	0.081
1051	0.081
1051	0.081
1052	0.081
1052	0.081
1053	0.081
1053	0.082
1053	0.082
1054	0.083
1054	0.083
1055	0.084
1055	0.084
1056	0.084
1056	0.085
1056	0.086
1057	0.086
1057	0.088
1058	0.089
1058	0.089
1058	0.09
1059	0.091
1059	0.092
1060	0.093
1060	0.095
1061	0.096
1061	0.097
1061	0.098
1062	0.098
1062	0.099
1063	0.1
1063	0.101
1063	0.102
1064	0.102
1064	0.103
1065	0.104
1065	0.105
1066	0.106
1066	0.107
1066	0.108
1067	0.109
1067	0.11
1068	0.11
1068	0.111
1068	0.111
1069	0.112
1069	0.113
1070	0.113
1070	0.114
1071	0.115
1071	0.116
1071	0.116
1072	0.117
1072	0.118
1073	0.119
1073	0.12
1073	0.12
1074	0.121
1074	0.122
1075	0.123
1075	0.124
1076	0.125
1076	0.126
1076	0.127
1077	0.129
1077	0.13
1078	0.132
1078	0.135
1078	0.137
1079	0.139
1079	0.141
1080	0.143
1080	0.144
1080	0.146
1081	0.148
1081	0.151
1082	0.152
1082	0.154
1083	0.157
1083	0.16
1083	0.163
1084	0.165
1084	0.168
1085	0.173
1085	0.176
1085	0.18
1086	0.183
1086	0.186
1087	0.19
1087	0.193
1088	0.196
1088	0.2
1088	0.204
1089	0.208
1089	0.212
1090	0.217
1090	0.222
1090	0.229
1091	0.234
1091	0.241
1092	0.248
1092	0.255
1092	0.263
1093	0.271
1093	0.28
1094	0.288
1094	0.298
1095	0.31
1095	0.322
1095	0.336
1096	0.35
1096	0.365
1097	0.382
1097	0.402
1097	0.422
1098	0.445
1098	0.47
1099	0.497
1099	0.528
1100	0.562
1100	0.601
1100	0.651
1101	0.712
1101	0.786
1102	0.879
1102	1.006
1102	1.192
1103	1.56
1103	-0
1104	-0
1104	-0
1104	-0
1105	-0
1105	-0
1106	-0
1106	-0
1107	-0
1107	-0
1107	-0
1108	-0
1108	-0
1109	-0
1109	-0
1109	-0
1110	-0
1110	-0
1111	-0
1111	-0
