Data from 15c-2a_Absorbance__283__00283.txt Node

Date: Wed Jan 17 09:49:51 CET 2024
User: Marek
Spectrometer: MAYP115816
Trigger mode: 0
Integration Time (sec): 2.000000E-1
Scans to average: 10
Electric dark correction enabled: true
Nonlinearity correction enabled: true
Boxcar width: 5
XAxis mode: Wavelengths
Number of Pixels in Spectrum: 2068
>>>>>Begin Spectral Data<<<<<
199	-1.625
199	-1.48
200	-1.318
200	-1.193
201	-1.116
201	-1.067
202	-0.993
202	-0.938
203	-0.889
203	-0.846
204	-0.821
204	-0.799
205	-0.776
205	-0.767
205	-0.765
206	-0.764
206	-0.759
207	-0.758
207	-0.754
208	-0.752
208	-0.751
209	-0.746
209	-0.742
210	-0.741
210	-0.741
211	-0.739
211	-0.738
212	-0.738
212	-0.737
213	-0.736
213	-0.735
213	-0.733
214	-0.732
214	-0.732
215	-0.731
215	-0.729
216	-0.729
216	-0.727
217	-0.722
217	-0.72
218	-0.719
218	-0.715
219	-0.713
219	-0.712
220	-0.709
220	-0.705
221	-0.7
221	-0.695
221	-0.691
222	-0.688
222	-0.683
223	-0.677
223	-0.674
224	-0.668
224	-0.661
225	-0.653
225	-0.646
226	-0.636
226	-0.625
227	-0.612
227	-0.598
228	-0.583
228	-0.566
229	-0.546
229	-0.523
229	-0.497
230	-0.469
230	-0.44
231	-0.408
231	-0.374
232	-0.339
232	-0.301
233	-0.26
233	-0.219
234	-0.179
234	-0.14
235	-0.103
235	-0.066
236	-0.03
236	0.003
236	0.035
237	0.065
237	0.092
238	0.116
238	0.138
239	0.16
239	0.178
240	0.196
240	0.211
241	0.225
241	0.238
242	0.25
242	0.261
243	0.27
243	0.279
243	0.287
244	0.295
244	0.301
245	0.307
245	0.313
246	0.318
246	0.323
247	0.327
247	0.331
248	0.335
248	0.339
249	0.343
249	0.345
250	0.348
250	0.351
250	0.354
251	0.356
251	0.358
252	0.36
252	0.362
253	0.364
253	0.365
254	0.367
254	0.369
255	0.37
255	0.372
256	0.373
256	0.374
257	0.375
257	0.375
258	0.376
258	0.376
258	0.376
259	0.377
259	0.376
260	0.376
260	0.376
261	0.376
261	0.376
262	0.375
262	0.374
263	0.374
263	0.373
264	0.372
264	0.372
265	0.371
265	0.37
265	0.368
266	0.367
266	0.366
267	0.365
267	0.364
268	0.362
268	0.361
269	0.359
269	0.357
270	0.356
270	0.354
271	0.352
271	0.35
272	0.348
272	0.346
272	0.344
273	0.342
273	0.34
274	0.339
274	0.336
275	0.334
275	0.332
276	0.33
276	0.328
277	0.326
277	0.324
278	0.321
278	0.319
278	0.317
279	0.315
279	0.313
280	0.31
280	0.308
281	0.306
281	0.304
282	0.302
282	0.3
283	0.299
283	0.297
284	0.295
284	0.294
285	0.292
285	0.29
285	0.288
286	0.287
286	0.285
287	0.283
287	0.282
288	0.28
288	0.279
289	0.277
289	0.275
290	0.274
290	0.272
291	0.271
291	0.27
292	0.269
292	0.267
292	0.266
293	0.265
293	0.264
294	0.263
294	0.262
295	0.261
295	0.26
296	0.259
296	0.258
297	0.258
297	0.257
298	0.256
298	0.255
298	0.254
299	0.254
299	0.253
300	0.253
300	0.252
301	0.251
301	0.25
302	0.249
302	0.249
303	0.248
303	0.248
304	0.247
304	0.246
305	0.245
305	0.245
305	0.244
306	0.243
306	0.243
307	0.242
307	0.242
308	0.241
308	0.241
309	0.24
309	0.239
310	0.239
310	0.238
311	0.237
311	0.237
311	0.236
312	0.235
312	0.235
313	0.234
313	0.233
314	0.232
314	0.232
315	0.231
315	0.231
316	0.23
316	0.229
317	0.228
317	0.228
318	0.227
318	0.226
318	0.226
319	0.225
319	0.224
320	0.224
320	0.223
321	0.223
321	0.222
322	0.221
322	0.221
323	0.22
323	0.219
324	0.219
324	0.218
324	0.217
325	0.217
325	0.216
326	0.215
326	0.214
327	0.214
327	0.213
328	0.212
328	0.212
329	0.211
329	0.21
330	0.21
330	0.209
330	0.209
331	0.208
331	0.207
332	0.207
332	0.206
333	0.205
333	0.204
334	0.204
334	0.203
335	0.202
335	0.202
336	0.201
336	0.201
336	0.2
337	0.199
337	0.199
338	0.199
338	0.198
339	0.198
339	0.197
340	0.197
340	0.196
341	0.196
341	0.195
342	0.195
342	0.195
342	0.194
343	0.194
343	0.193
344	0.193
344	0.192
345	0.192
345	0.191
346	0.191
346	0.191
347	0.19
347	0.19
348	0.189
348	0.189
348	0.189
349	0.188
349	0.187
350	0.187
350	0.187
351	0.186
351	0.186
352	0.186
352	0.185
353	0.185
353	0.185
354	0.184
354	0.184
354	0.183
355	0.183
355	0.183
356	0.182
356	0.182
357	0.181
357	0.181
358	0.181
358	0.181
359	0.18
359	0.18
360	0.18
360	0.18
360	0.181
361	0.18
361	0.181
362	0.181
362	0.181
363	0.181
363	0.18
364	0.18
364	0.18
365	0.18
365	0.179
366	0.179
366	0.179
366	0.179
367	0.179
367	0.179
368	0.178
368	0.178
369	0.178
369	0.178
370	0.177
370	0.177
371	0.177
371	0.177
372	0.177
372	0.177
372	0.176
373	0.176
373	0.176
374	0.176
374	0.176
375	0.176
375	0.175
376	0.175
376	0.175
377	0.175
377	0.175
378	0.175
378	0.175
378	0.175
379	0.175
379	0.175
380	0.174
380	0.174
381	0.174
381	0.174
382	0.174
382	0.174
383	0.174
383	0.173
383	0.173
384	0.172
384	0.172
385	0.172
385	0.172
386	0.172
386	0.172
387	0.172
387	0.172
388	0.172
388	0.171
389	0.171
389	0.171
389	0.171
390	0.171
390	0.171
391	0.171
391	0.171
392	0.171
392	0.17
393	0.17
393	0.17
394	0.17
394	0.17
394	0.17
395	0.169
395	0.169
396	0.169
396	0.169
397	0.169
397	0.169
398	0.169
398	0.169
399	0.169
399	0.169
400	0.168
400	0.168
400	0.168
401	0.167
401	0.167
402	0.166
402	0.166
403	0.166
403	0.165
404	0.165
404	0.165
405	0.165
405	0.165
405	0.164
406	0.164
406	0.164
407	0.164
407	0.163
408	0.163
408	0.163
409	0.162
409	0.162
410	0.162
410	0.162
411	0.162
411	0.162
411	0.162
412	0.162
412	0.162
413	0.162
413	0.162
414	0.162
414	0.162
415	0.161
415	0.161
416	0.161
416	0.161
416	0.16
417	0.16
417	0.16
418	0.16
418	0.16
419	0.16
419	0.16
420	0.16
420	0.161
421	0.161
421	0.162
421	0.162
422	0.162
422	0.162
423	0.162
423	0.162
424	0.162
424	0.162
425	0.161
425	0.161
426	0.161
426	0.16
427	0.16
427	0.16
427	0.16
428	0.16
428	0.16
429	0.16
429	0.16
430	0.16
430	0.16
431	0.16
431	0.16
432	0.159
432	0.159
432	0.159
433	0.158
433	0.158
434	0.157
434	0.157
435	0.157
435	0.157
436	0.157
436	0.157
437	0.157
437	0.157
437	0.157
438	0.158
438	0.158
439	0.157
439	0.157
440	0.157
440	0.156
441	0.156
441	0.156
442	0.156
442	0.156
442	0.156
443	0.156
443	0.156
444	0.156
444	0.157
445	0.157
445	0.157
446	0.157
446	0.157
447	0.157
447	0.157
447	0.157
448	0.157
448	0.157
449	0.157
449	0.157
450	0.157
450	0.157
451	0.157
451	0.157
452	0.157
452	0.157
452	0.157
453	0.157
453	0.157
454	0.157
454	0.157
455	0.157
455	0.157
456	0.157
456	0.157
457	0.156
457	0.156
458	0.156
458	0.156
458	0.156
459	0.156
459	0.156
460	0.156
460	0.156
461	0.155
461	0.155
462	0.155
462	0.155
463	0.156
463	0.156
463	0.157
464	0.157
464	0.157
465	0.157
465	0.158
466	0.158
466	0.159
467	0.159
467	0.159
467	0.159
468	0.159
468	0.159
469	0.159
469	0.158
470	0.158
470	0.158
471	0.158
471	0.157
472	0.157
472	0.157
472	0.158
473	0.158
473	0.158
474	0.159
474	0.159
475	0.16
475	0.161
476	0.161
476	0.161
477	0.162
477	0.162
477	0.162
478	0.162
478	0.163
479	0.163
479	0.163
480	0.164
480	0.164
481	0.165
481	0.165
482	0.166
482	0.167
482	0.168
483	0.169
483	0.171
484	0.172
484	0.173
485	0.174
485	0.175
486	0.176
486	0.177
487	0.177
487	0.178
487	0.179
488	0.179
488	0.179
489	0.18
489	0.181
490	0.181
490	0.182
491	0.182
491	0.183
492	0.184
492	0.185
492	0.185
493	0.186
493	0.188
494	0.189
494	0.19
495	0.192
495	0.193
496	0.195
496	0.196
496	0.198
497	0.199
497	0.201
498	0.202
498	0.203
499	0.205
499	0.206
500	0.207
500	0.208
501	0.21
501	0.211
501	0.212
502	0.214
502	0.215
503	0.216
503	0.218
504	0.219
504	0.22
505	0.221
505	0.222
506	0.223
506	0.224
506	0.225
507	0.226
507	0.227
508	0.228
508	0.229
509	0.23
509	0.232
510	0.233
510	0.234
511	0.235
511	0.236
511	0.236
512	0.237
512	0.238
513	0.238
513	0.238
514	0.239
514	0.239
515	0.24
515	0.24
515	0.24
516	0.241
516	0.241
517	0.242
517	0.243
518	0.243
518	0.244
519	0.244
519	0.244
520	0.243
520	0.243
520	0.243
521	0.242
521	0.242
522	0.241
522	0.24
523	0.239
523	0.238
524	0.238
524	0.238
524	0.238
525	0.238
525	0.238
526	0.239
526	0.239
527	0.24
527	0.24
528	0.241
528	0.241
529	0.242
529	0.241
529	0.241
530	0.241
530	0.241
531	0.24
531	0.24
532	0.238
532	0.237
533	0.237
533	0.236
533	0.235
534	0.233
534	0.232
535	0.231
535	0.23
536	0.228
536	0.227
537	0.226
537	0.225
538	0.223
538	0.222
538	0.221
539	0.219
539	0.218
540	0.217
540	0.215
541	0.214
541	0.212
542	0.21
542	0.208
542	0.206
543	0.204
543	0.203
544	0.201
544	0.199
545	0.198
545	0.197
546	0.195
546	0.194
547	0.192
547	0.19
547	0.188
548	0.186
548	0.184
549	0.182
549	0.18
550	0.178
550	0.175
551	0.173
551	0.171
551	0.169
552	0.167
552	0.165
553	0.164
553	0.162
554	0.161
554	0.159
555	0.157
555	0.154
556	0.152
556	0.15
556	0.148
557	0.146
557	0.144
558	0.142
558	0.14
559	0.138
559	0.137
560	0.135
560	0.134
560	0.133
561	0.132
561	0.131
562	0.13
562	0.128
563	0.126
563	0.125
564	0.122
564	0.12
564	0.118
565	0.116
565	0.114
566	0.112
566	0.109
567	0.107
567	0.107
568	0.105
568	0.105
568	0.104
569	0.104
569	0.104
570	0.103
570	0.102
571	0.102
571	0.101
572	0.101
572	0.099
573	0.099
573	0.098
573	0.097
574	0.096
574	0.095
575	0.094
575	0.094
576	0.093
576	0.092
577	0.092
577	0.091
577	0.091
578	0.09
578	0.089
579	0.088
579	0.088
580	0.087
580	0.085
581	0.083
581	0.082
581	0.08
582	0.079
582	0.078
583	0.077
583	0.076
584	0.074
584	0.072
585	0.071
585	0.07
585	0.069
586	0.069
586	0.068
587	0.067
587	0.066
588	0.065
588	0.063
589	0.063
589	0.062
590	0.061
590	0.061
590	0.061
591	0.061
591	0.06
592	0.059
592	0.059
593	0.058
593	0.058
594	0.057
594	0.056
594	0.055
595	0.055
595	0.054
596	0.054
596	0.054
597	0.055
597	0.055
598	0.056
598	0.057
598	0.058
599	0.058
599	0.058
600	0.058
600	0.057
601	0.057
601	0.055
602	0.055
602	0.054
602	0.054
603	0.054
603	0.054
604	0.055
604	0.056
605	0.057
605	0.058
606	0.059
606	0.059
606	0.059
607	0.059
607	0.058
608	0.058
608	0.057
609	0.056
609	0.056
610	0.056
610	0.055
610	0.055
611	0.056
611	0.058
612	0.059
612	0.06
613	0.061
613	0.062
614	0.062
614	0.061
614	0.061
615	0.06
615	0.059
616	0.059
616	0.058
617	0.057
617	0.056
618	0.055
618	0.054
618	0.054
619	0.055
619	0.056
620	0.057
620	0.057
621	0.058
621	0.058
622	0.058
622	0.059
622	0.059
623	0.059
623	0.06
624	0.06
624	0.059
625	0.059
625	0.059
626	0.059
626	0.06
626	0.061
627	0.061
627	0.062
628	0.062
628	0.063
629	0.063
629	0.064
630	0.064
630	0.064
630	0.065
631	0.066
631	0.067
632	0.067
632	0.068
633	0.07
633	0.071
634	0.073
634	0.074
634	0.076
635	0.077
635	0.078
636	0.079
636	0.08
637	0.08
637	0.081
638	0.081
638	0.082
638	0.083
639	0.084
639	0.084
640	0.085
640	0.086
641	0.088
641	0.089
642	0.091
642	0.093
642	0.095
643	0.096
643	0.098
644	0.1
644	0.102
645	0.104
645	0.106
646	0.108
646	0.11
646	0.113
647	0.115
647	0.118
648	0.12
648	0.121
649	0.123
649	0.125
650	0.127
650	0.129
650	0.131
651	0.133
651	0.135
652	0.137
652	0.139
653	0.141
653	0.146
653	0.148
654	0.118
654	0.096
655	0.101
655	0.103
656	0.105
656	0.106
657	0.108
657	0.109
657	0.11
658	0.109
658	0.107
659	0.135
659	0.175
660	0.178
660	0.18
661	0.182
661	0.185
661	0.188
662	0.192
662	0.195
663	0.198
663	0.201
664	0.204
664	0.206
665	0.209
665	0.211
665	0.213
666	0.215
666	0.217
667	0.219
667	0.22
668	0.222
668	0.225
669	0.227
669	0.23
669	0.233
670	0.237
670	0.24
671	0.242
671	0.244
672	0.247
672	0.249
672	0.251
673	0.252
673	0.254
674	0.256
674	0.257
675	0.257
675	0.259
676	0.26
676	0.262
676	0.263
677	0.264
677	0.266
678	0.267
678	0.268
679	0.269
679	0.271
680	0.272
680	0.273
680	0.274
681	0.275
681	0.276
682	0.277
682	0.278
683	0.28
683	0.281
684	0.282
684	0.283
684	0.283
685	0.283
685	0.284
686	0.284
686	0.285
687	0.285
687	0.285
687	0.285
688	0.285
688	0.284
689	0.285
689	0.285
690	0.285
690	0.285
691	0.284
691	0.283
691	0.283
692	0.282
692	0.281
693	0.28
693	0.279
694	0.278
694	0.276
695	0.276
695	0.276
695	0.275
696	0.274
696	0.273
697	0.272
697	0.271
698	0.27
698	0.268
698	0.267
699	0.266
699	0.264
700	0.262
700	0.26
701	0.258
701	0.257
702	0.255
702	0.254
702	0.252
703	0.25
703	0.248
704	0.246
704	0.245
705	0.243
705	0.242
705	0.24
706	0.238
706	0.237
707	0.235
707	0.233
708	0.231
708	0.229
709	0.227
709	0.226
709	0.223
710	0.22
710	0.218
711	0.216
711	0.213
712	0.211
712	0.209
713	0.207
713	0.206
713	0.204
714	0.201
714	0.199
715	0.197
715	0.195
716	0.193
716	0.192
716	0.19
717	0.189
717	0.187
718	0.185
718	0.183
719	0.181
719	0.18
720	0.178
720	0.176
720	0.173
721	0.171
721	0.168
722	0.165
722	0.163
723	0.161
723	0.159
723	0.157
724	0.155
724	0.153
725	0.15
725	0.148
726	0.146
726	0.144
727	0.142
727	0.141
727	0.139
728	0.137
728	0.135
729	0.134
729	0.132
730	0.131
730	0.129
730	0.127
731	0.125
731	0.123
732	0.121
732	0.12
733	0.118
733	0.116
734	0.114
734	0.112
734	0.11
735	0.109
735	0.107
736	0.106
736	0.104
737	0.103
737	0.103
737	0.102
738	0.1
738	0.099
739	0.098
739	0.096
740	0.095
740	0.093
741	0.092
741	0.089
741	0.087
742	0.083
742	0.08
743	0.078
743	0.075
744	0.072
744	0.07
744	0.068
745	0.065
745	0.063
746	0.061
746	0.06
747	0.06
747	0.059
748	0.059
748	0.058
748	0.057
749	0.056
749	0.056
750	0.055
750	0.055
751	0.055
751	0.055
751	0.055
752	0.054
752	0.053
753	0.053
753	0.052
754	0.052
754	0.051
754	0.051
755	0.05
755	0.05
756	0.049
756	0.047
757	0.046
757	0.045
758	0.044
758	0.042
758	0.041
759	0.04
759	0.039
760	0.037
760	0.035
761	0.033
761	0.032
761	0.03
762	0.029
762	0.028
763	0.028
763	0.027
764	0.025
764	0.024
764	0.023
765	0.021
765	0.02
766	0.019
766	0.018
767	0.017
767	0.015
768	0.013
768	0.012
768	0.01
769	0.009
769	0.007
770	0.006
770	0.004
771	0.002
771	-0.001
771	-0.004
772	-0.006
772	-0.009
773	-0.011
773	-0.014
774	-0.017
774	-0.019
775	-0.022
775	-0.024
775	-0.027
776	-0.029
776	-0.032
777	-0.035
777	-0.038
778	-0.041
778	-0.044
778	-0.047
779	-0.049
779	-0.052
780	-0.055
780	-0.059
781	-0.063
781	-0.068
781	-0.073
782	-0.078
782	-0.084
783	-0.09
783	-0.095
784	-0.101
784	-0.108
784	-0.114
785	-0.12
785	-0.127
786	-0.132
786	-0.134
787	-0.133
787	-0.134
788	-0.138
788	-0.142
788	-0.146
789	-0.15
789	-0.151
790	-0.15
790	-0.15
791	-0.15
791	-0.152
791	-0.155
792	-0.149
792	-0.139
793	-0.133
793	-0.129
794	-0.127
794	-0.129
794	-0.134
795	-0.136
795	-0.136
796	-0.137
796	-0.14
797	-0.149
797	-0.16
797	-0.166
798	-0.172
798	-0.174
799	-0.175
799	-0.174
800	-0.173
800	-0.175
801	-0.178
801	-0.178
801	-0.179
802	-0.18
802	-0.181
803	-0.182
803	-0.183
804	-0.181
804	-0.176
804	-0.17
805	-0.166
805	-0.164
806	-0.162
806	-0.161
807	-0.16
807	-0.159
807	-0.159
808	-0.159
808	-0.16
809	-0.165
809	-0.171
810	-0.175
810	-0.178
810	-0.181
811	-0.185
811	-0.185
812	-0.181
812	-0.178
813	-0.178
813	-0.179
813	-0.179
814	-0.18
814	-0.179
815	-0.176
815	-0.172
816	-0.168
816	-0.165
817	-0.164
817	-0.161
817	-0.155
818	-0.147
818	-0.138
819	-0.128
819	-0.119
820	-0.112
820	-0.104
820	-0.097
821	-0.089
821	-0.083
822	-0.077
822	-0.072
823	-0.068
823	-0.065
823	-0.062
824	-0.059
824	-0.055
825	-0.051
825	-0.048
826	-0.045
826	-0.043
826	-0.04
827	-0.038
827	-0.036
828	-0.034
828	-0.033
829	-0.031
829	-0.03
829	-0.029
830	-0.029
830	-0.028
831	-0.026
831	-0.024
832	-0.023
832	-0.021
832	-0.02
833	-0.018
833	-0.017
834	-0.015
834	-0.014
835	-0.013
835	-0.012
835	-0.011
836	-0.011
836	-0.01
837	-0.01
837	-0.01
838	-0.01
838	-0.01
839	-0.01
839	-0.01
839	-0.011
840	-0.011
840	-0.011
841	-0.011
841	-0.011
842	-0.011
842	-0.011
842	-0.011
843	-0.011
843	-0.012
844	-0.012
844	-0.011
845	-0.011
845	-0.011
845	-0.011
846	-0.011
846	-0.011
847	-0.011
847	-0.011
848	-0.011
848	-0.012
848	-0.012
849	-0.013
849	-0.013
850	-0.014
850	-0.014
851	-0.015
851	-0.015
851	-0.015
852	-0.014
852	-0.014
853	-0.013
853	-0.012
854	-0.011
854	-0.01
854	-0.01
855	-0.009
855	-0.009
856	-0.008
856	-0.008
857	-0.008
857	-0.008
857	-0.008
858	-0.008
858	-0.008
859	-0.008
859	-0.009
860	-0.009
860	-0.009
860	-0.009
861	-0.009
861	-0.008
862	-0.008
862	-0.008
863	-0.008
863	-0.008
863	-0.007
864	-0.007
864	-0.007
865	-0.006
865	-0.005
866	-0.005
866	-0.004
866	-0.004
867	-0.003
867	-0.002
868	-0.001
868	-0
869	0.001
869	0.001
869	0.001
870	0.002
870	0.002
871	0.002
871	0.002
872	0.001
872	0.001
872	0
873	-0
873	-0.001
874	-0.001
874	-0.001
875	-0.001
875	-0.001
875	-0.001
876	-0.002
876	-0.002
877	-0.002
877	-0.001
878	-0.001
878	-0
878	0.001
879	0.001
879	0.002
880	0.002
880	0.003
881	0.003
881	0.003
881	0.004
882	0.004
882	0.003
883	0.003
883	0.002
884	0.002
884	0.001
884	0.001
885	0.001
885	0.001
886	0.001
886	0.001
887	0.001
887	0.001
887	0.001
888	0
888	0
889	-0
889	-0.001
890	-0.001
890	-0.001
890	-0.002
891	-0.002
891	-0.003
892	-0.003
892	-0.003
893	-0.004
893	-0.004
893	-0.005
894	-0.005
894	-0.006
895	-0.006
895	-0.007
895	-0.007
896	-0.008
896	-0.008
897	-0.008
897	-0.007
898	-0.007
898	-0.007
898	-0.006
899	-0.005
899	-0.004
900	-0.003
900	-0.002
901	-0.002
901	-0.001
901	-0
902	0
902	0.001
903	0.001
903	0.001
904	0.001
904	0.001
904	0.001
905	0.002
905	0.002
906	0.002
906	0.002
907	0.002
907	0.002
907	0.003
908	0.003
908	0.003
909	0.003
909	0.004
910	0.004
910	0.004
910	0.004
911	0.005
911	0.005
912	0.006
912	0.006
913	0.006
913	0.006
913	0.006
914	0.006
914	0.006
915	0.005
915	0.004
916	0.003
916	0.002
916	0.001
917	-0
917	-0.001
918	-0.003
918	-0.003
918	-0.004
919	-0.005
919	-0.005
920	-0.005
920	-0.005
921	-0.005
921	-0.005
921	-0.004
922	-0.003
922	-0.002
923	-0.001
923	-0
924	0.001
924	0.001
924	0.001
925	0.001
925	0.001
926	-0
926	-0.001
927	-0.002
927	-0.003
927	-0.004
928	-0.005
928	-0.006
929	-0.006
929	-0.006
930	-0.006
930	-0.006
930	-0.005
931	-0.005
931	-0.004
932	-0.003
932	-0.002
933	-0.002
933	-0.001
933	-0.001
934	0
934	0.001
935	0.001
935	0.001
935	0.002
936	0.002
936	0.002
937	0.002
937	0.002
938	0.002
938	0.002
938	0.001
939	0.001
939	0.001
940	0.001
940	0.001
941	0.002
941	0.002
941	0.003
942	0.003
942	0.004
943	0.004
943	0.004
944	0.004
944	0.004
944	0.004
945	0.004
945	0.003
946	0.003
946	0.003
946	0.003
947	0.003
947	0.003
948	0.003
948	0.003
949	0.004
949	0.005
949	0.005
950	0.006
950	0.007
951	0.008
951	0.009
952	0.01
952	0.011
952	0.012
953	0.013
953	0.013
954	0.013
954	0.013
955	0.012
955	0.012
955	0.011
956	0.011
956	0.01
957	0.009
957	0.009
957	0.007
958	0.006
958	0.005
959	0.004
959	0.003
960	0.002
960	0.001
960	0
961	-0.001
961	-0.001
962	-0.002
962	-0.002
963	-0.003
963	-0.003
963	-0.002
964	-0.002
964	-0.001
965	-0.001
965	0
966	0.001
966	0.002
966	0.002
967	0.003
967	0.004
968	0.004
968	0.004
968	0.005
969	0.005
969	0.004
970	0.004
970	0.003
971	0.003
971	0.002
971	0.002
972	0.001
972	0.001
973	0.001
973	0
974	-0
974	-0.001
974	-0.001
975	-0.002
975	-0.002
976	-0.002
976	-0.003
976	-0.003
977	-0.004
977	-0.005
978	-0.006
978	-0.007
979	-0.007
979	-0.007
979	-0.008
980	-0.008
980	-0.009
981	-0.009
981	-0.008
982	-0.008
982	-0.007
982	-0.007
983	-0.006
983	-0.006
984	-0.005
984	-0.004
984	-0.004
985	-0.003
985	-0.003
986	-0.003
986	-0.003
987	-0.003
987	-0.003
987	-0.003
988	-0.003
988	-0.003
989	-0.003
989	-0.003
990	-0.002
990	-0.002
990	-0.001
991	-0.001
991	0
992	0.001
992	0.001
992	0.002
993	0.003
993	0.004
994	0.005
994	0.005
995	0.006
995	0.007
995	0.008
996	0.008
996	0.008
997	0.009
997	0.009
997	0.009
998	0.009
998	0.009
999	0.008
999	0.008
1000	0.008
1000	0.008
1000	0.008
1001	0.008
1001	0.008
1002	0.008
1002	0.008
1003	0.008
1003	0.008
1003	0.008
1004	0.008
1004	0.007
1005	0.007
1005	0.006
1005	0.006
1006	0.005
1006	0.005
1007	0.004
1007	0.004
1008	0.004
1008	0.004
1008	0.004
1009	0.004
1009	0.005
1010	0.005
1010	0.006
1010	0.006
1011	0.007
1011	0.007
1012	0.007
1012	0.008
1013	0.008
1013	0.007
1013	0.007
1014	0.006
1014	0.006
1015	0.005
1015	0.005
1016	0.004
1016	0.004
1016	0.003
1017	0.003
1017	0.003
1018	0.002
1018	0.002
1018	0.002
1019	0.002
1019	0.002
1020	0.002
1020	0.002
1021	0.002
1021	0.002
1021	0.002
1022	0.001
1022	0.001
1023	0.001
1023	0.001
1023	0.001
1024	0.001
1024	0
1025	0
1025	0
1026	0
1026	0
1026	0
1027	0
1027	0.001
1028	0.001
1028	0.001
1028	0.002
1029	0.002
1029	0.003
1030	0.003
1030	0.003
1031	0.003
1031	0.004
1031	0.004
1032	0.004
1032	0.004
1033	0.004
1033	0.004
1033	0.004
1034	0.003
1034	0.003
1035	0.003
1035	0.002
1036	0.002
1036	0.001
1036	0.001
1037	0.001
1037	0.001
1038	0.001
1038	0.001
1039	0.001
1039	0.001
1039	0
1040	0
1040	0
1041	-0
1041	-0.001
1041	-0.002
1042	-0.002
1042	-0.003
1043	-0.004
1043	-0.005
1044	-0.005
1044	-0.006
1044	-0.006
1045	-0.006
1045	-0.007
1046	-0.007
1046	-0.006
1046	-0.006
1047	-0.005
1047	-0.004
1048	-0.003
1048	-0.003
1049	-0.002
1049	-0.002
1049	-0.001
1050	-0.001
1050	-0.001
1051	-0
1051	-0
1051	-0
1052	-0
1052	-0.001
1053	-0.001
1053	-0.001
1053	-0.001
1054	-0.001
1054	-0.001
1055	-0.001
1055	-0.001
1056	-0.001
1056	-0.001
1056	-0.002
1057	-0.002
1057	-0.002
1058	-0.002
1058	-0.002
1058	-0.002
1059	-0.003
1059	-0.004
1060	-0.004
1060	-0.004
1061	-0.004
1061	-0.004
1061	-0.004
1062	-0.004
1062	-0.005
1063	-0.004
1063	-0.005
1063	-0.004
1064	-0.004
1064	-0.003
1065	-0.003
1065	-0.003
1066	-0.002
1066	-0.002
1066	-0.001
1067	-0.001
1067	-0
1068	-0.001
1068	-0
1068	-0.001
1069	-0.001
1069	-0.002
1070	-0.002
1070	-0.003
1071	-0.003
1071	-0.004
1071	-0.005
1072	-0.005
1072	-0.005
1073	-0.005
1073	-0.004
1073	-0.004
1074	-0.003
1074	-0.003
1075	-0.003
1075	-0.002
1076	-0.002
1076	-0.001
1076	-0
1077	0
1077	0.001
1078	0.001
1078	0.002
1078	0.003
1079	0.004
1079	0.005
1080	0.006
1080	0.007
1080	0.008
1081	0.009
1081	0.01
1082	0.012
1082	0.013
1083	0.014
1083	0.015
1083	0.016
1084	0.018
1084	0.02
1085	0.022
1085	0.023
1085	0.024
1086	0.025
1086	0.026
1087	0.027
1087	0.028
1088	0.029
1088	0.029
1088	0.03
1089	0.03
1089	0.031
1090	0.032
1090	0.034
1090	0.036
1091	0.037
1091	0.039
1092	0.041
1092	0.043
1092	0.046
1093	0.049
1093	0.052
1094	0.055
1094	0.059
1095	0.061
1095	0.064
1095	0.067
1096	0.071
1096	0.074
1097	0.078
1097	0.081
1097	0.085
1098	0.088
1098	0.091
1099	0.095
1099	0.1
1100	0.104
1100	0.109
1100	0.114
1101	0.122
1101	0.128
1102	0.135
1102	0.143
1102	0.152
1103	0.162
1103	0.172
1104	0.183
1104	0.196
1104	0.21
1105	0.224
1105	0.236
1106	0.251
1106	0.27
1107	0.291
1107	0.318
1107	0.353
1108	0.458
1108	0.632
1109	1.053
1109	-0
1109	-0
1110	-0
1110	-0
1111	-0
1111	-0
