Data from 15c-2a_Absorbance__7__00007.txt Node

Date: Wed Jan 17 09:40:39 CET 2024
User: Marek
Spectrometer: MAYP115816
Trigger mode: 0
Integration Time (sec): 2.000000E-1
Scans to average: 10
Electric dark correction enabled: true
Nonlinearity correction enabled: true
Boxcar width: 5
XAxis mode: Wavelengths
Number of Pixels in Spectrum: 2068
>>>>>Begin Spectral Data<<<<<
199	-1.961
199	-1.812
200	-1.646
200	-1.518
201	-1.437
201	-1.386
202	-1.309
202	-1.249
203	-1.195
203	-1.148
204	-1.122
204	-1.097
205	-1.072
205	-1.062
205	-1.059
206	-1.058
206	-1.053
207	-1.051
207	-1.046
208	-1.044
208	-1.042
209	-1.038
209	-1.035
210	-1.034
210	-1.034
211	-1.032
211	-1.03
212	-1.03
212	-1.028
213	-1.027
213	-1.025
213	-1.023
214	-1.022
214	-1.021
215	-1.02
215	-1.018
216	-1.017
216	-1.014
217	-1.009
217	-1.007
218	-1.006
218	-1.003
219	-1
219	-0.999
220	-0.994
220	-0.99
221	-0.985
221	-0.98
221	-0.977
222	-0.974
222	-0.968
223	-0.963
223	-0.958
224	-0.952
224	-0.945
225	-0.937
225	-0.93
226	-0.921
226	-0.909
227	-0.896
227	-0.882
228	-0.866
228	-0.847
229	-0.827
229	-0.804
229	-0.778
230	-0.749
230	-0.718
231	-0.685
231	-0.65
232	-0.612
232	-0.573
233	-0.531
233	-0.488
234	-0.446
234	-0.403
235	-0.362
235	-0.322
236	-0.283
236	-0.245
236	-0.21
237	-0.177
237	-0.146
238	-0.118
238	-0.092
239	-0.067
239	-0.045
240	-0.024
240	-0.005
241	0.012
241	0.028
242	0.042
242	0.055
243	0.067
243	0.077
243	0.087
244	0.096
244	0.104
245	0.111
245	0.118
246	0.125
246	0.131
247	0.136
247	0.141
248	0.146
248	0.151
249	0.155
249	0.159
250	0.162
250	0.166
250	0.169
251	0.172
251	0.175
252	0.177
252	0.18
253	0.182
253	0.184
254	0.186
254	0.188
255	0.19
255	0.192
256	0.193
256	0.195
257	0.196
257	0.197
258	0.198
258	0.199
258	0.199
259	0.2
259	0.201
260	0.201
260	0.201
261	0.201
261	0.201
262	0.202
262	0.202
263	0.202
263	0.201
264	0.201
264	0.201
265	0.2
265	0.2
265	0.2
266	0.199
266	0.199
267	0.198
267	0.197
268	0.196
268	0.195
269	0.194
269	0.193
270	0.192
270	0.191
271	0.189
271	0.188
272	0.187
272	0.186
272	0.184
273	0.183
273	0.182
274	0.181
274	0.179
275	0.178
275	0.177
276	0.176
276	0.174
277	0.173
277	0.171
278	0.17
278	0.168
278	0.167
279	0.166
279	0.164
280	0.163
280	0.162
281	0.161
281	0.16
282	0.159
282	0.158
283	0.157
283	0.157
284	0.156
284	0.155
285	0.154
285	0.153
285	0.152
286	0.151
286	0.15
287	0.149
287	0.149
288	0.148
288	0.147
289	0.146
289	0.145
290	0.145
290	0.144
291	0.143
291	0.143
292	0.142
292	0.142
292	0.141
293	0.14
293	0.14
294	0.14
294	0.139
295	0.139
295	0.139
296	0.138
296	0.138
297	0.138
297	0.137
298	0.137
298	0.137
298	0.137
299	0.137
299	0.137
300	0.136
300	0.136
301	0.136
301	0.136
302	0.136
302	0.136
303	0.136
303	0.136
304	0.135
304	0.135
305	0.135
305	0.135
305	0.135
306	0.135
306	0.135
307	0.134
307	0.134
308	0.134
308	0.134
309	0.134
309	0.134
310	0.134
310	0.133
311	0.133
311	0.133
311	0.133
312	0.132
312	0.132
313	0.132
313	0.132
314	0.131
314	0.131
315	0.131
315	0.131
316	0.13
316	0.13
317	0.13
317	0.13
318	0.129
318	0.129
318	0.129
319	0.128
319	0.128
320	0.128
320	0.128
321	0.127
321	0.127
322	0.127
322	0.126
323	0.126
323	0.125
324	0.125
324	0.125
324	0.125
325	0.124
325	0.124
326	0.124
326	0.124
327	0.123
327	0.123
328	0.123
328	0.123
329	0.122
329	0.122
330	0.121
330	0.121
330	0.121
331	0.12
331	0.12
332	0.12
332	0.119
333	0.119
333	0.118
334	0.118
334	0.118
335	0.117
335	0.117
336	0.117
336	0.116
336	0.116
337	0.116
337	0.115
338	0.115
338	0.115
339	0.115
339	0.114
340	0.114
340	0.114
341	0.113
341	0.113
342	0.113
342	0.113
342	0.112
343	0.112
343	0.112
344	0.111
344	0.111
345	0.111
345	0.11
346	0.11
346	0.11
347	0.109
347	0.109
348	0.109
348	0.108
348	0.108
349	0.107
349	0.107
350	0.107
350	0.106
351	0.106
351	0.105
352	0.105
352	0.104
353	0.104
353	0.104
354	0.103
354	0.103
354	0.102
355	0.102
355	0.101
356	0.101
356	0.101
357	0.1
357	0.1
358	0.1
358	0.1
359	0.1
359	0.101
360	0.101
360	0.101
360	0.102
361	0.102
361	0.102
362	0.102
362	0.102
363	0.103
363	0.102
364	0.102
364	0.102
365	0.102
365	0.102
366	0.101
366	0.101
366	0.101
367	0.101
367	0.101
368	0.1
368	0.1
369	0.1
369	0.1
370	0.1
370	0.099
371	0.099
371	0.099
372	0.099
372	0.099
372	0.098
373	0.098
373	0.098
374	0.098
374	0.098
375	0.098
375	0.098
376	0.098
376	0.098
377	0.098
377	0.098
378	0.099
378	0.099
378	0.099
379	0.099
379	0.099
380	0.1
380	0.1
381	0.1
381	0.1
382	0.1
382	0.1
383	0.099
383	0.099
383	0.099
384	0.099
384	0.098
385	0.098
385	0.098
386	0.098
386	0.099
387	0.099
387	0.098
388	0.098
388	0.098
389	0.098
389	0.098
389	0.098
390	0.099
390	0.099
391	0.099
391	0.099
392	0.099
392	0.099
393	0.099
393	0.099
394	0.099
394	0.099
394	0.099
395	0.099
395	0.098
396	0.098
396	0.098
397	0.099
397	0.099
398	0.099
398	0.099
399	0.099
399	0.1
400	0.099
400	0.099
400	0.099
401	0.099
401	0.098
402	0.097
402	0.097
403	0.097
403	0.096
404	0.096
404	0.096
405	0.096
405	0.096
405	0.096
406	0.096
406	0.096
407	0.096
407	0.096
408	0.095
408	0.095
409	0.095
409	0.095
410	0.095
410	0.095
411	0.095
411	0.095
411	0.095
412	0.094
412	0.094
413	0.094
413	0.094
414	0.094
414	0.094
415	0.093
415	0.093
416	0.093
416	0.093
416	0.092
417	0.092
417	0.092
418	0.092
418	0.092
419	0.092
419	0.093
420	0.093
420	0.094
421	0.094
421	0.095
421	0.095
422	0.095
422	0.095
423	0.095
423	0.095
424	0.095
424	0.095
425	0.094
425	0.093
426	0.093
426	0.093
427	0.092
427	0.092
427	0.092
428	0.093
428	0.093
429	0.093
429	0.094
430	0.094
430	0.094
431	0.094
431	0.093
432	0.093
432	0.093
432	0.093
433	0.092
433	0.091
434	0.091
434	0.09
435	0.09
435	0.091
436	0.091
436	0.091
437	0.091
437	0.091
437	0.091
438	0.091
438	0.09
439	0.09
439	0.09
440	0.09
440	0.089
441	0.089
441	0.089
442	0.089
442	0.089
442	0.089
443	0.089
443	0.089
444	0.089
444	0.089
445	0.089
445	0.089
446	0.089
446	0.089
447	0.089
447	0.089
447	0.089
448	0.089
448	0.089
449	0.089
449	0.089
450	0.089
450	0.088
451	0.088
451	0.088
452	0.088
452	0.087
452	0.087
453	0.086
453	0.086
454	0.086
454	0.086
455	0.085
455	0.085
456	0.085
456	0.085
457	0.085
457	0.085
458	0.085
458	0.084
458	0.084
459	0.084
459	0.084
460	0.084
460	0.083
461	0.083
461	0.082
462	0.082
462	0.082
463	0.082
463	0.082
463	0.082
464	0.083
464	0.082
465	0.083
465	0.083
466	0.083
466	0.083
467	0.083
467	0.083
467	0.082
468	0.081
468	0.08
469	0.079
469	0.078
470	0.077
470	0.077
471	0.076
471	0.076
472	0.076
472	0.076
472	0.076
473	0.076
473	0.077
474	0.077
474	0.078
475	0.078
475	0.078
476	0.078
476	0.078
477	0.078
477	0.078
477	0.078
478	0.078
478	0.077
479	0.077
479	0.077
480	0.077
480	0.077
481	0.078
481	0.078
482	0.078
482	0.079
482	0.08
483	0.08
483	0.082
484	0.083
484	0.084
485	0.085
485	0.086
486	0.087
486	0.087
487	0.087
487	0.087
487	0.087
488	0.087
488	0.086
489	0.085
489	0.084
490	0.083
490	0.083
491	0.082
491	0.082
492	0.082
492	0.081
492	0.081
493	0.081
493	0.081
494	0.081
494	0.082
495	0.082
495	0.083
496	0.083
496	0.083
496	0.084
497	0.084
497	0.085
498	0.085
498	0.086
499	0.086
499	0.086
500	0.086
500	0.086
501	0.086
501	0.087
501	0.087
502	0.088
502	0.088
503	0.088
503	0.089
504	0.089
504	0.089
505	0.089
505	0.089
506	0.089
506	0.089
506	0.089
507	0.088
507	0.088
508	0.089
508	0.089
509	0.089
509	0.089
510	0.09
510	0.09
511	0.09
511	0.09
511	0.09
512	0.09
512	0.09
513	0.089
513	0.088
514	0.088
514	0.087
515	0.087
515	0.087
515	0.087
516	0.086
516	0.085
517	0.085
517	0.085
518	0.085
518	0.085
519	0.085
519	0.085
520	0.085
520	0.084
520	0.083
521	0.083
521	0.082
522	0.08
522	0.079
523	0.077
523	0.076
524	0.075
524	0.073
524	0.073
525	0.073
525	0.073
526	0.074
526	0.075
527	0.076
527	0.078
528	0.08
528	0.081
529	0.083
529	0.084
529	0.085
530	0.086
530	0.087
531	0.087
531	0.088
532	0.088
532	0.089
533	0.089
533	0.09
533	0.09
534	0.09
534	0.09
535	0.09
535	0.09
536	0.09
536	0.09
537	0.09
537	0.09
538	0.09
538	0.09
538	0.089
539	0.09
539	0.09
540	0.09
540	0.09
541	0.09
541	0.09
542	0.089
542	0.089
542	0.089
543	0.089
543	0.089
544	0.088
544	0.088
545	0.088
545	0.089
546	0.089
546	0.089
547	0.09
547	0.089
547	0.089
548	0.088
548	0.088
549	0.088
549	0.087
550	0.086
550	0.086
551	0.086
551	0.085
551	0.085
552	0.085
552	0.085
553	0.085
553	0.086
554	0.087
554	0.087
555	0.087
555	0.086
556	0.085
556	0.085
556	0.084
557	0.083
557	0.082
558	0.081
558	0.081
559	0.08
559	0.08
560	0.081
560	0.081
560	0.081
561	0.082
561	0.083
562	0.084
562	0.084
563	0.084
563	0.084
564	0.084
564	0.083
564	0.082
565	0.082
565	0.082
566	0.081
566	0.081
567	0.081
567	0.082
568	0.083
568	0.085
568	0.086
569	0.088
569	0.09
570	0.092
570	0.093
571	0.094
571	0.095
572	0.096
572	0.097
573	0.098
573	0.098
573	0.099
574	0.099
574	0.099
575	0.099
575	0.1
576	0.101
576	0.102
577	0.102
577	0.102
577	0.102
578	0.102
578	0.102
579	0.102
579	0.103
580	0.103
580	0.103
581	0.103
581	0.101
581	0.1
582	0.1
582	0.1
583	0.1
583	0.101
584	0.1
584	0.099
585	0.097
585	0.096
585	0.096
586	0.096
586	0.096
587	0.096
587	0.095
588	0.094
588	0.093
589	0.091
589	0.091
590	0.09
590	0.09
590	0.09
591	0.09
591	0.091
592	0.091
592	0.091
593	0.091
593	0.091
594	0.091
594	0.09
594	0.09
595	0.089
595	0.089
596	0.088
596	0.088
597	0.088
597	0.089
598	0.09
598	0.091
598	0.092
599	0.092
599	0.092
600	0.092
600	0.092
601	0.091
601	0.09
602	0.09
602	0.09
602	0.089
603	0.088
603	0.089
604	0.089
604	0.09
605	0.091
605	0.093
606	0.094
606	0.095
606	0.094
607	0.093
607	0.093
608	0.092
608	0.091
609	0.09
609	0.089
610	0.088
610	0.087
610	0.086
611	0.086
611	0.087
612	0.088
612	0.089
613	0.09
613	0.091
614	0.091
614	0.09
614	0.09
615	0.089
615	0.089
616	0.088
616	0.087
617	0.086
617	0.085
618	0.084
618	0.082
618	0.081
619	0.081
619	0.081
620	0.082
620	0.083
621	0.083
621	0.083
622	0.083
622	0.083
622	0.083
623	0.083
623	0.082
624	0.082
624	0.082
625	0.081
625	0.081
626	0.081
626	0.081
626	0.081
627	0.081
627	0.081
628	0.082
628	0.082
629	0.082
629	0.082
630	0.082
630	0.081
630	0.08
631	0.08
631	0.08
632	0.08
632	0.079
633	0.079
633	0.079
634	0.08
634	0.08
634	0.081
635	0.082
635	0.083
636	0.084
636	0.084
637	0.084
637	0.085
638	0.085
638	0.085
638	0.085
639	0.085
639	0.085
640	0.085
640	0.085
641	0.085
641	0.086
642	0.086
642	0.087
642	0.087
643	0.088
643	0.089
644	0.089
644	0.09
645	0.09
645	0.091
646	0.092
646	0.093
646	0.095
647	0.096
647	0.098
648	0.1
648	0.102
649	0.103
649	0.104
650	0.106
650	0.107
650	0.109
651	0.11
651	0.111
652	0.112
652	0.113
653	0.114
653	0.117
653	0.117
654	0.095
654	0.079
655	0.083
655	0.085
656	0.086
656	0.087
657	0.087
657	0.088
657	0.089
658	0.087
658	0.085
659	0.106
659	0.134
660	0.133
660	0.133
661	0.134
661	0.135
661	0.137
662	0.139
662	0.141
663	0.143
663	0.146
664	0.148
664	0.149
665	0.151
665	0.152
665	0.153
666	0.154
666	0.155
667	0.155
667	0.156
668	0.157
668	0.159
669	0.16
669	0.162
669	0.164
670	0.166
670	0.168
671	0.17
671	0.172
672	0.173
672	0.174
672	0.175
673	0.176
673	0.177
674	0.177
674	0.178
675	0.178
675	0.178
676	0.179
676	0.18
676	0.18
677	0.181
677	0.182
678	0.184
678	0.184
679	0.185
679	0.186
680	0.187
680	0.188
680	0.189
681	0.189
681	0.19
682	0.19
682	0.191
683	0.192
683	0.193
684	0.195
684	0.196
684	0.197
685	0.198
685	0.199
686	0.2
686	0.201
687	0.201
687	0.201
687	0.201
688	0.201
688	0.201
689	0.201
689	0.202
690	0.202
690	0.201
691	0.201
691	0.201
691	0.2
692	0.2
692	0.199
693	0.199
693	0.199
694	0.198
694	0.197
695	0.197
695	0.198
695	0.199
696	0.199
696	0.199
697	0.199
697	0.199
698	0.199
698	0.198
698	0.198
699	0.197
699	0.196
700	0.195
700	0.193
701	0.193
701	0.192
702	0.191
702	0.19
702	0.19
703	0.189
703	0.188
704	0.188
704	0.187
705	0.187
705	0.186
705	0.186
706	0.185
706	0.185
707	0.185
707	0.184
708	0.183
708	0.183
709	0.182
709	0.182
709	0.181
710	0.179
710	0.178
711	0.177
711	0.176
712	0.175
712	0.174
713	0.172
713	0.171
713	0.17
714	0.169
714	0.167
715	0.166
715	0.165
716	0.164
716	0.163
716	0.162
717	0.162
717	0.161
718	0.16
718	0.159
719	0.159
719	0.158
720	0.158
720	0.157
720	0.156
721	0.154
721	0.153
722	0.152
722	0.15
723	0.149
723	0.147
723	0.146
724	0.145
724	0.144
725	0.142
725	0.141
726	0.14
726	0.139
727	0.138
727	0.138
727	0.137
728	0.136
728	0.135
729	0.135
729	0.135
730	0.134
730	0.133
730	0.133
731	0.132
731	0.131
732	0.131
732	0.13
733	0.129
733	0.127
734	0.125
734	0.124
734	0.122
735	0.121
735	0.119
736	0.118
736	0.116
737	0.115
737	0.114
737	0.114
738	0.113
738	0.112
739	0.11
739	0.109
740	0.107
740	0.106
741	0.104
741	0.103
741	0.101
742	0.098
742	0.095
743	0.094
743	0.092
744	0.091
744	0.09
744	0.089
745	0.088
745	0.087
746	0.086
746	0.086
747	0.086
747	0.086
748	0.087
748	0.087
748	0.087
749	0.087
749	0.087
750	0.087
750	0.087
751	0.087
751	0.087
751	0.087
752	0.087
752	0.086
753	0.085
753	0.084
754	0.084
754	0.083
754	0.083
755	0.083
755	0.083
756	0.083
756	0.083
757	0.082
757	0.081
758	0.08
758	0.079
758	0.078
759	0.077
759	0.076
760	0.073
760	0.07
761	0.067
761	0.065
761	0.063
762	0.061
762	0.06
763	0.06
763	0.058
764	0.056
764	0.054
764	0.052
765	0.051
765	0.049
766	0.048
766	0.048
767	0.047
767	0.046
768	0.044
768	0.041
768	0.04
769	0.039
769	0.038
770	0.037
770	0.036
771	0.033
771	0.03
771	0.026
772	0.022
772	0.019
773	0.015
773	0.011
774	0.006
774	0.001
775	-0.004
775	-0.008
775	-0.014
776	-0.02
776	-0.025
777	-0.03
777	-0.035
778	-0.04
778	-0.045
778	-0.05
779	-0.055
779	-0.059
780	-0.065
780	-0.072
781	-0.08
781	-0.089
781	-0.098
782	-0.108
782	-0.118
783	-0.127
783	-0.135
784	-0.142
784	-0.148
784	-0.153
785	-0.158
785	-0.161
786	-0.161
786	-0.158
787	-0.153
787	-0.149
788	-0.147
788	-0.148
788	-0.149
789	-0.151
789	-0.151
790	-0.148
790	-0.147
791	-0.147
791	-0.149
791	-0.152
792	-0.146
792	-0.136
793	-0.13
793	-0.126
794	-0.124
794	-0.126
794	-0.13
795	-0.133
795	-0.133
796	-0.134
796	-0.137
797	-0.146
797	-0.157
797	-0.163
798	-0.168
798	-0.171
799	-0.171
799	-0.171
800	-0.17
800	-0.172
801	-0.174
801	-0.175
801	-0.175
802	-0.177
802	-0.178
803	-0.179
803	-0.179
804	-0.178
804	-0.173
804	-0.167
805	-0.163
805	-0.161
806	-0.159
806	-0.157
807	-0.156
807	-0.156
807	-0.156
808	-0.156
808	-0.157
809	-0.162
809	-0.168
810	-0.172
810	-0.175
810	-0.178
811	-0.181
811	-0.182
812	-0.178
812	-0.175
813	-0.175
813	-0.175
813	-0.176
814	-0.176
814	-0.176
815	-0.172
815	-0.169
816	-0.166
816	-0.166
817	-0.169
817	-0.172
817	-0.169
818	-0.165
818	-0.159
819	-0.152
819	-0.146
820	-0.141
820	-0.135
820	-0.128
821	-0.119
821	-0.108
822	-0.096
822	-0.086
823	-0.077
823	-0.069
823	-0.062
824	-0.054
824	-0.045
825	-0.037
825	-0.028
826	-0.021
826	-0.015
826	-0.009
827	-0.004
827	0.001
828	0.006
828	0.01
829	0.014
829	0.017
829	0.019
830	0.021
830	0.023
831	0.027
831	0.03
832	0.032
832	0.034
832	0.036
833	0.039
833	0.041
834	0.043
834	0.045
835	0.046
835	0.048
835	0.049
836	0.049
836	0.05
837	0.05
837	0.05
838	0.05
838	0.051
839	0.051
839	0.051
839	0.051
840	0.051
840	0.05
841	0.05
841	0.05
842	0.051
842	0.051
842	0.052
843	0.052
843	0.053
844	0.053
844	0.055
845	0.056
845	0.057
845	0.059
846	0.06
846	0.062
847	0.062
847	0.063
848	0.064
848	0.064
848	0.064
849	0.064
849	0.064
850	0.064
850	0.063
851	0.064
851	0.064
851	0.064
852	0.065
852	0.066
853	0.067
853	0.067
854	0.068
854	0.069
854	0.069
855	0.069
855	0.07
856	0.069
856	0.07
857	0.069
857	0.069
857	0.069
858	0.069
858	0.068
859	0.068
859	0.068
860	0.067
860	0.067
860	0.067
861	0.067
861	0.067
862	0.067
862	0.067
863	0.068
863	0.068
863	0.068
864	0.069
864	0.069
865	0.07
865	0.071
866	0.071
866	0.072
866	0.072
867	0.073
867	0.073
868	0.074
868	0.075
869	0.075
869	0.076
869	0.077
870	0.077
870	0.078
871	0.078
871	0.078
872	0.078
872	0.078
872	0.078
873	0.078
873	0.077
874	0.077
874	0.077
875	0.077
875	0.077
875	0.076
876	0.076
876	0.076
877	0.076
877	0.076
878	0.076
878	0.076
878	0.077
879	0.077
879	0.077
880	0.077
880	0.078
881	0.078
881	0.077
881	0.077
882	0.077
882	0.076
883	0.075
883	0.074
884	0.074
884	0.073
884	0.073
885	0.073
885	0.073
886	0.074
886	0.074
887	0.075
887	0.075
887	0.076
888	0.076
888	0.077
889	0.077
889	0.077
890	0.077
890	0.077
890	0.077
891	0.076
891	0.075
892	0.075
892	0.074
893	0.073
893	0.073
893	0.073
894	0.072
894	0.072
895	0.073
895	0.073
895	0.073
896	0.073
896	0.073
897	0.074
897	0.074
898	0.074
898	0.074
898	0.074
899	0.074
899	0.074
900	0.074
900	0.074
901	0.074
901	0.075
901	0.075
902	0.075
902	0.075
903	0.075
903	0.075
904	0.075
904	0.075
904	0.075
905	0.075
905	0.075
906	0.075
906	0.074
907	0.074
907	0.074
907	0.074
908	0.074
908	0.074
909	0.074
909	0.074
910	0.074
910	0.074
910	0.074
911	0.075
911	0.075
912	0.075
912	0.076
913	0.076
913	0.076
913	0.076
914	0.076
914	0.076
915	0.076
915	0.076
916	0.076
916	0.076
916	0.076
917	0.076
917	0.076
918	0.075
918	0.075
918	0.075
919	0.075
919	0.074
920	0.074
920	0.074
921	0.073
921	0.073
921	0.072
922	0.072
922	0.072
923	0.072
923	0.073
924	0.073
924	0.073
924	0.074
925	0.074
925	0.074
926	0.074
926	0.074
927	0.074
927	0.074
927	0.074
928	0.073
928	0.073
929	0.072
929	0.072
930	0.071
930	0.071
930	0.071
931	0.071
931	0.07
932	0.07
932	0.07
933	0.07
933	0.07
933	0.071
934	0.071
934	0.071
935	0.072
935	0.073
935	0.073
936	0.073
936	0.074
937	0.074
937	0.074
938	0.074
938	0.074
938	0.074
939	0.074
939	0.074
940	0.074
940	0.074
941	0.074
941	0.075
941	0.075
942	0.076
942	0.076
943	0.076
943	0.077
944	0.077
944	0.077
944	0.077
945	0.077
945	0.077
946	0.077
946	0.077
946	0.077
947	0.077
947	0.076
948	0.076
948	0.076
949	0.076
949	0.076
949	0.076
950	0.076
950	0.075
951	0.076
951	0.076
952	0.076
952	0.076
952	0.076
953	0.076
953	0.076
954	0.076
954	0.076
955	0.076
955	0.075
955	0.075
956	0.075
956	0.075
957	0.075
957	0.075
957	0.075
958	0.075
958	0.075
959	0.074
959	0.074
960	0.074
960	0.074
960	0.073
961	0.073
961	0.072
962	0.072
962	0.071
963	0.071
963	0.071
963	0.071
964	0.07
964	0.071
965	0.071
965	0.071
966	0.071
966	0.071
966	0.071
967	0.071
967	0.071
968	0.071
968	0.071
968	0.071
969	0.07
969	0.07
970	0.07
970	0.07
971	0.07
971	0.07
971	0.07
972	0.07
972	0.071
973	0.071
973	0.071
974	0.071
974	0.072
974	0.072
975	0.072
975	0.072
976	0.072
976	0.072
976	0.072
977	0.072
977	0.072
978	0.072
978	0.072
979	0.072
979	0.072
979	0.072
980	0.072
980	0.072
981	0.072
981	0.072
982	0.072
982	0.072
982	0.072
983	0.071
983	0.071
984	0.071
984	0.07
984	0.07
985	0.07
985	0.07
986	0.069
986	0.069
987	0.069
987	0.069
987	0.069
988	0.069
988	0.069
989	0.069
989	0.069
990	0.068
990	0.069
990	0.069
991	0.069
991	0.07
992	0.07
992	0.071
992	0.071
993	0.072
993	0.072
994	0.072
994	0.073
995	0.073
995	0.073
995	0.074
996	0.074
996	0.074
997	0.074
997	0.074
997	0.074
998	0.073
998	0.073
999	0.073
999	0.073
1000	0.073
1000	0.073
1000	0.073
1001	0.073
1001	0.073
1002	0.073
1002	0.074
1003	0.074
1003	0.074
1003	0.074
1004	0.073
1004	0.073
1005	0.073
1005	0.073
1005	0.072
1006	0.072
1006	0.072
1007	0.071
1007	0.071
1008	0.071
1008	0.07
1008	0.07
1009	0.07
1009	0.07
1010	0.07
1010	0.07
1010	0.07
1011	0.07
1011	0.07
1012	0.07
1012	0.07
1013	0.07
1013	0.071
1013	0.07
1014	0.07
1014	0.07
1015	0.071
1015	0.071
1016	0.071
1016	0.072
1016	0.072
1017	0.072
1017	0.072
1018	0.073
1018	0.073
1018	0.073
1019	0.074
1019	0.074
1020	0.074
1020	0.074
1021	0.074
1021	0.075
1021	0.075
1022	0.075
1022	0.076
1023	0.076
1023	0.076
1023	0.077
1024	0.077
1024	0.077
1025	0.076
1025	0.076
1026	0.076
1026	0.076
1026	0.076
1027	0.075
1027	0.075
1028	0.075
1028	0.075
1028	0.075
1029	0.075
1029	0.076
1030	0.076
1030	0.076
1031	0.077
1031	0.077
1031	0.078
1032	0.078
1032	0.078
1033	0.078
1033	0.078
1033	0.078
1034	0.078
1034	0.078
1035	0.078
1035	0.078
1036	0.078
1036	0.078
1036	0.078
1037	0.078
1037	0.078
1038	0.078
1038	0.079
1039	0.079
1039	0.079
1039	0.079
1040	0.079
1040	0.079
1041	0.079
1041	0.079
1041	0.079
1042	0.079
1042	0.079
1043	0.079
1043	0.079
1044	0.079
1044	0.079
1044	0.08
1045	0.081
1045	0.081
1046	0.081
1046	0.082
1046	0.083
1047	0.083
1047	0.084
1048	0.084
1048	0.084
1049	0.085
1049	0.085
1049	0.085
1050	0.085
1050	0.085
1051	0.085
1051	0.086
1051	0.086
1052	0.086
1052	0.086
1053	0.086
1053	0.086
1053	0.087
1054	0.087
1054	0.088
1055	0.088
1055	0.088
1056	0.089
1056	0.089
1056	0.09
1057	0.091
1057	0.092
1058	0.093
1058	0.094
1058	0.095
1059	0.096
1059	0.096
1060	0.097
1060	0.099
1061	0.1
1061	0.101
1061	0.102
1062	0.102
1062	0.103
1063	0.104
1063	0.105
1063	0.106
1064	0.107
1064	0.108
1065	0.109
1065	0.109
1066	0.111
1066	0.111
1066	0.113
1067	0.114
1067	0.115
1068	0.116
1068	0.117
1068	0.118
1069	0.118
1069	0.118
1070	0.119
1070	0.12
1071	0.121
1071	0.122
1071	0.122
1072	0.123
1072	0.124
1073	0.124
1073	0.125
1073	0.126
1074	0.127
1074	0.128
1075	0.129
1075	0.129
1076	0.13
1076	0.132
1076	0.133
1077	0.134
1077	0.136
1078	0.137
1078	0.14
1078	0.142
1079	0.145
1079	0.147
1080	0.149
1080	0.151
1080	0.153
1081	0.155
1081	0.158
1082	0.16
1082	0.162
1083	0.164
1083	0.167
1083	0.17
1084	0.173
1084	0.176
1085	0.18
1085	0.183
1085	0.187
1086	0.19
1086	0.193
1087	0.196
1087	0.2
1088	0.203
1088	0.207
1088	0.21
1089	0.215
1089	0.219
1090	0.225
1090	0.231
1090	0.237
1091	0.243
1091	0.251
1092	0.258
1092	0.266
1092	0.274
1093	0.282
1093	0.292
1094	0.302
1094	0.311
1095	0.322
1095	0.335
1095	0.349
1096	0.363
1096	0.379
1097	0.398
1097	0.416
1097	0.438
1098	0.461
1098	0.486
1099	0.519
1099	0.551
1100	0.589
1100	0.634
1100	0.687
1101	0.751
1101	0.829
1102	0.938
1102	1.084
1102	1.315
1103	1.979
1103	-0
1104	-0
1104	-0
1104	-0
1105	-0
1105	-0
1106	-0
1106	-0
1107	-0
1107	-0
1107	-0
1108	-0
1108	-0
1109	-0
1109	-0
1109	-0
1110	-0
1110	-0
1111	-0
1111	-0
