Data from 15c-2a_Absorbance__1004__01004.txt Node

Date: Wed Jan 17 10:13:52 CET 2024
User: Marek
Spectrometer: MAYP115816
Trigger mode: 0
Integration Time (sec): 2.000000E-1
Scans to average: 10
Electric dark correction enabled: true
Nonlinearity correction enabled: true
Boxcar width: 5
XAxis mode: Wavelengths
Number of Pixels in Spectrum: 2068
>>>>>Begin Spectral Data<<<<<
199	-1.587
199	-1.448
200	-1.29
200	-1.167
201	-1.091
201	-1.044
202	-0.974
202	-0.924
203	-0.878
203	-0.839
204	-0.814
204	-0.79
205	-0.767
205	-0.756
205	-0.755
206	-0.754
206	-0.75
207	-0.748
207	-0.743
208	-0.741
208	-0.741
209	-0.737
209	-0.736
210	-0.735
210	-0.736
211	-0.734
211	-0.733
212	-0.734
212	-0.734
213	-0.733
213	-0.732
213	-0.731
214	-0.73
214	-0.729
215	-0.727
215	-0.726
216	-0.727
216	-0.724
217	-0.72
217	-0.719
218	-0.718
218	-0.715
219	-0.712
219	-0.712
220	-0.708
220	-0.705
221	-0.7
221	-0.697
221	-0.692
222	-0.688
222	-0.683
223	-0.677
223	-0.674
224	-0.669
224	-0.661
225	-0.654
225	-0.647
226	-0.638
226	-0.625
227	-0.613
227	-0.6
228	-0.584
228	-0.567
229	-0.546
229	-0.522
229	-0.496
230	-0.468
230	-0.438
231	-0.405
231	-0.369
232	-0.334
232	-0.295
233	-0.254
233	-0.212
234	-0.172
234	-0.132
235	-0.092
235	-0.054
236	-0.017
236	0.017
236	0.05
237	0.081
237	0.109
238	0.135
238	0.159
239	0.182
239	0.203
240	0.221
240	0.238
241	0.253
241	0.267
242	0.279
242	0.29
243	0.301
243	0.309
243	0.317
244	0.325
244	0.331
245	0.337
245	0.343
246	0.349
246	0.354
247	0.358
247	0.363
248	0.367
248	0.371
249	0.374
249	0.377
250	0.38
250	0.383
250	0.386
251	0.389
251	0.391
252	0.393
252	0.395
253	0.397
253	0.399
254	0.4
254	0.402
255	0.403
255	0.405
256	0.405
256	0.406
257	0.407
257	0.407
258	0.408
258	0.408
258	0.408
259	0.409
259	0.409
260	0.409
260	0.408
261	0.408
261	0.408
262	0.407
262	0.407
263	0.406
263	0.405
264	0.405
264	0.404
265	0.403
265	0.402
265	0.401
266	0.4
266	0.399
267	0.397
267	0.396
268	0.394
268	0.393
269	0.391
269	0.389
270	0.388
270	0.386
271	0.384
271	0.382
272	0.38
272	0.378
272	0.376
273	0.374
273	0.371
274	0.37
274	0.367
275	0.366
275	0.363
276	0.361
276	0.359
277	0.357
277	0.355
278	0.353
278	0.35
278	0.348
279	0.346
279	0.343
280	0.341
280	0.339
281	0.337
281	0.334
282	0.332
282	0.33
283	0.329
283	0.327
284	0.325
284	0.323
285	0.322
285	0.32
285	0.318
286	0.316
286	0.315
287	0.313
287	0.311
288	0.31
288	0.308
289	0.306
289	0.305
290	0.303
290	0.302
291	0.3
291	0.299
292	0.298
292	0.296
292	0.295
293	0.294
293	0.293
294	0.291
294	0.29
295	0.289
295	0.288
296	0.287
296	0.286
297	0.285
297	0.284
298	0.284
298	0.283
298	0.282
299	0.281
299	0.28
300	0.279
300	0.279
301	0.278
301	0.277
302	0.276
302	0.276
303	0.275
303	0.274
304	0.274
304	0.273
305	0.272
305	0.271
305	0.271
306	0.27
306	0.269
307	0.268
307	0.268
308	0.267
308	0.266
309	0.266
309	0.265
310	0.264
310	0.263
311	0.263
311	0.262
311	0.261
312	0.261
312	0.26
313	0.259
313	0.258
314	0.258
314	0.257
315	0.256
315	0.256
316	0.255
316	0.254
317	0.254
317	0.253
318	0.252
318	0.251
318	0.251
319	0.25
319	0.249
320	0.248
320	0.248
321	0.247
321	0.246
322	0.245
322	0.244
323	0.243
323	0.243
324	0.242
324	0.241
324	0.24
325	0.24
325	0.239
326	0.238
326	0.238
327	0.237
327	0.236
328	0.236
328	0.235
329	0.234
329	0.233
330	0.233
330	0.232
330	0.231
331	0.23
331	0.23
332	0.229
332	0.228
333	0.228
333	0.227
334	0.226
334	0.225
335	0.225
335	0.224
336	0.224
336	0.223
336	0.222
337	0.222
337	0.221
338	0.22
338	0.22
339	0.219
339	0.219
340	0.218
340	0.218
341	0.217
341	0.217
342	0.216
342	0.215
342	0.215
343	0.214
343	0.214
344	0.213
344	0.213
345	0.213
345	0.212
346	0.212
346	0.211
347	0.211
347	0.21
348	0.21
348	0.21
348	0.209
349	0.209
349	0.208
350	0.208
350	0.207
351	0.207
351	0.207
352	0.206
352	0.206
353	0.206
353	0.205
354	0.205
354	0.204
354	0.204
355	0.203
355	0.203
356	0.202
356	0.202
357	0.201
357	0.201
358	0.201
358	0.201
359	0.201
359	0.201
360	0.2
360	0.201
360	0.201
361	0.201
361	0.201
362	0.201
362	0.201
363	0.201
363	0.201
364	0.201
364	0.2
365	0.2
365	0.199
366	0.199
366	0.199
366	0.199
367	0.199
367	0.198
368	0.198
368	0.198
369	0.197
369	0.197
370	0.197
370	0.197
371	0.197
371	0.196
372	0.196
372	0.196
372	0.195
373	0.195
373	0.195
374	0.195
374	0.195
375	0.194
375	0.194
376	0.194
376	0.194
377	0.194
377	0.194
378	0.194
378	0.194
378	0.194
379	0.194
379	0.194
380	0.194
380	0.194
381	0.194
381	0.194
382	0.194
382	0.194
383	0.193
383	0.193
383	0.193
384	0.192
384	0.192
385	0.192
385	0.192
386	0.192
386	0.192
387	0.191
387	0.191
388	0.191
388	0.191
389	0.191
389	0.191
389	0.191
390	0.191
390	0.191
391	0.191
391	0.191
392	0.191
392	0.19
393	0.19
393	0.19
394	0.19
394	0.19
394	0.189
395	0.189
395	0.189
396	0.188
396	0.188
397	0.188
397	0.188
398	0.188
398	0.188
399	0.188
399	0.188
400	0.188
400	0.187
400	0.187
401	0.186
401	0.186
402	0.185
402	0.185
403	0.185
403	0.185
404	0.185
404	0.184
405	0.184
405	0.184
405	0.184
406	0.184
406	0.183
407	0.183
407	0.183
408	0.182
408	0.182
409	0.182
409	0.181
410	0.181
410	0.181
411	0.181
411	0.181
411	0.181
412	0.181
412	0.181
413	0.18
413	0.18
414	0.18
414	0.18
415	0.18
415	0.18
416	0.18
416	0.179
416	0.179
417	0.179
417	0.179
418	0.179
418	0.18
419	0.18
419	0.18
420	0.181
420	0.181
421	0.181
421	0.181
421	0.181
422	0.181
422	0.181
423	0.181
423	0.181
424	0.18
424	0.18
425	0.179
425	0.179
426	0.179
426	0.178
427	0.178
427	0.178
427	0.178
428	0.178
428	0.178
429	0.179
429	0.179
430	0.179
430	0.178
431	0.178
431	0.178
432	0.178
432	0.177
432	0.177
433	0.176
433	0.176
434	0.176
434	0.176
435	0.176
435	0.176
436	0.176
436	0.176
437	0.176
437	0.177
437	0.177
438	0.177
438	0.177
439	0.177
439	0.176
440	0.176
440	0.176
441	0.176
441	0.176
442	0.175
442	0.175
442	0.175
443	0.175
443	0.175
444	0.175
444	0.176
445	0.176
445	0.176
446	0.176
446	0.176
447	0.176
447	0.176
447	0.176
448	0.176
448	0.175
449	0.175
449	0.175
450	0.176
450	0.176
451	0.175
451	0.175
452	0.175
452	0.175
452	0.175
453	0.175
453	0.175
454	0.175
454	0.175
455	0.175
455	0.175
456	0.175
456	0.175
457	0.175
457	0.175
458	0.175
458	0.175
458	0.175
459	0.176
459	0.176
460	0.175
460	0.175
461	0.175
461	0.175
462	0.175
462	0.175
463	0.175
463	0.176
463	0.176
464	0.176
464	0.176
465	0.177
465	0.177
466	0.178
466	0.178
467	0.178
467	0.178
467	0.178
468	0.178
468	0.178
469	0.177
469	0.177
470	0.177
470	0.177
471	0.177
471	0.177
472	0.177
472	0.177
472	0.177
473	0.178
473	0.178
474	0.179
474	0.18
475	0.18
475	0.18
476	0.181
476	0.181
477	0.181
477	0.181
477	0.181
478	0.182
478	0.182
479	0.183
479	0.183
480	0.184
480	0.184
481	0.185
481	0.186
482	0.187
482	0.188
482	0.19
483	0.191
483	0.193
484	0.194
484	0.195
485	0.196
485	0.197
486	0.197
486	0.198
487	0.198
487	0.199
487	0.2
488	0.2
488	0.201
489	0.202
489	0.203
490	0.204
490	0.205
491	0.205
491	0.207
492	0.208
492	0.208
492	0.209
493	0.21
493	0.211
494	0.212
494	0.214
495	0.216
495	0.217
496	0.218
496	0.22
496	0.222
497	0.223
497	0.225
498	0.226
498	0.227
499	0.229
499	0.23
500	0.231
500	0.232
501	0.234
501	0.235
501	0.237
502	0.238
502	0.24
503	0.241
503	0.243
504	0.244
504	0.245
505	0.246
505	0.247
506	0.249
506	0.25
506	0.251
507	0.252
507	0.253
508	0.255
508	0.256
509	0.258
509	0.259
510	0.261
510	0.262
511	0.263
511	0.264
511	0.265
512	0.266
512	0.267
513	0.267
513	0.268
514	0.268
514	0.269
515	0.269
515	0.27
515	0.27
516	0.271
516	0.272
517	0.273
517	0.273
518	0.274
518	0.274
519	0.274
519	0.274
520	0.274
520	0.274
520	0.274
521	0.273
521	0.272
522	0.271
522	0.271
523	0.27
523	0.27
524	0.27
524	0.27
524	0.27
525	0.27
525	0.271
526	0.271
526	0.271
527	0.272
527	0.272
528	0.272
528	0.272
529	0.271
529	0.271
529	0.271
530	0.27
530	0.269
531	0.269
531	0.268
532	0.267
532	0.266
533	0.266
533	0.265
533	0.264
534	0.262
534	0.261
535	0.26
535	0.259
536	0.258
536	0.257
537	0.256
537	0.254
538	0.253
538	0.251
538	0.25
539	0.249
539	0.248
540	0.246
540	0.244
541	0.242
541	0.24
542	0.238
542	0.236
542	0.234
543	0.232
543	0.23
544	0.228
544	0.226
545	0.224
545	0.223
546	0.221
546	0.219
547	0.217
547	0.214
547	0.211
548	0.21
548	0.207
549	0.205
549	0.203
550	0.201
550	0.198
551	0.195
551	0.193
551	0.192
552	0.19
552	0.188
553	0.187
553	0.185
554	0.183
554	0.181
555	0.179
555	0.176
556	0.174
556	0.171
556	0.169
557	0.166
557	0.164
558	0.162
558	0.159
559	0.157
559	0.156
560	0.154
560	0.153
560	0.152
561	0.151
561	0.15
562	0.148
562	0.146
563	0.144
563	0.141
564	0.139
564	0.136
564	0.134
565	0.131
565	0.129
566	0.127
566	0.125
567	0.123
567	0.122
568	0.121
568	0.12
568	0.119
569	0.119
569	0.119
570	0.118
570	0.116
571	0.116
571	0.115
572	0.114
572	0.113
573	0.111
573	0.11
573	0.109
574	0.108
574	0.107
575	0.106
575	0.107
576	0.106
576	0.104
577	0.103
577	0.102
577	0.101
578	0.1
578	0.1
579	0.099
579	0.099
580	0.097
580	0.094
581	0.092
581	0.09
581	0.089
582	0.089
582	0.088
583	0.088
583	0.086
584	0.083
584	0.08
585	0.079
585	0.079
585	0.079
586	0.078
586	0.078
587	0.076
587	0.075
588	0.073
588	0.072
589	0.072
589	0.072
590	0.072
590	0.072
590	0.073
591	0.073
591	0.073
592	0.072
592	0.071
593	0.071
593	0.07
594	0.069
594	0.068
594	0.067
595	0.066
595	0.065
596	0.064
596	0.065
597	0.067
597	0.067
598	0.068
598	0.069
598	0.069
599	0.07
599	0.07
600	0.069
600	0.068
601	0.067
601	0.066
602	0.065
602	0.065
602	0.064
603	0.064
603	0.065
604	0.066
604	0.066
605	0.068
605	0.069
606	0.069
606	0.069
606	0.069
607	0.069
607	0.069
608	0.068
608	0.066
609	0.065
609	0.065
610	0.065
610	0.064
610	0.064
611	0.066
611	0.067
612	0.068
612	0.069
613	0.071
613	0.072
614	0.071
614	0.07
614	0.07
615	0.069
615	0.068
616	0.068
616	0.067
617	0.066
617	0.064
618	0.063
618	0.062
618	0.062
619	0.062
619	0.063
620	0.065
620	0.065
621	0.065
621	0.066
622	0.066
622	0.067
622	0.067
623	0.067
623	0.068
624	0.068
624	0.068
625	0.068
625	0.068
626	0.068
626	0.069
626	0.069
627	0.07
627	0.071
628	0.072
628	0.072
629	0.073
629	0.074
630	0.074
630	0.074
630	0.075
631	0.076
631	0.077
632	0.077
632	0.078
633	0.08
633	0.081
634	0.082
634	0.084
634	0.085
635	0.086
635	0.087
636	0.088
636	0.09
637	0.09
637	0.091
638	0.092
638	0.093
638	0.094
639	0.095
639	0.097
640	0.098
640	0.099
641	0.1
641	0.102
642	0.104
642	0.106
642	0.108
643	0.109
643	0.111
644	0.113
644	0.115
645	0.117
645	0.119
646	0.122
646	0.124
646	0.127
647	0.13
647	0.132
648	0.134
648	0.136
649	0.138
649	0.141
650	0.143
650	0.145
650	0.147
651	0.149
651	0.151
652	0.153
652	0.155
653	0.158
653	0.165
653	0.174
654	0.139
654	0.113
655	0.115
655	0.117
656	0.119
656	0.12
657	0.122
657	0.123
657	0.124
658	0.122
658	0.114
659	0.145
659	0.189
660	0.195
660	0.197
661	0.2
661	0.202
661	0.206
662	0.21
662	0.213
663	0.217
663	0.22
664	0.223
664	0.226
665	0.229
665	0.231
665	0.234
666	0.236
666	0.238
667	0.24
667	0.242
668	0.245
668	0.247
669	0.25
669	0.253
669	0.257
670	0.26
670	0.263
671	0.265
671	0.268
672	0.27
672	0.272
672	0.274
673	0.276
673	0.277
674	0.278
674	0.279
675	0.28
675	0.281
676	0.282
676	0.284
676	0.285
677	0.286
677	0.288
678	0.29
678	0.291
679	0.292
679	0.294
680	0.297
680	0.298
680	0.3
681	0.301
681	0.303
682	0.304
682	0.305
683	0.306
683	0.307
684	0.308
684	0.308
684	0.308
685	0.308
685	0.309
686	0.309
686	0.309
687	0.309
687	0.309
687	0.309
688	0.309
688	0.309
689	0.309
689	0.31
690	0.309
690	0.308
691	0.307
691	0.306
691	0.305
692	0.304
692	0.303
693	0.302
693	0.301
694	0.299
694	0.297
695	0.297
695	0.298
695	0.298
696	0.297
696	0.296
697	0.295
697	0.293
698	0.292
698	0.291
698	0.29
699	0.289
699	0.287
700	0.284
700	0.283
701	0.281
701	0.279
702	0.278
702	0.276
702	0.274
703	0.272
703	0.27
704	0.268
704	0.266
705	0.265
705	0.263
705	0.26
706	0.259
706	0.257
707	0.255
707	0.253
708	0.251
708	0.249
709	0.247
709	0.244
709	0.241
710	0.237
710	0.234
711	0.232
711	0.229
712	0.227
712	0.224
713	0.222
713	0.22
713	0.218
714	0.216
714	0.215
715	0.213
715	0.211
716	0.209
716	0.208
716	0.207
717	0.205
717	0.204
718	0.202
718	0.201
719	0.199
719	0.198
720	0.196
720	0.194
720	0.192
721	0.189
721	0.187
722	0.184
722	0.182
723	0.18
723	0.178
723	0.175
724	0.173
724	0.171
725	0.168
725	0.165
726	0.163
726	0.16
727	0.158
727	0.155
727	0.153
728	0.15
728	0.147
729	0.146
729	0.144
730	0.143
730	0.141
730	0.139
731	0.137
731	0.136
732	0.134
732	0.132
733	0.13
733	0.128
734	0.125
734	0.123
734	0.121
735	0.12
735	0.118
736	0.117
736	0.116
737	0.115
737	0.115
737	0.114
738	0.112
738	0.11
739	0.109
739	0.107
740	0.104
740	0.102
741	0.1
741	0.097
741	0.093
742	0.089
742	0.087
743	0.085
743	0.083
744	0.081
744	0.08
744	0.078
745	0.076
745	0.074
746	0.073
746	0.072
747	0.071
747	0.07
748	0.069
748	0.068
748	0.066
749	0.065
749	0.064
750	0.062
750	0.061
751	0.061
751	0.061
751	0.061
752	0.06
752	0.059
753	0.058
753	0.058
754	0.058
754	0.057
754	0.057
755	0.057
755	0.057
756	0.056
756	0.054
757	0.053
757	0.052
758	0.051
758	0.05
758	0.049
759	0.047
759	0.045
760	0.043
760	0.041
761	0.039
761	0.038
761	0.037
762	0.035
762	0.035
763	0.034
763	0.032
764	0.03
764	0.029
764	0.027
765	0.025
765	0.024
766	0.022
766	0.022
767	0.021
767	0.018
768	0.016
768	0.014
768	0.014
769	0.013
769	0.012
770	0.01
770	0.009
771	0.007
771	0.004
771	0.002
772	-0.001
772	-0.003
773	-0.005
773	-0.008
774	-0.011
774	-0.014
775	-0.016
775	-0.019
775	-0.022
776	-0.025
776	-0.028
777	-0.03
777	-0.033
778	-0.036
778	-0.038
778	-0.04
779	-0.042
779	-0.043
780	-0.045
780	-0.048
781	-0.051
781	-0.054
781	-0.058
782	-0.063
782	-0.068
783	-0.073
783	-0.078
784	-0.084
784	-0.091
784	-0.097
785	-0.104
785	-0.11
786	-0.116
786	-0.12
787	-0.121
787	-0.123
788	-0.129
788	-0.134
788	-0.139
789	-0.145
789	-0.147
790	-0.147
790	-0.149
791	-0.151
791	-0.153
791	-0.155
792	-0.15
792	-0.139
793	-0.133
793	-0.129
794	-0.128
794	-0.13
794	-0.134
795	-0.136
795	-0.137
796	-0.137
796	-0.14
797	-0.149
797	-0.16
797	-0.167
798	-0.172
798	-0.175
799	-0.175
799	-0.174
800	-0.174
800	-0.175
801	-0.178
801	-0.179
801	-0.179
802	-0.18
802	-0.182
803	-0.182
803	-0.183
804	-0.182
804	-0.177
804	-0.17
805	-0.166
805	-0.164
806	-0.162
806	-0.161
807	-0.16
807	-0.159
807	-0.159
808	-0.159
808	-0.161
809	-0.165
809	-0.171
810	-0.175
810	-0.178
810	-0.182
811	-0.185
811	-0.185
812	-0.181
812	-0.178
813	-0.178
813	-0.179
813	-0.179
814	-0.18
814	-0.179
815	-0.176
815	-0.172
816	-0.168
816	-0.165
817	-0.164
817	-0.16
817	-0.154
818	-0.146
818	-0.136
819	-0.125
819	-0.116
820	-0.109
820	-0.101
820	-0.094
821	-0.087
821	-0.08
822	-0.075
822	-0.07
823	-0.067
823	-0.065
823	-0.063
824	-0.06
824	-0.057
825	-0.054
825	-0.051
826	-0.048
826	-0.047
826	-0.045
827	-0.043
827	-0.042
828	-0.04
828	-0.039
829	-0.037
829	-0.036
829	-0.035
830	-0.035
830	-0.033
831	-0.031
831	-0.029
832	-0.028
832	-0.026
832	-0.025
833	-0.023
833	-0.021
834	-0.02
834	-0.018
835	-0.016
835	-0.015
835	-0.014
836	-0.013
836	-0.012
837	-0.011
837	-0.011
838	-0.01
838	-0.01
839	-0.009
839	-0.009
839	-0.009
840	-0.009
840	-0.009
841	-0.009
841	-0.008
842	-0.008
842	-0.008
842	-0.008
843	-0.008
843	-0.008
844	-0.008
844	-0.008
845	-0.008
845	-0.007
845	-0.007
846	-0.006
846	-0.006
847	-0.006
847	-0.006
848	-0.006
848	-0.006
848	-0.006
849	-0.006
849	-0.006
850	-0.007
850	-0.008
851	-0.008
851	-0.008
851	-0.008
852	-0.008
852	-0.008
853	-0.007
853	-0.007
854	-0.006
854	-0.006
854	-0.005
855	-0.005
855	-0.005
856	-0.005
856	-0.006
857	-0.006
857	-0.006
857	-0.007
858	-0.007
858	-0.008
859	-0.009
859	-0.009
860	-0.009
860	-0.009
860	-0.009
861	-0.008
861	-0.008
862	-0.008
862	-0.008
863	-0.008
863	-0.008
863	-0.008
864	-0.008
864	-0.008
865	-0.007
865	-0.007
866	-0.006
866	-0.005
866	-0.004
867	-0.003
867	-0.001
868	0
868	0.002
869	0.003
869	0.004
869	0.004
870	0.004
870	0.004
871	0.003
871	0.002
872	0.001
872	-0.001
872	-0.002
873	-0.004
873	-0.005
874	-0.006
874	-0.006
875	-0.006
875	-0.006
875	-0.006
876	-0.005
876	-0.004
877	-0.003
877	-0.002
878	-0.001
878	0
878	0.001
879	0.002
879	0.003
880	0.003
880	0.004
881	0.004
881	0.004
881	0.005
882	0.004
882	0.004
883	0.004
883	0.004
884	0.003
884	0.003
884	0.002
885	0.002
885	0.002
886	0.002
886	0.002
887	0.002
887	0.002
887	0.002
888	0.002
888	0.002
889	0.002
889	0.002
890	0.002
890	0.002
890	0.001
891	0
891	-0
892	-0.001
892	-0.002
893	-0.003
893	-0.003
893	-0.004
894	-0.005
894	-0.006
895	-0.007
895	-0.008
895	-0.009
896	-0.01
896	-0.01
897	-0.011
897	-0.011
898	-0.011
898	-0.011
898	-0.01
899	-0.01
899	-0.009
900	-0.008
900	-0.007
901	-0.006
901	-0.005
901	-0.005
902	-0.004
902	-0.004
903	-0.003
903	-0.003
904	-0.003
904	-0.003
904	-0.002
905	-0.002
905	-0.002
906	-0.001
906	-0.001
907	-0
907	0
907	0.001
908	0.001
908	0.002
909	0.002
909	0.003
910	0.003
910	0.003
910	0.003
911	0.004
911	0.004
912	0.005
912	0.005
913	0.005
913	0.005
913	0.005
914	0.005
914	0.004
915	0.003
915	0.002
916	0.001
916	-0.001
916	-0.003
917	-0.004
917	-0.005
918	-0.006
918	-0.007
918	-0.007
919	-0.007
919	-0.007
920	-0.007
920	-0.006
921	-0.005
921	-0.005
921	-0.004
922	-0.003
922	-0.002
923	-0.001
923	-0.001
924	-0.001
924	-0.001
924	-0.001
925	-0.001
925	-0.001
926	-0.002
926	-0.002
927	-0.002
927	-0.003
927	-0.003
928	-0.003
928	-0.003
929	-0.003
929	-0.003
930	-0.003
930	-0.002
930	-0.002
931	-0.001
931	-0.001
932	-0.001
932	-0
933	0
933	0.001
933	0.001
934	0.002
934	0.002
935	0.002
935	0.003
935	0.003
936	0.003
936	0.003
937	0.003
937	0.003
938	0.002
938	0.002
938	0.001
939	0.001
939	0
940	-0.001
940	-0.001
941	-0.002
941	-0.002
941	-0.002
942	-0.002
942	-0.002
943	-0.003
943	-0.003
944	-0.003
944	-0.003
944	-0.003
945	-0.003
945	-0.003
946	-0.003
946	-0.003
946	-0.004
947	-0.004
947	-0.004
948	-0.005
948	-0.005
949	-0.005
949	-0.005
949	-0.005
950	-0.005
950	-0.005
951	-0.005
951	-0.005
952	-0.004
952	-0.004
952	-0.004
953	-0.004
953	-0.004
954	-0.004
954	-0.005
955	-0.005
955	-0.006
955	-0.006
956	-0.006
956	-0.007
957	-0.007
957	-0.008
957	-0.008
958	-0.009
958	-0.01
959	-0.01
959	-0.011
960	-0.011
960	-0.012
960	-0.013
961	-0.013
961	-0.014
962	-0.014
962	-0.014
963	-0.014
963	-0.013
963	-0.012
964	-0.012
964	-0.01
965	-0.009
965	-0.008
966	-0.007
966	-0.005
966	-0.004
967	-0.003
967	-0.003
968	-0.002
968	-0.002
968	-0.002
969	-0.002
969	-0.002
970	-0.002
970	-0.003
971	-0.003
971	-0.003
971	-0.004
972	-0.004
972	-0.004
973	-0.004
973	-0.004
974	-0.004
974	-0.004
974	-0.004
975	-0.004
975	-0.004
976	-0.004
976	-0.004
976	-0.004
977	-0.005
977	-0.006
978	-0.007
978	-0.007
979	-0.008
979	-0.009
979	-0.01
980	-0.011
980	-0.013
981	-0.014
981	-0.014
982	-0.014
982	-0.015
982	-0.015
983	-0.014
983	-0.014
984	-0.014
984	-0.013
984	-0.012
985	-0.011
985	-0.01
986	-0.01
986	-0.01
987	-0.01
987	-0.01
987	-0.009
988	-0.009
988	-0.009
989	-0.009
989	-0.009
990	-0.008
990	-0.007
990	-0.006
991	-0.005
991	-0.004
992	-0.003
992	-0.002
992	-0.002
993	-0.001
993	-0
994	0
994	0
995	0
995	-0
995	-0
996	-0
996	-0.001
997	-0.001
997	-0.001
997	-0.001
998	-0.002
998	-0.001
999	-0.001
999	-0.001
1000	-0
1000	0
1000	0.001
1001	0.001
1001	0.002
1002	0.003
1002	0.003
1003	0.004
1003	0.004
1003	0.004
1004	0.004
1004	0.003
1005	0.003
1005	0.002
1005	0.002
1006	0.001
1006	0
1007	-0
1007	-0.001
1008	-0.001
1008	-0.002
1008	-0.002
1009	-0.002
1009	-0.002
1010	-0.002
1010	-0.002
1010	-0.002
1011	-0.002
1011	-0.002
1012	-0.002
1012	-0.002
1013	-0.003
1013	-0.003
1013	-0.004
1014	-0.004
1014	-0.005
1015	-0.005
1015	-0.006
1016	-0.006
1016	-0.007
1016	-0.007
1017	-0.008
1017	-0.008
1018	-0.008
1018	-0.008
1018	-0.008
1019	-0.008
1019	-0.009
1020	-0.009
1020	-0.009
1021	-0.01
1021	-0.01
1021	-0.01
1022	-0.01
1022	-0.009
1023	-0.009
1023	-0.009
1023	-0.009
1024	-0.009
1024	-0.009
1025	-0.009
1025	-0.009
1026	-0.009
1026	-0.009
1026	-0.009
1027	-0.009
1027	-0.009
1028	-0.009
1028	-0.009
1028	-0.009
1029	-0.008
1029	-0.008
1030	-0.008
1030	-0.008
1031	-0.007
1031	-0.007
1031	-0.007
1032	-0.007
1032	-0.007
1033	-0.007
1033	-0.008
1033	-0.009
1034	-0.01
1034	-0.011
1035	-0.012
1035	-0.013
1036	-0.014
1036	-0.015
1036	-0.016
1037	-0.017
1037	-0.017
1038	-0.017
1038	-0.017
1039	-0.017
1039	-0.016
1039	-0.016
1040	-0.015
1040	-0.015
1041	-0.015
1041	-0.015
1041	-0.015
1042	-0.016
1042	-0.016
1043	-0.017
1043	-0.018
1044	-0.019
1044	-0.019
1044	-0.02
1045	-0.02
1045	-0.021
1046	-0.021
1046	-0.021
1046	-0.021
1047	-0.02
1047	-0.019
1048	-0.018
1048	-0.018
1049	-0.017
1049	-0.017
1049	-0.017
1050	-0.017
1050	-0.017
1051	-0.016
1051	-0.016
1051	-0.017
1052	-0.017
1052	-0.017
1053	-0.017
1053	-0.017
1053	-0.017
1054	-0.017
1054	-0.017
1055	-0.017
1055	-0.018
1056	-0.018
1056	-0.019
1056	-0.02
1057	-0.02
1057	-0.021
1058	-0.021
1058	-0.022
1058	-0.023
1059	-0.024
1059	-0.024
1060	-0.025
1060	-0.025
1061	-0.025
1061	-0.025
1061	-0.025
1062	-0.025
1062	-0.025
1063	-0.025
1063	-0.025
1063	-0.025
1064	-0.025
1064	-0.024
1065	-0.024
1065	-0.024
1066	-0.024
1066	-0.025
1066	-0.024
1067	-0.025
1067	-0.024
1068	-0.025
1068	-0.025
1068	-0.026
1069	-0.027
1069	-0.028
1070	-0.028
1070	-0.028
1071	-0.029
1071	-0.029
1071	-0.029
1072	-0.03
1072	-0.03
1073	-0.031
1073	-0.031
1073	-0.031
1074	-0.03
1074	-0.03
1075	-0.031
1075	-0.031
1076	-0.032
1076	-0.032
1076	-0.032
1077	-0.032
1077	-0.032
1078	-0.033
1078	-0.032
1078	-0.031
1079	-0.03
1079	-0.029
1080	-0.028
1080	-0.026
1080	-0.025
1081	-0.024
1081	-0.023
1082	-0.022
1082	-0.021
1083	-0.019
1083	-0.019
1083	-0.019
1084	-0.018
1084	-0.017
1085	-0.017
1085	-0.016
1085	-0.015
1086	-0.014
1086	-0.014
1087	-0.013
1087	-0.013
1088	-0.013
1088	-0.012
1088	-0.012
1089	-0.013
1089	-0.013
1090	-0.013
1090	-0.013
1090	-0.013
1091	-0.013
1091	-0.012
1092	-0.011
1092	-0.009
1092	-0.009
1093	-0.007
1093	-0.004
1094	-0.002
1094	-0.001
1095	0
1095	0.002
1095	0.005
1096	0.007
1096	0.009
1097	0.011
1097	0.013
1097	0.014
1098	0.015
1098	0.017
1099	0.019
1099	0.021
1100	0.023
1100	0.025
1100	0.028
1101	0.03
1101	0.034
1102	0.038
1102	0.043
1102	0.047
1103	0.051
1103	0.057
1104	0.063
1104	0.07
1104	0.078
1105	0.084
1105	0.09
1106	0.095
1106	0.104
1107	0.111
1107	0.124
1107	0.14
1108	0.19
1108	0.261
1109	0.368
1109	0.563
1109	0.768
1110	1.749
1110	-0
1111	-0
1111	-0
