Data from 15c-2a_Absorbance__217__00217.txt Node

Date: Wed Jan 17 09:47:39 CET 2024
User: Marek
Spectrometer: MAYP115816
Trigger mode: 0
Integration Time (sec): 2.000000E-1
Scans to average: 10
Electric dark correction enabled: true
Nonlinearity correction enabled: true
Boxcar width: 5
XAxis mode: Wavelengths
Number of Pixels in Spectrum: 2068
>>>>>Begin Spectral Data<<<<<
199	-1.616
199	-1.472
200	-1.31
200	-1.185
201	-1.108
201	-1.059
202	-0.985
202	-0.929
203	-0.88
203	-0.837
204	-0.811
204	-0.789
205	-0.765
205	-0.755
205	-0.754
206	-0.752
206	-0.747
207	-0.746
207	-0.742
208	-0.74
208	-0.74
209	-0.735
209	-0.733
210	-0.732
210	-0.733
211	-0.73
211	-0.729
212	-0.729
212	-0.727
213	-0.726
213	-0.726
213	-0.724
214	-0.722
214	-0.722
215	-0.72
215	-0.718
216	-0.718
216	-0.714
217	-0.71
217	-0.708
218	-0.707
218	-0.704
219	-0.702
219	-0.701
220	-0.697
220	-0.693
221	-0.687
221	-0.683
221	-0.679
222	-0.676
222	-0.671
223	-0.665
223	-0.661
224	-0.655
224	-0.648
225	-0.64
225	-0.633
226	-0.625
226	-0.613
227	-0.6
227	-0.587
228	-0.571
228	-0.554
229	-0.535
229	-0.512
229	-0.485
230	-0.457
230	-0.428
231	-0.396
231	-0.361
232	-0.326
232	-0.289
233	-0.25
233	-0.209
234	-0.169
234	-0.131
235	-0.094
235	-0.058
236	-0.023
236	0.009
236	0.04
237	0.069
237	0.095
238	0.119
238	0.141
239	0.162
239	0.181
240	0.198
240	0.214
241	0.228
241	0.241
242	0.252
242	0.262
243	0.272
243	0.28
243	0.288
244	0.295
244	0.302
245	0.308
245	0.313
246	0.318
246	0.323
247	0.327
247	0.332
248	0.335
248	0.339
249	0.343
249	0.346
250	0.349
250	0.351
250	0.354
251	0.357
251	0.359
252	0.361
252	0.363
253	0.365
253	0.366
254	0.368
254	0.369
255	0.371
255	0.372
256	0.373
256	0.374
257	0.375
257	0.375
258	0.376
258	0.376
258	0.376
259	0.377
259	0.376
260	0.377
260	0.376
261	0.376
261	0.376
262	0.375
262	0.375
263	0.374
263	0.374
264	0.373
264	0.372
265	0.371
265	0.37
265	0.369
266	0.368
266	0.367
267	0.365
267	0.364
268	0.362
268	0.361
269	0.359
269	0.358
270	0.356
270	0.354
271	0.352
271	0.35
272	0.348
272	0.346
272	0.345
273	0.343
273	0.34
274	0.338
274	0.336
275	0.334
275	0.332
276	0.33
276	0.328
277	0.326
277	0.323
278	0.321
278	0.319
278	0.317
279	0.315
279	0.312
280	0.31
280	0.309
281	0.306
281	0.304
282	0.302
282	0.301
283	0.299
283	0.297
284	0.295
284	0.293
285	0.291
285	0.289
285	0.288
286	0.286
286	0.284
287	0.283
287	0.281
288	0.279
288	0.278
289	0.276
289	0.275
290	0.273
290	0.272
291	0.271
291	0.27
292	0.268
292	0.267
292	0.266
293	0.265
293	0.264
294	0.263
294	0.262
295	0.261
295	0.26
296	0.259
296	0.258
297	0.257
297	0.256
298	0.255
298	0.255
298	0.254
299	0.253
299	0.253
300	0.252
300	0.251
301	0.251
301	0.25
302	0.249
302	0.248
303	0.248
303	0.247
304	0.246
304	0.246
305	0.245
305	0.244
305	0.243
306	0.242
306	0.242
307	0.241
307	0.241
308	0.24
308	0.24
309	0.239
309	0.239
310	0.238
310	0.237
311	0.237
311	0.236
311	0.235
312	0.235
312	0.234
313	0.234
313	0.233
314	0.232
314	0.231
315	0.231
315	0.23
316	0.229
316	0.229
317	0.228
317	0.227
318	0.227
318	0.226
318	0.225
319	0.224
319	0.224
320	0.223
320	0.223
321	0.222
321	0.221
322	0.221
322	0.22
323	0.219
323	0.219
324	0.218
324	0.217
324	0.217
325	0.216
325	0.215
326	0.214
326	0.214
327	0.213
327	0.213
328	0.212
328	0.211
329	0.211
329	0.21
330	0.209
330	0.209
330	0.208
331	0.208
331	0.207
332	0.206
332	0.206
333	0.205
333	0.204
334	0.204
334	0.203
335	0.202
335	0.202
336	0.201
336	0.201
336	0.2
337	0.199
337	0.199
338	0.198
338	0.198
339	0.197
339	0.197
340	0.196
340	0.196
341	0.195
341	0.195
342	0.195
342	0.194
342	0.194
343	0.193
343	0.193
344	0.193
344	0.192
345	0.192
345	0.191
346	0.191
346	0.19
347	0.19
347	0.189
348	0.189
348	0.189
348	0.188
349	0.188
349	0.187
350	0.187
350	0.187
351	0.186
351	0.186
352	0.186
352	0.186
353	0.185
353	0.185
354	0.184
354	0.184
354	0.184
355	0.183
355	0.183
356	0.183
356	0.182
357	0.182
357	0.182
358	0.181
358	0.181
359	0.181
359	0.181
360	0.181
360	0.181
360	0.181
361	0.181
361	0.181
362	0.181
362	0.181
363	0.181
363	0.181
364	0.181
364	0.18
365	0.18
365	0.18
366	0.18
366	0.179
366	0.179
367	0.179
367	0.179
368	0.179
368	0.178
369	0.178
369	0.178
370	0.178
370	0.178
371	0.177
371	0.177
372	0.177
372	0.177
372	0.176
373	0.176
373	0.176
374	0.176
374	0.176
375	0.176
375	0.175
376	0.175
376	0.175
377	0.175
377	0.175
378	0.175
378	0.175
378	0.175
379	0.175
379	0.175
380	0.175
380	0.175
381	0.174
381	0.174
382	0.174
382	0.174
383	0.173
383	0.173
383	0.173
384	0.172
384	0.172
385	0.172
385	0.172
386	0.171
386	0.171
387	0.171
387	0.171
388	0.171
388	0.171
389	0.171
389	0.171
389	0.171
390	0.171
390	0.171
391	0.171
391	0.171
392	0.171
392	0.171
393	0.171
393	0.17
394	0.17
394	0.17
394	0.17
395	0.169
395	0.169
396	0.169
396	0.169
397	0.168
397	0.169
398	0.168
398	0.168
399	0.168
399	0.168
400	0.168
400	0.168
400	0.167
401	0.167
401	0.166
402	0.166
402	0.166
403	0.166
403	0.165
404	0.165
404	0.165
405	0.165
405	0.165
405	0.165
406	0.165
406	0.164
407	0.164
407	0.164
408	0.164
408	0.163
409	0.163
409	0.163
410	0.163
410	0.163
411	0.163
411	0.163
411	0.163
412	0.163
412	0.163
413	0.162
413	0.162
414	0.162
414	0.162
415	0.161
415	0.161
416	0.161
416	0.16
416	0.16
417	0.16
417	0.16
418	0.16
418	0.16
419	0.16
419	0.16
420	0.16
420	0.161
421	0.161
421	0.161
421	0.161
422	0.161
422	0.162
423	0.162
423	0.162
424	0.162
424	0.162
425	0.161
425	0.161
426	0.16
426	0.16
427	0.16
427	0.16
427	0.16
428	0.16
428	0.16
429	0.16
429	0.16
430	0.16
430	0.16
431	0.16
431	0.159
432	0.159
432	0.159
432	0.159
433	0.158
433	0.158
434	0.157
434	0.157
435	0.157
435	0.157
436	0.157
436	0.157
437	0.157
437	0.158
437	0.158
438	0.157
438	0.157
439	0.157
439	0.157
440	0.156
440	0.156
441	0.156
441	0.156
442	0.156
442	0.156
442	0.156
443	0.156
443	0.156
444	0.156
444	0.156
445	0.156
445	0.156
446	0.156
446	0.156
447	0.156
447	0.156
447	0.156
448	0.156
448	0.156
449	0.156
449	0.156
450	0.156
450	0.156
451	0.156
451	0.156
452	0.156
452	0.156
452	0.156
453	0.156
453	0.156
454	0.156
454	0.156
455	0.156
455	0.156
456	0.156
456	0.155
457	0.155
457	0.155
458	0.155
458	0.155
458	0.155
459	0.156
459	0.156
460	0.156
460	0.155
461	0.155
461	0.155
462	0.155
462	0.156
463	0.156
463	0.156
463	0.157
464	0.157
464	0.157
465	0.158
465	0.158
466	0.158
466	0.159
467	0.159
467	0.159
467	0.159
468	0.159
468	0.158
469	0.158
469	0.158
470	0.157
470	0.157
471	0.157
471	0.157
472	0.157
472	0.157
472	0.157
473	0.158
473	0.158
474	0.159
474	0.159
475	0.16
475	0.161
476	0.161
476	0.162
477	0.162
477	0.162
477	0.162
478	0.162
478	0.162
479	0.162
479	0.163
480	0.163
480	0.163
481	0.164
481	0.165
482	0.166
482	0.167
482	0.168
483	0.169
483	0.17
484	0.172
484	0.173
485	0.174
485	0.175
486	0.176
486	0.176
487	0.177
487	0.177
487	0.178
488	0.179
488	0.179
489	0.179
489	0.18
490	0.181
490	0.181
491	0.182
491	0.183
492	0.183
492	0.184
492	0.185
493	0.186
493	0.187
494	0.188
494	0.19
495	0.192
495	0.194
496	0.195
496	0.197
496	0.199
497	0.2
497	0.202
498	0.203
498	0.204
499	0.205
499	0.206
500	0.207
500	0.208
501	0.209
501	0.21
501	0.212
502	0.213
502	0.215
503	0.216
503	0.218
504	0.219
504	0.22
505	0.221
505	0.222
506	0.223
506	0.224
506	0.225
507	0.226
507	0.227
508	0.228
508	0.229
509	0.23
509	0.232
510	0.233
510	0.234
511	0.235
511	0.236
511	0.237
512	0.237
512	0.238
513	0.238
513	0.239
514	0.239
514	0.24
515	0.24
515	0.241
515	0.241
516	0.241
516	0.241
517	0.242
517	0.243
518	0.243
518	0.243
519	0.243
519	0.243
520	0.243
520	0.242
520	0.242
521	0.241
521	0.241
522	0.239
522	0.239
523	0.238
523	0.237
524	0.237
524	0.237
524	0.236
525	0.237
525	0.237
526	0.238
526	0.238
527	0.239
527	0.24
528	0.241
528	0.241
529	0.242
529	0.242
529	0.242
530	0.242
530	0.241
531	0.241
531	0.24
532	0.239
532	0.238
533	0.237
533	0.236
533	0.235
534	0.234
534	0.232
535	0.231
535	0.23
536	0.228
536	0.227
537	0.226
537	0.225
538	0.224
538	0.222
538	0.221
539	0.22
539	0.218
540	0.217
540	0.216
541	0.214
541	0.212
542	0.21
542	0.208
542	0.206
543	0.205
543	0.203
544	0.202
544	0.2
545	0.199
545	0.198
546	0.196
546	0.194
547	0.193
547	0.191
547	0.189
548	0.187
548	0.184
549	0.182
549	0.18
550	0.178
550	0.175
551	0.173
551	0.171
551	0.168
552	0.167
552	0.165
553	0.163
553	0.162
554	0.161
554	0.159
555	0.157
555	0.155
556	0.153
556	0.151
556	0.149
557	0.147
557	0.145
558	0.143
558	0.141
559	0.139
559	0.137
560	0.136
560	0.134
560	0.133
561	0.133
561	0.132
562	0.13
562	0.129
563	0.127
563	0.125
564	0.124
564	0.121
564	0.119
565	0.117
565	0.115
566	0.113
566	0.111
567	0.109
567	0.108
568	0.106
568	0.105
568	0.104
569	0.104
569	0.104
570	0.103
570	0.102
571	0.101
571	0.101
572	0.1
572	0.099
573	0.098
573	0.097
573	0.096
574	0.096
574	0.095
575	0.094
575	0.094
576	0.093
576	0.092
577	0.091
577	0.091
577	0.09
578	0.089
578	0.088
579	0.088
579	0.087
580	0.086
580	0.084
581	0.083
581	0.081
581	0.08
582	0.079
582	0.078
583	0.077
583	0.076
584	0.075
584	0.072
585	0.071
585	0.07
585	0.069
586	0.069
586	0.069
587	0.068
587	0.067
588	0.065
588	0.064
589	0.063
589	0.063
590	0.062
590	0.062
590	0.062
591	0.061
591	0.06
592	0.059
592	0.059
593	0.058
593	0.057
594	0.057
594	0.056
594	0.055
595	0.054
595	0.054
596	0.053
596	0.054
597	0.054
597	0.055
598	0.055
598	0.057
598	0.057
599	0.058
599	0.058
600	0.057
600	0.057
601	0.056
601	0.055
602	0.054
602	0.054
602	0.053
603	0.053
603	0.053
604	0.054
604	0.055
605	0.056
605	0.057
606	0.058
606	0.058
606	0.058
607	0.058
607	0.058
608	0.057
608	0.056
609	0.056
609	0.055
610	0.055
610	0.054
610	0.055
611	0.055
611	0.057
612	0.058
612	0.059
613	0.06
613	0.061
614	0.061
614	0.06
614	0.06
615	0.06
615	0.059
616	0.058
616	0.057
617	0.056
617	0.056
618	0.055
618	0.054
618	0.054
619	0.054
619	0.055
620	0.056
620	0.057
621	0.058
621	0.058
622	0.059
622	0.059
622	0.06
623	0.06
623	0.06
624	0.06
624	0.06
625	0.06
625	0.06
626	0.06
626	0.06
626	0.061
627	0.061
627	0.061
628	0.062
628	0.063
629	0.063
629	0.063
630	0.063
630	0.064
630	0.064
631	0.065
631	0.066
632	0.066
632	0.068
633	0.069
633	0.07
634	0.072
634	0.074
634	0.075
635	0.077
635	0.078
636	0.078
636	0.079
637	0.08
637	0.08
638	0.08
638	0.081
638	0.082
639	0.082
639	0.083
640	0.084
640	0.085
641	0.086
641	0.088
642	0.09
642	0.091
642	0.093
643	0.095
643	0.096
644	0.098
644	0.1
645	0.102
645	0.104
646	0.106
646	0.108
646	0.11
647	0.113
647	0.115
648	0.117
648	0.119
649	0.121
649	0.123
650	0.125
650	0.128
650	0.13
651	0.132
651	0.134
652	0.136
652	0.138
653	0.14
653	0.145
653	0.145
654	0.117
654	0.095
655	0.099
655	0.101
656	0.103
656	0.104
657	0.106
657	0.107
657	0.108
658	0.107
658	0.105
659	0.133
659	0.173
660	0.175
660	0.177
661	0.179
661	0.182
661	0.185
662	0.188
662	0.192
663	0.195
663	0.198
664	0.201
664	0.203
665	0.206
665	0.208
665	0.21
666	0.212
666	0.213
667	0.215
667	0.216
668	0.219
668	0.221
669	0.224
669	0.227
669	0.23
670	0.234
670	0.237
671	0.239
671	0.241
672	0.244
672	0.245
672	0.247
673	0.249
673	0.25
674	0.251
674	0.253
675	0.253
675	0.255
676	0.257
676	0.258
676	0.259
677	0.261
677	0.262
678	0.264
678	0.265
679	0.266
679	0.267
680	0.268
680	0.269
680	0.271
681	0.271
681	0.272
682	0.274
682	0.275
683	0.276
683	0.278
684	0.279
684	0.28
684	0.28
685	0.281
685	0.281
686	0.282
686	0.283
687	0.283
687	0.283
687	0.283
688	0.283
688	0.282
689	0.282
689	0.282
690	0.281
690	0.28
691	0.279
691	0.279
691	0.278
692	0.277
692	0.276
693	0.275
693	0.274
694	0.273
694	0.271
695	0.27
695	0.27
695	0.27
696	0.269
696	0.268
697	0.266
697	0.265
698	0.264
698	0.263
698	0.262
699	0.261
699	0.259
700	0.256
700	0.255
701	0.253
701	0.252
702	0.251
702	0.249
702	0.248
703	0.246
703	0.245
704	0.243
704	0.242
705	0.241
705	0.239
705	0.238
706	0.236
706	0.235
707	0.233
707	0.231
708	0.229
708	0.227
709	0.225
709	0.223
709	0.221
710	0.218
710	0.216
711	0.214
711	0.212
712	0.21
712	0.208
713	0.206
713	0.205
713	0.203
714	0.2
714	0.198
715	0.196
715	0.194
716	0.192
716	0.19
716	0.188
717	0.186
717	0.184
718	0.182
718	0.179
719	0.178
719	0.176
720	0.174
720	0.172
720	0.169
721	0.167
721	0.164
722	0.162
722	0.16
723	0.158
723	0.156
723	0.154
724	0.151
724	0.149
725	0.147
725	0.145
726	0.143
726	0.141
727	0.139
727	0.137
727	0.135
728	0.133
728	0.131
729	0.13
729	0.129
730	0.128
730	0.126
730	0.124
731	0.122
731	0.121
732	0.119
732	0.118
733	0.116
733	0.114
734	0.112
734	0.111
734	0.109
735	0.108
735	0.106
736	0.105
736	0.103
737	0.102
737	0.101
737	0.1
738	0.099
738	0.097
739	0.095
739	0.094
740	0.092
740	0.091
741	0.09
741	0.088
741	0.085
742	0.082
742	0.079
743	0.077
743	0.074
744	0.072
744	0.07
744	0.068
745	0.065
745	0.063
746	0.062
746	0.061
747	0.06
747	0.059
748	0.058
748	0.057
748	0.056
749	0.055
749	0.055
750	0.054
750	0.054
751	0.053
751	0.053
751	0.053
752	0.053
752	0.052
753	0.051
753	0.051
754	0.05
754	0.049
754	0.049
755	0.048
755	0.047
756	0.046
756	0.044
757	0.043
757	0.042
758	0.04
758	0.039
758	0.038
759	0.037
759	0.035
760	0.033
760	0.031
761	0.03
761	0.029
761	0.028
762	0.026
762	0.026
763	0.026
763	0.025
764	0.024
764	0.023
764	0.022
765	0.02
765	0.019
766	0.018
766	0.017
767	0.017
767	0.015
768	0.013
768	0.011
768	0.009
769	0.007
769	0.006
770	0.004
770	0.002
771	0
771	-0.003
771	-0.005
772	-0.008
772	-0.01
773	-0.012
773	-0.015
774	-0.017
774	-0.019
775	-0.022
775	-0.024
775	-0.027
776	-0.029
776	-0.032
777	-0.035
777	-0.038
778	-0.04
778	-0.043
778	-0.047
779	-0.049
779	-0.052
780	-0.055
780	-0.059
781	-0.063
781	-0.068
781	-0.073
782	-0.079
782	-0.085
783	-0.09
783	-0.096
784	-0.102
784	-0.109
784	-0.116
785	-0.122
785	-0.129
786	-0.134
786	-0.136
787	-0.135
787	-0.136
788	-0.14
788	-0.144
788	-0.147
789	-0.151
789	-0.152
790	-0.15
790	-0.15
791	-0.151
791	-0.152
791	-0.155
792	-0.15
792	-0.139
793	-0.133
793	-0.129
794	-0.127
794	-0.13
794	-0.134
795	-0.136
795	-0.136
796	-0.137
796	-0.14
797	-0.149
797	-0.16
797	-0.166
798	-0.172
798	-0.174
799	-0.175
799	-0.174
800	-0.173
800	-0.175
801	-0.178
801	-0.178
801	-0.179
802	-0.18
802	-0.182
803	-0.182
803	-0.183
804	-0.182
804	-0.176
804	-0.17
805	-0.166
805	-0.164
806	-0.162
806	-0.161
807	-0.16
807	-0.159
807	-0.159
808	-0.159
808	-0.16
809	-0.165
809	-0.171
810	-0.175
810	-0.178
810	-0.181
811	-0.185
811	-0.185
812	-0.181
812	-0.178
813	-0.178
813	-0.179
813	-0.179
814	-0.18
814	-0.179
815	-0.176
815	-0.172
816	-0.168
816	-0.165
817	-0.164
817	-0.161
817	-0.155
818	-0.147
818	-0.137
819	-0.127
819	-0.118
820	-0.111
820	-0.103
820	-0.095
821	-0.088
821	-0.081
822	-0.075
822	-0.071
823	-0.066
823	-0.063
823	-0.061
824	-0.057
824	-0.054
825	-0.05
825	-0.046
826	-0.043
826	-0.041
826	-0.039
827	-0.037
827	-0.035
828	-0.033
828	-0.032
829	-0.03
829	-0.029
829	-0.029
830	-0.028
830	-0.027
831	-0.026
831	-0.024
832	-0.023
832	-0.022
832	-0.021
833	-0.019
833	-0.018
834	-0.017
834	-0.015
835	-0.014
835	-0.013
835	-0.012
836	-0.011
836	-0.01
837	-0.01
837	-0.01
838	-0.009
838	-0.009
839	-0.009
839	-0.01
839	-0.01
840	-0.01
840	-0.011
841	-0.011
841	-0.011
842	-0.012
842	-0.012
842	-0.012
843	-0.012
843	-0.012
844	-0.011
844	-0.011
845	-0.01
845	-0.01
845	-0.009
846	-0.009
846	-0.008
847	-0.008
847	-0.008
848	-0.008
848	-0.009
848	-0.009
849	-0.01
849	-0.01
850	-0.011
850	-0.012
851	-0.012
851	-0.013
851	-0.013
852	-0.013
852	-0.012
853	-0.012
853	-0.011
854	-0.01
854	-0.01
854	-0.009
855	-0.008
855	-0.008
856	-0.008
856	-0.007
857	-0.007
857	-0.007
857	-0.007
858	-0.007
858	-0.007
859	-0.007
859	-0.007
860	-0.008
860	-0.008
860	-0.008
861	-0.008
861	-0.008
862	-0.009
862	-0.009
863	-0.009
863	-0.009
863	-0.009
864	-0.009
864	-0.008
865	-0.007
865	-0.007
866	-0.006
866	-0.005
866	-0.004
867	-0.003
867	-0.003
868	-0.002
868	-0.001
869	0
869	0
869	0.001
870	0.001
870	0.001
871	0.001
871	0
872	0
872	-0
872	-0.001
873	-0.001
873	-0.001
874	-0.001
874	-0
875	-0
875	0
875	0.001
876	0.001
876	0.001
877	0.001
877	0.001
878	0.001
878	0.002
878	0.002
879	0.002
879	0.002
880	0.002
880	0.002
881	0.002
881	0.002
881	0.002
882	0.002
882	0.001
883	0.001
883	0.001
884	0
884	-0
884	-0
885	-0
885	0
886	0
886	0.001
887	0.001
887	0.001
887	0.001
888	0.001
888	0
889	0
889	0
890	-0
890	-0.001
890	-0.001
891	-0.002
891	-0.002
892	-0.003
892	-0.003
893	-0.004
893	-0.004
893	-0.004
894	-0.005
894	-0.005
895	-0.005
895	-0.006
895	-0.006
896	-0.006
896	-0.006
897	-0.006
897	-0.006
898	-0.006
898	-0.006
898	-0.005
899	-0.005
899	-0.004
900	-0.004
900	-0.003
901	-0.002
901	-0.001
901	-0.001
902	-0
902	-0
903	0
903	0
904	0.001
904	0
904	0
905	0
905	0
906	0
906	0
907	0
907	0
907	0.001
908	0.001
908	0.001
909	0.001
909	0.001
910	0.001
910	0.002
910	0.002
911	0.003
911	0.004
912	0.004
912	0.005
913	0.005
913	0.006
913	0.006
914	0.006
914	0.006
915	0.005
915	0.005
916	0.004
916	0.003
916	0.002
917	0.001
917	-0
918	-0.001
918	-0.003
918	-0.004
919	-0.004
919	-0.005
920	-0.005
920	-0.005
921	-0.005
921	-0.005
921	-0.005
922	-0.004
922	-0.003
923	-0.001
923	-0
924	0.001
924	0.002
924	0.002
925	0.002
925	0.002
926	0.001
926	0
927	-0.001
927	-0.002
927	-0.003
928	-0.004
928	-0.005
929	-0.006
929	-0.007
930	-0.007
930	-0.006
930	-0.006
931	-0.006
931	-0.005
932	-0.005
932	-0.004
933	-0.004
933	-0.003
933	-0.002
934	-0.002
934	-0.001
935	-0.001
935	-0.001
935	-0
936	-0
936	0
937	0.001
937	0.001
938	0.001
938	0.001
938	0.001
939	0.001
939	0.002
940	0.002
940	0.003
941	0.003
941	0.004
941	0.005
942	0.006
942	0.006
943	0.006
943	0.007
944	0.006
944	0.006
944	0.006
945	0.005
945	0.005
946	0.005
946	0.004
946	0.004
947	0.003
947	0.003
948	0.003
948	0.003
949	0.003
949	0.004
949	0.004
950	0.005
950	0.006
951	0.007
951	0.008
952	0.01
952	0.011
952	0.012
953	0.014
953	0.014
954	0.014
954	0.015
955	0.015
955	0.014
955	0.014
956	0.013
956	0.013
957	0.011
957	0.01
957	0.009
958	0.008
958	0.007
959	0.006
959	0.005
960	0.004
960	0.002
960	0.001
961	0.001
961	-0
962	-0.001
962	-0.001
963	-0.001
963	-0.001
963	-0.001
964	-0
964	0
965	0.001
965	0.002
966	0.002
966	0.003
966	0.004
967	0.005
967	0.006
968	0.006
968	0.006
968	0.007
969	0.007
969	0.007
970	0.006
970	0.006
971	0.006
971	0.005
971	0.005
972	0.004
972	0.004
973	0.003
973	0.003
974	0.002
974	0.001
974	0.001
975	0
975	-0
976	-0.001
976	-0.002
976	-0.003
977	-0.003
977	-0.004
978	-0.005
978	-0.006
979	-0.007
979	-0.007
979	-0.008
980	-0.008
980	-0.009
981	-0.009
981	-0.009
982	-0.008
982	-0.008
982	-0.007
983	-0.007
983	-0.006
984	-0.005
984	-0.005
984	-0.004
985	-0.004
985	-0.003
986	-0.003
986	-0.003
987	-0.003
987	-0.002
987	-0.001
988	-0.001
988	-0.001
989	-0
989	0
990	0.001
990	0.001
990	0.002
991	0.003
991	0.004
992	0.004
992	0.005
992	0.006
993	0.006
993	0.007
994	0.008
994	0.009
995	0.01
995	0.011
995	0.011
996	0.012
996	0.012
997	0.013
997	0.013
997	0.013
998	0.013
998	0.013
999	0.013
999	0.012
1000	0.012
1000	0.012
1000	0.012
1001	0.011
1001	0.011
1002	0.01
1002	0.01
1003	0.009
1003	0.009
1003	0.008
1004	0.008
1004	0.007
1005	0.007
1005	0.007
1005	0.006
1006	0.006
1006	0.006
1007	0.006
1007	0.005
1008	0.005
1008	0.005
1008	0.006
1009	0.006
1009	0.006
1010	0.006
1010	0.007
1010	0.007
1011	0.007
1011	0.007
1012	0.007
1012	0.008
1013	0.007
1013	0.007
1013	0.007
1014	0.006
1014	0.005
1015	0.005
1015	0.004
1016	0.004
1016	0.003
1016	0.003
1017	0.002
1017	0.002
1018	0.002
1018	0.001
1018	0.001
1019	0.001
1019	0.001
1020	0.001
1020	0
1021	-0
1021	-0
1021	-0.001
1022	-0.001
1022	-0.001
1023	-0.001
1023	-0.001
1023	-0.001
1024	-0.001
1024	-0.001
1025	-0.002
1025	-0.001
1026	-0.001
1026	-0.001
1026	-0.001
1027	-0
1027	0
1028	0
1028	0.001
1028	0.001
1029	0.002
1029	0.002
1030	0.003
1030	0.003
1031	0.004
1031	0.004
1031	0.004
1032	0.004
1032	0.004
1033	0.004
1033	0.003
1033	0.003
1034	0.002
1034	0.002
1035	0.002
1035	0.001
1036	0.001
1036	0.001
1036	0
1037	0
1037	0
1038	0
1038	0
1039	0.001
1039	0
1039	0
1040	0
1040	0
1041	-0
1041	-0.001
1041	-0.001
1042	-0.002
1042	-0.003
1043	-0.004
1043	-0.004
1044	-0.005
1044	-0.005
1044	-0.006
1045	-0.006
1045	-0.006
1046	-0.006
1046	-0.006
1046	-0.005
1047	-0.005
1047	-0.004
1048	-0.002
1048	-0.002
1049	-0.001
1049	-0.001
1049	-0
1050	0
1050	0
1051	0.001
1051	0.001
1051	0
1052	0
1052	-0
1053	-0.001
1053	-0.001
1053	-0.001
1054	-0.001
1054	-0.001
1055	-0.001
1055	-0.001
1056	-0.002
1056	-0.002
1056	-0.002
1057	-0.002
1057	-0.002
1058	-0.002
1058	-0.002
1058	-0.002
1059	-0.002
1059	-0.002
1060	-0.003
1060	-0.003
1061	-0.003
1061	-0.002
1061	-0.002
1062	-0.002
1062	-0.002
1063	-0.002
1063	-0.002
1063	-0.002
1064	-0.002
1064	-0.001
1065	-0.001
1065	-0.001
1066	-0
1066	0
1066	0.001
1067	0.001
1067	0.002
1068	0.002
1068	0.002
1068	0.003
1069	0.002
1069	0.002
1070	0.001
1070	0.001
1071	0.001
1071	0.001
1071	-0
1072	-0
1072	-0
1073	-0
1073	0
1073	0.001
1074	0.001
1074	0.002
1075	0.002
1075	0.003
1076	0.003
1076	0.004
1076	0.004
1077	0.005
1077	0.006
1078	0.006
1078	0.007
1078	0.008
1079	0.009
1079	0.01
1080	0.011
1080	0.011
1080	0.012
1081	0.013
1081	0.015
1082	0.016
1082	0.017
1083	0.019
1083	0.02
1083	0.021
1084	0.023
1084	0.025
1085	0.026
1085	0.028
1085	0.03
1086	0.031
1086	0.032
1087	0.032
1087	0.033
1088	0.033
1088	0.034
1088	0.034
1089	0.034
1089	0.034
1090	0.035
1090	0.035
1090	0.037
1091	0.038
1091	0.04
1092	0.041
1092	0.044
1092	0.046
1093	0.049
1093	0.052
1094	0.055
1094	0.058
1095	0.06
1095	0.063
1095	0.067
1096	0.071
1096	0.074
1097	0.077
1097	0.08
1097	0.084
1098	0.087
1098	0.092
1099	0.096
1099	0.102
1100	0.106
1100	0.11
1100	0.116
1101	0.123
1101	0.13
1102	0.138
1102	0.146
1102	0.154
1103	0.163
1103	0.173
1104	0.184
1104	0.198
1104	0.212
1105	0.225
1105	0.24
1106	0.255
1106	0.272
1107	0.294
1107	0.324
1107	0.359
1108	0.464
1108	0.634
1109	1.047
1109	-0
1109	-0
1110	-0
1110	-0
1111	-0
1111	-0
