Data from 15c-2a_Absorbance__103__00103.txt Node

Date: Wed Jan 17 09:43:51 CET 2024
User: Marek
Spectrometer: MAYP115816
Trigger mode: 0
Integration Time (sec): 2.000000E-1
Scans to average: 10
Electric dark correction enabled: true
Nonlinearity correction enabled: true
Boxcar width: 5
XAxis mode: Wavelengths
Number of Pixels in Spectrum: 2068
>>>>>Begin Spectral Data<<<<<
199	-1.647
199	-1.501
200	-1.338
200	-1.213
201	-1.135
201	-1.086
202	-1.011
202	-0.955
203	-0.905
203	-0.862
204	-0.837
204	-0.813
205	-0.79
205	-0.78
205	-0.777
206	-0.776
206	-0.771
207	-0.769
207	-0.765
208	-0.762
208	-0.761
209	-0.757
209	-0.754
210	-0.753
210	-0.753
211	-0.751
211	-0.75
212	-0.75
212	-0.748
213	-0.747
213	-0.747
213	-0.744
214	-0.742
214	-0.742
215	-0.741
215	-0.739
216	-0.738
216	-0.735
217	-0.73
217	-0.729
218	-0.727
218	-0.724
219	-0.721
219	-0.72
220	-0.716
220	-0.712
221	-0.707
221	-0.703
221	-0.7
222	-0.696
222	-0.692
223	-0.686
223	-0.682
224	-0.676
224	-0.67
225	-0.662
225	-0.654
226	-0.645
226	-0.634
227	-0.62
227	-0.606
228	-0.591
228	-0.573
229	-0.554
229	-0.531
229	-0.506
230	-0.478
230	-0.45
231	-0.417
231	-0.384
232	-0.349
232	-0.312
233	-0.272
233	-0.232
234	-0.192
234	-0.153
235	-0.116
235	-0.079
236	-0.044
236	-0.011
236	0.02
237	0.049
237	0.076
238	0.1
238	0.123
239	0.143
239	0.162
240	0.18
240	0.195
241	0.209
241	0.222
242	0.233
242	0.244
243	0.253
243	0.261
243	0.269
244	0.276
244	0.282
245	0.288
245	0.294
246	0.299
246	0.304
247	0.308
247	0.313
248	0.316
248	0.32
249	0.324
249	0.327
250	0.33
250	0.333
250	0.335
251	0.338
251	0.34
252	0.343
252	0.344
253	0.346
253	0.348
254	0.35
254	0.351
255	0.353
255	0.354
256	0.355
256	0.356
257	0.357
257	0.357
258	0.358
258	0.358
258	0.359
259	0.359
259	0.359
260	0.359
260	0.359
261	0.359
261	0.359
262	0.358
262	0.358
263	0.358
263	0.357
264	0.356
264	0.356
265	0.355
265	0.354
265	0.353
266	0.351
266	0.35
267	0.349
267	0.347
268	0.346
268	0.344
269	0.343
269	0.341
270	0.339
270	0.337
271	0.336
271	0.334
272	0.332
272	0.33
272	0.328
273	0.326
273	0.324
274	0.322
274	0.32
275	0.318
275	0.316
276	0.314
276	0.312
277	0.31
277	0.308
278	0.306
278	0.304
278	0.302
279	0.3
279	0.297
280	0.295
280	0.293
281	0.291
281	0.289
282	0.287
282	0.286
283	0.284
283	0.282
284	0.281
284	0.279
285	0.277
285	0.275
285	0.274
286	0.272
286	0.27
287	0.269
287	0.267
288	0.266
288	0.264
289	0.262
289	0.261
290	0.26
290	0.258
291	0.257
291	0.256
292	0.255
292	0.253
292	0.252
293	0.251
293	0.25
294	0.249
294	0.248
295	0.247
295	0.247
296	0.246
296	0.245
297	0.244
297	0.244
298	0.243
298	0.242
298	0.241
299	0.241
299	0.24
300	0.239
300	0.239
301	0.238
301	0.237
302	0.237
302	0.236
303	0.236
303	0.235
304	0.234
304	0.234
305	0.233
305	0.232
305	0.232
306	0.231
306	0.231
307	0.23
307	0.229
308	0.229
308	0.228
309	0.228
309	0.227
310	0.227
310	0.226
311	0.226
311	0.225
311	0.224
312	0.224
312	0.223
313	0.223
313	0.222
314	0.221
314	0.221
315	0.22
315	0.219
316	0.219
316	0.218
317	0.217
317	0.217
318	0.216
318	0.215
318	0.215
319	0.214
319	0.213
320	0.213
320	0.212
321	0.212
321	0.211
322	0.21
322	0.21
323	0.209
323	0.209
324	0.208
324	0.208
324	0.207
325	0.206
325	0.206
326	0.205
326	0.205
327	0.204
327	0.203
328	0.203
328	0.202
329	0.201
329	0.201
330	0.2
330	0.2
330	0.199
331	0.198
331	0.198
332	0.197
332	0.196
333	0.196
333	0.195
334	0.195
334	0.194
335	0.194
335	0.193
336	0.193
336	0.192
336	0.192
337	0.191
337	0.191
338	0.19
338	0.19
339	0.19
339	0.189
340	0.188
340	0.188
341	0.187
341	0.187
342	0.187
342	0.186
342	0.186
343	0.185
343	0.185
344	0.185
344	0.184
345	0.184
345	0.184
346	0.183
346	0.183
347	0.182
347	0.182
348	0.181
348	0.181
348	0.18
349	0.18
349	0.179
350	0.179
350	0.179
351	0.178
351	0.178
352	0.178
352	0.177
353	0.177
353	0.177
354	0.176
354	0.176
354	0.176
355	0.175
355	0.175
356	0.174
356	0.174
357	0.174
357	0.173
358	0.173
358	0.173
359	0.173
359	0.173
360	0.173
360	0.173
360	0.173
361	0.173
361	0.173
362	0.174
362	0.173
363	0.173
363	0.173
364	0.173
364	0.173
365	0.172
365	0.172
366	0.172
366	0.171
366	0.171
367	0.171
367	0.171
368	0.171
368	0.171
369	0.17
369	0.17
370	0.17
370	0.17
371	0.17
371	0.169
372	0.169
372	0.169
372	0.169
373	0.168
373	0.168
374	0.168
374	0.168
375	0.168
375	0.167
376	0.167
376	0.167
377	0.167
377	0.167
378	0.167
378	0.167
378	0.167
379	0.167
379	0.167
380	0.167
380	0.167
381	0.167
381	0.167
382	0.167
382	0.167
383	0.166
383	0.166
383	0.166
384	0.165
384	0.165
385	0.165
385	0.165
386	0.164
386	0.164
387	0.164
387	0.164
388	0.164
388	0.164
389	0.164
389	0.164
389	0.164
390	0.164
390	0.164
391	0.164
391	0.164
392	0.164
392	0.164
393	0.163
393	0.163
394	0.163
394	0.163
394	0.163
395	0.162
395	0.162
396	0.162
396	0.162
397	0.162
397	0.162
398	0.162
398	0.162
399	0.161
399	0.161
400	0.161
400	0.161
400	0.161
401	0.16
401	0.16
402	0.159
402	0.159
403	0.159
403	0.158
404	0.158
404	0.158
405	0.158
405	0.158
405	0.158
406	0.158
406	0.158
407	0.158
407	0.157
408	0.157
408	0.157
409	0.157
409	0.156
410	0.156
410	0.156
411	0.156
411	0.156
411	0.156
412	0.156
412	0.155
413	0.155
413	0.155
414	0.155
414	0.155
415	0.154
415	0.154
416	0.154
416	0.153
416	0.153
417	0.153
417	0.153
418	0.153
418	0.153
419	0.153
419	0.153
420	0.153
420	0.154
421	0.154
421	0.154
421	0.154
422	0.155
422	0.155
423	0.155
423	0.155
424	0.155
424	0.154
425	0.154
425	0.153
426	0.153
426	0.153
427	0.152
427	0.152
427	0.152
428	0.152
428	0.152
429	0.152
429	0.153
430	0.153
430	0.153
431	0.153
431	0.153
432	0.152
432	0.152
432	0.152
433	0.151
433	0.151
434	0.15
434	0.15
435	0.15
435	0.15
436	0.15
436	0.15
437	0.15
437	0.15
437	0.15
438	0.15
438	0.15
439	0.15
439	0.15
440	0.15
440	0.149
441	0.149
441	0.149
442	0.149
442	0.149
442	0.149
443	0.149
443	0.149
444	0.149
444	0.149
445	0.149
445	0.149
446	0.149
446	0.149
447	0.149
447	0.149
447	0.149
448	0.149
448	0.149
449	0.149
449	0.149
450	0.149
450	0.149
451	0.149
451	0.149
452	0.149
452	0.149
452	0.149
453	0.149
453	0.148
454	0.148
454	0.148
455	0.148
455	0.148
456	0.148
456	0.147
457	0.147
457	0.147
458	0.147
458	0.148
458	0.148
459	0.148
459	0.148
460	0.148
460	0.148
461	0.148
461	0.148
462	0.148
462	0.148
463	0.148
463	0.149
463	0.149
464	0.149
464	0.149
465	0.149
465	0.149
466	0.15
466	0.15
467	0.15
467	0.15
467	0.15
468	0.15
468	0.15
469	0.149
469	0.149
470	0.149
470	0.149
471	0.149
471	0.149
472	0.149
472	0.149
472	0.149
473	0.15
473	0.15
474	0.151
474	0.151
475	0.152
475	0.152
476	0.153
476	0.153
477	0.153
477	0.153
477	0.154
478	0.154
478	0.154
479	0.154
479	0.154
480	0.155
480	0.155
481	0.156
481	0.157
482	0.157
482	0.158
482	0.159
483	0.16
483	0.162
484	0.163
484	0.164
485	0.165
485	0.166
486	0.166
486	0.167
487	0.168
487	0.168
487	0.169
488	0.169
488	0.17
489	0.17
489	0.171
490	0.171
490	0.171
491	0.172
491	0.172
492	0.173
492	0.174
492	0.174
493	0.175
493	0.176
494	0.177
494	0.179
495	0.18
495	0.182
496	0.183
496	0.185
496	0.186
497	0.187
497	0.189
498	0.19
498	0.191
499	0.192
499	0.193
500	0.194
500	0.195
501	0.196
501	0.197
501	0.198
502	0.199
502	0.201
503	0.202
503	0.203
504	0.205
504	0.206
505	0.207
505	0.208
506	0.209
506	0.21
506	0.211
507	0.212
507	0.213
508	0.214
508	0.215
509	0.216
509	0.217
510	0.218
510	0.219
511	0.22
511	0.221
511	0.222
512	0.222
512	0.223
513	0.223
513	0.223
514	0.224
514	0.224
515	0.225
515	0.225
515	0.226
516	0.226
516	0.226
517	0.227
517	0.227
518	0.228
518	0.228
519	0.229
519	0.229
520	0.228
520	0.228
520	0.227
521	0.227
521	0.226
522	0.225
522	0.224
523	0.223
523	0.222
524	0.221
524	0.221
524	0.22
525	0.22
525	0.221
526	0.221
526	0.221
527	0.222
527	0.223
528	0.224
528	0.224
529	0.225
529	0.225
529	0.225
530	0.225
530	0.225
531	0.225
531	0.226
532	0.225
532	0.224
533	0.223
533	0.222
533	0.221
534	0.221
534	0.219
535	0.218
535	0.217
536	0.216
536	0.214
537	0.213
537	0.212
538	0.211
538	0.21
538	0.209
539	0.207
539	0.206
540	0.205
540	0.204
541	0.202
541	0.201
542	0.199
542	0.197
542	0.195
543	0.194
543	0.192
544	0.191
544	0.189
545	0.188
545	0.187
546	0.185
546	0.184
547	0.182
547	0.181
547	0.179
548	0.177
548	0.175
549	0.173
549	0.171
550	0.169
550	0.167
551	0.165
551	0.162
551	0.16
552	0.159
552	0.157
553	0.156
553	0.155
554	0.153
554	0.152
555	0.15
555	0.148
556	0.146
556	0.144
556	0.142
557	0.14
557	0.138
558	0.136
558	0.134
559	0.132
559	0.131
560	0.129
560	0.128
560	0.127
561	0.126
561	0.126
562	0.125
562	0.123
563	0.122
563	0.12
564	0.119
564	0.117
564	0.115
565	0.114
565	0.112
566	0.11
566	0.108
567	0.107
567	0.106
568	0.105
568	0.104
568	0.103
569	0.103
569	0.102
570	0.102
570	0.101
571	0.1
571	0.099
572	0.098
572	0.098
573	0.097
573	0.096
573	0.095
574	0.094
574	0.094
575	0.093
575	0.093
576	0.093
576	0.092
577	0.092
577	0.092
577	0.091
578	0.091
578	0.09
579	0.089
579	0.088
580	0.087
580	0.086
581	0.084
581	0.083
581	0.081
582	0.08
582	0.079
583	0.079
583	0.078
584	0.077
584	0.075
585	0.074
585	0.073
585	0.072
586	0.072
586	0.071
587	0.07
587	0.07
588	0.068
588	0.067
589	0.067
589	0.066
590	0.066
590	0.066
590	0.065
591	0.065
591	0.064
592	0.063
592	0.063
593	0.062
593	0.061
594	0.06
594	0.06
594	0.059
595	0.058
595	0.057
596	0.057
596	0.057
597	0.057
597	0.057
598	0.058
598	0.059
598	0.06
599	0.06
599	0.06
600	0.06
600	0.06
601	0.059
601	0.059
602	0.058
602	0.058
602	0.058
603	0.057
603	0.058
604	0.058
604	0.058
605	0.059
605	0.06
606	0.061
606	0.061
606	0.061
607	0.06
607	0.06
608	0.06
608	0.059
609	0.058
609	0.058
610	0.057
610	0.057
610	0.057
611	0.057
611	0.058
612	0.059
612	0.06
613	0.06
613	0.061
614	0.061
614	0.06
614	0.06
615	0.06
615	0.059
616	0.058
616	0.058
617	0.057
617	0.057
618	0.056
618	0.055
618	0.055
619	0.056
619	0.057
620	0.058
620	0.059
621	0.06
621	0.06
622	0.061
622	0.061
622	0.062
623	0.062
623	0.063
624	0.063
624	0.062
625	0.062
625	0.062
626	0.062
626	0.063
626	0.063
627	0.064
627	0.064
628	0.064
628	0.065
629	0.065
629	0.066
630	0.066
630	0.066
630	0.067
631	0.067
631	0.068
632	0.068
632	0.07
633	0.071
633	0.071
634	0.073
634	0.074
634	0.075
635	0.076
635	0.077
636	0.077
636	0.078
637	0.078
637	0.079
638	0.079
638	0.08
638	0.081
639	0.082
639	0.083
640	0.083
640	0.085
641	0.086
641	0.087
642	0.089
642	0.091
642	0.092
643	0.094
643	0.095
644	0.097
644	0.099
645	0.1
645	0.102
646	0.104
646	0.106
646	0.109
647	0.111
647	0.113
648	0.115
648	0.117
649	0.119
649	0.121
650	0.123
650	0.125
650	0.127
651	0.13
651	0.132
652	0.134
652	0.136
653	0.138
653	0.142
653	0.142
654	0.114
654	0.093
655	0.098
655	0.099
656	0.101
656	0.102
657	0.103
657	0.105
657	0.106
658	0.105
658	0.103
659	0.131
659	0.169
660	0.171
660	0.172
661	0.174
661	0.177
661	0.179
662	0.182
662	0.185
663	0.189
663	0.192
664	0.194
664	0.197
665	0.199
665	0.201
665	0.202
666	0.204
666	0.205
667	0.206
667	0.208
668	0.209
668	0.211
669	0.214
669	0.216
669	0.219
670	0.223
670	0.226
671	0.228
671	0.231
672	0.233
672	0.235
672	0.236
673	0.237
673	0.239
674	0.24
674	0.241
675	0.241
675	0.242
676	0.244
676	0.246
676	0.247
677	0.248
677	0.25
678	0.251
678	0.253
679	0.254
679	0.256
680	0.257
680	0.258
680	0.26
681	0.26
681	0.261
682	0.262
682	0.263
683	0.264
683	0.266
684	0.267
684	0.268
684	0.268
685	0.269
685	0.269
686	0.27
686	0.27
687	0.271
687	0.271
687	0.271
688	0.27
688	0.269
689	0.269
689	0.268
690	0.268
690	0.267
691	0.266
691	0.264
691	0.263
692	0.262
692	0.261
693	0.26
693	0.259
694	0.258
694	0.256
695	0.256
695	0.256
695	0.255
696	0.254
696	0.253
697	0.252
697	0.251
698	0.25
698	0.249
698	0.248
699	0.247
699	0.246
700	0.244
700	0.242
701	0.241
701	0.24
702	0.239
702	0.238
702	0.237
703	0.235
703	0.234
704	0.232
704	0.231
705	0.229
705	0.228
705	0.227
706	0.225
706	0.223
707	0.222
707	0.22
708	0.218
708	0.216
709	0.214
709	0.212
709	0.21
710	0.207
710	0.205
711	0.203
711	0.201
712	0.199
712	0.198
713	0.196
713	0.194
713	0.192
714	0.19
714	0.188
715	0.186
715	0.184
716	0.182
716	0.18
716	0.178
717	0.176
717	0.174
718	0.172
718	0.17
719	0.169
719	0.168
720	0.166
720	0.165
720	0.163
721	0.161
721	0.159
722	0.157
722	0.154
723	0.152
723	0.15
723	0.148
724	0.146
724	0.143
725	0.141
725	0.139
726	0.137
726	0.136
727	0.134
727	0.133
727	0.131
728	0.129
728	0.127
729	0.126
729	0.125
730	0.123
730	0.121
730	0.12
731	0.118
731	0.116
732	0.115
732	0.113
733	0.112
733	0.11
734	0.109
734	0.107
734	0.106
735	0.105
735	0.104
736	0.102
736	0.101
737	0.1
737	0.099
737	0.098
738	0.097
738	0.095
739	0.093
739	0.092
740	0.09
740	0.088
741	0.087
741	0.085
741	0.083
742	0.08
742	0.078
743	0.076
743	0.074
744	0.072
744	0.07
744	0.069
745	0.067
745	0.065
746	0.064
746	0.062
747	0.061
747	0.061
748	0.06
748	0.059
748	0.058
749	0.057
749	0.056
750	0.055
750	0.054
751	0.053
751	0.053
751	0.053
752	0.052
752	0.051
753	0.05
753	0.05
754	0.049
754	0.048
754	0.048
755	0.047
755	0.046
756	0.046
756	0.044
757	0.043
757	0.042
758	0.04
758	0.039
758	0.038
759	0.037
759	0.035
760	0.034
760	0.032
761	0.03
761	0.028
761	0.027
762	0.026
762	0.026
763	0.026
763	0.025
764	0.024
764	0.023
764	0.022
765	0.021
765	0.02
766	0.019
766	0.019
767	0.019
767	0.017
768	0.015
768	0.013
768	0.011
769	0.009
769	0.008
770	0.007
770	0.005
771	0.003
771	-0
771	-0.003
772	-0.006
772	-0.009
773	-0.011
773	-0.014
774	-0.016
774	-0.019
775	-0.022
775	-0.024
775	-0.027
776	-0.03
776	-0.033
777	-0.036
777	-0.039
778	-0.041
778	-0.044
778	-0.047
779	-0.049
779	-0.052
780	-0.055
780	-0.059
781	-0.063
781	-0.068
781	-0.074
782	-0.08
782	-0.087
783	-0.094
783	-0.1
784	-0.107
784	-0.115
784	-0.122
785	-0.129
785	-0.136
786	-0.141
786	-0.142
787	-0.141
787	-0.141
788	-0.144
788	-0.148
788	-0.15
789	-0.153
789	-0.153
790	-0.151
790	-0.15
791	-0.15
791	-0.152
791	-0.155
792	-0.149
792	-0.139
793	-0.133
793	-0.129
794	-0.127
794	-0.129
794	-0.133
795	-0.136
795	-0.136
796	-0.137
796	-0.14
797	-0.149
797	-0.16
797	-0.166
798	-0.171
798	-0.174
799	-0.174
799	-0.174
800	-0.173
800	-0.175
801	-0.177
801	-0.178
801	-0.178
802	-0.18
802	-0.181
803	-0.182
803	-0.182
804	-0.181
804	-0.176
804	-0.17
805	-0.166
805	-0.164
806	-0.162
806	-0.16
807	-0.16
807	-0.159
807	-0.159
808	-0.159
808	-0.16
809	-0.165
809	-0.171
810	-0.175
810	-0.178
810	-0.181
811	-0.184
811	-0.185
812	-0.181
812	-0.178
813	-0.178
813	-0.178
813	-0.179
814	-0.179
814	-0.179
815	-0.175
815	-0.172
816	-0.168
816	-0.165
817	-0.165
817	-0.162
817	-0.156
818	-0.148
818	-0.138
819	-0.128
819	-0.119
820	-0.112
820	-0.104
820	-0.097
821	-0.089
821	-0.082
822	-0.076
822	-0.071
823	-0.066
823	-0.063
823	-0.06
824	-0.056
824	-0.052
825	-0.048
825	-0.044
826	-0.04
826	-0.037
826	-0.034
827	-0.032
827	-0.029
828	-0.027
828	-0.025
829	-0.024
829	-0.022
829	-0.022
830	-0.021
830	-0.021
831	-0.02
831	-0.019
832	-0.018
832	-0.017
832	-0.016
833	-0.015
833	-0.013
834	-0.012
834	-0.01
835	-0.009
835	-0.008
835	-0.006
836	-0.005
836	-0.004
837	-0.004
837	-0.003
838	-0.003
838	-0.003
839	-0.003
839	-0.004
839	-0.005
840	-0.005
840	-0.006
841	-0.006
841	-0.007
842	-0.007
842	-0.007
842	-0.007
843	-0.007
843	-0.007
844	-0.007
844	-0.006
845	-0.005
845	-0.004
845	-0.003
846	-0.002
846	-0.001
847	-0.001
847	-0.001
848	-0.001
848	-0.001
848	-0.001
849	-0.002
849	-0.002
850	-0.003
850	-0.004
851	-0.005
851	-0.005
851	-0.005
852	-0.005
852	-0.005
853	-0.004
853	-0.004
854	-0.003
854	-0.002
854	-0.002
855	-0.001
855	-0.001
856	-0
856	0
857	0.001
857	0.001
857	0.001
858	0.002
858	0.001
859	0.001
859	0.001
860	0.001
860	0.001
860	0
861	-0
861	-0.001
862	-0.001
862	-0.002
863	-0.003
863	-0.003
863	-0.003
864	-0.004
864	-0.003
865	-0.003
865	-0.002
866	-0.002
866	-0.001
866	0
867	0.002
867	0.003
868	0.004
868	0.005
869	0.006
869	0.006
869	0.006
870	0.006
870	0.006
871	0.006
871	0.006
872	0.005
872	0.005
872	0.005
873	0.005
873	0.005
874	0.005
874	0.005
875	0.006
875	0.007
875	0.008
876	0.008
876	0.008
877	0.009
877	0.009
878	0.01
878	0.01
878	0.01
879	0.01
879	0.01
880	0.01
880	0.009
881	0.009
881	0.008
881	0.007
882	0.007
882	0.006
883	0.005
883	0.004
884	0.004
884	0.004
884	0.004
885	0.004
885	0.004
886	0.005
886	0.005
887	0.006
887	0.007
887	0.007
888	0.008
888	0.008
889	0.008
889	0.008
890	0.008
890	0.007
890	0.007
891	0.006
891	0.005
892	0.005
892	0.004
893	0.003
893	0.003
893	0.002
894	0.002
894	0.002
895	0.002
895	0.002
895	0.002
896	0.002
896	0.002
897	0.002
897	0.002
898	0.002
898	0.002
898	0.002
899	0.002
899	0.002
900	0.002
900	0.003
901	0.003
901	0.004
901	0.004
902	0.004
902	0.005
903	0.005
903	0.005
904	0.005
904	0.004
904	0.004
905	0.004
905	0.003
906	0.003
906	0.003
907	0.003
907	0.002
907	0.002
908	0.002
908	0.002
909	0.002
909	0.002
910	0.002
910	0.002
910	0.002
911	0.003
911	0.003
912	0.004
912	0.004
913	0.004
913	0.004
913	0.005
914	0.004
914	0.004
915	0.004
915	0.004
916	0.003
916	0.003
916	0.003
917	0.003
917	0.002
918	0.002
918	0.002
918	0.001
919	0.001
919	0.001
920	0.001
920	0.001
921	0.001
921	0.002
921	0.002
922	0.003
922	0.004
923	0.005
923	0.006
924	0.007
924	0.007
924	0.008
925	0.008
925	0.008
926	0.007
926	0.007
927	0.006
927	0.005
927	0.004
928	0.003
928	0.002
929	0.001
929	0
930	-0.001
930	-0.001
930	-0.002
931	-0.002
931	-0.002
932	-0.002
932	-0.002
933	-0.002
933	-0.001
933	-0.001
934	-0
934	0
935	0.001
935	0.002
935	0.003
936	0.004
936	0.004
937	0.005
937	0.006
938	0.006
938	0.006
938	0.007
939	0.007
939	0.007
940	0.008
940	0.008
941	0.009
941	0.01
941	0.01
942	0.011
942	0.011
943	0.012
943	0.012
944	0.012
944	0.012
944	0.012
945	0.011
945	0.011
946	0.011
946	0.01
946	0.009
947	0.009
947	0.008
948	0.008
948	0.007
949	0.007
949	0.007
949	0.007
950	0.008
950	0.008
951	0.009
951	0.01
952	0.011
952	0.012
952	0.013
953	0.014
953	0.015
954	0.016
954	0.016
955	0.016
955	0.016
955	0.016
956	0.016
956	0.016
957	0.015
957	0.014
957	0.013
958	0.012
958	0.011
959	0.01
959	0.009
960	0.008
960	0.006
960	0.005
961	0.004
961	0.003
962	0.002
962	0.001
963	0.001
963	0.001
963	0.001
964	0.002
964	0.002
965	0.003
965	0.004
966	0.005
966	0.006
966	0.007
967	0.008
967	0.009
968	0.009
968	0.01
968	0.01
969	0.01
969	0.01
970	0.01
970	0.01
971	0.01
971	0.009
971	0.009
972	0.009
972	0.008
973	0.008
973	0.007
974	0.007
974	0.007
974	0.006
975	0.006
975	0.006
976	0.006
976	0.006
976	0.005
977	0.005
977	0.005
978	0.004
978	0.004
979	0.004
979	0.003
979	0.003
980	0.002
980	0.002
981	0.002
981	0.002
982	0.002
982	0.002
982	0.002
983	0.002
983	0.003
984	0.003
984	0.004
984	0.004
985	0.005
985	0.005
986	0.005
986	0.005
987	0.006
987	0.006
987	0.007
988	0.007
988	0.008
989	0.008
989	0.009
990	0.009
990	0.01
990	0.011
991	0.012
991	0.013
992	0.013
992	0.014
992	0.014
993	0.015
993	0.016
994	0.016
994	0.016
995	0.017
995	0.018
995	0.018
996	0.018
996	0.019
997	0.019
997	0.02
997	0.02
998	0.02
998	0.02
999	0.02
999	0.02
1000	0.02
1000	0.019
1000	0.019
1001	0.018
1001	0.018
1002	0.017
1002	0.016
1003	0.016
1003	0.015
1003	0.015
1004	0.014
1004	0.014
1005	0.013
1005	0.013
1005	0.013
1006	0.013
1006	0.012
1007	0.012
1007	0.012
1008	0.012
1008	0.011
1008	0.011
1009	0.012
1009	0.012
1010	0.012
1010	0.012
1010	0.011
1011	0.011
1011	0.011
1012	0.011
1012	0.011
1013	0.011
1013	0.011
1013	0.01
1014	0.01
1014	0.009
1015	0.009
1015	0.009
1016	0.008
1016	0.008
1016	0.008
1017	0.008
1017	0.007
1018	0.007
1018	0.007
1018	0.007
1019	0.007
1019	0.007
1020	0.007
1020	0.007
1021	0.006
1021	0.006
1021	0.006
1022	0.006
1022	0.005
1023	0.005
1023	0.005
1023	0.005
1024	0.005
1024	0.006
1025	0.006
1025	0.006
1026	0.006
1026	0.006
1026	0.006
1027	0.006
1027	0.007
1028	0.007
1028	0.008
1028	0.008
1029	0.008
1029	0.009
1030	0.009
1030	0.01
1031	0.01
1031	0.011
1031	0.011
1032	0.011
1032	0.011
1033	0.011
1033	0.011
1033	0.011
1034	0.01
1034	0.01
1035	0.009
1035	0.008
1036	0.008
1036	0.007
1036	0.007
1037	0.007
1037	0.006
1038	0.006
1038	0.006
1039	0.006
1039	0.006
1039	0.006
1040	0.006
1040	0.006
1041	0.006
1041	0.006
1041	0.005
1042	0.005
1042	0.005
1043	0.005
1043	0.004
1044	0.004
1044	0.004
1044	0.004
1045	0.004
1045	0.004
1046	0.004
1046	0.004
1046	0.005
1047	0.005
1047	0.005
1048	0.006
1048	0.006
1049	0.006
1049	0.007
1049	0.007
1050	0.007
1050	0.007
1051	0.007
1051	0.007
1051	0.006
1052	0.006
1052	0.005
1053	0.005
1053	0.004
1053	0.004
1054	0.003
1054	0.003
1055	0.003
1055	0.003
1056	0.003
1056	0.003
1056	0.003
1057	0.003
1057	0.004
1058	0.005
1058	0.005
1058	0.006
1059	0.006
1059	0.007
1060	0.008
1060	0.009
1061	0.01
1061	0.01
1061	0.011
1062	0.011
1062	0.012
1063	0.012
1063	0.013
1063	0.014
1064	0.014
1064	0.014
1065	0.015
1065	0.015
1066	0.016
1066	0.016
1066	0.017
1067	0.017
1067	0.018
1068	0.017
1068	0.018
1068	0.018
1069	0.018
1069	0.018
1070	0.018
1070	0.017
1071	0.017
1071	0.017
1071	0.017
1072	0.017
1072	0.017
1073	0.017
1073	0.017
1073	0.017
1074	0.018
1074	0.018
1075	0.019
1075	0.019
1076	0.02
1076	0.021
1076	0.021
1077	0.022
1077	0.022
1078	0.023
1078	0.023
1078	0.024
1079	0.025
1079	0.026
1080	0.027
1080	0.027
1080	0.028
1081	0.029
1081	0.03
1082	0.032
1082	0.033
1083	0.035
1083	0.036
1083	0.038
1084	0.039
1084	0.041
1085	0.043
1085	0.045
1085	0.046
1086	0.047
1086	0.048
1087	0.049
1087	0.05
1088	0.051
1088	0.052
1088	0.053
1089	0.054
1089	0.054
1090	0.056
1090	0.057
1090	0.059
1091	0.061
1091	0.063
1092	0.064
1092	0.066
1092	0.068
1093	0.071
1093	0.074
1094	0.077
1094	0.079
1095	0.082
1095	0.085
1095	0.089
1096	0.092
1096	0.097
1097	0.101
1097	0.106
1097	0.11
1098	0.114
1098	0.119
1099	0.124
1099	0.13
1100	0.137
1100	0.143
1100	0.151
1101	0.159
1101	0.168
1102	0.178
1102	0.189
1102	0.2
1103	0.213
1103	0.228
1104	0.244
1104	0.261
1104	0.279
1105	0.299
1105	0.319
1106	0.342
1106	0.369
1107	0.399
1107	0.441
1107	0.494
1108	0.66
1108	1.021
1109	-0
1109	-0
1109	-0
1110	-0
1110	-0
1111	-0
1111	-0
