Data from 15c-2a_Absorbance__900__00900.txt Node

Date: Wed Jan 17 10:10:25 CET 2024
User: Marek
Spectrometer: MAYP115816
Trigger mode: 0
Integration Time (sec): 2.000000E-1
Scans to average: 10
Electric dark correction enabled: true
Nonlinearity correction enabled: true
Boxcar width: 5
XAxis mode: Wavelengths
Number of Pixels in Spectrum: 2068
>>>>>Begin Spectral Data<<<<<
199	-1.601
199	-1.462
200	-1.302
200	-1.179
201	-1.102
201	-1.055
202	-0.984
202	-0.933
203	-0.887
203	-0.847
204	-0.822
204	-0.799
205	-0.776
205	-0.766
205	-0.765
206	-0.763
206	-0.76
207	-0.757
207	-0.753
208	-0.752
208	-0.751
209	-0.746
209	-0.744
210	-0.742
210	-0.743
211	-0.742
211	-0.741
212	-0.742
212	-0.742
213	-0.741
213	-0.74
213	-0.739
214	-0.738
214	-0.738
215	-0.737
215	-0.735
216	-0.735
216	-0.733
217	-0.728
217	-0.726
218	-0.725
218	-0.722
219	-0.719
219	-0.719
220	-0.715
220	-0.712
221	-0.708
221	-0.705
221	-0.701
222	-0.698
222	-0.693
223	-0.687
223	-0.684
224	-0.679
224	-0.672
225	-0.663
225	-0.656
226	-0.647
226	-0.634
227	-0.621
227	-0.609
228	-0.593
228	-0.576
229	-0.556
229	-0.531
229	-0.505
230	-0.477
230	-0.447
231	-0.413
231	-0.378
232	-0.342
232	-0.303
233	-0.262
233	-0.22
234	-0.179
234	-0.139
235	-0.099
235	-0.061
236	-0.025
236	0.009
236	0.043
237	0.074
237	0.102
238	0.128
238	0.152
239	0.175
239	0.195
240	0.213
240	0.23
241	0.244
241	0.258
242	0.271
242	0.283
243	0.293
243	0.302
243	0.31
244	0.318
244	0.325
245	0.331
245	0.337
246	0.343
246	0.348
247	0.352
247	0.357
248	0.361
248	0.364
249	0.368
249	0.371
250	0.374
250	0.377
250	0.38
251	0.382
251	0.384
252	0.387
252	0.388
253	0.39
253	0.392
254	0.393
254	0.395
255	0.397
255	0.398
256	0.399
256	0.4
257	0.401
257	0.401
258	0.402
258	0.402
258	0.403
259	0.403
259	0.403
260	0.403
260	0.402
261	0.402
261	0.402
262	0.401
262	0.401
263	0.4
263	0.399
264	0.399
264	0.398
265	0.397
265	0.396
265	0.395
266	0.393
266	0.392
267	0.391
267	0.389
268	0.388
268	0.386
269	0.385
269	0.383
270	0.381
270	0.379
271	0.377
271	0.375
272	0.374
272	0.372
272	0.37
273	0.368
273	0.365
274	0.364
274	0.362
275	0.36
275	0.358
276	0.356
276	0.353
277	0.351
277	0.349
278	0.347
278	0.344
278	0.342
279	0.34
279	0.337
280	0.335
280	0.333
281	0.331
281	0.329
282	0.327
282	0.325
283	0.324
283	0.322
284	0.32
284	0.318
285	0.316
285	0.314
285	0.313
286	0.311
286	0.309
287	0.308
287	0.306
288	0.304
288	0.303
289	0.301
289	0.3
290	0.299
290	0.297
291	0.295
291	0.294
292	0.293
292	0.292
292	0.29
293	0.289
293	0.288
294	0.287
294	0.286
295	0.284
295	0.284
296	0.282
296	0.281
297	0.281
297	0.28
298	0.279
298	0.278
298	0.277
299	0.276
299	0.276
300	0.275
300	0.274
301	0.274
301	0.273
302	0.272
302	0.271
303	0.271
303	0.27
304	0.269
304	0.268
305	0.268
305	0.267
305	0.266
306	0.265
306	0.265
307	0.264
307	0.263
308	0.263
308	0.262
309	0.261
309	0.261
310	0.26
310	0.259
311	0.258
311	0.258
311	0.257
312	0.256
312	0.256
313	0.255
313	0.254
314	0.253
314	0.253
315	0.252
315	0.251
316	0.251
316	0.25
317	0.249
317	0.249
318	0.248
318	0.247
318	0.246
319	0.246
319	0.245
320	0.244
320	0.243
321	0.243
321	0.242
322	0.241
322	0.24
323	0.239
323	0.238
324	0.238
324	0.237
324	0.236
325	0.236
325	0.235
326	0.234
326	0.234
327	0.233
327	0.232
328	0.232
328	0.231
329	0.23
329	0.229
330	0.229
330	0.228
330	0.227
331	0.227
331	0.226
332	0.225
332	0.224
333	0.223
333	0.223
334	0.222
334	0.221
335	0.221
335	0.22
336	0.219
336	0.219
336	0.218
337	0.217
337	0.217
338	0.217
338	0.216
339	0.215
339	0.215
340	0.214
340	0.214
341	0.213
341	0.213
342	0.212
342	0.212
342	0.211
343	0.211
343	0.21
344	0.21
344	0.209
345	0.209
345	0.208
346	0.208
346	0.207
347	0.207
347	0.206
348	0.206
348	0.206
348	0.205
349	0.205
349	0.204
350	0.204
350	0.203
351	0.203
351	0.202
352	0.202
352	0.202
353	0.201
353	0.201
354	0.2
354	0.2
354	0.2
355	0.199
355	0.199
356	0.198
356	0.198
357	0.198
357	0.197
358	0.197
358	0.197
359	0.197
359	0.197
360	0.197
360	0.197
360	0.197
361	0.197
361	0.197
362	0.197
362	0.197
363	0.197
363	0.197
364	0.197
364	0.196
365	0.196
365	0.196
366	0.196
366	0.195
366	0.195
367	0.195
367	0.195
368	0.195
368	0.194
369	0.194
369	0.194
370	0.193
370	0.193
371	0.193
371	0.193
372	0.193
372	0.192
372	0.192
373	0.192
373	0.191
374	0.191
374	0.191
375	0.191
375	0.19
376	0.19
376	0.19
377	0.19
377	0.19
378	0.19
378	0.191
378	0.191
379	0.191
379	0.191
380	0.191
380	0.191
381	0.19
381	0.19
382	0.19
382	0.19
383	0.189
383	0.189
383	0.188
384	0.188
384	0.188
385	0.188
385	0.188
386	0.188
386	0.188
387	0.188
387	0.187
388	0.187
388	0.187
389	0.187
389	0.187
389	0.187
390	0.187
390	0.187
391	0.187
391	0.187
392	0.187
392	0.187
393	0.187
393	0.187
394	0.186
394	0.186
394	0.186
395	0.186
395	0.185
396	0.185
396	0.185
397	0.185
397	0.185
398	0.185
398	0.184
399	0.184
399	0.184
400	0.184
400	0.183
400	0.183
401	0.182
401	0.182
402	0.182
402	0.181
403	0.181
403	0.181
404	0.181
404	0.181
405	0.18
405	0.18
405	0.18
406	0.18
406	0.18
407	0.179
407	0.179
408	0.179
408	0.178
409	0.178
409	0.178
410	0.177
410	0.178
411	0.178
411	0.177
411	0.177
412	0.177
412	0.177
413	0.177
413	0.177
414	0.177
414	0.177
415	0.177
415	0.176
416	0.176
416	0.176
416	0.176
417	0.176
417	0.176
418	0.176
418	0.176
419	0.176
419	0.176
420	0.177
420	0.177
421	0.177
421	0.177
421	0.177
422	0.177
422	0.178
423	0.178
423	0.177
424	0.177
424	0.177
425	0.176
425	0.176
426	0.176
426	0.175
427	0.175
427	0.175
427	0.175
428	0.175
428	0.175
429	0.176
429	0.176
430	0.176
430	0.175
431	0.175
431	0.175
432	0.175
432	0.174
432	0.174
433	0.173
433	0.173
434	0.172
434	0.172
435	0.173
435	0.173
436	0.173
436	0.173
437	0.173
437	0.173
437	0.173
438	0.173
438	0.173
439	0.173
439	0.172
440	0.172
440	0.172
441	0.172
441	0.172
442	0.172
442	0.171
442	0.172
443	0.172
443	0.172
444	0.172
444	0.172
445	0.172
445	0.172
446	0.172
446	0.172
447	0.172
447	0.172
447	0.172
448	0.172
448	0.172
449	0.172
449	0.172
450	0.172
450	0.172
451	0.172
451	0.172
452	0.172
452	0.172
452	0.172
453	0.172
453	0.172
454	0.172
454	0.172
455	0.172
455	0.172
456	0.172
456	0.172
457	0.172
457	0.172
458	0.172
458	0.172
458	0.172
459	0.172
459	0.172
460	0.172
460	0.172
461	0.172
461	0.172
462	0.172
462	0.172
463	0.172
463	0.173
463	0.173
464	0.173
464	0.173
465	0.174
465	0.174
466	0.174
466	0.175
467	0.175
467	0.175
467	0.175
468	0.175
468	0.175
469	0.174
469	0.174
470	0.174
470	0.174
471	0.174
471	0.174
472	0.174
472	0.174
472	0.174
473	0.175
473	0.175
474	0.176
474	0.176
475	0.177
475	0.177
476	0.177
476	0.178
477	0.178
477	0.178
477	0.178
478	0.178
478	0.179
479	0.179
479	0.18
480	0.181
480	0.181
481	0.182
481	0.183
482	0.184
482	0.185
482	0.186
483	0.188
483	0.189
484	0.191
484	0.191
485	0.192
485	0.193
486	0.194
486	0.195
487	0.195
487	0.196
487	0.197
488	0.197
488	0.197
489	0.198
489	0.199
490	0.2
490	0.2
491	0.201
491	0.202
492	0.203
492	0.204
492	0.204
493	0.205
493	0.206
494	0.208
494	0.209
495	0.211
495	0.213
496	0.214
496	0.216
496	0.218
497	0.219
497	0.22
498	0.222
498	0.223
499	0.224
499	0.226
500	0.227
500	0.228
501	0.23
501	0.231
501	0.232
502	0.234
502	0.236
503	0.237
503	0.239
504	0.24
504	0.24
505	0.241
505	0.243
506	0.244
506	0.245
506	0.246
507	0.247
507	0.248
508	0.249
508	0.251
509	0.252
509	0.254
510	0.256
510	0.257
511	0.258
511	0.259
511	0.259
512	0.26
512	0.261
513	0.261
513	0.262
514	0.262
514	0.262
515	0.263
515	0.263
515	0.264
516	0.264
516	0.265
517	0.266
517	0.267
518	0.267
518	0.267
519	0.267
519	0.268
520	0.267
520	0.267
520	0.267
521	0.266
521	0.265
522	0.264
522	0.264
523	0.263
523	0.264
524	0.264
524	0.264
524	0.264
525	0.265
525	0.266
526	0.266
526	0.266
527	0.267
527	0.267
528	0.267
528	0.267
529	0.267
529	0.266
529	0.266
530	0.265
530	0.265
531	0.264
531	0.264
532	0.262
532	0.262
533	0.261
533	0.26
533	0.259
534	0.257
534	0.256
535	0.255
535	0.254
536	0.253
536	0.252
537	0.251
537	0.249
538	0.248
538	0.247
538	0.246
539	0.244
539	0.243
540	0.242
540	0.24
541	0.238
541	0.236
542	0.234
542	0.232
542	0.23
543	0.227
543	0.225
544	0.223
544	0.221
545	0.219
545	0.218
546	0.216
546	0.214
547	0.212
547	0.209
547	0.207
548	0.205
548	0.203
549	0.201
549	0.199
550	0.197
550	0.195
551	0.192
551	0.19
551	0.188
552	0.187
552	0.185
553	0.183
553	0.182
554	0.18
554	0.178
555	0.175
555	0.173
556	0.17
556	0.168
556	0.166
557	0.163
557	0.161
558	0.159
558	0.156
559	0.154
559	0.153
560	0.151
560	0.15
560	0.149
561	0.148
561	0.147
562	0.145
562	0.143
563	0.141
563	0.139
564	0.137
564	0.134
564	0.132
565	0.129
565	0.127
566	0.125
566	0.122
567	0.121
567	0.12
568	0.119
568	0.118
568	0.117
569	0.117
569	0.117
570	0.116
570	0.115
571	0.114
571	0.113
572	0.112
572	0.111
573	0.11
573	0.109
573	0.107
574	0.107
574	0.106
575	0.105
575	0.105
576	0.104
576	0.102
577	0.101
577	0.1
577	0.1
578	0.099
578	0.098
579	0.098
579	0.098
580	0.096
580	0.093
581	0.09
581	0.089
581	0.088
582	0.087
582	0.086
583	0.086
583	0.084
584	0.081
584	0.078
585	0.077
585	0.077
585	0.077
586	0.076
586	0.076
587	0.075
587	0.073
588	0.072
588	0.071
589	0.071
589	0.071
590	0.071
590	0.071
590	0.072
591	0.072
591	0.071
592	0.071
592	0.07
593	0.069
593	0.069
594	0.068
594	0.067
594	0.066
595	0.065
595	0.064
596	0.063
596	0.064
597	0.066
597	0.066
598	0.067
598	0.068
598	0.068
599	0.069
599	0.069
600	0.068
600	0.067
601	0.066
601	0.065
602	0.064
602	0.063
602	0.063
603	0.062
603	0.063
604	0.064
604	0.065
605	0.066
605	0.067
606	0.068
606	0.067
606	0.067
607	0.067
607	0.067
608	0.066
608	0.064
609	0.064
609	0.064
610	0.063
610	0.062
610	0.063
611	0.064
611	0.066
612	0.067
612	0.068
613	0.07
613	0.071
614	0.07
614	0.069
614	0.068
615	0.068
615	0.067
616	0.066
616	0.065
617	0.064
617	0.063
618	0.061
618	0.061
618	0.06
619	0.061
619	0.062
620	0.063
620	0.064
621	0.065
621	0.065
622	0.065
622	0.066
622	0.066
623	0.066
623	0.067
624	0.067
624	0.067
625	0.067
625	0.067
626	0.067
626	0.067
626	0.068
627	0.069
627	0.07
628	0.071
628	0.071
629	0.072
629	0.072
630	0.072
630	0.073
630	0.074
631	0.075
631	0.075
632	0.076
632	0.077
633	0.078
633	0.08
634	0.081
634	0.083
634	0.084
635	0.085
635	0.086
636	0.087
636	0.088
637	0.089
637	0.089
638	0.09
638	0.091
638	0.092
639	0.093
639	0.094
640	0.095
640	0.097
641	0.098
641	0.1
642	0.101
642	0.104
642	0.105
643	0.107
643	0.109
644	0.111
644	0.113
645	0.115
645	0.117
646	0.12
646	0.123
646	0.126
647	0.128
647	0.131
648	0.133
648	0.135
649	0.137
649	0.139
650	0.141
650	0.143
650	0.145
651	0.147
651	0.149
652	0.151
652	0.153
653	0.155
653	0.162
653	0.171
654	0.136
654	0.111
655	0.114
655	0.115
656	0.117
656	0.118
657	0.12
657	0.121
657	0.122
658	0.12
658	0.112
659	0.143
659	0.186
660	0.192
660	0.194
661	0.196
661	0.199
661	0.202
662	0.206
662	0.209
663	0.213
663	0.216
664	0.219
664	0.222
665	0.225
665	0.228
665	0.23
666	0.233
666	0.235
667	0.237
667	0.239
668	0.241
668	0.244
669	0.247
669	0.25
669	0.253
670	0.257
670	0.259
671	0.262
671	0.264
672	0.266
672	0.268
672	0.27
673	0.272
673	0.274
674	0.274
674	0.275
675	0.276
675	0.277
676	0.279
676	0.28
676	0.281
677	0.283
677	0.285
678	0.286
678	0.288
679	0.29
679	0.291
680	0.293
680	0.295
680	0.297
681	0.298
681	0.299
682	0.3
682	0.301
683	0.302
683	0.303
684	0.304
684	0.304
684	0.304
685	0.304
685	0.304
686	0.305
686	0.305
687	0.305
687	0.305
687	0.305
688	0.305
688	0.305
689	0.305
689	0.306
690	0.305
690	0.305
691	0.304
691	0.303
691	0.302
692	0.301
692	0.3
693	0.299
693	0.298
694	0.296
694	0.294
695	0.294
695	0.294
695	0.294
696	0.293
696	0.292
697	0.291
697	0.29
698	0.288
698	0.287
698	0.286
699	0.285
699	0.283
700	0.28
700	0.279
701	0.277
701	0.276
702	0.274
702	0.272
702	0.271
703	0.269
703	0.266
704	0.264
704	0.263
705	0.261
705	0.259
705	0.257
706	0.256
706	0.254
707	0.253
707	0.25
708	0.248
708	0.246
709	0.244
709	0.242
709	0.239
710	0.235
710	0.232
711	0.23
711	0.227
712	0.224
712	0.222
713	0.22
713	0.218
713	0.216
714	0.213
714	0.211
715	0.21
715	0.208
716	0.206
716	0.205
716	0.204
717	0.202
717	0.201
718	0.2
718	0.198
719	0.197
719	0.195
720	0.193
720	0.191
720	0.189
721	0.186
721	0.184
722	0.181
722	0.179
723	0.177
723	0.175
723	0.173
724	0.171
724	0.169
725	0.166
725	0.164
726	0.161
726	0.159
727	0.156
727	0.154
727	0.151
728	0.149
728	0.146
729	0.144
729	0.143
730	0.141
730	0.139
730	0.137
731	0.135
731	0.134
732	0.132
732	0.13
733	0.128
733	0.126
734	0.124
734	0.121
734	0.119
735	0.118
735	0.117
736	0.115
736	0.114
737	0.114
737	0.114
737	0.113
738	0.111
738	0.109
739	0.108
739	0.106
740	0.103
740	0.101
741	0.098
741	0.095
741	0.092
742	0.088
742	0.085
743	0.083
743	0.08
744	0.079
744	0.078
744	0.076
745	0.074
745	0.072
746	0.071
746	0.07
747	0.069
747	0.069
748	0.068
748	0.067
748	0.066
749	0.064
749	0.063
750	0.062
750	0.061
751	0.06
751	0.06
751	0.06
752	0.059
752	0.058
753	0.057
753	0.057
754	0.057
754	0.056
754	0.056
755	0.056
755	0.056
756	0.055
756	0.053
757	0.052
757	0.052
758	0.05
758	0.049
758	0.048
759	0.047
759	0.045
760	0.042
760	0.04
761	0.038
761	0.037
761	0.035
762	0.034
762	0.033
763	0.032
763	0.03
764	0.029
764	0.027
764	0.025
765	0.024
765	0.022
766	0.021
766	0.02
767	0.019
767	0.017
768	0.015
768	0.014
768	0.013
769	0.012
769	0.011
770	0.01
770	0.008
771	0.006
771	0.003
771	0.001
772	-0.001
772	-0.004
773	-0.006
773	-0.009
774	-0.012
774	-0.015
775	-0.017
775	-0.019
775	-0.022
776	-0.025
776	-0.028
777	-0.03
777	-0.032
778	-0.035
778	-0.038
778	-0.04
779	-0.042
779	-0.043
780	-0.046
780	-0.049
781	-0.051
781	-0.055
781	-0.059
782	-0.064
782	-0.069
783	-0.074
783	-0.079
784	-0.085
784	-0.091
784	-0.097
785	-0.104
785	-0.11
786	-0.116
786	-0.12
787	-0.121
787	-0.123
788	-0.128
788	-0.134
788	-0.139
789	-0.144
789	-0.147
790	-0.147
790	-0.148
791	-0.151
791	-0.152
791	-0.155
792	-0.15
792	-0.139
793	-0.133
793	-0.129
794	-0.127
794	-0.13
794	-0.134
795	-0.136
795	-0.136
796	-0.137
796	-0.14
797	-0.149
797	-0.16
797	-0.166
798	-0.172
798	-0.174
799	-0.175
799	-0.174
800	-0.173
800	-0.175
801	-0.178
801	-0.178
801	-0.179
802	-0.18
802	-0.182
803	-0.182
803	-0.183
804	-0.182
804	-0.176
804	-0.17
805	-0.166
805	-0.164
806	-0.162
806	-0.161
807	-0.16
807	-0.159
807	-0.159
808	-0.159
808	-0.16
809	-0.165
809	-0.171
810	-0.175
810	-0.178
810	-0.182
811	-0.185
811	-0.185
812	-0.181
812	-0.178
813	-0.178
813	-0.179
813	-0.179
814	-0.18
814	-0.179
815	-0.176
815	-0.172
816	-0.168
816	-0.165
817	-0.165
817	-0.162
817	-0.156
818	-0.148
818	-0.138
819	-0.128
819	-0.119
820	-0.112
820	-0.104
820	-0.096
821	-0.088
821	-0.082
822	-0.076
822	-0.071
823	-0.067
823	-0.064
823	-0.062
824	-0.059
824	-0.056
825	-0.053
825	-0.05
826	-0.047
826	-0.046
826	-0.044
827	-0.042
827	-0.041
828	-0.039
828	-0.038
829	-0.036
829	-0.035
829	-0.034
830	-0.034
830	-0.033
831	-0.031
831	-0.029
832	-0.028
832	-0.026
832	-0.024
833	-0.023
833	-0.021
834	-0.019
834	-0.017
835	-0.016
835	-0.014
835	-0.013
836	-0.013
836	-0.012
837	-0.011
837	-0.011
838	-0.011
838	-0.01
839	-0.01
839	-0.01
839	-0.01
840	-0.01
840	-0.01
841	-0.01
841	-0.01
842	-0.009
842	-0.009
842	-0.009
843	-0.009
843	-0.009
844	-0.009
844	-0.009
845	-0.008
845	-0.008
845	-0.008
846	-0.007
846	-0.007
847	-0.007
847	-0.007
848	-0.007
848	-0.007
848	-0.007
849	-0.007
849	-0.008
850	-0.008
850	-0.009
851	-0.009
851	-0.01
851	-0.01
852	-0.01
852	-0.01
853	-0.009
853	-0.009
854	-0.008
854	-0.008
854	-0.007
855	-0.007
855	-0.007
856	-0.007
856	-0.007
857	-0.007
857	-0.007
857	-0.007
858	-0.007
858	-0.008
859	-0.009
859	-0.009
860	-0.009
860	-0.009
860	-0.009
861	-0.009
861	-0.008
862	-0.008
862	-0.008
863	-0.008
863	-0.008
863	-0.008
864	-0.008
864	-0.007
865	-0.007
865	-0.006
866	-0.005
866	-0.004
866	-0.003
867	-0.002
867	-0
868	0.001
868	0.002
869	0.004
869	0.004
869	0.005
870	0.005
870	0.004
871	0.003
871	0.002
872	0.001
872	-0.001
872	-0.002
873	-0.003
873	-0.005
874	-0.006
874	-0.006
875	-0.006
875	-0.006
875	-0.005
876	-0.004
876	-0.003
877	-0.002
877	-0.001
878	0
878	0.002
878	0.003
879	0.004
879	0.005
880	0.005
880	0.006
881	0.006
881	0.006
881	0.006
882	0.006
882	0.006
883	0.005
883	0.005
884	0.004
884	0.004
884	0.003
885	0.003
885	0.003
886	0.003
886	0.003
887	0.003
887	0.003
887	0.003
888	0.003
888	0.003
889	0.003
889	0.003
890	0.002
890	0.002
890	0.001
891	0.001
891	0
892	-0.001
892	-0.001
893	-0.002
893	-0.003
893	-0.004
894	-0.004
894	-0.005
895	-0.006
895	-0.007
895	-0.008
896	-0.009
896	-0.009
897	-0.009
897	-0.009
898	-0.009
898	-0.009
898	-0.008
899	-0.008
899	-0.007
900	-0.006
900	-0.005
901	-0.005
901	-0.004
901	-0.003
902	-0.003
902	-0.003
903	-0.002
903	-0.002
904	-0.002
904	-0.002
904	-0.002
905	-0.002
905	-0.001
906	-0.001
906	-0
907	0
907	0.001
907	0.002
908	0.003
908	0.004
909	0.004
909	0.005
910	0.005
910	0.005
910	0.005
911	0.006
911	0.006
912	0.006
912	0.006
913	0.006
913	0.006
913	0.006
914	0.006
914	0.005
915	0.004
915	0.002
916	0.001
916	-0.001
916	-0.002
917	-0.004
917	-0.005
918	-0.006
918	-0.007
918	-0.007
919	-0.007
919	-0.007
920	-0.006
920	-0.005
921	-0.005
921	-0.004
921	-0.003
922	-0.002
922	-0.002
923	-0.001
923	-0
924	-0
924	-0
924	-0.001
925	-0.001
925	-0.001
926	-0.001
926	-0.002
927	-0.002
927	-0.003
927	-0.003
928	-0.003
928	-0.003
929	-0.003
929	-0.003
930	-0.003
930	-0.002
930	-0.002
931	-0.002
931	-0.001
932	-0
932	0
933	0.001
933	0.001
933	0.002
934	0.002
934	0.003
935	0.003
935	0.003
935	0.004
936	0.004
936	0.004
937	0.003
937	0.003
938	0.003
938	0.002
938	0.002
939	0.001
939	0.001
940	0
940	-0.001
941	-0.001
941	-0.001
941	-0.001
942	-0.001
942	-0.001
943	-0.001
943	-0.001
944	-0.001
944	-0.001
944	-0.001
945	-0.001
945	-0.001
946	-0.001
946	-0.001
946	-0.002
947	-0.002
947	-0.002
948	-0.003
948	-0.003
949	-0.003
949	-0.003
949	-0.003
950	-0.003
950	-0.003
951	-0.003
951	-0.002
952	-0.002
952	-0.002
952	-0.002
953	-0.001
953	-0.002
954	-0.002
954	-0.002
955	-0.003
955	-0.003
955	-0.003
956	-0.004
956	-0.004
957	-0.005
957	-0.005
957	-0.006
958	-0.006
958	-0.007
959	-0.008
959	-0.009
960	-0.009
960	-0.01
960	-0.011
961	-0.012
961	-0.013
962	-0.013
962	-0.014
963	-0.014
963	-0.013
963	-0.013
964	-0.012
964	-0.011
965	-0.01
965	-0.009
966	-0.007
966	-0.006
966	-0.005
967	-0.004
967	-0.003
968	-0.002
968	-0.002
968	-0.001
969	-0.001
969	-0.001
970	-0.002
970	-0.002
971	-0.002
971	-0.003
971	-0.003
972	-0.003
972	-0.003
973	-0.003
973	-0.003
974	-0.003
974	-0.003
974	-0.003
975	-0.003
975	-0.003
976	-0.003
976	-0.003
976	-0.003
977	-0.004
977	-0.004
978	-0.005
978	-0.006
979	-0.006
979	-0.007
979	-0.008
980	-0.009
980	-0.01
981	-0.011
981	-0.011
982	-0.011
982	-0.011
982	-0.011
983	-0.011
983	-0.011
984	-0.01
984	-0.01
984	-0.009
985	-0.008
985	-0.008
986	-0.008
986	-0.008
987	-0.008
987	-0.008
987	-0.008
988	-0.008
988	-0.008
989	-0.008
989	-0.008
990	-0.008
990	-0.007
990	-0.006
991	-0.005
991	-0.004
992	-0.003
992	-0.002
992	-0.002
993	-0.001
993	-0
994	0.001
994	0.001
995	0.001
995	0.001
995	0.001
996	0.001
996	0.001
997	0.001
997	0
997	0
998	0
998	0
999	0
999	0.001
1000	0.001
1000	0.002
1000	0.002
1001	0.002
1001	0.003
1002	0.004
1002	0.004
1003	0.004
1003	0.005
1003	0.005
1004	0.005
1004	0.004
1005	0.004
1005	0.004
1005	0.003
1006	0.002
1006	0.002
1007	0.001
1007	0
1008	-0
1008	-0.001
1008	-0.001
1009	-0.001
1009	-0.001
1010	-0
1010	-0
1010	-0
1011	-0
1011	0
1012	0
1012	0
1013	0
1013	-0
1013	-0.001
1014	-0.001
1014	-0.002
1015	-0.002
1015	-0.002
1016	-0.003
1016	-0.003
1016	-0.004
1017	-0.004
1017	-0.004
1018	-0.004
1018	-0.004
1018	-0.004
1019	-0.005
1019	-0.005
1020	-0.005
1020	-0.005
1021	-0.005
1021	-0.005
1021	-0.005
1022	-0.005
1022	-0.005
1023	-0.005
1023	-0.005
1023	-0.005
1024	-0.006
1024	-0.006
1025	-0.006
1025	-0.006
1026	-0.007
1026	-0.007
1026	-0.007
1027	-0.007
1027	-0.007
1028	-0.007
1028	-0.007
1028	-0.006
1029	-0.006
1029	-0.006
1030	-0.006
1030	-0.006
1031	-0.006
1031	-0.005
1031	-0.005
1032	-0.005
1032	-0.005
1033	-0.006
1033	-0.006
1033	-0.007
1034	-0.008
1034	-0.009
1035	-0.009
1035	-0.011
1036	-0.012
1036	-0.013
1036	-0.013
1037	-0.014
1037	-0.015
1038	-0.015
1038	-0.015
1039	-0.014
1039	-0.014
1039	-0.014
1040	-0.013
1040	-0.013
1041	-0.013
1041	-0.013
1041	-0.013
1042	-0.014
1042	-0.014
1043	-0.015
1043	-0.016
1044	-0.017
1044	-0.017
1044	-0.018
1045	-0.018
1045	-0.019
1046	-0.019
1046	-0.019
1046	-0.018
1047	-0.018
1047	-0.017
1048	-0.016
1048	-0.016
1049	-0.015
1049	-0.015
1049	-0.015
1050	-0.015
1050	-0.015
1051	-0.015
1051	-0.015
1051	-0.015
1052	-0.015
1052	-0.015
1053	-0.015
1053	-0.015
1053	-0.015
1054	-0.015
1054	-0.014
1055	-0.014
1055	-0.014
1056	-0.015
1056	-0.015
1056	-0.016
1057	-0.017
1057	-0.017
1058	-0.018
1058	-0.018
1058	-0.019
1059	-0.02
1059	-0.021
1060	-0.021
1060	-0.021
1061	-0.021
1061	-0.021
1061	-0.021
1062	-0.021
1062	-0.021
1063	-0.021
1063	-0.022
1063	-0.021
1064	-0.021
1064	-0.021
1065	-0.021
1065	-0.022
1066	-0.022
1066	-0.022
1066	-0.022
1067	-0.023
1067	-0.023
1068	-0.023
1068	-0.024
1068	-0.024
1069	-0.025
1069	-0.026
1070	-0.027
1070	-0.027
1071	-0.027
1071	-0.028
1071	-0.029
1072	-0.029
1072	-0.029
1073	-0.03
1073	-0.029
1073	-0.029
1074	-0.028
1074	-0.028
1075	-0.028
1075	-0.028
1076	-0.029
1076	-0.028
1076	-0.029
1077	-0.029
1077	-0.028
1078	-0.028
1078	-0.028
1078	-0.026
1079	-0.026
1079	-0.024
1080	-0.023
1080	-0.022
1080	-0.021
1081	-0.02
1081	-0.019
1082	-0.018
1082	-0.017
1083	-0.016
1083	-0.016
1083	-0.015
1084	-0.015
1084	-0.013
1085	-0.012
1085	-0.011
1085	-0.01
1086	-0.008
1086	-0.008
1087	-0.007
1087	-0.006
1088	-0.006
1088	-0.005
1088	-0.005
1089	-0.006
1089	-0.006
1090	-0.006
1090	-0.006
1090	-0.006
1091	-0.006
1091	-0.006
1092	-0.005
1092	-0.003
1092	-0.003
1093	-0.001
1093	0.002
1094	0.005
1094	0.007
1095	0.008
1095	0.01
1095	0.013
1096	0.016
1096	0.019
1097	0.02
1097	0.023
1097	0.024
1098	0.025
1098	0.027
1099	0.03
1099	0.033
1100	0.035
1100	0.037
1100	0.039
1101	0.042
1101	0.044
1102	0.049
1102	0.053
1102	0.058
1103	0.063
1103	0.068
1104	0.074
1104	0.083
1104	0.092
1105	0.1
1105	0.108
1106	0.116
1106	0.127
1107	0.135
1107	0.149
1107	0.166
1108	0.222
1108	0.303
1109	0.428
1109	0.682
1109	0.975
1110	-0
1110	-0
1111	-0
1111	-0
