Data from 15c-2a_Absorbance__100__00100.txt Node

Date: Wed Jan 17 09:43:45 CET 2024
User: Marek
Spectrometer: MAYP115816
Trigger mode: 0
Integration Time (sec): 2.000000E-1
Scans to average: 10
Electric dark correction enabled: true
Nonlinearity correction enabled: true
Boxcar width: 5
XAxis mode: Wavelengths
Number of Pixels in Spectrum: 2068
>>>>>Begin Spectral Data<<<<<
199	-1.656
199	-1.51
200	-1.347
200	-1.221
201	-1.142
201	-1.094
202	-1.019
202	-0.962
203	-0.912
203	-0.868
204	-0.843
204	-0.82
205	-0.797
205	-0.787
205	-0.784
206	-0.783
206	-0.778
207	-0.776
207	-0.772
208	-0.769
208	-0.769
209	-0.764
209	-0.761
210	-0.76
210	-0.759
211	-0.758
211	-0.757
212	-0.757
212	-0.756
213	-0.755
213	-0.754
213	-0.753
214	-0.751
214	-0.75
215	-0.749
215	-0.747
216	-0.747
216	-0.744
217	-0.739
217	-0.737
218	-0.736
218	-0.733
219	-0.73
219	-0.729
220	-0.724
220	-0.721
221	-0.716
221	-0.712
221	-0.708
222	-0.704
222	-0.698
223	-0.694
223	-0.689
224	-0.683
224	-0.677
225	-0.669
225	-0.661
226	-0.653
226	-0.641
227	-0.628
227	-0.614
228	-0.6
228	-0.581
229	-0.561
229	-0.537
229	-0.512
230	-0.485
230	-0.456
231	-0.423
231	-0.389
232	-0.354
232	-0.318
233	-0.278
233	-0.238
234	-0.198
234	-0.159
235	-0.121
235	-0.083
236	-0.048
236	-0.015
236	0.017
237	0.046
237	0.073
238	0.097
238	0.119
239	0.139
239	0.158
240	0.175
240	0.19
241	0.205
241	0.217
242	0.229
242	0.24
243	0.249
243	0.258
243	0.266
244	0.274
244	0.28
245	0.286
245	0.292
246	0.297
246	0.302
247	0.306
247	0.31
248	0.314
248	0.318
249	0.321
249	0.325
250	0.328
250	0.33
250	0.333
251	0.336
251	0.338
252	0.341
252	0.343
253	0.344
253	0.346
254	0.347
254	0.349
255	0.35
255	0.351
256	0.352
256	0.353
257	0.354
257	0.354
258	0.355
258	0.356
258	0.356
259	0.357
259	0.357
260	0.357
260	0.357
261	0.357
261	0.357
262	0.356
262	0.356
263	0.355
263	0.354
264	0.354
264	0.353
265	0.352
265	0.351
265	0.35
266	0.349
266	0.348
267	0.347
267	0.345
268	0.344
268	0.342
269	0.341
269	0.339
270	0.337
270	0.336
271	0.334
271	0.332
272	0.33
272	0.328
272	0.326
273	0.325
273	0.323
274	0.321
274	0.319
275	0.317
275	0.314
276	0.312
276	0.31
277	0.308
277	0.306
278	0.304
278	0.302
278	0.3
279	0.297
279	0.296
280	0.294
280	0.292
281	0.29
281	0.288
282	0.286
282	0.284
283	0.283
283	0.281
284	0.279
284	0.278
285	0.276
285	0.274
285	0.272
286	0.271
286	0.269
287	0.268
287	0.266
288	0.264
288	0.263
289	0.261
289	0.26
290	0.259
290	0.257
291	0.256
291	0.255
292	0.253
292	0.252
292	0.251
293	0.25
293	0.249
294	0.248
294	0.247
295	0.246
295	0.246
296	0.245
296	0.244
297	0.243
297	0.242
298	0.242
298	0.241
298	0.24
299	0.239
299	0.239
300	0.238
300	0.237
301	0.237
301	0.236
302	0.236
302	0.235
303	0.234
303	0.234
304	0.233
304	0.232
305	0.232
305	0.231
305	0.231
306	0.23
306	0.229
307	0.229
307	0.229
308	0.228
308	0.228
309	0.227
309	0.226
310	0.226
310	0.225
311	0.225
311	0.224
311	0.223
312	0.223
312	0.222
313	0.221
313	0.221
314	0.22
314	0.22
315	0.219
315	0.218
316	0.218
316	0.217
317	0.217
317	0.216
318	0.215
318	0.215
318	0.214
319	0.213
319	0.213
320	0.212
320	0.212
321	0.211
321	0.21
322	0.21
322	0.209
323	0.208
323	0.208
324	0.207
324	0.206
324	0.206
325	0.205
325	0.205
326	0.204
326	0.204
327	0.203
327	0.203
328	0.202
328	0.201
329	0.201
329	0.2
330	0.2
330	0.199
330	0.198
331	0.198
331	0.197
332	0.196
332	0.196
333	0.195
333	0.195
334	0.194
334	0.194
335	0.193
335	0.192
336	0.192
336	0.191
336	0.191
337	0.19
337	0.19
338	0.19
338	0.189
339	0.189
339	0.188
340	0.188
340	0.187
341	0.187
341	0.186
342	0.186
342	0.185
342	0.185
343	0.185
343	0.184
344	0.184
344	0.183
345	0.183
345	0.183
346	0.182
346	0.182
347	0.181
347	0.181
348	0.18
348	0.18
348	0.18
349	0.179
349	0.179
350	0.178
350	0.178
351	0.178
351	0.177
352	0.177
352	0.177
353	0.176
353	0.176
354	0.176
354	0.175
354	0.175
355	0.175
355	0.174
356	0.174
356	0.174
357	0.173
357	0.173
358	0.173
358	0.173
359	0.173
359	0.173
360	0.173
360	0.173
360	0.173
361	0.173
361	0.173
362	0.173
362	0.173
363	0.173
363	0.173
364	0.172
364	0.172
365	0.172
365	0.172
366	0.171
366	0.171
366	0.171
367	0.171
367	0.171
368	0.17
368	0.17
369	0.17
369	0.17
370	0.169
370	0.169
371	0.169
371	0.169
372	0.169
372	0.168
372	0.168
373	0.168
373	0.168
374	0.168
374	0.167
375	0.167
375	0.167
376	0.167
376	0.167
377	0.167
377	0.167
378	0.167
378	0.167
378	0.167
379	0.167
379	0.167
380	0.167
380	0.167
381	0.167
381	0.166
382	0.166
382	0.166
383	0.166
383	0.165
383	0.165
384	0.165
384	0.164
385	0.164
385	0.164
386	0.164
386	0.164
387	0.164
387	0.163
388	0.163
388	0.163
389	0.163
389	0.163
389	0.163
390	0.163
390	0.163
391	0.163
391	0.163
392	0.163
392	0.163
393	0.163
393	0.163
394	0.163
394	0.162
394	0.162
395	0.162
395	0.162
396	0.161
396	0.161
397	0.161
397	0.161
398	0.161
398	0.161
399	0.161
399	0.161
400	0.161
400	0.161
400	0.16
401	0.16
401	0.159
402	0.159
402	0.159
403	0.158
403	0.158
404	0.158
404	0.158
405	0.158
405	0.157
405	0.157
406	0.157
406	0.157
407	0.157
407	0.156
408	0.156
408	0.156
409	0.156
409	0.155
410	0.155
410	0.155
411	0.155
411	0.155
411	0.155
412	0.155
412	0.155
413	0.154
413	0.154
414	0.154
414	0.154
415	0.153
415	0.153
416	0.153
416	0.153
416	0.152
417	0.152
417	0.152
418	0.152
418	0.152
419	0.152
419	0.152
420	0.153
420	0.153
421	0.153
421	0.153
421	0.153
422	0.154
422	0.154
423	0.154
423	0.154
424	0.154
424	0.154
425	0.153
425	0.153
426	0.153
426	0.152
427	0.152
427	0.152
427	0.152
428	0.152
428	0.152
429	0.152
429	0.152
430	0.152
430	0.152
431	0.152
431	0.152
432	0.152
432	0.151
432	0.151
433	0.151
433	0.15
434	0.15
434	0.149
435	0.149
435	0.149
436	0.149
436	0.149
437	0.149
437	0.15
437	0.15
438	0.15
438	0.15
439	0.149
439	0.149
440	0.149
440	0.149
441	0.149
441	0.149
442	0.149
442	0.149
442	0.149
443	0.149
443	0.149
444	0.149
444	0.149
445	0.149
445	0.149
446	0.149
446	0.149
447	0.149
447	0.148
447	0.148
448	0.148
448	0.148
449	0.148
449	0.148
450	0.148
450	0.148
451	0.148
451	0.148
452	0.148
452	0.148
452	0.148
453	0.148
453	0.148
454	0.148
454	0.148
455	0.147
455	0.147
456	0.147
456	0.147
457	0.147
457	0.147
458	0.147
458	0.147
458	0.147
459	0.148
459	0.148
460	0.148
460	0.148
461	0.148
461	0.148
462	0.147
462	0.147
463	0.148
463	0.148
463	0.148
464	0.148
464	0.148
465	0.148
465	0.148
466	0.149
466	0.149
467	0.149
467	0.149
467	0.149
468	0.149
468	0.149
469	0.149
469	0.148
470	0.148
470	0.148
471	0.148
471	0.148
472	0.148
472	0.148
472	0.148
473	0.149
473	0.149
474	0.15
474	0.15
475	0.151
475	0.151
476	0.151
476	0.152
477	0.152
477	0.152
477	0.153
478	0.152
478	0.153
479	0.153
479	0.153
480	0.154
480	0.154
481	0.155
481	0.155
482	0.156
482	0.157
482	0.158
483	0.159
483	0.16
484	0.161
484	0.162
485	0.163
485	0.164
486	0.165
486	0.166
487	0.166
487	0.167
487	0.168
488	0.168
488	0.169
489	0.169
489	0.17
490	0.17
490	0.17
491	0.171
491	0.172
492	0.172
492	0.173
492	0.173
493	0.174
493	0.175
494	0.176
494	0.177
495	0.179
495	0.181
496	0.182
496	0.183
496	0.185
497	0.186
497	0.188
498	0.189
498	0.19
499	0.191
499	0.192
500	0.193
500	0.194
501	0.195
501	0.196
501	0.197
502	0.199
502	0.2
503	0.201
503	0.202
504	0.204
504	0.204
505	0.206
505	0.207
506	0.208
506	0.209
506	0.21
507	0.21
507	0.211
508	0.212
508	0.214
509	0.215
509	0.216
510	0.217
510	0.218
511	0.219
511	0.22
511	0.22
512	0.221
512	0.221
513	0.221
513	0.222
514	0.222
514	0.223
515	0.224
515	0.224
515	0.224
516	0.224
516	0.225
517	0.225
517	0.226
518	0.226
518	0.226
519	0.227
519	0.227
520	0.226
520	0.226
520	0.225
521	0.225
521	0.224
522	0.223
522	0.222
523	0.221
523	0.22
524	0.219
524	0.219
524	0.218
525	0.218
525	0.219
526	0.219
526	0.219
527	0.22
527	0.221
528	0.222
528	0.222
529	0.223
529	0.223
529	0.224
530	0.224
530	0.224
531	0.224
531	0.223
532	0.223
532	0.222
533	0.221
533	0.221
533	0.22
534	0.218
534	0.217
535	0.216
535	0.215
536	0.214
536	0.213
537	0.212
537	0.211
538	0.21
538	0.208
538	0.207
539	0.206
539	0.205
540	0.203
540	0.202
541	0.201
541	0.199
542	0.197
542	0.196
542	0.194
543	0.192
543	0.191
544	0.189
544	0.188
545	0.186
545	0.185
546	0.184
546	0.182
547	0.181
547	0.179
547	0.177
548	0.176
548	0.174
549	0.172
549	0.17
550	0.168
550	0.166
551	0.164
551	0.162
551	0.16
552	0.158
552	0.157
553	0.155
553	0.154
554	0.153
554	0.151
555	0.149
555	0.147
556	0.145
556	0.143
556	0.141
557	0.139
557	0.137
558	0.136
558	0.134
559	0.132
559	0.13
560	0.129
560	0.128
560	0.127
561	0.126
561	0.125
562	0.124
562	0.122
563	0.121
563	0.12
564	0.118
564	0.116
564	0.114
565	0.113
565	0.111
566	0.109
566	0.108
567	0.106
567	0.105
568	0.104
568	0.103
568	0.103
569	0.102
569	0.102
570	0.101
570	0.1
571	0.1
571	0.099
572	0.098
572	0.098
573	0.097
573	0.096
573	0.095
574	0.095
574	0.094
575	0.094
575	0.093
576	0.093
576	0.093
577	0.092
577	0.091
577	0.091
578	0.09
578	0.089
579	0.089
579	0.088
580	0.087
580	0.086
581	0.084
581	0.083
581	0.082
582	0.081
582	0.08
583	0.079
583	0.078
584	0.077
584	0.075
585	0.074
585	0.073
585	0.072
586	0.072
586	0.071
587	0.071
587	0.07
588	0.069
588	0.067
589	0.067
589	0.066
590	0.066
590	0.066
590	0.066
591	0.065
591	0.064
592	0.063
592	0.063
593	0.062
593	0.061
594	0.061
594	0.06
594	0.059
595	0.058
595	0.057
596	0.057
596	0.057
597	0.057
597	0.058
598	0.058
598	0.059
598	0.06
599	0.06
599	0.061
600	0.061
600	0.06
601	0.06
601	0.059
602	0.058
602	0.058
602	0.058
603	0.057
603	0.058
604	0.058
604	0.058
605	0.059
605	0.06
606	0.061
606	0.061
606	0.061
607	0.061
607	0.06
608	0.06
608	0.059
609	0.058
609	0.058
610	0.058
610	0.057
610	0.057
611	0.058
611	0.058
612	0.059
612	0.06
613	0.061
613	0.061
614	0.061
614	0.06
614	0.06
615	0.059
615	0.059
616	0.058
616	0.058
617	0.057
617	0.056
618	0.056
618	0.055
618	0.055
619	0.056
619	0.056
620	0.057
620	0.059
621	0.059
621	0.06
622	0.06
622	0.061
622	0.062
623	0.062
623	0.062
624	0.062
624	0.062
625	0.062
625	0.062
626	0.062
626	0.062
626	0.063
627	0.063
627	0.064
628	0.064
628	0.065
629	0.065
629	0.066
630	0.066
630	0.066
630	0.066
631	0.067
631	0.068
632	0.068
632	0.069
633	0.07
633	0.071
634	0.073
634	0.074
634	0.075
635	0.076
635	0.076
636	0.077
636	0.078
637	0.078
637	0.079
638	0.079
638	0.08
638	0.081
639	0.082
639	0.083
640	0.083
640	0.085
641	0.086
641	0.087
642	0.089
642	0.09
642	0.092
643	0.094
643	0.095
644	0.097
644	0.098
645	0.1
645	0.102
646	0.104
646	0.106
646	0.108
647	0.111
647	0.113
648	0.115
648	0.117
649	0.119
649	0.121
650	0.123
650	0.125
650	0.127
651	0.129
651	0.131
652	0.133
652	0.135
653	0.137
653	0.142
653	0.141
654	0.114
654	0.093
655	0.097
655	0.099
656	0.1
656	0.101
657	0.103
657	0.104
657	0.105
658	0.104
658	0.103
659	0.13
659	0.168
660	0.17
660	0.171
661	0.173
661	0.176
661	0.178
662	0.181
662	0.184
663	0.187
663	0.19
664	0.193
664	0.196
665	0.198
665	0.2
665	0.202
666	0.203
666	0.204
667	0.206
667	0.207
668	0.209
668	0.211
669	0.213
669	0.215
669	0.218
670	0.222
670	0.225
671	0.227
671	0.229
672	0.231
672	0.233
672	0.235
673	0.236
673	0.237
674	0.238
674	0.239
675	0.24
675	0.241
676	0.242
676	0.244
676	0.246
677	0.247
677	0.249
678	0.25
678	0.251
679	0.253
679	0.254
680	0.256
680	0.257
680	0.258
681	0.259
681	0.26
682	0.261
682	0.262
683	0.263
683	0.264
684	0.266
684	0.267
684	0.267
685	0.267
685	0.268
686	0.269
686	0.269
687	0.269
687	0.269
687	0.269
688	0.269
688	0.268
689	0.267
689	0.267
690	0.267
690	0.266
691	0.264
691	0.263
691	0.262
692	0.261
692	0.26
693	0.259
693	0.258
694	0.257
694	0.256
695	0.255
695	0.255
695	0.254
696	0.254
696	0.253
697	0.251
697	0.25
698	0.25
698	0.248
698	0.247
699	0.246
699	0.245
700	0.243
700	0.241
701	0.24
701	0.239
702	0.238
702	0.237
702	0.235
703	0.234
703	0.232
704	0.231
704	0.229
705	0.228
705	0.227
705	0.225
706	0.224
706	0.223
707	0.221
707	0.219
708	0.217
708	0.215
709	0.214
709	0.212
709	0.21
710	0.207
710	0.205
711	0.203
711	0.201
712	0.199
712	0.198
713	0.196
713	0.194
713	0.192
714	0.19
714	0.188
715	0.186
715	0.184
716	0.182
716	0.179
716	0.177
717	0.175
717	0.173
718	0.172
718	0.17
719	0.168
719	0.167
720	0.166
720	0.164
720	0.162
721	0.16
721	0.158
722	0.156
722	0.154
723	0.151
723	0.149
723	0.147
724	0.145
724	0.143
725	0.141
725	0.139
726	0.137
726	0.135
727	0.134
727	0.133
727	0.131
728	0.129
728	0.128
729	0.126
729	0.125
730	0.123
730	0.122
730	0.12
731	0.118
731	0.116
732	0.115
732	0.114
733	0.112
733	0.11
734	0.109
734	0.107
734	0.106
735	0.105
735	0.104
736	0.103
736	0.101
737	0.1
737	0.099
737	0.098
738	0.097
738	0.095
739	0.094
739	0.092
740	0.09
740	0.089
741	0.087
741	0.085
741	0.083
742	0.08
742	0.078
743	0.076
743	0.074
744	0.072
744	0.07
744	0.068
745	0.066
745	0.064
746	0.063
746	0.062
747	0.061
747	0.06
748	0.06
748	0.059
748	0.058
749	0.057
749	0.056
750	0.055
750	0.055
751	0.054
751	0.053
751	0.053
752	0.052
752	0.051
753	0.051
753	0.05
754	0.049
754	0.048
754	0.048
755	0.047
755	0.047
756	0.046
756	0.044
757	0.043
757	0.042
758	0.041
758	0.04
758	0.038
759	0.037
759	0.036
760	0.034
760	0.032
761	0.03
761	0.029
761	0.028
762	0.026
762	0.026
763	0.026
763	0.025
764	0.024
764	0.023
764	0.022
765	0.021
765	0.02
766	0.02
766	0.019
767	0.019
767	0.017
768	0.015
768	0.013
768	0.011
769	0.01
769	0.008
770	0.007
770	0.005
771	0.003
771	-0
771	-0.003
772	-0.006
772	-0.009
773	-0.011
773	-0.014
774	-0.016
774	-0.019
775	-0.022
775	-0.024
775	-0.027
776	-0.03
776	-0.033
777	-0.036
777	-0.039
778	-0.041
778	-0.044
778	-0.047
779	-0.049
779	-0.052
780	-0.055
780	-0.059
781	-0.064
781	-0.069
781	-0.074
782	-0.081
782	-0.088
783	-0.094
783	-0.101
784	-0.108
784	-0.116
784	-0.123
785	-0.13
785	-0.138
786	-0.142
786	-0.143
787	-0.142
787	-0.142
788	-0.145
788	-0.148
788	-0.151
789	-0.153
789	-0.153
790	-0.151
790	-0.15
791	-0.15
791	-0.152
791	-0.155
792	-0.149
792	-0.139
793	-0.133
793	-0.129
794	-0.127
794	-0.129
794	-0.133
795	-0.136
795	-0.136
796	-0.137
796	-0.14
797	-0.149
797	-0.16
797	-0.166
798	-0.171
798	-0.174
799	-0.174
799	-0.174
800	-0.173
800	-0.175
801	-0.177
801	-0.178
801	-0.178
802	-0.18
802	-0.181
803	-0.182
803	-0.182
804	-0.181
804	-0.176
804	-0.17
805	-0.166
805	-0.164
806	-0.162
806	-0.16
807	-0.159
807	-0.159
807	-0.159
808	-0.159
808	-0.16
809	-0.165
809	-0.171
810	-0.175
810	-0.178
810	-0.181
811	-0.184
811	-0.185
812	-0.181
812	-0.178
813	-0.178
813	-0.178
813	-0.179
814	-0.179
814	-0.179
815	-0.175
815	-0.172
816	-0.168
816	-0.165
817	-0.165
817	-0.162
817	-0.156
818	-0.148
818	-0.139
819	-0.129
819	-0.12
820	-0.113
820	-0.105
820	-0.097
821	-0.09
821	-0.083
822	-0.077
822	-0.072
823	-0.067
823	-0.063
823	-0.06
824	-0.056
824	-0.052
825	-0.048
825	-0.043
826	-0.04
826	-0.037
826	-0.034
827	-0.031
827	-0.028
828	-0.026
828	-0.024
829	-0.023
829	-0.022
829	-0.021
830	-0.021
830	-0.02
831	-0.019
831	-0.018
832	-0.017
832	-0.017
832	-0.015
833	-0.014
833	-0.013
834	-0.011
834	-0.01
835	-0.008
835	-0.007
835	-0.006
836	-0.005
836	-0.004
837	-0.003
837	-0.003
838	-0.003
838	-0.003
839	-0.003
839	-0.003
839	-0.004
840	-0.005
840	-0.005
841	-0.006
841	-0.006
842	-0.007
842	-0.007
842	-0.007
843	-0.007
843	-0.007
844	-0.006
844	-0.005
845	-0.005
845	-0.003
845	-0.002
846	-0.001
846	-0.001
847	-0
847	0
848	0
848	-0
848	-0
849	-0.001
849	-0.002
850	-0.002
850	-0.003
851	-0.004
851	-0.004
851	-0.004
852	-0.004
852	-0.004
853	-0.003
853	-0.003
854	-0.002
854	-0.001
854	-0.001
855	-0
855	0
856	0.001
856	0.001
857	0.002
857	0.002
857	0.002
858	0.003
858	0.002
859	0.002
859	0.002
860	0.002
860	0.001
860	0.001
861	0
861	-0
862	-0.001
862	-0.002
863	-0.002
863	-0.003
863	-0.003
864	-0.003
864	-0.003
865	-0.002
865	-0.002
866	-0.001
866	-0
866	0.001
867	0.002
867	0.004
868	0.005
868	0.006
869	0.006
869	0.007
869	0.007
870	0.007
870	0.007
871	0.007
871	0.006
872	0.006
872	0.005
872	0.005
873	0.005
873	0.005
874	0.006
874	0.006
875	0.007
875	0.008
875	0.008
876	0.009
876	0.009
877	0.01
877	0.01
878	0.01
878	0.011
878	0.011
879	0.011
879	0.011
880	0.01
880	0.01
881	0.009
881	0.009
881	0.008
882	0.008
882	0.007
883	0.006
883	0.005
884	0.005
884	0.005
884	0.004
885	0.005
885	0.005
886	0.006
886	0.006
887	0.007
887	0.007
887	0.008
888	0.008
888	0.008
889	0.009
889	0.009
890	0.009
890	0.008
890	0.008
891	0.007
891	0.006
892	0.005
892	0.005
893	0.004
893	0.004
893	0.003
894	0.003
894	0.003
895	0.003
895	0.003
895	0.003
896	0.003
896	0.003
897	0.003
897	0.003
898	0.003
898	0.003
898	0.003
899	0.003
899	0.003
900	0.003
900	0.004
901	0.004
901	0.005
901	0.005
902	0.005
902	0.005
903	0.006
903	0.006
904	0.005
904	0.005
904	0.005
905	0.005
905	0.004
906	0.004
906	0.003
907	0.003
907	0.003
907	0.003
908	0.002
908	0.002
909	0.002
909	0.002
910	0.003
910	0.003
910	0.003
911	0.004
911	0.004
912	0.004
912	0.005
913	0.005
913	0.005
913	0.005
914	0.005
914	0.005
915	0.005
915	0.004
916	0.004
916	0.004
916	0.004
917	0.003
917	0.003
918	0.003
918	0.002
918	0.002
919	0.002
919	0.002
920	0.002
920	0.002
921	0.002
921	0.002
921	0.003
922	0.003
922	0.004
923	0.005
923	0.006
924	0.007
924	0.008
924	0.008
925	0.008
925	0.008
926	0.008
926	0.008
927	0.007
927	0.006
927	0.005
928	0.004
928	0.003
929	0.002
929	0.001
930	0
930	-0
930	-0.001
931	-0.001
931	-0.001
932	-0.001
932	-0.001
933	-0.001
933	-0.001
933	-0
934	0
934	0.001
935	0.002
935	0.003
935	0.003
936	0.004
936	0.005
937	0.006
937	0.006
938	0.007
938	0.007
938	0.007
939	0.008
939	0.008
940	0.009
940	0.009
941	0.01
941	0.01
941	0.011
942	0.011
942	0.012
943	0.012
943	0.013
944	0.013
944	0.012
944	0.012
945	0.012
945	0.012
946	0.011
946	0.01
946	0.01
947	0.009
947	0.009
948	0.008
948	0.008
949	0.008
949	0.008
949	0.008
950	0.008
950	0.009
951	0.01
951	0.011
952	0.012
952	0.013
952	0.014
953	0.015
953	0.016
954	0.016
954	0.016
955	0.017
955	0.016
955	0.016
956	0.016
956	0.016
957	0.015
957	0.015
957	0.014
958	0.013
958	0.012
959	0.011
959	0.01
960	0.008
960	0.007
960	0.006
961	0.004
961	0.004
962	0.003
962	0.002
963	0.002
963	0.002
963	0.002
964	0.002
964	0.003
965	0.004
965	0.005
966	0.005
966	0.006
966	0.007
967	0.008
967	0.009
968	0.01
968	0.01
968	0.011
969	0.011
969	0.011
970	0.011
970	0.011
971	0.01
971	0.01
971	0.01
972	0.009
972	0.009
973	0.009
973	0.008
974	0.008
974	0.007
974	0.007
975	0.007
975	0.007
976	0.007
976	0.007
976	0.006
977	0.006
977	0.006
978	0.005
978	0.005
979	0.005
979	0.004
979	0.004
980	0.003
980	0.003
981	0.003
981	0.003
982	0.003
982	0.003
982	0.003
983	0.003
983	0.004
984	0.004
984	0.005
984	0.005
985	0.005
985	0.006
986	0.006
986	0.006
987	0.006
987	0.007
987	0.008
988	0.008
988	0.009
989	0.009
989	0.01
990	0.01
990	0.011
990	0.012
991	0.013
991	0.013
992	0.014
992	0.014
992	0.015
993	0.015
993	0.016
994	0.016
994	0.017
995	0.017
995	0.018
995	0.018
996	0.019
996	0.019
997	0.019
997	0.02
997	0.02
998	0.02
998	0.021
999	0.021
999	0.021
1000	0.021
1000	0.02
1000	0.02
1001	0.019
1001	0.019
1002	0.018
1002	0.018
1003	0.017
1003	0.016
1003	0.016
1004	0.015
1004	0.014
1005	0.014
1005	0.014
1005	0.013
1006	0.013
1006	0.013
1007	0.013
1007	0.012
1008	0.012
1008	0.012
1008	0.012
1009	0.012
1009	0.012
1010	0.012
1010	0.012
1010	0.012
1011	0.012
1011	0.012
1012	0.012
1012	0.012
1013	0.011
1013	0.011
1013	0.011
1014	0.01
1014	0.01
1015	0.009
1015	0.009
1016	0.009
1016	0.009
1016	0.008
1017	0.008
1017	0.008
1018	0.008
1018	0.008
1018	0.008
1019	0.007
1019	0.007
1020	0.007
1020	0.007
1021	0.006
1021	0.006
1021	0.006
1022	0.006
1022	0.006
1023	0.006
1023	0.006
1023	0.006
1024	0.006
1024	0.006
1025	0.006
1025	0.007
1026	0.007
1026	0.007
1026	0.007
1027	0.007
1027	0.008
1028	0.008
1028	0.008
1028	0.008
1029	0.009
1029	0.009
1030	0.01
1030	0.01
1031	0.011
1031	0.011
1031	0.012
1032	0.012
1032	0.012
1033	0.012
1033	0.012
1033	0.011
1034	0.011
1034	0.01
1035	0.009
1035	0.009
1036	0.008
1036	0.008
1036	0.008
1037	0.008
1037	0.007
1038	0.007
1038	0.007
1039	0.007
1039	0.007
1039	0.007
1040	0.007
1040	0.007
1041	0.007
1041	0.006
1041	0.006
1042	0.006
1042	0.006
1043	0.005
1043	0.005
1044	0.005
1044	0.005
1044	0.005
1045	0.005
1045	0.005
1046	0.005
1046	0.005
1046	0.006
1047	0.006
1047	0.006
1048	0.007
1048	0.007
1049	0.007
1049	0.007
1049	0.007
1050	0.007
1050	0.008
1051	0.008
1051	0.007
1051	0.007
1052	0.007
1052	0.006
1053	0.006
1053	0.005
1053	0.005
1054	0.004
1054	0.004
1055	0.004
1055	0.004
1056	0.004
1056	0.005
1056	0.005
1057	0.005
1057	0.006
1058	0.007
1058	0.007
1058	0.008
1059	0.008
1059	0.008
1060	0.009
1060	0.01
1061	0.011
1061	0.011
1061	0.012
1062	0.012
1062	0.013
1063	0.013
1063	0.013
1063	0.014
1064	0.015
1064	0.015
1065	0.016
1065	0.016
1066	0.017
1066	0.017
1066	0.017
1067	0.017
1067	0.018
1068	0.018
1068	0.019
1068	0.019
1069	0.019
1069	0.018
1070	0.018
1070	0.018
1071	0.019
1071	0.019
1071	0.018
1072	0.019
1072	0.019
1073	0.018
1073	0.019
1073	0.019
1074	0.019
1074	0.02
1075	0.02
1075	0.02
1076	0.02
1076	0.021
1076	0.021
1077	0.022
1077	0.023
1078	0.023
1078	0.024
1078	0.025
1079	0.026
1079	0.027
1080	0.028
1080	0.029
1080	0.031
1081	0.032
1081	0.033
1082	0.034
1082	0.036
1083	0.037
1083	0.039
1083	0.04
1084	0.041
1084	0.043
1085	0.044
1085	0.046
1085	0.048
1086	0.049
1086	0.05
1087	0.051
1087	0.052
1088	0.053
1088	0.054
1088	0.055
1089	0.056
1089	0.057
1090	0.058
1090	0.059
1090	0.061
1091	0.062
1091	0.064
1092	0.066
1092	0.068
1092	0.07
1093	0.073
1093	0.076
1094	0.079
1094	0.082
1095	0.085
1095	0.087
1095	0.091
1096	0.095
1096	0.1
1097	0.104
1097	0.108
1097	0.114
1098	0.119
1098	0.124
1099	0.129
1099	0.135
1100	0.142
1100	0.148
1100	0.155
1101	0.163
1101	0.173
1102	0.183
1102	0.193
1102	0.204
1103	0.217
1103	0.231
1104	0.247
1104	0.264
1104	0.284
1105	0.305
1105	0.328
1106	0.35
1106	0.379
1107	0.413
1107	0.457
1107	0.518
1108	0.702
1108	1.137
1109	-0
1109	-0
1109	-0
1110	-0
1110	-0
1111	-0
1111	-0
