Data from 15c-2a_Absorbance__1610__01610.txt Node

Date: Wed Jan 17 10:34:04 CET 2024
User: Marek
Spectrometer: MAYP115816
Trigger mode: 0
Integration Time (sec): 2.000000E-1
Scans to average: 10
Electric dark correction enabled: true
Nonlinearity correction enabled: true
Boxcar width: 5
XAxis mode: Wavelengths
Number of Pixels in Spectrum: 2068
>>>>>Begin Spectral Data<<<<<
199	-1.602
199	-1.464
200	-1.305
200	-1.183
201	-1.108
201	-1.06
202	-0.992
202	-0.941
203	-0.896
203	-0.857
204	-0.833
204	-0.809
205	-0.786
205	-0.777
205	-0.775
206	-0.774
206	-0.771
207	-0.768
207	-0.764
208	-0.763
208	-0.763
209	-0.759
209	-0.759
210	-0.759
210	-0.759
211	-0.758
211	-0.758
212	-0.758
212	-0.758
213	-0.757
213	-0.756
213	-0.755
214	-0.753
214	-0.752
215	-0.751
215	-0.749
216	-0.75
216	-0.747
217	-0.742
217	-0.741
218	-0.741
218	-0.737
219	-0.733
219	-0.733
220	-0.73
220	-0.728
221	-0.723
221	-0.72
221	-0.715
222	-0.712
222	-0.707
223	-0.702
223	-0.699
224	-0.695
224	-0.686
225	-0.677
225	-0.669
226	-0.661
226	-0.648
227	-0.635
227	-0.623
228	-0.606
228	-0.588
229	-0.567
229	-0.542
229	-0.516
230	-0.487
230	-0.456
231	-0.421
231	-0.385
232	-0.348
232	-0.308
233	-0.267
233	-0.223
234	-0.181
234	-0.139
235	-0.098
235	-0.059
236	-0.021
236	0.015
236	0.05
237	0.084
237	0.114
238	0.142
238	0.168
239	0.192
239	0.215
240	0.235
240	0.253
241	0.269
241	0.284
242	0.297
242	0.31
243	0.321
243	0.33
243	0.339
244	0.347
244	0.354
245	0.361
245	0.367
246	0.373
246	0.379
247	0.383
247	0.388
248	0.392
248	0.397
249	0.401
249	0.404
250	0.407
250	0.411
250	0.414
251	0.416
251	0.419
252	0.421
252	0.423
253	0.425
253	0.427
254	0.428
254	0.43
255	0.431
255	0.433
256	0.433
256	0.434
257	0.435
257	0.436
258	0.436
258	0.437
258	0.437
259	0.437
259	0.437
260	0.437
260	0.437
261	0.436
261	0.436
262	0.436
262	0.435
263	0.434
263	0.434
264	0.433
264	0.432
265	0.431
265	0.43
265	0.429
266	0.428
266	0.426
267	0.425
267	0.424
268	0.422
268	0.421
269	0.419
269	0.418
270	0.416
270	0.414
271	0.412
271	0.41
272	0.408
272	0.406
272	0.404
273	0.401
273	0.399
274	0.397
274	0.395
275	0.393
275	0.391
276	0.389
276	0.387
277	0.385
277	0.382
278	0.38
278	0.378
278	0.376
279	0.373
279	0.37
280	0.368
280	0.366
281	0.363
281	0.361
282	0.359
282	0.357
283	0.355
283	0.353
284	0.351
284	0.349
285	0.348
285	0.346
285	0.344
286	0.342
286	0.34
287	0.339
287	0.337
288	0.335
288	0.334
289	0.332
289	0.33
290	0.329
290	0.327
291	0.326
291	0.325
292	0.323
292	0.322
292	0.32
293	0.319
293	0.317
294	0.316
294	0.315
295	0.314
295	0.313
296	0.312
296	0.311
297	0.31
297	0.309
298	0.308
298	0.307
298	0.306
299	0.306
299	0.305
300	0.304
300	0.303
301	0.302
301	0.301
302	0.301
302	0.3
303	0.299
303	0.298
304	0.297
304	0.296
305	0.296
305	0.295
305	0.294
306	0.293
306	0.292
307	0.291
307	0.29
308	0.29
308	0.289
309	0.288
309	0.287
310	0.287
310	0.286
311	0.285
311	0.284
311	0.283
312	0.282
312	0.282
313	0.281
313	0.28
314	0.279
314	0.279
315	0.278
315	0.277
316	0.276
316	0.276
317	0.275
317	0.274
318	0.273
318	0.273
318	0.272
319	0.271
319	0.27
320	0.269
320	0.268
321	0.267
321	0.267
322	0.266
322	0.265
323	0.264
323	0.263
324	0.262
324	0.261
324	0.26
325	0.259
325	0.259
326	0.258
326	0.257
327	0.256
327	0.256
328	0.255
328	0.254
329	0.254
329	0.253
330	0.252
330	0.251
330	0.251
331	0.25
331	0.249
332	0.248
332	0.247
333	0.247
333	0.246
334	0.245
334	0.244
335	0.243
335	0.243
336	0.242
336	0.242
336	0.241
337	0.24
337	0.24
338	0.239
338	0.239
339	0.238
339	0.238
340	0.237
340	0.236
341	0.236
341	0.235
342	0.234
342	0.234
342	0.233
343	0.232
343	0.232
344	0.231
344	0.231
345	0.23
345	0.23
346	0.229
346	0.229
347	0.228
347	0.228
348	0.228
348	0.227
348	0.227
349	0.226
349	0.226
350	0.225
350	0.225
351	0.224
351	0.224
352	0.223
352	0.223
353	0.222
353	0.222
354	0.222
354	0.221
354	0.221
355	0.22
355	0.22
356	0.219
356	0.219
357	0.218
357	0.218
358	0.217
358	0.217
359	0.217
359	0.217
360	0.217
360	0.218
360	0.218
361	0.217
361	0.217
362	0.218
362	0.217
363	0.217
363	0.217
364	0.217
364	0.216
365	0.216
365	0.216
366	0.216
366	0.215
366	0.215
367	0.215
367	0.215
368	0.215
368	0.215
369	0.214
369	0.214
370	0.214
370	0.213
371	0.213
371	0.213
372	0.213
372	0.212
372	0.212
373	0.212
373	0.212
374	0.211
374	0.211
375	0.211
375	0.211
376	0.211
376	0.211
377	0.211
377	0.21
378	0.21
378	0.21
378	0.211
379	0.21
379	0.21
380	0.21
380	0.21
381	0.21
381	0.21
382	0.209
382	0.209
383	0.209
383	0.209
383	0.208
384	0.208
384	0.208
385	0.207
385	0.207
386	0.207
386	0.207
387	0.207
387	0.207
388	0.207
388	0.207
389	0.206
389	0.206
389	0.206
390	0.206
390	0.206
391	0.206
391	0.206
392	0.206
392	0.206
393	0.205
393	0.205
394	0.205
394	0.205
394	0.205
395	0.204
395	0.204
396	0.203
396	0.203
397	0.203
397	0.203
398	0.203
398	0.203
399	0.203
399	0.203
400	0.202
400	0.202
400	0.202
401	0.201
401	0.201
402	0.2
402	0.2
403	0.2
403	0.2
404	0.2
404	0.199
405	0.199
405	0.199
405	0.199
406	0.198
406	0.198
407	0.198
407	0.198
408	0.197
408	0.197
409	0.197
409	0.196
410	0.196
410	0.196
411	0.196
411	0.196
411	0.196
412	0.195
412	0.195
413	0.195
413	0.195
414	0.194
414	0.194
415	0.194
415	0.193
416	0.193
416	0.193
416	0.193
417	0.193
417	0.193
418	0.193
418	0.193
419	0.193
419	0.194
420	0.194
420	0.194
421	0.195
421	0.195
421	0.195
422	0.195
422	0.195
423	0.195
423	0.194
424	0.194
424	0.193
425	0.193
425	0.192
426	0.192
426	0.192
427	0.191
427	0.191
427	0.192
428	0.192
428	0.192
429	0.192
429	0.192
430	0.192
430	0.192
431	0.192
431	0.192
432	0.191
432	0.191
432	0.19
433	0.189
433	0.189
434	0.189
434	0.189
435	0.189
435	0.189
436	0.189
436	0.189
437	0.189
437	0.189
437	0.189
438	0.19
438	0.189
439	0.189
439	0.189
440	0.189
440	0.189
441	0.189
441	0.188
442	0.188
442	0.188
442	0.188
443	0.188
443	0.188
444	0.188
444	0.189
445	0.189
445	0.189
446	0.189
446	0.189
447	0.189
447	0.189
447	0.188
448	0.188
448	0.188
449	0.188
449	0.188
450	0.188
450	0.188
451	0.188
451	0.188
452	0.188
452	0.188
452	0.188
453	0.188
453	0.188
454	0.188
454	0.188
455	0.188
455	0.188
456	0.188
456	0.188
457	0.188
457	0.188
458	0.188
458	0.188
458	0.188
459	0.188
459	0.188
460	0.187
460	0.187
461	0.187
461	0.187
462	0.187
462	0.187
463	0.188
463	0.188
463	0.188
464	0.189
464	0.189
465	0.189
465	0.189
466	0.19
466	0.19
467	0.19
467	0.19
467	0.19
468	0.19
468	0.189
469	0.189
469	0.189
470	0.189
470	0.189
471	0.189
471	0.188
472	0.189
472	0.189
472	0.189
473	0.19
473	0.191
474	0.191
474	0.192
475	0.193
475	0.193
476	0.193
476	0.194
477	0.194
477	0.194
477	0.195
478	0.195
478	0.195
479	0.195
479	0.196
480	0.197
480	0.197
481	0.198
481	0.199
482	0.2
482	0.202
482	0.203
483	0.205
483	0.207
484	0.208
484	0.209
485	0.21
485	0.211
486	0.211
486	0.212
487	0.213
487	0.214
487	0.214
488	0.215
488	0.215
489	0.216
489	0.217
490	0.218
490	0.219
491	0.22
491	0.221
492	0.222
492	0.222
492	0.223
493	0.224
493	0.225
494	0.227
494	0.228
495	0.23
495	0.231
496	0.233
496	0.234
496	0.236
497	0.238
497	0.239
498	0.241
498	0.242
499	0.243
499	0.244
500	0.246
500	0.247
501	0.249
501	0.251
501	0.252
502	0.254
502	0.256
503	0.258
503	0.259
504	0.26
504	0.262
505	0.263
505	0.264
506	0.265
506	0.266
506	0.268
507	0.269
507	0.27
508	0.271
508	0.272
509	0.274
509	0.276
510	0.277
510	0.279
511	0.28
511	0.281
511	0.282
512	0.282
512	0.283
513	0.284
513	0.284
514	0.284
514	0.285
515	0.285
515	0.286
515	0.286
516	0.287
516	0.288
517	0.289
517	0.29
518	0.29
518	0.29
519	0.29
519	0.29
520	0.289
520	0.289
520	0.289
521	0.288
521	0.287
522	0.286
522	0.286
523	0.286
523	0.286
524	0.286
524	0.286
524	0.287
525	0.287
525	0.288
526	0.288
526	0.288
527	0.288
527	0.289
528	0.289
528	0.289
529	0.288
529	0.288
529	0.288
530	0.287
530	0.286
531	0.285
531	0.285
532	0.284
532	0.283
533	0.283
533	0.282
533	0.28
534	0.279
534	0.278
535	0.277
535	0.276
536	0.275
536	0.274
537	0.273
537	0.271
538	0.27
538	0.268
538	0.267
539	0.265
539	0.263
540	0.262
540	0.259
541	0.257
541	0.255
542	0.253
542	0.25
542	0.248
543	0.246
543	0.244
544	0.242
544	0.24
545	0.238
545	0.237
546	0.235
546	0.233
547	0.23
547	0.228
547	0.225
548	0.223
548	0.221
549	0.218
549	0.216
550	0.213
550	0.211
551	0.208
551	0.206
551	0.204
552	0.202
552	0.2
553	0.199
553	0.197
554	0.195
554	0.192
555	0.19
555	0.187
556	0.185
556	0.182
556	0.179
557	0.177
557	0.175
558	0.172
558	0.17
559	0.168
559	0.166
560	0.164
560	0.162
560	0.161
561	0.16
561	0.159
562	0.158
562	0.155
563	0.153
563	0.151
564	0.148
564	0.146
564	0.143
565	0.141
565	0.139
566	0.136
566	0.134
567	0.132
567	0.131
568	0.13
568	0.13
568	0.129
569	0.129
569	0.129
570	0.128
570	0.126
571	0.126
571	0.125
572	0.124
572	0.122
573	0.121
573	0.12
573	0.118
574	0.116
574	0.115
575	0.114
575	0.114
576	0.114
576	0.112
577	0.11
577	0.109
577	0.109
578	0.107
578	0.107
579	0.107
579	0.107
580	0.105
580	0.102
581	0.099
581	0.098
581	0.097
582	0.097
582	0.096
583	0.096
583	0.094
584	0.091
584	0.087
585	0.086
585	0.086
585	0.086
586	0.085
586	0.085
587	0.083
587	0.081
588	0.079
588	0.078
589	0.078
589	0.078
590	0.078
590	0.078
590	0.079
591	0.079
591	0.079
592	0.078
592	0.077
593	0.076
593	0.076
594	0.075
594	0.073
594	0.072
595	0.071
595	0.07
596	0.069
596	0.07
597	0.072
597	0.072
598	0.073
598	0.074
598	0.074
599	0.075
599	0.075
600	0.074
600	0.073
601	0.072
601	0.072
602	0.07
602	0.07
602	0.07
603	0.07
603	0.071
604	0.072
604	0.073
605	0.074
605	0.076
606	0.076
606	0.075
606	0.075
607	0.075
607	0.074
608	0.073
608	0.071
609	0.07
609	0.07
610	0.069
610	0.068
610	0.068
611	0.07
611	0.071
612	0.072
612	0.074
613	0.075
613	0.076
614	0.075
614	0.074
614	0.074
615	0.073
615	0.072
616	0.072
616	0.071
617	0.07
617	0.068
618	0.067
618	0.066
618	0.066
619	0.066
619	0.067
620	0.069
620	0.07
621	0.07
621	0.071
622	0.071
622	0.072
622	0.072
623	0.072
623	0.073
624	0.073
624	0.073
625	0.072
625	0.072
626	0.072
626	0.072
626	0.073
627	0.074
627	0.075
628	0.076
628	0.077
629	0.078
629	0.078
630	0.079
630	0.079
630	0.08
631	0.081
631	0.082
632	0.083
632	0.084
633	0.085
633	0.086
634	0.088
634	0.09
634	0.092
635	0.093
635	0.094
636	0.095
636	0.097
637	0.097
637	0.098
638	0.099
638	0.1
638	0.101
639	0.102
639	0.103
640	0.105
640	0.106
641	0.108
641	0.11
642	0.112
642	0.114
642	0.116
643	0.117
643	0.119
644	0.121
644	0.122
645	0.124
645	0.126
646	0.129
646	0.131
646	0.134
647	0.136
647	0.139
648	0.141
648	0.143
649	0.146
649	0.148
650	0.15
650	0.152
650	0.154
651	0.156
651	0.158
652	0.16
652	0.162
653	0.165
653	0.172
653	0.184
654	0.147
654	0.119
655	0.122
655	0.124
656	0.126
656	0.127
657	0.129
657	0.131
657	0.132
658	0.13
658	0.12
659	0.153
659	0.2
660	0.207
660	0.209
661	0.212
661	0.215
661	0.218
662	0.221
662	0.225
663	0.228
663	0.231
664	0.235
664	0.238
665	0.241
665	0.244
665	0.247
666	0.249
666	0.252
667	0.254
667	0.256
668	0.259
668	0.262
669	0.265
669	0.268
669	0.272
670	0.275
670	0.278
671	0.28
671	0.283
672	0.285
672	0.287
672	0.289
673	0.291
673	0.293
674	0.294
674	0.295
675	0.295
675	0.297
676	0.299
676	0.3
676	0.301
677	0.303
677	0.304
678	0.306
678	0.307
679	0.308
679	0.31
680	0.312
680	0.313
680	0.314
681	0.315
681	0.317
682	0.318
682	0.319
683	0.32
683	0.322
684	0.323
684	0.323
684	0.323
685	0.324
685	0.324
686	0.325
686	0.326
687	0.326
687	0.326
687	0.326
688	0.326
688	0.325
689	0.325
689	0.325
690	0.324
690	0.322
691	0.321
691	0.319
691	0.318
692	0.316
692	0.314
693	0.313
693	0.312
694	0.311
694	0.309
695	0.309
695	0.309
695	0.309
696	0.308
696	0.307
697	0.307
697	0.306
698	0.305
698	0.304
698	0.303
699	0.302
699	0.3
700	0.298
700	0.296
701	0.296
701	0.294
702	0.292
702	0.291
702	0.289
703	0.287
703	0.285
704	0.282
704	0.281
705	0.279
705	0.276
705	0.274
706	0.272
706	0.27
707	0.268
707	0.265
708	0.263
708	0.261
709	0.259
709	0.257
709	0.253
710	0.25
710	0.247
711	0.245
711	0.242
712	0.24
712	0.238
713	0.236
713	0.233
713	0.231
714	0.229
714	0.227
715	0.225
715	0.223
716	0.221
716	0.219
716	0.217
717	0.215
717	0.213
718	0.211
718	0.209
719	0.207
719	0.206
720	0.204
720	0.201
720	0.199
721	0.197
721	0.195
722	0.192
722	0.19
723	0.188
723	0.186
723	0.183
724	0.181
724	0.178
725	0.176
725	0.173
726	0.17
726	0.168
727	0.165
727	0.163
727	0.16
728	0.158
728	0.155
729	0.154
729	0.152
730	0.151
730	0.149
730	0.147
731	0.145
731	0.144
732	0.142
732	0.14
733	0.138
733	0.136
734	0.134
734	0.131
734	0.13
735	0.129
735	0.127
736	0.126
736	0.125
737	0.124
737	0.123
737	0.122
738	0.119
738	0.117
739	0.115
739	0.112
740	0.11
740	0.107
741	0.105
741	0.102
741	0.098
742	0.095
742	0.092
743	0.09
743	0.088
744	0.086
744	0.085
744	0.083
745	0.081
745	0.079
746	0.077
746	0.076
747	0.074
747	0.074
748	0.073
748	0.072
748	0.07
749	0.069
749	0.068
750	0.067
750	0.067
751	0.066
751	0.066
751	0.066
752	0.065
752	0.064
753	0.064
753	0.064
754	0.063
754	0.063
754	0.063
755	0.063
755	0.063
756	0.062
756	0.06
757	0.058
757	0.058
758	0.056
758	0.054
758	0.053
759	0.052
759	0.049
760	0.047
760	0.044
761	0.043
761	0.042
761	0.041
762	0.039
762	0.039
763	0.038
763	0.036
764	0.034
764	0.033
764	0.031
765	0.029
765	0.027
766	0.026
766	0.025
767	0.024
767	0.021
768	0.018
768	0.017
768	0.015
769	0.014
769	0.013
770	0.012
770	0.01
771	0.007
771	0.005
771	0.002
772	0
772	-0.002
773	-0.004
773	-0.007
774	-0.009
774	-0.012
775	-0.014
775	-0.016
775	-0.019
776	-0.021
776	-0.023
777	-0.025
777	-0.027
778	-0.03
778	-0.033
778	-0.035
779	-0.037
779	-0.038
780	-0.042
780	-0.045
781	-0.048
781	-0.052
781	-0.057
782	-0.062
782	-0.068
783	-0.074
783	-0.079
784	-0.086
784	-0.092
784	-0.098
785	-0.105
785	-0.111
786	-0.117
786	-0.121
787	-0.122
787	-0.124
788	-0.129
788	-0.135
788	-0.14
789	-0.145
789	-0.147
790	-0.147
790	-0.149
791	-0.151
791	-0.152
791	-0.155
792	-0.15
792	-0.139
793	-0.133
793	-0.129
794	-0.127
794	-0.13
794	-0.134
795	-0.136
795	-0.136
796	-0.137
796	-0.14
797	-0.149
797	-0.16
797	-0.166
798	-0.172
798	-0.174
799	-0.175
799	-0.174
800	-0.173
800	-0.175
801	-0.178
801	-0.178
801	-0.179
802	-0.18
802	-0.182
803	-0.182
803	-0.183
804	-0.182
804	-0.176
804	-0.17
805	-0.166
805	-0.164
806	-0.162
806	-0.161
807	-0.16
807	-0.159
807	-0.159
808	-0.159
808	-0.16
809	-0.165
809	-0.171
810	-0.175
810	-0.178
810	-0.181
811	-0.185
811	-0.185
812	-0.181
812	-0.178
813	-0.178
813	-0.179
813	-0.179
814	-0.18
814	-0.179
815	-0.176
815	-0.172
816	-0.169
816	-0.167
817	-0.167
817	-0.165
817	-0.16
818	-0.153
818	-0.144
819	-0.134
819	-0.126
820	-0.12
820	-0.113
820	-0.105
821	-0.098
821	-0.091
822	-0.085
822	-0.08
823	-0.076
823	-0.073
823	-0.07
824	-0.067
824	-0.063
825	-0.059
825	-0.056
826	-0.053
826	-0.051
826	-0.049
827	-0.047
827	-0.045
828	-0.043
828	-0.042
829	-0.04
829	-0.039
829	-0.038
830	-0.037
830	-0.036
831	-0.033
831	-0.031
832	-0.03
832	-0.028
832	-0.026
833	-0.024
833	-0.022
834	-0.02
834	-0.018
835	-0.016
835	-0.014
835	-0.013
836	-0.011
836	-0.01
837	-0.009
837	-0.008
838	-0.008
838	-0.007
839	-0.007
839	-0.007
839	-0.007
840	-0.006
840	-0.006
841	-0.006
841	-0.006
842	-0.005
842	-0.005
842	-0.004
843	-0.003
843	-0.003
844	-0.002
844	-0.001
845	-0
845	0
845	0.001
846	0.001
846	0.001
847	0.001
847	0.001
848	0.001
848	0.001
848	0
849	-0.001
849	-0.001
850	-0.002
850	-0.003
851	-0.004
851	-0.004
851	-0.004
852	-0.005
852	-0.004
853	-0.004
853	-0.003
854	-0.003
854	-0.002
854	-0.002
855	-0.002
855	-0.002
856	-0.002
856	-0.003
857	-0.003
857	-0.004
857	-0.004
858	-0.005
858	-0.005
859	-0.006
859	-0.007
860	-0.007
860	-0.007
860	-0.008
861	-0.008
861	-0.007
862	-0.008
862	-0.008
863	-0.008
863	-0.008
863	-0.008
864	-0.008
864	-0.007
865	-0.007
865	-0.006
866	-0.005
866	-0.004
866	-0.003
867	-0.002
867	-0.001
868	0.001
868	0.002
869	0.003
869	0.003
869	0.003
870	0.003
870	0.003
871	0.003
871	0.002
872	0.002
872	0.001
872	-0
873	-0.001
873	-0.002
874	-0.002
874	-0.002
875	-0.002
875	-0.002
875	-0.002
876	-0.001
876	-0.001
877	-0.001
877	-0
878	-0
878	0.001
878	0.002
879	0.002
879	0.002
880	0.003
880	0.003
881	0.003
881	0.004
881	0.004
882	0.004
882	0.004
883	0.004
883	0.005
884	0.005
884	0.005
884	0.004
885	0.004
885	0.004
886	0.004
886	0.004
887	0.003
887	0.003
887	0.002
888	0.001
888	0.001
889	0
889	-0
890	-0.001
890	-0.001
890	-0.002
891	-0.003
891	-0.003
892	-0.004
892	-0.005
893	-0.005
893	-0.006
893	-0.007
894	-0.007
894	-0.008
895	-0.008
895	-0.009
895	-0.01
896	-0.01
896	-0.01
897	-0.01
897	-0.01
898	-0.009
898	-0.009
898	-0.008
899	-0.008
899	-0.007
900	-0.006
900	-0.005
901	-0.003
901	-0.002
901	-0.001
902	-0
902	0.001
903	0.002
903	0.002
904	0.003
904	0.003
904	0.004
905	0.004
905	0.005
906	0.005
906	0.005
907	0.005
907	0.005
907	0.005
908	0.005
908	0.005
909	0.005
909	0.005
910	0.006
910	0.006
910	0.006
911	0.007
911	0.008
912	0.009
912	0.009
913	0.01
913	0.01
913	0.01
914	0.009
914	0.008
915	0.007
915	0.005
916	0.003
916	0.001
916	-0.001
917	-0.003
917	-0.005
918	-0.006
918	-0.007
918	-0.008
919	-0.008
919	-0.008
920	-0.007
920	-0.007
921	-0.006
921	-0.005
921	-0.004
922	-0.003
922	-0.001
923	0
923	0.001
924	0.002
924	0.003
924	0.003
925	0.003
925	0.004
926	0.004
926	0.004
927	0.003
927	0.003
927	0.002
928	0.001
928	0
929	-0
929	-0.001
930	-0.001
930	-0.002
930	-0.002
931	-0.002
931	-0.003
932	-0.003
932	-0.003
933	-0.003
933	-0.003
933	-0.003
934	-0.003
934	-0.003
935	-0.003
935	-0.003
935	-0.003
936	-0.003
936	-0.003
937	-0.003
937	-0.004
938	-0.004
938	-0.004
938	-0.004
939	-0.005
939	-0.005
940	-0.005
940	-0.005
941	-0.004
941	-0.004
941	-0.004
942	-0.003
942	-0.003
943	-0.003
943	-0.003
944	-0.003
944	-0.004
944	-0.004
945	-0.004
945	-0.005
946	-0.005
946	-0.006
946	-0.006
947	-0.006
947	-0.007
948	-0.007
948	-0.007
949	-0.007
949	-0.006
949	-0.006
950	-0.005
950	-0.005
951	-0.004
951	-0.004
952	-0.004
952	-0.003
952	-0.003
953	-0.003
953	-0.003
954	-0.004
954	-0.004
955	-0.004
955	-0.005
955	-0.005
956	-0.005
956	-0.005
957	-0.006
957	-0.006
957	-0.007
958	-0.007
958	-0.008
959	-0.008
959	-0.008
960	-0.009
960	-0.009
960	-0.009
961	-0.01
961	-0.01
962	-0.01
962	-0.009
963	-0.009
963	-0.008
963	-0.007
964	-0.006
964	-0.005
965	-0.004
965	-0.002
966	-0.001
966	0.001
966	0.002
967	0.003
967	0.004
968	0.005
968	0.005
968	0.006
969	0.006
969	0.006
970	0.005
970	0.005
971	0.004
971	0.003
971	0.003
972	0.002
972	0.001
973	0.001
973	-0
974	-0.001
974	-0.002
974	-0.002
975	-0.003
975	-0.003
976	-0.004
976	-0.004
976	-0.005
977	-0.006
977	-0.008
978	-0.009
978	-0.01
979	-0.011
979	-0.012
979	-0.013
980	-0.015
980	-0.016
981	-0.017
981	-0.017
982	-0.017
982	-0.017
982	-0.017
983	-0.016
983	-0.016
984	-0.015
984	-0.014
984	-0.013
985	-0.012
985	-0.011
986	-0.011
986	-0.011
987	-0.01
987	-0.009
987	-0.009
988	-0.008
988	-0.008
989	-0.007
989	-0.007
990	-0.007
990	-0.006
990	-0.005
991	-0.004
991	-0.003
992	-0.003
992	-0.002
992	-0.001
993	-0.001
993	-0.001
994	-0
994	-0
995	-0
995	-0
995	-0.001
996	-0.001
996	-0.001
997	-0.002
997	-0.002
997	-0.002
998	-0.002
998	-0.002
999	-0.002
999	-0.002
1000	-0.001
1000	-0.001
1000	-0.001
1001	-0
1001	0
1002	0
1002	0.001
1003	0.001
1003	0.001
1003	0
1004	0
1004	-0
1005	-0.001
1005	-0.001
1005	-0.002
1006	-0.002
1006	-0.003
1007	-0.004
1007	-0.004
1008	-0.005
1008	-0.006
1008	-0.006
1009	-0.007
1009	-0.007
1010	-0.008
1010	-0.008
1010	-0.009
1011	-0.01
1011	-0.01
1012	-0.01
1012	-0.011
1013	-0.011
1013	-0.012
1013	-0.012
1014	-0.013
1014	-0.014
1015	-0.014
1015	-0.014
1016	-0.015
1016	-0.016
1016	-0.016
1017	-0.017
1017	-0.018
1018	-0.018
1018	-0.018
1018	-0.018
1019	-0.018
1019	-0.018
1020	-0.018
1020	-0.018
1021	-0.018
1021	-0.018
1021	-0.017
1022	-0.017
1022	-0.016
1023	-0.016
1023	-0.015
1023	-0.015
1024	-0.015
1024	-0.015
1025	-0.015
1025	-0.015
1026	-0.015
1026	-0.015
1026	-0.015
1027	-0.016
1027	-0.016
1028	-0.016
1028	-0.015
1028	-0.015
1029	-0.015
1029	-0.015
1030	-0.015
1030	-0.015
1031	-0.015
1031	-0.015
1031	-0.015
1032	-0.015
1032	-0.015
1033	-0.015
1033	-0.016
1033	-0.016
1034	-0.017
1034	-0.018
1035	-0.018
1035	-0.019
1036	-0.02
1036	-0.021
1036	-0.021
1037	-0.021
1037	-0.021
1038	-0.021
1038	-0.02
1039	-0.019
1039	-0.018
1039	-0.018
1040	-0.017
1040	-0.017
1041	-0.017
1041	-0.017
1041	-0.018
1042	-0.018
1042	-0.019
1043	-0.02
1043	-0.022
1044	-0.022
1044	-0.023
1044	-0.024
1045	-0.025
1045	-0.025
1046	-0.026
1046	-0.026
1046	-0.026
1047	-0.026
1047	-0.026
1048	-0.025
1048	-0.025
1049	-0.025
1049	-0.025
1049	-0.026
1050	-0.026
1050	-0.026
1051	-0.027
1051	-0.027
1051	-0.028
1052	-0.028
1052	-0.029
1053	-0.029
1053	-0.03
1053	-0.03
1054	-0.03
1054	-0.029
1055	-0.029
1055	-0.029
1056	-0.03
1056	-0.03
1056	-0.031
1057	-0.032
1057	-0.031
1058	-0.032
1058	-0.032
1058	-0.032
1059	-0.033
1059	-0.033
1060	-0.033
1060	-0.032
1061	-0.032
1061	-0.031
1061	-0.03
1062	-0.03
1062	-0.03
1063	-0.029
1063	-0.029
1063	-0.028
1064	-0.028
1064	-0.027
1065	-0.027
1065	-0.027
1066	-0.027
1066	-0.027
1066	-0.026
1067	-0.026
1067	-0.026
1068	-0.026
1068	-0.026
1068	-0.026
1069	-0.027
1069	-0.028
1070	-0.029
1070	-0.029
1071	-0.03
1071	-0.031
1071	-0.032
1072	-0.032
1072	-0.033
1073	-0.033
1073	-0.034
1073	-0.034
1074	-0.034
1074	-0.034
1075	-0.036
1075	-0.036
1076	-0.037
1076	-0.036
1076	-0.037
1077	-0.038
1077	-0.037
1078	-0.038
1078	-0.037
1078	-0.036
1079	-0.036
1079	-0.034
1080	-0.034
1080	-0.032
1080	-0.032
1081	-0.031
1081	-0.03
1082	-0.03
1082	-0.029
1083	-0.029
1083	-0.029
1083	-0.029
1084	-0.029
1084	-0.028
1085	-0.028
1085	-0.027
1085	-0.025
1086	-0.025
1086	-0.025
1087	-0.024
1087	-0.023
1088	-0.024
1088	-0.023
1088	-0.023
1089	-0.024
1089	-0.024
1090	-0.025
1090	-0.025
1090	-0.025
1091	-0.026
1091	-0.024
1092	-0.025
1092	-0.023
1092	-0.022
1093	-0.021
1093	-0.019
1094	-0.017
1094	-0.015
1095	-0.014
1095	-0.013
1095	-0.01
1096	-0.008
1096	-0.005
1097	-0.003
1097	-0.001
1097	0.001
1098	0.002
1098	0.003
1099	0.005
1099	0.008
1100	0.01
1100	0.011
1100	0.012
1101	0.013
1101	0.016
1102	0.02
1102	0.023
1102	0.027
1103	0.03
1103	0.035
1104	0.039
1104	0.045
1104	0.053
1105	0.06
1105	0.066
1106	0.07
1106	0.078
1107	0.085
1107	0.098
1107	0.112
1108	0.159
1108	0.227
1109	0.328
1109	0.51
1109	0.68
1110	1.256
1110	-0
1111	-0
1111	-0
