Data from 15c-2a_Absorbance__1324__01324.txt Node

Date: Wed Jan 17 10:24:32 CET 2024
User: Marek
Spectrometer: MAYP115816
Trigger mode: 0
Integration Time (sec): 2.000000E-1
Scans to average: 10
Electric dark correction enabled: true
Nonlinearity correction enabled: true
Boxcar width: 5
XAxis mode: Wavelengths
Number of Pixels in Spectrum: 2068
>>>>>Begin Spectral Data<<<<<
199	-1.6
199	-1.461
200	-1.302
200	-1.18
201	-1.104
201	-1.057
202	-0.987
202	-0.937
203	-0.892
203	-0.853
204	-0.829
204	-0.805
205	-0.782
205	-0.773
205	-0.771
206	-0.77
206	-0.767
207	-0.764
207	-0.76
208	-0.758
208	-0.758
209	-0.753
209	-0.752
210	-0.75
210	-0.751
211	-0.749
211	-0.748
212	-0.75
212	-0.748
213	-0.748
213	-0.747
213	-0.746
214	-0.746
214	-0.745
215	-0.744
215	-0.743
216	-0.743
216	-0.74
217	-0.735
217	-0.733
218	-0.732
218	-0.729
219	-0.725
219	-0.725
220	-0.721
220	-0.718
221	-0.714
221	-0.711
221	-0.707
222	-0.703
222	-0.699
223	-0.693
223	-0.69
224	-0.686
224	-0.678
225	-0.67
225	-0.662
226	-0.653
226	-0.641
227	-0.628
227	-0.615
228	-0.6
228	-0.582
229	-0.562
229	-0.537
229	-0.51
230	-0.481
230	-0.451
231	-0.417
231	-0.38
232	-0.344
232	-0.304
233	-0.262
233	-0.219
234	-0.177
234	-0.135
235	-0.096
235	-0.057
236	-0.019
236	0.017
236	0.051
237	0.083
237	0.112
238	0.14
238	0.165
239	0.19
239	0.211
240	0.23
240	0.248
241	0.264
241	0.279
242	0.292
242	0.303
243	0.314
243	0.324
243	0.332
244	0.34
244	0.347
245	0.353
245	0.36
246	0.365
246	0.371
247	0.375
247	0.38
248	0.384
248	0.388
249	0.392
249	0.395
250	0.398
250	0.401
250	0.404
251	0.406
251	0.409
252	0.411
252	0.413
253	0.415
253	0.417
254	0.418
254	0.42
255	0.421
255	0.423
256	0.424
256	0.424
257	0.425
257	0.426
258	0.426
258	0.426
258	0.427
259	0.427
259	0.427
260	0.427
260	0.427
261	0.426
261	0.426
262	0.426
262	0.425
263	0.425
263	0.424
264	0.423
264	0.423
265	0.422
265	0.42
265	0.419
266	0.418
266	0.417
267	0.415
267	0.414
268	0.412
268	0.411
269	0.409
269	0.407
270	0.405
270	0.403
271	0.401
271	0.399
272	0.397
272	0.395
272	0.394
273	0.392
273	0.389
274	0.387
274	0.385
275	0.383
275	0.381
276	0.379
276	0.377
277	0.375
277	0.373
278	0.37
278	0.368
278	0.366
279	0.363
279	0.361
280	0.358
280	0.356
281	0.354
281	0.352
282	0.349
282	0.347
283	0.346
283	0.344
284	0.342
284	0.34
285	0.338
285	0.336
285	0.334
286	0.333
286	0.331
287	0.33
287	0.328
288	0.326
288	0.325
289	0.323
289	0.321
290	0.32
290	0.318
291	0.317
291	0.315
292	0.314
292	0.312
292	0.311
293	0.31
293	0.308
294	0.307
294	0.306
295	0.305
295	0.304
296	0.303
296	0.302
297	0.3
297	0.3
298	0.299
298	0.298
298	0.297
299	0.296
299	0.296
300	0.295
300	0.294
301	0.293
301	0.293
302	0.292
302	0.291
303	0.29
303	0.289
304	0.288
304	0.288
305	0.287
305	0.286
305	0.285
306	0.284
306	0.283
307	0.283
307	0.282
308	0.281
308	0.28
309	0.28
309	0.279
310	0.278
310	0.278
311	0.277
311	0.276
311	0.276
312	0.275
312	0.274
313	0.273
313	0.272
314	0.272
314	0.271
315	0.27
315	0.269
316	0.269
316	0.268
317	0.267
317	0.266
318	0.266
318	0.265
318	0.264
319	0.263
319	0.262
320	0.261
320	0.261
321	0.26
321	0.259
322	0.258
322	0.257
323	0.256
323	0.255
324	0.255
324	0.254
324	0.253
325	0.253
325	0.252
326	0.251
326	0.25
327	0.249
327	0.249
328	0.248
328	0.247
329	0.246
329	0.246
330	0.245
330	0.244
330	0.244
331	0.243
331	0.242
332	0.241
332	0.241
333	0.24
333	0.239
334	0.238
334	0.238
335	0.237
335	0.236
336	0.235
336	0.234
336	0.234
337	0.233
337	0.233
338	0.232
338	0.231
339	0.231
339	0.23
340	0.23
340	0.229
341	0.229
341	0.228
342	0.228
342	0.227
342	0.227
343	0.226
343	0.225
344	0.225
344	0.225
345	0.224
345	0.224
346	0.223
346	0.223
347	0.222
347	0.222
348	0.221
348	0.221
348	0.22
349	0.22
349	0.219
350	0.219
350	0.218
351	0.218
351	0.217
352	0.217
352	0.216
353	0.216
353	0.216
354	0.215
354	0.215
354	0.215
355	0.214
355	0.214
356	0.213
356	0.212
357	0.212
357	0.212
358	0.211
358	0.211
359	0.211
359	0.211
360	0.211
360	0.211
360	0.211
361	0.211
361	0.211
362	0.211
362	0.211
363	0.211
363	0.21
364	0.21
364	0.21
365	0.21
365	0.21
366	0.209
366	0.209
366	0.209
367	0.209
367	0.209
368	0.209
368	0.208
369	0.208
369	0.208
370	0.208
370	0.207
371	0.207
371	0.207
372	0.207
372	0.207
372	0.206
373	0.206
373	0.206
374	0.206
374	0.206
375	0.205
375	0.205
376	0.205
376	0.205
377	0.204
377	0.204
378	0.204
378	0.205
378	0.205
379	0.205
379	0.204
380	0.205
380	0.205
381	0.205
381	0.204
382	0.204
382	0.204
383	0.204
383	0.203
383	0.203
384	0.202
384	0.202
385	0.202
385	0.202
386	0.201
386	0.201
387	0.201
387	0.201
388	0.201
388	0.201
389	0.201
389	0.2
389	0.201
390	0.2
390	0.2
391	0.2
391	0.2
392	0.2
392	0.2
393	0.2
393	0.199
394	0.199
394	0.199
394	0.199
395	0.198
395	0.198
396	0.198
396	0.198
397	0.198
397	0.198
398	0.197
398	0.197
399	0.197
399	0.197
400	0.197
400	0.197
400	0.196
401	0.196
401	0.195
402	0.195
402	0.195
403	0.194
403	0.194
404	0.194
404	0.194
405	0.194
405	0.193
405	0.193
406	0.193
406	0.193
407	0.193
407	0.192
408	0.192
408	0.192
409	0.191
409	0.191
410	0.191
410	0.191
411	0.191
411	0.191
411	0.19
412	0.19
412	0.19
413	0.19
413	0.189
414	0.189
414	0.189
415	0.189
415	0.188
416	0.188
416	0.188
416	0.188
417	0.188
417	0.188
418	0.188
418	0.188
419	0.188
419	0.189
420	0.189
420	0.189
421	0.189
421	0.19
421	0.19
422	0.19
422	0.19
423	0.19
423	0.19
424	0.189
424	0.188
425	0.188
425	0.187
426	0.187
426	0.187
427	0.186
427	0.186
427	0.186
428	0.186
428	0.187
429	0.187
429	0.187
430	0.187
430	0.187
431	0.187
431	0.187
432	0.186
432	0.186
432	0.185
433	0.185
433	0.184
434	0.184
434	0.184
435	0.184
435	0.184
436	0.184
436	0.184
437	0.184
437	0.185
437	0.185
438	0.185
438	0.185
439	0.185
439	0.184
440	0.184
440	0.184
441	0.184
441	0.184
442	0.183
442	0.184
442	0.183
443	0.183
443	0.183
444	0.184
444	0.184
445	0.184
445	0.184
446	0.184
446	0.184
447	0.184
447	0.184
447	0.183
448	0.183
448	0.183
449	0.183
449	0.183
450	0.184
450	0.183
451	0.183
451	0.183
452	0.183
452	0.183
452	0.183
453	0.183
453	0.183
454	0.183
454	0.183
455	0.183
455	0.183
456	0.183
456	0.183
457	0.183
457	0.183
458	0.183
458	0.183
458	0.184
459	0.184
459	0.183
460	0.183
460	0.183
461	0.182
461	0.182
462	0.182
462	0.183
463	0.183
463	0.184
463	0.184
464	0.184
464	0.185
465	0.185
465	0.185
466	0.186
466	0.186
467	0.186
467	0.186
467	0.186
468	0.186
468	0.185
469	0.185
469	0.185
470	0.185
470	0.185
471	0.184
471	0.184
472	0.184
472	0.184
472	0.185
473	0.185
473	0.186
474	0.186
474	0.187
475	0.187
475	0.188
476	0.188
476	0.189
477	0.189
477	0.189
477	0.19
478	0.19
478	0.19
479	0.191
479	0.191
480	0.192
480	0.192
481	0.193
481	0.194
482	0.195
482	0.196
482	0.197
483	0.199
483	0.201
484	0.202
484	0.203
485	0.203
485	0.205
486	0.205
486	0.206
487	0.207
487	0.208
487	0.208
488	0.209
488	0.209
489	0.21
489	0.211
490	0.212
490	0.213
491	0.214
491	0.215
492	0.216
492	0.216
492	0.217
493	0.218
493	0.219
494	0.221
494	0.222
495	0.224
495	0.225
496	0.227
496	0.228
496	0.23
497	0.232
497	0.233
498	0.235
498	0.236
499	0.237
499	0.238
500	0.239
500	0.241
501	0.242
501	0.244
501	0.245
502	0.247
502	0.249
503	0.25
503	0.252
504	0.253
504	0.254
505	0.255
505	0.256
506	0.258
506	0.259
506	0.26
507	0.261
507	0.262
508	0.263
508	0.265
509	0.266
509	0.268
510	0.269
510	0.27
511	0.271
511	0.272
511	0.273
512	0.274
512	0.275
513	0.276
513	0.276
514	0.277
514	0.277
515	0.278
515	0.278
515	0.279
516	0.28
516	0.281
517	0.282
517	0.282
518	0.282
518	0.282
519	0.282
519	0.282
520	0.282
520	0.282
520	0.281
521	0.28
521	0.279
522	0.278
522	0.277
523	0.277
523	0.277
524	0.277
524	0.278
524	0.278
525	0.279
525	0.279
526	0.28
526	0.28
527	0.281
527	0.281
528	0.281
528	0.281
529	0.281
529	0.28
529	0.28
530	0.279
530	0.278
531	0.278
531	0.277
532	0.276
532	0.275
533	0.274
533	0.273
533	0.273
534	0.271
534	0.27
535	0.269
535	0.268
536	0.267
536	0.266
537	0.265
537	0.264
538	0.262
538	0.261
538	0.259
539	0.258
539	0.256
540	0.254
540	0.252
541	0.25
541	0.248
542	0.246
542	0.244
542	0.241
543	0.239
543	0.237
544	0.235
544	0.233
545	0.232
545	0.23
546	0.229
546	0.227
547	0.224
547	0.222
547	0.219
548	0.217
548	0.215
549	0.213
549	0.21
550	0.208
550	0.205
551	0.203
551	0.2
551	0.198
552	0.196
552	0.195
553	0.193
553	0.192
554	0.19
554	0.187
555	0.185
555	0.182
556	0.18
556	0.177
556	0.175
557	0.173
557	0.171
558	0.168
558	0.166
559	0.164
559	0.162
560	0.161
560	0.159
560	0.158
561	0.157
561	0.156
562	0.155
562	0.153
563	0.15
563	0.148
564	0.145
564	0.142
564	0.14
565	0.138
565	0.135
566	0.133
566	0.13
567	0.129
567	0.128
568	0.126
568	0.125
568	0.125
569	0.125
569	0.125
570	0.124
570	0.122
571	0.121
571	0.121
572	0.119
572	0.118
573	0.117
573	0.116
573	0.114
574	0.113
574	0.112
575	0.111
575	0.111
576	0.111
576	0.109
577	0.108
577	0.106
577	0.106
578	0.105
578	0.104
579	0.104
579	0.104
580	0.102
580	0.099
581	0.096
581	0.094
581	0.094
582	0.093
582	0.092
583	0.092
583	0.091
584	0.088
584	0.085
585	0.084
585	0.084
585	0.083
586	0.083
586	0.082
587	0.081
587	0.079
588	0.077
588	0.076
589	0.076
589	0.076
590	0.076
590	0.076
590	0.077
591	0.077
591	0.076
592	0.076
592	0.074
593	0.074
593	0.074
594	0.073
594	0.072
594	0.07
595	0.07
595	0.069
596	0.068
596	0.069
597	0.071
597	0.071
598	0.072
598	0.073
598	0.074
599	0.074
599	0.074
600	0.073
600	0.072
601	0.072
601	0.071
602	0.069
602	0.069
602	0.068
603	0.068
603	0.069
604	0.07
604	0.071
605	0.072
605	0.073
606	0.074
606	0.073
606	0.073
607	0.072
607	0.072
608	0.071
608	0.069
609	0.068
609	0.068
610	0.067
610	0.067
610	0.067
611	0.068
611	0.069
612	0.071
612	0.072
613	0.073
613	0.075
614	0.074
614	0.073
614	0.072
615	0.072
615	0.071
616	0.07
616	0.069
617	0.068
617	0.067
618	0.065
618	0.064
618	0.064
619	0.065
619	0.066
620	0.067
620	0.068
621	0.069
621	0.069
622	0.069
622	0.07
622	0.07
623	0.07
623	0.071
624	0.071
624	0.071
625	0.07
625	0.07
626	0.07
626	0.071
626	0.072
627	0.073
627	0.073
628	0.074
628	0.075
629	0.076
629	0.077
630	0.077
630	0.077
630	0.078
631	0.079
631	0.08
632	0.08
632	0.081
633	0.082
633	0.083
634	0.085
634	0.087
634	0.089
635	0.09
635	0.091
636	0.092
636	0.093
637	0.094
637	0.094
638	0.095
638	0.097
638	0.098
639	0.099
639	0.1
640	0.101
640	0.103
641	0.105
641	0.107
642	0.109
642	0.111
642	0.112
643	0.114
643	0.116
644	0.118
644	0.119
645	0.122
645	0.124
646	0.126
646	0.128
646	0.131
647	0.134
647	0.136
648	0.138
648	0.14
649	0.142
649	0.144
650	0.146
650	0.148
650	0.15
651	0.152
651	0.154
652	0.156
652	0.158
653	0.161
653	0.168
653	0.179
654	0.143
654	0.116
655	0.119
655	0.121
656	0.122
656	0.124
657	0.125
657	0.127
657	0.128
658	0.126
658	0.117
659	0.149
659	0.194
660	0.2
660	0.202
661	0.205
661	0.208
661	0.211
662	0.214
662	0.218
663	0.221
663	0.225
664	0.228
664	0.231
665	0.234
665	0.237
665	0.24
666	0.243
666	0.245
667	0.247
667	0.249
668	0.252
668	0.255
669	0.257
669	0.26
669	0.264
670	0.268
670	0.271
671	0.273
671	0.275
672	0.278
672	0.28
672	0.282
673	0.284
673	0.286
674	0.287
674	0.288
675	0.288
675	0.289
676	0.291
676	0.293
676	0.294
677	0.295
677	0.297
678	0.298
678	0.299
679	0.301
679	0.302
680	0.304
680	0.306
680	0.307
681	0.309
681	0.31
682	0.311
682	0.312
683	0.313
683	0.314
684	0.315
684	0.315
684	0.315
685	0.315
685	0.316
686	0.316
686	0.316
687	0.316
687	0.317
687	0.317
688	0.317
688	0.316
689	0.316
689	0.316
690	0.316
690	0.314
691	0.313
691	0.312
691	0.31
692	0.308
692	0.307
693	0.306
693	0.305
694	0.303
694	0.301
695	0.301
695	0.302
695	0.302
696	0.301
696	0.3
697	0.299
697	0.299
698	0.298
698	0.296
698	0.295
699	0.294
699	0.292
700	0.29
700	0.288
701	0.288
701	0.286
702	0.285
702	0.283
702	0.282
703	0.28
703	0.277
704	0.275
704	0.273
705	0.271
705	0.269
705	0.266
706	0.265
706	0.263
707	0.26
707	0.258
708	0.255
708	0.253
709	0.251
709	0.249
709	0.246
710	0.242
710	0.24
711	0.238
711	0.235
712	0.233
712	0.231
713	0.229
713	0.227
713	0.225
714	0.223
714	0.221
715	0.219
715	0.217
716	0.215
716	0.214
716	0.212
717	0.21
717	0.209
718	0.206
718	0.204
719	0.203
719	0.201
720	0.199
720	0.197
720	0.195
721	0.192
721	0.19
722	0.188
722	0.185
723	0.184
723	0.182
723	0.179
724	0.177
724	0.175
725	0.172
725	0.17
726	0.167
726	0.165
727	0.162
727	0.16
727	0.157
728	0.154
728	0.152
729	0.151
729	0.149
730	0.147
730	0.145
730	0.143
731	0.141
731	0.14
732	0.138
732	0.136
733	0.134
733	0.131
734	0.129
734	0.126
734	0.125
735	0.124
735	0.122
736	0.121
736	0.12
737	0.119
737	0.119
737	0.118
738	0.116
738	0.114
739	0.112
739	0.11
740	0.107
740	0.105
741	0.102
741	0.099
741	0.096
742	0.091
742	0.088
743	0.086
743	0.084
744	0.083
744	0.081
744	0.079
745	0.077
745	0.075
746	0.074
746	0.073
747	0.072
747	0.072
748	0.071
748	0.07
748	0.069
749	0.067
749	0.066
750	0.065
750	0.064
751	0.063
751	0.063
751	0.063
752	0.062
752	0.06
753	0.06
753	0.059
754	0.059
754	0.059
754	0.059
755	0.059
755	0.059
756	0.058
756	0.056
757	0.055
757	0.054
758	0.053
758	0.052
758	0.051
759	0.05
759	0.048
760	0.046
760	0.043
761	0.042
761	0.041
761	0.04
762	0.038
762	0.038
763	0.037
763	0.035
764	0.033
764	0.031
764	0.029
765	0.027
765	0.025
766	0.024
766	0.023
767	0.022
767	0.019
768	0.017
768	0.016
768	0.014
769	0.013
769	0.013
770	0.011
770	0.01
771	0.007
771	0.005
771	0.002
772	0
772	-0.002
773	-0.004
773	-0.007
774	-0.01
774	-0.012
775	-0.015
775	-0.017
775	-0.02
776	-0.022
776	-0.025
777	-0.027
777	-0.03
778	-0.032
778	-0.035
778	-0.037
779	-0.038
779	-0.04
780	-0.042
780	-0.045
781	-0.048
781	-0.052
781	-0.056
782	-0.062
782	-0.068
783	-0.073
783	-0.079
784	-0.085
784	-0.092
784	-0.098
785	-0.105
785	-0.111
786	-0.117
786	-0.121
787	-0.122
787	-0.124
788	-0.129
788	-0.135
788	-0.14
789	-0.145
789	-0.147
790	-0.147
790	-0.149
791	-0.151
791	-0.152
791	-0.155
792	-0.15
792	-0.139
793	-0.133
793	-0.129
794	-0.127
794	-0.13
794	-0.134
795	-0.136
795	-0.136
796	-0.137
796	-0.14
797	-0.149
797	-0.16
797	-0.166
798	-0.172
798	-0.174
799	-0.175
799	-0.174
800	-0.173
800	-0.175
801	-0.178
801	-0.179
801	-0.179
802	-0.18
802	-0.182
803	-0.182
803	-0.183
804	-0.182
804	-0.177
804	-0.17
805	-0.166
805	-0.164
806	-0.162
806	-0.161
807	-0.16
807	-0.159
807	-0.159
808	-0.159
808	-0.16
809	-0.165
809	-0.171
810	-0.175
810	-0.178
810	-0.182
811	-0.185
811	-0.185
812	-0.181
812	-0.178
813	-0.178
813	-0.179
813	-0.179
814	-0.18
814	-0.179
815	-0.176
815	-0.172
816	-0.169
816	-0.166
817	-0.166
817	-0.163
817	-0.157
818	-0.15
818	-0.14
819	-0.131
819	-0.122
820	-0.115
820	-0.108
820	-0.1
821	-0.093
821	-0.086
822	-0.081
822	-0.076
823	-0.072
823	-0.069
823	-0.067
824	-0.064
824	-0.061
825	-0.057
825	-0.054
826	-0.051
826	-0.05
826	-0.048
827	-0.046
827	-0.044
828	-0.042
828	-0.04
829	-0.038
829	-0.037
829	-0.036
830	-0.036
830	-0.034
831	-0.032
831	-0.03
832	-0.029
832	-0.027
832	-0.025
833	-0.024
833	-0.022
834	-0.02
834	-0.019
835	-0.017
835	-0.016
835	-0.015
836	-0.013
836	-0.012
837	-0.011
837	-0.011
838	-0.01
838	-0.01
839	-0.009
839	-0.009
839	-0.009
840	-0.009
840	-0.008
841	-0.008
841	-0.008
842	-0.007
842	-0.007
842	-0.006
843	-0.006
843	-0.005
844	-0.005
844	-0.004
845	-0.004
845	-0.003
845	-0.003
846	-0.002
846	-0.002
847	-0.002
847	-0.002
848	-0.002
848	-0.003
848	-0.003
849	-0.004
849	-0.004
850	-0.005
850	-0.007
851	-0.007
851	-0.007
851	-0.008
852	-0.008
852	-0.008
853	-0.007
853	-0.007
854	-0.006
854	-0.006
854	-0.005
855	-0.005
855	-0.005
856	-0.005
856	-0.005
857	-0.005
857	-0.006
857	-0.006
858	-0.007
858	-0.007
859	-0.008
859	-0.008
860	-0.008
860	-0.009
860	-0.009
861	-0.008
861	-0.008
862	-0.009
862	-0.009
863	-0.009
863	-0.009
863	-0.009
864	-0.009
864	-0.008
865	-0.008
865	-0.007
866	-0.006
866	-0.005
866	-0.004
867	-0.002
867	-0.001
868	0
868	0.002
869	0.003
869	0.004
869	0.004
870	0.004
870	0.004
871	0.003
871	0.002
872	0.001
872	-0
872	-0.001
873	-0.002
873	-0.003
874	-0.004
874	-0.004
875	-0.004
875	-0.004
875	-0.003
876	-0.003
876	-0.002
877	-0.001
877	-0
878	0.001
878	0.002
878	0.003
879	0.003
879	0.004
880	0.004
880	0.005
881	0.005
881	0.005
881	0.005
882	0.005
882	0.005
883	0.005
883	0.005
884	0.005
884	0.004
884	0.004
885	0.003
885	0.003
886	0.003
886	0.003
887	0.003
887	0.002
887	0.002
888	0.001
888	0.001
889	0
889	0
890	-0
890	-0.001
890	-0.002
891	-0.002
891	-0.003
892	-0.004
892	-0.005
893	-0.005
893	-0.006
893	-0.006
894	-0.007
894	-0.008
895	-0.009
895	-0.009
895	-0.01
896	-0.01
896	-0.011
897	-0.011
897	-0.011
898	-0.01
898	-0.01
898	-0.01
899	-0.009
899	-0.008
900	-0.008
900	-0.007
901	-0.006
901	-0.005
901	-0.004
902	-0.004
902	-0.003
903	-0.002
903	-0.002
904	-0.002
904	-0.001
904	-0.001
905	-0
905	0
906	0.001
906	0.001
907	0.001
907	0.002
907	0.002
908	0.002
908	0.002
909	0.002
909	0.002
910	0.002
910	0.003
910	0.003
911	0.003
911	0.004
912	0.005
912	0.006
913	0.006
913	0.007
913	0.007
914	0.006
914	0.006
915	0.005
915	0.003
916	0.002
916	0
916	-0.002
917	-0.003
917	-0.005
918	-0.006
918	-0.007
918	-0.008
919	-0.008
919	-0.008
920	-0.007
920	-0.007
921	-0.006
921	-0.005
921	-0.004
922	-0.003
922	-0.002
923	-0.001
923	0
924	0.001
924	0.001
924	0.001
925	0.001
925	0.001
926	0.001
926	0.001
927	0.001
927	0
927	-0
928	-0.001
928	-0.001
929	-0.001
929	-0.001
930	-0.002
930	-0.002
930	-0.002
931	-0.002
931	-0.003
932	-0.003
932	-0.003
933	-0.003
933	-0.003
933	-0.003
934	-0.003
934	-0.003
935	-0.003
935	-0.003
935	-0.003
936	-0.003
936	-0.003
937	-0.003
937	-0.003
938	-0.004
938	-0.004
938	-0.004
939	-0.005
939	-0.005
940	-0.006
940	-0.006
941	-0.006
941	-0.006
941	-0.006
942	-0.005
942	-0.005
943	-0.005
943	-0.005
944	-0.005
944	-0.005
944	-0.004
945	-0.004
945	-0.004
946	-0.005
946	-0.005
946	-0.005
947	-0.006
947	-0.006
948	-0.006
948	-0.007
949	-0.007
949	-0.006
949	-0.006
950	-0.006
950	-0.005
951	-0.005
951	-0.004
952	-0.004
952	-0.004
952	-0.004
953	-0.003
953	-0.004
954	-0.004
954	-0.005
955	-0.005
955	-0.006
955	-0.006
956	-0.006
956	-0.007
957	-0.007
957	-0.008
957	-0.008
958	-0.009
958	-0.009
959	-0.01
959	-0.01
960	-0.01
960	-0.011
960	-0.012
961	-0.012
961	-0.012
962	-0.012
962	-0.012
963	-0.012
963	-0.011
963	-0.01
964	-0.01
964	-0.008
965	-0.007
965	-0.006
966	-0.005
966	-0.004
966	-0.002
967	-0.002
967	-0.001
968	-0
968	0
968	0
969	0
969	0
970	0
970	-0
971	-0.001
971	-0.001
971	-0.002
972	-0.002
972	-0.002
973	-0.002
973	-0.003
974	-0.003
974	-0.004
974	-0.004
975	-0.004
975	-0.004
976	-0.004
976	-0.004
976	-0.005
977	-0.006
977	-0.007
978	-0.008
978	-0.009
979	-0.01
979	-0.012
979	-0.013
980	-0.014
980	-0.015
981	-0.017
981	-0.018
982	-0.018
982	-0.018
982	-0.018
983	-0.018
983	-0.017
984	-0.017
984	-0.016
984	-0.015
985	-0.014
985	-0.013
986	-0.013
986	-0.012
987	-0.011
987	-0.011
987	-0.01
988	-0.01
988	-0.009
989	-0.008
989	-0.008
990	-0.007
990	-0.007
990	-0.005
991	-0.004
991	-0.004
992	-0.003
992	-0.002
992	-0.001
993	-0.001
993	-0
994	-0
994	-0
995	0
995	0
995	-0
996	-0
996	-0.001
997	-0.001
997	-0.001
997	-0.001
998	-0.001
998	-0.001
999	-0
999	-0
1000	0
1000	0
1000	0.001
1001	0.001
1001	0.002
1002	0.002
1002	0.002
1003	0.002
1003	0.002
1003	0.002
1004	0.002
1004	0.001
1005	0.001
1005	0
1005	-0
1006	-0.001
1006	-0.002
1007	-0.002
1007	-0.003
1008	-0.003
1008	-0.004
1008	-0.004
1009	-0.004
1009	-0.004
1010	-0.005
1010	-0.005
1010	-0.005
1011	-0.006
1011	-0.006
1012	-0.006
1012	-0.007
1013	-0.007
1013	-0.008
1013	-0.009
1014	-0.009
1014	-0.01
1015	-0.01
1015	-0.011
1016	-0.011
1016	-0.012
1016	-0.012
1017	-0.013
1017	-0.013
1018	-0.013
1018	-0.013
1018	-0.013
1019	-0.013
1019	-0.013
1020	-0.014
1020	-0.014
1021	-0.014
1021	-0.014
1021	-0.014
1022	-0.014
1022	-0.013
1023	-0.013
1023	-0.013
1023	-0.013
1024	-0.013
1024	-0.013
1025	-0.014
1025	-0.014
1026	-0.014
1026	-0.014
1026	-0.014
1027	-0.014
1027	-0.014
1028	-0.014
1028	-0.014
1028	-0.014
1029	-0.014
1029	-0.013
1030	-0.013
1030	-0.013
1031	-0.013
1031	-0.013
1031	-0.013
1032	-0.013
1032	-0.014
1033	-0.014
1033	-0.015
1033	-0.016
1034	-0.017
1034	-0.018
1035	-0.019
1035	-0.02
1036	-0.021
1036	-0.022
1036	-0.023
1037	-0.023
1037	-0.023
1038	-0.023
1038	-0.022
1039	-0.022
1039	-0.021
1039	-0.02
1040	-0.019
1040	-0.019
1041	-0.018
1041	-0.018
1041	-0.018
1042	-0.019
1042	-0.02
1043	-0.021
1043	-0.022
1044	-0.023
1044	-0.024
1044	-0.024
1045	-0.025
1045	-0.025
1046	-0.026
1046	-0.026
1046	-0.025
1047	-0.025
1047	-0.024
1048	-0.024
1048	-0.023
1049	-0.023
1049	-0.023
1049	-0.023
1050	-0.023
1050	-0.024
1051	-0.024
1051	-0.024
1051	-0.025
1052	-0.025
1052	-0.025
1053	-0.026
1053	-0.026
1053	-0.026
1054	-0.026
1054	-0.025
1055	-0.025
1055	-0.025
1056	-0.026
1056	-0.026
1056	-0.027
1057	-0.027
1057	-0.027
1058	-0.028
1058	-0.028
1058	-0.028
1059	-0.029
1059	-0.03
1060	-0.03
1060	-0.03
1061	-0.029
1061	-0.029
1061	-0.029
1062	-0.029
1062	-0.029
1063	-0.028
1063	-0.029
1063	-0.028
1064	-0.027
1064	-0.027
1065	-0.027
1065	-0.027
1066	-0.026
1066	-0.026
1066	-0.026
1067	-0.026
1067	-0.025
1068	-0.025
1068	-0.026
1068	-0.026
1069	-0.026
1069	-0.027
1070	-0.028
1070	-0.028
1071	-0.029
1071	-0.029
1071	-0.03
1072	-0.031
1072	-0.031
1073	-0.032
1073	-0.032
1073	-0.033
1074	-0.033
1074	-0.033
1075	-0.034
1075	-0.034
1076	-0.035
1076	-0.035
1076	-0.036
1077	-0.036
1077	-0.036
1078	-0.037
1078	-0.036
1078	-0.035
1079	-0.034
1079	-0.033
1080	-0.033
1080	-0.032
1080	-0.031
1081	-0.03
1081	-0.029
1082	-0.028
1082	-0.027
1083	-0.026
1083	-0.026
1083	-0.026
1084	-0.026
1084	-0.025
1085	-0.024
1085	-0.023
1085	-0.022
1086	-0.021
1086	-0.021
1087	-0.021
1087	-0.02
1088	-0.02
1088	-0.02
1088	-0.019
1089	-0.02
1089	-0.021
1090	-0.022
1090	-0.021
1090	-0.021
1091	-0.022
1091	-0.021
1092	-0.021
1092	-0.02
1092	-0.02
1093	-0.018
1093	-0.015
1094	-0.013
1094	-0.012
1095	-0.01
1095	-0.009
1095	-0.005
1096	-0.003
1096	-0.001
1097	0.001
1097	0.003
1097	0.005
1098	0.005
1098	0.007
1099	0.009
1099	0.012
1100	0.014
1100	0.015
1100	0.016
1101	0.019
1101	0.021
1102	0.024
1102	0.027
1102	0.031
1103	0.035
1103	0.039
1104	0.044
1104	0.05
1104	0.056
1105	0.063
1105	0.069
1106	0.074
1106	0.082
1107	0.091
1107	0.103
1107	0.117
1108	0.166
1108	0.232
1109	0.333
1109	0.518
1109	0.688
1110	1.269
1110	-0
1111	-0
1111	-0
