Data from 15c-2a_Absorbance__132__00132.txt Node

Date: Wed Jan 17 09:44:49 CET 2024
User: Marek
Spectrometer: MAYP115816
Trigger mode: 0
Integration Time (sec): 2.000000E-1
Scans to average: 10
Electric dark correction enabled: true
Nonlinearity correction enabled: true
Boxcar width: 5
XAxis mode: Wavelengths
Number of Pixels in Spectrum: 2068
>>>>>Begin Spectral Data<<<<<
199	-1.625
199	-1.479
200	-1.317
200	-1.191
201	-1.112
201	-1.063
202	-0.989
202	-0.933
203	-0.883
203	-0.84
204	-0.814
204	-0.79
205	-0.767
205	-0.757
205	-0.756
206	-0.754
206	-0.75
207	-0.748
207	-0.743
208	-0.741
208	-0.74
209	-0.736
209	-0.734
210	-0.733
210	-0.734
211	-0.731
211	-0.73
212	-0.73
212	-0.729
213	-0.728
213	-0.727
213	-0.725
214	-0.724
214	-0.723
215	-0.722
215	-0.72
216	-0.72
216	-0.717
217	-0.713
217	-0.71
218	-0.71
218	-0.706
219	-0.704
219	-0.702
220	-0.698
220	-0.694
221	-0.689
221	-0.685
221	-0.68
222	-0.677
222	-0.672
223	-0.667
223	-0.663
224	-0.657
224	-0.651
225	-0.643
225	-0.635
226	-0.626
226	-0.614
227	-0.602
227	-0.588
228	-0.574
228	-0.555
229	-0.536
229	-0.514
229	-0.489
230	-0.461
230	-0.433
231	-0.4
231	-0.367
232	-0.332
232	-0.295
233	-0.256
233	-0.216
234	-0.177
234	-0.138
235	-0.101
235	-0.065
236	-0.031
236	0.001
236	0.032
237	0.06
237	0.086
238	0.109
238	0.131
239	0.151
239	0.17
240	0.186
240	0.202
241	0.215
241	0.228
242	0.239
242	0.249
243	0.259
243	0.267
243	0.274
244	0.282
244	0.288
245	0.294
245	0.299
246	0.304
246	0.309
247	0.313
247	0.317
248	0.321
248	0.325
249	0.328
249	0.331
250	0.334
250	0.337
250	0.339
251	0.342
251	0.344
252	0.346
252	0.348
253	0.35
253	0.351
254	0.353
254	0.354
255	0.355
255	0.357
256	0.358
256	0.359
257	0.359
257	0.36
258	0.361
258	0.361
258	0.361
259	0.362
259	0.362
260	0.362
260	0.361
261	0.361
261	0.361
262	0.36
262	0.36
263	0.36
263	0.359
264	0.358
264	0.357
265	0.357
265	0.356
265	0.354
266	0.353
266	0.352
267	0.351
267	0.349
268	0.348
268	0.346
269	0.345
269	0.343
270	0.341
270	0.34
271	0.338
271	0.336
272	0.334
272	0.332
272	0.33
273	0.328
273	0.326
274	0.324
274	0.322
275	0.32
275	0.318
276	0.316
276	0.314
277	0.312
277	0.31
278	0.307
278	0.305
278	0.303
279	0.301
279	0.299
280	0.297
280	0.295
281	0.293
281	0.291
282	0.289
282	0.287
283	0.286
283	0.284
284	0.282
284	0.28
285	0.279
285	0.277
285	0.275
286	0.273
286	0.271
287	0.27
287	0.268
288	0.266
288	0.265
289	0.263
289	0.262
290	0.261
290	0.259
291	0.258
291	0.257
292	0.256
292	0.254
292	0.253
293	0.252
293	0.251
294	0.25
294	0.249
295	0.248
295	0.247
296	0.246
296	0.245
297	0.245
297	0.244
298	0.243
298	0.242
298	0.242
299	0.241
299	0.24
300	0.24
300	0.239
301	0.238
301	0.238
302	0.237
302	0.236
303	0.236
303	0.235
304	0.234
304	0.234
305	0.233
305	0.233
305	0.232
306	0.231
306	0.231
307	0.23
307	0.23
308	0.229
308	0.229
309	0.228
309	0.228
310	0.227
310	0.226
311	0.226
311	0.225
311	0.224
312	0.224
312	0.223
313	0.222
313	0.222
314	0.221
314	0.221
315	0.22
315	0.219
316	0.219
316	0.218
317	0.218
317	0.217
318	0.216
318	0.216
318	0.215
319	0.214
319	0.213
320	0.213
320	0.212
321	0.212
321	0.211
322	0.21
322	0.21
323	0.209
323	0.208
324	0.208
324	0.207
324	0.207
325	0.206
325	0.205
326	0.205
326	0.204
327	0.203
327	0.203
328	0.202
328	0.202
329	0.201
329	0.201
330	0.2
330	0.199
330	0.199
331	0.198
331	0.197
332	0.197
332	0.196
333	0.196
333	0.195
334	0.194
334	0.194
335	0.193
335	0.193
336	0.192
336	0.192
336	0.191
337	0.191
337	0.19
338	0.19
338	0.189
339	0.189
339	0.188
340	0.188
340	0.187
341	0.187
341	0.186
342	0.186
342	0.185
342	0.185
343	0.184
343	0.184
344	0.184
344	0.183
345	0.183
345	0.182
346	0.182
346	0.182
347	0.181
347	0.181
348	0.18
348	0.18
348	0.18
349	0.179
349	0.179
350	0.179
350	0.178
351	0.178
351	0.178
352	0.177
352	0.177
353	0.177
353	0.176
354	0.176
354	0.175
354	0.175
355	0.175
355	0.174
356	0.174
356	0.173
357	0.173
357	0.173
358	0.172
358	0.172
359	0.173
359	0.172
360	0.173
360	0.173
360	0.173
361	0.173
361	0.173
362	0.173
362	0.173
363	0.173
363	0.173
364	0.173
364	0.172
365	0.172
365	0.172
366	0.172
366	0.172
366	0.171
367	0.171
367	0.17
368	0.17
368	0.17
369	0.17
369	0.17
370	0.169
370	0.169
371	0.169
371	0.169
372	0.169
372	0.168
372	0.168
373	0.168
373	0.168
374	0.168
374	0.167
375	0.167
375	0.167
376	0.167
376	0.167
377	0.167
377	0.167
378	0.167
378	0.167
378	0.167
379	0.167
379	0.167
380	0.167
380	0.167
381	0.167
381	0.166
382	0.166
382	0.166
383	0.166
383	0.165
383	0.165
384	0.165
384	0.164
385	0.164
385	0.164
386	0.164
386	0.164
387	0.164
387	0.164
388	0.164
388	0.163
389	0.163
389	0.163
389	0.163
390	0.163
390	0.163
391	0.163
391	0.163
392	0.163
392	0.163
393	0.163
393	0.163
394	0.163
394	0.163
394	0.162
395	0.162
395	0.162
396	0.161
396	0.161
397	0.161
397	0.161
398	0.161
398	0.161
399	0.161
399	0.161
400	0.161
400	0.161
400	0.16
401	0.16
401	0.159
402	0.159
402	0.159
403	0.158
403	0.158
404	0.158
404	0.158
405	0.158
405	0.157
405	0.157
406	0.157
406	0.157
407	0.157
407	0.157
408	0.156
408	0.156
409	0.156
409	0.156
410	0.155
410	0.155
411	0.155
411	0.155
411	0.155
412	0.155
412	0.155
413	0.154
413	0.154
414	0.154
414	0.154
415	0.153
415	0.153
416	0.153
416	0.153
416	0.152
417	0.152
417	0.152
418	0.152
418	0.152
419	0.153
419	0.153
420	0.153
420	0.153
421	0.154
421	0.154
421	0.154
422	0.154
422	0.154
423	0.154
423	0.154
424	0.154
424	0.154
425	0.154
425	0.153
426	0.153
426	0.153
427	0.152
427	0.152
427	0.152
428	0.152
428	0.152
429	0.152
429	0.152
430	0.152
430	0.152
431	0.152
431	0.152
432	0.152
432	0.152
432	0.151
433	0.151
433	0.15
434	0.15
434	0.15
435	0.15
435	0.15
436	0.15
436	0.15
437	0.15
437	0.15
437	0.15
438	0.15
438	0.15
439	0.15
439	0.15
440	0.15
440	0.15
441	0.15
441	0.15
442	0.149
442	0.149
442	0.149
443	0.149
443	0.149
444	0.149
444	0.149
445	0.149
445	0.149
446	0.149
446	0.149
447	0.149
447	0.149
447	0.149
448	0.149
448	0.148
449	0.148
449	0.149
450	0.149
450	0.149
451	0.149
451	0.149
452	0.149
452	0.149
452	0.148
453	0.148
453	0.148
454	0.148
454	0.148
455	0.148
455	0.148
456	0.147
456	0.147
457	0.147
457	0.147
458	0.147
458	0.147
458	0.147
459	0.148
459	0.148
460	0.148
460	0.148
461	0.148
461	0.148
462	0.148
462	0.148
463	0.148
463	0.148
463	0.149
464	0.149
464	0.149
465	0.149
465	0.149
466	0.15
466	0.15
467	0.15
467	0.15
467	0.15
468	0.15
468	0.15
469	0.15
469	0.149
470	0.149
470	0.149
471	0.149
471	0.149
472	0.149
472	0.15
472	0.15
473	0.15
473	0.151
474	0.151
474	0.152
475	0.152
475	0.153
476	0.153
476	0.153
477	0.153
477	0.154
477	0.154
478	0.154
478	0.154
479	0.154
479	0.154
480	0.155
480	0.155
481	0.156
481	0.157
482	0.158
482	0.158
482	0.159
483	0.161
483	0.162
484	0.163
484	0.164
485	0.165
485	0.166
486	0.167
486	0.167
487	0.168
487	0.168
487	0.169
488	0.169
488	0.169
489	0.17
489	0.171
490	0.171
490	0.172
491	0.172
491	0.173
492	0.174
492	0.174
492	0.175
493	0.176
493	0.177
494	0.178
494	0.179
495	0.181
495	0.182
496	0.184
496	0.185
496	0.187
497	0.188
497	0.19
498	0.191
498	0.192
499	0.193
499	0.194
500	0.195
500	0.196
501	0.197
501	0.198
501	0.2
502	0.201
502	0.202
503	0.204
503	0.205
504	0.206
504	0.207
505	0.208
505	0.209
506	0.21
506	0.212
506	0.212
507	0.213
507	0.214
508	0.215
508	0.216
509	0.217
509	0.219
510	0.22
510	0.221
511	0.222
511	0.222
511	0.223
512	0.224
512	0.224
513	0.224
513	0.225
514	0.225
514	0.226
515	0.227
515	0.227
515	0.227
516	0.228
516	0.228
517	0.228
517	0.229
518	0.23
518	0.23
519	0.23
519	0.23
520	0.23
520	0.229
520	0.229
521	0.228
521	0.228
522	0.227
522	0.226
523	0.225
523	0.224
524	0.223
524	0.223
524	0.222
525	0.222
525	0.223
526	0.223
526	0.223
527	0.224
527	0.225
528	0.225
528	0.226
529	0.227
529	0.227
529	0.227
530	0.227
530	0.227
531	0.227
531	0.227
532	0.226
532	0.225
533	0.224
533	0.223
533	0.222
534	0.221
534	0.22
535	0.218
535	0.217
536	0.216
536	0.215
537	0.214
537	0.212
538	0.212
538	0.21
538	0.209
539	0.208
539	0.207
540	0.205
540	0.204
541	0.202
541	0.201
542	0.199
542	0.197
542	0.195
543	0.194
543	0.192
544	0.191
544	0.189
545	0.188
545	0.187
546	0.185
546	0.184
547	0.182
547	0.18
547	0.179
548	0.177
548	0.175
549	0.173
549	0.171
550	0.169
550	0.166
551	0.164
551	0.162
551	0.16
552	0.158
552	0.156
553	0.155
553	0.154
554	0.152
554	0.15
555	0.148
555	0.147
556	0.144
556	0.143
556	0.141
557	0.139
557	0.137
558	0.135
558	0.133
559	0.131
559	0.13
560	0.128
560	0.127
560	0.126
561	0.125
561	0.124
562	0.123
562	0.122
563	0.12
563	0.118
564	0.117
564	0.115
564	0.113
565	0.111
565	0.109
566	0.107
566	0.106
567	0.104
567	0.103
568	0.102
568	0.101
568	0.1
569	0.099
569	0.099
570	0.098
570	0.097
571	0.097
571	0.096
572	0.095
572	0.094
573	0.093
573	0.093
573	0.092
574	0.091
574	0.09
575	0.09
575	0.089
576	0.089
576	0.089
577	0.088
577	0.088
577	0.087
578	0.086
578	0.086
579	0.085
579	0.084
580	0.083
580	0.082
581	0.08
581	0.079
581	0.077
582	0.076
582	0.075
583	0.075
583	0.074
584	0.072
584	0.07
585	0.069
585	0.068
585	0.068
586	0.067
586	0.067
587	0.066
587	0.065
588	0.064
588	0.063
589	0.063
589	0.062
590	0.062
590	0.062
590	0.062
591	0.061
591	0.06
592	0.059
592	0.058
593	0.058
593	0.057
594	0.056
594	0.055
594	0.054
595	0.053
595	0.053
596	0.052
596	0.052
597	0.053
597	0.053
598	0.054
598	0.055
598	0.055
599	0.056
599	0.056
600	0.056
600	0.056
601	0.055
601	0.054
602	0.054
602	0.053
602	0.053
603	0.053
603	0.053
604	0.053
604	0.054
605	0.055
605	0.056
606	0.056
606	0.057
606	0.057
607	0.056
607	0.056
608	0.055
608	0.055
609	0.054
609	0.054
610	0.053
610	0.053
610	0.053
611	0.053
611	0.054
612	0.055
612	0.056
613	0.057
613	0.057
614	0.057
614	0.057
614	0.056
615	0.056
615	0.055
616	0.055
616	0.054
617	0.054
617	0.053
618	0.052
618	0.052
618	0.052
619	0.053
619	0.054
620	0.055
620	0.056
621	0.057
621	0.057
622	0.058
622	0.058
622	0.059
623	0.059
623	0.059
624	0.059
624	0.059
625	0.059
625	0.059
626	0.059
626	0.059
626	0.06
627	0.06
627	0.061
628	0.061
628	0.061
629	0.062
629	0.062
630	0.062
630	0.062
630	0.063
631	0.064
631	0.065
632	0.065
632	0.066
633	0.067
633	0.068
634	0.07
634	0.071
634	0.072
635	0.073
635	0.074
636	0.075
636	0.075
637	0.076
637	0.076
638	0.077
638	0.078
638	0.079
639	0.079
639	0.08
640	0.081
640	0.082
641	0.084
641	0.085
642	0.087
642	0.089
642	0.09
643	0.091
643	0.093
644	0.094
644	0.096
645	0.098
645	0.099
646	0.101
646	0.103
646	0.106
647	0.108
647	0.11
648	0.113
648	0.114
649	0.116
649	0.118
650	0.121
650	0.123
650	0.125
651	0.128
651	0.13
652	0.132
652	0.134
653	0.136
653	0.141
653	0.14
654	0.113
654	0.092
655	0.096
655	0.098
656	0.099
656	0.101
657	0.102
657	0.103
657	0.104
658	0.103
658	0.102
659	0.129
659	0.166
660	0.168
660	0.17
661	0.172
661	0.175
661	0.177
662	0.181
662	0.184
663	0.187
663	0.19
664	0.193
664	0.196
665	0.198
665	0.2
665	0.201
666	0.203
666	0.204
667	0.205
667	0.207
668	0.208
668	0.211
669	0.213
669	0.216
669	0.219
670	0.223
670	0.226
671	0.228
671	0.231
672	0.233
672	0.234
672	0.236
673	0.237
673	0.239
674	0.24
674	0.24
675	0.241
675	0.242
676	0.244
676	0.246
676	0.247
677	0.248
677	0.25
678	0.251
678	0.253
679	0.254
679	0.255
680	0.257
680	0.258
680	0.259
681	0.26
681	0.261
682	0.262
682	0.263
683	0.265
683	0.266
684	0.267
684	0.268
684	0.269
685	0.269
685	0.27
686	0.271
686	0.271
687	0.271
687	0.271
687	0.271
688	0.271
688	0.27
689	0.269
689	0.269
690	0.269
690	0.268
691	0.266
691	0.265
691	0.264
692	0.263
692	0.262
693	0.261
693	0.26
694	0.259
694	0.257
695	0.256
695	0.256
695	0.256
696	0.255
696	0.254
697	0.253
697	0.252
698	0.251
698	0.249
698	0.248
699	0.247
699	0.246
700	0.244
700	0.242
701	0.241
701	0.241
702	0.239
702	0.238
702	0.237
703	0.235
703	0.234
704	0.232
704	0.231
705	0.23
705	0.229
705	0.227
706	0.226
706	0.224
707	0.222
707	0.22
708	0.218
708	0.216
709	0.215
709	0.213
709	0.21
710	0.207
710	0.205
711	0.203
711	0.201
712	0.199
712	0.198
713	0.196
713	0.194
713	0.193
714	0.19
714	0.188
715	0.187
715	0.184
716	0.182
716	0.18
716	0.178
717	0.176
717	0.174
718	0.172
718	0.17
719	0.168
719	0.167
720	0.165
720	0.163
720	0.162
721	0.159
721	0.157
722	0.155
722	0.152
723	0.15
723	0.148
723	0.146
724	0.144
724	0.142
725	0.14
725	0.138
726	0.136
726	0.134
727	0.132
727	0.131
727	0.129
728	0.127
728	0.125
729	0.124
729	0.123
730	0.121
730	0.119
730	0.118
731	0.116
731	0.114
732	0.113
732	0.111
733	0.11
733	0.108
734	0.107
734	0.105
734	0.104
735	0.103
735	0.102
736	0.101
736	0.1
737	0.099
737	0.098
737	0.096
738	0.095
738	0.093
739	0.092
739	0.09
740	0.088
740	0.087
741	0.085
741	0.083
741	0.081
742	0.079
742	0.076
743	0.074
743	0.072
744	0.069
744	0.068
744	0.066
745	0.064
745	0.062
746	0.06
746	0.059
747	0.058
747	0.057
748	0.057
748	0.056
748	0.055
749	0.054
749	0.053
750	0.052
750	0.051
751	0.05
751	0.05
751	0.05
752	0.049
752	0.048
753	0.048
753	0.047
754	0.047
754	0.046
754	0.045
755	0.044
755	0.044
756	0.043
756	0.041
757	0.039
757	0.038
758	0.037
758	0.036
758	0.035
759	0.033
759	0.032
760	0.03
760	0.028
761	0.026
761	0.025
761	0.024
762	0.023
762	0.023
763	0.023
763	0.022
764	0.021
764	0.02
764	0.019
765	0.018
765	0.017
766	0.017
766	0.016
767	0.015
767	0.014
768	0.012
768	0.01
768	0.008
769	0.006
769	0.005
770	0.003
770	0.001
771	-0.001
771	-0.004
771	-0.006
772	-0.009
772	-0.012
773	-0.014
773	-0.016
774	-0.018
774	-0.021
775	-0.023
775	-0.026
775	-0.029
776	-0.031
776	-0.034
777	-0.037
777	-0.039
778	-0.042
778	-0.045
778	-0.047
779	-0.05
779	-0.052
780	-0.056
780	-0.06
781	-0.064
781	-0.068
781	-0.074
782	-0.08
782	-0.087
783	-0.093
783	-0.099
784	-0.106
784	-0.113
784	-0.12
785	-0.126
785	-0.133
786	-0.138
786	-0.14
787	-0.139
787	-0.139
788	-0.142
788	-0.146
788	-0.149
789	-0.152
789	-0.152
790	-0.151
790	-0.15
791	-0.15
791	-0.152
791	-0.155
792	-0.15
792	-0.139
793	-0.133
793	-0.129
794	-0.127
794	-0.129
794	-0.134
795	-0.136
795	-0.136
796	-0.137
796	-0.14
797	-0.149
797	-0.16
797	-0.166
798	-0.172
798	-0.174
799	-0.175
799	-0.174
800	-0.173
800	-0.175
801	-0.178
801	-0.178
801	-0.179
802	-0.18
802	-0.181
803	-0.182
803	-0.183
804	-0.181
804	-0.176
804	-0.17
805	-0.166
805	-0.164
806	-0.162
806	-0.161
807	-0.16
807	-0.159
807	-0.159
808	-0.159
808	-0.16
809	-0.165
809	-0.171
810	-0.175
810	-0.178
810	-0.181
811	-0.185
811	-0.185
812	-0.181
812	-0.178
813	-0.178
813	-0.179
813	-0.179
814	-0.18
814	-0.179
815	-0.176
815	-0.172
816	-0.168
816	-0.165
817	-0.164
817	-0.161
817	-0.154
818	-0.146
818	-0.137
819	-0.127
819	-0.118
820	-0.11
820	-0.102
820	-0.095
821	-0.088
821	-0.081
822	-0.075
822	-0.07
823	-0.066
823	-0.063
823	-0.06
824	-0.056
824	-0.053
825	-0.049
825	-0.045
826	-0.041
826	-0.039
826	-0.036
827	-0.034
827	-0.032
828	-0.03
828	-0.028
829	-0.027
829	-0.026
829	-0.025
830	-0.025
830	-0.025
831	-0.024
831	-0.023
832	-0.022
832	-0.021
832	-0.02
833	-0.019
833	-0.017
834	-0.016
834	-0.014
835	-0.013
835	-0.012
835	-0.011
836	-0.01
836	-0.009
837	-0.008
837	-0.008
838	-0.008
838	-0.008
839	-0.008
839	-0.008
839	-0.009
840	-0.009
840	-0.01
841	-0.01
841	-0.01
842	-0.011
842	-0.011
842	-0.011
843	-0.011
843	-0.011
844	-0.01
844	-0.009
845	-0.009
845	-0.008
845	-0.007
846	-0.006
846	-0.006
847	-0.005
847	-0.005
848	-0.005
848	-0.005
848	-0.006
849	-0.006
849	-0.007
850	-0.008
850	-0.009
851	-0.01
851	-0.01
851	-0.01
852	-0.01
852	-0.01
853	-0.009
853	-0.009
854	-0.008
854	-0.007
854	-0.006
855	-0.006
855	-0.005
856	-0.005
856	-0.004
857	-0.004
857	-0.003
857	-0.003
858	-0.003
858	-0.003
859	-0.003
859	-0.003
860	-0.003
860	-0.004
860	-0.004
861	-0.004
861	-0.005
862	-0.006
862	-0.006
863	-0.007
863	-0.007
863	-0.007
864	-0.007
864	-0.007
865	-0.006
865	-0.006
866	-0.005
866	-0.004
866	-0.003
867	-0.002
867	-0.001
868	0.001
868	0.002
869	0.002
869	0.002
869	0.003
870	0.002
870	0.002
871	0.002
871	0.001
872	0.001
872	0
872	-0
873	-0
873	-0
874	0
874	0.001
875	0.001
875	0.002
875	0.003
876	0.004
876	0.004
877	0.005
877	0.005
878	0.005
878	0.005
878	0.006
879	0.006
879	0.005
880	0.005
880	0.004
881	0.004
881	0.003
881	0.003
882	0.002
882	0.002
883	0.001
883	0
884	-0
884	-0
884	-0
885	0
885	0.001
886	0.001
886	0.002
887	0.002
887	0.003
887	0.003
888	0.004
888	0.004
889	0.004
889	0.004
890	0.004
890	0.004
890	0.003
891	0.003
891	0.002
892	0.001
892	0
893	-0
893	-0.001
893	-0.001
894	-0.001
894	-0.002
895	-0.002
895	-0.002
895	-0.002
896	-0.002
896	-0.002
897	-0.002
897	-0.002
898	-0.002
898	-0.002
898	-0.002
899	-0.002
899	-0.002
900	-0.002
900	-0.001
901	-0.001
901	-0
901	0
902	0.001
902	0.001
903	0.001
903	0.001
904	0.001
904	0
904	0
905	-0
905	-0.001
906	-0.001
906	-0.002
907	-0.002
907	-0.002
907	-0.002
908	-0.003
908	-0.003
909	-0.003
909	-0.003
910	-0.002
910	-0.002
910	-0.001
911	-0.001
911	-0
912	0.001
912	0.001
913	0.001
913	0.002
913	0.002
914	0.002
914	0.002
915	0.001
915	0.001
916	0.001
916	0
916	-0
917	-0.001
917	-0.001
918	-0.002
918	-0.002
918	-0.002
919	-0.002
919	-0.003
920	-0.003
920	-0.003
921	-0.002
921	-0.002
921	-0.002
922	-0.001
922	-0
923	0.001
923	0.002
924	0.003
924	0.004
924	0.004
925	0.004
925	0.004
926	0.004
926	0.003
927	0.003
927	0.002
927	0.001
928	-0
928	-0.001
929	-0.002
929	-0.003
930	-0.004
930	-0.004
930	-0.004
931	-0.005
931	-0.005
932	-0.005
932	-0.005
933	-0.005
933	-0.004
933	-0.004
934	-0.003
934	-0.003
935	-0.002
935	-0.001
935	-0.001
936	-0
936	0
937	0.001
937	0.002
938	0.002
938	0.003
938	0.003
939	0.004
939	0.004
940	0.004
940	0.005
941	0.006
941	0.006
941	0.007
942	0.008
942	0.008
943	0.009
943	0.009
944	0.009
944	0.008
944	0.008
945	0.008
945	0.007
946	0.007
946	0.006
946	0.005
947	0.005
947	0.004
948	0.003
948	0.003
949	0.003
949	0.003
949	0.003
950	0.003
950	0.004
951	0.005
951	0.006
952	0.007
952	0.008
952	0.01
953	0.011
953	0.012
954	0.012
954	0.012
955	0.013
955	0.012
955	0.012
956	0.012
956	0.012
957	0.011
957	0.01
957	0.009
958	0.008
958	0.007
959	0.006
959	0.005
960	0.003
960	0.002
960	0.001
961	-0
961	-0.001
962	-0.002
962	-0.002
963	-0.002
963	-0.002
963	-0.002
964	-0.002
964	-0.001
965	-0
965	0.001
966	0.002
966	0.003
966	0.004
967	0.005
967	0.005
968	0.006
968	0.007
968	0.007
969	0.007
969	0.007
970	0.007
970	0.007
971	0.007
971	0.006
971	0.006
972	0.005
972	0.005
973	0.005
973	0.004
974	0.004
974	0.003
974	0.003
975	0.003
975	0.002
976	0.002
976	0.002
976	0.001
977	0.001
977	0
978	-0.001
978	-0.001
979	-0.002
979	-0.002
979	-0.002
980	-0.003
980	-0.003
981	-0.003
981	-0.004
982	-0.003
982	-0.003
982	-0.003
983	-0.002
983	-0.002
984	-0.001
984	-0.001
984	-0
985	0
985	0.001
986	0.001
986	0.001
987	0.002
987	0.002
987	0.003
988	0.003
988	0.004
989	0.004
989	0.005
990	0.006
990	0.006
990	0.007
991	0.008
991	0.009
992	0.009
992	0.01
992	0.011
993	0.011
993	0.012
994	0.012
994	0.013
995	0.013
995	0.014
995	0.014
996	0.014
996	0.015
997	0.015
997	0.015
997	0.016
998	0.016
998	0.016
999	0.016
999	0.016
1000	0.016
1000	0.016
1000	0.015
1001	0.015
1001	0.014
1002	0.013
1002	0.013
1003	0.012
1003	0.011
1003	0.011
1004	0.01
1004	0.009
1005	0.009
1005	0.008
1005	0.008
1006	0.008
1006	0.008
1007	0.007
1007	0.007
1008	0.007
1008	0.007
1008	0.007
1009	0.007
1009	0.007
1010	0.007
1010	0.007
1010	0.007
1011	0.007
1011	0.007
1012	0.007
1012	0.007
1013	0.007
1013	0.006
1013	0.006
1014	0.006
1014	0.005
1015	0.005
1015	0.005
1016	0.004
1016	0.004
1016	0.004
1017	0.004
1017	0.004
1018	0.004
1018	0.004
1018	0.003
1019	0.003
1019	0.003
1020	0.003
1020	0.002
1021	0.002
1021	0.002
1021	0.002
1022	0.001
1022	0.001
1023	0.001
1023	0.001
1023	0.001
1024	0.001
1024	0.001
1025	0.001
1025	0.001
1026	0.001
1026	0.001
1026	0.002
1027	0.002
1027	0.002
1028	0.002
1028	0.003
1028	0.003
1029	0.003
1029	0.004
1030	0.005
1030	0.005
1031	0.006
1031	0.006
1031	0.006
1032	0.007
1032	0.007
1033	0.007
1033	0.007
1033	0.006
1034	0.006
1034	0.005
1035	0.005
1035	0.004
1036	0.004
1036	0.003
1036	0.003
1037	0.003
1037	0.002
1038	0.002
1038	0.002
1039	0.002
1039	0.002
1039	0.002
1040	0.002
1040	0.002
1041	0.002
1041	0.002
1041	0.001
1042	0.001
1042	0.001
1043	0
1043	-0
1044	-0
1044	-0.001
1044	-0.001
1045	-0.001
1045	-0.001
1046	-0.001
1046	-0.001
1046	-0.001
1047	-0.001
1047	-0
1048	0
1048	0.001
1049	0.001
1049	0.002
1049	0.002
1050	0.002
1050	0.002
1051	0.002
1051	0.002
1051	0.002
1052	0.002
1052	0.001
1053	0.001
1053	0.001
1053	-0
1054	-0
1054	-0
1055	-0.001
1055	-0.001
1056	-0.001
1056	-0.001
1056	-0.001
1057	-0.001
1057	-0
1058	0
1058	0.001
1058	0.002
1059	0.002
1059	0.002
1060	0.003
1060	0.003
1061	0.003
1061	0.004
1061	0.005
1062	0.005
1062	0.005
1063	0.005
1063	0.006
1063	0.006
1064	0.007
1064	0.007
1065	0.007
1065	0.008
1066	0.008
1066	0.009
1066	0.01
1067	0.01
1067	0.011
1068	0.011
1068	0.011
1068	0.011
1069	0.011
1069	0.011
1070	0.011
1070	0.011
1071	0.011
1071	0.011
1071	0.01
1072	0.01
1072	0.01
1073	0.01
1073	0.01
1073	0.01
1074	0.011
1074	0.011
1075	0.011
1075	0.012
1076	0.012
1076	0.013
1076	0.013
1077	0.014
1077	0.014
1078	0.014
1078	0.015
1078	0.016
1079	0.017
1079	0.018
1080	0.019
1080	0.02
1080	0.02
1081	0.021
1081	0.022
1082	0.024
1082	0.026
1083	0.027
1083	0.028
1083	0.03
1084	0.031
1084	0.033
1085	0.034
1085	0.036
1085	0.037
1086	0.039
1086	0.04
1087	0.04
1087	0.041
1088	0.042
1088	0.043
1088	0.043
1089	0.044
1089	0.045
1090	0.046
1090	0.047
1090	0.048
1091	0.049
1091	0.051
1092	0.053
1092	0.055
1092	0.057
1093	0.06
1093	0.063
1094	0.066
1094	0.068
1095	0.071
1095	0.074
1095	0.078
1096	0.082
1096	0.087
1097	0.09
1097	0.094
1097	0.098
1098	0.101
1098	0.106
1099	0.111
1099	0.117
1100	0.122
1100	0.128
1100	0.134
1101	0.14
1101	0.147
1102	0.156
1102	0.166
1102	0.176
1103	0.186
1103	0.199
1104	0.212
1104	0.227
1104	0.243
1105	0.26
1105	0.277
1106	0.296
1106	0.319
1107	0.346
1107	0.38
1107	0.42
1108	0.548
1108	0.776
1109	1.683
1109	-0
1109	-0
1110	-0
1110	-0
1111	-0
1111	-0
