Data from 15c-2a_Absorbance__1745__01745.txt Node

Date: Wed Jan 17 10:38:34 CET 2024
User: Marek
Spectrometer: MAYP115816
Trigger mode: 0
Integration Time (sec): 2.000000E-1
Scans to average: 10
Electric dark correction enabled: true
Nonlinearity correction enabled: true
Boxcar width: 5
XAxis mode: Wavelengths
Number of Pixels in Spectrum: 2068
>>>>>Begin Spectral Data<<<<<
199	-1.588
199	-1.452
200	-1.293
200	-1.17
201	-1.094
201	-1.048
202	-0.979
202	-0.929
203	-0.884
203	-0.846
204	-0.822
204	-0.799
205	-0.775
205	-0.766
205	-0.765
206	-0.764
206	-0.761
207	-0.758
207	-0.754
208	-0.752
208	-0.752
209	-0.747
209	-0.746
210	-0.746
210	-0.746
211	-0.744
211	-0.743
212	-0.744
212	-0.744
213	-0.744
213	-0.743
213	-0.743
214	-0.742
214	-0.742
215	-0.741
215	-0.74
216	-0.741
216	-0.739
217	-0.734
217	-0.731
218	-0.731
218	-0.727
219	-0.723
219	-0.722
220	-0.719
220	-0.717
221	-0.713
221	-0.709
221	-0.705
222	-0.702
222	-0.697
223	-0.691
223	-0.689
224	-0.683
224	-0.677
225	-0.667
225	-0.659
226	-0.651
226	-0.638
227	-0.625
227	-0.612
228	-0.597
228	-0.58
229	-0.558
229	-0.534
229	-0.507
230	-0.478
230	-0.448
231	-0.412
231	-0.376
232	-0.339
232	-0.299
233	-0.257
233	-0.213
234	-0.171
234	-0.129
235	-0.089
235	-0.049
236	-0.011
236	0.026
236	0.06
237	0.093
237	0.122
238	0.15
238	0.176
239	0.201
239	0.223
240	0.243
240	0.26
241	0.277
241	0.292
242	0.306
242	0.318
243	0.329
243	0.339
243	0.347
244	0.355
244	0.363
245	0.369
245	0.376
246	0.382
246	0.387
247	0.392
247	0.396
248	0.401
248	0.405
249	0.409
249	0.412
250	0.416
250	0.419
250	0.422
251	0.424
251	0.427
252	0.429
252	0.431
253	0.433
253	0.434
254	0.436
254	0.438
255	0.439
255	0.441
256	0.442
256	0.442
257	0.443
257	0.444
258	0.444
258	0.445
258	0.445
259	0.446
259	0.445
260	0.445
260	0.445
261	0.444
261	0.444
262	0.444
262	0.443
263	0.443
263	0.442
264	0.441
264	0.441
265	0.44
265	0.439
265	0.437
266	0.436
266	0.435
267	0.434
267	0.432
268	0.431
268	0.429
269	0.427
269	0.426
270	0.424
270	0.422
271	0.419
271	0.417
272	0.415
272	0.413
272	0.411
273	0.409
273	0.407
274	0.405
274	0.403
275	0.401
275	0.398
276	0.396
276	0.394
277	0.392
277	0.39
278	0.387
278	0.385
278	0.383
279	0.38
279	0.378
280	0.375
280	0.373
281	0.371
281	0.368
282	0.366
282	0.364
283	0.362
283	0.36
284	0.358
284	0.356
285	0.355
285	0.353
285	0.351
286	0.349
286	0.348
287	0.346
287	0.344
288	0.343
288	0.341
289	0.339
289	0.338
290	0.336
290	0.334
291	0.333
291	0.331
292	0.33
292	0.329
292	0.327
293	0.326
293	0.324
294	0.323
294	0.322
295	0.321
295	0.32
296	0.319
296	0.318
297	0.317
297	0.316
298	0.315
298	0.314
298	0.313
299	0.312
299	0.311
300	0.31
300	0.309
301	0.308
301	0.308
302	0.307
302	0.306
303	0.305
303	0.305
304	0.304
304	0.303
305	0.302
305	0.301
305	0.3
306	0.299
306	0.298
307	0.298
307	0.297
308	0.296
308	0.295
309	0.294
309	0.294
310	0.293
310	0.292
311	0.291
311	0.291
311	0.29
312	0.289
312	0.288
313	0.287
313	0.286
314	0.286
314	0.285
315	0.284
315	0.283
316	0.282
316	0.282
317	0.281
317	0.28
318	0.279
318	0.279
318	0.278
319	0.277
319	0.276
320	0.275
320	0.274
321	0.273
321	0.272
322	0.272
322	0.271
323	0.27
323	0.269
324	0.268
324	0.267
324	0.266
325	0.266
325	0.265
326	0.264
326	0.263
327	0.262
327	0.262
328	0.261
328	0.26
329	0.259
329	0.258
330	0.258
330	0.257
330	0.256
331	0.255
331	0.255
332	0.254
332	0.253
333	0.252
333	0.251
334	0.251
334	0.25
335	0.249
335	0.248
336	0.248
336	0.247
336	0.246
337	0.246
337	0.245
338	0.245
338	0.244
339	0.243
339	0.243
340	0.242
340	0.241
341	0.241
341	0.24
342	0.24
342	0.239
342	0.238
343	0.238
343	0.237
344	0.237
344	0.236
345	0.236
345	0.236
346	0.235
346	0.235
347	0.234
347	0.233
348	0.233
348	0.233
348	0.232
349	0.232
349	0.231
350	0.231
350	0.23
351	0.23
351	0.229
352	0.229
352	0.228
353	0.228
353	0.227
354	0.227
354	0.226
354	0.226
355	0.225
355	0.225
356	0.224
356	0.224
357	0.223
357	0.223
358	0.223
358	0.223
359	0.223
359	0.223
360	0.222
360	0.223
360	0.223
361	0.222
361	0.222
362	0.223
362	0.223
363	0.223
363	0.222
364	0.222
364	0.222
365	0.222
365	0.221
366	0.221
366	0.221
366	0.221
367	0.22
367	0.22
368	0.22
368	0.22
369	0.219
369	0.219
370	0.218
370	0.218
371	0.218
371	0.218
372	0.217
372	0.217
372	0.217
373	0.217
373	0.217
374	0.217
374	0.216
375	0.216
375	0.216
376	0.216
376	0.216
377	0.216
377	0.216
378	0.216
378	0.216
378	0.216
379	0.216
379	0.216
380	0.216
380	0.216
381	0.215
381	0.215
382	0.215
382	0.215
383	0.214
383	0.214
383	0.213
384	0.213
384	0.213
385	0.212
385	0.212
386	0.212
386	0.212
387	0.212
387	0.212
388	0.212
388	0.212
389	0.211
389	0.211
389	0.211
390	0.211
390	0.211
391	0.211
391	0.211
392	0.211
392	0.211
393	0.211
393	0.21
394	0.21
394	0.21
394	0.21
395	0.209
395	0.209
396	0.209
396	0.209
397	0.208
397	0.209
398	0.208
398	0.208
399	0.208
399	0.208
400	0.208
400	0.207
400	0.207
401	0.206
401	0.206
402	0.205
402	0.205
403	0.205
403	0.205
404	0.205
404	0.205
405	0.204
405	0.204
405	0.204
406	0.204
406	0.204
407	0.203
407	0.203
408	0.203
408	0.202
409	0.202
409	0.202
410	0.202
410	0.201
411	0.201
411	0.201
411	0.201
412	0.2
412	0.2
413	0.2
413	0.199
414	0.199
414	0.199
415	0.199
415	0.198
416	0.198
416	0.198
416	0.198
417	0.198
417	0.198
418	0.198
418	0.198
419	0.198
419	0.199
420	0.199
420	0.199
421	0.2
421	0.2
421	0.2
422	0.2
422	0.2
423	0.2
423	0.2
424	0.199
424	0.198
425	0.198
425	0.197
426	0.197
426	0.196
427	0.196
427	0.197
427	0.196
428	0.197
428	0.197
429	0.197
429	0.197
430	0.197
430	0.197
431	0.197
431	0.197
432	0.196
432	0.196
432	0.195
433	0.195
433	0.194
434	0.194
434	0.194
435	0.194
435	0.194
436	0.194
436	0.194
437	0.194
437	0.194
437	0.194
438	0.194
438	0.194
439	0.194
439	0.194
440	0.193
440	0.193
441	0.193
441	0.193
442	0.193
442	0.193
442	0.193
443	0.193
443	0.193
444	0.193
444	0.194
445	0.194
445	0.194
446	0.194
446	0.194
447	0.194
447	0.194
447	0.194
448	0.194
448	0.194
449	0.194
449	0.194
450	0.194
450	0.194
451	0.194
451	0.193
452	0.193
452	0.193
452	0.193
453	0.193
453	0.193
454	0.193
454	0.193
455	0.193
455	0.193
456	0.193
456	0.193
457	0.193
457	0.193
458	0.193
458	0.193
458	0.193
459	0.193
459	0.193
460	0.193
460	0.192
461	0.192
461	0.192
462	0.192
462	0.193
463	0.193
463	0.194
463	0.194
464	0.194
464	0.194
465	0.195
465	0.195
466	0.195
466	0.195
467	0.196
467	0.196
467	0.196
468	0.195
468	0.195
469	0.195
469	0.195
470	0.195
470	0.195
471	0.194
471	0.194
472	0.194
472	0.194
472	0.195
473	0.195
473	0.196
474	0.196
474	0.197
475	0.198
475	0.198
476	0.199
476	0.199
477	0.199
477	0.2
477	0.2
478	0.2
478	0.201
479	0.201
479	0.202
480	0.203
480	0.203
481	0.204
481	0.205
482	0.206
482	0.207
482	0.209
483	0.21
483	0.213
484	0.214
484	0.215
485	0.215
485	0.217
486	0.217
486	0.218
487	0.219
487	0.22
487	0.22
488	0.221
488	0.221
489	0.221
489	0.223
490	0.224
490	0.225
491	0.226
491	0.227
492	0.228
492	0.229
492	0.229
493	0.23
493	0.231
494	0.233
494	0.235
495	0.236
495	0.238
496	0.239
496	0.241
496	0.243
497	0.244
497	0.246
498	0.248
498	0.249
499	0.25
499	0.251
500	0.253
500	0.255
501	0.256
501	0.258
501	0.26
502	0.261
502	0.263
503	0.265
503	0.267
504	0.268
504	0.269
505	0.27
505	0.271
506	0.273
506	0.274
506	0.275
507	0.276
507	0.277
508	0.279
508	0.28
509	0.281
509	0.283
510	0.285
510	0.286
511	0.287
511	0.288
511	0.289
512	0.29
512	0.291
513	0.291
513	0.292
514	0.292
514	0.293
515	0.294
515	0.294
515	0.295
516	0.296
516	0.297
517	0.298
517	0.299
518	0.299
518	0.299
519	0.299
519	0.299
520	0.299
520	0.298
520	0.298
521	0.297
521	0.296
522	0.295
522	0.295
523	0.294
523	0.295
524	0.295
524	0.295
524	0.296
525	0.296
525	0.296
526	0.297
526	0.297
527	0.298
527	0.298
528	0.298
528	0.298
529	0.297
529	0.297
529	0.297
530	0.296
530	0.296
531	0.295
531	0.295
532	0.293
532	0.292
533	0.292
533	0.291
533	0.29
534	0.289
534	0.287
535	0.286
535	0.285
536	0.284
536	0.283
537	0.282
537	0.28
538	0.279
538	0.277
538	0.275
539	0.274
539	0.272
540	0.27
540	0.267
541	0.265
541	0.263
542	0.26
542	0.258
542	0.255
543	0.253
543	0.251
544	0.249
544	0.247
545	0.246
545	0.244
546	0.243
546	0.24
547	0.238
547	0.235
547	0.232
548	0.23
548	0.227
549	0.225
549	0.222
550	0.22
550	0.217
551	0.214
551	0.212
551	0.21
552	0.208
552	0.207
553	0.205
553	0.203
554	0.201
554	0.199
555	0.196
555	0.194
556	0.191
556	0.188
556	0.186
557	0.183
557	0.181
558	0.179
558	0.176
559	0.174
559	0.172
560	0.17
560	0.168
560	0.167
561	0.166
561	0.165
562	0.163
562	0.161
563	0.158
563	0.156
564	0.153
564	0.15
564	0.148
565	0.146
565	0.144
566	0.141
566	0.139
567	0.137
567	0.136
568	0.135
568	0.134
568	0.134
569	0.134
569	0.133
570	0.132
570	0.13
571	0.13
571	0.129
572	0.128
572	0.126
573	0.125
573	0.123
573	0.121
574	0.12
574	0.119
575	0.118
575	0.118
576	0.117
576	0.115
577	0.113
577	0.112
577	0.112
578	0.111
578	0.11
579	0.11
579	0.11
580	0.108
580	0.105
581	0.102
581	0.101
581	0.1
582	0.099
582	0.099
583	0.099
583	0.097
584	0.094
584	0.09
585	0.089
585	0.089
585	0.088
586	0.088
586	0.087
587	0.085
587	0.083
588	0.081
588	0.08
589	0.08
589	0.08
590	0.08
590	0.08
590	0.082
591	0.082
591	0.081
592	0.08
592	0.079
593	0.079
593	0.078
594	0.077
594	0.076
594	0.075
595	0.074
595	0.072
596	0.071
596	0.073
597	0.075
597	0.075
598	0.075
598	0.076
598	0.077
599	0.077
599	0.077
600	0.076
600	0.076
601	0.075
601	0.074
602	0.072
602	0.072
602	0.072
603	0.072
603	0.073
604	0.074
604	0.075
605	0.076
605	0.078
606	0.078
606	0.077
606	0.077
607	0.076
607	0.076
608	0.075
608	0.073
609	0.072
609	0.072
610	0.071
610	0.07
610	0.07
611	0.072
611	0.073
612	0.074
612	0.076
613	0.077
613	0.078
614	0.078
614	0.076
614	0.076
615	0.075
615	0.075
616	0.074
616	0.073
617	0.072
617	0.071
618	0.069
618	0.068
618	0.068
619	0.068
619	0.07
620	0.072
620	0.072
621	0.073
621	0.074
622	0.074
622	0.075
622	0.075
623	0.075
623	0.076
624	0.076
624	0.075
625	0.075
625	0.075
626	0.074
626	0.074
626	0.075
627	0.076
627	0.077
628	0.078
628	0.079
629	0.08
629	0.08
630	0.081
630	0.081
630	0.083
631	0.084
631	0.085
632	0.085
632	0.086
633	0.088
633	0.089
634	0.091
634	0.093
634	0.094
635	0.096
635	0.097
636	0.098
636	0.1
637	0.1
637	0.101
638	0.102
638	0.103
638	0.104
639	0.105
639	0.106
640	0.107
640	0.109
641	0.111
641	0.113
642	0.115
642	0.117
642	0.119
643	0.121
643	0.122
644	0.125
644	0.127
645	0.129
645	0.13
646	0.133
646	0.135
646	0.138
647	0.14
647	0.143
648	0.145
648	0.147
649	0.149
649	0.151
650	0.154
650	0.156
650	0.158
651	0.16
651	0.162
652	0.164
652	0.166
653	0.169
653	0.176
653	0.188
654	0.15
654	0.122
655	0.124
655	0.126
656	0.128
656	0.13
657	0.132
657	0.134
657	0.135
658	0.133
658	0.122
659	0.157
659	0.205
660	0.212
660	0.214
661	0.217
661	0.22
661	0.223
662	0.227
662	0.231
663	0.234
663	0.238
664	0.241
664	0.244
665	0.247
665	0.25
665	0.253
666	0.256
666	0.258
667	0.261
667	0.263
668	0.266
668	0.268
669	0.271
669	0.274
669	0.278
670	0.282
670	0.285
671	0.287
671	0.289
672	0.292
672	0.294
672	0.296
673	0.298
673	0.299
674	0.301
674	0.301
675	0.302
675	0.303
676	0.305
676	0.307
676	0.308
677	0.31
677	0.311
678	0.312
678	0.314
679	0.315
679	0.317
680	0.319
680	0.321
680	0.322
681	0.323
681	0.325
682	0.326
682	0.327
683	0.328
683	0.33
684	0.331
684	0.33
684	0.33
685	0.331
685	0.331
686	0.332
686	0.333
687	0.333
687	0.333
687	0.333
688	0.333
688	0.332
689	0.333
689	0.333
690	0.332
690	0.33
691	0.329
691	0.327
691	0.326
692	0.324
692	0.322
693	0.321
693	0.32
694	0.319
694	0.316
695	0.317
695	0.317
695	0.317
696	0.316
696	0.315
697	0.315
697	0.314
698	0.313
698	0.311
698	0.311
699	0.31
699	0.308
700	0.305
700	0.304
701	0.303
701	0.302
702	0.3
702	0.298
702	0.296
703	0.294
703	0.292
704	0.29
704	0.288
705	0.286
705	0.283
705	0.281
706	0.278
706	0.277
707	0.274
707	0.272
708	0.269
708	0.267
709	0.265
709	0.262
709	0.259
710	0.256
710	0.254
711	0.251
711	0.248
712	0.246
712	0.244
713	0.241
713	0.239
713	0.237
714	0.234
714	0.232
715	0.23
715	0.228
716	0.225
716	0.224
716	0.221
717	0.22
717	0.218
718	0.215
718	0.213
719	0.212
719	0.21
720	0.208
720	0.206
720	0.204
721	0.201
721	0.199
722	0.197
722	0.194
723	0.192
723	0.19
723	0.188
724	0.185
724	0.183
725	0.18
725	0.178
726	0.175
726	0.172
727	0.17
727	0.167
727	0.165
728	0.162
728	0.16
729	0.159
729	0.157
730	0.155
730	0.153
730	0.151
731	0.15
731	0.148
732	0.146
732	0.144
733	0.142
733	0.14
734	0.137
734	0.135
734	0.133
735	0.132
735	0.13
736	0.128
736	0.128
737	0.127
737	0.126
737	0.125
738	0.123
738	0.12
739	0.118
739	0.115
740	0.112
740	0.11
741	0.108
741	0.105
741	0.101
742	0.097
742	0.095
743	0.093
743	0.091
744	0.089
744	0.088
744	0.086
745	0.084
745	0.081
746	0.08
746	0.078
747	0.077
747	0.076
748	0.076
748	0.074
748	0.073
749	0.071
749	0.071
750	0.07
750	0.069
751	0.068
751	0.068
751	0.068
752	0.067
752	0.066
753	0.065
753	0.065
754	0.065
754	0.065
754	0.065
755	0.064
755	0.065
756	0.063
756	0.061
757	0.06
757	0.06
758	0.058
758	0.056
758	0.055
759	0.054
759	0.051
760	0.049
760	0.046
761	0.045
761	0.044
761	0.043
762	0.042
762	0.041
763	0.041
763	0.039
764	0.037
764	0.035
764	0.034
765	0.032
765	0.03
766	0.029
766	0.028
767	0.026
767	0.024
768	0.021
768	0.019
768	0.018
769	0.016
769	0.015
770	0.014
770	0.012
771	0.009
771	0.006
771	0.003
772	0.001
772	-0.001
773	-0.003
773	-0.005
774	-0.008
774	-0.01
775	-0.012
775	-0.015
775	-0.017
776	-0.019
776	-0.022
777	-0.024
777	-0.026
778	-0.028
778	-0.031
778	-0.033
779	-0.034
779	-0.036
780	-0.039
780	-0.043
781	-0.046
781	-0.05
781	-0.054
782	-0.059
782	-0.065
783	-0.071
783	-0.076
784	-0.083
784	-0.089
784	-0.095
785	-0.102
785	-0.108
786	-0.114
786	-0.118
787	-0.12
787	-0.122
788	-0.127
788	-0.133
788	-0.138
789	-0.144
789	-0.146
790	-0.147
790	-0.148
791	-0.151
791	-0.153
791	-0.155
792	-0.15
792	-0.139
793	-0.133
793	-0.129
794	-0.128
794	-0.13
794	-0.134
795	-0.136
795	-0.137
796	-0.137
796	-0.14
797	-0.149
797	-0.16
797	-0.167
798	-0.172
798	-0.175
799	-0.175
799	-0.174
800	-0.174
800	-0.175
801	-0.178
801	-0.179
801	-0.179
802	-0.18
802	-0.182
803	-0.182
803	-0.183
804	-0.182
804	-0.177
804	-0.17
805	-0.166
805	-0.164
806	-0.162
806	-0.161
807	-0.16
807	-0.159
807	-0.159
808	-0.159
808	-0.161
809	-0.165
809	-0.171
810	-0.175
810	-0.178
810	-0.182
811	-0.185
811	-0.185
812	-0.181
812	-0.178
813	-0.178
813	-0.179
813	-0.179
814	-0.18
814	-0.179
815	-0.176
815	-0.172
816	-0.169
816	-0.166
817	-0.166
817	-0.164
817	-0.158
818	-0.15
818	-0.141
819	-0.131
819	-0.123
820	-0.116
820	-0.109
820	-0.102
821	-0.094
821	-0.087
822	-0.082
822	-0.077
823	-0.073
823	-0.07
823	-0.067
824	-0.064
824	-0.061
825	-0.057
825	-0.053
826	-0.051
826	-0.049
826	-0.048
827	-0.046
827	-0.044
828	-0.042
828	-0.041
829	-0.039
829	-0.038
829	-0.037
830	-0.037
830	-0.035
831	-0.033
831	-0.031
832	-0.029
832	-0.027
832	-0.025
833	-0.024
833	-0.022
834	-0.02
834	-0.018
835	-0.015
835	-0.014
835	-0.013
836	-0.011
836	-0.01
837	-0.008
837	-0.008
838	-0.007
838	-0.007
839	-0.006
839	-0.006
839	-0.006
840	-0.006
840	-0.006
841	-0.006
841	-0.006
842	-0.005
842	-0.005
842	-0.004
843	-0.003
843	-0.003
844	-0.002
844	-0.001
845	-0
845	0.001
845	0.001
846	0.002
846	0.002
847	0.002
847	0.003
848	0.002
848	0.002
848	0.001
849	0.001
849	0
850	-0.001
850	-0.002
851	-0.002
851	-0.003
851	-0.004
852	-0.004
852	-0.004
853	-0.004
853	-0.003
854	-0.002
854	-0.002
854	-0.002
855	-0.001
855	-0.002
856	-0.002
856	-0.002
857	-0.003
857	-0.003
857	-0.004
858	-0.004
858	-0.005
859	-0.006
859	-0.006
860	-0.007
860	-0.007
860	-0.007
861	-0.007
861	-0.007
862	-0.007
862	-0.007
863	-0.008
863	-0.008
863	-0.007
864	-0.007
864	-0.007
865	-0.006
865	-0.006
866	-0.005
866	-0.004
866	-0.003
867	-0.002
867	-0
868	0.001
868	0.002
869	0.003
869	0.004
869	0.004
870	0.004
870	0.004
871	0.004
871	0.003
872	0.003
872	0.001
872	0
873	-0.001
873	-0.002
874	-0.002
874	-0.003
875	-0.002
875	-0.002
875	-0.002
876	-0.002
876	-0.001
877	-0.001
877	-0
878	0
878	0.001
878	0.002
879	0.003
879	0.003
880	0.004
880	0.004
881	0.005
881	0.005
881	0.006
882	0.006
882	0.006
883	0.006
883	0.006
884	0.006
884	0.006
884	0.006
885	0.005
885	0.005
886	0.005
886	0.004
887	0.004
887	0.003
887	0.003
888	0.002
888	0.001
889	0
889	-0
890	-0.001
890	-0.002
890	-0.002
891	-0.003
891	-0.004
892	-0.005
892	-0.005
893	-0.006
893	-0.006
893	-0.007
894	-0.007
894	-0.008
895	-0.008
895	-0.008
895	-0.009
896	-0.009
896	-0.009
897	-0.009
897	-0.009
898	-0.009
898	-0.008
898	-0.008
899	-0.007
899	-0.006
900	-0.005
900	-0.004
901	-0.003
901	-0.002
901	-0.001
902	0
902	0.001
903	0.002
903	0.003
904	0.003
904	0.004
904	0.004
905	0.005
905	0.005
906	0.005
906	0.005
907	0.005
907	0.005
907	0.005
908	0.005
908	0.005
909	0.005
909	0.005
910	0.005
910	0.005
910	0.006
911	0.007
911	0.007
912	0.008
912	0.009
913	0.009
913	0.009
913	0.009
914	0.009
914	0.008
915	0.006
915	0.004
916	0.002
916	0
916	-0.002
917	-0.004
917	-0.005
918	-0.007
918	-0.008
918	-0.008
919	-0.009
919	-0.008
920	-0.007
920	-0.006
921	-0.005
921	-0.004
921	-0.003
922	-0.002
922	-0
923	0.001
923	0.002
924	0.003
924	0.004
924	0.004
925	0.004
925	0.004
926	0.004
926	0.004
927	0.004
927	0.003
927	0.003
928	0.002
928	0.001
929	0.001
929	-0
930	-0.001
930	-0.001
930	-0.002
931	-0.003
931	-0.003
932	-0.003
932	-0.003
933	-0.003
933	-0.003
933	-0.003
934	-0.003
934	-0.003
935	-0.003
935	-0.004
935	-0.004
936	-0.004
936	-0.004
937	-0.005
937	-0.005
938	-0.006
938	-0.006
938	-0.006
939	-0.007
939	-0.007
940	-0.007
940	-0.007
941	-0.007
941	-0.006
941	-0.006
942	-0.006
942	-0.005
943	-0.005
943	-0.005
944	-0.005
944	-0.005
944	-0.005
945	-0.005
945	-0.005
946	-0.006
946	-0.006
946	-0.006
947	-0.006
947	-0.007
948	-0.007
948	-0.007
949	-0.007
949	-0.007
949	-0.006
950	-0.006
950	-0.006
951	-0.005
951	-0.005
952	-0.005
952	-0.005
952	-0.004
953	-0.004
953	-0.004
954	-0.005
954	-0.005
955	-0.005
955	-0.006
955	-0.006
956	-0.006
956	-0.006
957	-0.006
957	-0.007
957	-0.007
958	-0.008
958	-0.008
959	-0.008
959	-0.009
960	-0.009
960	-0.009
960	-0.01
961	-0.01
961	-0.01
962	-0.01
962	-0.01
963	-0.01
963	-0.009
963	-0.008
964	-0.007
964	-0.006
965	-0.004
965	-0.003
966	-0.001
966	0
966	0.002
967	0.003
967	0.004
968	0.005
968	0.006
968	0.006
969	0.006
969	0.006
970	0.006
970	0.005
971	0.005
971	0.004
971	0.003
972	0.003
972	0.002
973	0.002
973	0.001
974	0
974	-0
974	-0.001
975	-0.002
975	-0.002
976	-0.003
976	-0.003
976	-0.004
977	-0.005
977	-0.007
978	-0.008
978	-0.009
979	-0.01
979	-0.011
979	-0.012
980	-0.014
980	-0.015
981	-0.016
981	-0.016
982	-0.016
982	-0.016
982	-0.016
983	-0.015
983	-0.015
984	-0.014
984	-0.014
984	-0.013
985	-0.012
985	-0.011
986	-0.011
986	-0.011
987	-0.01
987	-0.01
987	-0.009
988	-0.009
988	-0.008
989	-0.008
989	-0.007
990	-0.007
990	-0.006
990	-0.005
991	-0.004
991	-0.003
992	-0.002
992	-0.002
992	-0.001
993	-0.001
993	-0
994	0
994	0
995	0
995	0
995	-0
996	-0.001
996	-0.001
997	-0.001
997	-0.002
997	-0.002
998	-0.002
998	-0.002
999	-0.002
999	-0.002
1000	-0.002
1000	-0.001
1000	-0.001
1001	-0.001
1001	-0
1002	-0
1002	0
1003	0
1003	0
1003	0
1004	-0
1004	-0.001
1005	-0.001
1005	-0.001
1005	-0.002
1006	-0.003
1006	-0.003
1007	-0.004
1007	-0.005
1008	-0.005
1008	-0.006
1008	-0.007
1009	-0.007
1009	-0.007
1010	-0.008
1010	-0.008
1010	-0.009
1011	-0.01
1011	-0.01
1012	-0.01
1012	-0.01
1013	-0.011
1013	-0.012
1013	-0.012
1014	-0.013
1014	-0.014
1015	-0.015
1015	-0.015
1016	-0.016
1016	-0.017
1016	-0.018
1017	-0.019
1017	-0.019
1018	-0.019
1018	-0.02
1018	-0.02
1019	-0.02
1019	-0.02
1020	-0.02
1020	-0.02
1021	-0.02
1021	-0.02
1021	-0.019
1022	-0.019
1022	-0.018
1023	-0.018
1023	-0.018
1023	-0.017
1024	-0.017
1024	-0.017
1025	-0.017
1025	-0.017
1026	-0.017
1026	-0.017
1026	-0.017
1027	-0.018
1027	-0.017
1028	-0.017
1028	-0.017
1028	-0.017
1029	-0.016
1029	-0.016
1030	-0.016
1030	-0.016
1031	-0.016
1031	-0.016
1031	-0.016
1032	-0.016
1032	-0.016
1033	-0.016
1033	-0.017
1033	-0.017
1034	-0.018
1034	-0.019
1035	-0.02
1035	-0.021
1036	-0.021
1036	-0.022
1036	-0.022
1037	-0.022
1037	-0.022
1038	-0.022
1038	-0.022
1039	-0.021
1039	-0.02
1039	-0.019
1040	-0.019
1040	-0.018
1041	-0.018
1041	-0.019
1041	-0.019
1042	-0.02
1042	-0.021
1043	-0.022
1043	-0.023
1044	-0.025
1044	-0.025
1044	-0.026
1045	-0.027
1045	-0.028
1046	-0.028
1046	-0.028
1046	-0.028
1047	-0.028
1047	-0.028
1048	-0.027
1048	-0.027
1049	-0.027
1049	-0.027
1049	-0.028
1050	-0.028
1050	-0.028
1051	-0.029
1051	-0.029
1051	-0.03
1052	-0.03
1052	-0.031
1053	-0.031
1053	-0.032
1053	-0.032
1054	-0.032
1054	-0.032
1055	-0.032
1055	-0.032
1056	-0.032
1056	-0.033
1056	-0.033
1057	-0.034
1057	-0.034
1058	-0.034
1058	-0.034
1058	-0.034
1059	-0.035
1059	-0.035
1060	-0.035
1060	-0.034
1061	-0.033
1061	-0.032
1061	-0.031
1062	-0.031
1062	-0.031
1063	-0.03
1063	-0.03
1063	-0.029
1064	-0.029
1064	-0.029
1065	-0.028
1065	-0.028
1066	-0.028
1066	-0.029
1066	-0.028
1067	-0.028
1067	-0.028
1068	-0.028
1068	-0.028
1068	-0.029
1069	-0.029
1069	-0.031
1070	-0.031
1070	-0.032
1071	-0.032
1071	-0.033
1071	-0.034
1072	-0.035
1072	-0.035
1073	-0.036
1073	-0.036
1073	-0.037
1074	-0.037
1074	-0.037
1075	-0.039
1075	-0.039
1076	-0.04
1076	-0.04
1076	-0.041
1077	-0.041
1077	-0.041
1078	-0.041
1078	-0.041
1078	-0.04
1079	-0.04
1079	-0.038
1080	-0.037
1080	-0.037
1080	-0.036
1081	-0.036
1081	-0.035
1082	-0.034
1082	-0.034
1083	-0.034
1083	-0.034
1083	-0.034
1084	-0.033
1084	-0.033
1085	-0.032
1085	-0.031
1085	-0.03
1086	-0.03
1086	-0.03
1087	-0.03
1087	-0.029
1088	-0.029
1088	-0.029
1088	-0.029
1089	-0.03
1089	-0.031
1090	-0.032
1090	-0.032
1090	-0.032
1091	-0.032
1091	-0.031
1092	-0.031
1092	-0.03
1092	-0.029
1093	-0.028
1093	-0.025
1094	-0.024
1094	-0.022
1095	-0.021
1095	-0.02
1095	-0.017
1096	-0.015
1096	-0.013
1097	-0.011
1097	-0.01
1097	-0.008
1098	-0.008
1098	-0.007
1099	-0.005
1099	-0.003
1100	-0.001
1100	-0.001
1100	0.001
1101	0.002
1101	0.004
1102	0.007
1102	0.009
1102	0.013
1103	0.016
1103	0.02
1104	0.025
1104	0.029
1104	0.037
1105	0.042
1105	0.048
1106	0.052
1106	0.058
1107	0.064
1107	0.075
1107	0.085
1108	0.128
1108	0.186
1109	0.274
1109	0.417
1109	0.543
1110	0.854
1110	-0
1111	-0
1111	-0
