Data from 15c-2a_Absorbance__588__00588.txt Node

Date: Wed Jan 17 10:00:01 CET 2024
User: Marek
Spectrometer: MAYP115816
Trigger mode: 0
Integration Time (sec): 2.000000E-1
Scans to average: 10
Electric dark correction enabled: true
Nonlinearity correction enabled: true
Boxcar width: 5
XAxis mode: Wavelengths
Number of Pixels in Spectrum: 2068
>>>>>Begin Spectral Data<<<<<
199	-1.614
199	-1.471
200	-1.311
200	-1.188
201	-1.111
201	-1.063
202	-0.991
202	-0.938
203	-0.89
203	-0.849
204	-0.824
204	-0.802
205	-0.779
205	-0.77
205	-0.767
206	-0.766
206	-0.762
207	-0.759
207	-0.755
208	-0.753
208	-0.753
209	-0.748
209	-0.746
210	-0.745
210	-0.745
211	-0.743
211	-0.742
212	-0.743
212	-0.742
213	-0.741
213	-0.74
213	-0.739
214	-0.738
214	-0.737
215	-0.736
215	-0.735
216	-0.735
216	-0.733
217	-0.727
217	-0.726
218	-0.725
218	-0.722
219	-0.719
219	-0.718
220	-0.714
220	-0.71
221	-0.705
221	-0.702
221	-0.697
222	-0.694
222	-0.69
223	-0.683
223	-0.68
224	-0.674
224	-0.667
225	-0.659
225	-0.652
226	-0.644
226	-0.632
227	-0.619
227	-0.607
228	-0.591
228	-0.573
229	-0.554
229	-0.531
229	-0.504
230	-0.476
230	-0.445
231	-0.412
231	-0.378
232	-0.343
232	-0.305
233	-0.265
233	-0.224
234	-0.184
234	-0.144
235	-0.107
235	-0.07
236	-0.034
236	-0.001
236	0.031
237	0.062
237	0.09
238	0.115
238	0.139
239	0.16
239	0.179
240	0.197
240	0.214
241	0.228
241	0.242
242	0.253
242	0.264
243	0.274
243	0.283
243	0.291
244	0.299
244	0.305
245	0.311
245	0.317
246	0.322
246	0.327
247	0.332
247	0.336
248	0.34
248	0.344
249	0.347
249	0.35
250	0.353
250	0.355
250	0.358
251	0.361
251	0.363
252	0.365
252	0.367
253	0.369
253	0.37
254	0.372
254	0.374
255	0.375
255	0.376
256	0.377
256	0.378
257	0.379
257	0.379
258	0.38
258	0.381
258	0.381
259	0.381
259	0.381
260	0.381
260	0.381
261	0.38
261	0.38
262	0.38
262	0.379
263	0.379
263	0.378
264	0.378
264	0.377
265	0.376
265	0.375
265	0.374
266	0.373
266	0.372
267	0.37
267	0.369
268	0.367
268	0.366
269	0.364
269	0.362
270	0.36
270	0.358
271	0.356
271	0.354
272	0.353
272	0.35
272	0.349
273	0.347
273	0.344
274	0.342
274	0.34
275	0.338
275	0.336
276	0.334
276	0.332
277	0.33
277	0.328
278	0.326
278	0.323
278	0.322
279	0.319
279	0.317
280	0.315
280	0.313
281	0.311
281	0.309
282	0.307
282	0.305
283	0.304
283	0.302
284	0.3
284	0.298
285	0.297
285	0.295
285	0.293
286	0.291
286	0.29
287	0.288
287	0.287
288	0.285
288	0.284
289	0.282
289	0.281
290	0.279
290	0.278
291	0.276
291	0.275
292	0.274
292	0.273
292	0.271
293	0.27
293	0.269
294	0.268
294	0.267
295	0.266
295	0.265
296	0.264
296	0.263
297	0.262
297	0.261
298	0.26
298	0.259
298	0.259
299	0.258
299	0.257
300	0.257
300	0.256
301	0.255
301	0.255
302	0.254
302	0.253
303	0.253
303	0.252
304	0.251
304	0.25
305	0.25
305	0.249
305	0.248
306	0.248
306	0.247
307	0.246
307	0.245
308	0.245
308	0.244
309	0.244
309	0.243
310	0.243
310	0.242
311	0.241
311	0.241
311	0.24
312	0.239
312	0.239
313	0.238
313	0.237
314	0.237
314	0.236
315	0.235
315	0.235
316	0.234
316	0.233
317	0.233
317	0.232
318	0.231
318	0.231
318	0.23
319	0.229
319	0.228
320	0.228
320	0.227
321	0.226
321	0.225
322	0.225
322	0.224
323	0.223
323	0.223
324	0.222
324	0.221
324	0.221
325	0.22
325	0.219
326	0.219
326	0.218
327	0.217
327	0.217
328	0.216
328	0.215
329	0.215
329	0.214
330	0.213
330	0.213
330	0.212
331	0.211
331	0.21
332	0.209
332	0.209
333	0.208
333	0.208
334	0.207
334	0.206
335	0.206
335	0.205
336	0.205
336	0.204
336	0.204
337	0.203
337	0.202
338	0.202
338	0.201
339	0.201
339	0.2
340	0.2
340	0.199
341	0.199
341	0.198
342	0.198
342	0.197
342	0.197
343	0.196
343	0.196
344	0.195
344	0.195
345	0.194
345	0.194
346	0.193
346	0.193
347	0.192
347	0.192
348	0.192
348	0.191
348	0.191
349	0.19
349	0.19
350	0.189
350	0.189
351	0.189
351	0.188
352	0.188
352	0.188
353	0.187
353	0.187
354	0.187
354	0.186
354	0.186
355	0.186
355	0.185
356	0.185
356	0.184
357	0.184
357	0.183
358	0.183
358	0.183
359	0.183
359	0.183
360	0.183
360	0.183
360	0.183
361	0.183
361	0.183
362	0.183
362	0.183
363	0.183
363	0.183
364	0.183
364	0.183
365	0.182
365	0.182
366	0.182
366	0.182
366	0.181
367	0.181
367	0.181
368	0.181
368	0.181
369	0.18
369	0.18
370	0.18
370	0.179
371	0.179
371	0.179
372	0.179
372	0.178
372	0.178
373	0.178
373	0.177
374	0.177
374	0.177
375	0.177
375	0.177
376	0.177
376	0.177
377	0.177
377	0.177
378	0.177
378	0.177
378	0.177
379	0.177
379	0.176
380	0.176
380	0.176
381	0.176
381	0.176
382	0.176
382	0.176
383	0.175
383	0.175
383	0.174
384	0.174
384	0.174
385	0.174
385	0.174
386	0.173
386	0.174
387	0.174
387	0.174
388	0.174
388	0.174
389	0.173
389	0.174
389	0.174
390	0.174
390	0.173
391	0.173
391	0.173
392	0.173
392	0.173
393	0.173
393	0.173
394	0.173
394	0.172
394	0.172
395	0.172
395	0.172
396	0.172
396	0.172
397	0.172
397	0.172
398	0.172
398	0.171
399	0.171
399	0.171
400	0.171
400	0.171
400	0.17
401	0.17
401	0.169
402	0.169
402	0.168
403	0.168
403	0.168
404	0.168
404	0.167
405	0.167
405	0.167
405	0.167
406	0.166
406	0.166
407	0.166
407	0.166
408	0.166
408	0.165
409	0.165
409	0.165
410	0.165
410	0.165
411	0.165
411	0.164
411	0.164
412	0.164
412	0.164
413	0.164
413	0.164
414	0.164
414	0.164
415	0.164
415	0.164
416	0.163
416	0.163
416	0.163
417	0.163
417	0.163
418	0.163
418	0.163
419	0.163
419	0.163
420	0.164
420	0.164
421	0.164
421	0.164
421	0.164
422	0.164
422	0.165
423	0.164
423	0.164
424	0.164
424	0.164
425	0.163
425	0.163
426	0.162
426	0.162
427	0.162
427	0.162
427	0.162
428	0.162
428	0.162
429	0.162
429	0.162
430	0.162
430	0.162
431	0.162
431	0.162
432	0.162
432	0.162
432	0.161
433	0.16
433	0.16
434	0.159
434	0.159
435	0.159
435	0.16
436	0.16
436	0.16
437	0.16
437	0.16
437	0.16
438	0.16
438	0.16
439	0.16
439	0.16
440	0.16
440	0.159
441	0.159
441	0.159
442	0.159
442	0.159
442	0.159
443	0.159
443	0.159
444	0.159
444	0.159
445	0.159
445	0.159
446	0.159
446	0.159
447	0.159
447	0.159
447	0.159
448	0.159
448	0.159
449	0.159
449	0.159
450	0.16
450	0.159
451	0.159
451	0.159
452	0.159
452	0.159
452	0.159
453	0.159
453	0.159
454	0.158
454	0.158
455	0.158
455	0.158
456	0.158
456	0.158
457	0.158
457	0.158
458	0.158
458	0.158
458	0.158
459	0.159
459	0.159
460	0.158
460	0.158
461	0.158
461	0.158
462	0.158
462	0.158
463	0.158
463	0.159
463	0.159
464	0.159
464	0.159
465	0.16
465	0.16
466	0.16
466	0.161
467	0.161
467	0.161
467	0.161
468	0.161
468	0.161
469	0.161
469	0.16
470	0.16
470	0.16
471	0.16
471	0.16
472	0.16
472	0.16
472	0.16
473	0.16
473	0.161
474	0.161
474	0.162
475	0.162
475	0.163
476	0.163
476	0.163
477	0.164
477	0.164
477	0.164
478	0.165
478	0.165
479	0.166
479	0.166
480	0.167
480	0.167
481	0.168
481	0.169
482	0.17
482	0.171
482	0.172
483	0.173
483	0.174
484	0.176
484	0.176
485	0.177
485	0.178
486	0.179
486	0.179
487	0.18
487	0.181
487	0.181
488	0.182
488	0.182
489	0.183
489	0.184
490	0.185
490	0.185
491	0.186
491	0.187
492	0.188
492	0.188
492	0.189
493	0.19
493	0.191
494	0.192
494	0.193
495	0.195
495	0.197
496	0.198
496	0.199
496	0.201
497	0.202
497	0.203
498	0.205
498	0.206
499	0.207
499	0.208
500	0.209
500	0.21
501	0.212
501	0.213
501	0.214
502	0.216
502	0.218
503	0.219
503	0.221
504	0.221
504	0.222
505	0.223
505	0.225
506	0.226
506	0.227
506	0.228
507	0.229
507	0.23
508	0.231
508	0.232
509	0.234
509	0.235
510	0.237
510	0.238
511	0.239
511	0.239
511	0.24
512	0.241
512	0.242
513	0.242
513	0.242
514	0.243
514	0.243
515	0.243
515	0.244
515	0.244
516	0.245
516	0.246
517	0.247
517	0.247
518	0.248
518	0.248
519	0.249
519	0.249
520	0.249
520	0.249
520	0.248
521	0.247
521	0.247
522	0.245
522	0.245
523	0.244
523	0.244
524	0.244
524	0.244
524	0.243
525	0.244
525	0.244
526	0.244
526	0.244
527	0.245
527	0.245
528	0.246
528	0.246
529	0.246
529	0.245
529	0.245
530	0.244
530	0.243
531	0.243
531	0.243
532	0.241
532	0.24
533	0.24
533	0.239
533	0.238
534	0.237
534	0.236
535	0.235
535	0.234
536	0.233
536	0.232
537	0.231
537	0.23
538	0.229
538	0.228
538	0.226
539	0.225
539	0.224
540	0.223
540	0.221
541	0.219
541	0.217
542	0.215
542	0.213
542	0.211
543	0.21
543	0.208
544	0.206
544	0.204
545	0.202
545	0.201
546	0.2
546	0.198
547	0.196
547	0.194
547	0.191
548	0.19
548	0.187
549	0.185
549	0.183
550	0.181
550	0.179
551	0.177
551	0.175
551	0.173
552	0.171
552	0.17
553	0.169
553	0.167
554	0.166
554	0.164
555	0.161
555	0.159
556	0.157
556	0.154
556	0.152
557	0.15
557	0.148
558	0.145
558	0.143
559	0.141
559	0.139
560	0.138
560	0.136
560	0.135
561	0.134
561	0.133
562	0.132
562	0.13
563	0.128
563	0.126
564	0.124
564	0.121
564	0.119
565	0.117
565	0.115
566	0.113
566	0.111
567	0.109
567	0.108
568	0.107
568	0.106
568	0.106
569	0.105
569	0.105
570	0.105
570	0.103
571	0.103
571	0.103
572	0.102
572	0.101
573	0.1
573	0.099
573	0.098
574	0.097
574	0.096
575	0.095
575	0.095
576	0.095
576	0.093
577	0.092
577	0.091
577	0.091
578	0.09
578	0.089
579	0.089
579	0.088
580	0.087
580	0.085
581	0.082
581	0.081
581	0.08
582	0.079
582	0.078
583	0.078
583	0.077
584	0.074
584	0.072
585	0.071
585	0.07
585	0.07
586	0.069
586	0.069
587	0.068
587	0.067
588	0.066
588	0.065
589	0.064
589	0.064
590	0.064
590	0.064
590	0.065
591	0.065
591	0.065
592	0.064
592	0.063
593	0.063
593	0.062
594	0.061
594	0.06
594	0.059
595	0.058
595	0.057
596	0.056
596	0.057
597	0.058
597	0.058
598	0.059
598	0.06
598	0.061
599	0.061
599	0.061
600	0.061
600	0.06
601	0.059
601	0.058
602	0.057
602	0.057
602	0.056
603	0.056
603	0.057
604	0.058
604	0.058
605	0.06
605	0.061
606	0.062
606	0.062
606	0.062
607	0.062
607	0.062
608	0.061
608	0.06
609	0.059
609	0.059
610	0.058
610	0.058
610	0.058
611	0.059
611	0.06
612	0.061
612	0.062
613	0.063
613	0.064
614	0.064
614	0.063
614	0.062
615	0.062
615	0.061
616	0.061
616	0.06
617	0.059
617	0.058
618	0.056
618	0.055
618	0.055
619	0.055
619	0.056
620	0.057
620	0.058
621	0.058
621	0.058
622	0.059
622	0.059
622	0.059
623	0.06
623	0.06
624	0.061
624	0.06
625	0.06
625	0.061
626	0.061
626	0.061
626	0.062
627	0.063
627	0.063
628	0.064
628	0.065
629	0.066
629	0.066
630	0.066
630	0.067
630	0.067
631	0.068
631	0.069
632	0.07
632	0.071
633	0.072
633	0.073
634	0.074
634	0.075
634	0.077
635	0.078
635	0.079
636	0.08
636	0.081
637	0.081
637	0.082
638	0.082
638	0.083
638	0.084
639	0.085
639	0.086
640	0.087
640	0.088
641	0.089
641	0.09
642	0.092
642	0.094
642	0.096
643	0.098
643	0.099
644	0.101
644	0.103
645	0.106
645	0.108
646	0.11
646	0.113
646	0.116
647	0.118
647	0.121
648	0.123
648	0.125
649	0.127
649	0.129
650	0.131
650	0.133
650	0.135
651	0.137
651	0.139
652	0.141
652	0.143
653	0.145
653	0.151
653	0.156
654	0.125
654	0.102
655	0.105
655	0.107
656	0.108
656	0.11
657	0.111
657	0.112
657	0.113
658	0.112
658	0.106
659	0.135
659	0.175
660	0.179
660	0.181
661	0.184
661	0.187
661	0.19
662	0.194
662	0.197
663	0.201
663	0.204
664	0.206
664	0.209
665	0.212
665	0.214
665	0.216
666	0.218
666	0.22
667	0.222
667	0.224
668	0.226
668	0.229
669	0.231
669	0.234
669	0.237
670	0.24
670	0.243
671	0.245
671	0.247
672	0.25
672	0.251
672	0.253
673	0.254
673	0.256
674	0.257
674	0.258
675	0.258
675	0.259
676	0.261
676	0.262
676	0.263
677	0.264
677	0.266
678	0.267
678	0.269
679	0.27
679	0.272
680	0.273
680	0.275
680	0.277
681	0.278
681	0.28
682	0.281
682	0.282
683	0.283
683	0.284
684	0.285
684	0.286
684	0.285
685	0.286
685	0.286
686	0.286
686	0.286
687	0.286
687	0.286
687	0.286
688	0.285
688	0.285
689	0.286
689	0.286
690	0.286
690	0.285
691	0.284
691	0.283
691	0.282
692	0.281
692	0.28
693	0.279
693	0.278
694	0.277
694	0.275
695	0.274
695	0.275
695	0.275
696	0.274
696	0.273
697	0.273
697	0.272
698	0.271
698	0.269
698	0.268
699	0.267
699	0.265
700	0.263
700	0.261
701	0.26
701	0.258
702	0.256
702	0.254
702	0.253
703	0.251
703	0.249
704	0.247
704	0.245
705	0.243
705	0.242
705	0.24
706	0.239
706	0.237
707	0.236
707	0.234
708	0.232
708	0.23
709	0.228
709	0.226
709	0.223
710	0.219
710	0.217
711	0.214
711	0.211
712	0.209
712	0.207
713	0.205
713	0.203
713	0.201
714	0.199
714	0.197
715	0.196
715	0.194
716	0.193
716	0.191
716	0.19
717	0.189
717	0.188
718	0.187
718	0.185
719	0.184
719	0.182
720	0.18
720	0.178
720	0.176
721	0.173
721	0.171
722	0.168
722	0.165
723	0.163
723	0.162
723	0.159
724	0.157
724	0.155
725	0.153
725	0.151
726	0.149
726	0.147
727	0.145
727	0.143
727	0.141
728	0.138
728	0.136
729	0.135
729	0.133
730	0.131
730	0.129
730	0.128
731	0.126
731	0.124
732	0.123
732	0.121
733	0.118
733	0.116
734	0.114
734	0.112
734	0.11
735	0.109
735	0.107
736	0.105
736	0.104
737	0.104
737	0.103
737	0.103
738	0.101
738	0.1
739	0.098
739	0.096
740	0.094
740	0.092
741	0.09
741	0.087
741	0.084
742	0.08
742	0.077
743	0.075
743	0.073
744	0.071
744	0.07
744	0.068
745	0.067
745	0.065
746	0.064
746	0.063
747	0.063
747	0.062
748	0.062
748	0.061
748	0.059
749	0.058
749	0.057
750	0.055
750	0.054
751	0.054
751	0.054
751	0.054
752	0.053
752	0.053
753	0.053
753	0.053
754	0.053
754	0.052
754	0.052
755	0.052
755	0.052
756	0.052
756	0.05
757	0.049
757	0.048
758	0.047
758	0.045
758	0.044
759	0.042
759	0.04
760	0.037
760	0.035
761	0.033
761	0.031
761	0.03
762	0.028
762	0.027
763	0.027
763	0.025
764	0.024
764	0.022
764	0.021
765	0.019
765	0.018
766	0.017
766	0.016
767	0.015
767	0.013
768	0.011
768	0.01
768	0.009
769	0.008
769	0.007
770	0.006
770	0.004
771	0.002
771	-0.001
771	-0.003
772	-0.006
772	-0.008
773	-0.01
773	-0.013
774	-0.015
774	-0.018
775	-0.02
775	-0.023
775	-0.025
776	-0.028
776	-0.031
777	-0.034
777	-0.036
778	-0.039
778	-0.042
778	-0.045
779	-0.047
779	-0.049
780	-0.051
780	-0.054
781	-0.057
781	-0.061
781	-0.065
782	-0.07
782	-0.076
783	-0.081
783	-0.086
784	-0.092
784	-0.099
784	-0.105
785	-0.111
785	-0.118
786	-0.124
786	-0.127
787	-0.127
787	-0.129
788	-0.133
788	-0.139
788	-0.143
789	-0.147
789	-0.149
790	-0.149
790	-0.149
791	-0.15
791	-0.152
791	-0.155
792	-0.15
792	-0.139
793	-0.133
793	-0.129
794	-0.127
794	-0.13
794	-0.134
795	-0.136
795	-0.136
796	-0.137
796	-0.14
797	-0.149
797	-0.16
797	-0.166
798	-0.172
798	-0.174
799	-0.175
799	-0.174
800	-0.173
800	-0.175
801	-0.178
801	-0.178
801	-0.179
802	-0.18
802	-0.181
803	-0.182
803	-0.183
804	-0.182
804	-0.176
804	-0.17
805	-0.166
805	-0.164
806	-0.162
806	-0.161
807	-0.16
807	-0.159
807	-0.159
808	-0.159
808	-0.16
809	-0.165
809	-0.171
810	-0.175
810	-0.178
810	-0.181
811	-0.185
811	-0.185
812	-0.181
812	-0.178
813	-0.178
813	-0.179
813	-0.179
814	-0.18
814	-0.179
815	-0.176
815	-0.172
816	-0.168
816	-0.165
817	-0.165
817	-0.162
817	-0.156
818	-0.148
818	-0.139
819	-0.129
819	-0.12
820	-0.113
820	-0.106
820	-0.098
821	-0.091
821	-0.084
822	-0.078
822	-0.074
823	-0.07
823	-0.067
823	-0.064
824	-0.061
824	-0.058
825	-0.054
825	-0.051
826	-0.048
826	-0.046
826	-0.044
827	-0.042
827	-0.04
828	-0.038
828	-0.036
829	-0.034
829	-0.033
829	-0.032
830	-0.032
830	-0.031
831	-0.029
831	-0.027
832	-0.026
832	-0.024
832	-0.022
833	-0.021
833	-0.019
834	-0.017
834	-0.016
835	-0.014
835	-0.013
835	-0.012
836	-0.011
836	-0.01
837	-0.01
837	-0.009
838	-0.009
838	-0.009
839	-0.009
839	-0.008
839	-0.009
840	-0.008
840	-0.008
841	-0.008
841	-0.008
842	-0.008
842	-0.008
842	-0.008
843	-0.009
843	-0.009
844	-0.009
844	-0.009
845	-0.01
845	-0.009
845	-0.009
846	-0.009
846	-0.009
847	-0.009
847	-0.009
848	-0.009
848	-0.008
848	-0.008
849	-0.008
849	-0.009
850	-0.009
850	-0.009
851	-0.01
851	-0.01
851	-0.01
852	-0.009
852	-0.009
853	-0.008
853	-0.008
854	-0.007
854	-0.007
854	-0.006
855	-0.006
855	-0.006
856	-0.006
856	-0.006
857	-0.006
857	-0.006
857	-0.007
858	-0.007
858	-0.008
859	-0.009
859	-0.009
860	-0.01
860	-0.01
860	-0.01
861	-0.009
861	-0.009
862	-0.009
862	-0.009
863	-0.009
863	-0.009
863	-0.009
864	-0.009
864	-0.008
865	-0.007
865	-0.007
866	-0.006
866	-0.005
866	-0.004
867	-0.002
867	-0.001
868	0.001
868	0.002
869	0.003
869	0.004
869	0.004
870	0.004
870	0.004
871	0.003
871	0.002
872	0.001
872	-0.001
872	-0.003
873	-0.004
873	-0.006
874	-0.007
874	-0.008
875	-0.008
875	-0.008
875	-0.008
876	-0.008
876	-0.007
877	-0.007
877	-0.006
878	-0.005
878	-0.003
878	-0.002
879	-0.001
879	0
880	0.001
880	0.002
881	0.002
881	0.003
881	0.003
882	0.003
882	0.003
883	0.002
883	0.002
884	0.001
884	0.001
884	0
885	0
885	0
886	0
886	0
887	0
887	0.001
887	0.001
888	0.001
888	0.001
889	0.002
889	0.002
890	0.002
890	0.002
890	0.001
891	0.001
891	0
892	-0
892	-0.001
893	-0.002
893	-0.003
893	-0.003
894	-0.004
894	-0.005
895	-0.006
895	-0.007
895	-0.008
896	-0.009
896	-0.009
897	-0.009
897	-0.009
898	-0.009
898	-0.009
898	-0.008
899	-0.008
899	-0.007
900	-0.006
900	-0.005
901	-0.004
901	-0.003
901	-0.003
902	-0.003
902	-0.003
903	-0.003
903	-0.002
904	-0.002
904	-0.002
904	-0.002
905	-0.002
905	-0.001
906	-0.001
906	-0
907	0.001
907	0.001
907	0.002
908	0.003
908	0.003
909	0.004
909	0.004
910	0.004
910	0.004
910	0.005
911	0.005
911	0.005
912	0.005
912	0.005
913	0.005
913	0.005
913	0.004
914	0.003
914	0.002
915	0.001
915	0
916	-0.001
916	-0.003
916	-0.004
917	-0.006
917	-0.007
918	-0.008
918	-0.008
918	-0.009
919	-0.009
919	-0.009
920	-0.008
920	-0.008
921	-0.007
921	-0.007
921	-0.006
922	-0.006
922	-0.005
923	-0.004
923	-0.004
924	-0.003
924	-0.003
924	-0.003
925	-0.003
925	-0.003
926	-0.003
926	-0.003
927	-0.004
927	-0.004
927	-0.004
928	-0.004
928	-0.004
929	-0.004
929	-0.003
930	-0.003
930	-0.002
930	-0.001
931	-0
931	0
932	0.001
932	0.002
933	0.003
933	0.004
933	0.004
934	0.005
934	0.005
935	0.006
935	0.006
935	0.006
936	0.006
936	0.006
937	0.006
937	0.006
938	0.005
938	0.005
938	0.004
939	0.003
939	0.003
940	0.002
940	0.001
941	0.001
941	0.001
941	0
942	0
942	0
943	0.001
943	0.001
944	0.001
944	0.001
944	0.001
945	0.002
945	0.002
946	0.002
946	0.002
946	0.001
947	0.001
947	0
948	-0
948	-0.001
949	-0.001
949	-0.002
949	-0.002
950	-0.002
950	-0.002
951	-0.002
951	-0.002
952	-0.002
952	-0.002
952	-0.001
953	-0.001
953	-0.001
954	-0.001
954	-0.002
955	-0.002
955	-0.002
955	-0.002
956	-0.003
956	-0.003
957	-0.004
957	-0.004
957	-0.005
958	-0.006
958	-0.007
959	-0.008
959	-0.008
960	-0.009
960	-0.01
960	-0.011
961	-0.012
961	-0.012
962	-0.012
962	-0.012
963	-0.012
963	-0.012
963	-0.011
964	-0.01
964	-0.009
965	-0.008
965	-0.007
966	-0.006
966	-0.005
966	-0.004
967	-0.003
967	-0.002
968	-0.002
968	-0.002
968	-0.001
969	-0.001
969	-0.001
970	-0.002
970	-0.002
971	-0.002
971	-0.002
971	-0.003
972	-0.003
972	-0.002
973	-0.002
973	-0.003
974	-0.003
974	-0.003
974	-0.003
975	-0.003
975	-0.003
976	-0.003
976	-0.003
976	-0.003
977	-0.004
977	-0.004
978	-0.005
978	-0.006
979	-0.007
979	-0.008
979	-0.009
980	-0.009
980	-0.01
981	-0.011
981	-0.012
982	-0.012
982	-0.012
982	-0.012
983	-0.011
983	-0.011
984	-0.01
984	-0.01
984	-0.009
985	-0.008
985	-0.008
986	-0.008
986	-0.008
987	-0.007
987	-0.007
987	-0.007
988	-0.006
988	-0.006
989	-0.006
989	-0.005
990	-0.005
990	-0.004
990	-0.003
991	-0.002
991	-0.001
992	-0.001
992	-0
992	0.001
993	0.001
993	0.002
994	0.002
994	0.002
995	0.003
995	0.003
995	0.003
996	0.003
996	0.003
997	0.003
997	0.003
997	0.003
998	0.003
998	0.003
999	0.003
999	0.003
1000	0.004
1000	0.004
1000	0.005
1001	0.005
1001	0.006
1002	0.006
1002	0.006
1003	0.007
1003	0.007
1003	0.007
1004	0.007
1004	0.006
1005	0.006
1005	0.005
1005	0.005
1006	0.004
1006	0.004
1007	0.003
1007	0.002
1008	0.002
1008	0.002
1008	0.002
1009	0.002
1009	0.002
1010	0.002
1010	0.002
1010	0.002
1011	0.002
1011	0.002
1012	0.002
1012	0.002
1013	0.002
1013	0.002
1013	0.001
1014	0.001
1014	0.001
1015	0
1015	0
1016	0
1016	0
1016	0
1017	-0
1017	-0
1018	0
1018	0
1018	0
1019	0
1019	0
1020	-0
1020	-0
1021	-0.001
1021	-0.001
1021	-0.001
1022	-0.002
1022	-0.002
1023	-0.002
1023	-0.002
1023	-0.002
1024	-0.002
1024	-0.002
1025	-0.002
1025	-0.002
1026	-0.002
1026	-0.002
1026	-0.002
1027	-0.003
1027	-0.002
1028	-0.002
1028	-0.002
1028	-0.002
1029	-0.002
1029	-0.001
1030	-0.001
1030	-0.001
1031	-0.001
1031	-0.001
1031	-0
1032	-0.001
1032	-0
1033	-0.001
1033	-0.001
1033	-0.002
1034	-0.003
1034	-0.004
1035	-0.004
1035	-0.005
1036	-0.006
1036	-0.007
1036	-0.008
1037	-0.008
1037	-0.009
1038	-0.009
1038	-0.009
1039	-0.009
1039	-0.009
1039	-0.008
1040	-0.008
1040	-0.008
1041	-0.008
1041	-0.007
1041	-0.008
1042	-0.009
1042	-0.009
1043	-0.01
1043	-0.011
1044	-0.011
1044	-0.012
1044	-0.012
1045	-0.013
1045	-0.013
1046	-0.014
1046	-0.014
1046	-0.013
1047	-0.013
1047	-0.012
1048	-0.011
1048	-0.01
1049	-0.01
1049	-0.01
1049	-0.009
1050	-0.009
1050	-0.009
1051	-0.008
1051	-0.008
1051	-0.008
1052	-0.008
1052	-0.008
1053	-0.009
1053	-0.009
1053	-0.009
1054	-0.009
1054	-0.008
1055	-0.008
1055	-0.008
1056	-0.009
1056	-0.009
1056	-0.01
1057	-0.01
1057	-0.011
1058	-0.011
1058	-0.012
1058	-0.012
1059	-0.013
1059	-0.013
1060	-0.014
1060	-0.014
1061	-0.014
1061	-0.014
1061	-0.014
1062	-0.014
1062	-0.014
1063	-0.014
1063	-0.015
1063	-0.014
1064	-0.014
1064	-0.014
1065	-0.014
1065	-0.013
1066	-0.013
1066	-0.013
1066	-0.013
1067	-0.013
1067	-0.013
1068	-0.013
1068	-0.014
1068	-0.014
1069	-0.015
1069	-0.015
1070	-0.016
1070	-0.016
1071	-0.016
1071	-0.017
1071	-0.017
1072	-0.017
1072	-0.017
1073	-0.017
1073	-0.017
1073	-0.017
1074	-0.016
1074	-0.016
1075	-0.017
1075	-0.017
1076	-0.017
1076	-0.016
1076	-0.016
1077	-0.016
1077	-0.016
1078	-0.016
1078	-0.015
1078	-0.014
1079	-0.013
1079	-0.012
1080	-0.011
1080	-0.01
1080	-0.009
1081	-0.008
1081	-0.007
1082	-0.005
1082	-0.004
1083	-0.003
1083	-0.003
1083	-0.002
1084	-0
1084	0.001
1085	0.002
1085	0.003
1085	0.005
1086	0.006
1086	0.007
1087	0.007
1087	0.008
1088	0.008
1088	0.009
1088	0.009
1089	0.009
1089	0.01
1090	0.01
1090	0.011
1090	0.012
1091	0.012
1091	0.014
1092	0.015
1092	0.017
1092	0.018
1093	0.02
1093	0.023
1094	0.025
1094	0.028
1095	0.03
1095	0.032
1095	0.036
1096	0.038
1096	0.041
1097	0.044
1097	0.047
1097	0.05
1098	0.052
1098	0.055
1099	0.057
1099	0.061
1100	0.065
1100	0.069
1100	0.072
1101	0.076
1101	0.081
1102	0.087
1102	0.092
1102	0.099
1103	0.106
1103	0.114
1104	0.123
1104	0.133
1104	0.143
1105	0.153
1105	0.163
1106	0.173
1106	0.186
1107	0.199
1107	0.22
1107	0.245
1108	0.318
1108	0.426
1109	0.618
1109	1.201
1109	-0
1110	-0
1110	-0
1111	-0
1111	-0
