Data from 15c-2a_Absorbance__1276__01276.txt Node

Date: Wed Jan 17 10:22:56 CET 2024
User: Marek
Spectrometer: MAYP115816
Trigger mode: 0
Integration Time (sec): 2.000000E-1
Scans to average: 10
Electric dark correction enabled: true
Nonlinearity correction enabled: true
Boxcar width: 5
XAxis mode: Wavelengths
Number of Pixels in Spectrum: 2068
>>>>>Begin Spectral Data<<<<<
199	-1.605
199	-1.466
200	-1.307
200	-1.184
201	-1.108
201	-1.061
202	-0.991
202	-0.94
203	-0.894
203	-0.855
204	-0.831
204	-0.807
205	-0.784
205	-0.774
205	-0.773
206	-0.773
206	-0.769
207	-0.768
207	-0.764
208	-0.762
208	-0.762
209	-0.757
209	-0.756
210	-0.756
210	-0.757
211	-0.756
211	-0.755
212	-0.756
212	-0.754
213	-0.753
213	-0.752
213	-0.752
214	-0.751
214	-0.751
215	-0.749
215	-0.748
216	-0.748
216	-0.746
217	-0.741
217	-0.739
218	-0.738
218	-0.735
219	-0.731
219	-0.731
220	-0.727
220	-0.724
221	-0.719
221	-0.716
221	-0.711
222	-0.708
222	-0.703
223	-0.697
223	-0.694
224	-0.689
224	-0.682
225	-0.674
225	-0.667
226	-0.658
226	-0.646
227	-0.633
227	-0.62
228	-0.605
228	-0.587
229	-0.566
229	-0.542
229	-0.515
230	-0.486
230	-0.455
231	-0.421
231	-0.385
232	-0.349
232	-0.31
233	-0.268
233	-0.225
234	-0.183
234	-0.142
235	-0.102
235	-0.063
236	-0.026
236	0.01
236	0.044
237	0.077
237	0.106
238	0.133
238	0.158
239	0.182
239	0.204
240	0.223
240	0.241
241	0.257
241	0.271
242	0.284
242	0.295
243	0.306
243	0.316
243	0.324
244	0.332
244	0.339
245	0.345
245	0.352
246	0.358
246	0.363
247	0.368
247	0.373
248	0.377
248	0.381
249	0.385
249	0.388
250	0.39
250	0.394
250	0.397
251	0.399
251	0.401
252	0.404
252	0.406
253	0.408
253	0.409
254	0.411
254	0.413
255	0.414
255	0.415
256	0.416
256	0.417
257	0.418
257	0.419
258	0.419
258	0.419
258	0.42
259	0.42
259	0.42
260	0.42
260	0.419
261	0.419
261	0.419
262	0.419
262	0.418
263	0.418
263	0.417
264	0.416
264	0.415
265	0.414
265	0.413
265	0.412
266	0.411
266	0.41
267	0.409
267	0.407
268	0.406
268	0.405
269	0.403
269	0.401
270	0.399
270	0.397
271	0.395
271	0.393
272	0.391
272	0.389
272	0.387
273	0.385
273	0.383
274	0.381
274	0.379
275	0.377
275	0.375
276	0.373
276	0.37
277	0.368
277	0.366
278	0.364
278	0.361
278	0.359
279	0.357
279	0.354
280	0.352
280	0.35
281	0.347
281	0.345
282	0.343
282	0.341
283	0.339
283	0.337
284	0.335
284	0.334
285	0.332
285	0.33
285	0.328
286	0.327
286	0.325
287	0.323
287	0.322
288	0.32
288	0.319
289	0.317
289	0.315
290	0.314
290	0.313
291	0.311
291	0.31
292	0.308
292	0.307
292	0.306
293	0.304
293	0.303
294	0.302
294	0.3
295	0.299
295	0.298
296	0.297
296	0.296
297	0.295
297	0.294
298	0.293
298	0.292
298	0.292
299	0.291
299	0.29
300	0.289
300	0.288
301	0.288
301	0.287
302	0.286
302	0.285
303	0.285
303	0.284
304	0.283
304	0.282
305	0.282
305	0.281
305	0.28
306	0.279
306	0.278
307	0.278
307	0.277
308	0.276
308	0.275
309	0.275
309	0.274
310	0.273
310	0.272
311	0.272
311	0.271
311	0.27
312	0.27
312	0.269
313	0.268
313	0.267
314	0.267
314	0.266
315	0.265
315	0.264
316	0.264
316	0.263
317	0.262
317	0.262
318	0.261
318	0.26
318	0.259
319	0.258
319	0.257
320	0.257
320	0.256
321	0.255
321	0.254
322	0.253
322	0.252
323	0.251
323	0.251
324	0.25
324	0.249
324	0.248
325	0.248
325	0.247
326	0.246
326	0.246
327	0.245
327	0.244
328	0.243
328	0.243
329	0.242
329	0.241
330	0.24
330	0.24
330	0.239
331	0.238
331	0.237
332	0.237
332	0.236
333	0.235
333	0.235
334	0.234
334	0.233
335	0.232
335	0.232
336	0.231
336	0.23
336	0.23
337	0.229
337	0.228
338	0.228
338	0.227
339	0.226
339	0.226
340	0.225
340	0.225
341	0.224
341	0.223
342	0.223
342	0.222
342	0.222
343	0.221
343	0.221
344	0.22
344	0.22
345	0.219
345	0.219
346	0.219
346	0.218
347	0.218
347	0.217
348	0.217
348	0.216
348	0.216
349	0.215
349	0.215
350	0.214
350	0.214
351	0.214
351	0.213
352	0.213
352	0.212
353	0.212
353	0.211
354	0.211
354	0.21
354	0.21
355	0.21
355	0.209
356	0.209
356	0.208
357	0.208
357	0.207
358	0.207
358	0.207
359	0.207
359	0.207
360	0.207
360	0.207
360	0.207
361	0.207
361	0.207
362	0.207
362	0.207
363	0.207
363	0.207
364	0.207
364	0.206
365	0.206
365	0.206
366	0.205
366	0.205
366	0.205
367	0.205
367	0.205
368	0.204
368	0.204
369	0.204
369	0.204
370	0.203
370	0.203
371	0.203
371	0.203
372	0.202
372	0.202
372	0.202
373	0.202
373	0.201
374	0.201
374	0.201
375	0.201
375	0.201
376	0.201
376	0.201
377	0.201
377	0.201
378	0.2
378	0.2
378	0.2
379	0.2
379	0.2
380	0.2
380	0.2
381	0.2
381	0.2
382	0.2
382	0.2
383	0.199
383	0.199
383	0.199
384	0.198
384	0.198
385	0.198
385	0.198
386	0.197
386	0.197
387	0.197
387	0.197
388	0.197
388	0.197
389	0.196
389	0.196
389	0.196
390	0.196
390	0.196
391	0.196
391	0.196
392	0.196
392	0.196
393	0.196
393	0.196
394	0.195
394	0.195
394	0.195
395	0.195
395	0.194
396	0.194
396	0.194
397	0.194
397	0.194
398	0.194
398	0.193
399	0.193
399	0.193
400	0.193
400	0.192
400	0.192
401	0.191
401	0.191
402	0.191
402	0.19
403	0.19
403	0.19
404	0.19
404	0.19
405	0.19
405	0.19
405	0.189
406	0.189
406	0.189
407	0.189
407	0.189
408	0.188
408	0.188
409	0.187
409	0.187
410	0.187
410	0.187
411	0.187
411	0.187
411	0.186
412	0.186
412	0.186
413	0.186
413	0.185
414	0.185
414	0.185
415	0.185
415	0.184
416	0.184
416	0.184
416	0.184
417	0.184
417	0.184
418	0.184
418	0.184
419	0.184
419	0.185
420	0.185
420	0.185
421	0.186
421	0.186
421	0.186
422	0.186
422	0.186
423	0.186
423	0.186
424	0.185
424	0.185
425	0.184
425	0.184
426	0.183
426	0.183
427	0.183
427	0.183
427	0.183
428	0.183
428	0.183
429	0.183
429	0.183
430	0.183
430	0.183
431	0.183
431	0.183
432	0.183
432	0.182
432	0.182
433	0.181
433	0.181
434	0.181
434	0.181
435	0.181
435	0.181
436	0.181
436	0.181
437	0.181
437	0.181
437	0.181
438	0.181
438	0.181
439	0.181
439	0.181
440	0.18
440	0.18
441	0.18
441	0.18
442	0.18
442	0.18
442	0.18
443	0.179
443	0.18
444	0.18
444	0.18
445	0.18
445	0.18
446	0.18
446	0.18
447	0.18
447	0.18
447	0.18
448	0.18
448	0.18
449	0.18
449	0.18
450	0.18
450	0.18
451	0.18
451	0.18
452	0.18
452	0.18
452	0.18
453	0.18
453	0.179
454	0.179
454	0.179
455	0.179
455	0.18
456	0.179
456	0.179
457	0.179
457	0.179
458	0.179
458	0.18
458	0.18
459	0.18
459	0.18
460	0.179
460	0.179
461	0.179
461	0.179
462	0.179
462	0.179
463	0.179
463	0.18
463	0.18
464	0.18
464	0.18
465	0.18
465	0.181
466	0.181
466	0.182
467	0.182
467	0.182
467	0.182
468	0.181
468	0.181
469	0.181
469	0.181
470	0.181
470	0.181
471	0.181
471	0.18
472	0.181
472	0.181
472	0.181
473	0.182
473	0.182
474	0.183
474	0.183
475	0.184
475	0.184
476	0.184
476	0.185
477	0.185
477	0.185
477	0.185
478	0.185
478	0.186
479	0.186
479	0.187
480	0.187
480	0.188
481	0.189
481	0.19
482	0.191
482	0.192
482	0.193
483	0.195
483	0.197
484	0.198
484	0.199
485	0.2
485	0.201
486	0.202
486	0.202
487	0.203
487	0.204
487	0.204
488	0.204
488	0.205
489	0.205
489	0.207
490	0.208
490	0.209
491	0.21
491	0.211
492	0.212
492	0.212
492	0.213
493	0.214
493	0.215
494	0.217
494	0.218
495	0.22
495	0.221
496	0.222
496	0.224
496	0.226
497	0.227
497	0.229
498	0.23
498	0.231
499	0.233
499	0.234
500	0.235
500	0.237
501	0.238
501	0.239
501	0.241
502	0.242
502	0.244
503	0.246
503	0.247
504	0.248
504	0.249
505	0.251
505	0.251
506	0.253
506	0.254
506	0.255
507	0.257
507	0.258
508	0.259
508	0.26
509	0.262
509	0.263
510	0.265
510	0.266
511	0.267
511	0.268
511	0.269
512	0.269
512	0.27
513	0.27
513	0.271
514	0.272
514	0.272
515	0.272
515	0.273
515	0.273
516	0.274
516	0.275
517	0.277
517	0.277
518	0.277
518	0.277
519	0.278
519	0.278
520	0.277
520	0.277
520	0.277
521	0.276
521	0.275
522	0.274
522	0.273
523	0.273
523	0.273
524	0.273
524	0.273
524	0.273
525	0.274
525	0.274
526	0.274
526	0.275
527	0.275
527	0.275
528	0.275
528	0.275
529	0.275
529	0.274
529	0.274
530	0.273
530	0.273
531	0.272
531	0.272
532	0.271
532	0.27
533	0.269
533	0.268
533	0.268
534	0.267
534	0.266
535	0.265
535	0.264
536	0.263
536	0.262
537	0.261
537	0.259
538	0.258
538	0.257
538	0.255
539	0.254
539	0.252
540	0.25
540	0.248
541	0.246
541	0.244
542	0.242
542	0.24
542	0.238
543	0.235
543	0.233
544	0.231
544	0.229
545	0.227
545	0.226
546	0.225
546	0.222
547	0.22
547	0.217
547	0.215
548	0.213
548	0.21
549	0.208
549	0.206
550	0.203
550	0.201
551	0.198
551	0.196
551	0.194
552	0.192
552	0.191
553	0.19
553	0.188
554	0.186
554	0.184
555	0.182
555	0.179
556	0.177
556	0.174
556	0.172
557	0.169
557	0.167
558	0.164
558	0.162
559	0.16
559	0.158
560	0.157
560	0.155
560	0.154
561	0.153
561	0.152
562	0.151
562	0.149
563	0.146
563	0.144
564	0.141
564	0.139
564	0.136
565	0.134
565	0.132
566	0.129
566	0.127
567	0.125
567	0.124
568	0.123
568	0.123
568	0.122
569	0.122
569	0.122
570	0.121
570	0.119
571	0.119
571	0.118
572	0.117
572	0.116
573	0.115
573	0.113
573	0.112
574	0.111
574	0.11
575	0.109
575	0.109
576	0.109
576	0.107
577	0.105
577	0.104
577	0.104
578	0.103
578	0.102
579	0.102
579	0.102
580	0.1
580	0.097
581	0.094
581	0.092
581	0.092
582	0.091
582	0.09
583	0.09
583	0.089
584	0.086
584	0.083
585	0.082
585	0.082
585	0.081
586	0.081
586	0.08
587	0.078
587	0.077
588	0.075
588	0.074
589	0.074
589	0.074
590	0.074
590	0.074
590	0.075
591	0.075
591	0.074
592	0.074
592	0.073
593	0.072
593	0.072
594	0.071
594	0.07
594	0.069
595	0.068
595	0.067
596	0.066
596	0.067
597	0.069
597	0.07
598	0.07
598	0.071
598	0.072
599	0.073
599	0.072
600	0.072
600	0.071
601	0.07
601	0.069
602	0.067
602	0.067
602	0.066
603	0.066
603	0.067
604	0.068
604	0.069
605	0.07
605	0.072
606	0.072
606	0.071
606	0.071
607	0.071
607	0.07
608	0.07
608	0.068
609	0.067
609	0.067
610	0.066
610	0.065
610	0.065
611	0.067
611	0.068
612	0.069
612	0.07
613	0.071
613	0.073
614	0.072
614	0.071
614	0.07
615	0.07
615	0.069
616	0.068
616	0.067
617	0.066
617	0.065
618	0.064
618	0.063
618	0.062
619	0.063
619	0.064
620	0.066
620	0.066
621	0.067
621	0.067
622	0.067
622	0.068
622	0.068
623	0.068
623	0.069
624	0.07
624	0.069
625	0.069
625	0.069
626	0.069
626	0.069
626	0.07
627	0.071
627	0.072
628	0.073
628	0.074
629	0.074
629	0.075
630	0.075
630	0.075
630	0.076
631	0.077
631	0.078
632	0.078
632	0.079
633	0.08
633	0.081
634	0.083
634	0.085
634	0.087
635	0.088
635	0.089
636	0.09
636	0.092
637	0.092
637	0.093
638	0.094
638	0.096
638	0.097
639	0.098
639	0.099
640	0.1
640	0.101
641	0.103
641	0.105
642	0.107
642	0.109
642	0.11
643	0.112
643	0.113
644	0.115
644	0.117
645	0.119
645	0.121
646	0.123
646	0.126
646	0.128
647	0.131
647	0.134
648	0.136
648	0.138
649	0.14
649	0.142
650	0.144
650	0.146
650	0.148
651	0.15
651	0.151
652	0.153
652	0.155
653	0.158
653	0.165
653	0.176
654	0.141
654	0.114
655	0.117
655	0.119
656	0.121
656	0.122
657	0.124
657	0.125
657	0.127
658	0.124
658	0.115
659	0.147
659	0.191
660	0.198
660	0.2
661	0.202
661	0.205
661	0.208
662	0.212
662	0.215
663	0.219
663	0.222
664	0.225
664	0.228
665	0.231
665	0.234
665	0.237
666	0.24
666	0.242
667	0.244
667	0.246
668	0.249
668	0.251
669	0.254
669	0.257
669	0.261
670	0.264
670	0.267
671	0.269
671	0.272
672	0.274
672	0.276
672	0.278
673	0.28
673	0.282
674	0.283
674	0.284
675	0.284
675	0.286
676	0.287
676	0.289
676	0.29
677	0.292
677	0.293
678	0.294
678	0.296
679	0.297
679	0.299
680	0.301
680	0.302
680	0.304
681	0.305
681	0.306
682	0.307
682	0.308
683	0.31
683	0.311
684	0.312
684	0.312
684	0.312
685	0.312
685	0.313
686	0.313
686	0.313
687	0.313
687	0.313
687	0.314
688	0.313
688	0.313
689	0.313
689	0.313
690	0.312
690	0.311
691	0.31
691	0.309
691	0.307
692	0.306
692	0.304
693	0.303
693	0.302
694	0.301
694	0.299
695	0.299
695	0.299
695	0.299
696	0.298
696	0.297
697	0.296
697	0.295
698	0.294
698	0.293
698	0.292
699	0.291
699	0.289
700	0.287
700	0.285
701	0.284
701	0.283
702	0.282
702	0.28
702	0.278
703	0.276
703	0.274
704	0.272
704	0.27
705	0.268
705	0.266
705	0.264
706	0.262
706	0.26
707	0.258
707	0.255
708	0.253
708	0.251
709	0.249
709	0.246
709	0.243
710	0.24
710	0.237
711	0.235
711	0.232
712	0.23
712	0.228
713	0.226
713	0.224
713	0.222
714	0.22
714	0.218
715	0.216
715	0.214
716	0.212
716	0.211
716	0.209
717	0.207
717	0.206
718	0.204
718	0.202
719	0.201
719	0.199
720	0.197
720	0.195
720	0.193
721	0.191
721	0.189
722	0.186
722	0.184
723	0.182
723	0.18
723	0.178
724	0.175
724	0.173
725	0.17
725	0.167
726	0.165
726	0.162
727	0.16
727	0.157
727	0.155
728	0.152
728	0.15
729	0.149
729	0.147
730	0.145
730	0.143
730	0.141
731	0.14
731	0.138
732	0.136
732	0.134
733	0.132
733	0.129
734	0.127
734	0.125
734	0.123
735	0.122
735	0.12
736	0.119
736	0.118
737	0.117
737	0.117
737	0.116
738	0.114
738	0.112
739	0.11
739	0.107
740	0.105
740	0.103
741	0.1
741	0.097
741	0.093
742	0.089
742	0.086
743	0.084
743	0.082
744	0.08
744	0.079
744	0.077
745	0.075
745	0.073
746	0.072
746	0.071
747	0.07
747	0.069
748	0.069
748	0.068
748	0.067
749	0.065
749	0.064
750	0.063
750	0.062
751	0.062
751	0.062
751	0.062
752	0.061
752	0.06
753	0.059
753	0.059
754	0.059
754	0.058
754	0.058
755	0.058
755	0.058
756	0.057
756	0.055
757	0.054
757	0.054
758	0.052
758	0.051
758	0.05
759	0.049
759	0.047
760	0.044
760	0.042
761	0.041
761	0.04
761	0.039
762	0.037
762	0.037
763	0.036
763	0.034
764	0.032
764	0.03
764	0.028
765	0.026
765	0.024
766	0.023
766	0.022
767	0.021
767	0.018
768	0.016
768	0.015
768	0.014
769	0.013
769	0.012
770	0.011
770	0.009
771	0.007
771	0.004
771	0.002
772	-0.001
772	-0.003
773	-0.005
773	-0.008
774	-0.011
774	-0.013
775	-0.016
775	-0.019
775	-0.021
776	-0.024
776	-0.026
777	-0.029
777	-0.031
778	-0.034
778	-0.036
778	-0.038
779	-0.039
779	-0.041
780	-0.044
780	-0.046
781	-0.049
781	-0.053
781	-0.058
782	-0.063
782	-0.069
783	-0.075
783	-0.08
784	-0.087
784	-0.094
784	-0.1
785	-0.107
785	-0.114
786	-0.12
786	-0.123
787	-0.124
787	-0.126
788	-0.131
788	-0.136
788	-0.141
789	-0.145
789	-0.148
790	-0.147
790	-0.149
791	-0.151
791	-0.152
791	-0.155
792	-0.15
792	-0.139
793	-0.133
793	-0.129
794	-0.127
794	-0.13
794	-0.134
795	-0.136
795	-0.136
796	-0.137
796	-0.14
797	-0.149
797	-0.16
797	-0.166
798	-0.172
798	-0.174
799	-0.175
799	-0.174
800	-0.173
800	-0.175
801	-0.178
801	-0.178
801	-0.179
802	-0.18
802	-0.182
803	-0.182
803	-0.183
804	-0.182
804	-0.176
804	-0.17
805	-0.166
805	-0.164
806	-0.162
806	-0.161
807	-0.16
807	-0.159
807	-0.159
808	-0.159
808	-0.16
809	-0.165
809	-0.171
810	-0.175
810	-0.178
810	-0.182
811	-0.185
811	-0.185
812	-0.181
812	-0.178
813	-0.178
813	-0.179
813	-0.179
814	-0.18
814	-0.179
815	-0.176
815	-0.172
816	-0.169
816	-0.166
817	-0.166
817	-0.163
817	-0.157
818	-0.15
818	-0.14
819	-0.131
819	-0.122
820	-0.115
820	-0.108
820	-0.101
821	-0.093
821	-0.087
822	-0.081
822	-0.077
823	-0.073
823	-0.07
823	-0.068
824	-0.065
824	-0.062
825	-0.059
825	-0.055
826	-0.052
826	-0.051
826	-0.049
827	-0.047
827	-0.045
828	-0.043
828	-0.041
829	-0.039
829	-0.038
829	-0.037
830	-0.036
830	-0.035
831	-0.032
831	-0.03
832	-0.029
832	-0.027
832	-0.026
833	-0.024
833	-0.023
834	-0.021
834	-0.019
835	-0.017
835	-0.016
835	-0.014
836	-0.013
836	-0.012
837	-0.011
837	-0.01
838	-0.009
838	-0.009
839	-0.008
839	-0.008
839	-0.008
840	-0.008
840	-0.008
841	-0.007
841	-0.007
842	-0.007
842	-0.006
842	-0.006
843	-0.005
843	-0.005
844	-0.005
844	-0.004
845	-0.004
845	-0.004
845	-0.003
846	-0.003
846	-0.003
847	-0.003
847	-0.003
848	-0.003
848	-0.003
848	-0.004
849	-0.004
849	-0.005
850	-0.006
850	-0.007
851	-0.007
851	-0.007
851	-0.008
852	-0.008
852	-0.007
853	-0.007
853	-0.007
854	-0.006
854	-0.005
854	-0.005
855	-0.005
855	-0.005
856	-0.005
856	-0.005
857	-0.006
857	-0.007
857	-0.007
858	-0.007
858	-0.008
859	-0.009
859	-0.009
860	-0.009
860	-0.009
860	-0.009
861	-0.009
861	-0.009
862	-0.009
862	-0.009
863	-0.009
863	-0.009
863	-0.009
864	-0.008
864	-0.008
865	-0.008
865	-0.007
866	-0.006
866	-0.005
866	-0.004
867	-0.003
867	-0.001
868	-0
868	0.001
869	0.002
869	0.003
869	0.003
870	0.004
870	0.003
871	0.003
871	0.002
872	0.001
872	-0
872	-0.001
873	-0.002
873	-0.003
874	-0.004
874	-0.004
875	-0.004
875	-0.004
875	-0.004
876	-0.003
876	-0.003
877	-0.002
877	-0.001
878	-0
878	0.001
878	0.002
879	0.002
879	0.003
880	0.003
880	0.004
881	0.004
881	0.004
881	0.004
882	0.004
882	0.005
883	0.004
883	0.004
884	0.004
884	0.004
884	0.004
885	0.003
885	0.003
886	0.003
886	0.003
887	0.002
887	0.002
887	0.002
888	0.001
888	0
889	-0
889	-0.001
890	-0.001
890	-0.002
890	-0.003
891	-0.003
891	-0.004
892	-0.005
892	-0.005
893	-0.006
893	-0.007
893	-0.008
894	-0.008
894	-0.009
895	-0.01
895	-0.01
895	-0.011
896	-0.011
896	-0.011
897	-0.011
897	-0.011
898	-0.011
898	-0.01
898	-0.01
899	-0.009
899	-0.008
900	-0.008
900	-0.007
901	-0.006
901	-0.005
901	-0.004
902	-0.004
902	-0.003
903	-0.003
903	-0.002
904	-0.002
904	-0.002
904	-0.001
905	-0.001
905	-0.001
906	-0
906	0
907	0
907	0.001
907	0.001
908	0.001
908	0.001
909	0.002
909	0.002
910	0.002
910	0.002
910	0.003
911	0.003
911	0.004
912	0.004
912	0.005
913	0.006
913	0.006
913	0.006
914	0.006
914	0.005
915	0.004
915	0.003
916	0.002
916	0
916	-0.001
917	-0.003
917	-0.005
918	-0.006
918	-0.007
918	-0.008
919	-0.008
919	-0.008
920	-0.007
920	-0.007
921	-0.006
921	-0.006
921	-0.005
922	-0.004
922	-0.003
923	-0.002
923	-0.001
924	-0
924	0
924	-0
925	-0
925	0
926	0
926	0
927	-0
927	-0
927	-0
928	-0.001
928	-0.001
929	-0.001
929	-0.001
930	-0.002
930	-0.002
930	-0.002
931	-0.002
931	-0.002
932	-0.002
932	-0.002
933	-0.002
933	-0.002
933	-0.002
934	-0.002
934	-0.002
935	-0.003
935	-0.003
935	-0.002
936	-0.003
936	-0.003
937	-0.003
937	-0.003
938	-0.003
938	-0.003
938	-0.004
939	-0.004
939	-0.004
940	-0.005
940	-0.005
941	-0.005
941	-0.005
941	-0.005
942	-0.005
942	-0.005
943	-0.005
943	-0.005
944	-0.005
944	-0.005
944	-0.005
945	-0.005
945	-0.005
946	-0.005
946	-0.005
946	-0.005
947	-0.005
947	-0.006
948	-0.006
948	-0.006
949	-0.006
949	-0.006
949	-0.005
950	-0.005
950	-0.005
951	-0.004
951	-0.004
952	-0.004
952	-0.003
952	-0.003
953	-0.003
953	-0.003
954	-0.004
954	-0.004
955	-0.005
955	-0.006
955	-0.006
956	-0.006
956	-0.007
957	-0.008
957	-0.008
957	-0.009
958	-0.009
958	-0.01
959	-0.01
959	-0.011
960	-0.011
960	-0.012
960	-0.012
961	-0.013
961	-0.012
962	-0.013
962	-0.012
963	-0.012
963	-0.011
963	-0.01
964	-0.01
964	-0.008
965	-0.007
965	-0.006
966	-0.005
966	-0.004
966	-0.003
967	-0.002
967	-0.001
968	-0.001
968	-0.001
968	-0.001
969	-0.001
969	-0.001
970	-0.001
970	-0.002
971	-0.002
971	-0.003
971	-0.003
972	-0.004
972	-0.004
973	-0.004
973	-0.004
974	-0.005
974	-0.005
974	-0.005
975	-0.005
975	-0.005
976	-0.005
976	-0.005
976	-0.006
977	-0.007
977	-0.008
978	-0.009
978	-0.01
979	-0.011
979	-0.012
979	-0.014
980	-0.015
980	-0.016
981	-0.018
981	-0.018
982	-0.019
982	-0.019
982	-0.019
983	-0.018
983	-0.018
984	-0.017
984	-0.016
984	-0.015
985	-0.014
985	-0.013
986	-0.013
986	-0.012
987	-0.012
987	-0.011
987	-0.01
988	-0.01
988	-0.009
989	-0.009
989	-0.008
990	-0.007
990	-0.007
990	-0.005
991	-0.004
991	-0.003
992	-0.002
992	-0.002
992	-0.001
993	-0.001
993	-0
994	-0
994	-0
995	-0
995	-0
995	-0.001
996	-0.001
996	-0.001
997	-0.002
997	-0.002
997	-0.002
998	-0.002
998	-0.002
999	-0.002
999	-0.001
1000	-0.001
1000	-0
1000	0
1001	0.001
1001	0.001
1002	0.002
1002	0.002
1003	0.002
1003	0.002
1003	0.002
1004	0.001
1004	0.001
1005	0.001
1005	-0
1005	-0.001
1006	-0.002
1006	-0.002
1007	-0.003
1007	-0.003
1008	-0.004
1008	-0.004
1008	-0.005
1009	-0.005
1009	-0.005
1010	-0.005
1010	-0.006
1010	-0.006
1011	-0.007
1011	-0.007
1012	-0.007
1012	-0.008
1013	-0.008
1013	-0.008
1013	-0.009
1014	-0.01
1014	-0.011
1015	-0.011
1015	-0.012
1016	-0.012
1016	-0.012
1016	-0.013
1017	-0.014
1017	-0.014
1018	-0.014
1018	-0.014
1018	-0.014
1019	-0.014
1019	-0.014
1020	-0.014
1020	-0.014
1021	-0.015
1021	-0.014
1021	-0.014
1022	-0.014
1022	-0.013
1023	-0.013
1023	-0.013
1023	-0.013
1024	-0.013
1024	-0.013
1025	-0.013
1025	-0.012
1026	-0.013
1026	-0.013
1026	-0.013
1027	-0.013
1027	-0.013
1028	-0.013
1028	-0.013
1028	-0.013
1029	-0.013
1029	-0.013
1030	-0.013
1030	-0.013
1031	-0.013
1031	-0.013
1031	-0.013
1032	-0.013
1032	-0.013
1033	-0.014
1033	-0.014
1033	-0.015
1034	-0.016
1034	-0.017
1035	-0.018
1035	-0.02
1036	-0.02
1036	-0.021
1036	-0.022
1037	-0.022
1037	-0.022
1038	-0.022
1038	-0.021
1039	-0.02
1039	-0.02
1039	-0.019
1040	-0.018
1040	-0.018
1041	-0.017
1041	-0.017
1041	-0.018
1042	-0.018
1042	-0.019
1043	-0.02
1043	-0.021
1044	-0.022
1044	-0.023
1044	-0.023
1045	-0.024
1045	-0.024
1046	-0.025
1046	-0.025
1046	-0.024
1047	-0.024
1047	-0.023
1048	-0.022
1048	-0.022
1049	-0.022
1049	-0.022
1049	-0.022
1050	-0.022
1050	-0.023
1051	-0.023
1051	-0.023
1051	-0.024
1052	-0.024
1052	-0.024
1053	-0.025
1053	-0.025
1053	-0.025
1054	-0.026
1054	-0.025
1055	-0.025
1055	-0.025
1056	-0.026
1056	-0.026
1056	-0.027
1057	-0.027
1057	-0.027
1058	-0.028
1058	-0.028
1058	-0.028
1059	-0.029
1059	-0.029
1060	-0.03
1060	-0.03
1061	-0.029
1061	-0.028
1061	-0.028
1062	-0.028
1062	-0.028
1063	-0.028
1063	-0.028
1063	-0.027
1064	-0.027
1064	-0.026
1065	-0.026
1065	-0.026
1066	-0.026
1066	-0.026
1066	-0.025
1067	-0.025
1067	-0.024
1068	-0.024
1068	-0.025
1068	-0.025
1069	-0.025
1069	-0.026
1070	-0.027
1070	-0.027
1071	-0.027
1071	-0.028
1071	-0.029
1072	-0.029
1072	-0.03
1073	-0.03
1073	-0.031
1073	-0.032
1074	-0.032
1074	-0.032
1075	-0.033
1075	-0.034
1076	-0.035
1076	-0.034
1076	-0.035
1077	-0.035
1077	-0.035
1078	-0.035
1078	-0.035
1078	-0.034
1079	-0.033
1079	-0.031
1080	-0.03
1080	-0.029
1080	-0.028
1081	-0.027
1081	-0.026
1082	-0.025
1082	-0.025
1083	-0.024
1083	-0.024
1083	-0.024
1084	-0.024
1084	-0.023
1085	-0.022
1085	-0.022
1085	-0.021
1086	-0.02
1086	-0.02
1087	-0.02
1087	-0.019
1088	-0.019
1088	-0.019
1088	-0.019
1089	-0.019
1089	-0.02
1090	-0.021
1090	-0.021
1090	-0.021
1091	-0.021
1091	-0.02
1092	-0.02
1092	-0.019
1092	-0.018
1093	-0.016
1093	-0.014
1094	-0.012
1094	-0.01
1095	-0.009
1095	-0.007
1095	-0.004
1096	-0.002
1096	0.001
1097	0.003
1097	0.004
1097	0.007
1098	0.007
1098	0.009
1099	0.011
1099	0.014
1100	0.016
1100	0.018
1100	0.019
1101	0.022
1101	0.024
1102	0.028
1102	0.031
1102	0.036
1103	0.04
1103	0.045
1104	0.05
1104	0.057
1104	0.066
1105	0.073
1105	0.08
1106	0.085
1106	0.094
1107	0.102
1107	0.115
1107	0.131
1108	0.183
1108	0.255
1109	0.365
1109	0.568
1109	0.77
1110	1.754
1110	-0
1111	-0
1111	-0
