Data from 15c-2a_Absorbance__675__00675.txt Node

Date: Wed Jan 17 10:02:55 CET 2024
User: Marek
Spectrometer: MAYP115816
Trigger mode: 0
Integration Time (sec): 2.000000E-1
Scans to average: 10
Electric dark correction enabled: true
Nonlinearity correction enabled: true
Boxcar width: 5
XAxis mode: Wavelengths
Number of Pixels in Spectrum: 2068
>>>>>Begin Spectral Data<<<<<
199	-1.613
199	-1.471
200	-1.311
200	-1.186
201	-1.11
201	-1.061
202	-0.99
202	-0.937
203	-0.889
203	-0.848
204	-0.823
204	-0.799
205	-0.776
205	-0.766
205	-0.764
206	-0.763
206	-0.759
207	-0.757
207	-0.752
208	-0.751
208	-0.751
209	-0.746
209	-0.745
210	-0.745
210	-0.745
211	-0.743
211	-0.743
212	-0.744
212	-0.743
213	-0.742
213	-0.741
213	-0.74
214	-0.738
214	-0.738
215	-0.736
215	-0.735
216	-0.734
216	-0.732
217	-0.727
217	-0.725
218	-0.725
218	-0.721
219	-0.718
219	-0.718
220	-0.714
220	-0.71
221	-0.706
221	-0.702
221	-0.698
222	-0.694
222	-0.689
223	-0.683
223	-0.68
224	-0.674
224	-0.667
225	-0.659
225	-0.651
226	-0.642
226	-0.63
227	-0.617
227	-0.604
228	-0.589
228	-0.571
229	-0.552
229	-0.528
229	-0.503
230	-0.474
230	-0.445
231	-0.411
231	-0.377
232	-0.341
232	-0.303
233	-0.262
233	-0.221
234	-0.179
234	-0.139
235	-0.1
235	-0.063
236	-0.026
236	0.008
236	0.04
237	0.072
237	0.1
238	0.125
238	0.149
239	0.17
239	0.19
240	0.208
240	0.224
241	0.239
241	0.253
242	0.265
242	0.275
243	0.285
243	0.294
243	0.302
244	0.31
244	0.317
245	0.324
245	0.329
246	0.335
246	0.339
247	0.344
247	0.348
248	0.352
248	0.356
249	0.36
249	0.363
250	0.366
250	0.368
250	0.371
251	0.373
251	0.376
252	0.378
252	0.38
253	0.382
253	0.384
254	0.385
254	0.386
255	0.388
255	0.389
256	0.39
256	0.391
257	0.392
257	0.393
258	0.393
258	0.393
258	0.394
259	0.394
259	0.394
260	0.394
260	0.394
261	0.394
261	0.393
262	0.393
262	0.392
263	0.392
263	0.391
264	0.391
264	0.39
265	0.389
265	0.388
265	0.387
266	0.386
266	0.384
267	0.383
267	0.382
268	0.38
268	0.379
269	0.377
269	0.375
270	0.373
270	0.371
271	0.369
271	0.367
272	0.365
272	0.364
272	0.362
273	0.36
273	0.358
274	0.356
274	0.354
275	0.352
275	0.349
276	0.347
276	0.345
277	0.343
277	0.341
278	0.338
278	0.336
278	0.334
279	0.332
279	0.33
280	0.328
280	0.326
281	0.323
281	0.321
282	0.319
282	0.317
283	0.316
283	0.314
284	0.312
284	0.31
285	0.308
285	0.307
285	0.305
286	0.303
286	0.301
287	0.3
287	0.298
288	0.297
288	0.295
289	0.293
289	0.292
290	0.29
290	0.289
291	0.288
291	0.286
292	0.285
292	0.284
292	0.282
293	0.281
293	0.28
294	0.279
294	0.278
295	0.277
295	0.276
296	0.275
296	0.274
297	0.273
297	0.272
298	0.271
298	0.27
298	0.269
299	0.269
299	0.268
300	0.267
300	0.267
301	0.266
301	0.265
302	0.265
302	0.264
303	0.263
303	0.263
304	0.262
304	0.261
305	0.261
305	0.26
305	0.259
306	0.258
306	0.258
307	0.257
307	0.256
308	0.255
308	0.255
309	0.254
309	0.253
310	0.253
310	0.252
311	0.251
311	0.251
311	0.25
312	0.249
312	0.249
313	0.248
313	0.247
314	0.246
314	0.246
315	0.245
315	0.245
316	0.244
316	0.243
317	0.242
317	0.242
318	0.241
318	0.24
318	0.24
319	0.239
319	0.238
320	0.237
320	0.237
321	0.236
321	0.235
322	0.234
322	0.233
323	0.233
323	0.232
324	0.231
324	0.231
324	0.23
325	0.229
325	0.229
326	0.228
326	0.227
327	0.227
327	0.226
328	0.225
328	0.225
329	0.224
329	0.223
330	0.222
330	0.222
330	0.221
331	0.22
331	0.219
332	0.219
332	0.218
333	0.217
333	0.217
334	0.216
334	0.215
335	0.215
335	0.214
336	0.213
336	0.213
336	0.212
337	0.212
337	0.211
338	0.211
338	0.21
339	0.209
339	0.209
340	0.208
340	0.208
341	0.207
341	0.207
342	0.206
342	0.206
342	0.205
343	0.205
343	0.204
344	0.204
344	0.203
345	0.203
345	0.203
346	0.202
346	0.202
347	0.201
347	0.201
348	0.2
348	0.2
348	0.2
349	0.199
349	0.199
350	0.198
350	0.198
351	0.197
351	0.197
352	0.196
352	0.196
353	0.196
353	0.195
354	0.195
354	0.195
354	0.194
355	0.194
355	0.193
356	0.193
356	0.192
357	0.192
357	0.192
358	0.192
358	0.191
359	0.191
359	0.191
360	0.191
360	0.191
360	0.192
361	0.192
361	0.192
362	0.192
362	0.191
363	0.191
363	0.191
364	0.191
364	0.191
365	0.191
365	0.19
366	0.19
366	0.19
366	0.19
367	0.189
367	0.189
368	0.189
368	0.189
369	0.188
369	0.188
370	0.188
370	0.188
371	0.187
371	0.187
372	0.187
372	0.186
372	0.186
373	0.186
373	0.185
374	0.185
374	0.185
375	0.185
375	0.184
376	0.185
376	0.185
377	0.184
377	0.184
378	0.184
378	0.185
378	0.185
379	0.185
379	0.184
380	0.184
380	0.184
381	0.184
381	0.184
382	0.184
382	0.184
383	0.183
383	0.183
383	0.182
384	0.182
384	0.182
385	0.182
385	0.182
386	0.182
386	0.182
387	0.182
387	0.181
388	0.181
388	0.181
389	0.181
389	0.181
389	0.181
390	0.181
390	0.181
391	0.181
391	0.181
392	0.181
392	0.181
393	0.181
393	0.181
394	0.181
394	0.181
394	0.18
395	0.18
395	0.18
396	0.179
396	0.179
397	0.179
397	0.179
398	0.179
398	0.179
399	0.179
399	0.178
400	0.178
400	0.178
400	0.178
401	0.177
401	0.177
402	0.176
402	0.176
403	0.176
403	0.175
404	0.175
404	0.175
405	0.175
405	0.174
405	0.174
406	0.174
406	0.174
407	0.174
407	0.173
408	0.173
408	0.173
409	0.172
409	0.172
410	0.172
410	0.172
411	0.172
411	0.172
411	0.172
412	0.172
412	0.172
413	0.172
413	0.171
414	0.171
414	0.171
415	0.171
415	0.171
416	0.171
416	0.171
416	0.17
417	0.17
417	0.17
418	0.17
418	0.17
419	0.17
419	0.171
420	0.171
420	0.171
421	0.172
421	0.172
421	0.172
422	0.172
422	0.172
423	0.172
423	0.172
424	0.172
424	0.171
425	0.171
425	0.171
426	0.17
426	0.17
427	0.17
427	0.169
427	0.169
428	0.169
428	0.17
429	0.17
429	0.17
430	0.17
430	0.17
431	0.17
431	0.169
432	0.169
432	0.169
432	0.169
433	0.168
433	0.168
434	0.167
434	0.167
435	0.167
435	0.167
436	0.167
436	0.167
437	0.167
437	0.167
437	0.168
438	0.168
438	0.168
439	0.168
439	0.167
440	0.167
440	0.167
441	0.167
441	0.167
442	0.167
442	0.166
442	0.167
443	0.167
443	0.167
444	0.167
444	0.167
445	0.167
445	0.167
446	0.167
446	0.167
447	0.167
447	0.167
447	0.167
448	0.167
448	0.167
449	0.167
449	0.167
450	0.167
450	0.167
451	0.167
451	0.167
452	0.167
452	0.167
452	0.167
453	0.166
453	0.166
454	0.166
454	0.166
455	0.166
455	0.166
456	0.166
456	0.166
457	0.166
457	0.166
458	0.166
458	0.166
458	0.166
459	0.166
459	0.166
460	0.166
460	0.166
461	0.166
461	0.166
462	0.166
462	0.166
463	0.166
463	0.167
463	0.167
464	0.167
464	0.167
465	0.168
465	0.168
466	0.168
466	0.169
467	0.169
467	0.169
467	0.169
468	0.169
468	0.168
469	0.168
469	0.168
470	0.168
470	0.168
471	0.167
471	0.167
472	0.167
472	0.167
472	0.167
473	0.168
473	0.169
474	0.169
474	0.17
475	0.17
475	0.171
476	0.171
476	0.171
477	0.172
477	0.172
477	0.172
478	0.172
478	0.172
479	0.173
479	0.173
480	0.174
480	0.175
481	0.176
481	0.177
482	0.178
482	0.179
482	0.18
483	0.182
483	0.183
484	0.184
484	0.185
485	0.186
485	0.187
486	0.187
486	0.188
487	0.189
487	0.189
487	0.19
488	0.19
488	0.19
489	0.191
489	0.192
490	0.193
490	0.194
491	0.194
491	0.195
492	0.196
492	0.197
492	0.198
493	0.198
493	0.199
494	0.201
494	0.202
495	0.204
495	0.205
496	0.207
496	0.208
496	0.21
497	0.211
497	0.213
498	0.214
498	0.215
499	0.217
499	0.218
500	0.219
500	0.22
501	0.222
501	0.223
501	0.225
502	0.226
502	0.228
503	0.229
503	0.231
504	0.232
504	0.233
505	0.234
505	0.235
506	0.236
506	0.237
506	0.238
507	0.239
507	0.24
508	0.241
508	0.243
509	0.244
509	0.246
510	0.247
510	0.248
511	0.249
511	0.25
511	0.251
512	0.252
512	0.252
513	0.253
513	0.253
514	0.253
514	0.254
515	0.254
515	0.255
515	0.255
516	0.256
516	0.256
517	0.257
517	0.258
518	0.258
518	0.259
519	0.259
519	0.259
520	0.259
520	0.258
520	0.258
521	0.257
521	0.257
522	0.256
522	0.255
523	0.255
523	0.255
524	0.254
524	0.254
524	0.255
525	0.255
525	0.255
526	0.256
526	0.256
527	0.256
527	0.257
528	0.257
528	0.257
529	0.257
529	0.257
529	0.256
530	0.256
530	0.255
531	0.254
531	0.254
532	0.253
532	0.252
533	0.251
533	0.25
533	0.249
534	0.248
534	0.247
535	0.246
535	0.245
536	0.244
536	0.242
537	0.241
537	0.24
538	0.239
538	0.238
538	0.237
539	0.236
539	0.234
540	0.233
540	0.231
541	0.229
541	0.228
542	0.226
542	0.224
542	0.222
543	0.22
543	0.218
544	0.216
544	0.214
545	0.212
545	0.211
546	0.209
546	0.207
547	0.205
547	0.202
547	0.2
548	0.198
548	0.196
549	0.194
549	0.192
550	0.189
550	0.187
551	0.185
551	0.183
551	0.182
552	0.18
552	0.178
553	0.177
553	0.175
554	0.174
554	0.172
555	0.169
555	0.167
556	0.165
556	0.162
556	0.16
557	0.157
557	0.155
558	0.153
558	0.15
559	0.148
559	0.147
560	0.145
560	0.144
560	0.143
561	0.142
561	0.141
562	0.139
562	0.137
563	0.135
563	0.133
564	0.131
564	0.129
564	0.126
565	0.124
565	0.122
566	0.12
566	0.117
567	0.116
567	0.115
568	0.114
568	0.113
568	0.112
569	0.112
569	0.112
570	0.111
570	0.109
571	0.109
571	0.108
572	0.107
572	0.106
573	0.105
573	0.104
573	0.103
574	0.102
574	0.102
575	0.101
575	0.101
576	0.1
576	0.099
577	0.097
577	0.097
577	0.096
578	0.095
578	0.094
579	0.094
579	0.094
580	0.092
580	0.09
581	0.087
581	0.086
581	0.085
582	0.084
582	0.083
583	0.082
583	0.081
584	0.079
584	0.076
585	0.075
585	0.075
585	0.074
586	0.074
586	0.073
587	0.072
587	0.071
588	0.069
588	0.069
589	0.068
589	0.068
590	0.068
590	0.068
590	0.069
591	0.069
591	0.069
592	0.068
592	0.067
593	0.067
593	0.066
594	0.065
594	0.064
594	0.063
595	0.062
595	0.061
596	0.061
596	0.061
597	0.062
597	0.063
598	0.063
598	0.064
598	0.065
599	0.065
599	0.065
600	0.064
600	0.064
601	0.063
601	0.062
602	0.061
602	0.061
602	0.06
603	0.06
603	0.061
604	0.061
604	0.062
605	0.063
605	0.065
606	0.065
606	0.065
606	0.065
607	0.065
607	0.065
608	0.064
608	0.063
609	0.062
609	0.062
610	0.061
610	0.061
610	0.061
611	0.062
611	0.063
612	0.065
612	0.066
613	0.067
613	0.068
614	0.068
614	0.067
614	0.066
615	0.065
615	0.064
616	0.064
616	0.063
617	0.062
617	0.061
618	0.059
618	0.058
618	0.058
619	0.058
619	0.059
620	0.061
620	0.061
621	0.061
621	0.062
622	0.062
622	0.063
622	0.063
623	0.063
623	0.064
624	0.064
624	0.063
625	0.063
625	0.064
626	0.064
626	0.065
626	0.065
627	0.066
627	0.067
628	0.068
628	0.068
629	0.069
629	0.07
630	0.07
630	0.07
630	0.071
631	0.072
631	0.072
632	0.073
632	0.074
633	0.075
633	0.076
634	0.078
634	0.079
634	0.081
635	0.082
635	0.083
636	0.084
636	0.085
637	0.085
637	0.086
638	0.087
638	0.088
638	0.089
639	0.09
639	0.09
640	0.091
640	0.092
641	0.094
641	0.095
642	0.097
642	0.099
642	0.101
643	0.103
643	0.105
644	0.107
644	0.109
645	0.111
645	0.114
646	0.116
646	0.119
646	0.122
647	0.124
647	0.127
648	0.129
648	0.131
649	0.133
649	0.135
650	0.137
650	0.139
650	0.141
651	0.143
651	0.145
652	0.147
652	0.149
653	0.151
653	0.157
653	0.164
654	0.131
654	0.107
655	0.11
655	0.112
656	0.113
656	0.114
657	0.116
657	0.117
657	0.118
658	0.116
658	0.11
659	0.14
659	0.182
660	0.186
660	0.188
661	0.191
661	0.194
661	0.197
662	0.201
662	0.204
663	0.208
663	0.211
664	0.214
664	0.217
665	0.219
665	0.222
665	0.224
666	0.227
666	0.228
667	0.23
667	0.232
668	0.235
668	0.237
669	0.24
669	0.243
669	0.246
670	0.249
670	0.252
671	0.254
671	0.257
672	0.259
672	0.261
672	0.263
673	0.264
673	0.266
674	0.267
674	0.268
675	0.268
675	0.269
676	0.271
676	0.272
676	0.274
677	0.275
677	0.277
678	0.278
678	0.28
679	0.281
679	0.283
680	0.285
680	0.287
680	0.288
681	0.289
681	0.291
682	0.292
682	0.293
683	0.294
683	0.295
684	0.296
684	0.296
684	0.296
685	0.296
685	0.296
686	0.297
686	0.297
687	0.297
687	0.297
687	0.297
688	0.297
688	0.296
689	0.297
689	0.297
690	0.297
690	0.296
691	0.295
691	0.294
691	0.293
692	0.292
692	0.291
693	0.29
693	0.289
694	0.288
694	0.286
695	0.286
695	0.286
695	0.286
696	0.285
696	0.284
697	0.283
697	0.282
698	0.281
698	0.28
698	0.278
699	0.277
699	0.276
700	0.273
700	0.271
701	0.27
701	0.268
702	0.267
702	0.265
702	0.263
703	0.261
703	0.259
704	0.257
704	0.255
705	0.253
705	0.252
705	0.25
706	0.248
706	0.247
707	0.245
707	0.243
708	0.241
708	0.239
709	0.237
709	0.235
709	0.232
710	0.229
710	0.226
711	0.223
711	0.22
712	0.218
712	0.215
713	0.213
713	0.211
713	0.209
714	0.207
714	0.205
715	0.204
715	0.202
716	0.201
716	0.199
716	0.198
717	0.197
717	0.196
718	0.194
718	0.192
719	0.191
719	0.19
720	0.188
720	0.186
720	0.183
721	0.181
721	0.178
722	0.176
722	0.173
723	0.171
723	0.169
723	0.167
724	0.165
724	0.163
725	0.161
725	0.158
726	0.156
726	0.154
727	0.152
727	0.149
727	0.147
728	0.144
728	0.142
729	0.14
729	0.138
730	0.136
730	0.134
730	0.133
731	0.131
731	0.129
732	0.128
732	0.126
733	0.124
733	0.122
734	0.12
734	0.117
734	0.116
735	0.114
735	0.113
736	0.111
736	0.11
737	0.11
737	0.109
737	0.109
738	0.107
738	0.105
739	0.104
739	0.102
740	0.099
740	0.097
741	0.095
741	0.092
741	0.089
742	0.085
742	0.082
743	0.08
743	0.078
744	0.076
744	0.074
744	0.073
745	0.071
745	0.07
746	0.068
746	0.067
747	0.067
747	0.066
748	0.066
748	0.065
748	0.063
749	0.062
749	0.06
750	0.059
750	0.058
751	0.058
751	0.057
751	0.057
752	0.057
752	0.056
753	0.055
753	0.055
754	0.055
754	0.055
754	0.055
755	0.054
755	0.054
756	0.053
756	0.052
757	0.051
757	0.05
758	0.049
758	0.047
758	0.046
759	0.045
759	0.043
760	0.041
760	0.038
761	0.036
761	0.035
761	0.033
762	0.031
762	0.03
763	0.03
763	0.028
764	0.026
764	0.025
764	0.023
765	0.021
765	0.02
766	0.018
766	0.018
767	0.017
767	0.015
768	0.013
768	0.012
768	0.011
769	0.01
769	0.009
770	0.007
770	0.006
771	0.004
771	0.001
771	-0.002
772	-0.004
772	-0.006
773	-0.009
773	-0.011
774	-0.014
774	-0.016
775	-0.019
775	-0.021
775	-0.024
776	-0.027
776	-0.029
777	-0.032
777	-0.035
778	-0.037
778	-0.04
778	-0.043
779	-0.044
779	-0.046
780	-0.049
780	-0.052
781	-0.055
781	-0.058
781	-0.062
782	-0.067
782	-0.073
783	-0.078
783	-0.083
784	-0.089
784	-0.095
784	-0.102
785	-0.108
785	-0.115
786	-0.121
786	-0.124
787	-0.124
787	-0.126
788	-0.131
788	-0.137
788	-0.141
789	-0.146
789	-0.148
790	-0.148
790	-0.149
791	-0.15
791	-0.152
791	-0.155
792	-0.15
792	-0.139
793	-0.133
793	-0.129
794	-0.127
794	-0.13
794	-0.134
795	-0.136
795	-0.136
796	-0.137
796	-0.14
797	-0.149
797	-0.16
797	-0.166
798	-0.172
798	-0.174
799	-0.175
799	-0.174
800	-0.173
800	-0.175
801	-0.178
801	-0.178
801	-0.179
802	-0.18
802	-0.181
803	-0.182
803	-0.183
804	-0.182
804	-0.176
804	-0.17
805	-0.166
805	-0.164
806	-0.162
806	-0.161
807	-0.16
807	-0.159
807	-0.159
808	-0.159
808	-0.16
809	-0.165
809	-0.171
810	-0.175
810	-0.178
810	-0.181
811	-0.185
811	-0.185
812	-0.181
812	-0.178
813	-0.178
813	-0.179
813	-0.179
814	-0.18
814	-0.179
815	-0.176
815	-0.172
816	-0.168
816	-0.165
817	-0.165
817	-0.162
817	-0.156
818	-0.148
818	-0.138
819	-0.128
819	-0.119
820	-0.112
820	-0.104
820	-0.097
821	-0.089
821	-0.083
822	-0.077
822	-0.073
823	-0.069
823	-0.066
823	-0.064
824	-0.061
824	-0.058
825	-0.054
825	-0.05
826	-0.048
826	-0.046
826	-0.044
827	-0.042
827	-0.04
828	-0.038
828	-0.036
829	-0.035
829	-0.033
829	-0.033
830	-0.032
830	-0.031
831	-0.029
831	-0.028
832	-0.027
832	-0.025
832	-0.023
833	-0.022
833	-0.02
834	-0.019
834	-0.017
835	-0.015
835	-0.014
835	-0.013
836	-0.012
836	-0.011
837	-0.011
837	-0.01
838	-0.01
838	-0.01
839	-0.009
839	-0.009
839	-0.009
840	-0.009
840	-0.009
841	-0.009
841	-0.009
842	-0.009
842	-0.009
842	-0.009
843	-0.009
843	-0.009
844	-0.009
844	-0.009
845	-0.009
845	-0.009
845	-0.008
846	-0.008
846	-0.008
847	-0.008
847	-0.007
848	-0.007
848	-0.007
848	-0.008
849	-0.008
849	-0.008
850	-0.009
850	-0.01
851	-0.01
851	-0.01
851	-0.01
852	-0.01
852	-0.01
853	-0.009
853	-0.009
854	-0.008
854	-0.007
854	-0.007
855	-0.006
855	-0.006
856	-0.006
856	-0.006
857	-0.006
857	-0.007
857	-0.007
858	-0.007
858	-0.008
859	-0.008
859	-0.009
860	-0.009
860	-0.009
860	-0.009
861	-0.009
861	-0.009
862	-0.008
862	-0.008
863	-0.008
863	-0.008
863	-0.008
864	-0.008
864	-0.008
865	-0.007
865	-0.006
866	-0.005
866	-0.005
866	-0.003
867	-0.002
867	-0.001
868	0.001
868	0.002
869	0.004
869	0.004
869	0.004
870	0.004
870	0.004
871	0.003
871	0.002
872	0.001
872	-0.001
872	-0.002
873	-0.004
873	-0.005
874	-0.006
874	-0.007
875	-0.007
875	-0.007
875	-0.007
876	-0.006
876	-0.006
877	-0.005
877	-0.004
878	-0.003
878	-0.001
878	-0
879	0.001
879	0.002
880	0.003
880	0.003
881	0.004
881	0.005
881	0.005
882	0.005
882	0.004
883	0.004
883	0.003
884	0.003
884	0.002
884	0.001
885	0.001
885	0.001
886	0.001
886	0.001
887	0.001
887	0.001
887	0.001
888	0.002
888	0.002
889	0.002
889	0.002
890	0.002
890	0.002
890	0.001
891	0.001
891	0.001
892	-0
892	-0.001
893	-0.002
893	-0.002
893	-0.003
894	-0.004
894	-0.005
895	-0.006
895	-0.007
895	-0.008
896	-0.008
896	-0.009
897	-0.009
897	-0.009
898	-0.009
898	-0.009
898	-0.008
899	-0.007
899	-0.007
900	-0.006
900	-0.005
901	-0.004
901	-0.003
901	-0.003
902	-0.002
902	-0.002
903	-0.002
903	-0.002
904	-0.002
904	-0.002
904	-0.002
905	-0.002
905	-0.001
906	-0.001
906	-0
907	0.001
907	0.001
907	0.002
908	0.003
908	0.004
909	0.004
909	0.004
910	0.005
910	0.005
910	0.005
911	0.005
911	0.006
912	0.006
912	0.006
913	0.006
913	0.005
913	0.005
914	0.004
914	0.003
915	0.002
915	0.001
916	-0.001
916	-0.002
916	-0.004
917	-0.005
917	-0.007
918	-0.007
918	-0.008
918	-0.008
919	-0.008
919	-0.008
920	-0.007
920	-0.007
921	-0.006
921	-0.006
921	-0.005
922	-0.004
922	-0.003
923	-0.002
923	-0.002
924	-0.001
924	-0.001
924	-0.001
925	-0.002
925	-0.002
926	-0.002
926	-0.002
927	-0.002
927	-0.003
927	-0.003
928	-0.003
928	-0.003
929	-0.003
929	-0.003
930	-0.002
930	-0.002
930	-0.001
931	-0
931	0
932	0.001
932	0.002
933	0.002
933	0.003
933	0.004
934	0.004
934	0.005
935	0.005
935	0.005
935	0.006
936	0.006
936	0.006
937	0.006
937	0.005
938	0.005
938	0.004
938	0.004
939	0.003
939	0.002
940	0.001
940	0
941	0
941	-0
941	-0
942	-0
942	0
943	0
943	0
944	0.001
944	0.001
944	0.001
945	0.001
945	0.001
946	0.001
946	0.001
946	0.001
947	0.001
947	-0
948	-0.001
948	-0.001
949	-0.001
949	-0.002
949	-0.002
950	-0.002
950	-0.002
951	-0.002
951	-0.002
952	-0.002
952	-0.001
952	-0.001
953	-0
953	-0
954	-0.001
954	-0.001
955	-0.001
955	-0.001
955	-0.002
956	-0.002
956	-0.002
957	-0.003
957	-0.004
957	-0.005
958	-0.006
958	-0.006
959	-0.007
959	-0.008
960	-0.009
960	-0.01
960	-0.011
961	-0.012
961	-0.013
962	-0.013
962	-0.013
963	-0.013
963	-0.012
963	-0.012
964	-0.011
964	-0.01
965	-0.009
965	-0.007
966	-0.006
966	-0.005
966	-0.004
967	-0.003
967	-0.002
968	-0.002
968	-0.001
968	-0.001
969	-0.001
969	-0.001
970	-0.001
970	-0.001
971	-0.002
971	-0.002
971	-0.002
972	-0.002
972	-0.002
973	-0.002
973	-0.003
974	-0.003
974	-0.003
974	-0.003
975	-0.002
975	-0.002
976	-0.002
976	-0.002
976	-0.002
977	-0.003
977	-0.004
978	-0.004
978	-0.005
979	-0.006
979	-0.007
979	-0.008
980	-0.009
980	-0.01
981	-0.011
981	-0.011
982	-0.011
982	-0.011
982	-0.011
983	-0.011
983	-0.01
984	-0.01
984	-0.009
984	-0.008
985	-0.008
985	-0.007
986	-0.007
986	-0.007
987	-0.007
987	-0.007
987	-0.006
988	-0.006
988	-0.006
989	-0.006
989	-0.006
990	-0.006
990	-0.005
990	-0.004
991	-0.003
991	-0.002
992	-0.001
992	-0.001
992	-0
993	0.001
993	0.001
994	0.002
994	0.002
995	0.003
995	0.003
995	0.003
996	0.003
996	0.003
997	0.002
997	0.002
997	0.002
998	0.002
998	0.002
999	0.003
999	0.003
1000	0.003
1000	0.004
1000	0.004
1001	0.005
1001	0.005
1002	0.006
1002	0.006
1003	0.007
1003	0.007
1003	0.007
1004	0.006
1004	0.006
1005	0.005
1005	0.005
1005	0.004
1006	0.003
1006	0.003
1007	0.002
1007	0.001
1008	0.001
1008	0.001
1008	0.001
1009	0.001
1009	0.001
1010	0.002
1010	0.002
1010	0.002
1011	0.002
1011	0.002
1012	0.002
1012	0.002
1013	0.002
1013	0.001
1013	0.001
1014	0
1014	0
1015	0
1015	-0
1016	-0
1016	-0.001
1016	-0.001
1017	-0.001
1017	-0.001
1018	-0.001
1018	-0.001
1018	-0.001
1019	-0.001
1019	-0.001
1020	-0.001
1020	-0.002
1021	-0.002
1021	-0.002
1021	-0.002
1022	-0.002
1022	-0.002
1023	-0.002
1023	-0.002
1023	-0.002
1024	-0.003
1024	-0.003
1025	-0.003
1025	-0.003
1026	-0.003
1026	-0.003
1026	-0.003
1027	-0.003
1027	-0.003
1028	-0.003
1028	-0.003
1028	-0.002
1029	-0.002
1029	-0.002
1030	-0.002
1030	-0.001
1031	-0.001
1031	-0.001
1031	-0.001
1032	-0.001
1032	-0.001
1033	-0.001
1033	-0.002
1033	-0.002
1034	-0.004
1034	-0.004
1035	-0.005
1035	-0.007
1036	-0.007
1036	-0.008
1036	-0.009
1037	-0.009
1037	-0.01
1038	-0.01
1038	-0.01
1039	-0.01
1039	-0.01
1039	-0.009
1040	-0.009
1040	-0.009
1041	-0.009
1041	-0.009
1041	-0.01
1042	-0.01
1042	-0.011
1043	-0.012
1043	-0.013
1044	-0.013
1044	-0.014
1044	-0.014
1045	-0.015
1045	-0.015
1046	-0.015
1046	-0.015
1046	-0.015
1047	-0.014
1047	-0.013
1048	-0.012
1048	-0.011
1049	-0.011
1049	-0.011
1049	-0.011
1050	-0.01
1050	-0.01
1051	-0.01
1051	-0.01
1051	-0.01
1052	-0.01
1052	-0.01
1053	-0.01
1053	-0.01
1053	-0.01
1054	-0.01
1054	-0.01
1055	-0.009
1055	-0.01
1056	-0.01
1056	-0.011
1056	-0.011
1057	-0.012
1057	-0.012
1058	-0.013
1058	-0.013
1058	-0.014
1059	-0.015
1059	-0.016
1060	-0.016
1060	-0.016
1061	-0.016
1061	-0.016
1061	-0.016
1062	-0.016
1062	-0.016
1063	-0.016
1063	-0.016
1063	-0.016
1064	-0.016
1064	-0.015
1065	-0.015
1065	-0.016
1066	-0.015
1066	-0.015
1066	-0.015
1067	-0.015
1067	-0.015
1068	-0.016
1068	-0.016
1068	-0.017
1069	-0.018
1069	-0.018
1070	-0.019
1070	-0.02
1071	-0.02
1071	-0.02
1071	-0.021
1072	-0.021
1072	-0.021
1073	-0.021
1073	-0.021
1073	-0.02
1074	-0.02
1074	-0.02
1075	-0.02
1075	-0.02
1076	-0.021
1076	-0.02
1076	-0.021
1077	-0.021
1077	-0.021
1078	-0.021
1078	-0.02
1078	-0.019
1079	-0.018
1079	-0.017
1080	-0.016
1080	-0.014
1080	-0.013
1081	-0.012
1081	-0.011
1082	-0.01
1082	-0.009
1083	-0.008
1083	-0.007
1083	-0.006
1084	-0.005
1084	-0.004
1085	-0.003
1085	-0.002
1085	-0
1086	0.001
1086	0.001
1087	0.002
1087	0.003
1088	0.003
1088	0.004
1088	0.005
1089	0.005
1089	0.005
1090	0.005
1090	0.006
1090	0.007
1091	0.007
1091	0.008
1092	0.009
1092	0.011
1092	0.013
1093	0.015
1093	0.018
1094	0.02
1094	0.023
1095	0.025
1095	0.027
1095	0.031
1096	0.034
1096	0.037
1097	0.039
1097	0.041
1097	0.044
1098	0.045
1098	0.048
1099	0.05
1099	0.054
1100	0.057
1100	0.06
1100	0.063
1101	0.066
1101	0.071
1102	0.076
1102	0.082
1102	0.089
1103	0.095
1103	0.102
1104	0.109
1104	0.118
1104	0.128
1105	0.139
1105	0.148
1106	0.157
1106	0.169
1107	0.181
1107	0.199
1107	0.22
1108	0.291
1108	0.394
1109	0.57
1109	1.029
1109	-0
1110	-0
1110	-0
1111	-0
1111	-0
