Data from 15c-2a_Absorbance__14__00014.txt Node

Date: Wed Jan 17 09:40:53 CET 2024
User: Marek
Spectrometer: MAYP115816
Trigger mode: 0
Integration Time (sec): 2.000000E-1
Scans to average: 10
Electric dark correction enabled: true
Nonlinearity correction enabled: true
Boxcar width: 5
XAxis mode: Wavelengths
Number of Pixels in Spectrum: 2068
>>>>>Begin Spectral Data<<<<<
199	-1.931
199	-1.782
200	-1.616
200	-1.489
201	-1.409
201	-1.358
202	-1.281
202	-1.222
203	-1.168
203	-1.122
204	-1.095
204	-1.071
205	-1.047
205	-1.037
205	-1.034
206	-1.032
206	-1.027
207	-1.025
207	-1.02
208	-1.018
208	-1.016
209	-1.012
209	-1.008
210	-1.007
210	-1.007
211	-1.005
211	-1.004
212	-1.004
212	-1.002
213	-1.001
213	-1
213	-0.998
214	-0.997
214	-0.997
215	-0.995
215	-0.993
216	-0.992
216	-0.989
217	-0.985
217	-0.982
218	-0.981
218	-0.978
219	-0.976
219	-0.974
220	-0.97
220	-0.965
221	-0.96
221	-0.956
221	-0.952
222	-0.948
222	-0.943
223	-0.937
223	-0.932
224	-0.926
224	-0.919
225	-0.912
225	-0.904
226	-0.895
226	-0.884
227	-0.871
227	-0.857
228	-0.841
228	-0.823
229	-0.802
229	-0.778
229	-0.752
230	-0.723
230	-0.693
231	-0.659
231	-0.624
232	-0.587
232	-0.548
233	-0.507
233	-0.464
234	-0.422
234	-0.38
235	-0.339
235	-0.299
236	-0.26
236	-0.223
236	-0.188
237	-0.154
237	-0.124
238	-0.095
238	-0.069
239	-0.045
239	-0.023
240	-0.002
240	0.017
241	0.034
241	0.049
242	0.063
242	0.076
243	0.088
243	0.099
243	0.109
244	0.118
244	0.126
245	0.133
245	0.14
246	0.147
246	0.152
247	0.158
247	0.163
248	0.167
248	0.172
249	0.176
249	0.18
250	0.183
250	0.187
250	0.19
251	0.193
251	0.196
252	0.198
252	0.201
253	0.204
253	0.206
254	0.208
254	0.21
255	0.212
255	0.213
256	0.215
256	0.216
257	0.217
257	0.218
258	0.219
258	0.22
258	0.22
259	0.221
259	0.221
260	0.222
260	0.222
261	0.222
261	0.222
262	0.222
262	0.222
263	0.222
263	0.222
264	0.222
264	0.221
265	0.221
265	0.22
265	0.22
266	0.219
266	0.218
267	0.218
267	0.217
268	0.216
268	0.215
269	0.214
269	0.213
270	0.212
270	0.21
271	0.209
271	0.208
272	0.207
272	0.205
272	0.204
273	0.203
273	0.201
274	0.2
274	0.199
275	0.197
275	0.196
276	0.195
276	0.193
277	0.192
277	0.19
278	0.189
278	0.187
278	0.185
279	0.184
279	0.183
280	0.181
280	0.18
281	0.179
281	0.178
282	0.177
282	0.176
283	0.175
283	0.174
284	0.173
284	0.172
285	0.171
285	0.17
285	0.169
286	0.169
286	0.168
287	0.167
287	0.166
288	0.165
288	0.164
289	0.163
289	0.162
290	0.161
290	0.16
291	0.16
291	0.159
292	0.158
292	0.157
292	0.157
293	0.156
293	0.156
294	0.155
294	0.155
295	0.154
295	0.154
296	0.154
296	0.153
297	0.153
297	0.153
298	0.153
298	0.152
298	0.152
299	0.152
299	0.152
300	0.151
300	0.151
301	0.151
301	0.151
302	0.151
302	0.15
303	0.15
303	0.15
304	0.15
304	0.15
305	0.149
305	0.149
305	0.149
306	0.149
306	0.149
307	0.148
307	0.148
308	0.148
308	0.148
309	0.148
309	0.148
310	0.147
310	0.147
311	0.147
311	0.146
311	0.146
312	0.146
312	0.146
313	0.145
313	0.145
314	0.145
314	0.145
315	0.144
315	0.144
316	0.144
316	0.143
317	0.143
317	0.143
318	0.142
318	0.142
318	0.141
319	0.141
319	0.141
320	0.141
320	0.14
321	0.14
321	0.139
322	0.139
322	0.139
323	0.138
323	0.138
324	0.137
324	0.137
324	0.137
325	0.136
325	0.136
326	0.136
326	0.135
327	0.135
327	0.135
328	0.134
328	0.134
329	0.134
329	0.133
330	0.133
330	0.133
330	0.132
331	0.132
331	0.132
332	0.131
332	0.131
333	0.13
333	0.13
334	0.129
334	0.129
335	0.129
335	0.128
336	0.128
336	0.127
336	0.127
337	0.127
337	0.126
338	0.126
338	0.126
339	0.125
339	0.125
340	0.125
340	0.125
341	0.124
341	0.124
342	0.124
342	0.123
342	0.123
343	0.123
343	0.123
344	0.122
344	0.122
345	0.122
345	0.121
346	0.121
346	0.121
347	0.12
347	0.12
348	0.119
348	0.119
348	0.118
349	0.118
349	0.117
350	0.117
350	0.117
351	0.116
351	0.116
352	0.115
352	0.115
353	0.115
353	0.114
354	0.114
354	0.113
354	0.113
355	0.113
355	0.112
356	0.112
356	0.111
357	0.111
357	0.111
358	0.11
358	0.111
359	0.111
359	0.111
360	0.111
360	0.112
360	0.112
361	0.112
361	0.112
362	0.113
362	0.113
363	0.113
363	0.112
364	0.112
364	0.112
365	0.112
365	0.112
366	0.111
366	0.111
366	0.111
367	0.111
367	0.111
368	0.111
368	0.111
369	0.111
369	0.11
370	0.11
370	0.11
371	0.11
371	0.11
372	0.109
372	0.109
372	0.109
373	0.109
373	0.108
374	0.108
374	0.108
375	0.108
375	0.108
376	0.108
376	0.108
377	0.108
377	0.109
378	0.109
378	0.109
378	0.109
379	0.11
379	0.11
380	0.11
380	0.11
381	0.11
381	0.11
382	0.11
382	0.109
383	0.109
383	0.109
383	0.108
384	0.108
384	0.108
385	0.108
385	0.108
386	0.108
386	0.108
387	0.108
387	0.108
388	0.108
388	0.108
389	0.108
389	0.108
389	0.108
390	0.108
390	0.108
391	0.109
391	0.109
392	0.109
392	0.109
393	0.109
393	0.109
394	0.109
394	0.108
394	0.108
395	0.108
395	0.108
396	0.108
396	0.108
397	0.108
397	0.108
398	0.109
398	0.109
399	0.109
399	0.109
400	0.109
400	0.108
400	0.108
401	0.108
401	0.107
402	0.107
402	0.106
403	0.106
403	0.106
404	0.106
404	0.106
405	0.105
405	0.105
405	0.105
406	0.105
406	0.105
407	0.105
407	0.105
408	0.104
408	0.104
409	0.104
409	0.103
410	0.103
410	0.103
411	0.104
411	0.104
411	0.104
412	0.103
412	0.103
413	0.103
413	0.103
414	0.103
414	0.103
415	0.102
415	0.102
416	0.102
416	0.101
416	0.101
417	0.101
417	0.1
418	0.1
418	0.101
419	0.101
419	0.101
420	0.102
420	0.102
421	0.102
421	0.103
421	0.103
422	0.103
422	0.104
423	0.104
423	0.104
424	0.104
424	0.103
425	0.103
425	0.102
426	0.102
426	0.102
427	0.101
427	0.101
427	0.101
428	0.101
428	0.102
429	0.102
429	0.102
430	0.102
430	0.102
431	0.102
431	0.102
432	0.102
432	0.102
432	0.101
433	0.101
433	0.1
434	0.099
434	0.099
435	0.099
435	0.099
436	0.099
436	0.099
437	0.099
437	0.1
437	0.1
438	0.1
438	0.1
439	0.099
439	0.099
440	0.099
440	0.099
441	0.098
441	0.098
442	0.098
442	0.098
442	0.098
443	0.098
443	0.098
444	0.098
444	0.098
445	0.098
445	0.098
446	0.098
446	0.098
447	0.098
447	0.098
447	0.098
448	0.098
448	0.098
449	0.098
449	0.097
450	0.097
450	0.097
451	0.097
451	0.096
452	0.096
452	0.096
452	0.095
453	0.095
453	0.095
454	0.095
454	0.094
455	0.094
455	0.094
456	0.094
456	0.094
457	0.094
457	0.094
458	0.093
458	0.093
458	0.093
459	0.093
459	0.093
460	0.093
460	0.092
461	0.092
461	0.091
462	0.091
462	0.091
463	0.091
463	0.092
463	0.092
464	0.092
464	0.092
465	0.092
465	0.092
466	0.092
466	0.092
467	0.092
467	0.092
467	0.092
468	0.091
468	0.09
469	0.089
469	0.088
470	0.087
470	0.087
471	0.086
471	0.086
472	0.086
472	0.086
472	0.086
473	0.087
473	0.087
474	0.088
474	0.088
475	0.089
475	0.089
476	0.089
476	0.089
477	0.089
477	0.089
477	0.089
478	0.088
478	0.088
479	0.088
479	0.088
480	0.088
480	0.088
481	0.089
481	0.089
482	0.089
482	0.09
482	0.091
483	0.092
483	0.093
484	0.094
484	0.096
485	0.096
485	0.097
486	0.098
486	0.098
487	0.098
487	0.099
487	0.099
488	0.098
488	0.098
489	0.097
489	0.096
490	0.095
490	0.095
491	0.094
491	0.094
492	0.094
492	0.094
492	0.094
493	0.094
493	0.094
494	0.094
494	0.095
495	0.096
495	0.097
496	0.097
496	0.097
496	0.098
497	0.098
497	0.099
498	0.1
498	0.1
499	0.1
499	0.101
500	0.101
500	0.101
501	0.101
501	0.102
501	0.103
502	0.103
502	0.104
503	0.104
503	0.105
504	0.105
504	0.106
505	0.106
505	0.106
506	0.106
506	0.106
506	0.106
507	0.106
507	0.106
508	0.106
508	0.106
509	0.107
509	0.107
510	0.107
510	0.108
511	0.108
511	0.108
511	0.108
512	0.108
512	0.108
513	0.107
513	0.107
514	0.106
514	0.106
515	0.106
515	0.106
515	0.105
516	0.105
516	0.104
517	0.104
517	0.104
518	0.105
518	0.105
519	0.105
519	0.104
520	0.104
520	0.103
520	0.102
521	0.102
521	0.101
522	0.099
522	0.097
523	0.096
523	0.094
524	0.094
524	0.093
524	0.092
525	0.092
525	0.092
526	0.093
526	0.094
527	0.096
527	0.098
528	0.099
528	0.101
529	0.102
529	0.103
529	0.104
530	0.105
530	0.105
531	0.106
531	0.106
532	0.107
532	0.107
533	0.107
533	0.107
533	0.108
534	0.108
534	0.107
535	0.107
535	0.107
536	0.107
536	0.107
537	0.107
537	0.106
538	0.106
538	0.106
538	0.106
539	0.106
539	0.106
540	0.106
540	0.105
541	0.105
541	0.105
542	0.104
542	0.104
542	0.103
543	0.103
543	0.103
544	0.102
544	0.102
545	0.102
545	0.102
546	0.103
546	0.103
547	0.103
547	0.102
547	0.101
548	0.101
548	0.1
549	0.1
549	0.099
550	0.098
550	0.098
551	0.097
551	0.096
551	0.096
552	0.096
552	0.096
553	0.096
553	0.096
554	0.097
554	0.097
555	0.096
555	0.096
556	0.095
556	0.094
556	0.093
557	0.092
557	0.091
558	0.09
558	0.089
559	0.088
559	0.088
560	0.088
560	0.088
560	0.089
561	0.089
561	0.09
562	0.09
562	0.09
563	0.09
563	0.09
564	0.09
564	0.089
564	0.088
565	0.088
565	0.087
566	0.087
566	0.086
567	0.086
567	0.087
568	0.088
568	0.089
568	0.09
569	0.092
569	0.093
570	0.095
570	0.096
571	0.097
571	0.098
572	0.099
572	0.099
573	0.099
573	0.1
573	0.1
574	0.1
574	0.1
575	0.1
575	0.101
576	0.102
576	0.102
577	0.103
577	0.103
577	0.103
578	0.103
578	0.103
579	0.103
579	0.103
580	0.104
580	0.104
581	0.103
581	0.101
581	0.1
582	0.1
582	0.099
583	0.099
583	0.1
584	0.099
584	0.098
585	0.096
585	0.095
585	0.095
586	0.095
586	0.095
587	0.095
587	0.094
588	0.092
588	0.091
589	0.09
589	0.089
590	0.089
590	0.089
590	0.089
591	0.089
591	0.089
592	0.089
592	0.089
593	0.089
593	0.089
594	0.089
594	0.088
594	0.088
595	0.087
595	0.087
596	0.086
596	0.086
597	0.086
597	0.087
598	0.088
598	0.089
598	0.089
599	0.09
599	0.09
600	0.09
600	0.09
601	0.089
601	0.088
602	0.088
602	0.088
602	0.087
603	0.086
603	0.087
604	0.087
604	0.088
605	0.09
605	0.091
606	0.092
606	0.092
606	0.092
607	0.091
607	0.091
608	0.09
608	0.089
609	0.088
609	0.087
610	0.086
610	0.085
610	0.084
611	0.084
611	0.084
612	0.085
612	0.087
613	0.088
613	0.089
614	0.089
614	0.088
614	0.088
615	0.087
615	0.087
616	0.086
616	0.085
617	0.084
617	0.083
618	0.082
618	0.081
618	0.08
619	0.08
619	0.08
620	0.081
620	0.082
621	0.082
621	0.082
622	0.082
622	0.082
622	0.082
623	0.082
623	0.082
624	0.081
624	0.081
625	0.08
625	0.08
626	0.08
626	0.08
626	0.08
627	0.081
627	0.081
628	0.081
628	0.082
629	0.082
629	0.082
630	0.082
630	0.082
630	0.081
631	0.081
631	0.081
632	0.081
632	0.08
633	0.08
633	0.081
634	0.081
634	0.082
634	0.083
635	0.084
635	0.085
636	0.085
636	0.086
637	0.086
637	0.086
638	0.086
638	0.087
638	0.087
639	0.087
639	0.087
640	0.087
640	0.087
641	0.087
641	0.088
642	0.088
642	0.089
642	0.09
643	0.09
643	0.091
644	0.092
644	0.093
645	0.093
645	0.094
646	0.095
646	0.096
646	0.098
647	0.1
647	0.102
648	0.104
648	0.106
649	0.107
649	0.109
650	0.111
650	0.112
650	0.114
651	0.115
651	0.117
652	0.118
652	0.119
653	0.12
653	0.123
653	0.123
654	0.1
654	0.082
655	0.087
655	0.089
656	0.09
656	0.091
657	0.092
657	0.093
657	0.093
658	0.092
658	0.09
659	0.112
659	0.142
660	0.141
660	0.141
661	0.142
661	0.143
661	0.145
662	0.147
662	0.15
663	0.153
663	0.155
664	0.157
664	0.159
665	0.161
665	0.162
665	0.163
666	0.164
666	0.165
667	0.165
667	0.166
668	0.167
668	0.168
669	0.17
669	0.171
669	0.174
670	0.177
670	0.179
671	0.18
671	0.182
672	0.184
672	0.185
672	0.186
673	0.187
673	0.188
674	0.189
674	0.189
675	0.189
675	0.189
676	0.19
676	0.191
676	0.192
677	0.193
677	0.194
678	0.195
678	0.196
679	0.197
679	0.198
680	0.199
680	0.2
680	0.201
681	0.201
681	0.202
682	0.202
682	0.203
683	0.204
683	0.206
684	0.207
684	0.208
684	0.209
685	0.21
685	0.211
686	0.212
686	0.213
687	0.213
687	0.213
687	0.213
688	0.213
688	0.213
689	0.213
689	0.213
690	0.213
690	0.213
691	0.212
691	0.212
691	0.212
692	0.211
692	0.211
693	0.21
693	0.21
694	0.209
694	0.208
695	0.208
695	0.209
695	0.21
696	0.21
696	0.21
697	0.209
697	0.209
698	0.209
698	0.208
698	0.207
699	0.207
699	0.206
700	0.204
700	0.203
701	0.202
701	0.201
702	0.201
702	0.2
702	0.199
703	0.198
703	0.197
704	0.196
704	0.196
705	0.195
705	0.195
705	0.194
706	0.193
706	0.193
707	0.192
707	0.191
708	0.19
708	0.189
709	0.189
709	0.188
709	0.187
710	0.185
710	0.184
711	0.183
711	0.182
712	0.18
712	0.179
713	0.178
713	0.177
713	0.176
714	0.174
714	0.172
715	0.171
715	0.17
716	0.168
716	0.167
716	0.166
717	0.165
717	0.165
718	0.164
718	0.162
719	0.162
719	0.161
720	0.16
720	0.159
720	0.158
721	0.157
721	0.155
722	0.154
722	0.152
723	0.151
723	0.149
723	0.148
724	0.147
724	0.146
725	0.144
725	0.143
726	0.142
726	0.141
727	0.14
727	0.139
727	0.138
728	0.137
728	0.136
729	0.136
729	0.135
730	0.134
730	0.134
730	0.133
731	0.132
731	0.131
732	0.13
732	0.129
733	0.128
733	0.126
734	0.124
734	0.122
734	0.121
735	0.119
735	0.118
736	0.116
736	0.114
737	0.113
737	0.113
737	0.112
738	0.111
738	0.11
739	0.109
739	0.107
740	0.106
740	0.104
741	0.103
741	0.101
741	0.099
742	0.096
742	0.094
743	0.092
743	0.09
744	0.089
744	0.088
744	0.087
745	0.086
745	0.084
746	0.084
746	0.083
747	0.083
747	0.084
748	0.084
748	0.084
748	0.084
749	0.084
749	0.085
750	0.085
750	0.085
751	0.085
751	0.084
751	0.085
752	0.084
752	0.083
753	0.083
753	0.082
754	0.081
754	0.081
754	0.08
755	0.08
755	0.08
756	0.08
756	0.079
757	0.078
757	0.077
758	0.076
758	0.075
758	0.074
759	0.073
759	0.071
760	0.069
760	0.066
761	0.063
761	0.061
761	0.059
762	0.057
762	0.056
763	0.056
763	0.054
764	0.052
764	0.051
764	0.049
765	0.047
765	0.046
766	0.045
766	0.044
767	0.044
767	0.043
768	0.04
768	0.038
768	0.037
769	0.036
769	0.035
770	0.034
770	0.033
771	0.03
771	0.027
771	0.023
772	0.019
772	0.016
773	0.012
773	0.008
774	0.004
774	-0.001
775	-0.006
775	-0.01
775	-0.015
776	-0.021
776	-0.026
777	-0.031
777	-0.035
778	-0.04
778	-0.045
778	-0.05
779	-0.054
779	-0.058
780	-0.063
780	-0.07
781	-0.077
781	-0.085
781	-0.095
782	-0.104
782	-0.115
783	-0.124
783	-0.132
784	-0.139
784	-0.145
784	-0.151
785	-0.156
785	-0.16
786	-0.161
786	-0.159
787	-0.153
787	-0.149
788	-0.148
788	-0.149
788	-0.15
789	-0.152
789	-0.151
790	-0.148
790	-0.147
791	-0.148
791	-0.149
791	-0.152
792	-0.147
792	-0.136
793	-0.13
793	-0.126
794	-0.124
794	-0.127
794	-0.131
795	-0.133
795	-0.133
796	-0.134
796	-0.137
797	-0.146
797	-0.157
797	-0.163
798	-0.169
798	-0.171
799	-0.172
799	-0.171
800	-0.17
800	-0.172
801	-0.175
801	-0.175
801	-0.176
802	-0.177
802	-0.179
803	-0.179
803	-0.18
804	-0.179
804	-0.174
804	-0.167
805	-0.163
805	-0.161
806	-0.159
806	-0.158
807	-0.157
807	-0.156
807	-0.156
808	-0.156
808	-0.157
809	-0.162
809	-0.168
810	-0.172
810	-0.175
810	-0.179
811	-0.182
811	-0.182
812	-0.178
812	-0.175
813	-0.175
813	-0.176
813	-0.176
814	-0.177
814	-0.176
815	-0.173
815	-0.169
816	-0.166
816	-0.166
817	-0.17
817	-0.171
817	-0.169
818	-0.164
818	-0.158
819	-0.15
819	-0.144
820	-0.139
820	-0.133
820	-0.126
821	-0.116
821	-0.105
822	-0.095
822	-0.085
823	-0.077
823	-0.069
823	-0.063
824	-0.055
824	-0.047
825	-0.039
825	-0.031
826	-0.024
826	-0.018
826	-0.013
827	-0.008
827	-0.003
828	0.002
828	0.006
829	0.009
829	0.012
829	0.014
830	0.016
830	0.018
831	0.021
831	0.023
832	0.026
832	0.028
832	0.03
833	0.032
833	0.034
834	0.035
834	0.037
835	0.039
835	0.04
835	0.041
836	0.042
836	0.043
837	0.043
837	0.044
838	0.043
838	0.043
839	0.044
839	0.044
839	0.043
840	0.043
840	0.042
841	0.042
841	0.042
842	0.042
842	0.042
842	0.043
843	0.043
843	0.043
844	0.044
844	0.045
845	0.047
845	0.048
845	0.05
846	0.051
846	0.052
847	0.053
847	0.054
848	0.055
848	0.055
848	0.055
849	0.055
849	0.055
850	0.055
850	0.055
851	0.055
851	0.055
851	0.055
852	0.056
852	0.056
853	0.057
853	0.058
854	0.059
854	0.059
854	0.06
855	0.06
855	0.06
856	0.06
856	0.06
857	0.06
857	0.06
857	0.06
858	0.059
858	0.059
859	0.059
859	0.058
860	0.058
860	0.058
860	0.057
861	0.057
861	0.057
862	0.057
862	0.057
863	0.057
863	0.057
863	0.058
864	0.058
864	0.058
865	0.059
865	0.059
866	0.06
866	0.06
866	0.061
867	0.061
867	0.062
868	0.063
868	0.064
869	0.064
869	0.065
869	0.066
870	0.066
870	0.067
871	0.067
871	0.067
872	0.068
872	0.067
872	0.067
873	0.067
873	0.067
874	0.066
874	0.066
875	0.066
875	0.066
875	0.066
876	0.066
876	0.065
877	0.066
877	0.066
878	0.066
878	0.067
878	0.067
879	0.068
879	0.068
880	0.068
880	0.068
881	0.068
881	0.068
881	0.067
882	0.067
882	0.066
883	0.065
883	0.064
884	0.064
884	0.063
884	0.063
885	0.063
885	0.063
886	0.064
886	0.064
887	0.065
887	0.065
887	0.066
888	0.067
888	0.067
889	0.067
889	0.067
890	0.067
890	0.067
890	0.066
891	0.066
891	0.065
892	0.064
892	0.063
893	0.063
893	0.062
893	0.062
894	0.062
894	0.062
895	0.062
895	0.062
895	0.063
896	0.063
896	0.063
897	0.063
897	0.063
898	0.064
898	0.063
898	0.063
899	0.063
899	0.063
900	0.063
900	0.063
901	0.064
901	0.064
901	0.064
902	0.065
902	0.065
903	0.065
903	0.065
904	0.065
904	0.065
904	0.065
905	0.065
905	0.065
906	0.064
906	0.064
907	0.064
907	0.064
907	0.064
908	0.064
908	0.064
909	0.064
909	0.064
910	0.064
910	0.064
910	0.064
911	0.065
911	0.065
912	0.066
912	0.066
913	0.066
913	0.067
913	0.067
914	0.067
914	0.067
915	0.067
915	0.067
916	0.067
916	0.067
916	0.067
917	0.067
917	0.066
918	0.066
918	0.066
918	0.065
919	0.065
919	0.064
920	0.064
920	0.063
921	0.063
921	0.062
921	0.062
922	0.062
922	0.062
923	0.062
923	0.062
924	0.063
924	0.064
924	0.064
925	0.064
925	0.065
926	0.065
926	0.065
927	0.065
927	0.065
927	0.064
928	0.064
928	0.063
929	0.062
929	0.062
930	0.061
930	0.061
930	0.061
931	0.06
931	0.06
932	0.06
932	0.06
933	0.06
933	0.06
933	0.06
934	0.061
934	0.062
935	0.062
935	0.063
935	0.063
936	0.064
936	0.064
937	0.064
937	0.065
938	0.065
938	0.065
938	0.064
939	0.064
939	0.064
940	0.064
940	0.065
941	0.065
941	0.065
941	0.066
942	0.066
942	0.066
943	0.067
943	0.067
944	0.067
944	0.067
944	0.067
945	0.068
945	0.068
946	0.068
946	0.068
946	0.068
947	0.067
947	0.067
948	0.067
948	0.067
949	0.067
949	0.067
949	0.066
950	0.066
950	0.066
951	0.066
951	0.066
952	0.066
952	0.067
952	0.067
953	0.067
953	0.067
954	0.067
954	0.067
955	0.067
955	0.067
955	0.067
956	0.067
956	0.067
957	0.067
957	0.067
957	0.067
958	0.067
958	0.067
959	0.066
959	0.066
960	0.066
960	0.066
960	0.065
961	0.064
961	0.064
962	0.063
962	0.062
963	0.062
963	0.061
963	0.061
964	0.061
964	0.061
965	0.061
965	0.061
966	0.061
966	0.061
966	0.061
967	0.061
967	0.061
968	0.061
968	0.061
968	0.061
969	0.061
969	0.061
970	0.061
970	0.061
971	0.061
971	0.061
971	0.061
972	0.061
972	0.061
973	0.062
973	0.062
974	0.062
974	0.062
974	0.062
975	0.063
975	0.063
976	0.063
976	0.063
976	0.063
977	0.062
977	0.062
978	0.062
978	0.062
979	0.062
979	0.062
979	0.062
980	0.062
980	0.062
981	0.062
981	0.062
982	0.062
982	0.061
982	0.061
983	0.061
983	0.06
984	0.06
984	0.06
984	0.059
985	0.059
985	0.059
986	0.059
986	0.058
987	0.058
987	0.058
987	0.058
988	0.058
988	0.058
989	0.058
989	0.058
990	0.058
990	0.059
990	0.059
991	0.059
991	0.06
992	0.06
992	0.061
992	0.061
993	0.062
993	0.063
994	0.063
994	0.063
995	0.064
995	0.064
995	0.064
996	0.065
996	0.065
997	0.065
997	0.065
997	0.065
998	0.065
998	0.065
999	0.065
999	0.065
1000	0.065
1000	0.065
1000	0.065
1001	0.065
1001	0.065
1002	0.065
1002	0.065
1003	0.066
1003	0.065
1003	0.065
1004	0.065
1004	0.065
1005	0.065
1005	0.064
1005	0.064
1006	0.063
1006	0.063
1007	0.063
1007	0.063
1008	0.062
1008	0.062
1008	0.062
1009	0.062
1009	0.062
1010	0.062
1010	0.062
1010	0.062
1011	0.062
1011	0.061
1012	0.061
1012	0.061
1013	0.061
1013	0.062
1013	0.061
1014	0.061
1014	0.061
1015	0.062
1015	0.062
1016	0.062
1016	0.062
1016	0.063
1017	0.063
1017	0.064
1018	0.064
1018	0.064
1018	0.065
1019	0.065
1019	0.065
1020	0.065
1020	0.065
1021	0.065
1021	0.065
1021	0.066
1022	0.066
1022	0.066
1023	0.066
1023	0.066
1023	0.066
1024	0.066
1024	0.066
1025	0.066
1025	0.066
1026	0.066
1026	0.065
1026	0.065
1027	0.065
1027	0.065
1028	0.065
1028	0.065
1028	0.065
1029	0.065
1029	0.065
1030	0.066
1030	0.066
1031	0.067
1031	0.067
1031	0.067
1032	0.067
1032	0.068
1033	0.068
1033	0.067
1033	0.067
1034	0.067
1034	0.067
1035	0.067
1035	0.067
1036	0.067
1036	0.067
1036	0.067
1037	0.067
1037	0.067
1038	0.067
1038	0.068
1039	0.068
1039	0.068
1039	0.069
1040	0.069
1040	0.069
1041	0.069
1041	0.069
1041	0.069
1042	0.069
1042	0.069
1043	0.069
1043	0.069
1044	0.069
1044	0.069
1044	0.07
1045	0.07
1045	0.071
1046	0.071
1046	0.072
1046	0.072
1047	0.073
1047	0.073
1048	0.074
1048	0.074
1049	0.074
1049	0.074
1049	0.074
1050	0.074
1050	0.074
1051	0.074
1051	0.075
1051	0.075
1052	0.075
1052	0.075
1053	0.075
1053	0.075
1053	0.075
1054	0.075
1054	0.076
1055	0.076
1055	0.076
1056	0.077
1056	0.077
1056	0.078
1057	0.079
1057	0.08
1058	0.081
1058	0.082
1058	0.083
1059	0.083
1059	0.084
1060	0.085
1060	0.086
1061	0.087
1061	0.088
1061	0.089
1062	0.09
1062	0.09
1063	0.091
1063	0.092
1063	0.093
1064	0.094
1064	0.094
1065	0.095
1065	0.096
1066	0.097
1066	0.098
1066	0.099
1067	0.099
1067	0.1
1068	0.1
1068	0.101
1068	0.102
1069	0.102
1069	0.102
1070	0.103
1070	0.103
1071	0.104
1071	0.105
1071	0.105
1072	0.106
1072	0.107
1073	0.108
1073	0.109
1073	0.109
1074	0.11
1074	0.111
1075	0.112
1075	0.113
1076	0.114
1076	0.116
1076	0.117
1077	0.118
1077	0.12
1078	0.121
1078	0.123
1078	0.125
1079	0.127
1079	0.129
1080	0.131
1080	0.132
1080	0.134
1081	0.136
1081	0.137
1082	0.139
1082	0.141
1083	0.144
1083	0.146
1083	0.148
1084	0.151
1084	0.154
1085	0.157
1085	0.161
1085	0.164
1086	0.168
1086	0.171
1087	0.174
1087	0.177
1088	0.18
1088	0.183
1088	0.187
1089	0.191
1089	0.195
1090	0.199
1090	0.204
1090	0.21
1091	0.215
1091	0.221
1092	0.227
1092	0.234
1092	0.242
1093	0.25
1093	0.257
1094	0.267
1094	0.276
1095	0.286
1095	0.296
1095	0.309
1096	0.321
1096	0.335
1097	0.35
1097	0.365
1097	0.383
1098	0.402
1098	0.422
1099	0.446
1099	0.473
1100	0.501
1100	0.533
1100	0.572
1101	0.617
1101	0.673
1102	0.739
1102	0.823
1102	0.928
1103	1.074
1103	1.326
1104	2.115
1104	-0
1104	-0
1105	-0
1105	-0
1106	-0
1106	-0
1107	-0
1107	-0
1107	-0
1108	-0
1108	-0
1109	-0
1109	-0
1109	-0
1110	-0
1110	-0
1111	-0
1111	-0
