Data from 15c-2a_Absorbance__113__00113.txt Node

Date: Wed Jan 17 09:44:11 CET 2024
User: Marek
Spectrometer: MAYP115816
Trigger mode: 0
Integration Time (sec): 2.000000E-1
Scans to average: 10
Electric dark correction enabled: true
Nonlinearity correction enabled: true
Boxcar width: 5
XAxis mode: Wavelengths
Number of Pixels in Spectrum: 2068
>>>>>Begin Spectral Data<<<<<
199	-1.632
199	-1.486
200	-1.323
200	-1.196
201	-1.118
201	-1.069
202	-0.995
202	-0.939
203	-0.889
203	-0.846
204	-0.821
204	-0.798
205	-0.776
205	-0.766
205	-0.765
206	-0.763
206	-0.758
207	-0.756
207	-0.752
208	-0.749
208	-0.748
209	-0.743
209	-0.74
210	-0.739
210	-0.739
211	-0.737
211	-0.735
212	-0.735
212	-0.735
213	-0.733
213	-0.732
213	-0.731
214	-0.73
214	-0.729
215	-0.728
215	-0.726
216	-0.725
216	-0.723
217	-0.719
217	-0.716
218	-0.716
218	-0.713
219	-0.71
219	-0.709
220	-0.705
220	-0.701
221	-0.696
221	-0.692
221	-0.688
222	-0.684
222	-0.679
223	-0.672
223	-0.668
224	-0.662
224	-0.655
225	-0.647
225	-0.64
226	-0.631
226	-0.619
227	-0.607
227	-0.594
228	-0.579
228	-0.561
229	-0.541
229	-0.518
229	-0.493
230	-0.465
230	-0.436
231	-0.404
231	-0.371
232	-0.337
232	-0.3
233	-0.26
233	-0.221
234	-0.181
234	-0.143
235	-0.107
235	-0.071
236	-0.037
236	-0.004
236	0.027
237	0.057
237	0.083
238	0.106
238	0.128
239	0.148
239	0.167
240	0.184
240	0.199
241	0.213
241	0.225
242	0.236
242	0.246
243	0.256
243	0.264
243	0.272
244	0.28
244	0.286
245	0.292
245	0.298
246	0.303
246	0.307
247	0.312
247	0.316
248	0.319
248	0.323
249	0.326
249	0.329
250	0.332
250	0.335
250	0.337
251	0.339
251	0.342
252	0.344
252	0.346
253	0.348
253	0.349
254	0.351
254	0.352
255	0.354
255	0.355
256	0.356
256	0.357
257	0.358
257	0.359
258	0.359
258	0.36
258	0.36
259	0.36
259	0.36
260	0.36
260	0.36
261	0.36
261	0.359
262	0.359
262	0.358
263	0.358
263	0.357
264	0.357
264	0.356
265	0.355
265	0.354
265	0.353
266	0.352
266	0.351
267	0.349
267	0.348
268	0.347
268	0.345
269	0.344
269	0.342
270	0.34
270	0.339
271	0.337
271	0.335
272	0.333
272	0.332
272	0.33
273	0.328
273	0.325
274	0.323
274	0.321
275	0.319
275	0.317
276	0.315
276	0.313
277	0.311
277	0.308
278	0.306
278	0.304
278	0.302
279	0.3
279	0.298
280	0.296
280	0.294
281	0.292
281	0.29
282	0.288
282	0.286
283	0.284
283	0.283
284	0.281
284	0.279
285	0.278
285	0.276
285	0.274
286	0.273
286	0.271
287	0.269
287	0.268
288	0.266
288	0.265
289	0.263
289	0.262
290	0.26
290	0.259
291	0.258
291	0.257
292	0.255
292	0.254
292	0.253
293	0.252
293	0.251
294	0.25
294	0.249
295	0.247
295	0.247
296	0.246
296	0.245
297	0.244
297	0.243
298	0.243
298	0.242
298	0.241
299	0.24
299	0.24
300	0.239
300	0.238
301	0.238
301	0.237
302	0.237
302	0.236
303	0.235
303	0.235
304	0.234
304	0.234
305	0.233
305	0.232
305	0.231
306	0.231
306	0.23
307	0.23
307	0.229
308	0.228
308	0.228
309	0.227
309	0.227
310	0.226
310	0.226
311	0.225
311	0.225
311	0.224
312	0.223
312	0.223
313	0.222
313	0.222
314	0.221
314	0.22
315	0.22
315	0.219
316	0.219
316	0.218
317	0.217
317	0.217
318	0.216
318	0.215
318	0.215
319	0.214
319	0.213
320	0.213
320	0.212
321	0.211
321	0.211
322	0.21
322	0.209
323	0.209
323	0.208
324	0.207
324	0.207
324	0.206
325	0.206
325	0.205
326	0.205
326	0.204
327	0.203
327	0.203
328	0.202
328	0.202
329	0.201
329	0.2
330	0.2
330	0.199
330	0.199
331	0.198
331	0.197
332	0.197
332	0.196
333	0.195
333	0.195
334	0.194
334	0.194
335	0.193
335	0.193
336	0.192
336	0.192
336	0.191
337	0.191
337	0.19
338	0.19
338	0.189
339	0.189
339	0.188
340	0.188
340	0.187
341	0.187
341	0.187
342	0.186
342	0.186
342	0.185
343	0.185
343	0.184
344	0.184
344	0.183
345	0.183
345	0.183
346	0.182
346	0.182
347	0.181
347	0.181
348	0.18
348	0.18
348	0.18
349	0.179
349	0.179
350	0.179
350	0.178
351	0.178
351	0.178
352	0.177
352	0.177
353	0.177
353	0.176
354	0.176
354	0.175
354	0.175
355	0.175
355	0.175
356	0.174
356	0.174
357	0.174
357	0.173
358	0.173
358	0.173
359	0.173
359	0.173
360	0.173
360	0.173
360	0.173
361	0.173
361	0.173
362	0.173
362	0.173
363	0.173
363	0.173
364	0.172
364	0.172
365	0.172
365	0.172
366	0.172
366	0.171
366	0.171
367	0.171
367	0.171
368	0.171
368	0.17
369	0.17
369	0.17
370	0.17
370	0.169
371	0.169
371	0.169
372	0.169
372	0.168
372	0.168
373	0.168
373	0.168
374	0.168
374	0.167
375	0.167
375	0.167
376	0.167
376	0.167
377	0.167
377	0.167
378	0.167
378	0.167
378	0.167
379	0.167
379	0.167
380	0.167
380	0.167
381	0.167
381	0.166
382	0.166
382	0.166
383	0.166
383	0.166
383	0.165
384	0.165
384	0.164
385	0.164
385	0.164
386	0.164
386	0.164
387	0.164
387	0.164
388	0.163
388	0.163
389	0.163
389	0.163
389	0.163
390	0.163
390	0.163
391	0.163
391	0.163
392	0.163
392	0.163
393	0.163
393	0.163
394	0.163
394	0.162
394	0.162
395	0.162
395	0.161
396	0.161
396	0.161
397	0.161
397	0.161
398	0.161
398	0.161
399	0.16
399	0.161
400	0.16
400	0.16
400	0.16
401	0.16
401	0.159
402	0.159
402	0.158
403	0.158
403	0.158
404	0.158
404	0.157
405	0.157
405	0.157
405	0.157
406	0.157
406	0.157
407	0.157
407	0.157
408	0.156
408	0.156
409	0.156
409	0.155
410	0.155
410	0.155
411	0.155
411	0.155
411	0.155
412	0.155
412	0.155
413	0.154
413	0.154
414	0.154
414	0.154
415	0.154
415	0.153
416	0.153
416	0.153
416	0.152
417	0.152
417	0.152
418	0.152
418	0.152
419	0.152
419	0.152
420	0.153
420	0.153
421	0.154
421	0.154
421	0.154
422	0.154
422	0.154
423	0.155
423	0.155
424	0.155
424	0.154
425	0.154
425	0.153
426	0.153
426	0.152
427	0.152
427	0.152
427	0.152
428	0.152
428	0.152
429	0.152
429	0.152
430	0.152
430	0.152
431	0.152
431	0.152
432	0.152
432	0.151
432	0.151
433	0.151
433	0.15
434	0.15
434	0.149
435	0.15
435	0.15
436	0.15
436	0.15
437	0.15
437	0.15
437	0.15
438	0.15
438	0.15
439	0.15
439	0.15
440	0.15
440	0.149
441	0.149
441	0.149
442	0.149
442	0.149
442	0.149
443	0.149
443	0.149
444	0.149
444	0.149
445	0.149
445	0.149
446	0.149
446	0.149
447	0.148
447	0.148
447	0.148
448	0.148
448	0.148
449	0.148
449	0.148
450	0.148
450	0.148
451	0.149
451	0.148
452	0.149
452	0.149
452	0.148
453	0.148
453	0.148
454	0.148
454	0.148
455	0.148
455	0.147
456	0.147
456	0.147
457	0.147
457	0.147
458	0.147
458	0.147
458	0.148
459	0.148
459	0.148
460	0.148
460	0.148
461	0.148
461	0.148
462	0.148
462	0.148
463	0.148
463	0.148
463	0.149
464	0.149
464	0.149
465	0.149
465	0.149
466	0.15
466	0.15
467	0.15
467	0.15
467	0.15
468	0.15
468	0.15
469	0.149
469	0.149
470	0.149
470	0.149
471	0.149
471	0.149
472	0.149
472	0.149
472	0.149
473	0.15
473	0.15
474	0.151
474	0.151
475	0.152
475	0.152
476	0.153
476	0.153
477	0.153
477	0.153
477	0.154
478	0.154
478	0.154
479	0.154
479	0.154
480	0.155
480	0.155
481	0.156
481	0.157
482	0.157
482	0.158
482	0.159
483	0.16
483	0.162
484	0.163
484	0.164
485	0.165
485	0.166
486	0.166
486	0.167
487	0.167
487	0.168
487	0.169
488	0.169
488	0.169
489	0.17
489	0.17
490	0.171
490	0.171
491	0.172
491	0.173
492	0.174
492	0.174
492	0.175
493	0.175
493	0.176
494	0.178
494	0.179
495	0.18
495	0.182
496	0.183
496	0.185
496	0.186
497	0.188
497	0.189
498	0.191
498	0.192
499	0.193
499	0.194
500	0.195
500	0.196
501	0.197
501	0.198
501	0.199
502	0.201
502	0.202
503	0.203
503	0.204
504	0.206
504	0.207
505	0.208
505	0.209
506	0.21
506	0.211
506	0.211
507	0.213
507	0.214
508	0.214
508	0.215
509	0.216
509	0.218
510	0.219
510	0.22
511	0.221
511	0.222
511	0.222
512	0.223
512	0.223
513	0.224
513	0.224
514	0.224
514	0.225
515	0.226
515	0.226
515	0.226
516	0.227
516	0.227
517	0.227
517	0.228
518	0.228
518	0.229
519	0.229
519	0.229
520	0.229
520	0.229
520	0.228
521	0.228
521	0.227
522	0.226
522	0.225
523	0.224
523	0.223
524	0.223
524	0.222
524	0.222
525	0.221
525	0.222
526	0.222
526	0.223
527	0.224
527	0.224
528	0.225
528	0.225
529	0.226
529	0.227
529	0.227
530	0.227
530	0.227
531	0.226
531	0.226
532	0.225
532	0.225
533	0.224
533	0.223
533	0.222
534	0.221
534	0.22
535	0.218
535	0.217
536	0.216
536	0.215
537	0.214
537	0.212
538	0.211
538	0.21
538	0.209
539	0.208
539	0.206
540	0.205
540	0.204
541	0.202
541	0.201
542	0.199
542	0.197
542	0.196
543	0.194
543	0.192
544	0.191
544	0.189
545	0.188
545	0.187
546	0.185
546	0.184
547	0.182
547	0.18
547	0.178
548	0.176
548	0.175
549	0.173
549	0.171
550	0.168
550	0.166
551	0.164
551	0.162
551	0.16
552	0.159
552	0.157
553	0.156
553	0.154
554	0.153
554	0.151
555	0.15
555	0.148
556	0.145
556	0.144
556	0.142
557	0.14
557	0.137
558	0.135
558	0.133
559	0.132
559	0.13
560	0.129
560	0.127
560	0.126
561	0.126
561	0.125
562	0.124
562	0.122
563	0.121
563	0.119
564	0.118
564	0.116
564	0.114
565	0.112
565	0.111
566	0.109
566	0.107
567	0.105
567	0.104
568	0.103
568	0.102
568	0.102
569	0.101
569	0.101
570	0.1
570	0.099
571	0.098
571	0.098
572	0.097
572	0.096
573	0.095
573	0.094
573	0.094
574	0.093
574	0.092
575	0.092
575	0.091
576	0.091
576	0.091
577	0.09
577	0.09
577	0.089
578	0.089
578	0.088
579	0.087
579	0.086
580	0.085
580	0.084
581	0.082
581	0.081
581	0.079
582	0.078
582	0.077
583	0.077
583	0.076
584	0.075
584	0.073
585	0.071
585	0.07
585	0.07
586	0.069
586	0.069
587	0.068
587	0.067
588	0.066
588	0.065
589	0.065
589	0.064
590	0.064
590	0.064
590	0.063
591	0.063
591	0.062
592	0.061
592	0.06
593	0.06
593	0.059
594	0.058
594	0.057
594	0.056
595	0.056
595	0.055
596	0.054
596	0.054
597	0.055
597	0.055
598	0.056
598	0.057
598	0.057
599	0.058
599	0.058
600	0.058
600	0.058
601	0.057
601	0.057
602	0.056
602	0.056
602	0.055
603	0.055
603	0.055
604	0.055
604	0.056
605	0.057
605	0.058
606	0.059
606	0.059
606	0.059
607	0.058
607	0.058
608	0.058
608	0.057
609	0.056
609	0.056
610	0.056
610	0.055
610	0.055
611	0.055
611	0.056
612	0.057
612	0.058
613	0.058
613	0.059
614	0.059
614	0.058
614	0.058
615	0.058
615	0.057
616	0.057
616	0.056
617	0.056
617	0.055
618	0.054
618	0.054
618	0.054
619	0.054
619	0.055
620	0.056
620	0.057
621	0.058
621	0.059
622	0.059
622	0.06
622	0.06
623	0.06
623	0.061
624	0.06
624	0.06
625	0.06
625	0.06
626	0.06
626	0.061
626	0.061
627	0.062
627	0.062
628	0.063
628	0.063
629	0.063
629	0.064
630	0.064
630	0.064
630	0.065
631	0.066
631	0.066
632	0.067
632	0.068
633	0.069
633	0.07
634	0.072
634	0.073
634	0.074
635	0.075
635	0.076
636	0.076
636	0.077
637	0.077
637	0.077
638	0.078
638	0.079
638	0.08
639	0.081
639	0.081
640	0.082
640	0.083
641	0.085
641	0.086
642	0.088
642	0.089
642	0.091
643	0.093
643	0.094
644	0.096
644	0.098
645	0.099
645	0.101
646	0.103
646	0.105
646	0.107
647	0.11
647	0.112
648	0.114
648	0.116
649	0.118
649	0.12
650	0.122
650	0.124
650	0.126
651	0.129
651	0.131
652	0.133
652	0.135
653	0.138
653	0.142
653	0.141
654	0.113
654	0.092
655	0.097
655	0.099
656	0.1
656	0.101
657	0.103
657	0.104
657	0.105
658	0.104
658	0.103
659	0.13
659	0.168
660	0.169
660	0.171
661	0.173
661	0.176
661	0.178
662	0.181
662	0.185
663	0.188
663	0.191
664	0.194
664	0.196
665	0.199
665	0.201
665	0.202
666	0.204
666	0.205
667	0.206
667	0.207
668	0.209
668	0.211
669	0.214
669	0.216
669	0.219
670	0.223
670	0.226
671	0.228
671	0.231
672	0.233
672	0.235
672	0.236
673	0.237
673	0.239
674	0.239
674	0.24
675	0.241
675	0.242
676	0.244
676	0.245
676	0.247
677	0.248
677	0.25
678	0.251
678	0.253
679	0.254
679	0.256
680	0.257
680	0.258
680	0.259
681	0.26
681	0.261
682	0.262
682	0.263
683	0.264
683	0.266
684	0.267
684	0.268
684	0.268
685	0.269
685	0.27
686	0.27
686	0.271
687	0.271
687	0.271
687	0.271
688	0.27
688	0.269
689	0.269
689	0.268
690	0.268
690	0.267
691	0.266
691	0.264
691	0.263
692	0.262
692	0.261
693	0.26
693	0.259
694	0.258
694	0.257
695	0.256
695	0.256
695	0.256
696	0.255
696	0.254
697	0.253
697	0.252
698	0.251
698	0.249
698	0.248
699	0.247
699	0.246
700	0.244
700	0.242
701	0.241
701	0.24
702	0.239
702	0.238
702	0.236
703	0.235
703	0.233
704	0.232
704	0.231
705	0.229
705	0.228
705	0.226
706	0.225
706	0.223
707	0.222
707	0.22
708	0.218
708	0.216
709	0.214
709	0.212
709	0.21
710	0.207
710	0.205
711	0.203
711	0.201
712	0.199
712	0.198
713	0.196
713	0.194
713	0.192
714	0.19
714	0.188
715	0.186
715	0.184
716	0.182
716	0.18
716	0.178
717	0.176
717	0.174
718	0.172
718	0.17
719	0.168
719	0.167
720	0.166
720	0.164
720	0.162
721	0.16
721	0.158
722	0.156
722	0.153
723	0.151
723	0.149
723	0.147
724	0.145
724	0.142
725	0.14
725	0.138
726	0.136
726	0.135
727	0.133
727	0.132
727	0.13
728	0.128
728	0.126
729	0.125
729	0.124
730	0.122
730	0.12
730	0.119
731	0.117
731	0.115
732	0.114
732	0.112
733	0.111
733	0.109
734	0.108
734	0.106
734	0.105
735	0.104
735	0.103
736	0.102
736	0.1
737	0.099
737	0.098
737	0.097
738	0.096
738	0.094
739	0.092
739	0.091
740	0.089
740	0.087
741	0.086
741	0.084
741	0.082
742	0.079
742	0.077
743	0.075
743	0.073
744	0.071
744	0.069
744	0.067
745	0.065
745	0.063
746	0.062
746	0.061
747	0.06
747	0.059
748	0.059
748	0.058
748	0.057
749	0.056
749	0.055
750	0.054
750	0.053
751	0.052
751	0.052
751	0.051
752	0.051
752	0.05
753	0.049
753	0.048
754	0.048
754	0.047
754	0.046
755	0.045
755	0.045
756	0.044
756	0.042
757	0.041
757	0.04
758	0.039
758	0.037
758	0.036
759	0.035
759	0.034
760	0.032
760	0.03
761	0.028
761	0.027
761	0.026
762	0.025
762	0.024
763	0.024
763	0.024
764	0.023
764	0.022
764	0.021
765	0.02
765	0.019
766	0.018
766	0.018
767	0.017
767	0.016
768	0.013
768	0.011
768	0.01
769	0.008
769	0.007
770	0.005
770	0.003
771	0.001
771	-0.002
771	-0.005
772	-0.008
772	-0.01
773	-0.012
773	-0.015
774	-0.017
774	-0.02
775	-0.022
775	-0.025
775	-0.028
776	-0.031
776	-0.034
777	-0.036
777	-0.039
778	-0.041
778	-0.044
778	-0.047
779	-0.049
779	-0.051
780	-0.055
780	-0.059
781	-0.063
781	-0.067
781	-0.073
782	-0.079
782	-0.086
783	-0.092
783	-0.098
784	-0.105
784	-0.113
784	-0.12
785	-0.127
785	-0.134
786	-0.139
786	-0.14
787	-0.14
787	-0.14
788	-0.143
788	-0.147
788	-0.15
789	-0.152
789	-0.153
790	-0.151
790	-0.15
791	-0.15
791	-0.152
791	-0.155
792	-0.149
792	-0.139
793	-0.133
793	-0.129
794	-0.127
794	-0.129
794	-0.134
795	-0.136
795	-0.136
796	-0.137
796	-0.14
797	-0.149
797	-0.16
797	-0.166
798	-0.172
798	-0.174
799	-0.175
799	-0.174
800	-0.173
800	-0.175
801	-0.178
801	-0.178
801	-0.179
802	-0.18
802	-0.181
803	-0.182
803	-0.183
804	-0.181
804	-0.176
804	-0.17
805	-0.166
805	-0.164
806	-0.162
806	-0.161
807	-0.16
807	-0.159
807	-0.159
808	-0.159
808	-0.16
809	-0.165
809	-0.171
810	-0.175
810	-0.178
810	-0.181
811	-0.185
811	-0.185
812	-0.181
812	-0.178
813	-0.178
813	-0.178
813	-0.179
814	-0.179
814	-0.179
815	-0.175
815	-0.172
816	-0.168
816	-0.165
817	-0.164
817	-0.161
817	-0.155
818	-0.147
818	-0.137
819	-0.127
819	-0.118
820	-0.111
820	-0.103
820	-0.096
821	-0.088
821	-0.081
822	-0.076
822	-0.071
823	-0.066
823	-0.063
823	-0.06
824	-0.056
824	-0.052
825	-0.048
825	-0.044
826	-0.04
826	-0.038
826	-0.035
827	-0.032
827	-0.03
828	-0.028
828	-0.026
829	-0.025
829	-0.024
829	-0.023
830	-0.023
830	-0.023
831	-0.022
831	-0.021
832	-0.02
832	-0.019
832	-0.018
833	-0.016
833	-0.015
834	-0.014
834	-0.012
835	-0.011
835	-0.009
835	-0.008
836	-0.007
836	-0.006
837	-0.006
837	-0.005
838	-0.005
838	-0.005
839	-0.005
839	-0.006
839	-0.006
840	-0.007
840	-0.008
841	-0.008
841	-0.009
842	-0.009
842	-0.009
842	-0.009
843	-0.009
843	-0.009
844	-0.009
844	-0.008
845	-0.007
845	-0.006
845	-0.005
846	-0.004
846	-0.003
847	-0.003
847	-0.003
848	-0.003
848	-0.003
848	-0.003
849	-0.004
849	-0.005
850	-0.005
850	-0.006
851	-0.007
851	-0.007
851	-0.008
852	-0.008
852	-0.007
853	-0.007
853	-0.006
854	-0.005
854	-0.005
854	-0.004
855	-0.003
855	-0.003
856	-0.002
856	-0.002
857	-0.001
857	-0.001
857	-0.001
858	-0
858	-0.001
859	-0.001
859	-0.001
860	-0.001
860	-0.002
860	-0.002
861	-0.002
861	-0.003
862	-0.004
862	-0.004
863	-0.005
863	-0.006
863	-0.006
864	-0.006
864	-0.005
865	-0.005
865	-0.004
866	-0.004
866	-0.003
866	-0.002
867	-0
867	0.001
868	0.002
868	0.003
869	0.004
869	0.004
869	0.004
870	0.004
870	0.004
871	0.004
871	0.003
872	0.003
872	0.002
872	0.002
873	0.002
873	0.002
874	0.002
874	0.003
875	0.004
875	0.005
875	0.005
876	0.006
876	0.006
877	0.007
877	0.007
878	0.007
878	0.008
878	0.008
879	0.008
879	0.007
880	0.007
880	0.006
881	0.006
881	0.005
881	0.005
882	0.004
882	0.004
883	0.003
883	0.002
884	0.002
884	0.002
884	0.002
885	0.002
885	0.002
886	0.003
886	0.003
887	0.004
887	0.005
887	0.005
888	0.006
888	0.006
889	0.006
889	0.006
890	0.006
890	0.006
890	0.005
891	0.004
891	0.004
892	0.003
892	0.002
893	0.001
893	0.001
893	0
894	0
894	0
895	0
895	0
895	0
896	0
896	0
897	0
897	0
898	0
898	-0
898	-0
899	-0
899	0
900	0
900	0.001
901	0.001
901	0.002
901	0.002
902	0.002
902	0.002
903	0.003
903	0.002
904	0.002
904	0.002
904	0.002
905	0.001
905	0.001
906	0.001
906	0
907	-0
907	-0
907	-0
908	-0.001
908	-0.001
909	-0.001
909	-0
910	-0
910	-0
910	0
911	0.001
911	0.001
912	0.002
912	0.002
913	0.002
913	0.002
913	0.002
914	0.002
914	0.002
915	0.002
915	0.002
916	0.002
916	0.001
916	0.001
917	0.001
917	0
918	-0
918	-0
918	-0.001
919	-0.001
919	-0.001
920	-0.001
920	-0.001
921	-0.001
921	-0.001
921	-0
922	0.001
922	0.001
923	0.002
923	0.004
924	0.005
924	0.005
924	0.006
925	0.006
925	0.006
926	0.006
926	0.005
927	0.004
927	0.004
927	0.003
928	0.002
928	0
929	-0.001
929	-0.002
930	-0.002
930	-0.003
930	-0.003
931	-0.004
931	-0.004
932	-0.004
932	-0.004
933	-0.004
933	-0.003
933	-0.003
934	-0.002
934	-0.001
935	-0.001
935	-0
935	0.001
936	0.001
936	0.002
937	0.003
937	0.003
938	0.004
938	0.004
938	0.005
939	0.005
939	0.005
940	0.006
940	0.006
941	0.007
941	0.008
941	0.008
942	0.009
942	0.009
943	0.01
943	0.01
944	0.01
944	0.01
944	0.009
945	0.009
945	0.009
946	0.008
946	0.008
946	0.007
947	0.006
947	0.006
948	0.005
948	0.005
949	0.005
949	0.005
949	0.005
950	0.006
950	0.006
951	0.007
951	0.008
952	0.009
952	0.01
952	0.011
953	0.012
953	0.013
954	0.013
954	0.014
955	0.014
955	0.014
955	0.014
956	0.014
956	0.013
957	0.013
957	0.012
957	0.011
958	0.01
958	0.009
959	0.008
959	0.007
960	0.005
960	0.004
960	0.003
961	0.002
961	0.001
962	-0
962	-0
963	-0.001
963	-0.001
963	-0.001
964	-0
964	0.001
965	0.001
965	0.002
966	0.003
966	0.004
966	0.005
967	0.006
967	0.007
968	0.008
968	0.008
968	0.009
969	0.009
969	0.009
970	0.009
970	0.008
971	0.008
971	0.007
971	0.007
972	0.007
972	0.006
973	0.006
973	0.005
974	0.005
974	0.005
974	0.004
975	0.004
975	0.004
976	0.004
976	0.004
976	0.003
977	0.003
977	0.003
978	0.002
978	0.001
979	0.001
979	0.001
979	0
980	-0
980	-0
981	-0.001
981	-0.001
982	-0.001
982	-0
982	-0
983	0
983	0
984	0.001
984	0.001
984	0.002
985	0.002
985	0.003
986	0.003
986	0.003
987	0.004
987	0.004
987	0.005
988	0.005
988	0.006
989	0.006
989	0.007
990	0.007
990	0.008
990	0.009
991	0.01
991	0.011
992	0.011
992	0.012
992	0.012
993	0.013
993	0.013
994	0.014
994	0.015
995	0.015
995	0.016
995	0.016
996	0.017
996	0.017
997	0.017
997	0.018
997	0.018
998	0.018
998	0.018
999	0.018
999	0.018
1000	0.018
1000	0.018
1000	0.017
1001	0.017
1001	0.016
1002	0.016
1002	0.015
1003	0.014
1003	0.014
1003	0.013
1004	0.012
1004	0.012
1005	0.011
1005	0.011
1005	0.01
1006	0.01
1006	0.01
1007	0.01
1007	0.009
1008	0.009
1008	0.009
1008	0.009
1009	0.009
1009	0.009
1010	0.009
1010	0.009
1010	0.009
1011	0.009
1011	0.009
1012	0.009
1012	0.009
1013	0.009
1013	0.009
1013	0.008
1014	0.008
1014	0.007
1015	0.007
1015	0.007
1016	0.006
1016	0.006
1016	0.006
1017	0.005
1017	0.005
1018	0.005
1018	0.005
1018	0.005
1019	0.005
1019	0.005
1020	0.004
1020	0.004
1021	0.004
1021	0.004
1021	0.003
1022	0.003
1022	0.003
1023	0.003
1023	0.003
1023	0.003
1024	0.004
1024	0.004
1025	0.004
1025	0.004
1026	0.004
1026	0.004
1026	0.004
1027	0.004
1027	0.004
1028	0.005
1028	0.005
1028	0.005
1029	0.006
1029	0.006
1030	0.007
1030	0.007
1031	0.008
1031	0.008
1031	0.008
1032	0.008
1032	0.009
1033	0.009
1033	0.009
1033	0.008
1034	0.008
1034	0.007
1035	0.007
1035	0.006
1036	0.005
1036	0.005
1036	0.005
1037	0.004
1037	0.004
1038	0.003
1038	0.003
1039	0.004
1039	0.004
1039	0.004
1040	0.004
1040	0.004
1041	0.004
1041	0.004
1041	0.004
1042	0.003
1042	0.003
1043	0.003
1043	0.002
1044	0.002
1044	0.002
1044	0.002
1045	0.002
1045	0.002
1046	0.001
1046	0.002
1046	0.002
1047	0.002
1047	0.002
1048	0.003
1048	0.003
1049	0.004
1049	0.004
1049	0.004
1050	0.004
1050	0.004
1051	0.004
1051	0.004
1051	0.004
1052	0.003
1052	0.003
1053	0.002
1053	0.002
1053	0.002
1054	0.001
1054	0.001
1055	0.001
1055	0.001
1056	0.001
1056	0.001
1056	0.001
1057	0.001
1057	0.002
1058	0.002
1058	0.003
1058	0.003
1059	0.003
1059	0.004
1060	0.004
1060	0.006
1061	0.006
1061	0.007
1061	0.008
1062	0.009
1062	0.009
1063	0.009
1063	0.01
1063	0.01
1064	0.011
1064	0.011
1065	0.011
1065	0.012
1066	0.012
1066	0.012
1066	0.013
1067	0.013
1067	0.014
1068	0.014
1068	0.014
1068	0.014
1069	0.014
1069	0.014
1070	0.014
1070	0.013
1071	0.014
1071	0.013
1071	0.013
1072	0.013
1072	0.013
1073	0.013
1073	0.013
1073	0.013
1074	0.014
1074	0.014
1075	0.015
1075	0.015
1076	0.015
1076	0.016
1076	0.017
1077	0.017
1077	0.018
1078	0.018
1078	0.019
1078	0.02
1079	0.02
1079	0.022
1080	0.023
1080	0.023
1080	0.024
1081	0.025
1081	0.026
1082	0.028
1082	0.029
1083	0.03
1083	0.032
1083	0.033
1084	0.035
1084	0.036
1085	0.038
1085	0.039
1085	0.04
1086	0.041
1086	0.043
1087	0.044
1087	0.045
1088	0.045
1088	0.046
1088	0.047
1089	0.047
1089	0.049
1090	0.05
1090	0.052
1090	0.053
1091	0.054
1091	0.056
1092	0.058
1092	0.059
1092	0.061
1093	0.064
1093	0.067
1094	0.069
1094	0.072
1095	0.075
1095	0.078
1095	0.082
1096	0.086
1096	0.091
1097	0.095
1097	0.1
1097	0.104
1098	0.108
1098	0.112
1099	0.117
1099	0.122
1100	0.128
1100	0.134
1100	0.139
1101	0.147
1101	0.156
1102	0.164
1102	0.174
1102	0.184
1103	0.196
1103	0.208
1104	0.223
1104	0.24
1104	0.257
1105	0.275
1105	0.292
1106	0.311
1106	0.334
1107	0.362
1107	0.399
1107	0.446
1108	0.587
1108	0.845
1109	-0
1109	-0
1109	-0
1110	-0
1110	-0
1111	-0
1111	-0
