Data from 15c-2a_Absorbance__474__00474.txt Node

Date: Wed Jan 17 09:56:13 CET 2024
User: Marek
Spectrometer: MAYP115816
Trigger mode: 0
Integration Time (sec): 2.000000E-1
Scans to average: 10
Electric dark correction enabled: true
Nonlinearity correction enabled: true
Boxcar width: 5
XAxis mode: Wavelengths
Number of Pixels in Spectrum: 2068
>>>>>Begin Spectral Data<<<<<
199	-1.621
199	-1.478
200	-1.316
200	-1.192
201	-1.114
201	-1.066
202	-0.994
202	-0.939
203	-0.89
203	-0.848
204	-0.823
204	-0.8
205	-0.777
205	-0.767
205	-0.766
206	-0.765
206	-0.761
207	-0.759
207	-0.755
208	-0.753
208	-0.752
209	-0.748
209	-0.745
210	-0.744
210	-0.744
211	-0.742
211	-0.741
212	-0.742
212	-0.74
213	-0.74
213	-0.739
213	-0.737
214	-0.736
214	-0.735
215	-0.734
215	-0.733
216	-0.733
216	-0.731
217	-0.726
217	-0.724
218	-0.723
218	-0.719
219	-0.717
219	-0.716
220	-0.713
220	-0.71
221	-0.704
221	-0.701
221	-0.697
222	-0.692
222	-0.688
223	-0.683
223	-0.68
224	-0.674
224	-0.667
225	-0.659
225	-0.65
226	-0.642
226	-0.63
227	-0.617
227	-0.604
228	-0.588
228	-0.57
229	-0.549
229	-0.526
229	-0.501
230	-0.473
230	-0.444
231	-0.411
231	-0.377
232	-0.343
232	-0.304
233	-0.265
233	-0.224
234	-0.184
234	-0.144
235	-0.106
235	-0.068
236	-0.032
236	0.002
236	0.035
237	0.065
237	0.093
238	0.118
238	0.142
239	0.163
239	0.183
240	0.201
240	0.217
241	0.231
241	0.245
242	0.257
242	0.268
243	0.278
243	0.287
243	0.295
244	0.302
244	0.309
245	0.315
245	0.321
246	0.327
246	0.331
247	0.336
247	0.34
248	0.344
248	0.348
249	0.352
249	0.355
250	0.358
250	0.361
250	0.363
251	0.366
251	0.368
252	0.37
252	0.372
253	0.374
253	0.375
254	0.376
254	0.378
255	0.379
255	0.381
256	0.382
256	0.382
257	0.383
257	0.384
258	0.384
258	0.385
258	0.385
259	0.385
259	0.385
260	0.385
260	0.385
261	0.385
261	0.385
262	0.384
262	0.384
263	0.383
263	0.383
264	0.382
264	0.381
265	0.381
265	0.379
265	0.378
266	0.377
266	0.376
267	0.374
267	0.373
268	0.371
268	0.37
269	0.368
269	0.366
270	0.365
270	0.363
271	0.361
271	0.359
272	0.357
272	0.355
272	0.354
273	0.351
273	0.349
274	0.347
274	0.345
275	0.343
275	0.341
276	0.339
276	0.336
277	0.334
277	0.332
278	0.33
278	0.328
278	0.326
279	0.323
279	0.321
280	0.319
280	0.317
281	0.315
281	0.313
282	0.311
282	0.309
283	0.308
283	0.306
284	0.304
284	0.302
285	0.3
285	0.299
285	0.297
286	0.295
286	0.294
287	0.292
287	0.291
288	0.289
288	0.287
289	0.286
289	0.284
290	0.283
290	0.281
291	0.28
291	0.279
292	0.277
292	0.276
292	0.275
293	0.274
293	0.273
294	0.272
294	0.27
295	0.269
295	0.269
296	0.268
296	0.266
297	0.266
297	0.265
298	0.264
298	0.264
298	0.263
299	0.262
299	0.261
300	0.261
300	0.26
301	0.259
301	0.258
302	0.258
302	0.257
303	0.256
303	0.255
304	0.255
304	0.254
305	0.253
305	0.253
305	0.252
306	0.251
306	0.251
307	0.25
307	0.249
308	0.249
308	0.248
309	0.248
309	0.247
310	0.246
310	0.246
311	0.245
311	0.244
311	0.244
312	0.243
312	0.242
313	0.241
313	0.241
314	0.24
314	0.239
315	0.239
315	0.238
316	0.237
316	0.237
317	0.236
317	0.235
318	0.234
318	0.234
318	0.233
319	0.232
319	0.231
320	0.231
320	0.23
321	0.229
321	0.229
322	0.228
322	0.227
323	0.226
323	0.226
324	0.225
324	0.224
324	0.224
325	0.223
325	0.222
326	0.222
326	0.221
327	0.22
327	0.22
328	0.219
328	0.218
329	0.218
329	0.217
330	0.216
330	0.215
330	0.215
331	0.214
331	0.213
332	0.213
332	0.212
333	0.211
333	0.211
334	0.21
334	0.209
335	0.209
335	0.208
336	0.208
336	0.207
336	0.206
337	0.206
337	0.205
338	0.205
338	0.204
339	0.204
339	0.203
340	0.203
340	0.202
341	0.202
341	0.201
342	0.201
342	0.2
342	0.2
343	0.199
343	0.199
344	0.198
344	0.198
345	0.197
345	0.197
346	0.197
346	0.196
347	0.196
347	0.195
348	0.195
348	0.195
348	0.194
349	0.193
349	0.193
350	0.193
350	0.192
351	0.192
351	0.191
352	0.191
352	0.19
353	0.19
353	0.19
354	0.189
354	0.189
354	0.189
355	0.188
355	0.188
356	0.187
356	0.187
357	0.187
357	0.187
358	0.186
358	0.186
359	0.186
359	0.186
360	0.186
360	0.186
360	0.186
361	0.186
361	0.187
362	0.186
362	0.186
363	0.186
363	0.186
364	0.186
364	0.185
365	0.185
365	0.185
366	0.185
366	0.185
366	0.184
367	0.184
367	0.184
368	0.184
368	0.184
369	0.183
369	0.183
370	0.183
370	0.182
371	0.182
371	0.182
372	0.182
372	0.181
372	0.181
373	0.181
373	0.18
374	0.18
374	0.18
375	0.18
375	0.18
376	0.18
376	0.18
377	0.18
377	0.18
378	0.18
378	0.18
378	0.18
379	0.18
379	0.179
380	0.179
380	0.179
381	0.179
381	0.179
382	0.179
382	0.179
383	0.179
383	0.178
383	0.178
384	0.177
384	0.177
385	0.177
385	0.177
386	0.177
386	0.177
387	0.177
387	0.177
388	0.176
388	0.177
389	0.176
389	0.176
389	0.176
390	0.176
390	0.176
391	0.176
391	0.176
392	0.176
392	0.176
393	0.176
393	0.176
394	0.176
394	0.175
394	0.175
395	0.175
395	0.175
396	0.175
396	0.175
397	0.174
397	0.174
398	0.174
398	0.174
399	0.174
399	0.174
400	0.174
400	0.173
400	0.173
401	0.173
401	0.172
402	0.171
402	0.171
403	0.171
403	0.17
404	0.17
404	0.17
405	0.17
405	0.17
405	0.169
406	0.169
406	0.169
407	0.169
407	0.169
408	0.169
408	0.168
409	0.168
409	0.168
410	0.167
410	0.167
411	0.167
411	0.167
411	0.167
412	0.167
412	0.167
413	0.167
413	0.166
414	0.166
414	0.166
415	0.166
415	0.166
416	0.166
416	0.165
416	0.165
417	0.165
417	0.165
418	0.165
418	0.165
419	0.165
419	0.166
420	0.166
420	0.167
421	0.167
421	0.167
421	0.167
422	0.167
422	0.168
423	0.168
423	0.168
424	0.167
424	0.167
425	0.167
425	0.166
426	0.166
426	0.165
427	0.165
427	0.165
427	0.165
428	0.165
428	0.165
429	0.165
429	0.165
430	0.165
430	0.165
431	0.165
431	0.164
432	0.164
432	0.164
432	0.164
433	0.163
433	0.163
434	0.162
434	0.162
435	0.162
435	0.162
436	0.162
436	0.163
437	0.163
437	0.163
437	0.163
438	0.163
438	0.163
439	0.163
439	0.163
440	0.162
440	0.162
441	0.162
441	0.162
442	0.162
442	0.162
442	0.162
443	0.162
443	0.162
444	0.162
444	0.162
445	0.162
445	0.162
446	0.162
446	0.162
447	0.162
447	0.162
447	0.162
448	0.162
448	0.162
449	0.162
449	0.162
450	0.162
450	0.162
451	0.162
451	0.162
452	0.162
452	0.162
452	0.162
453	0.162
453	0.162
454	0.162
454	0.162
455	0.162
455	0.161
456	0.161
456	0.161
457	0.161
457	0.161
458	0.161
458	0.161
458	0.161
459	0.161
459	0.161
460	0.161
460	0.161
461	0.16
461	0.161
462	0.161
462	0.161
463	0.161
463	0.162
463	0.162
464	0.162
464	0.162
465	0.163
465	0.163
466	0.163
466	0.164
467	0.164
467	0.164
467	0.164
468	0.164
468	0.164
469	0.163
469	0.163
470	0.162
470	0.162
471	0.162
471	0.162
472	0.162
472	0.163
472	0.163
473	0.163
473	0.164
474	0.165
474	0.165
475	0.166
475	0.167
476	0.167
476	0.167
477	0.167
477	0.167
477	0.168
478	0.168
478	0.168
479	0.168
479	0.169
480	0.169
480	0.17
481	0.171
481	0.171
482	0.172
482	0.173
482	0.174
483	0.175
483	0.177
484	0.178
484	0.179
485	0.18
485	0.181
486	0.181
486	0.182
487	0.183
487	0.184
487	0.185
488	0.185
488	0.185
489	0.186
489	0.187
490	0.188
490	0.188
491	0.189
491	0.19
492	0.191
492	0.191
492	0.192
493	0.193
493	0.194
494	0.195
494	0.197
495	0.198
495	0.199
496	0.201
496	0.202
496	0.204
497	0.205
497	0.207
498	0.208
498	0.209
499	0.21
499	0.212
500	0.213
500	0.214
501	0.216
501	0.217
501	0.218
502	0.22
502	0.221
503	0.223
503	0.224
504	0.225
504	0.226
505	0.227
505	0.228
506	0.229
506	0.231
506	0.232
507	0.233
507	0.234
508	0.235
508	0.236
509	0.237
509	0.239
510	0.241
510	0.242
511	0.243
511	0.244
511	0.245
512	0.245
512	0.246
513	0.246
513	0.246
514	0.247
514	0.247
515	0.247
515	0.248
515	0.248
516	0.248
516	0.249
517	0.25
517	0.25
518	0.251
518	0.251
519	0.251
519	0.251
520	0.251
520	0.251
520	0.251
521	0.25
521	0.249
522	0.248
522	0.247
523	0.246
523	0.246
524	0.246
524	0.246
524	0.245
525	0.246
525	0.246
526	0.246
526	0.247
527	0.247
527	0.248
528	0.248
528	0.249
529	0.249
529	0.249
529	0.249
530	0.248
530	0.248
531	0.247
531	0.247
532	0.246
532	0.245
533	0.244
533	0.243
533	0.242
534	0.241
534	0.24
535	0.239
535	0.238
536	0.237
536	0.236
537	0.234
537	0.233
538	0.232
538	0.23
538	0.229
539	0.228
539	0.227
540	0.225
540	0.224
541	0.222
541	0.22
542	0.219
542	0.217
542	0.215
543	0.213
543	0.211
544	0.209
544	0.207
545	0.206
545	0.204
546	0.203
546	0.201
547	0.199
547	0.196
547	0.194
548	0.192
548	0.19
549	0.188
549	0.186
550	0.184
550	0.182
551	0.18
551	0.178
551	0.176
552	0.174
552	0.173
553	0.172
553	0.17
554	0.168
554	0.166
555	0.164
555	0.162
556	0.159
556	0.157
556	0.155
557	0.152
557	0.15
558	0.148
558	0.146
559	0.144
559	0.142
560	0.141
560	0.139
560	0.138
561	0.137
561	0.136
562	0.135
562	0.133
563	0.131
563	0.129
564	0.127
564	0.124
564	0.122
565	0.12
565	0.118
566	0.116
566	0.114
567	0.112
567	0.111
568	0.11
568	0.109
568	0.109
569	0.109
569	0.108
570	0.108
570	0.106
571	0.106
571	0.105
572	0.104
572	0.103
573	0.102
573	0.101
573	0.1
574	0.1
574	0.099
575	0.098
575	0.098
576	0.097
576	0.096
577	0.095
577	0.094
577	0.094
578	0.093
578	0.092
579	0.091
579	0.091
580	0.089
580	0.087
581	0.085
581	0.084
581	0.082
582	0.081
582	0.08
583	0.08
583	0.078
584	0.076
584	0.074
585	0.073
585	0.072
585	0.072
586	0.071
586	0.071
587	0.07
587	0.068
588	0.067
588	0.066
589	0.066
589	0.066
590	0.065
590	0.065
590	0.066
591	0.066
591	0.065
592	0.065
592	0.064
593	0.064
593	0.063
594	0.062
594	0.061
594	0.06
595	0.059
595	0.058
596	0.058
596	0.058
597	0.059
597	0.06
598	0.06
598	0.061
598	0.062
599	0.062
599	0.062
600	0.062
600	0.061
601	0.06
601	0.059
602	0.058
602	0.058
602	0.057
603	0.057
603	0.058
604	0.058
604	0.059
605	0.06
605	0.062
606	0.062
606	0.062
606	0.062
607	0.062
607	0.062
608	0.061
608	0.06
609	0.059
609	0.059
610	0.059
610	0.058
610	0.059
611	0.06
611	0.061
612	0.062
612	0.063
613	0.065
613	0.066
614	0.065
614	0.065
614	0.064
615	0.063
615	0.062
616	0.061
616	0.06
617	0.06
617	0.059
618	0.057
618	0.056
618	0.056
619	0.056
619	0.057
620	0.058
620	0.059
621	0.059
621	0.06
622	0.06
622	0.061
622	0.061
623	0.061
623	0.061
624	0.061
624	0.061
625	0.061
625	0.062
626	0.062
626	0.062
626	0.063
627	0.064
627	0.064
628	0.065
628	0.066
629	0.067
629	0.068
630	0.068
630	0.068
630	0.069
631	0.07
631	0.071
632	0.071
632	0.072
633	0.073
633	0.075
634	0.076
634	0.077
634	0.079
635	0.08
635	0.081
636	0.082
636	0.083
637	0.083
637	0.084
638	0.084
638	0.085
638	0.086
639	0.087
639	0.088
640	0.088
640	0.089
641	0.09
641	0.092
642	0.093
642	0.095
642	0.097
643	0.099
643	0.101
644	0.103
644	0.105
645	0.108
645	0.11
646	0.112
646	0.115
646	0.118
647	0.12
647	0.123
648	0.125
648	0.127
649	0.129
649	0.131
650	0.133
650	0.135
650	0.137
651	0.139
651	0.141
652	0.142
652	0.144
653	0.147
653	0.152
653	0.156
654	0.125
654	0.102
655	0.106
655	0.108
656	0.109
656	0.111
657	0.112
657	0.113
657	0.115
658	0.113
658	0.109
659	0.138
659	0.179
660	0.183
660	0.185
661	0.188
661	0.191
661	0.194
662	0.198
662	0.201
663	0.205
663	0.208
664	0.21
664	0.213
665	0.216
665	0.218
665	0.22
666	0.222
666	0.224
667	0.225
667	0.227
668	0.229
668	0.231
669	0.233
669	0.236
669	0.239
670	0.243
670	0.245
671	0.248
671	0.25
672	0.252
672	0.254
672	0.256
673	0.258
673	0.26
674	0.261
674	0.262
675	0.263
675	0.264
676	0.266
676	0.267
676	0.268
677	0.27
677	0.271
678	0.273
678	0.274
679	0.275
679	0.277
680	0.279
680	0.28
680	0.282
681	0.283
681	0.284
682	0.285
682	0.287
683	0.288
683	0.289
684	0.29
684	0.29
684	0.29
685	0.29
685	0.29
686	0.291
686	0.291
687	0.291
687	0.291
687	0.291
688	0.291
688	0.29
689	0.291
689	0.291
690	0.291
690	0.291
691	0.29
691	0.289
691	0.289
692	0.288
692	0.286
693	0.285
693	0.285
694	0.283
694	0.281
695	0.281
695	0.281
695	0.281
696	0.28
696	0.279
697	0.278
697	0.277
698	0.276
698	0.275
698	0.274
699	0.273
699	0.271
700	0.269
700	0.267
701	0.265
701	0.264
702	0.262
702	0.26
702	0.258
703	0.256
703	0.254
704	0.251
704	0.25
705	0.248
705	0.246
705	0.244
706	0.243
706	0.241
707	0.24
707	0.238
708	0.236
708	0.234
709	0.232
709	0.23
709	0.227
710	0.224
710	0.221
711	0.219
711	0.216
712	0.214
712	0.211
713	0.209
713	0.207
713	0.205
714	0.203
714	0.202
715	0.2
715	0.199
716	0.197
716	0.196
716	0.195
717	0.194
717	0.192
718	0.191
718	0.189
719	0.187
719	0.186
720	0.183
720	0.181
720	0.179
721	0.176
721	0.173
722	0.171
722	0.168
723	0.166
723	0.164
723	0.162
724	0.16
724	0.158
725	0.156
725	0.154
726	0.152
726	0.15
727	0.148
727	0.146
727	0.144
728	0.142
728	0.14
729	0.138
729	0.136
730	0.134
730	0.132
730	0.13
731	0.128
731	0.126
732	0.124
732	0.123
733	0.121
733	0.119
734	0.117
734	0.114
734	0.113
735	0.112
735	0.11
736	0.109
736	0.108
737	0.107
737	0.107
737	0.106
738	0.104
738	0.103
739	0.101
739	0.1
740	0.098
740	0.096
741	0.094
741	0.091
741	0.088
742	0.084
742	0.081
743	0.078
743	0.076
744	0.074
744	0.072
744	0.07
745	0.068
745	0.066
746	0.065
746	0.064
747	0.064
747	0.063
748	0.063
748	0.062
748	0.061
749	0.06
749	0.059
750	0.058
750	0.057
751	0.057
751	0.056
751	0.056
752	0.056
752	0.055
753	0.055
753	0.054
754	0.054
754	0.054
754	0.054
755	0.054
755	0.054
756	0.053
756	0.052
757	0.051
757	0.05
758	0.048
758	0.047
758	0.046
759	0.045
759	0.042
760	0.04
760	0.038
761	0.036
761	0.034
761	0.033
762	0.031
762	0.03
763	0.029
763	0.028
764	0.026
764	0.024
764	0.023
765	0.021
765	0.019
766	0.018
766	0.018
767	0.017
767	0.015
768	0.013
768	0.012
768	0.011
769	0.01
769	0.009
770	0.007
770	0.006
771	0.003
771	0
771	-0.002
772	-0.005
772	-0.008
773	-0.01
773	-0.013
774	-0.015
774	-0.018
775	-0.02
775	-0.023
775	-0.026
776	-0.028
776	-0.031
777	-0.034
777	-0.037
778	-0.04
778	-0.043
778	-0.046
779	-0.048
779	-0.05
780	-0.053
780	-0.056
781	-0.06
781	-0.064
781	-0.068
782	-0.074
782	-0.079
783	-0.084
783	-0.089
784	-0.095
784	-0.102
784	-0.108
785	-0.114
785	-0.12
786	-0.126
786	-0.129
787	-0.129
787	-0.13
788	-0.134
788	-0.139
788	-0.144
789	-0.148
789	-0.15
790	-0.149
790	-0.149
791	-0.15
791	-0.152
791	-0.155
792	-0.149
792	-0.139
793	-0.133
793	-0.129
794	-0.127
794	-0.129
794	-0.134
795	-0.136
795	-0.136
796	-0.137
796	-0.14
797	-0.149
797	-0.16
797	-0.166
798	-0.172
798	-0.174
799	-0.175
799	-0.174
800	-0.173
800	-0.175
801	-0.178
801	-0.178
801	-0.179
802	-0.18
802	-0.181
803	-0.182
803	-0.183
804	-0.181
804	-0.176
804	-0.17
805	-0.166
805	-0.164
806	-0.162
806	-0.161
807	-0.16
807	-0.159
807	-0.159
808	-0.159
808	-0.16
809	-0.165
809	-0.171
810	-0.175
810	-0.178
810	-0.181
811	-0.185
811	-0.185
812	-0.181
812	-0.178
813	-0.178
813	-0.179
813	-0.179
814	-0.18
814	-0.179
815	-0.176
815	-0.172
816	-0.168
816	-0.165
817	-0.164
817	-0.161
817	-0.155
818	-0.147
818	-0.137
819	-0.127
819	-0.118
820	-0.111
820	-0.103
820	-0.096
821	-0.088
821	-0.082
822	-0.076
822	-0.072
823	-0.067
823	-0.065
823	-0.062
824	-0.059
824	-0.055
825	-0.052
825	-0.048
826	-0.045
826	-0.043
826	-0.041
827	-0.039
827	-0.037
828	-0.035
828	-0.033
829	-0.032
829	-0.03
829	-0.03
830	-0.029
830	-0.028
831	-0.027
831	-0.025
832	-0.024
832	-0.022
832	-0.021
833	-0.019
833	-0.017
834	-0.016
834	-0.014
835	-0.013
835	-0.012
835	-0.011
836	-0.01
836	-0.01
837	-0.009
837	-0.009
838	-0.009
838	-0.009
839	-0.009
839	-0.009
839	-0.009
840	-0.009
840	-0.009
841	-0.009
841	-0.009
842	-0.009
842	-0.009
842	-0.009
843	-0.01
843	-0.01
844	-0.01
844	-0.01
845	-0.011
845	-0.01
845	-0.01
846	-0.01
846	-0.01
847	-0.01
847	-0.01
848	-0.01
848	-0.01
848	-0.011
849	-0.011
849	-0.011
850	-0.011
850	-0.012
851	-0.012
851	-0.012
851	-0.012
852	-0.011
852	-0.011
853	-0.01
853	-0.009
854	-0.009
854	-0.008
854	-0.007
855	-0.007
855	-0.007
856	-0.007
856	-0.007
857	-0.007
857	-0.007
857	-0.007
858	-0.007
858	-0.008
859	-0.008
859	-0.008
860	-0.009
860	-0.009
860	-0.008
861	-0.008
861	-0.008
862	-0.007
862	-0.007
863	-0.007
863	-0.007
863	-0.006
864	-0.006
864	-0.005
865	-0.005
865	-0.004
866	-0.003
866	-0.003
866	-0.002
867	-0.001
867	0
868	0.002
868	0.003
869	0.004
869	0.004
869	0.004
870	0.004
870	0.004
871	0.003
871	0.003
872	0.002
872	0
872	-0.001
873	-0.002
873	-0.004
874	-0.005
874	-0.005
875	-0.006
875	-0.006
875	-0.006
876	-0.006
876	-0.006
877	-0.005
877	-0.005
878	-0.004
878	-0.003
878	-0.001
879	-0
879	0.001
880	0.001
880	0.002
881	0.002
881	0.003
881	0.003
882	0.003
882	0.003
883	0.002
883	0.002
884	0.001
884	0.001
884	0
885	0
885	0
886	0
886	-0
887	-0
887	-0
887	-0
888	-0
888	-0
889	0
889	0
890	0.001
890	0.001
890	0
891	0
891	-0
892	-0
892	-0.001
893	-0.001
893	-0.002
893	-0.003
894	-0.003
894	-0.004
895	-0.005
895	-0.006
895	-0.007
896	-0.007
896	-0.008
897	-0.008
897	-0.008
898	-0.007
898	-0.007
898	-0.006
899	-0.006
899	-0.005
900	-0.004
900	-0.003
901	-0.002
901	-0.001
901	-0.001
902	-0
902	-0
903	-0
903	-0
904	-0
904	-0
904	0
905	0
905	0.001
906	0.001
906	0.002
907	0.002
907	0.003
907	0.003
908	0.004
908	0.004
909	0.005
909	0.005
910	0.005
910	0.005
910	0.005
911	0.006
911	0.006
912	0.006
912	0.006
913	0.006
913	0.006
913	0.005
914	0.005
914	0.004
915	0.003
915	0.001
916	-0
916	-0.001
916	-0.003
917	-0.004
917	-0.005
918	-0.006
918	-0.007
918	-0.007
919	-0.008
919	-0.007
920	-0.007
920	-0.006
921	-0.006
921	-0.005
921	-0.004
922	-0.003
922	-0.002
923	-0.002
923	-0.001
924	-0
924	-0
924	-0
925	-0
925	-0.001
926	-0.001
926	-0.001
927	-0.002
927	-0.002
927	-0.003
928	-0.003
928	-0.003
929	-0.003
929	-0.003
930	-0.002
930	-0.002
930	-0.001
931	-0
931	0.001
932	0.002
932	0.002
933	0.003
933	0.004
933	0.005
934	0.005
934	0.006
935	0.006
935	0.006
935	0.006
936	0.007
936	0.006
937	0.006
937	0.006
938	0.005
938	0.004
938	0.004
939	0.003
939	0.002
940	0.002
940	0.001
941	0.001
941	0.001
941	0.001
942	0.001
942	0.002
943	0.002
943	0.002
944	0.003
944	0.003
944	0.003
945	0.003
945	0.004
946	0.004
946	0.004
946	0.004
947	0.004
947	0.004
948	0.004
948	0.003
949	0.003
949	0.003
949	0.003
950	0.003
950	0.003
951	0.003
951	0.003
952	0.004
952	0.004
952	0.004
953	0.005
953	0.005
954	0.004
954	0.004
955	0.004
955	0.003
955	0.003
956	0.003
956	0.002
957	0.002
957	0.001
957	0
958	-0.001
958	-0.002
959	-0.002
959	-0.003
960	-0.004
960	-0.005
960	-0.006
961	-0.007
961	-0.008
962	-0.009
962	-0.01
963	-0.01
963	-0.01
963	-0.009
964	-0.008
964	-0.007
965	-0.006
965	-0.005
966	-0.004
966	-0.003
966	-0.002
967	-0.001
967	-0
968	0
968	0
968	0.001
969	0.001
969	0.001
970	0.001
970	0
971	-0
971	-0
971	-0.001
972	-0.001
972	-0.001
973	-0.001
973	-0.001
974	-0.001
974	-0.002
974	-0.002
975	-0.002
975	-0.002
976	-0.002
976	-0.003
976	-0.003
977	-0.004
977	-0.004
978	-0.005
978	-0.006
979	-0.006
979	-0.007
979	-0.007
980	-0.008
980	-0.008
981	-0.009
981	-0.009
982	-0.008
982	-0.008
982	-0.008
983	-0.007
983	-0.007
984	-0.006
984	-0.006
984	-0.005
985	-0.005
985	-0.005
986	-0.005
986	-0.005
987	-0.005
987	-0.005
987	-0.005
988	-0.005
988	-0.005
989	-0.005
989	-0.005
990	-0.005
990	-0.004
990	-0.003
991	-0.003
991	-0.002
992	-0.001
992	-0.001
992	0
993	0.001
993	0.002
994	0.003
994	0.003
995	0.004
995	0.004
995	0.005
996	0.005
996	0.005
997	0.005
997	0.005
997	0.005
998	0.005
998	0.005
999	0.005
999	0.005
1000	0.005
1000	0.005
1000	0.006
1001	0.006
1001	0.007
1002	0.007
1002	0.007
1003	0.008
1003	0.008
1003	0.008
1004	0.008
1004	0.007
1005	0.007
1005	0.006
1005	0.006
1006	0.005
1006	0.005
1007	0.004
1007	0.003
1008	0.003
1008	0.003
1008	0.003
1009	0.003
1009	0.003
1010	0.004
1010	0.004
1010	0.004
1011	0.005
1011	0.005
1012	0.005
1012	0.005
1013	0.005
1013	0.005
1013	0.005
1014	0.005
1014	0.004
1015	0.004
1015	0.004
1016	0.004
1016	0.003
1016	0.003
1017	0.003
1017	0.003
1018	0.003
1018	0.003
1018	0.003
1019	0.003
1019	0.003
1020	0.003
1020	0.003
1021	0.003
1021	0.002
1021	0.002
1022	0.002
1022	0.002
1023	0.002
1023	0.001
1023	0.001
1024	0.001
1024	0.001
1025	0
1025	-0
1026	-0
1026	-0.001
1026	-0.001
1027	-0.001
1027	-0
1028	-0
1028	0
1028	0
1029	0.001
1029	0.001
1030	0.002
1030	0.002
1031	0.003
1031	0.003
1031	0.003
1032	0.003
1032	0.003
1033	0.004
1033	0.003
1033	0.003
1034	0.002
1034	0.001
1035	0.001
1035	-0
1036	-0.001
1036	-0.002
1036	-0.002
1037	-0.003
1037	-0.003
1038	-0.004
1038	-0.004
1039	-0.004
1039	-0.004
1039	-0.004
1040	-0.004
1040	-0.004
1041	-0.004
1041	-0.004
1041	-0.005
1042	-0.006
1042	-0.006
1043	-0.007
1043	-0.008
1044	-0.008
1044	-0.009
1044	-0.01
1045	-0.01
1045	-0.01
1046	-0.011
1046	-0.01
1046	-0.01
1047	-0.009
1047	-0.009
1048	-0.008
1048	-0.007
1049	-0.006
1049	-0.006
1049	-0.006
1050	-0.005
1050	-0.005
1051	-0.005
1051	-0.004
1051	-0.004
1052	-0.004
1052	-0.004
1053	-0.004
1053	-0.005
1053	-0.004
1054	-0.004
1054	-0.004
1055	-0.004
1055	-0.004
1056	-0.004
1056	-0.005
1056	-0.005
1057	-0.006
1057	-0.006
1058	-0.006
1058	-0.007
1058	-0.007
1059	-0.008
1059	-0.009
1060	-0.01
1060	-0.01
1061	-0.01
1061	-0.01
1061	-0.01
1062	-0.01
1062	-0.01
1063	-0.01
1063	-0.01
1063	-0.009
1064	-0.009
1064	-0.009
1065	-0.008
1065	-0.008
1066	-0.008
1066	-0.008
1066	-0.007
1067	-0.007
1067	-0.007
1068	-0.007
1068	-0.008
1068	-0.008
1069	-0.009
1069	-0.009
1070	-0.01
1070	-0.011
1071	-0.011
1071	-0.012
1071	-0.012
1072	-0.013
1072	-0.013
1073	-0.013
1073	-0.013
1073	-0.013
1074	-0.013
1074	-0.012
1075	-0.012
1075	-0.012
1076	-0.012
1076	-0.011
1076	-0.011
1077	-0.011
1077	-0.011
1078	-0.011
1078	-0.01
1078	-0.009
1079	-0.007
1079	-0.006
1080	-0.005
1080	-0.004
1080	-0.003
1081	-0.002
1081	-0.001
1082	0.001
1082	0.002
1083	0.003
1083	0.005
1083	0.005
1084	0.006
1084	0.007
1085	0.009
1085	0.01
1085	0.011
1086	0.012
1086	0.013
1087	0.014
1087	0.015
1088	0.015
1088	0.016
1088	0.017
1089	0.017
1089	0.018
1090	0.019
1090	0.02
1090	0.021
1091	0.022
1091	0.024
1092	0.026
1092	0.027
1092	0.03
1093	0.032
1093	0.035
1094	0.038
1094	0.041
1095	0.043
1095	0.045
1095	0.049
1096	0.052
1096	0.055
1097	0.058
1097	0.06
1097	0.063
1098	0.066
1098	0.068
1099	0.072
1099	0.076
1100	0.08
1100	0.084
1100	0.088
1101	0.093
1101	0.099
1102	0.106
1102	0.113
1102	0.119
1103	0.127
1103	0.137
1104	0.147
1104	0.157
1104	0.169
1105	0.18
1105	0.192
1106	0.202
1106	0.218
1107	0.234
1107	0.257
1107	0.285
1108	0.369
1108	0.499
1109	0.754
1109	-0
1109	-0
1110	-0
1110	-0
1111	-0
1111	-0
