Data from 15c-2a_Absorbance__875__00875.txt Node

Date: Wed Jan 17 10:09:35 CET 2024
User: Marek
Spectrometer: MAYP115816
Trigger mode: 0
Integration Time (sec): 2.000000E-1
Scans to average: 10
Electric dark correction enabled: true
Nonlinearity correction enabled: true
Boxcar width: 5
XAxis mode: Wavelengths
Number of Pixels in Spectrum: 2068
>>>>>Begin Spectral Data<<<<<
199	-1.586
199	-1.446
200	-1.286
200	-1.164
201	-1.088
201	-1.04
202	-0.969
202	-0.917
203	-0.872
203	-0.832
204	-0.808
204	-0.785
205	-0.762
205	-0.752
205	-0.751
206	-0.75
206	-0.746
207	-0.745
207	-0.741
208	-0.74
208	-0.739
209	-0.735
209	-0.734
210	-0.733
210	-0.733
211	-0.731
211	-0.73
212	-0.731
212	-0.73
213	-0.729
213	-0.728
213	-0.728
214	-0.727
214	-0.726
215	-0.724
215	-0.723
216	-0.723
216	-0.721
217	-0.716
217	-0.714
218	-0.713
218	-0.71
219	-0.706
219	-0.706
220	-0.703
220	-0.7
221	-0.695
221	-0.692
221	-0.688
222	-0.685
222	-0.68
223	-0.674
223	-0.671
224	-0.666
224	-0.659
225	-0.65
225	-0.643
226	-0.634
226	-0.622
227	-0.609
227	-0.598
228	-0.582
228	-0.564
229	-0.544
229	-0.52
229	-0.494
230	-0.466
230	-0.436
231	-0.402
231	-0.368
232	-0.332
232	-0.293
233	-0.252
233	-0.21
234	-0.17
234	-0.13
235	-0.091
235	-0.053
236	-0.017
236	0.017
236	0.049
237	0.08
237	0.108
238	0.133
238	0.156
239	0.178
239	0.198
240	0.216
240	0.232
241	0.246
241	0.26
242	0.272
242	0.283
243	0.293
243	0.301
243	0.309
244	0.317
244	0.324
245	0.33
245	0.335
246	0.341
246	0.346
247	0.35
247	0.354
248	0.358
248	0.362
249	0.365
249	0.368
250	0.371
250	0.374
250	0.377
251	0.379
251	0.381
252	0.384
252	0.386
253	0.388
253	0.389
254	0.391
254	0.392
255	0.394
255	0.395
256	0.396
256	0.397
257	0.398
257	0.398
258	0.399
258	0.399
258	0.399
259	0.399
259	0.399
260	0.399
260	0.399
261	0.399
261	0.399
262	0.398
262	0.398
263	0.397
263	0.396
264	0.395
264	0.395
265	0.394
265	0.393
265	0.392
266	0.391
266	0.39
267	0.389
267	0.387
268	0.386
268	0.384
269	0.383
269	0.381
270	0.379
270	0.377
271	0.375
271	0.373
272	0.371
272	0.369
272	0.367
273	0.365
273	0.363
274	0.361
274	0.359
275	0.357
275	0.355
276	0.353
276	0.351
277	0.348
277	0.346
278	0.344
278	0.341
278	0.339
279	0.337
279	0.334
280	0.332
280	0.33
281	0.328
281	0.326
282	0.324
282	0.322
283	0.32
283	0.318
284	0.317
284	0.315
285	0.313
285	0.311
285	0.309
286	0.308
286	0.306
287	0.304
287	0.303
288	0.301
288	0.3
289	0.298
289	0.296
290	0.295
290	0.294
291	0.292
291	0.291
292	0.289
292	0.288
292	0.287
293	0.286
293	0.284
294	0.284
294	0.282
295	0.281
295	0.28
296	0.279
296	0.278
297	0.277
297	0.277
298	0.276
298	0.275
298	0.274
299	0.273
299	0.273
300	0.272
300	0.271
301	0.27
301	0.27
302	0.269
302	0.268
303	0.267
303	0.267
304	0.266
304	0.265
305	0.265
305	0.264
305	0.263
306	0.263
306	0.262
307	0.261
307	0.26
308	0.26
308	0.259
309	0.259
309	0.258
310	0.257
310	0.256
311	0.256
311	0.255
311	0.254
312	0.253
312	0.253
313	0.252
313	0.252
314	0.251
314	0.25
315	0.249
315	0.249
316	0.248
316	0.247
317	0.247
317	0.246
318	0.245
318	0.244
318	0.244
319	0.243
319	0.242
320	0.242
320	0.241
321	0.24
321	0.239
322	0.239
322	0.238
323	0.237
323	0.236
324	0.235
324	0.235
324	0.234
325	0.233
325	0.232
326	0.232
326	0.231
327	0.23
327	0.23
328	0.229
328	0.228
329	0.228
329	0.227
330	0.226
330	0.225
330	0.225
331	0.224
331	0.223
332	0.223
332	0.222
333	0.221
333	0.22
334	0.22
334	0.219
335	0.218
335	0.218
336	0.217
336	0.216
336	0.216
337	0.215
337	0.215
338	0.214
338	0.214
339	0.213
339	0.213
340	0.212
340	0.212
341	0.211
341	0.211
342	0.21
342	0.209
342	0.209
343	0.208
343	0.208
344	0.208
344	0.207
345	0.206
345	0.206
346	0.205
346	0.205
347	0.205
347	0.204
348	0.204
348	0.204
348	0.203
349	0.203
349	0.202
350	0.202
350	0.201
351	0.201
351	0.2
352	0.2
352	0.2
353	0.199
353	0.199
354	0.199
354	0.198
354	0.198
355	0.197
355	0.197
356	0.197
356	0.196
357	0.196
357	0.195
358	0.195
358	0.195
359	0.195
359	0.195
360	0.195
360	0.195
360	0.195
361	0.195
361	0.195
362	0.195
362	0.195
363	0.195
363	0.195
364	0.195
364	0.194
365	0.194
365	0.194
366	0.193
366	0.193
366	0.193
367	0.193
367	0.193
368	0.193
368	0.192
369	0.192
369	0.192
370	0.192
370	0.191
371	0.191
371	0.191
372	0.191
372	0.19
372	0.19
373	0.19
373	0.189
374	0.189
374	0.189
375	0.189
375	0.189
376	0.189
376	0.189
377	0.189
377	0.189
378	0.189
378	0.189
378	0.189
379	0.189
379	0.189
380	0.188
380	0.188
381	0.188
381	0.188
382	0.188
382	0.187
383	0.187
383	0.187
383	0.186
384	0.186
384	0.186
385	0.186
385	0.186
386	0.186
386	0.186
387	0.185
387	0.185
388	0.185
388	0.185
389	0.185
389	0.185
389	0.185
390	0.185
390	0.185
391	0.184
391	0.185
392	0.185
392	0.184
393	0.184
393	0.184
394	0.184
394	0.184
394	0.184
395	0.183
395	0.183
396	0.183
396	0.183
397	0.183
397	0.183
398	0.183
398	0.183
399	0.182
399	0.182
400	0.182
400	0.182
400	0.182
401	0.181
401	0.18
402	0.18
402	0.18
403	0.179
403	0.179
404	0.179
404	0.179
405	0.179
405	0.178
405	0.178
406	0.178
406	0.178
407	0.178
407	0.178
408	0.177
408	0.177
409	0.177
409	0.176
410	0.176
410	0.176
411	0.176
411	0.176
411	0.176
412	0.175
412	0.175
413	0.175
413	0.175
414	0.175
414	0.175
415	0.175
415	0.175
416	0.174
416	0.174
416	0.174
417	0.174
417	0.174
418	0.174
418	0.174
419	0.174
419	0.174
420	0.175
420	0.175
421	0.175
421	0.176
421	0.176
422	0.176
422	0.176
423	0.176
423	0.176
424	0.176
424	0.175
425	0.175
425	0.174
426	0.174
426	0.174
427	0.173
427	0.173
427	0.173
428	0.173
428	0.173
429	0.173
429	0.173
430	0.173
430	0.173
431	0.173
431	0.173
432	0.173
432	0.173
432	0.172
433	0.171
433	0.171
434	0.17
434	0.17
435	0.17
435	0.17
436	0.17
436	0.171
437	0.171
437	0.171
437	0.171
438	0.171
438	0.171
439	0.171
439	0.171
440	0.171
440	0.171
441	0.17
441	0.17
442	0.17
442	0.17
442	0.17
443	0.17
443	0.17
444	0.17
444	0.171
445	0.171
445	0.171
446	0.171
446	0.171
447	0.171
447	0.171
447	0.17
448	0.17
448	0.17
449	0.17
449	0.17
450	0.17
450	0.17
451	0.17
451	0.17
452	0.17
452	0.17
452	0.17
453	0.17
453	0.17
454	0.17
454	0.17
455	0.17
455	0.17
456	0.17
456	0.17
457	0.17
457	0.17
458	0.17
458	0.17
458	0.17
459	0.17
459	0.17
460	0.17
460	0.17
461	0.17
461	0.17
462	0.169
462	0.17
463	0.17
463	0.17
463	0.171
464	0.171
464	0.171
465	0.171
465	0.172
466	0.173
466	0.173
467	0.173
467	0.174
467	0.173
468	0.173
468	0.173
469	0.172
469	0.172
470	0.172
470	0.172
471	0.172
471	0.171
472	0.171
472	0.171
472	0.172
473	0.172
473	0.173
474	0.173
474	0.174
475	0.175
475	0.175
476	0.175
476	0.176
477	0.176
477	0.176
477	0.177
478	0.176
478	0.177
479	0.177
479	0.178
480	0.178
480	0.179
481	0.18
481	0.181
482	0.182
482	0.183
482	0.184
483	0.186
483	0.187
484	0.189
484	0.189
485	0.19
485	0.191
486	0.192
486	0.193
487	0.193
487	0.194
487	0.195
488	0.195
488	0.195
489	0.196
489	0.197
490	0.198
490	0.198
491	0.199
491	0.201
492	0.202
492	0.202
492	0.203
493	0.204
493	0.205
494	0.206
494	0.208
495	0.21
495	0.211
496	0.212
496	0.214
496	0.216
497	0.217
497	0.218
498	0.22
498	0.221
499	0.222
499	0.223
500	0.225
500	0.226
501	0.227
501	0.228
501	0.23
502	0.231
502	0.233
503	0.235
503	0.236
504	0.237
504	0.238
505	0.239
505	0.24
506	0.241
506	0.242
506	0.243
507	0.245
507	0.246
508	0.247
508	0.249
509	0.25
509	0.252
510	0.253
510	0.254
511	0.255
511	0.256
511	0.257
512	0.258
512	0.259
513	0.259
513	0.259
514	0.26
514	0.26
515	0.26
515	0.261
515	0.261
516	0.262
516	0.263
517	0.264
517	0.264
518	0.265
518	0.265
519	0.266
519	0.266
520	0.266
520	0.265
520	0.265
521	0.264
521	0.263
522	0.262
522	0.262
523	0.261
523	0.261
524	0.261
524	0.262
524	0.262
525	0.262
525	0.263
526	0.263
526	0.264
527	0.264
527	0.264
528	0.264
528	0.264
529	0.264
529	0.264
529	0.263
530	0.263
530	0.262
531	0.261
531	0.261
532	0.26
532	0.259
533	0.258
533	0.257
533	0.256
534	0.254
534	0.253
535	0.252
535	0.251
536	0.25
536	0.249
537	0.248
537	0.246
538	0.246
538	0.244
538	0.243
539	0.242
539	0.241
540	0.239
540	0.237
541	0.235
541	0.233
542	0.231
542	0.229
542	0.227
543	0.225
543	0.223
544	0.221
544	0.219
545	0.218
545	0.216
546	0.215
546	0.213
547	0.21
547	0.208
547	0.205
548	0.203
548	0.201
549	0.199
549	0.197
550	0.195
550	0.192
551	0.19
551	0.188
551	0.187
552	0.185
552	0.183
553	0.182
553	0.18
554	0.178
554	0.176
555	0.174
555	0.171
556	0.169
556	0.166
556	0.164
557	0.161
557	0.159
558	0.157
558	0.154
559	0.152
559	0.151
560	0.149
560	0.148
560	0.147
561	0.146
561	0.145
562	0.143
562	0.142
563	0.14
563	0.137
564	0.135
564	0.133
564	0.13
565	0.128
565	0.126
566	0.123
566	0.121
567	0.119
567	0.118
568	0.117
568	0.116
568	0.115
569	0.115
569	0.115
570	0.114
570	0.112
571	0.112
571	0.111
572	0.11
572	0.109
573	0.108
573	0.107
573	0.105
574	0.104
574	0.104
575	0.103
575	0.103
576	0.102
576	0.101
577	0.1
577	0.099
577	0.098
578	0.098
578	0.097
579	0.097
579	0.096
580	0.094
580	0.092
581	0.089
581	0.087
581	0.086
582	0.086
582	0.085
583	0.084
583	0.083
584	0.08
584	0.077
585	0.077
585	0.076
585	0.076
586	0.076
586	0.075
587	0.074
587	0.072
588	0.071
588	0.07
589	0.07
589	0.07
590	0.07
590	0.07
590	0.07
591	0.071
591	0.07
592	0.07
592	0.069
593	0.068
593	0.068
594	0.067
594	0.066
594	0.065
595	0.064
595	0.063
596	0.062
596	0.063
597	0.064
597	0.065
598	0.065
598	0.066
598	0.067
599	0.067
599	0.067
600	0.066
600	0.066
601	0.065
601	0.064
602	0.062
602	0.062
602	0.061
603	0.061
603	0.062
604	0.063
604	0.063
605	0.065
605	0.066
606	0.067
606	0.066
606	0.066
607	0.066
607	0.066
608	0.065
608	0.064
609	0.063
609	0.063
610	0.063
610	0.062
610	0.062
611	0.064
611	0.065
612	0.066
612	0.067
613	0.069
613	0.07
614	0.069
614	0.068
614	0.068
615	0.067
615	0.066
616	0.066
616	0.065
617	0.064
617	0.062
618	0.061
618	0.06
618	0.059
619	0.06
619	0.061
620	0.062
620	0.063
621	0.063
621	0.064
622	0.064
622	0.064
622	0.065
623	0.065
623	0.066
624	0.066
624	0.065
625	0.065
625	0.066
626	0.066
626	0.066
626	0.067
627	0.068
627	0.068
628	0.069
628	0.07
629	0.07
629	0.071
630	0.071
630	0.071
630	0.072
631	0.073
631	0.074
632	0.075
632	0.076
633	0.077
633	0.078
634	0.08
634	0.081
634	0.082
635	0.084
635	0.085
636	0.086
636	0.087
637	0.087
637	0.088
638	0.089
638	0.09
638	0.091
639	0.092
639	0.093
640	0.094
640	0.095
641	0.097
641	0.098
642	0.1
642	0.102
642	0.104
643	0.105
643	0.107
644	0.11
644	0.112
645	0.114
645	0.116
646	0.119
646	0.121
646	0.124
647	0.127
647	0.129
648	0.131
648	0.133
649	0.135
649	0.137
650	0.139
650	0.142
650	0.144
651	0.146
651	0.148
652	0.15
652	0.152
653	0.154
653	0.16
653	0.169
654	0.135
654	0.11
655	0.113
655	0.114
656	0.116
656	0.117
657	0.118
657	0.12
657	0.121
658	0.119
658	0.111
659	0.141
659	0.184
660	0.189
660	0.192
661	0.194
661	0.197
661	0.2
662	0.204
662	0.208
663	0.211
663	0.214
664	0.217
664	0.22
665	0.223
665	0.226
665	0.228
666	0.231
666	0.233
667	0.234
667	0.236
668	0.239
668	0.241
669	0.244
669	0.247
669	0.251
670	0.254
670	0.257
671	0.26
671	0.262
672	0.264
672	0.266
672	0.268
673	0.27
673	0.271
674	0.272
674	0.273
675	0.273
675	0.274
676	0.276
676	0.277
676	0.278
677	0.28
677	0.282
678	0.283
678	0.284
679	0.286
679	0.288
680	0.29
680	0.292
680	0.293
681	0.294
681	0.296
682	0.297
682	0.298
683	0.299
683	0.3
684	0.301
684	0.301
684	0.301
685	0.301
685	0.301
686	0.302
686	0.302
687	0.302
687	0.302
687	0.302
688	0.302
688	0.301
689	0.302
689	0.302
690	0.302
690	0.301
691	0.3
691	0.299
691	0.298
692	0.297
692	0.296
693	0.295
693	0.295
694	0.293
694	0.291
695	0.291
695	0.292
695	0.291
696	0.291
696	0.29
697	0.289
697	0.287
698	0.286
698	0.284
698	0.283
699	0.282
699	0.28
700	0.278
700	0.276
701	0.275
701	0.273
702	0.271
702	0.269
702	0.268
703	0.266
703	0.264
704	0.261
704	0.26
705	0.258
705	0.256
705	0.254
706	0.253
706	0.251
707	0.249
707	0.247
708	0.245
708	0.243
709	0.241
709	0.239
709	0.235
710	0.232
710	0.229
711	0.227
711	0.224
712	0.221
712	0.219
713	0.217
713	0.215
713	0.213
714	0.211
714	0.209
715	0.208
715	0.206
716	0.204
716	0.203
716	0.201
717	0.2
717	0.199
718	0.197
718	0.196
719	0.194
719	0.193
720	0.191
720	0.189
720	0.187
721	0.184
721	0.182
722	0.179
722	0.177
723	0.175
723	0.173
723	0.171
724	0.169
724	0.167
725	0.164
725	0.162
726	0.159
726	0.157
727	0.155
727	0.152
727	0.15
728	0.147
728	0.144
729	0.143
729	0.141
730	0.139
730	0.137
730	0.136
731	0.134
731	0.132
732	0.131
732	0.129
733	0.127
733	0.125
734	0.122
734	0.12
734	0.118
735	0.117
735	0.115
736	0.114
736	0.113
737	0.112
737	0.112
737	0.111
738	0.109
738	0.107
739	0.106
739	0.104
740	0.101
740	0.099
741	0.097
741	0.094
741	0.09
742	0.086
742	0.083
743	0.081
743	0.079
744	0.078
744	0.076
744	0.075
745	0.073
745	0.071
746	0.07
746	0.069
747	0.069
747	0.068
748	0.067
748	0.066
748	0.065
749	0.063
749	0.062
750	0.061
750	0.06
751	0.059
751	0.059
751	0.059
752	0.058
752	0.057
753	0.056
753	0.056
754	0.056
754	0.055
754	0.055
755	0.055
755	0.055
756	0.054
756	0.052
757	0.051
757	0.051
758	0.05
758	0.048
758	0.047
759	0.046
759	0.044
760	0.042
760	0.039
761	0.037
761	0.036
761	0.035
762	0.033
762	0.032
763	0.032
763	0.03
764	0.028
764	0.027
764	0.025
765	0.023
765	0.022
766	0.021
766	0.02
767	0.019
767	0.017
768	0.015
768	0.013
768	0.012
769	0.011
769	0.01
770	0.009
770	0.007
771	0.005
771	0.002
771	-0
772	-0.003
772	-0.005
773	-0.007
773	-0.01
774	-0.013
774	-0.015
775	-0.017
775	-0.02
775	-0.023
776	-0.025
776	-0.028
777	-0.031
777	-0.033
778	-0.036
778	-0.038
778	-0.041
779	-0.042
779	-0.043
780	-0.046
780	-0.049
781	-0.051
781	-0.055
781	-0.059
782	-0.064
782	-0.069
783	-0.074
783	-0.079
784	-0.085
784	-0.091
784	-0.098
785	-0.104
785	-0.11
786	-0.116
786	-0.12
787	-0.121
787	-0.123
788	-0.129
788	-0.134
788	-0.14
789	-0.145
789	-0.147
790	-0.147
790	-0.149
791	-0.151
791	-0.153
791	-0.155
792	-0.15
792	-0.139
793	-0.133
793	-0.129
794	-0.128
794	-0.13
794	-0.134
795	-0.136
795	-0.137
796	-0.137
796	-0.14
797	-0.149
797	-0.16
797	-0.167
798	-0.172
798	-0.175
799	-0.175
799	-0.174
800	-0.174
800	-0.175
801	-0.178
801	-0.179
801	-0.179
802	-0.18
802	-0.182
803	-0.182
803	-0.183
804	-0.182
804	-0.177
804	-0.17
805	-0.166
805	-0.164
806	-0.162
806	-0.161
807	-0.16
807	-0.159
807	-0.159
808	-0.159
808	-0.161
809	-0.166
809	-0.171
810	-0.175
810	-0.178
810	-0.182
811	-0.185
811	-0.185
812	-0.181
812	-0.178
813	-0.178
813	-0.179
813	-0.179
814	-0.18
814	-0.179
815	-0.176
815	-0.172
816	-0.168
816	-0.165
817	-0.164
817	-0.161
817	-0.154
818	-0.146
818	-0.136
819	-0.125
819	-0.116
820	-0.109
820	-0.101
820	-0.093
821	-0.086
821	-0.08
822	-0.074
822	-0.07
823	-0.066
823	-0.063
823	-0.061
824	-0.059
824	-0.056
825	-0.052
825	-0.049
826	-0.046
826	-0.045
826	-0.043
827	-0.041
827	-0.04
828	-0.038
828	-0.036
829	-0.035
829	-0.034
829	-0.033
830	-0.033
830	-0.032
831	-0.03
831	-0.028
832	-0.027
832	-0.026
832	-0.024
833	-0.023
833	-0.021
834	-0.02
834	-0.018
835	-0.016
835	-0.015
835	-0.014
836	-0.013
836	-0.012
837	-0.012
837	-0.011
838	-0.011
838	-0.011
839	-0.01
839	-0.01
839	-0.01
840	-0.01
840	-0.01
841	-0.01
841	-0.009
842	-0.009
842	-0.009
842	-0.009
843	-0.009
843	-0.009
844	-0.009
844	-0.009
845	-0.009
845	-0.008
845	-0.008
846	-0.008
846	-0.007
847	-0.007
847	-0.007
848	-0.007
848	-0.007
848	-0.007
849	-0.007
849	-0.008
850	-0.008
850	-0.009
851	-0.009
851	-0.01
851	-0.01
852	-0.01
852	-0.01
853	-0.009
853	-0.009
854	-0.008
854	-0.007
854	-0.007
855	-0.006
855	-0.006
856	-0.006
856	-0.006
857	-0.006
857	-0.007
857	-0.007
858	-0.007
858	-0.008
859	-0.008
859	-0.009
860	-0.009
860	-0.009
860	-0.009
861	-0.008
861	-0.008
862	-0.008
862	-0.008
863	-0.008
863	-0.008
863	-0.008
864	-0.008
864	-0.007
865	-0.007
865	-0.006
866	-0.006
866	-0.005
866	-0.004
867	-0.002
867	-0.001
868	0.001
868	0.002
869	0.003
869	0.004
869	0.004
870	0.004
870	0.004
871	0.003
871	0.002
872	0.001
872	-0.001
872	-0.002
873	-0.004
873	-0.005
874	-0.006
874	-0.006
875	-0.007
875	-0.006
875	-0.006
876	-0.005
876	-0.005
877	-0.004
877	-0.002
878	-0.001
878	-0
878	0.001
879	0.002
879	0.003
880	0.004
880	0.004
881	0.004
881	0.005
881	0.005
882	0.005
882	0.004
883	0.004
883	0.003
884	0.003
884	0.002
884	0.002
885	0.001
885	0.001
886	0.001
886	0.001
887	0.001
887	0.001
887	0.001
888	0.001
888	0.001
889	0.001
889	0.001
890	0.001
890	0.001
890	0.001
891	0
891	-0
892	-0.001
892	-0.002
893	-0.002
893	-0.003
893	-0.004
894	-0.005
894	-0.006
895	-0.007
895	-0.008
895	-0.009
896	-0.009
896	-0.01
897	-0.01
897	-0.01
898	-0.01
898	-0.01
898	-0.01
899	-0.009
899	-0.008
900	-0.008
900	-0.007
901	-0.006
901	-0.005
901	-0.004
902	-0.003
902	-0.003
903	-0.003
903	-0.003
904	-0.003
904	-0.003
904	-0.002
905	-0.002
905	-0.002
906	-0.001
906	-0
907	0
907	0.001
907	0.001
908	0.002
908	0.003
909	0.003
909	0.004
910	0.004
910	0.004
910	0.004
911	0.005
911	0.005
912	0.005
912	0.006
913	0.006
913	0.006
913	0.005
914	0.005
914	0.004
915	0.003
915	0.001
916	0
916	-0.002
916	-0.003
917	-0.004
917	-0.006
918	-0.007
918	-0.008
918	-0.008
919	-0.008
919	-0.008
920	-0.007
920	-0.006
921	-0.006
921	-0.005
921	-0.004
922	-0.003
922	-0.002
923	-0.001
923	-0.001
924	-0.001
924	-0.001
924	-0.001
925	-0.001
925	-0.001
926	-0.001
926	-0.002
927	-0.002
927	-0.003
927	-0.003
928	-0.003
928	-0.004
929	-0.004
929	-0.003
930	-0.003
930	-0.003
930	-0.002
931	-0.002
931	-0.001
932	-0
932	0
933	0.001
933	0.002
933	0.002
934	0.003
934	0.003
935	0.003
935	0.004
935	0.004
936	0.004
936	0.004
937	0.004
937	0.003
938	0.002
938	0.002
938	0.001
939	0.001
939	0
940	-0.001
940	-0.001
941	-0.002
941	-0.002
941	-0.002
942	-0.002
942	-0.001
943	-0.001
943	-0.001
944	-0.001
944	-0.001
944	-0.001
945	-0.001
945	-0.001
946	-0.001
946	-0.001
946	-0.002
947	-0.002
947	-0.002
948	-0.003
948	-0.003
949	-0.004
949	-0.004
949	-0.004
950	-0.004
950	-0.004
951	-0.003
951	-0.003
952	-0.003
952	-0.003
952	-0.003
953	-0.002
953	-0.003
954	-0.003
954	-0.003
955	-0.003
955	-0.004
955	-0.004
956	-0.004
956	-0.004
957	-0.005
957	-0.005
957	-0.006
958	-0.007
958	-0.008
959	-0.008
959	-0.009
960	-0.01
960	-0.011
960	-0.012
961	-0.013
961	-0.014
962	-0.014
962	-0.014
963	-0.014
963	-0.014
963	-0.013
964	-0.012
964	-0.011
965	-0.01
965	-0.008
966	-0.007
966	-0.006
966	-0.005
967	-0.004
967	-0.003
968	-0.002
968	-0.002
968	-0.001
969	-0.001
969	-0.001
970	-0.001
970	-0.002
971	-0.002
971	-0.002
971	-0.003
972	-0.003
972	-0.003
973	-0.003
973	-0.003
974	-0.004
974	-0.004
974	-0.004
975	-0.003
975	-0.003
976	-0.003
976	-0.003
976	-0.004
977	-0.004
977	-0.005
978	-0.006
978	-0.007
979	-0.007
979	-0.008
979	-0.009
980	-0.01
980	-0.011
981	-0.012
981	-0.012
982	-0.012
982	-0.012
982	-0.012
983	-0.012
983	-0.011
984	-0.011
984	-0.01
984	-0.009
985	-0.009
985	-0.008
986	-0.008
986	-0.008
987	-0.008
987	-0.008
987	-0.008
988	-0.008
988	-0.008
989	-0.008
989	-0.008
990	-0.008
990	-0.007
990	-0.006
991	-0.005
991	-0.004
992	-0.003
992	-0.003
992	-0.002
993	-0.001
993	-0
994	0
994	0.001
995	0.001
995	0.001
995	0.001
996	0.001
996	0.001
997	0.001
997	0
997	0
998	0
998	0
999	0.001
999	0.001
1000	0.001
1000	0.002
1000	0.002
1001	0.003
1001	0.003
1002	0.004
1002	0.004
1003	0.005
1003	0.005
1003	0.005
1004	0.005
1004	0.004
1005	0.004
1005	0.003
1005	0.003
1006	0.002
1006	0.001
1007	0
1007	-0
1008	-0.001
1008	-0.001
1008	-0.001
1009	-0.001
1009	-0.001
1010	-0.001
1010	-0.001
1010	-0.001
1011	-0
1011	-0
1012	-0
1012	-0.001
1013	-0.001
1013	-0.001
1013	-0.002
1014	-0.002
1014	-0.003
1015	-0.003
1015	-0.003
1016	-0.004
1016	-0.004
1016	-0.004
1017	-0.004
1017	-0.005
1018	-0.005
1018	-0.005
1018	-0.005
1019	-0.005
1019	-0.005
1020	-0.006
1020	-0.006
1021	-0.006
1021	-0.006
1021	-0.006
1022	-0.006
1022	-0.006
1023	-0.006
1023	-0.006
1023	-0.006
1024	-0.006
1024	-0.007
1025	-0.007
1025	-0.007
1026	-0.007
1026	-0.007
1026	-0.008
1027	-0.008
1027	-0.008
1028	-0.008
1028	-0.007
1028	-0.007
1029	-0.007
1029	-0.007
1030	-0.006
1030	-0.006
1031	-0.006
1031	-0.006
1031	-0.005
1032	-0.006
1032	-0.005
1033	-0.006
1033	-0.006
1033	-0.007
1034	-0.008
1034	-0.009
1035	-0.01
1035	-0.011
1036	-0.012
1036	-0.012
1036	-0.013
1037	-0.014
1037	-0.014
1038	-0.015
1038	-0.015
1039	-0.014
1039	-0.014
1039	-0.014
1040	-0.013
1040	-0.013
1041	-0.013
1041	-0.013
1041	-0.014
1042	-0.014
1042	-0.015
1043	-0.016
1043	-0.017
1044	-0.017
1044	-0.018
1044	-0.018
1045	-0.019
1045	-0.019
1046	-0.02
1046	-0.02
1046	-0.019
1047	-0.019
1047	-0.018
1048	-0.017
1048	-0.017
1049	-0.016
1049	-0.016
1049	-0.016
1050	-0.016
1050	-0.015
1051	-0.015
1051	-0.015
1051	-0.015
1052	-0.015
1052	-0.015
1053	-0.015
1053	-0.015
1053	-0.015
1054	-0.015
1054	-0.015
1055	-0.015
1055	-0.015
1056	-0.016
1056	-0.016
1056	-0.017
1057	-0.018
1057	-0.019
1058	-0.019
1058	-0.02
1058	-0.02
1059	-0.021
1059	-0.022
1060	-0.022
1060	-0.022
1061	-0.022
1061	-0.022
1061	-0.022
1062	-0.022
1062	-0.022
1063	-0.022
1063	-0.023
1063	-0.022
1064	-0.022
1064	-0.022
1065	-0.022
1065	-0.023
1066	-0.023
1066	-0.023
1066	-0.023
1067	-0.023
1067	-0.023
1068	-0.024
1068	-0.025
1068	-0.025
1069	-0.026
1069	-0.027
1070	-0.027
1070	-0.028
1071	-0.028
1071	-0.029
1071	-0.03
1072	-0.03
1072	-0.03
1073	-0.03
1073	-0.03
1073	-0.03
1074	-0.029
1074	-0.029
1075	-0.029
1075	-0.029
1076	-0.03
1076	-0.029
1076	-0.03
1077	-0.03
1077	-0.03
1078	-0.03
1078	-0.029
1078	-0.028
1079	-0.027
1079	-0.026
1080	-0.025
1080	-0.024
1080	-0.023
1081	-0.022
1081	-0.02
1082	-0.019
1082	-0.018
1083	-0.017
1083	-0.017
1083	-0.016
1084	-0.016
1084	-0.014
1085	-0.013
1085	-0.012
1085	-0.011
1086	-0.01
1086	-0.01
1087	-0.009
1087	-0.008
1088	-0.008
1088	-0.008
1088	-0.008
1089	-0.008
1089	-0.008
1090	-0.008
1090	-0.008
1090	-0.008
1091	-0.007
1091	-0.006
1092	-0.005
1092	-0.003
1092	-0.002
1093	-0
1093	0.002
1094	0.004
1094	0.006
1095	0.007
1095	0.008
1095	0.011
1096	0.013
1096	0.016
1097	0.018
1097	0.02
1097	0.021
1098	0.023
1098	0.025
1099	0.027
1099	0.03
1100	0.033
1100	0.034
1100	0.037
1101	0.039
1101	0.042
1102	0.047
1102	0.05
1102	0.055
1103	0.059
1103	0.065
1104	0.07
1104	0.077
1104	0.086
1105	0.094
1105	0.099
1106	0.105
1106	0.115
1107	0.123
1107	0.138
1107	0.153
1108	0.207
1108	0.283
1109	0.397
1109	0.611
1109	0.839
1110	-0
1110	-0
1111	-0
1111	-0
