Data from 15c-2a_Absorbance__1522__01522.txt Node

Date: Wed Jan 17 10:31:08 CET 2024
User: Marek
Spectrometer: MAYP115816
Trigger mode: 0
Integration Time (sec): 2.000000E-1
Scans to average: 10
Electric dark correction enabled: true
Nonlinearity correction enabled: true
Boxcar width: 5
XAxis mode: Wavelengths
Number of Pixels in Spectrum: 2068
>>>>>Begin Spectral Data<<<<<
199	-1.604
199	-1.464
200	-1.306
200	-1.183
201	-1.107
201	-1.061
202	-0.99
202	-0.939
203	-0.894
203	-0.856
204	-0.831
204	-0.808
205	-0.786
205	-0.775
205	-0.774
206	-0.773
206	-0.769
207	-0.767
207	-0.763
208	-0.761
208	-0.761
209	-0.756
209	-0.755
210	-0.755
210	-0.756
211	-0.754
211	-0.754
212	-0.755
212	-0.755
213	-0.755
213	-0.754
213	-0.752
214	-0.752
214	-0.751
215	-0.75
215	-0.749
216	-0.749
216	-0.747
217	-0.742
217	-0.74
218	-0.739
218	-0.736
219	-0.733
219	-0.732
220	-0.728
220	-0.726
221	-0.72
221	-0.717
221	-0.713
222	-0.709
222	-0.705
223	-0.699
223	-0.696
224	-0.692
224	-0.684
225	-0.676
225	-0.668
226	-0.66
226	-0.647
227	-0.634
227	-0.622
228	-0.606
228	-0.588
229	-0.567
229	-0.542
229	-0.516
230	-0.487
230	-0.456
231	-0.421
231	-0.386
232	-0.349
232	-0.308
233	-0.266
233	-0.223
234	-0.18
234	-0.138
235	-0.097
235	-0.058
236	-0.019
236	0.017
236	0.052
237	0.085
237	0.115
238	0.143
238	0.168
239	0.192
239	0.214
240	0.234
240	0.252
241	0.268
241	0.282
242	0.295
242	0.308
243	0.319
243	0.329
243	0.338
244	0.346
244	0.353
245	0.359
245	0.366
246	0.371
246	0.377
247	0.382
247	0.387
248	0.391
248	0.395
249	0.399
249	0.403
250	0.406
250	0.409
250	0.412
251	0.415
251	0.417
252	0.42
252	0.422
253	0.424
253	0.425
254	0.427
254	0.428
255	0.429
255	0.43
256	0.432
256	0.432
257	0.433
257	0.433
258	0.434
258	0.434
258	0.435
259	0.435
259	0.435
260	0.435
260	0.435
261	0.435
261	0.435
262	0.434
262	0.434
263	0.433
263	0.432
264	0.431
264	0.431
265	0.43
265	0.429
265	0.428
266	0.427
266	0.425
267	0.424
267	0.423
268	0.421
268	0.42
269	0.418
269	0.416
270	0.414
270	0.413
271	0.41
271	0.408
272	0.406
272	0.404
272	0.402
273	0.4
273	0.398
274	0.396
274	0.393
275	0.391
275	0.389
276	0.387
276	0.385
277	0.383
277	0.38
278	0.378
278	0.376
278	0.374
279	0.371
279	0.369
280	0.367
280	0.365
281	0.362
281	0.36
282	0.358
282	0.356
283	0.354
283	0.352
284	0.35
284	0.348
285	0.347
285	0.345
285	0.343
286	0.341
286	0.339
287	0.338
287	0.336
288	0.334
288	0.333
289	0.331
289	0.33
290	0.328
290	0.326
291	0.325
291	0.323
292	0.322
292	0.321
292	0.319
293	0.318
293	0.317
294	0.315
294	0.314
295	0.313
295	0.312
296	0.311
296	0.31
297	0.309
297	0.308
298	0.307
298	0.306
298	0.305
299	0.304
299	0.304
300	0.303
300	0.302
301	0.301
301	0.3
302	0.299
302	0.299
303	0.298
303	0.297
304	0.296
304	0.295
305	0.295
305	0.294
305	0.293
306	0.292
306	0.291
307	0.29
307	0.289
308	0.289
308	0.288
309	0.287
309	0.286
310	0.286
310	0.285
311	0.284
311	0.283
311	0.283
312	0.282
312	0.281
313	0.28
313	0.28
314	0.279
314	0.278
315	0.277
315	0.276
316	0.276
316	0.275
317	0.274
317	0.273
318	0.273
318	0.272
318	0.271
319	0.27
319	0.269
320	0.269
320	0.268
321	0.267
321	0.266
322	0.265
322	0.264
323	0.263
323	0.262
324	0.261
324	0.261
324	0.26
325	0.259
325	0.258
326	0.257
326	0.257
327	0.256
327	0.255
328	0.255
328	0.254
329	0.253
329	0.253
330	0.252
330	0.251
330	0.25
331	0.25
331	0.249
332	0.248
332	0.247
333	0.246
333	0.245
334	0.245
334	0.244
335	0.243
335	0.242
336	0.241
336	0.241
336	0.24
337	0.239
337	0.239
338	0.238
338	0.237
339	0.237
339	0.236
340	0.236
340	0.235
341	0.235
341	0.234
342	0.234
342	0.233
342	0.233
343	0.232
343	0.232
344	0.231
344	0.231
345	0.23
345	0.23
346	0.229
346	0.229
347	0.228
347	0.228
348	0.227
348	0.227
348	0.227
349	0.226
349	0.225
350	0.225
350	0.225
351	0.224
351	0.224
352	0.223
352	0.223
353	0.222
353	0.222
354	0.222
354	0.221
354	0.221
355	0.22
355	0.22
356	0.219
356	0.219
357	0.218
357	0.218
358	0.217
358	0.217
359	0.217
359	0.217
360	0.217
360	0.217
360	0.217
361	0.217
361	0.217
362	0.218
362	0.217
363	0.217
363	0.217
364	0.217
364	0.216
365	0.216
365	0.216
366	0.215
366	0.215
366	0.215
367	0.215
367	0.215
368	0.214
368	0.214
369	0.214
369	0.214
370	0.213
370	0.213
371	0.213
371	0.213
372	0.212
372	0.212
372	0.212
373	0.212
373	0.211
374	0.211
374	0.211
375	0.211
375	0.21
376	0.21
376	0.21
377	0.21
377	0.21
378	0.21
378	0.21
378	0.211
379	0.211
379	0.21
380	0.211
380	0.21
381	0.21
381	0.21
382	0.21
382	0.21
383	0.209
383	0.209
383	0.208
384	0.208
384	0.207
385	0.207
385	0.207
386	0.207
386	0.207
387	0.207
387	0.206
388	0.206
388	0.206
389	0.206
389	0.206
389	0.206
390	0.206
390	0.206
391	0.206
391	0.206
392	0.206
392	0.205
393	0.205
393	0.205
394	0.205
394	0.204
394	0.204
395	0.204
395	0.204
396	0.203
396	0.203
397	0.203
397	0.203
398	0.203
398	0.203
399	0.203
399	0.203
400	0.202
400	0.202
400	0.202
401	0.201
401	0.2
402	0.2
402	0.2
403	0.2
403	0.2
404	0.2
404	0.199
405	0.199
405	0.199
405	0.199
406	0.199
406	0.199
407	0.198
407	0.198
408	0.197
408	0.197
409	0.197
409	0.196
410	0.196
410	0.196
411	0.196
411	0.196
411	0.195
412	0.195
412	0.195
413	0.194
413	0.194
414	0.194
414	0.194
415	0.194
415	0.194
416	0.193
416	0.193
416	0.193
417	0.193
417	0.193
418	0.193
418	0.193
419	0.193
419	0.194
420	0.194
420	0.194
421	0.195
421	0.195
421	0.195
422	0.195
422	0.195
423	0.195
423	0.194
424	0.194
424	0.193
425	0.193
425	0.192
426	0.192
426	0.192
427	0.191
427	0.192
427	0.192
428	0.192
428	0.192
429	0.192
429	0.192
430	0.192
430	0.192
431	0.192
431	0.192
432	0.192
432	0.191
432	0.191
433	0.19
433	0.189
434	0.189
434	0.189
435	0.189
435	0.189
436	0.189
436	0.189
437	0.189
437	0.189
437	0.19
438	0.19
438	0.19
439	0.19
439	0.189
440	0.189
440	0.189
441	0.189
441	0.189
442	0.189
442	0.188
442	0.188
443	0.188
443	0.188
444	0.189
444	0.189
445	0.189
445	0.189
446	0.189
446	0.189
447	0.189
447	0.188
447	0.188
448	0.188
448	0.188
449	0.188
449	0.188
450	0.188
450	0.188
451	0.188
451	0.188
452	0.188
452	0.188
452	0.188
453	0.188
453	0.188
454	0.188
454	0.188
455	0.188
455	0.188
456	0.188
456	0.188
457	0.188
457	0.188
458	0.188
458	0.188
458	0.188
459	0.188
459	0.188
460	0.188
460	0.187
461	0.187
461	0.187
462	0.187
462	0.187
463	0.188
463	0.188
463	0.189
464	0.189
464	0.189
465	0.189
465	0.189
466	0.19
466	0.19
467	0.19
467	0.191
467	0.19
468	0.19
468	0.19
469	0.19
469	0.189
470	0.189
470	0.189
471	0.189
471	0.189
472	0.189
472	0.189
472	0.189
473	0.19
473	0.191
474	0.191
474	0.192
475	0.193
475	0.193
476	0.193
476	0.194
477	0.194
477	0.194
477	0.195
478	0.195
478	0.195
479	0.196
479	0.196
480	0.197
480	0.198
481	0.198
481	0.199
482	0.2
482	0.201
482	0.203
483	0.204
483	0.206
484	0.208
484	0.208
485	0.209
485	0.21
486	0.211
486	0.212
487	0.213
487	0.213
487	0.214
488	0.214
488	0.214
489	0.215
489	0.217
490	0.218
490	0.218
491	0.219
491	0.221
492	0.222
492	0.222
492	0.223
493	0.224
493	0.225
494	0.227
494	0.228
495	0.23
495	0.231
496	0.233
496	0.234
496	0.236
497	0.238
497	0.239
498	0.241
498	0.242
499	0.243
499	0.244
500	0.246
500	0.247
501	0.249
501	0.25
501	0.252
502	0.253
502	0.255
503	0.257
503	0.258
504	0.26
504	0.261
505	0.262
505	0.263
506	0.265
506	0.266
506	0.267
507	0.268
507	0.269
508	0.271
508	0.272
509	0.274
509	0.275
510	0.277
510	0.278
511	0.279
511	0.28
511	0.281
512	0.282
512	0.283
513	0.283
513	0.284
514	0.284
514	0.284
515	0.285
515	0.285
515	0.286
516	0.287
516	0.288
517	0.289
517	0.289
518	0.29
518	0.29
519	0.29
519	0.29
520	0.29
520	0.29
520	0.289
521	0.288
521	0.287
522	0.286
522	0.286
523	0.286
523	0.286
524	0.286
524	0.286
524	0.287
525	0.287
525	0.287
526	0.288
526	0.288
527	0.289
527	0.289
528	0.288
528	0.288
529	0.288
529	0.287
529	0.287
530	0.286
530	0.286
531	0.285
531	0.284
532	0.283
532	0.282
533	0.282
533	0.281
533	0.28
534	0.278
534	0.277
535	0.276
535	0.275
536	0.274
536	0.273
537	0.272
537	0.271
538	0.27
538	0.268
538	0.267
539	0.265
539	0.264
540	0.262
540	0.26
541	0.257
541	0.255
542	0.253
542	0.25
542	0.248
543	0.246
543	0.244
544	0.241
544	0.239
545	0.238
545	0.236
546	0.235
546	0.233
547	0.23
547	0.228
547	0.225
548	0.223
548	0.22
549	0.218
549	0.216
550	0.213
550	0.21
551	0.208
551	0.205
551	0.203
552	0.201
552	0.2
553	0.198
553	0.197
554	0.195
554	0.193
555	0.19
555	0.188
556	0.185
556	0.183
556	0.18
557	0.178
557	0.176
558	0.173
558	0.171
559	0.169
559	0.167
560	0.166
560	0.164
560	0.163
561	0.162
561	0.16
562	0.159
562	0.156
563	0.154
563	0.151
564	0.149
564	0.146
564	0.143
565	0.141
565	0.139
566	0.136
566	0.134
567	0.132
567	0.131
568	0.13
568	0.129
568	0.129
569	0.129
569	0.129
570	0.128
570	0.126
571	0.126
571	0.125
572	0.124
572	0.123
573	0.121
573	0.12
573	0.118
574	0.117
574	0.116
575	0.115
575	0.115
576	0.115
576	0.112
577	0.111
577	0.11
577	0.109
578	0.108
578	0.108
579	0.107
579	0.107
580	0.105
580	0.102
581	0.099
581	0.098
581	0.097
582	0.096
582	0.096
583	0.096
583	0.094
584	0.091
584	0.087
585	0.087
585	0.087
585	0.086
586	0.085
586	0.085
587	0.083
587	0.081
588	0.079
588	0.078
589	0.078
589	0.078
590	0.078
590	0.078
590	0.079
591	0.079
591	0.079
592	0.078
592	0.077
593	0.077
593	0.076
594	0.075
594	0.074
594	0.073
595	0.072
595	0.071
596	0.07
596	0.071
597	0.073
597	0.074
598	0.074
598	0.075
598	0.076
599	0.077
599	0.076
600	0.076
600	0.075
601	0.074
601	0.073
602	0.071
602	0.071
602	0.071
603	0.07
603	0.072
604	0.072
604	0.073
605	0.075
605	0.076
606	0.076
606	0.075
606	0.075
607	0.074
607	0.074
608	0.073
608	0.071
609	0.07
609	0.07
610	0.07
610	0.069
610	0.069
611	0.07
611	0.072
612	0.073
612	0.074
613	0.076
613	0.077
614	0.076
614	0.075
614	0.074
615	0.074
615	0.073
616	0.072
616	0.071
617	0.07
617	0.069
618	0.067
618	0.066
618	0.066
619	0.066
619	0.068
620	0.069
620	0.07
621	0.071
621	0.071
622	0.071
622	0.072
622	0.072
623	0.072
623	0.073
624	0.074
624	0.073
625	0.072
625	0.073
626	0.072
626	0.073
626	0.074
627	0.075
627	0.075
628	0.076
628	0.077
629	0.078
629	0.079
630	0.079
630	0.079
630	0.081
631	0.082
631	0.083
632	0.083
632	0.084
633	0.086
633	0.087
634	0.089
634	0.091
634	0.092
635	0.094
635	0.095
636	0.096
636	0.097
637	0.098
637	0.098
638	0.099
638	0.101
638	0.102
639	0.103
639	0.104
640	0.105
640	0.107
641	0.108
641	0.11
642	0.112
642	0.115
642	0.116
643	0.118
643	0.119
644	0.121
644	0.123
645	0.125
645	0.127
646	0.129
646	0.132
646	0.134
647	0.137
647	0.14
648	0.142
648	0.144
649	0.146
649	0.148
650	0.151
650	0.153
650	0.155
651	0.157
651	0.159
652	0.16
652	0.162
653	0.165
653	0.173
653	0.184
654	0.147
654	0.119
655	0.122
655	0.124
656	0.125
656	0.127
657	0.129
657	0.13
657	0.132
658	0.129
658	0.119
659	0.152
659	0.199
660	0.206
660	0.208
661	0.211
661	0.214
661	0.217
662	0.221
662	0.224
663	0.228
663	0.231
664	0.234
664	0.237
665	0.24
665	0.243
665	0.246
666	0.249
666	0.251
667	0.253
667	0.255
668	0.258
668	0.26
669	0.263
669	0.266
669	0.27
670	0.274
670	0.277
671	0.279
671	0.282
672	0.284
672	0.286
672	0.288
673	0.29
673	0.292
674	0.293
674	0.294
675	0.294
675	0.296
676	0.298
676	0.299
676	0.3
677	0.302
677	0.303
678	0.305
678	0.306
679	0.307
679	0.309
680	0.311
680	0.313
680	0.314
681	0.316
681	0.317
682	0.318
682	0.319
683	0.321
683	0.322
684	0.323
684	0.323
684	0.322
685	0.323
685	0.323
686	0.324
686	0.324
687	0.325
687	0.325
687	0.325
688	0.325
688	0.324
689	0.325
689	0.325
690	0.324
690	0.323
691	0.321
691	0.32
691	0.318
692	0.317
692	0.315
693	0.314
693	0.313
694	0.311
694	0.309
695	0.309
695	0.31
695	0.309
696	0.308
696	0.307
697	0.306
697	0.305
698	0.304
698	0.303
698	0.302
699	0.301
699	0.299
700	0.297
700	0.296
701	0.295
701	0.293
702	0.292
702	0.29
702	0.288
703	0.286
703	0.284
704	0.282
704	0.281
705	0.279
705	0.276
705	0.274
706	0.272
706	0.27
707	0.268
707	0.265
708	0.262
708	0.26
709	0.258
709	0.255
709	0.252
710	0.248
710	0.246
711	0.243
711	0.24
712	0.238
712	0.235
713	0.233
713	0.231
713	0.23
714	0.227
714	0.226
715	0.224
715	0.222
716	0.22
716	0.218
716	0.216
717	0.215
717	0.213
718	0.211
718	0.209
719	0.208
719	0.207
720	0.205
720	0.203
720	0.201
721	0.198
721	0.196
722	0.194
722	0.191
723	0.189
723	0.187
723	0.184
724	0.182
724	0.179
725	0.177
725	0.174
726	0.171
726	0.169
727	0.166
727	0.163
727	0.161
728	0.158
728	0.156
729	0.155
729	0.153
730	0.151
730	0.149
730	0.148
731	0.146
731	0.144
732	0.143
732	0.141
733	0.138
733	0.136
734	0.133
734	0.131
734	0.129
735	0.128
735	0.126
736	0.125
736	0.124
737	0.123
737	0.123
737	0.121
738	0.119
738	0.116
739	0.114
739	0.112
740	0.109
740	0.107
741	0.104
741	0.101
741	0.097
742	0.093
742	0.09
743	0.088
743	0.086
744	0.084
744	0.083
744	0.081
745	0.079
745	0.077
746	0.075
746	0.074
747	0.073
747	0.073
748	0.072
748	0.071
748	0.07
749	0.069
749	0.068
750	0.067
750	0.066
751	0.066
751	0.066
751	0.066
752	0.065
752	0.064
753	0.063
753	0.063
754	0.063
754	0.062
754	0.063
755	0.063
755	0.063
756	0.061
756	0.059
757	0.058
757	0.057
758	0.056
758	0.054
758	0.053
759	0.052
759	0.049
760	0.047
760	0.045
761	0.043
761	0.043
761	0.042
762	0.041
762	0.04
763	0.04
763	0.038
764	0.036
764	0.034
764	0.032
765	0.03
765	0.028
766	0.027
766	0.026
767	0.025
767	0.022
768	0.019
768	0.017
768	0.016
769	0.015
769	0.014
770	0.012
770	0.011
771	0.008
771	0.006
771	0.003
772	0.001
772	-0.001
773	-0.004
773	-0.006
774	-0.009
774	-0.012
775	-0.014
775	-0.016
775	-0.019
776	-0.022
776	-0.024
777	-0.026
777	-0.028
778	-0.03
778	-0.032
778	-0.034
779	-0.036
779	-0.037
780	-0.04
780	-0.043
781	-0.046
781	-0.05
781	-0.055
782	-0.06
782	-0.066
783	-0.072
783	-0.078
784	-0.084
784	-0.091
784	-0.097
785	-0.103
785	-0.11
786	-0.116
786	-0.12
787	-0.121
787	-0.123
788	-0.128
788	-0.134
788	-0.139
789	-0.144
789	-0.146
790	-0.147
790	-0.148
791	-0.151
791	-0.152
791	-0.155
792	-0.15
792	-0.139
793	-0.133
793	-0.129
794	-0.127
794	-0.13
794	-0.134
795	-0.136
795	-0.136
796	-0.137
796	-0.14
797	-0.149
797	-0.16
797	-0.166
798	-0.172
798	-0.174
799	-0.175
799	-0.174
800	-0.173
800	-0.175
801	-0.178
801	-0.178
801	-0.179
802	-0.18
802	-0.182
803	-0.182
803	-0.183
804	-0.182
804	-0.176
804	-0.17
805	-0.166
805	-0.164
806	-0.162
806	-0.161
807	-0.16
807	-0.159
807	-0.159
808	-0.159
808	-0.16
809	-0.165
809	-0.171
810	-0.175
810	-0.178
810	-0.182
811	-0.185
811	-0.185
812	-0.181
812	-0.178
813	-0.178
813	-0.179
813	-0.179
814	-0.18
814	-0.179
815	-0.176
815	-0.172
816	-0.169
816	-0.167
817	-0.167
817	-0.165
817	-0.159
818	-0.152
818	-0.142
819	-0.133
819	-0.124
820	-0.118
820	-0.111
820	-0.103
821	-0.095
821	-0.088
822	-0.082
822	-0.077
823	-0.073
823	-0.071
823	-0.068
824	-0.066
824	-0.062
825	-0.059
825	-0.055
826	-0.053
826	-0.051
826	-0.049
827	-0.047
827	-0.046
828	-0.044
828	-0.042
829	-0.04
829	-0.039
829	-0.038
830	-0.038
830	-0.036
831	-0.034
831	-0.032
832	-0.03
832	-0.028
832	-0.026
833	-0.024
833	-0.022
834	-0.02
834	-0.018
835	-0.016
835	-0.015
835	-0.014
836	-0.012
836	-0.011
837	-0.01
837	-0.009
838	-0.009
838	-0.008
839	-0.008
839	-0.007
839	-0.007
840	-0.007
840	-0.007
841	-0.007
841	-0.006
842	-0.006
842	-0.005
842	-0.004
843	-0.004
843	-0.003
844	-0.002
844	-0.002
845	-0.001
845	-0.001
845	-0
846	0
846	0
847	0
847	0
848	0
848	-0
848	-0.001
849	-0.001
849	-0.002
850	-0.002
850	-0.003
851	-0.004
851	-0.004
851	-0.005
852	-0.005
852	-0.005
853	-0.005
853	-0.004
854	-0.004
854	-0.003
854	-0.003
855	-0.003
855	-0.003
856	-0.004
856	-0.004
857	-0.004
857	-0.005
857	-0.005
858	-0.006
858	-0.006
859	-0.007
859	-0.008
860	-0.008
860	-0.008
860	-0.009
861	-0.009
861	-0.009
862	-0.009
862	-0.009
863	-0.009
863	-0.009
863	-0.009
864	-0.009
864	-0.009
865	-0.009
865	-0.008
866	-0.007
866	-0.006
866	-0.005
867	-0.004
867	-0.002
868	-0.001
868	0
869	0.002
869	0.002
869	0.003
870	0.003
870	0.003
871	0.003
871	0.002
872	0.001
872	-0
872	-0.001
873	-0.002
873	-0.003
874	-0.004
874	-0.004
875	-0.004
875	-0.004
875	-0.003
876	-0.003
876	-0.002
877	-0.002
877	-0.001
878	0
878	0.001
878	0.002
879	0.003
879	0.003
880	0.004
880	0.004
881	0.005
881	0.005
881	0.005
882	0.005
882	0.005
883	0.005
883	0.006
884	0.006
884	0.005
884	0.005
885	0.005
885	0.005
886	0.005
886	0.004
887	0.004
887	0.004
887	0.003
888	0.002
888	0.001
889	0.001
889	0
890	-0
890	-0.001
890	-0.002
891	-0.002
891	-0.003
892	-0.004
892	-0.004
893	-0.005
893	-0.006
893	-0.006
894	-0.007
894	-0.008
895	-0.008
895	-0.009
895	-0.009
896	-0.009
896	-0.01
897	-0.01
897	-0.009
898	-0.009
898	-0.009
898	-0.008
899	-0.007
899	-0.006
900	-0.006
900	-0.005
901	-0.004
901	-0.003
901	-0.002
902	-0.001
902	-0
903	0
903	0.001
904	0.001
904	0.002
904	0.002
905	0.003
905	0.003
906	0.004
906	0.004
907	0.004
907	0.005
907	0.005
908	0.005
908	0.005
909	0.006
909	0.006
910	0.006
910	0.007
910	0.007
911	0.008
911	0.008
912	0.009
912	0.009
913	0.009
913	0.009
913	0.009
914	0.009
914	0.008
915	0.006
915	0.005
916	0.003
916	0.001
916	-0.001
917	-0.002
917	-0.004
918	-0.005
918	-0.007
918	-0.007
919	-0.007
919	-0.007
920	-0.007
920	-0.006
921	-0.005
921	-0.004
921	-0.003
922	-0.002
922	-0.001
923	0
923	0.001
924	0.002
924	0.002
924	0.003
925	0.003
925	0.003
926	0.003
926	0.003
927	0.003
927	0.003
927	0.002
928	0.002
928	0.001
929	0.001
929	0
930	-0
930	-0.001
930	-0.001
931	-0.002
931	-0.002
932	-0.002
932	-0.002
933	-0.002
933	-0.002
933	-0.002
934	-0.002
934	-0.002
935	-0.002
935	-0.002
935	-0.002
936	-0.002
936	-0.003
937	-0.003
937	-0.003
938	-0.003
938	-0.004
938	-0.004
939	-0.004
939	-0.005
940	-0.005
940	-0.005
941	-0.005
941	-0.006
941	-0.005
942	-0.005
942	-0.005
943	-0.005
943	-0.005
944	-0.005
944	-0.005
944	-0.005
945	-0.005
945	-0.005
946	-0.005
946	-0.006
946	-0.006
947	-0.006
947	-0.006
948	-0.006
948	-0.006
949	-0.006
949	-0.006
949	-0.005
950	-0.005
950	-0.005
951	-0.004
951	-0.004
952	-0.004
952	-0.004
952	-0.003
953	-0.003
953	-0.004
954	-0.004
954	-0.004
955	-0.005
955	-0.006
955	-0.006
956	-0.006
956	-0.006
957	-0.006
957	-0.007
957	-0.007
958	-0.008
958	-0.008
959	-0.008
959	-0.009
960	-0.009
960	-0.009
960	-0.01
961	-0.01
961	-0.01
962	-0.011
962	-0.01
963	-0.01
963	-0.009
963	-0.008
964	-0.007
964	-0.006
965	-0.005
965	-0.004
966	-0.002
966	-0.001
966	0.001
967	0.002
967	0.003
968	0.003
968	0.004
968	0.004
969	0.004
969	0.004
970	0.004
970	0.004
971	0.003
971	0.002
971	0.002
972	0.001
972	0.001
973	0.001
973	-0
974	-0.001
974	-0.001
974	-0.002
975	-0.002
975	-0.003
976	-0.003
976	-0.003
976	-0.004
977	-0.005
977	-0.006
978	-0.007
978	-0.008
979	-0.009
979	-0.01
979	-0.011
980	-0.012
980	-0.014
981	-0.015
981	-0.015
982	-0.016
982	-0.015
982	-0.015
983	-0.015
983	-0.015
984	-0.014
984	-0.013
984	-0.012
985	-0.011
985	-0.01
986	-0.01
986	-0.01
987	-0.009
987	-0.009
987	-0.008
988	-0.008
988	-0.008
989	-0.007
989	-0.007
990	-0.006
990	-0.006
990	-0.005
991	-0.004
991	-0.003
992	-0.002
992	-0.002
992	-0.001
993	-0.001
993	-0
994	0
994	0
995	0
995	-0
995	-0
996	-0.001
996	-0.001
997	-0.002
997	-0.002
997	-0.002
998	-0.002
998	-0.002
999	-0.002
999	-0.002
1000	-0.002
1000	-0.001
1000	-0.001
1001	-0.001
1001	-0
1002	-0
1002	0
1003	0
1003	0
1003	0
1004	0
1004	-0
1005	-0.001
1005	-0.001
1005	-0.002
1006	-0.002
1006	-0.003
1007	-0.003
1007	-0.004
1008	-0.004
1008	-0.005
1008	-0.005
1009	-0.006
1009	-0.006
1010	-0.007
1010	-0.007
1010	-0.007
1011	-0.008
1011	-0.008
1012	-0.008
1012	-0.009
1013	-0.009
1013	-0.009
1013	-0.01
1014	-0.011
1014	-0.012
1015	-0.012
1015	-0.013
1016	-0.013
1016	-0.014
1016	-0.015
1017	-0.015
1017	-0.016
1018	-0.016
1018	-0.017
1018	-0.017
1019	-0.017
1019	-0.017
1020	-0.017
1020	-0.017
1021	-0.017
1021	-0.017
1021	-0.017
1022	-0.017
1022	-0.016
1023	-0.016
1023	-0.015
1023	-0.015
1024	-0.015
1024	-0.015
1025	-0.015
1025	-0.014
1026	-0.014
1026	-0.014
1026	-0.014
1027	-0.014
1027	-0.014
1028	-0.014
1028	-0.014
1028	-0.014
1029	-0.014
1029	-0.013
1030	-0.013
1030	-0.013
1031	-0.013
1031	-0.013
1031	-0.013
1032	-0.013
1032	-0.014
1033	-0.014
1033	-0.015
1033	-0.015
1034	-0.016
1034	-0.018
1035	-0.018
1035	-0.019
1036	-0.02
1036	-0.021
1036	-0.021
1037	-0.022
1037	-0.022
1038	-0.021
1038	-0.021
1039	-0.02
1039	-0.019
1039	-0.019
1040	-0.018
1040	-0.018
1041	-0.018
1041	-0.018
1041	-0.018
1042	-0.019
1042	-0.02
1043	-0.021
1043	-0.022
1044	-0.023
1044	-0.023
1044	-0.024
1045	-0.025
1045	-0.025
1046	-0.026
1046	-0.026
1046	-0.025
1047	-0.025
1047	-0.024
1048	-0.024
1048	-0.024
1049	-0.024
1049	-0.024
1049	-0.025
1050	-0.025
1050	-0.026
1051	-0.027
1051	-0.027
1051	-0.028
1052	-0.028
1052	-0.029
1053	-0.029
1053	-0.03
1053	-0.03
1054	-0.03
1054	-0.029
1055	-0.029
1055	-0.029
1056	-0.029
1056	-0.03
1056	-0.031
1057	-0.031
1057	-0.031
1058	-0.031
1058	-0.032
1058	-0.031
1059	-0.032
1059	-0.032
1060	-0.032
1060	-0.032
1061	-0.031
1061	-0.03
1061	-0.029
1062	-0.029
1062	-0.029
1063	-0.029
1063	-0.029
1063	-0.028
1064	-0.028
1064	-0.028
1065	-0.028
1065	-0.028
1066	-0.027
1066	-0.028
1066	-0.027
1067	-0.027
1067	-0.027
1068	-0.027
1068	-0.027
1068	-0.027
1069	-0.028
1069	-0.029
1070	-0.029
1070	-0.03
1071	-0.031
1071	-0.031
1071	-0.032
1072	-0.033
1072	-0.033
1073	-0.034
1073	-0.034
1073	-0.034
1074	-0.034
1074	-0.034
1075	-0.035
1075	-0.036
1076	-0.037
1076	-0.036
1076	-0.038
1077	-0.038
1077	-0.038
1078	-0.038
1078	-0.038
1078	-0.037
1079	-0.036
1079	-0.035
1080	-0.034
1080	-0.033
1080	-0.033
1081	-0.031
1081	-0.03
1082	-0.029
1082	-0.029
1083	-0.028
1083	-0.029
1083	-0.028
1084	-0.027
1084	-0.027
1085	-0.026
1085	-0.025
1085	-0.024
1086	-0.024
1086	-0.024
1087	-0.023
1087	-0.023
1088	-0.023
1088	-0.023
1088	-0.023
1089	-0.024
1089	-0.024
1090	-0.025
1090	-0.025
1090	-0.025
1091	-0.026
1091	-0.025
1092	-0.025
1092	-0.023
1092	-0.023
1093	-0.021
1093	-0.018
1094	-0.016
1094	-0.015
1095	-0.014
1095	-0.012
1095	-0.009
1096	-0.007
1096	-0.005
1097	-0.002
1097	-0.001
1097	0.001
1098	0.001
1098	0.003
1099	0.005
1099	0.007
1100	0.008
1100	0.01
1100	0.011
1101	0.012
1101	0.014
1102	0.017
1102	0.02
1102	0.025
1103	0.028
1103	0.033
1104	0.038
1104	0.045
1104	0.052
1105	0.059
1105	0.064
1106	0.07
1106	0.079
1107	0.086
1107	0.098
1107	0.113
1108	0.161
1108	0.228
1109	0.325
1109	0.506
1109	0.679
1110	1.293
1110	-0
1111	-0
1111	-0
