Data from 15c-2a_Absorbance__195__00195.txt Node

Date: Wed Jan 17 09:46:55 CET 2024
User: Marek
Spectrometer: MAYP115816
Trigger mode: 0
Integration Time (sec): 2.000000E-1
Scans to average: 10
Electric dark correction enabled: true
Nonlinearity correction enabled: true
Boxcar width: 5
XAxis mode: Wavelengths
Number of Pixels in Spectrum: 2068
>>>>>Begin Spectral Data<<<<<
199	-1.612
199	-1.467
200	-1.305
200	-1.18
201	-1.103
201	-1.054
202	-0.981
202	-0.927
203	-0.877
203	-0.834
204	-0.809
204	-0.786
205	-0.763
205	-0.754
205	-0.751
206	-0.75
206	-0.746
207	-0.744
207	-0.74
208	-0.737
208	-0.736
209	-0.731
209	-0.73
210	-0.729
210	-0.729
211	-0.727
211	-0.726
212	-0.726
212	-0.724
213	-0.723
213	-0.723
213	-0.721
214	-0.72
214	-0.719
215	-0.718
215	-0.716
216	-0.716
216	-0.712
217	-0.708
217	-0.707
218	-0.705
218	-0.701
219	-0.699
219	-0.698
220	-0.694
220	-0.69
221	-0.684
221	-0.68
221	-0.677
222	-0.673
222	-0.668
223	-0.663
223	-0.658
224	-0.653
224	-0.646
225	-0.638
225	-0.631
226	-0.622
226	-0.611
227	-0.598
227	-0.585
228	-0.57
228	-0.552
229	-0.532
229	-0.509
229	-0.484
230	-0.457
230	-0.428
231	-0.395
231	-0.362
232	-0.327
232	-0.29
233	-0.25
233	-0.21
234	-0.171
234	-0.131
235	-0.093
235	-0.057
236	-0.022
236	0.011
236	0.042
237	0.071
237	0.097
238	0.122
238	0.144
239	0.165
239	0.183
240	0.201
240	0.216
241	0.23
241	0.243
242	0.254
242	0.265
243	0.274
243	0.282
243	0.29
244	0.297
244	0.304
245	0.31
245	0.315
246	0.32
246	0.325
247	0.329
247	0.333
248	0.337
248	0.341
249	0.344
249	0.347
250	0.35
250	0.353
250	0.356
251	0.358
251	0.36
252	0.362
252	0.364
253	0.366
253	0.368
254	0.37
254	0.371
255	0.373
255	0.374
256	0.375
256	0.376
257	0.376
257	0.377
258	0.378
258	0.378
258	0.378
259	0.379
259	0.378
260	0.379
260	0.378
261	0.378
261	0.378
262	0.378
262	0.377
263	0.376
263	0.376
264	0.375
264	0.374
265	0.373
265	0.372
265	0.371
266	0.37
266	0.369
267	0.368
267	0.366
268	0.365
268	0.363
269	0.361
269	0.36
270	0.358
270	0.356
271	0.354
271	0.353
272	0.35
272	0.348
272	0.346
273	0.344
273	0.342
274	0.34
274	0.338
275	0.336
275	0.334
276	0.332
276	0.33
277	0.328
277	0.325
278	0.323
278	0.321
278	0.319
279	0.317
279	0.314
280	0.313
280	0.311
281	0.309
281	0.307
282	0.305
282	0.303
283	0.301
283	0.299
284	0.298
284	0.296
285	0.294
285	0.292
285	0.29
286	0.288
286	0.286
287	0.285
287	0.283
288	0.282
288	0.28
289	0.278
289	0.277
290	0.276
290	0.274
291	0.273
291	0.272
292	0.27
292	0.269
292	0.268
293	0.266
293	0.265
294	0.264
294	0.263
295	0.262
295	0.261
296	0.26
296	0.259
297	0.259
297	0.258
298	0.257
298	0.256
298	0.256
299	0.255
299	0.254
300	0.254
300	0.253
301	0.252
301	0.252
302	0.251
302	0.25
303	0.25
303	0.249
304	0.248
304	0.248
305	0.247
305	0.246
305	0.245
306	0.245
306	0.244
307	0.243
307	0.243
308	0.242
308	0.242
309	0.241
309	0.24
310	0.24
310	0.239
311	0.238
311	0.238
311	0.237
312	0.236
312	0.236
313	0.235
313	0.235
314	0.234
314	0.233
315	0.232
315	0.232
316	0.231
316	0.23
317	0.23
317	0.229
318	0.228
318	0.228
318	0.227
319	0.226
319	0.226
320	0.225
320	0.225
321	0.224
321	0.223
322	0.222
322	0.222
323	0.221
323	0.22
324	0.22
324	0.219
324	0.218
325	0.218
325	0.217
326	0.216
326	0.216
327	0.215
327	0.215
328	0.214
328	0.213
329	0.213
329	0.212
330	0.211
330	0.211
330	0.21
331	0.209
331	0.209
332	0.208
332	0.207
333	0.207
333	0.206
334	0.205
334	0.205
335	0.204
335	0.204
336	0.203
336	0.202
336	0.202
337	0.201
337	0.201
338	0.2
338	0.2
339	0.199
339	0.199
340	0.198
340	0.198
341	0.197
341	0.197
342	0.196
342	0.196
342	0.196
343	0.195
343	0.195
344	0.194
344	0.194
345	0.193
345	0.193
346	0.193
346	0.192
347	0.192
347	0.191
348	0.191
348	0.191
348	0.19
349	0.19
349	0.189
350	0.189
350	0.189
351	0.188
351	0.188
352	0.188
352	0.188
353	0.187
353	0.187
354	0.186
354	0.186
354	0.185
355	0.185
355	0.185
356	0.184
356	0.184
357	0.183
357	0.183
358	0.183
358	0.183
359	0.183
359	0.183
360	0.183
360	0.183
360	0.183
361	0.183
361	0.183
362	0.183
362	0.183
363	0.183
363	0.183
364	0.183
364	0.182
365	0.182
365	0.182
366	0.181
366	0.181
366	0.181
367	0.181
367	0.181
368	0.181
368	0.18
369	0.18
369	0.18
370	0.179
370	0.179
371	0.179
371	0.178
372	0.178
372	0.178
372	0.178
373	0.177
373	0.177
374	0.177
374	0.177
375	0.177
375	0.177
376	0.177
376	0.177
377	0.177
377	0.177
378	0.177
378	0.177
378	0.177
379	0.177
379	0.176
380	0.176
380	0.176
381	0.176
381	0.176
382	0.176
382	0.176
383	0.175
383	0.175
383	0.175
384	0.174
384	0.174
385	0.174
385	0.174
386	0.174
386	0.173
387	0.173
387	0.173
388	0.173
388	0.173
389	0.173
389	0.173
389	0.173
390	0.173
390	0.173
391	0.173
391	0.173
392	0.173
392	0.173
393	0.173
393	0.173
394	0.172
394	0.172
394	0.172
395	0.172
395	0.171
396	0.171
396	0.171
397	0.17
397	0.17
398	0.17
398	0.17
399	0.17
399	0.17
400	0.17
400	0.169
400	0.169
401	0.169
401	0.169
402	0.168
402	0.168
403	0.167
403	0.167
404	0.167
404	0.167
405	0.167
405	0.167
405	0.166
406	0.166
406	0.166
407	0.166
407	0.166
408	0.165
408	0.165
409	0.165
409	0.164
410	0.164
410	0.164
411	0.164
411	0.164
411	0.164
412	0.164
412	0.164
413	0.164
413	0.164
414	0.163
414	0.163
415	0.163
415	0.163
416	0.162
416	0.162
416	0.162
417	0.162
417	0.162
418	0.162
418	0.162
419	0.162
419	0.162
420	0.162
420	0.163
421	0.163
421	0.163
421	0.163
422	0.164
422	0.164
423	0.164
423	0.164
424	0.164
424	0.163
425	0.163
425	0.162
426	0.162
426	0.162
427	0.161
427	0.161
427	0.161
428	0.161
428	0.161
429	0.161
429	0.161
430	0.161
430	0.162
431	0.161
431	0.161
432	0.161
432	0.161
432	0.161
433	0.16
433	0.16
434	0.159
434	0.159
435	0.159
435	0.159
436	0.159
436	0.159
437	0.159
437	0.159
437	0.159
438	0.159
438	0.159
439	0.159
439	0.159
440	0.158
440	0.158
441	0.158
441	0.158
442	0.158
442	0.158
442	0.158
443	0.158
443	0.158
444	0.158
444	0.158
445	0.158
445	0.158
446	0.158
446	0.158
447	0.158
447	0.158
447	0.158
448	0.158
448	0.158
449	0.158
449	0.158
450	0.158
450	0.158
451	0.158
451	0.158
452	0.158
452	0.158
452	0.158
453	0.158
453	0.158
454	0.158
454	0.158
455	0.158
455	0.157
456	0.157
456	0.157
457	0.157
457	0.157
458	0.157
458	0.157
458	0.157
459	0.157
459	0.157
460	0.157
460	0.157
461	0.157
461	0.157
462	0.157
462	0.157
463	0.158
463	0.158
463	0.159
464	0.159
464	0.159
465	0.159
465	0.159
466	0.16
466	0.16
467	0.16
467	0.161
467	0.161
468	0.16
468	0.16
469	0.16
469	0.159
470	0.159
470	0.159
471	0.159
471	0.159
472	0.158
472	0.159
472	0.159
473	0.159
473	0.16
474	0.16
474	0.161
475	0.162
475	0.163
476	0.163
476	0.163
477	0.164
477	0.164
477	0.164
478	0.164
478	0.164
479	0.165
479	0.165
480	0.165
480	0.166
481	0.166
481	0.167
482	0.168
482	0.169
482	0.17
483	0.171
483	0.173
484	0.174
484	0.175
485	0.176
485	0.177
486	0.178
486	0.179
487	0.179
487	0.18
487	0.181
488	0.181
488	0.181
489	0.182
489	0.183
490	0.183
490	0.184
491	0.184
491	0.185
492	0.186
492	0.187
492	0.187
493	0.188
493	0.189
494	0.191
494	0.192
495	0.194
495	0.195
496	0.197
496	0.198
496	0.2
497	0.201
497	0.203
498	0.204
498	0.205
499	0.206
499	0.208
500	0.209
500	0.21
501	0.211
501	0.212
501	0.213
502	0.214
502	0.216
503	0.218
503	0.219
504	0.221
504	0.221
505	0.222
505	0.223
506	0.225
506	0.226
506	0.227
507	0.228
507	0.229
508	0.23
508	0.231
509	0.232
509	0.234
510	0.235
510	0.236
511	0.237
511	0.238
511	0.239
512	0.24
512	0.241
513	0.241
513	0.242
514	0.242
514	0.243
515	0.243
515	0.243
515	0.243
516	0.244
516	0.244
517	0.245
517	0.245
518	0.245
518	0.246
519	0.246
519	0.246
520	0.246
520	0.246
520	0.245
521	0.245
521	0.244
522	0.243
522	0.242
523	0.241
523	0.24
524	0.24
524	0.239
524	0.239
525	0.239
525	0.24
526	0.24
526	0.241
527	0.242
527	0.242
528	0.243
528	0.244
529	0.244
529	0.244
529	0.245
530	0.244
530	0.244
531	0.243
531	0.243
532	0.242
532	0.241
533	0.24
533	0.239
533	0.237
534	0.236
534	0.235
535	0.234
535	0.233
536	0.232
536	0.231
537	0.23
537	0.228
538	0.227
538	0.226
538	0.224
539	0.223
539	0.222
540	0.22
540	0.219
541	0.217
541	0.215
542	0.213
542	0.211
542	0.209
543	0.207
543	0.206
544	0.204
544	0.202
545	0.201
545	0.2
546	0.198
546	0.197
547	0.195
547	0.193
547	0.191
548	0.189
548	0.187
549	0.185
549	0.182
550	0.18
550	0.177
551	0.175
551	0.173
551	0.17
552	0.169
552	0.167
553	0.165
553	0.164
554	0.162
554	0.161
555	0.159
555	0.157
556	0.155
556	0.153
556	0.151
557	0.149
557	0.147
558	0.145
558	0.143
559	0.141
559	0.139
560	0.138
560	0.137
560	0.136
561	0.134
561	0.134
562	0.132
562	0.131
563	0.129
563	0.127
564	0.125
564	0.123
564	0.121
565	0.119
565	0.117
566	0.115
566	0.112
567	0.111
567	0.109
568	0.108
568	0.107
568	0.106
569	0.105
569	0.105
570	0.104
570	0.103
571	0.102
571	0.102
572	0.101
572	0.1
573	0.099
573	0.098
573	0.097
574	0.097
574	0.096
575	0.095
575	0.095
576	0.094
576	0.093
577	0.093
577	0.092
577	0.092
578	0.091
578	0.09
579	0.089
579	0.089
580	0.087
580	0.086
581	0.084
581	0.083
581	0.081
582	0.08
582	0.079
583	0.078
583	0.077
584	0.076
584	0.074
585	0.072
585	0.072
585	0.071
586	0.07
586	0.07
587	0.069
587	0.068
588	0.067
588	0.066
589	0.065
589	0.064
590	0.064
590	0.063
590	0.063
591	0.062
591	0.061
592	0.061
592	0.06
593	0.059
593	0.059
594	0.058
594	0.057
594	0.056
595	0.055
595	0.055
596	0.054
596	0.054
597	0.055
597	0.055
598	0.056
598	0.057
598	0.058
599	0.058
599	0.058
600	0.058
600	0.058
601	0.057
601	0.056
602	0.055
602	0.055
602	0.055
603	0.054
603	0.055
604	0.055
604	0.056
605	0.057
605	0.058
606	0.058
606	0.058
606	0.058
607	0.058
607	0.058
608	0.057
608	0.056
609	0.056
609	0.056
610	0.055
610	0.055
610	0.055
611	0.056
611	0.057
612	0.058
612	0.059
613	0.06
613	0.061
614	0.061
614	0.061
614	0.06
615	0.06
615	0.06
616	0.059
616	0.058
617	0.057
617	0.056
618	0.056
618	0.055
618	0.055
619	0.056
619	0.057
620	0.058
620	0.059
621	0.059
621	0.06
622	0.06
622	0.061
622	0.061
623	0.061
623	0.061
624	0.061
624	0.061
625	0.061
625	0.061
626	0.061
626	0.061
626	0.061
627	0.062
627	0.062
628	0.063
628	0.064
629	0.064
629	0.065
630	0.065
630	0.065
630	0.065
631	0.066
631	0.067
632	0.068
632	0.069
633	0.07
633	0.072
634	0.074
634	0.075
634	0.077
635	0.078
635	0.079
636	0.08
636	0.081
637	0.081
637	0.082
638	0.082
638	0.083
638	0.084
639	0.084
639	0.085
640	0.086
640	0.087
641	0.088
641	0.09
642	0.091
642	0.093
642	0.095
643	0.096
643	0.098
644	0.1
644	0.101
645	0.103
645	0.105
646	0.107
646	0.109
646	0.112
647	0.115
647	0.117
648	0.119
648	0.122
649	0.124
649	0.126
650	0.128
650	0.13
650	0.132
651	0.135
651	0.137
652	0.139
652	0.141
653	0.143
653	0.147
653	0.148
654	0.118
654	0.096
655	0.101
655	0.103
656	0.104
656	0.105
657	0.107
657	0.108
657	0.109
658	0.108
658	0.106
659	0.135
659	0.175
660	0.177
660	0.179
661	0.181
661	0.184
661	0.187
662	0.19
662	0.194
663	0.197
663	0.2
664	0.203
664	0.205
665	0.207
665	0.21
665	0.211
666	0.213
666	0.215
667	0.217
667	0.218
668	0.221
668	0.223
669	0.226
669	0.229
669	0.232
670	0.236
670	0.239
671	0.242
671	0.244
672	0.246
672	0.248
672	0.25
673	0.251
673	0.253
674	0.254
674	0.255
675	0.256
675	0.258
676	0.259
676	0.261
676	0.262
677	0.264
677	0.265
678	0.266
678	0.268
679	0.269
679	0.27
680	0.271
680	0.272
680	0.273
681	0.274
681	0.275
682	0.276
682	0.277
683	0.279
683	0.28
684	0.282
684	0.283
684	0.283
685	0.284
685	0.284
686	0.285
686	0.286
687	0.286
687	0.286
687	0.286
688	0.286
688	0.285
689	0.285
689	0.285
690	0.284
690	0.283
691	0.282
691	0.281
691	0.28
692	0.279
692	0.278
693	0.277
693	0.276
694	0.275
694	0.273
695	0.273
695	0.273
695	0.272
696	0.271
696	0.27
697	0.269
697	0.268
698	0.266
698	0.265
698	0.264
699	0.263
699	0.261
700	0.259
700	0.257
701	0.256
701	0.254
702	0.253
702	0.252
702	0.25
703	0.249
703	0.247
704	0.246
704	0.245
705	0.244
705	0.242
705	0.24
706	0.239
706	0.237
707	0.236
707	0.233
708	0.231
708	0.229
709	0.227
709	0.225
709	0.223
710	0.22
710	0.217
711	0.215
711	0.214
712	0.212
712	0.21
713	0.208
713	0.206
713	0.204
714	0.202
714	0.2
715	0.198
715	0.196
716	0.193
716	0.191
716	0.189
717	0.188
717	0.186
718	0.184
718	0.181
719	0.179
719	0.178
720	0.176
720	0.173
720	0.171
721	0.168
721	0.166
722	0.163
722	0.161
723	0.159
723	0.157
723	0.155
724	0.153
724	0.15
725	0.148
725	0.146
726	0.144
726	0.142
727	0.14
727	0.138
727	0.137
728	0.135
728	0.133
729	0.132
729	0.13
730	0.129
730	0.127
730	0.125
731	0.124
731	0.122
732	0.121
732	0.119
733	0.117
733	0.116
734	0.114
734	0.112
734	0.11
735	0.109
735	0.108
736	0.106
736	0.105
737	0.104
737	0.102
737	0.101
738	0.099
738	0.098
739	0.096
739	0.095
740	0.093
740	0.092
741	0.09
741	0.088
741	0.086
742	0.083
742	0.08
743	0.077
743	0.075
744	0.073
744	0.071
744	0.069
745	0.066
745	0.064
746	0.063
746	0.062
747	0.061
747	0.06
748	0.059
748	0.058
748	0.057
749	0.056
749	0.056
750	0.055
750	0.054
751	0.054
751	0.054
751	0.054
752	0.054
752	0.053
753	0.052
753	0.052
754	0.051
754	0.05
754	0.05
755	0.049
755	0.048
756	0.047
756	0.045
757	0.043
757	0.042
758	0.041
758	0.039
758	0.038
759	0.037
759	0.035
760	0.034
760	0.031
761	0.03
761	0.028
761	0.027
762	0.026
762	0.026
763	0.026
763	0.025
764	0.024
764	0.023
764	0.022
765	0.02
765	0.019
766	0.018
766	0.017
767	0.016
767	0.015
768	0.012
768	0.01
768	0.008
769	0.007
769	0.005
770	0.004
770	0.002
771	-0
771	-0.003
771	-0.006
772	-0.008
772	-0.01
773	-0.012
773	-0.015
774	-0.017
774	-0.019
775	-0.022
775	-0.024
775	-0.027
776	-0.029
776	-0.032
777	-0.035
777	-0.037
778	-0.04
778	-0.043
778	-0.046
779	-0.049
779	-0.052
780	-0.055
780	-0.059
781	-0.063
781	-0.068
781	-0.074
782	-0.079
782	-0.085
783	-0.091
783	-0.097
784	-0.103
784	-0.11
784	-0.117
785	-0.123
785	-0.13
786	-0.135
786	-0.137
787	-0.136
787	-0.137
788	-0.14
788	-0.144
788	-0.148
789	-0.151
789	-0.152
790	-0.15
790	-0.15
791	-0.151
791	-0.152
791	-0.155
792	-0.15
792	-0.139
793	-0.133
793	-0.129
794	-0.127
794	-0.13
794	-0.134
795	-0.136
795	-0.136
796	-0.137
796	-0.14
797	-0.149
797	-0.16
797	-0.166
798	-0.172
798	-0.174
799	-0.175
799	-0.174
800	-0.173
800	-0.175
801	-0.178
801	-0.178
801	-0.179
802	-0.18
802	-0.182
803	-0.182
803	-0.183
804	-0.182
804	-0.176
804	-0.17
805	-0.166
805	-0.164
806	-0.162
806	-0.161
807	-0.16
807	-0.159
807	-0.159
808	-0.159
808	-0.16
809	-0.165
809	-0.171
810	-0.175
810	-0.178
810	-0.181
811	-0.185
811	-0.185
812	-0.181
812	-0.178
813	-0.178
813	-0.179
813	-0.179
814	-0.18
814	-0.179
815	-0.176
815	-0.172
816	-0.168
816	-0.165
817	-0.164
817	-0.161
817	-0.154
818	-0.146
818	-0.137
819	-0.126
819	-0.117
820	-0.11
820	-0.102
820	-0.094
821	-0.087
821	-0.08
822	-0.075
822	-0.07
823	-0.066
823	-0.062
823	-0.06
824	-0.056
824	-0.053
825	-0.049
825	-0.045
826	-0.042
826	-0.04
826	-0.038
827	-0.036
827	-0.034
828	-0.032
828	-0.031
829	-0.03
829	-0.029
829	-0.028
830	-0.028
830	-0.027
831	-0.025
831	-0.024
832	-0.023
832	-0.022
832	-0.02
833	-0.019
833	-0.018
834	-0.017
834	-0.015
835	-0.014
835	-0.013
835	-0.012
836	-0.011
836	-0.011
837	-0.01
837	-0.01
838	-0.009
838	-0.009
839	-0.009
839	-0.01
839	-0.01
840	-0.01
840	-0.011
841	-0.011
841	-0.012
842	-0.012
842	-0.012
842	-0.012
843	-0.012
843	-0.012
844	-0.011
844	-0.011
845	-0.01
845	-0.009
845	-0.009
846	-0.008
846	-0.008
847	-0.007
847	-0.007
848	-0.007
848	-0.008
848	-0.008
849	-0.009
849	-0.009
850	-0.01
850	-0.011
851	-0.011
851	-0.012
851	-0.012
852	-0.012
852	-0.012
853	-0.011
853	-0.01
854	-0.01
854	-0.009
854	-0.008
855	-0.008
855	-0.007
856	-0.007
856	-0.006
857	-0.006
857	-0.006
857	-0.006
858	-0.006
858	-0.006
859	-0.006
859	-0.006
860	-0.007
860	-0.007
860	-0.007
861	-0.008
861	-0.008
862	-0.008
862	-0.009
863	-0.009
863	-0.009
863	-0.009
864	-0.008
864	-0.008
865	-0.007
865	-0.006
866	-0.005
866	-0.005
866	-0.004
867	-0.003
867	-0.002
868	-0.001
868	-0
869	0
869	0.001
869	0.001
870	0.001
870	0
871	0
871	0
872	-0
872	-0.001
872	-0.001
873	-0.001
873	-0.001
874	-0.001
874	-0.001
875	0
875	0.001
875	0.001
876	0.001
876	0.001
877	0.002
877	0.002
878	0.002
878	0.002
878	0.002
879	0.002
879	0.002
880	0.002
880	0.002
881	0.001
881	0.001
881	0.001
882	0.001
882	0.001
883	0
883	-0
884	-0.001
884	-0.001
884	-0.001
885	-0.001
885	-0
886	-0
886	0
887	0
887	0
887	0.001
888	0.001
888	0.001
889	0.001
889	0.001
890	0
890	-0
890	-0.001
891	-0.001
891	-0.002
892	-0.002
892	-0.003
893	-0.003
893	-0.004
893	-0.004
894	-0.004
894	-0.005
895	-0.005
895	-0.005
895	-0.006
896	-0.006
896	-0.006
897	-0.006
897	-0.006
898	-0.006
898	-0.006
898	-0.005
899	-0.005
899	-0.005
900	-0.004
900	-0.003
901	-0.002
901	-0.002
901	-0.001
902	-0.001
902	-0
903	-0
903	0
904	0
904	0
904	0
905	-0
905	-0
906	-0
906	-0
907	-0
907	-0
907	-0
908	-0
908	0
909	0
909	0
910	0.001
910	0.001
910	0.002
911	0.002
911	0.003
912	0.004
912	0.004
913	0.005
913	0.005
913	0.006
914	0.006
914	0.005
915	0.005
915	0.005
916	0.004
916	0.003
916	0.002
917	0.001
917	-0.001
918	-0.002
918	-0.003
918	-0.004
919	-0.004
919	-0.005
920	-0.005
920	-0.005
921	-0.006
921	-0.005
921	-0.005
922	-0.004
922	-0.003
923	-0.001
923	-0
924	0.001
924	0.002
924	0.002
925	0.002
925	0.002
926	0.002
926	0.001
927	-0
927	-0.001
927	-0.003
928	-0.004
928	-0.005
929	-0.006
929	-0.006
930	-0.007
930	-0.007
930	-0.006
931	-0.006
931	-0.006
932	-0.006
932	-0.005
933	-0.005
933	-0.004
933	-0.004
934	-0.003
934	-0.003
935	-0.002
935	-0.002
935	-0.001
936	-0.001
936	-0.001
937	-0
937	0
938	0
938	0.001
938	0.001
939	0.001
939	0.002
940	0.002
940	0.003
941	0.004
941	0.005
941	0.005
942	0.006
942	0.007
943	0.007
943	0.007
944	0.007
944	0.007
944	0.007
945	0.006
945	0.006
946	0.005
946	0.004
946	0.004
947	0.003
947	0.003
948	0.002
948	0.002
949	0.002
949	0.003
949	0.003
950	0.004
950	0.005
951	0.006
951	0.008
952	0.009
952	0.011
952	0.012
953	0.013
953	0.014
954	0.015
954	0.015
955	0.015
955	0.015
955	0.015
956	0.014
956	0.014
957	0.013
957	0.012
957	0.01
958	0.009
958	0.008
959	0.006
959	0.005
960	0.004
960	0.003
960	0.002
961	0.001
961	0
962	-0
962	-0.001
963	-0.001
963	-0.001
963	-0.001
964	0
964	0.001
965	0.002
965	0.002
966	0.003
966	0.004
966	0.005
967	0.006
967	0.006
968	0.007
968	0.007
968	0.007
969	0.007
969	0.007
970	0.007
970	0.007
971	0.006
971	0.006
971	0.005
972	0.004
972	0.004
973	0.003
973	0.003
974	0.002
974	0.002
974	0.001
975	0.001
975	0
976	-0
976	-0.001
976	-0.002
977	-0.003
977	-0.003
978	-0.004
978	-0.005
979	-0.006
979	-0.006
979	-0.007
980	-0.007
980	-0.007
981	-0.008
981	-0.008
982	-0.007
982	-0.007
982	-0.007
983	-0.006
983	-0.006
984	-0.005
984	-0.005
984	-0.004
985	-0.004
985	-0.003
986	-0.003
986	-0.003
987	-0.003
987	-0.002
987	-0.002
988	-0.001
988	-0
989	0
989	0.001
990	0.001
990	0.002
990	0.003
991	0.004
991	0.005
992	0.005
992	0.006
992	0.007
993	0.008
993	0.009
994	0.009
994	0.01
995	0.011
995	0.012
995	0.013
996	0.013
996	0.014
997	0.014
997	0.015
997	0.015
998	0.015
998	0.015
999	0.014
999	0.014
1000	0.013
1000	0.013
1000	0.012
1001	0.012
1001	0.011
1002	0.011
1002	0.01
1003	0.01
1003	0.009
1003	0.008
1004	0.008
1004	0.007
1005	0.007
1005	0.007
1005	0.007
1006	0.006
1006	0.006
1007	0.006
1007	0.005
1008	0.005
1008	0.005
1008	0.005
1009	0.006
1009	0.006
1010	0.006
1010	0.006
1010	0.007
1011	0.007
1011	0.007
1012	0.007
1012	0.007
1013	0.007
1013	0.007
1013	0.006
1014	0.006
1014	0.005
1015	0.004
1015	0.004
1016	0.003
1016	0.003
1016	0.002
1017	0.002
1017	0.002
1018	0.001
1018	0.001
1018	0.001
1019	0.001
1019	0.001
1020	0.001
1020	0
1021	-0
1021	-0.001
1021	-0.001
1022	-0.001
1022	-0.001
1023	-0.002
1023	-0.002
1023	-0.002
1024	-0.002
1024	-0.002
1025	-0.002
1025	-0.002
1026	-0.002
1026	-0.002
1026	-0.001
1027	-0.001
1027	-0
1028	-0
1028	0.001
1028	0.001
1029	0.001
1029	0.002
1030	0.003
1030	0.003
1031	0.003
1031	0.004
1031	0.004
1032	0.004
1032	0.004
1033	0.004
1033	0.004
1033	0.003
1034	0.003
1034	0.002
1035	0.002
1035	0.001
1036	0.001
1036	0
1036	0
1037	-0
1037	-0
1038	-0
1038	-0
1039	-0
1039	-0
1039	-0
1040	-0
1040	-0
1041	-0
1041	-0.001
1041	-0.001
1042	-0.002
1042	-0.002
1043	-0.003
1043	-0.004
1044	-0.004
1044	-0.005
1044	-0.005
1045	-0.005
1045	-0.005
1046	-0.005
1046	-0.005
1046	-0.004
1047	-0.004
1047	-0.003
1048	-0.002
1048	-0.002
1049	-0.001
1049	-0
1049	-0
1050	0
1050	0
1051	0.001
1051	0.001
1051	0
1052	0
1052	-0
1053	-0
1053	-0.001
1053	-0.001
1054	-0.001
1054	-0.001
1055	-0.001
1055	-0.001
1056	-0.001
1056	-0.001
1056	-0.001
1057	-0.001
1057	-0.001
1058	-0.001
1058	-0.001
1058	-0.001
1059	-0.002
1059	-0.002
1060	-0.002
1060	-0.002
1061	-0.001
1061	-0.001
1061	-0.001
1062	-0.001
1062	-0.001
1063	-0.001
1063	-0.001
1063	-0
1064	-0
1064	-0
1065	0
1065	0
1066	0.001
1066	0.001
1066	0.002
1067	0.003
1067	0.003
1068	0.003
1068	0.004
1068	0.004
1069	0.004
1069	0.003
1070	0.003
1070	0.003
1071	0.003
1071	0.002
1071	0.002
1072	0.002
1072	0.002
1073	0.002
1073	0.002
1073	0.002
1074	0.003
1074	0.003
1075	0.004
1075	0.004
1076	0.005
1076	0.006
1076	0.007
1077	0.007
1077	0.008
1078	0.009
1078	0.009
1078	0.011
1079	0.012
1079	0.013
1080	0.013
1080	0.014
1080	0.015
1081	0.016
1081	0.018
1082	0.019
1082	0.02
1083	0.021
1083	0.022
1083	0.023
1084	0.025
1084	0.026
1085	0.028
1085	0.029
1085	0.03
1086	0.031
1086	0.033
1087	0.033
1087	0.034
1088	0.035
1088	0.036
1088	0.036
1089	0.037
1089	0.037
1090	0.038
1090	0.039
1090	0.04
1091	0.041
1091	0.043
1092	0.044
1092	0.045
1092	0.047
1093	0.049
1093	0.053
1094	0.056
1094	0.059
1095	0.061
1095	0.064
1095	0.068
1096	0.071
1096	0.075
1097	0.079
1097	0.083
1097	0.086
1098	0.09
1098	0.093
1099	0.097
1099	0.103
1100	0.108
1100	0.113
1100	0.119
1101	0.125
1101	0.133
1102	0.141
1102	0.15
1102	0.16
1103	0.17
1103	0.181
1104	0.193
1104	0.207
1104	0.221
1105	0.236
1105	0.252
1106	0.266
1106	0.286
1107	0.307
1107	0.335
1107	0.37
1108	0.475
1108	0.652
1109	1.09
1109	-0
1109	-0
1110	-0
1110	-0
1111	-0
1111	-0
