Data from 15c-2a_Absorbance__1104__01104.txt Node

Date: Wed Jan 17 10:17:12 CET 2024
User: Marek
Spectrometer: MAYP115816
Trigger mode: 0
Integration Time (sec): 2.000000E-1
Scans to average: 10
Electric dark correction enabled: true
Nonlinearity correction enabled: true
Boxcar width: 5
XAxis mode: Wavelengths
Number of Pixels in Spectrum: 2068
>>>>>Begin Spectral Data<<<<<
199	-1.599
199	-1.46
200	-1.301
200	-1.178
201	-1.102
201	-1.054
202	-0.984
202	-0.934
203	-0.887
203	-0.848
204	-0.824
204	-0.8
205	-0.777
205	-0.766
205	-0.765
206	-0.764
206	-0.761
207	-0.759
207	-0.754
208	-0.752
208	-0.752
209	-0.747
209	-0.745
210	-0.745
210	-0.746
211	-0.745
211	-0.744
212	-0.745
212	-0.744
213	-0.744
213	-0.743
213	-0.742
214	-0.741
214	-0.741
215	-0.74
215	-0.739
216	-0.739
216	-0.736
217	-0.731
217	-0.729
218	-0.728
218	-0.724
219	-0.721
219	-0.72
220	-0.717
220	-0.714
221	-0.709
221	-0.705
221	-0.701
222	-0.697
222	-0.693
223	-0.688
223	-0.685
224	-0.68
224	-0.672
225	-0.664
225	-0.657
226	-0.648
226	-0.636
227	-0.623
227	-0.61
228	-0.594
228	-0.577
229	-0.557
229	-0.533
229	-0.507
230	-0.478
230	-0.448
231	-0.414
231	-0.38
232	-0.343
232	-0.305
233	-0.264
233	-0.221
234	-0.179
234	-0.139
235	-0.1
235	-0.062
236	-0.025
236	0.01
236	0.043
237	0.075
237	0.103
238	0.129
238	0.153
239	0.176
239	0.197
240	0.215
240	0.232
241	0.247
241	0.261
242	0.274
242	0.285
243	0.295
243	0.304
243	0.313
244	0.32
244	0.327
245	0.333
245	0.339
246	0.345
246	0.35
247	0.355
247	0.36
248	0.364
248	0.368
249	0.372
249	0.375
250	0.378
250	0.381
250	0.384
251	0.387
251	0.389
252	0.391
252	0.393
253	0.395
253	0.397
254	0.398
254	0.4
255	0.401
255	0.403
256	0.404
256	0.405
257	0.405
257	0.406
258	0.406
258	0.407
258	0.407
259	0.407
259	0.407
260	0.407
260	0.406
261	0.406
261	0.406
262	0.405
262	0.405
263	0.404
263	0.404
264	0.403
264	0.402
265	0.401
265	0.401
265	0.399
266	0.398
266	0.397
267	0.396
267	0.394
268	0.393
268	0.391
269	0.39
269	0.388
270	0.386
270	0.384
271	0.382
271	0.38
272	0.378
272	0.376
272	0.374
273	0.372
273	0.37
274	0.368
274	0.366
275	0.364
275	0.362
276	0.36
276	0.358
277	0.356
277	0.353
278	0.351
278	0.349
278	0.346
279	0.344
279	0.342
280	0.339
280	0.337
281	0.335
281	0.333
282	0.331
282	0.328
283	0.327
283	0.325
284	0.323
284	0.322
285	0.32
285	0.318
285	0.316
286	0.315
286	0.313
287	0.312
287	0.31
288	0.308
288	0.307
289	0.305
289	0.304
290	0.302
290	0.301
291	0.299
291	0.298
292	0.296
292	0.295
292	0.294
293	0.292
293	0.291
294	0.29
294	0.289
295	0.288
295	0.287
296	0.286
296	0.285
297	0.284
297	0.283
298	0.282
298	0.282
298	0.281
299	0.28
299	0.279
300	0.279
300	0.278
301	0.277
301	0.276
302	0.275
302	0.274
303	0.274
303	0.273
304	0.272
304	0.272
305	0.271
305	0.27
305	0.269
306	0.269
306	0.268
307	0.267
307	0.266
308	0.266
308	0.265
309	0.264
309	0.264
310	0.263
310	0.262
311	0.262
311	0.261
311	0.26
312	0.26
312	0.259
313	0.258
313	0.258
314	0.257
314	0.256
315	0.255
315	0.254
316	0.254
316	0.253
317	0.252
317	0.252
318	0.251
318	0.25
318	0.249
319	0.249
319	0.248
320	0.247
320	0.247
321	0.246
321	0.245
322	0.244
322	0.243
323	0.242
323	0.242
324	0.241
324	0.24
324	0.239
325	0.239
325	0.238
326	0.237
326	0.236
327	0.236
327	0.235
328	0.234
328	0.234
329	0.233
329	0.232
330	0.231
330	0.231
330	0.23
331	0.229
331	0.228
332	0.227
332	0.227
333	0.226
333	0.225
334	0.225
334	0.224
335	0.223
335	0.223
336	0.222
336	0.221
336	0.221
337	0.22
337	0.22
338	0.219
338	0.219
339	0.218
339	0.218
340	0.217
340	0.217
341	0.216
341	0.216
342	0.215
342	0.214
342	0.214
343	0.213
343	0.213
344	0.212
344	0.212
345	0.211
345	0.211
346	0.21
346	0.21
347	0.209
347	0.209
348	0.209
348	0.208
348	0.208
349	0.207
349	0.207
350	0.206
350	0.206
351	0.205
351	0.205
352	0.205
352	0.204
353	0.204
353	0.204
354	0.203
354	0.203
354	0.202
355	0.202
355	0.201
356	0.201
356	0.2
357	0.2
357	0.199
358	0.199
358	0.199
359	0.199
359	0.199
360	0.199
360	0.199
360	0.199
361	0.199
361	0.199
362	0.199
362	0.199
363	0.199
363	0.199
364	0.199
364	0.199
365	0.198
365	0.198
366	0.198
366	0.198
366	0.198
367	0.197
367	0.197
368	0.197
368	0.196
369	0.196
369	0.196
370	0.196
370	0.196
371	0.195
371	0.195
372	0.195
372	0.195
372	0.195
373	0.194
373	0.194
374	0.194
374	0.194
375	0.194
375	0.193
376	0.193
376	0.193
377	0.193
377	0.193
378	0.193
378	0.193
378	0.193
379	0.193
379	0.193
380	0.193
380	0.193
381	0.193
381	0.193
382	0.193
382	0.192
383	0.192
383	0.192
383	0.191
384	0.191
384	0.191
385	0.191
385	0.191
386	0.191
386	0.191
387	0.19
387	0.19
388	0.19
388	0.19
389	0.19
389	0.19
389	0.19
390	0.19
390	0.19
391	0.189
391	0.189
392	0.189
392	0.189
393	0.189
393	0.189
394	0.189
394	0.189
394	0.188
395	0.188
395	0.188
396	0.187
396	0.187
397	0.187
397	0.187
398	0.187
398	0.187
399	0.187
399	0.187
400	0.186
400	0.186
400	0.186
401	0.185
401	0.185
402	0.184
402	0.184
403	0.184
403	0.184
404	0.184
404	0.183
405	0.183
405	0.183
405	0.183
406	0.183
406	0.182
407	0.182
407	0.182
408	0.182
408	0.181
409	0.181
409	0.181
410	0.181
410	0.181
411	0.181
411	0.18
411	0.18
412	0.18
412	0.18
413	0.18
413	0.179
414	0.179
414	0.179
415	0.179
415	0.179
416	0.178
416	0.178
416	0.178
417	0.178
417	0.178
418	0.178
418	0.178
419	0.178
419	0.178
420	0.179
420	0.179
421	0.18
421	0.18
421	0.18
422	0.18
422	0.18
423	0.18
423	0.18
424	0.179
424	0.179
425	0.178
425	0.178
426	0.177
426	0.177
427	0.177
427	0.177
427	0.177
428	0.177
428	0.177
429	0.177
429	0.178
430	0.177
430	0.177
431	0.177
431	0.177
432	0.177
432	0.176
432	0.176
433	0.175
433	0.175
434	0.175
434	0.174
435	0.175
435	0.175
436	0.175
436	0.175
437	0.175
437	0.175
437	0.175
438	0.175
438	0.175
439	0.175
439	0.175
440	0.174
440	0.174
441	0.174
441	0.174
442	0.173
442	0.173
442	0.173
443	0.173
443	0.173
444	0.174
444	0.174
445	0.174
445	0.174
446	0.174
446	0.174
447	0.174
447	0.174
447	0.174
448	0.174
448	0.174
449	0.174
449	0.174
450	0.174
450	0.174
451	0.174
451	0.174
452	0.174
452	0.174
452	0.174
453	0.174
453	0.173
454	0.173
454	0.173
455	0.173
455	0.173
456	0.173
456	0.173
457	0.173
457	0.173
458	0.174
458	0.174
458	0.174
459	0.174
459	0.174
460	0.173
460	0.173
461	0.173
461	0.173
462	0.173
462	0.174
463	0.174
463	0.175
463	0.175
464	0.175
464	0.175
465	0.176
465	0.176
466	0.176
466	0.177
467	0.177
467	0.177
467	0.177
468	0.177
468	0.176
469	0.176
469	0.176
470	0.176
470	0.176
471	0.175
471	0.175
472	0.175
472	0.176
472	0.176
473	0.177
473	0.177
474	0.177
474	0.178
475	0.178
475	0.179
476	0.179
476	0.179
477	0.18
477	0.18
477	0.18
478	0.18
478	0.18
479	0.181
479	0.181
480	0.182
480	0.183
481	0.184
481	0.185
482	0.186
482	0.187
482	0.188
483	0.19
483	0.191
484	0.193
484	0.193
485	0.194
485	0.195
486	0.196
486	0.196
487	0.197
487	0.198
487	0.198
488	0.198
488	0.199
489	0.199
489	0.201
490	0.202
490	0.203
491	0.203
491	0.205
492	0.206
492	0.206
492	0.207
493	0.208
493	0.209
494	0.211
494	0.213
495	0.214
495	0.215
496	0.217
496	0.218
496	0.22
497	0.221
497	0.223
498	0.224
498	0.226
499	0.227
499	0.228
500	0.229
500	0.231
501	0.232
501	0.234
501	0.235
502	0.236
502	0.238
503	0.24
503	0.242
504	0.243
504	0.244
505	0.245
505	0.246
506	0.247
506	0.249
506	0.25
507	0.251
507	0.252
508	0.253
508	0.255
509	0.256
509	0.258
510	0.259
510	0.26
511	0.261
511	0.262
511	0.263
512	0.264
512	0.265
513	0.265
513	0.266
514	0.266
514	0.266
515	0.267
515	0.267
515	0.268
516	0.269
516	0.27
517	0.271
517	0.271
518	0.272
518	0.272
519	0.272
519	0.272
520	0.272
520	0.271
520	0.271
521	0.27
521	0.269
522	0.268
522	0.268
523	0.267
523	0.267
524	0.267
524	0.267
524	0.268
525	0.268
525	0.268
526	0.269
526	0.269
527	0.269
527	0.27
528	0.269
528	0.269
529	0.269
529	0.269
529	0.268
530	0.268
530	0.267
531	0.266
531	0.266
532	0.265
532	0.264
533	0.263
533	0.262
533	0.261
534	0.26
534	0.259
535	0.258
535	0.258
536	0.256
536	0.255
537	0.254
537	0.253
538	0.252
538	0.25
538	0.249
539	0.247
539	0.246
540	0.244
540	0.242
541	0.24
541	0.238
542	0.236
542	0.234
542	0.232
543	0.23
543	0.228
544	0.226
544	0.224
545	0.222
545	0.221
546	0.219
546	0.217
547	0.215
547	0.212
547	0.21
548	0.208
548	0.205
549	0.203
549	0.201
550	0.199
550	0.196
551	0.193
551	0.191
551	0.19
552	0.188
552	0.187
553	0.185
553	0.184
554	0.182
554	0.18
555	0.177
555	0.175
556	0.172
556	0.17
556	0.168
557	0.165
557	0.163
558	0.16
558	0.158
559	0.156
559	0.154
560	0.153
560	0.151
560	0.15
561	0.149
561	0.148
562	0.147
562	0.145
563	0.142
563	0.14
564	0.137
564	0.135
564	0.132
565	0.13
565	0.128
566	0.126
566	0.123
567	0.122
567	0.121
568	0.12
568	0.119
568	0.118
569	0.118
569	0.118
570	0.117
570	0.115
571	0.115
571	0.114
572	0.113
572	0.112
573	0.111
573	0.11
573	0.108
574	0.107
574	0.106
575	0.105
575	0.105
576	0.105
576	0.103
577	0.101
577	0.1
577	0.1
578	0.099
578	0.098
579	0.098
579	0.098
580	0.096
580	0.093
581	0.091
581	0.089
581	0.089
582	0.088
582	0.087
583	0.087
583	0.086
584	0.083
584	0.08
585	0.079
585	0.079
585	0.078
586	0.078
586	0.077
587	0.076
587	0.074
588	0.073
588	0.072
589	0.071
589	0.071
590	0.071
590	0.071
590	0.072
591	0.072
591	0.072
592	0.071
592	0.07
593	0.07
593	0.07
594	0.069
594	0.067
594	0.066
595	0.066
595	0.064
596	0.064
596	0.065
597	0.066
597	0.066
598	0.067
598	0.068
598	0.069
599	0.069
599	0.069
600	0.069
600	0.068
601	0.067
601	0.066
602	0.065
602	0.064
602	0.064
603	0.064
603	0.065
604	0.066
604	0.066
605	0.068
605	0.069
606	0.07
606	0.069
606	0.069
607	0.069
607	0.068
608	0.067
608	0.066
609	0.065
609	0.065
610	0.064
610	0.063
610	0.063
611	0.065
611	0.066
612	0.067
612	0.068
613	0.069
613	0.071
614	0.07
614	0.069
614	0.068
615	0.068
615	0.067
616	0.066
616	0.066
617	0.065
617	0.064
618	0.062
618	0.061
618	0.061
619	0.061
619	0.062
620	0.064
620	0.064
621	0.065
621	0.065
622	0.066
622	0.066
622	0.066
623	0.066
623	0.067
624	0.068
624	0.067
625	0.067
625	0.067
626	0.067
626	0.067
626	0.068
627	0.069
627	0.07
628	0.071
628	0.071
629	0.072
629	0.072
630	0.073
630	0.073
630	0.074
631	0.075
631	0.076
632	0.076
632	0.077
633	0.078
633	0.079
634	0.081
634	0.082
634	0.084
635	0.085
635	0.086
636	0.087
636	0.089
637	0.089
637	0.09
638	0.091
638	0.093
638	0.094
639	0.095
639	0.096
640	0.097
640	0.098
641	0.099
641	0.101
642	0.103
642	0.105
642	0.107
643	0.108
643	0.11
644	0.112
644	0.114
645	0.116
645	0.118
646	0.121
646	0.123
646	0.126
647	0.128
647	0.131
648	0.132
648	0.134
649	0.136
649	0.139
650	0.141
650	0.143
650	0.145
651	0.147
651	0.149
652	0.151
652	0.153
653	0.156
653	0.163
653	0.173
654	0.138
654	0.113
655	0.115
655	0.117
656	0.118
656	0.12
657	0.121
657	0.123
657	0.124
658	0.122
658	0.113
659	0.144
659	0.188
660	0.194
660	0.196
661	0.198
661	0.201
661	0.204
662	0.208
662	0.212
663	0.215
663	0.218
664	0.221
664	0.224
665	0.227
665	0.23
665	0.233
666	0.236
666	0.238
667	0.24
667	0.242
668	0.244
668	0.247
669	0.249
669	0.252
669	0.256
670	0.259
670	0.262
671	0.265
671	0.267
672	0.269
672	0.271
672	0.273
673	0.275
673	0.277
674	0.278
674	0.278
675	0.279
675	0.28
676	0.281
676	0.282
676	0.283
677	0.285
677	0.287
678	0.288
678	0.289
679	0.291
679	0.292
680	0.295
680	0.297
680	0.298
681	0.299
681	0.301
682	0.302
682	0.303
683	0.304
683	0.306
684	0.307
684	0.307
684	0.306
685	0.307
685	0.307
686	0.307
686	0.307
687	0.307
687	0.307
687	0.307
688	0.307
688	0.307
689	0.307
689	0.307
690	0.306
690	0.305
691	0.304
691	0.303
691	0.302
692	0.3
692	0.299
693	0.298
693	0.298
694	0.296
694	0.294
695	0.294
695	0.295
695	0.295
696	0.294
696	0.293
697	0.292
697	0.291
698	0.29
698	0.289
698	0.287
699	0.287
699	0.284
700	0.282
700	0.28
701	0.279
701	0.277
702	0.275
702	0.274
702	0.272
703	0.27
703	0.268
704	0.266
704	0.264
705	0.263
705	0.261
705	0.259
706	0.257
706	0.255
707	0.253
707	0.251
708	0.249
708	0.247
709	0.245
709	0.242
709	0.239
710	0.235
710	0.232
711	0.23
711	0.227
712	0.225
712	0.223
713	0.221
713	0.219
713	0.217
714	0.215
714	0.213
715	0.212
715	0.21
716	0.208
716	0.207
716	0.205
717	0.204
717	0.203
718	0.201
718	0.199
719	0.197
719	0.196
720	0.194
720	0.192
720	0.19
721	0.188
721	0.185
722	0.183
722	0.18
723	0.178
723	0.176
723	0.174
724	0.171
724	0.169
725	0.166
725	0.164
726	0.161
726	0.159
727	0.156
727	0.154
727	0.151
728	0.148
728	0.146
729	0.145
729	0.143
730	0.142
730	0.14
730	0.138
731	0.136
731	0.135
732	0.133
732	0.131
733	0.129
733	0.126
734	0.124
734	0.121
734	0.119
735	0.118
735	0.117
736	0.115
736	0.114
737	0.113
737	0.113
737	0.113
738	0.111
738	0.109
739	0.107
739	0.105
740	0.103
740	0.101
741	0.099
741	0.096
741	0.092
742	0.088
742	0.086
743	0.084
743	0.082
744	0.08
744	0.078
744	0.077
745	0.075
745	0.073
746	0.071
746	0.07
747	0.069
747	0.069
748	0.068
748	0.067
748	0.065
749	0.064
749	0.063
750	0.062
750	0.061
751	0.06
751	0.06
751	0.06
752	0.059
752	0.058
753	0.058
753	0.057
754	0.057
754	0.056
754	0.056
755	0.056
755	0.056
756	0.055
756	0.053
757	0.052
757	0.051
758	0.05
758	0.049
758	0.048
759	0.047
759	0.045
760	0.043
760	0.04
761	0.039
761	0.038
761	0.037
762	0.035
762	0.035
763	0.034
763	0.032
764	0.03
764	0.029
764	0.027
765	0.025
765	0.023
766	0.022
766	0.021
767	0.02
767	0.017
768	0.015
768	0.014
768	0.013
769	0.012
769	0.011
770	0.01
770	0.009
771	0.006
771	0.004
771	0.001
772	-0.001
772	-0.003
773	-0.005
773	-0.008
774	-0.011
774	-0.014
775	-0.017
775	-0.019
775	-0.022
776	-0.025
776	-0.028
777	-0.03
777	-0.033
778	-0.035
778	-0.038
778	-0.04
779	-0.041
779	-0.042
780	-0.045
780	-0.047
781	-0.05
781	-0.053
781	-0.057
782	-0.062
782	-0.067
783	-0.073
783	-0.078
784	-0.084
784	-0.091
784	-0.097
785	-0.104
785	-0.11
786	-0.116
786	-0.12
787	-0.121
787	-0.124
788	-0.129
788	-0.135
788	-0.14
789	-0.145
789	-0.147
790	-0.147
790	-0.149
791	-0.151
791	-0.152
791	-0.155
792	-0.15
792	-0.139
793	-0.133
793	-0.129
794	-0.127
794	-0.13
794	-0.134
795	-0.136
795	-0.136
796	-0.137
796	-0.14
797	-0.149
797	-0.16
797	-0.166
798	-0.172
798	-0.174
799	-0.175
799	-0.174
800	-0.173
800	-0.175
801	-0.178
801	-0.178
801	-0.179
802	-0.18
802	-0.182
803	-0.182
803	-0.183
804	-0.182
804	-0.176
804	-0.17
805	-0.166
805	-0.164
806	-0.162
806	-0.161
807	-0.16
807	-0.159
807	-0.159
808	-0.159
808	-0.16
809	-0.165
809	-0.171
810	-0.175
810	-0.178
810	-0.182
811	-0.185
811	-0.185
812	-0.181
812	-0.178
813	-0.178
813	-0.179
813	-0.179
814	-0.18
814	-0.179
815	-0.176
815	-0.172
816	-0.168
816	-0.165
817	-0.165
817	-0.162
817	-0.156
818	-0.148
818	-0.138
819	-0.128
819	-0.119
820	-0.112
820	-0.105
820	-0.097
821	-0.09
821	-0.084
822	-0.078
822	-0.074
823	-0.07
823	-0.068
823	-0.066
824	-0.063
824	-0.06
825	-0.056
825	-0.053
826	-0.051
826	-0.049
826	-0.047
827	-0.045
827	-0.043
828	-0.041
828	-0.04
829	-0.038
829	-0.037
829	-0.036
830	-0.035
830	-0.034
831	-0.032
831	-0.03
832	-0.028
832	-0.027
832	-0.025
833	-0.024
833	-0.022
834	-0.02
834	-0.018
835	-0.017
835	-0.015
835	-0.014
836	-0.013
836	-0.012
837	-0.011
837	-0.01
838	-0.009
838	-0.009
839	-0.008
839	-0.008
839	-0.008
840	-0.008
840	-0.008
841	-0.008
841	-0.007
842	-0.007
842	-0.007
842	-0.007
843	-0.007
843	-0.007
844	-0.007
844	-0.006
845	-0.006
845	-0.005
845	-0.005
846	-0.005
846	-0.004
847	-0.004
847	-0.004
848	-0.004
848	-0.004
848	-0.004
849	-0.004
849	-0.005
850	-0.005
850	-0.006
851	-0.006
851	-0.007
851	-0.007
852	-0.007
852	-0.007
853	-0.006
853	-0.006
854	-0.005
854	-0.005
854	-0.004
855	-0.004
855	-0.004
856	-0.005
856	-0.005
857	-0.005
857	-0.006
857	-0.007
858	-0.007
858	-0.008
859	-0.009
859	-0.009
860	-0.009
860	-0.009
860	-0.009
861	-0.009
861	-0.008
862	-0.008
862	-0.008
863	-0.008
863	-0.008
863	-0.008
864	-0.008
864	-0.008
865	-0.007
865	-0.007
866	-0.006
866	-0.006
866	-0.005
867	-0.004
867	-0.002
868	-0.001
868	0
869	0.002
869	0.003
869	0.003
870	0.003
870	0.003
871	0.003
871	0.002
872	0.001
872	-0
872	-0.002
873	-0.003
873	-0.004
874	-0.005
874	-0.005
875	-0.005
875	-0.005
875	-0.005
876	-0.004
876	-0.004
877	-0.003
877	-0.002
878	-0.001
878	-0
878	0.001
879	0.001
879	0.002
880	0.002
880	0.003
881	0.003
881	0.004
881	0.004
882	0.004
882	0.004
883	0.004
883	0.003
884	0.003
884	0.003
884	0.002
885	0.002
885	0.002
886	0.002
886	0.002
887	0.002
887	0.002
887	0.002
888	0.002
888	0.001
889	0.001
889	0.001
890	0.001
890	0.001
890	0
891	-0.001
891	-0.001
892	-0.002
892	-0.003
893	-0.004
893	-0.005
893	-0.006
894	-0.007
894	-0.008
895	-0.009
895	-0.01
895	-0.011
896	-0.011
896	-0.012
897	-0.012
897	-0.012
898	-0.012
898	-0.012
898	-0.012
899	-0.011
899	-0.01
900	-0.01
900	-0.009
901	-0.008
901	-0.007
901	-0.006
902	-0.005
902	-0.005
903	-0.004
903	-0.004
904	-0.003
904	-0.003
904	-0.003
905	-0.003
905	-0.002
906	-0.002
906	-0.001
907	-0.001
907	-0
907	0
908	0.001
908	0.001
909	0.001
909	0.002
910	0.002
910	0.002
910	0.003
911	0.003
911	0.004
912	0.004
912	0.005
913	0.005
913	0.005
913	0.005
914	0.005
914	0.004
915	0.003
915	0.002
916	0.001
916	-0.001
916	-0.002
917	-0.004
917	-0.005
918	-0.006
918	-0.007
918	-0.007
919	-0.007
919	-0.007
920	-0.007
920	-0.006
921	-0.005
921	-0.005
921	-0.004
922	-0.003
922	-0.002
923	-0.002
923	-0.001
924	-0.001
924	-0.001
924	-0.001
925	-0.002
925	-0.002
926	-0.002
926	-0.002
927	-0.003
927	-0.003
927	-0.003
928	-0.003
928	-0.003
929	-0.003
929	-0.003
930	-0.002
930	-0.002
930	-0.002
931	-0.002
931	-0.001
932	-0.001
932	-0.001
933	-0
933	-0
933	0
934	0.001
934	0.001
935	0.001
935	0.001
935	0.002
936	0.002
936	0.002
937	0.002
937	0.001
938	0.001
938	0.001
938	0
939	-0
939	-0.001
940	-0.002
940	-0.002
941	-0.003
941	-0.003
941	-0.003
942	-0.003
942	-0.003
943	-0.003
943	-0.003
944	-0.003
944	-0.003
944	-0.003
945	-0.003
945	-0.003
946	-0.004
946	-0.004
946	-0.005
947	-0.005
947	-0.006
948	-0.006
948	-0.006
949	-0.007
949	-0.007
949	-0.007
950	-0.007
950	-0.006
951	-0.006
951	-0.006
952	-0.006
952	-0.005
952	-0.005
953	-0.004
953	-0.004
954	-0.005
954	-0.005
955	-0.006
955	-0.007
955	-0.007
956	-0.007
956	-0.008
957	-0.009
957	-0.009
957	-0.01
958	-0.011
958	-0.011
959	-0.012
959	-0.012
960	-0.012
960	-0.013
960	-0.013
961	-0.014
961	-0.014
962	-0.014
962	-0.014
963	-0.013
963	-0.013
963	-0.012
964	-0.011
964	-0.01
965	-0.008
965	-0.007
966	-0.006
966	-0.005
966	-0.004
967	-0.003
967	-0.002
968	-0.002
968	-0.001
968	-0.001
969	-0.001
969	-0.002
970	-0.002
970	-0.003
971	-0.003
971	-0.004
971	-0.004
972	-0.005
972	-0.005
973	-0.005
973	-0.005
974	-0.005
974	-0.005
974	-0.005
975	-0.005
975	-0.005
976	-0.004
976	-0.004
976	-0.005
977	-0.006
977	-0.006
978	-0.007
978	-0.009
979	-0.01
979	-0.011
979	-0.012
980	-0.013
980	-0.014
981	-0.016
981	-0.017
982	-0.017
982	-0.017
982	-0.017
983	-0.017
983	-0.016
984	-0.016
984	-0.015
984	-0.014
985	-0.013
985	-0.012
986	-0.012
986	-0.012
987	-0.011
987	-0.011
987	-0.01
988	-0.01
988	-0.009
989	-0.009
989	-0.009
990	-0.008
990	-0.007
990	-0.006
991	-0.005
991	-0.004
992	-0.003
992	-0.002
992	-0.001
993	-0.001
993	-0
994	0
994	0
995	0
995	0
995	-0
996	-0
996	-0.001
997	-0.001
997	-0.001
997	-0.001
998	-0.002
998	-0.002
999	-0.001
999	-0.001
1000	-0.001
1000	-0
1000	0
1001	0.001
1001	0.002
1002	0.002
1002	0.002
1003	0.003
1003	0.003
1003	0.003
1004	0.003
1004	0.002
1005	0.002
1005	0.001
1005	0
1006	-0
1006	-0.001
1007	-0.002
1007	-0.002
1008	-0.003
1008	-0.003
1008	-0.003
1009	-0.003
1009	-0.003
1010	-0.003
1010	-0.004
1010	-0.004
1011	-0.004
1011	-0.004
1012	-0.004
1012	-0.005
1013	-0.005
1013	-0.005
1013	-0.006
1014	-0.007
1014	-0.008
1015	-0.008
1015	-0.009
1016	-0.01
1016	-0.01
1016	-0.011
1017	-0.011
1017	-0.012
1018	-0.012
1018	-0.012
1018	-0.012
1019	-0.012
1019	-0.012
1020	-0.013
1020	-0.013
1021	-0.013
1021	-0.012
1021	-0.012
1022	-0.012
1022	-0.012
1023	-0.011
1023	-0.011
1023	-0.011
1024	-0.01
1024	-0.01
1025	-0.01
1025	-0.01
1026	-0.01
1026	-0.01
1026	-0.01
1027	-0.01
1027	-0.01
1028	-0.01
1028	-0.01
1028	-0.01
1029	-0.01
1029	-0.01
1030	-0.01
1030	-0.01
1031	-0.01
1031	-0.01
1031	-0.01
1032	-0.01
1032	-0.01
1033	-0.01
1033	-0.011
1033	-0.011
1034	-0.013
1034	-0.014
1035	-0.015
1035	-0.016
1036	-0.017
1036	-0.018
1036	-0.019
1037	-0.019
1037	-0.019
1038	-0.02
1038	-0.02
1039	-0.019
1039	-0.018
1039	-0.017
1040	-0.017
1040	-0.016
1041	-0.016
1041	-0.016
1041	-0.016
1042	-0.016
1042	-0.017
1043	-0.017
1043	-0.018
1044	-0.019
1044	-0.02
1044	-0.02
1045	-0.021
1045	-0.021
1046	-0.022
1046	-0.022
1046	-0.022
1047	-0.021
1047	-0.02
1048	-0.019
1048	-0.019
1049	-0.019
1049	-0.019
1049	-0.018
1050	-0.018
1050	-0.018
1051	-0.018
1051	-0.018
1051	-0.018
1052	-0.018
1052	-0.018
1053	-0.019
1053	-0.019
1053	-0.019
1054	-0.019
1054	-0.019
1055	-0.019
1055	-0.019
1056	-0.019
1056	-0.02
1056	-0.021
1057	-0.021
1057	-0.022
1058	-0.022
1058	-0.023
1058	-0.023
1059	-0.024
1059	-0.025
1060	-0.025
1060	-0.025
1061	-0.025
1061	-0.025
1061	-0.025
1062	-0.025
1062	-0.025
1063	-0.025
1063	-0.025
1063	-0.025
1064	-0.025
1064	-0.025
1065	-0.025
1065	-0.025
1066	-0.025
1066	-0.025
1066	-0.025
1067	-0.025
1067	-0.025
1068	-0.025
1068	-0.025
1068	-0.025
1069	-0.026
1069	-0.027
1070	-0.027
1070	-0.028
1071	-0.028
1071	-0.028
1071	-0.029
1072	-0.03
1072	-0.03
1073	-0.03
1073	-0.03
1073	-0.031
1074	-0.03
1074	-0.03
1075	-0.031
1075	-0.031
1076	-0.032
1076	-0.032
1076	-0.032
1077	-0.032
1077	-0.032
1078	-0.033
1078	-0.032
1078	-0.031
1079	-0.03
1079	-0.029
1080	-0.028
1080	-0.027
1080	-0.026
1081	-0.025
1081	-0.023
1082	-0.022
1082	-0.022
1083	-0.021
1083	-0.021
1083	-0.02
1084	-0.02
1084	-0.019
1085	-0.018
1085	-0.017
1085	-0.016
1086	-0.016
1086	-0.015
1087	-0.014
1087	-0.014
1088	-0.015
1088	-0.015
1088	-0.014
1089	-0.015
1089	-0.015
1090	-0.016
1090	-0.016
1090	-0.015
1091	-0.015
1091	-0.015
1092	-0.014
1092	-0.013
1092	-0.012
1093	-0.011
1093	-0.008
1094	-0.006
1094	-0.004
1095	-0.002
1095	-0
1095	0.002
1096	0.004
1096	0.007
1097	0.009
1097	0.011
1097	0.013
1098	0.013
1098	0.015
1099	0.017
1099	0.019
1100	0.021
1100	0.024
1100	0.026
1101	0.028
1101	0.031
1102	0.036
1102	0.039
1102	0.044
1103	0.049
1103	0.055
1104	0.061
1104	0.068
1104	0.076
1105	0.083
1105	0.09
1106	0.095
1106	0.104
1107	0.112
1107	0.127
1107	0.142
1108	0.193
1108	0.265
1109	0.377
1109	0.584
1109	0.804
1110	2.756
1110	-0
1111	-0
1111	-0
