Data from 15c-2a_Absorbance__974__00974.txt Node

Date: Wed Jan 17 10:12:53 CET 2024
User: Marek
Spectrometer: MAYP115816
Trigger mode: 0
Integration Time (sec): 2.000000E-1
Scans to average: 10
Electric dark correction enabled: true
Nonlinearity correction enabled: true
Boxcar width: 5
XAxis mode: Wavelengths
Number of Pixels in Spectrum: 2068
>>>>>Begin Spectral Data<<<<<
199	-1.597
199	-1.457
200	-1.298
200	-1.175
201	-1.099
201	-1.051
202	-0.981
202	-0.93
203	-0.884
203	-0.844
204	-0.819
204	-0.796
205	-0.773
205	-0.763
205	-0.762
206	-0.761
206	-0.758
207	-0.755
207	-0.751
208	-0.75
208	-0.749
209	-0.745
209	-0.743
210	-0.743
210	-0.744
211	-0.742
211	-0.741
212	-0.742
212	-0.741
213	-0.739
213	-0.738
213	-0.737
214	-0.737
214	-0.736
215	-0.735
215	-0.733
216	-0.733
216	-0.731
217	-0.726
217	-0.725
218	-0.724
218	-0.721
219	-0.718
219	-0.717
220	-0.713
220	-0.711
221	-0.706
221	-0.703
221	-0.699
222	-0.695
222	-0.691
223	-0.686
223	-0.683
224	-0.677
224	-0.67
225	-0.662
225	-0.654
226	-0.645
226	-0.633
227	-0.62
227	-0.607
228	-0.591
228	-0.573
229	-0.552
229	-0.528
229	-0.502
230	-0.474
230	-0.443
231	-0.41
231	-0.375
232	-0.34
232	-0.301
233	-0.26
233	-0.218
234	-0.177
234	-0.136
235	-0.097
235	-0.059
236	-0.022
236	0.013
236	0.046
237	0.077
237	0.105
238	0.131
238	0.155
239	0.178
239	0.198
240	0.217
240	0.233
241	0.249
241	0.262
242	0.274
242	0.286
243	0.296
243	0.306
243	0.315
244	0.322
244	0.329
245	0.335
245	0.341
246	0.346
246	0.352
247	0.356
247	0.361
248	0.365
248	0.368
249	0.372
249	0.375
250	0.378
250	0.381
250	0.384
251	0.386
251	0.388
252	0.39
252	0.392
253	0.395
253	0.396
254	0.398
254	0.399
255	0.401
255	0.402
256	0.403
256	0.404
257	0.405
257	0.406
258	0.406
258	0.406
258	0.407
259	0.407
259	0.407
260	0.407
260	0.407
261	0.406
261	0.406
262	0.405
262	0.405
263	0.404
263	0.404
264	0.403
264	0.402
265	0.401
265	0.4
265	0.399
266	0.398
266	0.396
267	0.395
267	0.393
268	0.392
268	0.39
269	0.389
269	0.387
270	0.385
270	0.383
271	0.381
271	0.379
272	0.378
272	0.376
272	0.374
273	0.372
273	0.37
274	0.368
274	0.366
275	0.364
275	0.362
276	0.36
276	0.358
277	0.355
277	0.353
278	0.351
278	0.348
278	0.346
279	0.344
279	0.341
280	0.339
280	0.337
281	0.335
281	0.333
282	0.33
282	0.329
283	0.327
283	0.325
284	0.323
284	0.321
285	0.32
285	0.318
285	0.316
286	0.314
286	0.313
287	0.311
287	0.31
288	0.308
288	0.306
289	0.305
289	0.303
290	0.302
290	0.3
291	0.299
291	0.298
292	0.296
292	0.295
292	0.293
293	0.292
293	0.291
294	0.29
294	0.289
295	0.288
295	0.287
296	0.286
296	0.285
297	0.284
297	0.283
298	0.282
298	0.282
298	0.281
299	0.28
299	0.279
300	0.279
300	0.278
301	0.277
301	0.276
302	0.275
302	0.275
303	0.274
303	0.273
304	0.272
304	0.272
305	0.271
305	0.27
305	0.269
306	0.268
306	0.268
307	0.267
307	0.266
308	0.266
308	0.265
309	0.264
309	0.264
310	0.263
310	0.262
311	0.261
311	0.261
311	0.26
312	0.259
312	0.259
313	0.258
313	0.257
314	0.256
314	0.256
315	0.255
315	0.254
316	0.253
316	0.253
317	0.252
317	0.252
318	0.251
318	0.25
318	0.249
319	0.249
319	0.248
320	0.247
320	0.246
321	0.245
321	0.245
322	0.244
322	0.243
323	0.242
323	0.241
324	0.24
324	0.24
324	0.239
325	0.238
325	0.237
326	0.237
326	0.236
327	0.235
327	0.235
328	0.234
328	0.234
329	0.233
329	0.232
330	0.231
330	0.231
330	0.23
331	0.229
331	0.228
332	0.228
332	0.227
333	0.226
333	0.225
334	0.225
334	0.224
335	0.223
335	0.223
336	0.222
336	0.222
336	0.221
337	0.22
337	0.22
338	0.219
338	0.219
339	0.218
339	0.218
340	0.217
340	0.217
341	0.216
341	0.215
342	0.215
342	0.214
342	0.214
343	0.213
343	0.213
344	0.212
344	0.212
345	0.212
345	0.211
346	0.211
346	0.211
347	0.21
347	0.21
348	0.209
348	0.209
348	0.208
349	0.208
349	0.207
350	0.206
350	0.206
351	0.205
351	0.205
352	0.205
352	0.204
353	0.204
353	0.203
354	0.203
354	0.202
354	0.202
355	0.202
355	0.202
356	0.201
356	0.201
357	0.201
357	0.2
358	0.2
358	0.2
359	0.2
359	0.2
360	0.2
360	0.2
360	0.2
361	0.2
361	0.2
362	0.2
362	0.2
363	0.2
363	0.2
364	0.2
364	0.199
365	0.199
365	0.199
366	0.198
366	0.198
366	0.198
367	0.198
367	0.198
368	0.198
368	0.197
369	0.197
369	0.197
370	0.196
370	0.196
371	0.196
371	0.196
372	0.195
372	0.195
372	0.195
373	0.194
373	0.194
374	0.194
374	0.194
375	0.194
375	0.193
376	0.193
376	0.193
377	0.193
377	0.193
378	0.193
378	0.193
378	0.193
379	0.193
379	0.193
380	0.193
380	0.193
381	0.193
381	0.192
382	0.192
382	0.192
383	0.192
383	0.191
383	0.191
384	0.19
384	0.19
385	0.19
385	0.19
386	0.19
386	0.19
387	0.19
387	0.19
388	0.19
388	0.19
389	0.19
389	0.19
389	0.19
390	0.19
390	0.19
391	0.19
391	0.19
392	0.19
392	0.189
393	0.189
393	0.189
394	0.189
394	0.188
394	0.188
395	0.188
395	0.188
396	0.187
396	0.187
397	0.187
397	0.187
398	0.187
398	0.187
399	0.187
399	0.187
400	0.187
400	0.187
400	0.186
401	0.186
401	0.185
402	0.185
402	0.184
403	0.184
403	0.184
404	0.184
404	0.183
405	0.183
405	0.183
405	0.182
406	0.182
406	0.182
407	0.182
407	0.181
408	0.181
408	0.181
409	0.18
409	0.18
410	0.18
410	0.18
411	0.18
411	0.18
411	0.18
412	0.18
412	0.18
413	0.179
413	0.179
414	0.179
414	0.179
415	0.179
415	0.179
416	0.178
416	0.178
416	0.178
417	0.178
417	0.178
418	0.178
418	0.178
419	0.179
419	0.179
420	0.179
420	0.179
421	0.18
421	0.18
421	0.18
422	0.18
422	0.18
423	0.18
423	0.18
424	0.18
424	0.179
425	0.179
425	0.178
426	0.178
426	0.178
427	0.178
427	0.177
427	0.177
428	0.177
428	0.177
429	0.178
429	0.178
430	0.178
430	0.178
431	0.177
431	0.177
432	0.177
432	0.176
432	0.176
433	0.175
433	0.175
434	0.174
434	0.174
435	0.175
435	0.175
436	0.175
436	0.175
437	0.175
437	0.175
437	0.176
438	0.176
438	0.175
439	0.176
439	0.175
440	0.175
440	0.175
441	0.175
441	0.174
442	0.174
442	0.174
442	0.174
443	0.174
443	0.174
444	0.174
444	0.175
445	0.175
445	0.175
446	0.175
446	0.174
447	0.174
447	0.174
447	0.174
448	0.174
448	0.174
449	0.174
449	0.174
450	0.174
450	0.174
451	0.174
451	0.174
452	0.174
452	0.174
452	0.174
453	0.174
453	0.174
454	0.174
454	0.174
455	0.174
455	0.174
456	0.174
456	0.174
457	0.174
457	0.174
458	0.174
458	0.174
458	0.174
459	0.174
459	0.174
460	0.174
460	0.174
461	0.174
461	0.174
462	0.174
462	0.174
463	0.174
463	0.175
463	0.175
464	0.175
464	0.175
465	0.176
465	0.176
466	0.177
466	0.177
467	0.177
467	0.178
467	0.178
468	0.177
468	0.177
469	0.177
469	0.176
470	0.176
470	0.176
471	0.176
471	0.176
472	0.176
472	0.176
472	0.176
473	0.176
473	0.177
474	0.177
474	0.178
475	0.178
475	0.179
476	0.179
476	0.179
477	0.18
477	0.18
477	0.18
478	0.18
478	0.181
479	0.181
479	0.182
480	0.182
480	0.183
481	0.184
481	0.185
482	0.186
482	0.187
482	0.188
483	0.19
483	0.191
484	0.193
484	0.193
485	0.194
485	0.195
486	0.196
486	0.197
487	0.197
487	0.198
487	0.199
488	0.199
488	0.199
489	0.2
489	0.201
490	0.202
490	0.202
491	0.203
491	0.204
492	0.205
492	0.206
492	0.207
493	0.208
493	0.209
494	0.211
494	0.212
495	0.214
495	0.215
496	0.217
496	0.218
496	0.22
497	0.222
497	0.224
498	0.225
498	0.226
499	0.227
499	0.228
500	0.23
500	0.231
501	0.233
501	0.234
501	0.235
502	0.237
502	0.238
503	0.24
503	0.241
504	0.243
504	0.244
505	0.245
505	0.246
506	0.247
506	0.248
506	0.25
507	0.251
507	0.252
508	0.253
508	0.254
509	0.256
509	0.257
510	0.259
510	0.26
511	0.261
511	0.262
511	0.263
512	0.264
512	0.264
513	0.265
513	0.265
514	0.265
514	0.266
515	0.266
515	0.267
515	0.267
516	0.268
516	0.269
517	0.27
517	0.27
518	0.271
518	0.271
519	0.271
519	0.271
520	0.271
520	0.27
520	0.27
521	0.269
521	0.268
522	0.267
522	0.267
523	0.266
523	0.266
524	0.266
524	0.267
524	0.267
525	0.268
525	0.268
526	0.269
526	0.269
527	0.269
527	0.27
528	0.27
528	0.27
529	0.27
529	0.269
529	0.269
530	0.268
530	0.267
531	0.267
531	0.266
532	0.265
532	0.265
533	0.264
533	0.263
533	0.262
534	0.261
534	0.259
535	0.258
535	0.258
536	0.256
536	0.255
537	0.254
537	0.253
538	0.252
538	0.25
538	0.249
539	0.247
539	0.246
540	0.245
540	0.243
541	0.241
541	0.239
542	0.237
542	0.234
542	0.232
543	0.23
543	0.228
544	0.226
544	0.224
545	0.222
545	0.221
546	0.219
546	0.217
547	0.215
547	0.212
547	0.21
548	0.208
548	0.206
549	0.204
549	0.202
550	0.199
550	0.197
551	0.194
551	0.192
551	0.191
552	0.189
552	0.188
553	0.186
553	0.184
554	0.182
554	0.18
555	0.177
555	0.175
556	0.173
556	0.17
556	0.168
557	0.165
557	0.163
558	0.16
558	0.158
559	0.156
559	0.155
560	0.153
560	0.151
560	0.15
561	0.149
561	0.148
562	0.147
562	0.145
563	0.143
563	0.141
564	0.138
564	0.136
564	0.133
565	0.131
565	0.129
566	0.126
566	0.124
567	0.122
567	0.121
568	0.12
568	0.119
568	0.119
569	0.118
569	0.118
570	0.117
570	0.115
571	0.115
571	0.114
572	0.113
572	0.112
573	0.111
573	0.11
573	0.108
574	0.107
574	0.107
575	0.106
575	0.106
576	0.105
576	0.104
577	0.102
577	0.101
577	0.101
578	0.1
578	0.099
579	0.099
579	0.098
580	0.097
580	0.094
581	0.091
581	0.089
581	0.089
582	0.088
582	0.087
583	0.087
583	0.085
584	0.083
584	0.08
585	0.079
585	0.078
585	0.078
586	0.078
586	0.077
587	0.076
587	0.074
588	0.073
588	0.072
589	0.072
589	0.072
590	0.072
590	0.072
590	0.073
591	0.073
591	0.072
592	0.072
592	0.071
593	0.071
593	0.07
594	0.069
594	0.068
594	0.067
595	0.066
595	0.065
596	0.064
596	0.065
597	0.066
597	0.066
598	0.067
598	0.068
598	0.069
599	0.069
599	0.069
600	0.068
600	0.067
601	0.067
601	0.066
602	0.064
602	0.064
602	0.063
603	0.063
603	0.064
604	0.065
604	0.066
605	0.067
605	0.069
606	0.069
606	0.069
606	0.069
607	0.068
607	0.068
608	0.067
608	0.066
609	0.065
609	0.065
610	0.065
610	0.064
610	0.064
611	0.065
611	0.066
612	0.068
612	0.069
613	0.07
613	0.071
614	0.071
614	0.07
614	0.069
615	0.068
615	0.068
616	0.067
616	0.066
617	0.065
617	0.064
618	0.062
618	0.061
618	0.061
619	0.062
619	0.062
620	0.064
620	0.065
621	0.065
621	0.065
622	0.065
622	0.066
622	0.066
623	0.066
623	0.067
624	0.067
624	0.067
625	0.067
625	0.067
626	0.067
626	0.068
626	0.068
627	0.069
627	0.07
628	0.071
628	0.071
629	0.072
629	0.073
630	0.073
630	0.073
630	0.074
631	0.075
631	0.076
632	0.076
632	0.077
633	0.078
633	0.079
634	0.081
634	0.082
634	0.084
635	0.085
635	0.086
636	0.087
636	0.088
637	0.089
637	0.09
638	0.091
638	0.092
638	0.093
639	0.094
639	0.095
640	0.096
640	0.098
641	0.099
641	0.101
642	0.102
642	0.105
642	0.106
643	0.108
643	0.11
644	0.112
644	0.114
645	0.116
645	0.118
646	0.121
646	0.124
646	0.126
647	0.129
647	0.132
648	0.134
648	0.136
649	0.138
649	0.14
650	0.143
650	0.145
650	0.147
651	0.149
651	0.151
652	0.153
652	0.155
653	0.157
653	0.164
653	0.173
654	0.138
654	0.112
655	0.115
655	0.117
656	0.118
656	0.12
657	0.121
657	0.123
657	0.124
658	0.122
658	0.113
659	0.144
659	0.188
660	0.194
660	0.196
661	0.198
661	0.201
661	0.204
662	0.208
662	0.212
663	0.215
663	0.219
664	0.222
664	0.225
665	0.228
665	0.23
665	0.233
666	0.235
666	0.237
667	0.239
667	0.241
668	0.244
668	0.246
669	0.249
669	0.252
669	0.256
670	0.259
670	0.262
671	0.265
671	0.267
672	0.269
672	0.271
672	0.273
673	0.275
673	0.277
674	0.277
674	0.278
675	0.279
675	0.28
676	0.281
676	0.283
676	0.284
677	0.285
677	0.287
678	0.289
678	0.29
679	0.291
679	0.293
680	0.295
680	0.297
680	0.299
681	0.3
681	0.301
682	0.303
682	0.303
683	0.305
683	0.306
684	0.307
684	0.307
684	0.307
685	0.307
685	0.307
686	0.307
686	0.308
687	0.308
687	0.308
687	0.308
688	0.307
688	0.307
689	0.308
689	0.308
690	0.308
690	0.307
691	0.306
691	0.305
691	0.304
692	0.302
692	0.301
693	0.3
693	0.3
694	0.298
694	0.296
695	0.296
695	0.297
695	0.296
696	0.295
696	0.295
697	0.294
697	0.292
698	0.291
698	0.29
698	0.289
699	0.288
699	0.286
700	0.283
700	0.281
701	0.28
701	0.278
702	0.277
702	0.275
702	0.273
703	0.271
703	0.268
704	0.266
704	0.265
705	0.263
705	0.261
705	0.259
706	0.257
706	0.256
707	0.254
707	0.252
708	0.249
708	0.248
709	0.245
709	0.243
709	0.24
710	0.237
710	0.234
711	0.231
711	0.228
712	0.226
712	0.224
713	0.222
713	0.22
713	0.218
714	0.215
714	0.213
715	0.212
715	0.21
716	0.208
716	0.207
716	0.205
717	0.204
717	0.203
718	0.201
718	0.199
719	0.197
719	0.196
720	0.194
720	0.192
720	0.19
721	0.187
721	0.185
722	0.182
722	0.18
723	0.178
723	0.176
723	0.174
724	0.171
724	0.169
725	0.167
725	0.164
726	0.162
726	0.16
727	0.157
727	0.155
727	0.152
728	0.149
728	0.147
729	0.145
729	0.144
730	0.142
730	0.14
730	0.139
731	0.137
731	0.135
732	0.134
732	0.132
733	0.129
733	0.127
734	0.125
734	0.122
734	0.12
735	0.119
735	0.117
736	0.116
736	0.115
737	0.114
737	0.114
737	0.113
738	0.112
738	0.11
739	0.108
739	0.106
740	0.104
740	0.102
741	0.1
741	0.097
741	0.093
742	0.089
742	0.086
743	0.084
743	0.082
744	0.08
744	0.079
744	0.077
745	0.075
745	0.073
746	0.072
746	0.071
747	0.07
747	0.07
748	0.069
748	0.068
748	0.066
749	0.065
749	0.063
750	0.062
750	0.061
751	0.06
751	0.06
751	0.06
752	0.059
752	0.058
753	0.058
753	0.057
754	0.057
754	0.056
754	0.056
755	0.056
755	0.056
756	0.055
756	0.053
757	0.052
757	0.052
758	0.05
758	0.049
758	0.048
759	0.047
759	0.045
760	0.043
760	0.04
761	0.038
761	0.037
761	0.036
762	0.034
762	0.034
763	0.033
763	0.031
764	0.029
764	0.028
764	0.026
765	0.025
765	0.023
766	0.022
766	0.021
767	0.02
767	0.018
768	0.015
768	0.014
768	0.013
769	0.012
769	0.011
770	0.01
770	0.008
771	0.006
771	0.003
771	0.001
772	-0.002
772	-0.004
773	-0.006
773	-0.009
774	-0.012
774	-0.014
775	-0.017
775	-0.019
775	-0.022
776	-0.025
776	-0.028
777	-0.03
777	-0.033
778	-0.035
778	-0.038
778	-0.04
779	-0.041
779	-0.043
780	-0.045
780	-0.048
781	-0.051
781	-0.054
781	-0.058
782	-0.063
782	-0.068
783	-0.073
783	-0.078
784	-0.085
784	-0.091
784	-0.097
785	-0.104
785	-0.111
786	-0.117
786	-0.12
787	-0.121
787	-0.124
788	-0.129
788	-0.135
788	-0.14
789	-0.145
789	-0.147
790	-0.147
790	-0.149
791	-0.151
791	-0.152
791	-0.155
792	-0.15
792	-0.139
793	-0.133
793	-0.129
794	-0.127
794	-0.13
794	-0.134
795	-0.136
795	-0.136
796	-0.137
796	-0.14
797	-0.149
797	-0.16
797	-0.166
798	-0.172
798	-0.174
799	-0.175
799	-0.174
800	-0.173
800	-0.175
801	-0.178
801	-0.178
801	-0.179
802	-0.18
802	-0.182
803	-0.182
803	-0.183
804	-0.182
804	-0.176
804	-0.17
805	-0.166
805	-0.164
806	-0.162
806	-0.161
807	-0.16
807	-0.159
807	-0.159
808	-0.159
808	-0.16
809	-0.165
809	-0.171
810	-0.175
810	-0.178
810	-0.182
811	-0.185
811	-0.185
812	-0.181
812	-0.178
813	-0.178
813	-0.179
813	-0.179
814	-0.18
814	-0.179
815	-0.176
815	-0.172
816	-0.168
816	-0.165
817	-0.164
817	-0.162
817	-0.155
818	-0.147
818	-0.137
819	-0.127
819	-0.118
820	-0.111
820	-0.103
820	-0.095
821	-0.088
821	-0.082
822	-0.076
822	-0.071
823	-0.068
823	-0.065
823	-0.063
824	-0.061
824	-0.058
825	-0.054
825	-0.051
826	-0.048
826	-0.047
826	-0.045
827	-0.043
827	-0.041
828	-0.039
828	-0.038
829	-0.036
829	-0.035
829	-0.034
830	-0.034
830	-0.032
831	-0.03
831	-0.029
832	-0.028
832	-0.026
832	-0.025
833	-0.023
833	-0.022
834	-0.02
834	-0.018
835	-0.017
835	-0.015
835	-0.014
836	-0.013
836	-0.012
837	-0.012
837	-0.011
838	-0.01
838	-0.01
839	-0.009
839	-0.009
839	-0.009
840	-0.009
840	-0.009
841	-0.009
841	-0.009
842	-0.009
842	-0.009
842	-0.009
843	-0.009
843	-0.009
844	-0.009
844	-0.008
845	-0.008
845	-0.007
845	-0.007
846	-0.006
846	-0.006
847	-0.006
847	-0.006
848	-0.006
848	-0.006
848	-0.006
849	-0.006
849	-0.007
850	-0.007
850	-0.008
851	-0.008
851	-0.009
851	-0.009
852	-0.009
852	-0.008
853	-0.008
853	-0.007
854	-0.007
854	-0.006
854	-0.005
855	-0.005
855	-0.005
856	-0.005
856	-0.005
857	-0.006
857	-0.006
857	-0.007
858	-0.007
858	-0.008
859	-0.008
859	-0.009
860	-0.009
860	-0.009
860	-0.009
861	-0.008
861	-0.008
862	-0.008
862	-0.008
863	-0.008
863	-0.008
863	-0.008
864	-0.008
864	-0.008
865	-0.007
865	-0.007
866	-0.006
866	-0.005
866	-0.004
867	-0.002
867	-0.001
868	0.001
868	0.002
869	0.003
869	0.004
869	0.004
870	0.004
870	0.004
871	0.003
871	0.002
872	0.001
872	-0.001
872	-0.002
873	-0.004
873	-0.005
874	-0.006
874	-0.006
875	-0.006
875	-0.006
875	-0.006
876	-0.006
876	-0.005
877	-0.004
877	-0.003
878	-0.002
878	-0.001
878	0
879	0.001
879	0.002
880	0.002
880	0.003
881	0.003
881	0.004
881	0.004
882	0.004
882	0.004
883	0.003
883	0.003
884	0.003
884	0.002
884	0.002
885	0.001
885	0.001
886	0.001
886	0.001
887	0.001
887	0.001
887	0.001
888	0.001
888	0.002
889	0.002
889	0.002
890	0.002
890	0.002
890	0.001
891	0.001
891	0
892	-0
892	-0.001
893	-0.002
893	-0.003
893	-0.004
894	-0.004
894	-0.006
895	-0.007
895	-0.008
895	-0.009
896	-0.009
896	-0.01
897	-0.01
897	-0.01
898	-0.01
898	-0.01
898	-0.01
899	-0.009
899	-0.009
900	-0.008
900	-0.007
901	-0.006
901	-0.005
901	-0.004
902	-0.004
902	-0.003
903	-0.003
903	-0.003
904	-0.003
904	-0.002
904	-0.002
905	-0.002
905	-0.001
906	-0.001
906	-0
907	0
907	0.001
907	0.001
908	0.002
908	0.002
909	0.003
909	0.003
910	0.003
910	0.004
910	0.004
911	0.005
911	0.005
912	0.006
912	0.006
913	0.006
913	0.006
913	0.006
914	0.005
914	0.004
915	0.003
915	0.002
916	0.001
916	-0.001
916	-0.003
917	-0.004
917	-0.006
918	-0.007
918	-0.007
918	-0.007
919	-0.007
919	-0.007
920	-0.007
920	-0.006
921	-0.005
921	-0.005
921	-0.004
922	-0.003
922	-0.002
923	-0.001
923	-0.001
924	-0
924	-0
924	-0
925	-0.001
925	-0.001
926	-0.001
926	-0.001
927	-0.002
927	-0.002
927	-0.002
928	-0.003
928	-0.003
929	-0.003
929	-0.003
930	-0.003
930	-0.003
930	-0.002
931	-0.002
931	-0.001
932	-0.001
932	-0
933	0
933	0.001
933	0.002
934	0.002
934	0.003
935	0.003
935	0.003
935	0.003
936	0.004
936	0.004
937	0.003
937	0.003
938	0.003
938	0.002
938	0.002
939	0.001
939	0
940	-0.001
940	-0.001
941	-0.002
941	-0.002
941	-0.002
942	-0.002
942	-0.002
943	-0.002
943	-0.002
944	-0.001
944	-0.001
944	-0.001
945	-0.001
945	-0.001
946	-0.002
946	-0.002
946	-0.003
947	-0.003
947	-0.004
948	-0.004
948	-0.005
949	-0.005
949	-0.005
949	-0.005
950	-0.005
950	-0.005
951	-0.005
951	-0.005
952	-0.005
952	-0.004
952	-0.004
953	-0.004
953	-0.004
954	-0.004
954	-0.005
955	-0.005
955	-0.005
955	-0.006
956	-0.006
956	-0.006
957	-0.006
957	-0.007
957	-0.008
958	-0.008
958	-0.009
959	-0.01
959	-0.011
960	-0.011
960	-0.012
960	-0.013
961	-0.014
961	-0.014
962	-0.014
962	-0.014
963	-0.014
963	-0.013
963	-0.013
964	-0.011
964	-0.01
965	-0.009
965	-0.008
966	-0.006
966	-0.005
966	-0.004
967	-0.003
967	-0.002
968	-0.001
968	-0.001
968	-0.001
969	-0.001
969	-0.001
970	-0.001
970	-0.002
971	-0.002
971	-0.003
971	-0.003
972	-0.003
972	-0.003
973	-0.003
973	-0.004
974	-0.004
974	-0.004
974	-0.004
975	-0.004
975	-0.003
976	-0.003
976	-0.003
976	-0.004
977	-0.004
977	-0.005
978	-0.006
978	-0.007
979	-0.008
979	-0.009
979	-0.01
980	-0.011
980	-0.012
981	-0.013
981	-0.014
982	-0.014
982	-0.014
982	-0.014
983	-0.013
983	-0.013
984	-0.013
984	-0.012
984	-0.011
985	-0.01
985	-0.01
986	-0.01
986	-0.01
987	-0.009
987	-0.009
987	-0.009
988	-0.009
988	-0.009
989	-0.008
989	-0.008
990	-0.007
990	-0.007
990	-0.006
991	-0.004
991	-0.003
992	-0.003
992	-0.002
992	-0.001
993	-0
993	0
994	0.001
994	0.001
995	0.001
995	0.001
995	0.001
996	0.001
996	0
997	0
997	-0
997	-0
998	-0
998	-0
999	0
999	0.001
1000	0.001
1000	0.002
1000	0.002
1001	0.003
1001	0.003
1002	0.004
1002	0.004
1003	0.005
1003	0.005
1003	0.005
1004	0.005
1004	0.004
1005	0.004
1005	0.003
1005	0.003
1006	0.002
1006	0.001
1007	0.001
1007	0
1008	-0
1008	-0.001
1008	-0.001
1009	-0.001
1009	-0.001
1010	-0.001
1010	-0.001
1010	-0.001
1011	-0.001
1011	-0.001
1012	-0.001
1012	-0.001
1013	-0.002
1013	-0.002
1013	-0.003
1014	-0.003
1014	-0.004
1015	-0.004
1015	-0.004
1016	-0.005
1016	-0.005
1016	-0.005
1017	-0.006
1017	-0.006
1018	-0.006
1018	-0.006
1018	-0.006
1019	-0.007
1019	-0.007
1020	-0.007
1020	-0.007
1021	-0.008
1021	-0.008
1021	-0.008
1022	-0.008
1022	-0.008
1023	-0.008
1023	-0.008
1023	-0.008
1024	-0.008
1024	-0.008
1025	-0.008
1025	-0.008
1026	-0.008
1026	-0.008
1026	-0.009
1027	-0.009
1027	-0.008
1028	-0.008
1028	-0.008
1028	-0.008
1029	-0.008
1029	-0.007
1030	-0.007
1030	-0.007
1031	-0.007
1031	-0.006
1031	-0.006
1032	-0.006
1032	-0.007
1033	-0.007
1033	-0.007
1033	-0.008
1034	-0.009
1034	-0.01
1035	-0.011
1035	-0.013
1036	-0.014
1036	-0.015
1036	-0.015
1037	-0.016
1037	-0.016
1038	-0.016
1038	-0.016
1039	-0.016
1039	-0.015
1039	-0.014
1040	-0.014
1040	-0.014
1041	-0.013
1041	-0.013
1041	-0.013
1042	-0.014
1042	-0.015
1043	-0.016
1043	-0.017
1044	-0.018
1044	-0.018
1044	-0.019
1045	-0.02
1045	-0.02
1046	-0.021
1046	-0.021
1046	-0.02
1047	-0.02
1047	-0.019
1048	-0.018
1048	-0.017
1049	-0.017
1049	-0.017
1049	-0.017
1050	-0.016
1050	-0.016
1051	-0.016
1051	-0.016
1051	-0.016
1052	-0.016
1052	-0.016
1053	-0.016
1053	-0.016
1053	-0.016
1054	-0.016
1054	-0.016
1055	-0.016
1055	-0.016
1056	-0.017
1056	-0.017
1056	-0.018
1057	-0.019
1057	-0.019
1058	-0.02
1058	-0.021
1058	-0.021
1059	-0.022
1059	-0.023
1060	-0.023
1060	-0.024
1061	-0.024
1061	-0.023
1061	-0.023
1062	-0.023
1062	-0.023
1063	-0.023
1063	-0.023
1063	-0.023
1064	-0.022
1064	-0.022
1065	-0.022
1065	-0.022
1066	-0.022
1066	-0.022
1066	-0.022
1067	-0.023
1067	-0.023
1068	-0.023
1068	-0.024
1068	-0.025
1069	-0.025
1069	-0.026
1070	-0.027
1070	-0.027
1071	-0.028
1071	-0.028
1071	-0.029
1072	-0.029
1072	-0.029
1073	-0.029
1073	-0.029
1073	-0.029
1074	-0.029
1074	-0.029
1075	-0.03
1075	-0.03
1076	-0.031
1076	-0.03
1076	-0.031
1077	-0.031
1077	-0.031
1078	-0.031
1078	-0.031
1078	-0.029
1079	-0.029
1079	-0.027
1080	-0.026
1080	-0.025
1080	-0.024
1081	-0.022
1081	-0.021
1082	-0.02
1082	-0.019
1083	-0.018
1083	-0.018
1083	-0.017
1084	-0.016
1084	-0.016
1085	-0.015
1085	-0.014
1085	-0.013
1086	-0.012
1086	-0.011
1087	-0.011
1087	-0.01
1088	-0.01
1088	-0.01
1088	-0.01
1089	-0.01
1089	-0.01
1090	-0.01
1090	-0.01
1090	-0.009
1091	-0.01
1091	-0.009
1092	-0.008
1092	-0.006
1092	-0.005
1093	-0.004
1093	-0.001
1094	0.001
1094	0.003
1095	0.004
1095	0.006
1095	0.01
1096	0.012
1096	0.014
1097	0.016
1097	0.017
1097	0.019
1098	0.021
1098	0.023
1099	0.025
1099	0.027
1100	0.03
1100	0.031
1100	0.033
1101	0.036
1101	0.039
1102	0.044
1102	0.047
1102	0.052
1103	0.056
1103	0.062
1104	0.069
1104	0.076
1104	0.085
1105	0.094
1105	0.1
1106	0.106
1106	0.115
1107	0.123
1107	0.138
1107	0.154
1108	0.209
1108	0.285
1109	0.405
1109	0.63
1109	0.885
1110	-0
1110	-0
1111	-0
1111	-0
