Data from 15c-2a_Absorbance__1075__01075.txt Node

Date: Wed Jan 17 10:16:14 CET 2024
User: Marek
Spectrometer: MAYP115816
Trigger mode: 0
Integration Time (sec): 2.000000E-1
Scans to average: 10
Electric dark correction enabled: true
Nonlinearity correction enabled: true
Boxcar width: 5
XAxis mode: Wavelengths
Number of Pixels in Spectrum: 2068
>>>>>Begin Spectral Data<<<<<
199	-1.598
199	-1.458
200	-1.299
200	-1.176
201	-1.1
201	-1.053
202	-0.982
202	-0.93
203	-0.885
203	-0.845
204	-0.821
204	-0.798
205	-0.775
205	-0.765
205	-0.763
206	-0.763
206	-0.759
207	-0.756
207	-0.752
208	-0.75
208	-0.75
209	-0.745
209	-0.744
210	-0.743
210	-0.744
211	-0.743
211	-0.742
212	-0.743
212	-0.743
213	-0.742
213	-0.741
213	-0.741
214	-0.74
214	-0.739
215	-0.737
215	-0.736
216	-0.736
216	-0.734
217	-0.729
217	-0.727
218	-0.727
218	-0.723
219	-0.72
219	-0.719
220	-0.715
220	-0.713
221	-0.708
221	-0.704
221	-0.7
222	-0.696
222	-0.692
223	-0.686
223	-0.683
224	-0.678
224	-0.67
225	-0.662
225	-0.655
226	-0.646
226	-0.634
227	-0.621
227	-0.608
228	-0.593
228	-0.575
229	-0.554
229	-0.53
229	-0.504
230	-0.476
230	-0.446
231	-0.412
231	-0.377
232	-0.342
232	-0.302
233	-0.261
233	-0.219
234	-0.178
234	-0.138
235	-0.098
235	-0.06
236	-0.023
236	0.012
236	0.045
237	0.077
237	0.105
238	0.132
238	0.156
239	0.179
239	0.2
240	0.219
240	0.236
241	0.251
241	0.265
242	0.277
242	0.289
243	0.3
243	0.308
243	0.317
244	0.325
244	0.332
245	0.338
245	0.344
246	0.349
246	0.354
247	0.359
247	0.363
248	0.367
248	0.371
249	0.375
249	0.378
250	0.381
250	0.384
250	0.387
251	0.389
251	0.392
252	0.394
252	0.396
253	0.398
253	0.4
254	0.401
254	0.403
255	0.404
255	0.405
256	0.406
256	0.407
257	0.407
257	0.408
258	0.408
258	0.408
258	0.409
259	0.409
259	0.408
260	0.409
260	0.409
261	0.408
261	0.408
262	0.408
262	0.407
263	0.407
263	0.406
264	0.406
264	0.405
265	0.404
265	0.403
265	0.402
266	0.4
266	0.399
267	0.398
267	0.396
268	0.395
268	0.393
269	0.391
269	0.39
270	0.388
270	0.386
271	0.384
271	0.382
272	0.38
272	0.378
272	0.376
273	0.375
273	0.372
274	0.371
274	0.368
275	0.366
275	0.364
276	0.362
276	0.36
277	0.358
277	0.356
278	0.353
278	0.351
278	0.349
279	0.347
279	0.344
280	0.342
280	0.34
281	0.338
281	0.335
282	0.333
282	0.331
283	0.329
283	0.327
284	0.326
284	0.324
285	0.322
285	0.32
285	0.319
286	0.317
286	0.315
287	0.314
287	0.312
288	0.311
288	0.309
289	0.307
289	0.306
290	0.304
290	0.303
291	0.301
291	0.3
292	0.299
292	0.297
292	0.296
293	0.295
293	0.293
294	0.292
294	0.291
295	0.29
295	0.289
296	0.288
296	0.287
297	0.286
297	0.285
298	0.284
298	0.283
298	0.283
299	0.282
299	0.281
300	0.281
300	0.28
301	0.279
301	0.279
302	0.278
302	0.277
303	0.276
303	0.275
304	0.274
304	0.274
305	0.273
305	0.272
305	0.271
306	0.27
306	0.27
307	0.269
307	0.268
308	0.268
308	0.267
309	0.266
309	0.266
310	0.265
310	0.264
311	0.264
311	0.263
311	0.262
312	0.262
312	0.261
313	0.26
313	0.26
314	0.259
314	0.258
315	0.257
315	0.257
316	0.256
316	0.255
317	0.255
317	0.254
318	0.253
318	0.252
318	0.252
319	0.251
319	0.25
320	0.249
320	0.249
321	0.248
321	0.247
322	0.246
322	0.245
323	0.244
323	0.244
324	0.243
324	0.242
324	0.241
325	0.24
325	0.24
326	0.239
326	0.239
327	0.238
327	0.237
328	0.236
328	0.235
329	0.235
329	0.234
330	0.233
330	0.232
330	0.232
331	0.231
331	0.23
332	0.229
332	0.229
333	0.228
333	0.227
334	0.226
334	0.226
335	0.225
335	0.224
336	0.224
336	0.223
336	0.222
337	0.222
337	0.221
338	0.221
338	0.22
339	0.22
339	0.219
340	0.219
340	0.218
341	0.218
341	0.217
342	0.217
342	0.216
342	0.216
343	0.215
343	0.215
344	0.214
344	0.214
345	0.213
345	0.213
346	0.212
346	0.212
347	0.211
347	0.211
348	0.211
348	0.21
348	0.21
349	0.209
349	0.209
350	0.208
350	0.208
351	0.207
351	0.207
352	0.206
352	0.206
353	0.206
353	0.205
354	0.205
354	0.205
354	0.204
355	0.204
355	0.203
356	0.203
356	0.203
357	0.202
357	0.202
358	0.201
358	0.201
359	0.201
359	0.201
360	0.201
360	0.201
360	0.201
361	0.201
361	0.201
362	0.201
362	0.201
363	0.201
363	0.201
364	0.201
364	0.2
365	0.2
365	0.2
366	0.2
366	0.2
366	0.199
367	0.199
367	0.199
368	0.199
368	0.199
369	0.198
369	0.198
370	0.198
370	0.198
371	0.197
371	0.197
372	0.197
372	0.197
372	0.196
373	0.196
373	0.196
374	0.196
374	0.196
375	0.196
375	0.195
376	0.195
376	0.195
377	0.195
377	0.195
378	0.195
378	0.195
378	0.195
379	0.195
379	0.194
380	0.194
380	0.194
381	0.194
381	0.194
382	0.194
382	0.194
383	0.194
383	0.194
383	0.193
384	0.193
384	0.193
385	0.193
385	0.193
386	0.192
386	0.192
387	0.192
387	0.192
388	0.192
388	0.192
389	0.192
389	0.192
389	0.192
390	0.192
390	0.192
391	0.191
391	0.191
392	0.191
392	0.191
393	0.191
393	0.19
394	0.19
394	0.19
394	0.19
395	0.189
395	0.189
396	0.189
396	0.189
397	0.189
397	0.189
398	0.189
398	0.189
399	0.188
399	0.188
400	0.188
400	0.188
400	0.188
401	0.187
401	0.186
402	0.186
402	0.186
403	0.186
403	0.186
404	0.186
404	0.185
405	0.185
405	0.185
405	0.185
406	0.185
406	0.184
407	0.184
407	0.184
408	0.183
408	0.183
409	0.183
409	0.182
410	0.182
410	0.182
411	0.182
411	0.182
411	0.182
412	0.182
412	0.181
413	0.181
413	0.181
414	0.181
414	0.181
415	0.181
415	0.18
416	0.18
416	0.18
416	0.18
417	0.18
417	0.18
418	0.18
418	0.18
419	0.18
419	0.18
420	0.181
420	0.181
421	0.181
421	0.181
421	0.181
422	0.182
422	0.182
423	0.181
423	0.181
424	0.181
424	0.18
425	0.18
425	0.179
426	0.179
426	0.179
427	0.179
427	0.179
427	0.178
428	0.179
428	0.179
429	0.179
429	0.179
430	0.179
430	0.179
431	0.179
431	0.178
432	0.178
432	0.178
432	0.177
433	0.177
433	0.176
434	0.176
434	0.176
435	0.176
435	0.176
436	0.176
436	0.176
437	0.176
437	0.177
437	0.177
438	0.177
438	0.177
439	0.177
439	0.176
440	0.176
440	0.176
441	0.176
441	0.176
442	0.176
442	0.175
442	0.175
443	0.175
443	0.175
444	0.175
444	0.176
445	0.176
445	0.176
446	0.176
446	0.176
447	0.176
447	0.176
447	0.176
448	0.176
448	0.176
449	0.175
449	0.175
450	0.176
450	0.175
451	0.175
451	0.175
452	0.175
452	0.175
452	0.175
453	0.175
453	0.175
454	0.175
454	0.175
455	0.175
455	0.175
456	0.175
456	0.175
457	0.175
457	0.175
458	0.175
458	0.175
458	0.176
459	0.176
459	0.176
460	0.175
460	0.175
461	0.175
461	0.175
462	0.175
462	0.175
463	0.175
463	0.176
463	0.176
464	0.176
464	0.176
465	0.177
465	0.177
466	0.178
466	0.178
467	0.178
467	0.179
467	0.178
468	0.178
468	0.178
469	0.177
469	0.177
470	0.177
470	0.177
471	0.177
471	0.177
472	0.177
472	0.177
472	0.178
473	0.178
473	0.179
474	0.179
474	0.18
475	0.18
475	0.181
476	0.181
476	0.181
477	0.181
477	0.182
477	0.182
478	0.182
478	0.182
479	0.183
479	0.183
480	0.184
480	0.185
481	0.186
481	0.186
482	0.187
482	0.188
482	0.19
483	0.192
483	0.193
484	0.195
484	0.195
485	0.196
485	0.197
486	0.197
486	0.198
487	0.199
487	0.2
487	0.2
488	0.201
488	0.201
489	0.202
489	0.203
490	0.204
490	0.205
491	0.206
491	0.207
492	0.208
492	0.209
492	0.209
493	0.21
493	0.211
494	0.213
494	0.215
495	0.216
495	0.218
496	0.219
496	0.22
496	0.222
497	0.224
497	0.225
498	0.227
498	0.228
499	0.229
499	0.23
500	0.231
500	0.232
501	0.234
501	0.235
501	0.237
502	0.238
502	0.24
503	0.242
503	0.243
504	0.244
504	0.245
505	0.246
505	0.248
506	0.249
506	0.251
506	0.252
507	0.253
507	0.254
508	0.255
508	0.257
509	0.258
509	0.26
510	0.262
510	0.263
511	0.264
511	0.265
511	0.265
512	0.266
512	0.267
513	0.267
513	0.268
514	0.268
514	0.269
515	0.269
515	0.27
515	0.27
516	0.271
516	0.272
517	0.273
517	0.273
518	0.274
518	0.274
519	0.275
519	0.275
520	0.274
520	0.274
520	0.274
521	0.273
521	0.272
522	0.271
522	0.271
523	0.271
523	0.271
524	0.271
524	0.271
524	0.271
525	0.271
525	0.272
526	0.272
526	0.272
527	0.272
527	0.272
528	0.272
528	0.272
529	0.272
529	0.271
529	0.271
530	0.27
530	0.27
531	0.269
531	0.269
532	0.268
532	0.267
533	0.266
533	0.266
533	0.265
534	0.264
534	0.262
535	0.261
535	0.261
536	0.26
536	0.258
537	0.257
537	0.256
538	0.254
538	0.253
538	0.252
539	0.25
539	0.249
540	0.247
540	0.245
541	0.243
541	0.241
542	0.239
542	0.237
542	0.235
543	0.233
543	0.231
544	0.228
544	0.226
545	0.225
545	0.223
546	0.222
546	0.219
547	0.217
547	0.214
547	0.212
548	0.21
548	0.207
549	0.205
549	0.203
550	0.2
550	0.198
551	0.195
551	0.193
551	0.192
552	0.19
552	0.188
553	0.187
553	0.185
554	0.184
554	0.181
555	0.179
555	0.176
556	0.174
556	0.171
556	0.169
557	0.166
557	0.164
558	0.162
558	0.16
559	0.158
559	0.156
560	0.154
560	0.153
560	0.152
561	0.151
561	0.15
562	0.149
562	0.147
563	0.144
563	0.142
564	0.139
564	0.137
564	0.134
565	0.132
565	0.13
566	0.127
566	0.125
567	0.123
567	0.122
568	0.121
568	0.12
568	0.12
569	0.119
569	0.119
570	0.118
570	0.116
571	0.116
571	0.115
572	0.114
572	0.113
573	0.112
573	0.111
573	0.109
574	0.108
574	0.107
575	0.106
575	0.107
576	0.106
576	0.104
577	0.103
577	0.102
577	0.101
578	0.1
578	0.1
579	0.1
579	0.099
580	0.097
580	0.095
581	0.092
581	0.09
581	0.09
582	0.089
582	0.088
583	0.088
583	0.086
584	0.084
584	0.081
585	0.08
585	0.079
585	0.079
586	0.078
586	0.078
587	0.076
587	0.075
588	0.073
588	0.072
589	0.072
589	0.072
590	0.072
590	0.072
590	0.073
591	0.073
591	0.073
592	0.072
592	0.071
593	0.071
593	0.07
594	0.069
594	0.068
594	0.067
595	0.066
595	0.065
596	0.065
596	0.065
597	0.067
597	0.067
598	0.068
598	0.069
598	0.069
599	0.07
599	0.07
600	0.069
600	0.068
601	0.067
601	0.066
602	0.065
602	0.065
602	0.064
603	0.064
603	0.065
604	0.066
604	0.067
605	0.068
605	0.07
606	0.07
606	0.07
606	0.07
607	0.069
607	0.069
608	0.068
608	0.067
609	0.066
609	0.066
610	0.065
610	0.064
610	0.064
611	0.065
611	0.066
612	0.068
612	0.069
613	0.07
613	0.071
614	0.071
614	0.07
614	0.069
615	0.068
615	0.068
616	0.067
616	0.066
617	0.065
617	0.064
618	0.063
618	0.062
618	0.061
619	0.062
619	0.063
620	0.064
620	0.065
621	0.065
621	0.066
622	0.066
622	0.067
622	0.067
623	0.067
623	0.068
624	0.068
624	0.068
625	0.067
625	0.068
626	0.068
626	0.068
626	0.069
627	0.07
627	0.07
628	0.071
628	0.072
629	0.073
629	0.073
630	0.073
630	0.073
630	0.075
631	0.075
631	0.076
632	0.077
632	0.078
633	0.079
633	0.08
634	0.081
634	0.083
634	0.084
635	0.086
635	0.087
636	0.088
636	0.089
637	0.09
637	0.091
638	0.092
638	0.093
638	0.094
639	0.095
639	0.096
640	0.097
640	0.099
641	0.1
641	0.102
642	0.104
642	0.106
642	0.108
643	0.109
643	0.111
644	0.113
644	0.115
645	0.117
645	0.119
646	0.121
646	0.124
646	0.127
647	0.129
647	0.132
648	0.134
648	0.136
649	0.138
649	0.14
650	0.142
650	0.145
650	0.147
651	0.149
651	0.151
652	0.153
652	0.155
653	0.158
653	0.165
653	0.174
654	0.139
654	0.113
655	0.116
655	0.118
656	0.119
656	0.121
657	0.122
657	0.124
657	0.125
658	0.123
658	0.114
659	0.145
659	0.189
660	0.195
660	0.197
661	0.2
661	0.203
661	0.206
662	0.21
662	0.214
663	0.217
663	0.22
664	0.223
664	0.226
665	0.229
665	0.232
665	0.235
666	0.237
666	0.239
667	0.241
667	0.243
668	0.246
668	0.248
669	0.251
669	0.254
669	0.258
670	0.261
670	0.264
671	0.267
671	0.269
672	0.272
672	0.274
672	0.275
673	0.277
673	0.279
674	0.28
674	0.28
675	0.281
675	0.282
676	0.284
676	0.285
676	0.286
677	0.288
677	0.289
678	0.291
678	0.292
679	0.293
679	0.295
680	0.297
680	0.299
680	0.301
681	0.302
681	0.303
682	0.305
682	0.306
683	0.307
683	0.308
684	0.309
684	0.309
684	0.309
685	0.309
685	0.309
686	0.31
686	0.31
687	0.31
687	0.31
687	0.31
688	0.31
688	0.309
689	0.31
689	0.31
690	0.309
690	0.308
691	0.307
691	0.306
691	0.304
692	0.303
692	0.302
693	0.301
693	0.3
694	0.299
694	0.297
695	0.297
695	0.298
695	0.298
696	0.297
696	0.296
697	0.295
697	0.294
698	0.293
698	0.291
698	0.29
699	0.289
699	0.287
700	0.284
700	0.283
701	0.281
701	0.28
702	0.278
702	0.276
702	0.274
703	0.272
703	0.27
704	0.268
704	0.266
705	0.265
705	0.263
705	0.26
706	0.259
706	0.257
707	0.255
707	0.253
708	0.25
708	0.248
709	0.247
709	0.244
709	0.241
710	0.237
710	0.235
711	0.232
711	0.229
712	0.227
712	0.225
713	0.223
713	0.221
713	0.219
714	0.217
714	0.215
715	0.214
715	0.212
716	0.21
716	0.209
716	0.207
717	0.206
717	0.204
718	0.202
718	0.2
719	0.199
719	0.197
720	0.195
720	0.193
720	0.191
721	0.188
721	0.186
722	0.184
722	0.181
723	0.179
723	0.177
723	0.175
724	0.173
724	0.17
725	0.168
725	0.165
726	0.163
726	0.16
727	0.158
727	0.155
727	0.153
728	0.15
728	0.147
729	0.146
729	0.144
730	0.143
730	0.141
730	0.139
731	0.138
731	0.136
732	0.134
732	0.132
733	0.13
733	0.128
734	0.125
734	0.123
734	0.121
735	0.12
735	0.118
736	0.116
736	0.115
737	0.115
737	0.115
737	0.114
738	0.112
738	0.11
739	0.109
739	0.107
740	0.104
740	0.102
741	0.1
741	0.097
741	0.094
742	0.09
742	0.087
743	0.085
743	0.083
744	0.081
744	0.079
744	0.078
745	0.076
745	0.074
746	0.073
746	0.072
747	0.071
747	0.07
748	0.069
748	0.068
748	0.067
749	0.065
749	0.064
750	0.063
750	0.062
751	0.061
751	0.061
751	0.061
752	0.06
752	0.059
753	0.058
753	0.058
754	0.057
754	0.056
754	0.056
755	0.056
755	0.056
756	0.055
756	0.053
757	0.052
757	0.052
758	0.051
758	0.05
758	0.049
759	0.048
759	0.045
760	0.043
760	0.041
761	0.039
761	0.038
761	0.037
762	0.035
762	0.035
763	0.034
763	0.032
764	0.031
764	0.029
764	0.027
765	0.025
765	0.024
766	0.022
766	0.021
767	0.02
767	0.018
768	0.016
768	0.014
768	0.013
769	0.012
769	0.011
770	0.01
770	0.009
771	0.006
771	0.004
771	0.002
772	-0.001
772	-0.003
773	-0.005
773	-0.008
774	-0.011
774	-0.014
775	-0.016
775	-0.019
775	-0.022
776	-0.024
776	-0.027
777	-0.03
777	-0.032
778	-0.035
778	-0.037
778	-0.039
779	-0.04
779	-0.042
780	-0.044
780	-0.047
781	-0.049
781	-0.053
781	-0.057
782	-0.061
782	-0.066
783	-0.071
783	-0.077
784	-0.083
784	-0.09
784	-0.096
785	-0.102
785	-0.109
786	-0.115
786	-0.119
787	-0.12
787	-0.123
788	-0.128
788	-0.134
788	-0.139
789	-0.144
789	-0.147
790	-0.147
790	-0.148
791	-0.151
791	-0.152
791	-0.155
792	-0.15
792	-0.139
793	-0.133
793	-0.129
794	-0.127
794	-0.13
794	-0.134
795	-0.136
795	-0.136
796	-0.137
796	-0.14
797	-0.149
797	-0.16
797	-0.166
798	-0.172
798	-0.174
799	-0.175
799	-0.174
800	-0.173
800	-0.175
801	-0.178
801	-0.178
801	-0.179
802	-0.18
802	-0.182
803	-0.182
803	-0.183
804	-0.182
804	-0.176
804	-0.17
805	-0.166
805	-0.164
806	-0.162
806	-0.161
807	-0.16
807	-0.159
807	-0.159
808	-0.159
808	-0.16
809	-0.165
809	-0.171
810	-0.175
810	-0.178
810	-0.182
811	-0.185
811	-0.185
812	-0.181
812	-0.178
813	-0.178
813	-0.179
813	-0.179
814	-0.18
814	-0.179
815	-0.176
815	-0.172
816	-0.168
816	-0.165
817	-0.165
817	-0.162
817	-0.155
818	-0.147
818	-0.138
819	-0.128
819	-0.119
820	-0.111
820	-0.104
820	-0.096
821	-0.089
821	-0.083
822	-0.077
822	-0.073
823	-0.069
823	-0.067
823	-0.065
824	-0.062
824	-0.059
825	-0.055
825	-0.052
826	-0.049
826	-0.048
826	-0.046
827	-0.044
827	-0.042
828	-0.04
828	-0.039
829	-0.037
829	-0.036
829	-0.035
830	-0.034
830	-0.033
831	-0.031
831	-0.029
832	-0.028
832	-0.026
832	-0.025
833	-0.023
833	-0.022
834	-0.02
834	-0.018
835	-0.017
835	-0.015
835	-0.014
836	-0.013
836	-0.012
837	-0.011
837	-0.01
838	-0.01
838	-0.009
839	-0.009
839	-0.009
839	-0.009
840	-0.009
840	-0.008
841	-0.008
841	-0.008
842	-0.008
842	-0.008
842	-0.007
843	-0.007
843	-0.008
844	-0.007
844	-0.007
845	-0.006
845	-0.006
845	-0.005
846	-0.005
846	-0.005
847	-0.004
847	-0.004
848	-0.004
848	-0.004
848	-0.004
849	-0.004
849	-0.005
850	-0.005
850	-0.006
851	-0.006
851	-0.007
851	-0.007
852	-0.007
852	-0.006
853	-0.006
853	-0.005
854	-0.005
854	-0.004
854	-0.004
855	-0.004
855	-0.004
856	-0.004
856	-0.005
857	-0.005
857	-0.006
857	-0.006
858	-0.007
858	-0.007
859	-0.008
859	-0.009
860	-0.009
860	-0.009
860	-0.008
861	-0.008
861	-0.008
862	-0.008
862	-0.008
863	-0.008
863	-0.008
863	-0.008
864	-0.008
864	-0.008
865	-0.007
865	-0.007
866	-0.006
866	-0.006
866	-0.005
867	-0.003
867	-0.002
868	-0.001
868	0.001
869	0.002
869	0.003
869	0.003
870	0.003
870	0.003
871	0.003
871	0.002
872	0.001
872	-0
872	-0.002
873	-0.003
873	-0.004
874	-0.005
874	-0.005
875	-0.005
875	-0.005
875	-0.005
876	-0.004
876	-0.004
877	-0.003
877	-0.002
878	-0.002
878	-0.001
878	0
879	0.001
879	0.002
880	0.002
880	0.003
881	0.003
881	0.003
881	0.004
882	0.004
882	0.004
883	0.003
883	0.003
884	0.003
884	0.003
884	0.002
885	0.002
885	0.002
886	0.002
886	0.002
887	0.002
887	0.002
887	0.002
888	0.002
888	0.002
889	0.002
889	0.002
890	0.002
890	0.001
890	0.001
891	0
891	-0
892	-0.001
892	-0.002
893	-0.003
893	-0.004
893	-0.004
894	-0.005
894	-0.007
895	-0.008
895	-0.008
895	-0.01
896	-0.01
896	-0.011
897	-0.011
897	-0.011
898	-0.011
898	-0.011
898	-0.011
899	-0.011
899	-0.01
900	-0.009
900	-0.008
901	-0.007
901	-0.006
901	-0.005
902	-0.005
902	-0.004
903	-0.004
903	-0.003
904	-0.003
904	-0.003
904	-0.002
905	-0.002
905	-0.001
906	-0.001
906	-0
907	0
907	0.001
907	0.001
908	0.001
908	0.002
909	0.002
909	0.003
910	0.003
910	0.003
910	0.004
911	0.004
911	0.004
912	0.005
912	0.006
913	0.006
913	0.006
913	0.006
914	0.005
914	0.004
915	0.003
915	0.002
916	0.001
916	-0.001
916	-0.003
917	-0.004
917	-0.006
918	-0.007
918	-0.008
918	-0.008
919	-0.008
919	-0.008
920	-0.007
920	-0.006
921	-0.005
921	-0.005
921	-0.004
922	-0.003
922	-0.002
923	-0.001
923	-0.001
924	-0
924	-0.001
924	-0.001
925	-0.001
925	-0.001
926	-0.002
926	-0.002
927	-0.002
927	-0.003
927	-0.003
928	-0.003
928	-0.003
929	-0.003
929	-0.003
930	-0.003
930	-0.003
930	-0.002
931	-0.002
931	-0.002
932	-0.001
932	-0.001
933	-0.001
933	-0
933	0
934	0.001
934	0.001
935	0.001
935	0.001
935	0.002
936	0.002
936	0.002
937	0.002
937	0.001
938	0.001
938	0
938	0
939	-0
939	-0.001
940	-0.002
940	-0.002
941	-0.002
941	-0.003
941	-0.003
942	-0.002
942	-0.002
943	-0.002
943	-0.002
944	-0.002
944	-0.002
944	-0.002
945	-0.002
945	-0.003
946	-0.003
946	-0.004
946	-0.004
947	-0.004
947	-0.005
948	-0.005
948	-0.006
949	-0.006
949	-0.006
949	-0.006
950	-0.006
950	-0.006
951	-0.006
951	-0.005
952	-0.005
952	-0.005
952	-0.005
953	-0.005
953	-0.005
954	-0.005
954	-0.006
955	-0.006
955	-0.007
955	-0.007
956	-0.007
956	-0.008
957	-0.008
957	-0.009
957	-0.009
958	-0.01
958	-0.01
959	-0.011
959	-0.011
960	-0.012
960	-0.012
960	-0.013
961	-0.014
961	-0.014
962	-0.014
962	-0.014
963	-0.014
963	-0.013
963	-0.012
964	-0.011
964	-0.009
965	-0.008
965	-0.007
966	-0.005
966	-0.004
966	-0.003
967	-0.002
967	-0.002
968	-0.001
968	-0.001
968	-0.001
969	-0.001
969	-0.002
970	-0.002
970	-0.003
971	-0.003
971	-0.004
971	-0.004
972	-0.004
972	-0.004
973	-0.004
973	-0.005
974	-0.005
974	-0.005
974	-0.005
975	-0.005
975	-0.004
976	-0.004
976	-0.005
976	-0.005
977	-0.006
977	-0.007
978	-0.008
978	-0.009
979	-0.01
979	-0.011
979	-0.012
980	-0.013
980	-0.014
981	-0.015
981	-0.016
982	-0.016
982	-0.017
982	-0.017
983	-0.016
983	-0.016
984	-0.015
984	-0.014
984	-0.014
985	-0.013
985	-0.012
986	-0.012
986	-0.012
987	-0.011
987	-0.01
987	-0.01
988	-0.009
988	-0.009
989	-0.009
989	-0.008
990	-0.007
990	-0.007
990	-0.005
991	-0.004
991	-0.003
992	-0.002
992	-0.002
992	-0.001
993	-0
993	0
994	0.001
994	0.001
995	0.001
995	0.001
995	0
996	0
996	-0
997	-0
997	-0
997	-0.001
998	-0.001
998	-0.001
999	-0
999	-0
1000	0
1000	0.001
1000	0.001
1001	0.002
1001	0.002
1002	0.003
1002	0.003
1003	0.003
1003	0.003
1003	0.003
1004	0.003
1004	0.003
1005	0.002
1005	0.002
1005	0.001
1006	0
1006	-0
1007	-0.001
1007	-0.002
1008	-0.002
1008	-0.002
1008	-0.002
1009	-0.003
1009	-0.003
1010	-0.003
1010	-0.003
1010	-0.003
1011	-0.003
1011	-0.003
1012	-0.003
1012	-0.004
1013	-0.004
1013	-0.005
1013	-0.005
1014	-0.006
1014	-0.007
1015	-0.007
1015	-0.007
1016	-0.008
1016	-0.008
1016	-0.009
1017	-0.009
1017	-0.01
1018	-0.01
1018	-0.01
1018	-0.01
1019	-0.01
1019	-0.011
1020	-0.011
1020	-0.011
1021	-0.011
1021	-0.012
1021	-0.011
1022	-0.011
1022	-0.011
1023	-0.011
1023	-0.011
1023	-0.011
1024	-0.011
1024	-0.011
1025	-0.011
1025	-0.01
1026	-0.011
1026	-0.011
1026	-0.011
1027	-0.011
1027	-0.011
1028	-0.01
1028	-0.01
1028	-0.01
1029	-0.01
1029	-0.009
1030	-0.009
1030	-0.009
1031	-0.009
1031	-0.009
1031	-0.009
1032	-0.009
1032	-0.009
1033	-0.009
1033	-0.01
1033	-0.011
1034	-0.012
1034	-0.013
1035	-0.014
1035	-0.016
1036	-0.017
1036	-0.018
1036	-0.018
1037	-0.019
1037	-0.019
1038	-0.019
1038	-0.019
1039	-0.018
1039	-0.017
1039	-0.016
1040	-0.016
1040	-0.015
1041	-0.015
1041	-0.015
1041	-0.015
1042	-0.015
1042	-0.016
1043	-0.017
1043	-0.018
1044	-0.019
1044	-0.019
1044	-0.02
1045	-0.02
1045	-0.021
1046	-0.022
1046	-0.022
1046	-0.021
1047	-0.021
1047	-0.02
1048	-0.019
1048	-0.019
1049	-0.019
1049	-0.019
1049	-0.018
1050	-0.018
1050	-0.018
1051	-0.018
1051	-0.018
1051	-0.018
1052	-0.018
1052	-0.018
1053	-0.018
1053	-0.019
1053	-0.018
1054	-0.019
1054	-0.018
1055	-0.018
1055	-0.018
1056	-0.019
1056	-0.019
1056	-0.02
1057	-0.021
1057	-0.021
1058	-0.022
1058	-0.023
1058	-0.023
1059	-0.023
1059	-0.024
1060	-0.025
1060	-0.025
1061	-0.025
1061	-0.024
1061	-0.024
1062	-0.024
1062	-0.024
1063	-0.024
1063	-0.024
1063	-0.024
1064	-0.024
1064	-0.024
1065	-0.024
1065	-0.024
1066	-0.024
1066	-0.024
1066	-0.024
1067	-0.024
1067	-0.024
1068	-0.025
1068	-0.025
1068	-0.025
1069	-0.026
1069	-0.027
1070	-0.028
1070	-0.028
1071	-0.028
1071	-0.028
1071	-0.029
1072	-0.03
1072	-0.03
1073	-0.03
1073	-0.03
1073	-0.03
1074	-0.03
1074	-0.03
1075	-0.031
1075	-0.031
1076	-0.032
1076	-0.032
1076	-0.032
1077	-0.033
1077	-0.033
1078	-0.033
1078	-0.032
1078	-0.031
1079	-0.03
1079	-0.029
1080	-0.028
1080	-0.026
1080	-0.025
1081	-0.024
1081	-0.022
1082	-0.021
1082	-0.021
1083	-0.02
1083	-0.02
1083	-0.019
1084	-0.019
1084	-0.018
1085	-0.017
1085	-0.016
1085	-0.015
1086	-0.015
1086	-0.014
1087	-0.014
1087	-0.013
1088	-0.013
1088	-0.013
1088	-0.012
1089	-0.013
1089	-0.013
1090	-0.013
1090	-0.013
1090	-0.012
1091	-0.013
1091	-0.012
1092	-0.012
1092	-0.011
1092	-0.01
1093	-0.009
1093	-0.006
1094	-0.004
1094	-0.003
1095	-0.002
1095	0
1095	0.004
1096	0.005
1096	0.007
1097	0.01
1097	0.012
1097	0.015
1098	0.015
1098	0.017
1099	0.019
1099	0.022
1100	0.024
1100	0.025
1100	0.027
1101	0.03
1101	0.032
1102	0.037
1102	0.041
1102	0.046
1103	0.051
1103	0.056
1104	0.062
1104	0.07
1104	0.078
1105	0.086
1105	0.092
1106	0.098
1106	0.106
1107	0.113
1107	0.128
1107	0.143
1108	0.194
1108	0.267
1109	0.379
1109	0.591
1109	0.822
1110	-0
1110	-0
1111	-0
1111	-0
