Data from 15c-2a_Absorbance__1721__01721.txt Node

Date: Wed Jan 17 10:37:46 CET 2024
User: Marek
Spectrometer: MAYP115816
Trigger mode: 0
Integration Time (sec): 2.000000E-1
Scans to average: 10
Electric dark correction enabled: true
Nonlinearity correction enabled: true
Boxcar width: 5
XAxis mode: Wavelengths
Number of Pixels in Spectrum: 2068
>>>>>Begin Spectral Data<<<<<
199	-1.596
199	-1.459
200	-1.301
200	-1.179
201	-1.103
201	-1.056
202	-0.987
202	-0.937
203	-0.893
203	-0.854
204	-0.828
204	-0.805
205	-0.782
205	-0.772
205	-0.77
206	-0.769
206	-0.765
207	-0.762
207	-0.759
208	-0.757
208	-0.757
209	-0.753
209	-0.752
210	-0.752
210	-0.752
211	-0.751
211	-0.751
212	-0.752
212	-0.751
213	-0.75
213	-0.75
213	-0.749
214	-0.748
214	-0.747
215	-0.746
215	-0.745
216	-0.745
216	-0.743
217	-0.738
217	-0.737
218	-0.737
218	-0.733
219	-0.73
219	-0.73
220	-0.726
220	-0.723
221	-0.719
221	-0.716
221	-0.712
222	-0.709
222	-0.704
223	-0.698
223	-0.694
224	-0.689
224	-0.681
225	-0.673
225	-0.666
226	-0.657
226	-0.644
227	-0.631
227	-0.617
228	-0.601
228	-0.584
229	-0.563
229	-0.539
229	-0.513
230	-0.483
230	-0.452
231	-0.418
231	-0.382
232	-0.345
232	-0.305
233	-0.262
233	-0.219
234	-0.177
234	-0.134
235	-0.093
235	-0.054
236	-0.015
236	0.022
236	0.056
237	0.09
237	0.12
238	0.147
238	0.173
239	0.197
239	0.219
240	0.239
240	0.257
241	0.273
241	0.288
242	0.301
242	0.313
243	0.324
243	0.334
243	0.344
244	0.352
244	0.36
245	0.366
245	0.373
246	0.379
246	0.384
247	0.389
247	0.394
248	0.399
248	0.403
249	0.406
249	0.409
250	0.413
250	0.415
250	0.418
251	0.421
251	0.423
252	0.426
252	0.428
253	0.43
253	0.432
254	0.433
254	0.435
255	0.436
255	0.438
256	0.439
256	0.439
257	0.44
257	0.441
258	0.441
258	0.442
258	0.442
259	0.442
259	0.442
260	0.442
260	0.442
261	0.442
261	0.442
262	0.441
262	0.441
263	0.44
263	0.439
264	0.439
264	0.438
265	0.437
265	0.436
265	0.434
266	0.433
266	0.432
267	0.431
267	0.429
268	0.428
268	0.426
269	0.424
269	0.423
270	0.421
270	0.419
271	0.417
271	0.415
272	0.413
272	0.411
272	0.409
273	0.406
273	0.404
274	0.402
274	0.4
275	0.398
275	0.396
276	0.394
276	0.391
277	0.389
277	0.387
278	0.385
278	0.383
278	0.38
279	0.378
279	0.375
280	0.372
280	0.37
281	0.368
281	0.366
282	0.363
282	0.361
283	0.359
283	0.357
284	0.355
284	0.354
285	0.352
285	0.35
285	0.348
286	0.347
286	0.345
287	0.343
287	0.342
288	0.34
288	0.338
289	0.336
289	0.335
290	0.333
290	0.332
291	0.33
291	0.329
292	0.327
292	0.326
292	0.324
293	0.323
293	0.322
294	0.321
294	0.32
295	0.318
295	0.317
296	0.316
296	0.315
297	0.314
297	0.313
298	0.312
298	0.311
298	0.311
299	0.31
299	0.309
300	0.308
300	0.307
301	0.306
301	0.305
302	0.305
302	0.304
303	0.303
303	0.302
304	0.301
304	0.301
305	0.3
305	0.299
305	0.298
306	0.297
306	0.296
307	0.295
307	0.294
308	0.294
308	0.293
309	0.292
309	0.291
310	0.291
310	0.29
311	0.289
311	0.288
311	0.288
312	0.287
312	0.286
313	0.285
313	0.285
314	0.284
314	0.283
315	0.282
315	0.281
316	0.28
316	0.28
317	0.279
317	0.278
318	0.277
318	0.276
318	0.275
319	0.274
319	0.274
320	0.273
320	0.272
321	0.271
321	0.27
322	0.269
322	0.268
323	0.268
323	0.267
324	0.266
324	0.265
324	0.264
325	0.264
325	0.263
326	0.262
326	0.261
327	0.26
327	0.26
328	0.259
328	0.258
329	0.257
329	0.256
330	0.256
330	0.255
330	0.254
331	0.253
331	0.253
332	0.252
332	0.251
333	0.25
333	0.249
334	0.249
334	0.248
335	0.247
335	0.247
336	0.246
336	0.245
336	0.244
337	0.244
337	0.243
338	0.242
338	0.242
339	0.241
339	0.241
340	0.24
340	0.239
341	0.239
341	0.238
342	0.238
342	0.237
342	0.237
343	0.236
343	0.235
344	0.235
344	0.234
345	0.234
345	0.233
346	0.233
346	0.232
347	0.232
347	0.231
348	0.231
348	0.231
348	0.23
349	0.23
349	0.229
350	0.229
350	0.228
351	0.228
351	0.228
352	0.227
352	0.227
353	0.226
353	0.226
354	0.226
354	0.225
354	0.225
355	0.224
355	0.223
356	0.223
356	0.222
357	0.222
357	0.222
358	0.221
358	0.221
359	0.221
359	0.221
360	0.221
360	0.221
360	0.221
361	0.221
361	0.221
362	0.221
362	0.221
363	0.221
363	0.221
364	0.22
364	0.22
365	0.22
365	0.22
366	0.219
366	0.219
366	0.219
367	0.219
367	0.219
368	0.219
368	0.219
369	0.218
369	0.218
370	0.218
370	0.217
371	0.217
371	0.217
372	0.216
372	0.216
372	0.216
373	0.215
373	0.215
374	0.215
374	0.215
375	0.214
375	0.214
376	0.214
376	0.214
377	0.214
377	0.214
378	0.214
378	0.214
378	0.214
379	0.214
379	0.214
380	0.214
380	0.214
381	0.214
381	0.213
382	0.213
382	0.213
383	0.213
383	0.212
383	0.212
384	0.212
384	0.211
385	0.211
385	0.211
386	0.211
386	0.211
387	0.211
387	0.21
388	0.21
388	0.21
389	0.209
389	0.209
389	0.209
390	0.209
390	0.209
391	0.209
391	0.209
392	0.209
392	0.209
393	0.209
393	0.209
394	0.208
394	0.208
394	0.208
395	0.208
395	0.207
396	0.207
396	0.207
397	0.207
397	0.207
398	0.207
398	0.207
399	0.206
399	0.206
400	0.206
400	0.206
400	0.205
401	0.205
401	0.204
402	0.203
402	0.203
403	0.203
403	0.203
404	0.203
404	0.203
405	0.203
405	0.202
405	0.202
406	0.202
406	0.202
407	0.202
407	0.201
408	0.201
408	0.201
409	0.2
409	0.2
410	0.2
410	0.2
411	0.2
411	0.199
411	0.199
412	0.199
412	0.198
413	0.198
413	0.198
414	0.198
414	0.198
415	0.197
415	0.197
416	0.197
416	0.197
416	0.197
417	0.196
417	0.196
418	0.196
418	0.197
419	0.197
419	0.197
420	0.198
420	0.198
421	0.198
421	0.198
421	0.198
422	0.199
422	0.199
423	0.198
423	0.198
424	0.198
424	0.197
425	0.196
425	0.196
426	0.196
426	0.195
427	0.195
427	0.195
427	0.195
428	0.195
428	0.195
429	0.196
429	0.196
430	0.196
430	0.196
431	0.195
431	0.195
432	0.195
432	0.194
432	0.194
433	0.193
433	0.193
434	0.192
434	0.192
435	0.192
435	0.192
436	0.192
436	0.192
437	0.193
437	0.193
437	0.193
438	0.193
438	0.193
439	0.193
439	0.192
440	0.192
440	0.192
441	0.192
441	0.192
442	0.192
442	0.192
442	0.192
443	0.192
443	0.192
444	0.192
444	0.192
445	0.192
445	0.192
446	0.192
446	0.192
447	0.192
447	0.192
447	0.192
448	0.192
448	0.192
449	0.192
449	0.192
450	0.192
450	0.192
451	0.192
451	0.192
452	0.192
452	0.191
452	0.191
453	0.191
453	0.191
454	0.191
454	0.191
455	0.191
455	0.191
456	0.191
456	0.191
457	0.191
457	0.191
458	0.191
458	0.191
458	0.191
459	0.191
459	0.191
460	0.191
460	0.191
461	0.19
461	0.191
462	0.191
462	0.191
463	0.191
463	0.192
463	0.193
464	0.193
464	0.193
465	0.193
465	0.193
466	0.194
466	0.194
467	0.194
467	0.194
467	0.194
468	0.194
468	0.193
469	0.193
469	0.193
470	0.193
470	0.193
471	0.193
471	0.192
472	0.192
472	0.193
472	0.193
473	0.194
473	0.194
474	0.195
474	0.196
475	0.196
475	0.197
476	0.197
476	0.198
477	0.198
477	0.198
477	0.199
478	0.199
478	0.199
479	0.2
479	0.2
480	0.201
480	0.202
481	0.202
481	0.203
482	0.204
482	0.205
482	0.207
483	0.209
483	0.21
484	0.212
484	0.213
485	0.213
485	0.214
486	0.215
486	0.216
487	0.217
487	0.218
487	0.218
488	0.219
488	0.219
489	0.22
489	0.221
490	0.222
490	0.223
491	0.224
491	0.225
492	0.226
492	0.227
492	0.228
493	0.228
493	0.23
494	0.231
494	0.233
495	0.234
495	0.236
496	0.237
496	0.239
496	0.241
497	0.243
497	0.244
498	0.246
498	0.247
499	0.248
499	0.25
500	0.251
500	0.252
501	0.254
501	0.255
501	0.257
502	0.259
502	0.261
503	0.262
503	0.264
504	0.265
504	0.266
505	0.268
505	0.269
506	0.27
506	0.272
506	0.273
507	0.274
507	0.275
508	0.276
508	0.277
509	0.279
509	0.281
510	0.282
510	0.284
511	0.284
511	0.286
511	0.286
512	0.287
512	0.288
513	0.288
513	0.289
514	0.289
514	0.29
515	0.291
515	0.291
515	0.292
516	0.293
516	0.294
517	0.295
517	0.296
518	0.297
518	0.297
519	0.297
519	0.297
520	0.296
520	0.296
520	0.295
521	0.294
521	0.294
522	0.292
522	0.292
523	0.292
523	0.292
524	0.292
524	0.293
524	0.293
525	0.293
525	0.294
526	0.294
526	0.294
527	0.295
527	0.295
528	0.295
528	0.295
529	0.294
529	0.294
529	0.293
530	0.293
530	0.292
531	0.292
531	0.291
532	0.29
532	0.289
533	0.288
533	0.287
533	0.286
534	0.285
534	0.284
535	0.283
535	0.282
536	0.281
536	0.279
537	0.278
537	0.277
538	0.276
538	0.274
538	0.272
539	0.271
539	0.269
540	0.267
540	0.265
541	0.262
541	0.26
542	0.258
542	0.256
542	0.254
543	0.251
543	0.249
544	0.247
544	0.245
545	0.243
545	0.242
546	0.24
546	0.238
547	0.235
547	0.232
547	0.23
548	0.227
548	0.225
549	0.223
549	0.22
550	0.218
550	0.215
551	0.212
551	0.21
551	0.208
552	0.206
552	0.205
553	0.203
553	0.202
554	0.2
554	0.197
555	0.195
555	0.192
556	0.189
556	0.187
556	0.184
557	0.181
557	0.179
558	0.176
558	0.174
559	0.172
559	0.17
560	0.168
560	0.166
560	0.165
561	0.164
561	0.163
562	0.161
562	0.159
563	0.156
563	0.154
564	0.151
564	0.148
564	0.146
565	0.144
565	0.142
566	0.139
566	0.137
567	0.135
567	0.134
568	0.133
568	0.133
568	0.132
569	0.132
569	0.132
570	0.131
570	0.129
571	0.128
571	0.127
572	0.126
572	0.125
573	0.123
573	0.122
573	0.12
574	0.118
574	0.117
575	0.116
575	0.117
576	0.116
576	0.114
577	0.112
577	0.111
577	0.111
578	0.11
578	0.109
579	0.109
579	0.109
580	0.107
580	0.104
581	0.101
581	0.099
581	0.098
582	0.098
582	0.097
583	0.097
583	0.096
584	0.092
584	0.089
585	0.088
585	0.088
585	0.088
586	0.087
586	0.086
587	0.085
587	0.083
588	0.081
588	0.08
589	0.08
589	0.08
590	0.08
590	0.08
590	0.081
591	0.081
591	0.08
592	0.079
592	0.078
593	0.078
593	0.077
594	0.076
594	0.075
594	0.074
595	0.073
595	0.072
596	0.071
596	0.072
597	0.074
597	0.074
598	0.075
598	0.076
598	0.077
599	0.077
599	0.077
600	0.076
600	0.075
601	0.075
601	0.074
602	0.072
602	0.072
602	0.071
603	0.071
603	0.072
604	0.073
604	0.074
605	0.076
605	0.077
606	0.077
606	0.076
606	0.076
607	0.075
607	0.075
608	0.074
608	0.072
609	0.071
609	0.071
610	0.07
610	0.069
610	0.07
611	0.071
611	0.073
612	0.074
612	0.075
613	0.077
613	0.078
614	0.077
614	0.076
614	0.075
615	0.075
615	0.074
616	0.073
616	0.072
617	0.071
617	0.07
618	0.068
618	0.067
618	0.067
619	0.068
619	0.069
620	0.071
620	0.072
621	0.072
621	0.073
622	0.073
622	0.074
622	0.074
623	0.074
623	0.075
624	0.075
624	0.074
625	0.073
625	0.073
626	0.073
626	0.073
626	0.074
627	0.075
627	0.076
628	0.077
628	0.078
629	0.079
629	0.08
630	0.08
630	0.08
630	0.082
631	0.083
631	0.084
632	0.084
632	0.085
633	0.087
633	0.088
634	0.09
634	0.092
634	0.094
635	0.095
635	0.096
636	0.097
636	0.098
637	0.099
637	0.1
638	0.101
638	0.102
638	0.103
639	0.104
639	0.105
640	0.106
640	0.108
641	0.11
641	0.112
642	0.114
642	0.116
642	0.118
643	0.119
643	0.121
644	0.123
644	0.125
645	0.127
645	0.129
646	0.131
646	0.134
646	0.136
647	0.139
647	0.142
648	0.144
648	0.146
649	0.149
649	0.151
650	0.153
650	0.155
650	0.157
651	0.159
651	0.161
652	0.163
652	0.165
653	0.167
653	0.175
653	0.187
654	0.149
654	0.121
655	0.123
655	0.125
656	0.127
656	0.129
657	0.131
657	0.133
657	0.134
658	0.132
658	0.121
659	0.155
659	0.203
660	0.21
660	0.213
661	0.215
661	0.218
661	0.221
662	0.225
662	0.229
663	0.232
663	0.236
664	0.239
664	0.242
665	0.245
665	0.249
665	0.251
666	0.254
666	0.257
667	0.259
667	0.261
668	0.264
668	0.266
669	0.269
669	0.272
669	0.276
670	0.28
670	0.283
671	0.285
671	0.287
672	0.289
672	0.291
672	0.293
673	0.295
673	0.297
674	0.298
674	0.299
675	0.3
675	0.301
676	0.303
676	0.305
676	0.306
677	0.307
677	0.309
678	0.31
678	0.311
679	0.313
679	0.315
680	0.317
680	0.318
680	0.32
681	0.321
681	0.322
682	0.323
682	0.324
683	0.326
683	0.327
684	0.328
684	0.328
684	0.328
685	0.329
685	0.329
686	0.33
686	0.33
687	0.331
687	0.331
687	0.331
688	0.331
688	0.33
689	0.33
689	0.33
690	0.329
690	0.328
691	0.326
691	0.325
691	0.323
692	0.321
692	0.319
693	0.318
693	0.317
694	0.316
694	0.314
695	0.314
695	0.315
695	0.315
696	0.314
696	0.313
697	0.312
697	0.312
698	0.311
698	0.31
698	0.309
699	0.308
699	0.306
700	0.303
700	0.302
701	0.301
701	0.3
702	0.298
702	0.297
702	0.295
703	0.293
703	0.29
704	0.288
704	0.286
705	0.284
705	0.282
705	0.279
706	0.277
706	0.275
707	0.272
707	0.27
708	0.267
708	0.265
709	0.263
709	0.261
709	0.257
710	0.254
710	0.251
711	0.249
711	0.246
712	0.244
712	0.241
713	0.239
713	0.237
713	0.234
714	0.232
714	0.23
715	0.228
715	0.226
716	0.224
716	0.222
716	0.22
717	0.218
717	0.217
718	0.215
718	0.213
719	0.211
719	0.21
720	0.208
720	0.205
720	0.203
721	0.201
721	0.199
722	0.196
722	0.194
723	0.192
723	0.19
723	0.187
724	0.184
724	0.182
725	0.179
725	0.176
726	0.174
726	0.171
727	0.168
727	0.166
727	0.163
728	0.161
728	0.158
729	0.157
729	0.156
730	0.154
730	0.152
730	0.15
731	0.148
731	0.146
732	0.145
732	0.143
733	0.14
733	0.138
734	0.136
734	0.133
734	0.131
735	0.131
735	0.129
736	0.128
736	0.127
737	0.126
737	0.126
737	0.124
738	0.122
738	0.119
739	0.117
739	0.115
740	0.112
740	0.11
741	0.107
741	0.104
741	0.101
742	0.096
742	0.094
743	0.092
743	0.09
744	0.088
744	0.086
744	0.084
745	0.082
745	0.08
746	0.079
746	0.077
747	0.076
747	0.076
748	0.075
748	0.074
748	0.072
749	0.071
749	0.07
750	0.069
750	0.068
751	0.067
751	0.067
751	0.067
752	0.066
752	0.065
753	0.065
753	0.065
754	0.065
754	0.064
754	0.064
755	0.064
755	0.064
756	0.063
756	0.061
757	0.06
757	0.059
758	0.057
758	0.056
758	0.055
759	0.053
759	0.05
760	0.048
760	0.046
761	0.044
761	0.044
761	0.043
762	0.041
762	0.041
763	0.04
763	0.038
764	0.036
764	0.035
764	0.033
765	0.031
765	0.029
766	0.028
766	0.027
767	0.026
767	0.023
768	0.02
768	0.018
768	0.017
769	0.016
769	0.015
770	0.013
770	0.011
771	0.009
771	0.006
771	0.003
772	0.001
772	-0.001
773	-0.004
773	-0.006
774	-0.008
774	-0.011
775	-0.013
775	-0.015
775	-0.018
776	-0.02
776	-0.022
777	-0.024
777	-0.026
778	-0.029
778	-0.031
778	-0.034
779	-0.035
779	-0.037
780	-0.04
780	-0.043
781	-0.047
781	-0.05
781	-0.055
782	-0.06
782	-0.066
783	-0.071
783	-0.077
784	-0.083
784	-0.09
784	-0.096
785	-0.102
785	-0.109
786	-0.114
786	-0.119
787	-0.12
787	-0.122
788	-0.128
788	-0.133
788	-0.139
789	-0.144
789	-0.146
790	-0.147
790	-0.148
791	-0.151
791	-0.152
791	-0.155
792	-0.15
792	-0.139
793	-0.133
793	-0.129
794	-0.128
794	-0.13
794	-0.134
795	-0.136
795	-0.136
796	-0.137
796	-0.14
797	-0.149
797	-0.16
797	-0.166
798	-0.172
798	-0.174
799	-0.175
799	-0.174
800	-0.173
800	-0.175
801	-0.178
801	-0.179
801	-0.179
802	-0.18
802	-0.182
803	-0.182
803	-0.183
804	-0.182
804	-0.177
804	-0.17
805	-0.166
805	-0.164
806	-0.162
806	-0.161
807	-0.16
807	-0.159
807	-0.159
808	-0.159
808	-0.16
809	-0.165
809	-0.171
810	-0.175
810	-0.178
810	-0.182
811	-0.185
811	-0.185
812	-0.181
812	-0.178
813	-0.178
813	-0.179
813	-0.179
814	-0.18
814	-0.179
815	-0.176
815	-0.172
816	-0.169
816	-0.166
817	-0.166
817	-0.164
817	-0.158
818	-0.151
818	-0.141
819	-0.132
819	-0.123
820	-0.117
820	-0.11
820	-0.102
821	-0.095
821	-0.088
822	-0.082
822	-0.077
823	-0.073
823	-0.07
823	-0.068
824	-0.065
824	-0.062
825	-0.058
825	-0.054
826	-0.051
826	-0.05
826	-0.048
827	-0.046
827	-0.044
828	-0.042
828	-0.041
829	-0.039
829	-0.038
829	-0.037
830	-0.037
830	-0.035
831	-0.033
831	-0.031
832	-0.03
832	-0.028
832	-0.026
833	-0.024
833	-0.022
834	-0.02
834	-0.018
835	-0.016
835	-0.014
835	-0.013
836	-0.011
836	-0.01
837	-0.009
837	-0.008
838	-0.007
838	-0.007
839	-0.006
839	-0.006
839	-0.007
840	-0.007
840	-0.007
841	-0.006
841	-0.006
842	-0.006
842	-0.005
842	-0.005
843	-0.004
843	-0.004
844	-0.003
844	-0.002
845	-0.001
845	-0
845	0.001
846	0.001
846	0.002
847	0.002
847	0.002
848	0.002
848	0.001
848	0.001
849	0
849	-0
850	-0.001
850	-0.003
851	-0.003
851	-0.004
851	-0.004
852	-0.005
852	-0.004
853	-0.004
853	-0.004
854	-0.003
854	-0.003
854	-0.002
855	-0.002
855	-0.002
856	-0.003
856	-0.003
857	-0.003
857	-0.004
857	-0.004
858	-0.005
858	-0.005
859	-0.006
859	-0.007
860	-0.007
860	-0.007
860	-0.008
861	-0.008
861	-0.008
862	-0.008
862	-0.008
863	-0.008
863	-0.009
863	-0.008
864	-0.008
864	-0.008
865	-0.007
865	-0.006
866	-0.006
866	-0.005
866	-0.003
867	-0.002
867	-0
868	0.001
868	0.002
869	0.004
869	0.004
869	0.005
870	0.005
870	0.005
871	0.004
871	0.004
872	0.003
872	0.002
872	0.001
873	-0
873	-0.002
874	-0.002
874	-0.002
875	-0.002
875	-0.002
875	-0.002
876	-0.002
876	-0.001
877	-0.001
877	-0
878	0
878	0.001
878	0.002
879	0.003
879	0.004
880	0.004
880	0.004
881	0.005
881	0.005
881	0.006
882	0.006
882	0.006
883	0.006
883	0.006
884	0.006
884	0.006
884	0.006
885	0.005
885	0.005
886	0.005
886	0.005
887	0.004
887	0.003
887	0.003
888	0.002
888	0.001
889	0.001
889	-0
890	-0.001
890	-0.002
890	-0.003
891	-0.003
891	-0.004
892	-0.005
892	-0.006
893	-0.006
893	-0.007
893	-0.007
894	-0.007
894	-0.008
895	-0.008
895	-0.008
895	-0.009
896	-0.009
896	-0.009
897	-0.008
897	-0.008
898	-0.008
898	-0.008
898	-0.007
899	-0.006
899	-0.006
900	-0.005
900	-0.004
901	-0.003
901	-0.002
901	-0.001
902	0
902	0.001
903	0.002
903	0.002
904	0.003
904	0.003
904	0.004
905	0.004
905	0.005
906	0.005
906	0.005
907	0.005
907	0.005
907	0.005
908	0.005
908	0.005
909	0.005
909	0.005
910	0.006
910	0.006
910	0.006
911	0.007
911	0.008
912	0.008
912	0.009
913	0.009
913	0.009
913	0.009
914	0.009
914	0.007
915	0.006
915	0.004
916	0.003
916	0.001
916	-0.001
917	-0.003
917	-0.005
918	-0.006
918	-0.007
918	-0.008
919	-0.008
919	-0.007
920	-0.007
920	-0.006
921	-0.005
921	-0.004
921	-0.003
922	-0.001
922	0
923	0.002
923	0.003
924	0.004
924	0.004
924	0.005
925	0.005
925	0.005
926	0.006
926	0.005
927	0.005
927	0.004
927	0.004
928	0.003
928	0.002
929	0.001
929	0
930	-0.001
930	-0.002
930	-0.002
931	-0.003
931	-0.003
932	-0.003
932	-0.003
933	-0.003
933	-0.003
933	-0.003
934	-0.003
934	-0.003
935	-0.004
935	-0.004
935	-0.004
936	-0.004
936	-0.005
937	-0.005
937	-0.005
938	-0.006
938	-0.006
938	-0.007
939	-0.007
939	-0.007
940	-0.007
940	-0.007
941	-0.007
941	-0.006
941	-0.006
942	-0.005
942	-0.005
943	-0.004
943	-0.005
944	-0.005
944	-0.005
944	-0.005
945	-0.005
945	-0.005
946	-0.005
946	-0.005
946	-0.006
947	-0.006
947	-0.006
948	-0.006
948	-0.006
949	-0.006
949	-0.006
949	-0.005
950	-0.005
950	-0.005
951	-0.004
951	-0.004
952	-0.004
952	-0.004
952	-0.004
953	-0.003
953	-0.004
954	-0.004
954	-0.005
955	-0.005
955	-0.006
955	-0.006
956	-0.006
956	-0.006
957	-0.006
957	-0.007
957	-0.007
958	-0.008
958	-0.008
959	-0.009
959	-0.009
960	-0.009
960	-0.01
960	-0.01
961	-0.011
961	-0.011
962	-0.011
962	-0.011
963	-0.01
963	-0.01
963	-0.009
964	-0.008
964	-0.006
965	-0.005
965	-0.003
966	-0.002
966	-0
966	0.001
967	0.003
967	0.004
968	0.005
968	0.005
968	0.005
969	0.006
969	0.005
970	0.005
970	0.005
971	0.004
971	0.004
971	0.003
972	0.003
972	0.002
973	0.002
973	0.001
974	0.001
974	-0
974	-0.001
975	-0.001
975	-0.001
976	-0.002
976	-0.003
976	-0.003
977	-0.005
977	-0.006
978	-0.007
978	-0.008
979	-0.009
979	-0.01
979	-0.011
980	-0.012
980	-0.013
981	-0.014
981	-0.015
982	-0.015
982	-0.015
982	-0.015
983	-0.015
983	-0.014
984	-0.014
984	-0.013
984	-0.013
985	-0.012
985	-0.011
986	-0.011
986	-0.011
987	-0.01
987	-0.01
987	-0.009
988	-0.009
988	-0.008
989	-0.007
989	-0.007
990	-0.007
990	-0.006
990	-0.005
991	-0.004
991	-0.003
992	-0.002
992	-0.002
992	-0.001
993	-0.001
993	-0
994	-0
994	0
995	0
995	-0
995	-0
996	-0.001
996	-0.001
997	-0.001
997	-0.002
997	-0.002
998	-0.002
998	-0.002
999	-0.001
999	-0.001
1000	-0.001
1000	-0.001
1000	-0.001
1001	-0
1001	0
1002	0
1002	0
1003	0.001
1003	0
1003	0
1004	0
1004	-0
1005	-0.001
1005	-0.001
1005	-0.001
1006	-0.002
1006	-0.002
1007	-0.003
1007	-0.004
1008	-0.004
1008	-0.005
1008	-0.005
1009	-0.006
1009	-0.006
1010	-0.007
1010	-0.007
1010	-0.008
1011	-0.009
1011	-0.009
1012	-0.009
1012	-0.009
1013	-0.01
1013	-0.01
1013	-0.011
1014	-0.012
1014	-0.013
1015	-0.013
1015	-0.014
1016	-0.015
1016	-0.015
1016	-0.016
1017	-0.017
1017	-0.018
1018	-0.018
1018	-0.018
1018	-0.019
1019	-0.019
1019	-0.019
1020	-0.019
1020	-0.019
1021	-0.019
1021	-0.019
1021	-0.018
1022	-0.018
1022	-0.018
1023	-0.017
1023	-0.017
1023	-0.017
1024	-0.017
1024	-0.017
1025	-0.017
1025	-0.016
1026	-0.016
1026	-0.016
1026	-0.016
1027	-0.016
1027	-0.016
1028	-0.016
1028	-0.016
1028	-0.015
1029	-0.015
1029	-0.015
1030	-0.015
1030	-0.015
1031	-0.015
1031	-0.015
1031	-0.015
1032	-0.015
1032	-0.015
1033	-0.015
1033	-0.016
1033	-0.016
1034	-0.017
1034	-0.018
1035	-0.019
1035	-0.02
1036	-0.02
1036	-0.021
1036	-0.021
1037	-0.021
1037	-0.021
1038	-0.021
1038	-0.021
1039	-0.02
1039	-0.019
1039	-0.019
1040	-0.018
1040	-0.018
1041	-0.018
1041	-0.018
1041	-0.019
1042	-0.02
1042	-0.02
1043	-0.022
1043	-0.023
1044	-0.024
1044	-0.025
1044	-0.026
1045	-0.026
1045	-0.027
1046	-0.028
1046	-0.028
1046	-0.028
1047	-0.028
1047	-0.027
1048	-0.026
1048	-0.026
1049	-0.026
1049	-0.026
1049	-0.027
1050	-0.027
1050	-0.027
1051	-0.028
1051	-0.028
1051	-0.029
1052	-0.029
1052	-0.03
1053	-0.03
1053	-0.031
1053	-0.031
1054	-0.031
1054	-0.031
1055	-0.031
1055	-0.03
1056	-0.031
1056	-0.031
1056	-0.032
1057	-0.032
1057	-0.032
1058	-0.032
1058	-0.033
1058	-0.033
1059	-0.033
1059	-0.033
1060	-0.033
1060	-0.033
1061	-0.032
1061	-0.031
1061	-0.03
1062	-0.03
1062	-0.03
1063	-0.029
1063	-0.029
1063	-0.029
1064	-0.028
1064	-0.028
1065	-0.028
1065	-0.028
1066	-0.028
1066	-0.028
1066	-0.028
1067	-0.028
1067	-0.027
1068	-0.028
1068	-0.028
1068	-0.028
1069	-0.029
1069	-0.03
1070	-0.031
1070	-0.031
1071	-0.031
1071	-0.032
1071	-0.033
1072	-0.034
1072	-0.034
1073	-0.034
1073	-0.035
1073	-0.035
1074	-0.035
1074	-0.036
1075	-0.037
1075	-0.038
1076	-0.038
1076	-0.038
1076	-0.039
1077	-0.04
1077	-0.04
1078	-0.04
1078	-0.04
1078	-0.039
1079	-0.039
1079	-0.037
1080	-0.036
1080	-0.036
1080	-0.035
1081	-0.035
1081	-0.033
1082	-0.033
1082	-0.032
1083	-0.032
1083	-0.032
1083	-0.031
1084	-0.031
1084	-0.03
1085	-0.03
1085	-0.029
1085	-0.028
1086	-0.028
1086	-0.028
1087	-0.027
1087	-0.027
1088	-0.027
1088	-0.028
1088	-0.027
1089	-0.028
1089	-0.028
1090	-0.029
1090	-0.028
1090	-0.029
1091	-0.028
1091	-0.028
1092	-0.028
1092	-0.026
1092	-0.026
1093	-0.025
1093	-0.022
1094	-0.02
1094	-0.019
1095	-0.019
1095	-0.017
1095	-0.014
1096	-0.012
1096	-0.01
1097	-0.008
1097	-0.006
1097	-0.004
1098	-0.004
1098	-0.003
1099	-0.001
1099	0.001
1100	0.002
1100	0.003
1100	0.005
1101	0.006
1101	0.008
1102	0.011
1102	0.013
1102	0.018
1103	0.021
1103	0.026
1104	0.03
1104	0.036
1104	0.043
1105	0.049
1105	0.054
1106	0.059
1106	0.067
1107	0.072
1107	0.082
1107	0.094
1108	0.138
1108	0.2
1109	0.289
1109	0.446
1109	0.581
1110	0.946
1110	-0
1111	-0
1111	-0
