Data from 15c-2a_Absorbance__789__00789.txt Node

Date: Wed Jan 17 10:06:43 CET 2024
User: Marek
Spectrometer: MAYP115816
Trigger mode: 0
Integration Time (sec): 2.000000E-1
Scans to average: 10
Electric dark correction enabled: true
Nonlinearity correction enabled: true
Boxcar width: 5
XAxis mode: Wavelengths
Number of Pixels in Spectrum: 2068
>>>>>Begin Spectral Data<<<<<
199	-1.589
199	-1.45
200	-1.29
200	-1.167
201	-1.091
201	-1.043
202	-0.973
202	-0.921
203	-0.875
203	-0.835
204	-0.81
204	-0.786
205	-0.763
205	-0.753
205	-0.752
206	-0.751
206	-0.746
207	-0.744
207	-0.74
208	-0.739
208	-0.738
209	-0.734
209	-0.733
210	-0.732
210	-0.734
211	-0.732
211	-0.731
212	-0.733
212	-0.732
213	-0.731
213	-0.729
213	-0.728
214	-0.727
214	-0.726
215	-0.724
215	-0.722
216	-0.722
216	-0.719
217	-0.714
217	-0.712
218	-0.712
218	-0.708
219	-0.706
219	-0.704
220	-0.701
220	-0.699
221	-0.694
221	-0.69
221	-0.686
222	-0.683
222	-0.678
223	-0.672
223	-0.669
224	-0.664
224	-0.657
225	-0.649
225	-0.641
226	-0.633
226	-0.62
227	-0.607
227	-0.594
228	-0.579
228	-0.561
229	-0.541
229	-0.517
229	-0.491
230	-0.463
230	-0.433
231	-0.399
231	-0.364
232	-0.329
232	-0.291
233	-0.251
233	-0.21
234	-0.17
234	-0.13
235	-0.091
235	-0.054
236	-0.018
236	0.015
236	0.048
237	0.077
237	0.105
238	0.13
238	0.154
239	0.176
239	0.195
240	0.213
240	0.229
241	0.244
241	0.257
242	0.268
242	0.28
243	0.289
243	0.298
243	0.306
244	0.314
244	0.321
245	0.326
245	0.332
246	0.337
246	0.342
247	0.347
247	0.351
248	0.355
248	0.359
249	0.362
249	0.365
250	0.368
250	0.371
250	0.374
251	0.376
251	0.378
252	0.38
252	0.382
253	0.384
253	0.385
254	0.387
254	0.388
255	0.39
255	0.391
256	0.392
256	0.393
257	0.393
257	0.394
258	0.395
258	0.395
258	0.395
259	0.396
259	0.396
260	0.396
260	0.396
261	0.395
261	0.395
262	0.395
262	0.394
263	0.394
263	0.393
264	0.393
264	0.392
265	0.391
265	0.39
265	0.389
266	0.388
266	0.386
267	0.385
267	0.383
268	0.381
268	0.38
269	0.378
269	0.377
270	0.375
270	0.373
271	0.371
271	0.369
272	0.367
272	0.365
272	0.363
273	0.361
273	0.358
274	0.356
274	0.354
275	0.352
275	0.35
276	0.348
276	0.346
277	0.344
277	0.342
278	0.34
278	0.337
278	0.335
279	0.333
279	0.331
280	0.329
280	0.326
281	0.324
281	0.322
282	0.32
282	0.318
283	0.316
283	0.314
284	0.313
284	0.311
285	0.309
285	0.307
285	0.306
286	0.304
286	0.302
287	0.301
287	0.299
288	0.298
288	0.296
289	0.295
289	0.293
290	0.292
290	0.29
291	0.289
291	0.288
292	0.286
292	0.285
292	0.284
293	0.282
293	0.281
294	0.28
294	0.279
295	0.278
295	0.277
296	0.276
296	0.275
297	0.274
297	0.273
298	0.272
298	0.271
298	0.271
299	0.27
299	0.269
300	0.268
300	0.268
301	0.267
301	0.266
302	0.266
302	0.265
303	0.264
303	0.264
304	0.263
304	0.262
305	0.261
305	0.261
305	0.26
306	0.259
306	0.259
307	0.258
307	0.257
308	0.256
308	0.256
309	0.255
309	0.254
310	0.253
310	0.253
311	0.252
311	0.251
311	0.251
312	0.25
312	0.249
313	0.249
313	0.248
314	0.247
314	0.246
315	0.246
315	0.245
316	0.245
316	0.244
317	0.243
317	0.242
318	0.242
318	0.241
318	0.24
319	0.24
319	0.239
320	0.238
320	0.237
321	0.237
321	0.236
322	0.235
322	0.234
323	0.234
323	0.233
324	0.232
324	0.232
324	0.231
325	0.23
325	0.229
326	0.229
326	0.228
327	0.227
327	0.227
328	0.226
328	0.225
329	0.225
329	0.224
330	0.223
330	0.222
330	0.222
331	0.221
331	0.22
332	0.22
332	0.219
333	0.218
333	0.217
334	0.217
334	0.216
335	0.215
335	0.215
336	0.214
336	0.214
336	0.213
337	0.212
337	0.212
338	0.211
338	0.211
339	0.21
339	0.21
340	0.209
340	0.209
341	0.208
341	0.207
342	0.207
342	0.206
342	0.206
343	0.205
343	0.205
344	0.205
344	0.204
345	0.204
345	0.203
346	0.203
346	0.202
347	0.202
347	0.201
348	0.201
348	0.201
348	0.2
349	0.2
349	0.199
350	0.199
350	0.198
351	0.198
351	0.197
352	0.197
352	0.197
353	0.196
353	0.196
354	0.196
354	0.195
354	0.195
355	0.195
355	0.194
356	0.194
356	0.194
357	0.193
357	0.193
358	0.192
358	0.192
359	0.192
359	0.192
360	0.192
360	0.192
360	0.192
361	0.192
361	0.192
362	0.192
362	0.192
363	0.192
363	0.192
364	0.192
364	0.191
365	0.191
365	0.191
366	0.191
366	0.19
366	0.19
367	0.19
367	0.19
368	0.19
368	0.19
369	0.189
369	0.189
370	0.189
370	0.189
371	0.188
371	0.188
372	0.188
372	0.188
372	0.187
373	0.187
373	0.187
374	0.187
374	0.186
375	0.186
375	0.186
376	0.186
376	0.186
377	0.186
377	0.186
378	0.186
378	0.186
378	0.186
379	0.186
379	0.186
380	0.186
380	0.186
381	0.186
381	0.186
382	0.185
382	0.185
383	0.185
383	0.184
383	0.184
384	0.184
384	0.183
385	0.183
385	0.183
386	0.183
386	0.183
387	0.183
387	0.183
388	0.182
388	0.182
389	0.182
389	0.182
389	0.182
390	0.182
390	0.182
391	0.182
391	0.182
392	0.182
392	0.182
393	0.182
393	0.182
394	0.182
394	0.181
394	0.181
395	0.181
395	0.181
396	0.18
396	0.18
397	0.18
397	0.18
398	0.18
398	0.18
399	0.18
399	0.18
400	0.18
400	0.179
400	0.179
401	0.178
401	0.178
402	0.177
402	0.177
403	0.177
403	0.176
404	0.176
404	0.176
405	0.176
405	0.176
405	0.176
406	0.176
406	0.175
407	0.175
407	0.175
408	0.175
408	0.174
409	0.174
409	0.174
410	0.173
410	0.173
411	0.173
411	0.173
411	0.173
412	0.173
412	0.173
413	0.173
413	0.172
414	0.172
414	0.172
415	0.172
415	0.172
416	0.172
416	0.172
416	0.172
417	0.171
417	0.171
418	0.171
418	0.172
419	0.172
419	0.172
420	0.172
420	0.173
421	0.173
421	0.173
421	0.173
422	0.173
422	0.173
423	0.173
423	0.173
424	0.173
424	0.173
425	0.172
425	0.172
426	0.171
426	0.171
427	0.171
427	0.171
427	0.171
428	0.171
428	0.171
429	0.171
429	0.171
430	0.171
430	0.171
431	0.171
431	0.171
432	0.17
432	0.17
432	0.17
433	0.169
433	0.168
434	0.168
434	0.168
435	0.168
435	0.168
436	0.168
436	0.168
437	0.169
437	0.169
437	0.169
438	0.169
438	0.169
439	0.169
439	0.169
440	0.168
440	0.168
441	0.168
441	0.168
442	0.167
442	0.167
442	0.167
443	0.167
443	0.167
444	0.167
444	0.168
445	0.168
445	0.168
446	0.168
446	0.168
447	0.168
447	0.168
447	0.168
448	0.168
448	0.168
449	0.168
449	0.168
450	0.168
450	0.168
451	0.168
451	0.168
452	0.168
452	0.168
452	0.168
453	0.168
453	0.168
454	0.167
454	0.167
455	0.167
455	0.167
456	0.167
456	0.167
457	0.167
457	0.167
458	0.167
458	0.167
458	0.167
459	0.168
459	0.168
460	0.168
460	0.167
461	0.167
461	0.167
462	0.167
462	0.167
463	0.168
463	0.168
463	0.168
464	0.169
464	0.169
465	0.169
465	0.169
466	0.17
466	0.17
467	0.17
467	0.17
467	0.171
468	0.17
468	0.17
469	0.17
469	0.169
470	0.169
470	0.169
471	0.169
471	0.169
472	0.17
472	0.17
472	0.17
473	0.17
473	0.171
474	0.171
474	0.172
475	0.173
475	0.173
476	0.173
476	0.173
477	0.173
477	0.174
477	0.174
478	0.174
478	0.174
479	0.175
479	0.175
480	0.176
480	0.177
481	0.178
481	0.179
482	0.18
482	0.18
482	0.182
483	0.183
483	0.185
484	0.186
484	0.186
485	0.187
485	0.188
486	0.189
486	0.189
487	0.19
487	0.191
487	0.192
488	0.192
488	0.192
489	0.193
489	0.195
490	0.195
490	0.196
491	0.197
491	0.198
492	0.198
492	0.199
492	0.2
493	0.2
493	0.202
494	0.203
494	0.204
495	0.206
495	0.207
496	0.209
496	0.211
496	0.212
497	0.214
497	0.215
498	0.217
498	0.218
499	0.219
499	0.22
500	0.222
500	0.223
501	0.224
501	0.226
501	0.227
502	0.229
502	0.23
503	0.232
503	0.233
504	0.234
504	0.235
505	0.236
505	0.237
506	0.238
506	0.24
506	0.241
507	0.242
507	0.242
508	0.244
508	0.245
509	0.246
509	0.248
510	0.25
510	0.251
511	0.252
511	0.253
511	0.254
512	0.255
512	0.256
513	0.256
513	0.257
514	0.257
514	0.257
515	0.258
515	0.258
515	0.259
516	0.259
516	0.26
517	0.261
517	0.262
518	0.262
518	0.262
519	0.262
519	0.262
520	0.262
520	0.262
520	0.262
521	0.261
521	0.26
522	0.26
522	0.26
523	0.259
523	0.259
524	0.259
524	0.26
524	0.259
525	0.26
525	0.26
526	0.26
526	0.261
527	0.261
527	0.261
528	0.261
528	0.261
529	0.26
529	0.26
529	0.259
530	0.259
530	0.258
531	0.258
531	0.257
532	0.256
532	0.255
533	0.254
533	0.253
533	0.252
534	0.251
534	0.25
535	0.249
535	0.248
536	0.247
536	0.246
537	0.245
537	0.243
538	0.242
538	0.241
538	0.24
539	0.239
539	0.237
540	0.236
540	0.234
541	0.232
541	0.23
542	0.228
542	0.226
542	0.224
543	0.222
543	0.22
544	0.218
544	0.216
545	0.214
545	0.213
546	0.211
546	0.209
547	0.207
547	0.204
547	0.202
548	0.2
548	0.198
549	0.196
549	0.194
550	0.192
550	0.189
551	0.187
551	0.185
551	0.184
552	0.182
552	0.181
553	0.179
553	0.178
554	0.176
554	0.174
555	0.171
555	0.169
556	0.166
556	0.164
556	0.162
557	0.159
557	0.157
558	0.155
558	0.152
559	0.15
559	0.149
560	0.147
560	0.146
560	0.144
561	0.144
561	0.143
562	0.141
562	0.14
563	0.137
563	0.135
564	0.133
564	0.13
564	0.128
565	0.126
565	0.124
566	0.121
566	0.119
567	0.117
567	0.116
568	0.115
568	0.114
568	0.113
569	0.113
569	0.113
570	0.112
570	0.111
571	0.11
571	0.109
572	0.108
572	0.107
573	0.106
573	0.105
573	0.104
574	0.103
574	0.103
575	0.102
575	0.102
576	0.101
576	0.1
577	0.098
577	0.097
577	0.097
578	0.096
578	0.095
579	0.095
579	0.095
580	0.093
580	0.09
581	0.088
581	0.086
581	0.085
582	0.084
582	0.083
583	0.083
583	0.081
584	0.079
584	0.076
585	0.075
585	0.075
585	0.075
586	0.074
586	0.074
587	0.073
587	0.072
588	0.07
588	0.069
589	0.069
589	0.069
590	0.069
590	0.069
590	0.07
591	0.07
591	0.069
592	0.069
592	0.068
593	0.067
593	0.067
594	0.066
594	0.065
594	0.063
595	0.063
595	0.062
596	0.061
596	0.062
597	0.063
597	0.064
598	0.064
598	0.065
598	0.066
599	0.066
599	0.066
600	0.065
600	0.065
601	0.064
601	0.063
602	0.061
602	0.061
602	0.061
603	0.061
603	0.061
604	0.062
604	0.063
605	0.064
605	0.065
606	0.066
606	0.065
606	0.065
607	0.065
607	0.065
608	0.064
608	0.063
609	0.062
609	0.062
610	0.062
610	0.061
610	0.062
611	0.063
611	0.064
612	0.065
612	0.067
613	0.068
613	0.069
614	0.069
614	0.068
614	0.067
615	0.066
615	0.066
616	0.065
616	0.064
617	0.063
617	0.062
618	0.06
618	0.059
618	0.059
619	0.059
619	0.06
620	0.062
620	0.062
621	0.062
621	0.063
622	0.063
622	0.064
622	0.064
623	0.064
623	0.065
624	0.065
624	0.065
625	0.065
625	0.065
626	0.065
626	0.066
626	0.066
627	0.067
627	0.068
628	0.068
628	0.069
629	0.07
629	0.071
630	0.071
630	0.071
630	0.072
631	0.073
631	0.074
632	0.074
632	0.075
633	0.076
633	0.078
634	0.079
634	0.08
634	0.082
635	0.083
635	0.084
636	0.085
636	0.086
637	0.086
637	0.087
638	0.088
638	0.089
638	0.09
639	0.091
639	0.092
640	0.093
640	0.094
641	0.096
641	0.097
642	0.099
642	0.101
642	0.103
643	0.104
643	0.106
644	0.108
644	0.11
645	0.113
645	0.115
646	0.117
646	0.12
646	0.122
647	0.125
647	0.128
648	0.13
648	0.132
649	0.134
649	0.136
650	0.138
650	0.14
650	0.142
651	0.144
651	0.146
652	0.148
652	0.15
653	0.152
653	0.158
653	0.166
654	0.133
654	0.108
655	0.111
655	0.112
656	0.114
656	0.115
657	0.117
657	0.118
657	0.119
658	0.117
658	0.11
659	0.14
659	0.183
660	0.188
660	0.19
661	0.192
661	0.195
661	0.198
662	0.202
662	0.205
663	0.208
663	0.211
664	0.214
664	0.217
665	0.22
665	0.223
665	0.225
666	0.227
666	0.229
667	0.231
667	0.233
668	0.236
668	0.238
669	0.241
669	0.244
669	0.247
670	0.251
670	0.254
671	0.256
671	0.258
672	0.261
672	0.263
672	0.264
673	0.266
673	0.268
674	0.269
674	0.269
675	0.27
675	0.271
676	0.273
676	0.274
676	0.276
677	0.277
677	0.279
678	0.28
678	0.282
679	0.283
679	0.285
680	0.287
680	0.289
680	0.29
681	0.291
681	0.292
682	0.293
682	0.294
683	0.296
683	0.297
684	0.298
684	0.298
684	0.298
685	0.298
685	0.298
686	0.298
686	0.298
687	0.298
687	0.298
687	0.298
688	0.298
688	0.298
689	0.299
689	0.299
690	0.299
690	0.298
691	0.298
691	0.297
691	0.296
692	0.294
692	0.293
693	0.292
693	0.291
694	0.29
694	0.288
695	0.287
695	0.288
695	0.287
696	0.286
696	0.286
697	0.285
697	0.284
698	0.282
698	0.281
698	0.28
699	0.279
699	0.277
700	0.274
700	0.273
701	0.271
701	0.269
702	0.268
702	0.266
702	0.264
703	0.262
703	0.26
704	0.258
704	0.256
705	0.255
705	0.253
705	0.251
706	0.25
706	0.248
707	0.247
707	0.244
708	0.242
708	0.24
709	0.238
709	0.236
709	0.233
710	0.23
710	0.227
711	0.224
711	0.222
712	0.219
712	0.217
713	0.215
713	0.213
713	0.211
714	0.209
714	0.207
715	0.205
715	0.204
716	0.202
716	0.201
716	0.2
717	0.198
717	0.197
718	0.196
718	0.194
719	0.193
719	0.191
720	0.189
720	0.187
720	0.185
721	0.183
721	0.18
722	0.178
722	0.175
723	0.173
723	0.171
723	0.169
724	0.167
724	0.165
725	0.162
725	0.16
726	0.158
726	0.155
727	0.153
727	0.15
727	0.148
728	0.145
728	0.142
729	0.141
729	0.139
730	0.137
730	0.135
730	0.134
731	0.132
731	0.13
732	0.129
732	0.127
733	0.125
733	0.123
734	0.121
734	0.118
734	0.117
735	0.116
735	0.114
736	0.113
736	0.112
737	0.111
737	0.111
737	0.11
738	0.109
738	0.107
739	0.105
739	0.103
740	0.1
740	0.098
741	0.096
741	0.093
741	0.089
742	0.085
742	0.082
743	0.08
743	0.078
744	0.077
744	0.075
744	0.073
745	0.072
745	0.07
746	0.069
746	0.068
747	0.067
747	0.067
748	0.066
748	0.065
748	0.064
749	0.062
749	0.061
750	0.06
750	0.059
751	0.059
751	0.058
751	0.058
752	0.058
752	0.057
753	0.056
753	0.056
754	0.056
754	0.055
754	0.055
755	0.054
755	0.055
756	0.054
756	0.052
757	0.051
757	0.05
758	0.049
758	0.048
758	0.047
759	0.045
759	0.043
760	0.041
760	0.039
761	0.037
761	0.036
761	0.034
762	0.032
762	0.032
763	0.031
763	0.029
764	0.027
764	0.026
764	0.024
765	0.023
765	0.021
766	0.02
766	0.019
767	0.018
767	0.016
768	0.014
768	0.013
768	0.012
769	0.011
769	0.01
770	0.009
770	0.007
771	0.005
771	0.002
771	-0
772	-0.002
772	-0.005
773	-0.007
773	-0.01
774	-0.013
774	-0.015
775	-0.018
775	-0.02
775	-0.023
776	-0.026
776	-0.028
777	-0.031
777	-0.034
778	-0.036
778	-0.039
778	-0.042
779	-0.043
779	-0.045
780	-0.047
780	-0.05
781	-0.053
781	-0.057
781	-0.061
782	-0.066
782	-0.071
783	-0.076
783	-0.081
784	-0.087
784	-0.094
784	-0.1
785	-0.106
785	-0.112
786	-0.118
786	-0.122
787	-0.122
787	-0.124
788	-0.129
788	-0.135
788	-0.14
789	-0.145
789	-0.147
790	-0.147
790	-0.149
791	-0.151
791	-0.153
791	-0.155
792	-0.15
792	-0.139
793	-0.133
793	-0.129
794	-0.128
794	-0.13
794	-0.134
795	-0.136
795	-0.137
796	-0.137
796	-0.14
797	-0.149
797	-0.16
797	-0.167
798	-0.172
798	-0.175
799	-0.175
799	-0.174
800	-0.173
800	-0.175
801	-0.178
801	-0.179
801	-0.179
802	-0.18
802	-0.182
803	-0.182
803	-0.183
804	-0.182
804	-0.177
804	-0.17
805	-0.166
805	-0.164
806	-0.162
806	-0.161
807	-0.16
807	-0.159
807	-0.159
808	-0.159
808	-0.161
809	-0.165
809	-0.171
810	-0.175
810	-0.178
810	-0.182
811	-0.185
811	-0.185
812	-0.181
812	-0.178
813	-0.178
813	-0.179
813	-0.179
814	-0.18
814	-0.179
815	-0.176
815	-0.172
816	-0.168
816	-0.165
817	-0.164
817	-0.161
817	-0.154
818	-0.146
818	-0.136
819	-0.126
819	-0.117
820	-0.11
820	-0.102
820	-0.094
821	-0.087
821	-0.08
822	-0.075
822	-0.07
823	-0.066
823	-0.064
823	-0.062
824	-0.059
824	-0.056
825	-0.053
825	-0.05
826	-0.047
826	-0.046
826	-0.044
827	-0.042
827	-0.041
828	-0.039
828	-0.038
829	-0.036
829	-0.035
829	-0.034
830	-0.034
830	-0.033
831	-0.031
831	-0.029
832	-0.028
832	-0.026
832	-0.024
833	-0.022
833	-0.021
834	-0.019
834	-0.017
835	-0.015
835	-0.014
835	-0.013
836	-0.012
836	-0.012
837	-0.011
837	-0.011
838	-0.011
838	-0.01
839	-0.01
839	-0.01
839	-0.01
840	-0.01
840	-0.01
841	-0.01
841	-0.01
842	-0.01
842	-0.01
842	-0.009
843	-0.01
843	-0.01
844	-0.01
844	-0.01
845	-0.009
845	-0.009
845	-0.009
846	-0.008
846	-0.008
847	-0.008
847	-0.008
848	-0.008
848	-0.008
848	-0.008
849	-0.008
849	-0.008
850	-0.009
850	-0.009
851	-0.01
851	-0.01
851	-0.01
852	-0.01
852	-0.01
853	-0.009
853	-0.009
854	-0.008
854	-0.008
854	-0.007
855	-0.007
855	-0.007
856	-0.007
856	-0.007
857	-0.007
857	-0.007
857	-0.007
858	-0.008
858	-0.008
859	-0.009
859	-0.009
860	-0.009
860	-0.009
860	-0.009
861	-0.009
861	-0.009
862	-0.008
862	-0.008
863	-0.008
863	-0.008
863	-0.008
864	-0.008
864	-0.008
865	-0.007
865	-0.006
866	-0.006
866	-0.005
866	-0.003
867	-0.002
867	-0.001
868	0.001
868	0.002
869	0.003
869	0.004
869	0.004
870	0.004
870	0.004
871	0.003
871	0.002
872	0.001
872	-0.001
872	-0.002
873	-0.004
873	-0.005
874	-0.006
874	-0.006
875	-0.006
875	-0.006
875	-0.006
876	-0.005
876	-0.004
877	-0.003
877	-0.002
878	-0.001
878	0.001
878	0.002
879	0.003
879	0.004
880	0.004
880	0.005
881	0.005
881	0.005
881	0.005
882	0.005
882	0.005
883	0.004
883	0.004
884	0.003
884	0.003
884	0.003
885	0.002
885	0.002
886	0.002
886	0.002
887	0.002
887	0.002
887	0.002
888	0.002
888	0.002
889	0.002
889	0.002
890	0.002
890	0.001
890	0.001
891	0
891	-0
892	-0.001
892	-0.002
893	-0.003
893	-0.003
893	-0.004
894	-0.005
894	-0.006
895	-0.006
895	-0.007
895	-0.008
896	-0.008
896	-0.009
897	-0.009
897	-0.009
898	-0.009
898	-0.008
898	-0.008
899	-0.008
899	-0.007
900	-0.006
900	-0.005
901	-0.005
901	-0.004
901	-0.003
902	-0.003
902	-0.003
903	-0.003
903	-0.003
904	-0.003
904	-0.002
904	-0.002
905	-0.002
905	-0.002
906	-0.001
906	-0
907	0
907	0.001
907	0.002
908	0.003
908	0.004
909	0.004
909	0.005
910	0.005
910	0.005
910	0.006
911	0.006
911	0.006
912	0.007
912	0.007
913	0.007
913	0.006
913	0.006
914	0.005
914	0.004
915	0.003
915	0.002
916	0.001
916	-0.001
916	-0.003
917	-0.004
917	-0.005
918	-0.006
918	-0.007
918	-0.008
919	-0.007
919	-0.007
920	-0.007
920	-0.006
921	-0.006
921	-0.005
921	-0.004
922	-0.004
922	-0.003
923	-0.002
923	-0.001
924	-0.001
924	-0.001
924	-0.001
925	-0.001
925	-0.001
926	-0.002
926	-0.002
927	-0.003
927	-0.003
927	-0.003
928	-0.004
928	-0.004
929	-0.004
929	-0.004
930	-0.004
930	-0.003
930	-0.002
931	-0.002
931	-0.001
932	-0.001
932	-0
933	0
933	0.001
933	0.002
934	0.002
934	0.003
935	0.003
935	0.003
935	0.003
936	0.003
936	0.003
937	0.003
937	0.003
938	0.003
938	0.002
938	0.002
939	0.001
939	0.001
940	-0
940	-0.001
941	-0.001
941	-0.001
941	-0.001
942	-0.001
942	-0.002
943	-0.002
943	-0.002
944	-0.002
944	-0.002
944	-0.002
945	-0.002
945	-0.002
946	-0.002
946	-0.002
946	-0.002
947	-0.002
947	-0.002
948	-0.003
948	-0.003
949	-0.003
949	-0.003
949	-0.003
950	-0.003
950	-0.003
951	-0.002
951	-0.002
952	-0.002
952	-0.002
952	-0.001
953	-0.001
953	-0.001
954	-0.002
954	-0.002
955	-0.002
955	-0.003
955	-0.003
956	-0.003
956	-0.003
957	-0.004
957	-0.005
957	-0.006
958	-0.006
958	-0.007
959	-0.008
959	-0.009
960	-0.01
960	-0.011
960	-0.012
961	-0.013
961	-0.013
962	-0.014
962	-0.014
963	-0.014
963	-0.014
963	-0.013
964	-0.013
964	-0.012
965	-0.01
965	-0.009
966	-0.008
966	-0.007
966	-0.006
967	-0.005
967	-0.004
968	-0.003
968	-0.003
968	-0.002
969	-0.002
969	-0.002
970	-0.002
970	-0.003
971	-0.003
971	-0.003
971	-0.003
972	-0.003
972	-0.003
973	-0.003
973	-0.003
974	-0.003
974	-0.003
974	-0.003
975	-0.003
975	-0.003
976	-0.003
976	-0.003
976	-0.003
977	-0.003
977	-0.004
978	-0.005
978	-0.006
979	-0.006
979	-0.007
979	-0.008
980	-0.009
980	-0.01
981	-0.011
981	-0.011
982	-0.011
982	-0.012
982	-0.011
983	-0.011
983	-0.011
984	-0.01
984	-0.01
984	-0.009
985	-0.008
985	-0.008
986	-0.008
986	-0.008
987	-0.008
987	-0.008
987	-0.008
988	-0.008
988	-0.008
989	-0.007
989	-0.007
990	-0.007
990	-0.006
990	-0.006
991	-0.004
991	-0.003
992	-0.002
992	-0.002
992	-0.001
993	-0
993	0.001
994	0.001
994	0.001
995	0.002
995	0.002
995	0.002
996	0.002
996	0.001
997	0.001
997	0.001
997	0.001
998	0
998	0.001
999	0.001
999	0.001
1000	0.001
1000	0.001
1000	0.002
1001	0.002
1001	0.003
1002	0.004
1002	0.004
1003	0.004
1003	0.005
1003	0.005
1004	0.005
1004	0.004
1005	0.004
1005	0.003
1005	0.003
1006	0.002
1006	0.001
1007	0.001
1007	0
1008	-0
1008	-0.001
1008	-0.001
1009	-0
1009	-0
1010	0
1010	0
1010	0.001
1011	0.001
1011	0.001
1012	0.001
1012	0.001
1013	0.001
1013	0.001
1013	0
1014	-0
1014	-0.001
1015	-0.001
1015	-0.001
1016	-0.002
1016	-0.002
1016	-0.002
1017	-0.003
1017	-0.003
1018	-0.003
1018	-0.003
1018	-0.003
1019	-0.004
1019	-0.004
1020	-0.004
1020	-0.004
1021	-0.004
1021	-0.004
1021	-0.004
1022	-0.004
1022	-0.004
1023	-0.004
1023	-0.004
1023	-0.004
1024	-0.004
1024	-0.005
1025	-0.005
1025	-0.005
1026	-0.005
1026	-0.006
1026	-0.006
1027	-0.006
1027	-0.006
1028	-0.006
1028	-0.006
1028	-0.006
1029	-0.005
1029	-0.005
1030	-0.005
1030	-0.005
1031	-0.004
1031	-0.004
1031	-0.004
1032	-0.004
1032	-0.004
1033	-0.004
1033	-0.005
1033	-0.005
1034	-0.006
1034	-0.007
1035	-0.008
1035	-0.01
1036	-0.011
1036	-0.012
1036	-0.012
1037	-0.013
1037	-0.013
1038	-0.014
1038	-0.014
1039	-0.013
1039	-0.013
1039	-0.013
1040	-0.012
1040	-0.012
1041	-0.012
1041	-0.012
1041	-0.013
1042	-0.013
1042	-0.014
1043	-0.015
1043	-0.016
1044	-0.016
1044	-0.017
1044	-0.017
1045	-0.018
1045	-0.018
1046	-0.018
1046	-0.018
1046	-0.018
1047	-0.017
1047	-0.016
1048	-0.015
1048	-0.015
1049	-0.014
1049	-0.014
1049	-0.014
1050	-0.014
1050	-0.013
1051	-0.013
1051	-0.013
1051	-0.013
1052	-0.013
1052	-0.013
1053	-0.014
1053	-0.013
1053	-0.013
1054	-0.013
1054	-0.013
1055	-0.013
1055	-0.013
1056	-0.014
1056	-0.014
1056	-0.015
1057	-0.015
1057	-0.016
1058	-0.016
1058	-0.017
1058	-0.017
1059	-0.018
1059	-0.019
1060	-0.02
1060	-0.02
1061	-0.02
1061	-0.02
1061	-0.02
1062	-0.02
1062	-0.02
1063	-0.02
1063	-0.02
1063	-0.02
1064	-0.02
1064	-0.019
1065	-0.019
1065	-0.019
1066	-0.02
1066	-0.02
1066	-0.02
1067	-0.02
1067	-0.02
1068	-0.02
1068	-0.021
1068	-0.021
1069	-0.022
1069	-0.024
1070	-0.024
1070	-0.025
1071	-0.025
1071	-0.026
1071	-0.026
1072	-0.027
1072	-0.026
1073	-0.027
1073	-0.026
1073	-0.026
1074	-0.026
1074	-0.026
1075	-0.026
1075	-0.026
1076	-0.026
1076	-0.026
1076	-0.026
1077	-0.026
1077	-0.026
1078	-0.026
1078	-0.025
1078	-0.024
1079	-0.023
1079	-0.022
1080	-0.021
1080	-0.02
1080	-0.019
1081	-0.018
1081	-0.017
1082	-0.015
1082	-0.014
1083	-0.013
1083	-0.012
1083	-0.012
1084	-0.011
1084	-0.01
1085	-0.009
1085	-0.007
1085	-0.006
1086	-0.005
1086	-0.005
1087	-0.004
1087	-0.004
1088	-0.004
1088	-0.003
1088	-0.003
1089	-0.003
1089	-0.003
1090	-0.003
1090	-0.003
1090	-0.003
1091	-0.003
1091	-0.002
1092	-0.001
1092	0.001
1092	0.002
1093	0.003
1093	0.006
1094	0.008
1094	0.01
1095	0.012
1095	0.013
1095	0.016
1096	0.018
1096	0.021
1097	0.024
1097	0.025
1097	0.028
1098	0.028
1098	0.03
1099	0.033
1099	0.035
1100	0.038
1100	0.041
1100	0.043
1101	0.046
1101	0.049
1102	0.054
1102	0.058
1102	0.064
1103	0.069
1103	0.075
1104	0.081
1104	0.089
1104	0.098
1105	0.107
1105	0.114
1106	0.12
1106	0.131
1107	0.14
1107	0.155
1107	0.173
1108	0.23
1108	0.309
1109	0.435
1109	0.687
1109	0.974
1110	-0
1110	-0
1111	-0
1111	-0
