Data from 15c-2a_Absorbance__183__00183.txt Node

Date: Wed Jan 17 09:46:31 CET 2024
User: Marek
Spectrometer: MAYP115816
Trigger mode: 0
Integration Time (sec): 2.000000E-1
Scans to average: 10
Electric dark correction enabled: true
Nonlinearity correction enabled: true
Boxcar width: 5
XAxis mode: Wavelengths
Number of Pixels in Spectrum: 2068
>>>>>Begin Spectral Data<<<<<
199	-1.623
199	-1.478
200	-1.315
200	-1.19
201	-1.112
201	-1.063
202	-0.989
202	-0.933
203	-0.884
203	-0.84
204	-0.815
204	-0.792
205	-0.769
205	-0.759
205	-0.756
206	-0.756
206	-0.751
207	-0.75
207	-0.746
208	-0.743
208	-0.742
209	-0.737
209	-0.735
210	-0.734
210	-0.735
211	-0.734
211	-0.732
212	-0.732
212	-0.731
213	-0.73
213	-0.729
213	-0.728
214	-0.727
214	-0.726
215	-0.724
215	-0.722
216	-0.721
216	-0.718
217	-0.714
217	-0.712
218	-0.71
218	-0.707
219	-0.704
219	-0.702
220	-0.699
220	-0.695
221	-0.69
221	-0.687
221	-0.682
222	-0.68
222	-0.675
223	-0.669
223	-0.666
224	-0.66
224	-0.653
225	-0.644
225	-0.636
226	-0.627
226	-0.616
227	-0.603
227	-0.589
228	-0.573
228	-0.556
229	-0.536
229	-0.514
229	-0.488
230	-0.461
230	-0.432
231	-0.399
231	-0.365
232	-0.331
232	-0.294
233	-0.255
233	-0.214
234	-0.175
234	-0.136
235	-0.098
235	-0.061
236	-0.026
236	0.007
236	0.038
237	0.067
237	0.094
238	0.118
238	0.14
239	0.16
239	0.179
240	0.196
240	0.211
241	0.225
241	0.237
242	0.249
242	0.26
243	0.269
243	0.277
243	0.285
244	0.293
244	0.299
245	0.305
245	0.311
246	0.316
246	0.321
247	0.325
247	0.33
248	0.334
248	0.337
249	0.341
249	0.344
250	0.347
250	0.349
250	0.352
251	0.354
251	0.356
252	0.358
252	0.36
253	0.362
253	0.364
254	0.365
254	0.367
255	0.368
255	0.369
256	0.37
256	0.371
257	0.372
257	0.373
258	0.373
258	0.373
258	0.374
259	0.374
259	0.374
260	0.374
260	0.374
261	0.373
261	0.373
262	0.373
262	0.372
263	0.372
263	0.371
264	0.37
264	0.37
265	0.369
265	0.368
265	0.367
266	0.366
266	0.364
267	0.363
267	0.362
268	0.36
268	0.359
269	0.357
269	0.355
270	0.353
270	0.352
271	0.35
271	0.348
272	0.346
272	0.344
272	0.342
273	0.34
273	0.338
274	0.336
274	0.334
275	0.332
275	0.33
276	0.328
276	0.326
277	0.324
277	0.321
278	0.319
278	0.317
278	0.315
279	0.312
279	0.31
280	0.308
280	0.306
281	0.304
281	0.302
282	0.3
282	0.298
283	0.296
283	0.295
284	0.293
284	0.291
285	0.289
285	0.288
285	0.286
286	0.284
286	0.282
287	0.281
287	0.279
288	0.278
288	0.276
289	0.274
289	0.273
290	0.271
290	0.27
291	0.269
291	0.267
292	0.266
292	0.265
292	0.264
293	0.263
293	0.262
294	0.261
294	0.26
295	0.259
295	0.258
296	0.257
296	0.256
297	0.255
297	0.254
298	0.253
298	0.253
298	0.252
299	0.251
299	0.25
300	0.25
300	0.249
301	0.248
301	0.248
302	0.247
302	0.246
303	0.246
303	0.245
304	0.244
304	0.244
305	0.243
305	0.242
305	0.242
306	0.241
306	0.241
307	0.24
307	0.239
308	0.239
308	0.238
309	0.238
309	0.237
310	0.237
310	0.236
311	0.235
311	0.235
311	0.234
312	0.233
312	0.233
313	0.232
313	0.231
314	0.231
314	0.23
315	0.229
315	0.228
316	0.228
316	0.227
317	0.227
317	0.226
318	0.225
318	0.224
318	0.224
319	0.223
319	0.222
320	0.222
320	0.221
321	0.221
321	0.22
322	0.219
322	0.218
323	0.218
323	0.217
324	0.216
324	0.216
324	0.215
325	0.214
325	0.214
326	0.213
326	0.213
327	0.212
327	0.211
328	0.21
328	0.21
329	0.209
329	0.209
330	0.208
330	0.208
330	0.207
331	0.206
331	0.205
332	0.205
332	0.204
333	0.204
333	0.203
334	0.203
334	0.202
335	0.201
335	0.201
336	0.2
336	0.2
336	0.199
337	0.199
337	0.198
338	0.198
338	0.197
339	0.197
339	0.196
340	0.196
340	0.195
341	0.195
341	0.194
342	0.194
342	0.193
342	0.193
343	0.192
343	0.192
344	0.191
344	0.191
345	0.191
345	0.19
346	0.19
346	0.189
347	0.189
347	0.188
348	0.188
348	0.188
348	0.187
349	0.187
349	0.186
350	0.186
350	0.186
351	0.185
351	0.185
352	0.185
352	0.184
353	0.184
353	0.184
354	0.183
354	0.183
354	0.182
355	0.182
355	0.182
356	0.181
356	0.181
357	0.181
357	0.18
358	0.18
358	0.18
359	0.18
359	0.18
360	0.18
360	0.18
360	0.18
361	0.18
361	0.18
362	0.18
362	0.18
363	0.18
363	0.18
364	0.18
364	0.179
365	0.179
365	0.179
366	0.179
366	0.178
366	0.178
367	0.178
367	0.178
368	0.178
368	0.178
369	0.177
369	0.177
370	0.177
370	0.177
371	0.177
371	0.176
372	0.176
372	0.176
372	0.175
373	0.175
373	0.175
374	0.175
374	0.175
375	0.174
375	0.174
376	0.174
376	0.174
377	0.174
377	0.174
378	0.174
378	0.174
378	0.174
379	0.174
379	0.174
380	0.173
380	0.174
381	0.173
381	0.173
382	0.173
382	0.173
383	0.173
383	0.172
383	0.172
384	0.171
384	0.171
385	0.171
385	0.171
386	0.17
386	0.17
387	0.17
387	0.17
388	0.17
388	0.17
389	0.17
389	0.17
389	0.17
390	0.17
390	0.17
391	0.17
391	0.17
392	0.17
392	0.17
393	0.17
393	0.17
394	0.169
394	0.169
394	0.169
395	0.169
395	0.169
396	0.168
396	0.168
397	0.168
397	0.168
398	0.168
398	0.168
399	0.168
399	0.167
400	0.167
400	0.167
400	0.167
401	0.166
401	0.166
402	0.165
402	0.165
403	0.165
403	0.165
404	0.165
404	0.164
405	0.164
405	0.164
405	0.164
406	0.164
406	0.163
407	0.163
407	0.163
408	0.162
408	0.162
409	0.162
409	0.162
410	0.161
410	0.162
411	0.161
411	0.161
411	0.161
412	0.161
412	0.161
413	0.161
413	0.161
414	0.161
414	0.161
415	0.16
415	0.16
416	0.16
416	0.159
416	0.159
417	0.159
417	0.159
418	0.159
418	0.159
419	0.159
419	0.159
420	0.16
420	0.16
421	0.16
421	0.16
421	0.16
422	0.161
422	0.161
423	0.161
423	0.161
424	0.16
424	0.16
425	0.16
425	0.159
426	0.159
426	0.159
427	0.159
427	0.159
427	0.159
428	0.159
428	0.159
429	0.159
429	0.159
430	0.159
430	0.159
431	0.159
431	0.158
432	0.158
432	0.158
432	0.157
433	0.157
433	0.156
434	0.156
434	0.156
435	0.156
435	0.156
436	0.156
436	0.156
437	0.156
437	0.157
437	0.157
438	0.157
438	0.156
439	0.156
439	0.156
440	0.155
440	0.155
441	0.155
441	0.155
442	0.155
442	0.155
442	0.155
443	0.155
443	0.155
444	0.155
444	0.156
445	0.156
445	0.156
446	0.156
446	0.156
447	0.155
447	0.155
447	0.155
448	0.155
448	0.155
449	0.155
449	0.155
450	0.155
450	0.155
451	0.155
451	0.155
452	0.155
452	0.155
452	0.155
453	0.155
453	0.155
454	0.155
454	0.155
455	0.155
455	0.155
456	0.155
456	0.154
457	0.154
457	0.154
458	0.154
458	0.154
458	0.154
459	0.155
459	0.155
460	0.155
460	0.154
461	0.154
461	0.154
462	0.154
462	0.155
463	0.155
463	0.155
463	0.156
464	0.156
464	0.156
465	0.156
465	0.157
466	0.157
466	0.158
467	0.158
467	0.158
467	0.158
468	0.158
468	0.157
469	0.157
469	0.156
470	0.156
470	0.156
471	0.156
471	0.155
472	0.155
472	0.155
472	0.156
473	0.156
473	0.157
474	0.158
474	0.159
475	0.16
475	0.16
476	0.161
476	0.161
477	0.161
477	0.161
477	0.162
478	0.162
478	0.161
479	0.162
479	0.162
480	0.162
480	0.163
481	0.163
481	0.164
482	0.165
482	0.166
482	0.167
483	0.169
483	0.17
484	0.171
484	0.172
485	0.173
485	0.174
486	0.175
486	0.176
487	0.176
487	0.177
487	0.178
488	0.178
488	0.178
489	0.179
489	0.18
490	0.18
490	0.18
491	0.181
491	0.182
492	0.183
492	0.183
492	0.184
493	0.185
493	0.186
494	0.187
494	0.189
495	0.191
495	0.192
496	0.194
496	0.195
496	0.197
497	0.198
497	0.2
498	0.201
498	0.202
499	0.203
499	0.205
500	0.205
500	0.206
501	0.207
501	0.209
501	0.21
502	0.211
502	0.213
503	0.214
503	0.216
504	0.217
504	0.218
505	0.219
505	0.22
506	0.222
506	0.223
506	0.224
507	0.225
507	0.225
508	0.226
508	0.228
509	0.229
509	0.23
510	0.231
510	0.232
511	0.233
511	0.234
511	0.235
512	0.236
512	0.236
513	0.237
513	0.237
514	0.237
514	0.238
515	0.238
515	0.239
515	0.239
516	0.239
516	0.24
517	0.24
517	0.241
518	0.241
518	0.242
519	0.242
519	0.242
520	0.242
520	0.241
520	0.241
521	0.24
521	0.239
522	0.239
522	0.238
523	0.237
523	0.236
524	0.236
524	0.235
524	0.235
525	0.236
525	0.236
526	0.236
526	0.237
527	0.238
527	0.238
528	0.239
528	0.239
529	0.24
529	0.24
529	0.24
530	0.24
530	0.24
531	0.239
531	0.239
532	0.238
532	0.237
533	0.236
533	0.235
533	0.233
534	0.232
534	0.231
535	0.23
535	0.228
536	0.227
536	0.226
537	0.225
537	0.224
538	0.223
538	0.221
538	0.22
539	0.219
539	0.217
540	0.216
540	0.214
541	0.213
541	0.211
542	0.209
542	0.207
542	0.205
543	0.204
543	0.202
544	0.2
544	0.199
545	0.198
545	0.196
546	0.195
546	0.193
547	0.192
547	0.19
547	0.188
548	0.186
548	0.184
549	0.182
549	0.179
550	0.177
550	0.174
551	0.172
551	0.17
551	0.168
552	0.166
552	0.164
553	0.163
553	0.161
554	0.16
554	0.158
555	0.156
555	0.154
556	0.152
556	0.15
556	0.148
557	0.146
557	0.144
558	0.142
558	0.14
559	0.138
559	0.136
560	0.135
560	0.134
560	0.133
561	0.132
561	0.131
562	0.13
562	0.128
563	0.126
563	0.125
564	0.123
564	0.121
564	0.119
565	0.117
565	0.115
566	0.112
566	0.11
567	0.109
567	0.107
568	0.106
568	0.105
568	0.104
569	0.104
569	0.103
570	0.103
570	0.102
571	0.101
571	0.101
572	0.1
572	0.099
573	0.098
573	0.097
573	0.096
574	0.095
574	0.094
575	0.094
575	0.093
576	0.092
576	0.091
577	0.091
577	0.09
577	0.09
578	0.089
578	0.088
579	0.087
579	0.087
580	0.086
580	0.084
581	0.082
581	0.081
581	0.08
582	0.079
582	0.078
583	0.077
583	0.076
584	0.074
584	0.072
585	0.071
585	0.07
585	0.069
586	0.069
586	0.069
587	0.068
587	0.067
588	0.066
588	0.064
589	0.064
589	0.063
590	0.063
590	0.063
590	0.062
591	0.062
591	0.061
592	0.06
592	0.059
593	0.058
593	0.058
594	0.057
594	0.056
594	0.055
595	0.054
595	0.054
596	0.053
596	0.053
597	0.054
597	0.054
598	0.055
598	0.056
598	0.057
599	0.057
599	0.057
600	0.057
600	0.057
601	0.056
601	0.055
602	0.054
602	0.054
602	0.054
603	0.053
603	0.054
604	0.054
604	0.054
605	0.056
605	0.057
606	0.057
606	0.058
606	0.058
607	0.057
607	0.057
608	0.057
608	0.056
609	0.055
609	0.055
610	0.054
610	0.054
610	0.054
611	0.055
611	0.056
612	0.057
612	0.058
613	0.059
613	0.06
614	0.06
614	0.059
614	0.059
615	0.059
615	0.058
616	0.058
616	0.057
617	0.056
617	0.055
618	0.054
618	0.054
618	0.054
619	0.054
619	0.055
620	0.056
620	0.057
621	0.058
621	0.059
622	0.059
622	0.06
622	0.06
623	0.06
623	0.06
624	0.06
624	0.06
625	0.06
625	0.06
626	0.06
626	0.06
626	0.06
627	0.061
627	0.061
628	0.061
628	0.062
629	0.062
629	0.063
630	0.063
630	0.063
630	0.064
631	0.065
631	0.066
632	0.066
632	0.067
633	0.069
633	0.07
634	0.072
634	0.074
634	0.075
635	0.076
635	0.077
636	0.078
636	0.079
637	0.079
637	0.079
638	0.08
638	0.081
638	0.081
639	0.082
639	0.083
640	0.083
640	0.085
641	0.086
641	0.088
642	0.089
642	0.091
642	0.093
643	0.094
643	0.096
644	0.098
644	0.1
645	0.101
645	0.103
646	0.105
646	0.107
646	0.11
647	0.113
647	0.115
648	0.118
648	0.12
649	0.121
649	0.123
650	0.126
650	0.128
650	0.13
651	0.132
651	0.135
652	0.137
652	0.139
653	0.141
653	0.145
653	0.146
654	0.117
654	0.095
655	0.1
655	0.101
656	0.103
656	0.104
657	0.105
657	0.107
657	0.108
658	0.107
658	0.105
659	0.133
659	0.172
660	0.174
660	0.176
661	0.178
661	0.181
661	0.184
662	0.187
662	0.19
663	0.194
663	0.197
664	0.2
664	0.202
665	0.205
665	0.207
665	0.209
666	0.211
666	0.212
667	0.214
667	0.216
668	0.218
668	0.22
669	0.223
669	0.226
669	0.229
670	0.233
670	0.236
671	0.239
671	0.241
672	0.243
672	0.245
672	0.247
673	0.248
673	0.25
674	0.251
674	0.252
675	0.253
675	0.254
676	0.255
676	0.257
676	0.259
677	0.26
677	0.262
678	0.263
678	0.264
679	0.265
679	0.266
680	0.268
680	0.269
680	0.27
681	0.271
681	0.272
682	0.273
682	0.274
683	0.275
683	0.277
684	0.278
684	0.279
684	0.28
685	0.28
685	0.281
686	0.282
686	0.282
687	0.282
687	0.283
687	0.283
688	0.282
688	0.282
689	0.281
689	0.281
690	0.281
690	0.28
691	0.279
691	0.278
691	0.277
692	0.276
692	0.274
693	0.274
693	0.273
694	0.271
694	0.27
695	0.269
695	0.269
695	0.269
696	0.268
696	0.266
697	0.265
697	0.264
698	0.263
698	0.261
698	0.26
699	0.259
699	0.257
700	0.255
700	0.253
701	0.252
701	0.251
702	0.25
702	0.248
702	0.247
703	0.245
703	0.244
704	0.243
704	0.241
705	0.24
705	0.239
705	0.237
706	0.236
706	0.234
707	0.233
707	0.23
708	0.228
708	0.226
709	0.224
709	0.222
709	0.22
710	0.217
710	0.214
711	0.212
711	0.21
712	0.208
712	0.207
713	0.205
713	0.203
713	0.201
714	0.199
714	0.197
715	0.195
715	0.193
716	0.191
716	0.189
716	0.187
717	0.185
717	0.183
718	0.181
718	0.179
719	0.177
719	0.176
720	0.174
720	0.171
720	0.169
721	0.166
721	0.164
722	0.161
722	0.159
723	0.156
723	0.155
723	0.152
724	0.15
724	0.148
725	0.146
725	0.144
726	0.142
726	0.14
727	0.138
727	0.136
727	0.135
728	0.133
728	0.131
729	0.13
729	0.129
730	0.127
730	0.125
730	0.124
731	0.122
731	0.12
732	0.119
732	0.117
733	0.115
733	0.114
734	0.112
734	0.11
734	0.108
735	0.107
735	0.106
736	0.104
736	0.103
737	0.102
737	0.101
737	0.099
738	0.098
738	0.096
739	0.095
739	0.093
740	0.091
740	0.09
741	0.089
741	0.087
741	0.084
742	0.081
742	0.079
743	0.076
743	0.074
744	0.071
744	0.069
744	0.067
745	0.065
745	0.063
746	0.062
746	0.06
747	0.059
747	0.059
748	0.058
748	0.058
748	0.057
749	0.056
749	0.055
750	0.054
750	0.054
751	0.053
751	0.053
751	0.053
752	0.053
752	0.052
753	0.051
753	0.05
754	0.05
754	0.049
754	0.048
755	0.047
755	0.046
756	0.045
756	0.043
757	0.042
757	0.041
758	0.04
758	0.038
758	0.037
759	0.036
759	0.034
760	0.032
760	0.03
761	0.029
761	0.027
761	0.026
762	0.025
762	0.025
763	0.025
763	0.024
764	0.023
764	0.022
764	0.021
765	0.019
765	0.018
766	0.017
766	0.017
767	0.016
767	0.014
768	0.012
768	0.009
768	0.007
769	0.006
769	0.004
770	0.003
770	0.001
771	-0.001
771	-0.004
771	-0.007
772	-0.009
772	-0.011
773	-0.013
773	-0.015
774	-0.018
774	-0.02
775	-0.023
775	-0.025
775	-0.028
776	-0.03
776	-0.033
777	-0.036
777	-0.038
778	-0.041
778	-0.044
778	-0.047
779	-0.049
779	-0.052
780	-0.055
780	-0.059
781	-0.063
781	-0.068
781	-0.074
782	-0.08
782	-0.086
783	-0.092
783	-0.097
784	-0.104
784	-0.111
784	-0.117
785	-0.124
785	-0.131
786	-0.136
786	-0.137
787	-0.137
787	-0.137
788	-0.141
788	-0.145
788	-0.148
789	-0.151
789	-0.152
790	-0.15
790	-0.15
791	-0.15
791	-0.152
791	-0.155
792	-0.15
792	-0.139
793	-0.133
793	-0.129
794	-0.127
794	-0.129
794	-0.134
795	-0.136
795	-0.136
796	-0.137
796	-0.14
797	-0.149
797	-0.16
797	-0.166
798	-0.172
798	-0.174
799	-0.175
799	-0.174
800	-0.173
800	-0.175
801	-0.178
801	-0.178
801	-0.179
802	-0.18
802	-0.181
803	-0.182
803	-0.183
804	-0.181
804	-0.176
804	-0.17
805	-0.166
805	-0.164
806	-0.162
806	-0.161
807	-0.16
807	-0.159
807	-0.159
808	-0.159
808	-0.16
809	-0.165
809	-0.171
810	-0.175
810	-0.178
810	-0.181
811	-0.185
811	-0.185
812	-0.181
812	-0.178
813	-0.178
813	-0.179
813	-0.179
814	-0.18
814	-0.179
815	-0.176
815	-0.172
816	-0.168
816	-0.165
817	-0.164
817	-0.162
817	-0.155
818	-0.147
818	-0.138
819	-0.128
819	-0.119
820	-0.112
820	-0.104
820	-0.096
821	-0.088
821	-0.082
822	-0.076
822	-0.071
823	-0.067
823	-0.063
823	-0.06
824	-0.057
824	-0.053
825	-0.049
825	-0.046
826	-0.043
826	-0.041
826	-0.039
827	-0.036
827	-0.034
828	-0.033
828	-0.031
829	-0.03
829	-0.029
829	-0.029
830	-0.028
830	-0.028
831	-0.026
831	-0.025
832	-0.024
832	-0.022
832	-0.021
833	-0.02
833	-0.019
834	-0.017
834	-0.016
835	-0.015
835	-0.014
835	-0.013
836	-0.012
836	-0.011
837	-0.011
837	-0.01
838	-0.01
838	-0.01
839	-0.01
839	-0.01
839	-0.011
840	-0.011
840	-0.011
841	-0.012
841	-0.012
842	-0.012
842	-0.012
842	-0.012
843	-0.012
843	-0.012
844	-0.012
844	-0.011
845	-0.01
845	-0.01
845	-0.009
846	-0.008
846	-0.008
847	-0.008
847	-0.007
848	-0.008
848	-0.008
848	-0.008
849	-0.009
849	-0.009
850	-0.01
850	-0.011
851	-0.011
851	-0.012
851	-0.012
852	-0.012
852	-0.012
853	-0.011
853	-0.01
854	-0.01
854	-0.009
854	-0.008
855	-0.008
855	-0.007
856	-0.007
856	-0.006
857	-0.006
857	-0.006
857	-0.006
858	-0.006
858	-0.006
859	-0.006
859	-0.006
860	-0.006
860	-0.007
860	-0.007
861	-0.008
861	-0.008
862	-0.008
862	-0.009
863	-0.009
863	-0.009
863	-0.009
864	-0.008
864	-0.008
865	-0.007
865	-0.006
866	-0.005
866	-0.005
866	-0.004
867	-0.003
867	-0.002
868	-0.001
868	-0
869	0
869	0
869	0
870	0
870	0
871	-0
871	-0
872	-0.001
872	-0.001
872	-0.002
873	-0.002
873	-0.002
874	-0.001
874	-0.001
875	-0
875	0.001
875	0.001
876	0.001
876	0.002
877	0.002
877	0.002
878	0.002
878	0.002
878	0.003
879	0.002
879	0.002
880	0.002
880	0.002
881	0.001
881	0.001
881	0.001
882	0
882	0
883	-0
883	-0.001
884	-0.001
884	-0.001
884	-0.001
885	-0.001
885	-0.001
886	-0
886	-0
887	0
887	0
887	0
888	0
888	0.001
889	0.001
889	0.001
890	0
890	-0
890	-0.001
891	-0.001
891	-0.002
892	-0.002
892	-0.003
893	-0.003
893	-0.003
893	-0.004
894	-0.004
894	-0.004
895	-0.005
895	-0.005
895	-0.005
896	-0.005
896	-0.006
897	-0.006
897	-0.006
898	-0.005
898	-0.005
898	-0.005
899	-0.005
899	-0.004
900	-0.004
900	-0.003
901	-0.002
901	-0.001
901	-0.001
902	-0
902	-0
903	0
903	0.001
904	0.001
904	0
904	0
905	0
905	0
906	-0
906	-0
907	-0
907	-0
907	-0
908	-0
908	-0
909	0
909	0
910	0.001
910	0.001
910	0.001
911	0.002
911	0.003
912	0.004
912	0.004
913	0.005
913	0.005
913	0.005
914	0.005
914	0.005
915	0.005
915	0.004
916	0.003
916	0.003
916	0.002
917	0.001
917	-0.001
918	-0.002
918	-0.003
918	-0.004
919	-0.005
919	-0.005
920	-0.006
920	-0.006
921	-0.006
921	-0.005
921	-0.005
922	-0.004
922	-0.003
923	-0.001
923	0
924	0.001
924	0.002
924	0.003
925	0.003
925	0.002
926	0.002
926	0.001
927	-0
927	-0.001
927	-0.002
928	-0.004
928	-0.005
929	-0.006
929	-0.006
930	-0.007
930	-0.007
930	-0.007
931	-0.006
931	-0.006
932	-0.006
932	-0.006
933	-0.005
933	-0.005
933	-0.004
934	-0.003
934	-0.003
935	-0.003
935	-0.002
935	-0.002
936	-0.001
936	-0.001
937	-0
937	-0
938	0
938	0
938	0.001
939	0.001
939	0.002
940	0.002
940	0.003
941	0.004
941	0.005
941	0.006
942	0.007
942	0.007
943	0.008
943	0.008
944	0.008
944	0.008
944	0.007
945	0.007
945	0.006
946	0.006
946	0.005
946	0.004
947	0.003
947	0.003
948	0.002
948	0.002
949	0.002
949	0.002
949	0.003
950	0.004
950	0.005
951	0.006
951	0.007
952	0.009
952	0.01
952	0.012
953	0.013
953	0.014
954	0.015
954	0.015
955	0.015
955	0.015
955	0.015
956	0.014
956	0.014
957	0.013
957	0.011
957	0.01
958	0.009
958	0.008
959	0.006
959	0.005
960	0.004
960	0.003
960	0.002
961	0.001
961	-0
962	-0.001
962	-0.001
963	-0.001
963	-0.001
963	-0
964	0
964	0.001
965	0.002
965	0.003
966	0.003
966	0.004
966	0.005
967	0.006
967	0.006
968	0.007
968	0.007
968	0.007
969	0.007
969	0.007
970	0.007
970	0.007
971	0.006
971	0.006
971	0.006
972	0.005
972	0.004
973	0.004
973	0.003
974	0.003
974	0.002
974	0.002
975	0.001
975	0.001
976	0
976	-0
976	-0.001
977	-0.002
977	-0.003
978	-0.004
978	-0.005
979	-0.005
979	-0.006
979	-0.007
980	-0.007
980	-0.007
981	-0.008
981	-0.008
982	-0.007
982	-0.007
982	-0.007
983	-0.006
983	-0.006
984	-0.005
984	-0.005
984	-0.004
985	-0.003
985	-0.003
986	-0.003
986	-0.003
987	-0.002
987	-0.002
987	-0.001
988	-0
988	0
989	0.001
989	0.001
990	0.002
990	0.003
990	0.004
991	0.005
991	0.006
992	0.006
992	0.007
992	0.008
993	0.008
993	0.009
994	0.01
994	0.011
995	0.012
995	0.013
995	0.013
996	0.014
996	0.014
997	0.015
997	0.015
997	0.015
998	0.015
998	0.015
999	0.015
999	0.014
1000	0.014
1000	0.014
1000	0.013
1001	0.013
1001	0.012
1002	0.012
1002	0.011
1003	0.01
1003	0.01
1003	0.009
1004	0.009
1004	0.008
1005	0.008
1005	0.007
1005	0.007
1006	0.007
1006	0.007
1007	0.006
1007	0.006
1008	0.006
1008	0.006
1008	0.006
1009	0.006
1009	0.006
1010	0.006
1010	0.007
1010	0.007
1011	0.007
1011	0.007
1012	0.007
1012	0.007
1013	0.007
1013	0.007
1013	0.006
1014	0.006
1014	0.005
1015	0.004
1015	0.004
1016	0.003
1016	0.003
1016	0.002
1017	0.002
1017	0.002
1018	0.002
1018	0.001
1018	0.001
1019	0.001
1019	0.001
1020	0.001
1020	0.001
1021	0
1021	-0
1021	-0
1022	-0.001
1022	-0.001
1023	-0.001
1023	-0.001
1023	-0.002
1024	-0.002
1024	-0.002
1025	-0.002
1025	-0.002
1026	-0.002
1026	-0.001
1026	-0.001
1027	-0.001
1027	-0
1028	0
1028	0.001
1028	0.001
1029	0.002
1029	0.002
1030	0.003
1030	0.003
1031	0.004
1031	0.004
1031	0.004
1032	0.004
1032	0.005
1033	0.004
1033	0.004
1033	0.004
1034	0.003
1034	0.003
1035	0.002
1035	0.002
1036	0.001
1036	0.001
1036	0.001
1037	0
1037	0
1038	0
1038	0
1039	0
1039	0.001
1039	0.001
1040	0.001
1040	0
1041	0
1041	-0
1041	-0.001
1042	-0.001
1042	-0.002
1043	-0.002
1043	-0.003
1044	-0.003
1044	-0.004
1044	-0.004
1045	-0.004
1045	-0.004
1046	-0.004
1046	-0.004
1046	-0.003
1047	-0.002
1047	-0.002
1048	-0.001
1048	-0
1049	0
1049	0.001
1049	0.001
1050	0.001
1050	0.002
1051	0.002
1051	0.002
1051	0.002
1052	0.001
1052	0.001
1053	0.001
1053	0
1053	-0
1054	-0
1054	-0
1055	-0.001
1055	-0.001
1056	-0.001
1056	-0.001
1056	-0.001
1057	-0.001
1057	-0.001
1058	-0
1058	-0
1058	-0
1059	-0.001
1059	-0.001
1060	-0.001
1060	-0
1061	-0
1061	0
1061	0
1062	0
1062	-0
1063	0
1063	0
1063	0.001
1064	0.001
1064	0.001
1065	0.001
1065	0.002
1066	0.002
1066	0.003
1066	0.003
1067	0.004
1067	0.004
1068	0.004
1068	0.005
1068	0.005
1069	0.005
1069	0.004
1070	0.004
1070	0.003
1071	0.003
1071	0.003
1071	0.003
1072	0.003
1072	0.003
1073	0.003
1073	0.004
1073	0.004
1074	0.005
1074	0.006
1075	0.006
1075	0.007
1076	0.008
1076	0.009
1076	0.009
1077	0.01
1077	0.01
1078	0.011
1078	0.012
1078	0.013
1079	0.014
1079	0.015
1080	0.015
1080	0.016
1080	0.017
1081	0.018
1081	0.019
1082	0.02
1082	0.022
1083	0.023
1083	0.024
1083	0.026
1084	0.027
1084	0.029
1085	0.03
1085	0.032
1085	0.034
1086	0.035
1086	0.036
1087	0.037
1087	0.038
1088	0.038
1088	0.039
1088	0.039
1089	0.04
1089	0.041
1090	0.041
1090	0.042
1090	0.044
1091	0.045
1091	0.047
1092	0.049
1092	0.051
1092	0.053
1093	0.056
1093	0.059
1094	0.062
1094	0.064
1095	0.067
1095	0.071
1095	0.074
1096	0.077
1096	0.08
1097	0.084
1097	0.087
1097	0.091
1098	0.094
1098	0.098
1099	0.102
1099	0.108
1100	0.112
1100	0.118
1100	0.125
1101	0.132
1101	0.14
1102	0.149
1102	0.157
1102	0.168
1103	0.178
1103	0.191
1104	0.201
1104	0.215
1104	0.231
1105	0.246
1105	0.262
1106	0.279
1106	0.3
1107	0.326
1107	0.356
1107	0.396
1108	0.51
1108	0.72
1109	1.354
1109	-0
1109	-0
1110	-0
1110	-0
1111	-0
1111	-0
