Data from 15c-2a_Absorbance__147__00147.txt Node

Date: Wed Jan 17 09:45:19 CET 2024
User: Marek
Spectrometer: MAYP115816
Trigger mode: 0
Integration Time (sec): 2.000000E-1
Scans to average: 10
Electric dark correction enabled: true
Nonlinearity correction enabled: true
Boxcar width: 5
XAxis mode: Wavelengths
Number of Pixels in Spectrum: 2068
>>>>>Begin Spectral Data<<<<<
199	-1.614
199	-1.469
200	-1.307
200	-1.181
201	-1.103
201	-1.054
202	-0.98
202	-0.925
203	-0.876
203	-0.833
204	-0.808
204	-0.785
205	-0.762
205	-0.752
205	-0.751
206	-0.749
206	-0.745
207	-0.743
207	-0.738
208	-0.736
208	-0.735
209	-0.73
209	-0.727
210	-0.725
210	-0.726
211	-0.725
211	-0.724
212	-0.723
212	-0.722
213	-0.72
213	-0.719
213	-0.718
214	-0.717
214	-0.716
215	-0.715
215	-0.713
216	-0.712
216	-0.709
217	-0.705
217	-0.703
218	-0.702
218	-0.699
219	-0.697
219	-0.696
220	-0.692
220	-0.688
221	-0.682
221	-0.678
221	-0.675
222	-0.67
222	-0.666
223	-0.66
223	-0.656
224	-0.649
224	-0.642
225	-0.634
225	-0.627
226	-0.619
226	-0.607
227	-0.595
227	-0.582
228	-0.568
228	-0.55
229	-0.531
229	-0.509
229	-0.483
230	-0.456
230	-0.427
231	-0.394
231	-0.361
232	-0.325
232	-0.288
233	-0.249
233	-0.209
234	-0.17
234	-0.132
235	-0.095
235	-0.06
236	-0.026
236	0.006
236	0.037
237	0.065
237	0.091
238	0.115
238	0.137
239	0.156
239	0.174
240	0.191
240	0.206
241	0.219
241	0.231
242	0.242
242	0.252
243	0.261
243	0.269
243	0.277
244	0.284
244	0.29
245	0.296
245	0.302
246	0.307
246	0.312
247	0.316
247	0.32
248	0.324
248	0.327
249	0.331
249	0.333
250	0.336
250	0.339
250	0.341
251	0.343
251	0.346
252	0.348
252	0.35
253	0.352
253	0.353
254	0.355
254	0.356
255	0.357
255	0.359
256	0.36
256	0.361
257	0.361
257	0.362
258	0.362
258	0.363
258	0.363
259	0.363
259	0.363
260	0.363
260	0.363
261	0.363
261	0.362
262	0.362
262	0.361
263	0.361
263	0.36
264	0.36
264	0.359
265	0.358
265	0.357
265	0.356
266	0.355
266	0.354
267	0.353
267	0.351
268	0.35
268	0.348
269	0.347
269	0.345
270	0.343
270	0.341
271	0.339
271	0.337
272	0.335
272	0.334
272	0.332
273	0.329
273	0.327
274	0.325
274	0.324
275	0.322
275	0.319
276	0.317
276	0.315
277	0.313
277	0.311
278	0.309
278	0.307
278	0.305
279	0.303
279	0.3
280	0.298
280	0.296
281	0.294
281	0.292
282	0.29
282	0.288
283	0.286
283	0.285
284	0.283
284	0.281
285	0.279
285	0.278
285	0.276
286	0.274
286	0.273
287	0.271
287	0.269
288	0.268
288	0.266
289	0.265
289	0.263
290	0.262
290	0.26
291	0.259
291	0.258
292	0.257
292	0.256
292	0.254
293	0.253
293	0.252
294	0.251
294	0.25
295	0.249
295	0.248
296	0.247
296	0.246
297	0.246
297	0.245
298	0.244
298	0.244
298	0.243
299	0.242
299	0.241
300	0.241
300	0.24
301	0.239
301	0.239
302	0.238
302	0.238
303	0.237
303	0.236
304	0.235
304	0.235
305	0.234
305	0.234
305	0.233
306	0.232
306	0.232
307	0.231
307	0.23
308	0.23
308	0.229
309	0.229
309	0.228
310	0.228
310	0.227
311	0.227
311	0.226
311	0.225
312	0.225
312	0.224
313	0.223
313	0.223
314	0.222
314	0.221
315	0.221
315	0.22
316	0.22
316	0.219
317	0.218
317	0.218
318	0.217
318	0.217
318	0.216
319	0.215
319	0.215
320	0.214
320	0.214
321	0.213
321	0.212
322	0.212
322	0.211
323	0.21
323	0.209
324	0.209
324	0.208
324	0.207
325	0.207
325	0.206
326	0.205
326	0.205
327	0.204
327	0.204
328	0.203
328	0.203
329	0.202
329	0.201
330	0.201
330	0.2
330	0.2
331	0.199
331	0.199
332	0.198
332	0.197
333	0.197
333	0.196
334	0.195
334	0.195
335	0.194
335	0.194
336	0.193
336	0.193
336	0.192
337	0.192
337	0.191
338	0.191
338	0.19
339	0.19
339	0.189
340	0.189
340	0.188
341	0.188
341	0.187
342	0.187
342	0.187
342	0.186
343	0.186
343	0.185
344	0.185
344	0.184
345	0.184
345	0.183
346	0.183
346	0.183
347	0.182
347	0.182
348	0.181
348	0.181
348	0.181
349	0.18
349	0.18
350	0.179
350	0.179
351	0.179
351	0.178
352	0.178
352	0.178
353	0.177
353	0.177
354	0.176
354	0.176
354	0.176
355	0.175
355	0.175
356	0.175
356	0.174
357	0.174
357	0.174
358	0.174
358	0.174
359	0.174
359	0.174
360	0.174
360	0.174
360	0.174
361	0.174
361	0.174
362	0.174
362	0.174
363	0.174
363	0.174
364	0.174
364	0.173
365	0.173
365	0.173
366	0.172
366	0.172
366	0.172
367	0.171
367	0.171
368	0.171
368	0.171
369	0.17
369	0.17
370	0.17
370	0.17
371	0.17
371	0.169
372	0.169
372	0.169
372	0.169
373	0.168
373	0.168
374	0.168
374	0.168
375	0.168
375	0.168
376	0.168
376	0.167
377	0.167
377	0.167
378	0.167
378	0.167
378	0.168
379	0.167
379	0.167
380	0.167
380	0.168
381	0.167
381	0.167
382	0.167
382	0.167
383	0.167
383	0.166
383	0.166
384	0.165
384	0.165
385	0.165
385	0.165
386	0.165
386	0.165
387	0.164
387	0.164
388	0.164
388	0.164
389	0.164
389	0.164
389	0.164
390	0.164
390	0.164
391	0.164
391	0.164
392	0.164
392	0.164
393	0.164
393	0.164
394	0.163
394	0.163
394	0.163
395	0.163
395	0.162
396	0.162
396	0.162
397	0.162
397	0.162
398	0.162
398	0.162
399	0.162
399	0.162
400	0.161
400	0.161
400	0.161
401	0.16
401	0.16
402	0.16
402	0.159
403	0.159
403	0.159
404	0.159
404	0.159
405	0.159
405	0.158
405	0.158
406	0.158
406	0.158
407	0.158
407	0.157
408	0.157
408	0.157
409	0.157
409	0.156
410	0.156
410	0.156
411	0.156
411	0.156
411	0.156
412	0.156
412	0.156
413	0.155
413	0.155
414	0.155
414	0.155
415	0.154
415	0.154
416	0.154
416	0.153
416	0.153
417	0.153
417	0.153
418	0.153
418	0.153
419	0.153
419	0.153
420	0.153
420	0.154
421	0.154
421	0.155
421	0.155
422	0.155
422	0.155
423	0.155
423	0.155
424	0.155
424	0.155
425	0.155
425	0.154
426	0.154
426	0.153
427	0.153
427	0.153
427	0.153
428	0.153
428	0.153
429	0.153
429	0.153
430	0.153
430	0.153
431	0.153
431	0.153
432	0.153
432	0.152
432	0.152
433	0.151
433	0.151
434	0.151
434	0.15
435	0.15
435	0.15
436	0.15
436	0.15
437	0.151
437	0.151
437	0.151
438	0.151
438	0.151
439	0.151
439	0.151
440	0.15
440	0.15
441	0.15
441	0.15
442	0.15
442	0.15
442	0.15
443	0.15
443	0.15
444	0.15
444	0.15
445	0.15
445	0.15
446	0.15
446	0.15
447	0.15
447	0.15
447	0.149
448	0.149
448	0.149
449	0.149
449	0.149
450	0.15
450	0.15
451	0.15
451	0.15
452	0.15
452	0.149
452	0.149
453	0.149
453	0.149
454	0.149
454	0.149
455	0.149
455	0.149
456	0.148
456	0.148
457	0.148
457	0.148
458	0.148
458	0.148
458	0.148
459	0.149
459	0.149
460	0.149
460	0.149
461	0.149
461	0.149
462	0.149
462	0.149
463	0.149
463	0.15
463	0.15
464	0.15
464	0.15
465	0.15
465	0.151
466	0.151
466	0.151
467	0.151
467	0.152
467	0.152
468	0.152
468	0.151
469	0.151
469	0.15
470	0.15
470	0.15
471	0.15
471	0.15
472	0.15
472	0.15
472	0.15
473	0.151
473	0.152
474	0.152
474	0.153
475	0.153
475	0.154
476	0.154
476	0.155
477	0.155
477	0.155
477	0.155
478	0.155
478	0.155
479	0.156
479	0.156
480	0.156
480	0.157
481	0.157
481	0.158
482	0.159
482	0.16
482	0.161
483	0.162
483	0.163
484	0.164
484	0.165
485	0.166
485	0.167
486	0.168
486	0.169
487	0.169
487	0.17
487	0.17
488	0.171
488	0.171
489	0.172
489	0.173
490	0.173
490	0.174
491	0.174
491	0.175
492	0.175
492	0.176
492	0.176
493	0.177
493	0.178
494	0.179
494	0.181
495	0.182
495	0.184
496	0.186
496	0.187
496	0.189
497	0.19
497	0.192
498	0.193
498	0.194
499	0.195
499	0.196
500	0.197
500	0.198
501	0.199
501	0.2
501	0.201
502	0.203
502	0.204
503	0.206
503	0.207
504	0.208
504	0.209
505	0.21
505	0.211
506	0.213
506	0.214
506	0.214
507	0.215
507	0.216
508	0.217
508	0.218
509	0.219
509	0.221
510	0.222
510	0.223
511	0.224
511	0.224
511	0.226
512	0.226
512	0.226
513	0.227
513	0.227
514	0.228
514	0.228
515	0.229
515	0.229
515	0.229
516	0.23
516	0.23
517	0.231
517	0.231
518	0.232
518	0.232
519	0.232
519	0.232
520	0.232
520	0.232
520	0.231
521	0.231
521	0.23
522	0.229
522	0.228
523	0.227
523	0.226
524	0.226
524	0.225
524	0.225
525	0.225
525	0.225
526	0.226
526	0.227
527	0.227
527	0.228
528	0.229
528	0.229
529	0.23
529	0.23
529	0.23
530	0.23
530	0.23
531	0.23
531	0.23
532	0.228
532	0.228
533	0.227
533	0.226
533	0.225
534	0.224
534	0.222
535	0.221
535	0.22
536	0.218
536	0.217
537	0.216
537	0.215
538	0.214
538	0.212
538	0.211
539	0.21
539	0.209
540	0.207
540	0.206
541	0.204
541	0.203
542	0.201
542	0.199
542	0.197
543	0.196
543	0.194
544	0.192
544	0.191
545	0.19
545	0.188
546	0.187
546	0.185
547	0.184
547	0.182
547	0.18
548	0.178
548	0.176
549	0.174
549	0.172
550	0.169
550	0.167
551	0.165
551	0.162
551	0.16
552	0.159
552	0.157
553	0.156
553	0.154
554	0.153
554	0.151
555	0.15
555	0.148
556	0.146
556	0.144
556	0.142
557	0.14
557	0.138
558	0.136
558	0.134
559	0.132
559	0.131
560	0.129
560	0.128
560	0.127
561	0.126
561	0.125
562	0.124
562	0.123
563	0.121
563	0.12
564	0.118
564	0.116
564	0.114
565	0.112
565	0.11
566	0.108
566	0.106
567	0.105
567	0.103
568	0.102
568	0.101
568	0.101
569	0.1
569	0.1
570	0.099
570	0.098
571	0.097
571	0.097
572	0.096
572	0.095
573	0.094
573	0.093
573	0.092
574	0.092
574	0.091
575	0.09
575	0.09
576	0.089
576	0.089
577	0.088
577	0.088
577	0.087
578	0.087
578	0.086
579	0.085
579	0.085
580	0.084
580	0.082
581	0.08
581	0.079
581	0.078
582	0.076
582	0.075
583	0.075
583	0.074
584	0.072
584	0.07
585	0.069
585	0.068
585	0.068
586	0.067
586	0.067
587	0.066
587	0.065
588	0.064
588	0.063
589	0.062
589	0.062
590	0.061
590	0.061
590	0.061
591	0.06
591	0.059
592	0.058
592	0.058
593	0.057
593	0.056
594	0.055
594	0.055
594	0.054
595	0.053
595	0.052
596	0.052
596	0.052
597	0.053
597	0.053
598	0.054
598	0.055
598	0.055
599	0.056
599	0.056
600	0.056
600	0.056
601	0.055
601	0.054
602	0.053
602	0.053
602	0.053
603	0.052
603	0.052
604	0.053
604	0.053
605	0.054
605	0.055
606	0.056
606	0.056
606	0.056
607	0.056
607	0.055
608	0.055
608	0.054
609	0.053
609	0.053
610	0.052
610	0.052
610	0.052
611	0.052
611	0.053
612	0.054
612	0.055
613	0.056
613	0.057
614	0.057
614	0.057
614	0.057
615	0.056
615	0.056
616	0.055
616	0.055
617	0.054
617	0.053
618	0.053
618	0.052
618	0.053
619	0.053
619	0.054
620	0.055
620	0.056
621	0.057
621	0.057
622	0.058
622	0.058
622	0.059
623	0.059
623	0.059
624	0.059
624	0.058
625	0.058
625	0.058
626	0.059
626	0.059
626	0.059
627	0.06
627	0.06
628	0.061
628	0.061
629	0.061
629	0.062
630	0.062
630	0.062
630	0.063
631	0.063
631	0.064
632	0.065
632	0.066
633	0.067
633	0.069
634	0.07
634	0.071
634	0.073
635	0.074
635	0.075
636	0.075
636	0.076
637	0.077
637	0.077
638	0.077
638	0.078
638	0.079
639	0.08
639	0.08
640	0.081
640	0.082
641	0.084
641	0.085
642	0.086
642	0.088
642	0.09
643	0.091
643	0.093
644	0.095
644	0.096
645	0.098
645	0.1
646	0.102
646	0.104
646	0.106
647	0.109
647	0.111
648	0.113
648	0.115
649	0.117
649	0.12
650	0.122
650	0.124
650	0.126
651	0.128
651	0.131
652	0.133
652	0.135
653	0.137
653	0.141
653	0.141
654	0.113
654	0.092
655	0.097
655	0.099
656	0.1
656	0.101
657	0.103
657	0.104
657	0.105
658	0.104
658	0.102
659	0.13
659	0.167
660	0.169
660	0.171
661	0.173
661	0.176
661	0.178
662	0.182
662	0.185
663	0.188
663	0.191
664	0.194
664	0.196
665	0.199
665	0.201
665	0.202
666	0.204
666	0.205
667	0.206
667	0.208
668	0.21
668	0.212
669	0.215
669	0.218
669	0.221
670	0.225
670	0.228
671	0.23
671	0.232
672	0.235
672	0.236
672	0.238
673	0.239
673	0.241
674	0.242
674	0.243
675	0.244
675	0.245
676	0.246
676	0.248
676	0.25
677	0.251
677	0.253
678	0.254
678	0.255
679	0.256
679	0.258
680	0.259
680	0.26
680	0.261
681	0.262
681	0.263
682	0.264
682	0.265
683	0.266
683	0.268
684	0.269
684	0.27
684	0.271
685	0.271
685	0.272
686	0.273
686	0.273
687	0.273
687	0.274
687	0.274
688	0.273
688	0.272
689	0.272
689	0.272
690	0.271
690	0.27
691	0.269
691	0.268
691	0.267
692	0.266
692	0.265
693	0.264
693	0.263
694	0.262
694	0.26
695	0.259
695	0.259
695	0.259
696	0.258
696	0.256
697	0.255
697	0.254
698	0.253
698	0.252
698	0.251
699	0.25
699	0.248
700	0.246
700	0.245
701	0.244
701	0.243
702	0.242
702	0.24
702	0.239
703	0.238
703	0.236
704	0.234
704	0.233
705	0.232
705	0.231
705	0.229
706	0.228
706	0.226
707	0.225
707	0.222
708	0.22
708	0.218
709	0.217
709	0.215
709	0.212
710	0.209
710	0.207
711	0.205
711	0.203
712	0.201
712	0.2
713	0.198
713	0.196
713	0.195
714	0.192
714	0.19
715	0.189
715	0.186
716	0.184
716	0.181
716	0.18
717	0.178
717	0.176
718	0.174
718	0.172
719	0.17
719	0.169
720	0.167
720	0.165
720	0.163
721	0.161
721	0.158
722	0.156
722	0.153
723	0.151
723	0.149
723	0.147
724	0.145
724	0.143
725	0.141
725	0.139
726	0.137
726	0.135
727	0.134
727	0.132
727	0.13
728	0.128
728	0.126
729	0.125
729	0.124
730	0.122
730	0.12
730	0.119
731	0.117
731	0.115
732	0.114
732	0.113
733	0.111
733	0.109
734	0.108
734	0.106
734	0.105
735	0.104
735	0.103
736	0.102
736	0.1
737	0.099
737	0.098
737	0.097
738	0.095
738	0.093
739	0.092
739	0.09
740	0.088
740	0.087
741	0.085
741	0.084
741	0.081
742	0.079
742	0.076
743	0.074
743	0.072
744	0.07
744	0.068
744	0.066
745	0.064
745	0.062
746	0.06
746	0.059
747	0.058
747	0.058
748	0.057
748	0.056
748	0.055
749	0.054
749	0.053
750	0.052
750	0.051
751	0.051
751	0.051
751	0.051
752	0.05
752	0.049
753	0.049
753	0.048
754	0.048
754	0.047
754	0.046
755	0.045
755	0.045
756	0.043
756	0.041
757	0.04
757	0.039
758	0.037
758	0.036
758	0.035
759	0.034
759	0.032
760	0.03
760	0.028
761	0.027
761	0.025
761	0.024
762	0.023
762	0.023
763	0.023
763	0.022
764	0.021
764	0.02
764	0.019
765	0.018
765	0.017
766	0.016
766	0.016
767	0.015
767	0.014
768	0.011
768	0.009
768	0.007
769	0.006
769	0.004
770	0.003
770	0.001
771	-0.001
771	-0.004
771	-0.007
772	-0.009
772	-0.012
773	-0.014
773	-0.016
774	-0.018
774	-0.02
775	-0.023
775	-0.025
775	-0.028
776	-0.03
776	-0.033
777	-0.036
777	-0.038
778	-0.041
778	-0.044
778	-0.047
779	-0.049
779	-0.052
780	-0.055
780	-0.059
781	-0.063
781	-0.068
781	-0.073
782	-0.079
782	-0.085
783	-0.091
783	-0.097
784	-0.103
784	-0.111
784	-0.117
785	-0.124
785	-0.131
786	-0.136
786	-0.138
787	-0.137
787	-0.138
788	-0.141
788	-0.145
788	-0.148
789	-0.151
789	-0.152
790	-0.15
790	-0.15
791	-0.151
791	-0.152
791	-0.155
792	-0.15
792	-0.139
793	-0.133
793	-0.129
794	-0.127
794	-0.13
794	-0.134
795	-0.136
795	-0.136
796	-0.137
796	-0.14
797	-0.149
797	-0.16
797	-0.166
798	-0.172
798	-0.174
799	-0.175
799	-0.174
800	-0.173
800	-0.175
801	-0.178
801	-0.178
801	-0.179
802	-0.18
802	-0.182
803	-0.182
803	-0.183
804	-0.182
804	-0.176
804	-0.17
805	-0.166
805	-0.164
806	-0.162
806	-0.161
807	-0.16
807	-0.159
807	-0.159
808	-0.159
808	-0.16
809	-0.165
809	-0.171
810	-0.175
810	-0.178
810	-0.181
811	-0.185
811	-0.185
812	-0.181
812	-0.178
813	-0.178
813	-0.179
813	-0.179
814	-0.18
814	-0.179
815	-0.176
815	-0.172
816	-0.168
816	-0.165
817	-0.164
817	-0.161
817	-0.155
818	-0.147
818	-0.137
819	-0.127
819	-0.118
820	-0.111
820	-0.103
820	-0.095
821	-0.088
821	-0.081
822	-0.076
822	-0.071
823	-0.066
823	-0.063
823	-0.06
824	-0.056
824	-0.053
825	-0.049
825	-0.045
826	-0.042
826	-0.039
826	-0.037
827	-0.034
827	-0.032
828	-0.031
828	-0.029
829	-0.028
829	-0.027
829	-0.026
830	-0.026
830	-0.026
831	-0.025
831	-0.023
832	-0.023
832	-0.022
832	-0.021
833	-0.02
833	-0.018
834	-0.017
834	-0.016
835	-0.014
835	-0.013
835	-0.012
836	-0.011
836	-0.011
837	-0.01
837	-0.01
838	-0.009
838	-0.009
839	-0.009
839	-0.009
839	-0.01
840	-0.01
840	-0.011
841	-0.011
841	-0.011
842	-0.011
842	-0.011
842	-0.011
843	-0.011
843	-0.011
844	-0.011
844	-0.01
845	-0.009
845	-0.009
845	-0.008
846	-0.007
846	-0.007
847	-0.006
847	-0.006
848	-0.006
848	-0.007
848	-0.007
849	-0.008
849	-0.008
850	-0.009
850	-0.01
851	-0.011
851	-0.011
851	-0.011
852	-0.011
852	-0.011
853	-0.01
853	-0.01
854	-0.009
854	-0.008
854	-0.007
855	-0.007
855	-0.006
856	-0.006
856	-0.005
857	-0.004
857	-0.004
857	-0.004
858	-0.004
858	-0.004
859	-0.004
859	-0.004
860	-0.004
860	-0.005
860	-0.005
861	-0.006
861	-0.006
862	-0.007
862	-0.007
863	-0.008
863	-0.008
863	-0.008
864	-0.008
864	-0.007
865	-0.007
865	-0.006
866	-0.005
866	-0.004
866	-0.003
867	-0.002
867	-0.001
868	0
868	0.001
869	0.001
869	0.002
869	0.002
870	0.001
870	0.001
871	0.001
871	0
872	0
872	-0
872	-0.001
873	-0.001
873	-0.001
874	-0
874	0
875	0.001
875	0.002
875	0.002
876	0.003
876	0.003
877	0.003
877	0.004
878	0.004
878	0.004
878	0.004
879	0.004
879	0.004
880	0.003
880	0.003
881	0.002
881	0.002
881	0.002
882	0.001
882	0.001
883	0
883	-0
884	-0.001
884	-0.001
884	-0.001
885	-0
885	0
886	0
886	0.001
887	0.001
887	0.002
887	0.002
888	0.002
888	0.003
889	0.003
889	0.003
890	0.002
890	0.002
890	0.001
891	0.001
891	0
892	-0
892	-0.001
893	-0.002
893	-0.002
893	-0.002
894	-0.003
894	-0.003
895	-0.003
895	-0.003
895	-0.003
896	-0.003
896	-0.004
897	-0.004
897	-0.004
898	-0.004
898	-0.004
898	-0.004
899	-0.004
899	-0.004
900	-0.003
900	-0.003
901	-0.002
901	-0.001
901	-0.001
902	-0
902	-0
903	0
903	0
904	0
904	0
904	0
905	-0
905	-0.001
906	-0.001
906	-0.001
907	-0.001
907	-0.002
907	-0.002
908	-0.002
908	-0.002
909	-0.002
909	-0.002
910	-0.002
910	-0.001
910	-0.001
911	-0
911	0
912	0.001
912	0.002
913	0.002
913	0.003
913	0.003
914	0.003
914	0.003
915	0.002
915	0.002
916	0.002
916	0.001
916	0
917	-0
917	-0.001
918	-0.002
918	-0.002
918	-0.003
919	-0.003
919	-0.004
920	-0.004
920	-0.004
921	-0.004
921	-0.003
921	-0.003
922	-0.002
922	-0.001
923	0
923	0.001
924	0.002
924	0.003
924	0.003
925	0.003
925	0.003
926	0.003
926	0.002
927	0.002
927	0.001
927	-0
928	-0.001
928	-0.003
929	-0.004
929	-0.004
930	-0.005
930	-0.005
930	-0.005
931	-0.005
931	-0.005
932	-0.005
932	-0.005
933	-0.005
933	-0.005
933	-0.004
934	-0.004
934	-0.003
935	-0.003
935	-0.002
935	-0.002
936	-0.001
936	-0
937	0
937	0.001
938	0.001
938	0.002
938	0.002
939	0.003
939	0.003
940	0.004
940	0.004
941	0.005
941	0.006
941	0.007
942	0.007
942	0.008
943	0.008
943	0.008
944	0.008
944	0.008
944	0.007
945	0.007
945	0.006
946	0.006
946	0.005
946	0.004
947	0.003
947	0.003
948	0.002
948	0.001
949	0.001
949	0.002
949	0.002
950	0.002
950	0.003
951	0.004
951	0.005
952	0.007
952	0.008
952	0.01
953	0.011
953	0.012
954	0.012
954	0.013
955	0.013
955	0.013
955	0.013
956	0.012
956	0.012
957	0.011
957	0.01
957	0.009
958	0.007
958	0.006
959	0.005
959	0.004
960	0.003
960	0.001
960	0
961	-0.001
961	-0.002
962	-0.003
962	-0.003
963	-0.003
963	-0.003
963	-0.003
964	-0.002
964	-0.001
965	-0
965	0
966	0.001
966	0.002
966	0.004
967	0.004
967	0.005
968	0.006
968	0.006
968	0.007
969	0.007
969	0.007
970	0.006
970	0.006
971	0.006
971	0.005
971	0.005
972	0.004
972	0.004
973	0.003
973	0.003
974	0.002
974	0.002
974	0.001
975	0.001
975	0.001
976	0.001
976	0
976	-0
977	-0.001
977	-0.002
978	-0.002
978	-0.003
979	-0.003
979	-0.004
979	-0.005
980	-0.005
980	-0.005
981	-0.006
981	-0.006
982	-0.005
982	-0.005
982	-0.005
983	-0.005
983	-0.004
984	-0.003
984	-0.003
984	-0.002
985	-0.002
985	-0.001
986	-0.001
986	-0.001
987	0
987	0.001
987	0.001
988	0.002
988	0.003
989	0.003
989	0.004
990	0.004
990	0.005
990	0.006
991	0.007
991	0.007
992	0.008
992	0.009
992	0.009
993	0.01
993	0.01
994	0.011
994	0.011
995	0.012
995	0.013
995	0.013
996	0.014
996	0.014
997	0.014
997	0.015
997	0.015
998	0.015
998	0.015
999	0.015
999	0.015
1000	0.015
1000	0.014
1000	0.014
1001	0.013
1001	0.012
1002	0.012
1002	0.011
1003	0.01
1003	0.01
1003	0.009
1004	0.008
1004	0.008
1005	0.007
1005	0.007
1005	0.007
1006	0.006
1006	0.006
1007	0.006
1007	0.006
1008	0.005
1008	0.005
1008	0.005
1009	0.006
1009	0.005
1010	0.006
1010	0.006
1010	0.006
1011	0.006
1011	0.006
1012	0.006
1012	0.006
1013	0.006
1013	0.006
1013	0.005
1014	0.005
1014	0.004
1015	0.004
1015	0.003
1016	0.003
1016	0.003
1016	0.003
1017	0.003
1017	0.002
1018	0.002
1018	0.002
1018	0.002
1019	0.002
1019	0.002
1020	0.002
1020	0.001
1021	0.001
1021	0
1021	0
1022	-0
1022	-0.001
1023	-0.001
1023	-0.001
1023	-0.001
1024	-0.001
1024	-0.001
1025	-0.001
1025	-0
1026	-0
1026	-0
1026	0
1027	0
1027	0.001
1028	0.001
1028	0.001
1028	0.002
1029	0.002
1029	0.003
1030	0.003
1030	0.004
1031	0.004
1031	0.005
1031	0.005
1032	0.005
1032	0.005
1033	0.005
1033	0.005
1033	0.005
1034	0.004
1034	0.004
1035	0.003
1035	0.003
1036	0.002
1036	0.002
1036	0.001
1037	0.001
1037	0.001
1038	0
1038	0
1039	0.001
1039	0.001
1039	0.001
1040	0.001
1040	0.001
1041	0.001
1041	0
1041	0
1042	-0
1042	-0
1043	-0.001
1043	-0.002
1044	-0.002
1044	-0.003
1044	-0.003
1045	-0.003
1045	-0.004
1046	-0.004
1046	-0.004
1046	-0.004
1047	-0.003
1047	-0.003
1048	-0.002
1048	-0.001
1049	-0.001
1049	-0
1049	-0
1050	0
1050	0.001
1051	0.001
1051	0.001
1051	0
1052	0
1052	-0
1053	-0.001
1053	-0.001
1053	-0.001
1054	-0.002
1054	-0.002
1055	-0.002
1055	-0.002
1056	-0.002
1056	-0.002
1056	-0.002
1057	-0.002
1057	-0.001
1058	-0.001
1058	-0.001
1058	-0
1059	-0
1059	-0
1060	-0
1060	0
1061	0.001
1061	0.001
1061	0.001
1062	0.002
1062	0.002
1063	0.002
1063	0.003
1063	0.003
1064	0.003
1064	0.004
1065	0.004
1065	0.004
1066	0.005
1066	0.005
1066	0.006
1067	0.007
1067	0.007
1068	0.007
1068	0.007
1068	0.008
1069	0.008
1069	0.008
1070	0.008
1070	0.007
1071	0.007
1071	0.007
1071	0.007
1072	0.007
1072	0.007
1073	0.007
1073	0.007
1073	0.007
1074	0.007
1074	0.008
1075	0.008
1075	0.009
1076	0.009
1076	0.01
1076	0.01
1077	0.011
1077	0.012
1078	0.012
1078	0.012
1078	0.013
1079	0.014
1079	0.015
1080	0.016
1080	0.017
1080	0.017
1081	0.018
1081	0.019
1082	0.02
1082	0.022
1083	0.023
1083	0.024
1083	0.026
1084	0.027
1084	0.029
1085	0.03
1085	0.031
1085	0.033
1086	0.034
1086	0.036
1087	0.037
1087	0.038
1088	0.038
1088	0.039
1088	0.039
1089	0.04
1089	0.041
1090	0.042
1090	0.043
1090	0.044
1091	0.045
1091	0.046
1092	0.048
1092	0.05
1092	0.051
1093	0.055
1093	0.057
1094	0.06
1094	0.063
1095	0.066
1095	0.069
1095	0.073
1096	0.076
1096	0.08
1097	0.084
1097	0.087
1097	0.09
1098	0.093
1098	0.096
1099	0.101
1099	0.106
1100	0.111
1100	0.116
1100	0.122
1101	0.129
1101	0.137
1102	0.145
1102	0.155
1102	0.164
1103	0.176
1103	0.187
1104	0.198
1104	0.212
1104	0.226
1105	0.242
1105	0.258
1106	0.275
1106	0.295
1107	0.318
1107	0.349
1107	0.386
1108	0.496
1108	0.687
1109	1.197
1109	-0
1109	-0
1110	-0
1110	-0
1111	-0
1111	-0
