Data from 15c-2a_Absorbance__1307__01307.txt Node

Date: Wed Jan 17 10:23:58 CET 2024
User: Marek
Spectrometer: MAYP115816
Trigger mode: 0
Integration Time (sec): 2.000000E-1
Scans to average: 10
Electric dark correction enabled: true
Nonlinearity correction enabled: true
Boxcar width: 5
XAxis mode: Wavelengths
Number of Pixels in Spectrum: 2068
>>>>>Begin Spectral Data<<<<<
199	-1.595
199	-1.457
200	-1.298
200	-1.176
201	-1.1
201	-1.053
202	-0.982
202	-0.932
203	-0.887
203	-0.848
204	-0.824
204	-0.8
205	-0.777
205	-0.768
205	-0.766
206	-0.765
206	-0.762
207	-0.76
207	-0.756
208	-0.755
208	-0.755
209	-0.75
209	-0.749
210	-0.748
210	-0.748
211	-0.748
211	-0.747
212	-0.749
212	-0.748
213	-0.747
213	-0.746
213	-0.745
214	-0.744
214	-0.743
215	-0.742
215	-0.741
216	-0.74
216	-0.739
217	-0.734
217	-0.732
218	-0.731
218	-0.727
219	-0.724
219	-0.724
220	-0.72
220	-0.718
221	-0.712
221	-0.709
221	-0.705
222	-0.701
222	-0.696
223	-0.691
223	-0.688
224	-0.683
224	-0.675
225	-0.667
225	-0.66
226	-0.652
226	-0.639
227	-0.626
227	-0.614
228	-0.598
228	-0.58
229	-0.56
229	-0.535
229	-0.509
230	-0.48
230	-0.448
231	-0.414
231	-0.378
232	-0.342
232	-0.302
233	-0.26
233	-0.216
234	-0.174
234	-0.133
235	-0.093
235	-0.054
236	-0.017
236	0.019
236	0.053
237	0.086
237	0.115
238	0.142
238	0.167
239	0.191
239	0.212
240	0.231
240	0.248
241	0.264
241	0.279
242	0.292
242	0.304
243	0.315
243	0.324
243	0.332
244	0.34
244	0.348
245	0.354
245	0.36
246	0.366
246	0.371
247	0.376
247	0.38
248	0.385
248	0.389
249	0.393
249	0.396
250	0.399
250	0.402
250	0.405
251	0.407
251	0.41
252	0.412
252	0.414
253	0.416
253	0.418
254	0.419
254	0.421
255	0.422
255	0.423
256	0.425
256	0.425
257	0.426
257	0.426
258	0.426
258	0.427
258	0.427
259	0.427
259	0.427
260	0.427
260	0.427
261	0.426
261	0.426
262	0.426
262	0.426
263	0.425
263	0.425
264	0.424
264	0.423
265	0.422
265	0.421
265	0.42
266	0.419
266	0.418
267	0.416
267	0.415
268	0.413
268	0.412
269	0.41
269	0.408
270	0.406
270	0.404
271	0.402
271	0.4
272	0.398
272	0.396
272	0.394
273	0.392
273	0.39
274	0.388
274	0.385
275	0.383
275	0.381
276	0.379
276	0.377
277	0.375
277	0.372
278	0.37
278	0.368
278	0.366
279	0.363
279	0.361
280	0.358
280	0.356
281	0.354
281	0.352
282	0.35
282	0.348
283	0.346
283	0.344
284	0.342
284	0.34
285	0.339
285	0.337
285	0.335
286	0.333
286	0.332
287	0.33
287	0.328
288	0.326
288	0.325
289	0.323
289	0.322
290	0.32
290	0.318
291	0.317
291	0.316
292	0.314
292	0.313
292	0.312
293	0.31
293	0.309
294	0.308
294	0.307
295	0.306
295	0.305
296	0.303
296	0.302
297	0.301
297	0.3
298	0.299
298	0.298
298	0.297
299	0.297
299	0.296
300	0.295
300	0.295
301	0.294
301	0.293
302	0.292
302	0.291
303	0.291
303	0.29
304	0.289
304	0.288
305	0.287
305	0.287
305	0.286
306	0.285
306	0.284
307	0.283
307	0.282
308	0.281
308	0.281
309	0.28
309	0.279
310	0.278
310	0.278
311	0.277
311	0.276
311	0.275
312	0.275
312	0.274
313	0.273
313	0.273
314	0.272
314	0.271
315	0.27
315	0.27
316	0.269
316	0.268
317	0.268
317	0.267
318	0.266
318	0.265
318	0.265
319	0.264
319	0.263
320	0.262
320	0.261
321	0.261
321	0.26
322	0.259
322	0.258
323	0.257
323	0.256
324	0.256
324	0.255
324	0.254
325	0.253
325	0.253
326	0.252
326	0.251
327	0.25
327	0.249
328	0.249
328	0.248
329	0.247
329	0.246
330	0.245
330	0.245
330	0.244
331	0.243
331	0.242
332	0.241
332	0.241
333	0.24
333	0.239
334	0.238
334	0.238
335	0.237
335	0.236
336	0.235
336	0.235
336	0.234
337	0.233
337	0.233
338	0.232
338	0.232
339	0.231
339	0.231
340	0.23
340	0.23
341	0.229
341	0.228
342	0.228
342	0.227
342	0.227
343	0.226
343	0.225
344	0.225
344	0.224
345	0.224
345	0.223
346	0.223
346	0.223
347	0.222
347	0.222
348	0.221
348	0.221
348	0.221
349	0.22
349	0.219
350	0.219
350	0.218
351	0.218
351	0.218
352	0.217
352	0.217
353	0.216
353	0.216
354	0.215
354	0.215
354	0.214
355	0.214
355	0.213
356	0.213
356	0.212
357	0.212
357	0.212
358	0.211
358	0.211
359	0.211
359	0.211
360	0.212
360	0.212
360	0.212
361	0.212
361	0.212
362	0.212
362	0.212
363	0.212
363	0.211
364	0.211
364	0.211
365	0.21
365	0.21
366	0.21
366	0.21
366	0.209
367	0.209
367	0.209
368	0.209
368	0.208
369	0.208
369	0.208
370	0.208
370	0.207
371	0.207
371	0.207
372	0.207
372	0.206
372	0.206
373	0.206
373	0.206
374	0.205
374	0.205
375	0.205
375	0.205
376	0.205
376	0.205
377	0.205
377	0.205
378	0.205
378	0.204
378	0.205
379	0.205
379	0.205
380	0.204
380	0.204
381	0.204
381	0.204
382	0.204
382	0.203
383	0.203
383	0.203
383	0.202
384	0.202
384	0.202
385	0.202
385	0.201
386	0.201
386	0.201
387	0.201
387	0.201
388	0.201
388	0.201
389	0.201
389	0.201
389	0.201
390	0.201
390	0.201
391	0.201
391	0.2
392	0.2
392	0.2
393	0.2
393	0.2
394	0.199
394	0.199
394	0.199
395	0.199
395	0.198
396	0.198
396	0.198
397	0.197
397	0.197
398	0.197
398	0.197
399	0.197
399	0.197
400	0.197
400	0.196
400	0.196
401	0.196
401	0.195
402	0.195
402	0.195
403	0.195
403	0.194
404	0.194
404	0.194
405	0.194
405	0.194
405	0.193
406	0.193
406	0.193
407	0.193
407	0.192
408	0.192
408	0.192
409	0.191
409	0.191
410	0.191
410	0.191
411	0.191
411	0.191
411	0.19
412	0.19
412	0.19
413	0.19
413	0.189
414	0.189
414	0.189
415	0.189
415	0.188
416	0.188
416	0.188
416	0.188
417	0.188
417	0.188
418	0.188
418	0.188
419	0.188
419	0.188
420	0.189
420	0.189
421	0.189
421	0.19
421	0.19
422	0.19
422	0.19
423	0.19
423	0.19
424	0.189
424	0.189
425	0.188
425	0.187
426	0.187
426	0.187
427	0.186
427	0.186
427	0.186
428	0.187
428	0.187
429	0.187
429	0.187
430	0.187
430	0.187
431	0.187
431	0.187
432	0.186
432	0.186
432	0.185
433	0.185
433	0.184
434	0.184
434	0.184
435	0.184
435	0.184
436	0.184
436	0.184
437	0.184
437	0.185
437	0.185
438	0.185
438	0.185
439	0.185
439	0.184
440	0.184
440	0.184
441	0.184
441	0.183
442	0.183
442	0.183
442	0.183
443	0.183
443	0.183
444	0.183
444	0.183
445	0.183
445	0.184
446	0.184
446	0.183
447	0.184
447	0.183
447	0.184
448	0.184
448	0.184
449	0.184
449	0.184
450	0.184
450	0.184
451	0.184
451	0.184
452	0.184
452	0.183
452	0.183
453	0.183
453	0.183
454	0.183
454	0.183
455	0.183
455	0.183
456	0.183
456	0.183
457	0.183
457	0.183
458	0.183
458	0.183
458	0.183
459	0.183
459	0.183
460	0.183
460	0.182
461	0.182
461	0.182
462	0.182
462	0.183
463	0.183
463	0.183
463	0.184
464	0.184
464	0.184
465	0.185
465	0.185
466	0.185
466	0.186
467	0.186
467	0.186
467	0.186
468	0.186
468	0.185
469	0.185
469	0.185
470	0.185
470	0.184
471	0.184
471	0.184
472	0.184
472	0.184
472	0.185
473	0.185
473	0.186
474	0.186
474	0.187
475	0.188
475	0.188
476	0.189
476	0.189
477	0.189
477	0.189
477	0.19
478	0.19
478	0.19
479	0.19
479	0.191
480	0.191
480	0.192
481	0.193
481	0.194
482	0.195
482	0.196
482	0.197
483	0.199
483	0.201
484	0.202
484	0.202
485	0.203
485	0.204
486	0.205
486	0.206
487	0.206
487	0.207
487	0.208
488	0.208
488	0.208
489	0.209
489	0.21
490	0.211
490	0.212
491	0.213
491	0.214
492	0.215
492	0.216
492	0.217
493	0.218
493	0.219
494	0.22
494	0.222
495	0.223
495	0.225
496	0.226
496	0.228
496	0.23
497	0.231
497	0.233
498	0.234
498	0.236
499	0.237
499	0.238
500	0.239
500	0.241
501	0.242
501	0.244
501	0.245
502	0.247
502	0.248
503	0.25
503	0.252
504	0.253
504	0.254
505	0.255
505	0.256
506	0.258
506	0.259
506	0.26
507	0.261
507	0.262
508	0.263
508	0.265
509	0.266
509	0.268
510	0.269
510	0.27
511	0.271
511	0.272
511	0.273
512	0.274
512	0.275
513	0.275
513	0.276
514	0.276
514	0.277
515	0.277
515	0.278
515	0.278
516	0.279
516	0.28
517	0.281
517	0.282
518	0.282
518	0.282
519	0.282
519	0.282
520	0.282
520	0.281
520	0.281
521	0.28
521	0.279
522	0.278
522	0.278
523	0.277
523	0.277
524	0.277
524	0.278
524	0.278
525	0.278
525	0.279
526	0.279
526	0.28
527	0.28
527	0.28
528	0.28
528	0.28
529	0.28
529	0.279
529	0.279
530	0.279
530	0.278
531	0.277
531	0.277
532	0.276
532	0.275
533	0.274
533	0.274
533	0.273
534	0.272
534	0.27
535	0.269
535	0.269
536	0.267
536	0.266
537	0.265
537	0.263
538	0.262
538	0.26
538	0.259
539	0.258
539	0.256
540	0.254
540	0.252
541	0.25
541	0.248
542	0.246
542	0.244
542	0.241
543	0.239
543	0.237
544	0.235
544	0.233
545	0.232
545	0.23
546	0.229
546	0.227
547	0.224
547	0.221
547	0.219
548	0.217
548	0.214
549	0.212
549	0.21
550	0.207
550	0.205
551	0.202
551	0.2
551	0.198
552	0.196
552	0.195
553	0.193
553	0.192
554	0.19
554	0.187
555	0.185
555	0.183
556	0.18
556	0.177
556	0.175
557	0.172
557	0.17
558	0.168
558	0.165
559	0.164
559	0.162
560	0.161
560	0.159
560	0.158
561	0.157
561	0.156
562	0.155
562	0.153
563	0.15
563	0.148
564	0.145
564	0.143
564	0.14
565	0.138
565	0.136
566	0.133
566	0.13
567	0.129
567	0.128
568	0.127
568	0.126
568	0.125
569	0.125
569	0.125
570	0.124
570	0.122
571	0.122
571	0.121
572	0.12
572	0.118
573	0.117
573	0.116
573	0.114
574	0.113
574	0.112
575	0.111
575	0.112
576	0.111
576	0.11
577	0.108
577	0.107
577	0.106
578	0.105
578	0.105
579	0.104
579	0.104
580	0.102
580	0.099
581	0.096
581	0.094
581	0.093
582	0.093
582	0.092
583	0.092
583	0.091
584	0.088
584	0.084
585	0.083
585	0.084
585	0.083
586	0.083
586	0.082
587	0.08
587	0.079
588	0.077
588	0.076
589	0.076
589	0.076
590	0.076
590	0.076
590	0.077
591	0.077
591	0.076
592	0.076
592	0.075
593	0.074
593	0.074
594	0.073
594	0.072
594	0.071
595	0.07
595	0.069
596	0.068
596	0.069
597	0.071
597	0.072
598	0.072
598	0.073
598	0.074
599	0.075
599	0.075
600	0.074
600	0.073
601	0.072
601	0.071
602	0.07
602	0.069
602	0.069
603	0.069
603	0.07
604	0.07
604	0.071
605	0.072
605	0.074
606	0.074
606	0.073
606	0.073
607	0.072
607	0.072
608	0.071
608	0.069
609	0.068
609	0.068
610	0.068
610	0.067
610	0.067
611	0.069
611	0.07
612	0.071
612	0.073
613	0.074
613	0.075
614	0.074
614	0.073
614	0.073
615	0.072
615	0.071
616	0.07
616	0.069
617	0.068
617	0.067
618	0.066
618	0.065
618	0.064
619	0.065
619	0.066
620	0.068
620	0.068
621	0.069
621	0.069
622	0.069
622	0.07
622	0.07
623	0.07
623	0.071
624	0.071
624	0.071
625	0.07
625	0.071
626	0.071
626	0.071
626	0.072
627	0.073
627	0.074
628	0.075
628	0.076
629	0.076
629	0.077
630	0.077
630	0.077
630	0.078
631	0.079
631	0.08
632	0.08
632	0.081
633	0.082
633	0.083
634	0.085
634	0.087
634	0.089
635	0.091
635	0.091
636	0.093
636	0.094
637	0.095
637	0.095
638	0.096
638	0.098
638	0.099
639	0.1
639	0.101
640	0.102
640	0.103
641	0.105
641	0.107
642	0.109
642	0.111
642	0.113
643	0.114
643	0.116
644	0.117
644	0.119
645	0.122
645	0.124
646	0.126
646	0.128
646	0.131
647	0.134
647	0.137
648	0.139
648	0.141
649	0.143
649	0.145
650	0.147
650	0.149
650	0.151
651	0.152
651	0.154
652	0.156
652	0.158
653	0.16
653	0.168
653	0.179
654	0.143
654	0.116
655	0.118
655	0.12
656	0.122
656	0.124
657	0.125
657	0.127
657	0.128
658	0.126
658	0.117
659	0.149
659	0.194
660	0.201
660	0.203
661	0.206
661	0.208
661	0.212
662	0.215
662	0.219
663	0.222
663	0.225
664	0.229
664	0.232
665	0.235
665	0.238
665	0.241
666	0.243
666	0.245
667	0.247
667	0.25
668	0.252
668	0.255
669	0.257
669	0.261
669	0.264
670	0.268
670	0.271
671	0.273
671	0.276
672	0.278
672	0.28
672	0.283
673	0.285
673	0.286
674	0.288
674	0.288
675	0.289
675	0.29
676	0.292
676	0.293
676	0.294
677	0.296
677	0.298
678	0.299
678	0.3
679	0.301
679	0.303
680	0.305
680	0.306
680	0.308
681	0.309
681	0.31
682	0.311
682	0.312
683	0.313
683	0.315
684	0.316
684	0.316
684	0.315
685	0.316
685	0.316
686	0.317
686	0.317
687	0.317
687	0.317
687	0.317
688	0.317
688	0.317
689	0.317
689	0.317
690	0.317
690	0.315
691	0.314
691	0.313
691	0.311
692	0.31
692	0.308
693	0.307
693	0.306
694	0.305
694	0.303
695	0.303
695	0.303
695	0.303
696	0.302
696	0.301
697	0.3
697	0.299
698	0.298
698	0.297
698	0.296
699	0.295
699	0.293
700	0.291
700	0.289
701	0.288
701	0.287
702	0.286
702	0.284
702	0.282
703	0.28
703	0.278
704	0.276
704	0.274
705	0.272
705	0.27
705	0.268
706	0.266
706	0.264
707	0.261
707	0.259
708	0.256
708	0.254
709	0.252
709	0.25
709	0.246
710	0.243
710	0.24
711	0.238
711	0.236
712	0.233
712	0.231
713	0.229
713	0.227
713	0.226
714	0.224
714	0.222
715	0.22
715	0.218
716	0.216
716	0.215
716	0.213
717	0.211
717	0.21
718	0.207
718	0.205
719	0.204
719	0.202
720	0.2
720	0.198
720	0.196
721	0.193
721	0.191
722	0.189
722	0.187
723	0.185
723	0.183
723	0.18
724	0.178
724	0.176
725	0.173
725	0.171
726	0.168
726	0.165
727	0.163
727	0.16
727	0.157
728	0.155
728	0.152
729	0.151
729	0.149
730	0.148
730	0.145
730	0.144
731	0.142
731	0.14
732	0.138
732	0.136
733	0.134
733	0.132
734	0.129
734	0.127
734	0.125
735	0.124
735	0.122
736	0.121
736	0.12
737	0.12
737	0.119
737	0.119
738	0.116
738	0.114
739	0.112
739	0.11
740	0.107
740	0.105
741	0.103
741	0.099
741	0.096
742	0.092
742	0.089
743	0.086
743	0.084
744	0.083
744	0.081
744	0.079
745	0.077
745	0.076
746	0.074
746	0.073
747	0.072
747	0.072
748	0.071
748	0.07
748	0.069
749	0.067
749	0.066
750	0.065
750	0.064
751	0.064
751	0.063
751	0.063
752	0.062
752	0.061
753	0.06
753	0.06
754	0.06
754	0.059
754	0.059
755	0.059
755	0.059
756	0.058
756	0.056
757	0.055
757	0.055
758	0.054
758	0.052
758	0.051
759	0.05
759	0.048
760	0.046
760	0.043
761	0.042
761	0.041
761	0.04
762	0.039
762	0.038
763	0.038
763	0.036
764	0.034
764	0.032
764	0.03
765	0.028
765	0.026
766	0.025
766	0.024
767	0.023
767	0.02
768	0.018
768	0.016
768	0.015
769	0.014
769	0.013
770	0.012
770	0.01
771	0.008
771	0.005
771	0.002
772	0
772	-0.002
773	-0.004
773	-0.007
774	-0.01
774	-0.012
775	-0.014
775	-0.017
775	-0.019
776	-0.022
776	-0.024
777	-0.027
777	-0.029
778	-0.032
778	-0.034
778	-0.036
779	-0.038
779	-0.039
780	-0.042
780	-0.045
781	-0.048
781	-0.052
781	-0.056
782	-0.062
782	-0.067
783	-0.073
783	-0.078
784	-0.085
784	-0.092
784	-0.098
785	-0.105
785	-0.111
786	-0.117
786	-0.121
787	-0.122
787	-0.124
788	-0.129
788	-0.134
788	-0.14
789	-0.145
789	-0.147
790	-0.147
790	-0.149
791	-0.151
791	-0.152
791	-0.155
792	-0.15
792	-0.139
793	-0.133
793	-0.129
794	-0.128
794	-0.13
794	-0.134
795	-0.136
795	-0.136
796	-0.137
796	-0.14
797	-0.149
797	-0.16
797	-0.167
798	-0.172
798	-0.174
799	-0.175
799	-0.174
800	-0.173
800	-0.175
801	-0.178
801	-0.179
801	-0.179
802	-0.18
802	-0.182
803	-0.182
803	-0.183
804	-0.182
804	-0.177
804	-0.17
805	-0.166
805	-0.164
806	-0.162
806	-0.161
807	-0.16
807	-0.159
807	-0.159
808	-0.159
808	-0.16
809	-0.165
809	-0.171
810	-0.175
810	-0.178
810	-0.182
811	-0.185
811	-0.185
812	-0.181
812	-0.178
813	-0.178
813	-0.179
813	-0.179
814	-0.18
814	-0.179
815	-0.176
815	-0.172
816	-0.168
816	-0.166
817	-0.165
817	-0.163
817	-0.156
818	-0.148
818	-0.139
819	-0.129
819	-0.12
820	-0.113
820	-0.106
820	-0.098
821	-0.091
821	-0.085
822	-0.079
822	-0.074
823	-0.071
823	-0.068
823	-0.066
824	-0.063
824	-0.06
825	-0.057
825	-0.053
826	-0.051
826	-0.049
826	-0.047
827	-0.045
827	-0.043
828	-0.041
828	-0.04
829	-0.038
829	-0.036
829	-0.036
830	-0.035
830	-0.034
831	-0.031
831	-0.03
832	-0.028
832	-0.027
832	-0.025
833	-0.024
833	-0.022
834	-0.021
834	-0.019
835	-0.017
835	-0.016
835	-0.015
836	-0.013
836	-0.012
837	-0.011
837	-0.01
838	-0.01
838	-0.009
839	-0.009
839	-0.009
839	-0.009
840	-0.008
840	-0.008
841	-0.008
841	-0.007
842	-0.007
842	-0.007
842	-0.006
843	-0.006
843	-0.006
844	-0.005
844	-0.004
845	-0.004
845	-0.004
845	-0.003
846	-0.003
846	-0.002
847	-0.002
847	-0.002
848	-0.002
848	-0.003
848	-0.003
849	-0.004
849	-0.004
850	-0.005
850	-0.006
851	-0.007
851	-0.007
851	-0.008
852	-0.008
852	-0.008
853	-0.008
853	-0.007
854	-0.007
854	-0.006
854	-0.006
855	-0.005
855	-0.005
856	-0.005
856	-0.005
857	-0.005
857	-0.006
857	-0.006
858	-0.007
858	-0.007
859	-0.008
859	-0.008
860	-0.008
860	-0.008
860	-0.009
861	-0.008
861	-0.008
862	-0.008
862	-0.008
863	-0.008
863	-0.008
863	-0.008
864	-0.008
864	-0.008
865	-0.007
865	-0.006
866	-0.005
866	-0.004
866	-0.003
867	-0.002
867	-0
868	0.001
868	0.002
869	0.004
869	0.004
869	0.004
870	0.005
870	0.004
871	0.004
871	0.003
872	0.002
872	0
872	-0.001
873	-0.002
873	-0.003
874	-0.004
874	-0.004
875	-0.004
875	-0.003
875	-0.003
876	-0.002
876	-0.002
877	-0.001
877	0
878	0.001
878	0.002
878	0.003
879	0.004
879	0.005
880	0.005
880	0.006
881	0.006
881	0.006
881	0.006
882	0.006
882	0.006
883	0.006
883	0.006
884	0.005
884	0.005
884	0.005
885	0.004
885	0.004
886	0.004
886	0.004
887	0.003
887	0.003
887	0.003
888	0.002
888	0.001
889	0.001
889	0
890	-0
890	-0.001
890	-0.002
891	-0.002
891	-0.003
892	-0.004
892	-0.005
893	-0.006
893	-0.006
893	-0.007
894	-0.007
894	-0.008
895	-0.009
895	-0.009
895	-0.01
896	-0.01
896	-0.01
897	-0.01
897	-0.01
898	-0.01
898	-0.01
898	-0.009
899	-0.009
899	-0.008
900	-0.007
900	-0.007
901	-0.006
901	-0.005
901	-0.004
902	-0.003
902	-0.003
903	-0.002
903	-0.002
904	-0.002
904	-0.002
904	-0.001
905	-0.001
905	-0
906	0
906	0.001
907	0.001
907	0.001
907	0.002
908	0.002
908	0.002
909	0.002
909	0.002
910	0.003
910	0.003
910	0.003
911	0.004
911	0.004
912	0.005
912	0.005
913	0.006
913	0.006
913	0.006
914	0.006
914	0.005
915	0.004
915	0.003
916	0.002
916	0
916	-0.002
917	-0.003
917	-0.005
918	-0.006
918	-0.007
918	-0.008
919	-0.008
919	-0.008
920	-0.007
920	-0.006
921	-0.006
921	-0.005
921	-0.004
922	-0.003
922	-0.002
923	-0.001
923	-0
924	0.001
924	0.001
924	0.001
925	0.001
925	0.001
926	0.001
926	0.001
927	0.001
927	0
927	-0
928	-0
928	-0.001
929	-0.001
929	-0.001
930	-0.002
930	-0.002
930	-0.002
931	-0.002
931	-0.003
932	-0.003
932	-0.003
933	-0.003
933	-0.003
933	-0.003
934	-0.003
934	-0.003
935	-0.003
935	-0.003
935	-0.003
936	-0.003
936	-0.003
937	-0.003
937	-0.003
938	-0.003
938	-0.004
938	-0.004
939	-0.004
939	-0.005
940	-0.005
940	-0.005
941	-0.005
941	-0.005
941	-0.005
942	-0.005
942	-0.005
943	-0.005
943	-0.005
944	-0.005
944	-0.005
944	-0.005
945	-0.004
945	-0.004
946	-0.004
946	-0.005
946	-0.005
947	-0.005
947	-0.005
948	-0.005
948	-0.006
949	-0.006
949	-0.005
949	-0.005
950	-0.005
950	-0.004
951	-0.004
951	-0.004
952	-0.004
952	-0.003
952	-0.003
953	-0.003
953	-0.003
954	-0.004
954	-0.004
955	-0.005
955	-0.005
955	-0.006
956	-0.006
956	-0.006
957	-0.007
957	-0.007
957	-0.008
958	-0.008
958	-0.009
959	-0.009
959	-0.01
960	-0.01
960	-0.011
960	-0.011
961	-0.012
961	-0.012
962	-0.012
962	-0.012
963	-0.012
963	-0.012
963	-0.011
964	-0.01
964	-0.009
965	-0.008
965	-0.007
966	-0.005
966	-0.004
966	-0.003
967	-0.002
967	-0.001
968	-0.001
968	-0
968	-0
969	-0
969	-0
970	-0.001
970	-0.001
971	-0.001
971	-0.002
971	-0.002
972	-0.002
972	-0.002
973	-0.002
973	-0.003
974	-0.003
974	-0.003
974	-0.003
975	-0.003
975	-0.003
976	-0.003
976	-0.004
976	-0.004
977	-0.005
977	-0.006
978	-0.008
978	-0.009
979	-0.01
979	-0.011
979	-0.012
980	-0.014
980	-0.015
981	-0.016
981	-0.017
982	-0.017
982	-0.017
982	-0.017
983	-0.017
983	-0.017
984	-0.016
984	-0.015
984	-0.014
985	-0.013
985	-0.012
986	-0.012
986	-0.012
987	-0.011
987	-0.01
987	-0.01
988	-0.009
988	-0.008
989	-0.008
989	-0.007
990	-0.007
990	-0.006
990	-0.005
991	-0.004
991	-0.003
992	-0.002
992	-0.001
992	-0.001
993	-0
993	0
994	0
994	0
995	0
995	0
995	-0
996	-0
996	-0.001
997	-0.001
997	-0.001
997	-0.001
998	-0.001
998	-0
999	-0
999	-0
1000	0
1000	0.001
1000	0.001
1001	0.002
1001	0.002
1002	0.002
1002	0.003
1003	0.003
1003	0.002
1003	0.002
1004	0.002
1004	0.001
1005	0.001
1005	0
1005	-0
1006	-0.001
1006	-0.002
1007	-0.002
1007	-0.003
1008	-0.003
1008	-0.004
1008	-0.004
1009	-0.004
1009	-0.004
1010	-0.004
1010	-0.005
1010	-0.005
1011	-0.006
1011	-0.006
1012	-0.006
1012	-0.006
1013	-0.007
1013	-0.007
1013	-0.008
1014	-0.009
1014	-0.009
1015	-0.01
1015	-0.01
1016	-0.01
1016	-0.011
1016	-0.011
1017	-0.012
1017	-0.012
1018	-0.013
1018	-0.013
1018	-0.013
1019	-0.013
1019	-0.013
1020	-0.013
1020	-0.013
1021	-0.013
1021	-0.013
1021	-0.013
1022	-0.012
1022	-0.012
1023	-0.012
1023	-0.012
1023	-0.012
1024	-0.012
1024	-0.012
1025	-0.013
1025	-0.013
1026	-0.013
1026	-0.013
1026	-0.013
1027	-0.013
1027	-0.013
1028	-0.013
1028	-0.013
1028	-0.013
1029	-0.013
1029	-0.012
1030	-0.012
1030	-0.012
1031	-0.012
1031	-0.012
1031	-0.012
1032	-0.013
1032	-0.013
1033	-0.013
1033	-0.014
1033	-0.015
1034	-0.016
1034	-0.017
1035	-0.018
1035	-0.019
1036	-0.02
1036	-0.021
1036	-0.022
1037	-0.022
1037	-0.022
1038	-0.022
1038	-0.022
1039	-0.021
1039	-0.02
1039	-0.019
1040	-0.019
1040	-0.018
1041	-0.018
1041	-0.018
1041	-0.018
1042	-0.019
1042	-0.019
1043	-0.021
1043	-0.022
1044	-0.022
1044	-0.023
1044	-0.023
1045	-0.024
1045	-0.024
1046	-0.025
1046	-0.025
1046	-0.025
1047	-0.024
1047	-0.023
1048	-0.022
1048	-0.022
1049	-0.022
1049	-0.022
1049	-0.022
1050	-0.022
1050	-0.023
1051	-0.023
1051	-0.023
1051	-0.024
1052	-0.024
1052	-0.024
1053	-0.024
1053	-0.024
1053	-0.025
1054	-0.025
1054	-0.024
1055	-0.024
1055	-0.024
1056	-0.025
1056	-0.025
1056	-0.026
1057	-0.027
1057	-0.027
1058	-0.027
1058	-0.028
1058	-0.028
1059	-0.029
1059	-0.029
1060	-0.029
1060	-0.029
1061	-0.029
1061	-0.028
1061	-0.028
1062	-0.028
1062	-0.028
1063	-0.027
1063	-0.028
1063	-0.027
1064	-0.027
1064	-0.026
1065	-0.026
1065	-0.026
1066	-0.026
1066	-0.026
1066	-0.026
1067	-0.026
1067	-0.026
1068	-0.026
1068	-0.026
1068	-0.026
1069	-0.027
1069	-0.028
1070	-0.028
1070	-0.029
1071	-0.029
1071	-0.03
1071	-0.031
1072	-0.031
1072	-0.031
1073	-0.032
1073	-0.032
1073	-0.032
1074	-0.032
1074	-0.032
1075	-0.033
1075	-0.034
1076	-0.034
1076	-0.034
1076	-0.035
1077	-0.035
1077	-0.035
1078	-0.036
1078	-0.036
1078	-0.035
1079	-0.034
1079	-0.033
1080	-0.032
1080	-0.031
1080	-0.03
1081	-0.029
1081	-0.028
1082	-0.027
1082	-0.026
1083	-0.026
1083	-0.025
1083	-0.025
1084	-0.024
1084	-0.023
1085	-0.022
1085	-0.022
1085	-0.02
1086	-0.02
1086	-0.02
1087	-0.019
1087	-0.019
1088	-0.019
1088	-0.019
1088	-0.019
1089	-0.02
1089	-0.02
1090	-0.021
1090	-0.021
1090	-0.022
1091	-0.023
1091	-0.022
1092	-0.022
1092	-0.021
1092	-0.02
1093	-0.019
1093	-0.016
1094	-0.014
1094	-0.012
1095	-0.011
1095	-0.009
1095	-0.005
1096	-0.003
1096	-0.001
1097	0.001
1097	0.003
1097	0.004
1098	0.005
1098	0.007
1099	0.009
1099	0.011
1100	0.013
1100	0.014
1100	0.015
1101	0.017
1101	0.019
1102	0.022
1102	0.025
1102	0.029
1103	0.033
1103	0.038
1104	0.044
1104	0.05
1104	0.057
1105	0.064
1105	0.07
1106	0.075
1106	0.083
1107	0.09
1107	0.103
1107	0.115
1108	0.163
1108	0.228
1109	0.325
1109	0.502
1109	0.665
1110	1.205
1110	-0
1111	-0
1111	-0
