Data from 15c-2a_Absorbance__1184__01184.txt Node

Date: Wed Jan 17 10:19:52 CET 2024
User: Marek
Spectrometer: MAYP115816
Trigger mode: 0
Integration Time (sec): 2.000000E-1
Scans to average: 10
Electric dark correction enabled: true
Nonlinearity correction enabled: true
Boxcar width: 5
XAxis mode: Wavelengths
Number of Pixels in Spectrum: 2068
>>>>>Begin Spectral Data<<<<<
199	-1.604
199	-1.466
200	-1.306
200	-1.183
201	-1.107
201	-1.059
202	-0.989
202	-0.938
203	-0.892
203	-0.853
204	-0.828
204	-0.804
205	-0.78
205	-0.77
205	-0.769
206	-0.769
206	-0.766
207	-0.763
207	-0.759
208	-0.757
208	-0.757
209	-0.753
209	-0.752
210	-0.751
210	-0.752
211	-0.75
211	-0.749
212	-0.751
212	-0.75
213	-0.749
213	-0.749
213	-0.748
214	-0.747
214	-0.746
215	-0.745
215	-0.744
216	-0.744
216	-0.742
217	-0.737
217	-0.735
218	-0.734
218	-0.731
219	-0.728
219	-0.727
220	-0.723
220	-0.721
221	-0.716
221	-0.712
221	-0.708
222	-0.705
222	-0.7
223	-0.694
223	-0.691
224	-0.686
224	-0.678
225	-0.67
225	-0.662
226	-0.654
226	-0.642
227	-0.629
227	-0.616
228	-0.601
228	-0.583
229	-0.562
229	-0.538
229	-0.512
230	-0.483
230	-0.454
231	-0.419
231	-0.383
232	-0.347
232	-0.308
233	-0.267
233	-0.224
234	-0.183
234	-0.142
235	-0.103
235	-0.064
236	-0.027
236	0.007
236	0.041
237	0.073
237	0.101
238	0.128
238	0.152
239	0.175
239	0.196
240	0.215
240	0.231
241	0.247
241	0.261
242	0.274
242	0.286
243	0.296
243	0.305
243	0.314
244	0.322
244	0.329
245	0.335
245	0.341
246	0.346
246	0.351
247	0.356
247	0.36
248	0.364
248	0.368
249	0.372
249	0.375
250	0.378
250	0.381
250	0.383
251	0.386
251	0.388
252	0.391
252	0.392
253	0.394
253	0.396
254	0.398
254	0.399
255	0.401
255	0.402
256	0.403
256	0.404
257	0.405
257	0.406
258	0.406
258	0.407
258	0.407
259	0.407
259	0.407
260	0.407
260	0.407
261	0.406
261	0.406
262	0.406
262	0.405
263	0.405
263	0.404
264	0.403
264	0.402
265	0.402
265	0.4
265	0.399
266	0.398
266	0.396
267	0.395
267	0.394
268	0.392
268	0.391
269	0.389
269	0.387
270	0.386
270	0.384
271	0.382
271	0.38
272	0.378
272	0.376
272	0.375
273	0.372
273	0.37
274	0.368
274	0.366
275	0.364
275	0.362
276	0.36
276	0.357
277	0.355
277	0.353
278	0.351
278	0.349
278	0.347
279	0.344
279	0.342
280	0.339
280	0.337
281	0.335
281	0.333
282	0.331
282	0.329
283	0.327
283	0.325
284	0.323
284	0.322
285	0.32
285	0.318
285	0.316
286	0.315
286	0.313
287	0.311
287	0.31
288	0.308
288	0.307
289	0.305
289	0.304
290	0.302
290	0.301
291	0.299
291	0.298
292	0.297
292	0.295
292	0.294
293	0.293
293	0.292
294	0.29
294	0.289
295	0.288
295	0.287
296	0.286
296	0.285
297	0.284
297	0.284
298	0.283
298	0.282
298	0.281
299	0.28
299	0.279
300	0.279
300	0.278
301	0.277
301	0.276
302	0.276
302	0.275
303	0.274
303	0.274
304	0.273
304	0.272
305	0.271
305	0.27
305	0.27
306	0.269
306	0.268
307	0.267
307	0.266
308	0.266
308	0.265
309	0.264
309	0.264
310	0.263
310	0.262
311	0.262
311	0.261
311	0.26
312	0.26
312	0.259
313	0.258
313	0.257
314	0.257
314	0.256
315	0.255
315	0.254
316	0.254
316	0.253
317	0.252
317	0.252
318	0.251
318	0.25
318	0.249
319	0.249
319	0.248
320	0.247
320	0.247
321	0.246
321	0.245
322	0.244
322	0.243
323	0.242
323	0.242
324	0.241
324	0.24
324	0.239
325	0.239
325	0.238
326	0.237
326	0.237
327	0.236
327	0.235
328	0.234
328	0.233
329	0.233
329	0.232
330	0.231
330	0.23
330	0.23
331	0.229
331	0.228
332	0.228
332	0.227
333	0.226
333	0.225
334	0.225
334	0.224
335	0.223
335	0.222
336	0.222
336	0.221
336	0.221
337	0.22
337	0.22
338	0.219
338	0.219
339	0.218
339	0.218
340	0.217
340	0.216
341	0.216
341	0.215
342	0.215
342	0.214
342	0.213
343	0.213
343	0.212
344	0.212
344	0.211
345	0.211
345	0.21
346	0.21
346	0.21
347	0.209
347	0.209
348	0.208
348	0.208
348	0.207
349	0.207
349	0.206
350	0.206
350	0.205
351	0.205
351	0.205
352	0.204
352	0.204
353	0.203
353	0.203
354	0.202
354	0.202
354	0.201
355	0.201
355	0.201
356	0.2
356	0.2
357	0.199
357	0.199
358	0.199
358	0.199
359	0.199
359	0.199
360	0.199
360	0.199
360	0.199
361	0.199
361	0.199
362	0.199
362	0.199
363	0.199
363	0.198
364	0.198
364	0.198
365	0.198
365	0.197
366	0.197
366	0.197
366	0.197
367	0.197
367	0.197
368	0.197
368	0.197
369	0.196
369	0.196
370	0.196
370	0.196
371	0.195
371	0.195
372	0.195
372	0.195
372	0.194
373	0.194
373	0.194
374	0.194
374	0.194
375	0.193
375	0.193
376	0.193
376	0.193
377	0.193
377	0.193
378	0.193
378	0.193
378	0.193
379	0.193
379	0.193
380	0.193
380	0.193
381	0.193
381	0.192
382	0.192
382	0.192
383	0.192
383	0.191
383	0.191
384	0.191
384	0.19
385	0.19
385	0.19
386	0.19
386	0.19
387	0.19
387	0.19
388	0.19
388	0.19
389	0.189
389	0.189
389	0.189
390	0.189
390	0.189
391	0.189
391	0.189
392	0.189
392	0.189
393	0.188
393	0.188
394	0.188
394	0.187
394	0.187
395	0.187
395	0.187
396	0.186
396	0.186
397	0.186
397	0.186
398	0.186
398	0.186
399	0.186
399	0.186
400	0.186
400	0.185
400	0.185
401	0.185
401	0.184
402	0.184
402	0.184
403	0.184
403	0.183
404	0.183
404	0.183
405	0.183
405	0.183
405	0.182
406	0.182
406	0.182
407	0.182
407	0.182
408	0.181
408	0.181
409	0.18
409	0.18
410	0.18
410	0.18
411	0.18
411	0.18
411	0.18
412	0.18
412	0.179
413	0.179
413	0.179
414	0.179
414	0.179
415	0.178
415	0.178
416	0.178
416	0.177
416	0.177
417	0.177
417	0.177
418	0.177
418	0.178
419	0.178
419	0.178
420	0.179
420	0.179
421	0.179
421	0.179
421	0.179
422	0.179
422	0.179
423	0.179
423	0.179
424	0.178
424	0.178
425	0.177
425	0.177
426	0.177
426	0.177
427	0.176
427	0.176
427	0.176
428	0.176
428	0.177
429	0.177
429	0.177
430	0.177
430	0.177
431	0.176
431	0.176
432	0.176
432	0.176
432	0.175
433	0.175
433	0.174
434	0.174
434	0.174
435	0.174
435	0.174
436	0.174
436	0.174
437	0.174
437	0.174
437	0.174
438	0.174
438	0.174
439	0.174
439	0.174
440	0.174
440	0.174
441	0.173
441	0.173
442	0.173
442	0.173
442	0.173
443	0.173
443	0.173
444	0.173
444	0.173
445	0.173
445	0.173
446	0.173
446	0.173
447	0.173
447	0.173
447	0.173
448	0.173
448	0.173
449	0.173
449	0.173
450	0.173
450	0.173
451	0.173
451	0.173
452	0.173
452	0.173
452	0.173
453	0.173
453	0.173
454	0.173
454	0.173
455	0.173
455	0.173
456	0.173
456	0.173
457	0.173
457	0.173
458	0.173
458	0.173
458	0.173
459	0.173
459	0.173
460	0.173
460	0.173
461	0.173
461	0.173
462	0.173
462	0.173
463	0.173
463	0.174
463	0.174
464	0.174
464	0.174
465	0.175
465	0.175
466	0.175
466	0.176
467	0.176
467	0.176
467	0.176
468	0.176
468	0.175
469	0.175
469	0.175
470	0.175
470	0.175
471	0.175
471	0.175
472	0.175
472	0.175
472	0.175
473	0.176
473	0.176
474	0.176
474	0.177
475	0.178
475	0.178
476	0.178
476	0.178
477	0.179
477	0.179
477	0.179
478	0.179
478	0.18
479	0.18
479	0.181
480	0.181
480	0.182
481	0.183
481	0.183
482	0.184
482	0.186
482	0.187
483	0.189
483	0.19
484	0.192
484	0.192
485	0.193
485	0.194
486	0.195
486	0.195
487	0.196
487	0.197
487	0.197
488	0.198
488	0.198
489	0.199
489	0.2
490	0.201
490	0.202
491	0.203
491	0.204
492	0.205
492	0.206
492	0.206
493	0.207
493	0.209
494	0.21
494	0.212
495	0.213
495	0.214
496	0.216
496	0.217
496	0.219
497	0.22
497	0.222
498	0.223
498	0.224
499	0.225
499	0.226
500	0.228
500	0.229
501	0.231
501	0.232
501	0.233
502	0.235
502	0.237
503	0.238
503	0.24
504	0.241
504	0.242
505	0.243
505	0.244
506	0.245
506	0.247
506	0.248
507	0.249
507	0.25
508	0.251
508	0.252
509	0.254
509	0.255
510	0.257
510	0.258
511	0.259
511	0.26
511	0.261
512	0.262
512	0.262
513	0.263
513	0.263
514	0.263
514	0.264
515	0.264
515	0.265
515	0.265
516	0.266
516	0.267
517	0.268
517	0.269
518	0.269
518	0.269
519	0.269
519	0.269
520	0.269
520	0.268
520	0.268
521	0.267
521	0.266
522	0.265
522	0.265
523	0.264
523	0.264
524	0.265
524	0.265
524	0.265
525	0.266
525	0.266
526	0.266
526	0.267
527	0.267
527	0.267
528	0.267
528	0.267
529	0.267
529	0.267
529	0.266
530	0.265
530	0.265
531	0.264
531	0.264
532	0.263
532	0.262
533	0.262
533	0.261
533	0.26
534	0.258
534	0.257
535	0.256
535	0.256
536	0.255
536	0.253
537	0.252
537	0.251
538	0.25
538	0.248
538	0.247
539	0.246
539	0.244
540	0.243
540	0.24
541	0.238
541	0.236
542	0.234
542	0.232
542	0.23
543	0.228
543	0.226
544	0.223
544	0.222
545	0.22
545	0.219
546	0.218
546	0.215
547	0.213
547	0.21
547	0.208
548	0.206
548	0.204
549	0.201
549	0.199
550	0.197
550	0.194
551	0.192
551	0.19
551	0.188
552	0.186
552	0.185
553	0.183
553	0.182
554	0.18
554	0.178
555	0.175
555	0.173
556	0.17
556	0.168
556	0.165
557	0.163
557	0.161
558	0.158
558	0.156
559	0.154
559	0.153
560	0.151
560	0.15
560	0.149
561	0.148
561	0.147
562	0.145
562	0.144
563	0.141
563	0.139
564	0.137
564	0.134
564	0.132
565	0.13
565	0.128
566	0.125
566	0.123
567	0.121
567	0.12
568	0.119
568	0.118
568	0.118
569	0.117
569	0.117
570	0.116
570	0.114
571	0.114
571	0.113
572	0.112
572	0.111
573	0.11
573	0.109
573	0.107
574	0.106
574	0.105
575	0.104
575	0.105
576	0.104
576	0.102
577	0.101
577	0.1
577	0.099
578	0.098
578	0.098
579	0.098
579	0.097
580	0.095
580	0.092
581	0.09
581	0.088
581	0.087
582	0.087
582	0.086
583	0.086
583	0.085
584	0.082
584	0.079
585	0.078
585	0.078
585	0.077
586	0.077
586	0.076
587	0.075
587	0.073
588	0.071
588	0.071
589	0.07
589	0.07
590	0.07
590	0.07
590	0.072
591	0.072
591	0.071
592	0.071
592	0.07
593	0.069
593	0.069
594	0.068
594	0.067
594	0.066
595	0.065
595	0.064
596	0.063
596	0.064
597	0.066
597	0.066
598	0.067
598	0.068
598	0.069
599	0.069
599	0.069
600	0.068
600	0.067
601	0.067
601	0.066
602	0.064
602	0.064
602	0.063
603	0.063
603	0.064
604	0.065
604	0.066
605	0.067
605	0.069
606	0.069
606	0.069
606	0.068
607	0.068
607	0.068
608	0.067
608	0.065
609	0.064
609	0.064
610	0.064
610	0.063
610	0.063
611	0.064
611	0.065
612	0.067
612	0.068
613	0.069
613	0.07
614	0.07
614	0.069
614	0.068
615	0.067
615	0.067
616	0.066
616	0.065
617	0.064
617	0.063
618	0.061
618	0.06
618	0.06
619	0.061
619	0.061
620	0.063
620	0.064
621	0.064
621	0.064
622	0.064
622	0.065
622	0.065
623	0.065
623	0.066
624	0.066
624	0.066
625	0.066
625	0.066
626	0.066
626	0.066
626	0.068
627	0.068
627	0.069
628	0.07
628	0.071
629	0.071
629	0.072
630	0.072
630	0.072
630	0.073
631	0.074
631	0.075
632	0.075
632	0.076
633	0.077
633	0.078
634	0.08
634	0.081
634	0.083
635	0.084
635	0.085
636	0.087
636	0.088
637	0.088
637	0.089
638	0.09
638	0.092
638	0.093
639	0.094
639	0.095
640	0.096
640	0.097
641	0.099
641	0.1
642	0.102
642	0.104
642	0.106
643	0.108
643	0.109
644	0.111
644	0.113
645	0.115
645	0.117
646	0.12
646	0.122
646	0.125
647	0.127
647	0.13
648	0.132
648	0.134
649	0.136
649	0.138
650	0.14
650	0.142
650	0.144
651	0.145
651	0.148
652	0.149
652	0.151
653	0.154
653	0.161
653	0.172
654	0.137
654	0.112
655	0.114
655	0.116
656	0.118
656	0.119
657	0.12
657	0.122
657	0.123
658	0.121
658	0.112
659	0.142
659	0.186
660	0.192
660	0.194
661	0.196
661	0.199
661	0.203
662	0.206
662	0.21
663	0.214
663	0.217
664	0.22
664	0.223
665	0.226
665	0.229
665	0.232
666	0.234
666	0.236
667	0.238
667	0.24
668	0.243
668	0.245
669	0.248
669	0.251
669	0.254
670	0.258
670	0.261
671	0.263
671	0.265
672	0.268
672	0.27
672	0.272
673	0.273
673	0.275
674	0.276
674	0.277
675	0.277
675	0.278
676	0.28
676	0.281
676	0.282
677	0.284
677	0.285
678	0.286
678	0.287
679	0.289
679	0.291
680	0.293
680	0.294
680	0.296
681	0.297
681	0.299
682	0.3
682	0.3
683	0.302
683	0.303
684	0.304
684	0.304
684	0.303
685	0.304
685	0.304
686	0.305
686	0.305
687	0.305
687	0.305
687	0.305
688	0.305
688	0.305
689	0.305
689	0.305
690	0.304
690	0.303
691	0.302
691	0.301
691	0.3
692	0.298
692	0.297
693	0.296
693	0.295
694	0.294
694	0.292
695	0.292
695	0.293
695	0.293
696	0.292
696	0.291
697	0.29
697	0.289
698	0.288
698	0.287
698	0.286
699	0.285
699	0.283
700	0.28
700	0.278
701	0.277
701	0.276
702	0.274
702	0.272
702	0.271
703	0.269
703	0.267
704	0.264
704	0.263
705	0.261
705	0.259
705	0.257
706	0.255
706	0.253
707	0.251
707	0.249
708	0.246
708	0.245
709	0.243
709	0.24
709	0.237
710	0.234
710	0.231
711	0.229
711	0.226
712	0.224
712	0.222
713	0.22
713	0.218
713	0.216
714	0.214
714	0.212
715	0.211
715	0.209
716	0.207
716	0.205
716	0.204
717	0.202
717	0.201
718	0.199
718	0.197
719	0.196
719	0.194
720	0.192
720	0.19
720	0.188
721	0.185
721	0.183
722	0.181
722	0.178
723	0.176
723	0.175
723	0.172
724	0.17
724	0.168
725	0.165
725	0.163
726	0.16
726	0.158
727	0.155
727	0.152
727	0.15
728	0.147
728	0.145
729	0.143
729	0.142
730	0.14
730	0.138
730	0.137
731	0.135
731	0.133
732	0.132
732	0.13
733	0.127
733	0.125
734	0.123
734	0.12
734	0.118
735	0.117
735	0.116
736	0.114
736	0.113
737	0.113
737	0.113
737	0.112
738	0.11
738	0.108
739	0.107
739	0.105
740	0.102
740	0.1
741	0.098
741	0.095
741	0.092
742	0.088
742	0.085
743	0.083
743	0.081
744	0.079
744	0.077
744	0.076
745	0.074
745	0.072
746	0.071
746	0.07
747	0.069
747	0.068
748	0.068
748	0.067
748	0.065
749	0.064
749	0.063
750	0.061
750	0.06
751	0.06
751	0.059
751	0.059
752	0.058
752	0.057
753	0.056
753	0.056
754	0.055
754	0.055
754	0.055
755	0.055
755	0.055
756	0.054
756	0.052
757	0.051
757	0.05
758	0.049
758	0.048
758	0.047
759	0.046
759	0.044
760	0.042
760	0.039
761	0.037
761	0.037
761	0.035
762	0.034
762	0.033
763	0.033
763	0.031
764	0.029
764	0.028
764	0.026
765	0.024
765	0.022
766	0.021
766	0.02
767	0.019
767	0.017
768	0.014
768	0.013
768	0.012
769	0.011
769	0.01
770	0.008
770	0.007
771	0.005
771	0.002
771	-0.001
772	-0.003
772	-0.005
773	-0.007
773	-0.01
774	-0.013
774	-0.016
775	-0.018
775	-0.021
775	-0.023
776	-0.026
776	-0.029
777	-0.031
777	-0.034
778	-0.036
778	-0.039
778	-0.041
779	-0.042
779	-0.043
780	-0.046
780	-0.048
781	-0.051
781	-0.054
781	-0.059
782	-0.063
782	-0.069
783	-0.074
783	-0.079
784	-0.085
784	-0.092
784	-0.098
785	-0.105
785	-0.111
786	-0.117
786	-0.121
787	-0.122
787	-0.124
788	-0.129
788	-0.135
788	-0.14
789	-0.145
789	-0.147
790	-0.147
790	-0.149
791	-0.151
791	-0.152
791	-0.155
792	-0.15
792	-0.139
793	-0.133
793	-0.129
794	-0.127
794	-0.13
794	-0.134
795	-0.136
795	-0.136
796	-0.137
796	-0.14
797	-0.149
797	-0.16
797	-0.166
798	-0.172
798	-0.174
799	-0.175
799	-0.174
800	-0.173
800	-0.175
801	-0.178
801	-0.178
801	-0.179
802	-0.18
802	-0.182
803	-0.182
803	-0.183
804	-0.182
804	-0.176
804	-0.17
805	-0.166
805	-0.164
806	-0.162
806	-0.161
807	-0.16
807	-0.159
807	-0.159
808	-0.159
808	-0.16
809	-0.165
809	-0.171
810	-0.175
810	-0.178
810	-0.182
811	-0.185
811	-0.185
812	-0.181
812	-0.178
813	-0.178
813	-0.179
813	-0.179
814	-0.18
814	-0.179
815	-0.176
815	-0.172
816	-0.169
816	-0.166
817	-0.165
817	-0.163
817	-0.157
818	-0.149
818	-0.14
819	-0.13
819	-0.121
820	-0.114
820	-0.107
820	-0.1
821	-0.092
821	-0.086
822	-0.08
822	-0.075
823	-0.072
823	-0.069
823	-0.067
824	-0.064
824	-0.061
825	-0.057
825	-0.054
826	-0.051
826	-0.05
826	-0.048
827	-0.046
827	-0.044
828	-0.042
828	-0.04
829	-0.039
829	-0.037
829	-0.037
830	-0.036
830	-0.035
831	-0.033
831	-0.031
832	-0.029
832	-0.028
832	-0.026
833	-0.025
833	-0.023
834	-0.021
834	-0.02
835	-0.018
835	-0.016
835	-0.015
836	-0.014
836	-0.013
837	-0.012
837	-0.011
838	-0.011
838	-0.01
839	-0.009
839	-0.009
839	-0.009
840	-0.009
840	-0.009
841	-0.008
841	-0.008
842	-0.008
842	-0.008
842	-0.008
843	-0.008
843	-0.008
844	-0.007
844	-0.007
845	-0.007
845	-0.006
845	-0.005
846	-0.005
846	-0.005
847	-0.005
847	-0.004
848	-0.004
848	-0.004
848	-0.005
849	-0.005
849	-0.005
850	-0.006
850	-0.007
851	-0.008
851	-0.008
851	-0.008
852	-0.008
852	-0.008
853	-0.007
853	-0.007
854	-0.006
854	-0.006
854	-0.005
855	-0.005
855	-0.005
856	-0.005
856	-0.005
857	-0.006
857	-0.006
857	-0.007
858	-0.007
858	-0.008
859	-0.009
859	-0.009
860	-0.009
860	-0.009
860	-0.009
861	-0.009
861	-0.009
862	-0.009
862	-0.009
863	-0.009
863	-0.009
863	-0.009
864	-0.009
864	-0.009
865	-0.008
865	-0.008
866	-0.007
866	-0.006
866	-0.005
867	-0.004
867	-0.002
868	-0.001
868	0.001
869	0.002
869	0.003
869	0.003
870	0.003
870	0.003
871	0.002
871	0.002
872	0.001
872	-0.001
872	-0.002
873	-0.003
873	-0.005
874	-0.005
874	-0.006
875	-0.006
875	-0.005
875	-0.005
876	-0.004
876	-0.004
877	-0.003
877	-0.002
878	-0.001
878	-0
878	0.001
879	0.001
879	0.002
880	0.002
880	0.003
881	0.003
881	0.003
881	0.004
882	0.004
882	0.004
883	0.003
883	0.003
884	0.003
884	0.003
884	0.002
885	0.002
885	0.002
886	0.002
886	0.002
887	0.002
887	0.001
887	0.001
888	0.001
888	0.001
889	0.001
889	0.001
890	0.001
890	0
890	-0
891	-0.001
891	-0.002
892	-0.002
892	-0.003
893	-0.004
893	-0.005
893	-0.006
894	-0.007
894	-0.008
895	-0.009
895	-0.01
895	-0.011
896	-0.011
896	-0.012
897	-0.012
897	-0.012
898	-0.012
898	-0.012
898	-0.012
899	-0.011
899	-0.01
900	-0.01
900	-0.009
901	-0.008
901	-0.007
901	-0.007
902	-0.006
902	-0.005
903	-0.005
903	-0.004
904	-0.004
904	-0.004
904	-0.003
905	-0.003
905	-0.002
906	-0.002
906	-0.001
907	-0.001
907	-0
907	0
908	0.001
908	0.001
909	0.001
909	0.002
910	0.002
910	0.002
910	0.003
911	0.003
911	0.004
912	0.004
912	0.005
913	0.005
913	0.006
913	0.005
914	0.005
914	0.004
915	0.003
915	0.002
916	0.001
916	-0.001
916	-0.003
917	-0.004
917	-0.006
918	-0.007
918	-0.007
918	-0.008
919	-0.008
919	-0.008
920	-0.007
920	-0.006
921	-0.006
921	-0.005
921	-0.004
922	-0.003
922	-0.002
923	-0.002
923	-0.001
924	-0.001
924	-0.001
924	-0.001
925	-0.001
925	-0.002
926	-0.001
926	-0.002
927	-0.002
927	-0.002
927	-0.003
928	-0.003
928	-0.003
929	-0.003
929	-0.003
930	-0.003
930	-0.003
930	-0.003
931	-0.003
931	-0.003
932	-0.002
932	-0.002
933	-0.002
933	-0.002
933	-0.001
934	-0.001
934	-0.001
935	-0.001
935	-0
935	-0
936	-0
936	-0
937	-0
937	-0
938	-0.001
938	-0.001
938	-0.001
939	-0.002
939	-0.002
940	-0.003
940	-0.003
941	-0.004
941	-0.004
941	-0.004
942	-0.003
942	-0.003
943	-0.003
943	-0.003
944	-0.003
944	-0.003
944	-0.003
945	-0.003
945	-0.003
946	-0.004
946	-0.004
946	-0.005
947	-0.005
947	-0.006
948	-0.006
948	-0.007
949	-0.007
949	-0.007
949	-0.007
950	-0.007
950	-0.007
951	-0.007
951	-0.007
952	-0.007
952	-0.006
952	-0.006
953	-0.006
953	-0.006
954	-0.006
954	-0.007
955	-0.007
955	-0.008
955	-0.008
956	-0.008
956	-0.008
957	-0.008
957	-0.009
957	-0.01
958	-0.01
958	-0.011
959	-0.011
959	-0.012
960	-0.012
960	-0.013
960	-0.014
961	-0.014
961	-0.014
962	-0.014
962	-0.014
963	-0.014
963	-0.013
963	-0.012
964	-0.011
964	-0.009
965	-0.008
965	-0.007
966	-0.006
966	-0.004
966	-0.003
967	-0.002
967	-0.001
968	-0.001
968	-0.001
968	-0.001
969	-0.001
969	-0.001
970	-0.002
970	-0.002
971	-0.003
971	-0.003
971	-0.004
972	-0.004
972	-0.004
973	-0.004
973	-0.004
974	-0.005
974	-0.005
974	-0.005
975	-0.005
975	-0.004
976	-0.005
976	-0.005
976	-0.005
977	-0.006
977	-0.007
978	-0.008
978	-0.009
979	-0.01
979	-0.011
979	-0.013
980	-0.014
980	-0.015
981	-0.016
981	-0.017
982	-0.017
982	-0.018
982	-0.017
983	-0.017
983	-0.017
984	-0.016
984	-0.015
984	-0.014
985	-0.014
985	-0.013
986	-0.012
986	-0.012
987	-0.012
987	-0.011
987	-0.011
988	-0.011
988	-0.01
989	-0.01
989	-0.01
990	-0.009
990	-0.008
990	-0.007
991	-0.006
991	-0.005
992	-0.004
992	-0.003
992	-0.002
993	-0.001
993	-0.001
994	-0
994	-0
995	0
995	-0
995	-0
996	-0.001
996	-0.001
997	-0.001
997	-0.001
997	-0.001
998	-0.001
998	-0.001
999	-0.001
999	-0.001
1000	-0
1000	0
1000	0.001
1001	0.001
1001	0.002
1002	0.002
1002	0.003
1003	0.003
1003	0.003
1003	0.003
1004	0.003
1004	0.002
1005	0.002
1005	0.001
1005	0.001
1006	-0
1006	-0.001
1007	-0.001
1007	-0.002
1008	-0.003
1008	-0.003
1008	-0.003
1009	-0.003
1009	-0.003
1010	-0.003
1010	-0.004
1010	-0.004
1011	-0.004
1011	-0.005
1012	-0.005
1012	-0.005
1013	-0.006
1013	-0.006
1013	-0.007
1014	-0.008
1014	-0.008
1015	-0.009
1015	-0.009
1016	-0.01
1016	-0.011
1016	-0.011
1017	-0.012
1017	-0.012
1018	-0.012
1018	-0.012
1018	-0.013
1019	-0.013
1019	-0.013
1020	-0.013
1020	-0.013
1021	-0.013
1021	-0.013
1021	-0.013
1022	-0.013
1022	-0.013
1023	-0.012
1023	-0.012
1023	-0.012
1024	-0.012
1024	-0.012
1025	-0.012
1025	-0.012
1026	-0.012
1026	-0.012
1026	-0.012
1027	-0.012
1027	-0.012
1028	-0.012
1028	-0.012
1028	-0.012
1029	-0.012
1029	-0.011
1030	-0.011
1030	-0.011
1031	-0.011
1031	-0.011
1031	-0.011
1032	-0.011
1032	-0.011
1033	-0.011
1033	-0.012
1033	-0.013
1034	-0.014
1034	-0.015
1035	-0.016
1035	-0.017
1036	-0.019
1036	-0.019
1036	-0.02
1037	-0.02
1037	-0.021
1038	-0.021
1038	-0.02
1039	-0.019
1039	-0.019
1039	-0.018
1040	-0.017
1040	-0.016
1041	-0.016
1041	-0.016
1041	-0.016
1042	-0.017
1042	-0.017
1043	-0.018
1043	-0.019
1044	-0.02
1044	-0.021
1044	-0.021
1045	-0.022
1045	-0.022
1046	-0.023
1046	-0.023
1046	-0.022
1047	-0.022
1047	-0.021
1048	-0.02
1048	-0.02
1049	-0.02
1049	-0.02
1049	-0.02
1050	-0.019
1050	-0.019
1051	-0.02
1051	-0.02
1051	-0.02
1052	-0.02
1052	-0.021
1053	-0.021
1053	-0.021
1053	-0.021
1054	-0.021
1054	-0.02
1055	-0.02
1055	-0.02
1056	-0.021
1056	-0.021
1056	-0.022
1057	-0.022
1057	-0.023
1058	-0.023
1058	-0.024
1058	-0.024
1059	-0.025
1059	-0.026
1060	-0.026
1060	-0.026
1061	-0.026
1061	-0.026
1061	-0.026
1062	-0.026
1062	-0.026
1063	-0.025
1063	-0.026
1063	-0.025
1064	-0.025
1064	-0.025
1065	-0.025
1065	-0.026
1066	-0.025
1066	-0.026
1066	-0.026
1067	-0.026
1067	-0.025
1068	-0.026
1068	-0.026
1068	-0.027
1069	-0.027
1069	-0.028
1070	-0.029
1070	-0.029
1071	-0.029
1071	-0.03
1071	-0.031
1072	-0.031
1072	-0.032
1073	-0.032
1073	-0.032
1073	-0.032
1074	-0.032
1074	-0.032
1075	-0.033
1075	-0.033
1076	-0.034
1076	-0.034
1076	-0.034
1077	-0.034
1077	-0.034
1078	-0.034
1078	-0.033
1078	-0.032
1079	-0.032
1079	-0.03
1080	-0.029
1080	-0.028
1080	-0.028
1081	-0.027
1081	-0.025
1082	-0.024
1082	-0.024
1083	-0.024
1083	-0.024
1083	-0.023
1084	-0.022
1084	-0.021
1085	-0.021
1085	-0.02
1085	-0.018
1086	-0.018
1086	-0.018
1087	-0.017
1087	-0.016
1088	-0.016
1088	-0.016
1088	-0.016
1089	-0.016
1089	-0.016
1090	-0.017
1090	-0.017
1090	-0.017
1091	-0.017
1091	-0.016
1092	-0.015
1092	-0.014
1092	-0.014
1093	-0.012
1093	-0.01
1094	-0.008
1094	-0.006
1095	-0.005
1095	-0.003
1095	0
1096	0.002
1096	0.004
1097	0.006
1097	0.008
1097	0.01
1098	0.011
1098	0.012
1099	0.014
1099	0.017
1100	0.019
1100	0.021
1100	0.024
1101	0.026
1101	0.028
1102	0.032
1102	0.036
1102	0.04
1103	0.045
1103	0.05
1104	0.055
1104	0.061
1104	0.068
1105	0.076
1105	0.081
1106	0.087
1106	0.098
1107	0.105
1107	0.119
1107	0.134
1108	0.187
1108	0.26
1109	0.37
1109	0.582
1109	0.793
1110	2.774
1110	-0
1111	-0
1111	-0
