Data from 15c-2a_Absorbance__680__00680.txt Node

Date: Wed Jan 17 10:03:05 CET 2024
User: Marek
Spectrometer: MAYP115816
Trigger mode: 0
Integration Time (sec): 2.000000E-1
Scans to average: 10
Electric dark correction enabled: true
Nonlinearity correction enabled: true
Boxcar width: 5
XAxis mode: Wavelengths
Number of Pixels in Spectrum: 2068
>>>>>Begin Spectral Data<<<<<
199	-1.607
199	-1.466
200	-1.305
200	-1.182
201	-1.105
201	-1.057
202	-0.986
202	-0.933
203	-0.886
203	-0.845
204	-0.821
204	-0.797
205	-0.774
205	-0.765
205	-0.763
206	-0.762
206	-0.758
207	-0.756
207	-0.751
208	-0.75
208	-0.749
209	-0.745
209	-0.744
210	-0.743
210	-0.743
211	-0.742
211	-0.741
212	-0.742
212	-0.741
213	-0.741
213	-0.74
213	-0.739
214	-0.738
214	-0.737
215	-0.737
215	-0.735
216	-0.735
216	-0.732
217	-0.728
217	-0.726
218	-0.724
218	-0.721
219	-0.719
219	-0.717
220	-0.713
220	-0.71
221	-0.705
221	-0.701
221	-0.697
222	-0.694
222	-0.69
223	-0.684
223	-0.68
224	-0.675
224	-0.667
225	-0.659
225	-0.652
226	-0.644
226	-0.632
227	-0.619
227	-0.606
228	-0.59
228	-0.573
229	-0.553
229	-0.529
229	-0.503
230	-0.475
230	-0.445
231	-0.412
231	-0.377
232	-0.342
232	-0.304
233	-0.263
233	-0.222
234	-0.181
234	-0.141
235	-0.103
235	-0.066
236	-0.03
236	0.004
236	0.037
237	0.067
237	0.095
238	0.12
238	0.144
239	0.165
239	0.185
240	0.203
240	0.219
241	0.234
241	0.247
242	0.258
242	0.269
243	0.279
243	0.287
243	0.295
244	0.303
244	0.309
245	0.315
245	0.321
246	0.326
246	0.331
247	0.336
247	0.341
248	0.345
248	0.348
249	0.352
249	0.355
250	0.358
250	0.361
250	0.364
251	0.366
251	0.368
252	0.371
252	0.372
253	0.374
253	0.376
254	0.377
254	0.379
255	0.38
255	0.382
256	0.383
256	0.383
257	0.384
257	0.385
258	0.385
258	0.386
258	0.386
259	0.386
259	0.386
260	0.386
260	0.385
261	0.385
261	0.385
262	0.384
262	0.384
263	0.383
263	0.383
264	0.382
264	0.381
265	0.38
265	0.379
265	0.378
266	0.377
266	0.376
267	0.374
267	0.373
268	0.372
268	0.37
269	0.368
269	0.367
270	0.365
270	0.363
271	0.362
271	0.36
272	0.358
272	0.356
272	0.354
273	0.352
273	0.35
274	0.347
274	0.346
275	0.343
275	0.341
276	0.339
276	0.337
277	0.335
277	0.333
278	0.331
278	0.329
278	0.326
279	0.324
279	0.322
280	0.32
280	0.318
281	0.316
281	0.313
282	0.311
282	0.309
283	0.308
283	0.306
284	0.304
284	0.302
285	0.301
285	0.299
285	0.297
286	0.296
286	0.294
287	0.293
287	0.291
288	0.29
288	0.288
289	0.286
289	0.285
290	0.284
290	0.282
291	0.281
291	0.279
292	0.278
292	0.277
292	0.275
293	0.274
293	0.273
294	0.272
294	0.271
295	0.27
295	0.269
296	0.268
296	0.267
297	0.266
297	0.265
298	0.265
298	0.264
298	0.263
299	0.262
299	0.262
300	0.261
300	0.26
301	0.26
301	0.259
302	0.258
302	0.257
303	0.257
303	0.256
304	0.255
304	0.254
305	0.254
305	0.253
305	0.252
306	0.252
306	0.251
307	0.25
307	0.25
308	0.249
308	0.248
309	0.248
309	0.247
310	0.247
310	0.246
311	0.245
311	0.245
311	0.244
312	0.243
312	0.243
313	0.242
313	0.241
314	0.24
314	0.24
315	0.239
315	0.239
316	0.238
316	0.237
317	0.236
317	0.236
318	0.235
318	0.234
318	0.233
319	0.233
319	0.232
320	0.231
320	0.23
321	0.23
321	0.229
322	0.228
322	0.228
323	0.227
323	0.226
324	0.225
324	0.225
324	0.224
325	0.223
325	0.223
326	0.222
326	0.221
327	0.221
327	0.22
328	0.219
328	0.219
329	0.218
329	0.217
330	0.217
330	0.216
330	0.215
331	0.214
331	0.214
332	0.213
332	0.212
333	0.211
333	0.211
334	0.21
334	0.21
335	0.209
335	0.208
336	0.208
336	0.207
336	0.207
337	0.206
337	0.205
338	0.205
338	0.204
339	0.204
339	0.203
340	0.203
340	0.202
341	0.202
341	0.201
342	0.201
342	0.2
342	0.2
343	0.2
343	0.199
344	0.199
344	0.198
345	0.198
345	0.197
346	0.196
346	0.196
347	0.196
347	0.196
348	0.195
348	0.195
348	0.194
349	0.194
349	0.193
350	0.193
350	0.192
351	0.192
351	0.191
352	0.191
352	0.191
353	0.19
353	0.19
354	0.19
354	0.189
354	0.189
355	0.188
355	0.188
356	0.188
356	0.187
357	0.187
357	0.187
358	0.186
358	0.186
359	0.186
359	0.186
360	0.186
360	0.186
360	0.186
361	0.186
361	0.186
362	0.186
362	0.186
363	0.186
363	0.186
364	0.186
364	0.186
365	0.186
365	0.185
366	0.185
366	0.185
366	0.184
367	0.184
367	0.184
368	0.184
368	0.183
369	0.183
369	0.183
370	0.183
370	0.182
371	0.182
371	0.182
372	0.182
372	0.182
372	0.182
373	0.181
373	0.181
374	0.181
374	0.181
375	0.181
375	0.18
376	0.18
376	0.18
377	0.18
377	0.18
378	0.18
378	0.18
378	0.18
379	0.18
379	0.18
380	0.18
380	0.18
381	0.179
381	0.179
382	0.179
382	0.179
383	0.178
383	0.178
383	0.178
384	0.178
384	0.177
385	0.177
385	0.177
386	0.177
386	0.177
387	0.177
387	0.177
388	0.177
388	0.177
389	0.177
389	0.177
389	0.177
390	0.177
390	0.176
391	0.176
391	0.176
392	0.176
392	0.176
393	0.176
393	0.176
394	0.176
394	0.176
394	0.175
395	0.175
395	0.175
396	0.175
396	0.175
397	0.175
397	0.175
398	0.175
398	0.174
399	0.174
399	0.174
400	0.174
400	0.174
400	0.173
401	0.173
401	0.172
402	0.172
402	0.171
403	0.171
403	0.171
404	0.171
404	0.17
405	0.17
405	0.17
405	0.17
406	0.169
406	0.169
407	0.169
407	0.169
408	0.169
408	0.168
409	0.168
409	0.168
410	0.167
410	0.167
411	0.167
411	0.167
411	0.167
412	0.167
412	0.167
413	0.167
413	0.167
414	0.167
414	0.167
415	0.167
415	0.166
416	0.166
416	0.166
416	0.166
417	0.166
417	0.166
418	0.166
418	0.166
419	0.166
419	0.166
420	0.167
420	0.167
421	0.167
421	0.167
421	0.167
422	0.167
422	0.168
423	0.167
423	0.167
424	0.167
424	0.167
425	0.166
425	0.166
426	0.166
426	0.165
427	0.165
427	0.165
427	0.165
428	0.165
428	0.165
429	0.165
429	0.165
430	0.165
430	0.165
431	0.165
431	0.165
432	0.165
432	0.164
432	0.164
433	0.163
433	0.163
434	0.163
434	0.163
435	0.163
435	0.163
436	0.163
436	0.163
437	0.163
437	0.163
437	0.163
438	0.163
438	0.163
439	0.163
439	0.163
440	0.163
440	0.163
441	0.163
441	0.162
442	0.162
442	0.162
442	0.162
443	0.162
443	0.162
444	0.162
444	0.162
445	0.162
445	0.162
446	0.162
446	0.162
447	0.162
447	0.162
447	0.162
448	0.162
448	0.162
449	0.162
449	0.162
450	0.162
450	0.162
451	0.162
451	0.162
452	0.162
452	0.162
452	0.162
453	0.162
453	0.162
454	0.162
454	0.162
455	0.162
455	0.162
456	0.162
456	0.162
457	0.162
457	0.162
458	0.162
458	0.162
458	0.162
459	0.162
459	0.162
460	0.162
460	0.162
461	0.161
461	0.161
462	0.161
462	0.161
463	0.162
463	0.162
463	0.162
464	0.163
464	0.163
465	0.163
465	0.163
466	0.164
466	0.164
467	0.164
467	0.165
467	0.165
468	0.164
468	0.164
469	0.164
469	0.164
470	0.163
470	0.163
471	0.163
471	0.163
472	0.163
472	0.163
472	0.163
473	0.164
473	0.164
474	0.165
474	0.165
475	0.166
475	0.166
476	0.166
476	0.166
477	0.166
477	0.167
477	0.167
478	0.167
478	0.167
479	0.168
479	0.168
480	0.169
480	0.17
481	0.171
481	0.172
482	0.173
482	0.173
482	0.174
483	0.176
483	0.177
484	0.178
484	0.179
485	0.18
485	0.181
486	0.181
486	0.182
487	0.183
487	0.184
487	0.184
488	0.185
488	0.185
489	0.186
489	0.187
490	0.187
490	0.188
491	0.189
491	0.19
492	0.191
492	0.192
492	0.192
493	0.193
493	0.194
494	0.195
494	0.196
495	0.198
495	0.199
496	0.201
496	0.202
496	0.204
497	0.205
497	0.207
498	0.208
498	0.209
499	0.211
499	0.212
500	0.213
500	0.214
501	0.216
501	0.217
501	0.218
502	0.22
502	0.221
503	0.223
503	0.224
504	0.225
504	0.226
505	0.227
505	0.228
506	0.23
506	0.231
506	0.232
507	0.233
507	0.234
508	0.235
508	0.237
509	0.238
509	0.24
510	0.241
510	0.242
511	0.243
511	0.244
511	0.245
512	0.245
512	0.246
513	0.246
513	0.246
514	0.247
514	0.247
515	0.248
515	0.248
515	0.248
516	0.249
516	0.249
517	0.25
517	0.251
518	0.251
518	0.251
519	0.252
519	0.252
520	0.251
520	0.251
520	0.25
521	0.25
521	0.249
522	0.248
522	0.247
523	0.247
523	0.247
524	0.247
524	0.247
524	0.247
525	0.247
525	0.248
526	0.248
526	0.249
527	0.249
527	0.25
528	0.25
528	0.25
529	0.25
529	0.25
529	0.249
530	0.249
530	0.248
531	0.247
531	0.247
532	0.246
532	0.245
533	0.244
533	0.243
533	0.242
534	0.241
534	0.24
535	0.239
535	0.239
536	0.238
536	0.236
537	0.235
537	0.234
538	0.233
538	0.232
538	0.231
539	0.229
539	0.228
540	0.227
540	0.225
541	0.223
541	0.221
542	0.219
542	0.218
542	0.216
543	0.214
543	0.212
544	0.21
544	0.208
545	0.206
545	0.205
546	0.204
546	0.202
547	0.2
547	0.197
547	0.195
548	0.193
548	0.191
549	0.189
549	0.187
550	0.185
550	0.182
551	0.18
551	0.178
551	0.176
552	0.175
552	0.173
553	0.172
553	0.17
554	0.169
554	0.166
555	0.164
555	0.162
556	0.16
556	0.157
556	0.155
557	0.153
557	0.15
558	0.148
558	0.146
559	0.144
559	0.142
560	0.141
560	0.139
560	0.138
561	0.137
561	0.136
562	0.135
562	0.133
563	0.131
563	0.129
564	0.127
564	0.124
564	0.122
565	0.12
565	0.118
566	0.116
566	0.113
567	0.112
567	0.111
568	0.11
568	0.109
568	0.109
569	0.108
569	0.108
570	0.107
570	0.106
571	0.105
571	0.105
572	0.104
572	0.103
573	0.102
573	0.101
573	0.1
574	0.099
574	0.098
575	0.097
575	0.097
576	0.097
576	0.096
577	0.094
577	0.094
577	0.093
578	0.092
578	0.091
579	0.091
579	0.09
580	0.089
580	0.086
581	0.084
581	0.083
581	0.082
582	0.081
582	0.08
583	0.08
583	0.078
584	0.076
584	0.073
585	0.072
585	0.072
585	0.071
586	0.071
586	0.071
587	0.07
587	0.068
588	0.067
588	0.066
589	0.066
589	0.066
590	0.066
590	0.066
590	0.067
591	0.066
591	0.066
592	0.065
592	0.065
593	0.064
593	0.064
594	0.063
594	0.062
594	0.06
595	0.06
595	0.059
596	0.058
596	0.059
597	0.06
597	0.06
598	0.061
598	0.062
598	0.063
599	0.063
599	0.063
600	0.062
600	0.062
601	0.061
601	0.06
602	0.059
602	0.059
602	0.058
603	0.058
603	0.058
604	0.059
604	0.06
605	0.061
605	0.063
606	0.063
606	0.063
606	0.063
607	0.063
607	0.063
608	0.062
608	0.06
609	0.06
609	0.06
610	0.059
610	0.059
610	0.059
611	0.06
611	0.061
612	0.062
612	0.063
613	0.065
613	0.066
614	0.066
614	0.064
614	0.064
615	0.063
615	0.062
616	0.062
616	0.061
617	0.06
617	0.059
618	0.057
618	0.056
618	0.056
619	0.056
619	0.057
620	0.059
620	0.059
621	0.059
621	0.06
622	0.06
622	0.061
622	0.061
623	0.061
623	0.062
624	0.062
624	0.062
625	0.062
625	0.062
626	0.062
626	0.063
626	0.064
627	0.064
627	0.065
628	0.066
628	0.066
629	0.067
629	0.067
630	0.068
630	0.068
630	0.069
631	0.07
631	0.07
632	0.071
632	0.072
633	0.073
633	0.074
634	0.075
634	0.077
634	0.078
635	0.079
635	0.08
636	0.081
636	0.082
637	0.082
637	0.083
638	0.084
638	0.085
638	0.086
639	0.087
639	0.088
640	0.089
640	0.09
641	0.091
641	0.092
642	0.094
642	0.096
642	0.098
643	0.1
643	0.102
644	0.104
644	0.106
645	0.108
645	0.111
646	0.113
646	0.116
646	0.118
647	0.121
647	0.124
648	0.126
648	0.127
649	0.129
649	0.131
650	0.133
650	0.135
650	0.137
651	0.139
651	0.141
652	0.143
652	0.144
653	0.147
653	0.153
653	0.159
654	0.127
654	0.104
655	0.107
655	0.109
656	0.11
656	0.111
657	0.113
657	0.114
657	0.115
658	0.113
658	0.107
659	0.136
659	0.177
660	0.181
660	0.183
661	0.186
661	0.189
661	0.192
662	0.196
662	0.199
663	0.202
663	0.206
664	0.209
664	0.211
665	0.214
665	0.217
665	0.219
666	0.221
666	0.223
667	0.224
667	0.226
668	0.229
668	0.231
669	0.234
669	0.237
669	0.24
670	0.243
670	0.246
671	0.248
671	0.251
672	0.253
672	0.255
672	0.257
673	0.258
673	0.26
674	0.26
674	0.261
675	0.262
675	0.263
676	0.264
676	0.265
676	0.266
677	0.268
677	0.269
678	0.271
678	0.272
679	0.273
679	0.275
680	0.277
680	0.279
680	0.28
681	0.281
681	0.283
682	0.284
682	0.285
683	0.286
683	0.288
684	0.289
684	0.289
684	0.289
685	0.289
685	0.289
686	0.289
686	0.289
687	0.289
687	0.289
687	0.289
688	0.289
688	0.289
689	0.289
689	0.29
690	0.289
690	0.289
691	0.288
691	0.287
691	0.286
692	0.285
692	0.284
693	0.283
693	0.282
694	0.281
694	0.279
695	0.278
695	0.279
695	0.279
696	0.278
696	0.277
697	0.276
697	0.275
698	0.274
698	0.273
698	0.272
699	0.271
699	0.269
700	0.266
700	0.265
701	0.263
701	0.261
702	0.26
702	0.258
702	0.256
703	0.254
703	0.252
704	0.25
704	0.248
705	0.247
705	0.245
705	0.243
706	0.242
706	0.24
707	0.239
707	0.237
708	0.235
708	0.233
709	0.231
709	0.229
709	0.226
710	0.223
710	0.22
711	0.217
711	0.215
712	0.212
712	0.21
713	0.208
713	0.206
713	0.204
714	0.202
714	0.2
715	0.199
715	0.197
716	0.195
716	0.194
716	0.193
717	0.192
717	0.191
718	0.189
718	0.188
719	0.186
719	0.185
720	0.183
720	0.181
720	0.179
721	0.176
721	0.174
722	0.171
722	0.168
723	0.166
723	0.165
723	0.162
724	0.16
724	0.158
725	0.156
725	0.154
726	0.152
726	0.15
727	0.147
727	0.145
727	0.143
728	0.14
728	0.138
729	0.136
729	0.135
730	0.133
730	0.131
730	0.129
731	0.127
731	0.126
732	0.124
732	0.123
733	0.12
733	0.119
734	0.116
734	0.114
734	0.112
735	0.111
735	0.109
736	0.108
736	0.107
737	0.106
737	0.106
737	0.105
738	0.104
738	0.102
739	0.101
739	0.099
740	0.096
740	0.094
741	0.092
741	0.089
741	0.086
742	0.082
742	0.079
743	0.077
743	0.075
744	0.073
744	0.072
744	0.07
745	0.069
745	0.067
746	0.066
746	0.065
747	0.064
747	0.064
748	0.063
748	0.062
748	0.06
749	0.059
749	0.058
750	0.057
750	0.056
751	0.055
751	0.055
751	0.055
752	0.054
752	0.053
753	0.053
753	0.053
754	0.053
754	0.052
754	0.052
755	0.052
755	0.052
756	0.052
756	0.05
757	0.049
757	0.048
758	0.047
758	0.045
758	0.044
759	0.043
759	0.041
760	0.038
760	0.036
761	0.034
761	0.033
761	0.031
762	0.029
762	0.029
763	0.028
763	0.027
764	0.025
764	0.023
764	0.022
765	0.02
765	0.018
766	0.017
766	0.017
767	0.016
767	0.014
768	0.012
768	0.01
768	0.009
769	0.008
769	0.007
770	0.006
770	0.005
771	0.002
771	-0
771	-0.003
772	-0.005
772	-0.007
773	-0.01
773	-0.012
774	-0.015
774	-0.017
775	-0.02
775	-0.022
775	-0.025
776	-0.027
776	-0.03
777	-0.033
777	-0.035
778	-0.038
778	-0.041
778	-0.043
779	-0.045
779	-0.047
780	-0.05
780	-0.053
781	-0.056
781	-0.059
781	-0.064
782	-0.069
782	-0.074
783	-0.079
783	-0.084
784	-0.09
784	-0.097
784	-0.103
785	-0.109
785	-0.116
786	-0.122
786	-0.125
787	-0.125
787	-0.127
788	-0.132
788	-0.137
788	-0.142
789	-0.147
789	-0.149
790	-0.148
790	-0.149
791	-0.151
791	-0.152
791	-0.155
792	-0.15
792	-0.139
793	-0.133
793	-0.129
794	-0.127
794	-0.13
794	-0.134
795	-0.136
795	-0.136
796	-0.137
796	-0.14
797	-0.149
797	-0.16
797	-0.166
798	-0.172
798	-0.174
799	-0.175
799	-0.174
800	-0.173
800	-0.175
801	-0.178
801	-0.178
801	-0.179
802	-0.18
802	-0.182
803	-0.182
803	-0.183
804	-0.182
804	-0.176
804	-0.17
805	-0.166
805	-0.164
806	-0.162
806	-0.161
807	-0.16
807	-0.159
807	-0.159
808	-0.159
808	-0.16
809	-0.165
809	-0.171
810	-0.175
810	-0.178
810	-0.181
811	-0.185
811	-0.185
812	-0.181
812	-0.178
813	-0.178
813	-0.179
813	-0.179
814	-0.18
814	-0.179
815	-0.176
815	-0.172
816	-0.168
816	-0.165
817	-0.165
817	-0.162
817	-0.155
818	-0.147
818	-0.138
819	-0.128
819	-0.119
820	-0.111
820	-0.104
820	-0.096
821	-0.089
821	-0.082
822	-0.077
822	-0.072
823	-0.068
823	-0.066
823	-0.063
824	-0.061
824	-0.057
825	-0.054
825	-0.051
826	-0.048
826	-0.046
826	-0.044
827	-0.042
827	-0.04
828	-0.038
828	-0.037
829	-0.035
829	-0.034
829	-0.033
830	-0.032
830	-0.031
831	-0.03
831	-0.028
832	-0.027
832	-0.025
832	-0.023
833	-0.022
833	-0.02
834	-0.019
834	-0.017
835	-0.015
835	-0.014
835	-0.013
836	-0.012
836	-0.011
837	-0.011
837	-0.01
838	-0.01
838	-0.01
839	-0.009
839	-0.009
839	-0.009
840	-0.009
840	-0.009
841	-0.009
841	-0.009
842	-0.009
842	-0.009
842	-0.009
843	-0.009
843	-0.009
844	-0.01
844	-0.009
845	-0.009
845	-0.009
845	-0.009
846	-0.009
846	-0.008
847	-0.008
847	-0.008
848	-0.008
848	-0.008
848	-0.008
849	-0.008
849	-0.009
850	-0.009
850	-0.01
851	-0.01
851	-0.01
851	-0.01
852	-0.01
852	-0.01
853	-0.009
853	-0.009
854	-0.008
854	-0.007
854	-0.007
855	-0.006
855	-0.006
856	-0.006
856	-0.006
857	-0.006
857	-0.007
857	-0.007
858	-0.007
858	-0.008
859	-0.009
859	-0.009
860	-0.01
860	-0.01
860	-0.01
861	-0.009
861	-0.009
862	-0.009
862	-0.009
863	-0.009
863	-0.009
863	-0.008
864	-0.008
864	-0.008
865	-0.007
865	-0.006
866	-0.006
866	-0.005
866	-0.004
867	-0.002
867	-0.001
868	0.001
868	0.002
869	0.003
869	0.004
869	0.004
870	0.004
870	0.003
871	0.003
871	0.002
872	0
872	-0.001
872	-0.003
873	-0.004
873	-0.006
874	-0.007
874	-0.007
875	-0.007
875	-0.007
875	-0.007
876	-0.007
876	-0.006
877	-0.005
877	-0.004
878	-0.003
878	-0.002
878	-0.001
879	0.001
879	0.002
880	0.002
880	0.003
881	0.003
881	0.004
881	0.004
882	0.004
882	0.004
883	0.003
883	0.003
884	0.002
884	0.002
884	0.001
885	0.001
885	0.001
886	0.001
886	0.001
887	0.001
887	0.001
887	0.001
888	0.002
888	0.002
889	0.002
889	0.002
890	0.002
890	0.001
890	0.001
891	0.001
891	0
892	-0
892	-0.001
893	-0.002
893	-0.003
893	-0.003
894	-0.004
894	-0.005
895	-0.006
895	-0.007
895	-0.008
896	-0.009
896	-0.009
897	-0.01
897	-0.01
898	-0.009
898	-0.009
898	-0.009
899	-0.008
899	-0.007
900	-0.007
900	-0.006
901	-0.005
901	-0.004
901	-0.003
902	-0.003
902	-0.003
903	-0.003
903	-0.003
904	-0.003
904	-0.003
904	-0.002
905	-0.002
905	-0.002
906	-0.001
906	-0.001
907	0
907	0.001
907	0.002
908	0.002
908	0.003
909	0.003
909	0.004
910	0.004
910	0.005
910	0.005
911	0.005
911	0.005
912	0.005
912	0.005
913	0.005
913	0.005
913	0.004
914	0.004
914	0.003
915	0.001
915	0
916	-0.001
916	-0.003
916	-0.004
917	-0.006
917	-0.007
918	-0.008
918	-0.008
918	-0.009
919	-0.009
919	-0.008
920	-0.008
920	-0.007
921	-0.007
921	-0.006
921	-0.005
922	-0.005
922	-0.004
923	-0.003
923	-0.002
924	-0.002
924	-0.002
924	-0.002
925	-0.002
925	-0.002
926	-0.002
926	-0.002
927	-0.003
927	-0.003
927	-0.003
928	-0.003
928	-0.004
929	-0.003
929	-0.003
930	-0.003
930	-0.002
930	-0.001
931	-0.001
931	0
932	0.001
932	0.002
933	0.002
933	0.003
933	0.004
934	0.004
934	0.004
935	0.005
935	0.005
935	0.005
936	0.005
936	0.005
937	0.005
937	0.005
938	0.004
938	0.004
938	0.003
939	0.003
939	0.002
940	0.001
940	0
941	0
941	-0
941	-0
942	0
942	0
943	0
943	0
944	0.001
944	0.001
944	0.001
945	0.001
945	0.001
946	0.001
946	0.001
946	0
947	0
947	-0.001
948	-0.001
948	-0.002
949	-0.002
949	-0.002
949	-0.002
950	-0.003
950	-0.003
951	-0.002
951	-0.002
952	-0.002
952	-0.002
952	-0.001
953	-0.001
953	-0.001
954	-0.001
954	-0.002
955	-0.002
955	-0.002
955	-0.002
956	-0.003
956	-0.003
957	-0.004
957	-0.004
957	-0.005
958	-0.006
958	-0.007
959	-0.008
959	-0.009
960	-0.01
960	-0.011
960	-0.012
961	-0.013
961	-0.013
962	-0.014
962	-0.014
963	-0.013
963	-0.013
963	-0.012
964	-0.011
964	-0.01
965	-0.009
965	-0.008
966	-0.006
966	-0.005
966	-0.004
967	-0.003
967	-0.003
968	-0.002
968	-0.002
968	-0.001
969	-0.001
969	-0.001
970	-0.002
970	-0.002
971	-0.002
971	-0.002
971	-0.003
972	-0.003
972	-0.003
973	-0.003
973	-0.003
974	-0.003
974	-0.003
974	-0.003
975	-0.002
975	-0.002
976	-0.002
976	-0.002
976	-0.003
977	-0.003
977	-0.004
978	-0.005
978	-0.006
979	-0.007
979	-0.008
979	-0.008
980	-0.009
980	-0.01
981	-0.011
981	-0.012
982	-0.012
982	-0.012
982	-0.012
983	-0.011
983	-0.011
984	-0.01
984	-0.01
984	-0.009
985	-0.008
985	-0.007
986	-0.007
986	-0.007
987	-0.007
987	-0.007
987	-0.007
988	-0.007
988	-0.006
989	-0.006
989	-0.006
990	-0.005
990	-0.005
990	-0.004
991	-0.003
991	-0.002
992	-0.001
992	-0.001
992	0
993	0.001
993	0.001
994	0.002
994	0.002
995	0.003
995	0.003
995	0.003
996	0.003
996	0.003
997	0.002
997	0.002
997	0.002
998	0.002
998	0.002
999	0.002
999	0.003
1000	0.003
1000	0.004
1000	0.004
1001	0.005
1001	0.005
1002	0.006
1002	0.006
1003	0.006
1003	0.006
1003	0.006
1004	0.006
1004	0.006
1005	0.005
1005	0.005
1005	0.004
1006	0.003
1006	0.003
1007	0.002
1007	0.001
1008	0.001
1008	0.001
1008	0.001
1009	0.001
1009	0.001
1010	0.001
1010	0.001
1010	0.001
1011	0.001
1011	0.001
1012	0.001
1012	0.002
1013	0.001
1013	0.001
1013	0.001
1014	0
1014	-0
1015	-0
1015	-0.001
1016	-0.001
1016	-0.001
1016	-0.001
1017	-0.001
1017	-0.001
1018	-0.001
1018	-0.001
1018	-0.001
1019	-0.001
1019	-0.001
1020	-0.002
1020	-0.002
1021	-0.002
1021	-0.002
1021	-0.002
1022	-0.002
1022	-0.002
1023	-0.003
1023	-0.003
1023	-0.003
1024	-0.003
1024	-0.003
1025	-0.003
1025	-0.003
1026	-0.004
1026	-0.004
1026	-0.004
1027	-0.004
1027	-0.004
1028	-0.003
1028	-0.003
1028	-0.003
1029	-0.003
1029	-0.003
1030	-0.002
1030	-0.002
1031	-0.002
1031	-0.002
1031	-0.002
1032	-0.002
1032	-0.002
1033	-0.002
1033	-0.002
1033	-0.003
1034	-0.004
1034	-0.005
1035	-0.006
1035	-0.008
1036	-0.009
1036	-0.01
1036	-0.01
1037	-0.011
1037	-0.011
1038	-0.012
1038	-0.011
1039	-0.011
1039	-0.011
1039	-0.01
1040	-0.01
1040	-0.01
1041	-0.01
1041	-0.01
1041	-0.01
1042	-0.011
1042	-0.011
1043	-0.012
1043	-0.013
1044	-0.014
1044	-0.015
1044	-0.015
1045	-0.015
1045	-0.015
1046	-0.016
1046	-0.015
1046	-0.015
1047	-0.014
1047	-0.013
1048	-0.012
1048	-0.012
1049	-0.011
1049	-0.011
1049	-0.011
1050	-0.011
1050	-0.011
1051	-0.011
1051	-0.01
1051	-0.01
1052	-0.01
1052	-0.011
1053	-0.011
1053	-0.011
1053	-0.011
1054	-0.011
1054	-0.01
1055	-0.01
1055	-0.01
1056	-0.011
1056	-0.011
1056	-0.012
1057	-0.013
1057	-0.013
1058	-0.014
1058	-0.014
1058	-0.014
1059	-0.015
1059	-0.016
1060	-0.017
1060	-0.017
1061	-0.017
1061	-0.017
1061	-0.017
1062	-0.017
1062	-0.017
1063	-0.017
1063	-0.017
1063	-0.017
1064	-0.016
1064	-0.016
1065	-0.016
1065	-0.016
1066	-0.016
1066	-0.016
1066	-0.016
1067	-0.016
1067	-0.016
1068	-0.016
1068	-0.017
1068	-0.017
1069	-0.018
1069	-0.019
1070	-0.019
1070	-0.019
1071	-0.02
1071	-0.02
1071	-0.021
1072	-0.021
1072	-0.021
1073	-0.021
1073	-0.021
1073	-0.021
1074	-0.021
1074	-0.02
1075	-0.021
1075	-0.021
1076	-0.022
1076	-0.021
1076	-0.021
1077	-0.021
1077	-0.021
1078	-0.021
1078	-0.02
1078	-0.019
1079	-0.018
1079	-0.017
1080	-0.015
1080	-0.014
1080	-0.013
1081	-0.012
1081	-0.01
1082	-0.009
1082	-0.008
1083	-0.008
1083	-0.007
1083	-0.006
1084	-0.006
1084	-0.005
1085	-0.004
1085	-0.003
1085	-0.001
1086	-0
1086	0
1087	0.001
1087	0.002
1088	0.002
1088	0.003
1088	0.003
1089	0.002
1089	0.003
1090	0.004
1090	0.004
1090	0.004
1091	0.005
1091	0.006
1092	0.007
1092	0.009
1092	0.01
1093	0.012
1093	0.016
1094	0.018
1094	0.02
1095	0.023
1095	0.025
1095	0.029
1096	0.03
1096	0.033
1097	0.036
1097	0.038
1097	0.04
1098	0.042
1098	0.045
1099	0.047
1099	0.051
1100	0.054
1100	0.056
1100	0.06
1101	0.064
1101	0.068
1102	0.073
1102	0.078
1102	0.085
1103	0.091
1103	0.099
1104	0.105
1104	0.114
1104	0.123
1105	0.134
1105	0.143
1106	0.152
1106	0.163
1107	0.175
1107	0.193
1107	0.213
1108	0.278
1108	0.376
1109	0.537
1109	0.932
1109	2.109
1110	-0
1110	-0
1111	-0
1111	-0
