Data from 15c-2a_Absorbance__672__00672.txt Node

Date: Wed Jan 17 10:02:49 CET 2024
User: Marek
Spectrometer: MAYP115816
Trigger mode: 0
Integration Time (sec): 2.000000E-1
Scans to average: 10
Electric dark correction enabled: true
Nonlinearity correction enabled: true
Boxcar width: 5
XAxis mode: Wavelengths
Number of Pixels in Spectrum: 2068
>>>>>Begin Spectral Data<<<<<
199	-1.605
199	-1.464
200	-1.303
200	-1.179
201	-1.102
201	-1.054
202	-0.982
202	-0.929
203	-0.882
203	-0.842
204	-0.817
204	-0.793
205	-0.77
205	-0.76
205	-0.759
206	-0.758
206	-0.754
207	-0.752
207	-0.749
208	-0.747
208	-0.746
209	-0.742
209	-0.74
210	-0.739
210	-0.74
211	-0.739
211	-0.738
212	-0.738
212	-0.737
213	-0.735
213	-0.735
213	-0.734
214	-0.732
214	-0.732
215	-0.731
215	-0.729
216	-0.729
216	-0.727
217	-0.722
217	-0.72
218	-0.72
218	-0.716
219	-0.713
219	-0.713
220	-0.709
220	-0.706
221	-0.701
221	-0.697
221	-0.692
222	-0.689
222	-0.684
223	-0.678
223	-0.676
224	-0.671
224	-0.665
225	-0.656
225	-0.649
226	-0.64
226	-0.627
227	-0.615
227	-0.602
228	-0.587
228	-0.569
229	-0.549
229	-0.525
229	-0.498
230	-0.471
230	-0.441
231	-0.408
231	-0.374
232	-0.339
232	-0.3
233	-0.259
233	-0.218
234	-0.178
234	-0.137
235	-0.098
235	-0.06
236	-0.024
236	0.011
236	0.043
237	0.074
237	0.102
238	0.127
238	0.151
239	0.173
239	0.193
240	0.211
240	0.227
241	0.242
241	0.256
242	0.268
242	0.279
243	0.29
243	0.298
243	0.307
244	0.314
244	0.321
245	0.327
245	0.333
246	0.338
246	0.343
247	0.347
247	0.352
248	0.356
248	0.359
249	0.363
249	0.366
250	0.369
250	0.372
250	0.375
251	0.377
251	0.38
252	0.382
252	0.384
253	0.386
253	0.387
254	0.389
254	0.39
255	0.392
255	0.393
256	0.394
256	0.395
257	0.396
257	0.397
258	0.397
258	0.397
258	0.398
259	0.398
259	0.398
260	0.398
260	0.398
261	0.397
261	0.397
262	0.397
262	0.396
263	0.395
263	0.395
264	0.394
264	0.393
265	0.392
265	0.391
265	0.39
266	0.389
266	0.387
267	0.386
267	0.385
268	0.383
268	0.382
269	0.38
269	0.378
270	0.377
270	0.375
271	0.373
271	0.371
272	0.369
272	0.367
272	0.365
273	0.363
273	0.361
274	0.359
274	0.357
275	0.355
275	0.353
276	0.351
276	0.349
277	0.347
277	0.344
278	0.342
278	0.34
278	0.338
279	0.335
279	0.333
280	0.331
280	0.329
281	0.327
281	0.325
282	0.323
282	0.321
283	0.319
283	0.317
284	0.315
284	0.313
285	0.312
285	0.31
285	0.308
286	0.306
286	0.305
287	0.303
287	0.302
288	0.3
288	0.299
289	0.297
289	0.296
290	0.294
290	0.292
291	0.291
291	0.29
292	0.288
292	0.287
292	0.285
293	0.284
293	0.283
294	0.282
294	0.281
295	0.28
295	0.279
296	0.278
296	0.277
297	0.276
297	0.275
298	0.274
298	0.273
298	0.273
299	0.272
299	0.271
300	0.27
300	0.27
301	0.269
301	0.268
302	0.268
302	0.267
303	0.266
303	0.266
304	0.265
304	0.264
305	0.264
305	0.263
305	0.262
306	0.261
306	0.26
307	0.26
307	0.259
308	0.258
308	0.258
309	0.257
309	0.257
310	0.256
310	0.255
311	0.254
311	0.254
311	0.253
312	0.252
312	0.252
313	0.251
313	0.25
314	0.249
314	0.249
315	0.248
315	0.247
316	0.247
316	0.246
317	0.245
317	0.245
318	0.244
318	0.243
318	0.243
319	0.242
319	0.241
320	0.24
320	0.239
321	0.239
321	0.238
322	0.237
322	0.236
323	0.236
323	0.235
324	0.234
324	0.233
324	0.233
325	0.232
325	0.231
326	0.231
326	0.23
327	0.229
327	0.228
328	0.228
328	0.227
329	0.226
329	0.226
330	0.225
330	0.224
330	0.224
331	0.223
331	0.222
332	0.221
332	0.221
333	0.22
333	0.219
334	0.219
334	0.218
335	0.217
335	0.216
336	0.216
336	0.215
336	0.215
337	0.214
337	0.214
338	0.213
338	0.212
339	0.212
339	0.211
340	0.211
340	0.21
341	0.21
341	0.209
342	0.208
342	0.208
342	0.208
343	0.207
343	0.207
344	0.206
344	0.206
345	0.205
345	0.205
346	0.205
346	0.204
347	0.204
347	0.204
348	0.203
348	0.203
348	0.202
349	0.202
349	0.201
350	0.201
350	0.2
351	0.2
351	0.199
352	0.198
352	0.198
353	0.198
353	0.197
354	0.197
354	0.197
354	0.196
355	0.196
355	0.195
356	0.195
356	0.195
357	0.195
357	0.194
358	0.194
358	0.194
359	0.194
359	0.194
360	0.194
360	0.194
360	0.194
361	0.194
361	0.194
362	0.194
362	0.194
363	0.194
363	0.193
364	0.193
364	0.193
365	0.193
365	0.193
366	0.192
366	0.192
366	0.192
367	0.192
367	0.192
368	0.192
368	0.191
369	0.191
369	0.191
370	0.19
370	0.19
371	0.19
371	0.19
372	0.19
372	0.189
372	0.189
373	0.189
373	0.188
374	0.188
374	0.188
375	0.187
375	0.187
376	0.187
376	0.187
377	0.187
377	0.187
378	0.186
378	0.187
378	0.187
379	0.187
379	0.187
380	0.187
380	0.187
381	0.187
381	0.187
382	0.186
382	0.186
383	0.186
383	0.186
383	0.185
384	0.185
384	0.185
385	0.184
385	0.184
386	0.184
386	0.184
387	0.184
387	0.184
388	0.184
388	0.184
389	0.184
389	0.184
389	0.184
390	0.184
390	0.184
391	0.183
391	0.183
392	0.183
392	0.183
393	0.183
393	0.183
394	0.183
394	0.183
394	0.183
395	0.182
395	0.182
396	0.182
396	0.182
397	0.182
397	0.182
398	0.182
398	0.182
399	0.182
399	0.181
400	0.181
400	0.181
400	0.181
401	0.18
401	0.179
402	0.179
402	0.179
403	0.178
403	0.178
404	0.178
404	0.178
405	0.177
405	0.177
405	0.177
406	0.177
406	0.176
407	0.176
407	0.176
408	0.175
408	0.175
409	0.175
409	0.174
410	0.174
410	0.174
411	0.174
411	0.174
411	0.174
412	0.174
412	0.174
413	0.174
413	0.173
414	0.173
414	0.173
415	0.173
415	0.173
416	0.173
416	0.173
416	0.173
417	0.173
417	0.173
418	0.173
418	0.173
419	0.173
419	0.174
420	0.174
420	0.174
421	0.174
421	0.174
421	0.174
422	0.174
422	0.175
423	0.174
423	0.174
424	0.174
424	0.173
425	0.173
425	0.173
426	0.172
426	0.172
427	0.172
427	0.172
427	0.172
428	0.172
428	0.172
429	0.172
429	0.172
430	0.172
430	0.172
431	0.172
431	0.172
432	0.171
432	0.171
432	0.171
433	0.17
433	0.17
434	0.169
434	0.169
435	0.169
435	0.169
436	0.169
436	0.169
437	0.169
437	0.17
437	0.17
438	0.17
438	0.17
439	0.17
439	0.17
440	0.169
440	0.169
441	0.169
441	0.169
442	0.169
442	0.169
442	0.169
443	0.168
443	0.169
444	0.169
444	0.169
445	0.169
445	0.169
446	0.169
446	0.169
447	0.169
447	0.169
447	0.169
448	0.169
448	0.169
449	0.169
449	0.169
450	0.169
450	0.169
451	0.169
451	0.169
452	0.169
452	0.168
452	0.168
453	0.168
453	0.168
454	0.168
454	0.168
455	0.168
455	0.168
456	0.168
456	0.168
457	0.168
457	0.168
458	0.168
458	0.168
458	0.168
459	0.169
459	0.169
460	0.169
460	0.168
461	0.168
461	0.168
462	0.168
462	0.168
463	0.168
463	0.169
463	0.17
464	0.17
464	0.17
465	0.17
465	0.17
466	0.171
466	0.171
467	0.171
467	0.172
467	0.171
468	0.171
468	0.171
469	0.17
469	0.17
470	0.17
470	0.17
471	0.17
471	0.17
472	0.17
472	0.17
472	0.17
473	0.171
473	0.171
474	0.172
474	0.172
475	0.173
475	0.174
476	0.174
476	0.174
477	0.174
477	0.174
477	0.175
478	0.175
478	0.175
479	0.176
479	0.176
480	0.177
480	0.177
481	0.178
481	0.179
482	0.18
482	0.181
482	0.182
483	0.184
483	0.185
484	0.187
484	0.188
485	0.189
485	0.189
486	0.19
486	0.191
487	0.191
487	0.192
487	0.193
488	0.193
488	0.193
489	0.194
489	0.195
490	0.195
490	0.196
491	0.197
491	0.198
492	0.199
492	0.2
492	0.2
493	0.201
493	0.202
494	0.204
494	0.205
495	0.207
495	0.208
496	0.21
496	0.211
496	0.213
497	0.215
497	0.216
498	0.218
498	0.219
499	0.22
499	0.221
500	0.222
500	0.224
501	0.225
501	0.227
501	0.228
502	0.23
502	0.231
503	0.233
503	0.234
504	0.235
504	0.236
505	0.237
505	0.238
506	0.239
506	0.241
506	0.242
507	0.243
507	0.244
508	0.245
508	0.246
509	0.248
509	0.249
510	0.251
510	0.252
511	0.253
511	0.254
511	0.255
512	0.256
512	0.256
513	0.257
513	0.257
514	0.258
514	0.258
515	0.258
515	0.259
515	0.259
516	0.26
516	0.261
517	0.262
517	0.262
518	0.263
518	0.263
519	0.263
519	0.263
520	0.263
520	0.263
520	0.262
521	0.262
521	0.261
522	0.26
522	0.259
523	0.259
523	0.259
524	0.259
524	0.258
524	0.258
525	0.259
525	0.259
526	0.259
526	0.259
527	0.26
527	0.26
528	0.26
528	0.261
529	0.26
529	0.26
529	0.26
530	0.259
530	0.259
531	0.258
531	0.258
532	0.257
532	0.256
533	0.255
533	0.254
533	0.253
534	0.252
534	0.251
535	0.25
535	0.249
536	0.248
536	0.246
537	0.245
537	0.244
538	0.242
538	0.241
538	0.24
539	0.239
539	0.237
540	0.236
540	0.234
541	0.232
541	0.23
542	0.228
542	0.226
542	0.224
543	0.223
543	0.221
544	0.219
544	0.217
545	0.215
545	0.214
546	0.212
546	0.21
547	0.208
547	0.206
547	0.203
548	0.201
548	0.199
549	0.197
549	0.195
550	0.193
550	0.19
551	0.188
551	0.186
551	0.184
552	0.183
552	0.181
553	0.18
553	0.178
554	0.176
554	0.174
555	0.172
555	0.17
556	0.167
556	0.165
556	0.162
557	0.16
557	0.158
558	0.155
558	0.153
559	0.151
559	0.149
560	0.147
560	0.146
560	0.145
561	0.144
561	0.143
562	0.141
562	0.139
563	0.137
563	0.135
564	0.133
564	0.13
564	0.128
565	0.126
565	0.124
566	0.121
566	0.119
567	0.118
567	0.117
568	0.115
568	0.114
568	0.114
569	0.114
569	0.113
570	0.112
570	0.111
571	0.111
571	0.11
572	0.109
572	0.108
573	0.107
573	0.106
573	0.104
574	0.104
574	0.103
575	0.102
575	0.102
576	0.101
576	0.1
577	0.099
577	0.098
577	0.097
578	0.096
578	0.096
579	0.095
579	0.095
580	0.093
580	0.091
581	0.088
581	0.087
581	0.086
582	0.085
582	0.084
583	0.083
583	0.082
584	0.08
584	0.077
585	0.076
585	0.075
585	0.075
586	0.075
586	0.074
587	0.073
587	0.072
588	0.07
588	0.07
589	0.069
589	0.069
590	0.069
590	0.069
590	0.07
591	0.07
591	0.069
592	0.068
592	0.068
593	0.067
593	0.067
594	0.066
594	0.065
594	0.063
595	0.063
595	0.062
596	0.061
596	0.062
597	0.063
597	0.063
598	0.064
598	0.065
598	0.066
599	0.066
599	0.066
600	0.065
600	0.065
601	0.064
601	0.063
602	0.062
602	0.061
602	0.061
603	0.061
603	0.061
604	0.062
604	0.063
605	0.064
605	0.066
606	0.066
606	0.066
606	0.066
607	0.066
607	0.066
608	0.065
608	0.063
609	0.063
609	0.063
610	0.062
610	0.061
610	0.062
611	0.063
611	0.064
612	0.065
612	0.066
613	0.068
613	0.069
614	0.068
614	0.067
614	0.067
615	0.066
615	0.065
616	0.064
616	0.063
617	0.063
617	0.061
618	0.06
618	0.059
618	0.059
619	0.059
619	0.06
620	0.061
620	0.062
621	0.062
621	0.063
622	0.063
622	0.063
622	0.063
623	0.064
623	0.064
624	0.065
624	0.064
625	0.064
625	0.065
626	0.065
626	0.065
626	0.066
627	0.067
627	0.068
628	0.069
628	0.069
629	0.07
629	0.071
630	0.071
630	0.071
630	0.072
631	0.073
631	0.074
632	0.074
632	0.075
633	0.076
633	0.077
634	0.079
634	0.08
634	0.082
635	0.083
635	0.084
636	0.084
636	0.086
637	0.086
637	0.086
638	0.087
638	0.088
638	0.089
639	0.09
639	0.091
640	0.093
640	0.094
641	0.095
641	0.097
642	0.098
642	0.101
642	0.102
643	0.104
643	0.106
644	0.108
644	0.11
645	0.113
645	0.115
646	0.117
646	0.12
646	0.123
647	0.126
647	0.128
648	0.13
648	0.132
649	0.134
649	0.137
650	0.139
650	0.141
650	0.143
651	0.144
651	0.146
652	0.148
652	0.15
653	0.153
653	0.159
653	0.165
654	0.132
654	0.107
655	0.111
655	0.113
656	0.114
656	0.115
657	0.117
657	0.118
657	0.119
658	0.117
658	0.111
659	0.141
659	0.184
660	0.188
660	0.191
661	0.193
661	0.196
661	0.199
662	0.203
662	0.207
663	0.21
663	0.213
664	0.216
664	0.219
665	0.222
665	0.224
665	0.227
666	0.229
666	0.231
667	0.233
667	0.235
668	0.237
668	0.24
669	0.242
669	0.245
669	0.249
670	0.252
670	0.255
671	0.258
671	0.26
672	0.262
672	0.264
672	0.266
673	0.268
673	0.269
674	0.27
674	0.271
675	0.272
675	0.273
676	0.274
676	0.276
676	0.277
677	0.279
677	0.28
678	0.282
678	0.283
679	0.284
679	0.286
680	0.288
680	0.29
680	0.291
681	0.292
681	0.294
682	0.295
682	0.296
683	0.297
683	0.298
684	0.299
684	0.299
684	0.299
685	0.299
685	0.3
686	0.3
686	0.3
687	0.3
687	0.3
687	0.3
688	0.3
688	0.3
689	0.3
689	0.301
690	0.3
690	0.3
691	0.299
691	0.298
691	0.297
692	0.296
692	0.295
693	0.294
693	0.293
694	0.291
694	0.289
695	0.289
695	0.289
695	0.289
696	0.289
696	0.288
697	0.287
697	0.286
698	0.284
698	0.283
698	0.282
699	0.281
699	0.279
700	0.276
700	0.274
701	0.273
701	0.271
702	0.269
702	0.268
702	0.266
703	0.263
703	0.261
704	0.259
704	0.258
705	0.256
705	0.254
705	0.252
706	0.251
706	0.249
707	0.248
707	0.246
708	0.244
708	0.242
709	0.24
709	0.237
709	0.234
710	0.231
710	0.228
711	0.226
711	0.223
712	0.22
712	0.218
713	0.216
713	0.213
713	0.212
714	0.209
714	0.208
715	0.206
715	0.205
716	0.203
716	0.202
716	0.2
717	0.199
717	0.198
718	0.197
718	0.195
719	0.194
719	0.192
720	0.19
720	0.188
720	0.185
721	0.183
721	0.18
722	0.178
722	0.175
723	0.173
723	0.171
723	0.169
724	0.167
724	0.165
725	0.162
725	0.16
726	0.158
726	0.156
727	0.153
727	0.151
727	0.148
728	0.146
728	0.143
729	0.142
729	0.14
730	0.138
730	0.136
730	0.135
731	0.133
731	0.131
732	0.13
732	0.128
733	0.125
733	0.123
734	0.121
734	0.119
734	0.117
735	0.116
735	0.114
736	0.112
736	0.111
737	0.111
737	0.111
737	0.11
738	0.108
738	0.106
739	0.105
739	0.103
740	0.101
740	0.099
741	0.096
741	0.093
741	0.09
742	0.086
742	0.083
743	0.081
743	0.079
744	0.077
744	0.076
744	0.074
745	0.072
745	0.071
746	0.069
746	0.069
747	0.068
747	0.067
748	0.067
748	0.066
748	0.064
749	0.063
749	0.062
750	0.06
750	0.059
751	0.059
751	0.058
751	0.058
752	0.057
752	0.057
753	0.056
753	0.056
754	0.056
754	0.055
754	0.055
755	0.055
755	0.055
756	0.054
756	0.053
757	0.052
757	0.051
758	0.05
758	0.048
758	0.047
759	0.046
759	0.044
760	0.041
760	0.039
761	0.037
761	0.036
761	0.034
762	0.032
762	0.031
763	0.03
763	0.029
764	0.027
764	0.026
764	0.024
765	0.022
765	0.021
766	0.02
766	0.019
767	0.018
767	0.016
768	0.014
768	0.012
768	0.011
769	0.01
769	0.01
770	0.008
770	0.007
771	0.004
771	0.002
771	-0.001
772	-0.003
772	-0.006
773	-0.008
773	-0.011
774	-0.013
774	-0.016
775	-0.018
775	-0.021
775	-0.023
776	-0.026
776	-0.029
777	-0.031
777	-0.034
778	-0.037
778	-0.04
778	-0.042
779	-0.044
779	-0.046
780	-0.048
780	-0.051
781	-0.054
781	-0.058
781	-0.062
782	-0.067
782	-0.072
783	-0.077
783	-0.082
784	-0.089
784	-0.095
784	-0.101
785	-0.108
785	-0.114
786	-0.12
786	-0.123
787	-0.124
787	-0.126
788	-0.131
788	-0.136
788	-0.141
789	-0.146
789	-0.148
790	-0.148
790	-0.149
791	-0.151
791	-0.152
791	-0.155
792	-0.15
792	-0.139
793	-0.133
793	-0.129
794	-0.127
794	-0.13
794	-0.134
795	-0.136
795	-0.136
796	-0.137
796	-0.14
797	-0.149
797	-0.16
797	-0.166
798	-0.172
798	-0.174
799	-0.175
799	-0.174
800	-0.173
800	-0.175
801	-0.178
801	-0.178
801	-0.179
802	-0.18
802	-0.182
803	-0.182
803	-0.183
804	-0.182
804	-0.176
804	-0.17
805	-0.166
805	-0.164
806	-0.162
806	-0.161
807	-0.16
807	-0.159
807	-0.159
808	-0.159
808	-0.16
809	-0.165
809	-0.171
810	-0.175
810	-0.178
810	-0.182
811	-0.185
811	-0.185
812	-0.181
812	-0.178
813	-0.178
813	-0.179
813	-0.179
814	-0.18
814	-0.179
815	-0.176
815	-0.172
816	-0.168
816	-0.165
817	-0.164
817	-0.162
817	-0.155
818	-0.147
818	-0.138
819	-0.128
819	-0.119
820	-0.111
820	-0.104
820	-0.096
821	-0.088
821	-0.082
822	-0.076
822	-0.072
823	-0.068
823	-0.065
823	-0.063
824	-0.06
824	-0.057
825	-0.053
825	-0.05
826	-0.047
826	-0.045
826	-0.043
827	-0.041
827	-0.039
828	-0.037
828	-0.036
829	-0.034
829	-0.033
829	-0.032
830	-0.032
830	-0.031
831	-0.029
831	-0.027
832	-0.026
832	-0.024
832	-0.023
833	-0.021
833	-0.02
834	-0.018
834	-0.016
835	-0.015
835	-0.014
835	-0.013
836	-0.012
836	-0.011
837	-0.011
837	-0.01
838	-0.01
838	-0.01
839	-0.009
839	-0.009
839	-0.009
840	-0.009
840	-0.009
841	-0.009
841	-0.009
842	-0.009
842	-0.009
842	-0.009
843	-0.009
843	-0.009
844	-0.009
844	-0.009
845	-0.009
845	-0.009
845	-0.008
846	-0.008
846	-0.008
847	-0.008
847	-0.007
848	-0.007
848	-0.007
848	-0.008
849	-0.008
849	-0.008
850	-0.009
850	-0.01
851	-0.01
851	-0.01
851	-0.01
852	-0.01
852	-0.01
853	-0.009
853	-0.009
854	-0.008
854	-0.007
854	-0.007
855	-0.006
855	-0.006
856	-0.006
856	-0.006
857	-0.006
857	-0.007
857	-0.007
858	-0.007
858	-0.008
859	-0.008
859	-0.009
860	-0.009
860	-0.009
860	-0.009
861	-0.009
861	-0.008
862	-0.008
862	-0.008
863	-0.008
863	-0.008
863	-0.008
864	-0.008
864	-0.007
865	-0.007
865	-0.006
866	-0.005
866	-0.004
866	-0.003
867	-0.002
867	-0.001
868	0.001
868	0.002
869	0.004
869	0.004
869	0.004
870	0.004
870	0.004
871	0.003
871	0.002
872	0.001
872	-0.001
872	-0.002
873	-0.004
873	-0.005
874	-0.006
874	-0.007
875	-0.007
875	-0.007
875	-0.007
876	-0.006
876	-0.006
877	-0.005
877	-0.004
878	-0.002
878	-0.001
878	0
879	0.002
879	0.002
880	0.003
880	0.004
881	0.004
881	0.005
881	0.005
882	0.005
882	0.004
883	0.004
883	0.003
884	0.002
884	0.002
884	0.001
885	0.001
885	0.001
886	0.001
886	0.001
887	0.001
887	0.001
887	0.001
888	0.001
888	0.001
889	0.002
889	0.002
890	0.002
890	0.001
890	0.001
891	0.001
891	0
892	-0
892	-0.001
893	-0.002
893	-0.002
893	-0.003
894	-0.004
894	-0.005
895	-0.006
895	-0.007
895	-0.008
896	-0.008
896	-0.009
897	-0.009
897	-0.009
898	-0.009
898	-0.008
898	-0.008
899	-0.007
899	-0.007
900	-0.006
900	-0.005
901	-0.004
901	-0.003
901	-0.003
902	-0.002
902	-0.002
903	-0.002
903	-0.002
904	-0.002
904	-0.002
904	-0.002
905	-0.002
905	-0.001
906	-0.001
906	-0
907	0.001
907	0.001
907	0.002
908	0.003
908	0.004
909	0.004
909	0.004
910	0.005
910	0.005
910	0.005
911	0.006
911	0.006
912	0.006
912	0.006
913	0.006
913	0.005
913	0.005
914	0.004
914	0.003
915	0.002
915	0.001
916	-0.001
916	-0.003
916	-0.004
917	-0.005
917	-0.007
918	-0.008
918	-0.008
918	-0.009
919	-0.009
919	-0.008
920	-0.008
920	-0.007
921	-0.007
921	-0.006
921	-0.005
922	-0.004
922	-0.003
923	-0.002
923	-0.002
924	-0.001
924	-0.001
924	-0.001
925	-0.001
925	-0.002
926	-0.002
926	-0.002
927	-0.002
927	-0.003
927	-0.003
928	-0.003
928	-0.003
929	-0.003
929	-0.003
930	-0.003
930	-0.002
930	-0.001
931	-0.001
931	0
932	0.001
932	0.002
933	0.002
933	0.003
933	0.004
934	0.004
934	0.005
935	0.005
935	0.005
935	0.005
936	0.005
936	0.005
937	0.005
937	0.004
938	0.004
938	0.003
938	0.003
939	0.002
939	0.001
940	0
940	-0
941	-0
941	-0.001
941	-0.001
942	-0
942	-0
943	-0
943	0
944	0
944	0.001
944	0.001
945	0.001
945	0.001
946	0.001
946	0.001
946	0
947	0
947	-0
948	-0.001
948	-0.001
949	-0.002
949	-0.002
949	-0.002
950	-0.002
950	-0.002
951	-0.002
951	-0.001
952	-0.001
952	-0.001
952	-0
953	-0
953	-0
954	-0
954	-0
955	-0.001
955	-0.001
955	-0.002
956	-0.002
956	-0.002
957	-0.003
957	-0.003
957	-0.004
958	-0.005
958	-0.006
959	-0.007
959	-0.008
960	-0.009
960	-0.01
960	-0.011
961	-0.012
961	-0.012
962	-0.013
962	-0.013
963	-0.013
963	-0.013
963	-0.012
964	-0.011
964	-0.01
965	-0.009
965	-0.008
966	-0.006
966	-0.005
966	-0.004
967	-0.003
967	-0.003
968	-0.002
968	-0.002
968	-0.001
969	-0.001
969	-0.001
970	-0.002
970	-0.002
971	-0.002
971	-0.002
971	-0.003
972	-0.003
972	-0.003
973	-0.003
973	-0.003
974	-0.003
974	-0.003
974	-0.003
975	-0.003
975	-0.003
976	-0.003
976	-0.002
976	-0.003
977	-0.003
977	-0.004
978	-0.005
978	-0.005
979	-0.006
979	-0.007
979	-0.008
980	-0.009
980	-0.01
981	-0.011
981	-0.011
982	-0.011
982	-0.011
982	-0.011
983	-0.011
983	-0.01
984	-0.01
984	-0.009
984	-0.008
985	-0.008
985	-0.007
986	-0.007
986	-0.007
987	-0.007
987	-0.006
987	-0.006
988	-0.006
988	-0.006
989	-0.006
989	-0.006
990	-0.006
990	-0.005
990	-0.004
991	-0.003
991	-0.002
992	-0.001
992	-0
992	0
993	0.001
993	0.002
994	0.002
994	0.003
995	0.003
995	0.003
995	0.003
996	0.003
996	0.003
997	0.002
997	0.002
997	0.002
998	0.002
998	0.002
999	0.002
999	0.002
1000	0.003
1000	0.004
1000	0.004
1001	0.004
1001	0.005
1002	0.005
1002	0.006
1003	0.006
1003	0.006
1003	0.006
1004	0.006
1004	0.005
1005	0.005
1005	0.004
1005	0.004
1006	0.003
1006	0.003
1007	0.002
1007	0.001
1008	0.001
1008	0.001
1008	0.001
1009	0.001
1009	0.001
1010	0.001
1010	0.001
1010	0.001
1011	0.002
1011	0.002
1012	0.002
1012	0.002
1013	0.002
1013	0.001
1013	0.001
1014	0.001
1014	0
1015	0
1015	-0
1016	-0
1016	-0.001
1016	-0.001
1017	-0.001
1017	-0.001
1018	-0.001
1018	-0.001
1018	-0.001
1019	-0.001
1019	-0.001
1020	-0.001
1020	-0.002
1021	-0.002
1021	-0.002
1021	-0.002
1022	-0.002
1022	-0.002
1023	-0.002
1023	-0.002
1023	-0.002
1024	-0.003
1024	-0.003
1025	-0.003
1025	-0.003
1026	-0.004
1026	-0.004
1026	-0.004
1027	-0.004
1027	-0.004
1028	-0.004
1028	-0.004
1028	-0.003
1029	-0.003
1029	-0.003
1030	-0.002
1030	-0.002
1031	-0.002
1031	-0.002
1031	-0.001
1032	-0.002
1032	-0.002
1033	-0.002
1033	-0.002
1033	-0.003
1034	-0.004
1034	-0.005
1035	-0.006
1035	-0.007
1036	-0.008
1036	-0.009
1036	-0.009
1037	-0.01
1037	-0.01
1038	-0.01
1038	-0.01
1039	-0.01
1039	-0.01
1039	-0.01
1040	-0.01
1040	-0.01
1041	-0.01
1041	-0.009
1041	-0.01
1042	-0.011
1042	-0.011
1043	-0.012
1043	-0.013
1044	-0.014
1044	-0.014
1044	-0.014
1045	-0.015
1045	-0.015
1046	-0.015
1046	-0.015
1046	-0.015
1047	-0.014
1047	-0.013
1048	-0.012
1048	-0.012
1049	-0.012
1049	-0.012
1049	-0.011
1050	-0.011
1050	-0.011
1051	-0.011
1051	-0.011
1051	-0.01
1052	-0.011
1052	-0.011
1053	-0.011
1053	-0.011
1053	-0.011
1054	-0.01
1054	-0.01
1055	-0.01
1055	-0.01
1056	-0.011
1056	-0.011
1056	-0.012
1057	-0.012
1057	-0.013
1058	-0.013
1058	-0.014
1058	-0.014
1059	-0.014
1059	-0.015
1060	-0.016
1060	-0.016
1061	-0.016
1061	-0.016
1061	-0.016
1062	-0.016
1062	-0.016
1063	-0.016
1063	-0.016
1063	-0.016
1064	-0.016
1064	-0.015
1065	-0.015
1065	-0.016
1066	-0.016
1066	-0.016
1066	-0.016
1067	-0.016
1067	-0.016
1068	-0.016
1068	-0.017
1068	-0.017
1069	-0.018
1069	-0.019
1070	-0.02
1070	-0.02
1071	-0.021
1071	-0.021
1071	-0.022
1072	-0.022
1072	-0.022
1073	-0.022
1073	-0.022
1073	-0.022
1074	-0.021
1074	-0.021
1075	-0.022
1075	-0.021
1076	-0.022
1076	-0.021
1076	-0.022
1077	-0.022
1077	-0.022
1078	-0.022
1078	-0.021
1078	-0.02
1079	-0.019
1079	-0.017
1080	-0.016
1080	-0.015
1080	-0.014
1081	-0.013
1081	-0.012
1082	-0.011
1082	-0.01
1083	-0.009
1083	-0.008
1083	-0.008
1084	-0.007
1084	-0.006
1085	-0.004
1085	-0.003
1085	-0.002
1086	-0.001
1086	-0
1087	0.001
1087	0.002
1088	0.002
1088	0.002
1088	0.003
1089	0.002
1089	0.002
1090	0.003
1090	0.004
1090	0.004
1091	0.005
1091	0.006
1092	0.007
1092	0.009
1092	0.011
1093	0.013
1093	0.016
1094	0.018
1094	0.02
1095	0.022
1095	0.023
1095	0.026
1096	0.028
1096	0.031
1097	0.034
1097	0.036
1097	0.038
1098	0.04
1098	0.042
1099	0.045
1099	0.048
1100	0.052
1100	0.055
1100	0.058
1101	0.061
1101	0.064
1102	0.07
1102	0.075
1102	0.081
1103	0.087
1103	0.093
1104	0.101
1104	0.109
1104	0.119
1105	0.129
1105	0.138
1106	0.146
1106	0.157
1107	0.168
1107	0.187
1107	0.207
1108	0.271
1108	0.366
1109	0.522
1109	0.883
1109	1.688
1110	-0
1110	-0
1111	-0
1111	-0
