Data from 15c-2-5a_Absorbance__868__02669.txt Node

Date: Fri Jan 19 14:12:13 CET 2024
User: Marek
Spectrometer: MAYP115816
Trigger mode: 0
Integration Time (sec): 2.000000E-1
Scans to average: 10
Electric dark correction enabled: true
Nonlinearity correction enabled: true
Boxcar width: 5
XAxis mode: Wavelengths
Number of Pixels in Spectrum: 2068
>>>>>Begin Spectral Data<<<<<
199	-2.295
199	-2.137
200	-1.991
200	-1.869
201	-1.799
201	-1.743
202	-1.669
202	-1.608
203	-1.555
203	-1.508
204	-1.48
204	-1.455
205	-1.435
205	-1.424
205	-1.422
206	-1.416
206	-1.412
207	-1.406
207	-1.401
208	-1.399
208	-1.396
209	-1.394
209	-1.388
210	-1.386
210	-1.384
211	-1.382
211	-1.381
212	-1.382
212	-1.381
213	-1.381
213	-1.378
213	-1.377
214	-1.372
214	-1.372
215	-1.369
215	-1.367
216	-1.364
216	-1.364
217	-1.359
217	-1.357
218	-1.355
218	-1.352
219	-1.348
219	-1.348
220	-1.347
220	-1.346
221	-1.344
221	-1.338
221	-1.333
222	-1.331
222	-1.326
223	-1.32
223	-1.316
224	-1.308
224	-1.301
225	-1.294
225	-1.282
226	-1.271
226	-1.261
227	-1.247
227	-1.233
228	-1.217
228	-1.201
229	-1.18
229	-1.157
229	-1.13
230	-1.101
230	-1.069
231	-1.033
231	-0.993
232	-0.952
232	-0.907
233	-0.859
233	-0.809
234	-0.759
234	-0.708
235	-0.657
235	-0.606
236	-0.556
236	-0.506
236	-0.457
237	-0.41
237	-0.364
238	-0.32
238	-0.279
239	-0.239
239	-0.202
240	-0.166
240	-0.133
241	-0.102
241	-0.072
242	-0.045
242	-0.02
243	0.003
243	0.025
243	0.045
244	0.064
244	0.081
245	0.096
245	0.111
246	0.125
246	0.137
247	0.149
247	0.16
248	0.17
248	0.179
249	0.188
249	0.196
250	0.204
250	0.211
250	0.218
251	0.225
251	0.231
252	0.237
252	0.242
253	0.248
253	0.252
254	0.257
254	0.261
255	0.265
255	0.268
256	0.272
256	0.275
257	0.277
257	0.28
258	0.282
258	0.284
258	0.286
259	0.288
259	0.289
260	0.291
260	0.292
261	0.292
261	0.294
262	0.295
262	0.295
263	0.296
263	0.297
264	0.298
264	0.298
265	0.298
265	0.299
265	0.299
266	0.299
266	0.299
267	0.299
267	0.299
268	0.299
268	0.298
269	0.298
269	0.297
270	0.296
270	0.296
271	0.295
271	0.294
272	0.293
272	0.293
272	0.292
273	0.291
273	0.29
274	0.289
274	0.288
275	0.288
275	0.287
276	0.286
276	0.285
277	0.283
277	0.281
278	0.279
278	0.277
278	0.275
279	0.273
279	0.272
280	0.271
280	0.27
281	0.269
281	0.268
282	0.268
282	0.267
283	0.267
283	0.268
284	0.268
284	0.268
285	0.267
285	0.266
285	0.265
286	0.265
286	0.264
287	0.263
287	0.262
288	0.261
288	0.26
289	0.26
289	0.259
290	0.258
290	0.257
291	0.257
291	0.256
292	0.255
292	0.254
292	0.254
293	0.253
293	0.252
294	0.252
294	0.251
295	0.25
295	0.25
296	0.249
296	0.248
297	0.248
297	0.247
298	0.247
298	0.246
298	0.246
299	0.245
299	0.244
300	0.244
300	0.243
301	0.242
301	0.242
302	0.241
302	0.24
303	0.24
303	0.239
304	0.239
304	0.238
305	0.237
305	0.237
305	0.236
306	0.235
306	0.235
307	0.234
307	0.233
308	0.232
308	0.232
309	0.231
309	0.23
310	0.229
310	0.229
311	0.228
311	0.227
311	0.226
312	0.226
312	0.225
313	0.224
313	0.223
314	0.222
314	0.221
315	0.22
315	0.22
316	0.219
316	0.218
317	0.217
317	0.216
318	0.215
318	0.214
318	0.213
319	0.212
319	0.212
320	0.211
320	0.21
321	0.209
321	0.208
322	0.207
322	0.206
323	0.205
323	0.204
324	0.203
324	0.202
324	0.201
325	0.2
325	0.199
326	0.199
326	0.198
327	0.197
327	0.196
328	0.195
328	0.195
329	0.194
329	0.193
330	0.192
330	0.191
330	0.19
331	0.189
331	0.189
332	0.188
332	0.187
333	0.186
333	0.185
334	0.185
334	0.184
335	0.183
335	0.182
336	0.181
336	0.18
336	0.179
337	0.179
337	0.178
338	0.177
338	0.176
339	0.176
339	0.175
340	0.174
340	0.173
341	0.173
341	0.172
342	0.172
342	0.171
342	0.17
343	0.169
343	0.169
344	0.168
344	0.167
345	0.167
345	0.166
346	0.165
346	0.164
347	0.163
347	0.162
348	0.161
348	0.161
348	0.16
349	0.159
349	0.158
350	0.157
350	0.156
351	0.155
351	0.154
352	0.153
352	0.152
353	0.151
353	0.15
354	0.148
354	0.147
354	0.146
355	0.145
355	0.143
356	0.143
356	0.142
357	0.14
357	0.14
358	0.14
358	0.14
359	0.141
359	0.142
360	0.142
360	0.143
360	0.144
361	0.144
361	0.145
362	0.145
362	0.146
363	0.145
363	0.145
364	0.145
364	0.144
365	0.143
365	0.143
366	0.142
366	0.142
366	0.141
367	0.141
367	0.14
368	0.14
368	0.139
369	0.139
369	0.138
370	0.137
370	0.137
371	0.136
371	0.136
372	0.135
372	0.135
372	0.134
373	0.134
373	0.133
374	0.133
374	0.133
375	0.133
375	0.133
376	0.133
376	0.133
377	0.133
377	0.134
378	0.134
378	0.134
378	0.134
379	0.135
379	0.135
380	0.135
380	0.135
381	0.135
381	0.134
382	0.134
382	0.133
383	0.133
383	0.133
383	0.132
384	0.132
384	0.131
385	0.131
385	0.13
386	0.13
386	0.13
387	0.13
387	0.13
388	0.13
388	0.129
389	0.129
389	0.129
389	0.129
390	0.129
390	0.129
391	0.129
391	0.13
392	0.13
392	0.129
393	0.129
393	0.129
394	0.129
394	0.128
394	0.128
395	0.128
395	0.127
396	0.127
396	0.127
397	0.127
397	0.127
398	0.127
398	0.127
399	0.127
399	0.127
400	0.127
400	0.126
400	0.126
401	0.125
401	0.124
402	0.123
402	0.122
403	0.121
403	0.121
404	0.121
404	0.121
405	0.12
405	0.12
405	0.119
406	0.119
406	0.119
407	0.118
407	0.118
408	0.117
408	0.116
409	0.116
409	0.115
410	0.115
410	0.115
411	0.115
411	0.115
411	0.114
412	0.114
412	0.114
413	0.113
413	0.113
414	0.112
414	0.112
415	0.112
415	0.112
416	0.111
416	0.11
416	0.11
417	0.109
417	0.109
418	0.109
418	0.109
419	0.11
419	0.11
420	0.111
420	0.112
421	0.112
421	0.113
421	0.113
422	0.113
422	0.114
423	0.114
423	0.113
424	0.113
424	0.112
425	0.111
425	0.109
426	0.109
426	0.108
427	0.108
427	0.108
427	0.108
428	0.109
428	0.11
429	0.111
429	0.111
430	0.112
430	0.111
431	0.111
431	0.111
432	0.11
432	0.109
432	0.108
433	0.106
433	0.104
434	0.103
434	0.102
435	0.102
435	0.102
436	0.102
436	0.102
437	0.102
437	0.102
437	0.102
438	0.102
438	0.102
439	0.102
439	0.102
440	0.101
440	0.101
441	0.101
441	0.101
442	0.101
442	0.102
442	0.102
443	0.102
443	0.103
444	0.103
444	0.103
445	0.103
445	0.103
446	0.103
446	0.102
447	0.102
447	0.102
447	0.101
448	0.101
448	0.101
449	0.1
449	0.1
450	0.1
450	0.1
451	0.099
451	0.099
452	0.098
452	0.097
452	0.096
453	0.095
453	0.095
454	0.094
454	0.093
455	0.092
455	0.092
456	0.092
456	0.091
457	0.091
457	0.091
458	0.091
458	0.091
458	0.091
459	0.091
459	0.091
460	0.09
460	0.089
461	0.089
461	0.088
462	0.088
462	0.088
463	0.088
463	0.089
463	0.089
464	0.09
464	0.09
465	0.09
465	0.09
466	0.09
466	0.091
467	0.09
467	0.09
467	0.089
468	0.087
468	0.084
469	0.082
469	0.08
470	0.079
470	0.079
471	0.078
471	0.078
472	0.077
472	0.077
472	0.078
473	0.079
473	0.081
474	0.082
474	0.082
475	0.083
475	0.084
476	0.084
476	0.084
477	0.085
477	0.085
477	0.085
478	0.085
478	0.085
479	0.085
479	0.086
480	0.087
480	0.088
481	0.089
481	0.089
482	0.09
482	0.092
482	0.093
483	0.095
483	0.099
484	0.103
484	0.106
485	0.108
485	0.109
486	0.11
486	0.111
487	0.111
487	0.111
487	0.111
488	0.11
488	0.108
489	0.105
489	0.102
490	0.1
490	0.098
491	0.097
491	0.097
492	0.097
492	0.097
492	0.097
493	0.098
493	0.098
494	0.1
494	0.102
495	0.104
495	0.105
496	0.106
496	0.107
496	0.108
497	0.109
497	0.11
498	0.111
498	0.111
499	0.111
499	0.11
500	0.111
500	0.112
501	0.113
501	0.115
501	0.117
502	0.118
502	0.119
503	0.121
503	0.122
504	0.123
504	0.123
505	0.123
505	0.122
506	0.122
506	0.122
506	0.122
507	0.121
507	0.121
508	0.121
508	0.121
509	0.121
509	0.122
510	0.122
510	0.122
511	0.122
511	0.122
511	0.122
512	0.122
512	0.122
513	0.121
513	0.119
514	0.117
514	0.116
515	0.115
515	0.114
515	0.114
516	0.113
516	0.113
517	0.112
517	0.112
518	0.111
518	0.111
519	0.109
519	0.106
520	0.103
520	0.099
520	0.096
521	0.093
521	0.09
522	0.087
522	0.086
523	0.086
523	0.086
524	0.089
524	0.092
524	0.096
525	0.099
525	0.103
526	0.107
526	0.11
527	0.113
527	0.115
528	0.117
528	0.119
529	0.12
529	0.12
529	0.12
530	0.12
530	0.12
531	0.12
531	0.12
532	0.12
532	0.119
533	0.119
533	0.12
533	0.12
534	0.119
534	0.119
535	0.118
535	0.118
536	0.118
536	0.118
537	0.117
537	0.117
538	0.116
538	0.115
538	0.114
539	0.113
539	0.112
540	0.111
540	0.11
541	0.108
541	0.107
542	0.105
542	0.103
542	0.102
543	0.101
543	0.1
544	0.099
544	0.098
545	0.097
545	0.097
546	0.098
546	0.098
547	0.097
547	0.095
547	0.092
548	0.09
548	0.087
549	0.085
549	0.084
550	0.082
550	0.08
551	0.078
551	0.075
551	0.074
552	0.073
552	0.072
553	0.072
553	0.072
554	0.072
554	0.071
555	0.069
555	0.066
556	0.063
556	0.06
556	0.057
557	0.055
557	0.052
558	0.05
558	0.048
559	0.047
559	0.046
560	0.046
560	0.046
560	0.046
561	0.047
561	0.047
562	0.048
562	0.047
563	0.046
563	0.044
564	0.042
564	0.039
564	0.037
565	0.035
565	0.034
566	0.033
566	0.032
567	0.033
567	0.034
568	0.036
568	0.038
568	0.041
569	0.043
569	0.046
570	0.048
570	0.049
571	0.05
571	0.052
572	0.053
572	0.053
573	0.054
573	0.054
573	0.054
574	0.053
574	0.053
575	0.053
575	0.054
576	0.056
576	0.056
577	0.055
577	0.053
577	0.053
578	0.051
578	0.051
579	0.052
579	0.054
580	0.054
580	0.052
581	0.048
581	0.046
581	0.044
582	0.043
582	0.043
583	0.045
583	0.045
584	0.042
584	0.039
585	0.036
585	0.035
585	0.035
586	0.035
586	0.035
587	0.034
587	0.031
588	0.028
588	0.024
589	0.022
589	0.02
590	0.019
590	0.018
590	0.018
591	0.019
591	0.019
592	0.019
592	0.018
593	0.018
593	0.018
594	0.018
594	0.018
594	0.017
595	0.016
595	0.014
596	0.012
596	0.012
597	0.014
597	0.016
598	0.017
598	0.018
598	0.019
599	0.02
599	0.019
600	0.019
600	0.017
601	0.016
601	0.015
602	0.013
602	0.012
602	0.01
603	0.008
603	0.008
604	0.009
604	0.011
605	0.013
605	0.015
606	0.016
606	0.016
606	0.015
607	0.015
607	0.015
608	0.014
608	0.012
609	0.011
609	0.009
610	0.007
610	0.005
610	0.004
611	0.004
611	0.004
612	0.005
612	0.007
613	0.008
613	0.01
614	0.01
614	0.009
614	0.009
615	0.009
615	0.008
616	0.008
616	0.007
617	0.007
617	0.005
618	0.004
618	0.002
618	0.001
619	0.001
619	0.001
620	0.002
620	0.003
621	0.004
621	0.004
622	0.004
622	0.005
622	0.005
623	0.005
623	0.006
624	0.007
624	0.007
625	0.006
625	0.006
626	0.006
626	0.005
626	0.006
627	0.006
627	0.007
628	0.007
628	0.008
629	0.008
629	0.008
630	0.007
630	0.007
630	0.006
631	0.006
631	0.006
632	0.005
632	0.005
633	0.005
633	0.005
634	0.006
634	0.007
634	0.009
635	0.011
635	0.012
636	0.013
636	0.014
637	0.016
637	0.017
638	0.018
638	0.019
638	0.02
639	0.02
639	0.02
640	0.02
640	0.021
641	0.023
641	0.024
642	0.026
642	0.028
642	0.03
643	0.031
643	0.033
644	0.035
644	0.037
645	0.039
645	0.041
646	0.044
646	0.047
646	0.051
647	0.054
647	0.058
648	0.061
648	0.064
649	0.067
649	0.07
650	0.073
650	0.077
650	0.079
651	0.082
651	0.083
652	0.085
652	0.086
653	0.089
653	0.097
653	0.121
654	0.102
654	0.087
655	0.092
655	0.094
656	0.095
656	0.097
657	0.099
657	0.101
657	0.102
658	0.1
658	0.083
659	0.101
659	0.126
660	0.126
660	0.127
661	0.129
661	0.131
661	0.133
662	0.135
662	0.138
663	0.141
663	0.144
664	0.147
664	0.149
665	0.151
665	0.153
665	0.156
666	0.158
666	0.16
667	0.162
667	0.164
668	0.166
668	0.168
669	0.17
669	0.172
669	0.176
670	0.18
670	0.183
671	0.186
671	0.188
672	0.19
672	0.191
672	0.192
673	0.194
673	0.195
674	0.196
674	0.196
675	0.195
675	0.195
676	0.196
676	0.198
676	0.199
677	0.201
677	0.203
678	0.206
678	0.207
679	0.209
679	0.21
680	0.212
680	0.214
680	0.215
681	0.215
681	0.216
682	0.217
682	0.218
683	0.22
683	0.223
684	0.226
684	0.227
684	0.227
685	0.228
685	0.229
686	0.231
686	0.231
687	0.231
687	0.23
687	0.229
688	0.227
688	0.225
689	0.225
689	0.225
690	0.226
690	0.225
691	0.225
691	0.225
691	0.225
692	0.225
692	0.224
693	0.223
693	0.224
694	0.224
694	0.222
695	0.221
695	0.223
695	0.224
696	0.224
696	0.223
697	0.222
697	0.222
698	0.221
698	0.219
698	0.218
699	0.217
699	0.215
700	0.211
700	0.209
701	0.208
701	0.206
702	0.205
702	0.204
702	0.202
703	0.201
703	0.199
704	0.198
704	0.197
705	0.197
705	0.197
705	0.196
706	0.195
706	0.194
707	0.193
707	0.191
708	0.19
708	0.188
709	0.187
709	0.185
709	0.181
710	0.177
710	0.174
711	0.172
711	0.17
712	0.168
712	0.166
713	0.164
713	0.162
713	0.16
714	0.158
714	0.155
715	0.153
715	0.151
716	0.149
716	0.147
716	0.145
717	0.142
717	0.14
718	0.138
718	0.135
719	0.133
719	0.131
720	0.129
720	0.127
720	0.124
721	0.12
721	0.117
722	0.115
722	0.111
723	0.109
723	0.107
723	0.105
724	0.103
724	0.101
725	0.099
725	0.097
726	0.095
726	0.093
727	0.091
727	0.089
727	0.088
728	0.085
728	0.083
729	0.083
729	0.082
730	0.081
730	0.079
730	0.077
731	0.075
731	0.073
732	0.072
732	0.07
733	0.068
733	0.066
734	0.064
734	0.061
734	0.058
735	0.057
735	0.054
736	0.051
736	0.049
737	0.046
737	0.044
737	0.042
738	0.039
738	0.036
739	0.033
739	0.031
740	0.028
740	0.027
741	0.026
741	0.024
741	0.02
742	0.016
742	0.012
743	0.008
743	0.005
744	0.003
744	0
744	-0.002
745	-0.005
745	-0.008
746	-0.01
746	-0.011
747	-0.012
747	-0.011
748	-0.011
748	-0.01
748	-0.01
749	-0.01
749	-0.011
750	-0.011
750	-0.012
751	-0.013
751	-0.013
751	-0.014
752	-0.015
752	-0.016
753	-0.018
753	-0.019
754	-0.02
754	-0.02
754	-0.02
755	-0.019
755	-0.018
756	-0.018
756	-0.019
757	-0.02
757	-0.02
758	-0.021
758	-0.022
758	-0.023
759	-0.024
759	-0.026
760	-0.029
760	-0.033
761	-0.036
761	-0.037
761	-0.039
762	-0.041
762	-0.043
763	-0.044
763	-0.047
764	-0.05
764	-0.053
764	-0.056
765	-0.058
765	-0.061
766	-0.063
766	-0.064
767	-0.065
767	-0.068
768	-0.072
768	-0.075
768	-0.077
769	-0.078
769	-0.079
770	-0.08
770	-0.082
771	-0.085
771	-0.088
771	-0.091
772	-0.094
772	-0.096
773	-0.098
773	-0.1
774	-0.104
774	-0.107
775	-0.11
775	-0.113
775	-0.117
776	-0.121
776	-0.124
777	-0.128
777	-0.132
778	-0.137
778	-0.142
778	-0.147
779	-0.148
779	-0.146
780	-0.146
780	-0.148
781	-0.148
781	-0.149
781	-0.149
782	-0.149
782	-0.15
783	-0.15
783	-0.148
784	-0.148
784	-0.15
784	-0.152
785	-0.153
785	-0.155
786	-0.155
786	-0.153
787	-0.149
787	-0.145
788	-0.144
788	-0.145
788	-0.146
789	-0.149
789	-0.149
790	-0.146
790	-0.145
791	-0.145
791	-0.147
791	-0.15
792	-0.145
792	-0.134
793	-0.128
793	-0.124
794	-0.122
794	-0.124
794	-0.127
795	-0.129
795	-0.129
796	-0.129
796	-0.132
797	-0.14
797	-0.151
797	-0.158
798	-0.163
798	-0.166
799	-0.167
799	-0.166
800	-0.166
800	-0.167
801	-0.17
801	-0.171
801	-0.17
802	-0.171
802	-0.172
803	-0.172
803	-0.173
804	-0.171
804	-0.166
804	-0.16
805	-0.156
805	-0.154
806	-0.152
806	-0.15
807	-0.149
807	-0.149
807	-0.149
808	-0.148
808	-0.149
809	-0.154
809	-0.159
810	-0.163
810	-0.165
810	-0.169
811	-0.172
811	-0.173
812	-0.17
812	-0.167
813	-0.167
813	-0.168
813	-0.17
814	-0.171
814	-0.171
815	-0.17
815	-0.167
816	-0.165
816	-0.166
817	-0.17
817	-0.173
817	-0.174
818	-0.173
818	-0.169
819	-0.163
819	-0.16
820	-0.161
820	-0.163
820	-0.165
821	-0.164
821	-0.163
822	-0.163
822	-0.162
823	-0.162
823	-0.164
823	-0.168
824	-0.169
824	-0.167
825	-0.162
825	-0.156
826	-0.15
826	-0.146
826	-0.141
827	-0.134
827	-0.128
828	-0.121
828	-0.115
829	-0.109
829	-0.104
829	-0.1
830	-0.097
830	-0.094
831	-0.091
831	-0.088
832	-0.086
832	-0.084
832	-0.083
833	-0.082
833	-0.081
834	-0.08
834	-0.079
835	-0.078
835	-0.077
835	-0.077
836	-0.076
836	-0.075
837	-0.074
837	-0.073
838	-0.072
838	-0.071
839	-0.071
839	-0.07
839	-0.069
840	-0.069
840	-0.068
841	-0.067
841	-0.065
842	-0.064
842	-0.062
842	-0.06
843	-0.058
843	-0.056
844	-0.053
844	-0.051
845	-0.049
845	-0.047
845	-0.045
846	-0.043
846	-0.042
847	-0.041
847	-0.04
848	-0.04
848	-0.04
848	-0.039
849	-0.039
849	-0.038
850	-0.037
850	-0.037
851	-0.037
851	-0.036
851	-0.035
852	-0.034
852	-0.033
853	-0.033
853	-0.032
854	-0.031
854	-0.031
854	-0.03
855	-0.03
855	-0.03
856	-0.031
856	-0.031
857	-0.031
857	-0.031
857	-0.031
858	-0.031
858	-0.031
859	-0.03
859	-0.03
860	-0.029
860	-0.028
860	-0.027
861	-0.026
861	-0.025
862	-0.024
862	-0.024
863	-0.023
863	-0.023
863	-0.022
864	-0.022
864	-0.021
865	-0.02
865	-0.019
866	-0.018
866	-0.017
866	-0.016
867	-0.014
867	-0.014
868	-0.013
868	-0.012
869	-0.012
869	-0.012
869	-0.012
870	-0.012
870	-0.013
871	-0.013
871	-0.013
872	-0.013
872	-0.013
872	-0.013
873	-0.013
873	-0.013
874	-0.013
874	-0.013
875	-0.013
875	-0.013
875	-0.013
876	-0.013
876	-0.013
877	-0.013
877	-0.013
878	-0.013
878	-0.014
878	-0.014
879	-0.014
879	-0.015
880	-0.015
880	-0.015
881	-0.015
881	-0.015
881	-0.014
882	-0.013
882	-0.012
883	-0.011
883	-0.009
884	-0.008
884	-0.006
884	-0.005
885	-0.004
885	-0.003
886	-0.002
886	-0.001
887	-0.001
887	-0.001
887	-0.001
888	-0.002
888	-0.002
889	-0.002
889	-0.003
890	-0.003
890	-0.004
890	-0.005
891	-0.006
891	-0.007
892	-0.007
892	-0.008
893	-0.008
893	-0.009
893	-0.009
894	-0.009
894	-0.01
895	-0.01
895	-0.011
895	-0.011
896	-0.011
896	-0.011
897	-0.011
897	-0.011
898	-0.011
898	-0.011
898	-0.01
899	-0.01
899	-0.009
900	-0.008
900	-0.008
901	-0.007
901	-0.005
901	-0.005
902	-0.003
902	-0.002
903	-0.001
903	-0
904	0.001
904	0.001
904	0.002
905	0.003
905	0.003
906	0.004
906	0.004
907	0.003
907	0.003
907	0.003
908	0.002
908	0.002
909	0.001
909	-0
910	-0.001
910	-0.001
910	-0.002
911	-0.003
911	-0.004
912	-0.004
912	-0.004
913	-0.005
913	-0.005
913	-0.006
914	-0.006
914	-0.006
915	-0.007
915	-0.007
916	-0.007
916	-0.007
916	-0.007
917	-0.007
917	-0.007
918	-0.006
918	-0.005
918	-0.004
919	-0.003
919	-0.002
920	-0.001
920	0
921	0.001
921	0.002
921	0.003
922	0.003
922	0.004
923	0.003
923	0.003
924	0.003
924	0.003
924	0.002
925	0.001
925	0
926	-0
926	-0.001
927	-0.002
927	-0.002
927	-0.002
928	-0.002
928	-0.003
929	-0.002
929	-0.002
930	-0.002
930	-0.002
930	-0.002
931	-0.002
931	-0.002
932	-0.002
932	-0.001
933	-0.001
933	-0.001
933	-0
934	-0
934	0
935	0
935	0.001
935	0.001
936	0.002
936	0.002
937	0.003
937	0.004
938	0.005
938	0.005
938	0.006
939	0.007
939	0.008
940	0.008
940	0.008
941	0.009
941	0.008
941	0.008
942	0.009
942	0.009
943	0.009
943	0.009
944	0.009
944	0.009
944	0.01
945	0.01
945	0.011
946	0.011
946	0.012
946	0.012
947	0.012
947	0.012
948	0.011
948	0.011
949	0.011
949	0.012
949	0.012
950	0.012
950	0.012
951	0.012
951	0.012
952	0.012
952	0.012
952	0.011
953	0.011
953	0.011
954	0.01
954	0.01
955	0.009
955	0.009
955	0.008
956	0.008
956	0.008
957	0.007
957	0.007
957	0.006
958	0.005
958	0.005
959	0.004
959	0.004
960	0.004
960	0.003
960	0.003
961	0.002
961	0.002
962	0.002
962	0.002
963	0.002
963	0.002
963	0.003
964	0.003
964	0.003
965	0.003
965	0.004
966	0.004
966	0.004
966	0.005
967	0.005
967	0.005
968	0.005
968	0.006
968	0.006
969	0.007
969	0.007
970	0.007
970	0.007
971	0.008
971	0.008
971	0.008
972	0.009
972	0.009
973	0.01
973	0.01
974	0.011
974	0.012
974	0.012
975	0.014
975	0.014
976	0.015
976	0.016
976	0.017
977	0.017
977	0.017
978	0.017
978	0.017
979	0.017
979	0.016
979	0.015
980	0.014
980	0.013
981	0.012
981	0.011
982	0.011
982	0.01
982	0.009
983	0.009
983	0.008
984	0.008
984	0.008
984	0.008
985	0.008
985	0.008
986	0.007
986	0.007
987	0.007
987	0.007
987	0.007
988	0.007
988	0.007
989	0.007
989	0.007
990	0.007
990	0.008
990	0.008
991	0.009
991	0.009
992	0.009
992	0.009
992	0.009
993	0.008
993	0.008
994	0.008
994	0.007
995	0.007
995	0.006
995	0.006
996	0.006
996	0.006
997	0.006
997	0.006
997	0.007
998	0.008
998	0.009
999	0.01
999	0.011
1000	0.012
1000	0.012
1000	0.012
1001	0.012
1001	0.012
1002	0.011
1002	0.01
1003	0.009
1003	0.008
1003	0.006
1004	0.005
1004	0.004
1005	0.003
1005	0.002
1005	0.001
1006	-0
1006	-0.001
1007	-0.001
1007	-0.001
1008	-0.001
1008	-0.001
1008	-0.001
1009	-0.001
1009	-0.001
1010	-0.001
1010	-0.001
1010	-0
1011	-0
1011	-0
1012	-0
1012	0
1013	0
1013	0
1013	0.001
1014	0.001
1014	0.002
1015	0.002
1015	0.003
1016	0.004
1016	0.005
1016	0.006
1017	0.007
1017	0.008
1018	0.009
1018	0.011
1018	0.012
1019	0.014
1019	0.015
1020	0.016
1020	0.017
1021	0.017
1021	0.018
1021	0.018
1022	0.018
1022	0.018
1023	0.018
1023	0.018
1023	0.017
1024	0.017
1024	0.016
1025	0.015
1025	0.015
1026	0.015
1026	0.015
1026	0.014
1027	0.014
1027	0.014
1028	0.014
1028	0.013
1028	0.013
1029	0.013
1029	0.013
1030	0.012
1030	0.012
1031	0.011
1031	0.011
1031	0.01
1032	0.01
1032	0.01
1033	0.009
1033	0.009
1033	0.009
1034	0.008
1034	0.008
1035	0.008
1035	0.007
1036	0.007
1036	0.007
1036	0.008
1037	0.008
1037	0.008
1038	0.009
1038	0.01
1039	0.011
1039	0.012
1039	0.013
1040	0.014
1040	0.015
1041	0.015
1041	0.016
1041	0.016
1042	0.016
1042	0.017
1043	0.018
1043	0.018
1044	0.019
1044	0.02
1044	0.021
1045	0.021
1045	0.022
1046	0.023
1046	0.024
1046	0.026
1047	0.027
1047	0.029
1048	0.03
1048	0.031
1049	0.031
1049	0.032
1049	0.032
1050	0.033
1050	0.033
1051	0.034
1051	0.034
1051	0.035
1052	0.035
1052	0.036
1053	0.036
1053	0.037
1053	0.038
1054	0.038
1054	0.039
1055	0.039
1055	0.039
1056	0.039
1056	0.039
1056	0.038
1057	0.038
1057	0.037
1058	0.038
1058	0.038
1058	0.038
1059	0.039
1059	0.04
1060	0.04
1060	0.041
1061	0.042
1061	0.044
1061	0.044
1062	0.044
1062	0.045
1063	0.045
1063	0.045
1063	0.046
1064	0.047
1064	0.048
1065	0.049
1065	0.05
1066	0.051
1066	0.053
1066	0.054
1067	0.056
1067	0.058
1068	0.06
1068	0.062
1068	0.063
1069	0.065
1069	0.066
1070	0.068
1070	0.071
1071	0.074
1071	0.077
1071	0.08
1072	0.083
1072	0.087
1073	0.091
1073	0.095
1073	0.099
1074	0.103
1074	0.107
1075	0.109
1075	0.112
1076	0.115
1076	0.12
1076	0.123
1077	0.126
1077	0.13
1078	0.134
1078	0.139
1078	0.143
1079	0.147
1079	0.152
1080	0.156
1080	0.16
1080	0.163
1081	0.167
1081	0.171
1082	0.175
1082	0.179
1083	0.183
1083	0.187
1083	0.193
1084	0.199
1084	0.206
1085	0.213
1085	0.22
1085	0.227
1086	0.234
1086	0.24
1087	0.247
1087	0.255
1088	0.263
1088	0.271
1088	0.281
1089	0.289
1089	0.3
1090	0.311
1090	0.326
1090	0.34
1091	0.356
1091	0.375
1092	0.395
1092	0.418
1092	0.44
1093	0.464
1093	0.496
1094	0.53
1094	0.568
1095	0.608
1095	0.663
1095	0.732
1096	0.814
1096	0.923
1097	1.082
1097	1.333
1097	2.222
1098	-0
1098	-0
1099	-0
1099	-0
1100	-0
1100	-0
1100	-0
1101	-0
1101	-0
1102	-0
1102	-0
1102	-0
1103	-0
1103	-0
1104	-0
1104	-0
1104	-0
1105	-0
1105	-0
1106	-0
1106	-0
1107	-0
1107	-0
1107	-0
1108	-0
1108	-0
1109	-0
1109	-0
1109	-0
1110	-0
1110	-0
1111	-0
1111	-0
