Data from 15c-2-5a_Absorbance__394__02195.txt Node

Date: Fri Jan 19 13:56:25 CET 2024
User: Marek
Spectrometer: MAYP115816
Trigger mode: 0
Integration Time (sec): 2.000000E-1
Scans to average: 10
Electric dark correction enabled: true
Nonlinearity correction enabled: true
Boxcar width: 5
XAxis mode: Wavelengths
Number of Pixels in Spectrum: 2068
>>>>>Begin Spectral Data<<<<<
199	-2.28
199	-2.122
200	-1.975
200	-1.854
201	-1.784
201	-1.729
202	-1.655
202	-1.594
203	-1.541
203	-1.495
204	-1.467
204	-1.442
205	-1.422
205	-1.41
205	-1.408
206	-1.402
206	-1.398
207	-1.393
207	-1.388
208	-1.386
208	-1.382
209	-1.38
209	-1.375
210	-1.373
210	-1.371
211	-1.37
211	-1.368
212	-1.369
212	-1.369
213	-1.368
213	-1.365
213	-1.365
214	-1.36
214	-1.359
215	-1.356
215	-1.354
216	-1.351
216	-1.351
217	-1.346
217	-1.344
218	-1.341
218	-1.339
219	-1.335
219	-1.335
220	-1.333
220	-1.332
221	-1.331
221	-1.325
221	-1.32
222	-1.318
222	-1.314
223	-1.308
223	-1.303
224	-1.296
224	-1.289
225	-1.281
225	-1.27
226	-1.259
226	-1.248
227	-1.235
227	-1.22
228	-1.204
228	-1.189
229	-1.168
229	-1.145
229	-1.118
230	-1.089
230	-1.057
231	-1.021
231	-0.982
232	-0.942
232	-0.898
233	-0.85
233	-0.801
234	-0.752
234	-0.702
235	-0.653
235	-0.603
236	-0.555
236	-0.507
236	-0.46
237	-0.414
237	-0.371
238	-0.331
238	-0.292
239	-0.255
239	-0.22
240	-0.188
240	-0.157
241	-0.129
241	-0.102
242	-0.078
242	-0.056
243	-0.035
243	-0.016
243	0.001
244	0.018
244	0.032
245	0.046
245	0.059
246	0.071
246	0.081
247	0.091
247	0.101
248	0.109
248	0.117
249	0.125
249	0.132
250	0.139
250	0.145
250	0.151
251	0.157
251	0.162
252	0.167
252	0.171
253	0.176
253	0.18
254	0.184
254	0.187
255	0.19
255	0.193
256	0.196
256	0.198
257	0.201
257	0.203
258	0.205
258	0.206
258	0.208
259	0.209
259	0.21
260	0.212
260	0.212
261	0.213
261	0.214
262	0.214
262	0.215
263	0.216
263	0.216
264	0.216
264	0.216
265	0.217
265	0.217
265	0.217
266	0.217
266	0.217
267	0.217
267	0.217
268	0.216
268	0.216
269	0.215
269	0.214
270	0.213
270	0.212
271	0.212
271	0.211
272	0.21
272	0.209
272	0.208
273	0.207
273	0.206
274	0.205
274	0.204
275	0.203
275	0.202
276	0.201
276	0.2
277	0.199
277	0.197
278	0.195
278	0.194
278	0.192
279	0.19
279	0.189
280	0.188
280	0.187
281	0.186
281	0.186
282	0.185
282	0.185
283	0.184
283	0.184
284	0.184
284	0.183
285	0.183
285	0.182
285	0.181
286	0.18
286	0.179
287	0.178
287	0.178
288	0.177
288	0.176
289	0.176
289	0.175
290	0.174
290	0.173
291	0.173
291	0.172
292	0.171
292	0.171
292	0.17
293	0.169
293	0.169
294	0.168
294	0.167
295	0.167
295	0.167
296	0.166
296	0.166
297	0.165
297	0.165
298	0.165
298	0.164
298	0.164
299	0.164
299	0.163
300	0.163
300	0.162
301	0.162
301	0.162
302	0.161
302	0.161
303	0.16
303	0.16
304	0.159
304	0.159
305	0.158
305	0.158
305	0.157
306	0.157
306	0.156
307	0.156
307	0.155
308	0.155
308	0.154
309	0.153
309	0.153
310	0.152
310	0.152
311	0.151
311	0.15
311	0.15
312	0.149
312	0.149
313	0.148
313	0.148
314	0.147
314	0.146
315	0.146
315	0.145
316	0.144
316	0.144
317	0.143
317	0.142
318	0.142
318	0.141
318	0.141
319	0.14
319	0.139
320	0.139
320	0.138
321	0.137
321	0.136
322	0.136
322	0.135
323	0.134
323	0.133
324	0.132
324	0.131
324	0.131
325	0.13
325	0.129
326	0.129
326	0.128
327	0.128
327	0.127
328	0.127
328	0.126
329	0.125
329	0.125
330	0.124
330	0.124
330	0.123
331	0.122
331	0.122
332	0.121
332	0.12
333	0.12
333	0.119
334	0.118
334	0.117
335	0.117
335	0.116
336	0.115
336	0.115
336	0.114
337	0.113
337	0.112
338	0.112
338	0.111
339	0.11
339	0.11
340	0.109
340	0.109
341	0.108
341	0.108
342	0.107
342	0.107
342	0.106
343	0.105
343	0.105
344	0.104
344	0.104
345	0.103
345	0.102
346	0.102
346	0.101
347	0.1
347	0.1
348	0.099
348	0.098
348	0.098
349	0.097
349	0.096
350	0.095
350	0.095
351	0.094
351	0.093
352	0.092
352	0.091
353	0.09
353	0.089
354	0.088
354	0.087
354	0.086
355	0.085
355	0.084
356	0.083
356	0.082
357	0.081
357	0.081
358	0.081
358	0.081
359	0.082
359	0.082
360	0.083
360	0.084
360	0.084
361	0.085
361	0.085
362	0.085
362	0.085
363	0.085
363	0.085
364	0.085
364	0.084
365	0.083
365	0.083
366	0.082
366	0.082
366	0.082
367	0.081
367	0.081
368	0.081
368	0.08
369	0.08
369	0.08
370	0.079
370	0.079
371	0.078
371	0.077
372	0.077
372	0.076
372	0.076
373	0.076
373	0.075
374	0.075
374	0.075
375	0.075
375	0.075
376	0.075
376	0.075
377	0.076
377	0.076
378	0.077
378	0.077
378	0.077
379	0.077
379	0.078
380	0.078
380	0.078
381	0.078
381	0.077
382	0.077
382	0.077
383	0.076
383	0.076
383	0.076
384	0.075
384	0.075
385	0.074
385	0.074
386	0.074
386	0.074
387	0.074
387	0.074
388	0.073
388	0.073
389	0.073
389	0.073
389	0.073
390	0.073
390	0.073
391	0.074
391	0.074
392	0.074
392	0.074
393	0.074
393	0.074
394	0.074
394	0.073
394	0.073
395	0.073
395	0.072
396	0.072
396	0.072
397	0.072
397	0.073
398	0.073
398	0.073
399	0.073
399	0.073
400	0.072
400	0.072
400	0.072
401	0.071
401	0.07
402	0.069
402	0.068
403	0.068
403	0.068
404	0.068
404	0.067
405	0.067
405	0.067
405	0.066
406	0.066
406	0.066
407	0.066
407	0.065
408	0.064
408	0.064
409	0.063
409	0.063
410	0.062
410	0.062
411	0.063
411	0.062
411	0.062
412	0.062
412	0.062
413	0.061
413	0.061
414	0.061
414	0.061
415	0.06
415	0.06
416	0.059
416	0.059
416	0.058
417	0.058
417	0.058
418	0.058
418	0.058
419	0.059
419	0.059
420	0.06
420	0.06
421	0.061
421	0.061
421	0.062
422	0.062
422	0.062
423	0.062
423	0.062
424	0.061
424	0.06
425	0.059
425	0.058
426	0.057
426	0.057
427	0.056
427	0.057
427	0.057
428	0.058
428	0.059
429	0.059
429	0.06
430	0.06
430	0.06
431	0.06
431	0.059
432	0.059
432	0.058
432	0.057
433	0.055
433	0.054
434	0.053
434	0.053
435	0.053
435	0.053
436	0.053
436	0.053
437	0.053
437	0.053
437	0.053
438	0.053
438	0.052
439	0.052
439	0.052
440	0.051
440	0.051
441	0.051
441	0.051
442	0.052
442	0.052
442	0.052
443	0.052
443	0.053
444	0.053
444	0.053
445	0.053
445	0.053
446	0.053
446	0.053
447	0.052
447	0.052
447	0.052
448	0.052
448	0.051
449	0.051
449	0.051
450	0.051
450	0.05
451	0.05
451	0.049
452	0.049
452	0.048
452	0.047
453	0.047
453	0.046
454	0.045
454	0.045
455	0.044
455	0.044
456	0.043
456	0.043
457	0.043
457	0.043
458	0.042
458	0.042
458	0.042
459	0.042
459	0.042
460	0.041
460	0.04
461	0.04
461	0.039
462	0.039
462	0.039
463	0.039
463	0.04
463	0.041
464	0.041
464	0.041
465	0.041
465	0.041
466	0.041
466	0.041
467	0.041
467	0.04
467	0.039
468	0.037
468	0.035
469	0.033
469	0.032
470	0.031
470	0.03
471	0.03
471	0.029
472	0.029
472	0.029
472	0.029
473	0.03
473	0.031
474	0.032
474	0.033
475	0.033
475	0.034
476	0.034
476	0.034
477	0.034
477	0.034
477	0.034
478	0.034
478	0.034
479	0.034
479	0.034
480	0.035
480	0.036
481	0.036
481	0.037
482	0.038
482	0.039
482	0.04
483	0.042
483	0.045
484	0.048
484	0.051
485	0.052
485	0.053
486	0.054
486	0.055
487	0.055
487	0.055
487	0.054
488	0.053
488	0.051
489	0.048
489	0.046
490	0.045
490	0.043
491	0.042
491	0.042
492	0.042
492	0.042
492	0.042
493	0.043
493	0.043
494	0.044
494	0.046
495	0.048
495	0.049
496	0.05
496	0.05
496	0.051
497	0.052
497	0.052
498	0.052
498	0.053
499	0.052
499	0.052
500	0.052
500	0.053
501	0.054
501	0.055
501	0.056
502	0.057
502	0.058
503	0.06
503	0.061
504	0.061
504	0.061
505	0.06
505	0.06
506	0.06
506	0.06
506	0.059
507	0.059
507	0.058
508	0.058
508	0.058
509	0.058
509	0.058
510	0.059
510	0.059
511	0.059
511	0.058
511	0.057
512	0.057
512	0.057
513	0.057
513	0.055
514	0.054
514	0.052
515	0.051
515	0.05
515	0.049
516	0.048
516	0.048
517	0.048
517	0.048
518	0.048
518	0.047
519	0.046
519	0.044
520	0.041
520	0.038
520	0.035
521	0.032
521	0.029
522	0.026
522	0.023
523	0.022
523	0.022
524	0.023
524	0.025
524	0.028
525	0.031
525	0.035
526	0.039
526	0.042
527	0.046
527	0.049
528	0.051
528	0.053
529	0.054
529	0.055
529	0.055
530	0.056
530	0.056
531	0.056
531	0.056
532	0.056
532	0.056
533	0.056
533	0.057
533	0.057
534	0.057
534	0.056
535	0.056
535	0.056
536	0.056
536	0.056
537	0.055
537	0.055
538	0.054
538	0.053
538	0.052
539	0.051
539	0.05
540	0.05
540	0.049
541	0.047
541	0.046
542	0.045
542	0.044
542	0.043
543	0.043
543	0.042
544	0.042
544	0.041
545	0.041
545	0.041
546	0.042
546	0.042
547	0.041
547	0.039
547	0.038
548	0.036
548	0.034
549	0.032
549	0.031
550	0.029
550	0.028
551	0.026
551	0.024
551	0.023
552	0.023
552	0.022
553	0.022
553	0.023
554	0.023
554	0.022
555	0.02
555	0.018
556	0.016
556	0.014
556	0.011
557	0.01
557	0.008
558	0.006
558	0.005
559	0.004
559	0.004
560	0.004
560	0.004
560	0.005
561	0.005
561	0.006
562	0.007
562	0.007
563	0.005
563	0.004
564	0.002
564	0
564	-0.002
565	-0.003
565	-0.003
566	-0.003
566	-0.004
567	-0.003
567	-0.001
568	0.001
568	0.004
568	0.006
569	0.009
569	0.012
570	0.014
570	0.014
571	0.016
571	0.017
572	0.018
572	0.019
573	0.019
573	0.019
573	0.019
574	0.019
574	0.019
575	0.019
575	0.021
576	0.022
576	0.022
577	0.021
577	0.02
577	0.02
578	0.019
578	0.02
579	0.021
579	0.023
580	0.023
580	0.021
581	0.018
581	0.016
581	0.015
582	0.014
582	0.014
583	0.016
583	0.016
584	0.013
584	0.01
585	0.008
585	0.007
585	0.008
586	0.008
586	0.008
587	0.006
587	0.004
588	0.001
588	-0.002
589	-0.003
589	-0.004
590	-0.005
590	-0.006
590	-0.006
591	-0.004
591	-0.004
592	-0.004
592	-0.005
593	-0.005
593	-0.005
594	-0.005
594	-0.006
594	-0.007
595	-0.007
595	-0.009
596	-0.011
596	-0.01
597	-0.008
597	-0.006
598	-0.005
598	-0.003
598	-0.002
599	-0.002
599	-0.002
600	-0.003
600	-0.004
601	-0.005
601	-0.006
602	-0.008
602	-0.01
602	-0.012
603	-0.013
603	-0.013
604	-0.012
604	-0.01
605	-0.008
605	-0.006
606	-0.005
606	-0.005
606	-0.006
607	-0.006
607	-0.006
608	-0.006
608	-0.008
609	-0.01
609	-0.011
610	-0.013
610	-0.015
610	-0.016
611	-0.016
611	-0.015
612	-0.014
612	-0.013
613	-0.012
613	-0.011
614	-0.011
614	-0.012
614	-0.012
615	-0.012
615	-0.013
616	-0.013
616	-0.014
617	-0.015
617	-0.016
618	-0.018
618	-0.019
618	-0.02
619	-0.02
619	-0.02
620	-0.018
620	-0.017
621	-0.017
621	-0.016
622	-0.016
622	-0.016
622	-0.016
623	-0.016
623	-0.015
624	-0.014
624	-0.015
625	-0.016
625	-0.016
626	-0.016
626	-0.016
626	-0.016
627	-0.016
627	-0.015
628	-0.015
628	-0.015
629	-0.015
629	-0.015
630	-0.016
630	-0.017
630	-0.017
631	-0.017
631	-0.018
632	-0.019
632	-0.02
633	-0.02
633	-0.02
634	-0.019
634	-0.017
634	-0.015
635	-0.013
635	-0.012
636	-0.011
636	-0.01
637	-0.009
637	-0.009
638	-0.008
638	-0.007
638	-0.007
639	-0.007
639	-0.008
640	-0.008
640	-0.007
641	-0.006
641	-0.005
642	-0.004
642	-0.003
642	-0.001
643	-0
643	0.001
644	0.003
644	0.004
645	0.006
645	0.008
646	0.01
646	0.013
646	0.016
647	0.019
647	0.023
648	0.025
648	0.027
649	0.03
649	0.033
650	0.036
650	0.039
650	0.041
651	0.043
651	0.044
652	0.045
652	0.046
653	0.049
653	0.056
653	0.079
654	0.069
654	0.061
655	0.062
655	0.063
656	0.064
656	0.066
657	0.067
657	0.069
657	0.069
658	0.067
658	0.051
659	0.061
659	0.074
660	0.077
660	0.078
661	0.08
661	0.081
661	0.082
662	0.084
662	0.087
663	0.089
663	0.091
664	0.092
664	0.094
665	0.095
665	0.097
665	0.098
666	0.1
666	0.102
667	0.104
667	0.105
668	0.107
668	0.109
669	0.11
669	0.113
669	0.116
670	0.119
670	0.122
671	0.124
671	0.125
672	0.126
672	0.127
672	0.128
673	0.129
673	0.13
674	0.131
674	0.131
675	0.131
675	0.131
676	0.133
676	0.134
676	0.136
677	0.138
677	0.14
678	0.142
678	0.143
679	0.144
679	0.145
680	0.147
680	0.148
680	0.149
681	0.149
681	0.15
682	0.151
682	0.152
683	0.153
683	0.156
684	0.158
684	0.159
684	0.159
685	0.159
685	0.16
686	0.161
686	0.161
687	0.161
687	0.16
687	0.16
688	0.158
688	0.157
689	0.157
689	0.158
690	0.158
690	0.158
691	0.157
691	0.157
691	0.157
692	0.157
692	0.156
693	0.156
693	0.156
694	0.156
694	0.153
695	0.153
695	0.155
695	0.156
696	0.155
696	0.155
697	0.154
697	0.154
698	0.153
698	0.152
698	0.15
699	0.15
699	0.148
700	0.145
700	0.144
701	0.143
701	0.142
702	0.141
702	0.14
702	0.139
703	0.138
703	0.136
704	0.136
704	0.135
705	0.136
705	0.135
705	0.135
706	0.135
706	0.134
707	0.133
707	0.132
708	0.131
708	0.129
709	0.128
709	0.126
709	0.123
710	0.12
710	0.117
711	0.115
711	0.114
712	0.112
712	0.111
713	0.109
713	0.108
713	0.106
714	0.104
714	0.103
715	0.101
715	0.1
716	0.097
716	0.096
716	0.095
717	0.093
717	0.092
718	0.09
718	0.087
719	0.086
719	0.085
720	0.083
720	0.081
720	0.079
721	0.076
721	0.074
722	0.072
722	0.07
723	0.068
723	0.067
723	0.065
724	0.064
724	0.062
725	0.06
725	0.058
726	0.056
726	0.055
727	0.053
727	0.052
727	0.05
728	0.048
728	0.047
729	0.047
729	0.046
730	0.045
730	0.043
730	0.042
731	0.04
731	0.039
732	0.038
732	0.037
733	0.035
733	0.034
734	0.032
734	0.029
734	0.028
735	0.026
735	0.025
736	0.022
736	0.02
737	0.018
737	0.016
737	0.015
738	0.012
738	0.009
739	0.007
739	0.005
740	0.003
740	0.002
741	0.001
741	-0.001
741	-0.004
742	-0.008
742	-0.012
743	-0.014
743	-0.017
744	-0.019
744	-0.021
744	-0.023
745	-0.026
745	-0.028
746	-0.03
746	-0.031
747	-0.031
747	-0.03
748	-0.029
748	-0.028
748	-0.028
749	-0.028
749	-0.028
750	-0.029
750	-0.03
751	-0.03
751	-0.031
751	-0.031
752	-0.032
752	-0.034
753	-0.036
753	-0.037
754	-0.037
754	-0.038
754	-0.037
755	-0.036
755	-0.035
756	-0.035
756	-0.036
757	-0.037
757	-0.037
758	-0.038
758	-0.039
758	-0.039
759	-0.04
759	-0.042
760	-0.045
760	-0.048
761	-0.051
761	-0.052
761	-0.054
762	-0.056
762	-0.057
763	-0.058
763	-0.061
764	-0.064
764	-0.066
764	-0.069
765	-0.071
765	-0.074
766	-0.075
766	-0.076
767	-0.076
767	-0.079
768	-0.083
768	-0.085
768	-0.086
769	-0.087
769	-0.088
770	-0.089
770	-0.09
771	-0.092
771	-0.095
771	-0.098
772	-0.1
772	-0.101
773	-0.103
773	-0.106
774	-0.11
774	-0.114
775	-0.117
775	-0.12
775	-0.124
776	-0.128
776	-0.132
777	-0.136
777	-0.14
778	-0.144
778	-0.15
778	-0.154
779	-0.155
779	-0.152
780	-0.151
780	-0.152
781	-0.152
781	-0.152
781	-0.151
782	-0.151
782	-0.151
783	-0.15
783	-0.148
784	-0.148
784	-0.151
784	-0.153
785	-0.154
785	-0.156
786	-0.156
786	-0.154
787	-0.149
787	-0.145
788	-0.144
788	-0.145
788	-0.147
789	-0.149
789	-0.149
790	-0.146
790	-0.145
791	-0.146
791	-0.148
791	-0.15
792	-0.145
792	-0.135
793	-0.129
793	-0.125
794	-0.123
794	-0.124
794	-0.128
795	-0.13
795	-0.13
796	-0.13
796	-0.132
797	-0.141
797	-0.152
797	-0.158
798	-0.163
798	-0.166
799	-0.167
799	-0.167
800	-0.166
800	-0.168
801	-0.17
801	-0.171
801	-0.171
802	-0.172
802	-0.172
803	-0.173
803	-0.173
804	-0.172
804	-0.167
804	-0.16
805	-0.157
805	-0.154
806	-0.152
806	-0.151
807	-0.15
807	-0.149
807	-0.149
808	-0.149
808	-0.149
809	-0.154
809	-0.16
810	-0.163
810	-0.166
810	-0.169
811	-0.173
811	-0.173
812	-0.17
812	-0.167
813	-0.168
813	-0.169
813	-0.17
814	-0.172
814	-0.172
815	-0.17
815	-0.168
816	-0.166
816	-0.166
817	-0.171
817	-0.174
817	-0.174
818	-0.173
818	-0.169
819	-0.164
819	-0.161
820	-0.162
820	-0.164
820	-0.165
821	-0.165
821	-0.164
822	-0.163
822	-0.163
823	-0.163
823	-0.165
823	-0.168
824	-0.169
824	-0.166
825	-0.161
825	-0.155
826	-0.149
826	-0.145
826	-0.139
827	-0.133
827	-0.126
828	-0.119
828	-0.114
829	-0.108
829	-0.103
829	-0.099
830	-0.097
830	-0.094
831	-0.091
831	-0.088
832	-0.087
832	-0.085
832	-0.084
833	-0.084
833	-0.083
834	-0.082
834	-0.082
835	-0.081
835	-0.081
835	-0.08
836	-0.079
836	-0.078
837	-0.077
837	-0.076
838	-0.076
838	-0.075
839	-0.074
839	-0.074
839	-0.073
840	-0.072
840	-0.071
841	-0.07
841	-0.069
842	-0.068
842	-0.066
842	-0.064
843	-0.061
843	-0.059
844	-0.056
844	-0.053
845	-0.051
845	-0.049
845	-0.047
846	-0.045
846	-0.043
847	-0.042
847	-0.041
848	-0.041
848	-0.041
848	-0.04
849	-0.04
849	-0.04
850	-0.04
850	-0.04
851	-0.04
851	-0.039
851	-0.039
852	-0.039
852	-0.038
853	-0.037
853	-0.037
854	-0.036
854	-0.036
854	-0.035
855	-0.035
855	-0.035
856	-0.035
856	-0.035
857	-0.035
857	-0.035
857	-0.035
858	-0.035
858	-0.035
859	-0.035
859	-0.034
860	-0.033
860	-0.032
860	-0.031
861	-0.03
861	-0.029
862	-0.029
862	-0.028
863	-0.027
863	-0.027
863	-0.026
864	-0.025
864	-0.024
865	-0.023
865	-0.022
866	-0.022
866	-0.021
866	-0.02
867	-0.019
867	-0.018
868	-0.017
868	-0.017
869	-0.016
869	-0.016
869	-0.016
870	-0.016
870	-0.016
871	-0.016
871	-0.016
872	-0.016
872	-0.015
872	-0.015
873	-0.015
873	-0.015
874	-0.015
874	-0.015
875	-0.015
875	-0.016
875	-0.016
876	-0.016
876	-0.016
877	-0.017
877	-0.017
878	-0.018
878	-0.018
878	-0.019
879	-0.019
879	-0.02
880	-0.021
880	-0.021
881	-0.021
881	-0.021
881	-0.021
882	-0.02
882	-0.019
883	-0.018
883	-0.016
884	-0.014
884	-0.013
884	-0.011
885	-0.01
885	-0.008
886	-0.007
886	-0.006
887	-0.006
887	-0.006
887	-0.006
888	-0.006
888	-0.007
889	-0.007
889	-0.007
890	-0.008
890	-0.008
890	-0.009
891	-0.009
891	-0.01
892	-0.01
892	-0.011
893	-0.011
893	-0.011
893	-0.011
894	-0.011
894	-0.012
895	-0.012
895	-0.012
895	-0.013
896	-0.013
896	-0.013
897	-0.013
897	-0.013
898	-0.012
898	-0.012
898	-0.012
899	-0.012
899	-0.011
900	-0.011
900	-0.011
901	-0.01
901	-0.009
901	-0.009
902	-0.008
902	-0.007
903	-0.006
903	-0.005
904	-0.005
904	-0.004
904	-0.003
905	-0.002
905	-0.001
906	-0.001
906	-0.001
907	-0.001
907	-0.001
907	-0.002
908	-0.002
908	-0.002
909	-0.003
909	-0.003
910	-0.004
910	-0.004
910	-0.005
911	-0.005
911	-0.005
912	-0.006
912	-0.006
913	-0.007
913	-0.007
913	-0.007
914	-0.008
914	-0.008
915	-0.008
915	-0.009
916	-0.009
916	-0.009
916	-0.009
917	-0.009
917	-0.009
918	-0.009
918	-0.009
918	-0.008
919	-0.008
919	-0.007
920	-0.006
920	-0.005
921	-0.004
921	-0.004
921	-0.003
922	-0.002
922	-0.001
923	-0.001
923	-0
924	0
924	0
924	-0
925	-0
925	-0.001
926	-0.001
926	-0.001
927	-0.002
927	-0.002
927	-0.002
928	-0.002
928	-0.002
929	-0.002
929	-0.002
930	-0.003
930	-0.003
930	-0.003
931	-0.003
931	-0.003
932	-0.003
932	-0.003
933	-0.003
933	-0.003
933	-0.003
934	-0.003
934	-0.003
935	-0.003
935	-0.003
935	-0.003
936	-0.002
936	-0.002
937	-0.001
937	-0
938	0
938	0.001
938	0.001
939	0.001
939	0.002
940	0.002
940	0.001
941	0.001
941	0.001
941	0
942	0
942	0
943	0
943	0
944	0.001
944	0.001
944	0.002
945	0.002
945	0.003
946	0.003
946	0.004
946	0.004
947	0.004
947	0.004
948	0.004
948	0.004
949	0.004
949	0.004
949	0.004
950	0.005
950	0.005
951	0.005
951	0.005
952	0.005
952	0.005
952	0.005
953	0.005
953	0.005
954	0.005
954	0.005
955	0.004
955	0.004
955	0.004
956	0.003
956	0.003
957	0.002
957	0.001
957	0
958	-0
958	-0.001
959	-0.002
959	-0.003
960	-0.003
960	-0.004
960	-0.004
961	-0.005
961	-0.005
962	-0.005
962	-0.005
963	-0.005
963	-0.005
963	-0.005
964	-0.005
964	-0.005
965	-0.005
965	-0.005
966	-0.005
966	-0.004
966	-0.004
967	-0.004
967	-0.003
968	-0.003
968	-0.003
968	-0.002
969	-0.001
969	-0.001
970	-0
970	-0
971	0
971	0.001
971	0.001
972	0.002
972	0.003
973	0.004
973	0.005
974	0.005
974	0.006
974	0.007
975	0.009
975	0.01
976	0.011
976	0.012
976	0.012
977	0.012
977	0.012
978	0.012
978	0.011
979	0.011
979	0.01
979	0.009
980	0.008
980	0.007
981	0.006
981	0.005
982	0.005
982	0.005
982	0.005
983	0.005
983	0.004
984	0.004
984	0.004
984	0.004
985	0.004
985	0.004
986	0.004
986	0.004
987	0.004
987	0.004
987	0.004
988	0.004
988	0.004
989	0.004
989	0.003
990	0.003
990	0.003
990	0.003
991	0.003
991	0.003
992	0.003
992	0.002
992	0.002
993	0.001
993	0.001
994	0.001
994	0
995	-0
995	-0
995	-0.001
996	-0.001
996	-0
997	-0
997	0.001
997	0.002
998	0.003
998	0.004
999	0.005
999	0.006
1000	0.007
1000	0.007
1000	0.008
1001	0.008
1001	0.008
1002	0.007
1002	0.006
1003	0.005
1003	0.004
1003	0.003
1004	0.002
1004	0
1005	-0.001
1005	-0.002
1005	-0.003
1006	-0.004
1006	-0.005
1007	-0.005
1007	-0.006
1008	-0.006
1008	-0.007
1008	-0.007
1009	-0.007
1009	-0.007
1010	-0.007
1010	-0.007
1010	-0.007
1011	-0.007
1011	-0.007
1012	-0.007
1012	-0.007
1013	-0.007
1013	-0.007
1013	-0.006
1014	-0.006
1014	-0.006
1015	-0.005
1015	-0.004
1016	-0.003
1016	-0.002
1016	-0.001
1017	0
1017	0.002
1018	0.003
1018	0.005
1018	0.007
1019	0.008
1019	0.01
1020	0.01
1020	0.011
1021	0.012
1021	0.012
1021	0.013
1022	0.013
1022	0.013
1023	0.012
1023	0.012
1023	0.012
1024	0.011
1024	0.01
1025	0.01
1025	0.01
1026	0.009
1026	0.009
1026	0.009
1027	0.009
1027	0.008
1028	0.008
1028	0.008
1028	0.008
1029	0.008
1029	0.008
1030	0.007
1030	0.007
1031	0.007
1031	0.007
1031	0.007
1032	0.007
1032	0.007
1033	0.007
1033	0.007
1033	0.007
1034	0.007
1034	0.006
1035	0.006
1035	0.006
1036	0.006
1036	0.006
1036	0.006
1037	0.006
1037	0.006
1038	0.006
1038	0.006
1039	0.007
1039	0.008
1039	0.009
1040	0.01
1040	0.011
1041	0.011
1041	0.012
1041	0.012
1042	0.012
1042	0.013
1043	0.013
1043	0.013
1044	0.013
1044	0.013
1044	0.014
1045	0.014
1045	0.015
1046	0.016
1046	0.016
1046	0.018
1047	0.019
1047	0.02
1048	0.021
1048	0.022
1049	0.022
1049	0.023
1049	0.023
1050	0.023
1050	0.023
1051	0.024
1051	0.025
1051	0.025
1052	0.026
1052	0.027
1053	0.029
1053	0.03
1053	0.031
1054	0.033
1054	0.034
1055	0.035
1055	0.035
1056	0.035
1056	0.035
1056	0.034
1057	0.034
1057	0.034
1058	0.034
1058	0.034
1058	0.034
1059	0.034
1059	0.034
1060	0.035
1060	0.036
1061	0.036
1061	0.037
1061	0.038
1062	0.038
1062	0.038
1063	0.038
1063	0.038
1063	0.039
1064	0.04
1064	0.041
1065	0.042
1065	0.043
1066	0.043
1066	0.044
1066	0.046
1067	0.047
1067	0.049
1068	0.05
1068	0.052
1068	0.053
1069	0.054
1069	0.055
1070	0.057
1070	0.06
1071	0.062
1071	0.065
1071	0.068
1072	0.071
1072	0.074
1073	0.078
1073	0.082
1073	0.085
1074	0.089
1074	0.092
1075	0.094
1075	0.097
1076	0.099
1076	0.102
1076	0.104
1077	0.107
1077	0.11
1078	0.113
1078	0.118
1078	0.122
1079	0.125
1079	0.129
1080	0.133
1080	0.137
1080	0.14
1081	0.144
1081	0.148
1082	0.152
1082	0.156
1083	0.159
1083	0.164
1083	0.17
1084	0.175
1084	0.181
1085	0.187
1085	0.194
1085	0.2
1086	0.206
1086	0.211
1087	0.218
1087	0.226
1088	0.232
1088	0.239
1088	0.249
1089	0.258
1089	0.267
1090	0.277
1090	0.29
1090	0.303
1091	0.318
1091	0.335
1092	0.351
1092	0.372
1092	0.391
1093	0.411
1093	0.438
1094	0.466
1094	0.497
1095	0.53
1095	0.572
1095	0.627
1096	0.686
1096	0.759
1097	0.858
1097	0.983
1097	1.185
1098	1.579
1098	-0
1099	-0
1099	-0
1100	-0
1100	-0
1100	-0
1101	-0
1101	-0
1102	-0
1102	-0
1102	-0
1103	-0
1103	-0
1104	-0
1104	-0
1104	-0
1105	-0
1105	-0
1106	-0
1106	-0
1107	-0
1107	-0
1107	-0
1108	-0
1108	-0
1109	-0
1109	-0
1109	-0
1110	-0
1110	-0
1111	-0
1111	-0
