Data from 15c-2-5a_Absorbance__1494__03295.txt Node

Date: Fri Jan 19 14:33:05 CET 2024
User: Marek
Spectrometer: MAYP115816
Trigger mode: 0
Integration Time (sec): 2.000000E-1
Scans to average: 10
Electric dark correction enabled: true
Nonlinearity correction enabled: true
Boxcar width: 5
XAxis mode: Wavelengths
Number of Pixels in Spectrum: 2068
>>>>>Begin Spectral Data<<<<<
199	-2.295
199	-2.137
200	-1.99
200	-1.868
201	-1.798
201	-1.743
202	-1.669
202	-1.608
203	-1.554
203	-1.508
204	-1.48
204	-1.455
205	-1.434
205	-1.423
205	-1.421
206	-1.415
206	-1.41
207	-1.405
207	-1.401
208	-1.399
208	-1.395
209	-1.394
209	-1.388
210	-1.386
210	-1.385
211	-1.383
211	-1.381
212	-1.382
212	-1.382
213	-1.381
213	-1.378
213	-1.377
214	-1.372
214	-1.371
215	-1.368
215	-1.366
216	-1.363
216	-1.363
217	-1.358
217	-1.356
218	-1.354
218	-1.351
219	-1.348
219	-1.347
220	-1.345
220	-1.345
221	-1.344
221	-1.338
221	-1.332
222	-1.33
222	-1.326
223	-1.32
223	-1.316
224	-1.308
224	-1.301
225	-1.293
225	-1.281
226	-1.27
226	-1.26
227	-1.247
227	-1.232
228	-1.216
228	-1.199
229	-1.179
229	-1.157
229	-1.13
230	-1.1
230	-1.068
231	-1.031
231	-0.992
232	-0.95
232	-0.905
233	-0.857
233	-0.806
234	-0.756
234	-0.704
235	-0.652
235	-0.601
236	-0.55
236	-0.499
236	-0.45
237	-0.401
237	-0.355
238	-0.31
238	-0.268
239	-0.227
239	-0.188
240	-0.152
240	-0.117
241	-0.085
241	-0.054
242	-0.026
242	0
243	0.025
243	0.047
243	0.069
244	0.088
244	0.107
245	0.123
245	0.139
246	0.154
246	0.167
247	0.18
247	0.192
248	0.203
248	0.213
249	0.223
249	0.231
250	0.24
250	0.248
250	0.255
251	0.262
251	0.269
252	0.276
252	0.282
253	0.287
253	0.292
254	0.297
254	0.302
255	0.306
255	0.31
256	0.314
256	0.317
257	0.32
257	0.323
258	0.325
258	0.327
258	0.329
259	0.331
259	0.333
260	0.335
260	0.336
261	0.337
261	0.338
262	0.339
262	0.34
263	0.342
263	0.342
264	0.343
264	0.344
265	0.344
265	0.344
265	0.345
266	0.345
266	0.345
267	0.345
267	0.345
268	0.344
268	0.344
269	0.343
269	0.342
270	0.342
270	0.341
271	0.34
271	0.34
272	0.339
272	0.338
272	0.338
273	0.337
273	0.336
274	0.335
274	0.334
275	0.333
275	0.333
276	0.332
276	0.33
277	0.329
277	0.327
278	0.325
278	0.323
278	0.32
279	0.318
279	0.317
280	0.316
280	0.315
281	0.315
281	0.314
282	0.314
282	0.313
283	0.313
283	0.314
284	0.314
284	0.314
285	0.314
285	0.313
285	0.312
286	0.311
286	0.31
287	0.309
287	0.308
288	0.307
288	0.306
289	0.306
289	0.305
290	0.304
290	0.303
291	0.302
291	0.301
292	0.301
292	0.3
292	0.299
293	0.298
293	0.298
294	0.297
294	0.296
295	0.295
295	0.295
296	0.294
296	0.293
297	0.292
297	0.292
298	0.291
298	0.291
298	0.29
299	0.289
299	0.289
300	0.288
300	0.287
301	0.286
301	0.286
302	0.285
302	0.284
303	0.284
303	0.283
304	0.282
304	0.281
305	0.281
305	0.28
305	0.279
306	0.279
306	0.278
307	0.277
307	0.276
308	0.276
308	0.275
309	0.274
309	0.273
310	0.272
310	0.272
311	0.271
311	0.27
311	0.269
312	0.268
312	0.267
313	0.266
313	0.265
314	0.264
314	0.263
315	0.262
315	0.261
316	0.26
316	0.259
317	0.258
317	0.257
318	0.256
318	0.255
318	0.255
319	0.254
319	0.253
320	0.252
320	0.251
321	0.25
321	0.249
322	0.248
322	0.246
323	0.245
323	0.244
324	0.243
324	0.242
324	0.241
325	0.24
325	0.239
326	0.238
326	0.237
327	0.236
327	0.235
328	0.235
328	0.234
329	0.233
329	0.232
330	0.231
330	0.23
330	0.229
331	0.228
331	0.227
332	0.226
332	0.225
333	0.224
333	0.223
334	0.222
334	0.221
335	0.22
335	0.22
336	0.219
336	0.218
336	0.217
337	0.216
337	0.215
338	0.215
338	0.214
339	0.213
339	0.212
340	0.211
340	0.21
341	0.21
341	0.209
342	0.208
342	0.207
342	0.207
343	0.206
343	0.205
344	0.204
344	0.203
345	0.203
345	0.202
346	0.201
346	0.2
347	0.199
347	0.198
348	0.197
348	0.196
348	0.195
349	0.194
349	0.194
350	0.193
350	0.192
351	0.191
351	0.19
352	0.188
352	0.187
353	0.186
353	0.185
354	0.184
354	0.182
354	0.181
355	0.179
355	0.178
356	0.177
356	0.176
357	0.175
357	0.174
358	0.174
358	0.174
359	0.175
359	0.176
360	0.177
360	0.178
360	0.178
361	0.179
361	0.18
362	0.181
362	0.181
363	0.181
363	0.18
364	0.18
364	0.179
365	0.178
365	0.177
366	0.177
366	0.176
366	0.176
367	0.176
367	0.175
368	0.174
368	0.174
369	0.173
369	0.173
370	0.172
370	0.172
371	0.171
371	0.17
372	0.17
372	0.169
372	0.168
373	0.168
373	0.168
374	0.168
374	0.168
375	0.167
375	0.167
376	0.167
376	0.167
377	0.168
377	0.168
378	0.169
378	0.169
378	0.169
379	0.169
379	0.169
380	0.169
380	0.169
381	0.169
381	0.169
382	0.169
382	0.168
383	0.167
383	0.167
383	0.166
384	0.166
384	0.165
385	0.165
385	0.164
386	0.164
386	0.164
387	0.164
387	0.164
388	0.164
388	0.163
389	0.163
389	0.163
389	0.163
390	0.163
390	0.163
391	0.163
391	0.164
392	0.164
392	0.163
393	0.163
393	0.163
394	0.163
394	0.163
394	0.162
395	0.162
395	0.161
396	0.161
396	0.161
397	0.161
397	0.161
398	0.161
398	0.161
399	0.161
399	0.161
400	0.161
400	0.16
400	0.159
401	0.158
401	0.157
402	0.156
402	0.155
403	0.154
403	0.154
404	0.154
404	0.154
405	0.153
405	0.153
405	0.152
406	0.151
406	0.151
407	0.151
407	0.151
408	0.15
408	0.149
409	0.149
409	0.148
410	0.148
410	0.147
411	0.148
411	0.148
411	0.147
412	0.147
412	0.146
413	0.146
413	0.146
414	0.146
414	0.145
415	0.145
415	0.144
416	0.144
416	0.143
416	0.142
417	0.142
417	0.142
418	0.141
418	0.142
419	0.142
419	0.143
420	0.144
420	0.145
421	0.145
421	0.146
421	0.146
422	0.147
422	0.147
423	0.147
423	0.146
424	0.146
424	0.145
425	0.143
425	0.142
426	0.141
426	0.14
427	0.14
427	0.14
427	0.141
428	0.141
428	0.142
429	0.143
429	0.144
430	0.144
430	0.144
431	0.143
431	0.143
432	0.142
432	0.141
432	0.14
433	0.138
433	0.137
434	0.135
434	0.134
435	0.134
435	0.134
436	0.135
436	0.135
437	0.135
437	0.135
437	0.135
438	0.135
438	0.134
439	0.134
439	0.134
440	0.134
440	0.133
441	0.133
441	0.133
442	0.134
442	0.134
442	0.134
443	0.135
443	0.135
444	0.135
444	0.135
445	0.135
445	0.135
446	0.135
446	0.135
447	0.134
447	0.134
447	0.134
448	0.134
448	0.133
449	0.133
449	0.132
450	0.132
450	0.131
451	0.131
451	0.13
452	0.129
452	0.129
452	0.128
453	0.127
453	0.126
454	0.126
454	0.125
455	0.124
455	0.124
456	0.124
456	0.123
457	0.123
457	0.123
458	0.123
458	0.123
458	0.123
459	0.123
459	0.123
460	0.122
460	0.121
461	0.12
461	0.12
462	0.119
462	0.119
463	0.12
463	0.12
463	0.121
464	0.122
464	0.122
465	0.122
465	0.122
466	0.122
466	0.123
467	0.123
467	0.122
467	0.121
468	0.119
468	0.116
469	0.114
469	0.112
470	0.111
470	0.11
471	0.109
471	0.109
472	0.108
472	0.108
472	0.109
473	0.11
473	0.111
474	0.112
474	0.114
475	0.115
475	0.115
476	0.116
476	0.116
477	0.117
477	0.117
477	0.117
478	0.117
478	0.117
479	0.117
479	0.118
480	0.119
480	0.12
481	0.12
481	0.121
482	0.122
482	0.124
482	0.125
483	0.128
483	0.131
484	0.136
484	0.139
485	0.141
485	0.143
486	0.145
486	0.145
487	0.146
487	0.146
487	0.146
488	0.145
488	0.142
489	0.139
489	0.136
490	0.134
490	0.133
491	0.132
491	0.131
492	0.132
492	0.132
492	0.132
493	0.133
493	0.134
494	0.136
494	0.138
495	0.14
495	0.142
496	0.143
496	0.144
496	0.145
497	0.146
497	0.147
498	0.148
498	0.148
499	0.148
499	0.148
500	0.148
500	0.149
501	0.151
501	0.152
501	0.154
502	0.156
502	0.157
503	0.159
503	0.16
504	0.161
504	0.161
505	0.161
505	0.161
506	0.161
506	0.161
506	0.161
507	0.16
507	0.16
508	0.16
508	0.16
509	0.16
509	0.161
510	0.161
510	0.161
511	0.161
511	0.161
511	0.16
512	0.161
512	0.16
513	0.159
513	0.157
514	0.155
514	0.153
515	0.153
515	0.152
515	0.152
516	0.151
516	0.151
517	0.151
517	0.15
518	0.149
518	0.148
519	0.146
519	0.143
520	0.139
520	0.135
520	0.131
521	0.128
521	0.125
522	0.123
522	0.122
523	0.122
523	0.124
524	0.127
524	0.131
524	0.135
525	0.14
525	0.144
526	0.147
526	0.15
527	0.153
527	0.156
528	0.157
528	0.159
529	0.16
529	0.16
529	0.16
530	0.159
530	0.159
531	0.159
531	0.159
532	0.159
532	0.159
533	0.159
533	0.159
533	0.159
534	0.158
534	0.158
535	0.157
535	0.157
536	0.156
536	0.156
537	0.155
537	0.155
538	0.154
538	0.152
538	0.151
539	0.15
539	0.15
540	0.149
540	0.148
541	0.146
541	0.144
542	0.142
542	0.141
542	0.139
543	0.138
543	0.137
544	0.135
544	0.133
545	0.133
545	0.132
546	0.132
546	0.132
547	0.131
547	0.129
547	0.126
548	0.124
548	0.121
549	0.119
549	0.117
550	0.115
550	0.113
551	0.111
551	0.108
551	0.106
552	0.105
552	0.104
553	0.103
553	0.103
554	0.103
554	0.101
555	0.099
555	0.096
556	0.093
556	0.09
556	0.087
557	0.084
557	0.081
558	0.079
558	0.077
559	0.075
559	0.074
560	0.074
560	0.073
560	0.073
561	0.073
561	0.074
562	0.074
562	0.073
563	0.072
563	0.069
564	0.067
564	0.064
564	0.061
565	0.059
565	0.058
566	0.057
566	0.057
567	0.057
567	0.059
568	0.061
568	0.063
568	0.066
569	0.069
569	0.073
570	0.075
570	0.076
571	0.077
571	0.079
572	0.08
572	0.08
573	0.081
573	0.081
573	0.08
574	0.079
574	0.078
575	0.077
575	0.078
576	0.08
576	0.079
577	0.078
577	0.076
577	0.075
578	0.074
578	0.074
579	0.075
579	0.077
580	0.077
580	0.074
581	0.071
581	0.068
581	0.067
582	0.066
582	0.066
583	0.067
583	0.066
584	0.064
584	0.059
585	0.056
585	0.056
585	0.056
586	0.056
586	0.055
587	0.054
587	0.051
588	0.047
588	0.044
589	0.041
589	0.04
590	0.038
590	0.037
590	0.037
591	0.038
591	0.038
592	0.039
592	0.038
593	0.038
593	0.038
594	0.038
594	0.037
594	0.036
595	0.035
595	0.033
596	0.03
596	0.03
597	0.031
597	0.033
598	0.034
598	0.036
598	0.037
599	0.038
599	0.038
600	0.037
600	0.036
601	0.036
601	0.035
602	0.034
602	0.032
602	0.031
603	0.029
603	0.03
604	0.031
604	0.033
605	0.035
605	0.037
606	0.039
606	0.038
606	0.038
607	0.037
607	0.037
608	0.036
608	0.034
609	0.032
609	0.03
610	0.028
610	0.025
610	0.024
611	0.024
611	0.024
612	0.025
612	0.026
613	0.028
613	0.03
614	0.03
614	0.03
614	0.03
615	0.029
615	0.029
616	0.028
616	0.028
617	0.027
617	0.025
618	0.023
618	0.021
618	0.02
619	0.019
619	0.019
620	0.021
620	0.022
621	0.023
621	0.023
622	0.023
622	0.024
622	0.024
623	0.024
623	0.025
624	0.026
624	0.026
625	0.025
625	0.025
626	0.024
626	0.024
626	0.024
627	0.025
627	0.025
628	0.026
628	0.027
629	0.027
629	0.027
630	0.027
630	0.026
630	0.026
631	0.026
631	0.027
632	0.026
632	0.026
633	0.026
633	0.027
634	0.029
634	0.031
634	0.034
635	0.036
635	0.037
636	0.038
636	0.04
637	0.041
637	0.042
638	0.043
638	0.044
638	0.045
639	0.045
639	0.045
640	0.045
640	0.047
641	0.048
641	0.05
642	0.052
642	0.054
642	0.055
643	0.057
643	0.059
644	0.061
644	0.063
645	0.065
645	0.067
646	0.07
646	0.073
646	0.078
647	0.082
647	0.087
648	0.09
648	0.094
649	0.097
649	0.101
650	0.104
650	0.108
650	0.111
651	0.113
651	0.116
652	0.117
652	0.119
653	0.122
653	0.131
653	0.159
654	0.131
654	0.111
655	0.116
655	0.118
656	0.12
656	0.121
657	0.123
657	0.125
657	0.126
658	0.123
658	0.104
659	0.128
659	0.161
660	0.162
660	0.163
661	0.165
661	0.167
661	0.169
662	0.172
662	0.175
663	0.179
663	0.183
664	0.186
664	0.188
665	0.191
665	0.194
665	0.196
666	0.199
666	0.201
667	0.202
667	0.204
668	0.206
668	0.208
669	0.21
669	0.213
669	0.217
670	0.221
670	0.225
671	0.227
671	0.229
672	0.231
672	0.233
672	0.234
673	0.236
673	0.237
674	0.238
674	0.239
675	0.239
675	0.239
676	0.24
676	0.243
676	0.245
677	0.247
677	0.25
678	0.253
678	0.255
679	0.256
679	0.258
680	0.26
680	0.262
680	0.263
681	0.263
681	0.264
682	0.265
682	0.266
683	0.268
683	0.27
684	0.273
684	0.275
684	0.275
685	0.275
685	0.277
686	0.278
686	0.278
687	0.278
687	0.277
687	0.276
688	0.274
688	0.272
689	0.272
689	0.274
690	0.275
690	0.275
691	0.274
691	0.275
691	0.275
692	0.275
692	0.274
693	0.273
693	0.274
694	0.273
694	0.27
695	0.268
695	0.27
695	0.27
696	0.27
696	0.269
697	0.268
697	0.267
698	0.266
698	0.264
698	0.261
699	0.26
699	0.258
700	0.254
700	0.251
701	0.249
701	0.248
702	0.246
702	0.245
702	0.244
703	0.243
703	0.241
704	0.241
704	0.24
705	0.241
705	0.241
705	0.24
706	0.24
706	0.239
707	0.238
707	0.236
708	0.234
708	0.232
709	0.23
709	0.227
709	0.222
710	0.217
710	0.213
711	0.21
711	0.207
712	0.205
712	0.202
713	0.201
713	0.199
713	0.197
714	0.195
714	0.193
715	0.191
715	0.189
716	0.187
716	0.185
716	0.183
717	0.18
717	0.178
718	0.175
718	0.172
719	0.17
719	0.168
720	0.166
720	0.163
720	0.161
721	0.157
721	0.154
722	0.152
722	0.149
723	0.146
723	0.144
723	0.142
724	0.14
724	0.137
725	0.134
725	0.131
726	0.129
726	0.127
727	0.124
727	0.122
727	0.12
728	0.118
728	0.116
729	0.115
729	0.114
730	0.113
730	0.111
730	0.109
731	0.106
731	0.105
732	0.103
732	0.101
733	0.099
733	0.097
734	0.094
734	0.091
734	0.088
735	0.087
735	0.084
736	0.081
736	0.079
737	0.077
737	0.075
737	0.073
738	0.07
738	0.066
739	0.063
739	0.06
740	0.057
740	0.054
741	0.053
741	0.05
741	0.046
742	0.041
742	0.036
743	0.033
743	0.029
744	0.027
744	0.024
744	0.021
745	0.019
745	0.015
746	0.013
746	0.011
747	0.01
747	0.01
748	0.011
748	0.011
748	0.011
749	0.01
749	0.009
750	0.008
750	0.007
751	0.007
751	0.006
751	0.006
752	0.005
752	0.003
753	0.001
753	-0
754	-0.001
754	-0.002
754	-0.001
755	-0
755	0.001
756	0.001
756	-0
757	-0.001
757	-0.002
758	-0.002
758	-0.003
758	-0.003
759	-0.004
759	-0.007
760	-0.01
760	-0.013
761	-0.016
761	-0.017
761	-0.019
762	-0.021
762	-0.023
763	-0.024
763	-0.027
764	-0.031
764	-0.034
764	-0.037
765	-0.04
765	-0.043
766	-0.045
766	-0.047
767	-0.048
767	-0.051
768	-0.055
768	-0.058
768	-0.06
769	-0.06
769	-0.061
770	-0.062
770	-0.064
771	-0.066
771	-0.069
771	-0.072
772	-0.075
772	-0.077
773	-0.079
773	-0.082
774	-0.086
774	-0.09
775	-0.094
775	-0.097
775	-0.102
776	-0.106
776	-0.111
777	-0.115
777	-0.119
778	-0.123
778	-0.128
778	-0.134
779	-0.136
779	-0.136
780	-0.137
780	-0.139
781	-0.141
781	-0.142
781	-0.144
782	-0.145
782	-0.147
783	-0.148
783	-0.148
784	-0.148
784	-0.15
784	-0.152
785	-0.153
785	-0.155
786	-0.155
786	-0.153
787	-0.149
787	-0.145
788	-0.144
788	-0.145
788	-0.146
789	-0.149
789	-0.149
790	-0.146
790	-0.145
791	-0.146
791	-0.147
791	-0.15
792	-0.145
792	-0.134
793	-0.128
793	-0.124
794	-0.122
794	-0.124
794	-0.127
795	-0.129
795	-0.129
796	-0.129
796	-0.132
797	-0.14
797	-0.151
797	-0.158
798	-0.163
798	-0.166
799	-0.167
799	-0.166
800	-0.166
800	-0.167
801	-0.17
801	-0.171
801	-0.17
802	-0.171
802	-0.172
803	-0.172
803	-0.173
804	-0.172
804	-0.167
804	-0.16
805	-0.156
805	-0.154
806	-0.152
806	-0.15
807	-0.149
807	-0.149
807	-0.149
808	-0.148
808	-0.149
809	-0.154
809	-0.159
810	-0.163
810	-0.165
810	-0.169
811	-0.172
811	-0.173
812	-0.17
812	-0.167
813	-0.167
813	-0.169
813	-0.17
814	-0.171
814	-0.171
815	-0.17
815	-0.167
816	-0.165
816	-0.166
817	-0.17
817	-0.173
817	-0.174
818	-0.173
818	-0.169
819	-0.163
819	-0.16
820	-0.161
820	-0.163
820	-0.165
821	-0.165
821	-0.164
822	-0.163
822	-0.163
823	-0.162
823	-0.164
823	-0.168
824	-0.169
824	-0.166
825	-0.162
825	-0.155
826	-0.149
826	-0.144
826	-0.138
827	-0.131
827	-0.124
828	-0.117
828	-0.111
829	-0.104
829	-0.098
829	-0.094
830	-0.091
830	-0.087
831	-0.083
831	-0.08
832	-0.079
832	-0.077
832	-0.075
833	-0.074
833	-0.073
834	-0.072
834	-0.071
835	-0.07
835	-0.069
835	-0.068
836	-0.067
836	-0.065
837	-0.064
837	-0.062
838	-0.06
838	-0.058
839	-0.056
839	-0.055
839	-0.054
840	-0.053
840	-0.052
841	-0.051
841	-0.05
842	-0.049
842	-0.048
842	-0.047
843	-0.046
843	-0.044
844	-0.042
844	-0.04
845	-0.039
845	-0.037
845	-0.035
846	-0.034
846	-0.033
847	-0.032
847	-0.031
848	-0.031
848	-0.03
848	-0.03
849	-0.029
849	-0.028
850	-0.027
850	-0.027
851	-0.026
851	-0.025
851	-0.024
852	-0.023
852	-0.022
853	-0.021
853	-0.021
854	-0.02
854	-0.02
854	-0.02
855	-0.019
855	-0.02
856	-0.02
856	-0.02
857	-0.02
857	-0.02
857	-0.02
858	-0.02
858	-0.021
859	-0.021
859	-0.02
860	-0.019
860	-0.018
860	-0.017
861	-0.015
861	-0.014
862	-0.013
862	-0.012
863	-0.011
863	-0.01
863	-0.009
864	-0.008
864	-0.008
865	-0.006
865	-0.006
866	-0.005
866	-0.004
866	-0.004
867	-0.003
867	-0.002
868	-0.002
868	-0.002
869	-0.001
869	-0.002
869	-0.002
870	-0.003
870	-0.004
871	-0.004
871	-0.005
872	-0.005
872	-0.005
872	-0.005
873	-0.005
873	-0.005
874	-0.005
874	-0.004
875	-0.003
875	-0.003
875	-0.002
876	-0.002
876	-0.001
877	-0.001
877	-0.001
878	-0.002
878	-0.003
878	-0.004
879	-0.005
879	-0.006
880	-0.007
880	-0.009
881	-0.01
881	-0.01
881	-0.01
882	-0.01
882	-0.009
883	-0.008
883	-0.007
884	-0.006
884	-0.005
884	-0.003
885	-0.002
885	-0
886	0.001
886	0.002
887	0.003
887	0.003
887	0.004
888	0.004
888	0.004
889	0.004
889	0.004
890	0.005
890	0.004
890	0.004
891	0.004
891	0.004
892	0.003
892	0.003
893	0.004
893	0.004
893	0.004
894	0.005
894	0.005
895	0.005
895	0.005
895	0.005
896	0.005
896	0.005
897	0.005
897	0.005
898	0.004
898	0.004
898	0.004
899	0.004
899	0.004
900	0.004
900	0.004
901	0.005
901	0.005
901	0.006
902	0.006
902	0.007
903	0.007
903	0.007
904	0.008
904	0.008
904	0.008
905	0.008
905	0.008
906	0.008
906	0.007
907	0.007
907	0.007
907	0.007
908	0.007
908	0.007
909	0.007
909	0.007
910	0.008
910	0.008
910	0.008
911	0.009
911	0.009
912	0.009
912	0.01
913	0.01
913	0.009
913	0.009
914	0.009
914	0.008
915	0.008
915	0.007
916	0.006
916	0.005
916	0.004
917	0.003
917	0.003
918	0.002
918	0.003
918	0.003
919	0.003
919	0.004
920	0.005
920	0.007
921	0.008
921	0.009
921	0.009
922	0.01
922	0.01
923	0.01
923	0.01
924	0.009
924	0.008
924	0.007
925	0.007
925	0.006
926	0.005
926	0.005
927	0.004
927	0.003
927	0.003
928	0.003
928	0.002
929	0.002
929	0.002
930	0.001
930	0.001
930	0.001
931	0.001
931	0.001
932	0.002
932	0.002
933	0.003
933	0.004
933	0.005
934	0.006
934	0.007
935	0.008
935	0.01
935	0.011
936	0.012
936	0.013
937	0.013
937	0.014
938	0.014
938	0.015
938	0.016
939	0.017
939	0.018
940	0.018
940	0.019
941	0.02
941	0.021
941	0.022
942	0.023
942	0.024
943	0.025
943	0.025
944	0.025
944	0.026
944	0.026
945	0.027
945	0.027
946	0.028
946	0.028
946	0.028
947	0.029
947	0.029
948	0.028
948	0.028
949	0.028
949	0.029
949	0.029
950	0.028
950	0.028
951	0.028
951	0.027
952	0.027
952	0.027
952	0.026
953	0.026
953	0.025
954	0.024
954	0.023
955	0.023
955	0.021
955	0.021
956	0.02
956	0.019
957	0.018
957	0.018
957	0.017
958	0.016
958	0.015
959	0.015
959	0.014
960	0.014
960	0.013
960	0.012
961	0.012
961	0.011
962	0.011
962	0.01
963	0.01
963	0.01
963	0.01
964	0.01
964	0.01
965	0.01
965	0.011
966	0.011
966	0.012
966	0.013
967	0.014
967	0.014
968	0.015
968	0.016
968	0.017
969	0.017
969	0.018
970	0.019
970	0.019
971	0.019
971	0.02
971	0.02
972	0.02
972	0.021
973	0.021
973	0.021
974	0.021
974	0.021
974	0.022
975	0.022
975	0.023
976	0.024
976	0.025
976	0.025
977	0.026
977	0.026
978	0.026
978	0.026
979	0.027
979	0.027
979	0.026
980	0.026
980	0.025
981	0.024
981	0.024
982	0.023
982	0.023
982	0.022
983	0.022
983	0.021
984	0.02
984	0.019
984	0.018
985	0.018
985	0.017
986	0.016
986	0.016
987	0.015
987	0.015
987	0.015
988	0.015
988	0.016
989	0.016
989	0.016
990	0.017
990	0.018
990	0.018
991	0.019
991	0.019
992	0.02
992	0.02
992	0.019
993	0.019
993	0.019
994	0.018
994	0.018
995	0.017
995	0.016
995	0.016
996	0.015
996	0.015
997	0.014
997	0.014
997	0.014
998	0.015
998	0.015
999	0.016
999	0.017
1000	0.017
1000	0.018
1000	0.018
1001	0.019
1001	0.019
1002	0.019
1002	0.019
1003	0.018
1003	0.018
1003	0.018
1004	0.017
1004	0.016
1005	0.016
1005	0.015
1005	0.014
1006	0.013
1006	0.012
1007	0.012
1007	0.012
1008	0.011
1008	0.011
1008	0.011
1009	0.011
1009	0.011
1010	0.011
1010	0.011
1010	0.011
1011	0.011
1011	0.011
1012	0.011
1012	0.012
1013	0.012
1013	0.012
1013	0.012
1014	0.012
1014	0.013
1015	0.013
1015	0.014
1016	0.015
1016	0.015
1016	0.016
1017	0.017
1017	0.018
1018	0.019
1018	0.02
1018	0.021
1019	0.022
1019	0.023
1020	0.023
1020	0.024
1021	0.024
1021	0.025
1021	0.025
1022	0.025
1022	0.025
1023	0.025
1023	0.025
1023	0.025
1024	0.024
1024	0.024
1025	0.024
1025	0.024
1026	0.024
1026	0.024
1026	0.024
1027	0.025
1027	0.025
1028	0.026
1028	0.026
1028	0.027
1029	0.027
1029	0.027
1030	0.026
1030	0.026
1031	0.026
1031	0.025
1031	0.024
1032	0.024
1032	0.023
1033	0.022
1033	0.021
1033	0.02
1034	0.019
1034	0.018
1035	0.017
1035	0.016
1036	0.016
1036	0.016
1036	0.016
1037	0.016
1037	0.016
1038	0.017
1038	0.018
1039	0.019
1039	0.02
1039	0.021
1040	0.022
1040	0.023
1041	0.024
1041	0.025
1041	0.025
1042	0.026
1042	0.027
1043	0.028
1043	0.028
1044	0.029
1044	0.03
1044	0.032
1045	0.033
1045	0.034
1046	0.036
1046	0.038
1046	0.04
1047	0.041
1047	0.044
1048	0.045
1048	0.046
1049	0.047
1049	0.048
1049	0.049
1050	0.05
1050	0.05
1051	0.05
1051	0.051
1051	0.052
1052	0.052
1052	0.053
1053	0.055
1053	0.056
1053	0.057
1054	0.058
1054	0.059
1055	0.06
1055	0.061
1056	0.061
1056	0.061
1056	0.061
1057	0.061
1057	0.061
1058	0.061
1058	0.06
1058	0.061
1059	0.061
1059	0.061
1060	0.061
1060	0.062
1061	0.062
1061	0.063
1061	0.063
1062	0.063
1062	0.063
1063	0.064
1063	0.064
1063	0.064
1064	0.065
1064	0.066
1065	0.067
1065	0.068
1066	0.069
1066	0.07
1066	0.073
1067	0.074
1067	0.076
1068	0.078
1068	0.079
1068	0.08
1069	0.081
1069	0.082
1070	0.084
1070	0.086
1071	0.089
1071	0.091
1071	0.093
1072	0.096
1072	0.1
1073	0.103
1073	0.107
1073	0.111
1074	0.115
1074	0.118
1075	0.121
1075	0.124
1076	0.127
1076	0.131
1076	0.133
1077	0.137
1077	0.141
1078	0.145
1078	0.149
1078	0.154
1079	0.158
1079	0.163
1080	0.167
1080	0.171
1080	0.174
1081	0.178
1081	0.182
1082	0.186
1082	0.189
1083	0.193
1083	0.197
1083	0.202
1084	0.208
1084	0.215
1085	0.222
1085	0.231
1085	0.239
1086	0.247
1086	0.254
1087	0.263
1087	0.272
1088	0.281
1088	0.291
1088	0.302
1089	0.312
1089	0.325
1090	0.338
1090	0.354
1090	0.37
1091	0.389
1091	0.411
1092	0.434
1092	0.461
1092	0.487
1093	0.513
1093	0.548
1094	0.584
1094	0.625
1095	0.671
1095	0.731
1095	0.808
1096	0.903
1096	1.026
1097	1.233
1097	1.63
1097	-0
1098	-0
1098	-0
1099	-0
1099	-0
1100	-0
1100	-0
1100	-0
1101	-0
1101	-0
1102	-0
1102	-0
1102	-0
1103	-0
1103	-0
1104	-0
1104	-0
1104	-0
1105	-0
1105	-0
1106	-0
1106	-0
1107	-0
1107	-0
1107	-0
1108	-0
1108	-0
1109	-0
1109	-0
1109	-0
1110	-0
1110	-0
1111	-0
1111	-0
