Data from 15c-2-5a_Absorbance__39__01840.txt Node

Date: Fri Jan 19 13:44:35 CET 2024
User: Marek
Spectrometer: MAYP115816
Trigger mode: 0
Integration Time (sec): 2.000000E-1
Scans to average: 10
Electric dark correction enabled: true
Nonlinearity correction enabled: true
Boxcar width: 5
XAxis mode: Wavelengths
Number of Pixels in Spectrum: 2068
>>>>>Begin Spectral Data<<<<<
199	-2.268
199	-2.11
200	-1.964
200	-1.843
201	-1.773
201	-1.718
202	-1.644
202	-1.583
203	-1.53
203	-1.484
204	-1.456
204	-1.431
205	-1.411
205	-1.4
205	-1.398
206	-1.392
206	-1.388
207	-1.383
207	-1.378
208	-1.376
208	-1.373
209	-1.371
209	-1.366
210	-1.363
210	-1.362
211	-1.36
211	-1.359
212	-1.36
212	-1.359
213	-1.358
213	-1.355
213	-1.355
214	-1.35
214	-1.349
215	-1.347
215	-1.344
216	-1.341
216	-1.34
217	-1.335
217	-1.333
218	-1.331
218	-1.328
219	-1.324
219	-1.324
220	-1.322
220	-1.322
221	-1.32
221	-1.315
221	-1.31
222	-1.307
222	-1.303
223	-1.298
223	-1.294
224	-1.286
224	-1.279
225	-1.272
225	-1.26
226	-1.249
226	-1.239
227	-1.226
227	-1.212
228	-1.195
228	-1.18
229	-1.159
229	-1.137
229	-1.111
230	-1.082
230	-1.051
231	-1.016
231	-0.977
232	-0.937
232	-0.894
233	-0.848
233	-0.799
234	-0.751
234	-0.703
235	-0.655
235	-0.607
236	-0.561
236	-0.515
236	-0.471
237	-0.428
237	-0.388
238	-0.349
238	-0.314
239	-0.28
239	-0.249
240	-0.219
240	-0.192
241	-0.167
241	-0.143
242	-0.122
242	-0.102
243	-0.084
243	-0.068
243	-0.052
244	-0.038
244	-0.025
245	-0.014
245	-0.004
246	0.006
246	0.016
247	0.024
247	0.032
248	0.039
248	0.046
249	0.052
249	0.058
250	0.063
250	0.069
250	0.074
251	0.078
251	0.082
252	0.086
252	0.09
253	0.094
253	0.097
254	0.1
254	0.103
255	0.106
255	0.109
256	0.111
256	0.113
257	0.115
257	0.117
258	0.118
258	0.119
258	0.12
259	0.121
259	0.122
260	0.123
260	0.124
261	0.124
261	0.125
262	0.125
262	0.126
263	0.126
263	0.126
264	0.127
264	0.127
265	0.127
265	0.127
265	0.127
266	0.127
266	0.126
267	0.126
267	0.126
268	0.125
268	0.124
269	0.124
269	0.123
270	0.122
270	0.121
271	0.12
271	0.119
272	0.119
272	0.118
272	0.117
273	0.116
273	0.115
274	0.114
274	0.113
275	0.112
275	0.111
276	0.11
276	0.109
277	0.108
277	0.106
278	0.105
278	0.104
278	0.102
279	0.1
279	0.1
280	0.099
280	0.098
281	0.097
281	0.097
282	0.096
282	0.095
283	0.095
283	0.095
284	0.094
284	0.094
285	0.093
285	0.093
285	0.092
286	0.091
286	0.09
287	0.09
287	0.089
288	0.088
288	0.088
289	0.087
289	0.086
290	0.086
290	0.085
291	0.084
291	0.084
292	0.083
292	0.083
292	0.082
293	0.082
293	0.081
294	0.081
294	0.081
295	0.08
295	0.08
296	0.08
296	0.08
297	0.079
297	0.079
298	0.079
298	0.078
298	0.078
299	0.078
299	0.078
300	0.077
300	0.077
301	0.077
301	0.077
302	0.076
302	0.076
303	0.076
303	0.076
304	0.075
304	0.075
305	0.075
305	0.074
305	0.074
306	0.074
306	0.074
307	0.073
307	0.073
308	0.073
308	0.072
309	0.072
309	0.072
310	0.071
310	0.071
311	0.07
311	0.07
311	0.07
312	0.069
312	0.069
313	0.069
313	0.068
314	0.068
314	0.068
315	0.067
315	0.067
316	0.066
316	0.066
317	0.065
317	0.065
318	0.065
318	0.064
318	0.064
319	0.063
319	0.063
320	0.062
320	0.062
321	0.061
321	0.061
322	0.06
322	0.06
323	0.059
323	0.058
324	0.058
324	0.057
324	0.057
325	0.056
325	0.056
326	0.056
326	0.055
327	0.054
327	0.054
328	0.054
328	0.053
329	0.053
329	0.052
330	0.052
330	0.051
330	0.051
331	0.05
331	0.05
332	0.05
332	0.049
333	0.049
333	0.048
334	0.048
334	0.047
335	0.047
335	0.046
336	0.046
336	0.045
336	0.045
337	0.044
337	0.043
338	0.043
338	0.042
339	0.042
339	0.041
340	0.041
340	0.04
341	0.04
341	0.04
342	0.04
342	0.039
342	0.039
343	0.038
343	0.038
344	0.037
344	0.037
345	0.037
345	0.036
346	0.036
346	0.035
347	0.034
347	0.034
348	0.033
348	0.033
348	0.032
349	0.031
349	0.031
350	0.03
350	0.03
351	0.029
351	0.028
352	0.028
352	0.027
353	0.026
353	0.025
354	0.024
354	0.024
354	0.023
355	0.022
355	0.021
356	0.02
356	0.02
357	0.019
357	0.019
358	0.019
358	0.019
359	0.02
359	0.02
360	0.021
360	0.021
360	0.022
361	0.022
361	0.022
362	0.023
362	0.023
363	0.022
363	0.022
364	0.022
364	0.022
365	0.021
365	0.021
366	0.021
366	0.02
366	0.02
367	0.02
367	0.02
368	0.019
368	0.019
369	0.019
369	0.018
370	0.018
370	0.018
371	0.017
371	0.017
372	0.017
372	0.016
372	0.016
373	0.016
373	0.016
374	0.016
374	0.016
375	0.016
375	0.016
376	0.016
376	0.016
377	0.017
377	0.017
378	0.018
378	0.018
378	0.018
379	0.018
379	0.018
380	0.019
380	0.019
381	0.018
381	0.018
382	0.018
382	0.017
383	0.017
383	0.017
383	0.017
384	0.016
384	0.016
385	0.016
385	0.016
386	0.016
386	0.016
387	0.016
387	0.016
388	0.015
388	0.015
389	0.015
389	0.015
389	0.015
390	0.015
390	0.016
391	0.016
391	0.016
392	0.016
392	0.016
393	0.016
393	0.016
394	0.016
394	0.016
394	0.016
395	0.016
395	0.015
396	0.015
396	0.015
397	0.015
397	0.016
398	0.016
398	0.016
399	0.016
399	0.016
400	0.016
400	0.016
400	0.015
401	0.015
401	0.014
402	0.013
402	0.013
403	0.013
403	0.013
404	0.012
404	0.012
405	0.012
405	0.011
405	0.011
406	0.011
406	0.01
407	0.01
407	0.01
408	0.009
408	0.008
409	0.008
409	0.008
410	0.008
410	0.008
411	0.008
411	0.008
411	0.008
412	0.008
412	0.008
413	0.007
413	0.007
414	0.007
414	0.007
415	0.007
415	0.006
416	0.006
416	0.005
416	0.005
417	0.004
417	0.004
418	0.005
418	0.005
419	0.005
419	0.006
420	0.006
420	0.007
421	0.008
421	0.008
421	0.008
422	0.009
422	0.009
423	0.009
423	0.008
424	0.008
424	0.007
425	0.007
425	0.006
426	0.005
426	0.005
427	0.005
427	0.005
427	0.005
428	0.006
428	0.006
429	0.007
429	0.007
430	0.007
430	0.007
431	0.007
431	0.006
432	0.006
432	0.005
432	0.004
433	0.003
433	0.002
434	0.001
434	0.001
435	0.001
435	0.001
436	0.001
436	0.001
437	0.001
437	0.001
437	0.002
438	0.002
438	0.001
439	0.001
439	0.001
440	0.001
440	0.001
441	0.001
441	0.001
442	0.002
442	0.002
442	0.002
443	0.002
443	0.003
444	0.003
444	0.003
445	0.003
445	0.003
446	0.003
446	0.002
447	0.002
447	0.002
447	0.001
448	0.001
448	0.001
449	0.001
449	0.001
450	0
450	0
451	-0
451	-0.001
452	-0.001
452	-0.002
452	-0.002
453	-0.003
453	-0.004
454	-0.005
454	-0.005
455	-0.006
455	-0.006
456	-0.006
456	-0.007
457	-0.007
457	-0.007
458	-0.007
458	-0.007
458	-0.007
459	-0.007
459	-0.007
460	-0.008
460	-0.009
461	-0.009
461	-0.01
462	-0.01
462	-0.01
463	-0.01
463	-0.009
463	-0.008
464	-0.008
464	-0.008
465	-0.008
465	-0.008
466	-0.008
466	-0.008
467	-0.009
467	-0.009
467	-0.011
468	-0.012
468	-0.014
469	-0.016
469	-0.017
470	-0.018
470	-0.019
471	-0.019
471	-0.019
472	-0.02
472	-0.019
472	-0.019
473	-0.018
473	-0.017
474	-0.017
474	-0.016
475	-0.015
475	-0.015
476	-0.015
476	-0.015
477	-0.015
477	-0.015
477	-0.015
478	-0.015
478	-0.015
479	-0.015
479	-0.015
480	-0.014
480	-0.014
481	-0.014
481	-0.014
482	-0.013
482	-0.012
482	-0.011
483	-0.01
483	-0.007
484	-0.005
484	-0.003
485	-0.002
485	-0.001
486	0
486	0
487	0
487	-0
487	-0.001
488	-0.002
488	-0.004
489	-0.006
489	-0.008
490	-0.01
490	-0.011
491	-0.012
491	-0.012
492	-0.012
492	-0.012
492	-0.012
493	-0.012
493	-0.012
494	-0.011
494	-0.01
495	-0.008
495	-0.008
496	-0.007
496	-0.007
496	-0.007
497	-0.006
497	-0.005
498	-0.005
498	-0.005
499	-0.006
499	-0.006
500	-0.006
500	-0.005
501	-0.004
501	-0.004
501	-0.003
502	-0.003
502	-0.002
503	-0.001
503	-0.001
504	-0.001
504	-0.001
505	-0.001
505	-0.002
506	-0.002
506	-0.002
506	-0.003
507	-0.003
507	-0.003
508	-0.004
508	-0.004
509	-0.004
509	-0.004
510	-0.004
510	-0.004
511	-0.004
511	-0.005
511	-0.006
512	-0.006
512	-0.007
513	-0.008
513	-0.009
514	-0.009
514	-0.01
515	-0.011
515	-0.012
515	-0.013
516	-0.014
516	-0.015
517	-0.015
517	-0.015
518	-0.014
518	-0.014
519	-0.015
519	-0.016
520	-0.018
520	-0.02
520	-0.021
521	-0.024
521	-0.026
522	-0.029
522	-0.032
523	-0.034
523	-0.036
524	-0.037
524	-0.037
524	-0.037
525	-0.036
525	-0.034
526	-0.031
526	-0.028
527	-0.025
527	-0.022
528	-0.02
528	-0.017
529	-0.015
529	-0.014
529	-0.013
530	-0.012
530	-0.011
531	-0.01
531	-0.01
532	-0.01
532	-0.01
533	-0.009
533	-0.008
533	-0.008
534	-0.008
534	-0.008
535	-0.008
535	-0.008
536	-0.008
536	-0.008
537	-0.008
537	-0.008
538	-0.009
538	-0.01
538	-0.01
539	-0.011
539	-0.011
540	-0.011
540	-0.012
541	-0.013
541	-0.014
542	-0.015
542	-0.015
542	-0.016
543	-0.016
543	-0.016
544	-0.016
544	-0.017
545	-0.016
545	-0.016
546	-0.015
546	-0.015
547	-0.015
547	-0.016
547	-0.017
548	-0.019
548	-0.02
549	-0.021
549	-0.022
550	-0.022
550	-0.023
551	-0.025
551	-0.026
551	-0.026
552	-0.026
552	-0.026
553	-0.025
553	-0.025
554	-0.024
554	-0.025
555	-0.026
555	-0.027
556	-0.029
556	-0.031
556	-0.032
557	-0.034
557	-0.035
558	-0.036
558	-0.037
559	-0.037
559	-0.037
560	-0.036
560	-0.036
560	-0.035
561	-0.034
561	-0.033
562	-0.033
562	-0.033
563	-0.034
563	-0.035
564	-0.036
564	-0.038
564	-0.039
565	-0.039
565	-0.039
566	-0.039
566	-0.039
567	-0.037
567	-0.035
568	-0.033
568	-0.03
568	-0.028
569	-0.024
569	-0.022
570	-0.02
570	-0.019
571	-0.018
571	-0.016
572	-0.015
572	-0.014
573	-0.013
573	-0.013
573	-0.013
574	-0.013
574	-0.012
575	-0.012
575	-0.01
576	-0.008
576	-0.008
577	-0.008
577	-0.009
577	-0.009
578	-0.01
578	-0.009
579	-0.008
579	-0.006
580	-0.006
580	-0.008
581	-0.011
581	-0.013
581	-0.013
582	-0.013
582	-0.013
583	-0.011
583	-0.011
584	-0.013
584	-0.017
585	-0.018
585	-0.018
585	-0.017
586	-0.017
586	-0.017
587	-0.018
587	-0.02
588	-0.023
588	-0.025
589	-0.026
589	-0.027
590	-0.028
590	-0.028
590	-0.027
591	-0.026
591	-0.026
592	-0.025
592	-0.026
593	-0.026
593	-0.026
594	-0.026
594	-0.027
594	-0.027
595	-0.027
595	-0.029
596	-0.03
596	-0.03
597	-0.027
597	-0.025
598	-0.024
598	-0.023
598	-0.022
599	-0.022
599	-0.022
600	-0.023
600	-0.024
601	-0.025
601	-0.026
602	-0.027
602	-0.029
602	-0.03
603	-0.031
603	-0.03
604	-0.028
604	-0.027
605	-0.025
605	-0.022
606	-0.021
606	-0.022
606	-0.022
607	-0.023
607	-0.023
608	-0.023
608	-0.025
609	-0.027
609	-0.028
610	-0.03
610	-0.032
610	-0.034
611	-0.034
611	-0.033
612	-0.033
612	-0.032
613	-0.03
613	-0.029
614	-0.029
614	-0.03
614	-0.03
615	-0.03
615	-0.03
616	-0.03
616	-0.031
617	-0.031
617	-0.032
618	-0.034
618	-0.035
618	-0.035
619	-0.036
619	-0.036
620	-0.034
620	-0.033
621	-0.033
621	-0.033
622	-0.033
622	-0.033
622	-0.034
623	-0.034
623	-0.033
624	-0.033
624	-0.033
625	-0.035
625	-0.035
626	-0.035
626	-0.036
626	-0.035
627	-0.035
627	-0.034
628	-0.033
628	-0.033
629	-0.033
629	-0.033
630	-0.034
630	-0.035
630	-0.036
631	-0.036
631	-0.036
632	-0.037
632	-0.038
633	-0.039
633	-0.039
634	-0.038
634	-0.036
634	-0.034
635	-0.033
635	-0.032
636	-0.031
636	-0.03
637	-0.029
637	-0.029
638	-0.028
638	-0.027
638	-0.027
639	-0.028
639	-0.028
640	-0.028
640	-0.028
641	-0.028
641	-0.027
642	-0.026
642	-0.025
642	-0.025
643	-0.024
643	-0.024
644	-0.023
644	-0.022
645	-0.02
645	-0.019
646	-0.018
646	-0.015
646	-0.012
647	-0.01
647	-0.007
648	-0.005
648	-0.003
649	-0.001
649	0.001
650	0.003
650	0.005
650	0.007
651	0.008
651	0.009
652	0.01
652	0.011
653	0.013
653	0.02
653	0.042
654	0.039
654	0.036
655	0.035
655	0.036
656	0.037
656	0.037
657	0.038
657	0.039
657	0.039
658	0.036
658	0.022
659	0.024
659	0.028
660	0.03
660	0.031
661	0.032
661	0.032
661	0.033
662	0.035
662	0.037
663	0.038
663	0.04
664	0.041
664	0.042
665	0.043
665	0.045
665	0.046
666	0.048
666	0.049
667	0.05
667	0.051
668	0.052
668	0.053
669	0.054
669	0.056
669	0.058
670	0.061
670	0.062
671	0.064
671	0.064
672	0.065
672	0.066
672	0.067
673	0.067
673	0.068
674	0.069
674	0.069
675	0.068
675	0.069
676	0.07
676	0.072
676	0.073
677	0.074
677	0.076
678	0.078
678	0.079
679	0.08
679	0.081
680	0.082
680	0.083
680	0.084
681	0.084
681	0.084
682	0.085
682	0.086
683	0.087
683	0.089
684	0.091
684	0.092
684	0.092
685	0.092
685	0.093
686	0.093
686	0.093
687	0.093
687	0.092
687	0.092
688	0.091
688	0.09
689	0.09
689	0.091
690	0.092
690	0.091
691	0.091
691	0.091
691	0.091
692	0.091
692	0.09
693	0.09
693	0.09
694	0.089
694	0.087
695	0.087
695	0.089
695	0.089
696	0.089
696	0.088
697	0.088
697	0.087
698	0.086
698	0.085
698	0.084
699	0.084
699	0.082
700	0.08
700	0.078
701	0.078
701	0.078
702	0.077
702	0.077
702	0.076
703	0.076
703	0.075
704	0.075
704	0.076
705	0.076
705	0.077
705	0.077
706	0.077
706	0.077
707	0.076
707	0.074
708	0.073
708	0.072
709	0.071
709	0.069
709	0.066
710	0.063
710	0.061
711	0.06
711	0.059
712	0.058
712	0.057
713	0.057
713	0.056
713	0.055
714	0.053
714	0.052
715	0.051
715	0.05
716	0.048
716	0.047
716	0.046
717	0.045
717	0.045
718	0.043
718	0.041
719	0.041
719	0.04
720	0.039
720	0.037
720	0.035
721	0.033
721	0.032
722	0.03
722	0.028
723	0.027
723	0.026
723	0.025
724	0.024
724	0.022
725	0.021
725	0.019
726	0.018
726	0.017
727	0.015
727	0.014
727	0.013
728	0.012
728	0.011
729	0.011
729	0.011
730	0.011
730	0.01
730	0.009
731	0.008
731	0.008
732	0.007
732	0.007
733	0.005
733	0.004
734	0.002
734	0
734	-0.001
735	-0.002
735	-0.003
736	-0.005
736	-0.007
737	-0.009
737	-0.009
737	-0.01
738	-0.012
738	-0.015
739	-0.016
739	-0.018
740	-0.02
740	-0.021
741	-0.022
741	-0.024
741	-0.028
742	-0.032
742	-0.036
743	-0.038
743	-0.041
744	-0.043
744	-0.044
744	-0.046
745	-0.047
745	-0.049
746	-0.05
746	-0.049
747	-0.048
747	-0.047
748	-0.045
748	-0.044
748	-0.043
749	-0.043
749	-0.043
750	-0.043
750	-0.043
751	-0.044
751	-0.045
751	-0.045
752	-0.047
752	-0.049
753	-0.05
753	-0.051
754	-0.052
754	-0.052
754	-0.051
755	-0.05
755	-0.049
756	-0.048
756	-0.049
757	-0.049
757	-0.049
758	-0.049
758	-0.049
758	-0.05
759	-0.05
759	-0.053
760	-0.056
760	-0.059
761	-0.061
761	-0.063
761	-0.064
762	-0.066
762	-0.067
763	-0.068
763	-0.071
764	-0.074
764	-0.076
764	-0.079
765	-0.081
765	-0.083
766	-0.084
766	-0.085
767	-0.085
767	-0.088
768	-0.091
768	-0.093
768	-0.094
769	-0.094
769	-0.094
770	-0.095
770	-0.097
771	-0.099
771	-0.101
771	-0.104
772	-0.106
772	-0.107
773	-0.109
773	-0.112
774	-0.116
774	-0.119
775	-0.122
775	-0.125
775	-0.129
776	-0.134
776	-0.138
777	-0.143
777	-0.147
778	-0.151
778	-0.156
778	-0.16
779	-0.16
779	-0.157
780	-0.156
780	-0.156
781	-0.155
781	-0.154
781	-0.152
782	-0.151
782	-0.152
783	-0.151
783	-0.148
784	-0.149
784	-0.151
784	-0.153
785	-0.154
785	-0.156
786	-0.156
786	-0.154
787	-0.15
787	-0.146
788	-0.144
788	-0.145
788	-0.147
789	-0.149
789	-0.149
790	-0.147
790	-0.145
791	-0.146
791	-0.148
791	-0.151
792	-0.146
792	-0.135
793	-0.129
793	-0.125
794	-0.123
794	-0.125
794	-0.128
795	-0.13
795	-0.13
796	-0.13
796	-0.133
797	-0.141
797	-0.152
797	-0.158
798	-0.164
798	-0.167
799	-0.167
799	-0.167
800	-0.167
800	-0.168
801	-0.171
801	-0.171
801	-0.171
802	-0.172
802	-0.173
803	-0.173
803	-0.173
804	-0.172
804	-0.167
804	-0.161
805	-0.157
805	-0.155
806	-0.152
806	-0.151
807	-0.15
807	-0.15
807	-0.149
808	-0.149
808	-0.15
809	-0.154
809	-0.16
810	-0.163
810	-0.166
810	-0.17
811	-0.173
811	-0.174
812	-0.17
812	-0.168
813	-0.168
813	-0.169
813	-0.171
814	-0.172
814	-0.172
815	-0.17
815	-0.168
816	-0.166
816	-0.167
817	-0.171
817	-0.174
817	-0.174
818	-0.173
818	-0.17
819	-0.164
819	-0.161
820	-0.162
820	-0.164
820	-0.165
821	-0.165
821	-0.164
822	-0.164
822	-0.163
823	-0.163
823	-0.164
823	-0.166
824	-0.166
824	-0.162
825	-0.157
825	-0.15
826	-0.143
826	-0.138
826	-0.132
827	-0.125
827	-0.118
828	-0.112
828	-0.107
829	-0.102
829	-0.098
829	-0.095
830	-0.093
830	-0.091
831	-0.088
831	-0.086
832	-0.084
832	-0.083
832	-0.082
833	-0.082
833	-0.081
834	-0.08
834	-0.08
835	-0.079
835	-0.078
835	-0.078
836	-0.077
836	-0.075
837	-0.074
837	-0.074
838	-0.073
838	-0.072
839	-0.071
839	-0.07
839	-0.069
840	-0.068
840	-0.067
841	-0.065
841	-0.064
842	-0.062
842	-0.06
842	-0.057
843	-0.055
843	-0.052
844	-0.049
844	-0.047
845	-0.045
845	-0.043
845	-0.041
846	-0.04
846	-0.039
847	-0.038
847	-0.038
848	-0.038
848	-0.037
848	-0.037
849	-0.037
849	-0.037
850	-0.037
850	-0.038
851	-0.037
851	-0.037
851	-0.036
852	-0.036
852	-0.035
853	-0.035
853	-0.034
854	-0.034
854	-0.034
854	-0.033
855	-0.033
855	-0.033
856	-0.034
856	-0.034
857	-0.034
857	-0.034
857	-0.034
858	-0.034
858	-0.034
859	-0.033
859	-0.032
860	-0.031
860	-0.03
860	-0.029
861	-0.028
861	-0.026
862	-0.026
862	-0.025
863	-0.025
863	-0.024
863	-0.024
864	-0.024
864	-0.024
865	-0.023
865	-0.023
866	-0.023
866	-0.023
866	-0.023
867	-0.022
867	-0.022
868	-0.022
868	-0.021
869	-0.021
869	-0.021
869	-0.021
870	-0.021
870	-0.02
871	-0.02
871	-0.02
872	-0.02
872	-0.02
872	-0.019
873	-0.019
873	-0.018
874	-0.018
874	-0.017
875	-0.016
875	-0.016
875	-0.016
876	-0.015
876	-0.015
877	-0.015
877	-0.015
878	-0.016
878	-0.016
878	-0.017
879	-0.018
879	-0.019
880	-0.019
880	-0.02
881	-0.02
881	-0.02
881	-0.019
882	-0.018
882	-0.017
883	-0.016
883	-0.014
884	-0.012
884	-0.01
884	-0.009
885	-0.007
885	-0.006
886	-0.005
886	-0.004
887	-0.004
887	-0.004
887	-0.004
888	-0.005
888	-0.005
889	-0.006
889	-0.006
890	-0.007
890	-0.007
890	-0.008
891	-0.008
891	-0.009
892	-0.009
892	-0.01
893	-0.01
893	-0.01
893	-0.01
894	-0.01
894	-0.011
895	-0.011
895	-0.011
895	-0.011
896	-0.011
896	-0.012
897	-0.012
897	-0.012
898	-0.012
898	-0.012
898	-0.012
899	-0.012
899	-0.012
900	-0.012
900	-0.011
901	-0.011
901	-0.01
901	-0.009
902	-0.008
902	-0.007
903	-0.006
903	-0.005
904	-0.004
904	-0.003
904	-0.002
905	-0.001
905	-0.001
906	-0
906	-0
907	-0.001
907	-0.001
907	-0.001
908	-0.002
908	-0.002
909	-0.003
909	-0.003
910	-0.004
910	-0.004
910	-0.004
911	-0.004
911	-0.004
912	-0.004
912	-0.004
913	-0.004
913	-0.004
913	-0.004
914	-0.004
914	-0.004
915	-0.004
915	-0.005
916	-0.004
916	-0.004
916	-0.004
917	-0.004
917	-0.003
918	-0.003
918	-0.002
918	-0.001
919	-0.001
919	0
920	0.001
920	0.002
921	0.002
921	0.002
921	0.002
922	0.002
922	0.002
923	0.001
923	0.001
924	0
924	-0.001
924	-0.002
925	-0.003
925	-0.004
926	-0.005
926	-0.006
927	-0.007
927	-0.007
927	-0.008
928	-0.008
928	-0.008
929	-0.008
929	-0.008
930	-0.008
930	-0.008
930	-0.008
931	-0.007
931	-0.007
932	-0.007
932	-0.007
933	-0.006
933	-0.006
933	-0.006
934	-0.006
934	-0.006
935	-0.006
935	-0.005
935	-0.005
936	-0.005
936	-0.004
937	-0.003
937	-0.002
938	-0.002
938	-0.001
938	-0
939	0
939	0.001
940	0.002
940	0.002
941	0.002
941	0.002
941	0.002
942	0.003
942	0.003
943	0.003
943	0.003
944	0.004
944	0.004
944	0.004
945	0.005
945	0.005
946	0.005
946	0.005
946	0.005
947	0.005
947	0.005
948	0.004
948	0.004
949	0.004
949	0.004
949	0.004
950	0.004
950	0.004
951	0.003
951	0.003
952	0.003
952	0.003
952	0.003
953	0.003
953	0.002
954	0.001
954	0.001
955	0
955	-0
955	-0.001
956	-0.001
956	-0.002
957	-0.003
957	-0.003
957	-0.004
958	-0.005
958	-0.005
959	-0.006
959	-0.007
960	-0.007
960	-0.007
960	-0.008
961	-0.008
961	-0.008
962	-0.007
962	-0.006
963	-0.006
963	-0.005
963	-0.005
964	-0.004
964	-0.004
965	-0.003
965	-0.003
966	-0.002
966	-0.002
966	-0.001
967	-0.001
967	-0.001
968	-0
968	0
968	0.001
969	0.001
969	0.002
970	0.002
970	0.002
971	0.002
971	0.002
971	0.002
972	0.003
972	0.003
973	0.003
973	0.003
974	0.004
974	0.004
974	0.004
975	0.005
975	0.006
976	0.006
976	0.007
976	0.007
977	0.006
977	0.006
978	0.006
978	0.006
979	0.006
979	0.005
979	0.004
980	0.003
980	0.002
981	0.002
981	0.001
982	0
982	-0
982	-0.001
983	-0.001
983	-0.002
984	-0.003
984	-0.004
984	-0.004
985	-0.005
985	-0.006
986	-0.007
986	-0.007
987	-0.007
987	-0.007
987	-0.007
988	-0.007
988	-0.006
989	-0.006
989	-0.005
990	-0.004
990	-0.003
990	-0.002
991	-0.001
991	-0
992	0
992	0.001
992	0.001
993	0.001
993	0.001
994	0.001
994	0
995	-0
995	-0.001
995	-0.001
996	-0.001
996	-0.001
997	-0.002
997	-0.001
997	-0.001
998	0
998	0.002
999	0.003
999	0.004
1000	0.005
1000	0.006
1000	0.007
1001	0.007
1001	0.008
1002	0.008
1002	0.007
1003	0.007
1003	0.006
1003	0.005
1004	0.004
1004	0.003
1005	0.002
1005	0.001
1005	0.001
1006	-0
1006	-0.001
1007	-0.001
1007	-0.002
1008	-0.002
1008	-0.002
1008	-0.002
1009	-0.002
1009	-0.002
1010	-0.001
1010	-0.001
1010	-0.001
1011	-0
1011	-0
1012	0
1012	0
1013	0.001
1013	0
1013	0.001
1014	0.001
1014	0.001
1015	0.001
1015	0.001
1016	0.002
1016	0.002
1016	0.002
1017	0.002
1017	0.003
1018	0.003
1018	0.004
1018	0.005
1019	0.005
1019	0.006
1020	0.006
1020	0.006
1021	0.006
1021	0.007
1021	0.007
1022	0.007
1022	0.007
1023	0.007
1023	0.007
1023	0.007
1024	0.006
1024	0.006
1025	0.006
1025	0.006
1026	0.006
1026	0.006
1026	0.005
1027	0.005
1027	0.005
1028	0.005
1028	0.005
1028	0.004
1029	0.004
1029	0.003
1030	0.003
1030	0.002
1031	0.001
1031	0.001
1031	0
1032	0
1032	-0
1033	-0.001
1033	-0.001
1033	-0.001
1034	-0.001
1034	-0.002
1035	-0.002
1035	-0.002
1036	-0.002
1036	-0.002
1036	-0.001
1037	-0.001
1037	-0
1038	0
1038	0.002
1039	0.003
1039	0.004
1039	0.006
1040	0.007
1040	0.008
1041	0.009
1041	0.009
1041	0.01
1042	0.01
1042	0.01
1043	0.01
1043	0.01
1044	0.01
1044	0.01
1044	0.01
1045	0.011
1045	0.011
1046	0.012
1046	0.013
1046	0.014
1047	0.016
1047	0.017
1048	0.019
1048	0.02
1049	0.021
1049	0.022
1049	0.023
1050	0.024
1050	0.024
1051	0.025
1051	0.026
1051	0.027
1052	0.027
1052	0.028
1053	0.029
1053	0.029
1053	0.03
1054	0.031
1054	0.031
1055	0.032
1055	0.032
1056	0.032
1056	0.031
1056	0.031
1057	0.031
1057	0.031
1058	0.031
1058	0.031
1058	0.032
1059	0.033
1059	0.033
1060	0.034
1060	0.035
1061	0.036
1061	0.038
1061	0.039
1062	0.039
1062	0.04
1063	0.04
1063	0.041
1063	0.041
1064	0.043
1064	0.044
1065	0.044
1065	0.045
1066	0.045
1066	0.046
1066	0.048
1067	0.049
1067	0.051
1068	0.052
1068	0.053
1068	0.054
1069	0.056
1069	0.057
1070	0.059
1070	0.061
1071	0.064
1071	0.066
1071	0.068
1072	0.072
1072	0.075
1073	0.079
1073	0.082
1073	0.086
1074	0.089
1074	0.093
1075	0.096
1075	0.099
1076	0.101
1076	0.105
1076	0.108
1077	0.111
1077	0.114
1078	0.118
1078	0.121
1078	0.125
1079	0.128
1079	0.132
1080	0.135
1080	0.139
1080	0.141
1081	0.144
1081	0.148
1082	0.152
1082	0.155
1083	0.159
1083	0.163
1083	0.168
1084	0.173
1084	0.179
1085	0.185
1085	0.192
1085	0.198
1086	0.204
1086	0.209
1087	0.216
1087	0.223
1088	0.23
1088	0.237
1088	0.246
1089	0.254
1089	0.264
1090	0.274
1090	0.287
1090	0.3
1091	0.314
1091	0.33
1092	0.346
1092	0.365
1092	0.383
1093	0.403
1093	0.428
1094	0.454
1094	0.482
1095	0.514
1095	0.553
1095	0.604
1096	0.662
1096	0.731
1097	0.826
1097	0.94
1097	1.122
1098	1.418
1098	-0
1099	-0
1099	-0
1100	-0
1100	-0
1100	-0
1101	-0
1101	-0
1102	-0
1102	-0
1102	-0
1103	-0
1103	-0
1104	-0
1104	-0
1104	-0
1105	-0
1105	-0
1106	-0
1106	-0
1107	-0
1107	-0
1107	-0
1108	-0
1108	-0
1109	-0
1109	-0
1109	-0
1110	-0
1110	-0
1111	-0
1111	-0
