Data from 15c-2-5a_Absorbance__1273__03074.txt Node

Date: Fri Jan 19 14:25:43 CET 2024
User: Marek
Spectrometer: MAYP115816
Trigger mode: 0
Integration Time (sec): 2.000000E-1
Scans to average: 10
Electric dark correction enabled: true
Nonlinearity correction enabled: true
Boxcar width: 5
XAxis mode: Wavelengths
Number of Pixels in Spectrum: 2068
>>>>>Begin Spectral Data<<<<<
199	-2.299
199	-2.141
200	-1.994
200	-1.872
201	-1.802
201	-1.747
202	-1.672
202	-1.611
203	-1.558
203	-1.511
204	-1.483
204	-1.458
205	-1.438
205	-1.426
205	-1.424
206	-1.418
206	-1.414
207	-1.408
207	-1.404
208	-1.402
208	-1.398
209	-1.396
209	-1.391
210	-1.389
210	-1.387
211	-1.385
211	-1.384
212	-1.385
212	-1.384
213	-1.383
213	-1.38
213	-1.38
214	-1.375
214	-1.374
215	-1.371
215	-1.369
216	-1.366
216	-1.365
217	-1.36
217	-1.359
218	-1.356
218	-1.354
219	-1.35
219	-1.349
220	-1.348
220	-1.348
221	-1.345
221	-1.34
221	-1.334
222	-1.332
222	-1.328
223	-1.322
223	-1.318
224	-1.31
224	-1.303
225	-1.296
225	-1.284
226	-1.273
226	-1.263
227	-1.25
227	-1.235
228	-1.219
228	-1.203
229	-1.182
229	-1.16
229	-1.133
230	-1.104
230	-1.071
231	-1.035
231	-0.996
232	-0.954
232	-0.909
233	-0.861
233	-0.81
234	-0.76
234	-0.708
235	-0.657
235	-0.605
236	-0.555
236	-0.504
236	-0.454
237	-0.406
237	-0.36
238	-0.315
238	-0.273
239	-0.232
239	-0.194
240	-0.157
240	-0.123
241	-0.091
241	-0.06
242	-0.032
242	-0.006
243	0.018
243	0.041
243	0.062
244	0.081
244	0.099
245	0.116
245	0.132
246	0.146
246	0.159
247	0.172
247	0.183
248	0.194
248	0.204
249	0.214
249	0.223
250	0.231
250	0.239
250	0.247
251	0.254
251	0.26
252	0.267
252	0.273
253	0.278
253	0.284
254	0.288
254	0.293
255	0.297
255	0.301
256	0.304
256	0.307
257	0.31
257	0.313
258	0.316
258	0.318
258	0.32
259	0.322
259	0.323
260	0.325
260	0.326
261	0.327
261	0.329
262	0.33
262	0.33
263	0.332
263	0.333
264	0.333
264	0.334
265	0.334
265	0.335
265	0.335
266	0.335
266	0.335
267	0.335
267	0.335
268	0.335
268	0.334
269	0.333
269	0.333
270	0.332
270	0.332
271	0.331
271	0.33
272	0.329
272	0.329
272	0.328
273	0.327
273	0.327
274	0.326
274	0.325
275	0.325
275	0.324
276	0.323
276	0.321
277	0.32
277	0.318
278	0.316
278	0.314
278	0.311
279	0.309
279	0.308
280	0.307
280	0.306
281	0.306
281	0.305
282	0.304
282	0.304
283	0.304
283	0.305
284	0.305
284	0.305
285	0.304
285	0.303
285	0.303
286	0.302
286	0.301
287	0.3
287	0.299
288	0.298
288	0.298
289	0.297
289	0.296
290	0.296
290	0.295
291	0.294
291	0.293
292	0.292
292	0.292
292	0.291
293	0.29
293	0.289
294	0.288
294	0.288
295	0.287
295	0.286
296	0.285
296	0.285
297	0.284
297	0.284
298	0.283
298	0.282
298	0.282
299	0.281
299	0.281
300	0.28
300	0.279
301	0.279
301	0.278
302	0.277
302	0.277
303	0.276
303	0.275
304	0.275
304	0.274
305	0.273
305	0.273
305	0.272
306	0.271
306	0.27
307	0.27
307	0.269
308	0.268
308	0.267
309	0.266
309	0.265
310	0.264
310	0.264
311	0.263
311	0.262
311	0.261
312	0.26
312	0.26
313	0.259
313	0.258
314	0.257
314	0.256
315	0.255
315	0.254
316	0.253
316	0.252
317	0.251
317	0.25
318	0.249
318	0.248
318	0.248
319	0.247
319	0.246
320	0.245
320	0.244
321	0.243
321	0.241
322	0.24
322	0.239
323	0.238
323	0.237
324	0.236
324	0.235
324	0.234
325	0.233
325	0.233
326	0.232
326	0.231
327	0.23
327	0.229
328	0.228
328	0.228
329	0.227
329	0.226
330	0.225
330	0.224
330	0.223
331	0.222
331	0.221
332	0.22
332	0.219
333	0.218
333	0.217
334	0.216
334	0.216
335	0.215
335	0.214
336	0.213
336	0.212
336	0.211
337	0.21
337	0.209
338	0.208
338	0.207
339	0.206
339	0.206
340	0.205
340	0.204
341	0.203
341	0.203
342	0.202
342	0.201
342	0.201
343	0.2
343	0.199
344	0.199
344	0.198
345	0.197
345	0.196
346	0.195
346	0.194
347	0.193
347	0.192
348	0.191
348	0.19
348	0.189
349	0.188
349	0.187
350	0.186
350	0.185
351	0.184
351	0.183
352	0.182
352	0.181
353	0.18
353	0.179
354	0.177
354	0.176
354	0.175
355	0.173
355	0.172
356	0.171
356	0.17
357	0.169
357	0.168
358	0.168
358	0.168
359	0.169
359	0.17
360	0.171
360	0.172
360	0.172
361	0.173
361	0.174
362	0.174
362	0.175
363	0.175
363	0.174
364	0.174
364	0.173
365	0.172
365	0.172
366	0.171
366	0.17
366	0.17
367	0.17
367	0.169
368	0.169
368	0.168
369	0.167
369	0.167
370	0.166
370	0.166
371	0.165
371	0.164
372	0.164
372	0.163
372	0.163
373	0.162
373	0.162
374	0.162
374	0.162
375	0.162
375	0.162
376	0.162
376	0.162
377	0.162
377	0.163
378	0.163
378	0.163
378	0.163
379	0.163
379	0.163
380	0.164
380	0.164
381	0.163
381	0.163
382	0.163
382	0.162
383	0.162
383	0.161
383	0.161
384	0.16
384	0.159
385	0.159
385	0.159
386	0.159
386	0.159
387	0.159
387	0.159
388	0.158
388	0.158
389	0.158
389	0.157
389	0.157
390	0.157
390	0.157
391	0.158
391	0.158
392	0.158
392	0.158
393	0.158
393	0.158
394	0.157
394	0.157
394	0.157
395	0.156
395	0.156
396	0.155
396	0.155
397	0.155
397	0.155
398	0.155
398	0.155
399	0.155
399	0.155
400	0.155
400	0.155
400	0.154
401	0.153
401	0.152
402	0.151
402	0.15
403	0.149
403	0.149
404	0.149
404	0.149
405	0.148
405	0.148
405	0.147
406	0.147
406	0.146
407	0.146
407	0.146
408	0.145
408	0.144
409	0.143
409	0.142
410	0.142
410	0.142
411	0.142
411	0.142
411	0.141
412	0.141
412	0.14
413	0.14
413	0.14
414	0.139
414	0.139
415	0.139
415	0.138
416	0.138
416	0.137
416	0.136
417	0.136
417	0.136
418	0.136
418	0.136
419	0.137
419	0.137
420	0.138
420	0.139
421	0.14
421	0.14
421	0.141
422	0.141
422	0.141
423	0.141
423	0.141
424	0.14
424	0.139
425	0.138
425	0.136
426	0.136
426	0.135
427	0.135
427	0.135
427	0.135
428	0.136
428	0.137
429	0.138
429	0.138
430	0.139
430	0.138
431	0.138
431	0.137
432	0.137
432	0.136
432	0.135
433	0.133
433	0.131
434	0.13
434	0.129
435	0.129
435	0.129
436	0.129
436	0.129
437	0.129
437	0.129
437	0.129
438	0.129
438	0.128
439	0.128
439	0.128
440	0.127
440	0.127
441	0.127
441	0.127
442	0.128
442	0.128
442	0.128
443	0.129
443	0.129
444	0.129
444	0.13
445	0.13
445	0.13
446	0.13
446	0.129
447	0.129
447	0.129
447	0.128
448	0.128
448	0.128
449	0.127
449	0.127
450	0.126
450	0.126
451	0.126
451	0.125
452	0.124
452	0.123
452	0.123
453	0.122
453	0.121
454	0.121
454	0.12
455	0.119
455	0.119
456	0.118
456	0.117
457	0.117
457	0.117
458	0.117
458	0.116
458	0.117
459	0.117
459	0.117
460	0.116
460	0.115
461	0.114
461	0.114
462	0.113
462	0.113
463	0.114
463	0.114
463	0.115
464	0.115
464	0.116
465	0.116
465	0.116
466	0.116
466	0.116
467	0.116
467	0.115
467	0.114
468	0.112
468	0.109
469	0.107
469	0.105
470	0.104
470	0.103
471	0.103
471	0.103
472	0.103
472	0.103
472	0.103
473	0.104
473	0.106
474	0.107
474	0.108
475	0.109
475	0.109
476	0.11
476	0.11
477	0.11
477	0.11
477	0.11
478	0.111
478	0.111
479	0.111
479	0.111
480	0.113
480	0.114
481	0.115
481	0.116
482	0.117
482	0.118
482	0.12
483	0.123
483	0.126
484	0.13
484	0.134
485	0.136
485	0.137
486	0.138
486	0.139
487	0.139
487	0.139
487	0.139
488	0.138
488	0.135
489	0.132
489	0.129
490	0.127
490	0.126
491	0.124
491	0.124
492	0.125
492	0.125
492	0.125
493	0.126
493	0.127
494	0.128
494	0.131
495	0.133
495	0.135
496	0.136
496	0.136
496	0.137
497	0.138
497	0.139
498	0.14
498	0.14
499	0.14
499	0.139
500	0.139
500	0.14
501	0.142
501	0.144
501	0.145
502	0.147
502	0.148
503	0.15
503	0.151
504	0.152
504	0.152
505	0.152
505	0.152
506	0.152
506	0.152
506	0.152
507	0.151
507	0.151
508	0.151
508	0.151
509	0.152
509	0.152
510	0.152
510	0.152
511	0.152
511	0.152
511	0.152
512	0.152
512	0.152
513	0.151
513	0.149
514	0.147
514	0.145
515	0.144
515	0.144
515	0.143
516	0.143
516	0.142
517	0.142
517	0.141
518	0.141
518	0.14
519	0.138
519	0.135
520	0.131
520	0.128
520	0.124
521	0.121
521	0.118
522	0.115
522	0.114
523	0.114
523	0.115
524	0.118
524	0.121
524	0.125
525	0.129
525	0.133
526	0.136
526	0.14
527	0.143
527	0.146
528	0.148
528	0.149
529	0.15
529	0.151
529	0.151
530	0.151
530	0.151
531	0.151
531	0.151
532	0.151
532	0.15
533	0.151
533	0.151
533	0.151
534	0.151
534	0.15
535	0.149
535	0.149
536	0.149
536	0.148
537	0.148
537	0.148
538	0.147
538	0.145
538	0.144
539	0.143
539	0.142
540	0.141
540	0.14
541	0.138
541	0.136
542	0.134
542	0.133
542	0.131
543	0.13
543	0.129
544	0.128
544	0.127
545	0.126
545	0.126
546	0.126
546	0.126
547	0.125
547	0.123
547	0.12
548	0.117
548	0.115
549	0.113
549	0.111
550	0.109
550	0.107
551	0.104
551	0.102
551	0.1
552	0.098
552	0.097
553	0.097
553	0.097
554	0.097
554	0.096
555	0.093
555	0.091
556	0.087
556	0.084
556	0.081
557	0.078
557	0.076
558	0.074
558	0.072
559	0.07
559	0.069
560	0.069
560	0.069
560	0.069
561	0.069
561	0.07
562	0.07
562	0.069
563	0.067
563	0.065
564	0.063
564	0.06
564	0.057
565	0.056
565	0.055
566	0.054
566	0.053
567	0.053
567	0.054
568	0.056
568	0.058
568	0.06
569	0.064
569	0.066
570	0.068
570	0.069
571	0.07
571	0.072
572	0.072
572	0.073
573	0.074
573	0.074
573	0.073
574	0.073
574	0.072
575	0.072
575	0.073
576	0.075
576	0.075
577	0.074
577	0.073
577	0.072
578	0.071
578	0.071
579	0.072
579	0.074
580	0.073
580	0.071
581	0.068
581	0.065
581	0.064
582	0.063
582	0.063
583	0.064
583	0.064
584	0.061
584	0.057
585	0.054
585	0.053
585	0.053
586	0.053
586	0.053
587	0.051
587	0.048
588	0.044
588	0.041
589	0.039
589	0.037
590	0.036
590	0.034
590	0.035
591	0.036
591	0.036
592	0.036
592	0.036
593	0.035
593	0.035
594	0.035
594	0.034
594	0.033
595	0.033
595	0.031
596	0.029
596	0.028
597	0.03
597	0.032
598	0.033
598	0.035
598	0.036
599	0.037
599	0.036
600	0.035
600	0.034
601	0.033
601	0.032
602	0.03
602	0.028
602	0.026
603	0.024
603	0.025
604	0.026
604	0.027
605	0.029
605	0.032
606	0.033
606	0.033
606	0.032
607	0.032
607	0.032
608	0.031
608	0.03
609	0.028
609	0.026
610	0.024
610	0.022
610	0.021
611	0.021
611	0.021
612	0.022
612	0.024
613	0.025
613	0.027
614	0.027
614	0.026
614	0.026
615	0.025
615	0.025
616	0.024
616	0.024
617	0.023
617	0.021
618	0.019
618	0.018
618	0.017
619	0.017
619	0.017
620	0.019
620	0.02
621	0.02
621	0.02
622	0.021
622	0.021
622	0.022
623	0.021
623	0.022
624	0.023
624	0.023
625	0.022
625	0.022
626	0.021
626	0.021
626	0.021
627	0.022
627	0.022
628	0.023
628	0.024
629	0.024
629	0.024
630	0.023
630	0.022
630	0.022
631	0.022
631	0.022
632	0.022
632	0.021
633	0.021
633	0.021
634	0.023
634	0.025
634	0.027
635	0.03
635	0.031
636	0.032
636	0.033
637	0.035
637	0.036
638	0.037
638	0.038
638	0.039
639	0.039
639	0.039
640	0.039
640	0.041
641	0.042
641	0.044
642	0.046
642	0.047
642	0.049
643	0.051
643	0.053
644	0.055
644	0.057
645	0.06
645	0.062
646	0.065
646	0.068
646	0.072
647	0.077
647	0.081
648	0.084
648	0.087
649	0.09
649	0.094
650	0.097
650	0.101
650	0.104
651	0.107
651	0.109
652	0.111
652	0.113
653	0.116
653	0.124
653	0.151
654	0.125
654	0.106
655	0.111
655	0.113
656	0.114
656	0.116
657	0.118
657	0.12
657	0.121
658	0.119
658	0.1
659	0.123
659	0.155
660	0.156
660	0.158
661	0.16
661	0.161
661	0.163
662	0.166
662	0.169
663	0.173
663	0.176
664	0.178
664	0.181
665	0.183
665	0.185
665	0.188
666	0.19
666	0.192
667	0.194
667	0.196
668	0.199
668	0.201
669	0.203
669	0.206
669	0.21
670	0.215
670	0.218
671	0.221
671	0.223
672	0.225
672	0.226
672	0.228
673	0.229
673	0.23
674	0.232
674	0.232
675	0.231
675	0.231
676	0.233
676	0.235
676	0.237
677	0.239
677	0.242
678	0.244
678	0.246
679	0.248
679	0.249
680	0.252
680	0.254
680	0.254
681	0.254
681	0.255
682	0.256
682	0.257
683	0.259
683	0.262
684	0.265
684	0.267
684	0.267
685	0.268
685	0.269
686	0.27
686	0.271
687	0.27
687	0.269
687	0.268
688	0.266
688	0.264
689	0.263
689	0.264
690	0.264
690	0.264
691	0.263
691	0.263
691	0.264
692	0.264
692	0.263
693	0.262
693	0.263
694	0.263
694	0.26
695	0.26
695	0.262
695	0.263
696	0.262
696	0.261
697	0.261
697	0.26
698	0.259
698	0.257
698	0.255
699	0.254
699	0.252
700	0.248
700	0.245
701	0.244
701	0.243
702	0.241
702	0.239
702	0.238
703	0.236
703	0.235
704	0.233
704	0.233
705	0.232
705	0.232
705	0.231
706	0.23
706	0.229
707	0.228
707	0.226
708	0.225
708	0.223
709	0.221
709	0.219
709	0.216
710	0.212
710	0.208
711	0.206
711	0.204
712	0.201
712	0.199
713	0.197
713	0.195
713	0.193
714	0.191
714	0.188
715	0.186
715	0.183
716	0.18
716	0.178
716	0.176
717	0.174
717	0.172
718	0.169
718	0.166
719	0.163
719	0.161
720	0.159
720	0.156
720	0.153
721	0.149
721	0.146
722	0.143
722	0.14
723	0.137
723	0.135
723	0.133
724	0.131
724	0.129
725	0.126
725	0.124
726	0.122
726	0.12
727	0.118
727	0.117
727	0.115
728	0.113
728	0.111
729	0.11
729	0.109
730	0.107
730	0.105
730	0.103
731	0.101
731	0.099
732	0.098
732	0.096
733	0.094
733	0.092
734	0.089
734	0.086
734	0.083
735	0.081
735	0.078
736	0.075
736	0.072
737	0.069
737	0.066
737	0.064
738	0.061
738	0.057
739	0.054
739	0.052
740	0.049
740	0.047
741	0.046
741	0.044
741	0.04
742	0.036
742	0.031
743	0.028
743	0.025
744	0.022
744	0.019
744	0.016
745	0.013
745	0.01
746	0.008
746	0.006
747	0.006
747	0.006
748	0.006
748	0.007
748	0.007
749	0.006
749	0.006
750	0.005
750	0.004
751	0.003
751	0.003
751	0.002
752	0.001
752	-0.001
753	-0.002
753	-0.004
754	-0.004
754	-0.005
754	-0.005
755	-0.004
755	-0.003
756	-0.003
756	-0.005
757	-0.007
757	-0.007
758	-0.008
758	-0.009
758	-0.01
759	-0.011
759	-0.014
760	-0.017
760	-0.021
761	-0.024
761	-0.025
761	-0.027
762	-0.029
762	-0.031
763	-0.032
763	-0.036
764	-0.039
764	-0.043
764	-0.046
765	-0.049
765	-0.052
766	-0.054
766	-0.055
767	-0.056
767	-0.059
768	-0.063
768	-0.066
768	-0.067
769	-0.068
769	-0.069
770	-0.07
770	-0.072
771	-0.074
771	-0.077
771	-0.08
772	-0.082
772	-0.084
773	-0.086
773	-0.089
774	-0.093
774	-0.096
775	-0.1
775	-0.103
775	-0.107
776	-0.111
776	-0.115
777	-0.119
777	-0.122
778	-0.127
778	-0.132
778	-0.137
779	-0.14
779	-0.138
780	-0.139
780	-0.141
781	-0.143
781	-0.144
781	-0.145
782	-0.146
782	-0.148
783	-0.149
783	-0.148
784	-0.148
784	-0.15
784	-0.152
785	-0.153
785	-0.155
786	-0.155
786	-0.153
787	-0.149
787	-0.145
788	-0.144
788	-0.145
788	-0.146
789	-0.148
789	-0.148
790	-0.146
790	-0.145
791	-0.145
791	-0.147
791	-0.15
792	-0.145
792	-0.134
793	-0.128
793	-0.124
794	-0.122
794	-0.124
794	-0.127
795	-0.129
795	-0.129
796	-0.129
796	-0.132
797	-0.14
797	-0.151
797	-0.157
798	-0.163
798	-0.166
799	-0.166
799	-0.166
800	-0.166
800	-0.167
801	-0.17
801	-0.171
801	-0.17
802	-0.171
802	-0.172
803	-0.172
803	-0.172
804	-0.171
804	-0.166
804	-0.16
805	-0.156
805	-0.154
806	-0.152
806	-0.15
807	-0.149
807	-0.149
807	-0.148
808	-0.148
808	-0.149
809	-0.153
809	-0.159
810	-0.163
810	-0.165
810	-0.169
811	-0.172
811	-0.173
812	-0.169
812	-0.167
813	-0.167
813	-0.168
813	-0.17
814	-0.171
814	-0.171
815	-0.169
815	-0.167
816	-0.165
816	-0.166
817	-0.17
817	-0.173
817	-0.173
818	-0.172
818	-0.169
819	-0.163
819	-0.16
820	-0.161
820	-0.163
820	-0.164
821	-0.164
821	-0.163
822	-0.163
822	-0.162
823	-0.162
823	-0.164
823	-0.168
824	-0.169
824	-0.166
825	-0.161
825	-0.155
826	-0.149
826	-0.144
826	-0.138
827	-0.131
827	-0.124
828	-0.116
828	-0.11
829	-0.103
829	-0.097
829	-0.093
830	-0.09
830	-0.087
831	-0.083
831	-0.08
832	-0.078
832	-0.076
832	-0.074
833	-0.073
833	-0.072
834	-0.072
834	-0.071
835	-0.07
835	-0.069
835	-0.068
836	-0.067
836	-0.066
837	-0.065
837	-0.064
838	-0.063
838	-0.062
839	-0.061
839	-0.06
839	-0.06
840	-0.059
840	-0.058
841	-0.057
841	-0.056
842	-0.055
842	-0.053
842	-0.051
843	-0.049
843	-0.047
844	-0.044
844	-0.042
845	-0.039
845	-0.038
845	-0.035
846	-0.034
846	-0.033
847	-0.032
847	-0.031
848	-0.031
848	-0.031
848	-0.031
849	-0.031
849	-0.03
850	-0.03
850	-0.03
851	-0.03
851	-0.029
851	-0.028
852	-0.027
852	-0.026
853	-0.025
853	-0.025
854	-0.024
854	-0.023
854	-0.022
855	-0.022
855	-0.022
856	-0.022
856	-0.022
857	-0.022
857	-0.023
857	-0.023
858	-0.023
858	-0.023
859	-0.023
859	-0.023
860	-0.022
860	-0.021
860	-0.02
861	-0.018
861	-0.017
862	-0.016
862	-0.015
863	-0.014
863	-0.013
863	-0.012
864	-0.011
864	-0.01
865	-0.009
865	-0.009
866	-0.008
866	-0.007
866	-0.006
867	-0.005
867	-0.004
868	-0.003
868	-0.003
869	-0.002
869	-0.002
869	-0.002
870	-0.002
870	-0.002
871	-0.002
871	-0.003
872	-0.003
872	-0.003
872	-0.003
873	-0.003
873	-0.003
874	-0.003
874	-0.003
875	-0.003
875	-0.002
875	-0.002
876	-0.001
876	-0.001
877	-0.001
877	-0.001
878	-0.001
878	-0.002
878	-0.002
879	-0.003
879	-0.004
880	-0.006
880	-0.007
881	-0.008
881	-0.008
881	-0.008
882	-0.008
882	-0.007
883	-0.006
883	-0.005
884	-0.003
884	-0.002
884	-0
885	0.001
885	0.003
886	0.004
886	0.005
887	0.006
887	0.006
887	0.006
888	0.006
888	0.006
889	0.006
889	0.006
890	0.005
890	0.005
890	0.004
891	0.003
891	0.002
892	0.002
892	0.001
893	-0
893	-0.001
893	-0.001
894	-0.002
894	-0.002
895	-0.003
895	-0.003
895	-0.003
896	-0.003
896	-0.003
897	-0.002
897	-0.002
898	-0.002
898	-0.002
898	-0.001
899	-0.001
899	-0
900	0
900	0.001
901	0.002
901	0.003
901	0.004
902	0.005
902	0.007
903	0.008
903	0.009
904	0.011
904	0.011
904	0.012
905	0.013
905	0.013
906	0.014
906	0.013
907	0.013
907	0.012
907	0.011
908	0.01
908	0.01
909	0.009
909	0.008
910	0.007
910	0.006
910	0.006
911	0.005
911	0.004
912	0.004
912	0.003
913	0.003
913	0.002
913	0.001
914	0.001
914	0
915	0
915	0
916	0
916	0
916	0
917	0.001
917	0.001
918	0.002
918	0.003
918	0.004
919	0.005
919	0.007
920	0.008
920	0.01
921	0.011
921	0.012
921	0.013
922	0.014
922	0.014
923	0.014
923	0.015
924	0.015
924	0.014
924	0.014
925	0.013
925	0.012
926	0.012
926	0.012
927	0.011
927	0.011
927	0.011
928	0.01
928	0.01
929	0.011
929	0.011
930	0.01
930	0.01
930	0.01
931	0.01
931	0.009
932	0.009
932	0.009
933	0.008
933	0.008
933	0.008
934	0.008
934	0.009
935	0.009
935	0.009
935	0.01
936	0.011
936	0.011
937	0.013
937	0.013
938	0.014
938	0.014
938	0.015
939	0.015
939	0.015
940	0.015
940	0.015
941	0.014
941	0.013
941	0.013
942	0.012
942	0.012
943	0.012
943	0.012
944	0.012
944	0.012
944	0.012
945	0.013
945	0.013
946	0.014
946	0.014
946	0.015
947	0.015
947	0.015
948	0.015
948	0.015
949	0.016
949	0.016
949	0.017
950	0.017
950	0.017
951	0.018
951	0.018
952	0.018
952	0.019
952	0.019
953	0.02
953	0.02
954	0.02
954	0.02
955	0.019
955	0.019
955	0.019
956	0.019
956	0.018
957	0.017
957	0.017
957	0.016
958	0.015
958	0.014
959	0.013
959	0.012
960	0.012
960	0.011
960	0.01
961	0.009
961	0.009
962	0.009
962	0.009
963	0.009
963	0.009
963	0.009
964	0.009
964	0.009
965	0.009
965	0.008
966	0.008
966	0.009
966	0.009
967	0.009
967	0.009
968	0.009
968	0.009
968	0.01
969	0.011
969	0.011
970	0.012
970	0.013
971	0.014
971	0.014
971	0.015
972	0.016
972	0.017
973	0.018
973	0.018
974	0.019
974	0.02
974	0.021
975	0.022
975	0.023
976	0.023
976	0.024
976	0.024
977	0.024
977	0.024
978	0.024
978	0.023
979	0.023
979	0.022
979	0.022
980	0.021
980	0.02
981	0.019
981	0.019
982	0.019
982	0.019
982	0.019
983	0.018
983	0.018
984	0.018
984	0.018
984	0.018
985	0.018
985	0.019
986	0.018
986	0.018
987	0.018
987	0.018
987	0.018
988	0.018
988	0.018
989	0.017
989	0.017
990	0.017
990	0.016
990	0.016
991	0.016
991	0.016
992	0.016
992	0.016
992	0.016
993	0.015
993	0.015
994	0.014
994	0.014
995	0.013
995	0.012
995	0.012
996	0.011
996	0.011
997	0.01
997	0.011
997	0.011
998	0.012
998	0.013
999	0.015
999	0.016
1000	0.017
1000	0.018
1000	0.018
1001	0.019
1001	0.019
1002	0.018
1002	0.018
1003	0.017
1003	0.016
1003	0.014
1004	0.013
1004	0.012
1005	0.011
1005	0.01
1005	0.009
1006	0.008
1006	0.007
1007	0.007
1007	0.006
1008	0.006
1008	0.005
1008	0.005
1009	0.005
1009	0.005
1010	0.005
1010	0.005
1010	0.006
1011	0.006
1011	0.006
1012	0.006
1012	0.006
1013	0.006
1013	0.007
1013	0.007
1014	0.008
1014	0.008
1015	0.009
1015	0.01
1016	0.011
1016	0.012
1016	0.013
1017	0.014
1017	0.015
1018	0.017
1018	0.018
1018	0.02
1019	0.021
1019	0.021
1020	0.022
1020	0.022
1021	0.022
1021	0.022
1021	0.022
1022	0.022
1022	0.022
1023	0.021
1023	0.021
1023	0.02
1024	0.02
1024	0.019
1025	0.019
1025	0.019
1026	0.018
1026	0.018
1026	0.018
1027	0.018
1027	0.018
1028	0.018
1028	0.018
1028	0.018
1029	0.018
1029	0.018
1030	0.018
1030	0.017
1031	0.017
1031	0.017
1031	0.017
1032	0.017
1032	0.017
1033	0.017
1033	0.017
1033	0.017
1034	0.017
1034	0.016
1035	0.016
1035	0.016
1036	0.016
1036	0.016
1036	0.016
1037	0.016
1037	0.017
1038	0.017
1038	0.018
1039	0.019
1039	0.02
1039	0.021
1040	0.022
1040	0.023
1041	0.023
1041	0.023
1041	0.024
1042	0.023
1042	0.024
1043	0.024
1043	0.024
1044	0.025
1044	0.025
1044	0.026
1045	0.026
1045	0.027
1046	0.028
1046	0.029
1046	0.031
1047	0.032
1047	0.034
1048	0.036
1048	0.037
1049	0.037
1049	0.038
1049	0.038
1050	0.039
1050	0.039
1051	0.04
1051	0.04
1051	0.041
1052	0.041
1052	0.042
1053	0.043
1053	0.043
1053	0.044
1054	0.045
1054	0.046
1055	0.047
1055	0.047
1056	0.047
1056	0.047
1056	0.046
1057	0.046
1057	0.046
1058	0.047
1058	0.046
1058	0.047
1059	0.047
1059	0.048
1060	0.048
1060	0.05
1061	0.051
1061	0.052
1061	0.053
1062	0.054
1062	0.054
1063	0.055
1063	0.055
1063	0.057
1064	0.058
1064	0.06
1065	0.061
1065	0.062
1066	0.063
1066	0.065
1066	0.066
1067	0.068
1067	0.071
1068	0.072
1068	0.074
1068	0.075
1069	0.077
1069	0.079
1070	0.081
1070	0.084
1071	0.087
1071	0.09
1071	0.093
1072	0.097
1072	0.101
1073	0.105
1073	0.11
1073	0.114
1074	0.117
1074	0.121
1075	0.124
1075	0.126
1076	0.129
1076	0.133
1076	0.135
1077	0.139
1077	0.142
1078	0.145
1078	0.15
1078	0.154
1079	0.158
1079	0.163
1080	0.167
1080	0.171
1080	0.174
1081	0.178
1081	0.182
1082	0.187
1082	0.19
1083	0.194
1083	0.199
1083	0.203
1084	0.208
1084	0.216
1085	0.222
1085	0.229
1085	0.237
1086	0.243
1086	0.248
1087	0.257
1087	0.265
1088	0.273
1088	0.282
1088	0.294
1089	0.303
1089	0.315
1090	0.327
1090	0.342
1090	0.359
1091	0.376
1091	0.396
1092	0.417
1092	0.442
1092	0.466
1093	0.491
1093	0.523
1094	0.558
1094	0.595
1095	0.638
1095	0.695
1095	0.769
1096	0.858
1096	0.975
1097	1.165
1097	1.499
1097	-0
1098	-0
1098	-0
1099	-0
1099	-0
1100	-0
1100	-0
1100	-0
1101	-0
1101	-0
1102	-0
1102	-0
1102	-0
1103	-0
1103	-0
1104	-0
1104	-0
1104	-0
1105	-0
1105	-0
1106	-0
1106	-0
1107	-0
1107	-0
1107	-0
1108	-0
1108	-0
1109	-0
1109	-0
1109	-0
1110	-0
1110	-0
1111	-0
1111	-0
