Data from 15c-2-5a_Absorbance__1588__03389.txt Node

Date: Fri Jan 19 14:36:13 CET 2024
User: Marek
Spectrometer: MAYP115816
Trigger mode: 0
Integration Time (sec): 2.000000E-1
Scans to average: 10
Electric dark correction enabled: true
Nonlinearity correction enabled: true
Boxcar width: 5
XAxis mode: Wavelengths
Number of Pixels in Spectrum: 2068
>>>>>Begin Spectral Data<<<<<
199	-2.297
199	-2.139
200	-1.992
200	-1.87
201	-1.8
201	-1.745
202	-1.671
202	-1.61
203	-1.556
203	-1.51
204	-1.482
204	-1.457
205	-1.437
205	-1.426
205	-1.424
206	-1.418
206	-1.413
207	-1.409
207	-1.404
208	-1.402
208	-1.398
209	-1.396
209	-1.391
210	-1.388
210	-1.387
211	-1.385
211	-1.383
212	-1.384
212	-1.384
213	-1.383
213	-1.38
213	-1.379
214	-1.375
214	-1.374
215	-1.371
215	-1.37
216	-1.366
216	-1.366
217	-1.361
217	-1.359
218	-1.356
218	-1.354
219	-1.35
219	-1.35
220	-1.348
220	-1.347
221	-1.345
221	-1.34
221	-1.335
222	-1.333
222	-1.328
223	-1.322
223	-1.318
224	-1.31
224	-1.303
225	-1.295
225	-1.283
226	-1.272
226	-1.262
227	-1.249
227	-1.234
228	-1.218
228	-1.202
229	-1.181
229	-1.158
229	-1.131
230	-1.102
230	-1.069
231	-1.033
231	-0.993
232	-0.952
232	-0.906
233	-0.858
233	-0.808
234	-0.757
234	-0.705
235	-0.654
235	-0.602
236	-0.551
236	-0.501
236	-0.451
237	-0.402
237	-0.356
238	-0.311
238	-0.268
239	-0.227
239	-0.189
240	-0.152
240	-0.118
241	-0.085
241	-0.055
242	-0.026
242	0
243	0.025
243	0.047
243	0.069
244	0.089
244	0.108
245	0.124
245	0.14
246	0.155
246	0.169
247	0.181
247	0.193
248	0.204
248	0.215
249	0.224
249	0.233
250	0.241
250	0.249
250	0.257
251	0.264
251	0.271
252	0.277
252	0.283
253	0.289
253	0.294
254	0.299
254	0.304
255	0.308
255	0.312
256	0.315
256	0.319
257	0.322
257	0.325
258	0.327
258	0.329
258	0.332
259	0.334
259	0.335
260	0.337
260	0.338
261	0.339
261	0.34
262	0.341
262	0.342
263	0.343
263	0.344
264	0.345
264	0.345
265	0.346
265	0.346
265	0.346
266	0.347
266	0.347
267	0.347
267	0.347
268	0.346
268	0.346
269	0.345
269	0.345
270	0.344
270	0.343
271	0.342
271	0.342
272	0.341
272	0.34
272	0.34
273	0.339
273	0.338
274	0.337
274	0.336
275	0.335
275	0.335
276	0.334
276	0.332
277	0.331
277	0.329
278	0.327
278	0.324
278	0.322
279	0.32
279	0.319
280	0.318
280	0.317
281	0.317
281	0.316
282	0.316
282	0.315
283	0.316
283	0.316
284	0.316
284	0.316
285	0.315
285	0.314
285	0.313
286	0.313
286	0.312
287	0.311
287	0.31
288	0.309
288	0.308
289	0.307
289	0.307
290	0.306
290	0.305
291	0.304
291	0.303
292	0.302
292	0.302
292	0.301
293	0.3
293	0.299
294	0.298
294	0.298
295	0.297
295	0.296
296	0.296
296	0.295
297	0.294
297	0.294
298	0.293
298	0.292
298	0.291
299	0.291
299	0.29
300	0.289
300	0.289
301	0.288
301	0.287
302	0.286
302	0.286
303	0.285
303	0.284
304	0.284
304	0.283
305	0.282
305	0.282
305	0.281
306	0.28
306	0.279
307	0.279
307	0.278
308	0.277
308	0.276
309	0.275
309	0.274
310	0.273
310	0.272
311	0.272
311	0.271
311	0.27
312	0.269
312	0.268
313	0.267
313	0.266
314	0.265
314	0.264
315	0.263
315	0.262
316	0.261
316	0.26
317	0.259
317	0.258
318	0.257
318	0.256
318	0.256
319	0.255
319	0.254
320	0.253
320	0.252
321	0.251
321	0.25
322	0.248
322	0.247
323	0.246
323	0.245
324	0.244
324	0.243
324	0.242
325	0.241
325	0.24
326	0.239
326	0.239
327	0.238
327	0.237
328	0.236
328	0.235
329	0.234
329	0.233
330	0.232
330	0.231
330	0.23
331	0.229
331	0.228
332	0.227
332	0.226
333	0.225
333	0.225
334	0.224
334	0.223
335	0.222
335	0.221
336	0.22
336	0.219
336	0.218
337	0.217
337	0.216
338	0.215
338	0.214
339	0.213
339	0.212
340	0.211
340	0.211
341	0.21
341	0.209
342	0.208
342	0.208
342	0.207
343	0.206
343	0.205
344	0.204
344	0.203
345	0.203
345	0.202
346	0.201
346	0.2
347	0.199
347	0.198
348	0.197
348	0.197
348	0.196
349	0.195
349	0.194
350	0.193
350	0.192
351	0.191
351	0.19
352	0.189
352	0.188
353	0.187
353	0.186
354	0.184
354	0.183
354	0.181
355	0.18
355	0.179
356	0.177
356	0.176
357	0.175
357	0.175
358	0.174
358	0.175
359	0.176
359	0.176
360	0.177
360	0.178
360	0.179
361	0.18
361	0.18
362	0.181
362	0.181
363	0.181
363	0.181
364	0.18
364	0.179
365	0.179
365	0.178
366	0.177
366	0.177
366	0.176
367	0.176
367	0.175
368	0.175
368	0.174
369	0.174
369	0.173
370	0.172
370	0.172
371	0.171
371	0.17
372	0.17
372	0.169
372	0.168
373	0.168
373	0.168
374	0.167
374	0.167
375	0.167
375	0.167
376	0.167
376	0.168
377	0.168
377	0.168
378	0.169
378	0.169
378	0.17
379	0.17
379	0.17
380	0.17
380	0.17
381	0.17
381	0.169
382	0.169
382	0.168
383	0.168
383	0.167
383	0.167
384	0.166
384	0.166
385	0.165
385	0.165
386	0.165
386	0.165
387	0.165
387	0.164
388	0.164
388	0.163
389	0.163
389	0.163
389	0.163
390	0.163
390	0.163
391	0.163
391	0.164
392	0.163
392	0.163
393	0.163
393	0.163
394	0.163
394	0.163
394	0.163
395	0.162
395	0.162
396	0.161
396	0.161
397	0.162
397	0.162
398	0.162
398	0.162
399	0.162
399	0.161
400	0.161
400	0.161
400	0.16
401	0.159
401	0.158
402	0.157
402	0.156
403	0.156
403	0.155
404	0.155
404	0.155
405	0.154
405	0.154
405	0.153
406	0.153
406	0.152
407	0.152
407	0.152
408	0.151
408	0.15
409	0.149
409	0.149
410	0.148
410	0.148
411	0.148
411	0.148
411	0.147
412	0.147
412	0.147
413	0.146
413	0.146
414	0.146
414	0.145
415	0.145
415	0.144
416	0.144
416	0.143
416	0.143
417	0.142
417	0.142
418	0.142
418	0.142
419	0.142
419	0.143
420	0.144
420	0.145
421	0.145
421	0.146
421	0.146
422	0.146
422	0.146
423	0.147
423	0.146
424	0.145
424	0.144
425	0.143
425	0.142
426	0.141
426	0.14
427	0.14
427	0.14
427	0.141
428	0.141
428	0.142
429	0.143
429	0.144
430	0.144
430	0.144
431	0.144
431	0.143
432	0.143
432	0.142
432	0.14
433	0.139
433	0.137
434	0.136
434	0.135
435	0.135
435	0.135
436	0.135
436	0.135
437	0.135
437	0.135
437	0.135
438	0.135
438	0.135
439	0.135
439	0.135
440	0.134
440	0.134
441	0.134
441	0.134
442	0.134
442	0.135
442	0.135
443	0.135
443	0.136
444	0.136
444	0.136
445	0.136
445	0.136
446	0.135
446	0.135
447	0.134
447	0.134
447	0.133
448	0.133
448	0.133
449	0.132
449	0.132
450	0.132
450	0.131
451	0.131
451	0.13
452	0.129
452	0.129
452	0.128
453	0.127
453	0.127
454	0.126
454	0.125
455	0.124
455	0.124
456	0.124
456	0.123
457	0.123
457	0.123
458	0.123
458	0.122
458	0.122
459	0.123
459	0.123
460	0.122
460	0.121
461	0.121
461	0.12
462	0.12
462	0.12
463	0.12
463	0.121
463	0.122
464	0.122
464	0.122
465	0.122
465	0.123
466	0.123
466	0.123
467	0.123
467	0.123
467	0.121
468	0.119
468	0.117
469	0.114
469	0.112
470	0.111
470	0.11
471	0.11
471	0.109
472	0.109
472	0.108
472	0.109
473	0.11
473	0.112
474	0.113
474	0.114
475	0.115
475	0.116
476	0.116
476	0.117
477	0.117
477	0.117
477	0.118
478	0.117
478	0.117
479	0.118
479	0.118
480	0.119
480	0.12
481	0.121
481	0.122
482	0.123
482	0.124
482	0.125
483	0.128
483	0.131
484	0.136
484	0.139
485	0.141
485	0.143
486	0.144
486	0.145
487	0.145
487	0.146
487	0.145
488	0.144
488	0.142
489	0.138
489	0.135
490	0.133
490	0.131
491	0.13
491	0.13
492	0.131
492	0.131
492	0.131
493	0.132
493	0.133
494	0.135
494	0.138
495	0.14
495	0.142
496	0.143
496	0.144
496	0.145
497	0.146
497	0.147
498	0.147
498	0.148
499	0.148
499	0.147
500	0.148
500	0.149
501	0.15
501	0.152
501	0.154
502	0.155
502	0.157
503	0.159
503	0.16
504	0.161
504	0.161
505	0.161
505	0.161
506	0.161
506	0.161
506	0.161
507	0.161
507	0.16
508	0.16
508	0.161
509	0.161
509	0.162
510	0.162
510	0.161
511	0.161
511	0.161
511	0.161
512	0.162
512	0.161
513	0.16
513	0.157
514	0.155
514	0.153
515	0.152
515	0.152
515	0.151
516	0.15
516	0.15
517	0.149
517	0.149
518	0.148
518	0.147
519	0.145
519	0.141
520	0.137
520	0.133
520	0.129
521	0.125
521	0.122
522	0.12
522	0.119
523	0.119
523	0.121
524	0.124
524	0.129
524	0.133
525	0.138
525	0.142
526	0.146
526	0.149
527	0.153
527	0.155
528	0.156
528	0.158
529	0.159
529	0.159
529	0.159
530	0.159
530	0.159
531	0.159
531	0.159
532	0.159
532	0.159
533	0.159
533	0.159
533	0.159
534	0.158
534	0.158
535	0.157
535	0.156
536	0.156
536	0.155
537	0.155
537	0.154
538	0.153
538	0.152
538	0.151
539	0.15
539	0.149
540	0.149
540	0.147
541	0.146
541	0.144
542	0.142
542	0.14
542	0.139
543	0.138
543	0.136
544	0.135
544	0.134
545	0.132
545	0.132
546	0.132
546	0.132
547	0.131
547	0.129
547	0.126
548	0.124
548	0.121
549	0.119
549	0.117
550	0.115
550	0.114
551	0.111
551	0.108
551	0.106
552	0.105
552	0.104
553	0.103
553	0.103
554	0.103
554	0.101
555	0.099
555	0.096
556	0.093
556	0.089
556	0.086
557	0.084
557	0.081
558	0.079
558	0.077
559	0.075
559	0.075
560	0.075
560	0.074
560	0.074
561	0.074
561	0.075
562	0.075
562	0.075
563	0.073
563	0.071
564	0.068
564	0.065
564	0.062
565	0.06
565	0.059
566	0.058
566	0.057
567	0.057
567	0.058
568	0.06
568	0.062
568	0.065
569	0.068
569	0.071
570	0.074
570	0.075
571	0.076
571	0.078
572	0.079
572	0.079
573	0.08
573	0.08
573	0.079
574	0.078
574	0.077
575	0.077
575	0.078
576	0.08
576	0.079
577	0.078
577	0.076
577	0.075
578	0.074
578	0.074
579	0.075
579	0.077
580	0.077
580	0.074
581	0.071
581	0.068
581	0.066
582	0.066
582	0.065
583	0.066
583	0.066
584	0.063
584	0.058
585	0.055
585	0.054
585	0.054
586	0.054
586	0.054
587	0.052
587	0.049
588	0.046
588	0.042
589	0.04
589	0.038
590	0.037
590	0.036
590	0.036
591	0.037
591	0.037
592	0.038
592	0.037
593	0.037
593	0.037
594	0.036
594	0.036
594	0.035
595	0.034
595	0.032
596	0.03
596	0.029
597	0.031
597	0.034
598	0.035
598	0.036
598	0.038
599	0.038
599	0.038
600	0.038
600	0.037
601	0.036
601	0.035
602	0.034
602	0.032
602	0.03
603	0.029
603	0.029
604	0.03
604	0.032
605	0.034
605	0.036
606	0.037
606	0.037
606	0.036
607	0.036
607	0.035
608	0.035
608	0.033
609	0.031
609	0.029
610	0.027
610	0.025
610	0.023
611	0.023
611	0.024
612	0.025
612	0.027
613	0.029
613	0.031
614	0.031
614	0.03
614	0.03
615	0.03
615	0.03
616	0.029
616	0.028
617	0.027
617	0.025
618	0.023
618	0.021
618	0.02
619	0.019
619	0.019
620	0.02
620	0.021
621	0.022
621	0.022
622	0.023
622	0.023
622	0.024
623	0.024
623	0.025
624	0.026
624	0.026
625	0.025
625	0.025
626	0.025
626	0.024
626	0.024
627	0.025
627	0.025
628	0.026
628	0.026
629	0.027
629	0.027
630	0.026
630	0.026
630	0.026
631	0.026
631	0.026
632	0.026
632	0.026
633	0.026
633	0.027
634	0.029
634	0.031
634	0.034
635	0.036
635	0.037
636	0.038
636	0.039
637	0.041
637	0.041
638	0.043
638	0.044
638	0.044
639	0.044
639	0.044
640	0.045
640	0.047
641	0.048
641	0.05
642	0.052
642	0.055
642	0.056
643	0.058
643	0.059
644	0.061
644	0.063
645	0.065
645	0.067
646	0.069
646	0.073
646	0.077
647	0.081
647	0.085
648	0.089
648	0.092
649	0.095
649	0.099
650	0.103
650	0.106
650	0.11
651	0.112
651	0.114
652	0.116
652	0.118
653	0.121
653	0.13
653	0.158
654	0.131
654	0.111
655	0.116
655	0.118
656	0.12
656	0.122
657	0.124
657	0.126
657	0.127
658	0.124
658	0.105
659	0.129
659	0.162
660	0.163
660	0.164
661	0.166
661	0.167
661	0.17
662	0.172
662	0.175
663	0.179
663	0.182
664	0.185
664	0.187
665	0.19
665	0.193
665	0.195
666	0.197
666	0.2
667	0.202
667	0.204
668	0.206
668	0.208
669	0.21
669	0.213
669	0.217
670	0.222
670	0.225
671	0.228
671	0.23
672	0.232
672	0.233
672	0.235
673	0.236
673	0.238
674	0.239
674	0.24
675	0.239
675	0.24
676	0.241
676	0.243
676	0.245
677	0.247
677	0.25
678	0.253
678	0.254
679	0.256
679	0.257
680	0.26
680	0.262
680	0.262
681	0.263
681	0.264
682	0.265
682	0.267
683	0.268
683	0.271
684	0.274
684	0.276
684	0.277
685	0.277
685	0.279
686	0.28
686	0.28
687	0.28
687	0.279
687	0.278
688	0.276
688	0.274
689	0.274
689	0.276
690	0.276
690	0.276
691	0.276
691	0.276
691	0.276
692	0.276
692	0.275
693	0.274
693	0.274
694	0.273
694	0.27
695	0.269
695	0.27
695	0.271
696	0.27
696	0.269
697	0.268
697	0.267
698	0.266
698	0.264
698	0.262
699	0.261
699	0.258
700	0.254
700	0.251
701	0.25
701	0.248
702	0.247
702	0.245
702	0.244
703	0.242
703	0.241
704	0.24
704	0.239
705	0.239
705	0.24
705	0.239
706	0.239
706	0.238
707	0.237
707	0.235
708	0.233
708	0.231
709	0.229
709	0.226
709	0.222
710	0.217
710	0.213
711	0.21
711	0.207
712	0.204
712	0.202
713	0.2
713	0.199
713	0.197
714	0.194
714	0.192
715	0.19
715	0.188
716	0.185
716	0.183
716	0.181
717	0.179
717	0.177
718	0.174
718	0.171
719	0.169
719	0.167
720	0.165
720	0.163
720	0.16
721	0.156
721	0.153
722	0.15
722	0.147
723	0.144
723	0.142
723	0.14
724	0.137
724	0.134
725	0.131
725	0.128
726	0.126
726	0.124
727	0.121
727	0.119
727	0.117
728	0.115
728	0.113
729	0.112
729	0.112
730	0.11
730	0.108
730	0.106
731	0.104
731	0.102
732	0.101
732	0.099
733	0.097
733	0.095
734	0.092
734	0.089
734	0.087
735	0.086
735	0.084
736	0.081
736	0.079
737	0.077
737	0.075
737	0.073
738	0.071
738	0.067
739	0.064
739	0.061
740	0.058
740	0.055
741	0.053
741	0.05
741	0.046
742	0.041
742	0.036
743	0.032
743	0.029
744	0.026
744	0.023
744	0.021
745	0.018
745	0.014
746	0.012
746	0.01
747	0.009
747	0.009
748	0.01
748	0.01
748	0.01
749	0.009
749	0.008
750	0.007
750	0.006
751	0.006
751	0.005
751	0.005
752	0.003
752	0.001
753	-0
753	-0.002
754	-0.002
754	-0.003
754	-0.002
755	-0.001
755	-0
756	0
756	-0.001
757	-0.002
757	-0.003
758	-0.003
758	-0.004
758	-0.005
759	-0.006
759	-0.008
760	-0.011
760	-0.015
761	-0.017
761	-0.019
761	-0.02
762	-0.022
762	-0.024
763	-0.025
763	-0.028
764	-0.031
764	-0.035
764	-0.037
765	-0.041
765	-0.044
766	-0.046
766	-0.048
767	-0.049
767	-0.052
768	-0.056
768	-0.059
768	-0.061
769	-0.061
769	-0.062
770	-0.063
770	-0.065
771	-0.067
771	-0.07
771	-0.073
772	-0.076
772	-0.078
773	-0.08
773	-0.083
774	-0.087
774	-0.091
775	-0.094
775	-0.098
775	-0.102
776	-0.106
776	-0.111
777	-0.115
777	-0.119
778	-0.123
778	-0.129
778	-0.134
779	-0.137
779	-0.137
780	-0.138
780	-0.14
781	-0.142
781	-0.143
781	-0.145
782	-0.146
782	-0.148
783	-0.149
783	-0.148
784	-0.148
784	-0.15
784	-0.152
785	-0.153
785	-0.155
786	-0.155
786	-0.153
787	-0.149
787	-0.145
788	-0.144
788	-0.145
788	-0.146
789	-0.149
789	-0.149
790	-0.146
790	-0.145
791	-0.145
791	-0.147
791	-0.15
792	-0.145
792	-0.134
793	-0.128
793	-0.124
794	-0.122
794	-0.124
794	-0.127
795	-0.129
795	-0.129
796	-0.129
796	-0.132
797	-0.14
797	-0.151
797	-0.158
798	-0.163
798	-0.166
799	-0.167
799	-0.166
800	-0.166
800	-0.167
801	-0.17
801	-0.171
801	-0.17
802	-0.171
802	-0.172
803	-0.172
803	-0.172
804	-0.171
804	-0.166
804	-0.16
805	-0.156
805	-0.154
806	-0.152
806	-0.15
807	-0.149
807	-0.149
807	-0.149
808	-0.148
808	-0.149
809	-0.154
809	-0.159
810	-0.163
810	-0.165
810	-0.169
811	-0.172
811	-0.173
812	-0.17
812	-0.167
813	-0.167
813	-0.168
813	-0.17
814	-0.171
814	-0.171
815	-0.169
815	-0.167
816	-0.165
816	-0.166
817	-0.17
817	-0.173
817	-0.174
818	-0.172
818	-0.169
819	-0.163
819	-0.16
820	-0.161
820	-0.163
820	-0.164
821	-0.164
821	-0.163
822	-0.163
822	-0.162
823	-0.162
823	-0.164
823	-0.168
824	-0.169
824	-0.166
825	-0.161
825	-0.155
826	-0.149
826	-0.144
826	-0.138
827	-0.131
827	-0.124
828	-0.117
828	-0.11
829	-0.103
829	-0.098
829	-0.093
830	-0.09
830	-0.087
831	-0.083
831	-0.079
832	-0.078
832	-0.075
832	-0.074
833	-0.073
833	-0.072
834	-0.071
834	-0.07
835	-0.069
835	-0.069
835	-0.068
836	-0.067
836	-0.065
837	-0.064
837	-0.063
838	-0.061
838	-0.059
839	-0.058
839	-0.057
839	-0.056
840	-0.055
840	-0.054
841	-0.053
841	-0.052
842	-0.051
842	-0.05
842	-0.05
843	-0.048
843	-0.047
844	-0.045
844	-0.043
845	-0.042
845	-0.041
845	-0.039
846	-0.038
846	-0.037
847	-0.036
847	-0.035
848	-0.034
848	-0.033
848	-0.032
849	-0.031
849	-0.03
850	-0.028
850	-0.028
851	-0.027
851	-0.026
851	-0.025
852	-0.024
852	-0.023
853	-0.022
853	-0.022
854	-0.021
854	-0.021
854	-0.02
855	-0.02
855	-0.02
856	-0.02
856	-0.02
857	-0.02
857	-0.02
857	-0.02
858	-0.02
858	-0.021
859	-0.021
859	-0.021
860	-0.021
860	-0.02
860	-0.019
861	-0.018
861	-0.016
862	-0.015
862	-0.014
863	-0.013
863	-0.011
863	-0.01
864	-0.009
864	-0.007
865	-0.006
865	-0.005
866	-0.004
866	-0.003
866	-0.002
867	-0.001
867	-0.001
868	-0.001
868	-0.001
869	-0.001
869	-0.001
869	-0.002
870	-0.003
870	-0.003
871	-0.004
871	-0.005
872	-0.005
872	-0.006
872	-0.006
873	-0.006
873	-0.006
874	-0.005
874	-0.004
875	-0.004
875	-0.003
875	-0.002
876	-0.001
876	-0.001
877	-0
877	-0
878	-0.001
878	-0.001
878	-0.002
879	-0.003
879	-0.005
880	-0.006
880	-0.007
881	-0.008
881	-0.009
881	-0.01
882	-0.01
882	-0.01
883	-0.009
883	-0.009
884	-0.008
884	-0.007
884	-0.006
885	-0.005
885	-0.003
886	-0.002
886	-0.001
887	0
887	0.001
887	0.001
888	0.001
888	0.002
889	0.002
889	0.003
890	0.003
890	0.003
890	0.003
891	0.003
891	0.003
892	0.003
892	0.003
893	0.003
893	0.004
893	0.004
894	0.004
894	0.004
895	0.004
895	0.004
895	0.004
896	0.004
896	0.004
897	0.004
897	0.004
898	0.004
898	0.004
898	0.004
899	0.004
899	0.004
900	0.004
900	0.005
901	0.005
901	0.006
901	0.006
902	0.007
902	0.008
903	0.008
903	0.008
904	0.009
904	0.009
904	0.01
905	0.01
905	0.01
906	0.01
906	0.009
907	0.009
907	0.009
907	0.008
908	0.008
908	0.007
909	0.007
909	0.007
910	0.006
910	0.006
910	0.006
911	0.005
911	0.005
912	0.005
912	0.005
913	0.005
913	0.005
913	0.005
914	0.005
914	0.005
915	0.005
915	0.005
916	0.004
916	0.004
916	0.003
917	0.003
917	0.002
918	0.002
918	0.002
918	0.002
919	0.002
919	0.002
920	0.003
920	0.004
921	0.005
921	0.006
921	0.006
922	0.007
922	0.008
923	0.008
923	0.008
924	0.008
924	0.007
924	0.006
925	0.006
925	0.005
926	0.005
926	0.004
927	0.003
927	0.003
927	0.003
928	0.003
928	0.003
929	0.003
929	0.003
930	0.002
930	0.002
930	0.002
931	0.003
931	0.003
932	0.003
932	0.004
933	0.005
933	0.006
933	0.006
934	0.007
934	0.008
935	0.009
935	0.01
935	0.01
936	0.011
936	0.012
937	0.012
937	0.013
938	0.013
938	0.014
938	0.014
939	0.015
939	0.016
940	0.017
940	0.018
941	0.02
941	0.021
941	0.022
942	0.023
942	0.024
943	0.025
943	0.025
944	0.026
944	0.026
944	0.027
945	0.028
945	0.028
946	0.029
946	0.029
946	0.03
947	0.03
947	0.03
948	0.03
948	0.03
949	0.03
949	0.03
949	0.03
950	0.029
950	0.029
951	0.028
951	0.028
952	0.027
952	0.027
952	0.027
953	0.027
953	0.027
954	0.026
954	0.026
955	0.025
955	0.025
955	0.024
956	0.024
956	0.023
957	0.022
957	0.021
957	0.02
958	0.019
958	0.018
959	0.018
959	0.017
960	0.016
960	0.015
960	0.015
961	0.014
961	0.013
962	0.012
962	0.012
963	0.012
963	0.011
963	0.011
964	0.011
964	0.011
965	0.012
965	0.012
966	0.013
966	0.013
966	0.014
967	0.014
967	0.014
968	0.015
968	0.015
968	0.015
969	0.016
969	0.016
970	0.016
970	0.016
971	0.016
971	0.017
971	0.017
972	0.017
972	0.018
973	0.018
973	0.019
974	0.019
974	0.019
974	0.019
975	0.02
975	0.02
976	0.021
976	0.021
976	0.022
977	0.022
977	0.022
978	0.022
978	0.022
979	0.022
979	0.022
979	0.021
980	0.021
980	0.021
981	0.02
981	0.02
982	0.02
982	0.02
982	0.019
983	0.019
983	0.018
984	0.018
984	0.017
984	0.017
985	0.016
985	0.016
986	0.015
986	0.015
987	0.015
987	0.014
987	0.015
988	0.015
988	0.015
989	0.016
989	0.016
990	0.017
990	0.017
990	0.018
991	0.019
991	0.019
992	0.02
992	0.02
992	0.019
993	0.019
993	0.019
994	0.018
994	0.017
995	0.017
995	0.016
995	0.015
996	0.015
996	0.014
997	0.014
997	0.014
997	0.014
998	0.015
998	0.015
999	0.016
999	0.016
1000	0.017
1000	0.018
1000	0.018
1001	0.018
1001	0.019
1002	0.019
1002	0.019
1003	0.018
1003	0.018
1003	0.017
1004	0.017
1004	0.016
1005	0.015
1005	0.015
1005	0.014
1006	0.014
1006	0.013
1007	0.013
1007	0.013
1008	0.013
1008	0.013
1008	0.013
1009	0.013
1009	0.013
1010	0.013
1010	0.013
1010	0.013
1011	0.012
1011	0.012
1012	0.012
1012	0.011
1013	0.011
1013	0.011
1013	0.011
1014	0.011
1014	0.012
1015	0.012
1015	0.013
1016	0.014
1016	0.015
1016	0.016
1017	0.017
1017	0.019
1018	0.02
1018	0.021
1018	0.023
1019	0.024
1019	0.025
1020	0.025
1020	0.026
1021	0.027
1021	0.027
1021	0.027
1022	0.027
1022	0.027
1023	0.027
1023	0.027
1023	0.027
1024	0.026
1024	0.026
1025	0.026
1025	0.026
1026	0.026
1026	0.026
1026	0.026
1027	0.027
1027	0.027
1028	0.028
1028	0.028
1028	0.029
1029	0.029
1029	0.029
1030	0.029
1030	0.029
1031	0.029
1031	0.029
1031	0.028
1032	0.028
1032	0.027
1033	0.027
1033	0.026
1033	0.025
1034	0.024
1034	0.023
1035	0.022
1035	0.022
1036	0.021
1036	0.021
1036	0.021
1037	0.021
1037	0.021
1038	0.021
1038	0.022
1039	0.022
1039	0.023
1039	0.024
1040	0.025
1040	0.026
1041	0.026
1041	0.027
1041	0.028
1042	0.028
1042	0.029
1043	0.03
1043	0.03
1044	0.031
1044	0.032
1044	0.034
1045	0.035
1045	0.036
1046	0.037
1046	0.038
1046	0.04
1047	0.042
1047	0.044
1048	0.045
1048	0.046
1049	0.047
1049	0.048
1049	0.048
1050	0.049
1050	0.049
1051	0.05
1051	0.05
1051	0.051
1052	0.051
1052	0.052
1053	0.053
1053	0.054
1053	0.055
1054	0.056
1054	0.057
1055	0.058
1055	0.059
1056	0.059
1056	0.059
1056	0.059
1057	0.059
1057	0.059
1058	0.059
1058	0.059
1058	0.06
1059	0.06
1059	0.06
1060	0.061
1060	0.061
1061	0.062
1061	0.063
1061	0.064
1062	0.064
1062	0.064
1063	0.065
1063	0.065
1063	0.066
1064	0.067
1064	0.068
1065	0.069
1065	0.07
1066	0.071
1066	0.073
1066	0.075
1067	0.077
1067	0.079
1068	0.081
1068	0.082
1068	0.083
1069	0.085
1069	0.086
1070	0.088
1070	0.09
1071	0.092
1071	0.095
1071	0.097
1072	0.1
1072	0.104
1073	0.107
1073	0.111
1073	0.114
1074	0.118
1074	0.121
1075	0.123
1075	0.127
1076	0.129
1076	0.134
1076	0.136
1077	0.139
1077	0.144
1078	0.147
1078	0.152
1078	0.156
1079	0.16
1079	0.165
1080	0.17
1080	0.174
1080	0.177
1081	0.181
1081	0.185
1082	0.189
1082	0.193
1083	0.197
1083	0.201
1083	0.207
1084	0.213
1084	0.22
1085	0.226
1085	0.234
1085	0.243
1086	0.25
1086	0.257
1087	0.267
1087	0.277
1088	0.285
1088	0.295
1088	0.307
1089	0.317
1089	0.331
1090	0.345
1090	0.362
1090	0.379
1091	0.399
1091	0.421
1092	0.443
1092	0.471
1092	0.497
1093	0.525
1093	0.562
1094	0.599
1094	0.642
1095	0.69
1095	0.754
1095	0.839
1096	0.938
1096	1.08
1097	1.336
1097	1.992
1097	-0
1098	-0
1098	-0
1099	-0
1099	-0
1100	-0
1100	-0
1100	-0
1101	-0
1101	-0
1102	-0
1102	-0
1102	-0
1103	-0
1103	-0
1104	-0
1104	-0
1104	-0
1105	-0
1105	-0
1106	-0
1106	-0
1107	-0
1107	-0
1107	-0
1108	-0
1108	-0
1109	-0
1109	-0
1109	-0
1110	-0
1110	-0
1111	-0
1111	-0
