Data from 15c-2-5a_Absorbance__699__02500.txt Node

Date: Fri Jan 19 14:06:35 CET 2024
User: Marek
Spectrometer: MAYP115816
Trigger mode: 0
Integration Time (sec): 2.000000E-1
Scans to average: 10
Electric dark correction enabled: true
Nonlinearity correction enabled: true
Boxcar width: 5
XAxis mode: Wavelengths
Number of Pixels in Spectrum: 2068
>>>>>Begin Spectral Data<<<<<
199	-2.288
199	-2.129
200	-1.983
200	-1.862
201	-1.792
201	-1.737
202	-1.663
202	-1.602
203	-1.548
203	-1.502
204	-1.474
204	-1.449
205	-1.429
205	-1.417
205	-1.415
206	-1.409
206	-1.405
207	-1.399
207	-1.395
208	-1.393
208	-1.389
209	-1.387
209	-1.383
210	-1.381
210	-1.379
211	-1.377
211	-1.376
212	-1.377
212	-1.376
213	-1.375
213	-1.373
213	-1.372
214	-1.368
214	-1.367
215	-1.363
215	-1.362
216	-1.358
216	-1.358
217	-1.353
217	-1.351
218	-1.349
218	-1.346
219	-1.342
219	-1.342
220	-1.34
220	-1.34
221	-1.337
221	-1.332
221	-1.326
222	-1.324
222	-1.32
223	-1.314
223	-1.309
224	-1.302
224	-1.295
225	-1.287
225	-1.276
226	-1.265
226	-1.255
227	-1.241
227	-1.227
228	-1.21
228	-1.194
229	-1.173
229	-1.151
229	-1.124
230	-1.095
230	-1.063
231	-1.027
231	-0.987
232	-0.946
232	-0.902
233	-0.854
233	-0.804
234	-0.754
234	-0.704
235	-0.653
235	-0.603
236	-0.554
236	-0.505
236	-0.457
237	-0.41
237	-0.366
238	-0.323
238	-0.283
239	-0.244
239	-0.207
240	-0.173
240	-0.141
241	-0.111
241	-0.083
242	-0.057
242	-0.033
243	-0.011
243	0.009
243	0.028
244	0.045
244	0.062
245	0.076
245	0.09
246	0.103
246	0.115
247	0.126
247	0.136
248	0.146
248	0.155
249	0.163
249	0.171
250	0.178
250	0.185
250	0.192
251	0.198
251	0.203
252	0.209
252	0.214
253	0.219
253	0.223
254	0.227
254	0.231
255	0.235
255	0.238
256	0.241
256	0.244
257	0.246
257	0.249
258	0.251
258	0.253
258	0.255
259	0.256
259	0.258
260	0.259
260	0.26
261	0.261
261	0.262
262	0.262
262	0.263
263	0.264
263	0.264
264	0.265
264	0.265
265	0.265
265	0.265
265	0.265
266	0.266
266	0.265
267	0.265
267	0.265
268	0.264
268	0.264
269	0.263
269	0.262
270	0.262
270	0.261
271	0.26
271	0.259
272	0.258
272	0.258
272	0.257
273	0.256
273	0.255
274	0.254
274	0.253
275	0.252
275	0.251
276	0.25
276	0.249
277	0.247
277	0.246
278	0.244
278	0.241
278	0.239
279	0.237
279	0.236
280	0.235
280	0.234
281	0.233
281	0.232
282	0.232
282	0.231
283	0.231
283	0.231
284	0.231
284	0.231
285	0.23
285	0.23
285	0.229
286	0.228
286	0.227
287	0.226
287	0.225
288	0.224
288	0.224
289	0.223
289	0.222
290	0.221
290	0.22
291	0.219
291	0.219
292	0.218
292	0.217
292	0.217
293	0.216
293	0.215
294	0.214
294	0.214
295	0.213
295	0.213
296	0.212
296	0.212
297	0.211
297	0.211
298	0.21
298	0.21
298	0.209
299	0.209
299	0.208
300	0.207
300	0.207
301	0.206
301	0.205
302	0.205
302	0.204
303	0.204
303	0.203
304	0.203
304	0.202
305	0.202
305	0.201
305	0.2
306	0.2
306	0.199
307	0.199
307	0.198
308	0.197
308	0.197
309	0.196
309	0.195
310	0.195
310	0.194
311	0.193
311	0.192
311	0.192
312	0.191
312	0.19
313	0.189
313	0.189
314	0.188
314	0.187
315	0.186
315	0.186
316	0.185
316	0.184
317	0.183
317	0.182
318	0.182
318	0.181
318	0.18
319	0.179
319	0.179
320	0.178
320	0.177
321	0.176
321	0.175
322	0.174
322	0.173
323	0.172
323	0.171
324	0.17
324	0.169
324	0.168
325	0.167
325	0.167
326	0.166
326	0.166
327	0.165
327	0.164
328	0.164
328	0.163
329	0.162
329	0.161
330	0.161
330	0.16
330	0.159
331	0.158
331	0.157
332	0.157
332	0.156
333	0.155
333	0.154
334	0.154
334	0.153
335	0.152
335	0.151
336	0.15
336	0.15
336	0.149
337	0.148
337	0.148
338	0.147
338	0.146
339	0.145
339	0.145
340	0.144
340	0.143
341	0.142
341	0.142
342	0.141
342	0.141
342	0.14
343	0.139
343	0.139
344	0.138
344	0.137
345	0.137
345	0.136
346	0.135
346	0.135
347	0.134
347	0.133
348	0.132
348	0.131
348	0.131
349	0.13
349	0.129
350	0.128
350	0.127
351	0.126
351	0.125
352	0.124
352	0.123
353	0.122
353	0.121
354	0.12
354	0.119
354	0.117
355	0.116
355	0.115
356	0.114
356	0.113
357	0.113
357	0.112
358	0.112
358	0.113
359	0.113
359	0.114
360	0.114
360	0.115
360	0.116
361	0.116
361	0.116
362	0.117
362	0.117
363	0.117
363	0.116
364	0.116
364	0.115
365	0.114
365	0.114
366	0.114
366	0.113
366	0.113
367	0.112
367	0.112
368	0.112
368	0.111
369	0.111
369	0.11
370	0.11
370	0.109
371	0.109
371	0.108
372	0.108
372	0.107
372	0.107
373	0.106
373	0.106
374	0.106
374	0.106
375	0.106
375	0.106
376	0.106
376	0.106
377	0.106
377	0.107
378	0.107
378	0.107
378	0.108
379	0.108
379	0.108
380	0.108
380	0.108
381	0.108
381	0.108
382	0.107
382	0.107
383	0.106
383	0.106
383	0.106
384	0.105
384	0.104
385	0.104
385	0.104
386	0.104
386	0.104
387	0.104
387	0.103
388	0.103
388	0.103
389	0.102
389	0.102
389	0.102
390	0.102
390	0.103
391	0.103
391	0.103
392	0.103
392	0.103
393	0.103
393	0.103
394	0.103
394	0.103
394	0.102
395	0.102
395	0.102
396	0.101
396	0.101
397	0.101
397	0.102
398	0.102
398	0.102
399	0.102
399	0.102
400	0.101
400	0.101
400	0.1
401	0.1
401	0.098
402	0.097
402	0.096
403	0.096
403	0.096
404	0.095
404	0.095
405	0.095
405	0.094
405	0.094
406	0.094
406	0.093
407	0.093
407	0.092
408	0.092
408	0.091
409	0.09
409	0.09
410	0.089
410	0.089
411	0.089
411	0.089
411	0.089
412	0.089
412	0.088
413	0.088
413	0.088
414	0.087
414	0.087
415	0.087
415	0.086
416	0.086
416	0.085
416	0.084
417	0.084
417	0.084
418	0.084
418	0.084
419	0.085
419	0.085
420	0.086
420	0.087
421	0.087
421	0.088
421	0.088
422	0.089
422	0.089
423	0.089
423	0.088
424	0.088
424	0.087
425	0.086
425	0.084
426	0.084
426	0.083
427	0.083
427	0.083
427	0.083
428	0.084
428	0.085
429	0.086
429	0.086
430	0.086
430	0.086
431	0.086
431	0.086
432	0.085
432	0.084
432	0.083
433	0.081
433	0.08
434	0.079
434	0.078
435	0.078
435	0.079
436	0.079
436	0.079
437	0.079
437	0.079
437	0.079
438	0.079
438	0.079
439	0.078
439	0.078
440	0.078
440	0.078
441	0.077
441	0.078
442	0.078
442	0.078
442	0.078
443	0.079
443	0.079
444	0.079
444	0.079
445	0.079
445	0.079
446	0.079
446	0.079
447	0.078
447	0.078
447	0.078
448	0.077
448	0.077
449	0.077
449	0.077
450	0.077
450	0.076
451	0.076
451	0.075
452	0.075
452	0.074
452	0.073
453	0.072
453	0.071
454	0.07
454	0.07
455	0.069
455	0.068
456	0.068
456	0.068
457	0.068
457	0.067
458	0.067
458	0.067
458	0.067
459	0.067
459	0.067
460	0.066
460	0.065
461	0.065
461	0.064
462	0.064
462	0.064
463	0.065
463	0.065
463	0.066
464	0.066
464	0.066
465	0.066
465	0.067
466	0.067
466	0.067
467	0.066
467	0.066
467	0.064
468	0.063
468	0.06
469	0.058
469	0.056
470	0.056
470	0.055
471	0.054
471	0.054
472	0.054
472	0.054
472	0.054
473	0.055
473	0.057
474	0.058
474	0.059
475	0.059
475	0.06
476	0.06
476	0.06
477	0.06
477	0.06
477	0.06
478	0.06
478	0.06
479	0.061
479	0.061
480	0.062
480	0.063
481	0.063
481	0.064
482	0.065
482	0.066
482	0.068
483	0.07
483	0.073
484	0.076
484	0.079
485	0.08
485	0.082
486	0.083
486	0.083
487	0.084
487	0.084
487	0.083
488	0.082
488	0.08
489	0.077
489	0.075
490	0.073
490	0.072
491	0.071
491	0.071
492	0.071
492	0.071
492	0.071
493	0.071
493	0.072
494	0.074
494	0.076
495	0.078
495	0.079
496	0.08
496	0.08
496	0.081
497	0.082
497	0.083
498	0.084
498	0.084
499	0.083
499	0.083
500	0.083
500	0.084
501	0.085
501	0.087
501	0.088
502	0.09
502	0.091
503	0.092
503	0.093
504	0.094
504	0.094
505	0.094
505	0.094
506	0.094
506	0.094
506	0.094
507	0.093
507	0.093
508	0.093
508	0.093
509	0.093
509	0.094
510	0.094
510	0.094
511	0.093
511	0.093
511	0.093
512	0.093
512	0.093
513	0.092
513	0.091
514	0.089
514	0.087
515	0.086
515	0.086
515	0.085
516	0.085
516	0.085
517	0.085
517	0.084
518	0.084
518	0.083
519	0.081
519	0.079
520	0.076
520	0.072
520	0.069
521	0.066
521	0.062
522	0.06
522	0.058
523	0.057
523	0.058
524	0.06
524	0.063
524	0.066
525	0.07
525	0.074
526	0.077
526	0.081
527	0.084
527	0.086
528	0.088
528	0.089
529	0.09
529	0.091
529	0.091
530	0.091
530	0.091
531	0.091
531	0.091
532	0.091
532	0.091
533	0.091
533	0.091
533	0.091
534	0.091
534	0.09
535	0.09
535	0.09
536	0.089
536	0.089
537	0.088
537	0.088
538	0.087
538	0.086
538	0.085
539	0.084
539	0.083
540	0.083
540	0.081
541	0.08
541	0.079
542	0.077
542	0.075
542	0.074
543	0.074
543	0.073
544	0.072
544	0.07
545	0.07
545	0.07
546	0.07
546	0.07
547	0.069
547	0.067
547	0.065
548	0.063
548	0.061
549	0.059
549	0.057
550	0.056
550	0.054
551	0.052
551	0.05
551	0.049
552	0.048
552	0.047
553	0.047
553	0.047
554	0.047
554	0.046
555	0.045
555	0.042
556	0.04
556	0.037
556	0.034
557	0.032
557	0.03
558	0.028
558	0.026
559	0.025
559	0.024
560	0.024
560	0.024
560	0.024
561	0.025
561	0.026
562	0.026
562	0.026
563	0.024
563	0.023
564	0.02
564	0.018
564	0.016
565	0.015
565	0.014
566	0.014
566	0.013
567	0.014
567	0.015
568	0.017
568	0.02
568	0.022
569	0.025
569	0.028
570	0.029
570	0.03
571	0.031
571	0.033
572	0.034
572	0.035
573	0.035
573	0.035
573	0.035
574	0.035
574	0.035
575	0.035
575	0.036
576	0.038
576	0.038
577	0.036
577	0.035
577	0.035
578	0.034
578	0.033
579	0.034
579	0.036
580	0.035
580	0.033
581	0.03
581	0.028
581	0.027
582	0.027
582	0.027
583	0.028
583	0.028
584	0.026
584	0.022
585	0.02
585	0.019
585	0.019
586	0.02
586	0.02
587	0.018
587	0.016
588	0.013
588	0.01
589	0.008
589	0.007
590	0.006
590	0.005
590	0.005
591	0.006
591	0.006
592	0.006
592	0.005
593	0.005
593	0.005
594	0.004
594	0.004
594	0.003
595	0.002
595	0.001
596	-0.001
596	-0.001
597	0.001
597	0.003
598	0.004
598	0.005
598	0.006
599	0.006
599	0.006
600	0.005
600	0.003
601	0.002
601	0.001
602	-0.001
602	-0.002
602	-0.004
603	-0.005
603	-0.005
604	-0.004
604	-0.002
605	-0
605	0.002
606	0.003
606	0.003
606	0.003
607	0.002
607	0.002
608	0.002
608	-0
609	-0.002
609	-0.003
610	-0.005
610	-0.007
610	-0.009
611	-0.009
611	-0.009
612	-0.008
612	-0.007
613	-0.005
613	-0.004
614	-0.004
614	-0.005
614	-0.005
615	-0.005
615	-0.005
616	-0.005
616	-0.006
617	-0.006
617	-0.008
618	-0.009
618	-0.01
618	-0.011
619	-0.011
619	-0.011
620	-0.01
620	-0.009
621	-0.009
621	-0.009
622	-0.009
622	-0.009
622	-0.009
623	-0.009
623	-0.008
624	-0.007
624	-0.007
625	-0.008
625	-0.008
626	-0.008
626	-0.008
626	-0.008
627	-0.007
627	-0.007
628	-0.006
628	-0.006
629	-0.006
629	-0.006
630	-0.006
630	-0.007
630	-0.008
631	-0.008
631	-0.008
632	-0.009
632	-0.009
633	-0.009
633	-0.009
634	-0.008
634	-0.006
634	-0.004
635	-0.002
635	-0.001
636	-0
636	0.001
637	0.002
637	0.003
638	0.004
638	0.005
638	0.006
639	0.006
639	0.005
640	0.006
640	0.007
641	0.008
641	0.009
642	0.01
642	0.012
642	0.013
643	0.015
643	0.016
644	0.018
644	0.02
645	0.022
645	0.023
646	0.026
646	0.029
646	0.032
647	0.036
647	0.04
648	0.042
648	0.045
649	0.048
649	0.05
650	0.053
650	0.056
650	0.059
651	0.061
651	0.063
652	0.064
652	0.065
653	0.068
653	0.076
653	0.099
654	0.085
654	0.074
655	0.077
655	0.079
656	0.08
656	0.082
657	0.083
657	0.085
657	0.086
658	0.083
658	0.067
659	0.081
659	0.1
660	0.1
660	0.101
661	0.102
661	0.103
661	0.105
662	0.107
662	0.109
663	0.112
663	0.115
664	0.117
664	0.119
665	0.121
665	0.123
665	0.125
666	0.127
666	0.129
667	0.131
667	0.133
668	0.134
668	0.136
669	0.138
669	0.141
669	0.144
670	0.148
670	0.15
671	0.153
671	0.154
672	0.156
672	0.157
672	0.158
673	0.159
673	0.161
674	0.162
674	0.162
675	0.162
675	0.163
676	0.164
676	0.166
676	0.168
677	0.17
677	0.172
678	0.174
678	0.176
679	0.177
679	0.178
680	0.18
680	0.182
680	0.182
681	0.182
681	0.183
682	0.184
682	0.185
683	0.186
683	0.189
684	0.191
684	0.193
684	0.193
685	0.194
685	0.195
686	0.197
686	0.197
687	0.197
687	0.196
687	0.195
688	0.194
688	0.192
689	0.192
689	0.193
690	0.193
690	0.192
691	0.192
691	0.192
691	0.192
692	0.192
692	0.191
693	0.19
693	0.191
694	0.19
694	0.188
695	0.187
695	0.188
695	0.189
696	0.189
696	0.188
697	0.187
697	0.187
698	0.186
698	0.184
698	0.183
699	0.182
699	0.18
700	0.178
700	0.175
701	0.174
701	0.173
702	0.172
702	0.171
702	0.17
703	0.169
703	0.167
704	0.166
704	0.166
705	0.166
705	0.166
705	0.165
706	0.164
706	0.164
707	0.163
707	0.161
708	0.16
708	0.159
709	0.157
709	0.155
709	0.152
710	0.148
710	0.146
711	0.143
711	0.141
712	0.139
712	0.137
713	0.136
713	0.134
713	0.132
714	0.129
714	0.127
715	0.125
715	0.123
716	0.121
716	0.119
716	0.118
717	0.116
717	0.114
718	0.112
718	0.11
719	0.109
719	0.107
720	0.105
720	0.103
720	0.101
721	0.098
721	0.095
722	0.092
722	0.089
723	0.087
723	0.085
723	0.084
724	0.082
724	0.079
725	0.077
725	0.075
726	0.074
726	0.072
727	0.07
727	0.068
727	0.067
728	0.065
728	0.063
729	0.063
729	0.062
730	0.06
730	0.059
730	0.057
731	0.055
731	0.054
732	0.052
732	0.051
733	0.049
733	0.047
734	0.044
734	0.042
734	0.04
735	0.038
735	0.036
736	0.033
736	0.031
737	0.028
737	0.027
737	0.025
738	0.022
738	0.019
739	0.017
739	0.015
740	0.012
740	0.011
741	0.01
741	0.008
741	0.005
742	0.001
742	-0.004
743	-0.007
743	-0.009
744	-0.012
744	-0.014
744	-0.016
745	-0.019
745	-0.021
746	-0.023
746	-0.024
747	-0.024
747	-0.023
748	-0.022
748	-0.021
748	-0.02
749	-0.021
749	-0.021
750	-0.021
750	-0.022
751	-0.023
751	-0.024
751	-0.024
752	-0.025
752	-0.027
753	-0.029
753	-0.031
754	-0.032
754	-0.032
754	-0.032
755	-0.031
755	-0.03
756	-0.029
756	-0.031
757	-0.032
757	-0.032
758	-0.032
758	-0.033
758	-0.034
759	-0.035
759	-0.037
760	-0.041
760	-0.044
761	-0.047
761	-0.049
761	-0.05
762	-0.053
762	-0.054
763	-0.056
763	-0.058
764	-0.061
764	-0.064
764	-0.067
765	-0.069
765	-0.072
766	-0.073
766	-0.074
767	-0.075
767	-0.077
768	-0.081
768	-0.083
768	-0.085
769	-0.086
769	-0.086
770	-0.088
770	-0.09
771	-0.092
771	-0.095
771	-0.098
772	-0.101
772	-0.102
773	-0.104
773	-0.107
774	-0.11
774	-0.114
775	-0.117
775	-0.119
775	-0.123
776	-0.127
776	-0.13
777	-0.134
777	-0.137
778	-0.142
778	-0.147
778	-0.151
779	-0.152
779	-0.15
780	-0.149
780	-0.15
781	-0.15
781	-0.15
781	-0.15
782	-0.15
782	-0.151
783	-0.15
783	-0.148
784	-0.148
784	-0.151
784	-0.152
785	-0.154
785	-0.155
786	-0.156
786	-0.153
787	-0.149
787	-0.145
788	-0.144
788	-0.145
788	-0.146
789	-0.149
789	-0.149
790	-0.146
790	-0.145
791	-0.146
791	-0.148
791	-0.15
792	-0.145
792	-0.135
793	-0.129
793	-0.124
794	-0.122
794	-0.124
794	-0.128
795	-0.13
795	-0.129
796	-0.13
796	-0.132
797	-0.141
797	-0.151
797	-0.158
798	-0.163
798	-0.166
799	-0.167
799	-0.166
800	-0.166
800	-0.167
801	-0.17
801	-0.171
801	-0.171
802	-0.171
802	-0.172
803	-0.173
803	-0.173
804	-0.172
804	-0.167
804	-0.16
805	-0.156
805	-0.154
806	-0.152
806	-0.151
807	-0.15
807	-0.149
807	-0.149
808	-0.148
808	-0.149
809	-0.154
809	-0.159
810	-0.163
810	-0.166
810	-0.169
811	-0.172
811	-0.173
812	-0.17
812	-0.167
813	-0.167
813	-0.169
813	-0.17
814	-0.171
814	-0.172
815	-0.17
815	-0.167
816	-0.166
816	-0.166
817	-0.17
817	-0.174
817	-0.174
818	-0.173
818	-0.169
819	-0.163
819	-0.16
820	-0.161
820	-0.163
820	-0.165
821	-0.165
821	-0.164
822	-0.163
822	-0.163
823	-0.162
823	-0.164
823	-0.168
824	-0.169
824	-0.167
825	-0.163
825	-0.157
826	-0.152
826	-0.148
826	-0.143
827	-0.137
827	-0.131
828	-0.125
828	-0.119
829	-0.114
829	-0.108
829	-0.104
830	-0.102
830	-0.099
831	-0.096
831	-0.093
832	-0.091
832	-0.089
832	-0.088
833	-0.087
833	-0.086
834	-0.085
834	-0.084
835	-0.083
835	-0.083
835	-0.082
836	-0.081
836	-0.08
837	-0.079
837	-0.078
838	-0.077
838	-0.076
839	-0.075
839	-0.074
839	-0.074
840	-0.073
840	-0.072
841	-0.071
841	-0.069
842	-0.068
842	-0.066
842	-0.064
843	-0.062
843	-0.06
844	-0.057
844	-0.055
845	-0.053
845	-0.051
845	-0.049
846	-0.048
846	-0.047
847	-0.046
847	-0.045
848	-0.045
848	-0.044
848	-0.044
849	-0.043
849	-0.043
850	-0.042
850	-0.042
851	-0.042
851	-0.041
851	-0.041
852	-0.04
852	-0.04
853	-0.039
853	-0.039
854	-0.038
854	-0.038
854	-0.038
855	-0.038
855	-0.038
856	-0.038
856	-0.038
857	-0.037
857	-0.037
857	-0.036
858	-0.036
858	-0.036
859	-0.036
859	-0.035
860	-0.034
860	-0.033
860	-0.031
861	-0.03
861	-0.03
862	-0.029
862	-0.029
863	-0.029
863	-0.028
863	-0.028
864	-0.028
864	-0.027
865	-0.026
865	-0.026
866	-0.025
866	-0.024
866	-0.023
867	-0.022
867	-0.022
868	-0.021
868	-0.021
869	-0.02
869	-0.02
869	-0.02
870	-0.02
870	-0.02
871	-0.02
871	-0.02
872	-0.02
872	-0.019
872	-0.019
873	-0.019
873	-0.018
874	-0.018
874	-0.018
875	-0.018
875	-0.018
875	-0.018
876	-0.017
876	-0.017
877	-0.018
877	-0.017
878	-0.018
878	-0.018
878	-0.018
879	-0.019
879	-0.019
880	-0.02
880	-0.02
881	-0.02
881	-0.02
881	-0.019
882	-0.018
882	-0.017
883	-0.016
883	-0.014
884	-0.013
884	-0.012
884	-0.01
885	-0.009
885	-0.008
886	-0.008
886	-0.007
887	-0.008
887	-0.008
887	-0.008
888	-0.009
888	-0.009
889	-0.009
889	-0.009
890	-0.009
890	-0.01
890	-0.01
891	-0.011
891	-0.011
892	-0.012
892	-0.012
893	-0.012
893	-0.012
893	-0.012
894	-0.013
894	-0.013
895	-0.014
895	-0.014
895	-0.015
896	-0.015
896	-0.015
897	-0.015
897	-0.015
898	-0.015
898	-0.015
898	-0.015
899	-0.015
899	-0.014
900	-0.014
900	-0.013
901	-0.012
901	-0.011
901	-0.01
902	-0.009
902	-0.008
903	-0.007
903	-0.006
904	-0.005
904	-0.004
904	-0.003
905	-0.003
905	-0.002
906	-0.002
906	-0.002
907	-0.002
907	-0.002
907	-0.002
908	-0.003
908	-0.003
909	-0.003
909	-0.004
910	-0.004
910	-0.005
910	-0.005
911	-0.006
911	-0.006
912	-0.007
912	-0.007
913	-0.007
913	-0.007
913	-0.007
914	-0.008
914	-0.008
915	-0.009
915	-0.009
916	-0.009
916	-0.01
916	-0.01
917	-0.009
917	-0.009
918	-0.009
918	-0.009
918	-0.008
919	-0.007
919	-0.006
920	-0.005
920	-0.004
921	-0.003
921	-0.002
921	-0.002
922	-0.001
922	-0.001
923	-0
923	-0
924	-0
924	-0.001
924	-0.001
925	-0.002
925	-0.003
926	-0.004
926	-0.005
927	-0.006
927	-0.007
927	-0.008
928	-0.008
928	-0.009
929	-0.009
929	-0.009
930	-0.009
930	-0.009
930	-0.009
931	-0.008
931	-0.008
932	-0.007
932	-0.006
933	-0.005
933	-0.005
933	-0.004
934	-0.003
934	-0.003
935	-0.003
935	-0.002
935	-0.002
936	-0.002
936	-0.001
937	-0.001
937	-0.001
938	-0
938	0
938	0
939	0.001
939	0.001
940	0.002
940	0.002
941	0.002
941	0.002
941	0.002
942	0.002
942	0.002
943	0.003
943	0.003
944	0.003
944	0.003
944	0.004
945	0.004
945	0.005
946	0.005
946	0.006
946	0.006
947	0.006
947	0.006
948	0.006
948	0.006
949	0.006
949	0.006
949	0.006
950	0.006
950	0.006
951	0.005
951	0.005
952	0.004
952	0.004
952	0.003
953	0.003
953	0.003
954	0.002
954	0.001
955	0.001
955	0
955	-0
956	0
956	0
957	0
957	0
957	0
958	0
958	0
959	-0
959	-0
960	-0.001
960	-0.001
960	-0.002
961	-0.002
961	-0.002
962	-0.003
962	-0.003
963	-0.003
963	-0.003
963	-0.004
964	-0.004
964	-0.004
965	-0.003
965	-0.003
966	-0.003
966	-0.003
966	-0.002
967	-0.002
967	-0.002
968	-0.001
968	-0.001
968	-0
969	0
969	0.001
970	0.001
970	0.001
971	0.001
971	0.001
971	0.002
972	0.002
972	0.003
973	0.004
973	0.004
974	0.005
974	0.006
974	0.006
975	0.008
975	0.009
976	0.01
976	0.01
976	0.011
977	0.011
977	0.011
978	0.011
978	0.011
979	0.01
979	0.009
979	0.008
980	0.007
980	0.005
981	0.004
981	0.003
982	0.003
982	0.002
982	0.001
983	0.001
983	0
984	-0
984	-0
984	-0
985	-0.001
985	-0.001
986	-0.001
986	-0.001
987	-0.001
987	-0.001
987	-0.001
988	-0.001
988	-0
989	-0
989	0
990	0.001
990	0.001
990	0.002
991	0.003
991	0.004
992	0.004
992	0.004
992	0.004
993	0.004
993	0.004
994	0.003
994	0.003
995	0.002
995	0.001
995	0.001
996	0
996	-0.001
997	-0.001
997	-0.001
997	-0
998	0
998	0.001
999	0.002
999	0.003
1000	0.003
1000	0.004
1000	0.004
1001	0.004
1001	0.004
1002	0.003
1002	0.003
1003	0.002
1003	0.001
1003	-0
1004	-0.001
1004	-0.002
1005	-0.002
1005	-0.003
1005	-0.004
1006	-0.004
1006	-0.004
1007	-0.004
1007	-0.004
1008	-0.004
1008	-0.004
1008	-0.004
1009	-0.004
1009	-0.004
1010	-0.004
1010	-0.004
1010	-0.004
1011	-0.004
1011	-0.003
1012	-0.003
1012	-0.003
1013	-0.003
1013	-0.003
1013	-0.003
1014	-0.003
1014	-0.002
1015	-0.001
1015	-0.001
1016	-0
1016	0.001
1016	0.001
1017	0.002
1017	0.003
1018	0.005
1018	0.006
1018	0.007
1019	0.009
1019	0.01
1020	0.01
1020	0.011
1021	0.011
1021	0.011
1021	0.012
1022	0.012
1022	0.011
1023	0.011
1023	0.011
1023	0.011
1024	0.01
1024	0.01
1025	0.01
1025	0.01
1026	0.009
1026	0.009
1026	0.009
1027	0.009
1027	0.008
1028	0.008
1028	0.008
1028	0.007
1029	0.007
1029	0.007
1030	0.006
1030	0.005
1031	0.005
1031	0.005
1031	0.005
1032	0.004
1032	0.004
1033	0.004
1033	0.004
1033	0.004
1034	0.004
1034	0.003
1035	0.003
1035	0.003
1036	0.002
1036	0.002
1036	0.002
1037	0.002
1037	0.002
1038	0.003
1038	0.003
1039	0.004
1039	0.005
1039	0.006
1040	0.007
1040	0.007
1041	0.008
1041	0.009
1041	0.009
1042	0.009
1042	0.009
1043	0.01
1043	0.01
1044	0.011
1044	0.011
1044	0.012
1045	0.012
1045	0.013
1046	0.014
1046	0.015
1046	0.016
1047	0.017
1047	0.019
1048	0.02
1048	0.021
1049	0.021
1049	0.021
1049	0.022
1050	0.023
1050	0.023
1051	0.023
1051	0.024
1051	0.025
1052	0.026
1052	0.026
1053	0.027
1053	0.028
1053	0.029
1054	0.029
1054	0.03
1055	0.031
1055	0.031
1056	0.03
1056	0.03
1056	0.029
1057	0.028
1057	0.028
1058	0.028
1058	0.027
1058	0.028
1059	0.028
1059	0.028
1060	0.029
1060	0.03
1061	0.031
1061	0.032
1061	0.033
1062	0.033
1062	0.034
1063	0.034
1063	0.035
1063	0.035
1064	0.036
1064	0.038
1065	0.038
1065	0.039
1066	0.04
1066	0.042
1066	0.043
1067	0.045
1067	0.047
1068	0.049
1068	0.05
1068	0.052
1069	0.054
1069	0.055
1070	0.057
1070	0.06
1071	0.063
1071	0.066
1071	0.069
1072	0.072
1072	0.076
1073	0.08
1073	0.084
1073	0.087
1074	0.091
1074	0.094
1075	0.097
1075	0.1
1076	0.103
1076	0.107
1076	0.109
1077	0.113
1077	0.116
1078	0.12
1078	0.124
1078	0.129
1079	0.133
1079	0.137
1080	0.141
1080	0.145
1080	0.148
1081	0.151
1081	0.155
1082	0.159
1082	0.162
1083	0.166
1083	0.17
1083	0.175
1084	0.18
1084	0.186
1085	0.192
1085	0.199
1085	0.207
1086	0.213
1086	0.219
1087	0.226
1087	0.234
1088	0.241
1088	0.248
1088	0.258
1089	0.266
1089	0.277
1090	0.288
1090	0.301
1090	0.315
1091	0.331
1091	0.349
1092	0.366
1092	0.389
1092	0.41
1093	0.431
1093	0.46
1094	0.488
1094	0.52
1095	0.556
1095	0.602
1095	0.661
1096	0.728
1096	0.814
1097	0.929
1097	1.084
1097	1.368
1098	2.355
1098	-0
1099	-0
1099	-0
1100	-0
1100	-0
1100	-0
1101	-0
1101	-0
1102	-0
1102	-0
1102	-0
1103	-0
1103	-0
1104	-0
1104	-0
1104	-0
1105	-0
1105	-0
1106	-0
1106	-0
1107	-0
1107	-0
1107	-0
1108	-0
1108	-0
1109	-0
1109	-0
1109	-0
1110	-0
1110	-0
1111	-0
1111	-0
