Data from 15c-2-5a_Absorbance__504__02305.txt Node

Date: Fri Jan 19 14:00:05 CET 2024
User: Marek
Spectrometer: MAYP115816
Trigger mode: 0
Integration Time (sec): 2.000000E-1
Scans to average: 10
Electric dark correction enabled: true
Nonlinearity correction enabled: true
Boxcar width: 5
XAxis mode: Wavelengths
Number of Pixels in Spectrum: 2068
>>>>>Begin Spectral Data<<<<<
199	-2.282
199	-2.124
200	-1.978
200	-1.856
201	-1.786
201	-1.731
202	-1.657
202	-1.597
203	-1.544
203	-1.498
204	-1.47
204	-1.444
205	-1.424
205	-1.413
205	-1.411
206	-1.405
206	-1.401
207	-1.396
207	-1.391
208	-1.389
208	-1.386
209	-1.384
209	-1.379
210	-1.377
210	-1.375
211	-1.373
211	-1.371
212	-1.372
212	-1.372
213	-1.371
213	-1.368
213	-1.367
214	-1.363
214	-1.362
215	-1.359
215	-1.358
216	-1.354
216	-1.354
217	-1.349
217	-1.347
218	-1.344
218	-1.341
219	-1.337
219	-1.337
220	-1.335
220	-1.335
221	-1.333
221	-1.327
221	-1.322
222	-1.32
222	-1.316
223	-1.311
223	-1.306
224	-1.299
224	-1.292
225	-1.284
225	-1.273
226	-1.262
226	-1.252
227	-1.238
227	-1.224
228	-1.207
228	-1.191
229	-1.171
229	-1.148
229	-1.121
230	-1.092
230	-1.06
231	-1.024
231	-0.985
232	-0.945
232	-0.901
233	-0.853
233	-0.804
234	-0.755
234	-0.704
235	-0.655
235	-0.604
236	-0.556
236	-0.508
236	-0.46
237	-0.414
237	-0.37
238	-0.328
238	-0.289
239	-0.251
239	-0.216
240	-0.183
240	-0.152
241	-0.124
241	-0.097
242	-0.072
242	-0.05
243	-0.029
243	-0.009
243	0.009
244	0.025
244	0.041
245	0.055
245	0.068
246	0.08
246	0.091
247	0.102
247	0.111
248	0.121
248	0.129
249	0.136
249	0.144
250	0.15
250	0.157
250	0.163
251	0.168
251	0.173
252	0.178
252	0.183
253	0.188
253	0.192
254	0.196
254	0.199
255	0.202
255	0.206
256	0.209
256	0.211
257	0.214
257	0.216
258	0.218
258	0.219
258	0.221
259	0.222
259	0.223
260	0.225
260	0.225
261	0.226
261	0.227
262	0.228
262	0.228
263	0.229
263	0.23
264	0.23
264	0.23
265	0.231
265	0.231
265	0.231
266	0.231
266	0.231
267	0.231
267	0.231
268	0.23
268	0.229
269	0.229
269	0.228
270	0.227
270	0.226
271	0.225
271	0.224
272	0.223
272	0.223
272	0.222
273	0.221
273	0.22
274	0.219
274	0.218
275	0.217
275	0.216
276	0.215
276	0.213
277	0.212
277	0.21
278	0.208
278	0.207
278	0.205
279	0.203
279	0.202
280	0.202
280	0.201
281	0.2
281	0.199
282	0.199
282	0.198
283	0.198
283	0.198
284	0.198
284	0.197
285	0.196
285	0.195
285	0.195
286	0.194
286	0.193
287	0.192
287	0.191
288	0.19
288	0.19
289	0.189
289	0.188
290	0.187
290	0.186
291	0.186
291	0.185
292	0.185
292	0.184
292	0.183
293	0.182
293	0.182
294	0.181
294	0.181
295	0.18
295	0.18
296	0.179
296	0.179
297	0.178
297	0.178
298	0.177
298	0.177
298	0.176
299	0.176
299	0.175
300	0.175
300	0.174
301	0.174
301	0.173
302	0.173
302	0.172
303	0.172
303	0.171
304	0.171
304	0.17
305	0.17
305	0.169
305	0.169
306	0.168
306	0.168
307	0.167
307	0.166
308	0.166
308	0.165
309	0.164
309	0.164
310	0.163
310	0.163
311	0.162
311	0.161
311	0.161
312	0.16
312	0.159
313	0.159
313	0.158
314	0.158
314	0.157
315	0.156
315	0.155
316	0.155
316	0.154
317	0.153
317	0.153
318	0.152
318	0.151
318	0.151
319	0.15
319	0.149
320	0.149
320	0.148
321	0.147
321	0.146
322	0.145
322	0.144
323	0.143
323	0.143
324	0.142
324	0.141
324	0.14
325	0.139
325	0.139
326	0.138
326	0.138
327	0.137
327	0.137
328	0.136
328	0.135
329	0.135
329	0.134
330	0.133
330	0.133
330	0.132
331	0.131
331	0.13
332	0.13
332	0.129
333	0.128
333	0.128
334	0.127
334	0.126
335	0.125
335	0.125
336	0.124
336	0.123
336	0.122
337	0.121
337	0.121
338	0.12
338	0.119
339	0.119
339	0.118
340	0.117
340	0.117
341	0.116
341	0.115
342	0.115
342	0.115
342	0.114
343	0.113
343	0.113
344	0.112
344	0.112
345	0.111
345	0.11
346	0.11
346	0.109
347	0.108
347	0.107
348	0.106
348	0.106
348	0.105
349	0.104
349	0.103
350	0.103
350	0.102
351	0.101
351	0.1
352	0.099
352	0.098
353	0.097
353	0.096
354	0.095
354	0.094
354	0.093
355	0.092
355	0.091
356	0.09
356	0.09
357	0.089
357	0.089
358	0.088
358	0.089
359	0.089
359	0.09
360	0.09
360	0.091
360	0.092
361	0.092
361	0.092
362	0.093
362	0.093
363	0.092
363	0.092
364	0.092
364	0.091
365	0.091
365	0.09
366	0.09
366	0.089
366	0.089
367	0.089
367	0.088
368	0.088
368	0.088
369	0.087
369	0.087
370	0.086
370	0.086
371	0.085
371	0.085
372	0.084
372	0.083
372	0.083
373	0.083
373	0.083
374	0.083
374	0.082
375	0.082
375	0.082
376	0.082
376	0.082
377	0.083
377	0.083
378	0.084
378	0.084
378	0.084
379	0.085
379	0.085
380	0.085
380	0.085
381	0.085
381	0.085
382	0.084
382	0.084
383	0.083
383	0.083
383	0.082
384	0.082
384	0.081
385	0.081
385	0.081
386	0.081
386	0.08
387	0.08
387	0.08
388	0.08
388	0.08
389	0.08
389	0.08
389	0.08
390	0.08
390	0.08
391	0.08
391	0.081
392	0.081
392	0.08
393	0.08
393	0.08
394	0.08
394	0.08
394	0.08
395	0.079
395	0.079
396	0.078
396	0.079
397	0.079
397	0.079
398	0.079
398	0.079
399	0.079
399	0.079
400	0.079
400	0.079
400	0.078
401	0.077
401	0.076
402	0.075
402	0.075
403	0.074
403	0.074
404	0.074
404	0.073
405	0.073
405	0.072
405	0.072
406	0.072
406	0.072
407	0.071
407	0.071
408	0.07
408	0.07
409	0.069
409	0.069
410	0.068
410	0.068
411	0.069
411	0.068
411	0.068
412	0.067
412	0.067
413	0.067
413	0.067
414	0.066
414	0.066
415	0.066
415	0.065
416	0.065
416	0.064
416	0.063
417	0.063
417	0.063
418	0.063
418	0.063
419	0.064
419	0.064
420	0.065
420	0.065
421	0.066
421	0.066
421	0.067
422	0.067
422	0.067
423	0.067
423	0.067
424	0.066
424	0.066
425	0.065
425	0.064
426	0.063
426	0.062
427	0.062
427	0.062
427	0.063
428	0.063
428	0.064
429	0.065
429	0.066
430	0.066
430	0.066
431	0.065
431	0.065
432	0.064
432	0.063
432	0.062
433	0.061
433	0.059
434	0.059
434	0.058
435	0.058
435	0.058
436	0.058
436	0.058
437	0.058
437	0.058
437	0.058
438	0.058
438	0.058
439	0.058
439	0.057
440	0.057
440	0.057
441	0.057
441	0.057
442	0.057
442	0.057
442	0.058
443	0.058
443	0.058
444	0.058
444	0.059
445	0.058
445	0.058
446	0.058
446	0.058
447	0.058
447	0.057
447	0.057
448	0.057
448	0.057
449	0.056
449	0.056
450	0.056
450	0.055
451	0.055
451	0.055
452	0.054
452	0.053
452	0.052
453	0.052
453	0.051
454	0.05
454	0.049
455	0.049
455	0.048
456	0.048
456	0.048
457	0.047
457	0.047
458	0.047
458	0.047
458	0.047
459	0.047
459	0.047
460	0.047
460	0.046
461	0.045
461	0.045
462	0.045
462	0.045
463	0.045
463	0.046
463	0.046
464	0.047
464	0.047
465	0.047
465	0.047
466	0.047
466	0.047
467	0.047
467	0.046
467	0.045
468	0.043
468	0.041
469	0.039
469	0.038
470	0.037
470	0.036
471	0.036
471	0.035
472	0.035
472	0.035
472	0.036
473	0.036
473	0.037
474	0.038
474	0.039
475	0.039
475	0.04
476	0.04
476	0.04
477	0.04
477	0.04
477	0.041
478	0.041
478	0.041
479	0.041
479	0.041
480	0.042
480	0.042
481	0.043
481	0.044
482	0.045
482	0.046
482	0.047
483	0.049
483	0.052
484	0.055
484	0.058
485	0.059
485	0.06
486	0.061
486	0.062
487	0.062
487	0.062
487	0.061
488	0.06
488	0.058
489	0.055
489	0.053
490	0.051
490	0.05
491	0.049
491	0.049
492	0.049
492	0.049
492	0.049
493	0.05
493	0.05
494	0.052
494	0.054
495	0.055
495	0.056
496	0.057
496	0.057
496	0.058
497	0.059
497	0.06
498	0.06
498	0.06
499	0.06
499	0.06
500	0.06
500	0.061
501	0.062
501	0.063
501	0.064
502	0.066
502	0.067
503	0.068
503	0.069
504	0.069
504	0.069
505	0.069
505	0.069
506	0.068
506	0.068
506	0.068
507	0.067
507	0.067
508	0.066
508	0.066
509	0.067
509	0.067
510	0.068
510	0.067
511	0.067
511	0.067
511	0.066
512	0.067
512	0.067
513	0.066
513	0.065
514	0.063
514	0.062
515	0.061
515	0.06
515	0.059
516	0.059
516	0.059
517	0.059
517	0.058
518	0.058
518	0.057
519	0.056
519	0.054
520	0.051
520	0.048
520	0.045
521	0.042
521	0.04
522	0.037
522	0.035
523	0.034
523	0.035
524	0.036
524	0.039
524	0.041
525	0.045
525	0.048
526	0.051
526	0.054
527	0.057
527	0.059
528	0.061
528	0.063
529	0.064
529	0.064
529	0.064
530	0.064
530	0.065
531	0.065
531	0.065
532	0.064
532	0.065
533	0.065
533	0.065
533	0.065
534	0.065
534	0.065
535	0.064
535	0.064
536	0.064
536	0.064
537	0.063
537	0.063
538	0.062
538	0.061
538	0.06
539	0.059
539	0.058
540	0.057
540	0.056
541	0.055
541	0.053
542	0.052
542	0.051
542	0.05
543	0.05
543	0.049
544	0.048
544	0.048
545	0.048
545	0.048
546	0.049
546	0.049
547	0.048
547	0.046
547	0.044
548	0.042
548	0.04
549	0.038
549	0.037
550	0.035
550	0.034
551	0.032
551	0.03
551	0.029
552	0.028
552	0.027
553	0.027
553	0.028
554	0.028
554	0.027
555	0.025
555	0.023
556	0.02
556	0.018
556	0.016
557	0.013
557	0.012
558	0.01
558	0.008
559	0.007
559	0.007
560	0.007
560	0.008
560	0.008
561	0.008
561	0.009
562	0.01
562	0.01
563	0.008
563	0.007
564	0.005
564	0.003
564	0.001
565	-0
565	-0
566	-0.001
566	-0.001
567	-0
567	0.002
568	0.004
568	0.006
568	0.009
569	0.011
569	0.014
570	0.016
570	0.017
571	0.018
571	0.02
572	0.02
572	0.021
573	0.021
573	0.022
573	0.021
574	0.021
574	0.021
575	0.021
575	0.023
576	0.025
576	0.025
577	0.024
577	0.023
577	0.022
578	0.022
578	0.022
579	0.023
579	0.025
580	0.024
580	0.022
581	0.019
581	0.017
581	0.016
582	0.015
582	0.015
583	0.017
583	0.017
584	0.015
584	0.011
585	0.009
585	0.009
585	0.009
586	0.009
586	0.009
587	0.008
587	0.005
588	0.002
588	-0.001
589	-0.003
589	-0.004
590	-0.005
590	-0.006
590	-0.005
591	-0.004
591	-0.004
592	-0.004
592	-0.004
593	-0.005
593	-0.004
594	-0.005
594	-0.005
594	-0.006
595	-0.006
595	-0.008
596	-0.01
596	-0.01
597	-0.007
597	-0.005
598	-0.004
598	-0.003
598	-0.002
599	-0.002
599	-0.002
600	-0.003
600	-0.004
601	-0.006
601	-0.007
602	-0.009
602	-0.01
602	-0.012
603	-0.013
603	-0.013
604	-0.012
604	-0.01
605	-0.008
605	-0.005
606	-0.004
606	-0.005
606	-0.005
607	-0.006
607	-0.006
608	-0.006
608	-0.008
609	-0.01
609	-0.011
610	-0.013
610	-0.016
610	-0.017
611	-0.016
611	-0.016
612	-0.015
612	-0.014
613	-0.012
613	-0.011
614	-0.011
614	-0.011
614	-0.011
615	-0.012
615	-0.012
616	-0.013
616	-0.013
617	-0.014
617	-0.015
618	-0.017
618	-0.018
618	-0.019
619	-0.02
619	-0.02
620	-0.018
620	-0.017
621	-0.017
621	-0.017
622	-0.017
622	-0.017
622	-0.017
623	-0.017
623	-0.016
624	-0.015
624	-0.015
625	-0.016
625	-0.017
626	-0.017
626	-0.017
626	-0.016
627	-0.016
627	-0.015
628	-0.015
628	-0.014
629	-0.014
629	-0.014
630	-0.015
630	-0.017
630	-0.017
631	-0.017
631	-0.017
632	-0.018
632	-0.019
633	-0.019
633	-0.019
634	-0.018
634	-0.016
634	-0.014
635	-0.013
635	-0.012
636	-0.011
636	-0.01
637	-0.009
637	-0.008
638	-0.007
638	-0.007
638	-0.006
639	-0.007
639	-0.007
640	-0.007
640	-0.006
641	-0.005
641	-0.004
642	-0.003
642	-0.002
642	-0.001
643	0
643	0.002
644	0.003
644	0.005
645	0.007
645	0.009
646	0.011
646	0.014
646	0.017
647	0.021
647	0.024
648	0.027
648	0.029
649	0.032
649	0.035
650	0.037
650	0.04
650	0.043
651	0.044
651	0.046
652	0.047
652	0.048
653	0.051
653	0.059
653	0.083
654	0.072
654	0.063
655	0.065
655	0.066
656	0.067
656	0.069
657	0.07
657	0.072
657	0.073
658	0.07
658	0.054
659	0.064
659	0.078
660	0.08
660	0.081
661	0.082
661	0.083
661	0.085
662	0.087
662	0.089
663	0.091
663	0.093
664	0.095
664	0.097
665	0.098
665	0.1
665	0.102
666	0.104
666	0.106
667	0.108
667	0.109
668	0.111
668	0.113
669	0.115
669	0.117
669	0.121
670	0.124
670	0.127
671	0.129
671	0.13
672	0.131
672	0.133
672	0.134
673	0.135
673	0.136
674	0.137
674	0.137
675	0.136
675	0.136
676	0.138
676	0.14
676	0.141
677	0.143
677	0.145
678	0.147
678	0.149
679	0.15
679	0.151
680	0.153
680	0.155
680	0.155
681	0.156
681	0.157
682	0.157
682	0.158
683	0.16
683	0.162
684	0.165
684	0.166
684	0.166
685	0.166
685	0.167
686	0.168
686	0.168
687	0.167
687	0.167
687	0.166
688	0.165
688	0.163
689	0.163
689	0.164
690	0.164
690	0.164
691	0.164
691	0.164
691	0.164
692	0.164
692	0.163
693	0.163
693	0.163
694	0.162
694	0.16
695	0.159
695	0.161
695	0.161
696	0.161
696	0.16
697	0.16
697	0.159
698	0.159
698	0.157
698	0.156
699	0.155
699	0.153
700	0.15
700	0.149
701	0.148
701	0.147
702	0.146
702	0.145
702	0.144
703	0.143
703	0.141
704	0.14
704	0.14
705	0.141
705	0.141
705	0.14
706	0.139
706	0.139
707	0.138
707	0.136
708	0.135
708	0.134
709	0.132
709	0.13
709	0.127
710	0.123
710	0.12
711	0.118
711	0.117
712	0.115
712	0.113
713	0.112
713	0.111
713	0.109
714	0.107
714	0.106
715	0.104
715	0.103
716	0.101
716	0.099
716	0.098
717	0.096
717	0.095
718	0.093
718	0.09
719	0.089
719	0.088
720	0.086
720	0.084
720	0.082
721	0.079
721	0.076
722	0.074
722	0.072
723	0.07
723	0.069
723	0.067
724	0.065
724	0.063
725	0.061
725	0.059
726	0.058
726	0.056
727	0.055
727	0.053
727	0.052
728	0.05
728	0.048
729	0.048
729	0.048
730	0.047
730	0.045
730	0.044
731	0.042
731	0.041
732	0.04
732	0.039
733	0.037
733	0.035
734	0.033
734	0.031
734	0.029
735	0.027
735	0.025
736	0.023
736	0.021
737	0.018
737	0.017
737	0.016
738	0.013
738	0.01
739	0.008
739	0.006
740	0.004
740	0.002
741	0.001
741	-0.001
741	-0.003
742	-0.008
742	-0.012
743	-0.015
743	-0.017
744	-0.02
744	-0.022
744	-0.024
745	-0.027
745	-0.029
746	-0.031
746	-0.032
747	-0.032
747	-0.031
748	-0.03
748	-0.03
748	-0.029
749	-0.029
749	-0.029
750	-0.029
750	-0.03
751	-0.03
751	-0.031
751	-0.031
752	-0.033
752	-0.034
753	-0.036
753	-0.037
754	-0.038
754	-0.038
754	-0.038
755	-0.037
755	-0.036
756	-0.035
756	-0.037
757	-0.038
757	-0.038
758	-0.038
758	-0.039
758	-0.039
759	-0.04
759	-0.042
760	-0.045
760	-0.048
761	-0.051
761	-0.052
761	-0.054
762	-0.056
762	-0.057
763	-0.058
763	-0.061
764	-0.064
764	-0.067
764	-0.07
765	-0.072
765	-0.075
766	-0.077
766	-0.077
767	-0.078
767	-0.081
768	-0.085
768	-0.087
768	-0.088
769	-0.089
769	-0.089
770	-0.091
770	-0.092
771	-0.095
771	-0.098
771	-0.1
772	-0.102
772	-0.104
773	-0.106
773	-0.108
774	-0.112
774	-0.115
775	-0.118
775	-0.121
775	-0.125
776	-0.129
776	-0.133
777	-0.136
777	-0.14
778	-0.145
778	-0.15
778	-0.154
779	-0.155
779	-0.152
780	-0.151
780	-0.152
781	-0.151
781	-0.151
781	-0.151
782	-0.15
782	-0.151
783	-0.15
783	-0.148
784	-0.148
784	-0.151
784	-0.152
785	-0.154
785	-0.155
786	-0.156
786	-0.154
787	-0.149
787	-0.145
788	-0.144
788	-0.145
788	-0.147
789	-0.149
789	-0.149
790	-0.146
790	-0.145
791	-0.146
791	-0.148
791	-0.15
792	-0.145
792	-0.135
793	-0.129
793	-0.125
794	-0.123
794	-0.124
794	-0.128
795	-0.13
795	-0.13
796	-0.13
796	-0.132
797	-0.141
797	-0.152
797	-0.158
798	-0.163
798	-0.166
799	-0.167
799	-0.167
800	-0.166
800	-0.168
801	-0.17
801	-0.171
801	-0.171
802	-0.172
802	-0.172
803	-0.173
803	-0.173
804	-0.172
804	-0.167
804	-0.16
805	-0.157
805	-0.154
806	-0.152
806	-0.151
807	-0.15
807	-0.149
807	-0.149
808	-0.149
808	-0.149
809	-0.154
809	-0.16
810	-0.163
810	-0.166
810	-0.169
811	-0.173
811	-0.173
812	-0.17
812	-0.167
813	-0.168
813	-0.169
813	-0.17
814	-0.172
814	-0.172
815	-0.17
815	-0.168
816	-0.166
816	-0.166
817	-0.171
817	-0.174
817	-0.174
818	-0.173
818	-0.169
819	-0.164
819	-0.16
820	-0.162
820	-0.164
820	-0.165
821	-0.165
821	-0.164
822	-0.163
822	-0.163
823	-0.162
823	-0.165
823	-0.168
824	-0.169
824	-0.167
825	-0.163
825	-0.157
826	-0.152
826	-0.148
826	-0.143
827	-0.137
827	-0.131
828	-0.125
828	-0.119
829	-0.114
829	-0.109
829	-0.104
830	-0.102
830	-0.099
831	-0.095
831	-0.093
832	-0.091
832	-0.089
832	-0.087
833	-0.086
833	-0.086
834	-0.085
834	-0.084
835	-0.083
835	-0.083
835	-0.082
836	-0.081
836	-0.08
837	-0.079
837	-0.078
838	-0.077
838	-0.077
839	-0.076
839	-0.075
839	-0.074
840	-0.073
840	-0.072
841	-0.071
841	-0.07
842	-0.069
842	-0.067
842	-0.065
843	-0.063
843	-0.061
844	-0.058
844	-0.056
845	-0.053
845	-0.051
845	-0.049
846	-0.047
846	-0.046
847	-0.045
847	-0.044
848	-0.044
848	-0.044
848	-0.043
849	-0.043
849	-0.043
850	-0.043
850	-0.043
851	-0.043
851	-0.042
851	-0.042
852	-0.042
852	-0.041
853	-0.04
853	-0.04
854	-0.039
854	-0.038
854	-0.038
855	-0.037
855	-0.037
856	-0.037
856	-0.037
857	-0.036
857	-0.036
857	-0.036
858	-0.036
858	-0.036
859	-0.036
859	-0.035
860	-0.034
860	-0.033
860	-0.032
861	-0.031
861	-0.03
862	-0.03
862	-0.029
863	-0.029
863	-0.028
863	-0.027
864	-0.027
864	-0.026
865	-0.025
865	-0.024
866	-0.024
866	-0.023
866	-0.022
867	-0.022
867	-0.021
868	-0.02
868	-0.02
869	-0.02
869	-0.02
869	-0.02
870	-0.02
870	-0.02
871	-0.02
871	-0.02
872	-0.02
872	-0.02
872	-0.02
873	-0.019
873	-0.02
874	-0.02
874	-0.02
875	-0.02
875	-0.02
875	-0.02
876	-0.021
876	-0.021
877	-0.021
877	-0.021
878	-0.022
878	-0.022
878	-0.022
879	-0.023
879	-0.024
880	-0.024
880	-0.024
881	-0.024
881	-0.024
881	-0.023
882	-0.022
882	-0.021
883	-0.019
883	-0.017
884	-0.016
884	-0.014
884	-0.012
885	-0.011
885	-0.01
886	-0.009
886	-0.008
887	-0.008
887	-0.008
887	-0.008
888	-0.009
888	-0.009
889	-0.009
889	-0.01
890	-0.01
890	-0.011
890	-0.011
891	-0.012
891	-0.012
892	-0.013
892	-0.013
893	-0.013
893	-0.013
893	-0.013
894	-0.013
894	-0.013
895	-0.013
895	-0.014
895	-0.014
896	-0.014
896	-0.014
897	-0.014
897	-0.014
898	-0.014
898	-0.014
898	-0.014
899	-0.014
899	-0.014
900	-0.013
900	-0.013
901	-0.012
901	-0.012
901	-0.011
902	-0.01
902	-0.01
903	-0.009
903	-0.008
904	-0.008
904	-0.007
904	-0.006
905	-0.005
905	-0.004
906	-0.004
906	-0.004
907	-0.004
907	-0.004
907	-0.004
908	-0.005
908	-0.005
909	-0.005
909	-0.005
910	-0.006
910	-0.006
910	-0.007
911	-0.007
911	-0.007
912	-0.007
912	-0.007
913	-0.007
913	-0.008
913	-0.008
914	-0.008
914	-0.009
915	-0.009
915	-0.01
916	-0.01
916	-0.01
916	-0.01
917	-0.01
917	-0.01
918	-0.01
918	-0.01
918	-0.01
919	-0.009
919	-0.009
920	-0.008
920	-0.007
921	-0.006
921	-0.005
921	-0.005
922	-0.004
922	-0.004
923	-0.003
923	-0.003
924	-0.003
924	-0.003
924	-0.004
925	-0.005
925	-0.005
926	-0.005
926	-0.006
927	-0.006
927	-0.007
927	-0.007
928	-0.007
928	-0.007
929	-0.007
929	-0.007
930	-0.007
930	-0.007
930	-0.008
931	-0.008
931	-0.008
932	-0.008
932	-0.008
933	-0.008
933	-0.008
933	-0.007
934	-0.007
934	-0.007
935	-0.007
935	-0.006
935	-0.006
936	-0.005
936	-0.004
937	-0.003
937	-0.002
938	-0.001
938	-0.001
938	0
939	0.001
939	0.001
940	0.002
940	0.002
941	0.001
941	0.001
941	0.001
942	0.001
942	0.001
943	0.001
943	0.001
944	0.001
944	0.001
944	0.001
945	0.001
945	0.002
946	0.002
946	0.002
946	0.002
947	0.002
947	0.002
948	0.002
948	0.002
949	0.002
949	0.002
949	0.003
950	0.003
950	0.003
951	0.003
951	0.003
952	0.003
952	0.003
952	0.003
953	0.002
953	0.002
954	0.002
954	0.001
955	0.001
955	0
955	-0
956	-0.001
956	-0.001
957	-0.002
957	-0.002
957	-0.003
958	-0.003
958	-0.004
959	-0.004
959	-0.004
960	-0.005
960	-0.005
960	-0.005
961	-0.005
961	-0.005
962	-0.005
962	-0.005
963	-0.005
963	-0.005
963	-0.005
964	-0.005
964	-0.005
965	-0.005
965	-0.005
966	-0.005
966	-0.004
966	-0.004
967	-0.003
967	-0.003
968	-0.002
968	-0.001
968	-0.001
969	-0
969	0.001
970	0.001
970	0.001
971	0.002
971	0.002
971	0.002
972	0.003
972	0.003
973	0.004
973	0.004
974	0.005
974	0.005
974	0.006
975	0.007
975	0.008
976	0.009
976	0.01
976	0.011
977	0.011
977	0.011
978	0.01
978	0.01
979	0.009
979	0.009
979	0.008
980	0.007
980	0.005
981	0.004
981	0.004
982	0.003
982	0.003
982	0.002
983	0.002
983	0.002
984	0.001
984	0.001
984	0.001
985	0.001
985	0.001
986	0
986	-0
987	-0
987	-0
987	-0
988	-0
988	-0
989	-0
989	-0.001
990	-0.001
990	-0.001
990	-0.001
991	-0.001
991	-0.001
992	-0.001
992	-0.001
992	-0.002
993	-0.002
993	-0.002
994	-0.002
994	-0.003
995	-0.003
995	-0.003
995	-0.003
996	-0.003
996	-0.003
997	-0.003
997	-0.002
997	-0.001
998	0
998	0.001
999	0.003
999	0.003
1000	0.004
1000	0.005
1000	0.005
1001	0.005
1001	0.005
1002	0.004
1002	0.003
1003	0.002
1003	0.001
1003	-0
1004	-0.001
1004	-0.002
1005	-0.003
1005	-0.004
1005	-0.005
1006	-0.006
1006	-0.007
1007	-0.007
1007	-0.008
1008	-0.008
1008	-0.009
1008	-0.009
1009	-0.009
1009	-0.009
1010	-0.009
1010	-0.009
1010	-0.009
1011	-0.009
1011	-0.009
1012	-0.009
1012	-0.009
1013	-0.008
1013	-0.008
1013	-0.008
1014	-0.008
1014	-0.007
1015	-0.007
1015	-0.006
1016	-0.005
1016	-0.004
1016	-0.003
1017	-0.002
1017	-0.001
1018	0.001
1018	0.003
1018	0.004
1019	0.006
1019	0.007
1020	0.008
1020	0.009
1021	0.009
1021	0.01
1021	0.01
1022	0.01
1022	0.01
1023	0.01
1023	0.01
1023	0.01
1024	0.009
1024	0.009
1025	0.009
1025	0.009
1026	0.009
1026	0.009
1026	0.009
1027	0.009
1027	0.009
1028	0.009
1028	0.009
1028	0.009
1029	0.009
1029	0.009
1030	0.008
1030	0.008
1031	0.008
1031	0.007
1031	0.007
1032	0.007
1032	0.006
1033	0.006
1033	0.006
1033	0.006
1034	0.005
1034	0.004
1035	0.004
1035	0.004
1036	0.003
1036	0.003
1036	0.003
1037	0.003
1037	0.003
1038	0.003
1038	0.003
1039	0.004
1039	0.005
1039	0.006
1040	0.006
1040	0.007
1041	0.008
1041	0.008
1041	0.009
1042	0.009
1042	0.009
1043	0.009
1043	0.01
1044	0.01
1044	0.01
1044	0.011
1045	0.011
1045	0.012
1046	0.013
1046	0.014
1046	0.015
1047	0.016
1047	0.018
1048	0.019
1048	0.02
1049	0.02
1049	0.021
1049	0.021
1050	0.022
1050	0.022
1051	0.023
1051	0.024
1051	0.025
1052	0.025
1052	0.026
1053	0.028
1053	0.029
1053	0.03
1054	0.031
1054	0.033
1055	0.034
1055	0.034
1056	0.034
1056	0.034
1056	0.033
1057	0.033
1057	0.033
1058	0.032
1058	0.032
1058	0.032
1059	0.032
1059	0.032
1060	0.032
1060	0.033
1061	0.034
1061	0.035
1061	0.035
1062	0.035
1062	0.035
1063	0.035
1063	0.035
1063	0.035
1064	0.036
1064	0.037
1065	0.037
1065	0.038
1066	0.039
1066	0.04
1066	0.041
1067	0.043
1067	0.044
1068	0.046
1068	0.047
1068	0.048
1069	0.05
1069	0.052
1070	0.054
1070	0.056
1071	0.059
1071	0.062
1071	0.065
1072	0.068
1072	0.071
1073	0.075
1073	0.078
1073	0.082
1074	0.085
1074	0.088
1075	0.09
1075	0.093
1076	0.094
1076	0.098
1076	0.1
1077	0.103
1077	0.107
1078	0.11
1078	0.114
1078	0.118
1079	0.122
1079	0.127
1080	0.131
1080	0.135
1080	0.138
1081	0.142
1081	0.146
1082	0.149
1082	0.152
1083	0.156
1083	0.16
1083	0.165
1084	0.17
1084	0.176
1085	0.182
1085	0.189
1085	0.196
1086	0.202
1086	0.208
1087	0.216
1087	0.224
1088	0.23
1088	0.238
1088	0.247
1089	0.255
1089	0.265
1090	0.276
1090	0.288
1090	0.301
1091	0.315
1091	0.332
1092	0.348
1092	0.368
1092	0.387
1093	0.407
1093	0.434
1094	0.459
1094	0.488
1095	0.522
1095	0.561
1095	0.614
1096	0.672
1096	0.745
1097	0.845
1097	0.967
1097	1.162
1098	1.519
1098	-0
1099	-0
1099	-0
1100	-0
1100	-0
1100	-0
1101	-0
1101	-0
1102	-0
1102	-0
1102	-0
1103	-0
1103	-0
1104	-0
1104	-0
1104	-0
1105	-0
1105	-0
1106	-0
1106	-0
1107	-0
1107	-0
1107	-0
1108	-0
1108	-0
1109	-0
1109	-0
1109	-0
1110	-0
1110	-0
1111	-0
1111	-0
