Data from 15c-2-5a_Absorbance__1037__02838.txt Node

Date: Fri Jan 19 14:17:51 CET 2024
User: Marek
Spectrometer: MAYP115816
Trigger mode: 0
Integration Time (sec): 2.000000E-1
Scans to average: 10
Electric dark correction enabled: true
Nonlinearity correction enabled: true
Boxcar width: 5
XAxis mode: Wavelengths
Number of Pixels in Spectrum: 2068
>>>>>Begin Spectral Data<<<<<
199	-2.296
199	-2.137
200	-1.99
200	-1.869
201	-1.798
201	-1.743
202	-1.669
202	-1.608
203	-1.554
203	-1.508
204	-1.48
204	-1.455
205	-1.434
205	-1.423
205	-1.421
206	-1.415
206	-1.41
207	-1.405
207	-1.401
208	-1.399
208	-1.395
209	-1.393
209	-1.387
210	-1.385
210	-1.384
211	-1.382
211	-1.38
212	-1.381
212	-1.38
213	-1.379
213	-1.377
213	-1.376
214	-1.371
214	-1.37
215	-1.367
215	-1.366
216	-1.362
216	-1.362
217	-1.357
217	-1.355
218	-1.352
218	-1.35
219	-1.346
219	-1.345
220	-1.344
220	-1.344
221	-1.342
221	-1.337
221	-1.331
222	-1.329
222	-1.325
223	-1.319
223	-1.315
224	-1.308
224	-1.3
225	-1.293
225	-1.281
226	-1.27
226	-1.259
227	-1.246
227	-1.232
228	-1.215
228	-1.199
229	-1.178
229	-1.156
229	-1.129
230	-1.1
230	-1.067
231	-1.031
231	-0.992
232	-0.95
232	-0.906
233	-0.858
233	-0.807
234	-0.757
234	-0.706
235	-0.654
235	-0.603
236	-0.552
236	-0.502
236	-0.452
237	-0.404
237	-0.359
238	-0.314
238	-0.272
239	-0.232
239	-0.194
240	-0.158
240	-0.124
241	-0.093
241	-0.063
242	-0.035
242	-0.01
243	0.014
243	0.036
243	0.057
244	0.076
244	0.094
245	0.11
245	0.126
246	0.14
246	0.153
247	0.165
247	0.176
248	0.187
248	0.197
249	0.206
249	0.214
250	0.222
250	0.23
250	0.237
251	0.244
251	0.25
252	0.256
252	0.262
253	0.267
253	0.272
254	0.277
254	0.281
255	0.285
255	0.289
256	0.293
256	0.296
257	0.298
257	0.301
258	0.303
258	0.306
258	0.307
259	0.309
259	0.311
260	0.312
260	0.313
261	0.314
261	0.316
262	0.317
262	0.317
263	0.319
263	0.319
264	0.32
264	0.32
265	0.321
265	0.321
265	0.321
266	0.322
266	0.322
267	0.322
267	0.322
268	0.321
268	0.321
269	0.321
269	0.32
270	0.319
270	0.319
271	0.318
271	0.317
272	0.316
272	0.315
272	0.315
273	0.314
273	0.313
274	0.313
274	0.312
275	0.311
275	0.31
276	0.309
276	0.308
277	0.307
277	0.305
278	0.303
278	0.3
278	0.298
279	0.296
279	0.295
280	0.294
280	0.293
281	0.292
281	0.291
282	0.291
282	0.291
283	0.291
283	0.291
284	0.291
284	0.291
285	0.291
285	0.29
285	0.289
286	0.288
286	0.287
287	0.286
287	0.286
288	0.285
288	0.284
289	0.283
289	0.282
290	0.282
290	0.281
291	0.28
291	0.279
292	0.279
292	0.278
292	0.277
293	0.277
293	0.276
294	0.275
294	0.274
295	0.274
295	0.273
296	0.272
296	0.272
297	0.271
297	0.271
298	0.27
298	0.269
298	0.269
299	0.268
299	0.268
300	0.267
300	0.266
301	0.265
301	0.265
302	0.264
302	0.263
303	0.263
303	0.262
304	0.261
304	0.26
305	0.26
305	0.259
305	0.258
306	0.258
306	0.257
307	0.256
307	0.256
308	0.255
308	0.254
309	0.253
309	0.252
310	0.252
310	0.251
311	0.25
311	0.249
311	0.248
312	0.248
312	0.247
313	0.246
313	0.245
314	0.244
314	0.244
315	0.243
315	0.242
316	0.241
316	0.24
317	0.239
317	0.238
318	0.237
318	0.236
318	0.235
319	0.235
319	0.234
320	0.233
320	0.232
321	0.231
321	0.23
322	0.229
322	0.227
323	0.226
323	0.225
324	0.224
324	0.223
324	0.222
325	0.221
325	0.22
326	0.22
326	0.219
327	0.218
327	0.217
328	0.217
328	0.216
329	0.215
329	0.214
330	0.213
330	0.212
330	0.211
331	0.21
331	0.209
332	0.209
332	0.208
333	0.207
333	0.206
334	0.205
334	0.204
335	0.203
335	0.202
336	0.201
336	0.2
336	0.199
337	0.199
337	0.198
338	0.197
338	0.196
339	0.195
339	0.194
340	0.194
340	0.193
341	0.192
341	0.191
342	0.191
342	0.19
342	0.19
343	0.189
343	0.188
344	0.187
344	0.187
345	0.186
345	0.185
346	0.184
346	0.183
347	0.182
347	0.181
348	0.18
348	0.18
348	0.179
349	0.178
349	0.177
350	0.176
350	0.175
351	0.174
351	0.173
352	0.172
352	0.171
353	0.17
353	0.169
354	0.167
354	0.166
354	0.165
355	0.164
355	0.162
356	0.161
356	0.16
357	0.159
357	0.158
358	0.158
358	0.158
359	0.159
359	0.16
360	0.161
360	0.161
360	0.162
361	0.163
361	0.163
362	0.164
362	0.164
363	0.164
363	0.164
364	0.163
364	0.162
365	0.162
365	0.161
366	0.16
366	0.16
366	0.159
367	0.159
367	0.158
368	0.158
368	0.157
369	0.157
369	0.156
370	0.156
370	0.155
371	0.155
371	0.154
372	0.153
372	0.153
372	0.152
373	0.152
373	0.151
374	0.151
374	0.151
375	0.151
375	0.151
376	0.151
376	0.151
377	0.151
377	0.152
378	0.153
378	0.153
378	0.153
379	0.153
379	0.153
380	0.153
380	0.153
381	0.153
381	0.153
382	0.153
382	0.152
383	0.152
383	0.151
383	0.151
384	0.15
384	0.15
385	0.149
385	0.149
386	0.149
386	0.148
387	0.148
387	0.148
388	0.148
388	0.148
389	0.147
389	0.147
389	0.147
390	0.147
390	0.147
391	0.148
391	0.148
392	0.148
392	0.148
393	0.148
393	0.148
394	0.148
394	0.147
394	0.147
395	0.146
395	0.146
396	0.145
396	0.145
397	0.145
397	0.145
398	0.146
398	0.145
399	0.145
399	0.145
400	0.145
400	0.145
400	0.144
401	0.143
401	0.142
402	0.141
402	0.14
403	0.14
403	0.139
404	0.139
404	0.139
405	0.138
405	0.138
405	0.137
406	0.137
406	0.136
407	0.136
407	0.136
408	0.135
408	0.134
409	0.133
409	0.133
410	0.133
410	0.133
411	0.133
411	0.133
411	0.132
412	0.132
412	0.132
413	0.131
413	0.131
414	0.13
414	0.13
415	0.13
415	0.129
416	0.128
416	0.128
416	0.127
417	0.127
417	0.127
418	0.127
418	0.127
419	0.127
419	0.128
420	0.129
420	0.129
421	0.13
421	0.13
421	0.131
422	0.131
422	0.131
423	0.131
423	0.131
424	0.131
424	0.13
425	0.128
425	0.127
426	0.126
426	0.126
427	0.125
427	0.125
427	0.126
428	0.127
428	0.127
429	0.128
429	0.129
430	0.129
430	0.129
431	0.129
431	0.128
432	0.128
432	0.127
432	0.125
433	0.124
433	0.122
434	0.121
434	0.12
435	0.12
435	0.12
436	0.12
436	0.12
437	0.12
437	0.12
437	0.12
438	0.12
438	0.12
439	0.12
439	0.119
440	0.119
440	0.119
441	0.119
441	0.119
442	0.119
442	0.119
442	0.119
443	0.12
443	0.12
444	0.12
444	0.12
445	0.12
445	0.12
446	0.12
446	0.12
447	0.119
447	0.119
447	0.119
448	0.119
448	0.118
449	0.118
449	0.118
450	0.117
450	0.117
451	0.116
451	0.116
452	0.115
452	0.114
452	0.113
453	0.113
453	0.112
454	0.111
454	0.11
455	0.109
455	0.109
456	0.108
456	0.108
457	0.108
457	0.108
458	0.107
458	0.108
458	0.108
459	0.108
459	0.108
460	0.107
460	0.106
461	0.105
461	0.105
462	0.105
462	0.105
463	0.105
463	0.105
463	0.106
464	0.107
464	0.107
465	0.107
465	0.107
466	0.107
466	0.108
467	0.107
467	0.107
467	0.105
468	0.103
468	0.101
469	0.098
469	0.096
470	0.095
470	0.094
471	0.094
471	0.093
472	0.093
472	0.093
472	0.094
473	0.095
473	0.096
474	0.097
474	0.098
475	0.099
475	0.1
476	0.1
476	0.101
477	0.101
477	0.101
477	0.102
478	0.101
478	0.101
479	0.102
479	0.102
480	0.103
480	0.105
481	0.105
481	0.106
482	0.107
482	0.108
482	0.11
483	0.112
483	0.116
484	0.12
484	0.123
485	0.125
485	0.127
486	0.128
486	0.129
487	0.129
487	0.129
487	0.129
488	0.128
488	0.126
489	0.123
489	0.12
490	0.118
490	0.116
491	0.115
491	0.115
492	0.116
492	0.116
492	0.116
493	0.117
493	0.118
494	0.119
494	0.122
495	0.124
495	0.125
496	0.126
496	0.127
496	0.128
497	0.129
497	0.13
498	0.13
498	0.131
499	0.131
499	0.13
500	0.131
500	0.132
501	0.134
501	0.135
501	0.137
502	0.138
502	0.14
503	0.141
503	0.143
504	0.143
504	0.144
505	0.143
505	0.144
506	0.143
506	0.143
506	0.143
507	0.142
507	0.142
508	0.142
508	0.142
509	0.142
509	0.143
510	0.143
510	0.143
511	0.143
511	0.143
511	0.143
512	0.143
512	0.143
513	0.142
513	0.14
514	0.138
514	0.136
515	0.136
515	0.135
515	0.134
516	0.134
516	0.133
517	0.133
517	0.133
518	0.132
518	0.13
519	0.128
519	0.125
520	0.122
520	0.118
520	0.115
521	0.111
521	0.108
522	0.106
522	0.105
523	0.106
523	0.107
524	0.11
524	0.114
524	0.118
525	0.122
525	0.126
526	0.129
526	0.132
527	0.135
527	0.137
528	0.139
528	0.14
529	0.141
529	0.141
529	0.141
530	0.141
530	0.141
531	0.141
531	0.142
532	0.141
532	0.141
533	0.141
533	0.141
533	0.141
534	0.141
534	0.14
535	0.139
535	0.139
536	0.139
536	0.138
537	0.138
537	0.137
538	0.136
538	0.135
538	0.133
539	0.133
539	0.132
540	0.131
540	0.13
541	0.128
541	0.126
542	0.124
542	0.123
542	0.122
543	0.121
543	0.12
544	0.119
544	0.117
545	0.117
545	0.117
546	0.117
546	0.117
547	0.116
547	0.114
547	0.111
548	0.109
548	0.106
549	0.104
549	0.102
550	0.1
550	0.098
551	0.096
551	0.093
551	0.091
552	0.09
552	0.089
553	0.088
553	0.088
554	0.088
554	0.087
555	0.085
555	0.082
556	0.079
556	0.076
556	0.073
557	0.07
557	0.068
558	0.066
558	0.064
559	0.062
559	0.061
560	0.061
560	0.061
560	0.06
561	0.061
561	0.061
562	0.061
562	0.061
563	0.06
563	0.058
564	0.055
564	0.053
564	0.05
565	0.049
565	0.048
566	0.047
566	0.046
567	0.047
567	0.048
568	0.05
568	0.052
568	0.054
569	0.057
569	0.06
570	0.062
570	0.063
571	0.064
571	0.066
572	0.067
572	0.067
573	0.068
573	0.068
573	0.067
574	0.067
574	0.066
575	0.066
575	0.067
576	0.069
576	0.069
577	0.068
577	0.066
577	0.065
578	0.064
578	0.064
579	0.065
579	0.066
580	0.066
580	0.064
581	0.061
581	0.058
581	0.057
582	0.056
582	0.056
583	0.057
583	0.057
584	0.055
584	0.05
585	0.048
585	0.047
585	0.047
586	0.047
586	0.047
587	0.045
587	0.043
588	0.039
588	0.036
589	0.034
589	0.032
590	0.031
590	0.029
590	0.03
591	0.031
591	0.031
592	0.031
592	0.03
593	0.03
593	0.03
594	0.029
594	0.029
594	0.028
595	0.027
595	0.026
596	0.024
596	0.023
597	0.025
597	0.027
598	0.028
598	0.03
598	0.031
599	0.031
599	0.031
600	0.03
600	0.028
601	0.027
601	0.026
602	0.024
602	0.022
602	0.02
603	0.019
603	0.019
604	0.02
604	0.021
605	0.024
605	0.026
606	0.027
606	0.027
606	0.026
607	0.026
607	0.026
608	0.025
608	0.023
609	0.021
609	0.02
610	0.018
610	0.016
610	0.014
611	0.014
611	0.015
612	0.016
612	0.017
613	0.019
613	0.02
614	0.02
614	0.019
614	0.019
615	0.019
615	0.018
616	0.018
616	0.017
617	0.017
617	0.015
618	0.014
618	0.013
618	0.012
619	0.011
619	0.011
620	0.013
620	0.014
621	0.014
621	0.014
622	0.015
622	0.015
622	0.015
623	0.015
623	0.017
624	0.018
624	0.018
625	0.017
625	0.017
626	0.017
626	0.016
626	0.017
627	0.017
627	0.018
628	0.019
628	0.019
629	0.019
629	0.019
630	0.018
630	0.017
630	0.017
631	0.017
631	0.017
632	0.016
632	0.015
633	0.015
633	0.015
634	0.017
634	0.019
634	0.021
635	0.023
635	0.025
636	0.026
636	0.028
637	0.029
637	0.03
638	0.032
638	0.033
638	0.034
639	0.034
639	0.034
640	0.034
640	0.036
641	0.037
641	0.038
642	0.04
642	0.042
642	0.043
643	0.045
643	0.046
644	0.048
644	0.051
645	0.053
645	0.055
646	0.057
646	0.061
646	0.065
647	0.069
647	0.073
648	0.076
648	0.079
649	0.082
649	0.086
650	0.089
650	0.093
650	0.096
651	0.099
651	0.101
652	0.103
652	0.104
653	0.107
653	0.116
653	0.142
654	0.118
654	0.1
655	0.105
655	0.107
656	0.108
656	0.11
657	0.112
657	0.113
657	0.115
658	0.112
658	0.094
659	0.116
659	0.145
660	0.145
660	0.147
661	0.149
661	0.15
661	0.153
662	0.155
662	0.159
663	0.162
663	0.165
664	0.168
664	0.17
665	0.172
665	0.175
665	0.177
666	0.18
666	0.182
667	0.184
667	0.186
668	0.188
668	0.19
669	0.192
669	0.195
669	0.199
670	0.203
670	0.207
671	0.209
671	0.211
672	0.213
672	0.215
672	0.216
673	0.217
673	0.219
674	0.22
674	0.22
675	0.22
675	0.22
676	0.221
676	0.223
676	0.225
677	0.227
677	0.229
678	0.232
678	0.234
679	0.235
679	0.237
680	0.239
680	0.241
680	0.242
681	0.242
681	0.243
682	0.244
682	0.245
683	0.247
683	0.249
684	0.252
684	0.254
684	0.254
685	0.255
685	0.256
686	0.258
686	0.258
687	0.258
687	0.257
687	0.256
688	0.254
688	0.252
689	0.251
689	0.252
690	0.252
690	0.252
691	0.251
691	0.252
691	0.252
692	0.251
692	0.25
693	0.25
693	0.25
694	0.25
694	0.247
695	0.247
695	0.248
695	0.249
696	0.249
696	0.248
697	0.247
697	0.247
698	0.246
698	0.244
698	0.243
699	0.242
699	0.24
700	0.236
700	0.234
701	0.233
701	0.232
702	0.23
702	0.229
702	0.227
703	0.226
703	0.224
704	0.223
704	0.222
705	0.222
705	0.221
705	0.22
706	0.22
706	0.219
707	0.218
707	0.216
708	0.214
708	0.212
709	0.211
709	0.208
709	0.205
710	0.2
710	0.197
711	0.194
711	0.192
712	0.19
712	0.187
713	0.186
713	0.184
713	0.182
714	0.179
714	0.177
715	0.174
715	0.172
716	0.169
716	0.167
716	0.165
717	0.163
717	0.161
718	0.158
718	0.155
719	0.153
719	0.151
720	0.148
720	0.146
720	0.143
721	0.14
721	0.136
722	0.134
722	0.131
723	0.128
723	0.126
723	0.124
724	0.122
724	0.12
725	0.117
725	0.115
726	0.114
726	0.112
727	0.11
727	0.108
727	0.106
728	0.104
728	0.102
729	0.101
729	0.1
730	0.099
730	0.096
730	0.094
731	0.092
731	0.09
732	0.089
732	0.087
733	0.085
733	0.083
734	0.08
734	0.077
734	0.074
735	0.072
735	0.07
736	0.067
736	0.064
737	0.061
737	0.059
737	0.057
738	0.054
738	0.05
739	0.048
739	0.045
740	0.043
740	0.041
741	0.039
741	0.037
741	0.034
742	0.029
742	0.025
743	0.021
743	0.018
744	0.015
744	0.012
744	0.009
745	0.006
745	0.003
746	0.001
746	-0.001
747	-0.001
747	-0.001
748	-0
748	0
748	0
749	-0
749	-0
750	-0
750	-0.001
751	-0.002
751	-0.002
751	-0.003
752	-0.004
752	-0.005
753	-0.007
753	-0.008
754	-0.009
754	-0.009
754	-0.009
755	-0.008
755	-0.006
756	-0.006
756	-0.008
757	-0.009
757	-0.01
758	-0.01
758	-0.012
758	-0.012
759	-0.014
759	-0.016
760	-0.02
760	-0.023
761	-0.026
761	-0.028
761	-0.029
762	-0.032
762	-0.033
763	-0.035
763	-0.038
764	-0.041
764	-0.044
764	-0.047
765	-0.05
765	-0.053
766	-0.055
766	-0.056
767	-0.057
767	-0.06
768	-0.064
768	-0.067
768	-0.069
769	-0.07
769	-0.071
770	-0.072
770	-0.074
771	-0.077
771	-0.08
771	-0.083
772	-0.086
772	-0.088
773	-0.09
773	-0.093
774	-0.096
774	-0.1
775	-0.104
775	-0.107
775	-0.111
776	-0.115
776	-0.119
777	-0.122
777	-0.126
778	-0.13
778	-0.135
778	-0.139
779	-0.141
779	-0.14
780	-0.14
780	-0.142
781	-0.143
781	-0.145
781	-0.146
782	-0.146
782	-0.148
783	-0.149
783	-0.148
784	-0.148
784	-0.15
784	-0.152
785	-0.153
785	-0.155
786	-0.155
786	-0.153
787	-0.149
787	-0.145
788	-0.144
788	-0.145
788	-0.146
789	-0.149
789	-0.148
790	-0.146
790	-0.145
791	-0.145
791	-0.147
791	-0.15
792	-0.145
792	-0.134
793	-0.128
793	-0.124
794	-0.122
794	-0.124
794	-0.127
795	-0.129
795	-0.129
796	-0.129
796	-0.132
797	-0.14
797	-0.151
797	-0.158
798	-0.163
798	-0.166
799	-0.166
799	-0.166
800	-0.166
800	-0.167
801	-0.17
801	-0.171
801	-0.17
802	-0.171
802	-0.172
803	-0.172
803	-0.172
804	-0.171
804	-0.166
804	-0.16
805	-0.156
805	-0.154
806	-0.152
806	-0.15
807	-0.149
807	-0.149
807	-0.149
808	-0.148
808	-0.149
809	-0.153
809	-0.159
810	-0.163
810	-0.165
810	-0.169
811	-0.172
811	-0.173
812	-0.17
812	-0.167
813	-0.167
813	-0.168
813	-0.17
814	-0.171
814	-0.171
815	-0.169
815	-0.167
816	-0.165
816	-0.166
817	-0.17
817	-0.173
817	-0.174
818	-0.172
818	-0.169
819	-0.163
819	-0.16
820	-0.161
820	-0.163
820	-0.164
821	-0.164
821	-0.163
822	-0.163
822	-0.162
823	-0.162
823	-0.164
823	-0.168
824	-0.169
824	-0.166
825	-0.162
825	-0.156
826	-0.15
826	-0.145
826	-0.14
827	-0.133
827	-0.126
828	-0.119
828	-0.113
829	-0.107
829	-0.101
829	-0.096
830	-0.093
830	-0.09
831	-0.086
831	-0.083
832	-0.081
832	-0.079
832	-0.077
833	-0.076
833	-0.075
834	-0.074
834	-0.073
835	-0.072
835	-0.071
835	-0.07
836	-0.069
836	-0.068
837	-0.067
837	-0.066
838	-0.065
838	-0.064
839	-0.063
839	-0.062
839	-0.061
840	-0.061
840	-0.06
841	-0.059
841	-0.058
842	-0.057
842	-0.055
842	-0.054
843	-0.051
843	-0.049
844	-0.046
844	-0.044
845	-0.042
845	-0.04
845	-0.037
846	-0.036
846	-0.034
847	-0.034
847	-0.033
848	-0.032
848	-0.032
848	-0.032
849	-0.031
849	-0.031
850	-0.031
850	-0.031
851	-0.03
851	-0.03
851	-0.029
852	-0.029
852	-0.028
853	-0.027
853	-0.027
854	-0.026
854	-0.025
854	-0.024
855	-0.024
855	-0.024
856	-0.024
856	-0.024
857	-0.024
857	-0.024
857	-0.024
858	-0.024
858	-0.024
859	-0.024
859	-0.023
860	-0.022
860	-0.021
860	-0.02
861	-0.019
861	-0.017
862	-0.017
862	-0.016
863	-0.015
863	-0.014
863	-0.013
864	-0.013
864	-0.012
865	-0.011
865	-0.01
866	-0.01
866	-0.009
866	-0.008
867	-0.007
867	-0.006
868	-0.005
868	-0.005
869	-0.005
869	-0.005
869	-0.005
870	-0.005
870	-0.005
871	-0.005
871	-0.006
872	-0.006
872	-0.006
872	-0.006
873	-0.006
873	-0.007
874	-0.007
874	-0.007
875	-0.007
875	-0.008
875	-0.008
876	-0.008
876	-0.008
877	-0.008
877	-0.008
878	-0.008
878	-0.008
878	-0.008
879	-0.009
879	-0.009
880	-0.009
880	-0.009
881	-0.01
881	-0.009
881	-0.009
882	-0.008
882	-0.007
883	-0.006
883	-0.004
884	-0.003
884	-0.001
884	0
885	0.002
885	0.003
886	0.004
886	0.005
887	0.005
887	0.005
887	0.005
888	0.005
888	0.005
889	0.005
889	0.005
890	0.004
890	0.004
890	0.003
891	0.002
891	0.002
892	0.001
892	0
893	0
893	-0
893	-0
894	-0.001
894	-0.001
895	-0.002
895	-0.002
895	-0.003
896	-0.003
896	-0.003
897	-0.003
897	-0.003
898	-0.003
898	-0.003
898	-0.003
899	-0.003
899	-0.002
900	-0.002
900	-0.001
901	0
901	0.001
901	0.002
902	0.003
902	0.004
903	0.005
903	0.006
904	0.007
904	0.008
904	0.009
905	0.01
905	0.01
906	0.01
906	0.01
907	0.01
907	0.009
907	0.009
908	0.008
908	0.007
909	0.007
909	0.006
910	0.005
910	0.005
910	0.004
911	0.003
911	0.003
912	0.002
912	0.002
913	0.001
913	0.001
913	0
914	-0
914	-0.001
915	-0.001
915	-0.001
916	-0.001
916	-0.001
916	-0
917	0
917	0.001
918	0.001
918	0.002
918	0.003
919	0.004
919	0.005
920	0.007
920	0.008
921	0.009
921	0.01
921	0.011
922	0.012
922	0.012
923	0.012
923	0.012
924	0.012
924	0.011
924	0.01
925	0.009
925	0.008
926	0.008
926	0.007
927	0.006
927	0.005
927	0.005
928	0.005
928	0.005
929	0.005
929	0.005
930	0.004
930	0.004
930	0.004
931	0.004
931	0.005
932	0.005
932	0.005
933	0.005
933	0.005
933	0.005
934	0.005
934	0.006
935	0.006
935	0.006
935	0.006
936	0.007
936	0.008
937	0.008
937	0.009
938	0.01
938	0.01
938	0.011
939	0.011
939	0.012
940	0.012
940	0.012
941	0.012
941	0.012
941	0.011
942	0.011
942	0.011
943	0.011
943	0.011
944	0.012
944	0.012
944	0.013
945	0.013
945	0.014
946	0.015
946	0.015
946	0.016
947	0.016
947	0.016
948	0.016
948	0.016
949	0.017
949	0.017
949	0.018
950	0.018
950	0.018
951	0.018
951	0.018
952	0.018
952	0.019
952	0.019
953	0.019
953	0.019
954	0.019
954	0.018
955	0.018
955	0.017
955	0.017
956	0.017
956	0.016
957	0.016
957	0.015
957	0.015
958	0.014
958	0.014
959	0.013
959	0.012
960	0.012
960	0.011
960	0.011
961	0.01
961	0.01
962	0.009
962	0.009
963	0.009
963	0.009
963	0.009
964	0.009
964	0.009
965	0.009
965	0.009
966	0.01
966	0.01
966	0.011
967	0.012
967	0.012
968	0.012
968	0.013
968	0.013
969	0.014
969	0.015
970	0.015
970	0.016
971	0.016
971	0.016
971	0.016
972	0.017
972	0.017
973	0.017
973	0.018
974	0.018
974	0.018
974	0.019
975	0.02
975	0.02
976	0.021
976	0.022
976	0.022
977	0.022
977	0.022
978	0.022
978	0.022
979	0.022
979	0.022
979	0.021
980	0.02
980	0.019
981	0.018
981	0.017
982	0.016
982	0.016
982	0.015
983	0.014
983	0.013
984	0.013
984	0.012
984	0.012
985	0.012
985	0.012
986	0.011
986	0.011
987	0.011
987	0.011
987	0.012
988	0.012
988	0.012
989	0.013
989	0.013
990	0.013
990	0.014
990	0.015
991	0.015
991	0.015
992	0.016
992	0.016
992	0.016
993	0.015
993	0.015
994	0.014
994	0.014
995	0.013
995	0.012
995	0.012
996	0.011
996	0.011
997	0.011
997	0.011
997	0.012
998	0.013
998	0.014
999	0.015
999	0.016
1000	0.016
1000	0.017
1000	0.017
1001	0.018
1001	0.018
1002	0.017
1002	0.016
1003	0.015
1003	0.014
1003	0.013
1004	0.012
1004	0.011
1005	0.009
1005	0.008
1005	0.007
1006	0.006
1006	0.005
1007	0.005
1007	0.005
1008	0.004
1008	0.004
1008	0.004
1009	0.004
1009	0.004
1010	0.004
1010	0.005
1010	0.005
1011	0.005
1011	0.005
1012	0.006
1012	0.006
1013	0.006
1013	0.006
1013	0.007
1014	0.007
1014	0.008
1015	0.008
1015	0.009
1016	0.01
1016	0.011
1016	0.012
1017	0.012
1017	0.014
1018	0.015
1018	0.017
1018	0.018
1019	0.019
1019	0.021
1020	0.021
1020	0.022
1021	0.023
1021	0.023
1021	0.024
1022	0.024
1022	0.024
1023	0.024
1023	0.024
1023	0.023
1024	0.023
1024	0.023
1025	0.023
1025	0.023
1026	0.022
1026	0.022
1026	0.022
1027	0.022
1027	0.022
1028	0.022
1028	0.022
1028	0.022
1029	0.022
1029	0.021
1030	0.021
1030	0.021
1031	0.02
1031	0.02
1031	0.02
1032	0.02
1032	0.019
1033	0.019
1033	0.019
1033	0.019
1034	0.019
1034	0.018
1035	0.018
1035	0.018
1036	0.017
1036	0.017
1036	0.017
1037	0.017
1037	0.018
1038	0.018
1038	0.019
1039	0.02
1039	0.021
1039	0.022
1040	0.023
1040	0.023
1041	0.024
1041	0.024
1041	0.025
1042	0.025
1042	0.025
1043	0.025
1043	0.026
1044	0.026
1044	0.027
1044	0.027
1045	0.028
1045	0.029
1046	0.03
1046	0.031
1046	0.033
1047	0.035
1047	0.036
1048	0.038
1048	0.039
1049	0.039
1049	0.04
1049	0.041
1050	0.041
1050	0.042
1051	0.042
1051	0.043
1051	0.044
1052	0.044
1052	0.045
1053	0.046
1053	0.047
1053	0.047
1054	0.048
1054	0.049
1055	0.049
1055	0.049
1056	0.048
1056	0.048
1056	0.047
1057	0.047
1057	0.047
1058	0.047
1058	0.047
1058	0.048
1059	0.048
1059	0.048
1060	0.049
1060	0.05
1061	0.051
1061	0.052
1061	0.053
1062	0.053
1062	0.054
1063	0.054
1063	0.054
1063	0.055
1064	0.056
1064	0.057
1065	0.059
1065	0.059
1066	0.06
1066	0.062
1066	0.063
1067	0.065
1067	0.067
1068	0.068
1068	0.07
1068	0.071
1069	0.073
1069	0.075
1070	0.077
1070	0.08
1071	0.083
1071	0.086
1071	0.089
1072	0.093
1072	0.097
1073	0.101
1073	0.105
1073	0.109
1074	0.113
1074	0.116
1075	0.12
1075	0.123
1076	0.125
1076	0.129
1076	0.131
1077	0.135
1077	0.139
1078	0.142
1078	0.147
1078	0.151
1079	0.156
1079	0.16
1080	0.165
1080	0.17
1080	0.173
1081	0.177
1081	0.182
1082	0.186
1082	0.19
1083	0.194
1083	0.198
1083	0.203
1084	0.209
1084	0.215
1085	0.222
1085	0.23
1085	0.237
1086	0.244
1086	0.249
1087	0.258
1087	0.267
1088	0.274
1088	0.283
1088	0.293
1089	0.302
1089	0.313
1090	0.325
1090	0.339
1090	0.354
1091	0.372
1091	0.392
1092	0.412
1092	0.436
1092	0.461
1093	0.487
1093	0.522
1094	0.559
1094	0.598
1095	0.643
1095	0.701
1095	0.777
1096	0.865
1096	0.991
1097	1.196
1097	1.57
1097	-0
1098	-0
1098	-0
1099	-0
1099	-0
1100	-0
1100	-0
1100	-0
1101	-0
1101	-0
1102	-0
1102	-0
1102	-0
1103	-0
1103	-0
1104	-0
1104	-0
1104	-0
1105	-0
1105	-0
1106	-0
1106	-0
1107	-0
1107	-0
1107	-0
1108	-0
1108	-0
1109	-0
1109	-0
1109	-0
1110	-0
1110	-0
1111	-0
1111	-0
