Data from 15c-2-5a_Absorbance__815__02616.txt Node

Date: Fri Jan 19 14:10:27 CET 2024
User: Marek
Spectrometer: MAYP115816
Trigger mode: 0
Integration Time (sec): 2.000000E-1
Scans to average: 10
Electric dark correction enabled: true
Nonlinearity correction enabled: true
Boxcar width: 5
XAxis mode: Wavelengths
Number of Pixels in Spectrum: 2068
>>>>>Begin Spectral Data<<<<<
199	-2.295
199	-2.137
200	-1.99
200	-1.869
201	-1.798
201	-1.743
202	-1.669
202	-1.608
203	-1.554
203	-1.508
204	-1.48
204	-1.455
205	-1.435
205	-1.423
205	-1.421
206	-1.415
206	-1.411
207	-1.406
207	-1.401
208	-1.399
208	-1.396
209	-1.394
209	-1.389
210	-1.386
210	-1.384
211	-1.383
211	-1.381
212	-1.382
212	-1.381
213	-1.381
213	-1.378
213	-1.377
214	-1.372
214	-1.371
215	-1.368
215	-1.367
216	-1.363
216	-1.363
217	-1.358
217	-1.356
218	-1.353
218	-1.35
219	-1.347
219	-1.347
220	-1.345
220	-1.345
221	-1.343
221	-1.337
221	-1.332
222	-1.33
222	-1.326
223	-1.32
223	-1.316
224	-1.308
224	-1.301
225	-1.294
225	-1.281
226	-1.27
226	-1.26
227	-1.247
227	-1.232
228	-1.216
228	-1.2
229	-1.179
229	-1.157
229	-1.13
230	-1.101
230	-1.069
231	-1.033
231	-0.993
232	-0.952
232	-0.908
233	-0.86
233	-0.81
234	-0.759
234	-0.709
235	-0.658
235	-0.607
236	-0.557
236	-0.507
236	-0.459
237	-0.411
237	-0.366
238	-0.322
238	-0.281
239	-0.242
239	-0.205
240	-0.17
240	-0.137
241	-0.106
241	-0.077
242	-0.05
242	-0.025
243	-0.002
243	0.019
243	0.039
244	0.057
244	0.074
245	0.09
245	0.105
246	0.118
246	0.131
247	0.142
247	0.153
248	0.163
248	0.172
249	0.181
249	0.189
250	0.197
250	0.204
250	0.211
251	0.217
251	0.223
252	0.229
252	0.234
253	0.239
253	0.244
254	0.248
254	0.253
255	0.256
255	0.26
256	0.263
256	0.266
257	0.269
257	0.271
258	0.273
258	0.275
258	0.277
259	0.279
259	0.28
260	0.281
260	0.282
261	0.283
261	0.284
262	0.285
262	0.286
263	0.287
263	0.287
264	0.288
264	0.288
265	0.289
265	0.289
265	0.289
266	0.29
266	0.289
267	0.289
267	0.289
268	0.289
268	0.288
269	0.288
269	0.287
270	0.287
270	0.286
271	0.285
271	0.284
272	0.283
272	0.282
272	0.282
273	0.281
273	0.28
274	0.279
274	0.278
275	0.277
275	0.277
276	0.276
276	0.275
277	0.273
277	0.272
278	0.27
278	0.267
278	0.265
279	0.263
279	0.262
280	0.261
280	0.26
281	0.259
281	0.258
282	0.258
282	0.257
283	0.257
283	0.257
284	0.258
284	0.257
285	0.257
285	0.256
285	0.255
286	0.254
286	0.253
287	0.252
287	0.251
288	0.25
288	0.25
289	0.249
289	0.248
290	0.247
290	0.247
291	0.246
291	0.245
292	0.244
292	0.244
292	0.243
293	0.242
293	0.242
294	0.241
294	0.24
295	0.24
295	0.239
296	0.238
296	0.238
297	0.237
297	0.237
298	0.236
298	0.235
298	0.235
299	0.234
299	0.234
300	0.233
300	0.233
301	0.232
301	0.231
302	0.231
302	0.23
303	0.23
303	0.229
304	0.228
304	0.228
305	0.227
305	0.226
305	0.226
306	0.225
306	0.224
307	0.224
307	0.223
308	0.222
308	0.221
309	0.221
309	0.22
310	0.219
310	0.218
311	0.218
311	0.217
311	0.216
312	0.216
312	0.215
313	0.214
313	0.213
314	0.212
314	0.212
315	0.211
315	0.21
316	0.209
316	0.208
317	0.207
317	0.206
318	0.205
318	0.205
318	0.204
319	0.203
319	0.202
320	0.201
320	0.2
321	0.199
321	0.198
322	0.198
322	0.196
323	0.196
323	0.195
324	0.194
324	0.193
324	0.192
325	0.191
325	0.19
326	0.189
326	0.189
327	0.188
327	0.187
328	0.186
328	0.185
329	0.185
329	0.184
330	0.183
330	0.182
330	0.181
331	0.181
331	0.18
332	0.179
332	0.178
333	0.177
333	0.176
334	0.175
334	0.174
335	0.174
335	0.173
336	0.172
336	0.171
336	0.17
337	0.17
337	0.169
338	0.168
338	0.167
339	0.167
339	0.166
340	0.165
340	0.164
341	0.164
341	0.163
342	0.163
342	0.162
342	0.161
343	0.16
343	0.16
344	0.159
344	0.158
345	0.158
345	0.157
346	0.156
346	0.156
347	0.155
347	0.154
348	0.153
348	0.152
348	0.152
349	0.15
349	0.149
350	0.148
350	0.147
351	0.146
351	0.145
352	0.144
352	0.143
353	0.142
353	0.141
354	0.14
354	0.139
354	0.138
355	0.136
355	0.135
356	0.134
356	0.133
357	0.132
357	0.132
358	0.132
358	0.132
359	0.133
359	0.133
360	0.134
360	0.135
360	0.136
361	0.136
361	0.136
362	0.137
362	0.137
363	0.137
363	0.136
364	0.136
364	0.135
365	0.134
365	0.134
366	0.133
366	0.133
366	0.133
367	0.132
367	0.132
368	0.131
368	0.131
369	0.13
369	0.13
370	0.13
370	0.129
371	0.128
371	0.128
372	0.127
372	0.126
372	0.126
373	0.126
373	0.125
374	0.125
374	0.125
375	0.125
375	0.125
376	0.125
376	0.125
377	0.126
377	0.126
378	0.126
378	0.127
378	0.127
379	0.127
379	0.127
380	0.127
380	0.127
381	0.127
381	0.127
382	0.126
382	0.126
383	0.125
383	0.125
383	0.125
384	0.124
384	0.124
385	0.123
385	0.123
386	0.122
386	0.122
387	0.122
387	0.122
388	0.122
388	0.121
389	0.121
389	0.121
389	0.121
390	0.121
390	0.121
391	0.121
391	0.122
392	0.122
392	0.122
393	0.122
393	0.122
394	0.122
394	0.122
394	0.121
395	0.121
395	0.12
396	0.12
396	0.12
397	0.12
397	0.12
398	0.12
398	0.12
399	0.12
399	0.12
400	0.12
400	0.119
400	0.119
401	0.118
401	0.117
402	0.116
402	0.115
403	0.114
403	0.114
404	0.114
404	0.114
405	0.113
405	0.113
405	0.112
406	0.112
406	0.111
407	0.111
407	0.111
408	0.11
408	0.109
409	0.108
409	0.108
410	0.107
410	0.107
411	0.107
411	0.107
411	0.107
412	0.107
412	0.106
413	0.106
413	0.105
414	0.105
414	0.105
415	0.104
415	0.104
416	0.103
416	0.102
416	0.102
417	0.101
417	0.101
418	0.101
418	0.101
419	0.102
419	0.102
420	0.103
420	0.104
421	0.104
421	0.105
421	0.105
422	0.106
422	0.106
423	0.106
423	0.106
424	0.105
424	0.104
425	0.103
425	0.101
426	0.101
426	0.1
427	0.1
427	0.1
427	0.1
428	0.101
428	0.102
429	0.103
429	0.103
430	0.104
430	0.104
431	0.103
431	0.103
432	0.102
432	0.101
432	0.1
433	0.099
433	0.097
434	0.096
434	0.095
435	0.095
435	0.095
436	0.095
436	0.095
437	0.096
437	0.096
437	0.096
438	0.095
438	0.095
439	0.095
439	0.094
440	0.094
440	0.094
441	0.094
441	0.094
442	0.094
442	0.094
442	0.095
443	0.095
443	0.096
444	0.096
444	0.096
445	0.096
445	0.096
446	0.095
446	0.095
447	0.095
447	0.094
447	0.094
448	0.094
448	0.093
449	0.093
449	0.093
450	0.093
450	0.092
451	0.092
451	0.091
452	0.09
452	0.09
452	0.089
453	0.088
453	0.087
454	0.086
454	0.086
455	0.085
455	0.085
456	0.084
456	0.084
457	0.084
457	0.083
458	0.083
458	0.083
458	0.083
459	0.084
459	0.084
460	0.083
460	0.082
461	0.081
461	0.081
462	0.08
462	0.081
463	0.081
463	0.081
463	0.082
464	0.083
464	0.083
465	0.083
465	0.083
466	0.083
466	0.083
467	0.083
467	0.083
467	0.081
468	0.08
468	0.077
469	0.075
469	0.073
470	0.072
470	0.071
471	0.071
471	0.07
472	0.07
472	0.07
472	0.07
473	0.071
473	0.073
474	0.074
474	0.075
475	0.075
475	0.076
476	0.076
476	0.076
477	0.077
477	0.077
477	0.077
478	0.077
478	0.077
479	0.077
479	0.078
480	0.079
480	0.08
481	0.081
481	0.081
482	0.082
482	0.083
482	0.085
483	0.087
483	0.09
484	0.094
484	0.097
485	0.099
485	0.101
486	0.102
486	0.103
487	0.103
487	0.103
487	0.103
488	0.102
488	0.1
489	0.097
489	0.094
490	0.092
490	0.091
491	0.09
491	0.089
492	0.089
492	0.089
492	0.09
493	0.09
493	0.091
494	0.093
494	0.095
495	0.097
495	0.098
496	0.099
496	0.1
496	0.101
497	0.101
497	0.102
498	0.103
498	0.103
499	0.103
499	0.103
500	0.103
500	0.104
501	0.106
501	0.107
501	0.109
502	0.11
502	0.112
503	0.113
503	0.114
504	0.115
504	0.115
505	0.115
505	0.115
506	0.114
506	0.115
506	0.114
507	0.113
507	0.113
508	0.113
508	0.113
509	0.113
509	0.114
510	0.114
510	0.114
511	0.113
511	0.113
511	0.113
512	0.114
512	0.114
513	0.112
513	0.111
514	0.109
514	0.107
515	0.106
515	0.105
515	0.105
516	0.104
516	0.104
517	0.104
517	0.104
518	0.103
518	0.102
519	0.1
519	0.097
520	0.094
520	0.09
520	0.087
521	0.083
521	0.08
522	0.078
522	0.076
523	0.076
523	0.077
524	0.08
524	0.083
524	0.087
525	0.091
525	0.095
526	0.098
526	0.102
527	0.105
527	0.107
528	0.109
528	0.11
529	0.111
529	0.112
529	0.112
530	0.112
530	0.112
531	0.112
531	0.112
532	0.111
532	0.111
533	0.111
533	0.111
533	0.111
534	0.111
534	0.111
535	0.11
535	0.11
536	0.11
536	0.109
537	0.109
537	0.108
538	0.108
538	0.107
538	0.105
539	0.104
539	0.104
540	0.103
540	0.102
541	0.1
541	0.098
542	0.096
542	0.095
542	0.094
543	0.093
543	0.092
544	0.091
544	0.09
545	0.089
545	0.089
546	0.089
546	0.089
547	0.088
547	0.086
547	0.084
548	0.081
548	0.079
549	0.077
549	0.075
550	0.074
550	0.072
551	0.07
551	0.068
551	0.066
552	0.065
552	0.064
553	0.064
553	0.064
554	0.063
554	0.063
555	0.061
555	0.058
556	0.055
556	0.052
556	0.049
557	0.047
557	0.044
558	0.042
558	0.041
559	0.039
559	0.039
560	0.039
560	0.038
560	0.038
561	0.039
561	0.04
562	0.04
562	0.04
563	0.038
563	0.036
564	0.034
564	0.032
564	0.029
565	0.028
565	0.027
566	0.026
566	0.026
567	0.026
567	0.028
568	0.03
568	0.032
568	0.034
569	0.037
569	0.04
570	0.042
570	0.043
571	0.044
571	0.045
572	0.046
572	0.047
573	0.047
573	0.048
573	0.047
574	0.047
574	0.046
575	0.046
575	0.048
576	0.049
576	0.049
577	0.048
577	0.047
577	0.046
578	0.045
578	0.045
579	0.046
579	0.047
580	0.047
580	0.045
581	0.043
581	0.04
581	0.039
582	0.038
582	0.038
583	0.039
583	0.039
584	0.037
584	0.033
585	0.031
585	0.03
585	0.03
586	0.03
586	0.029
587	0.028
587	0.026
588	0.022
588	0.019
589	0.017
589	0.016
590	0.015
590	0.014
590	0.014
591	0.015
591	0.015
592	0.015
592	0.014
593	0.014
593	0.014
594	0.014
594	0.013
594	0.012
595	0.012
595	0.01
596	0.008
596	0.008
597	0.009
597	0.011
598	0.012
598	0.014
598	0.015
599	0.015
599	0.015
600	0.014
600	0.012
601	0.011
601	0.01
602	0.008
602	0.007
602	0.005
603	0.004
603	0.004
604	0.005
604	0.007
605	0.009
605	0.011
606	0.012
606	0.012
606	0.012
607	0.011
607	0.011
608	0.01
608	0.009
609	0.007
609	0.005
610	0.003
610	0.001
610	-0.001
611	-0.001
611	-0
612	0
612	0.002
613	0.003
613	0.004
614	0.004
614	0.004
614	0.004
615	0.004
615	0.003
616	0.003
616	0.003
617	0.002
617	0.001
618	-0.001
618	-0.002
618	-0.003
619	-0.003
619	-0.003
620	-0.002
620	-0.001
621	-0.001
621	-0
622	-0
622	0
622	0
623	-0
623	0.001
624	0.002
624	0.002
625	0.001
625	0.001
626	0
626	0
626	0.001
627	0.001
627	0.002
628	0.002
628	0.003
629	0.003
629	0.003
630	0.002
630	0.001
630	0.001
631	0.001
631	0.001
632	-0
632	-0.001
633	-0.001
633	-0.001
634	0
634	0.002
634	0.004
635	0.006
635	0.008
636	0.009
636	0.01
637	0.012
637	0.013
638	0.014
638	0.015
638	0.016
639	0.016
639	0.015
640	0.016
640	0.017
641	0.018
641	0.019
642	0.021
642	0.022
642	0.024
643	0.025
643	0.027
644	0.029
644	0.031
645	0.033
645	0.035
646	0.038
646	0.041
646	0.044
647	0.048
647	0.052
648	0.055
648	0.058
649	0.061
649	0.064
650	0.067
650	0.07
650	0.073
651	0.075
651	0.077
652	0.079
652	0.08
653	0.083
653	0.091
653	0.115
654	0.097
654	0.083
655	0.088
655	0.09
656	0.091
656	0.093
657	0.095
657	0.096
657	0.097
658	0.095
658	0.079
659	0.096
659	0.118
660	0.118
660	0.12
661	0.121
661	0.122
661	0.124
662	0.127
662	0.129
663	0.132
663	0.135
664	0.137
664	0.139
665	0.141
665	0.144
665	0.146
666	0.148
666	0.151
667	0.152
667	0.154
668	0.156
668	0.158
669	0.16
669	0.163
669	0.166
670	0.17
670	0.173
671	0.175
671	0.177
672	0.179
672	0.18
672	0.181
673	0.183
673	0.184
674	0.185
674	0.186
675	0.186
675	0.186
676	0.187
676	0.189
676	0.19
677	0.192
677	0.195
678	0.197
678	0.199
679	0.2
679	0.201
680	0.203
680	0.205
680	0.205
681	0.205
681	0.206
682	0.207
682	0.208
683	0.21
683	0.212
684	0.215
684	0.216
684	0.217
685	0.217
685	0.219
686	0.22
686	0.221
687	0.221
687	0.22
687	0.219
688	0.218
688	0.216
689	0.215
689	0.216
690	0.216
690	0.216
691	0.216
691	0.216
691	0.216
692	0.216
692	0.215
693	0.214
693	0.214
694	0.214
694	0.211
695	0.211
695	0.212
695	0.213
696	0.213
696	0.212
697	0.212
697	0.211
698	0.21
698	0.209
698	0.207
699	0.207
699	0.205
700	0.202
700	0.199
701	0.198
701	0.197
702	0.195
702	0.194
702	0.193
703	0.191
703	0.19
704	0.188
704	0.188
705	0.187
705	0.187
705	0.187
706	0.186
706	0.185
707	0.184
707	0.183
708	0.181
708	0.18
709	0.178
709	0.176
709	0.173
710	0.169
710	0.166
711	0.163
711	0.161
712	0.159
712	0.157
713	0.155
713	0.153
713	0.151
714	0.149
714	0.146
715	0.144
715	0.142
716	0.14
716	0.138
716	0.136
717	0.134
717	0.132
718	0.13
718	0.127
719	0.126
719	0.124
720	0.122
720	0.12
720	0.117
721	0.114
721	0.111
722	0.108
722	0.105
723	0.103
723	0.101
723	0.099
724	0.097
724	0.095
725	0.092
725	0.09
726	0.089
726	0.087
727	0.085
727	0.083
727	0.082
728	0.079
728	0.077
729	0.077
729	0.076
730	0.075
730	0.073
730	0.071
731	0.069
731	0.067
732	0.066
732	0.065
733	0.062
733	0.06
734	0.058
734	0.055
734	0.053
735	0.051
735	0.049
736	0.046
736	0.043
737	0.041
737	0.039
737	0.037
738	0.034
738	0.031
739	0.028
739	0.026
740	0.023
740	0.022
741	0.02
741	0.018
741	0.015
742	0.01
742	0.006
743	0.003
743	-0
744	-0.003
744	-0.005
744	-0.008
745	-0.01
745	-0.013
746	-0.015
746	-0.016
747	-0.016
747	-0.015
748	-0.015
748	-0.014
748	-0.014
749	-0.014
749	-0.014
750	-0.015
750	-0.016
751	-0.017
751	-0.017
751	-0.018
752	-0.019
752	-0.021
753	-0.022
753	-0.024
754	-0.024
754	-0.025
754	-0.024
755	-0.023
755	-0.022
756	-0.021
756	-0.023
757	-0.024
757	-0.024
758	-0.025
758	-0.026
758	-0.027
759	-0.028
759	-0.03
760	-0.034
760	-0.037
761	-0.04
761	-0.042
761	-0.044
762	-0.046
762	-0.048
763	-0.049
763	-0.052
764	-0.055
764	-0.058
764	-0.06
765	-0.063
765	-0.066
766	-0.067
766	-0.068
767	-0.069
767	-0.072
768	-0.075
768	-0.078
768	-0.08
769	-0.081
769	-0.082
770	-0.083
770	-0.085
771	-0.088
771	-0.091
771	-0.094
772	-0.097
772	-0.098
773	-0.1
773	-0.103
774	-0.106
774	-0.11
775	-0.113
775	-0.115
775	-0.119
776	-0.123
776	-0.126
777	-0.13
777	-0.134
778	-0.138
778	-0.143
778	-0.148
779	-0.149
779	-0.147
780	-0.147
780	-0.148
781	-0.148
781	-0.149
781	-0.149
782	-0.149
782	-0.15
783	-0.15
783	-0.148
784	-0.148
784	-0.15
784	-0.152
785	-0.153
785	-0.155
786	-0.155
786	-0.153
787	-0.149
787	-0.145
788	-0.144
788	-0.145
788	-0.146
789	-0.149
789	-0.149
790	-0.146
790	-0.145
791	-0.145
791	-0.147
791	-0.15
792	-0.145
792	-0.134
793	-0.128
793	-0.124
794	-0.122
794	-0.124
794	-0.127
795	-0.129
795	-0.129
796	-0.129
796	-0.132
797	-0.14
797	-0.151
797	-0.158
798	-0.163
798	-0.166
799	-0.167
799	-0.166
800	-0.166
800	-0.167
801	-0.17
801	-0.171
801	-0.17
802	-0.171
802	-0.172
803	-0.172
803	-0.173
804	-0.171
804	-0.166
804	-0.16
805	-0.156
805	-0.154
806	-0.152
806	-0.15
807	-0.149
807	-0.149
807	-0.149
808	-0.148
808	-0.149
809	-0.154
809	-0.159
810	-0.163
810	-0.165
810	-0.169
811	-0.172
811	-0.173
812	-0.17
812	-0.167
813	-0.167
813	-0.168
813	-0.17
814	-0.171
814	-0.171
815	-0.169
815	-0.167
816	-0.165
816	-0.166
817	-0.17
817	-0.173
817	-0.174
818	-0.173
818	-0.169
819	-0.163
819	-0.16
820	-0.161
820	-0.163
820	-0.165
821	-0.164
821	-0.163
822	-0.163
822	-0.162
823	-0.162
823	-0.164
823	-0.168
824	-0.169
824	-0.167
825	-0.162
825	-0.157
826	-0.151
826	-0.147
826	-0.142
827	-0.136
827	-0.13
828	-0.124
828	-0.118
829	-0.112
829	-0.107
829	-0.103
830	-0.1
830	-0.097
831	-0.094
831	-0.091
832	-0.089
832	-0.087
832	-0.086
833	-0.084
833	-0.084
834	-0.083
834	-0.082
835	-0.081
835	-0.08
835	-0.079
836	-0.078
836	-0.077
837	-0.076
837	-0.075
838	-0.074
838	-0.073
839	-0.072
839	-0.072
839	-0.071
840	-0.07
840	-0.069
841	-0.067
841	-0.066
842	-0.065
842	-0.063
842	-0.061
843	-0.059
843	-0.057
844	-0.054
844	-0.052
845	-0.05
845	-0.048
845	-0.046
846	-0.044
846	-0.043
847	-0.042
847	-0.041
848	-0.041
848	-0.04
848	-0.04
849	-0.04
849	-0.039
850	-0.038
850	-0.038
851	-0.038
851	-0.037
851	-0.037
852	-0.037
852	-0.036
853	-0.036
853	-0.035
854	-0.035
854	-0.034
854	-0.034
855	-0.034
855	-0.034
856	-0.035
856	-0.034
857	-0.034
857	-0.034
857	-0.034
858	-0.033
858	-0.033
859	-0.033
859	-0.032
860	-0.031
860	-0.03
860	-0.029
861	-0.028
861	-0.027
862	-0.027
862	-0.027
863	-0.027
863	-0.026
863	-0.025
864	-0.025
864	-0.024
865	-0.024
865	-0.023
866	-0.022
866	-0.021
866	-0.02
867	-0.019
867	-0.018
868	-0.018
868	-0.017
869	-0.017
869	-0.016
869	-0.017
870	-0.016
870	-0.016
871	-0.016
871	-0.016
872	-0.016
872	-0.016
872	-0.015
873	-0.015
873	-0.015
874	-0.014
874	-0.014
875	-0.014
875	-0.014
875	-0.014
876	-0.014
876	-0.014
877	-0.014
877	-0.014
878	-0.014
878	-0.014
878	-0.015
879	-0.015
879	-0.015
880	-0.016
880	-0.016
881	-0.016
881	-0.015
881	-0.015
882	-0.014
882	-0.013
883	-0.012
883	-0.01
884	-0.009
884	-0.008
884	-0.007
885	-0.006
885	-0.005
886	-0.004
886	-0.004
887	-0.004
887	-0.004
887	-0.004
888	-0.005
888	-0.005
889	-0.005
889	-0.005
890	-0.005
890	-0.005
890	-0.006
891	-0.006
891	-0.007
892	-0.007
892	-0.008
893	-0.008
893	-0.009
893	-0.009
894	-0.009
894	-0.01
895	-0.01
895	-0.011
895	-0.011
896	-0.012
896	-0.011
897	-0.011
897	-0.011
898	-0.011
898	-0.011
898	-0.011
899	-0.011
899	-0.01
900	-0.009
900	-0.009
901	-0.008
901	-0.006
901	-0.005
902	-0.004
902	-0.003
903	-0.002
903	-0.001
904	0
904	0.001
904	0.001
905	0.002
905	0.003
906	0.003
906	0.003
907	0.003
907	0.003
907	0.002
908	0.002
908	0.001
909	0.001
909	0
910	-0
910	-0.001
910	-0.002
911	-0.002
911	-0.003
912	-0.003
912	-0.004
913	-0.004
913	-0.005
913	-0.005
914	-0.006
914	-0.007
915	-0.007
915	-0.008
916	-0.008
916	-0.008
916	-0.008
917	-0.008
917	-0.008
918	-0.007
918	-0.006
918	-0.006
919	-0.005
919	-0.004
920	-0.002
920	-0.001
921	-0
921	0.001
921	0.001
922	0.002
922	0.002
923	0.002
923	0.002
924	0.002
924	0.002
924	0.001
925	0
925	-0.001
926	-0.001
926	-0.002
927	-0.003
927	-0.003
927	-0.004
928	-0.004
928	-0.004
929	-0.004
929	-0.004
930	-0.004
930	-0.004
930	-0.004
931	-0.004
931	-0.003
932	-0.002
932	-0.002
933	-0.001
933	-0.001
933	-0.001
934	-0
934	0
935	0
935	0.001
935	0.001
936	0.001
936	0.001
937	0.002
937	0.002
938	0.003
938	0.003
938	0.004
939	0.004
939	0.005
940	0.005
940	0.006
941	0.006
941	0.006
941	0.006
942	0.006
942	0.006
943	0.006
943	0.006
944	0.007
944	0.007
944	0.007
945	0.008
945	0.009
946	0.009
946	0.01
946	0.01
947	0.01
947	0.01
948	0.011
948	0.01
949	0.011
949	0.011
949	0.011
950	0.011
950	0.011
951	0.011
951	0.01
952	0.01
952	0.009
952	0.009
953	0.009
953	0.008
954	0.007
954	0.007
955	0.006
955	0.006
955	0.005
956	0.005
956	0.005
957	0.005
957	0.005
957	0.004
958	0.004
958	0.004
959	0.003
959	0.003
960	0.002
960	0.002
960	0.001
961	0.001
961	0.001
962	0
962	0
963	0.001
963	0.001
963	0.001
964	0.001
964	0.001
965	0.001
965	0.002
966	0.002
966	0.002
966	0.002
967	0.003
967	0.003
968	0.003
968	0.003
968	0.004
969	0.004
969	0.005
970	0.005
970	0.005
971	0.005
971	0.006
971	0.006
972	0.006
972	0.007
973	0.008
973	0.008
974	0.009
974	0.009
974	0.01
975	0.011
975	0.012
976	0.013
976	0.014
976	0.014
977	0.015
977	0.015
978	0.014
978	0.014
979	0.014
979	0.013
979	0.012
980	0.011
980	0.01
981	0.009
981	0.008
982	0.007
982	0.006
982	0.005
983	0.005
983	0.004
984	0.004
984	0.003
984	0.003
985	0.003
985	0.003
986	0.003
986	0.003
987	0.003
987	0.003
987	0.003
988	0.004
988	0.004
989	0.004
989	0.005
990	0.005
990	0.005
990	0.006
991	0.007
991	0.007
992	0.008
992	0.007
992	0.007
993	0.007
993	0.007
994	0.006
994	0.006
995	0.005
995	0.004
995	0.003
996	0.003
996	0.002
997	0.002
997	0.002
997	0.002
998	0.003
998	0.004
999	0.005
999	0.005
1000	0.006
1000	0.007
1000	0.007
1001	0.007
1001	0.007
1002	0.007
1002	0.006
1003	0.005
1003	0.004
1003	0.003
1004	0.003
1004	0.002
1005	0.001
1005	0
1005	-0
1006	-0.001
1006	-0.001
1007	-0.001
1007	-0.001
1008	-0.001
1008	-0.001
1008	-0.001
1009	-0
1009	-0
1010	-0
1010	-0
1010	-0
1011	-0
1011	-0
1012	-0
1012	0
1013	0
1013	0.001
1013	0.001
1014	0.001
1014	0.002
1015	0.003
1015	0.004
1016	0.004
1016	0.005
1016	0.006
1017	0.007
1017	0.008
1018	0.01
1018	0.011
1018	0.012
1019	0.013
1019	0.014
1020	0.015
1020	0.016
1021	0.016
1021	0.017
1021	0.017
1022	0.017
1022	0.017
1023	0.017
1023	0.016
1023	0.016
1024	0.015
1024	0.015
1025	0.014
1025	0.014
1026	0.014
1026	0.014
1026	0.013
1027	0.013
1027	0.013
1028	0.013
1028	0.013
1028	0.012
1029	0.012
1029	0.012
1030	0.011
1030	0.011
1031	0.01
1031	0.01
1031	0.01
1032	0.009
1032	0.009
1033	0.009
1033	0.008
1033	0.008
1034	0.008
1034	0.007
1035	0.007
1035	0.007
1036	0.006
1036	0.006
1036	0.006
1037	0.006
1037	0.007
1038	0.007
1038	0.008
1039	0.009
1039	0.01
1039	0.011
1040	0.012
1040	0.013
1041	0.014
1041	0.014
1041	0.015
1042	0.015
1042	0.015
1043	0.016
1043	0.016
1044	0.016
1044	0.017
1044	0.018
1045	0.019
1045	0.019
1046	0.02
1046	0.022
1046	0.023
1047	0.025
1047	0.026
1048	0.027
1048	0.028
1049	0.029
1049	0.029
1049	0.03
1050	0.03
1050	0.03
1051	0.031
1051	0.031
1051	0.032
1052	0.032
1052	0.033
1053	0.034
1053	0.034
1053	0.035
1054	0.035
1054	0.035
1055	0.036
1055	0.036
1056	0.035
1056	0.035
1056	0.034
1057	0.033
1057	0.033
1058	0.033
1058	0.033
1058	0.033
1059	0.034
1059	0.034
1060	0.035
1060	0.036
1061	0.037
1061	0.039
1061	0.04
1062	0.041
1062	0.041
1063	0.042
1063	0.043
1063	0.044
1064	0.045
1064	0.046
1065	0.047
1065	0.048
1066	0.049
1066	0.05
1066	0.052
1067	0.053
1067	0.055
1068	0.057
1068	0.059
1068	0.06
1069	0.062
1069	0.064
1070	0.066
1070	0.069
1071	0.072
1071	0.075
1071	0.077
1072	0.081
1072	0.085
1073	0.089
1073	0.093
1073	0.097
1074	0.101
1074	0.105
1075	0.108
1075	0.111
1076	0.114
1076	0.118
1076	0.121
1077	0.124
1077	0.129
1078	0.132
1078	0.136
1078	0.141
1079	0.145
1079	0.15
1080	0.154
1080	0.158
1080	0.16
1081	0.164
1081	0.168
1082	0.172
1082	0.175
1083	0.18
1083	0.183
1083	0.189
1084	0.194
1084	0.2
1085	0.206
1085	0.214
1085	0.221
1086	0.227
1086	0.233
1087	0.241
1087	0.248
1088	0.255
1088	0.263
1088	0.272
1089	0.281
1089	0.292
1090	0.303
1090	0.318
1090	0.332
1091	0.35
1091	0.369
1092	0.389
1092	0.413
1092	0.437
1093	0.461
1093	0.492
1094	0.525
1094	0.561
1095	0.602
1095	0.656
1095	0.724
1096	0.801
1096	0.904
1097	1.057
1097	1.282
1097	1.94
1098	-0
1098	-0
1099	-0
1099	-0
1100	-0
1100	-0
1100	-0
1101	-0
1101	-0
1102	-0
1102	-0
1102	-0
1103	-0
1103	-0
1104	-0
1104	-0
1104	-0
1105	-0
1105	-0
1106	-0
1106	-0
1107	-0
1107	-0
1107	-0
1108	-0
1108	-0
1109	-0
1109	-0
1109	-0
1110	-0
1110	-0
1111	-0
1111	-0
