Data from 15c-2-5a_Absorbance__1091__02892.txt Node

Date: Fri Jan 19 14:19:39 CET 2024
User: Marek
Spectrometer: MAYP115816
Trigger mode: 0
Integration Time (sec): 2.000000E-1
Scans to average: 10
Electric dark correction enabled: true
Nonlinearity correction enabled: true
Boxcar width: 5
XAxis mode: Wavelengths
Number of Pixels in Spectrum: 2068
>>>>>Begin Spectral Data<<<<<
199	-2.298
199	-2.139
200	-1.993
200	-1.871
201	-1.8
201	-1.745
202	-1.671
202	-1.61
203	-1.556
203	-1.51
204	-1.481
204	-1.456
205	-1.436
205	-1.424
205	-1.422
206	-1.416
206	-1.412
207	-1.406
207	-1.401
208	-1.399
208	-1.396
209	-1.394
209	-1.389
210	-1.387
210	-1.385
211	-1.384
211	-1.382
212	-1.383
212	-1.382
213	-1.382
213	-1.379
213	-1.378
214	-1.373
214	-1.372
215	-1.369
215	-1.367
216	-1.364
216	-1.364
217	-1.359
217	-1.357
218	-1.355
218	-1.352
219	-1.348
219	-1.348
220	-1.346
220	-1.345
221	-1.344
221	-1.338
221	-1.333
222	-1.33
222	-1.326
223	-1.32
223	-1.316
224	-1.309
224	-1.301
225	-1.294
225	-1.282
226	-1.271
226	-1.26
227	-1.247
227	-1.233
228	-1.217
228	-1.2
229	-1.179
229	-1.157
229	-1.13
230	-1.101
230	-1.069
231	-1.033
231	-0.993
232	-0.952
232	-0.907
233	-0.859
233	-0.809
234	-0.758
234	-0.707
235	-0.655
235	-0.604
236	-0.553
236	-0.503
236	-0.454
237	-0.406
237	-0.36
238	-0.316
238	-0.274
239	-0.233
239	-0.195
240	-0.16
240	-0.126
241	-0.094
241	-0.063
242	-0.036
242	-0.009
243	0.015
243	0.037
243	0.058
244	0.077
244	0.095
245	0.112
245	0.127
246	0.142
246	0.155
247	0.167
247	0.178
248	0.189
248	0.199
249	0.208
249	0.216
250	0.225
250	0.233
250	0.24
251	0.246
251	0.253
252	0.259
252	0.265
253	0.27
253	0.275
254	0.28
254	0.285
255	0.288
255	0.292
256	0.296
256	0.299
257	0.302
257	0.305
258	0.307
258	0.309
258	0.311
259	0.313
259	0.314
260	0.316
260	0.317
261	0.318
261	0.319
262	0.32
262	0.321
263	0.322
263	0.323
264	0.324
264	0.325
265	0.325
265	0.325
265	0.326
266	0.326
266	0.326
267	0.326
267	0.326
268	0.326
268	0.325
269	0.325
269	0.324
270	0.323
270	0.322
271	0.322
271	0.321
272	0.32
272	0.319
272	0.319
273	0.318
273	0.317
274	0.317
274	0.316
275	0.315
275	0.314
276	0.313
276	0.312
277	0.31
277	0.309
278	0.307
278	0.304
278	0.302
279	0.3
279	0.299
280	0.298
280	0.297
281	0.296
281	0.295
282	0.295
282	0.295
283	0.295
283	0.295
284	0.296
284	0.296
285	0.295
285	0.294
285	0.294
286	0.293
286	0.292
287	0.291
287	0.29
288	0.289
288	0.289
289	0.288
289	0.287
290	0.286
290	0.285
291	0.284
291	0.284
292	0.283
292	0.282
292	0.282
293	0.281
293	0.28
294	0.279
294	0.279
295	0.278
295	0.277
296	0.277
296	0.276
297	0.275
297	0.275
298	0.274
298	0.274
298	0.273
299	0.272
299	0.272
300	0.271
300	0.27
301	0.27
301	0.269
302	0.268
302	0.268
303	0.267
303	0.266
304	0.266
304	0.265
305	0.264
305	0.264
305	0.263
306	0.262
306	0.261
307	0.261
307	0.26
308	0.259
308	0.258
309	0.258
309	0.257
310	0.256
310	0.255
311	0.254
311	0.254
311	0.253
312	0.252
312	0.251
313	0.25
313	0.249
314	0.248
314	0.248
315	0.247
315	0.246
316	0.245
316	0.244
317	0.243
317	0.242
318	0.241
318	0.24
318	0.239
319	0.239
319	0.238
320	0.237
320	0.235
321	0.234
321	0.233
322	0.232
322	0.231
323	0.23
323	0.229
324	0.228
324	0.227
324	0.226
325	0.225
325	0.224
326	0.223
326	0.223
327	0.222
327	0.221
328	0.22
328	0.219
329	0.219
329	0.218
330	0.217
330	0.216
330	0.215
331	0.214
331	0.213
332	0.213
332	0.212
333	0.211
333	0.21
334	0.209
334	0.208
335	0.207
335	0.206
336	0.205
336	0.204
336	0.203
337	0.203
337	0.202
338	0.201
338	0.2
339	0.199
339	0.198
340	0.197
340	0.197
341	0.196
341	0.195
342	0.195
342	0.194
342	0.193
343	0.192
343	0.192
344	0.191
344	0.19
345	0.19
345	0.189
346	0.188
346	0.187
347	0.186
347	0.185
348	0.184
348	0.184
348	0.183
349	0.182
349	0.181
350	0.18
350	0.179
351	0.178
351	0.177
352	0.175
352	0.174
353	0.173
353	0.172
354	0.171
354	0.169
354	0.168
355	0.167
355	0.165
356	0.164
356	0.163
357	0.163
357	0.162
358	0.162
358	0.162
359	0.163
359	0.164
360	0.165
360	0.165
360	0.166
361	0.167
361	0.167
362	0.168
362	0.168
363	0.168
363	0.167
364	0.167
364	0.166
365	0.165
365	0.165
366	0.164
366	0.164
366	0.163
367	0.163
367	0.162
368	0.162
368	0.161
369	0.161
369	0.16
370	0.16
370	0.159
371	0.158
371	0.158
372	0.157
372	0.156
372	0.156
373	0.155
373	0.155
374	0.155
374	0.155
375	0.155
375	0.155
376	0.155
376	0.155
377	0.156
377	0.156
378	0.157
378	0.157
378	0.157
379	0.157
379	0.157
380	0.157
380	0.157
381	0.157
381	0.156
382	0.156
382	0.156
383	0.155
383	0.155
383	0.154
384	0.154
384	0.153
385	0.153
385	0.152
386	0.152
386	0.152
387	0.152
387	0.152
388	0.151
388	0.151
389	0.151
389	0.151
389	0.151
390	0.151
390	0.151
391	0.151
391	0.152
392	0.152
392	0.152
393	0.152
393	0.152
394	0.151
394	0.151
394	0.151
395	0.151
395	0.15
396	0.149
396	0.149
397	0.149
397	0.15
398	0.15
398	0.15
399	0.15
399	0.149
400	0.149
400	0.149
400	0.148
401	0.147
401	0.146
402	0.145
402	0.144
403	0.144
403	0.143
404	0.143
404	0.143
405	0.142
405	0.142
405	0.142
406	0.141
406	0.141
407	0.141
407	0.14
408	0.139
408	0.138
409	0.137
409	0.137
410	0.137
410	0.136
411	0.136
411	0.136
411	0.136
412	0.135
412	0.135
413	0.134
413	0.134
414	0.134
414	0.133
415	0.133
415	0.133
416	0.132
416	0.131
416	0.13
417	0.13
417	0.13
418	0.13
418	0.13
419	0.13
419	0.131
420	0.132
420	0.133
421	0.133
421	0.134
421	0.134
422	0.135
422	0.135
423	0.135
423	0.134
424	0.134
424	0.133
425	0.131
425	0.13
426	0.129
426	0.129
427	0.128
427	0.128
427	0.129
428	0.129
428	0.13
429	0.131
429	0.132
430	0.132
430	0.132
431	0.132
431	0.131
432	0.131
432	0.13
432	0.128
433	0.127
433	0.125
434	0.124
434	0.123
435	0.123
435	0.123
436	0.123
436	0.123
437	0.123
437	0.123
437	0.123
438	0.123
438	0.123
439	0.122
439	0.122
440	0.122
440	0.121
441	0.121
441	0.121
442	0.122
442	0.122
442	0.122
443	0.123
443	0.123
444	0.123
444	0.123
445	0.123
445	0.123
446	0.123
446	0.123
447	0.122
447	0.122
447	0.122
448	0.121
448	0.121
449	0.121
449	0.121
450	0.12
450	0.12
451	0.12
451	0.119
452	0.118
452	0.118
452	0.117
453	0.116
453	0.115
454	0.114
454	0.114
455	0.113
455	0.112
456	0.112
456	0.111
457	0.111
457	0.111
458	0.111
458	0.111
458	0.111
459	0.111
459	0.111
460	0.11
460	0.109
461	0.108
461	0.108
462	0.107
462	0.107
463	0.108
463	0.109
463	0.109
464	0.11
464	0.11
465	0.11
465	0.111
466	0.111
466	0.111
467	0.111
467	0.11
467	0.109
468	0.107
468	0.104
469	0.102
469	0.1
470	0.099
470	0.098
471	0.098
471	0.097
472	0.097
472	0.097
472	0.098
473	0.099
473	0.1
474	0.101
474	0.102
475	0.103
475	0.104
476	0.104
476	0.105
477	0.105
477	0.105
477	0.105
478	0.105
478	0.105
479	0.106
479	0.106
480	0.107
480	0.108
481	0.109
481	0.11
482	0.111
482	0.112
482	0.114
483	0.116
483	0.12
484	0.124
484	0.127
485	0.129
485	0.131
486	0.132
486	0.133
487	0.133
487	0.133
487	0.133
488	0.132
488	0.13
489	0.127
489	0.124
490	0.122
490	0.12
491	0.119
491	0.119
492	0.119
492	0.12
492	0.12
493	0.12
493	0.121
494	0.123
494	0.125
495	0.127
495	0.129
496	0.13
496	0.13
496	0.131
497	0.132
497	0.133
498	0.134
498	0.134
499	0.134
499	0.134
500	0.134
500	0.135
501	0.137
501	0.139
501	0.141
502	0.142
502	0.143
503	0.145
503	0.147
504	0.147
504	0.147
505	0.147
505	0.147
506	0.147
506	0.147
506	0.147
507	0.146
507	0.145
508	0.145
508	0.145
509	0.146
509	0.146
510	0.147
510	0.146
511	0.146
511	0.146
511	0.146
512	0.146
512	0.147
513	0.145
513	0.143
514	0.141
514	0.14
515	0.139
515	0.138
515	0.138
516	0.137
516	0.137
517	0.137
517	0.136
518	0.136
518	0.135
519	0.133
519	0.13
520	0.126
520	0.123
520	0.119
521	0.116
521	0.112
522	0.11
522	0.108
523	0.108
523	0.109
524	0.112
524	0.115
524	0.119
525	0.123
525	0.127
526	0.131
526	0.134
527	0.137
527	0.14
528	0.142
528	0.143
529	0.144
529	0.145
529	0.145
530	0.145
530	0.145
531	0.145
531	0.145
532	0.145
532	0.144
533	0.145
533	0.145
533	0.145
534	0.145
534	0.144
535	0.143
535	0.143
536	0.143
536	0.143
537	0.142
537	0.142
538	0.141
538	0.139
538	0.138
539	0.137
539	0.136
540	0.136
540	0.134
541	0.133
541	0.131
542	0.129
542	0.127
542	0.126
543	0.125
543	0.124
544	0.123
544	0.121
545	0.121
545	0.121
546	0.121
546	0.121
547	0.119
547	0.117
547	0.115
548	0.112
548	0.109
549	0.107
549	0.105
550	0.103
550	0.101
551	0.099
551	0.096
551	0.094
552	0.093
552	0.092
553	0.092
553	0.092
554	0.092
554	0.09
555	0.088
555	0.085
556	0.082
556	0.079
556	0.076
557	0.074
557	0.071
558	0.069
558	0.067
559	0.065
559	0.065
560	0.065
560	0.064
560	0.064
561	0.064
561	0.065
562	0.065
562	0.064
563	0.063
563	0.061
564	0.058
564	0.056
564	0.053
565	0.052
565	0.051
566	0.05
566	0.049
567	0.049
567	0.051
568	0.053
568	0.055
568	0.057
569	0.06
569	0.063
570	0.065
570	0.066
571	0.067
571	0.068
572	0.069
572	0.07
573	0.07
573	0.071
573	0.07
574	0.069
574	0.069
575	0.069
575	0.07
576	0.072
576	0.072
577	0.071
577	0.069
577	0.068
578	0.067
578	0.067
579	0.068
579	0.069
580	0.069
580	0.067
581	0.064
581	0.061
581	0.06
582	0.059
582	0.059
583	0.06
583	0.06
584	0.057
584	0.053
585	0.051
585	0.05
585	0.05
586	0.05
586	0.05
587	0.048
587	0.045
588	0.042
588	0.039
589	0.036
589	0.035
590	0.033
590	0.032
590	0.032
591	0.033
591	0.033
592	0.033
592	0.032
593	0.032
593	0.032
594	0.031
594	0.031
594	0.03
595	0.03
595	0.028
596	0.026
596	0.025
597	0.027
597	0.029
598	0.03
598	0.032
598	0.033
599	0.033
599	0.033
600	0.032
600	0.03
601	0.029
601	0.028
602	0.026
602	0.024
602	0.022
603	0.021
603	0.021
604	0.022
604	0.024
605	0.026
605	0.029
606	0.03
606	0.029
606	0.029
607	0.028
607	0.028
608	0.028
608	0.026
609	0.024
609	0.023
610	0.02
610	0.018
610	0.017
611	0.017
611	0.017
612	0.018
612	0.02
613	0.021
613	0.022
614	0.022
614	0.022
614	0.021
615	0.021
615	0.02
616	0.02
616	0.02
617	0.019
617	0.018
618	0.016
618	0.015
618	0.014
619	0.013
619	0.013
620	0.015
620	0.016
621	0.016
621	0.017
622	0.017
622	0.018
622	0.018
623	0.018
623	0.019
624	0.02
624	0.02
625	0.019
625	0.019
626	0.019
626	0.019
626	0.019
627	0.019
627	0.02
628	0.021
628	0.021
629	0.021
629	0.021
630	0.02
630	0.019
630	0.019
631	0.019
631	0.019
632	0.018
632	0.018
633	0.018
633	0.018
634	0.019
634	0.021
634	0.024
635	0.026
635	0.027
636	0.028
636	0.03
637	0.031
637	0.033
638	0.034
638	0.035
638	0.036
639	0.036
639	0.036
640	0.037
640	0.038
641	0.039
641	0.041
642	0.042
642	0.044
642	0.046
643	0.047
643	0.049
644	0.051
644	0.053
645	0.055
645	0.058
646	0.06
646	0.064
646	0.068
647	0.072
647	0.076
648	0.079
648	0.082
649	0.086
649	0.089
650	0.093
650	0.096
650	0.1
651	0.102
651	0.104
652	0.106
652	0.108
653	0.111
653	0.12
653	0.146
654	0.121
654	0.103
655	0.107
655	0.109
656	0.111
656	0.112
657	0.114
657	0.116
657	0.117
658	0.115
658	0.097
659	0.118
659	0.148
660	0.149
660	0.151
661	0.153
661	0.155
661	0.157
662	0.16
662	0.163
663	0.166
663	0.169
664	0.172
664	0.174
665	0.176
665	0.179
665	0.181
666	0.184
666	0.186
667	0.188
667	0.19
668	0.192
668	0.194
669	0.196
669	0.199
669	0.203
670	0.208
670	0.211
671	0.213
671	0.215
672	0.217
672	0.219
672	0.22
673	0.222
673	0.223
674	0.224
674	0.224
675	0.224
675	0.224
676	0.225
676	0.227
676	0.229
677	0.231
677	0.234
678	0.236
678	0.238
679	0.24
679	0.241
680	0.244
680	0.245
680	0.246
681	0.246
681	0.247
682	0.248
682	0.25
683	0.251
683	0.254
684	0.257
684	0.258
684	0.259
685	0.26
685	0.261
686	0.262
686	0.263
687	0.262
687	0.261
687	0.26
688	0.259
688	0.257
689	0.256
689	0.257
690	0.257
690	0.257
691	0.256
691	0.256
691	0.257
692	0.256
692	0.255
693	0.255
693	0.255
694	0.255
694	0.252
695	0.252
695	0.253
695	0.254
696	0.254
696	0.253
697	0.253
697	0.252
698	0.251
698	0.249
698	0.248
699	0.247
699	0.245
700	0.241
700	0.239
701	0.237
701	0.236
702	0.234
702	0.233
702	0.231
703	0.23
703	0.228
704	0.227
704	0.226
705	0.226
705	0.226
705	0.225
706	0.224
706	0.223
707	0.222
707	0.22
708	0.218
708	0.217
709	0.215
709	0.213
709	0.209
710	0.205
710	0.201
711	0.199
711	0.196
712	0.194
712	0.192
713	0.19
713	0.188
713	0.186
714	0.183
714	0.181
715	0.178
715	0.176
716	0.173
716	0.171
716	0.169
717	0.167
717	0.165
718	0.162
718	0.159
719	0.156
719	0.154
720	0.152
720	0.149
720	0.146
721	0.143
721	0.139
722	0.137
722	0.133
723	0.131
723	0.129
723	0.127
724	0.125
724	0.123
725	0.121
725	0.118
726	0.117
726	0.115
727	0.113
727	0.111
727	0.11
728	0.107
728	0.105
729	0.104
729	0.103
730	0.102
730	0.099
730	0.097
731	0.095
731	0.093
732	0.092
732	0.09
733	0.088
733	0.086
734	0.083
734	0.08
734	0.077
735	0.075
735	0.073
736	0.07
736	0.067
737	0.064
737	0.062
737	0.06
738	0.057
738	0.053
739	0.05
739	0.048
740	0.045
740	0.043
741	0.042
741	0.039
741	0.036
742	0.031
742	0.026
743	0.023
743	0.019
744	0.017
744	0.014
744	0.011
745	0.008
745	0.005
746	0.003
746	0.002
747	0.001
747	0.002
748	0.003
748	0.003
748	0.003
749	0.003
749	0.002
750	0.002
750	0.001
751	0
751	-0
751	-0.001
752	-0.002
752	-0.003
753	-0.005
753	-0.006
754	-0.007
754	-0.007
754	-0.006
755	-0.006
755	-0.005
756	-0.004
756	-0.006
757	-0.008
757	-0.008
758	-0.009
758	-0.01
758	-0.011
759	-0.012
759	-0.015
760	-0.019
760	-0.022
761	-0.025
761	-0.027
761	-0.028
762	-0.031
762	-0.033
763	-0.034
763	-0.037
764	-0.041
764	-0.044
764	-0.047
765	-0.05
765	-0.052
766	-0.054
766	-0.055
767	-0.056
767	-0.059
768	-0.063
768	-0.066
768	-0.068
769	-0.069
769	-0.07
770	-0.071
770	-0.073
771	-0.076
771	-0.079
771	-0.082
772	-0.085
772	-0.087
773	-0.089
773	-0.092
774	-0.096
774	-0.099
775	-0.103
775	-0.106
775	-0.11
776	-0.114
776	-0.118
777	-0.122
777	-0.125
778	-0.13
778	-0.135
778	-0.139
779	-0.141
779	-0.14
780	-0.14
780	-0.142
781	-0.144
781	-0.145
781	-0.146
782	-0.147
782	-0.148
783	-0.149
783	-0.148
784	-0.148
784	-0.15
784	-0.152
785	-0.153
785	-0.155
786	-0.155
786	-0.153
787	-0.149
787	-0.145
788	-0.144
788	-0.145
788	-0.146
789	-0.149
789	-0.148
790	-0.146
790	-0.145
791	-0.145
791	-0.147
791	-0.15
792	-0.145
792	-0.134
793	-0.128
793	-0.124
794	-0.122
794	-0.124
794	-0.127
795	-0.129
795	-0.129
796	-0.129
796	-0.132
797	-0.14
797	-0.151
797	-0.158
798	-0.163
798	-0.166
799	-0.166
799	-0.166
800	-0.166
800	-0.167
801	-0.17
801	-0.171
801	-0.17
802	-0.171
802	-0.172
803	-0.172
803	-0.172
804	-0.171
804	-0.166
804	-0.16
805	-0.156
805	-0.154
806	-0.152
806	-0.15
807	-0.149
807	-0.149
807	-0.149
808	-0.148
808	-0.149
809	-0.153
809	-0.159
810	-0.163
810	-0.165
810	-0.169
811	-0.172
811	-0.173
812	-0.17
812	-0.167
813	-0.167
813	-0.168
813	-0.17
814	-0.171
814	-0.171
815	-0.169
815	-0.167
816	-0.165
816	-0.166
817	-0.17
817	-0.173
817	-0.174
818	-0.172
818	-0.169
819	-0.163
819	-0.16
820	-0.161
820	-0.163
820	-0.164
821	-0.164
821	-0.163
822	-0.163
822	-0.162
823	-0.162
823	-0.164
823	-0.168
824	-0.169
824	-0.166
825	-0.161
825	-0.155
826	-0.149
826	-0.144
826	-0.139
827	-0.132
827	-0.125
828	-0.118
828	-0.112
829	-0.105
829	-0.099
829	-0.095
830	-0.092
830	-0.089
831	-0.085
831	-0.082
832	-0.08
832	-0.078
832	-0.076
833	-0.075
833	-0.074
834	-0.073
834	-0.072
835	-0.071
835	-0.07
835	-0.07
836	-0.068
836	-0.067
837	-0.066
837	-0.065
838	-0.064
838	-0.063
839	-0.062
839	-0.061
839	-0.06
840	-0.06
840	-0.059
841	-0.058
841	-0.057
842	-0.056
842	-0.054
842	-0.053
843	-0.051
843	-0.048
844	-0.045
844	-0.043
845	-0.04
845	-0.038
845	-0.036
846	-0.034
846	-0.032
847	-0.031
847	-0.03
848	-0.03
848	-0.03
848	-0.03
849	-0.029
849	-0.029
850	-0.029
850	-0.029
851	-0.029
851	-0.028
851	-0.028
852	-0.027
852	-0.026
853	-0.026
853	-0.025
854	-0.025
854	-0.024
854	-0.023
855	-0.023
855	-0.023
856	-0.023
856	-0.023
857	-0.023
857	-0.023
857	-0.023
858	-0.023
858	-0.023
859	-0.023
859	-0.023
860	-0.022
860	-0.021
860	-0.02
861	-0.018
861	-0.017
862	-0.016
862	-0.015
863	-0.015
863	-0.014
863	-0.013
864	-0.012
864	-0.011
865	-0.01
865	-0.009
866	-0.009
866	-0.008
866	-0.007
867	-0.006
867	-0.005
868	-0.005
868	-0.005
869	-0.004
869	-0.004
869	-0.005
870	-0.004
870	-0.004
871	-0.004
871	-0.005
872	-0.005
872	-0.005
872	-0.005
873	-0.005
873	-0.005
874	-0.006
874	-0.006
875	-0.006
875	-0.006
875	-0.007
876	-0.006
876	-0.006
877	-0.006
877	-0.006
878	-0.006
878	-0.006
878	-0.007
879	-0.007
879	-0.008
880	-0.008
880	-0.008
881	-0.008
881	-0.008
881	-0.008
882	-0.007
882	-0.006
883	-0.005
883	-0.003
884	-0.002
884	-0
884	0.002
885	0.003
885	0.004
886	0.006
886	0.006
887	0.007
887	0.007
887	0.007
888	0.006
888	0.006
889	0.006
889	0.006
890	0.006
890	0.005
890	0.004
891	0.003
891	0.003
892	0.002
892	0.001
893	0.001
893	0
893	0
894	-0
894	-0.001
895	-0.001
895	-0.001
895	-0.002
896	-0.002
896	-0.002
897	-0.002
897	-0.002
898	-0.002
898	-0.002
898	-0.002
899	-0.002
899	-0.001
900	-0.001
900	-0
901	0.001
901	0.002
901	0.003
902	0.004
902	0.005
903	0.006
903	0.008
904	0.009
904	0.009
904	0.01
905	0.011
905	0.011
906	0.012
906	0.011
907	0.011
907	0.011
907	0.01
908	0.009
908	0.008
909	0.008
909	0.007
910	0.006
910	0.006
910	0.005
911	0.004
911	0.004
912	0.003
912	0.002
913	0.002
913	0.001
913	0.001
914	0
914	-0
915	-0
915	-0.001
916	-0.001
916	-0
916	0
917	0.001
917	0.001
918	0.002
918	0.003
918	0.004
919	0.005
919	0.007
920	0.008
920	0.01
921	0.011
921	0.012
921	0.012
922	0.013
922	0.013
923	0.014
923	0.014
924	0.013
924	0.013
924	0.012
925	0.011
925	0.01
926	0.01
926	0.009
927	0.008
927	0.007
927	0.007
928	0.007
928	0.007
929	0.006
929	0.006
930	0.006
930	0.006
930	0.006
931	0.006
931	0.006
932	0.007
932	0.006
933	0.007
933	0.007
933	0.007
934	0.007
934	0.007
935	0.007
935	0.007
935	0.008
936	0.008
936	0.009
937	0.01
937	0.01
938	0.011
938	0.012
938	0.012
939	0.013
939	0.013
940	0.013
940	0.013
941	0.013
941	0.012
941	0.012
942	0.012
942	0.011
943	0.011
943	0.012
944	0.012
944	0.012
944	0.013
945	0.013
945	0.014
946	0.015
946	0.015
946	0.016
947	0.016
947	0.016
948	0.016
948	0.016
949	0.017
949	0.017
949	0.018
950	0.018
950	0.019
951	0.019
951	0.019
952	0.019
952	0.019
952	0.02
953	0.02
953	0.02
954	0.02
954	0.02
955	0.02
955	0.019
955	0.019
956	0.019
956	0.018
957	0.018
957	0.017
957	0.016
958	0.016
958	0.015
959	0.014
959	0.013
960	0.013
960	0.012
960	0.011
961	0.01
961	0.01
962	0.009
962	0.009
963	0.009
963	0.009
963	0.009
964	0.009
964	0.009
965	0.009
965	0.009
966	0.01
966	0.01
966	0.011
967	0.012
967	0.012
968	0.012
968	0.013
968	0.014
969	0.014
969	0.015
970	0.016
970	0.016
971	0.016
971	0.016
971	0.017
972	0.017
972	0.018
973	0.018
973	0.018
974	0.019
974	0.019
974	0.02
975	0.021
975	0.022
976	0.023
976	0.023
976	0.023
977	0.023
977	0.023
978	0.023
978	0.023
979	0.023
979	0.022
979	0.021
980	0.02
980	0.019
981	0.018
981	0.018
982	0.017
982	0.016
982	0.016
983	0.015
983	0.014
984	0.013
984	0.013
984	0.013
985	0.012
985	0.012
986	0.012
986	0.011
987	0.011
987	0.011
987	0.012
988	0.012
988	0.012
989	0.013
989	0.013
990	0.013
990	0.014
990	0.014
991	0.015
991	0.015
992	0.016
992	0.016
992	0.016
993	0.016
993	0.015
994	0.015
994	0.015
995	0.014
995	0.013
995	0.013
996	0.012
996	0.012
997	0.012
997	0.012
997	0.012
998	0.013
998	0.014
999	0.015
999	0.016
1000	0.017
1000	0.018
1000	0.018
1001	0.018
1001	0.018
1002	0.018
1002	0.017
1003	0.016
1003	0.015
1003	0.014
1004	0.013
1004	0.012
1005	0.011
1005	0.009
1005	0.008
1006	0.007
1006	0.006
1007	0.006
1007	0.005
1008	0.005
1008	0.005
1008	0.005
1009	0.005
1009	0.005
1010	0.005
1010	0.005
1010	0.005
1011	0.005
1011	0.006
1012	0.006
1012	0.006
1013	0.007
1013	0.007
1013	0.008
1014	0.008
1014	0.009
1015	0.01
1015	0.011
1016	0.011
1016	0.012
1016	0.013
1017	0.014
1017	0.015
1018	0.016
1018	0.018
1018	0.019
1019	0.021
1019	0.022
1020	0.022
1020	0.023
1021	0.024
1021	0.024
1021	0.025
1022	0.025
1022	0.025
1023	0.025
1023	0.024
1023	0.024
1024	0.024
1024	0.023
1025	0.023
1025	0.023
1026	0.023
1026	0.022
1026	0.022
1027	0.022
1027	0.022
1028	0.022
1028	0.022
1028	0.022
1029	0.021
1029	0.021
1030	0.021
1030	0.02
1031	0.02
1031	0.02
1031	0.02
1032	0.02
1032	0.02
1033	0.02
1033	0.02
1033	0.02
1034	0.019
1034	0.019
1035	0.019
1035	0.019
1036	0.018
1036	0.018
1036	0.018
1037	0.019
1037	0.019
1038	0.019
1038	0.02
1039	0.021
1039	0.022
1039	0.023
1040	0.024
1040	0.025
1041	0.025
1041	0.026
1041	0.026
1042	0.026
1042	0.027
1043	0.027
1043	0.027
1044	0.028
1044	0.028
1044	0.029
1045	0.03
1045	0.03
1046	0.031
1046	0.032
1046	0.034
1047	0.036
1047	0.037
1048	0.039
1048	0.04
1049	0.04
1049	0.041
1049	0.041
1050	0.042
1050	0.042
1051	0.043
1051	0.043
1051	0.044
1052	0.045
1052	0.045
1053	0.046
1053	0.046
1053	0.047
1054	0.048
1054	0.048
1055	0.049
1055	0.049
1056	0.048
1056	0.048
1056	0.047
1057	0.047
1057	0.047
1058	0.047
1058	0.047
1058	0.048
1059	0.048
1059	0.049
1060	0.049
1060	0.051
1061	0.052
1061	0.053
1061	0.054
1062	0.054
1062	0.055
1063	0.055
1063	0.056
1063	0.057
1064	0.058
1064	0.059
1065	0.06
1065	0.061
1066	0.061
1066	0.063
1066	0.064
1067	0.066
1067	0.068
1068	0.069
1068	0.071
1068	0.072
1069	0.074
1069	0.076
1070	0.079
1070	0.082
1071	0.085
1071	0.088
1071	0.091
1072	0.095
1072	0.099
1073	0.103
1073	0.108
1073	0.112
1074	0.116
1074	0.119
1075	0.122
1075	0.125
1076	0.127
1076	0.131
1076	0.133
1077	0.137
1077	0.14
1078	0.143
1078	0.147
1078	0.151
1079	0.155
1079	0.159
1080	0.163
1080	0.168
1080	0.171
1081	0.175
1081	0.179
1082	0.183
1082	0.188
1083	0.192
1083	0.196
1083	0.202
1084	0.207
1084	0.214
1085	0.22
1085	0.227
1085	0.234
1086	0.242
1086	0.248
1087	0.255
1087	0.265
1088	0.272
1088	0.281
1088	0.291
1089	0.3
1089	0.313
1090	0.325
1090	0.34
1090	0.356
1091	0.373
1091	0.392
1092	0.412
1092	0.436
1092	0.459
1093	0.485
1093	0.518
1094	0.553
1094	0.59
1095	0.634
1095	0.691
1095	0.766
1096	0.856
1096	0.977
1097	1.179
1097	1.541
1097	-0
1098	-0
1098	-0
1099	-0
1099	-0
1100	-0
1100	-0
1100	-0
1101	-0
1101	-0
1102	-0
1102	-0
1102	-0
1103	-0
1103	-0
1104	-0
1104	-0
1104	-0
1105	-0
1105	-0
1106	-0
1106	-0
1107	-0
1107	-0
1107	-0
1108	-0
1108	-0
1109	-0
1109	-0
1109	-0
1110	-0
1110	-0
1111	-0
1111	-0
