Data from 15c-2-5a_Absorbance__249__02050.txt Node

Date: Fri Jan 19 13:51:35 CET 2024
User: Marek
Spectrometer: MAYP115816
Trigger mode: 0
Integration Time (sec): 2.000000E-1
Scans to average: 10
Electric dark correction enabled: true
Nonlinearity correction enabled: true
Boxcar width: 5
XAxis mode: Wavelengths
Number of Pixels in Spectrum: 2068
>>>>>Begin Spectral Data<<<<<
199	-2.263
199	-2.105
200	-1.959
200	-1.838
201	-1.768
201	-1.713
202	-1.639
202	-1.579
203	-1.525
203	-1.48
204	-1.452
204	-1.427
205	-1.406
205	-1.395
205	-1.393
206	-1.387
206	-1.382
207	-1.377
207	-1.372
208	-1.37
208	-1.367
209	-1.365
209	-1.36
210	-1.357
210	-1.356
211	-1.354
211	-1.352
212	-1.353
212	-1.352
213	-1.352
213	-1.349
213	-1.348
214	-1.344
214	-1.343
215	-1.34
215	-1.338
216	-1.335
216	-1.335
217	-1.33
217	-1.328
218	-1.325
218	-1.323
219	-1.319
219	-1.319
220	-1.317
220	-1.317
221	-1.315
221	-1.309
221	-1.304
222	-1.302
222	-1.298
223	-1.292
223	-1.288
224	-1.281
224	-1.274
225	-1.266
225	-1.254
226	-1.243
226	-1.233
227	-1.22
227	-1.205
228	-1.189
228	-1.174
229	-1.153
229	-1.131
229	-1.105
230	-1.076
230	-1.044
231	-1.009
231	-0.97
232	-0.93
232	-0.887
233	-0.84
233	-0.791
234	-0.742
234	-0.693
235	-0.644
235	-0.595
236	-0.547
236	-0.5
236	-0.455
237	-0.411
237	-0.369
238	-0.329
238	-0.292
239	-0.256
239	-0.223
240	-0.192
240	-0.164
241	-0.137
241	-0.112
242	-0.089
242	-0.068
243	-0.049
243	-0.031
243	-0.015
244	-0
244	0.014
245	0.026
245	0.038
246	0.049
246	0.059
247	0.068
247	0.076
248	0.084
248	0.091
249	0.098
249	0.104
250	0.11
250	0.116
250	0.121
251	0.126
251	0.131
252	0.136
252	0.14
253	0.144
253	0.147
254	0.151
254	0.154
255	0.157
255	0.16
256	0.162
256	0.165
257	0.167
257	0.168
258	0.17
258	0.172
258	0.173
259	0.175
259	0.175
260	0.177
260	0.177
261	0.178
261	0.179
262	0.179
262	0.18
263	0.18
263	0.181
264	0.181
264	0.181
265	0.181
265	0.181
265	0.18
266	0.181
266	0.18
267	0.18
267	0.18
268	0.179
268	0.178
269	0.178
269	0.177
270	0.176
270	0.175
271	0.174
271	0.173
272	0.172
272	0.171
272	0.17
273	0.169
273	0.168
274	0.167
274	0.166
275	0.165
275	0.164
276	0.163
276	0.162
277	0.16
277	0.159
278	0.157
278	0.155
278	0.153
279	0.152
279	0.151
280	0.15
280	0.149
281	0.148
281	0.147
282	0.146
282	0.146
283	0.145
283	0.145
284	0.145
284	0.144
285	0.143
285	0.142
285	0.142
286	0.141
286	0.14
287	0.139
287	0.138
288	0.137
288	0.137
289	0.136
289	0.135
290	0.135
290	0.134
291	0.133
291	0.133
292	0.132
292	0.132
292	0.131
293	0.13
293	0.13
294	0.129
294	0.129
295	0.128
295	0.128
296	0.127
296	0.127
297	0.126
297	0.126
298	0.125
298	0.125
298	0.125
299	0.124
299	0.124
300	0.124
300	0.123
301	0.123
301	0.122
302	0.122
302	0.122
303	0.121
303	0.121
304	0.12
304	0.12
305	0.12
305	0.119
305	0.119
306	0.119
306	0.118
307	0.118
307	0.117
308	0.117
308	0.116
309	0.116
309	0.115
310	0.115
310	0.114
311	0.113
311	0.113
311	0.113
312	0.112
312	0.112
313	0.111
313	0.111
314	0.11
314	0.11
315	0.109
315	0.109
316	0.108
316	0.107
317	0.107
317	0.106
318	0.105
318	0.105
318	0.104
319	0.104
319	0.103
320	0.103
320	0.102
321	0.101
321	0.101
322	0.1
322	0.099
323	0.099
323	0.098
324	0.097
324	0.097
324	0.096
325	0.095
325	0.095
326	0.094
326	0.094
327	0.093
327	0.093
328	0.092
328	0.092
329	0.091
329	0.091
330	0.09
330	0.09
330	0.089
331	0.088
331	0.088
332	0.087
332	0.086
333	0.086
333	0.086
334	0.085
334	0.084
335	0.084
335	0.083
336	0.083
336	0.082
336	0.081
337	0.081
337	0.08
338	0.079
338	0.079
339	0.078
339	0.078
340	0.077
340	0.077
341	0.076
341	0.075
342	0.075
342	0.075
342	0.074
343	0.073
343	0.073
344	0.072
344	0.072
345	0.071
345	0.071
346	0.07
346	0.07
347	0.069
347	0.068
348	0.067
348	0.067
348	0.066
349	0.065
349	0.065
350	0.064
350	0.063
351	0.062
351	0.062
352	0.061
352	0.06
353	0.06
353	0.059
354	0.058
354	0.057
354	0.056
355	0.055
355	0.054
356	0.053
356	0.053
357	0.052
357	0.052
358	0.052
358	0.052
359	0.052
359	0.053
360	0.053
360	0.054
360	0.054
361	0.055
361	0.055
362	0.055
362	0.055
363	0.055
363	0.055
364	0.055
364	0.054
365	0.054
365	0.053
366	0.053
366	0.053
366	0.052
367	0.052
367	0.052
368	0.052
368	0.051
369	0.051
369	0.05
370	0.05
370	0.05
371	0.049
371	0.049
372	0.049
372	0.048
372	0.048
373	0.048
373	0.048
374	0.048
374	0.048
375	0.047
375	0.047
376	0.047
376	0.047
377	0.048
377	0.048
378	0.049
378	0.049
378	0.049
379	0.049
379	0.049
380	0.049
380	0.049
381	0.049
381	0.049
382	0.049
382	0.048
383	0.048
383	0.047
383	0.047
384	0.047
384	0.046
385	0.046
385	0.046
386	0.046
386	0.046
387	0.046
387	0.046
388	0.046
388	0.046
389	0.046
389	0.045
389	0.045
390	0.046
390	0.046
391	0.046
391	0.046
392	0.046
392	0.046
393	0.046
393	0.046
394	0.045
394	0.045
394	0.045
395	0.045
395	0.044
396	0.044
396	0.044
397	0.044
397	0.044
398	0.044
398	0.044
399	0.045
399	0.044
400	0.044
400	0.044
400	0.044
401	0.043
401	0.043
402	0.042
402	0.041
403	0.041
403	0.041
404	0.041
404	0.04
405	0.04
405	0.04
405	0.039
406	0.039
406	0.039
407	0.039
407	0.038
408	0.038
408	0.037
409	0.037
409	0.037
410	0.037
410	0.036
411	0.036
411	0.036
411	0.036
412	0.036
412	0.035
413	0.035
413	0.035
414	0.034
414	0.034
415	0.034
415	0.033
416	0.033
416	0.032
416	0.032
417	0.031
417	0.032
418	0.032
418	0.032
419	0.032
419	0.033
420	0.034
420	0.035
421	0.035
421	0.036
421	0.036
422	0.036
422	0.036
423	0.036
423	0.036
424	0.035
424	0.034
425	0.033
425	0.032
426	0.032
426	0.031
427	0.031
427	0.031
427	0.032
428	0.033
428	0.033
429	0.034
429	0.035
430	0.035
430	0.035
431	0.034
431	0.034
432	0.033
432	0.032
432	0.031
433	0.03
433	0.029
434	0.028
434	0.027
435	0.027
435	0.027
436	0.027
436	0.028
437	0.028
437	0.028
437	0.028
438	0.028
438	0.028
439	0.027
439	0.027
440	0.027
440	0.027
441	0.027
441	0.027
442	0.027
442	0.027
442	0.028
443	0.028
443	0.028
444	0.028
444	0.028
445	0.028
445	0.028
446	0.028
446	0.028
447	0.027
447	0.027
447	0.027
448	0.027
448	0.026
449	0.026
449	0.026
450	0.026
450	0.026
451	0.025
451	0.025
452	0.024
452	0.023
452	0.023
453	0.022
453	0.022
454	0.021
454	0.02
455	0.02
455	0.019
456	0.019
456	0.019
457	0.019
457	0.018
458	0.018
458	0.018
458	0.018
459	0.018
459	0.018
460	0.017
460	0.017
461	0.016
461	0.015
462	0.015
462	0.015
463	0.016
463	0.016
463	0.017
464	0.017
464	0.017
465	0.017
465	0.017
466	0.017
466	0.017
467	0.017
467	0.016
467	0.015
468	0.013
468	0.011
469	0.009
469	0.008
470	0.007
470	0.007
471	0.006
471	0.006
472	0.006
472	0.006
472	0.006
473	0.007
473	0.008
474	0.009
474	0.009
475	0.01
475	0.01
476	0.01
476	0.01
477	0.011
477	0.01
477	0.01
478	0.01
478	0.01
479	0.01
479	0.011
480	0.011
480	0.012
481	0.012
481	0.013
482	0.013
482	0.014
482	0.016
483	0.018
483	0.02
484	0.023
484	0.025
485	0.026
485	0.027
486	0.028
486	0.028
487	0.028
487	0.028
487	0.027
488	0.026
488	0.024
489	0.022
489	0.02
490	0.019
490	0.017
491	0.016
491	0.016
492	0.016
492	0.016
492	0.017
493	0.017
493	0.017
494	0.018
494	0.02
495	0.021
495	0.022
496	0.023
496	0.023
496	0.024
497	0.024
497	0.025
498	0.025
498	0.025
499	0.025
499	0.025
500	0.025
500	0.026
501	0.027
501	0.028
501	0.028
502	0.029
502	0.03
503	0.031
503	0.033
504	0.033
504	0.032
505	0.032
505	0.032
506	0.031
506	0.031
506	0.031
507	0.031
507	0.03
508	0.03
508	0.029
509	0.03
509	0.03
510	0.031
510	0.031
511	0.031
511	0.03
511	0.029
512	0.03
512	0.03
513	0.029
513	0.028
514	0.026
514	0.025
515	0.023
515	0.022
515	0.021
516	0.02
516	0.02
517	0.02
517	0.02
518	0.02
518	0.019
519	0.018
519	0.016
520	0.014
520	0.012
520	0.009
521	0.006
521	0.003
522	0
522	-0.002
523	-0.003
523	-0.004
524	-0.003
524	-0.001
524	0.002
525	0.005
525	0.008
526	0.011
526	0.014
527	0.017
527	0.02
528	0.022
528	0.024
529	0.025
529	0.026
529	0.026
530	0.027
530	0.027
531	0.027
531	0.027
532	0.027
532	0.027
533	0.028
533	0.028
533	0.028
534	0.028
534	0.027
535	0.027
535	0.027
536	0.027
536	0.026
537	0.026
537	0.025
538	0.025
538	0.024
538	0.023
539	0.022
539	0.022
540	0.021
540	0.021
541	0.02
541	0.019
542	0.018
542	0.017
542	0.016
543	0.016
543	0.016
544	0.015
544	0.014
545	0.015
545	0.015
546	0.015
546	0.015
547	0.014
547	0.013
547	0.011
548	0.01
548	0.008
549	0.007
549	0.006
550	0.005
550	0.003
551	0.002
551	0
551	-0
552	-0.001
552	-0.001
553	-0.001
553	-0
554	-0
554	-0.001
555	-0.002
555	-0.004
556	-0.006
556	-0.008
556	-0.01
557	-0.012
557	-0.013
558	-0.014
558	-0.015
559	-0.016
559	-0.016
560	-0.016
560	-0.016
560	-0.015
561	-0.015
561	-0.014
562	-0.014
562	-0.014
563	-0.015
563	-0.016
564	-0.018
564	-0.02
564	-0.021
565	-0.022
565	-0.022
566	-0.023
566	-0.023
567	-0.021
567	-0.02
568	-0.018
568	-0.015
568	-0.013
569	-0.01
569	-0.007
570	-0.006
570	-0.005
571	-0.004
571	-0.002
572	-0.001
572	-0.001
573	0
573	0.001
573	0
574	-0
574	0
575	0
575	0.002
576	0.004
576	0.004
577	0.003
577	0.002
577	0.002
578	0.002
578	0.002
579	0.003
579	0.005
580	0.005
580	0.003
581	0
581	-0.002
581	-0.003
582	-0.003
582	-0.002
583	-0.001
583	-0.001
584	-0.003
584	-0.007
585	-0.008
585	-0.008
585	-0.008
586	-0.007
586	-0.007
587	-0.009
587	-0.011
588	-0.014
588	-0.017
589	-0.018
589	-0.019
590	-0.02
590	-0.021
590	-0.02
591	-0.019
591	-0.018
592	-0.018
592	-0.019
593	-0.019
593	-0.019
594	-0.019
594	-0.019
594	-0.02
595	-0.02
595	-0.022
596	-0.024
596	-0.024
597	-0.021
597	-0.02
598	-0.019
598	-0.017
598	-0.016
599	-0.016
599	-0.016
600	-0.017
600	-0.018
601	-0.019
601	-0.02
602	-0.022
602	-0.023
602	-0.025
603	-0.026
603	-0.025
604	-0.024
604	-0.022
605	-0.02
605	-0.018
606	-0.017
606	-0.017
606	-0.017
607	-0.018
607	-0.017
608	-0.018
608	-0.019
609	-0.021
609	-0.022
610	-0.024
610	-0.026
610	-0.027
611	-0.027
611	-0.026
612	-0.025
612	-0.024
613	-0.023
613	-0.022
614	-0.022
614	-0.023
614	-0.023
615	-0.024
615	-0.024
616	-0.025
616	-0.025
617	-0.026
617	-0.027
618	-0.029
618	-0.03
618	-0.031
619	-0.031
619	-0.03
620	-0.029
620	-0.028
621	-0.028
621	-0.027
622	-0.027
622	-0.027
622	-0.027
623	-0.027
623	-0.026
624	-0.026
624	-0.026
625	-0.027
625	-0.028
626	-0.028
626	-0.028
626	-0.028
627	-0.028
627	-0.027
628	-0.027
628	-0.027
629	-0.027
629	-0.027
630	-0.028
630	-0.029
630	-0.029
631	-0.03
631	-0.03
632	-0.031
632	-0.032
633	-0.032
633	-0.032
634	-0.031
634	-0.03
634	-0.028
635	-0.026
635	-0.025
636	-0.025
636	-0.024
637	-0.023
637	-0.022
638	-0.021
638	-0.021
638	-0.02
639	-0.021
639	-0.021
640	-0.021
640	-0.02
641	-0.02
641	-0.019
642	-0.018
642	-0.017
642	-0.016
643	-0.015
643	-0.014
644	-0.012
644	-0.011
645	-0.01
645	-0.008
646	-0.006
646	-0.003
646	-0
647	0.003
647	0.006
648	0.008
648	0.01
649	0.012
649	0.015
650	0.017
650	0.02
650	0.022
651	0.023
651	0.024
652	0.025
652	0.026
653	0.028
653	0.035
653	0.057
654	0.051
654	0.046
655	0.046
655	0.047
656	0.048
656	0.049
657	0.05
657	0.052
657	0.052
658	0.05
658	0.035
659	0.041
659	0.05
660	0.053
660	0.055
661	0.056
661	0.057
661	0.059
662	0.06
662	0.063
663	0.065
663	0.067
664	0.068
664	0.069
665	0.071
665	0.072
665	0.074
666	0.076
666	0.077
667	0.078
667	0.08
668	0.081
668	0.083
669	0.084
669	0.086
669	0.089
670	0.092
670	0.094
671	0.095
671	0.096
672	0.097
672	0.098
672	0.099
673	0.1
673	0.101
674	0.102
674	0.102
675	0.102
675	0.102
676	0.103
676	0.105
676	0.106
677	0.108
677	0.11
678	0.112
678	0.113
679	0.114
679	0.115
680	0.117
680	0.118
680	0.118
681	0.119
681	0.119
682	0.12
682	0.121
683	0.123
683	0.125
684	0.127
684	0.127
684	0.128
685	0.128
685	0.129
686	0.13
686	0.13
687	0.129
687	0.128
687	0.127
688	0.126
688	0.124
689	0.124
689	0.125
690	0.125
690	0.125
691	0.124
691	0.124
691	0.124
692	0.124
692	0.124
693	0.124
693	0.124
694	0.124
694	0.122
695	0.122
695	0.124
695	0.125
696	0.125
696	0.125
697	0.125
697	0.124
698	0.124
698	0.122
698	0.121
699	0.121
699	0.119
700	0.116
700	0.114
701	0.114
701	0.113
702	0.111
702	0.11
702	0.109
703	0.108
703	0.107
704	0.106
704	0.106
705	0.106
705	0.107
705	0.106
706	0.106
706	0.106
707	0.105
707	0.104
708	0.103
708	0.102
709	0.101
709	0.099
709	0.096
710	0.093
710	0.091
711	0.09
711	0.088
712	0.087
712	0.086
713	0.084
713	0.083
713	0.082
714	0.08
714	0.079
715	0.077
715	0.076
716	0.074
716	0.073
716	0.071
717	0.07
717	0.069
718	0.066
718	0.064
719	0.063
719	0.061
720	0.06
720	0.058
720	0.056
721	0.053
721	0.051
722	0.049
722	0.047
723	0.045
723	0.045
723	0.043
724	0.042
724	0.04
725	0.038
725	0.037
726	0.036
726	0.034
727	0.033
727	0.032
727	0.031
728	0.029
728	0.028
729	0.028
729	0.027
730	0.026
730	0.025
730	0.023
731	0.022
731	0.021
732	0.02
732	0.019
733	0.017
733	0.016
734	0.014
734	0.012
734	0.011
735	0.01
735	0.008
736	0.006
736	0.004
737	0.002
737	0.001
737	0
738	-0.002
738	-0.005
739	-0.007
739	-0.008
740	-0.01
740	-0.011
741	-0.012
741	-0.014
741	-0.016
742	-0.02
742	-0.024
743	-0.026
743	-0.029
744	-0.031
744	-0.033
744	-0.035
745	-0.037
745	-0.039
746	-0.041
746	-0.041
747	-0.041
747	-0.04
748	-0.039
748	-0.039
748	-0.039
749	-0.039
749	-0.039
750	-0.039
750	-0.04
751	-0.04
751	-0.041
751	-0.041
752	-0.042
752	-0.044
753	-0.045
753	-0.046
754	-0.047
754	-0.047
754	-0.046
755	-0.046
755	-0.044
756	-0.044
756	-0.045
757	-0.047
757	-0.047
758	-0.047
758	-0.048
758	-0.049
759	-0.05
759	-0.052
760	-0.055
760	-0.058
761	-0.06
761	-0.061
761	-0.062
762	-0.064
762	-0.065
763	-0.066
763	-0.069
764	-0.071
764	-0.074
764	-0.076
765	-0.079
765	-0.081
766	-0.082
766	-0.083
767	-0.083
767	-0.086
768	-0.089
768	-0.092
768	-0.093
769	-0.093
769	-0.094
770	-0.095
770	-0.096
771	-0.098
771	-0.101
771	-0.103
772	-0.105
772	-0.107
773	-0.108
773	-0.111
774	-0.114
774	-0.117
775	-0.12
775	-0.123
775	-0.127
776	-0.131
776	-0.135
777	-0.138
777	-0.142
778	-0.146
778	-0.151
778	-0.155
779	-0.156
779	-0.153
780	-0.152
780	-0.153
781	-0.152
781	-0.152
781	-0.152
782	-0.151
782	-0.152
783	-0.151
783	-0.149
784	-0.149
784	-0.151
784	-0.153
785	-0.154
785	-0.156
786	-0.156
786	-0.154
787	-0.15
787	-0.146
788	-0.145
788	-0.146
788	-0.147
789	-0.15
789	-0.15
790	-0.147
790	-0.146
791	-0.146
791	-0.148
791	-0.151
792	-0.146
792	-0.135
793	-0.129
793	-0.125
794	-0.123
794	-0.125
794	-0.128
795	-0.13
795	-0.13
796	-0.13
796	-0.133
797	-0.141
797	-0.152
797	-0.159
798	-0.164
798	-0.167
799	-0.168
799	-0.167
800	-0.167
800	-0.168
801	-0.171
801	-0.172
801	-0.171
802	-0.172
802	-0.173
803	-0.173
803	-0.174
804	-0.172
804	-0.167
804	-0.161
805	-0.157
805	-0.155
806	-0.153
806	-0.151
807	-0.15
807	-0.15
807	-0.15
808	-0.149
808	-0.15
809	-0.155
809	-0.16
810	-0.164
810	-0.166
810	-0.17
811	-0.173
811	-0.174
812	-0.171
812	-0.168
813	-0.168
813	-0.17
813	-0.171
814	-0.172
814	-0.172
815	-0.171
815	-0.168
816	-0.166
816	-0.167
817	-0.171
817	-0.174
817	-0.175
818	-0.174
818	-0.17
819	-0.164
819	-0.161
820	-0.162
820	-0.164
820	-0.166
821	-0.166
821	-0.164
822	-0.164
822	-0.164
823	-0.163
823	-0.165
823	-0.169
824	-0.17
824	-0.167
825	-0.162
825	-0.156
826	-0.15
826	-0.145
826	-0.14
827	-0.133
827	-0.127
828	-0.12
828	-0.115
829	-0.109
829	-0.104
829	-0.101
830	-0.098
830	-0.096
831	-0.093
831	-0.09
832	-0.089
832	-0.087
832	-0.086
833	-0.086
833	-0.085
834	-0.084
834	-0.084
835	-0.083
835	-0.082
835	-0.081
836	-0.08
836	-0.079
837	-0.078
837	-0.077
838	-0.076
838	-0.076
839	-0.075
839	-0.074
839	-0.074
840	-0.073
840	-0.072
841	-0.071
841	-0.07
842	-0.069
842	-0.067
842	-0.066
843	-0.064
843	-0.061
844	-0.059
844	-0.056
845	-0.054
845	-0.052
845	-0.05
846	-0.048
846	-0.047
847	-0.046
847	-0.044
848	-0.044
848	-0.043
848	-0.043
849	-0.043
849	-0.042
850	-0.042
850	-0.043
851	-0.043
851	-0.042
851	-0.042
852	-0.042
852	-0.041
853	-0.041
853	-0.04
854	-0.04
854	-0.039
854	-0.039
855	-0.039
855	-0.039
856	-0.039
856	-0.039
857	-0.039
857	-0.04
857	-0.04
858	-0.04
858	-0.04
859	-0.04
859	-0.039
860	-0.038
860	-0.037
860	-0.036
861	-0.035
861	-0.034
862	-0.034
862	-0.033
863	-0.033
863	-0.032
863	-0.031
864	-0.031
864	-0.03
865	-0.029
865	-0.028
866	-0.028
866	-0.027
866	-0.025
867	-0.024
867	-0.023
868	-0.022
868	-0.021
869	-0.02
869	-0.02
869	-0.02
870	-0.019
870	-0.019
871	-0.019
871	-0.019
872	-0.019
872	-0.019
872	-0.019
873	-0.019
873	-0.019
874	-0.019
874	-0.019
875	-0.019
875	-0.02
875	-0.02
876	-0.02
876	-0.02
877	-0.021
877	-0.021
878	-0.021
878	-0.022
878	-0.022
879	-0.023
879	-0.024
880	-0.024
880	-0.025
881	-0.025
881	-0.025
881	-0.025
882	-0.024
882	-0.023
883	-0.022
883	-0.021
884	-0.02
884	-0.018
884	-0.017
885	-0.015
885	-0.014
886	-0.013
886	-0.012
887	-0.012
887	-0.012
887	-0.012
888	-0.013
888	-0.013
889	-0.013
889	-0.013
890	-0.013
890	-0.014
890	-0.014
891	-0.015
891	-0.015
892	-0.016
892	-0.016
893	-0.016
893	-0.016
893	-0.016
894	-0.016
894	-0.017
895	-0.017
895	-0.018
895	-0.018
896	-0.018
896	-0.018
897	-0.018
897	-0.018
898	-0.018
898	-0.018
898	-0.018
899	-0.017
899	-0.017
900	-0.016
900	-0.016
901	-0.015
901	-0.014
901	-0.013
902	-0.012
902	-0.011
903	-0.01
903	-0.009
904	-0.008
904	-0.007
904	-0.006
905	-0.005
905	-0.005
906	-0.005
906	-0.004
907	-0.005
907	-0.005
907	-0.005
908	-0.005
908	-0.005
909	-0.006
909	-0.006
910	-0.007
910	-0.008
910	-0.008
911	-0.009
911	-0.009
912	-0.01
912	-0.01
913	-0.011
913	-0.011
913	-0.012
914	-0.012
914	-0.013
915	-0.013
915	-0.014
916	-0.014
916	-0.014
916	-0.014
917	-0.013
917	-0.013
918	-0.013
918	-0.012
918	-0.011
919	-0.011
919	-0.01
920	-0.008
920	-0.007
921	-0.006
921	-0.005
921	-0.004
922	-0.003
922	-0.002
923	-0.002
923	-0.001
924	-0.001
924	-0.001
924	-0.001
925	-0.002
925	-0.002
926	-0.003
926	-0.003
927	-0.004
927	-0.005
927	-0.005
928	-0.005
928	-0.005
929	-0.006
929	-0.006
930	-0.006
930	-0.007
930	-0.007
931	-0.007
931	-0.007
932	-0.007
932	-0.008
933	-0.008
933	-0.008
933	-0.008
934	-0.008
934	-0.008
935	-0.008
935	-0.008
935	-0.008
936	-0.008
936	-0.007
937	-0.006
937	-0.006
938	-0.005
938	-0.005
938	-0.004
939	-0.004
939	-0.003
940	-0.003
940	-0.003
941	-0.003
941	-0.003
941	-0.003
942	-0.003
942	-0.003
943	-0.003
943	-0.002
944	-0.002
944	-0.001
944	-0.001
945	-0
945	0
946	0.001
946	0.001
946	0.001
947	0.001
947	0
948	0
948	-0
949	-0
949	-0
949	0
950	0
950	0
951	0
951	0
952	0
952	0.001
952	0.001
953	0.001
953	0.002
954	0.001
954	0.001
955	0.001
955	0
955	0
956	0
956	-0
957	-0.001
957	-0.002
957	-0.003
958	-0.004
958	-0.005
959	-0.005
959	-0.006
960	-0.006
960	-0.007
960	-0.007
961	-0.008
961	-0.008
962	-0.008
962	-0.009
963	-0.009
963	-0.009
963	-0.009
964	-0.01
964	-0.01
965	-0.01
965	-0.01
966	-0.009
966	-0.009
966	-0.009
967	-0.009
967	-0.009
968	-0.008
968	-0.008
968	-0.007
969	-0.007
969	-0.006
970	-0.006
970	-0.006
971	-0.005
971	-0.004
971	-0.004
972	-0.003
972	-0.002
973	-0.001
973	-0
974	0.001
974	0.002
974	0.003
975	0.004
975	0.005
976	0.006
976	0.007
976	0.007
977	0.007
977	0.007
978	0.006
978	0.006
979	0.005
979	0.005
979	0.004
980	0.003
980	0.002
981	0.001
981	0.001
982	0
982	0
982	0
983	0
983	-0
984	-0
984	-0
984	-0
985	-0
985	-0
986	-0.001
986	-0.001
987	-0.001
987	-0.001
987	-0.001
988	-0.001
988	-0.001
989	-0.001
989	-0.001
990	-0.002
990	-0.002
990	-0.001
991	-0.001
991	-0.001
992	-0.001
992	-0.001
992	-0.002
993	-0.002
993	-0.002
994	-0.002
994	-0.002
995	-0.002
995	-0.003
995	-0.003
996	-0.003
996	-0.003
997	-0.002
997	-0.002
997	-0.001
998	0
998	0.001
999	0.002
999	0.003
1000	0.004
1000	0.004
1000	0.004
1001	0.004
1001	0.004
1002	0.004
1002	0.003
1003	0.002
1003	0.001
1003	-0
1004	-0.001
1004	-0.003
1005	-0.004
1005	-0.005
1005	-0.006
1006	-0.007
1006	-0.008
1007	-0.008
1007	-0.009
1008	-0.009
1008	-0.01
1008	-0.01
1009	-0.01
1009	-0.01
1010	-0.01
1010	-0.01
1010	-0.01
1011	-0.01
1011	-0.01
1012	-0.009
1012	-0.009
1013	-0.009
1013	-0.009
1013	-0.008
1014	-0.008
1014	-0.007
1015	-0.006
1015	-0.005
1016	-0.005
1016	-0.004
1016	-0.003
1017	-0.002
1017	-0
1018	0.001
1018	0.003
1018	0.004
1019	0.005
1019	0.007
1020	0.007
1020	0.008
1021	0.009
1021	0.009
1021	0.009
1022	0.009
1022	0.009
1023	0.009
1023	0.009
1023	0.008
1024	0.007
1024	0.007
1025	0.006
1025	0.005
1026	0.005
1026	0.004
1026	0.003
1027	0.002
1027	0.002
1028	0.002
1028	0.001
1028	0.001
1029	0
1029	0
1030	-0
1030	-0.001
1031	-0.001
1031	-0.001
1031	-0.001
1032	-0.001
1032	-0
1033	0
1033	0
1033	0
1034	0
1034	0
1035	0
1035	-0
1036	-0
1036	-0
1036	-0
1037	-0
1037	0
1038	0.001
1038	0.001
1039	0.002
1039	0.003
1039	0.004
1040	0.005
1040	0.006
1041	0.007
1041	0.007
1041	0.008
1042	0.008
1042	0.008
1043	0.008
1043	0.009
1044	0.009
1044	0.009
1044	0.01
1045	0.01
1045	0.011
1046	0.011
1046	0.012
1046	0.013
1047	0.014
1047	0.015
1048	0.016
1048	0.017
1049	0.017
1049	0.017
1049	0.017
1050	0.017
1050	0.017
1051	0.018
1051	0.018
1051	0.019
1052	0.019
1052	0.02
1053	0.021
1053	0.022
1053	0.023
1054	0.024
1054	0.025
1055	0.025
1055	0.026
1056	0.025
1056	0.025
1056	0.024
1057	0.024
1057	0.023
1058	0.023
1058	0.023
1058	0.024
1059	0.024
1059	0.025
1060	0.025
1060	0.026
1061	0.027
1061	0.029
1061	0.03
1062	0.03
1062	0.03
1063	0.031
1063	0.031
1063	0.032
1064	0.033
1064	0.033
1065	0.034
1065	0.035
1066	0.035
1066	0.037
1066	0.038
1067	0.039
1067	0.041
1068	0.042
1068	0.044
1068	0.045
1069	0.047
1069	0.048
1070	0.05
1070	0.053
1071	0.055
1071	0.058
1071	0.06
1072	0.063
1072	0.066
1073	0.07
1073	0.073
1073	0.076
1074	0.079
1074	0.082
1075	0.084
1075	0.087
1076	0.089
1076	0.092
1076	0.094
1077	0.097
1077	0.1
1078	0.103
1078	0.106
1078	0.11
1079	0.113
1079	0.117
1080	0.12
1080	0.124
1080	0.126
1081	0.13
1081	0.132
1082	0.136
1082	0.139
1083	0.142
1083	0.146
1083	0.15
1084	0.154
1084	0.16
1085	0.166
1085	0.173
1085	0.178
1086	0.185
1086	0.19
1087	0.197
1087	0.204
1088	0.21
1088	0.216
1088	0.225
1089	0.232
1089	0.241
1090	0.25
1090	0.262
1090	0.273
1091	0.286
1091	0.3
1092	0.315
1092	0.333
1092	0.351
1093	0.369
1093	0.392
1094	0.415
1094	0.442
1095	0.469
1095	0.506
1095	0.551
1096	0.599
1096	0.655
1097	0.727
1097	0.811
1097	0.935
1098	1.096
1098	1.39
1099	-0
1099	-0
1100	-0
1100	-0
1100	-0
1101	-0
1101	-0
1102	-0
1102	-0
1102	-0
1103	-0
1103	-0
1104	-0
1104	-0
1104	-0
1105	-0
1105	-0
1106	-0
1106	-0
1107	-0
1107	-0
1107	-0
1108	-0
1108	-0
1109	-0
1109	-0
1109	-0
1110	-0
1110	-0
1111	-0
1111	-0
