Data from 15c-2-5a_Absorbance__86__01887.txt Node

Date: Fri Jan 19 13:46:09 CET 2024
User: Marek
Spectrometer: MAYP115816
Trigger mode: 0
Integration Time (sec): 2.000000E-1
Scans to average: 10
Electric dark correction enabled: true
Nonlinearity correction enabled: true
Boxcar width: 5
XAxis mode: Wavelengths
Number of Pixels in Spectrum: 2068
>>>>>Begin Spectral Data<<<<<
199	-2.255
199	-2.097
200	-1.951
200	-1.829
201	-1.759
201	-1.705
202	-1.631
202	-1.57
203	-1.517
203	-1.471
204	-1.443
204	-1.418
205	-1.398
205	-1.386
205	-1.384
206	-1.378
206	-1.374
207	-1.368
207	-1.364
208	-1.362
208	-1.358
209	-1.356
209	-1.351
210	-1.348
210	-1.347
211	-1.346
211	-1.344
212	-1.345
212	-1.344
213	-1.344
213	-1.341
213	-1.341
214	-1.336
214	-1.335
215	-1.332
215	-1.331
216	-1.327
216	-1.327
217	-1.322
217	-1.32
218	-1.318
218	-1.315
219	-1.311
219	-1.311
220	-1.309
220	-1.309
221	-1.307
221	-1.302
221	-1.296
222	-1.294
222	-1.29
223	-1.284
223	-1.28
224	-1.273
224	-1.266
225	-1.258
225	-1.247
226	-1.236
226	-1.226
227	-1.213
227	-1.198
228	-1.182
228	-1.166
229	-1.146
229	-1.124
229	-1.097
230	-1.068
230	-1.037
231	-1.002
231	-0.964
232	-0.924
232	-0.881
233	-0.835
233	-0.787
234	-0.739
234	-0.691
235	-0.643
235	-0.596
236	-0.549
236	-0.504
236	-0.46
237	-0.417
237	-0.376
238	-0.338
238	-0.302
239	-0.269
239	-0.238
240	-0.208
240	-0.181
241	-0.156
241	-0.133
242	-0.112
242	-0.093
243	-0.075
243	-0.059
243	-0.044
244	-0.03
244	-0.018
245	-0.006
245	0.005
246	0.014
246	0.023
247	0.031
247	0.039
248	0.046
248	0.053
249	0.059
249	0.064
250	0.07
250	0.075
250	0.079
251	0.084
251	0.088
252	0.092
252	0.096
253	0.1
253	0.103
254	0.106
254	0.109
255	0.111
255	0.114
256	0.116
256	0.118
257	0.12
257	0.122
258	0.123
258	0.125
258	0.126
259	0.127
259	0.128
260	0.129
260	0.129
261	0.13
261	0.13
262	0.131
262	0.131
263	0.132
263	0.132
264	0.132
264	0.132
265	0.132
265	0.132
265	0.132
266	0.132
266	0.131
267	0.131
267	0.13
268	0.13
268	0.129
269	0.128
269	0.127
270	0.126
270	0.125
271	0.124
271	0.124
272	0.123
272	0.122
272	0.121
273	0.12
273	0.119
274	0.118
274	0.117
275	0.116
275	0.116
276	0.115
276	0.114
277	0.112
277	0.111
278	0.109
278	0.108
278	0.106
279	0.105
279	0.104
280	0.103
280	0.102
281	0.101
281	0.1
282	0.099
282	0.099
283	0.098
283	0.098
284	0.098
284	0.097
285	0.096
285	0.095
285	0.094
286	0.094
286	0.093
287	0.092
287	0.091
288	0.091
288	0.09
289	0.089
289	0.089
290	0.088
290	0.087
291	0.087
291	0.086
292	0.086
292	0.085
292	0.085
293	0.084
293	0.084
294	0.083
294	0.083
295	0.082
295	0.082
296	0.082
296	0.082
297	0.081
297	0.081
298	0.081
298	0.08
298	0.08
299	0.08
299	0.079
300	0.079
300	0.079
301	0.078
301	0.078
302	0.078
302	0.078
303	0.077
303	0.077
304	0.077
304	0.076
305	0.076
305	0.076
305	0.076
306	0.075
306	0.075
307	0.075
307	0.074
308	0.074
308	0.074
309	0.073
309	0.073
310	0.072
310	0.072
311	0.072
311	0.071
311	0.071
312	0.071
312	0.07
313	0.07
313	0.069
314	0.069
314	0.069
315	0.068
315	0.068
316	0.067
316	0.067
317	0.066
317	0.066
318	0.066
318	0.065
318	0.065
319	0.064
319	0.064
320	0.063
320	0.063
321	0.062
321	0.062
322	0.061
322	0.061
323	0.06
323	0.06
324	0.059
324	0.058
324	0.058
325	0.057
325	0.057
326	0.057
326	0.056
327	0.056
327	0.055
328	0.055
328	0.055
329	0.054
329	0.054
330	0.053
330	0.053
330	0.052
331	0.052
331	0.051
332	0.051
332	0.05
333	0.05
333	0.05
334	0.049
334	0.049
335	0.048
335	0.048
336	0.047
336	0.047
336	0.046
337	0.045
337	0.045
338	0.044
338	0.044
339	0.043
339	0.043
340	0.042
340	0.042
341	0.041
341	0.041
342	0.041
342	0.041
342	0.04
343	0.039
343	0.039
344	0.039
344	0.038
345	0.038
345	0.038
346	0.037
346	0.037
347	0.036
347	0.035
348	0.035
348	0.034
348	0.034
349	0.033
349	0.032
350	0.032
350	0.031
351	0.03
351	0.03
352	0.029
352	0.028
353	0.028
353	0.027
354	0.026
354	0.025
354	0.024
355	0.023
355	0.023
356	0.022
356	0.021
357	0.021
357	0.021
358	0.02
358	0.021
359	0.021
359	0.022
360	0.022
360	0.023
360	0.023
361	0.024
361	0.024
362	0.024
362	0.024
363	0.024
363	0.024
364	0.024
364	0.023
365	0.023
365	0.022
366	0.022
366	0.022
366	0.022
367	0.021
367	0.021
368	0.021
368	0.021
369	0.02
369	0.02
370	0.02
370	0.019
371	0.019
371	0.019
372	0.018
372	0.018
372	0.018
373	0.017
373	0.017
374	0.017
374	0.017
375	0.017
375	0.017
376	0.017
376	0.018
377	0.018
377	0.019
378	0.019
378	0.019
378	0.019
379	0.02
379	0.02
380	0.02
380	0.02
381	0.02
381	0.02
382	0.019
382	0.019
383	0.018
383	0.018
383	0.018
384	0.018
384	0.017
385	0.017
385	0.017
386	0.017
386	0.017
387	0.017
387	0.017
388	0.017
388	0.017
389	0.017
389	0.017
389	0.017
390	0.017
390	0.017
391	0.017
391	0.018
392	0.018
392	0.018
393	0.018
393	0.018
394	0.017
394	0.017
394	0.017
395	0.017
395	0.016
396	0.016
396	0.016
397	0.016
397	0.017
398	0.017
398	0.017
399	0.017
399	0.017
400	0.017
400	0.016
400	0.016
401	0.016
401	0.015
402	0.014
402	0.014
403	0.014
403	0.014
404	0.013
404	0.013
405	0.013
405	0.013
405	0.013
406	0.012
406	0.012
407	0.012
407	0.011
408	0.011
408	0.01
409	0.01
409	0.01
410	0.009
410	0.009
411	0.009
411	0.009
411	0.009
412	0.009
412	0.009
413	0.009
413	0.009
414	0.008
414	0.008
415	0.008
415	0.008
416	0.007
416	0.007
416	0.006
417	0.006
417	0.006
418	0.006
418	0.006
419	0.007
419	0.007
420	0.008
420	0.009
421	0.009
421	0.01
421	0.01
422	0.01
422	0.01
423	0.01
423	0.01
424	0.009
424	0.009
425	0.008
425	0.007
426	0.007
426	0.006
427	0.006
427	0.006
427	0.007
428	0.007
428	0.008
429	0.008
429	0.009
430	0.009
430	0.009
431	0.008
431	0.008
432	0.008
432	0.007
432	0.006
433	0.005
433	0.004
434	0.003
434	0.003
435	0.003
435	0.003
436	0.003
436	0.003
437	0.003
437	0.003
437	0.003
438	0.003
438	0.003
439	0.003
439	0.002
440	0.002
440	0.002
441	0.002
441	0.002
442	0.003
442	0.003
442	0.003
443	0.004
443	0.004
444	0.004
444	0.004
445	0.004
445	0.004
446	0.004
446	0.004
447	0.003
447	0.003
447	0.003
448	0.003
448	0.003
449	0.003
449	0.002
450	0.002
450	0.002
451	0.002
451	0.001
452	0.001
452	-0
452	-0.001
453	-0.001
453	-0.002
454	-0.003
454	-0.003
455	-0.003
455	-0.004
456	-0.004
456	-0.005
457	-0.005
457	-0.005
458	-0.005
458	-0.005
458	-0.006
459	-0.006
459	-0.006
460	-0.006
460	-0.007
461	-0.008
461	-0.008
462	-0.008
462	-0.008
463	-0.008
463	-0.007
463	-0.007
464	-0.006
464	-0.006
465	-0.006
465	-0.006
466	-0.006
466	-0.006
467	-0.007
467	-0.008
467	-0.009
468	-0.01
468	-0.012
469	-0.014
469	-0.015
470	-0.016
470	-0.016
471	-0.017
471	-0.017
472	-0.017
472	-0.017
472	-0.017
473	-0.016
473	-0.015
474	-0.014
474	-0.014
475	-0.013
475	-0.013
476	-0.013
476	-0.013
477	-0.013
477	-0.013
477	-0.013
478	-0.013
478	-0.013
479	-0.013
479	-0.013
480	-0.013
480	-0.012
481	-0.012
481	-0.011
482	-0.011
482	-0.01
482	-0.009
483	-0.007
483	-0.005
484	-0.002
484	-0.001
485	0.001
485	0.001
486	0.002
486	0.002
487	0.002
487	0.002
487	0.001
488	0
488	-0.002
489	-0.004
489	-0.006
490	-0.007
490	-0.009
491	-0.01
491	-0.01
492	-0.01
492	-0.01
492	-0.01
493	-0.01
493	-0.01
494	-0.009
494	-0.007
495	-0.006
495	-0.006
496	-0.005
496	-0.005
496	-0.004
497	-0.004
497	-0.003
498	-0.003
498	-0.003
499	-0.003
499	-0.004
500	-0.004
500	-0.003
501	-0.003
501	-0.002
501	-0.001
502	-0
502	0
503	0.001
503	0.002
504	0.002
504	0.002
505	0.001
505	0.001
506	0
506	0
506	0
507	-0
507	-0.001
508	-0.001
508	-0.002
509	-0.002
509	-0.002
510	-0.001
510	-0.001
511	-0.001
511	-0.002
511	-0.003
512	-0.003
512	-0.003
513	-0.004
513	-0.005
514	-0.006
514	-0.007
515	-0.008
515	-0.009
515	-0.011
516	-0.011
516	-0.012
517	-0.011
517	-0.011
518	-0.011
518	-0.012
519	-0.012
519	-0.014
520	-0.016
520	-0.017
520	-0.019
521	-0.021
521	-0.024
522	-0.027
522	-0.029
523	-0.031
523	-0.033
524	-0.033
524	-0.033
524	-0.032
525	-0.03
525	-0.028
526	-0.025
526	-0.022
527	-0.019
527	-0.017
528	-0.015
528	-0.013
529	-0.011
529	-0.01
529	-0.009
530	-0.008
530	-0.008
531	-0.007
531	-0.007
532	-0.007
532	-0.007
533	-0.006
533	-0.006
533	-0.005
534	-0.006
534	-0.006
535	-0.006
535	-0.006
536	-0.006
536	-0.006
537	-0.006
537	-0.006
538	-0.006
538	-0.007
538	-0.008
539	-0.008
539	-0.008
540	-0.009
540	-0.01
541	-0.011
541	-0.011
542	-0.012
542	-0.013
542	-0.013
543	-0.014
543	-0.014
544	-0.014
544	-0.015
545	-0.015
545	-0.014
546	-0.013
546	-0.013
547	-0.013
547	-0.015
547	-0.016
548	-0.017
548	-0.018
549	-0.019
549	-0.02
550	-0.021
550	-0.022
551	-0.023
551	-0.024
551	-0.025
552	-0.025
552	-0.025
553	-0.024
553	-0.024
554	-0.023
554	-0.024
555	-0.025
555	-0.026
556	-0.028
556	-0.029
556	-0.031
557	-0.033
557	-0.034
558	-0.035
558	-0.036
559	-0.036
559	-0.036
560	-0.035
560	-0.035
560	-0.034
561	-0.034
561	-0.032
562	-0.032
562	-0.032
563	-0.033
563	-0.034
564	-0.035
564	-0.037
564	-0.038
565	-0.038
565	-0.038
566	-0.038
566	-0.038
567	-0.037
567	-0.035
568	-0.032
568	-0.03
568	-0.027
569	-0.025
569	-0.022
570	-0.02
570	-0.02
571	-0.018
571	-0.017
572	-0.016
572	-0.015
573	-0.015
573	-0.014
573	-0.014
574	-0.014
574	-0.014
575	-0.013
575	-0.011
576	-0.009
576	-0.009
577	-0.01
577	-0.01
577	-0.01
578	-0.011
578	-0.01
579	-0.009
579	-0.007
580	-0.007
580	-0.009
581	-0.012
581	-0.014
581	-0.015
582	-0.015
582	-0.014
583	-0.013
583	-0.013
584	-0.015
584	-0.018
585	-0.019
585	-0.019
585	-0.018
586	-0.018
586	-0.018
587	-0.019
587	-0.021
588	-0.024
588	-0.026
589	-0.027
589	-0.028
590	-0.029
590	-0.029
590	-0.028
591	-0.027
591	-0.027
592	-0.026
592	-0.027
593	-0.027
593	-0.027
594	-0.027
594	-0.028
594	-0.028
595	-0.028
595	-0.03
596	-0.031
596	-0.031
597	-0.029
597	-0.027
598	-0.026
598	-0.024
598	-0.023
599	-0.023
599	-0.023
600	-0.025
600	-0.026
601	-0.027
601	-0.027
602	-0.029
602	-0.03
602	-0.032
603	-0.033
603	-0.032
604	-0.03
604	-0.029
605	-0.027
605	-0.024
606	-0.023
606	-0.024
606	-0.024
607	-0.025
607	-0.024
608	-0.025
608	-0.026
609	-0.028
609	-0.029
610	-0.031
610	-0.033
610	-0.034
611	-0.034
611	-0.034
612	-0.033
612	-0.032
613	-0.031
613	-0.03
614	-0.03
614	-0.031
614	-0.031
615	-0.031
615	-0.031
616	-0.031
616	-0.032
617	-0.032
617	-0.033
618	-0.035
618	-0.036
618	-0.036
619	-0.037
619	-0.036
620	-0.035
620	-0.034
621	-0.034
621	-0.034
622	-0.034
622	-0.034
622	-0.034
623	-0.035
623	-0.034
624	-0.034
624	-0.034
625	-0.035
625	-0.035
626	-0.036
626	-0.036
626	-0.036
627	-0.035
627	-0.035
628	-0.034
628	-0.034
629	-0.034
629	-0.034
630	-0.035
630	-0.036
630	-0.036
631	-0.037
631	-0.037
632	-0.038
632	-0.039
633	-0.039
633	-0.039
634	-0.038
634	-0.037
634	-0.035
635	-0.034
635	-0.033
636	-0.032
636	-0.031
637	-0.03
637	-0.03
638	-0.029
638	-0.028
638	-0.028
639	-0.029
639	-0.029
640	-0.029
640	-0.029
641	-0.028
641	-0.028
642	-0.027
642	-0.026
642	-0.025
643	-0.025
643	-0.024
644	-0.023
644	-0.022
645	-0.021
645	-0.02
646	-0.018
646	-0.016
646	-0.013
647	-0.01
647	-0.008
648	-0.006
648	-0.004
649	-0.002
649	-0
650	0.002
650	0.004
650	0.006
651	0.007
651	0.008
652	0.009
652	0.01
653	0.012
653	0.019
653	0.04
654	0.037
654	0.035
655	0.034
655	0.035
656	0.035
656	0.036
657	0.037
657	0.038
657	0.039
658	0.036
658	0.022
659	0.024
659	0.028
660	0.031
660	0.033
661	0.033
661	0.034
661	0.035
662	0.037
662	0.038
663	0.04
663	0.042
664	0.043
664	0.044
665	0.045
665	0.046
665	0.048
666	0.049
666	0.05
667	0.051
667	0.053
668	0.054
668	0.055
669	0.056
669	0.058
669	0.061
670	0.063
670	0.065
671	0.066
671	0.067
672	0.068
672	0.069
672	0.069
673	0.07
673	0.071
674	0.071
674	0.072
675	0.071
675	0.072
676	0.073
676	0.075
676	0.077
677	0.078
677	0.08
678	0.082
678	0.083
679	0.084
679	0.085
680	0.087
680	0.088
680	0.088
681	0.088
681	0.089
682	0.089
682	0.09
683	0.092
683	0.094
684	0.095
684	0.096
684	0.096
685	0.096
685	0.097
686	0.098
686	0.098
687	0.097
687	0.097
687	0.096
688	0.095
688	0.094
689	0.095
689	0.096
690	0.096
690	0.096
691	0.095
691	0.096
691	0.096
692	0.095
692	0.094
693	0.094
693	0.094
694	0.094
694	0.092
695	0.092
695	0.093
695	0.094
696	0.094
696	0.093
697	0.093
697	0.093
698	0.092
698	0.091
698	0.09
699	0.089
699	0.088
700	0.085
700	0.084
701	0.084
701	0.083
702	0.082
702	0.082
702	0.081
703	0.08
703	0.079
704	0.079
704	0.079
705	0.08
705	0.08
705	0.08
706	0.08
706	0.08
707	0.079
707	0.078
708	0.077
708	0.076
709	0.075
709	0.073
709	0.071
710	0.068
710	0.066
711	0.065
711	0.064
712	0.062
712	0.062
713	0.061
713	0.06
713	0.059
714	0.057
714	0.055
715	0.054
715	0.053
716	0.051
716	0.05
716	0.049
717	0.048
717	0.047
718	0.046
718	0.044
719	0.043
719	0.043
720	0.041
720	0.04
720	0.038
721	0.036
721	0.034
722	0.033
722	0.031
723	0.03
723	0.029
723	0.028
724	0.027
724	0.025
725	0.024
725	0.022
726	0.021
726	0.02
727	0.018
727	0.017
727	0.016
728	0.015
728	0.014
729	0.014
729	0.014
730	0.013
730	0.012
730	0.011
731	0.01
731	0.01
732	0.009
732	0.008
733	0.007
733	0.006
734	0.004
734	0.002
734	0.001
735	-0
735	-0.002
736	-0.004
736	-0.006
737	-0.007
737	-0.008
737	-0.009
738	-0.011
738	-0.013
739	-0.015
739	-0.017
740	-0.018
740	-0.019
741	-0.02
741	-0.022
741	-0.025
742	-0.029
742	-0.033
743	-0.035
743	-0.037
744	-0.039
744	-0.04
744	-0.042
745	-0.044
745	-0.046
746	-0.047
746	-0.047
747	-0.046
747	-0.045
748	-0.043
748	-0.042
748	-0.042
749	-0.042
749	-0.042
750	-0.042
750	-0.043
751	-0.044
751	-0.044
751	-0.045
752	-0.046
752	-0.048
753	-0.05
753	-0.051
754	-0.051
754	-0.051
754	-0.051
755	-0.049
755	-0.048
756	-0.047
756	-0.048
757	-0.049
757	-0.048
758	-0.048
758	-0.049
758	-0.05
759	-0.05
759	-0.053
760	-0.055
760	-0.058
761	-0.061
761	-0.062
761	-0.063
762	-0.065
762	-0.066
763	-0.067
763	-0.069
764	-0.072
764	-0.075
764	-0.077
765	-0.079
765	-0.081
766	-0.083
766	-0.083
767	-0.084
767	-0.087
768	-0.09
768	-0.092
768	-0.093
769	-0.093
769	-0.094
770	-0.095
770	-0.096
771	-0.098
771	-0.1
771	-0.103
772	-0.104
772	-0.105
773	-0.107
773	-0.109
774	-0.112
774	-0.115
775	-0.118
775	-0.121
775	-0.125
776	-0.129
776	-0.132
777	-0.136
777	-0.14
778	-0.145
778	-0.15
778	-0.154
779	-0.155
779	-0.152
780	-0.152
780	-0.153
781	-0.152
781	-0.152
781	-0.152
782	-0.151
782	-0.151
783	-0.151
783	-0.149
784	-0.149
784	-0.152
784	-0.153
785	-0.155
785	-0.156
786	-0.157
786	-0.154
787	-0.15
787	-0.146
788	-0.145
788	-0.146
788	-0.147
789	-0.15
789	-0.15
790	-0.147
790	-0.146
791	-0.147
791	-0.149
791	-0.151
792	-0.146
792	-0.136
793	-0.13
793	-0.125
794	-0.123
794	-0.125
794	-0.129
795	-0.131
795	-0.13
796	-0.131
796	-0.133
797	-0.142
797	-0.152
797	-0.159
798	-0.164
798	-0.167
799	-0.168
799	-0.167
800	-0.167
800	-0.169
801	-0.171
801	-0.172
801	-0.172
802	-0.172
802	-0.173
803	-0.174
803	-0.174
804	-0.173
804	-0.168
804	-0.161
805	-0.157
805	-0.155
806	-0.153
806	-0.152
807	-0.151
807	-0.15
807	-0.15
808	-0.149
808	-0.15
809	-0.155
809	-0.16
810	-0.164
810	-0.167
810	-0.17
811	-0.173
811	-0.174
812	-0.171
812	-0.168
813	-0.169
813	-0.17
813	-0.171
814	-0.172
814	-0.173
815	-0.171
815	-0.168
816	-0.167
816	-0.167
817	-0.171
817	-0.175
817	-0.175
818	-0.174
818	-0.17
819	-0.164
819	-0.161
820	-0.162
820	-0.164
820	-0.166
821	-0.166
821	-0.165
822	-0.164
822	-0.164
823	-0.163
823	-0.164
823	-0.167
824	-0.167
824	-0.163
825	-0.157
825	-0.15
826	-0.144
826	-0.139
826	-0.133
827	-0.126
827	-0.119
828	-0.113
828	-0.107
829	-0.102
829	-0.098
829	-0.095
830	-0.092
830	-0.09
831	-0.087
831	-0.085
832	-0.083
832	-0.082
832	-0.081
833	-0.081
833	-0.08
834	-0.08
834	-0.079
835	-0.079
835	-0.078
835	-0.078
836	-0.077
836	-0.076
837	-0.075
837	-0.074
838	-0.073
838	-0.073
839	-0.072
839	-0.071
839	-0.07
840	-0.069
840	-0.068
841	-0.067
841	-0.066
842	-0.064
842	-0.061
842	-0.059
843	-0.057
843	-0.054
844	-0.051
844	-0.048
845	-0.046
845	-0.044
845	-0.042
846	-0.041
846	-0.04
847	-0.039
847	-0.039
848	-0.039
848	-0.038
848	-0.038
849	-0.038
849	-0.038
850	-0.038
850	-0.039
851	-0.038
851	-0.038
851	-0.038
852	-0.038
852	-0.037
853	-0.037
853	-0.037
854	-0.036
854	-0.036
854	-0.036
855	-0.036
855	-0.036
856	-0.036
856	-0.036
857	-0.036
857	-0.036
857	-0.036
858	-0.036
858	-0.035
859	-0.035
859	-0.034
860	-0.033
860	-0.031
860	-0.03
861	-0.029
861	-0.028
862	-0.027
862	-0.026
863	-0.026
863	-0.026
863	-0.025
864	-0.025
864	-0.025
865	-0.024
865	-0.024
866	-0.024
866	-0.024
866	-0.023
867	-0.022
867	-0.022
868	-0.021
868	-0.021
869	-0.02
869	-0.02
869	-0.02
870	-0.02
870	-0.02
871	-0.019
871	-0.019
872	-0.019
872	-0.019
872	-0.018
873	-0.018
873	-0.018
874	-0.017
874	-0.017
875	-0.016
875	-0.016
875	-0.016
876	-0.016
876	-0.016
877	-0.017
877	-0.017
878	-0.017
878	-0.018
878	-0.018
879	-0.019
879	-0.02
880	-0.02
880	-0.021
881	-0.021
881	-0.021
881	-0.02
882	-0.02
882	-0.019
883	-0.017
883	-0.016
884	-0.014
884	-0.013
884	-0.011
885	-0.01
885	-0.009
886	-0.008
886	-0.007
887	-0.007
887	-0.007
887	-0.007
888	-0.008
888	-0.009
889	-0.009
889	-0.009
890	-0.01
890	-0.011
890	-0.011
891	-0.012
891	-0.012
892	-0.013
892	-0.013
893	-0.013
893	-0.013
893	-0.013
894	-0.014
894	-0.014
895	-0.014
895	-0.014
895	-0.014
896	-0.014
896	-0.014
897	-0.014
897	-0.014
898	-0.014
898	-0.014
898	-0.014
899	-0.014
899	-0.013
900	-0.013
900	-0.012
901	-0.011
901	-0.011
901	-0.01
902	-0.009
902	-0.007
903	-0.007
903	-0.005
904	-0.004
904	-0.004
904	-0.003
905	-0.002
905	-0.002
906	-0.002
906	-0.002
907	-0.002
907	-0.002
907	-0.002
908	-0.003
908	-0.004
909	-0.004
909	-0.005
910	-0.005
910	-0.006
910	-0.006
911	-0.007
911	-0.007
912	-0.007
912	-0.007
913	-0.008
913	-0.008
913	-0.008
914	-0.009
914	-0.009
915	-0.009
915	-0.01
916	-0.009
916	-0.009
916	-0.009
917	-0.008
917	-0.008
918	-0.007
918	-0.006
918	-0.005
919	-0.004
919	-0.003
920	-0.002
920	-0.001
921	-0
921	0
921	0
922	0.001
922	0
923	0
923	-0
924	-0.001
924	-0.001
924	-0.002
925	-0.003
925	-0.004
926	-0.005
926	-0.006
927	-0.006
927	-0.007
927	-0.007
928	-0.008
928	-0.008
929	-0.008
929	-0.008
930	-0.008
930	-0.007
930	-0.007
931	-0.007
931	-0.007
932	-0.007
932	-0.007
933	-0.007
933	-0.006
933	-0.006
934	-0.006
934	-0.006
935	-0.006
935	-0.006
935	-0.006
936	-0.005
936	-0.005
937	-0.004
937	-0.003
938	-0.002
938	-0.001
938	-0.001
939	0
939	0.001
940	0.001
940	0.001
941	0.002
941	0.002
941	0.002
942	0.002
942	0.002
943	0.002
943	0.002
944	0.002
944	0.002
944	0.003
945	0.003
945	0.003
946	0.003
946	0.003
946	0.003
947	0.002
947	0.002
948	0.002
948	0.001
949	0.001
949	0.001
949	0.001
950	0.001
950	0.001
951	0.001
951	0.001
952	0.001
952	0.001
952	0.001
953	0.001
953	0.001
954	0
954	-0
955	-0
955	-0.001
955	-0.001
956	-0.001
956	-0.002
957	-0.002
957	-0.003
957	-0.004
958	-0.004
958	-0.005
959	-0.005
959	-0.005
960	-0.005
960	-0.005
960	-0.005
961	-0.005
961	-0.005
962	-0.004
962	-0.004
963	-0.003
963	-0.003
963	-0.003
964	-0.003
964	-0.002
965	-0.003
965	-0.002
966	-0.002
966	-0.002
966	-0.002
967	-0.002
967	-0.002
968	-0.002
968	-0.002
968	-0.001
969	-0.001
969	-0.001
970	-0
970	-0
971	-0
971	0
971	0
972	0.001
972	0.002
973	0.002
973	0.002
974	0.003
974	0.003
974	0.004
975	0.005
975	0.006
976	0.006
976	0.007
976	0.007
977	0.007
977	0.006
978	0.006
978	0.006
979	0.005
979	0.005
979	0.004
980	0.002
980	0.001
981	0.001
981	-0
982	-0.001
982	-0.001
982	-0.002
983	-0.002
983	-0.003
984	-0.004
984	-0.004
984	-0.005
985	-0.005
985	-0.005
986	-0.006
986	-0.006
987	-0.006
987	-0.006
987	-0.006
988	-0.005
988	-0.005
989	-0.004
989	-0.003
990	-0.003
990	-0.002
990	-0.001
991	-0
991	0
992	0
992	0
992	0
993	-0
993	-0
994	-0.001
994	-0.001
995	-0.002
995	-0.002
995	-0.003
996	-0.003
996	-0.004
997	-0.004
997	-0.004
997	-0.003
998	-0.002
998	-0.001
999	-0
999	0.001
1000	0.002
1000	0.002
1000	0.003
1001	0.004
1001	0.004
1002	0.005
1002	0.004
1003	0.004
1003	0.003
1003	0.002
1004	0.001
1004	0
1005	-0.001
1005	-0.002
1005	-0.003
1006	-0.005
1006	-0.005
1007	-0.006
1007	-0.007
1008	-0.007
1008	-0.007
1008	-0.008
1009	-0.007
1009	-0.007
1010	-0.006
1010	-0.006
1010	-0.006
1011	-0.005
1011	-0.005
1012	-0.004
1012	-0.004
1013	-0.003
1013	-0.003
1013	-0.003
1014	-0.003
1014	-0.002
1015	-0.002
1015	-0.001
1016	-0.001
1016	-0.001
1016	-0
1017	0
1017	0.001
1018	0.002
1018	0.002
1018	0.003
1019	0.004
1019	0.004
1020	0.005
1020	0.005
1021	0.005
1021	0.005
1021	0.006
1022	0.006
1022	0.006
1023	0.006
1023	0.005
1023	0.005
1024	0.005
1024	0.005
1025	0.005
1025	0.005
1026	0.004
1026	0.004
1026	0.004
1027	0.004
1027	0.004
1028	0.004
1028	0.004
1028	0.003
1029	0.002
1029	0.002
1030	0.001
1030	0
1031	-0
1031	-0.001
1031	-0.001
1032	-0.002
1032	-0.002
1033	-0.002
1033	-0.002
1033	-0.002
1034	-0.003
1034	-0.003
1035	-0.003
1035	-0.003
1036	-0.003
1036	-0.003
1036	-0.003
1037	-0.002
1037	-0.002
1038	-0.001
1038	-0
1039	0.001
1039	0.003
1039	0.004
1040	0.005
1040	0.006
1041	0.007
1041	0.007
1041	0.008
1042	0.008
1042	0.008
1043	0.008
1043	0.008
1044	0.008
1044	0.008
1044	0.008
1045	0.009
1045	0.009
1046	0.009
1046	0.01
1046	0.012
1047	0.013
1047	0.015
1048	0.016
1048	0.018
1049	0.019
1049	0.019
1049	0.02
1050	0.021
1050	0.022
1051	0.022
1051	0.023
1051	0.023
1052	0.024
1052	0.024
1053	0.025
1053	0.025
1053	0.026
1054	0.026
1054	0.026
1055	0.027
1055	0.027
1056	0.026
1056	0.026
1056	0.025
1057	0.025
1057	0.025
1058	0.025
1058	0.025
1058	0.026
1059	0.026
1059	0.027
1060	0.028
1060	0.029
1061	0.03
1061	0.032
1061	0.033
1062	0.034
1062	0.034
1063	0.035
1063	0.035
1063	0.036
1064	0.037
1064	0.038
1065	0.039
1065	0.039
1066	0.04
1066	0.041
1066	0.042
1067	0.044
1067	0.046
1068	0.048
1068	0.049
1068	0.05
1069	0.052
1069	0.053
1070	0.055
1070	0.058
1071	0.06
1071	0.063
1071	0.065
1072	0.068
1072	0.071
1073	0.074
1073	0.078
1073	0.081
1074	0.084
1074	0.087
1075	0.089
1075	0.092
1076	0.094
1076	0.097
1076	0.099
1077	0.102
1077	0.105
1078	0.108
1078	0.111
1078	0.114
1079	0.117
1079	0.12
1080	0.123
1080	0.127
1080	0.129
1081	0.132
1081	0.135
1082	0.139
1082	0.142
1083	0.146
1083	0.15
1083	0.155
1084	0.159
1084	0.164
1085	0.17
1085	0.176
1085	0.182
1086	0.187
1086	0.193
1087	0.199
1087	0.206
1088	0.213
1088	0.22
1088	0.229
1089	0.237
1089	0.246
1090	0.256
1090	0.267
1090	0.279
1091	0.292
1091	0.307
1092	0.322
1092	0.339
1092	0.355
1093	0.373
1093	0.393
1094	0.415
1094	0.441
1095	0.467
1095	0.502
1095	0.545
1096	0.589
1096	0.643
1097	0.712
1097	0.789
1097	0.898
1098	1.051
1098	1.298
1099	2.021
1099	-0
1100	-0
1100	-0
1100	-0
1101	-0
1101	-0
1102	-0
1102	-0
1102	-0
1103	-0
1103	-0
1104	-0
1104	-0
1104	-0
1105	-0
1105	-0
1106	-0
1106	-0
1107	-0
1107	-0
1107	-0
1108	-0
1108	-0
1109	-0
1109	-0
1109	-0
1110	-0
1110	-0
1111	-0
1111	-0
