Data from 15c-2-5a_Absorbance__696__02497.txt Node

Date: Fri Jan 19 14:06:29 CET 2024
User: Marek
Spectrometer: MAYP115816
Trigger mode: 0
Integration Time (sec): 2.000000E-1
Scans to average: 10
Electric dark correction enabled: true
Nonlinearity correction enabled: true
Boxcar width: 5
XAxis mode: Wavelengths
Number of Pixels in Spectrum: 2068
>>>>>Begin Spectral Data<<<<<
199	-2.289
199	-2.131
200	-1.985
200	-1.863
201	-1.793
201	-1.738
202	-1.664
202	-1.603
203	-1.55
203	-1.504
204	-1.476
204	-1.451
205	-1.431
205	-1.419
205	-1.417
206	-1.411
206	-1.407
207	-1.402
207	-1.397
208	-1.395
208	-1.392
209	-1.389
209	-1.384
210	-1.382
210	-1.38
211	-1.378
211	-1.377
212	-1.377
212	-1.377
213	-1.376
213	-1.373
213	-1.372
214	-1.368
214	-1.367
215	-1.364
215	-1.362
216	-1.359
216	-1.358
217	-1.353
217	-1.351
218	-1.349
218	-1.346
219	-1.342
219	-1.342
220	-1.34
220	-1.339
221	-1.338
221	-1.332
221	-1.327
222	-1.325
222	-1.321
223	-1.315
223	-1.311
224	-1.303
224	-1.296
225	-1.288
225	-1.277
226	-1.266
226	-1.255
227	-1.242
227	-1.227
228	-1.211
228	-1.195
229	-1.174
229	-1.153
229	-1.126
230	-1.097
230	-1.064
231	-1.028
231	-0.989
232	-0.948
232	-0.904
233	-0.856
233	-0.806
234	-0.756
234	-0.705
235	-0.654
235	-0.604
236	-0.554
236	-0.505
236	-0.457
237	-0.41
237	-0.365
238	-0.323
238	-0.282
239	-0.244
239	-0.207
240	-0.173
240	-0.141
241	-0.111
241	-0.083
242	-0.057
242	-0.034
243	-0.012
243	0.009
243	0.028
244	0.045
244	0.061
245	0.076
245	0.09
246	0.103
246	0.115
247	0.126
247	0.136
248	0.146
248	0.155
249	0.163
249	0.17
250	0.178
250	0.184
250	0.191
251	0.197
251	0.202
252	0.208
252	0.213
253	0.218
253	0.222
254	0.226
254	0.23
255	0.234
255	0.237
256	0.24
256	0.243
257	0.245
257	0.247
258	0.249
258	0.251
258	0.253
259	0.254
259	0.256
260	0.257
260	0.258
261	0.259
261	0.26
262	0.261
262	0.261
263	0.262
263	0.262
264	0.263
264	0.263
265	0.264
265	0.264
265	0.264
266	0.264
266	0.264
267	0.264
267	0.263
268	0.263
268	0.262
269	0.262
269	0.261
270	0.26
270	0.259
271	0.258
271	0.257
272	0.257
272	0.256
272	0.255
273	0.254
273	0.253
274	0.252
274	0.251
275	0.25
275	0.249
276	0.249
276	0.247
277	0.246
277	0.245
278	0.242
278	0.24
278	0.238
279	0.236
279	0.235
280	0.234
280	0.233
281	0.232
281	0.231
282	0.23
282	0.23
283	0.23
283	0.23
284	0.23
284	0.23
285	0.229
285	0.228
285	0.227
286	0.226
286	0.226
287	0.225
287	0.224
288	0.223
288	0.222
289	0.221
289	0.221
290	0.22
290	0.219
291	0.218
291	0.217
292	0.217
292	0.216
292	0.215
293	0.214
293	0.214
294	0.213
294	0.213
295	0.212
295	0.211
296	0.211
296	0.21
297	0.21
297	0.209
298	0.209
298	0.208
298	0.208
299	0.208
299	0.207
300	0.206
300	0.206
301	0.205
301	0.205
302	0.204
302	0.203
303	0.203
303	0.202
304	0.202
304	0.201
305	0.201
305	0.2
305	0.2
306	0.199
306	0.198
307	0.198
307	0.197
308	0.196
308	0.196
309	0.195
309	0.194
310	0.194
310	0.193
311	0.192
311	0.191
311	0.191
312	0.19
312	0.189
313	0.188
313	0.188
314	0.187
314	0.186
315	0.185
315	0.185
316	0.184
316	0.183
317	0.182
317	0.182
318	0.181
318	0.18
318	0.179
319	0.179
319	0.178
320	0.177
320	0.176
321	0.175
321	0.174
322	0.173
322	0.172
323	0.171
323	0.17
324	0.17
324	0.169
324	0.168
325	0.167
325	0.166
326	0.165
326	0.165
327	0.164
327	0.163
328	0.163
328	0.162
329	0.161
329	0.161
330	0.16
330	0.159
330	0.158
331	0.158
331	0.157
332	0.156
332	0.155
333	0.155
333	0.154
334	0.153
334	0.152
335	0.151
335	0.15
336	0.15
336	0.149
336	0.148
337	0.147
337	0.147
338	0.146
338	0.145
339	0.144
339	0.144
340	0.143
340	0.142
341	0.142
341	0.141
342	0.141
342	0.14
342	0.139
343	0.138
343	0.138
344	0.137
344	0.137
345	0.136
345	0.135
346	0.135
346	0.134
347	0.133
347	0.132
348	0.131
348	0.131
348	0.13
349	0.129
349	0.128
350	0.127
350	0.126
351	0.125
351	0.124
352	0.123
352	0.122
353	0.121
353	0.12
354	0.119
354	0.118
354	0.117
355	0.116
355	0.115
356	0.114
356	0.113
357	0.112
357	0.111
358	0.111
358	0.112
359	0.112
359	0.113
360	0.114
360	0.114
360	0.115
361	0.115
361	0.116
362	0.116
362	0.116
363	0.116
363	0.116
364	0.115
364	0.114
365	0.114
365	0.113
366	0.113
366	0.112
366	0.112
367	0.112
367	0.111
368	0.111
368	0.111
369	0.11
369	0.11
370	0.109
370	0.108
371	0.108
371	0.107
372	0.107
372	0.106
372	0.106
373	0.106
373	0.105
374	0.105
374	0.105
375	0.105
375	0.105
376	0.105
376	0.105
377	0.105
377	0.106
378	0.106
378	0.106
378	0.107
379	0.107
379	0.107
380	0.107
380	0.107
381	0.107
381	0.106
382	0.106
382	0.106
383	0.105
383	0.105
383	0.104
384	0.104
384	0.103
385	0.103
385	0.103
386	0.103
386	0.103
387	0.103
387	0.102
388	0.102
388	0.102
389	0.102
389	0.101
389	0.101
390	0.102
390	0.102
391	0.102
391	0.102
392	0.102
392	0.102
393	0.102
393	0.102
394	0.102
394	0.101
394	0.101
395	0.101
395	0.1
396	0.1
396	0.1
397	0.1
397	0.1
398	0.1
398	0.1
399	0.1
399	0.1
400	0.1
400	0.1
400	0.099
401	0.099
401	0.098
402	0.096
402	0.096
403	0.095
403	0.095
404	0.095
404	0.095
405	0.094
405	0.094
405	0.093
406	0.093
406	0.093
407	0.093
407	0.092
408	0.091
408	0.091
409	0.09
409	0.089
410	0.089
410	0.089
411	0.089
411	0.089
411	0.088
412	0.088
412	0.088
413	0.088
413	0.087
414	0.087
414	0.087
415	0.086
415	0.086
416	0.085
416	0.085
416	0.084
417	0.084
417	0.084
418	0.084
418	0.084
419	0.084
419	0.085
420	0.085
420	0.086
421	0.087
421	0.087
421	0.088
422	0.088
422	0.088
423	0.088
423	0.088
424	0.087
424	0.086
425	0.085
425	0.084
426	0.083
426	0.082
427	0.082
427	0.082
427	0.082
428	0.083
428	0.084
429	0.085
429	0.085
430	0.086
430	0.085
431	0.085
431	0.085
432	0.084
432	0.083
432	0.082
433	0.081
433	0.079
434	0.078
434	0.078
435	0.078
435	0.078
436	0.078
436	0.078
437	0.078
437	0.078
437	0.078
438	0.078
438	0.078
439	0.078
439	0.077
440	0.077
440	0.077
441	0.077
441	0.077
442	0.077
442	0.077
442	0.078
443	0.078
443	0.078
444	0.078
444	0.079
445	0.079
445	0.079
446	0.078
446	0.078
447	0.078
447	0.077
447	0.077
448	0.077
448	0.077
449	0.077
449	0.076
450	0.076
450	0.075
451	0.075
451	0.074
452	0.074
452	0.073
452	0.072
453	0.071
453	0.07
454	0.069
454	0.069
455	0.068
455	0.068
456	0.067
456	0.067
457	0.067
457	0.067
458	0.067
458	0.067
458	0.067
459	0.067
459	0.067
460	0.066
460	0.065
461	0.064
461	0.064
462	0.063
462	0.064
463	0.064
463	0.064
463	0.065
464	0.066
464	0.066
465	0.066
465	0.066
466	0.066
466	0.066
467	0.066
467	0.065
467	0.064
468	0.062
468	0.06
469	0.058
469	0.056
470	0.055
470	0.054
471	0.054
471	0.054
472	0.053
472	0.053
472	0.054
473	0.055
473	0.056
474	0.057
474	0.058
475	0.059
475	0.059
476	0.059
476	0.06
477	0.06
477	0.06
477	0.06
478	0.06
478	0.06
479	0.06
479	0.06
480	0.061
480	0.062
481	0.063
481	0.063
482	0.064
482	0.065
482	0.067
483	0.069
483	0.072
484	0.075
484	0.078
485	0.08
485	0.081
486	0.082
486	0.083
487	0.083
487	0.083
487	0.083
488	0.082
488	0.08
489	0.077
489	0.075
490	0.073
490	0.072
491	0.07
491	0.07
492	0.07
492	0.07
492	0.07
493	0.071
493	0.071
494	0.073
494	0.075
495	0.077
495	0.078
496	0.079
496	0.08
496	0.081
497	0.082
497	0.082
498	0.083
498	0.084
499	0.083
499	0.083
500	0.083
500	0.084
501	0.085
501	0.087
501	0.088
502	0.089
502	0.091
503	0.092
503	0.093
504	0.094
504	0.094
505	0.093
505	0.093
506	0.093
506	0.093
506	0.093
507	0.093
507	0.092
508	0.092
508	0.092
509	0.093
509	0.093
510	0.093
510	0.093
511	0.093
511	0.093
511	0.093
512	0.093
512	0.093
513	0.092
513	0.09
514	0.088
514	0.087
515	0.086
515	0.086
515	0.085
516	0.085
516	0.084
517	0.084
517	0.084
518	0.084
518	0.083
519	0.081
519	0.079
520	0.076
520	0.073
520	0.07
521	0.066
521	0.063
522	0.061
522	0.059
523	0.058
523	0.059
524	0.06
524	0.064
524	0.067
525	0.07
525	0.074
526	0.077
526	0.08
527	0.083
527	0.086
528	0.087
528	0.089
529	0.089
529	0.09
529	0.09
530	0.09
530	0.09
531	0.09
531	0.09
532	0.09
532	0.09
533	0.09
533	0.091
533	0.091
534	0.09
534	0.09
535	0.089
535	0.089
536	0.089
536	0.089
537	0.088
537	0.087
538	0.087
538	0.086
538	0.084
539	0.083
539	0.083
540	0.082
540	0.081
541	0.079
541	0.078
542	0.076
542	0.075
542	0.073
543	0.073
543	0.072
544	0.071
544	0.07
545	0.069
545	0.069
546	0.07
546	0.069
547	0.069
547	0.067
547	0.065
548	0.062
548	0.06
549	0.059
549	0.057
550	0.055
550	0.054
551	0.052
551	0.05
551	0.049
552	0.048
552	0.047
553	0.047
553	0.047
554	0.047
554	0.046
555	0.044
555	0.042
556	0.039
556	0.036
556	0.034
557	0.031
557	0.029
558	0.027
558	0.025
559	0.024
559	0.024
560	0.024
560	0.024
560	0.023
561	0.024
561	0.025
562	0.025
562	0.025
563	0.024
563	0.022
564	0.02
564	0.018
564	0.016
565	0.014
565	0.014
566	0.013
566	0.013
567	0.013
567	0.015
568	0.017
568	0.019
568	0.022
569	0.025
569	0.027
570	0.029
570	0.03
571	0.031
571	0.033
572	0.033
572	0.034
573	0.035
573	0.035
573	0.035
574	0.034
574	0.034
575	0.034
575	0.036
576	0.037
576	0.037
577	0.036
577	0.035
577	0.034
578	0.033
578	0.033
579	0.034
579	0.035
580	0.035
580	0.033
581	0.03
581	0.028
581	0.027
582	0.026
582	0.026
583	0.027
583	0.027
584	0.025
584	0.022
585	0.02
585	0.019
585	0.019
586	0.019
586	0.019
587	0.018
587	0.015
588	0.012
588	0.01
589	0.008
589	0.006
590	0.005
590	0.004
590	0.004
591	0.005
591	0.005
592	0.005
592	0.005
593	0.004
593	0.004
594	0.004
594	0.003
594	0.002
595	0.002
595	0.001
596	-0.001
596	-0.001
597	0.001
597	0.002
598	0.004
598	0.005
598	0.006
599	0.006
599	0.006
600	0.005
600	0.003
601	0.002
601	0.001
602	-0.001
602	-0.003
602	-0.004
603	-0.006
603	-0.005
604	-0.004
604	-0.003
605	-0.001
605	0.001
606	0.003
606	0.002
606	0.002
607	0.002
607	0.001
608	0.001
608	-0.001
609	-0.002
609	-0.004
610	-0.006
610	-0.008
610	-0.01
611	-0.01
611	-0.009
612	-0.009
612	-0.007
613	-0.006
613	-0.005
614	-0.005
614	-0.005
614	-0.005
615	-0.005
615	-0.006
616	-0.006
616	-0.006
617	-0.007
617	-0.008
618	-0.01
618	-0.011
618	-0.012
619	-0.012
619	-0.012
620	-0.011
620	-0.01
621	-0.01
621	-0.009
622	-0.009
622	-0.009
622	-0.009
623	-0.009
623	-0.008
624	-0.008
624	-0.008
625	-0.009
625	-0.009
626	-0.009
626	-0.009
626	-0.009
627	-0.008
627	-0.008
628	-0.007
628	-0.007
629	-0.006
629	-0.006
630	-0.007
630	-0.008
630	-0.008
631	-0.008
631	-0.008
632	-0.009
632	-0.01
633	-0.01
633	-0.01
634	-0.009
634	-0.007
634	-0.005
635	-0.003
635	-0.002
636	-0.001
636	0
637	0.002
637	0.003
638	0.004
638	0.005
638	0.005
639	0.005
639	0.005
640	0.005
640	0.006
641	0.007
641	0.008
642	0.01
642	0.011
642	0.013
643	0.014
643	0.015
644	0.017
644	0.019
645	0.021
645	0.023
646	0.025
646	0.028
646	0.032
647	0.036
647	0.039
648	0.042
648	0.044
649	0.047
649	0.05
650	0.053
650	0.056
650	0.058
651	0.06
651	0.062
652	0.063
652	0.065
653	0.067
653	0.075
653	0.098
654	0.084
654	0.073
655	0.076
655	0.078
656	0.08
656	0.081
657	0.083
657	0.084
657	0.085
658	0.083
658	0.067
659	0.081
659	0.099
660	0.099
660	0.1
661	0.102
661	0.103
661	0.104
662	0.106
662	0.109
663	0.111
663	0.114
664	0.116
664	0.118
665	0.12
665	0.122
665	0.124
666	0.126
666	0.128
667	0.13
667	0.132
668	0.133
668	0.135
669	0.137
669	0.14
669	0.143
670	0.147
670	0.149
671	0.151
671	0.153
672	0.155
672	0.156
672	0.157
673	0.158
673	0.16
674	0.161
674	0.161
675	0.161
675	0.162
676	0.163
676	0.165
676	0.167
677	0.169
677	0.171
678	0.173
678	0.175
679	0.176
679	0.178
680	0.179
680	0.181
680	0.181
681	0.181
681	0.182
682	0.183
682	0.184
683	0.186
683	0.188
684	0.191
684	0.192
684	0.193
685	0.193
685	0.195
686	0.196
686	0.196
687	0.196
687	0.195
687	0.194
688	0.193
688	0.191
689	0.191
689	0.192
690	0.192
690	0.192
691	0.191
691	0.191
691	0.191
692	0.191
692	0.19
693	0.19
693	0.19
694	0.189
694	0.187
695	0.186
695	0.188
695	0.188
696	0.188
696	0.187
697	0.187
697	0.186
698	0.185
698	0.184
698	0.182
699	0.182
699	0.18
700	0.177
700	0.175
701	0.174
701	0.173
702	0.171
702	0.17
702	0.169
703	0.168
703	0.167
704	0.165
704	0.165
705	0.165
705	0.165
705	0.164
706	0.164
706	0.163
707	0.162
707	0.161
708	0.159
708	0.158
709	0.156
709	0.154
709	0.151
710	0.147
710	0.145
711	0.142
711	0.14
712	0.138
712	0.136
713	0.135
713	0.133
713	0.131
714	0.128
714	0.126
715	0.124
715	0.122
716	0.12
716	0.118
716	0.116
717	0.115
717	0.113
718	0.111
718	0.109
719	0.108
719	0.106
720	0.104
720	0.102
720	0.1
721	0.097
721	0.094
722	0.092
722	0.089
723	0.087
723	0.085
723	0.083
724	0.081
724	0.079
725	0.077
725	0.075
726	0.073
726	0.072
727	0.07
727	0.068
727	0.066
728	0.064
728	0.063
729	0.062
729	0.061
730	0.06
730	0.058
730	0.056
731	0.055
731	0.053
732	0.052
732	0.05
733	0.048
733	0.046
734	0.044
734	0.041
734	0.039
735	0.037
735	0.035
736	0.032
736	0.03
737	0.027
737	0.026
737	0.024
738	0.021
738	0.018
739	0.016
739	0.014
740	0.011
740	0.01
741	0.009
741	0.007
741	0.004
742	-0
742	-0.005
743	-0.008
743	-0.01
744	-0.013
744	-0.015
744	-0.017
745	-0.019
745	-0.022
746	-0.023
746	-0.024
747	-0.024
747	-0.023
748	-0.022
748	-0.021
748	-0.021
749	-0.021
749	-0.021
750	-0.021
750	-0.022
751	-0.023
751	-0.024
751	-0.024
752	-0.026
752	-0.028
753	-0.03
753	-0.031
754	-0.032
754	-0.033
754	-0.033
755	-0.032
755	-0.03
756	-0.03
756	-0.031
757	-0.032
757	-0.032
758	-0.033
758	-0.034
758	-0.034
759	-0.035
759	-0.038
760	-0.041
760	-0.044
761	-0.047
761	-0.049
761	-0.051
762	-0.053
762	-0.055
763	-0.056
763	-0.058
764	-0.061
764	-0.064
764	-0.067
765	-0.069
765	-0.072
766	-0.073
766	-0.074
767	-0.075
767	-0.077
768	-0.081
768	-0.084
768	-0.085
769	-0.086
769	-0.087
770	-0.088
770	-0.09
771	-0.093
771	-0.096
771	-0.099
772	-0.101
772	-0.103
773	-0.105
773	-0.108
774	-0.111
774	-0.114
775	-0.117
775	-0.12
775	-0.124
776	-0.128
776	-0.131
777	-0.135
777	-0.138
778	-0.142
778	-0.147
778	-0.152
779	-0.153
779	-0.15
780	-0.15
780	-0.151
781	-0.151
781	-0.151
781	-0.15
782	-0.15
782	-0.151
783	-0.15
783	-0.148
784	-0.148
784	-0.151
784	-0.152
785	-0.154
785	-0.155
786	-0.156
786	-0.153
787	-0.149
787	-0.145
788	-0.144
788	-0.145
788	-0.146
789	-0.149
789	-0.149
790	-0.146
790	-0.145
791	-0.146
791	-0.148
791	-0.15
792	-0.145
792	-0.135
793	-0.129
793	-0.124
794	-0.122
794	-0.124
794	-0.128
795	-0.13
795	-0.129
796	-0.13
796	-0.132
797	-0.141
797	-0.151
797	-0.158
798	-0.163
798	-0.166
799	-0.167
799	-0.166
800	-0.166
800	-0.168
801	-0.17
801	-0.171
801	-0.171
802	-0.171
802	-0.172
803	-0.173
803	-0.173
804	-0.172
804	-0.167
804	-0.16
805	-0.156
805	-0.154
806	-0.152
806	-0.151
807	-0.15
807	-0.149
807	-0.149
808	-0.148
808	-0.149
809	-0.154
809	-0.159
810	-0.163
810	-0.166
810	-0.169
811	-0.172
811	-0.173
812	-0.17
812	-0.167
813	-0.168
813	-0.169
813	-0.17
814	-0.171
814	-0.172
815	-0.17
815	-0.167
816	-0.166
816	-0.166
817	-0.17
817	-0.174
817	-0.174
818	-0.173
818	-0.169
819	-0.163
819	-0.16
820	-0.161
820	-0.163
820	-0.165
821	-0.165
821	-0.164
822	-0.163
822	-0.163
823	-0.162
823	-0.164
823	-0.168
824	-0.169
824	-0.167
825	-0.163
825	-0.157
826	-0.152
826	-0.148
826	-0.143
827	-0.137
827	-0.131
828	-0.125
828	-0.119
829	-0.114
829	-0.109
829	-0.105
830	-0.102
830	-0.1
831	-0.096
831	-0.093
832	-0.092
832	-0.09
832	-0.088
833	-0.087
833	-0.087
834	-0.086
834	-0.085
835	-0.084
835	-0.083
835	-0.083
836	-0.081
836	-0.08
837	-0.079
837	-0.078
838	-0.077
838	-0.076
839	-0.076
839	-0.075
839	-0.074
840	-0.073
840	-0.072
841	-0.071
841	-0.07
842	-0.068
842	-0.066
842	-0.064
843	-0.062
843	-0.06
844	-0.057
844	-0.055
845	-0.053
845	-0.051
845	-0.049
846	-0.048
846	-0.047
847	-0.046
847	-0.045
848	-0.045
848	-0.044
848	-0.044
849	-0.043
849	-0.043
850	-0.042
850	-0.042
851	-0.042
851	-0.041
851	-0.041
852	-0.041
852	-0.04
853	-0.039
853	-0.039
854	-0.038
854	-0.038
854	-0.038
855	-0.038
855	-0.038
856	-0.038
856	-0.038
857	-0.037
857	-0.037
857	-0.037
858	-0.036
858	-0.036
859	-0.036
859	-0.035
860	-0.034
860	-0.033
860	-0.032
861	-0.031
861	-0.03
862	-0.03
862	-0.029
863	-0.029
863	-0.029
863	-0.028
864	-0.028
864	-0.027
865	-0.026
865	-0.026
866	-0.025
866	-0.025
866	-0.023
867	-0.022
867	-0.022
868	-0.021
868	-0.021
869	-0.021
869	-0.02
869	-0.02
870	-0.02
870	-0.02
871	-0.02
871	-0.02
872	-0.02
872	-0.02
872	-0.019
873	-0.019
873	-0.019
874	-0.018
874	-0.018
875	-0.018
875	-0.018
875	-0.018
876	-0.018
876	-0.018
877	-0.018
877	-0.018
878	-0.018
878	-0.019
878	-0.019
879	-0.02
879	-0.02
880	-0.02
880	-0.02
881	-0.02
881	-0.02
881	-0.019
882	-0.018
882	-0.017
883	-0.016
883	-0.014
884	-0.013
884	-0.011
884	-0.01
885	-0.009
885	-0.008
886	-0.008
886	-0.007
887	-0.007
887	-0.008
887	-0.008
888	-0.009
888	-0.009
889	-0.009
889	-0.009
890	-0.01
890	-0.01
890	-0.01
891	-0.011
891	-0.012
892	-0.012
892	-0.012
893	-0.013
893	-0.013
893	-0.013
894	-0.013
894	-0.013
895	-0.014
895	-0.014
895	-0.015
896	-0.015
896	-0.015
897	-0.015
897	-0.015
898	-0.015
898	-0.016
898	-0.016
899	-0.015
899	-0.015
900	-0.014
900	-0.013
901	-0.012
901	-0.011
901	-0.01
902	-0.009
902	-0.008
903	-0.007
903	-0.006
904	-0.005
904	-0.004
904	-0.004
905	-0.003
905	-0.003
906	-0.002
906	-0.002
907	-0.003
907	-0.003
907	-0.003
908	-0.003
908	-0.003
909	-0.004
909	-0.004
910	-0.005
910	-0.005
910	-0.006
911	-0.006
911	-0.006
912	-0.007
912	-0.007
913	-0.007
913	-0.007
913	-0.008
914	-0.008
914	-0.009
915	-0.009
915	-0.009
916	-0.01
916	-0.01
916	-0.01
917	-0.01
917	-0.01
918	-0.009
918	-0.009
918	-0.008
919	-0.008
919	-0.007
920	-0.005
920	-0.004
921	-0.003
921	-0.002
921	-0.002
922	-0.001
922	-0.001
923	-0.001
923	-0.001
924	-0.001
924	-0.001
924	-0.002
925	-0.002
925	-0.004
926	-0.004
926	-0.005
927	-0.006
927	-0.007
927	-0.008
928	-0.009
928	-0.009
929	-0.009
929	-0.01
930	-0.01
930	-0.01
930	-0.009
931	-0.009
931	-0.008
932	-0.007
932	-0.006
933	-0.005
933	-0.004
933	-0.004
934	-0.003
934	-0.003
935	-0.002
935	-0.002
935	-0.002
936	-0.001
936	-0.001
937	-0.001
937	-0.001
938	-0
938	-0
938	0
939	0.001
939	0.001
940	0.001
940	0.001
941	0.002
941	0.002
941	0.002
942	0.002
942	0.002
943	0.003
943	0.003
944	0.003
944	0.004
944	0.004
945	0.005
945	0.005
946	0.005
946	0.006
946	0.006
947	0.006
947	0.006
948	0.006
948	0.006
949	0.005
949	0.006
949	0.006
950	0.006
950	0.005
951	0.005
951	0.005
952	0.004
952	0.004
952	0.003
953	0.003
953	0.002
954	0.002
954	0.001
955	0
955	0
955	-0
956	-0
956	-0
957	-0
957	-0
957	-0
958	-0
958	-0
959	-0
959	-0.001
960	-0.001
960	-0.001
960	-0.002
961	-0.002
961	-0.003
962	-0.003
962	-0.003
963	-0.003
963	-0.003
963	-0.003
964	-0.004
964	-0.004
965	-0.004
965	-0.003
966	-0.003
966	-0.003
966	-0.002
967	-0.002
967	-0.002
968	-0.002
968	-0.001
968	-0.001
969	-0
969	0
970	0.001
970	0.001
971	0.001
971	0.001
971	0.002
972	0.002
972	0.003
973	0.004
973	0.004
974	0.005
974	0.006
974	0.007
975	0.008
975	0.009
976	0.009
976	0.01
976	0.011
977	0.011
977	0.011
978	0.011
978	0.01
979	0.009
979	0.009
979	0.008
980	0.006
980	0.005
981	0.004
981	0.003
982	0.002
982	0.002
982	0.001
983	0
983	-0
984	-0.001
984	-0.001
984	-0.001
985	-0.001
985	-0.001
986	-0.001
986	-0.002
987	-0.002
987	-0.001
987	-0.001
988	-0.001
988	-0
989	0
989	0
990	0.001
990	0.001
990	0.002
991	0.003
991	0.004
992	0.004
992	0.004
992	0.004
993	0.004
993	0.004
994	0.003
994	0.003
995	0.002
995	0.001
995	0
996	-0
996	-0.001
997	-0.001
997	-0.001
997	-0.001
998	0
998	0.001
999	0.002
999	0.003
1000	0.003
1000	0.003
1000	0.004
1001	0.004
1001	0.004
1002	0.003
1002	0.003
1003	0.002
1003	0.001
1003	-0
1004	-0.001
1004	-0.002
1005	-0.003
1005	-0.003
1005	-0.004
1006	-0.004
1006	-0.005
1007	-0.004
1007	-0.005
1008	-0.005
1008	-0.004
1008	-0.004
1009	-0.004
1009	-0.004
1010	-0.004
1010	-0.004
1010	-0.004
1011	-0.004
1011	-0.004
1012	-0.003
1012	-0.003
1013	-0.003
1013	-0.003
1013	-0.003
1014	-0.002
1014	-0.002
1015	-0.001
1015	-0
1016	0
1016	0.001
1016	0.002
1017	0.002
1017	0.003
1018	0.005
1018	0.006
1018	0.007
1019	0.008
1019	0.009
1020	0.01
1020	0.01
1021	0.011
1021	0.011
1021	0.011
1022	0.011
1022	0.011
1023	0.011
1023	0.01
1023	0.01
1024	0.01
1024	0.01
1025	0.009
1025	0.009
1026	0.009
1026	0.009
1026	0.009
1027	0.008
1027	0.008
1028	0.008
1028	0.008
1028	0.007
1029	0.007
1029	0.007
1030	0.006
1030	0.005
1031	0.005
1031	0.005
1031	0.004
1032	0.004
1032	0.004
1033	0.004
1033	0.004
1033	0.004
1034	0.003
1034	0.003
1035	0.002
1035	0.002
1036	0.002
1036	0.002
1036	0.002
1037	0.002
1037	0.002
1038	0.002
1038	0.003
1039	0.003
1039	0.005
1039	0.006
1040	0.007
1040	0.007
1041	0.008
1041	0.008
1041	0.009
1042	0.009
1042	0.009
1043	0.009
1043	0.01
1044	0.01
1044	0.011
1044	0.011
1045	0.012
1045	0.013
1046	0.014
1046	0.015
1046	0.016
1047	0.018
1047	0.019
1048	0.02
1048	0.021
1049	0.022
1049	0.022
1049	0.022
1050	0.023
1050	0.023
1051	0.024
1051	0.024
1051	0.025
1052	0.026
1052	0.026
1053	0.027
1053	0.028
1053	0.029
1054	0.029
1054	0.03
1055	0.031
1055	0.031
1056	0.03
1056	0.03
1056	0.029
1057	0.028
1057	0.028
1058	0.028
1058	0.027
1058	0.028
1059	0.028
1059	0.028
1060	0.029
1060	0.03
1061	0.031
1061	0.032
1061	0.033
1062	0.034
1062	0.034
1063	0.035
1063	0.035
1063	0.035
1064	0.036
1064	0.038
1065	0.039
1065	0.039
1066	0.04
1066	0.042
1066	0.043
1067	0.045
1067	0.047
1068	0.048
1068	0.05
1068	0.051
1069	0.053
1069	0.054
1070	0.057
1070	0.06
1071	0.062
1071	0.065
1071	0.068
1072	0.071
1072	0.075
1073	0.079
1073	0.083
1073	0.087
1074	0.091
1074	0.094
1075	0.097
1075	0.1
1076	0.103
1076	0.106
1076	0.109
1077	0.113
1077	0.116
1078	0.12
1078	0.124
1078	0.128
1079	0.132
1079	0.136
1080	0.14
1080	0.144
1080	0.147
1081	0.15
1081	0.153
1082	0.157
1082	0.161
1083	0.164
1083	0.169
1083	0.174
1084	0.179
1084	0.185
1085	0.192
1085	0.198
1085	0.206
1086	0.213
1086	0.218
1087	0.225
1087	0.233
1088	0.239
1088	0.247
1088	0.257
1089	0.265
1089	0.275
1090	0.286
1090	0.299
1090	0.312
1091	0.327
1091	0.346
1092	0.365
1092	0.387
1092	0.406
1093	0.428
1093	0.455
1094	0.485
1094	0.518
1095	0.555
1095	0.6
1095	0.659
1096	0.723
1096	0.802
1097	0.92
1097	1.067
1097	1.345
1098	2.193
1098	-0
1099	-0
1099	-0
1100	-0
1100	-0
1100	-0
1101	-0
1101	-0
1102	-0
1102	-0
1102	-0
1103	-0
1103	-0
1104	-0
1104	-0
1104	-0
1105	-0
1105	-0
1106	-0
1106	-0
1107	-0
1107	-0
1107	-0
1108	-0
1108	-0
1109	-0
1109	-0
1109	-0
1110	-0
1110	-0
1111	-0
1111	-0
