Data from 15c-2-5a_Absorbance__204__02005.txt Node

Date: Fri Jan 19 13:50:05 CET 2024
User: Marek
Spectrometer: MAYP115816
Trigger mode: 0
Integration Time (sec): 2.000000E-1
Scans to average: 10
Electric dark correction enabled: true
Nonlinearity correction enabled: true
Boxcar width: 5
XAxis mode: Wavelengths
Number of Pixels in Spectrum: 2068
>>>>>Begin Spectral Data<<<<<
199	-2.242
199	-2.084
200	-1.938
200	-1.817
201	-1.747
201	-1.692
202	-1.618
202	-1.558
203	-1.504
203	-1.459
204	-1.431
204	-1.406
205	-1.386
205	-1.375
205	-1.373
206	-1.367
206	-1.363
207	-1.358
207	-1.353
208	-1.351
208	-1.348
209	-1.346
209	-1.341
210	-1.338
210	-1.337
211	-1.335
211	-1.333
212	-1.334
212	-1.334
213	-1.333
213	-1.33
213	-1.33
214	-1.325
214	-1.324
215	-1.322
215	-1.32
216	-1.316
216	-1.316
217	-1.311
217	-1.309
218	-1.307
218	-1.304
219	-1.3
219	-1.3
220	-1.298
220	-1.297
221	-1.296
221	-1.29
221	-1.285
222	-1.283
222	-1.279
223	-1.273
223	-1.269
224	-1.262
224	-1.255
225	-1.247
225	-1.236
226	-1.225
226	-1.215
227	-1.202
227	-1.187
228	-1.171
228	-1.155
229	-1.134
229	-1.113
229	-1.086
230	-1.058
230	-1.026
231	-0.991
231	-0.953
232	-0.913
232	-0.87
233	-0.823
233	-0.774
234	-0.727
234	-0.678
235	-0.63
235	-0.582
236	-0.536
236	-0.49
236	-0.445
237	-0.402
237	-0.361
238	-0.322
238	-0.286
239	-0.252
239	-0.22
240	-0.191
240	-0.163
241	-0.138
241	-0.114
242	-0.092
242	-0.072
243	-0.054
243	-0.038
243	-0.023
244	-0.009
244	0.004
245	0.016
245	0.027
246	0.037
246	0.046
247	0.054
247	0.062
248	0.07
248	0.077
249	0.083
249	0.089
250	0.095
250	0.1
250	0.105
251	0.11
251	0.114
252	0.118
252	0.123
253	0.126
253	0.13
254	0.133
254	0.136
255	0.139
255	0.142
256	0.144
256	0.146
257	0.148
257	0.15
258	0.151
258	0.152
258	0.154
259	0.155
259	0.156
260	0.157
260	0.157
261	0.158
261	0.158
262	0.159
262	0.159
263	0.16
263	0.16
264	0.16
264	0.16
265	0.16
265	0.161
265	0.161
266	0.161
266	0.16
267	0.16
267	0.16
268	0.159
268	0.158
269	0.158
269	0.157
270	0.156
270	0.155
271	0.154
271	0.153
272	0.152
272	0.151
272	0.15
273	0.149
273	0.148
274	0.147
274	0.146
275	0.145
275	0.144
276	0.143
276	0.141
277	0.14
277	0.139
278	0.137
278	0.135
278	0.134
279	0.132
279	0.131
280	0.13
280	0.129
281	0.128
281	0.127
282	0.127
282	0.126
283	0.126
283	0.125
284	0.125
284	0.124
285	0.123
285	0.122
285	0.122
286	0.121
286	0.12
287	0.119
287	0.118
288	0.117
288	0.117
289	0.116
289	0.115
290	0.114
290	0.114
291	0.113
291	0.112
292	0.112
292	0.111
292	0.111
293	0.11
293	0.109
294	0.109
294	0.109
295	0.108
295	0.108
296	0.107
296	0.107
297	0.107
297	0.106
298	0.106
298	0.106
298	0.105
299	0.105
299	0.105
300	0.104
300	0.104
301	0.103
301	0.103
302	0.103
302	0.102
303	0.102
303	0.102
304	0.101
304	0.101
305	0.101
305	0.1
305	0.1
306	0.1
306	0.099
307	0.099
307	0.099
308	0.098
308	0.098
309	0.097
309	0.097
310	0.096
310	0.096
311	0.096
311	0.095
311	0.095
312	0.095
312	0.094
313	0.094
313	0.093
314	0.093
314	0.092
315	0.092
315	0.091
316	0.091
316	0.09
317	0.09
317	0.089
318	0.089
318	0.088
318	0.088
319	0.087
319	0.087
320	0.086
320	0.086
321	0.085
321	0.084
322	0.084
322	0.083
323	0.082
323	0.082
324	0.081
324	0.08
324	0.08
325	0.079
325	0.079
326	0.079
326	0.078
327	0.077
327	0.077
328	0.077
328	0.076
329	0.076
329	0.075
330	0.075
330	0.074
330	0.073
331	0.073
331	0.072
332	0.072
332	0.071
333	0.071
333	0.07
334	0.07
334	0.069
335	0.069
335	0.068
336	0.068
336	0.068
336	0.067
337	0.066
337	0.066
338	0.065
338	0.065
339	0.064
339	0.064
340	0.063
340	0.062
341	0.062
341	0.061
342	0.061
342	0.061
342	0.06
343	0.06
343	0.059
344	0.059
344	0.058
345	0.058
345	0.057
346	0.057
346	0.056
347	0.056
347	0.055
348	0.055
348	0.054
348	0.053
349	0.053
349	0.052
350	0.051
350	0.051
351	0.05
351	0.049
352	0.048
352	0.048
353	0.047
353	0.046
354	0.045
354	0.045
354	0.044
355	0.043
355	0.042
356	0.042
356	0.041
357	0.04
357	0.04
358	0.04
358	0.04
359	0.04
359	0.041
360	0.041
360	0.042
360	0.042
361	0.043
361	0.043
362	0.044
362	0.044
363	0.043
363	0.043
364	0.043
364	0.042
365	0.042
365	0.042
366	0.041
366	0.041
366	0.041
367	0.04
367	0.04
368	0.04
368	0.04
369	0.039
369	0.039
370	0.038
370	0.038
371	0.038
371	0.037
372	0.037
372	0.037
372	0.036
373	0.036
373	0.036
374	0.036
374	0.036
375	0.036
375	0.036
376	0.036
376	0.036
377	0.036
377	0.037
378	0.037
378	0.038
378	0.038
379	0.038
379	0.038
380	0.038
380	0.038
381	0.038
381	0.038
382	0.038
382	0.037
383	0.037
383	0.037
383	0.036
384	0.036
384	0.036
385	0.035
385	0.035
386	0.035
386	0.035
387	0.035
387	0.035
388	0.035
388	0.035
389	0.035
389	0.035
389	0.035
390	0.035
390	0.035
391	0.035
391	0.036
392	0.035
392	0.035
393	0.035
393	0.035
394	0.035
394	0.035
394	0.035
395	0.034
395	0.034
396	0.034
396	0.034
397	0.034
397	0.034
398	0.034
398	0.034
399	0.034
399	0.034
400	0.034
400	0.034
400	0.034
401	0.033
401	0.032
402	0.032
402	0.031
403	0.031
403	0.031
404	0.031
404	0.03
405	0.03
405	0.03
405	0.03
406	0.029
406	0.029
407	0.029
407	0.028
408	0.028
408	0.027
409	0.027
409	0.026
410	0.026
410	0.026
411	0.026
411	0.026
411	0.026
412	0.026
412	0.026
413	0.025
413	0.025
414	0.025
414	0.025
415	0.025
415	0.024
416	0.024
416	0.023
416	0.023
417	0.023
417	0.023
418	0.023
418	0.023
419	0.024
419	0.024
420	0.025
420	0.025
421	0.026
421	0.026
421	0.026
422	0.027
422	0.027
423	0.027
423	0.026
424	0.026
424	0.025
425	0.024
425	0.023
426	0.023
426	0.022
427	0.022
427	0.022
427	0.023
428	0.023
428	0.024
429	0.025
429	0.025
430	0.026
430	0.026
431	0.025
431	0.025
432	0.025
432	0.024
432	0.023
433	0.022
433	0.02
434	0.02
434	0.019
435	0.019
435	0.019
436	0.019
436	0.019
437	0.019
437	0.019
437	0.019
438	0.019
438	0.019
439	0.019
439	0.018
440	0.018
440	0.018
441	0.018
441	0.018
442	0.019
442	0.019
442	0.019
443	0.019
443	0.019
444	0.019
444	0.02
445	0.019
445	0.019
446	0.019
446	0.019
447	0.018
447	0.018
447	0.018
448	0.018
448	0.018
449	0.017
449	0.017
450	0.017
450	0.017
451	0.017
451	0.016
452	0.015
452	0.015
452	0.014
453	0.014
453	0.013
454	0.012
454	0.012
455	0.012
455	0.011
456	0.011
456	0.01
457	0.01
457	0.01
458	0.01
458	0.01
458	0.01
459	0.01
459	0.01
460	0.009
460	0.008
461	0.008
461	0.007
462	0.007
462	0.007
463	0.008
463	0.008
463	0.009
464	0.009
464	0.009
465	0.009
465	0.009
466	0.009
466	0.009
467	0.009
467	0.008
467	0.007
468	0.005
468	0.003
469	0.002
469	0
470	-0
470	-0.001
471	-0.001
471	-0.001
472	-0.002
472	-0.002
472	-0.001
473	-0
473	0.001
474	0.001
474	0.002
475	0.003
475	0.003
476	0.003
476	0.003
477	0.003
477	0.003
477	0.003
478	0.003
478	0.003
479	0.003
479	0.003
480	0.004
480	0.004
481	0.005
481	0.005
482	0.006
482	0.007
482	0.008
483	0.01
483	0.012
484	0.015
484	0.017
485	0.018
485	0.019
486	0.02
486	0.02
487	0.02
487	0.019
487	0.019
488	0.018
488	0.016
489	0.014
489	0.012
490	0.01
490	0.009
491	0.008
491	0.008
492	0.008
492	0.008
492	0.008
493	0.009
493	0.009
494	0.01
494	0.012
495	0.013
495	0.013
496	0.014
496	0.015
496	0.015
497	0.016
497	0.016
498	0.016
498	0.017
499	0.016
499	0.016
500	0.016
500	0.017
501	0.018
501	0.019
501	0.019
502	0.02
502	0.021
503	0.022
503	0.023
504	0.023
504	0.023
505	0.022
505	0.022
506	0.022
506	0.022
506	0.022
507	0.021
507	0.02
508	0.02
508	0.02
509	0.02
509	0.021
510	0.021
510	0.021
511	0.021
511	0.02
511	0.02
512	0.02
512	0.02
513	0.02
513	0.019
514	0.017
514	0.016
515	0.015
515	0.013
515	0.012
516	0.012
516	0.011
517	0.011
517	0.011
518	0.011
518	0.01
519	0.01
519	0.008
520	0.006
520	0.004
520	0.002
521	-0.001
521	-0.003
522	-0.006
522	-0.009
523	-0.01
523	-0.01
524	-0.01
524	-0.009
524	-0.007
525	-0.004
525	-0.002
526	0.001
526	0.004
527	0.008
527	0.01
528	0.012
528	0.014
529	0.015
529	0.016
529	0.017
530	0.017
530	0.017
531	0.018
531	0.018
532	0.017
532	0.017
533	0.018
533	0.018
533	0.018
534	0.018
534	0.017
535	0.017
535	0.017
536	0.017
536	0.017
537	0.017
537	0.016
538	0.016
538	0.015
538	0.014
539	0.014
539	0.014
540	0.013
540	0.012
541	0.011
541	0.01
542	0.009
542	0.008
542	0.008
543	0.008
543	0.007
544	0.007
544	0.006
545	0.007
545	0.007
546	0.007
546	0.007
547	0.007
547	0.006
547	0.004
548	0.003
548	0.001
549	-0
549	-0.001
550	-0.003
550	-0.004
551	-0.005
551	-0.006
551	-0.007
552	-0.007
552	-0.007
553	-0.007
553	-0.006
554	-0.006
554	-0.007
555	-0.008
555	-0.01
556	-0.011
556	-0.013
556	-0.015
557	-0.017
557	-0.018
558	-0.019
558	-0.02
559	-0.021
559	-0.021
560	-0.02
560	-0.02
560	-0.02
561	-0.019
561	-0.018
562	-0.018
562	-0.018
563	-0.019
563	-0.02
564	-0.022
564	-0.023
564	-0.024
565	-0.025
565	-0.025
566	-0.025
566	-0.025
567	-0.024
567	-0.022
568	-0.02
568	-0.018
568	-0.016
569	-0.013
569	-0.01
570	-0.009
570	-0.008
571	-0.007
571	-0.006
572	-0.005
572	-0.004
573	-0.004
573	-0.003
573	-0.004
574	-0.004
574	-0.004
575	-0.003
575	-0.001
576	0
576	0
577	-0.001
577	-0.001
577	-0.002
578	-0.002
578	-0.002
579	-0
579	0.001
580	0.001
580	-0.001
581	-0.004
581	-0.005
581	-0.006
582	-0.006
582	-0.006
583	-0.004
583	-0.004
584	-0.006
584	-0.009
585	-0.011
585	-0.011
585	-0.01
586	-0.01
586	-0.01
587	-0.011
587	-0.013
588	-0.016
588	-0.018
589	-0.02
589	-0.021
590	-0.021
590	-0.022
590	-0.021
591	-0.02
591	-0.02
592	-0.02
592	-0.02
593	-0.02
593	-0.02
594	-0.02
594	-0.021
594	-0.022
595	-0.022
595	-0.023
596	-0.025
596	-0.025
597	-0.022
597	-0.02
598	-0.019
598	-0.018
598	-0.017
599	-0.017
599	-0.017
600	-0.018
600	-0.019
601	-0.02
601	-0.021
602	-0.023
602	-0.024
602	-0.025
603	-0.026
603	-0.026
604	-0.024
604	-0.023
605	-0.021
605	-0.018
606	-0.017
606	-0.018
606	-0.018
607	-0.018
607	-0.018
608	-0.018
608	-0.02
609	-0.022
609	-0.023
610	-0.024
610	-0.026
610	-0.027
611	-0.027
611	-0.027
612	-0.026
612	-0.025
613	-0.023
613	-0.022
614	-0.023
614	-0.024
614	-0.024
615	-0.024
615	-0.025
616	-0.025
616	-0.026
617	-0.026
617	-0.027
618	-0.029
618	-0.03
618	-0.03
619	-0.031
619	-0.03
620	-0.029
620	-0.028
621	-0.028
621	-0.027
622	-0.028
622	-0.027
622	-0.027
623	-0.028
623	-0.027
624	-0.026
624	-0.026
625	-0.027
625	-0.028
626	-0.028
626	-0.028
626	-0.028
627	-0.028
627	-0.027
628	-0.027
628	-0.027
629	-0.027
629	-0.027
630	-0.028
630	-0.029
630	-0.03
631	-0.03
631	-0.03
632	-0.031
632	-0.032
633	-0.032
633	-0.032
634	-0.032
634	-0.03
634	-0.028
635	-0.027
635	-0.026
636	-0.025
636	-0.024
637	-0.023
637	-0.022
638	-0.021
638	-0.021
638	-0.02
639	-0.021
639	-0.021
640	-0.021
640	-0.02
641	-0.02
641	-0.019
642	-0.018
642	-0.017
642	-0.016
643	-0.015
643	-0.015
644	-0.013
644	-0.012
645	-0.011
645	-0.009
646	-0.007
646	-0.005
646	-0.002
647	0.001
647	0.004
648	0.006
648	0.008
649	0.01
649	0.013
650	0.015
650	0.017
650	0.019
651	0.02
651	0.021
652	0.022
652	0.023
653	0.025
653	0.032
653	0.053
654	0.048
654	0.043
655	0.043
655	0.044
656	0.045
656	0.046
657	0.047
657	0.048
657	0.049
658	0.046
658	0.032
659	0.037
659	0.044
660	0.048
660	0.049
661	0.05
661	0.051
661	0.053
662	0.055
662	0.057
663	0.059
663	0.061
664	0.062
664	0.063
665	0.065
665	0.066
665	0.067
666	0.069
666	0.071
667	0.072
667	0.073
668	0.075
668	0.076
669	0.077
669	0.079
669	0.082
670	0.085
670	0.087
671	0.088
671	0.089
672	0.09
672	0.091
672	0.091
673	0.092
673	0.093
674	0.094
674	0.094
675	0.094
675	0.094
676	0.096
676	0.097
676	0.098
677	0.1
677	0.102
678	0.104
678	0.105
679	0.106
679	0.107
680	0.108
680	0.109
680	0.11
681	0.11
681	0.11
682	0.111
682	0.112
683	0.113
683	0.115
684	0.117
684	0.118
684	0.118
685	0.119
685	0.119
686	0.12
686	0.12
687	0.12
687	0.119
687	0.118
688	0.117
688	0.116
689	0.116
689	0.117
690	0.117
690	0.116
691	0.116
691	0.116
691	0.116
692	0.115
692	0.115
693	0.115
693	0.115
694	0.115
694	0.113
695	0.113
695	0.115
695	0.116
696	0.116
696	0.115
697	0.115
697	0.115
698	0.114
698	0.113
698	0.112
699	0.111
699	0.11
700	0.107
700	0.106
701	0.105
701	0.104
702	0.103
702	0.102
702	0.101
703	0.1
703	0.099
704	0.098
704	0.098
705	0.099
705	0.099
705	0.099
706	0.098
706	0.098
707	0.098
707	0.097
708	0.096
708	0.094
709	0.093
709	0.092
709	0.089
710	0.086
710	0.084
711	0.083
711	0.081
712	0.08
712	0.078
713	0.077
713	0.076
713	0.075
714	0.073
714	0.072
715	0.07
715	0.069
716	0.067
716	0.066
716	0.065
717	0.064
717	0.063
718	0.061
718	0.059
719	0.058
719	0.057
720	0.055
720	0.053
720	0.051
721	0.049
721	0.047
722	0.045
722	0.043
723	0.042
723	0.041
723	0.039
724	0.038
724	0.036
725	0.034
725	0.033
726	0.032
726	0.031
727	0.03
727	0.029
727	0.028
728	0.026
728	0.025
729	0.025
729	0.025
730	0.024
730	0.022
730	0.021
731	0.02
731	0.019
732	0.018
732	0.017
733	0.016
733	0.014
734	0.012
734	0.01
734	0.009
735	0.008
735	0.006
736	0.004
736	0.003
737	0.001
737	-0
737	-0.001
738	-0.003
738	-0.006
739	-0.007
739	-0.009
740	-0.011
740	-0.012
741	-0.012
741	-0.014
741	-0.017
742	-0.021
742	-0.024
743	-0.026
743	-0.028
744	-0.03
744	-0.032
744	-0.034
745	-0.036
745	-0.038
746	-0.04
746	-0.04
747	-0.04
747	-0.039
748	-0.038
748	-0.037
748	-0.037
749	-0.037
749	-0.037
750	-0.038
750	-0.038
751	-0.039
751	-0.039
751	-0.039
752	-0.04
752	-0.042
753	-0.043
753	-0.044
754	-0.045
754	-0.045
754	-0.044
755	-0.043
755	-0.042
756	-0.041
756	-0.043
757	-0.044
757	-0.044
758	-0.044
758	-0.045
758	-0.045
759	-0.046
759	-0.049
760	-0.052
760	-0.055
761	-0.057
761	-0.058
761	-0.059
762	-0.061
762	-0.062
763	-0.063
763	-0.065
764	-0.068
764	-0.071
764	-0.073
765	-0.075
765	-0.077
766	-0.078
766	-0.079
767	-0.08
767	-0.082
768	-0.085
768	-0.087
768	-0.088
769	-0.089
769	-0.089
770	-0.09
770	-0.091
771	-0.093
771	-0.096
771	-0.098
772	-0.1
772	-0.101
773	-0.103
773	-0.105
774	-0.108
774	-0.112
775	-0.115
775	-0.118
775	-0.122
776	-0.125
776	-0.129
777	-0.132
777	-0.136
778	-0.14
778	-0.145
778	-0.149
779	-0.15
779	-0.148
780	-0.147
780	-0.149
781	-0.149
781	-0.149
781	-0.15
782	-0.15
782	-0.151
783	-0.151
783	-0.149
784	-0.149
784	-0.152
784	-0.154
785	-0.155
785	-0.157
786	-0.157
786	-0.155
787	-0.15
787	-0.146
788	-0.145
788	-0.146
788	-0.148
789	-0.15
789	-0.15
790	-0.147
790	-0.146
791	-0.147
791	-0.149
791	-0.151
792	-0.146
792	-0.136
793	-0.13
793	-0.126
794	-0.124
794	-0.125
794	-0.129
795	-0.131
795	-0.131
796	-0.131
796	-0.134
797	-0.142
797	-0.153
797	-0.159
798	-0.164
798	-0.168
799	-0.168
799	-0.168
800	-0.167
800	-0.169
801	-0.171
801	-0.172
801	-0.172
802	-0.173
802	-0.174
803	-0.174
803	-0.174
804	-0.173
804	-0.168
804	-0.162
805	-0.158
805	-0.156
806	-0.153
806	-0.152
807	-0.151
807	-0.15
807	-0.15
808	-0.15
808	-0.151
809	-0.155
809	-0.161
810	-0.164
810	-0.167
810	-0.171
811	-0.174
811	-0.175
812	-0.171
812	-0.168
813	-0.169
813	-0.17
813	-0.171
814	-0.173
814	-0.173
815	-0.171
815	-0.169
816	-0.167
816	-0.167
817	-0.172
817	-0.175
817	-0.175
818	-0.174
818	-0.17
819	-0.165
819	-0.162
820	-0.163
820	-0.165
820	-0.166
821	-0.166
821	-0.165
822	-0.164
822	-0.164
823	-0.164
823	-0.165
823	-0.168
824	-0.168
824	-0.164
825	-0.159
825	-0.152
826	-0.145
826	-0.14
826	-0.134
827	-0.127
827	-0.12
828	-0.114
828	-0.109
829	-0.104
829	-0.099
829	-0.096
830	-0.094
830	-0.091
831	-0.088
831	-0.086
832	-0.085
832	-0.083
832	-0.082
833	-0.081
833	-0.081
834	-0.08
834	-0.079
835	-0.078
835	-0.078
835	-0.077
836	-0.076
836	-0.075
837	-0.074
837	-0.073
838	-0.072
838	-0.072
839	-0.071
839	-0.071
839	-0.07
840	-0.069
840	-0.068
841	-0.068
841	-0.067
842	-0.065
842	-0.064
842	-0.062
843	-0.06
843	-0.058
844	-0.055
844	-0.053
845	-0.051
845	-0.049
845	-0.047
846	-0.045
846	-0.043
847	-0.042
847	-0.041
848	-0.04
848	-0.04
848	-0.04
849	-0.039
849	-0.039
850	-0.039
850	-0.039
851	-0.04
851	-0.039
851	-0.039
852	-0.039
852	-0.038
853	-0.038
853	-0.038
854	-0.037
854	-0.036
854	-0.036
855	-0.036
855	-0.036
856	-0.036
856	-0.036
857	-0.036
857	-0.036
857	-0.036
858	-0.036
858	-0.036
859	-0.036
859	-0.035
860	-0.034
860	-0.034
860	-0.033
861	-0.031
861	-0.031
862	-0.03
862	-0.03
863	-0.029
863	-0.029
863	-0.028
864	-0.028
864	-0.027
865	-0.026
865	-0.026
866	-0.025
866	-0.024
866	-0.023
867	-0.022
867	-0.021
868	-0.02
868	-0.02
869	-0.019
869	-0.018
869	-0.019
870	-0.018
870	-0.018
871	-0.018
871	-0.018
872	-0.018
872	-0.018
872	-0.017
873	-0.017
873	-0.017
874	-0.018
874	-0.017
875	-0.018
875	-0.018
875	-0.018
876	-0.019
876	-0.019
877	-0.019
877	-0.019
878	-0.02
878	-0.02
878	-0.02
879	-0.021
879	-0.022
880	-0.022
880	-0.023
881	-0.023
881	-0.023
881	-0.022
882	-0.022
882	-0.021
883	-0.02
883	-0.018
884	-0.017
884	-0.015
884	-0.014
885	-0.012
885	-0.011
886	-0.01
886	-0.009
887	-0.009
887	-0.01
887	-0.01
888	-0.01
888	-0.011
889	-0.011
889	-0.011
890	-0.012
890	-0.012
890	-0.012
891	-0.013
891	-0.013
892	-0.013
892	-0.013
893	-0.013
893	-0.013
893	-0.013
894	-0.013
894	-0.014
895	-0.014
895	-0.014
895	-0.015
896	-0.015
896	-0.015
897	-0.015
897	-0.015
898	-0.015
898	-0.015
898	-0.015
899	-0.015
899	-0.015
900	-0.014
900	-0.014
901	-0.013
901	-0.012
901	-0.012
902	-0.011
902	-0.01
903	-0.009
903	-0.008
904	-0.008
904	-0.007
904	-0.006
905	-0.005
905	-0.004
906	-0.004
906	-0.004
907	-0.004
907	-0.004
907	-0.004
908	-0.004
908	-0.004
909	-0.005
909	-0.005
910	-0.006
910	-0.006
910	-0.007
911	-0.007
911	-0.008
912	-0.008
912	-0.008
913	-0.008
913	-0.009
913	-0.009
914	-0.01
914	-0.01
915	-0.011
915	-0.011
916	-0.011
916	-0.011
916	-0.011
917	-0.011
917	-0.011
918	-0.01
918	-0.01
918	-0.009
919	-0.008
919	-0.007
920	-0.006
920	-0.005
921	-0.004
921	-0.003
921	-0.002
922	-0.001
922	-0
923	0
923	0
924	0.001
924	0
924	-0
925	-0.001
925	-0.001
926	-0.002
926	-0.002
927	-0.003
927	-0.004
927	-0.004
928	-0.004
928	-0.004
929	-0.004
929	-0.005
930	-0.005
930	-0.005
930	-0.005
931	-0.006
931	-0.006
932	-0.006
932	-0.006
933	-0.006
933	-0.006
933	-0.006
934	-0.007
934	-0.007
935	-0.006
935	-0.006
935	-0.006
936	-0.006
936	-0.005
937	-0.004
937	-0.004
938	-0.003
938	-0.002
938	-0.002
939	-0.002
939	-0.001
940	-0.001
940	-0.001
941	-0.001
941	-0.001
941	-0.001
942	-0.002
942	-0.001
943	-0.001
943	-0.001
944	-0
944	0
944	0.001
945	0.001
945	0.002
946	0.002
946	0.002
946	0.002
947	0.002
947	0.002
948	0.001
948	0.001
949	0.001
949	0.001
949	0.001
950	0.002
950	0.002
951	0.002
951	0.002
952	0.002
952	0.002
952	0.002
953	0.003
953	0.003
954	0.002
954	0.002
955	0.002
955	0.001
955	0.001
956	0.001
956	0
957	-0.001
957	-0.001
957	-0.002
958	-0.003
958	-0.004
959	-0.004
959	-0.005
960	-0.005
960	-0.006
960	-0.006
961	-0.007
961	-0.007
962	-0.008
962	-0.008
963	-0.008
963	-0.008
963	-0.008
964	-0.008
964	-0.008
965	-0.008
965	-0.008
966	-0.007
966	-0.007
966	-0.007
967	-0.006
967	-0.006
968	-0.006
968	-0.006
968	-0.005
969	-0.005
969	-0.004
970	-0.004
970	-0.003
971	-0.003
971	-0.003
971	-0.002
972	-0.001
972	0
973	0.001
973	0.002
974	0.003
974	0.004
974	0.005
975	0.006
975	0.007
976	0.008
976	0.008
976	0.009
977	0.009
977	0.008
978	0.008
978	0.007
979	0.007
979	0.006
979	0.005
980	0.004
980	0.003
981	0.002
981	0.001
982	0.001
982	0.001
982	0.001
983	0.001
983	0
984	0
984	-0
984	-0
985	-0
985	-0
986	-0.001
986	-0.001
987	-0.002
987	-0.002
987	-0.002
988	-0.002
988	-0.002
989	-0.002
989	-0.002
990	-0.002
990	-0.002
990	-0.001
991	-0.001
991	-0.001
992	-0.001
992	-0.001
992	-0.001
993	-0.001
993	-0.002
994	-0.002
994	-0.002
995	-0.002
995	-0.002
995	-0.002
996	-0.002
996	-0.002
997	-0.001
997	-0.001
997	-0
998	0.001
998	0.002
999	0.003
999	0.004
1000	0.005
1000	0.005
1000	0.005
1001	0.005
1001	0.005
1002	0.005
1002	0.004
1003	0.003
1003	0.002
1003	0.001
1004	0
1004	-0.001
1005	-0.002
1005	-0.003
1005	-0.004
1006	-0.005
1006	-0.006
1007	-0.007
1007	-0.007
1008	-0.008
1008	-0.008
1008	-0.008
1009	-0.008
1009	-0.008
1010	-0.009
1010	-0.009
1010	-0.008
1011	-0.008
1011	-0.008
1012	-0.008
1012	-0.008
1013	-0.007
1013	-0.007
1013	-0.007
1014	-0.007
1014	-0.006
1015	-0.005
1015	-0.004
1016	-0.004
1016	-0.003
1016	-0.002
1017	-0.001
1017	0.001
1018	0.002
1018	0.004
1018	0.005
1019	0.007
1019	0.008
1020	0.009
1020	0.01
1021	0.01
1021	0.01
1021	0.011
1022	0.011
1022	0.011
1023	0.011
1023	0.01
1023	0.009
1024	0.009
1024	0.008
1025	0.008
1025	0.007
1026	0.006
1026	0.006
1026	0.005
1027	0.005
1027	0.004
1028	0.004
1028	0.003
1028	0.003
1029	0.002
1029	0.002
1030	0.001
1030	0.001
1031	0.001
1031	0.001
1031	0.001
1032	0.001
1032	0.001
1033	0.001
1033	0.002
1033	0.002
1034	0.002
1034	0.002
1035	0.002
1035	0.002
1036	0.001
1036	0.001
1036	0.002
1037	0.002
1037	0.002
1038	0.002
1038	0.003
1039	0.003
1039	0.004
1039	0.005
1040	0.006
1040	0.007
1041	0.008
1041	0.008
1041	0.009
1042	0.009
1042	0.009
1043	0.009
1043	0.01
1044	0.01
1044	0.01
1044	0.011
1045	0.011
1045	0.012
1046	0.012
1046	0.013
1046	0.014
1047	0.015
1047	0.017
1048	0.017
1048	0.018
1049	0.018
1049	0.018
1049	0.018
1050	0.019
1050	0.019
1051	0.019
1051	0.019
1051	0.02
1052	0.02
1052	0.021
1053	0.022
1053	0.022
1053	0.023
1054	0.023
1054	0.024
1055	0.025
1055	0.025
1056	0.025
1056	0.024
1056	0.024
1057	0.024
1057	0.024
1058	0.024
1058	0.024
1058	0.025
1059	0.025
1059	0.025
1060	0.026
1060	0.027
1061	0.028
1061	0.029
1061	0.029
1062	0.029
1062	0.029
1063	0.029
1063	0.029
1063	0.03
1064	0.031
1064	0.031
1065	0.032
1065	0.032
1066	0.033
1066	0.034
1066	0.035
1067	0.036
1067	0.038
1068	0.039
1068	0.04
1068	0.042
1069	0.043
1069	0.045
1070	0.047
1070	0.049
1071	0.051
1071	0.054
1071	0.056
1072	0.059
1072	0.062
1073	0.065
1073	0.069
1073	0.072
1074	0.075
1074	0.078
1075	0.08
1075	0.082
1076	0.083
1076	0.086
1076	0.088
1077	0.091
1077	0.093
1078	0.096
1078	0.099
1078	0.103
1079	0.106
1079	0.109
1080	0.112
1080	0.115
1080	0.118
1081	0.121
1081	0.124
1082	0.127
1082	0.129
1083	0.132
1083	0.136
1083	0.14
1084	0.145
1084	0.15
1085	0.156
1085	0.162
1085	0.167
1086	0.173
1086	0.178
1087	0.185
1087	0.192
1088	0.197
1088	0.203
1088	0.212
1089	0.218
1089	0.225
1090	0.234
1090	0.245
1090	0.254
1091	0.266
1091	0.278
1092	0.292
1092	0.307
1092	0.322
1093	0.338
1093	0.358
1094	0.379
1094	0.401
1095	0.426
1095	0.455
1095	0.491
1096	0.529
1096	0.573
1097	0.63
1097	0.692
1097	0.774
1098	0.872
1098	1.011
1099	1.246
1099	1.825
1100	-0
1100	-0
1100	-0
1101	-0
1101	-0
1102	-0
1102	-0
1102	-0
1103	-0
1103	-0
1104	-0
1104	-0
1104	-0
1105	-0
1105	-0
1106	-0
1106	-0
1107	-0
1107	-0
1107	-0
1108	-0
1108	-0
1109	-0
1109	-0
1109	-0
1110	-0
1110	-0
1111	-0
1111	-0
