Data from 15c-2-5a_Absorbance__1289__03090.txt Node

Date: Fri Jan 19 14:26:15 CET 2024
User: Marek
Spectrometer: MAYP115816
Trigger mode: 0
Integration Time (sec): 2.000000E-1
Scans to average: 10
Electric dark correction enabled: true
Nonlinearity correction enabled: true
Boxcar width: 5
XAxis mode: Wavelengths
Number of Pixels in Spectrum: 2068
>>>>>Begin Spectral Data<<<<<
199	-2.301
199	-2.143
200	-1.996
200	-1.875
201	-1.804
201	-1.749
202	-1.675
202	-1.614
203	-1.56
203	-1.514
204	-1.485
204	-1.46
205	-1.44
205	-1.428
205	-1.426
206	-1.42
206	-1.415
207	-1.41
207	-1.405
208	-1.403
208	-1.4
209	-1.398
209	-1.393
210	-1.39
210	-1.388
211	-1.387
211	-1.385
212	-1.386
212	-1.386
213	-1.385
213	-1.382
213	-1.381
214	-1.376
214	-1.375
215	-1.373
215	-1.371
216	-1.367
216	-1.367
217	-1.362
217	-1.36
218	-1.358
218	-1.355
219	-1.352
219	-1.352
220	-1.35
220	-1.349
221	-1.347
221	-1.342
221	-1.336
222	-1.334
222	-1.33
223	-1.324
223	-1.32
224	-1.312
224	-1.305
225	-1.297
225	-1.285
226	-1.274
226	-1.264
227	-1.251
227	-1.236
228	-1.22
228	-1.204
229	-1.183
229	-1.161
229	-1.133
230	-1.104
230	-1.072
231	-1.036
231	-0.996
232	-0.955
232	-0.91
233	-0.862
233	-0.811
234	-0.761
234	-0.709
235	-0.658
235	-0.606
236	-0.555
236	-0.504
236	-0.455
237	-0.407
237	-0.36
238	-0.316
238	-0.273
239	-0.232
239	-0.194
240	-0.158
240	-0.124
241	-0.091
241	-0.061
242	-0.032
242	-0.006
243	0.018
243	0.041
243	0.062
244	0.082
244	0.1
245	0.116
245	0.132
246	0.147
246	0.16
247	0.173
247	0.184
248	0.195
248	0.205
249	0.215
249	0.224
250	0.232
250	0.24
250	0.248
251	0.254
251	0.261
252	0.267
252	0.273
253	0.279
253	0.283
254	0.288
254	0.293
255	0.297
255	0.301
256	0.305
256	0.308
257	0.311
257	0.314
258	0.316
258	0.319
258	0.321
259	0.323
259	0.325
260	0.326
260	0.328
261	0.329
261	0.33
262	0.331
262	0.332
263	0.333
263	0.334
264	0.335
264	0.335
265	0.336
265	0.336
265	0.337
266	0.337
266	0.337
267	0.337
267	0.337
268	0.337
268	0.336
269	0.336
269	0.335
270	0.335
270	0.334
271	0.333
271	0.332
272	0.332
272	0.331
272	0.33
273	0.329
273	0.328
274	0.328
274	0.327
275	0.326
275	0.325
276	0.324
276	0.323
277	0.322
277	0.32
278	0.318
278	0.315
278	0.313
279	0.311
279	0.31
280	0.309
280	0.308
281	0.308
281	0.307
282	0.306
282	0.306
283	0.306
283	0.307
284	0.307
284	0.307
285	0.306
285	0.305
285	0.305
286	0.304
286	0.303
287	0.302
287	0.301
288	0.301
288	0.3
289	0.299
289	0.298
290	0.298
290	0.297
291	0.296
291	0.295
292	0.295
292	0.294
292	0.293
293	0.292
293	0.292
294	0.291
294	0.29
295	0.289
295	0.289
296	0.288
296	0.287
297	0.287
297	0.286
298	0.286
298	0.285
298	0.284
299	0.284
299	0.283
300	0.282
300	0.282
301	0.281
301	0.28
302	0.28
302	0.279
303	0.278
303	0.278
304	0.277
304	0.276
305	0.276
305	0.275
305	0.274
306	0.274
306	0.273
307	0.272
307	0.271
308	0.27
308	0.27
309	0.269
309	0.268
310	0.267
310	0.266
311	0.265
311	0.264
311	0.264
312	0.263
312	0.262
313	0.261
313	0.26
314	0.259
314	0.258
315	0.257
315	0.256
316	0.255
316	0.254
317	0.253
317	0.252
318	0.251
318	0.25
318	0.249
319	0.248
319	0.247
320	0.246
320	0.245
321	0.244
321	0.243
322	0.242
322	0.241
323	0.24
323	0.239
324	0.238
324	0.237
324	0.236
325	0.235
325	0.234
326	0.233
326	0.232
327	0.231
327	0.23
328	0.23
328	0.229
329	0.228
329	0.227
330	0.226
330	0.225
330	0.224
331	0.224
331	0.223
332	0.222
332	0.221
333	0.22
333	0.219
334	0.218
334	0.217
335	0.216
335	0.215
336	0.214
336	0.213
336	0.212
337	0.211
337	0.21
338	0.209
338	0.208
339	0.208
339	0.207
340	0.206
340	0.205
341	0.204
341	0.204
342	0.203
342	0.202
342	0.202
343	0.201
343	0.2
344	0.2
344	0.199
345	0.198
345	0.197
346	0.196
346	0.196
347	0.195
347	0.194
348	0.193
348	0.192
348	0.191
349	0.19
349	0.189
350	0.188
350	0.187
351	0.186
351	0.185
352	0.183
352	0.182
353	0.181
353	0.18
354	0.179
354	0.177
354	0.176
355	0.175
355	0.173
356	0.172
356	0.171
357	0.17
357	0.169
358	0.169
358	0.17
359	0.17
359	0.171
360	0.172
360	0.173
360	0.174
361	0.174
361	0.175
362	0.176
362	0.176
363	0.176
363	0.175
364	0.175
364	0.174
365	0.173
365	0.173
366	0.172
366	0.171
366	0.171
367	0.171
367	0.17
368	0.17
368	0.169
369	0.168
369	0.168
370	0.167
370	0.166
371	0.166
371	0.165
372	0.164
372	0.164
372	0.163
373	0.163
373	0.163
374	0.163
374	0.163
375	0.163
375	0.163
376	0.163
376	0.163
377	0.163
377	0.164
378	0.164
378	0.164
378	0.165
379	0.165
379	0.165
380	0.165
380	0.165
381	0.165
381	0.165
382	0.164
382	0.164
383	0.163
383	0.163
383	0.162
384	0.162
384	0.161
385	0.161
385	0.16
386	0.16
386	0.16
387	0.16
387	0.16
388	0.16
388	0.159
389	0.159
389	0.159
389	0.158
390	0.159
390	0.159
391	0.159
391	0.16
392	0.159
392	0.159
393	0.159
393	0.159
394	0.159
394	0.158
394	0.158
395	0.158
395	0.157
396	0.157
396	0.156
397	0.156
397	0.157
398	0.157
398	0.157
399	0.157
399	0.157
400	0.156
400	0.156
400	0.155
401	0.155
401	0.153
402	0.152
402	0.151
403	0.151
403	0.15
404	0.15
404	0.15
405	0.149
405	0.149
405	0.148
406	0.148
406	0.148
407	0.147
407	0.147
408	0.146
408	0.145
409	0.145
409	0.144
410	0.143
410	0.143
411	0.144
411	0.143
411	0.143
412	0.143
412	0.142
413	0.142
413	0.142
414	0.141
414	0.141
415	0.141
415	0.14
416	0.139
416	0.139
416	0.138
417	0.138
417	0.137
418	0.137
418	0.137
419	0.138
419	0.138
420	0.139
420	0.14
421	0.141
421	0.141
421	0.142
422	0.142
422	0.142
423	0.142
423	0.142
424	0.141
424	0.14
425	0.139
425	0.137
426	0.137
426	0.136
427	0.136
427	0.136
427	0.136
428	0.137
428	0.138
429	0.139
429	0.14
430	0.14
430	0.14
431	0.139
431	0.139
432	0.138
432	0.137
432	0.136
433	0.134
433	0.132
434	0.131
434	0.13
435	0.13
435	0.13
436	0.13
436	0.13
437	0.13
437	0.131
437	0.13
438	0.13
438	0.13
439	0.13
439	0.129
440	0.129
440	0.129
441	0.129
441	0.129
442	0.129
442	0.129
442	0.129
443	0.13
443	0.13
444	0.13
444	0.131
445	0.131
445	0.131
446	0.13
446	0.13
447	0.13
447	0.129
447	0.129
448	0.129
448	0.129
449	0.129
449	0.128
450	0.128
450	0.128
451	0.127
451	0.127
452	0.126
452	0.125
452	0.124
453	0.123
453	0.123
454	0.122
454	0.121
455	0.12
455	0.12
456	0.119
456	0.119
457	0.119
457	0.118
458	0.118
458	0.118
458	0.118
459	0.118
459	0.118
460	0.117
460	0.116
461	0.115
461	0.115
462	0.114
462	0.115
463	0.115
463	0.116
463	0.116
464	0.117
464	0.117
465	0.117
465	0.117
466	0.117
466	0.118
467	0.117
467	0.117
467	0.115
468	0.113
468	0.111
469	0.108
469	0.106
470	0.105
470	0.104
471	0.104
471	0.103
472	0.103
472	0.103
472	0.104
473	0.105
473	0.106
474	0.107
474	0.109
475	0.11
475	0.11
476	0.11
476	0.111
477	0.111
477	0.111
477	0.111
478	0.111
478	0.111
479	0.112
479	0.112
480	0.114
480	0.115
481	0.116
481	0.117
482	0.118
482	0.119
482	0.121
483	0.124
483	0.127
484	0.132
484	0.135
485	0.137
485	0.139
486	0.14
486	0.141
487	0.141
487	0.141
487	0.141
488	0.14
488	0.137
489	0.134
489	0.131
490	0.129
490	0.128
491	0.127
491	0.127
492	0.127
492	0.127
492	0.128
493	0.128
493	0.129
494	0.131
494	0.133
495	0.136
495	0.137
496	0.138
496	0.139
496	0.14
497	0.141
497	0.142
498	0.142
498	0.143
499	0.142
499	0.142
500	0.142
500	0.143
501	0.145
501	0.147
501	0.149
502	0.15
502	0.152
503	0.153
503	0.155
504	0.156
504	0.156
505	0.156
505	0.156
506	0.155
506	0.156
506	0.155
507	0.155
507	0.155
508	0.154
508	0.155
509	0.155
509	0.156
510	0.156
510	0.156
511	0.156
511	0.156
511	0.156
512	0.156
512	0.156
513	0.154
513	0.152
514	0.15
514	0.149
515	0.148
515	0.148
515	0.147
516	0.146
516	0.146
517	0.146
517	0.145
518	0.144
518	0.143
519	0.141
519	0.138
520	0.134
520	0.13
520	0.126
521	0.123
521	0.12
522	0.118
522	0.117
523	0.118
523	0.12
524	0.123
524	0.127
524	0.131
525	0.135
525	0.139
526	0.143
526	0.146
527	0.149
527	0.151
528	0.152
528	0.154
529	0.154
529	0.155
529	0.155
530	0.155
530	0.154
531	0.154
531	0.154
532	0.154
532	0.153
533	0.153
533	0.154
533	0.154
534	0.153
534	0.152
535	0.152
535	0.151
536	0.151
536	0.151
537	0.15
537	0.15
538	0.149
538	0.147
538	0.146
539	0.145
539	0.144
540	0.143
540	0.142
541	0.14
541	0.139
542	0.137
542	0.135
542	0.133
543	0.133
543	0.132
544	0.13
544	0.129
545	0.128
545	0.128
546	0.129
546	0.128
547	0.128
547	0.125
547	0.123
548	0.12
548	0.118
549	0.115
549	0.113
550	0.111
550	0.109
551	0.107
551	0.104
551	0.102
552	0.101
552	0.1
553	0.099
553	0.099
554	0.099
554	0.098
555	0.095
555	0.092
556	0.089
556	0.086
556	0.083
557	0.08
557	0.078
558	0.076
558	0.074
559	0.072
559	0.071
560	0.071
560	0.07
560	0.07
561	0.07
561	0.071
562	0.071
562	0.07
563	0.069
563	0.066
564	0.064
564	0.061
564	0.059
565	0.057
565	0.056
566	0.055
566	0.054
567	0.054
567	0.056
568	0.058
568	0.06
568	0.062
569	0.065
569	0.068
570	0.07
570	0.071
571	0.072
571	0.073
572	0.074
572	0.075
573	0.075
573	0.075
573	0.075
574	0.074
574	0.073
575	0.073
575	0.075
576	0.076
576	0.076
577	0.075
577	0.074
577	0.073
578	0.072
578	0.071
579	0.073
579	0.074
580	0.074
580	0.072
581	0.069
581	0.066
581	0.065
582	0.064
582	0.064
583	0.065
583	0.065
584	0.062
584	0.057
585	0.055
585	0.054
585	0.053
586	0.053
586	0.053
587	0.051
587	0.049
588	0.045
588	0.042
589	0.039
589	0.038
590	0.036
590	0.035
590	0.035
591	0.036
591	0.037
592	0.037
592	0.036
593	0.036
593	0.036
594	0.036
594	0.035
594	0.034
595	0.033
595	0.032
596	0.03
596	0.029
597	0.031
597	0.033
598	0.034
598	0.036
598	0.037
599	0.037
599	0.037
600	0.036
600	0.034
601	0.033
601	0.032
602	0.03
602	0.028
602	0.026
603	0.025
603	0.025
604	0.026
604	0.028
605	0.03
605	0.033
606	0.034
606	0.034
606	0.033
607	0.033
607	0.033
608	0.032
608	0.03
609	0.028
609	0.027
610	0.025
610	0.023
610	0.021
611	0.021
611	0.022
612	0.023
612	0.024
613	0.026
613	0.027
614	0.027
614	0.026
614	0.026
615	0.026
615	0.025
616	0.025
616	0.024
617	0.023
617	0.022
618	0.02
618	0.018
618	0.018
619	0.017
619	0.017
620	0.019
620	0.021
621	0.021
621	0.021
622	0.021
622	0.022
622	0.022
623	0.022
623	0.023
624	0.024
624	0.024
625	0.023
625	0.022
626	0.022
626	0.022
626	0.022
627	0.023
627	0.024
628	0.024
628	0.025
629	0.025
629	0.025
630	0.025
630	0.024
630	0.024
631	0.024
631	0.024
632	0.023
632	0.022
633	0.022
633	0.023
634	0.024
634	0.026
634	0.028
635	0.03
635	0.032
636	0.033
636	0.034
637	0.036
637	0.037
638	0.038
638	0.039
638	0.04
639	0.04
639	0.04
640	0.04
640	0.041
641	0.043
641	0.045
642	0.047
642	0.049
642	0.05
643	0.052
643	0.053
644	0.056
644	0.058
645	0.06
645	0.062
646	0.065
646	0.069
646	0.073
647	0.077
647	0.082
648	0.085
648	0.088
649	0.092
649	0.095
650	0.099
650	0.103
650	0.106
651	0.108
651	0.111
652	0.113
652	0.115
653	0.117
653	0.126
653	0.153
654	0.127
654	0.107
655	0.112
655	0.114
656	0.115
656	0.117
657	0.119
657	0.121
657	0.123
658	0.12
658	0.102
659	0.125
659	0.157
660	0.158
660	0.16
661	0.162
661	0.163
661	0.166
662	0.169
662	0.172
663	0.175
663	0.178
664	0.181
664	0.183
665	0.185
665	0.188
665	0.19
666	0.193
666	0.195
667	0.197
667	0.199
668	0.201
668	0.203
669	0.206
669	0.209
669	0.213
670	0.217
670	0.221
671	0.223
671	0.225
672	0.227
672	0.229
672	0.23
673	0.232
673	0.233
674	0.234
674	0.234
675	0.234
675	0.234
676	0.235
676	0.237
676	0.239
677	0.241
677	0.244
678	0.246
678	0.248
679	0.25
679	0.251
680	0.254
680	0.256
680	0.256
681	0.257
681	0.257
682	0.258
682	0.26
683	0.261
683	0.264
684	0.268
684	0.269
684	0.27
685	0.27
685	0.271
686	0.273
686	0.273
687	0.273
687	0.272
687	0.271
688	0.269
688	0.267
689	0.266
689	0.267
690	0.267
690	0.267
691	0.266
691	0.266
691	0.267
692	0.266
692	0.265
693	0.265
693	0.265
694	0.265
694	0.262
695	0.262
695	0.264
695	0.265
696	0.264
696	0.263
697	0.263
697	0.262
698	0.261
698	0.259
698	0.257
699	0.256
699	0.254
700	0.25
700	0.247
701	0.246
701	0.245
702	0.243
702	0.242
702	0.24
703	0.239
703	0.237
704	0.236
704	0.235
705	0.235
705	0.235
705	0.233
706	0.233
706	0.232
707	0.231
707	0.229
708	0.227
708	0.226
709	0.224
709	0.222
709	0.218
710	0.214
710	0.21
711	0.208
711	0.205
712	0.203
712	0.201
713	0.199
713	0.197
713	0.195
714	0.192
714	0.189
715	0.187
715	0.185
716	0.182
716	0.18
716	0.178
717	0.175
717	0.173
718	0.17
718	0.167
719	0.165
719	0.163
720	0.16
720	0.158
720	0.154
721	0.151
721	0.147
722	0.145
722	0.141
723	0.139
723	0.137
723	0.135
724	0.133
724	0.13
725	0.128
725	0.125
726	0.124
726	0.122
727	0.12
727	0.118
727	0.116
728	0.114
728	0.111
729	0.111
729	0.11
730	0.108
730	0.106
730	0.104
731	0.102
731	0.1
732	0.098
732	0.097
733	0.095
733	0.092
734	0.089
734	0.086
734	0.083
735	0.081
735	0.079
736	0.075
736	0.072
737	0.069
737	0.067
737	0.064
738	0.061
738	0.058
739	0.055
739	0.052
740	0.05
740	0.048
741	0.046
741	0.044
741	0.041
742	0.036
742	0.032
743	0.029
743	0.025
744	0.022
744	0.019
744	0.016
745	0.013
745	0.01
746	0.008
746	0.006
747	0.006
747	0.006
748	0.006
748	0.007
748	0.007
749	0.006
749	0.006
750	0.005
750	0.004
751	0.004
751	0.003
751	0.002
752	0.001
752	-0.001
753	-0.002
753	-0.004
754	-0.004
754	-0.005
754	-0.005
755	-0.004
755	-0.003
756	-0.003
756	-0.005
757	-0.007
757	-0.007
758	-0.008
758	-0.009
758	-0.01
759	-0.011
759	-0.014
760	-0.017
760	-0.021
761	-0.024
761	-0.025
761	-0.026
762	-0.029
762	-0.031
763	-0.032
763	-0.035
764	-0.039
764	-0.042
764	-0.045
765	-0.048
765	-0.051
766	-0.053
766	-0.055
767	-0.056
767	-0.059
768	-0.063
768	-0.065
768	-0.067
769	-0.068
769	-0.068
770	-0.07
770	-0.071
771	-0.074
771	-0.077
771	-0.08
772	-0.082
772	-0.084
773	-0.086
773	-0.089
774	-0.093
774	-0.096
775	-0.1
775	-0.103
775	-0.107
776	-0.111
776	-0.115
777	-0.118
777	-0.122
778	-0.127
778	-0.132
778	-0.136
779	-0.139
779	-0.138
780	-0.138
780	-0.14
781	-0.142
781	-0.143
781	-0.145
782	-0.146
782	-0.148
783	-0.148
783	-0.147
784	-0.148
784	-0.15
784	-0.152
785	-0.153
785	-0.155
786	-0.155
786	-0.153
787	-0.149
787	-0.145
788	-0.143
788	-0.144
788	-0.146
789	-0.148
789	-0.148
790	-0.146
790	-0.144
791	-0.145
791	-0.147
791	-0.15
792	-0.145
792	-0.134
793	-0.128
793	-0.124
794	-0.122
794	-0.124
794	-0.127
795	-0.129
795	-0.129
796	-0.129
796	-0.132
797	-0.14
797	-0.151
797	-0.157
798	-0.163
798	-0.166
799	-0.166
799	-0.166
800	-0.166
800	-0.167
801	-0.17
801	-0.17
801	-0.17
802	-0.171
802	-0.172
803	-0.172
803	-0.172
804	-0.171
804	-0.166
804	-0.16
805	-0.156
805	-0.154
806	-0.152
806	-0.15
807	-0.149
807	-0.149
807	-0.148
808	-0.148
808	-0.149
809	-0.153
809	-0.159
810	-0.163
810	-0.165
810	-0.169
811	-0.172
811	-0.173
812	-0.169
812	-0.167
813	-0.167
813	-0.168
813	-0.17
814	-0.171
814	-0.171
815	-0.169
815	-0.167
816	-0.165
816	-0.166
817	-0.17
817	-0.173
817	-0.173
818	-0.172
818	-0.169
819	-0.163
819	-0.16
820	-0.161
820	-0.163
820	-0.164
821	-0.164
821	-0.163
822	-0.163
822	-0.162
823	-0.162
823	-0.164
823	-0.168
824	-0.169
824	-0.166
825	-0.162
825	-0.155
826	-0.149
826	-0.145
826	-0.139
827	-0.132
827	-0.125
828	-0.118
828	-0.112
829	-0.105
829	-0.099
829	-0.095
830	-0.092
830	-0.088
831	-0.084
831	-0.081
832	-0.079
832	-0.077
832	-0.075
833	-0.074
833	-0.073
834	-0.072
834	-0.071
835	-0.07
835	-0.069
835	-0.069
836	-0.067
836	-0.066
837	-0.066
837	-0.065
838	-0.064
838	-0.063
839	-0.062
839	-0.061
839	-0.061
840	-0.06
840	-0.059
841	-0.058
841	-0.057
842	-0.056
842	-0.054
842	-0.052
843	-0.05
843	-0.048
844	-0.045
844	-0.043
845	-0.041
845	-0.039
845	-0.037
846	-0.035
846	-0.034
847	-0.033
847	-0.033
848	-0.033
848	-0.033
848	-0.033
849	-0.032
849	-0.032
850	-0.031
850	-0.031
851	-0.031
851	-0.03
851	-0.029
852	-0.028
852	-0.027
853	-0.026
853	-0.025
854	-0.024
854	-0.023
854	-0.023
855	-0.022
855	-0.022
856	-0.022
856	-0.022
857	-0.022
857	-0.022
857	-0.022
858	-0.022
858	-0.022
859	-0.022
859	-0.022
860	-0.021
860	-0.02
860	-0.019
861	-0.018
861	-0.017
862	-0.016
862	-0.015
863	-0.014
863	-0.013
863	-0.012
864	-0.011
864	-0.01
865	-0.009
865	-0.008
866	-0.008
866	-0.007
866	-0.006
867	-0.004
867	-0.004
868	-0.003
868	-0.003
869	-0.002
869	-0.002
869	-0.003
870	-0.003
870	-0.003
871	-0.003
871	-0.003
872	-0.004
872	-0.004
872	-0.004
873	-0.003
873	-0.003
874	-0.003
874	-0.003
875	-0.003
875	-0.002
875	-0.002
876	-0.002
876	-0.001
877	-0.001
877	-0.001
878	-0.002
878	-0.002
878	-0.003
879	-0.004
879	-0.005
880	-0.006
880	-0.007
881	-0.008
881	-0.008
881	-0.008
882	-0.008
882	-0.007
883	-0.006
883	-0.005
884	-0.003
884	-0.002
884	-0
885	0.001
885	0.003
886	0.004
886	0.005
887	0.005
887	0.006
887	0.006
888	0.006
888	0.006
889	0.006
889	0.005
890	0.005
890	0.004
890	0.004
891	0.003
891	0.002
892	0.001
892	0
893	-0
893	-0.001
893	-0.001
894	-0.002
894	-0.002
895	-0.003
895	-0.003
895	-0.003
896	-0.003
896	-0.003
897	-0.002
897	-0.002
898	-0.002
898	-0.002
898	-0.001
899	-0.001
899	-0
900	-0
900	0.001
901	0.001
901	0.002
901	0.004
902	0.005
902	0.006
903	0.007
903	0.009
904	0.01
904	0.01
904	0.011
905	0.012
905	0.012
906	0.012
906	0.012
907	0.011
907	0.011
907	0.01
908	0.009
908	0.008
909	0.008
909	0.007
910	0.006
910	0.005
910	0.005
911	0.004
911	0.003
912	0.003
912	0.002
913	0.002
913	0.002
913	0.001
914	0.001
914	0
915	-0
915	-0
916	-0
916	-0
916	0
917	0.001
917	0.001
918	0.002
918	0.003
918	0.004
919	0.005
919	0.006
920	0.008
920	0.009
921	0.011
921	0.012
921	0.012
922	0.013
922	0.014
923	0.014
923	0.014
924	0.014
924	0.013
924	0.013
925	0.012
925	0.011
926	0.011
926	0.011
927	0.01
927	0.01
927	0.01
928	0.01
928	0.01
929	0.01
929	0.01
930	0.01
930	0.01
930	0.01
931	0.009
931	0.009
932	0.009
932	0.008
933	0.008
933	0.008
933	0.008
934	0.008
934	0.008
935	0.008
935	0.009
935	0.009
936	0.01
936	0.011
937	0.012
937	0.013
938	0.014
938	0.014
938	0.015
939	0.015
939	0.016
940	0.015
940	0.015
941	0.014
941	0.014
941	0.013
942	0.013
942	0.012
943	0.012
943	0.012
944	0.012
944	0.012
944	0.012
945	0.013
945	0.013
946	0.014
946	0.014
946	0.014
947	0.015
947	0.015
948	0.015
948	0.015
949	0.015
949	0.016
949	0.016
950	0.016
950	0.017
951	0.017
951	0.017
952	0.017
952	0.018
952	0.018
953	0.019
953	0.019
954	0.019
954	0.019
955	0.018
955	0.018
955	0.018
956	0.018
956	0.017
957	0.017
957	0.016
957	0.015
958	0.014
958	0.013
959	0.013
959	0.012
960	0.011
960	0.01
960	0.01
961	0.009
961	0.009
962	0.008
962	0.008
963	0.008
963	0.008
963	0.008
964	0.008
964	0.008
965	0.008
965	0.008
966	0.008
966	0.008
966	0.008
967	0.008
967	0.008
968	0.008
968	0.009
968	0.009
969	0.01
969	0.011
970	0.011
970	0.012
971	0.013
971	0.013
971	0.014
972	0.015
972	0.016
973	0.017
973	0.018
974	0.019
974	0.02
974	0.021
975	0.022
975	0.023
976	0.024
976	0.025
976	0.025
977	0.025
977	0.025
978	0.025
978	0.024
979	0.024
979	0.023
979	0.023
980	0.022
980	0.021
981	0.02
981	0.02
982	0.019
982	0.019
982	0.019
983	0.018
983	0.018
984	0.018
984	0.018
984	0.018
985	0.018
985	0.018
986	0.018
986	0.017
987	0.017
987	0.017
987	0.017
988	0.017
988	0.017
989	0.017
989	0.016
990	0.016
990	0.016
990	0.016
991	0.016
991	0.016
992	0.016
992	0.015
992	0.015
993	0.015
993	0.014
994	0.014
994	0.013
995	0.012
995	0.012
995	0.011
996	0.011
996	0.01
997	0.01
997	0.011
997	0.011
998	0.012
998	0.013
999	0.014
999	0.016
1000	0.017
1000	0.017
1000	0.018
1001	0.018
1001	0.018
1002	0.018
1002	0.017
1003	0.016
1003	0.015
1003	0.014
1004	0.013
1004	0.011
1005	0.01
1005	0.009
1005	0.008
1006	0.007
1006	0.006
1007	0.006
1007	0.005
1008	0.005
1008	0.005
1008	0.005
1009	0.005
1009	0.004
1010	0.004
1010	0.004
1010	0.004
1011	0.005
1011	0.005
1012	0.005
1012	0.005
1013	0.005
1013	0.005
1013	0.005
1014	0.006
1014	0.007
1015	0.007
1015	0.008
1016	0.009
1016	0.01
1016	0.011
1017	0.013
1017	0.014
1018	0.016
1018	0.017
1018	0.018
1019	0.019
1019	0.02
1020	0.021
1020	0.021
1021	0.021
1021	0.022
1021	0.022
1022	0.021
1022	0.021
1023	0.021
1023	0.02
1023	0.02
1024	0.019
1024	0.019
1025	0.019
1025	0.019
1026	0.018
1026	0.018
1026	0.018
1027	0.018
1027	0.019
1028	0.019
1028	0.019
1028	0.019
1029	0.019
1029	0.019
1030	0.018
1030	0.018
1031	0.018
1031	0.018
1031	0.018
1032	0.018
1032	0.018
1033	0.018
1033	0.018
1033	0.018
1034	0.017
1034	0.017
1035	0.017
1035	0.017
1036	0.016
1036	0.016
1036	0.016
1037	0.016
1037	0.017
1038	0.017
1038	0.018
1039	0.019
1039	0.02
1039	0.022
1040	0.022
1040	0.023
1041	0.024
1041	0.024
1041	0.024
1042	0.024
1042	0.025
1043	0.025
1043	0.025
1044	0.025
1044	0.025
1044	0.026
1045	0.026
1045	0.027
1046	0.028
1046	0.029
1046	0.03
1047	0.032
1047	0.033
1048	0.035
1048	0.036
1049	0.037
1049	0.037
1049	0.038
1050	0.038
1050	0.039
1051	0.039
1051	0.04
1051	0.041
1052	0.041
1052	0.042
1053	0.043
1053	0.044
1053	0.045
1054	0.046
1054	0.047
1055	0.048
1055	0.048
1056	0.048
1056	0.048
1056	0.047
1057	0.047
1057	0.047
1058	0.047
1058	0.047
1058	0.048
1059	0.048
1059	0.049
1060	0.049
1060	0.051
1061	0.052
1061	0.053
1061	0.054
1062	0.054
1062	0.055
1063	0.055
1063	0.056
1063	0.057
1064	0.058
1064	0.059
1065	0.06
1065	0.061
1066	0.062
1066	0.064
1066	0.066
1067	0.068
1067	0.07
1068	0.072
1068	0.074
1068	0.075
1069	0.077
1069	0.079
1070	0.082
1070	0.085
1071	0.088
1071	0.091
1071	0.093
1072	0.097
1072	0.101
1073	0.105
1073	0.109
1073	0.113
1074	0.117
1074	0.12
1075	0.123
1075	0.126
1076	0.128
1076	0.132
1076	0.135
1077	0.138
1077	0.142
1078	0.146
1078	0.15
1078	0.154
1079	0.159
1079	0.163
1080	0.167
1080	0.172
1080	0.174
1081	0.178
1081	0.182
1082	0.187
1082	0.191
1083	0.195
1083	0.2
1083	0.206
1084	0.212
1084	0.219
1085	0.225
1085	0.233
1085	0.24
1086	0.247
1086	0.253
1087	0.26
1087	0.269
1088	0.276
1088	0.284
1088	0.295
1089	0.305
1089	0.317
1090	0.329
1090	0.345
1090	0.361
1091	0.379
1091	0.4
1092	0.42
1092	0.445
1092	0.469
1093	0.495
1093	0.529
1094	0.564
1094	0.605
1095	0.651
1095	0.713
1095	0.792
1096	0.889
1096	1.022
1097	1.24
1097	1.678
1097	-0
1098	-0
1098	-0
1099	-0
1099	-0
1100	-0
1100	-0
1100	-0
1101	-0
1101	-0
1102	-0
1102	-0
1102	-0
1103	-0
1103	-0
1104	-0
1104	-0
1104	-0
1105	-0
1105	-0
1106	-0
1106	-0
1107	-0
1107	-0
1107	-0
1108	-0
1108	-0
1109	-0
1109	-0
1109	-0
1110	-0
1110	-0
1111	-0
1111	-0
