Data from 15c-2-5a_Absorbance__574__02375.txt Node

Date: Fri Jan 19 14:02:25 CET 2024
User: Marek
Spectrometer: MAYP115816
Trigger mode: 0
Integration Time (sec): 2.000000E-1
Scans to average: 10
Electric dark correction enabled: true
Nonlinearity correction enabled: true
Boxcar width: 5
XAxis mode: Wavelengths
Number of Pixels in Spectrum: 2068
>>>>>Begin Spectral Data<<<<<
199	-2.289
199	-2.131
200	-1.984
200	-1.863
201	-1.792
201	-1.737
202	-1.663
202	-1.602
203	-1.548
203	-1.502
204	-1.474
204	-1.449
205	-1.429
205	-1.417
205	-1.415
206	-1.409
206	-1.405
207	-1.4
207	-1.395
208	-1.393
208	-1.39
209	-1.388
209	-1.383
210	-1.38
210	-1.379
211	-1.378
211	-1.376
212	-1.377
212	-1.376
213	-1.375
213	-1.372
213	-1.372
214	-1.367
214	-1.366
215	-1.364
215	-1.362
216	-1.358
216	-1.359
217	-1.354
217	-1.352
218	-1.349
218	-1.347
219	-1.343
219	-1.342
220	-1.341
220	-1.34
221	-1.339
221	-1.333
221	-1.328
222	-1.326
222	-1.322
223	-1.316
223	-1.311
224	-1.304
224	-1.297
225	-1.289
225	-1.277
226	-1.266
226	-1.256
227	-1.243
227	-1.228
228	-1.212
228	-1.196
229	-1.175
229	-1.153
229	-1.126
230	-1.097
230	-1.065
231	-1.029
231	-0.99
232	-0.949
232	-0.905
233	-0.857
233	-0.807
234	-0.758
234	-0.707
235	-0.658
235	-0.608
236	-0.559
236	-0.51
236	-0.463
237	-0.416
237	-0.372
238	-0.33
238	-0.29
239	-0.252
239	-0.217
240	-0.183
240	-0.152
241	-0.122
241	-0.095
242	-0.069
242	-0.046
243	-0.024
243	-0.005
243	0.014
244	0.031
244	0.047
245	0.062
245	0.075
246	0.088
246	0.1
247	0.11
247	0.12
248	0.129
248	0.138
249	0.145
249	0.153
250	0.16
250	0.166
250	0.172
251	0.178
251	0.183
252	0.189
252	0.194
253	0.198
253	0.202
254	0.206
254	0.21
255	0.213
255	0.217
256	0.22
256	0.222
257	0.225
257	0.227
258	0.229
258	0.231
258	0.232
259	0.234
259	0.235
260	0.236
260	0.237
261	0.238
261	0.239
262	0.24
262	0.24
263	0.241
263	0.242
264	0.242
264	0.242
265	0.243
265	0.243
265	0.243
266	0.243
266	0.243
267	0.242
267	0.242
268	0.242
268	0.241
269	0.241
269	0.24
270	0.239
270	0.238
271	0.237
271	0.236
272	0.235
272	0.235
272	0.234
273	0.233
273	0.232
274	0.231
274	0.23
275	0.229
275	0.228
276	0.227
276	0.226
277	0.225
277	0.223
278	0.222
278	0.219
278	0.217
279	0.215
279	0.214
280	0.213
280	0.212
281	0.211
281	0.21
282	0.209
282	0.209
283	0.209
283	0.209
284	0.209
284	0.209
285	0.208
285	0.207
285	0.206
286	0.206
286	0.205
287	0.204
287	0.203
288	0.202
288	0.201
289	0.201
289	0.2
290	0.199
290	0.198
291	0.197
291	0.197
292	0.196
292	0.195
292	0.195
293	0.194
293	0.193
294	0.193
294	0.192
295	0.192
295	0.191
296	0.191
296	0.19
297	0.19
297	0.189
298	0.189
298	0.188
298	0.188
299	0.187
299	0.187
300	0.186
300	0.186
301	0.185
301	0.185
302	0.184
302	0.183
303	0.183
303	0.182
304	0.182
304	0.181
305	0.181
305	0.18
305	0.179
306	0.179
306	0.178
307	0.178
307	0.177
308	0.177
308	0.176
309	0.175
309	0.175
310	0.174
310	0.174
311	0.173
311	0.172
311	0.172
312	0.171
312	0.17
313	0.169
313	0.169
314	0.168
314	0.167
315	0.167
315	0.166
316	0.165
316	0.164
317	0.164
317	0.163
318	0.162
318	0.161
318	0.161
319	0.16
319	0.159
320	0.158
320	0.158
321	0.157
321	0.156
322	0.155
322	0.154
323	0.153
323	0.152
324	0.151
324	0.151
324	0.15
325	0.149
325	0.149
326	0.148
326	0.147
327	0.147
327	0.146
328	0.146
328	0.145
329	0.144
329	0.144
330	0.143
330	0.142
330	0.141
331	0.14
331	0.14
332	0.139
332	0.138
333	0.138
333	0.137
334	0.136
334	0.135
335	0.134
335	0.133
336	0.133
336	0.132
336	0.131
337	0.131
337	0.13
338	0.129
338	0.128
339	0.128
339	0.127
340	0.126
340	0.126
341	0.125
341	0.124
342	0.124
342	0.124
342	0.123
343	0.122
343	0.121
344	0.121
344	0.12
345	0.12
345	0.119
346	0.119
346	0.118
347	0.117
347	0.116
348	0.115
348	0.115
348	0.114
349	0.113
349	0.112
350	0.111
350	0.11
351	0.11
351	0.109
352	0.108
352	0.107
353	0.106
353	0.105
354	0.103
354	0.102
354	0.101
355	0.1
355	0.099
356	0.098
356	0.097
357	0.097
357	0.096
358	0.096
358	0.097
359	0.097
359	0.098
360	0.099
360	0.1
360	0.1
361	0.101
361	0.101
362	0.101
362	0.101
363	0.101
363	0.1
364	0.1
364	0.099
365	0.099
365	0.098
366	0.098
366	0.097
366	0.097
367	0.097
367	0.096
368	0.096
368	0.095
369	0.095
369	0.094
370	0.094
370	0.094
371	0.093
371	0.093
372	0.092
372	0.091
372	0.091
373	0.091
373	0.091
374	0.091
374	0.091
375	0.09
375	0.09
376	0.09
376	0.091
377	0.091
377	0.091
378	0.092
378	0.092
378	0.092
379	0.092
379	0.092
380	0.093
380	0.093
381	0.093
381	0.092
382	0.092
382	0.091
383	0.091
383	0.091
383	0.09
384	0.09
384	0.089
385	0.089
385	0.088
386	0.088
386	0.088
387	0.088
387	0.088
388	0.088
388	0.087
389	0.087
389	0.087
389	0.087
390	0.087
390	0.088
391	0.088
391	0.088
392	0.088
392	0.088
393	0.088
393	0.088
394	0.088
394	0.087
394	0.087
395	0.087
395	0.086
396	0.086
396	0.086
397	0.086
397	0.087
398	0.087
398	0.087
399	0.087
399	0.087
400	0.087
400	0.086
400	0.086
401	0.085
401	0.084
402	0.083
402	0.082
403	0.082
403	0.081
404	0.081
404	0.081
405	0.08
405	0.08
405	0.079
406	0.079
406	0.079
407	0.079
407	0.078
408	0.077
408	0.077
409	0.076
409	0.075
410	0.075
410	0.075
411	0.075
411	0.075
411	0.075
412	0.075
412	0.074
413	0.074
413	0.074
414	0.074
414	0.073
415	0.073
415	0.073
416	0.072
416	0.071
416	0.071
417	0.07
417	0.07
418	0.07
418	0.07
419	0.071
419	0.071
420	0.072
420	0.073
421	0.073
421	0.074
421	0.074
422	0.075
422	0.075
423	0.075
423	0.074
424	0.074
424	0.073
425	0.072
425	0.071
426	0.07
426	0.07
427	0.069
427	0.069
427	0.069
428	0.07
428	0.071
429	0.072
429	0.072
430	0.072
430	0.072
431	0.072
431	0.071
432	0.071
432	0.07
432	0.069
433	0.067
433	0.066
434	0.065
434	0.064
435	0.064
435	0.064
436	0.065
436	0.064
437	0.065
437	0.065
437	0.065
438	0.065
438	0.064
439	0.064
439	0.064
440	0.063
440	0.063
441	0.063
441	0.064
442	0.064
442	0.064
442	0.064
443	0.065
443	0.065
444	0.065
444	0.066
445	0.066
445	0.066
446	0.065
446	0.065
447	0.065
447	0.064
447	0.064
448	0.064
448	0.063
449	0.063
449	0.063
450	0.062
450	0.062
451	0.062
451	0.061
452	0.06
452	0.059
452	0.059
453	0.058
453	0.057
454	0.056
454	0.056
455	0.055
455	0.055
456	0.054
456	0.054
457	0.054
457	0.054
458	0.053
458	0.053
458	0.054
459	0.054
459	0.054
460	0.053
460	0.052
461	0.051
461	0.051
462	0.05
462	0.051
463	0.051
463	0.051
463	0.052
464	0.052
464	0.053
465	0.053
465	0.053
466	0.053
466	0.053
467	0.053
467	0.052
467	0.051
468	0.049
468	0.047
469	0.045
469	0.044
470	0.043
470	0.042
471	0.042
471	0.041
472	0.041
472	0.04
472	0.041
473	0.042
473	0.043
474	0.044
474	0.045
475	0.045
475	0.046
476	0.046
476	0.046
477	0.046
477	0.046
477	0.047
478	0.047
478	0.047
479	0.047
479	0.047
480	0.048
480	0.049
481	0.049
481	0.05
482	0.051
482	0.052
482	0.053
483	0.055
483	0.058
484	0.062
484	0.064
485	0.066
485	0.067
486	0.068
486	0.069
487	0.069
487	0.069
487	0.069
488	0.068
488	0.065
489	0.063
489	0.06
490	0.058
490	0.057
491	0.056
491	0.056
492	0.056
492	0.056
492	0.057
493	0.057
493	0.057
494	0.059
494	0.061
495	0.063
495	0.064
496	0.064
496	0.065
496	0.066
497	0.066
497	0.067
498	0.068
498	0.068
499	0.068
499	0.067
500	0.067
500	0.068
501	0.07
501	0.071
501	0.072
502	0.074
502	0.075
503	0.076
503	0.077
504	0.078
504	0.078
505	0.077
505	0.077
506	0.077
506	0.077
506	0.077
507	0.076
507	0.075
508	0.075
508	0.075
509	0.075
509	0.076
510	0.076
510	0.076
511	0.076
511	0.075
511	0.075
512	0.076
512	0.076
513	0.075
513	0.074
514	0.072
514	0.071
515	0.07
515	0.069
515	0.068
516	0.068
516	0.068
517	0.068
517	0.067
518	0.067
518	0.066
519	0.065
519	0.063
520	0.06
520	0.057
520	0.054
521	0.051
521	0.048
522	0.045
522	0.043
523	0.041
523	0.041
524	0.043
524	0.045
524	0.047
525	0.051
525	0.054
526	0.057
526	0.061
527	0.064
527	0.066
528	0.068
528	0.07
529	0.071
529	0.071
529	0.072
530	0.072
530	0.072
531	0.072
531	0.072
532	0.072
532	0.072
533	0.072
533	0.072
533	0.073
534	0.072
534	0.072
535	0.072
535	0.072
536	0.072
536	0.071
537	0.071
537	0.071
538	0.07
538	0.069
538	0.067
539	0.067
539	0.066
540	0.065
540	0.064
541	0.063
541	0.061
542	0.06
542	0.058
542	0.057
543	0.057
543	0.056
544	0.055
544	0.055
545	0.054
545	0.055
546	0.055
546	0.055
547	0.054
547	0.053
547	0.051
548	0.049
548	0.047
549	0.045
549	0.043
550	0.042
550	0.04
551	0.038
551	0.036
551	0.035
552	0.034
552	0.033
553	0.033
553	0.033
554	0.033
554	0.033
555	0.031
555	0.028
556	0.026
556	0.024
556	0.021
557	0.019
557	0.017
558	0.015
558	0.014
559	0.013
559	0.012
560	0.013
560	0.013
560	0.013
561	0.013
561	0.014
562	0.015
562	0.014
563	0.013
563	0.011
564	0.009
564	0.007
564	0.005
565	0.004
565	0.004
566	0.003
566	0.003
567	0.004
567	0.006
568	0.008
568	0.01
568	0.013
569	0.016
569	0.019
570	0.02
570	0.021
571	0.022
571	0.024
572	0.025
572	0.025
573	0.026
573	0.026
573	0.026
574	0.025
574	0.025
575	0.025
575	0.027
576	0.029
576	0.029
577	0.028
577	0.027
577	0.026
578	0.026
578	0.026
579	0.027
579	0.028
580	0.028
580	0.026
581	0.023
581	0.02
581	0.019
582	0.019
582	0.019
583	0.02
583	0.02
584	0.018
584	0.014
585	0.012
585	0.012
585	0.012
586	0.013
586	0.013
587	0.011
587	0.009
588	0.006
588	0.003
589	0.001
589	-0
590	-0.001
590	-0.002
590	-0.002
591	-0.001
591	-0
592	-0.001
592	-0.001
593	-0.002
593	-0.002
594	-0.002
594	-0.003
594	-0.004
595	-0.004
595	-0.006
596	-0.008
596	-0.008
597	-0.005
597	-0.003
598	-0.002
598	-0.001
598	0
599	0.001
599	0
600	-0.001
600	-0.002
601	-0.003
601	-0.004
602	-0.006
602	-0.008
602	-0.01
603	-0.011
603	-0.01
604	-0.009
604	-0.008
605	-0.005
605	-0.003
606	-0.001
606	-0.002
606	-0.002
607	-0.003
607	-0.003
608	-0.004
608	-0.006
609	-0.008
609	-0.009
610	-0.011
610	-0.014
610	-0.015
611	-0.015
611	-0.015
612	-0.014
612	-0.012
613	-0.011
613	-0.009
614	-0.009
614	-0.009
614	-0.009
615	-0.01
615	-0.01
616	-0.01
616	-0.011
617	-0.011
617	-0.013
618	-0.015
618	-0.016
618	-0.017
619	-0.018
619	-0.018
620	-0.016
620	-0.016
621	-0.015
621	-0.015
622	-0.015
622	-0.015
622	-0.014
623	-0.015
623	-0.013
624	-0.012
624	-0.013
625	-0.013
625	-0.014
626	-0.014
626	-0.014
626	-0.014
627	-0.013
627	-0.012
628	-0.012
628	-0.011
629	-0.011
629	-0.012
630	-0.012
630	-0.013
630	-0.014
631	-0.014
631	-0.015
632	-0.016
632	-0.017
633	-0.017
633	-0.017
634	-0.017
634	-0.015
634	-0.013
635	-0.011
635	-0.01
636	-0.009
636	-0.008
637	-0.007
637	-0.006
638	-0.005
638	-0.004
638	-0.003
639	-0.004
639	-0.004
640	-0.004
640	-0.003
641	-0.003
641	-0.001
642	-0
642	0.001
642	0.003
643	0.004
643	0.005
644	0.007
644	0.009
645	0.011
645	0.012
646	0.015
646	0.018
646	0.022
647	0.025
647	0.029
648	0.031
648	0.034
649	0.036
649	0.039
650	0.042
650	0.045
650	0.047
651	0.049
651	0.051
652	0.052
652	0.053
653	0.056
653	0.064
653	0.089
654	0.076
654	0.067
655	0.069
655	0.071
656	0.072
656	0.073
657	0.075
657	0.076
657	0.077
658	0.074
658	0.058
659	0.069
659	0.085
660	0.086
660	0.087
661	0.088
661	0.089
661	0.091
662	0.093
662	0.095
663	0.098
663	0.1
664	0.102
664	0.104
665	0.105
665	0.107
665	0.109
666	0.111
666	0.113
667	0.114
667	0.116
668	0.118
668	0.119
669	0.121
669	0.123
669	0.127
670	0.13
670	0.133
671	0.135
671	0.137
672	0.138
672	0.14
672	0.141
673	0.142
673	0.144
674	0.145
674	0.145
675	0.145
675	0.145
676	0.146
676	0.148
676	0.149
677	0.151
677	0.153
678	0.155
678	0.157
679	0.158
679	0.16
680	0.161
680	0.163
680	0.164
681	0.164
681	0.165
682	0.166
682	0.167
683	0.169
683	0.171
684	0.174
684	0.175
684	0.175
685	0.175
685	0.176
686	0.177
686	0.177
687	0.176
687	0.175
687	0.175
688	0.174
688	0.172
689	0.172
689	0.173
690	0.174
690	0.174
691	0.173
691	0.174
691	0.174
692	0.173
692	0.172
693	0.172
693	0.172
694	0.171
694	0.168
695	0.168
695	0.169
695	0.17
696	0.169
696	0.169
697	0.168
697	0.168
698	0.167
698	0.165
698	0.164
699	0.163
699	0.162
700	0.158
700	0.156
701	0.156
701	0.154
702	0.153
702	0.152
702	0.151
703	0.15
703	0.149
704	0.149
704	0.149
705	0.149
705	0.149
705	0.149
706	0.148
706	0.148
707	0.147
707	0.145
708	0.143
708	0.141
709	0.14
709	0.137
709	0.134
710	0.13
710	0.127
711	0.124
711	0.123
712	0.121
712	0.119
713	0.118
713	0.117
713	0.116
714	0.114
714	0.112
715	0.11
715	0.109
716	0.107
716	0.105
716	0.104
717	0.102
717	0.101
718	0.098
718	0.096
719	0.095
719	0.094
720	0.092
720	0.09
720	0.088
721	0.085
721	0.082
722	0.08
722	0.077
723	0.075
723	0.074
723	0.072
724	0.07
724	0.068
725	0.065
725	0.063
726	0.061
726	0.06
727	0.058
727	0.056
727	0.055
728	0.053
728	0.052
729	0.052
729	0.051
730	0.05
730	0.049
730	0.047
731	0.046
731	0.045
732	0.044
732	0.042
733	0.04
733	0.038
734	0.036
734	0.033
734	0.031
735	0.03
735	0.027
736	0.025
736	0.023
737	0.021
737	0.02
737	0.018
738	0.016
738	0.013
739	0.011
739	0.009
740	0.007
740	0.005
741	0.004
741	0.002
741	-0.001
742	-0.005
742	-0.01
743	-0.013
743	-0.015
744	-0.018
744	-0.02
744	-0.022
745	-0.025
745	-0.027
746	-0.029
746	-0.03
747	-0.03
747	-0.029
748	-0.028
748	-0.028
748	-0.027
749	-0.028
749	-0.027
750	-0.027
750	-0.028
751	-0.028
751	-0.029
751	-0.029
752	-0.03
752	-0.032
753	-0.033
753	-0.035
754	-0.035
754	-0.036
754	-0.036
755	-0.035
755	-0.034
756	-0.034
756	-0.035
757	-0.036
757	-0.036
758	-0.036
758	-0.037
758	-0.038
759	-0.038
759	-0.041
760	-0.044
760	-0.047
761	-0.049
761	-0.051
761	-0.052
762	-0.054
762	-0.056
763	-0.057
763	-0.059
764	-0.063
764	-0.066
764	-0.068
765	-0.071
765	-0.074
766	-0.076
766	-0.077
767	-0.078
767	-0.081
768	-0.085
768	-0.088
768	-0.089
769	-0.09
769	-0.091
770	-0.092
770	-0.094
771	-0.096
771	-0.099
771	-0.102
772	-0.104
772	-0.105
773	-0.107
773	-0.109
774	-0.113
774	-0.116
775	-0.119
775	-0.122
775	-0.126
776	-0.13
776	-0.134
777	-0.137
777	-0.141
778	-0.146
778	-0.151
778	-0.155
779	-0.156
779	-0.153
780	-0.152
780	-0.153
781	-0.152
781	-0.152
781	-0.152
782	-0.151
782	-0.151
783	-0.15
783	-0.148
784	-0.148
784	-0.151
784	-0.152
785	-0.154
785	-0.155
786	-0.156
786	-0.153
787	-0.149
787	-0.145
788	-0.144
788	-0.145
788	-0.146
789	-0.149
789	-0.149
790	-0.146
790	-0.145
791	-0.146
791	-0.148
791	-0.15
792	-0.145
792	-0.135
793	-0.129
793	-0.124
794	-0.122
794	-0.124
794	-0.128
795	-0.13
795	-0.129
796	-0.13
796	-0.132
797	-0.14
797	-0.151
797	-0.158
798	-0.163
798	-0.166
799	-0.167
799	-0.166
800	-0.166
800	-0.167
801	-0.17
801	-0.171
801	-0.171
802	-0.171
802	-0.172
803	-0.173
803	-0.173
804	-0.172
804	-0.167
804	-0.16
805	-0.156
805	-0.154
806	-0.152
806	-0.151
807	-0.15
807	-0.149
807	-0.149
808	-0.148
808	-0.149
809	-0.154
809	-0.159
810	-0.163
810	-0.166
810	-0.169
811	-0.172
811	-0.173
812	-0.17
812	-0.167
813	-0.167
813	-0.169
813	-0.17
814	-0.171
814	-0.172
815	-0.17
815	-0.167
816	-0.166
816	-0.166
817	-0.17
817	-0.174
817	-0.174
818	-0.173
818	-0.169
819	-0.163
819	-0.16
820	-0.161
820	-0.163
820	-0.165
821	-0.165
821	-0.164
822	-0.163
822	-0.163
823	-0.162
823	-0.164
823	-0.168
824	-0.169
824	-0.167
825	-0.163
825	-0.157
826	-0.151
826	-0.147
826	-0.142
827	-0.136
827	-0.13
828	-0.124
828	-0.119
829	-0.113
829	-0.108
829	-0.104
830	-0.101
830	-0.099
831	-0.095
831	-0.093
832	-0.091
832	-0.089
832	-0.088
833	-0.087
833	-0.086
834	-0.085
834	-0.084
835	-0.083
835	-0.082
835	-0.082
836	-0.08
836	-0.079
837	-0.078
837	-0.076
838	-0.076
838	-0.075
839	-0.074
839	-0.073
839	-0.073
840	-0.072
840	-0.071
841	-0.07
841	-0.069
842	-0.067
842	-0.066
842	-0.064
843	-0.061
843	-0.059
844	-0.056
844	-0.054
845	-0.052
845	-0.05
845	-0.048
846	-0.046
846	-0.045
847	-0.045
847	-0.044
848	-0.044
848	-0.044
848	-0.043
849	-0.043
849	-0.043
850	-0.042
850	-0.042
851	-0.042
851	-0.041
851	-0.04
852	-0.039
852	-0.038
853	-0.037
853	-0.037
854	-0.036
854	-0.035
854	-0.035
855	-0.035
855	-0.035
856	-0.035
856	-0.035
857	-0.035
857	-0.036
857	-0.036
858	-0.036
858	-0.036
859	-0.036
859	-0.036
860	-0.035
860	-0.034
860	-0.033
861	-0.032
861	-0.031
862	-0.031
862	-0.03
863	-0.029
863	-0.029
863	-0.028
864	-0.028
864	-0.027
865	-0.027
865	-0.026
866	-0.026
866	-0.025
866	-0.025
867	-0.024
867	-0.023
868	-0.023
868	-0.023
869	-0.022
869	-0.022
869	-0.022
870	-0.023
870	-0.023
871	-0.023
871	-0.023
872	-0.023
872	-0.023
872	-0.023
873	-0.022
873	-0.022
874	-0.022
874	-0.022
875	-0.022
875	-0.022
875	-0.022
876	-0.022
876	-0.022
877	-0.022
877	-0.022
878	-0.023
878	-0.023
878	-0.024
879	-0.024
879	-0.025
880	-0.025
880	-0.025
881	-0.025
881	-0.025
881	-0.024
882	-0.022
882	-0.021
883	-0.019
883	-0.017
884	-0.015
884	-0.014
884	-0.012
885	-0.01
885	-0.008
886	-0.007
886	-0.006
887	-0.006
887	-0.006
887	-0.007
888	-0.007
888	-0.007
889	-0.008
889	-0.008
890	-0.009
890	-0.01
890	-0.01
891	-0.011
891	-0.011
892	-0.012
892	-0.012
893	-0.012
893	-0.012
893	-0.011
894	-0.011
894	-0.012
895	-0.012
895	-0.012
895	-0.013
896	-0.013
896	-0.013
897	-0.013
897	-0.013
898	-0.014
898	-0.014
898	-0.014
899	-0.014
899	-0.014
900	-0.013
900	-0.013
901	-0.012
901	-0.012
901	-0.011
902	-0.011
902	-0.01
903	-0.01
903	-0.009
904	-0.008
904	-0.008
904	-0.007
905	-0.006
905	-0.005
906	-0.005
906	-0.005
907	-0.004
907	-0.004
907	-0.004
908	-0.005
908	-0.005
909	-0.005
909	-0.005
910	-0.005
910	-0.005
910	-0.005
911	-0.005
911	-0.005
912	-0.005
912	-0.006
913	-0.006
913	-0.006
913	-0.006
914	-0.007
914	-0.007
915	-0.008
915	-0.008
916	-0.009
916	-0.009
916	-0.009
917	-0.01
917	-0.01
918	-0.01
918	-0.01
918	-0.01
919	-0.009
919	-0.009
920	-0.008
920	-0.007
921	-0.006
921	-0.006
921	-0.005
922	-0.005
922	-0.004
923	-0.004
923	-0.004
924	-0.004
924	-0.004
924	-0.005
925	-0.006
925	-0.006
926	-0.007
926	-0.007
927	-0.008
927	-0.009
927	-0.009
928	-0.01
928	-0.01
929	-0.01
929	-0.01
930	-0.011
930	-0.011
930	-0.011
931	-0.011
931	-0.011
932	-0.011
932	-0.011
933	-0.01
933	-0.01
933	-0.009
934	-0.009
934	-0.008
935	-0.008
935	-0.007
935	-0.007
936	-0.006
936	-0.005
937	-0.004
937	-0.003
938	-0.002
938	-0.001
938	-0.001
939	0
939	0.001
940	0.001
940	0.002
941	0.002
941	0.002
941	0.002
942	0.002
942	0.002
943	0.002
943	0.002
944	0.003
944	0.003
944	0.003
945	0.003
945	0.004
946	0.004
946	0.004
946	0.004
947	0.004
947	0.004
948	0.004
948	0.003
949	0.003
949	0.004
949	0.004
950	0.004
950	0.004
951	0.004
951	0.003
952	0.003
952	0.003
952	0.002
953	0.002
953	0.001
954	0
954	-0
955	-0.001
955	-0.002
955	-0.002
956	-0.003
956	-0.003
957	-0.004
957	-0.004
957	-0.004
958	-0.005
958	-0.005
959	-0.005
959	-0.005
960	-0.005
960	-0.005
960	-0.005
961	-0.005
961	-0.004
962	-0.004
962	-0.004
963	-0.004
963	-0.004
963	-0.004
964	-0.004
964	-0.004
965	-0.003
965	-0.003
966	-0.003
966	-0.002
966	-0.001
967	-0.001
967	-0
968	0
968	0.001
968	0.002
969	0.003
969	0.003
970	0.004
970	0.004
971	0.005
971	0.005
971	0.005
972	0.005
972	0.005
973	0.005
973	0.005
974	0.005
974	0.006
974	0.006
975	0.007
975	0.008
976	0.009
976	0.01
976	0.01
977	0.01
977	0.01
978	0.01
978	0.01
979	0.009
979	0.009
979	0.008
980	0.007
980	0.005
981	0.004
981	0.003
982	0.003
982	0.002
982	0.002
983	0.001
983	0.001
984	0
984	-0
984	-0
985	-0
985	-0.001
986	-0.001
986	-0.001
987	-0.001
987	-0.001
987	-0.001
988	-0.001
988	-0.001
989	-0.001
989	-0.001
990	-0.001
990	-0.001
990	-0
991	-0
991	-0
992	-0
992	-0.001
992	-0.001
993	-0.001
993	-0.001
994	-0.002
994	-0.002
995	-0.002
995	-0.003
995	-0.003
996	-0.003
996	-0.003
997	-0.002
997	-0.002
997	-0.001
998	0
998	0.002
999	0.003
999	0.004
1000	0.005
1000	0.005
1000	0.005
1001	0.006
1001	0.005
1002	0.005
1002	0.004
1003	0.003
1003	0.002
1003	0.001
1004	-0
1004	-0.002
1005	-0.003
1005	-0.004
1005	-0.005
1006	-0.006
1006	-0.007
1007	-0.007
1007	-0.008
1008	-0.008
1008	-0.008
1008	-0.008
1009	-0.008
1009	-0.008
1010	-0.008
1010	-0.007
1010	-0.007
1011	-0.007
1011	-0.006
1012	-0.006
1012	-0.006
1013	-0.006
1013	-0.006
1013	-0.005
1014	-0.005
1014	-0.005
1015	-0.004
1015	-0.003
1016	-0.002
1016	-0.002
1016	-0.001
1017	-0
1017	0.001
1018	0.003
1018	0.004
1018	0.005
1019	0.006
1019	0.007
1020	0.008
1020	0.009
1021	0.01
1021	0.01
1021	0.011
1022	0.011
1022	0.011
1023	0.011
1023	0.011
1023	0.011
1024	0.01
1024	0.01
1025	0.01
1025	0.01
1026	0.01
1026	0.01
1026	0.01
1027	0.011
1027	0.011
1028	0.011
1028	0.011
1028	0.011
1029	0.011
1029	0.011
1030	0.01
1030	0.01
1031	0.009
1031	0.008
1031	0.008
1032	0.007
1032	0.007
1033	0.006
1033	0.005
1033	0.005
1034	0.004
1034	0.003
1035	0.002
1035	0.002
1036	0.001
1036	0.001
1036	0
1037	0
1037	0.001
1038	0.001
1038	0.001
1039	0.002
1039	0.003
1039	0.004
1040	0.005
1040	0.006
1041	0.006
1041	0.007
1041	0.008
1042	0.008
1042	0.009
1043	0.009
1043	0.01
1044	0.01
1044	0.011
1044	0.012
1045	0.013
1045	0.013
1046	0.014
1046	0.015
1046	0.017
1047	0.018
1047	0.02
1048	0.021
1048	0.022
1049	0.023
1049	0.023
1049	0.024
1050	0.024
1050	0.025
1051	0.025
1051	0.026
1051	0.027
1052	0.028
1052	0.029
1053	0.03
1053	0.031
1053	0.032
1054	0.034
1054	0.035
1055	0.036
1055	0.036
1056	0.036
1056	0.036
1056	0.035
1057	0.035
1057	0.035
1058	0.034
1058	0.034
1058	0.034
1059	0.035
1059	0.034
1060	0.034
1060	0.035
1061	0.035
1061	0.036
1061	0.036
1062	0.036
1062	0.036
1063	0.036
1063	0.035
1063	0.035
1064	0.036
1064	0.037
1065	0.037
1065	0.037
1066	0.038
1066	0.039
1066	0.04
1067	0.042
1067	0.044
1068	0.045
1068	0.046
1068	0.048
1069	0.049
1069	0.051
1070	0.053
1070	0.056
1071	0.059
1071	0.062
1071	0.064
1072	0.068
1072	0.071
1073	0.075
1073	0.079
1073	0.082
1074	0.086
1074	0.089
1075	0.091
1075	0.094
1076	0.097
1076	0.101
1076	0.103
1077	0.106
1077	0.11
1078	0.113
1078	0.117
1078	0.122
1079	0.125
1079	0.13
1080	0.134
1080	0.138
1080	0.141
1081	0.145
1081	0.15
1082	0.154
1082	0.157
1083	0.161
1083	0.164
1083	0.169
1084	0.174
1084	0.181
1085	0.187
1085	0.194
1085	0.202
1086	0.208
1086	0.214
1087	0.222
1087	0.231
1088	0.238
1088	0.245
1088	0.255
1089	0.263
1089	0.274
1090	0.285
1090	0.298
1090	0.312
1091	0.327
1091	0.344
1092	0.36
1092	0.382
1092	0.403
1093	0.424
1093	0.453
1094	0.48
1094	0.51
1095	0.544
1095	0.587
1095	0.643
1096	0.704
1096	0.782
1097	0.888
1097	1.026
1097	1.269
1098	1.785
1098	-0
1099	-0
1099	-0
1100	-0
1100	-0
1100	-0
1101	-0
1101	-0
1102	-0
1102	-0
1102	-0
1103	-0
1103	-0
1104	-0
1104	-0
1104	-0
1105	-0
1105	-0
1106	-0
1106	-0
1107	-0
1107	-0
1107	-0
1108	-0
1108	-0
1109	-0
1109	-0
1109	-0
1110	-0
1110	-0
1111	-0
1111	-0
