Data from 15c-2-5a_Absorbance__607__02408.txt Node

Date: Fri Jan 19 14:03:31 CET 2024
User: Marek
Spectrometer: MAYP115816
Trigger mode: 0
Integration Time (sec): 2.000000E-1
Scans to average: 10
Electric dark correction enabled: true
Nonlinearity correction enabled: true
Boxcar width: 5
XAxis mode: Wavelengths
Number of Pixels in Spectrum: 2068
>>>>>Begin Spectral Data<<<<<
199	-2.284
199	-2.126
200	-1.979
200	-1.858
201	-1.788
201	-1.733
202	-1.659
202	-1.598
203	-1.544
203	-1.498
204	-1.471
204	-1.445
205	-1.425
205	-1.413
205	-1.411
206	-1.405
206	-1.401
207	-1.396
207	-1.392
208	-1.39
208	-1.386
209	-1.384
209	-1.379
210	-1.377
210	-1.375
211	-1.374
211	-1.372
212	-1.373
212	-1.373
213	-1.372
213	-1.368
213	-1.368
214	-1.363
214	-1.362
215	-1.359
215	-1.357
216	-1.354
216	-1.354
217	-1.349
217	-1.347
218	-1.344
218	-1.341
219	-1.338
219	-1.338
220	-1.336
220	-1.335
221	-1.334
221	-1.328
221	-1.323
222	-1.321
222	-1.316
223	-1.31
223	-1.306
224	-1.299
224	-1.292
225	-1.284
225	-1.272
226	-1.261
226	-1.251
227	-1.238
227	-1.223
228	-1.207
228	-1.191
229	-1.171
229	-1.149
229	-1.122
230	-1.093
230	-1.06
231	-1.024
231	-0.986
232	-0.945
232	-0.901
233	-0.853
233	-0.803
234	-0.753
234	-0.702
235	-0.653
235	-0.602
236	-0.553
236	-0.505
236	-0.457
237	-0.411
237	-0.367
238	-0.324
238	-0.285
239	-0.247
239	-0.211
240	-0.178
240	-0.146
241	-0.117
241	-0.089
242	-0.064
242	-0.04
243	-0.019
243	0.001
243	0.02
244	0.037
244	0.053
245	0.067
245	0.081
246	0.093
246	0.105
247	0.115
247	0.125
248	0.134
248	0.143
249	0.151
249	0.158
250	0.165
250	0.172
250	0.178
251	0.184
251	0.189
252	0.195
252	0.2
253	0.204
253	0.208
254	0.213
254	0.217
255	0.22
255	0.223
256	0.226
256	0.229
257	0.231
257	0.233
258	0.235
258	0.237
258	0.239
259	0.24
259	0.241
260	0.243
260	0.244
261	0.244
261	0.245
262	0.246
262	0.247
263	0.247
263	0.248
264	0.249
264	0.249
265	0.249
265	0.249
265	0.249
266	0.25
266	0.25
267	0.249
267	0.249
268	0.249
268	0.248
269	0.247
269	0.247
270	0.246
270	0.245
271	0.244
271	0.243
272	0.242
272	0.241
272	0.24
273	0.239
273	0.238
274	0.238
274	0.237
275	0.236
275	0.235
276	0.234
276	0.233
277	0.231
277	0.23
278	0.228
278	0.226
278	0.224
279	0.222
279	0.22
280	0.219
280	0.218
281	0.217
281	0.216
282	0.216
282	0.215
283	0.215
283	0.215
284	0.215
284	0.215
285	0.214
285	0.213
285	0.212
286	0.211
286	0.211
287	0.21
287	0.209
288	0.208
288	0.208
289	0.207
289	0.206
290	0.205
290	0.204
291	0.203
291	0.203
292	0.202
292	0.201
292	0.201
293	0.2
293	0.199
294	0.198
294	0.198
295	0.197
295	0.197
296	0.196
296	0.196
297	0.195
297	0.195
298	0.194
298	0.193
298	0.193
299	0.192
299	0.192
300	0.191
300	0.191
301	0.19
301	0.19
302	0.189
302	0.189
303	0.188
303	0.188
304	0.187
304	0.187
305	0.186
305	0.186
305	0.185
306	0.185
306	0.184
307	0.183
307	0.183
308	0.182
308	0.181
309	0.181
309	0.18
310	0.179
310	0.178
311	0.178
311	0.177
311	0.176
312	0.176
312	0.175
313	0.175
313	0.174
314	0.173
314	0.173
315	0.172
315	0.171
316	0.17
316	0.169
317	0.169
317	0.168
318	0.167
318	0.166
318	0.166
319	0.165
319	0.164
320	0.163
320	0.163
321	0.162
321	0.161
322	0.16
322	0.159
323	0.158
323	0.157
324	0.156
324	0.156
324	0.155
325	0.154
325	0.154
326	0.153
326	0.152
327	0.151
327	0.151
328	0.15
328	0.149
329	0.149
329	0.148
330	0.147
330	0.146
330	0.146
331	0.145
331	0.144
332	0.144
332	0.143
333	0.142
333	0.141
334	0.141
334	0.14
335	0.139
335	0.138
336	0.138
336	0.137
336	0.136
337	0.135
337	0.134
338	0.134
338	0.133
339	0.132
339	0.132
340	0.131
340	0.13
341	0.129
341	0.129
342	0.128
342	0.128
342	0.127
343	0.126
343	0.126
344	0.125
344	0.125
345	0.124
345	0.123
346	0.123
346	0.122
347	0.121
347	0.12
348	0.119
348	0.119
348	0.118
349	0.117
349	0.116
350	0.116
350	0.115
351	0.114
351	0.113
352	0.112
352	0.111
353	0.11
353	0.109
354	0.108
354	0.107
354	0.106
355	0.104
355	0.103
356	0.103
356	0.102
357	0.101
357	0.101
358	0.101
358	0.101
359	0.102
359	0.102
360	0.103
360	0.104
360	0.104
361	0.105
361	0.105
362	0.105
362	0.105
363	0.105
363	0.104
364	0.104
364	0.103
365	0.103
365	0.102
366	0.102
366	0.101
366	0.101
367	0.1
367	0.1
368	0.1
368	0.099
369	0.099
369	0.098
370	0.098
370	0.097
371	0.097
371	0.096
372	0.096
372	0.095
372	0.095
373	0.094
373	0.094
374	0.094
374	0.094
375	0.094
375	0.094
376	0.094
376	0.094
377	0.094
377	0.095
378	0.095
378	0.095
378	0.096
379	0.096
379	0.096
380	0.096
380	0.096
381	0.096
381	0.095
382	0.095
382	0.095
383	0.094
383	0.094
383	0.093
384	0.093
384	0.093
385	0.092
385	0.092
386	0.092
386	0.092
387	0.092
387	0.092
388	0.091
388	0.091
389	0.091
389	0.091
389	0.091
390	0.091
390	0.091
391	0.092
391	0.092
392	0.092
392	0.092
393	0.092
393	0.092
394	0.091
394	0.091
394	0.091
395	0.09
395	0.09
396	0.09
396	0.09
397	0.09
397	0.09
398	0.09
398	0.09
399	0.09
399	0.09
400	0.09
400	0.09
400	0.089
401	0.088
401	0.087
402	0.086
402	0.085
403	0.085
403	0.085
404	0.084
404	0.084
405	0.083
405	0.083
405	0.083
406	0.082
406	0.082
407	0.082
407	0.081
408	0.081
408	0.08
409	0.08
409	0.079
410	0.079
410	0.079
411	0.079
411	0.079
411	0.078
412	0.078
412	0.078
413	0.078
413	0.077
414	0.077
414	0.077
415	0.077
415	0.076
416	0.076
416	0.075
416	0.074
417	0.074
417	0.074
418	0.074
418	0.074
419	0.074
419	0.075
420	0.075
420	0.076
421	0.077
421	0.077
421	0.078
422	0.078
422	0.078
423	0.078
423	0.078
424	0.077
424	0.077
425	0.076
425	0.074
426	0.074
426	0.073
427	0.073
427	0.073
427	0.073
428	0.074
428	0.074
429	0.075
429	0.076
430	0.076
430	0.076
431	0.075
431	0.075
432	0.074
432	0.074
432	0.073
433	0.071
433	0.07
434	0.069
434	0.068
435	0.068
435	0.068
436	0.068
436	0.069
437	0.069
437	0.069
437	0.069
438	0.069
438	0.068
439	0.068
439	0.068
440	0.067
440	0.067
441	0.067
441	0.068
442	0.068
442	0.068
442	0.068
443	0.069
443	0.069
444	0.069
444	0.069
445	0.069
445	0.069
446	0.069
446	0.069
447	0.069
447	0.068
447	0.068
448	0.068
448	0.067
449	0.067
449	0.067
450	0.066
450	0.066
451	0.066
451	0.065
452	0.065
452	0.064
452	0.063
453	0.062
453	0.062
454	0.061
454	0.06
455	0.06
455	0.059
456	0.059
456	0.059
457	0.058
457	0.058
458	0.058
458	0.058
458	0.058
459	0.058
459	0.058
460	0.057
460	0.056
461	0.056
461	0.055
462	0.055
462	0.055
463	0.055
463	0.056
463	0.056
464	0.057
464	0.057
465	0.057
465	0.057
466	0.057
466	0.057
467	0.057
467	0.056
467	0.055
468	0.053
468	0.051
469	0.049
469	0.048
470	0.047
470	0.046
471	0.045
471	0.045
472	0.044
472	0.044
472	0.045
473	0.046
473	0.047
474	0.048
474	0.048
475	0.049
475	0.049
476	0.05
476	0.05
477	0.05
477	0.05
477	0.05
478	0.05
478	0.05
479	0.051
479	0.051
480	0.052
480	0.052
481	0.053
481	0.054
482	0.054
482	0.056
482	0.057
483	0.059
483	0.062
484	0.065
484	0.068
485	0.07
485	0.071
486	0.072
486	0.073
487	0.073
487	0.073
487	0.073
488	0.072
488	0.07
489	0.067
489	0.065
490	0.063
490	0.062
491	0.061
491	0.06
492	0.061
492	0.061
492	0.061
493	0.061
493	0.062
494	0.063
494	0.065
495	0.067
495	0.068
496	0.069
496	0.069
496	0.07
497	0.071
497	0.072
498	0.072
498	0.072
499	0.072
499	0.072
500	0.072
500	0.073
501	0.074
501	0.076
501	0.077
502	0.078
502	0.079
503	0.08
503	0.082
504	0.082
504	0.082
505	0.082
505	0.081
506	0.081
506	0.081
506	0.081
507	0.08
507	0.08
508	0.079
508	0.079
509	0.079
509	0.08
510	0.08
510	0.08
511	0.08
511	0.08
511	0.079
512	0.08
512	0.08
513	0.079
513	0.078
514	0.076
514	0.075
515	0.074
515	0.073
515	0.072
516	0.072
516	0.072
517	0.071
517	0.071
518	0.071
518	0.07
519	0.068
519	0.066
520	0.063
520	0.06
520	0.057
521	0.054
521	0.051
522	0.049
522	0.047
523	0.046
523	0.047
524	0.049
524	0.051
524	0.054
525	0.058
525	0.061
526	0.065
526	0.068
527	0.07
527	0.073
528	0.074
528	0.075
529	0.076
529	0.077
529	0.077
530	0.077
530	0.077
531	0.077
531	0.077
532	0.077
532	0.077
533	0.077
533	0.077
533	0.078
534	0.078
534	0.077
535	0.077
535	0.077
536	0.077
536	0.076
537	0.076
537	0.076
538	0.075
538	0.074
538	0.072
539	0.072
539	0.071
540	0.07
540	0.069
541	0.067
541	0.066
542	0.065
542	0.063
542	0.062
543	0.061
543	0.061
544	0.06
544	0.059
545	0.059
545	0.059
546	0.059
546	0.059
547	0.058
547	0.057
547	0.055
548	0.053
548	0.051
549	0.049
549	0.047
550	0.046
550	0.044
551	0.042
551	0.04
551	0.038
552	0.037
552	0.037
553	0.037
553	0.037
554	0.037
554	0.036
555	0.035
555	0.032
556	0.03
556	0.027
556	0.024
557	0.022
557	0.02
558	0.018
558	0.017
559	0.015
559	0.015
560	0.015
560	0.016
560	0.016
561	0.016
561	0.017
562	0.018
562	0.017
563	0.016
563	0.015
564	0.013
564	0.01
564	0.008
565	0.007
565	0.007
566	0.006
566	0.006
567	0.007
567	0.008
568	0.01
568	0.012
568	0.015
569	0.018
569	0.02
570	0.022
570	0.023
571	0.024
571	0.026
572	0.026
572	0.027
573	0.028
573	0.028
573	0.028
574	0.028
574	0.028
575	0.028
575	0.029
576	0.031
576	0.031
577	0.03
577	0.029
577	0.029
578	0.028
578	0.028
579	0.029
579	0.03
580	0.03
580	0.028
581	0.025
581	0.023
581	0.021
582	0.021
582	0.021
583	0.022
583	0.022
584	0.02
584	0.016
585	0.014
585	0.014
585	0.014
586	0.014
586	0.014
587	0.013
587	0.01
588	0.007
588	0.005
589	0.003
589	0.001
590	0
590	-0
590	0
591	0.001
591	0.001
592	0.001
592	0
593	-0
593	-0
594	-0.001
594	-0.001
594	-0.002
595	-0.003
595	-0.005
596	-0.006
596	-0.006
597	-0.004
597	-0.002
598	-0.001
598	0
598	0.001
599	0.002
599	0.001
600	0
600	-0.001
601	-0.002
601	-0.003
602	-0.005
602	-0.007
602	-0.008
603	-0.009
603	-0.009
604	-0.008
604	-0.006
605	-0.004
605	-0.002
606	-0
606	-0.001
606	-0.001
607	-0.002
607	-0.002
608	-0.003
608	-0.005
609	-0.007
609	-0.008
610	-0.01
610	-0.013
610	-0.014
611	-0.014
611	-0.014
612	-0.013
612	-0.011
613	-0.01
613	-0.008
614	-0.008
614	-0.008
614	-0.008
615	-0.009
615	-0.009
616	-0.009
616	-0.01
617	-0.01
617	-0.011
618	-0.013
618	-0.015
618	-0.016
619	-0.017
619	-0.016
620	-0.015
620	-0.014
621	-0.014
621	-0.014
622	-0.014
622	-0.013
622	-0.013
623	-0.013
623	-0.012
624	-0.011
624	-0.012
625	-0.012
625	-0.012
626	-0.013
626	-0.013
626	-0.013
627	-0.012
627	-0.011
628	-0.011
628	-0.011
629	-0.01
629	-0.011
630	-0.011
630	-0.013
630	-0.013
631	-0.013
631	-0.014
632	-0.015
632	-0.015
633	-0.016
633	-0.016
634	-0.015
634	-0.013
634	-0.011
635	-0.009
635	-0.008
636	-0.007
636	-0.006
637	-0.005
637	-0.004
638	-0.003
638	-0.002
638	-0.002
639	-0.002
639	-0.003
640	-0.003
640	-0.002
641	-0.001
641	0
642	0.002
642	0.003
642	0.004
643	0.006
643	0.007
644	0.009
644	0.011
645	0.013
645	0.015
646	0.017
646	0.02
646	0.024
647	0.027
647	0.031
648	0.033
648	0.036
649	0.038
649	0.041
650	0.044
650	0.047
650	0.049
651	0.051
651	0.053
652	0.054
652	0.056
653	0.058
653	0.066
653	0.09
654	0.078
654	0.068
655	0.07
655	0.072
656	0.074
656	0.075
657	0.077
657	0.078
657	0.079
658	0.076
658	0.061
659	0.072
659	0.089
660	0.09
660	0.091
661	0.092
661	0.093
661	0.094
662	0.096
662	0.099
663	0.101
663	0.104
664	0.105
664	0.107
665	0.109
665	0.11
665	0.112
666	0.114
666	0.116
667	0.118
667	0.119
668	0.121
668	0.123
669	0.125
669	0.127
669	0.131
670	0.135
670	0.137
671	0.139
671	0.141
672	0.143
672	0.144
672	0.145
673	0.147
673	0.148
674	0.149
674	0.149
675	0.149
675	0.149
676	0.151
676	0.152
676	0.154
677	0.155
677	0.158
678	0.159
678	0.161
679	0.162
679	0.163
680	0.165
680	0.167
680	0.167
681	0.168
681	0.169
682	0.17
682	0.171
683	0.173
683	0.175
684	0.178
684	0.179
684	0.179
685	0.18
685	0.18
686	0.181
686	0.181
687	0.181
687	0.18
687	0.179
688	0.178
688	0.177
689	0.177
689	0.178
690	0.179
690	0.179
691	0.178
691	0.178
691	0.179
692	0.178
692	0.177
693	0.176
693	0.176
694	0.175
694	0.173
695	0.172
695	0.174
695	0.174
696	0.174
696	0.173
697	0.173
697	0.172
698	0.171
698	0.17
698	0.168
699	0.168
699	0.166
700	0.163
700	0.16
701	0.159
701	0.158
702	0.157
702	0.156
702	0.155
703	0.154
703	0.153
704	0.152
704	0.152
705	0.152
705	0.153
705	0.152
706	0.152
706	0.151
707	0.15
707	0.148
708	0.147
708	0.145
709	0.143
709	0.141
709	0.137
710	0.133
710	0.131
711	0.128
711	0.127
712	0.125
712	0.123
713	0.122
713	0.121
713	0.12
714	0.118
714	0.116
715	0.114
715	0.113
716	0.11
716	0.109
716	0.107
717	0.106
717	0.104
718	0.102
718	0.1
719	0.098
719	0.097
720	0.095
720	0.093
720	0.091
721	0.088
721	0.086
722	0.083
722	0.081
723	0.078
723	0.077
723	0.075
724	0.073
724	0.07
725	0.068
725	0.066
726	0.064
726	0.062
727	0.061
727	0.059
727	0.057
728	0.055
728	0.054
729	0.054
729	0.053
730	0.052
730	0.051
730	0.049
731	0.048
731	0.046
732	0.045
732	0.044
733	0.042
733	0.04
734	0.037
734	0.035
734	0.032
735	0.031
735	0.029
736	0.026
736	0.024
737	0.022
737	0.021
737	0.02
738	0.018
738	0.015
739	0.013
739	0.011
740	0.009
740	0.007
741	0.006
741	0.004
741	0.001
742	-0.003
742	-0.007
743	-0.01
743	-0.013
744	-0.015
744	-0.017
744	-0.02
745	-0.022
745	-0.025
746	-0.027
746	-0.028
747	-0.028
747	-0.027
748	-0.027
748	-0.026
748	-0.026
749	-0.026
749	-0.026
750	-0.026
750	-0.026
751	-0.026
751	-0.027
751	-0.027
752	-0.028
752	-0.03
753	-0.032
753	-0.033
754	-0.034
754	-0.035
754	-0.035
755	-0.034
755	-0.033
756	-0.033
756	-0.034
757	-0.035
757	-0.035
758	-0.035
758	-0.036
758	-0.036
759	-0.037
759	-0.039
760	-0.042
760	-0.046
761	-0.048
761	-0.049
761	-0.051
762	-0.053
762	-0.054
763	-0.055
763	-0.058
764	-0.061
764	-0.064
764	-0.067
765	-0.07
765	-0.073
766	-0.075
766	-0.076
767	-0.077
767	-0.08
768	-0.084
768	-0.087
768	-0.089
769	-0.09
769	-0.09
770	-0.091
770	-0.093
771	-0.095
771	-0.098
771	-0.101
772	-0.103
772	-0.104
773	-0.106
773	-0.109
774	-0.112
774	-0.115
775	-0.118
775	-0.121
775	-0.124
776	-0.128
776	-0.132
777	-0.136
777	-0.139
778	-0.144
778	-0.149
778	-0.153
779	-0.154
779	-0.152
780	-0.151
780	-0.152
781	-0.151
781	-0.151
781	-0.151
782	-0.151
782	-0.151
783	-0.15
783	-0.148
784	-0.148
784	-0.151
784	-0.152
785	-0.154
785	-0.155
786	-0.156
786	-0.154
787	-0.149
787	-0.145
788	-0.144
788	-0.145
788	-0.146
789	-0.149
789	-0.149
790	-0.146
790	-0.145
791	-0.146
791	-0.148
791	-0.15
792	-0.145
792	-0.135
793	-0.129
793	-0.125
794	-0.123
794	-0.124
794	-0.128
795	-0.13
795	-0.13
796	-0.13
796	-0.132
797	-0.141
797	-0.151
797	-0.158
798	-0.163
798	-0.166
799	-0.167
799	-0.166
800	-0.166
800	-0.168
801	-0.17
801	-0.171
801	-0.171
802	-0.172
802	-0.172
803	-0.173
803	-0.173
804	-0.172
804	-0.167
804	-0.16
805	-0.156
805	-0.154
806	-0.152
806	-0.151
807	-0.15
807	-0.149
807	-0.149
808	-0.149
808	-0.149
809	-0.154
809	-0.159
810	-0.163
810	-0.166
810	-0.169
811	-0.172
811	-0.173
812	-0.17
812	-0.167
813	-0.168
813	-0.169
813	-0.17
814	-0.171
814	-0.172
815	-0.17
815	-0.167
816	-0.166
816	-0.166
817	-0.17
817	-0.174
817	-0.174
818	-0.173
818	-0.169
819	-0.163
819	-0.16
820	-0.161
820	-0.163
820	-0.165
821	-0.165
821	-0.164
822	-0.163
822	-0.163
823	-0.162
823	-0.165
823	-0.168
824	-0.169
824	-0.167
825	-0.163
825	-0.157
826	-0.152
826	-0.148
826	-0.143
827	-0.137
827	-0.131
828	-0.125
828	-0.119
829	-0.114
829	-0.108
829	-0.104
830	-0.102
830	-0.099
831	-0.095
831	-0.093
832	-0.091
832	-0.09
832	-0.088
833	-0.088
833	-0.087
834	-0.086
834	-0.085
835	-0.084
835	-0.083
835	-0.082
836	-0.081
836	-0.079
837	-0.078
837	-0.077
838	-0.076
838	-0.075
839	-0.074
839	-0.073
839	-0.073
840	-0.072
840	-0.071
841	-0.07
841	-0.069
842	-0.067
842	-0.065
842	-0.064
843	-0.061
843	-0.059
844	-0.056
844	-0.054
845	-0.052
845	-0.05
845	-0.048
846	-0.047
846	-0.046
847	-0.045
847	-0.045
848	-0.044
848	-0.044
848	-0.044
849	-0.044
849	-0.043
850	-0.043
850	-0.043
851	-0.042
851	-0.041
851	-0.04
852	-0.039
852	-0.038
853	-0.037
853	-0.036
854	-0.036
854	-0.035
854	-0.035
855	-0.035
855	-0.035
856	-0.035
856	-0.035
857	-0.035
857	-0.036
857	-0.036
858	-0.036
858	-0.036
859	-0.036
859	-0.036
860	-0.035
860	-0.034
860	-0.033
861	-0.032
861	-0.031
862	-0.031
862	-0.03
863	-0.03
863	-0.029
863	-0.029
864	-0.028
864	-0.028
865	-0.027
865	-0.027
866	-0.026
866	-0.026
866	-0.025
867	-0.025
867	-0.024
868	-0.024
868	-0.023
869	-0.023
869	-0.023
869	-0.023
870	-0.023
870	-0.023
871	-0.023
871	-0.023
872	-0.023
872	-0.023
872	-0.023
873	-0.023
873	-0.023
874	-0.023
874	-0.022
875	-0.022
875	-0.022
875	-0.022
876	-0.022
876	-0.022
877	-0.023
877	-0.023
878	-0.023
878	-0.024
878	-0.024
879	-0.025
879	-0.025
880	-0.025
880	-0.025
881	-0.025
881	-0.024
881	-0.023
882	-0.021
882	-0.02
883	-0.018
883	-0.016
884	-0.014
884	-0.012
884	-0.01
885	-0.009
885	-0.007
886	-0.006
886	-0.005
887	-0.005
887	-0.005
887	-0.006
888	-0.007
888	-0.007
889	-0.008
889	-0.008
890	-0.009
890	-0.009
890	-0.01
891	-0.011
891	-0.011
892	-0.012
892	-0.012
893	-0.012
893	-0.012
893	-0.012
894	-0.012
894	-0.012
895	-0.012
895	-0.013
895	-0.013
896	-0.014
896	-0.014
897	-0.014
897	-0.015
898	-0.015
898	-0.015
898	-0.015
899	-0.015
899	-0.015
900	-0.014
900	-0.014
901	-0.013
901	-0.013
901	-0.012
902	-0.011
902	-0.011
903	-0.01
903	-0.01
904	-0.009
904	-0.009
904	-0.008
905	-0.007
905	-0.006
906	-0.006
906	-0.006
907	-0.006
907	-0.005
907	-0.005
908	-0.005
908	-0.005
909	-0.005
909	-0.005
910	-0.005
910	-0.006
910	-0.006
911	-0.006
911	-0.006
912	-0.006
912	-0.006
913	-0.006
913	-0.006
913	-0.007
914	-0.007
914	-0.007
915	-0.008
915	-0.008
916	-0.009
916	-0.009
916	-0.01
917	-0.01
917	-0.01
918	-0.01
918	-0.01
918	-0.01
919	-0.01
919	-0.009
920	-0.008
920	-0.007
921	-0.007
921	-0.006
921	-0.006
922	-0.006
922	-0.005
923	-0.005
923	-0.005
924	-0.005
924	-0.006
924	-0.007
925	-0.007
925	-0.008
926	-0.008
926	-0.009
927	-0.01
927	-0.01
927	-0.01
928	-0.011
928	-0.011
929	-0.011
929	-0.011
930	-0.012
930	-0.012
930	-0.012
931	-0.012
931	-0.012
932	-0.011
932	-0.011
933	-0.01
933	-0.01
933	-0.01
934	-0.009
934	-0.009
935	-0.008
935	-0.008
935	-0.007
936	-0.006
936	-0.005
937	-0.004
937	-0.004
938	-0.003
938	-0.002
938	-0.001
939	-0
939	0
940	0.001
940	0.001
941	0.001
941	0.002
941	0.002
942	0.002
942	0.002
943	0.002
943	0.002
944	0.002
944	0.002
944	0.002
945	0.003
945	0.003
946	0.003
946	0.003
946	0.003
947	0.003
947	0.003
948	0.003
948	0.002
949	0.002
949	0.003
949	0.003
950	0.003
950	0.003
951	0.003
951	0.002
952	0.002
952	0.002
952	0.002
953	0.002
953	0.001
954	0
954	-0.001
955	-0.001
955	-0.002
955	-0.003
956	-0.003
956	-0.004
957	-0.004
957	-0.005
957	-0.005
958	-0.006
958	-0.006
959	-0.006
959	-0.006
960	-0.005
960	-0.005
960	-0.005
961	-0.005
961	-0.005
962	-0.005
962	-0.004
963	-0.004
963	-0.004
963	-0.004
964	-0.004
964	-0.004
965	-0.003
965	-0.003
966	-0.003
966	-0.002
966	-0.002
967	-0.001
967	-0.001
968	-0.001
968	0
968	0.001
969	0.002
969	0.002
970	0.003
970	0.003
971	0.003
971	0.003
971	0.003
972	0.003
972	0.004
973	0.004
973	0.004
974	0.004
974	0.004
974	0.005
975	0.006
975	0.007
976	0.008
976	0.009
976	0.009
977	0.009
977	0.009
978	0.009
978	0.009
979	0.009
979	0.008
979	0.007
980	0.006
980	0.005
981	0.004
981	0.003
982	0.002
982	0.001
982	0.001
983	0.001
983	0
984	-0
984	-0.001
984	-0.001
985	-0.001
985	-0.001
986	-0.002
986	-0.002
987	-0.002
987	-0.002
987	-0.002
988	-0.002
988	-0.001
989	-0.001
989	-0.001
990	-0.001
990	-0.001
990	-0
991	-0
991	-0
992	0
992	-0
992	-0
993	-0.001
993	-0.001
994	-0.001
994	-0.002
995	-0.002
995	-0.002
995	-0.003
996	-0.002
996	-0.002
997	-0.002
997	-0.001
997	-0.001
998	0.001
998	0.002
999	0.003
999	0.004
1000	0.005
1000	0.005
1000	0.006
1001	0.006
1001	0.006
1002	0.005
1002	0.004
1003	0.003
1003	0.002
1003	0.001
1004	-0
1004	-0.002
1005	-0.003
1005	-0.004
1005	-0.005
1006	-0.006
1006	-0.006
1007	-0.007
1007	-0.007
1008	-0.007
1008	-0.007
1008	-0.007
1009	-0.007
1009	-0.007
1010	-0.007
1010	-0.007
1010	-0.006
1011	-0.006
1011	-0.006
1012	-0.005
1012	-0.005
1013	-0.005
1013	-0.004
1013	-0.004
1014	-0.004
1014	-0.003
1015	-0.003
1015	-0.002
1016	-0.001
1016	-0.001
1016	-0
1017	0.001
1017	0.002
1018	0.003
1018	0.004
1018	0.005
1019	0.007
1019	0.008
1020	0.008
1020	0.009
1021	0.01
1021	0.01
1021	0.011
1022	0.011
1022	0.011
1023	0.01
1023	0.01
1023	0.01
1024	0.01
1024	0.009
1025	0.009
1025	0.009
1026	0.009
1026	0.009
1026	0.009
1027	0.009
1027	0.009
1028	0.009
1028	0.01
1028	0.009
1029	0.009
1029	0.009
1030	0.008
1030	0.008
1031	0.007
1031	0.006
1031	0.006
1032	0.005
1032	0.005
1033	0.004
1033	0.003
1033	0.003
1034	0.002
1034	0.001
1035	0.001
1035	-0
1036	-0.001
1036	-0.001
1036	-0.001
1037	-0.001
1037	-0.001
1038	-0.001
1038	-0
1039	0
1039	0.001
1039	0.003
1040	0.004
1040	0.004
1041	0.005
1041	0.006
1041	0.007
1042	0.007
1042	0.008
1043	0.008
1043	0.009
1044	0.01
1044	0.01
1044	0.011
1045	0.012
1045	0.013
1046	0.014
1046	0.015
1046	0.017
1047	0.018
1047	0.02
1048	0.021
1048	0.022
1049	0.022
1049	0.023
1049	0.023
1050	0.024
1050	0.024
1051	0.025
1051	0.025
1051	0.026
1052	0.028
1052	0.029
1053	0.03
1053	0.031
1053	0.032
1054	0.033
1054	0.034
1055	0.035
1055	0.036
1056	0.035
1056	0.035
1056	0.034
1057	0.034
1057	0.034
1058	0.034
1058	0.033
1058	0.033
1059	0.033
1059	0.033
1060	0.033
1060	0.034
1061	0.034
1061	0.035
1061	0.035
1062	0.035
1062	0.035
1063	0.035
1063	0.035
1063	0.035
1064	0.036
1064	0.036
1065	0.037
1065	0.037
1066	0.037
1066	0.038
1066	0.039
1067	0.041
1067	0.042
1068	0.044
1068	0.045
1068	0.046
1069	0.048
1069	0.049
1070	0.052
1070	0.055
1071	0.057
1071	0.06
1071	0.063
1072	0.066
1072	0.07
1073	0.073
1073	0.077
1073	0.08
1074	0.084
1074	0.087
1075	0.089
1075	0.092
1076	0.094
1076	0.098
1076	0.101
1077	0.104
1077	0.108
1078	0.112
1078	0.116
1078	0.121
1079	0.124
1079	0.129
1080	0.133
1080	0.137
1080	0.14
1081	0.143
1081	0.147
1082	0.152
1082	0.155
1083	0.159
1083	0.163
1083	0.169
1084	0.174
1084	0.18
1085	0.186
1085	0.194
1085	0.202
1086	0.208
1086	0.214
1087	0.221
1087	0.229
1088	0.236
1088	0.244
1088	0.254
1089	0.261
1089	0.272
1090	0.282
1090	0.294
1090	0.308
1091	0.322
1091	0.339
1092	0.356
1092	0.377
1092	0.397
1093	0.418
1093	0.446
1094	0.473
1094	0.505
1095	0.538
1095	0.58
1095	0.635
1096	0.698
1096	0.775
1097	0.879
1097	1.011
1097	1.232
1098	1.679
1098	-0
1099	-0
1099	-0
1100	-0
1100	-0
1100	-0
1101	-0
1101	-0
1102	-0
1102	-0
1102	-0
1103	-0
1103	-0
1104	-0
1104	-0
1104	-0
1105	-0
1105	-0
1106	-0
1106	-0
1107	-0
1107	-0
1107	-0
1108	-0
1108	-0
1109	-0
1109	-0
1109	-0
1110	-0
1110	-0
1111	-0
1111	-0
