Data from 15c-2-5a_Absorbance__622__02423.txt Node

Date: Fri Jan 19 14:04:01 CET 2024
User: Marek
Spectrometer: MAYP115816
Trigger mode: 0
Integration Time (sec): 2.000000E-1
Scans to average: 10
Electric dark correction enabled: true
Nonlinearity correction enabled: true
Boxcar width: 5
XAxis mode: Wavelengths
Number of Pixels in Spectrum: 2068
>>>>>Begin Spectral Data<<<<<
199	-2.286
199	-2.128
200	-1.981
200	-1.86
201	-1.789
201	-1.735
202	-1.661
202	-1.6
203	-1.546
203	-1.5
204	-1.472
204	-1.447
205	-1.426
205	-1.415
205	-1.413
206	-1.407
206	-1.402
207	-1.397
207	-1.392
208	-1.391
208	-1.387
209	-1.385
209	-1.38
210	-1.377
210	-1.376
211	-1.374
211	-1.373
212	-1.374
212	-1.373
213	-1.372
213	-1.369
213	-1.369
214	-1.364
214	-1.363
215	-1.36
215	-1.358
216	-1.355
216	-1.355
217	-1.35
217	-1.348
218	-1.345
218	-1.343
219	-1.339
219	-1.339
220	-1.337
220	-1.337
221	-1.335
221	-1.329
221	-1.324
222	-1.321
222	-1.317
223	-1.312
223	-1.307
224	-1.3
224	-1.293
225	-1.285
225	-1.273
226	-1.262
226	-1.252
227	-1.239
227	-1.224
228	-1.208
228	-1.192
229	-1.171
229	-1.149
229	-1.122
230	-1.093
230	-1.061
231	-1.025
231	-0.986
232	-0.946
232	-0.901
233	-0.854
233	-0.804
234	-0.754
234	-0.704
235	-0.654
235	-0.603
236	-0.554
236	-0.505
236	-0.458
237	-0.411
237	-0.367
238	-0.325
238	-0.285
239	-0.247
239	-0.211
240	-0.177
240	-0.146
241	-0.116
241	-0.088
242	-0.063
242	-0.039
243	-0.018
243	0.002
243	0.021
244	0.038
244	0.054
245	0.069
245	0.082
246	0.095
246	0.106
247	0.117
247	0.127
248	0.136
248	0.145
249	0.153
249	0.16
250	0.167
250	0.174
250	0.18
251	0.186
251	0.192
252	0.197
252	0.202
253	0.206
253	0.211
254	0.214
254	0.218
255	0.222
255	0.225
256	0.228
256	0.231
257	0.233
257	0.236
258	0.237
258	0.239
258	0.241
259	0.243
259	0.244
260	0.245
260	0.246
261	0.247
261	0.248
262	0.248
262	0.249
263	0.25
263	0.25
264	0.251
264	0.251
265	0.251
265	0.252
265	0.252
266	0.252
266	0.252
267	0.251
267	0.251
268	0.25
268	0.25
269	0.249
269	0.248
270	0.247
270	0.247
271	0.246
271	0.245
272	0.244
272	0.243
272	0.242
273	0.241
273	0.24
274	0.24
274	0.239
275	0.238
275	0.237
276	0.236
276	0.234
277	0.233
277	0.232
278	0.23
278	0.228
278	0.225
279	0.223
279	0.222
280	0.221
280	0.22
281	0.219
281	0.218
282	0.218
282	0.217
283	0.217
283	0.217
284	0.217
284	0.217
285	0.216
285	0.215
285	0.215
286	0.214
286	0.213
287	0.212
287	0.211
288	0.21
288	0.21
289	0.209
289	0.208
290	0.207
290	0.206
291	0.206
291	0.205
292	0.204
292	0.204
292	0.203
293	0.202
293	0.202
294	0.201
294	0.2
295	0.2
295	0.199
296	0.199
296	0.198
297	0.197
297	0.197
298	0.197
298	0.196
298	0.196
299	0.195
299	0.194
300	0.194
300	0.193
301	0.193
301	0.192
302	0.192
302	0.191
303	0.19
303	0.19
304	0.189
304	0.189
305	0.188
305	0.188
305	0.187
306	0.187
306	0.186
307	0.185
307	0.185
308	0.184
308	0.183
309	0.183
309	0.182
310	0.181
310	0.181
311	0.18
311	0.179
311	0.179
312	0.178
312	0.177
313	0.177
313	0.176
314	0.175
314	0.174
315	0.174
315	0.173
316	0.172
316	0.172
317	0.171
317	0.17
318	0.169
318	0.169
318	0.168
319	0.167
319	0.167
320	0.166
320	0.165
321	0.164
321	0.163
322	0.162
322	0.161
323	0.16
323	0.159
324	0.158
324	0.158
324	0.157
325	0.156
325	0.155
326	0.155
326	0.154
327	0.153
327	0.153
328	0.152
328	0.151
329	0.15
329	0.15
330	0.149
330	0.148
330	0.147
331	0.147
331	0.146
332	0.145
332	0.144
333	0.144
333	0.143
334	0.143
334	0.142
335	0.141
335	0.14
336	0.14
336	0.139
336	0.138
337	0.137
337	0.136
338	0.136
338	0.135
339	0.134
339	0.133
340	0.133
340	0.132
341	0.131
341	0.131
342	0.13
342	0.13
342	0.129
343	0.128
343	0.128
344	0.127
344	0.126
345	0.126
345	0.125
346	0.124
346	0.123
347	0.122
347	0.122
348	0.121
348	0.12
348	0.12
349	0.119
349	0.118
350	0.117
350	0.116
351	0.115
351	0.114
352	0.114
352	0.113
353	0.112
353	0.11
354	0.109
354	0.108
354	0.107
355	0.106
355	0.105
356	0.104
356	0.103
357	0.103
357	0.102
358	0.102
358	0.102
359	0.103
359	0.104
360	0.104
360	0.105
360	0.106
361	0.106
361	0.106
362	0.106
362	0.106
363	0.106
363	0.106
364	0.105
364	0.105
365	0.104
365	0.103
366	0.103
366	0.103
366	0.102
367	0.102
367	0.102
368	0.101
368	0.101
369	0.1
369	0.1
370	0.099
370	0.099
371	0.098
371	0.098
372	0.097
372	0.097
372	0.096
373	0.096
373	0.096
374	0.096
374	0.096
375	0.096
375	0.096
376	0.096
376	0.096
377	0.096
377	0.097
378	0.097
378	0.097
378	0.097
379	0.097
379	0.097
380	0.098
380	0.097
381	0.097
381	0.097
382	0.097
382	0.096
383	0.095
383	0.095
383	0.095
384	0.094
384	0.094
385	0.093
385	0.093
386	0.093
386	0.093
387	0.093
387	0.093
388	0.093
388	0.092
389	0.092
389	0.092
389	0.092
390	0.092
390	0.092
391	0.093
391	0.093
392	0.093
392	0.093
393	0.093
393	0.093
394	0.093
394	0.093
394	0.092
395	0.092
395	0.091
396	0.091
396	0.091
397	0.091
397	0.092
398	0.092
398	0.092
399	0.092
399	0.091
400	0.091
400	0.091
400	0.091
401	0.09
401	0.089
402	0.087
402	0.087
403	0.086
403	0.086
404	0.086
404	0.085
405	0.085
405	0.084
405	0.084
406	0.084
406	0.083
407	0.083
407	0.083
408	0.082
408	0.081
409	0.08
409	0.08
410	0.08
410	0.08
411	0.08
411	0.08
411	0.08
412	0.079
412	0.079
413	0.079
413	0.078
414	0.078
414	0.078
415	0.078
415	0.077
416	0.077
416	0.076
416	0.075
417	0.075
417	0.075
418	0.075
418	0.075
419	0.075
419	0.076
420	0.076
420	0.077
421	0.077
421	0.078
421	0.078
422	0.079
422	0.079
423	0.079
423	0.079
424	0.078
424	0.077
425	0.076
425	0.075
426	0.074
426	0.074
427	0.074
427	0.074
427	0.074
428	0.075
428	0.075
429	0.076
429	0.077
430	0.077
430	0.077
431	0.077
431	0.076
432	0.076
432	0.075
432	0.073
433	0.072
433	0.071
434	0.07
434	0.069
435	0.069
435	0.069
436	0.069
436	0.069
437	0.07
437	0.07
437	0.07
438	0.07
438	0.069
439	0.069
439	0.069
440	0.068
440	0.068
441	0.068
441	0.068
442	0.069
442	0.069
442	0.07
443	0.07
443	0.07
444	0.07
444	0.07
445	0.07
445	0.07
446	0.07
446	0.07
447	0.069
447	0.069
447	0.069
448	0.068
448	0.068
449	0.068
449	0.068
450	0.067
450	0.067
451	0.067
451	0.066
452	0.065
452	0.065
452	0.064
453	0.063
453	0.062
454	0.061
454	0.061
455	0.06
455	0.06
456	0.059
456	0.059
457	0.059
457	0.059
458	0.059
458	0.058
458	0.059
459	0.059
459	0.059
460	0.058
460	0.057
461	0.056
461	0.056
462	0.055
462	0.055
463	0.056
463	0.056
463	0.057
464	0.058
464	0.058
465	0.058
465	0.058
466	0.058
466	0.058
467	0.058
467	0.057
467	0.056
468	0.054
468	0.052
469	0.05
469	0.048
470	0.048
470	0.047
471	0.046
471	0.046
472	0.046
472	0.046
472	0.046
473	0.047
473	0.048
474	0.049
474	0.049
475	0.05
475	0.051
476	0.051
476	0.051
477	0.051
477	0.051
477	0.052
478	0.051
478	0.051
479	0.052
479	0.052
480	0.053
480	0.054
481	0.054
481	0.055
482	0.056
482	0.057
482	0.059
483	0.061
483	0.064
484	0.067
484	0.07
485	0.071
485	0.073
486	0.074
486	0.074
487	0.074
487	0.074
487	0.074
488	0.073
488	0.071
489	0.068
489	0.066
490	0.064
490	0.063
491	0.062
491	0.062
492	0.062
492	0.062
492	0.062
493	0.062
493	0.063
494	0.064
494	0.066
495	0.068
495	0.069
496	0.07
496	0.071
496	0.072
497	0.072
497	0.073
498	0.074
498	0.074
499	0.074
499	0.073
500	0.074
500	0.075
501	0.076
501	0.077
501	0.078
502	0.08
502	0.081
503	0.082
503	0.083
504	0.084
504	0.084
505	0.084
505	0.083
506	0.083
506	0.083
506	0.083
507	0.082
507	0.082
508	0.082
508	0.081
509	0.082
509	0.082
510	0.083
510	0.083
511	0.082
511	0.082
511	0.082
512	0.082
512	0.082
513	0.082
513	0.08
514	0.079
514	0.077
515	0.076
515	0.075
515	0.075
516	0.074
516	0.074
517	0.074
517	0.074
518	0.073
518	0.072
519	0.071
519	0.068
520	0.065
520	0.062
520	0.059
521	0.056
521	0.053
522	0.05
522	0.049
523	0.048
523	0.049
524	0.051
524	0.053
524	0.056
525	0.06
525	0.063
526	0.066
526	0.069
527	0.072
527	0.074
528	0.076
528	0.077
529	0.078
529	0.079
529	0.079
530	0.079
530	0.079
531	0.079
531	0.079
532	0.079
532	0.079
533	0.079
533	0.08
533	0.08
534	0.08
534	0.079
535	0.079
535	0.078
536	0.078
536	0.078
537	0.077
537	0.077
538	0.076
538	0.075
538	0.074
539	0.073
539	0.072
540	0.071
540	0.07
541	0.069
541	0.067
542	0.066
542	0.065
542	0.064
543	0.063
543	0.062
544	0.061
544	0.061
545	0.06
545	0.06
546	0.061
546	0.061
547	0.06
547	0.058
547	0.056
548	0.054
548	0.052
549	0.05
549	0.048
550	0.047
550	0.045
551	0.043
551	0.041
551	0.04
552	0.039
552	0.039
553	0.039
553	0.039
554	0.039
554	0.038
555	0.036
555	0.034
556	0.031
556	0.029
556	0.026
557	0.024
557	0.022
558	0.02
558	0.019
559	0.017
559	0.017
560	0.017
560	0.017
560	0.017
561	0.018
561	0.018
562	0.019
562	0.018
563	0.017
563	0.016
564	0.014
564	0.011
564	0.009
565	0.008
565	0.008
566	0.007
566	0.007
567	0.008
567	0.009
568	0.011
568	0.014
568	0.016
569	0.019
569	0.021
570	0.023
570	0.024
571	0.025
571	0.027
572	0.027
572	0.028
573	0.029
573	0.029
573	0.029
574	0.028
574	0.028
575	0.028
575	0.03
576	0.032
576	0.032
577	0.031
577	0.03
577	0.029
578	0.029
578	0.028
579	0.029
579	0.031
580	0.031
580	0.029
581	0.026
581	0.023
581	0.022
582	0.021
582	0.021
583	0.022
583	0.023
584	0.02
584	0.017
585	0.015
585	0.014
585	0.014
586	0.015
586	0.014
587	0.013
587	0.011
588	0.008
588	0.005
589	0.003
589	0.002
590	0
590	-0
590	0
591	0.001
591	0.001
592	0.001
592	0
593	-0
593	-0
594	-0
594	-0.001
594	-0.002
595	-0.003
595	-0.004
596	-0.006
596	-0.006
597	-0.004
597	-0.002
598	-0.001
598	0
598	0.001
599	0.002
599	0.002
600	0.001
600	-0.001
601	-0.002
601	-0.003
602	-0.005
602	-0.006
602	-0.008
603	-0.009
603	-0.009
604	-0.008
604	-0.006
605	-0.004
605	-0.001
606	-0
606	-0.001
606	-0.001
607	-0.002
607	-0.002
608	-0.003
608	-0.004
609	-0.006
609	-0.008
610	-0.01
610	-0.013
610	-0.014
611	-0.014
611	-0.014
612	-0.013
612	-0.011
613	-0.01
613	-0.008
614	-0.008
614	-0.009
614	-0.008
615	-0.009
615	-0.009
616	-0.009
616	-0.01
617	-0.01
617	-0.011
618	-0.013
618	-0.014
618	-0.015
619	-0.016
619	-0.016
620	-0.014
620	-0.013
621	-0.013
621	-0.013
622	-0.013
622	-0.013
622	-0.013
623	-0.013
623	-0.012
624	-0.011
624	-0.011
625	-0.012
625	-0.012
626	-0.012
626	-0.013
626	-0.012
627	-0.012
627	-0.011
628	-0.01
628	-0.01
629	-0.01
629	-0.01
630	-0.011
630	-0.012
630	-0.012
631	-0.013
631	-0.013
632	-0.014
632	-0.015
633	-0.015
633	-0.015
634	-0.014
634	-0.012
634	-0.01
635	-0.008
635	-0.007
636	-0.006
636	-0.005
637	-0.004
637	-0.003
638	-0.002
638	-0.001
638	-0.001
639	-0.001
639	-0.001
640	-0.001
640	-0
641	0.001
641	0.002
642	0.003
642	0.004
642	0.006
643	0.007
643	0.008
644	0.01
644	0.012
645	0.014
645	0.016
646	0.018
646	0.021
646	0.025
647	0.029
647	0.032
648	0.035
648	0.037
649	0.04
649	0.042
650	0.045
650	0.048
650	0.05
651	0.052
651	0.054
652	0.055
652	0.057
653	0.059
653	0.067
653	0.091
654	0.078
654	0.068
655	0.071
655	0.073
656	0.074
656	0.076
657	0.077
657	0.078
657	0.079
658	0.077
658	0.061
659	0.073
659	0.089
660	0.09
660	0.091
661	0.092
661	0.094
661	0.095
662	0.097
662	0.1
663	0.102
663	0.105
664	0.107
664	0.108
665	0.11
665	0.112
665	0.114
666	0.116
666	0.118
667	0.12
667	0.121
668	0.123
668	0.125
669	0.127
669	0.129
669	0.133
670	0.136
670	0.139
671	0.141
671	0.143
672	0.145
672	0.146
672	0.147
673	0.149
673	0.15
674	0.151
674	0.151
675	0.151
675	0.151
676	0.153
676	0.154
676	0.156
677	0.158
677	0.16
678	0.162
678	0.163
679	0.164
679	0.165
680	0.167
680	0.169
680	0.169
681	0.17
681	0.171
682	0.171
682	0.173
683	0.174
683	0.177
684	0.179
684	0.181
684	0.181
685	0.182
685	0.183
686	0.183
686	0.184
687	0.183
687	0.183
687	0.182
688	0.181
688	0.179
689	0.179
689	0.18
690	0.18
690	0.18
691	0.18
691	0.18
691	0.18
692	0.179
692	0.179
693	0.178
693	0.178
694	0.177
694	0.175
695	0.175
695	0.176
695	0.177
696	0.176
696	0.175
697	0.175
697	0.174
698	0.174
698	0.172
698	0.17
699	0.17
699	0.168
700	0.165
700	0.163
701	0.161
701	0.16
702	0.159
702	0.158
702	0.157
703	0.156
703	0.154
704	0.153
704	0.153
705	0.153
705	0.154
705	0.153
706	0.152
706	0.152
707	0.151
707	0.149
708	0.148
708	0.146
709	0.145
709	0.142
709	0.139
710	0.135
710	0.133
711	0.13
711	0.129
712	0.127
712	0.125
713	0.124
713	0.123
713	0.121
714	0.119
714	0.117
715	0.116
715	0.114
716	0.112
716	0.11
716	0.109
717	0.107
717	0.105
718	0.103
718	0.101
719	0.099
719	0.098
720	0.096
720	0.094
720	0.092
721	0.089
721	0.086
722	0.084
722	0.081
723	0.079
723	0.078
723	0.076
724	0.074
724	0.071
725	0.069
725	0.067
726	0.065
726	0.064
727	0.062
727	0.06
727	0.059
728	0.057
728	0.055
729	0.055
729	0.055
730	0.053
730	0.052
730	0.05
731	0.049
731	0.048
732	0.046
732	0.045
733	0.043
733	0.041
734	0.038
734	0.036
734	0.034
735	0.032
735	0.03
736	0.028
736	0.025
737	0.023
737	0.022
737	0.021
738	0.019
738	0.016
739	0.014
739	0.012
740	0.01
740	0.008
741	0.007
741	0.005
741	0.002
742	-0.002
742	-0.006
743	-0.009
743	-0.012
744	-0.014
744	-0.017
744	-0.019
745	-0.022
745	-0.024
746	-0.026
746	-0.027
747	-0.028
747	-0.027
748	-0.026
748	-0.026
748	-0.025
749	-0.025
749	-0.025
750	-0.025
750	-0.026
751	-0.026
751	-0.027
751	-0.027
752	-0.028
752	-0.03
753	-0.031
753	-0.033
754	-0.034
754	-0.035
754	-0.034
755	-0.034
755	-0.033
756	-0.032
756	-0.033
757	-0.035
757	-0.035
758	-0.035
758	-0.036
758	-0.036
759	-0.037
759	-0.039
760	-0.042
760	-0.045
761	-0.048
761	-0.049
761	-0.051
762	-0.053
762	-0.055
763	-0.056
763	-0.059
764	-0.062
764	-0.065
764	-0.068
765	-0.07
765	-0.073
766	-0.075
766	-0.076
767	-0.077
767	-0.08
768	-0.084
768	-0.087
768	-0.088
769	-0.089
769	-0.09
770	-0.091
770	-0.093
771	-0.095
771	-0.098
771	-0.101
772	-0.103
772	-0.104
773	-0.106
773	-0.108
774	-0.112
774	-0.115
775	-0.118
775	-0.121
775	-0.124
776	-0.128
776	-0.132
777	-0.135
777	-0.139
778	-0.143
778	-0.148
778	-0.153
779	-0.154
779	-0.151
780	-0.15
780	-0.151
781	-0.151
781	-0.151
781	-0.151
782	-0.15
782	-0.151
783	-0.15
783	-0.148
784	-0.148
784	-0.151
784	-0.152
785	-0.154
785	-0.155
786	-0.156
786	-0.153
787	-0.149
787	-0.145
788	-0.144
788	-0.145
788	-0.146
789	-0.149
789	-0.149
790	-0.146
790	-0.145
791	-0.146
791	-0.148
791	-0.15
792	-0.145
792	-0.135
793	-0.129
793	-0.124
794	-0.123
794	-0.124
794	-0.128
795	-0.13
795	-0.129
796	-0.13
796	-0.132
797	-0.141
797	-0.151
797	-0.158
798	-0.163
798	-0.166
799	-0.167
799	-0.166
800	-0.166
800	-0.168
801	-0.17
801	-0.171
801	-0.171
802	-0.171
802	-0.172
803	-0.173
803	-0.173
804	-0.172
804	-0.167
804	-0.16
805	-0.156
805	-0.154
806	-0.152
806	-0.151
807	-0.15
807	-0.149
807	-0.149
808	-0.148
808	-0.149
809	-0.154
809	-0.159
810	-0.163
810	-0.166
810	-0.169
811	-0.172
811	-0.173
812	-0.17
812	-0.167
813	-0.168
813	-0.169
813	-0.17
814	-0.171
814	-0.172
815	-0.17
815	-0.167
816	-0.166
816	-0.166
817	-0.17
817	-0.174
817	-0.174
818	-0.173
818	-0.169
819	-0.163
819	-0.16
820	-0.161
820	-0.163
820	-0.165
821	-0.165
821	-0.164
822	-0.163
822	-0.163
823	-0.162
823	-0.164
823	-0.168
824	-0.169
824	-0.167
825	-0.163
825	-0.157
826	-0.152
826	-0.148
826	-0.143
827	-0.137
827	-0.131
828	-0.124
828	-0.119
829	-0.113
829	-0.108
829	-0.104
830	-0.101
830	-0.099
831	-0.096
831	-0.093
832	-0.092
832	-0.09
832	-0.089
833	-0.088
833	-0.088
834	-0.087
834	-0.086
835	-0.085
835	-0.084
835	-0.083
836	-0.082
836	-0.08
837	-0.079
837	-0.078
838	-0.077
838	-0.076
839	-0.075
839	-0.075
839	-0.074
840	-0.073
840	-0.072
841	-0.07
841	-0.069
842	-0.068
842	-0.066
842	-0.064
843	-0.061
843	-0.059
844	-0.056
844	-0.054
845	-0.052
845	-0.05
845	-0.048
846	-0.046
846	-0.046
847	-0.045
847	-0.044
848	-0.044
848	-0.044
848	-0.044
849	-0.043
849	-0.043
850	-0.042
850	-0.042
851	-0.042
851	-0.041
851	-0.04
852	-0.039
852	-0.038
853	-0.037
853	-0.037
854	-0.036
854	-0.036
854	-0.036
855	-0.036
855	-0.036
856	-0.036
856	-0.036
857	-0.036
857	-0.037
857	-0.037
858	-0.037
858	-0.037
859	-0.036
859	-0.036
860	-0.035
860	-0.034
860	-0.033
861	-0.032
861	-0.031
862	-0.031
862	-0.03
863	-0.03
863	-0.03
863	-0.029
864	-0.029
864	-0.028
865	-0.028
865	-0.027
866	-0.027
866	-0.027
866	-0.026
867	-0.025
867	-0.024
868	-0.024
868	-0.024
869	-0.024
869	-0.024
869	-0.024
870	-0.023
870	-0.023
871	-0.023
871	-0.023
872	-0.023
872	-0.023
872	-0.022
873	-0.022
873	-0.022
874	-0.022
874	-0.021
875	-0.021
875	-0.022
875	-0.022
876	-0.022
876	-0.022
877	-0.023
877	-0.023
878	-0.023
878	-0.024
878	-0.024
879	-0.024
879	-0.025
880	-0.025
880	-0.025
881	-0.024
881	-0.024
881	-0.022
882	-0.021
882	-0.019
883	-0.018
883	-0.016
884	-0.014
884	-0.012
884	-0.01
885	-0.009
885	-0.008
886	-0.007
886	-0.006
887	-0.006
887	-0.006
887	-0.006
888	-0.007
888	-0.007
889	-0.008
889	-0.008
890	-0.009
890	-0.009
890	-0.01
891	-0.011
891	-0.011
892	-0.012
892	-0.012
893	-0.012
893	-0.012
893	-0.012
894	-0.012
894	-0.013
895	-0.013
895	-0.014
895	-0.014
896	-0.015
896	-0.015
897	-0.015
897	-0.016
898	-0.016
898	-0.016
898	-0.016
899	-0.016
899	-0.016
900	-0.015
900	-0.015
901	-0.014
901	-0.013
901	-0.012
902	-0.012
902	-0.011
903	-0.01
903	-0.01
904	-0.009
904	-0.008
904	-0.007
905	-0.006
905	-0.006
906	-0.005
906	-0.005
907	-0.005
907	-0.005
907	-0.005
908	-0.005
908	-0.005
909	-0.005
909	-0.006
910	-0.006
910	-0.006
910	-0.007
911	-0.007
911	-0.007
912	-0.007
912	-0.007
913	-0.007
913	-0.007
913	-0.008
914	-0.008
914	-0.008
915	-0.009
915	-0.009
916	-0.009
916	-0.009
916	-0.01
917	-0.01
917	-0.01
918	-0.01
918	-0.01
918	-0.01
919	-0.01
919	-0.009
920	-0.008
920	-0.007
921	-0.006
921	-0.006
921	-0.005
922	-0.005
922	-0.005
923	-0.005
923	-0.005
924	-0.005
924	-0.006
924	-0.007
925	-0.008
925	-0.008
926	-0.009
926	-0.009
927	-0.01
927	-0.01
927	-0.011
928	-0.011
928	-0.011
929	-0.011
929	-0.011
930	-0.012
930	-0.012
930	-0.012
931	-0.012
931	-0.011
932	-0.011
932	-0.011
933	-0.01
933	-0.01
933	-0.009
934	-0.009
934	-0.008
935	-0.008
935	-0.007
935	-0.007
936	-0.006
936	-0.006
937	-0.005
937	-0.004
938	-0.003
938	-0.002
938	-0.001
939	-0.001
939	-0
940	0
940	0.001
941	0.001
941	0.001
941	0.001
942	0.002
942	0.002
943	0.002
943	0.002
944	0.002
944	0.002
944	0.003
945	0.003
945	0.003
946	0.003
946	0.003
946	0.004
947	0.004
947	0.003
948	0.003
948	0.003
949	0.003
949	0.003
949	0.004
950	0.004
950	0.004
951	0.004
951	0.003
952	0.003
952	0.003
952	0.003
953	0.002
953	0.002
954	0.001
954	0
955	-0.001
955	-0.002
955	-0.002
956	-0.002
956	-0.003
957	-0.004
957	-0.004
957	-0.005
958	-0.005
958	-0.005
959	-0.005
959	-0.005
960	-0.005
960	-0.005
960	-0.005
961	-0.005
961	-0.005
962	-0.005
962	-0.005
963	-0.004
963	-0.004
963	-0.004
964	-0.004
964	-0.004
965	-0.004
965	-0.004
966	-0.004
966	-0.003
966	-0.003
967	-0.002
967	-0.002
968	-0.002
968	-0.001
968	-0
969	0
969	0.001
970	0.001
970	0.001
971	0.002
971	0.002
971	0.002
972	0.002
972	0.002
973	0.003
973	0.003
974	0.003
974	0.004
974	0.005
975	0.006
975	0.007
976	0.008
976	0.009
976	0.009
977	0.01
977	0.01
978	0.01
978	0.009
979	0.009
979	0.008
979	0.007
980	0.006
980	0.004
981	0.003
981	0.002
982	0.002
982	0.001
982	0
983	-0
983	-0.001
984	-0.001
984	-0.001
984	-0.001
985	-0.001
985	-0.002
986	-0.002
986	-0.002
987	-0.002
987	-0.002
987	-0.002
988	-0.002
988	-0.001
989	-0.001
989	-0.001
990	-0.001
990	-0.001
990	-0
991	-0
991	-0
992	0
992	-0
992	-0
993	-0.001
993	-0.001
994	-0.001
994	-0.001
995	-0.002
995	-0.002
995	-0.002
996	-0.002
996	-0.002
997	-0.002
997	-0.001
997	-0
998	0.001
998	0.002
999	0.003
999	0.004
1000	0.005
1000	0.006
1000	0.006
1001	0.006
1001	0.006
1002	0.006
1002	0.005
1003	0.004
1003	0.003
1003	0.001
1004	0
1004	-0.001
1005	-0.002
1005	-0.003
1005	-0.004
1006	-0.005
1006	-0.006
1007	-0.006
1007	-0.006
1008	-0.006
1008	-0.007
1008	-0.007
1009	-0.007
1009	-0.006
1010	-0.006
1010	-0.006
1010	-0.006
1011	-0.005
1011	-0.005
1012	-0.005
1012	-0.004
1013	-0.004
1013	-0.004
1013	-0.004
1014	-0.003
1014	-0.003
1015	-0.002
1015	-0.001
1016	-0.001
1016	0
1016	0.001
1017	0.001
1017	0.002
1018	0.004
1018	0.005
1018	0.006
1019	0.007
1019	0.008
1020	0.009
1020	0.01
1021	0.01
1021	0.011
1021	0.011
1022	0.011
1022	0.011
1023	0.011
1023	0.011
1023	0.01
1024	0.01
1024	0.009
1025	0.009
1025	0.009
1026	0.009
1026	0.009
1026	0.008
1027	0.008
1027	0.009
1028	0.009
1028	0.009
1028	0.009
1029	0.008
1029	0.008
1030	0.007
1030	0.007
1031	0.006
1031	0.006
1031	0.005
1032	0.005
1032	0.004
1033	0.004
1033	0.003
1033	0.003
1034	0.002
1034	0.001
1035	0
1035	-0
1036	-0.001
1036	-0.001
1036	-0.001
1037	-0.002
1037	-0.001
1038	-0.001
1038	-0.001
1039	0
1039	0.001
1039	0.002
1040	0.003
1040	0.004
1041	0.005
1041	0.005
1041	0.006
1042	0.006
1042	0.007
1043	0.008
1043	0.008
1044	0.009
1044	0.01
1044	0.011
1045	0.012
1045	0.013
1046	0.014
1046	0.015
1046	0.017
1047	0.018
1047	0.02
1048	0.021
1048	0.022
1049	0.022
1049	0.023
1049	0.023
1050	0.023
1050	0.024
1051	0.024
1051	0.025
1051	0.026
1052	0.027
1052	0.027
1053	0.028
1053	0.03
1053	0.031
1054	0.032
1054	0.033
1055	0.033
1055	0.034
1056	0.033
1056	0.033
1056	0.032
1057	0.031
1057	0.031
1058	0.031
1058	0.031
1058	0.031
1059	0.031
1059	0.031
1060	0.031
1060	0.032
1061	0.033
1061	0.034
1061	0.035
1062	0.034
1062	0.034
1063	0.034
1063	0.034
1063	0.035
1064	0.035
1064	0.036
1065	0.037
1065	0.037
1066	0.037
1066	0.038
1066	0.04
1067	0.042
1067	0.043
1068	0.045
1068	0.046
1068	0.048
1069	0.049
1069	0.051
1070	0.053
1070	0.056
1071	0.058
1071	0.061
1071	0.064
1072	0.067
1072	0.071
1073	0.074
1073	0.078
1073	0.081
1074	0.085
1074	0.088
1075	0.091
1075	0.094
1076	0.096
1076	0.1
1076	0.103
1077	0.107
1077	0.11
1078	0.114
1078	0.119
1078	0.123
1079	0.127
1079	0.131
1080	0.135
1080	0.14
1080	0.143
1081	0.146
1081	0.15
1082	0.154
1082	0.157
1083	0.16
1083	0.164
1083	0.17
1084	0.175
1084	0.181
1085	0.187
1085	0.194
1085	0.202
1086	0.208
1086	0.214
1087	0.223
1087	0.23
1088	0.237
1088	0.245
1088	0.255
1089	0.264
1089	0.274
1090	0.284
1090	0.297
1090	0.311
1091	0.326
1091	0.342
1092	0.36
1092	0.381
1092	0.4
1093	0.422
1093	0.448
1094	0.475
1094	0.507
1095	0.54
1095	0.582
1095	0.637
1096	0.697
1096	0.771
1097	0.878
1097	1.008
1097	1.223
1098	1.676
1098	-0
1099	-0
1099	-0
1100	-0
1100	-0
1100	-0
1101	-0
1101	-0
1102	-0
1102	-0
1102	-0
1103	-0
1103	-0
1104	-0
1104	-0
1104	-0
1105	-0
1105	-0
1106	-0
1106	-0
1107	-0
1107	-0
1107	-0
1108	-0
1108	-0
1109	-0
1109	-0
1109	-0
1110	-0
1110	-0
1111	-0
1111	-0
