Data from 15c-2-5a_Absorbance__773__02574.txt Node

Date: Fri Jan 19 14:09:03 CET 2024
User: Marek
Spectrometer: MAYP115816
Trigger mode: 0
Integration Time (sec): 2.000000E-1
Scans to average: 10
Electric dark correction enabled: true
Nonlinearity correction enabled: true
Boxcar width: 5
XAxis mode: Wavelengths
Number of Pixels in Spectrum: 2068
>>>>>Begin Spectral Data<<<<<
199	-2.295
199	-2.137
200	-1.99
200	-1.868
201	-1.798
201	-1.743
202	-1.668
202	-1.608
203	-1.554
203	-1.508
204	-1.48
204	-1.455
205	-1.435
205	-1.423
205	-1.422
206	-1.416
206	-1.411
207	-1.406
207	-1.402
208	-1.4
208	-1.396
209	-1.394
209	-1.389
210	-1.387
210	-1.385
211	-1.383
211	-1.382
212	-1.383
212	-1.382
213	-1.382
213	-1.379
213	-1.378
214	-1.373
214	-1.372
215	-1.369
215	-1.367
216	-1.364
216	-1.364
217	-1.359
217	-1.357
218	-1.354
218	-1.352
219	-1.348
219	-1.348
220	-1.346
220	-1.346
221	-1.344
221	-1.338
221	-1.333
222	-1.331
222	-1.326
223	-1.321
223	-1.317
224	-1.309
224	-1.302
225	-1.294
225	-1.283
226	-1.271
226	-1.261
227	-1.248
227	-1.233
228	-1.217
228	-1.2
229	-1.179
229	-1.157
229	-1.13
230	-1.101
230	-1.068
231	-1.033
231	-0.993
232	-0.952
232	-0.908
233	-0.86
233	-0.81
234	-0.76
234	-0.709
235	-0.659
235	-0.608
236	-0.558
236	-0.509
236	-0.46
237	-0.413
237	-0.367
238	-0.324
238	-0.283
239	-0.244
239	-0.207
240	-0.173
240	-0.14
241	-0.109
241	-0.08
242	-0.054
242	-0.029
243	-0.007
243	0.014
243	0.034
244	0.052
244	0.069
245	0.084
245	0.098
246	0.112
246	0.124
247	0.135
247	0.146
248	0.156
248	0.165
249	0.174
249	0.182
250	0.189
250	0.196
250	0.203
251	0.209
251	0.215
252	0.221
252	0.226
253	0.231
253	0.236
254	0.24
254	0.244
255	0.248
255	0.252
256	0.255
256	0.257
257	0.26
257	0.262
258	0.264
258	0.266
258	0.268
259	0.27
259	0.271
260	0.272
260	0.273
261	0.274
261	0.276
262	0.276
262	0.277
263	0.278
263	0.279
264	0.279
264	0.28
265	0.28
265	0.28
265	0.28
266	0.28
266	0.28
267	0.28
267	0.28
268	0.279
268	0.279
269	0.278
269	0.277
270	0.276
270	0.276
271	0.275
271	0.274
272	0.273
272	0.272
272	0.272
273	0.271
273	0.27
274	0.269
274	0.268
275	0.268
275	0.267
276	0.266
276	0.264
277	0.263
277	0.262
278	0.26
278	0.257
278	0.255
279	0.253
279	0.252
280	0.251
280	0.25
281	0.249
281	0.248
282	0.248
282	0.247
283	0.247
283	0.247
284	0.248
284	0.247
285	0.247
285	0.246
285	0.245
286	0.244
286	0.243
287	0.242
287	0.241
288	0.241
288	0.24
289	0.239
289	0.238
290	0.238
290	0.237
291	0.236
291	0.235
292	0.235
292	0.234
292	0.233
293	0.232
293	0.232
294	0.231
294	0.23
295	0.23
295	0.229
296	0.228
296	0.228
297	0.227
297	0.227
298	0.226
298	0.226
298	0.225
299	0.225
299	0.224
300	0.223
300	0.223
301	0.222
301	0.222
302	0.221
302	0.22
303	0.22
303	0.219
304	0.218
304	0.218
305	0.217
305	0.217
305	0.216
306	0.216
306	0.215
307	0.214
307	0.214
308	0.213
308	0.212
309	0.211
309	0.211
310	0.21
310	0.209
311	0.208
311	0.207
311	0.207
312	0.206
312	0.205
313	0.204
313	0.203
314	0.202
314	0.202
315	0.201
315	0.2
316	0.199
316	0.198
317	0.198
317	0.197
318	0.196
318	0.195
318	0.195
319	0.194
319	0.193
320	0.192
320	0.191
321	0.19
321	0.189
322	0.188
322	0.187
323	0.186
323	0.185
324	0.184
324	0.183
324	0.182
325	0.182
325	0.181
326	0.18
326	0.18
327	0.179
327	0.178
328	0.177
328	0.177
329	0.176
329	0.175
330	0.174
330	0.174
330	0.173
331	0.172
331	0.171
332	0.17
332	0.17
333	0.169
333	0.168
334	0.167
334	0.166
335	0.165
335	0.165
336	0.164
336	0.163
336	0.162
337	0.161
337	0.16
338	0.16
338	0.159
339	0.158
339	0.157
340	0.156
340	0.156
341	0.155
341	0.154
342	0.154
342	0.153
342	0.153
343	0.152
343	0.151
344	0.15
344	0.15
345	0.149
345	0.148
346	0.148
346	0.147
347	0.146
347	0.145
348	0.144
348	0.143
348	0.143
349	0.142
349	0.141
350	0.14
350	0.139
351	0.138
351	0.137
352	0.136
352	0.135
353	0.134
353	0.133
354	0.132
354	0.13
354	0.129
355	0.128
355	0.127
356	0.126
356	0.125
357	0.124
357	0.124
358	0.124
358	0.124
359	0.125
359	0.125
360	0.126
360	0.127
360	0.127
361	0.128
361	0.128
362	0.129
362	0.129
363	0.129
363	0.128
364	0.128
364	0.127
365	0.126
365	0.126
366	0.125
366	0.125
366	0.124
367	0.124
367	0.124
368	0.123
368	0.123
369	0.122
369	0.122
370	0.121
370	0.121
371	0.12
371	0.12
372	0.119
372	0.118
372	0.118
373	0.118
373	0.117
374	0.117
374	0.117
375	0.117
375	0.117
376	0.117
376	0.117
377	0.117
377	0.118
378	0.118
378	0.118
378	0.119
379	0.119
379	0.119
380	0.119
380	0.119
381	0.118
381	0.118
382	0.118
382	0.117
383	0.117
383	0.117
383	0.116
384	0.116
384	0.115
385	0.115
385	0.115
386	0.115
386	0.114
387	0.114
387	0.114
388	0.114
388	0.114
389	0.113
389	0.113
389	0.113
390	0.113
390	0.114
391	0.114
391	0.114
392	0.114
392	0.114
393	0.114
393	0.114
394	0.113
394	0.113
394	0.113
395	0.113
395	0.112
396	0.112
396	0.112
397	0.112
397	0.112
398	0.113
398	0.113
399	0.113
399	0.112
400	0.112
400	0.112
400	0.111
401	0.11
401	0.109
402	0.108
402	0.107
403	0.107
403	0.106
404	0.106
404	0.106
405	0.106
405	0.105
405	0.105
406	0.104
406	0.104
407	0.104
407	0.103
408	0.102
408	0.102
409	0.101
409	0.1
410	0.1
410	0.099
411	0.1
411	0.1
411	0.099
412	0.099
412	0.099
413	0.098
413	0.098
414	0.098
414	0.098
415	0.097
415	0.097
416	0.096
416	0.095
416	0.095
417	0.094
417	0.094
418	0.094
418	0.095
419	0.095
419	0.095
420	0.096
420	0.097
421	0.097
421	0.098
421	0.098
422	0.098
422	0.098
423	0.098
423	0.098
424	0.097
424	0.097
425	0.096
425	0.094
426	0.094
426	0.093
427	0.093
427	0.093
427	0.093
428	0.094
428	0.095
429	0.096
429	0.096
430	0.096
430	0.096
431	0.096
431	0.095
432	0.095
432	0.094
432	0.093
433	0.091
433	0.09
434	0.089
434	0.088
435	0.088
435	0.088
436	0.088
436	0.088
437	0.088
437	0.089
437	0.089
438	0.088
438	0.088
439	0.088
439	0.088
440	0.087
440	0.087
441	0.087
441	0.087
442	0.087
442	0.088
442	0.088
443	0.088
443	0.089
444	0.089
444	0.089
445	0.089
445	0.089
446	0.089
446	0.088
447	0.088
447	0.087
447	0.087
448	0.087
448	0.087
449	0.086
449	0.086
450	0.086
450	0.086
451	0.085
451	0.085
452	0.084
452	0.083
452	0.083
453	0.082
453	0.081
454	0.08
454	0.079
455	0.079
455	0.078
456	0.078
456	0.077
457	0.077
457	0.077
458	0.077
458	0.077
458	0.077
459	0.077
459	0.077
460	0.076
460	0.075
461	0.075
461	0.074
462	0.074
462	0.074
463	0.074
463	0.075
463	0.075
464	0.076
464	0.076
465	0.076
465	0.076
466	0.076
466	0.076
467	0.076
467	0.075
467	0.074
468	0.072
468	0.07
469	0.068
469	0.066
470	0.065
470	0.064
471	0.063
471	0.063
472	0.063
472	0.063
472	0.063
473	0.064
473	0.066
474	0.067
474	0.067
475	0.069
475	0.069
476	0.069
476	0.069
477	0.069
477	0.069
477	0.07
478	0.07
478	0.07
479	0.07
479	0.07
480	0.071
480	0.072
481	0.073
481	0.073
482	0.074
482	0.076
482	0.077
483	0.079
483	0.082
484	0.086
484	0.089
485	0.091
485	0.092
486	0.094
486	0.095
487	0.095
487	0.095
487	0.094
488	0.093
488	0.091
489	0.089
489	0.086
490	0.084
490	0.082
491	0.081
491	0.081
492	0.081
492	0.081
492	0.082
493	0.082
493	0.083
494	0.085
494	0.087
495	0.089
495	0.09
496	0.091
496	0.092
496	0.093
497	0.093
497	0.094
498	0.095
498	0.095
499	0.095
499	0.094
500	0.095
500	0.096
501	0.097
501	0.098
501	0.1
502	0.101
502	0.102
503	0.104
503	0.105
504	0.105
504	0.106
505	0.105
505	0.105
506	0.105
506	0.105
506	0.105
507	0.105
507	0.104
508	0.104
508	0.104
509	0.104
509	0.105
510	0.105
510	0.105
511	0.104
511	0.104
511	0.104
512	0.105
512	0.105
513	0.104
513	0.102
514	0.1
514	0.098
515	0.097
515	0.097
515	0.096
516	0.096
516	0.096
517	0.095
517	0.095
518	0.094
518	0.093
519	0.091
519	0.089
520	0.086
520	0.082
520	0.079
521	0.075
521	0.072
522	0.069
522	0.068
523	0.068
523	0.069
524	0.071
524	0.074
524	0.078
525	0.082
525	0.086
526	0.089
526	0.093
527	0.096
527	0.099
528	0.1
528	0.102
529	0.103
529	0.103
529	0.103
530	0.103
530	0.103
531	0.103
531	0.104
532	0.103
532	0.103
533	0.103
533	0.103
533	0.103
534	0.103
534	0.103
535	0.102
535	0.102
536	0.102
536	0.101
537	0.101
537	0.1
538	0.099
538	0.098
538	0.097
539	0.096
539	0.095
540	0.094
540	0.093
541	0.091
541	0.09
542	0.088
542	0.087
542	0.086
543	0.085
543	0.084
544	0.083
544	0.082
545	0.081
545	0.081
546	0.081
546	0.081
547	0.081
547	0.079
547	0.077
548	0.074
548	0.072
549	0.07
549	0.068
550	0.067
550	0.065
551	0.063
551	0.06
551	0.059
552	0.058
552	0.057
553	0.057
553	0.057
554	0.057
554	0.056
555	0.054
555	0.051
556	0.048
556	0.046
556	0.043
557	0.04
557	0.038
558	0.036
558	0.034
559	0.033
559	0.032
560	0.032
560	0.032
560	0.032
561	0.032
561	0.033
562	0.034
562	0.033
563	0.032
563	0.03
564	0.028
564	0.026
564	0.023
565	0.022
565	0.022
566	0.021
566	0.02
567	0.021
567	0.023
568	0.025
568	0.027
568	0.029
569	0.032
569	0.035
570	0.037
570	0.038
571	0.039
571	0.04
572	0.041
572	0.042
573	0.042
573	0.042
573	0.042
574	0.042
574	0.041
575	0.041
575	0.043
576	0.044
576	0.044
577	0.044
577	0.042
577	0.042
578	0.041
578	0.04
579	0.041
579	0.043
580	0.042
580	0.04
581	0.037
581	0.035
581	0.033
582	0.033
582	0.033
583	0.034
583	0.034
584	0.032
584	0.028
585	0.026
585	0.025
585	0.025
586	0.025
586	0.025
587	0.024
587	0.022
588	0.019
588	0.016
589	0.014
589	0.012
590	0.011
590	0.01
590	0.01
591	0.011
591	0.011
592	0.011
592	0.01
593	0.01
593	0.01
594	0.009
594	0.009
594	0.008
595	0.008
595	0.006
596	0.004
596	0.004
597	0.006
597	0.008
598	0.009
598	0.01
598	0.011
599	0.012
599	0.011
600	0.01
600	0.009
601	0.008
601	0.007
602	0.005
602	0.003
602	0.002
603	0
603	0
604	0.001
604	0.003
605	0.005
605	0.007
606	0.009
606	0.008
606	0.008
607	0.007
607	0.007
608	0.007
608	0.005
609	0.003
609	0.002
610	-0
610	-0.002
610	-0.004
611	-0.004
611	-0.004
612	-0.003
612	-0.002
613	-0.001
613	0.001
614	0.001
614	0
614	0
615	0
615	-0
616	-0
616	-0.001
617	-0.001
617	-0.003
618	-0.004
618	-0.005
618	-0.006
619	-0.007
619	-0.007
620	-0.005
620	-0.004
621	-0.004
621	-0.004
622	-0.004
622	-0.004
622	-0.004
623	-0.004
623	-0.003
624	-0.002
624	-0.003
625	-0.003
625	-0.004
626	-0.004
626	-0.004
626	-0.004
627	-0.003
627	-0.003
628	-0.002
628	-0.002
629	-0.002
629	-0.002
630	-0.002
630	-0.003
630	-0.003
631	-0.003
631	-0.003
632	-0.004
632	-0.005
633	-0.005
633	-0.004
634	-0.003
634	-0.001
634	0.001
635	0.003
635	0.004
636	0.005
636	0.007
637	0.008
637	0.009
638	0.01
638	0.011
638	0.012
639	0.011
639	0.011
640	0.011
640	0.012
641	0.014
641	0.015
642	0.016
642	0.018
642	0.019
643	0.021
643	0.022
644	0.024
644	0.026
645	0.028
645	0.03
646	0.032
646	0.035
646	0.039
647	0.043
647	0.046
648	0.049
648	0.052
649	0.055
649	0.058
650	0.061
650	0.064
650	0.067
651	0.069
651	0.071
652	0.072
652	0.074
653	0.077
653	0.085
653	0.109
654	0.092
654	0.08
655	0.084
655	0.086
656	0.087
656	0.089
657	0.091
657	0.092
657	0.093
658	0.091
658	0.075
659	0.09
659	0.111
660	0.111
660	0.112
661	0.113
661	0.114
661	0.116
662	0.118
662	0.121
663	0.124
663	0.126
664	0.128
664	0.13
665	0.132
665	0.134
665	0.136
666	0.138
666	0.14
667	0.142
667	0.144
668	0.146
668	0.148
669	0.15
669	0.152
669	0.156
670	0.16
670	0.163
671	0.165
671	0.167
672	0.168
672	0.17
672	0.171
673	0.172
673	0.173
674	0.174
674	0.175
675	0.175
675	0.175
676	0.177
676	0.179
676	0.181
677	0.183
677	0.185
678	0.188
678	0.189
679	0.191
679	0.192
680	0.194
680	0.195
680	0.196
681	0.196
681	0.196
682	0.197
682	0.198
683	0.2
683	0.202
684	0.205
684	0.207
684	0.208
685	0.208
685	0.21
686	0.211
686	0.212
687	0.211
687	0.211
687	0.21
688	0.209
688	0.207
689	0.207
689	0.207
690	0.208
690	0.207
691	0.207
691	0.207
691	0.207
692	0.206
692	0.205
693	0.205
693	0.205
694	0.204
694	0.201
695	0.201
695	0.202
695	0.203
696	0.202
696	0.201
697	0.201
697	0.2
698	0.199
698	0.198
698	0.197
699	0.196
699	0.194
700	0.191
700	0.189
701	0.188
701	0.187
702	0.185
702	0.184
702	0.183
703	0.182
703	0.18
704	0.179
704	0.179
705	0.178
705	0.178
705	0.178
706	0.177
706	0.177
707	0.176
707	0.174
708	0.173
708	0.171
709	0.17
709	0.168
709	0.165
710	0.161
710	0.158
711	0.155
711	0.153
712	0.151
712	0.149
713	0.147
713	0.145
713	0.143
714	0.14
714	0.138
715	0.136
715	0.134
716	0.132
716	0.13
716	0.128
717	0.126
717	0.125
718	0.122
718	0.12
719	0.119
719	0.117
720	0.115
720	0.113
720	0.11
721	0.107
721	0.104
722	0.102
722	0.099
723	0.097
723	0.095
723	0.093
724	0.091
724	0.089
725	0.087
725	0.084
726	0.083
726	0.081
727	0.079
727	0.077
727	0.076
728	0.074
728	0.072
729	0.071
729	0.07
730	0.069
730	0.067
730	0.065
731	0.063
731	0.061
732	0.06
732	0.059
733	0.057
733	0.054
734	0.052
734	0.049
734	0.047
735	0.045
735	0.043
736	0.04
736	0.037
737	0.035
737	0.033
737	0.031
738	0.028
738	0.025
739	0.022
739	0.02
740	0.018
740	0.016
741	0.015
741	0.013
741	0.01
742	0.005
742	0.001
743	-0.002
743	-0.005
744	-0.008
744	-0.01
744	-0.012
745	-0.015
745	-0.017
746	-0.019
746	-0.02
747	-0.02
747	-0.019
748	-0.018
748	-0.017
748	-0.017
749	-0.017
749	-0.017
750	-0.017
750	-0.018
751	-0.019
751	-0.02
751	-0.02
752	-0.022
752	-0.024
753	-0.025
753	-0.027
754	-0.028
754	-0.028
754	-0.028
755	-0.027
755	-0.026
756	-0.025
756	-0.027
757	-0.028
757	-0.028
758	-0.028
758	-0.029
758	-0.03
759	-0.031
759	-0.033
760	-0.037
760	-0.04
761	-0.043
761	-0.045
761	-0.047
762	-0.049
762	-0.051
763	-0.052
763	-0.055
764	-0.058
764	-0.061
764	-0.063
765	-0.066
765	-0.069
766	-0.07
766	-0.071
767	-0.072
767	-0.074
768	-0.078
768	-0.081
768	-0.082
769	-0.083
769	-0.084
770	-0.085
770	-0.087
771	-0.09
771	-0.093
771	-0.096
772	-0.099
772	-0.1
773	-0.102
773	-0.105
774	-0.108
774	-0.112
775	-0.115
775	-0.118
775	-0.122
776	-0.125
776	-0.129
777	-0.133
777	-0.136
778	-0.14
778	-0.145
778	-0.15
779	-0.151
779	-0.149
780	-0.148
780	-0.149
781	-0.15
781	-0.15
781	-0.15
782	-0.15
782	-0.15
783	-0.15
783	-0.148
784	-0.148
784	-0.15
784	-0.152
785	-0.153
785	-0.155
786	-0.155
786	-0.153
787	-0.149
787	-0.145
788	-0.144
788	-0.145
788	-0.146
789	-0.149
789	-0.149
790	-0.146
790	-0.145
791	-0.146
791	-0.147
791	-0.15
792	-0.145
792	-0.134
793	-0.128
793	-0.124
794	-0.122
794	-0.124
794	-0.127
795	-0.129
795	-0.129
796	-0.129
796	-0.132
797	-0.14
797	-0.151
797	-0.158
798	-0.163
798	-0.166
799	-0.167
799	-0.166
800	-0.166
800	-0.167
801	-0.17
801	-0.171
801	-0.17
802	-0.171
802	-0.172
803	-0.172
803	-0.173
804	-0.172
804	-0.167
804	-0.16
805	-0.156
805	-0.154
806	-0.152
806	-0.15
807	-0.149
807	-0.149
807	-0.149
808	-0.148
808	-0.149
809	-0.154
809	-0.159
810	-0.163
810	-0.165
810	-0.169
811	-0.172
811	-0.173
812	-0.17
812	-0.167
813	-0.167
813	-0.169
813	-0.17
814	-0.171
814	-0.171
815	-0.17
815	-0.167
816	-0.165
816	-0.166
817	-0.17
817	-0.173
817	-0.174
818	-0.173
818	-0.169
819	-0.163
819	-0.16
820	-0.161
820	-0.163
820	-0.165
821	-0.165
821	-0.163
822	-0.163
822	-0.163
823	-0.162
823	-0.164
823	-0.168
824	-0.169
824	-0.167
825	-0.163
825	-0.157
826	-0.152
826	-0.148
826	-0.143
827	-0.137
827	-0.131
828	-0.125
828	-0.12
829	-0.114
829	-0.109
829	-0.105
830	-0.102
830	-0.1
831	-0.096
831	-0.093
832	-0.091
832	-0.089
832	-0.087
833	-0.086
833	-0.085
834	-0.084
834	-0.083
835	-0.082
835	-0.081
835	-0.08
836	-0.079
836	-0.078
837	-0.077
837	-0.076
838	-0.075
838	-0.074
839	-0.073
839	-0.073
839	-0.072
840	-0.071
840	-0.07
841	-0.069
841	-0.068
842	-0.067
842	-0.065
842	-0.063
843	-0.061
843	-0.058
844	-0.056
844	-0.054
845	-0.052
845	-0.05
845	-0.048
846	-0.046
846	-0.045
847	-0.044
847	-0.043
848	-0.042
848	-0.042
848	-0.041
849	-0.041
849	-0.04
850	-0.039
850	-0.039
851	-0.039
851	-0.038
851	-0.038
852	-0.038
852	-0.037
853	-0.037
853	-0.037
854	-0.036
854	-0.036
854	-0.036
855	-0.036
855	-0.036
856	-0.036
856	-0.035
857	-0.035
857	-0.035
857	-0.034
858	-0.034
858	-0.034
859	-0.033
859	-0.032
860	-0.031
860	-0.031
860	-0.03
861	-0.029
861	-0.028
862	-0.028
862	-0.028
863	-0.027
863	-0.027
863	-0.026
864	-0.026
864	-0.025
865	-0.024
865	-0.024
866	-0.023
866	-0.022
866	-0.021
867	-0.02
867	-0.019
868	-0.019
868	-0.018
869	-0.018
869	-0.018
869	-0.018
870	-0.018
870	-0.018
871	-0.018
871	-0.017
872	-0.017
872	-0.017
872	-0.017
873	-0.016
873	-0.016
874	-0.016
874	-0.015
875	-0.015
875	-0.015
875	-0.015
876	-0.015
876	-0.015
877	-0.015
877	-0.015
878	-0.015
878	-0.016
878	-0.016
879	-0.016
879	-0.016
880	-0.017
880	-0.017
881	-0.017
881	-0.016
881	-0.015
882	-0.015
882	-0.013
883	-0.012
883	-0.011
884	-0.009
884	-0.008
884	-0.007
885	-0.006
885	-0.005
886	-0.004
886	-0.004
887	-0.004
887	-0.005
887	-0.005
888	-0.006
888	-0.006
889	-0.006
889	-0.006
890	-0.006
890	-0.007
890	-0.007
891	-0.007
891	-0.008
892	-0.008
892	-0.009
893	-0.009
893	-0.009
893	-0.009
894	-0.009
894	-0.01
895	-0.01
895	-0.011
895	-0.011
896	-0.012
896	-0.012
897	-0.012
897	-0.012
898	-0.012
898	-0.012
898	-0.012
899	-0.012
899	-0.011
900	-0.011
900	-0.01
901	-0.009
901	-0.008
901	-0.007
902	-0.006
902	-0.005
903	-0.004
903	-0.003
904	-0.002
904	-0.002
904	-0.001
905	-0.001
905	-0.001
906	-0.001
906	-0.001
907	-0.001
907	-0.001
907	-0.001
908	-0.002
908	-0.002
909	-0.002
909	-0.003
910	-0.003
910	-0.003
910	-0.004
911	-0.004
911	-0.005
912	-0.005
912	-0.005
913	-0.006
913	-0.006
913	-0.006
914	-0.007
914	-0.007
915	-0.008
915	-0.008
916	-0.009
916	-0.009
916	-0.009
917	-0.008
917	-0.008
918	-0.008
918	-0.007
918	-0.007
919	-0.006
919	-0.005
920	-0.004
920	-0.002
921	-0.001
921	-0.001
921	-0
922	0.001
922	0.001
923	0.002
923	0.002
924	0.002
924	0.002
924	0.001
925	0.001
925	-0
926	-0.001
926	-0.002
927	-0.003
927	-0.004
927	-0.005
928	-0.005
928	-0.006
929	-0.006
929	-0.007
930	-0.007
930	-0.006
930	-0.006
931	-0.005
931	-0.004
932	-0.003
932	-0.003
933	-0.002
933	-0.001
933	-0
934	0
934	0.001
935	0.001
935	0.001
935	0.002
936	0.002
936	0.002
937	0.002
937	0.003
938	0.003
938	0.003
938	0.004
939	0.004
939	0.005
940	0.005
940	0.005
941	0.006
941	0.006
941	0.006
942	0.006
942	0.006
943	0.006
943	0.007
944	0.007
944	0.007
944	0.007
945	0.008
945	0.008
946	0.009
946	0.009
946	0.009
947	0.009
947	0.009
948	0.009
948	0.009
949	0.009
949	0.009
949	0.009
950	0.009
950	0.009
951	0.008
951	0.008
952	0.007
952	0.007
952	0.006
953	0.006
953	0.005
954	0.004
954	0.004
955	0.003
955	0.003
955	0.003
956	0.003
956	0.003
957	0.003
957	0.003
957	0.003
958	0.003
958	0.003
959	0.003
959	0.002
960	0.002
960	0.001
960	0.001
961	0.001
961	0
962	-0
962	-0
963	-0
963	-0
963	-0.001
964	-0
964	-0
965	-0
965	-0
966	0
966	0
966	0.001
967	0.001
967	0.001
968	0.001
968	0.002
968	0.002
969	0.003
969	0.003
970	0.003
970	0.004
971	0.004
971	0.004
971	0.004
972	0.005
972	0.005
973	0.006
973	0.007
974	0.007
974	0.008
974	0.009
975	0.01
975	0.011
976	0.012
976	0.013
976	0.014
977	0.014
977	0.014
978	0.014
978	0.013
979	0.013
979	0.012
979	0.011
980	0.01
980	0.008
981	0.007
981	0.006
982	0.005
982	0.004
982	0.003
983	0.003
983	0.002
984	0.002
984	0.001
984	0.001
985	0.001
985	0.001
986	0
986	0
987	0
987	0
987	0.001
988	0.001
988	0.001
989	0.002
989	0.002
990	0.003
990	0.004
990	0.005
991	0.006
991	0.006
992	0.007
992	0.007
992	0.007
993	0.007
993	0.006
994	0.006
994	0.005
995	0.004
995	0.003
995	0.002
996	0.002
996	0.001
997	0
997	0
997	0.001
998	0.001
998	0.002
999	0.003
999	0.004
1000	0.004
1000	0.005
1000	0.005
1001	0.005
1001	0.005
1002	0.005
1002	0.004
1003	0.003
1003	0.002
1003	0.002
1004	0.001
1004	0
1005	-0.001
1005	-0.001
1005	-0.002
1006	-0.002
1006	-0.002
1007	-0.002
1007	-0.002
1008	-0.001
1008	-0.001
1008	-0.001
1009	-0.001
1009	-0
1010	-0
1010	-0
1010	-0
1011	-0
1011	-0
1012	-0
1012	0
1013	0
1013	0
1013	0
1014	0.001
1014	0.001
1015	0.002
1015	0.002
1016	0.003
1016	0.003
1016	0.004
1017	0.005
1017	0.006
1018	0.007
1018	0.008
1018	0.01
1019	0.011
1019	0.012
1020	0.012
1020	0.013
1021	0.013
1021	0.014
1021	0.014
1022	0.014
1022	0.014
1023	0.014
1023	0.013
1023	0.013
1024	0.013
1024	0.012
1025	0.012
1025	0.012
1026	0.012
1026	0.012
1026	0.012
1027	0.011
1027	0.012
1028	0.011
1028	0.011
1028	0.011
1029	0.01
1029	0.01
1030	0.01
1030	0.009
1031	0.009
1031	0.008
1031	0.008
1032	0.008
1032	0.008
1033	0.008
1033	0.008
1033	0.008
1034	0.008
1034	0.007
1035	0.007
1035	0.007
1036	0.006
1036	0.006
1036	0.006
1037	0.006
1037	0.007
1038	0.007
1038	0.008
1039	0.009
1039	0.01
1039	0.011
1040	0.012
1040	0.013
1041	0.013
1041	0.014
1041	0.014
1042	0.014
1042	0.015
1043	0.015
1043	0.015
1044	0.015
1044	0.016
1044	0.016
1045	0.017
1045	0.018
1046	0.019
1046	0.02
1046	0.021
1047	0.022
1047	0.024
1048	0.025
1048	0.026
1049	0.027
1049	0.027
1049	0.028
1050	0.028
1050	0.029
1051	0.029
1051	0.03
1051	0.03
1052	0.031
1052	0.032
1053	0.033
1053	0.034
1053	0.034
1054	0.035
1054	0.035
1055	0.035
1055	0.035
1056	0.035
1056	0.034
1056	0.033
1057	0.033
1057	0.032
1058	0.032
1058	0.031
1058	0.032
1059	0.033
1059	0.033
1060	0.034
1060	0.035
1061	0.036
1061	0.037
1061	0.038
1062	0.039
1062	0.039
1063	0.04
1063	0.04
1063	0.04
1064	0.041
1064	0.043
1065	0.044
1065	0.044
1066	0.045
1066	0.046
1066	0.048
1067	0.05
1067	0.052
1068	0.053
1068	0.055
1068	0.056
1069	0.058
1069	0.059
1070	0.062
1070	0.065
1071	0.068
1071	0.071
1071	0.073
1072	0.077
1072	0.081
1073	0.085
1073	0.089
1073	0.093
1074	0.097
1074	0.101
1075	0.104
1075	0.107
1076	0.11
1076	0.114
1076	0.117
1077	0.121
1077	0.125
1078	0.129
1078	0.133
1078	0.137
1079	0.141
1079	0.146
1080	0.15
1080	0.154
1080	0.157
1081	0.16
1081	0.164
1082	0.167
1082	0.171
1083	0.174
1083	0.177
1083	0.183
1084	0.188
1084	0.194
1085	0.2
1085	0.207
1085	0.215
1086	0.222
1086	0.228
1087	0.236
1087	0.245
1088	0.252
1088	0.261
1088	0.27
1089	0.279
1089	0.289
1090	0.301
1090	0.315
1090	0.33
1091	0.347
1091	0.365
1092	0.384
1092	0.407
1092	0.428
1093	0.451
1093	0.483
1094	0.516
1094	0.553
1095	0.593
1095	0.643
1095	0.708
1096	0.784
1096	0.879
1097	1.022
1097	1.231
1097	1.755
1098	-0
1098	-0
1099	-0
1099	-0
1100	-0
1100	-0
1100	-0
1101	-0
1101	-0
1102	-0
1102	-0
1102	-0
1103	-0
1103	-0
1104	-0
1104	-0
1104	-0
1105	-0
1105	-0
1106	-0
1106	-0
1107	-0
1107	-0
1107	-0
1108	-0
1108	-0
1109	-0
1109	-0
1109	-0
1110	-0
1110	-0
1111	-0
1111	-0
