Data from 15c-2-5a_Absorbance__1198__02999.txt Node

Date: Fri Jan 19 14:23:13 CET 2024
User: Marek
Spectrometer: MAYP115816
Trigger mode: 0
Integration Time (sec): 2.000000E-1
Scans to average: 10
Electric dark correction enabled: true
Nonlinearity correction enabled: true
Boxcar width: 5
XAxis mode: Wavelengths
Number of Pixels in Spectrum: 2068
>>>>>Begin Spectral Data<<<<<
199	-2.296
199	-2.138
200	-1.99
200	-1.869
201	-1.799
201	-1.744
202	-1.669
202	-1.609
203	-1.555
203	-1.509
204	-1.481
204	-1.455
205	-1.435
205	-1.424
205	-1.422
206	-1.415
206	-1.411
207	-1.406
207	-1.401
208	-1.399
208	-1.396
209	-1.394
209	-1.389
210	-1.387
210	-1.385
211	-1.383
211	-1.382
212	-1.383
212	-1.382
213	-1.381
213	-1.378
213	-1.378
214	-1.373
214	-1.372
215	-1.369
215	-1.367
216	-1.364
216	-1.363
217	-1.359
217	-1.356
218	-1.354
218	-1.351
219	-1.348
219	-1.347
220	-1.346
220	-1.345
221	-1.344
221	-1.338
221	-1.333
222	-1.331
222	-1.327
223	-1.321
223	-1.317
224	-1.309
224	-1.302
225	-1.294
225	-1.282
226	-1.271
226	-1.262
227	-1.248
227	-1.234
228	-1.218
228	-1.201
229	-1.18
229	-1.158
229	-1.131
230	-1.102
230	-1.07
231	-1.033
231	-0.994
232	-0.953
232	-0.908
233	-0.859
233	-0.809
234	-0.758
234	-0.706
235	-0.655
235	-0.603
236	-0.553
236	-0.502
236	-0.453
237	-0.405
237	-0.358
238	-0.314
238	-0.272
239	-0.231
239	-0.193
240	-0.157
240	-0.123
241	-0.091
241	-0.06
242	-0.032
242	-0.006
243	0.018
243	0.041
243	0.062
244	0.081
244	0.099
245	0.116
245	0.132
246	0.146
246	0.16
247	0.172
247	0.183
248	0.194
248	0.204
249	0.213
249	0.222
250	0.23
250	0.238
250	0.246
251	0.252
251	0.259
252	0.265
252	0.271
253	0.277
253	0.281
254	0.286
254	0.291
255	0.295
255	0.299
256	0.303
256	0.306
257	0.308
257	0.311
258	0.313
258	0.315
258	0.317
259	0.319
259	0.321
260	0.322
260	0.323
261	0.325
261	0.326
262	0.327
262	0.328
263	0.329
263	0.33
264	0.331
264	0.331
265	0.332
265	0.332
265	0.333
266	0.333
266	0.333
267	0.333
267	0.333
268	0.333
268	0.332
269	0.332
269	0.331
270	0.331
270	0.33
271	0.329
271	0.329
272	0.328
272	0.327
272	0.327
273	0.326
273	0.325
274	0.324
274	0.323
275	0.323
275	0.322
276	0.321
276	0.319
277	0.318
277	0.316
278	0.314
278	0.311
278	0.309
279	0.307
279	0.306
280	0.305
280	0.304
281	0.304
281	0.303
282	0.303
282	0.302
283	0.303
283	0.303
284	0.303
284	0.303
285	0.303
285	0.302
285	0.301
286	0.3
286	0.299
287	0.298
287	0.297
288	0.297
288	0.296
289	0.295
289	0.294
290	0.293
290	0.292
291	0.292
291	0.291
292	0.29
292	0.289
292	0.289
293	0.288
293	0.287
294	0.287
294	0.286
295	0.286
295	0.285
296	0.284
296	0.284
297	0.283
297	0.282
298	0.282
298	0.281
298	0.281
299	0.28
299	0.279
300	0.278
300	0.278
301	0.277
301	0.276
302	0.276
302	0.275
303	0.274
303	0.274
304	0.273
304	0.272
305	0.271
305	0.271
305	0.27
306	0.269
306	0.269
307	0.268
307	0.267
308	0.266
308	0.265
309	0.265
309	0.264
310	0.263
310	0.262
311	0.261
311	0.26
311	0.26
312	0.259
312	0.258
313	0.257
313	0.256
314	0.255
314	0.254
315	0.253
315	0.252
316	0.251
316	0.25
317	0.25
317	0.249
318	0.248
318	0.247
318	0.246
319	0.245
319	0.244
320	0.243
320	0.242
321	0.241
321	0.24
322	0.239
322	0.238
323	0.237
323	0.236
324	0.235
324	0.234
324	0.233
325	0.232
325	0.231
326	0.23
326	0.229
327	0.228
327	0.228
328	0.227
328	0.226
329	0.225
329	0.224
330	0.223
330	0.222
330	0.221
331	0.22
331	0.22
332	0.219
332	0.218
333	0.217
333	0.216
334	0.215
334	0.214
335	0.213
335	0.212
336	0.211
336	0.211
336	0.209
337	0.209
337	0.208
338	0.207
338	0.206
339	0.205
339	0.204
340	0.203
340	0.203
341	0.202
341	0.201
342	0.201
342	0.2
342	0.199
343	0.198
343	0.197
344	0.197
344	0.196
345	0.195
345	0.194
346	0.194
346	0.193
347	0.192
347	0.191
348	0.19
348	0.189
348	0.188
349	0.187
349	0.186
350	0.185
350	0.184
351	0.183
351	0.182
352	0.181
352	0.18
353	0.179
353	0.178
354	0.177
354	0.175
354	0.174
355	0.173
355	0.171
356	0.17
356	0.169
357	0.168
357	0.168
358	0.167
358	0.168
359	0.168
359	0.169
360	0.17
360	0.171
360	0.172
361	0.172
361	0.173
362	0.173
362	0.173
363	0.173
363	0.173
364	0.172
364	0.171
365	0.171
365	0.17
366	0.17
366	0.169
366	0.169
367	0.168
367	0.168
368	0.167
368	0.166
369	0.166
369	0.165
370	0.165
370	0.164
371	0.163
371	0.163
372	0.162
372	0.162
372	0.161
373	0.161
373	0.161
374	0.16
374	0.16
375	0.16
375	0.16
376	0.16
376	0.16
377	0.16
377	0.161
378	0.161
378	0.162
378	0.162
379	0.162
379	0.162
380	0.162
380	0.162
381	0.162
381	0.162
382	0.161
382	0.161
383	0.16
383	0.16
383	0.159
384	0.159
384	0.158
385	0.158
385	0.157
386	0.157
386	0.157
387	0.157
387	0.157
388	0.157
388	0.156
389	0.156
389	0.156
389	0.156
390	0.156
390	0.156
391	0.156
391	0.157
392	0.157
392	0.156
393	0.156
393	0.156
394	0.156
394	0.156
394	0.156
395	0.155
395	0.155
396	0.154
396	0.154
397	0.154
397	0.155
398	0.155
398	0.155
399	0.155
399	0.154
400	0.154
400	0.154
400	0.153
401	0.152
401	0.151
402	0.15
402	0.149
403	0.149
403	0.148
404	0.148
404	0.148
405	0.147
405	0.147
405	0.146
406	0.146
406	0.145
407	0.145
407	0.144
408	0.144
408	0.143
409	0.142
409	0.141
410	0.141
410	0.141
411	0.141
411	0.141
411	0.141
412	0.14
412	0.14
413	0.14
413	0.139
414	0.139
414	0.139
415	0.138
415	0.138
416	0.137
416	0.136
416	0.136
417	0.135
417	0.135
418	0.135
418	0.135
419	0.136
419	0.136
420	0.137
420	0.138
421	0.138
421	0.139
421	0.139
422	0.14
422	0.14
423	0.14
423	0.139
424	0.139
424	0.138
425	0.136
425	0.135
426	0.135
426	0.134
427	0.133
427	0.133
427	0.134
428	0.135
428	0.136
429	0.136
429	0.137
430	0.137
430	0.137
431	0.137
431	0.136
432	0.136
432	0.135
432	0.134
433	0.132
433	0.13
434	0.129
434	0.128
435	0.128
435	0.128
436	0.128
436	0.128
437	0.128
437	0.128
437	0.128
438	0.128
438	0.128
439	0.127
439	0.127
440	0.126
440	0.126
441	0.126
441	0.126
442	0.127
442	0.127
442	0.127
443	0.128
443	0.128
444	0.128
444	0.128
445	0.129
445	0.129
446	0.128
446	0.128
447	0.128
447	0.127
447	0.127
448	0.127
448	0.126
449	0.126
449	0.126
450	0.125
450	0.125
451	0.124
451	0.124
452	0.123
452	0.122
452	0.121
453	0.121
453	0.12
454	0.119
454	0.118
455	0.117
455	0.117
456	0.116
456	0.116
457	0.116
457	0.116
458	0.115
458	0.115
458	0.115
459	0.115
459	0.115
460	0.115
460	0.114
461	0.113
461	0.112
462	0.112
462	0.112
463	0.112
463	0.113
463	0.114
464	0.114
464	0.115
465	0.115
465	0.115
466	0.115
466	0.115
467	0.115
467	0.114
467	0.113
468	0.111
468	0.108
469	0.106
469	0.103
470	0.102
470	0.102
471	0.101
471	0.101
472	0.101
472	0.101
472	0.102
473	0.103
473	0.104
474	0.106
474	0.107
475	0.108
475	0.108
476	0.109
476	0.109
477	0.109
477	0.109
477	0.11
478	0.109
478	0.109
479	0.11
479	0.11
480	0.111
480	0.112
481	0.113
481	0.114
482	0.115
482	0.116
482	0.118
483	0.12
483	0.124
484	0.128
484	0.132
485	0.134
485	0.135
486	0.136
486	0.137
487	0.137
487	0.138
487	0.137
488	0.136
488	0.134
489	0.131
489	0.128
490	0.126
490	0.124
491	0.123
491	0.123
492	0.123
492	0.123
492	0.124
493	0.124
493	0.125
494	0.127
494	0.129
495	0.131
495	0.133
496	0.134
496	0.135
496	0.136
497	0.136
497	0.137
498	0.138
498	0.139
499	0.139
499	0.138
500	0.138
500	0.14
501	0.141
501	0.143
501	0.145
502	0.146
502	0.148
503	0.149
503	0.151
504	0.151
504	0.151
505	0.151
505	0.151
506	0.151
506	0.151
506	0.151
507	0.15
507	0.15
508	0.15
508	0.15
509	0.151
509	0.151
510	0.151
510	0.151
511	0.151
511	0.152
511	0.152
512	0.152
512	0.152
513	0.15
513	0.148
514	0.146
514	0.144
515	0.144
515	0.143
515	0.143
516	0.142
516	0.141
517	0.141
517	0.14
518	0.139
518	0.138
519	0.136
519	0.133
520	0.129
520	0.125
520	0.121
521	0.118
521	0.115
522	0.113
522	0.112
523	0.113
523	0.115
524	0.118
524	0.122
524	0.126
525	0.131
525	0.135
526	0.138
526	0.142
527	0.145
527	0.147
528	0.149
528	0.15
529	0.151
529	0.151
529	0.151
530	0.151
530	0.151
531	0.151
531	0.151
532	0.151
532	0.151
533	0.151
533	0.151
533	0.151
534	0.15
534	0.149
535	0.148
535	0.148
536	0.148
536	0.148
537	0.147
537	0.147
538	0.146
538	0.144
538	0.143
539	0.142
539	0.142
540	0.141
540	0.14
541	0.138
541	0.136
542	0.134
542	0.133
542	0.131
543	0.13
543	0.129
544	0.128
544	0.127
545	0.126
545	0.126
546	0.126
546	0.126
547	0.125
547	0.122
547	0.12
548	0.117
548	0.115
549	0.113
549	0.11
550	0.109
550	0.106
551	0.104
551	0.101
551	0.099
552	0.098
552	0.097
553	0.097
553	0.097
554	0.096
554	0.095
555	0.093
555	0.09
556	0.087
556	0.084
556	0.081
557	0.078
557	0.076
558	0.074
558	0.071
559	0.07
559	0.069
560	0.069
560	0.069
560	0.068
561	0.068
561	0.069
562	0.069
562	0.068
563	0.067
563	0.065
564	0.062
564	0.059
564	0.057
565	0.055
565	0.054
566	0.053
566	0.052
567	0.053
567	0.054
568	0.056
568	0.058
568	0.06
569	0.063
569	0.066
570	0.068
570	0.069
571	0.07
571	0.072
572	0.073
572	0.073
573	0.074
573	0.074
573	0.074
574	0.073
574	0.073
575	0.072
575	0.074
576	0.075
576	0.075
577	0.074
577	0.073
577	0.072
578	0.071
578	0.07
579	0.071
579	0.073
580	0.073
580	0.07
581	0.067
581	0.064
581	0.063
582	0.062
582	0.062
583	0.063
583	0.063
584	0.06
584	0.056
585	0.054
585	0.053
585	0.053
586	0.053
586	0.053
587	0.051
587	0.048
588	0.045
588	0.041
589	0.039
589	0.037
590	0.035
590	0.034
590	0.034
591	0.035
591	0.036
592	0.036
592	0.035
593	0.035
593	0.035
594	0.034
594	0.034
594	0.033
595	0.032
595	0.03
596	0.028
596	0.028
597	0.03
597	0.031
598	0.033
598	0.034
598	0.035
599	0.036
599	0.035
600	0.034
600	0.033
601	0.032
601	0.031
602	0.029
602	0.027
602	0.025
603	0.024
603	0.024
604	0.025
604	0.027
605	0.029
605	0.032
606	0.033
606	0.033
606	0.032
607	0.031
607	0.031
608	0.031
608	0.029
609	0.027
609	0.026
610	0.024
610	0.021
610	0.02
611	0.02
611	0.021
612	0.022
612	0.023
613	0.024
613	0.026
614	0.026
614	0.025
614	0.025
615	0.024
615	0.024
616	0.024
616	0.023
617	0.022
617	0.021
618	0.019
618	0.018
618	0.017
619	0.016
619	0.017
620	0.018
620	0.02
621	0.02
621	0.02
622	0.02
622	0.021
622	0.021
623	0.021
623	0.022
624	0.023
624	0.023
625	0.022
625	0.022
626	0.022
626	0.021
626	0.021
627	0.022
627	0.022
628	0.023
628	0.023
629	0.024
629	0.024
630	0.023
630	0.022
630	0.022
631	0.022
631	0.022
632	0.021
632	0.02
633	0.02
633	0.021
634	0.022
634	0.024
634	0.027
635	0.029
635	0.03
636	0.032
636	0.033
637	0.035
637	0.036
638	0.037
638	0.038
638	0.039
639	0.039
639	0.039
640	0.039
640	0.04
641	0.042
641	0.043
642	0.045
642	0.047
642	0.048
643	0.05
643	0.052
644	0.054
644	0.056
645	0.059
645	0.061
646	0.064
646	0.067
646	0.071
647	0.076
647	0.08
648	0.083
648	0.086
649	0.089
649	0.093
650	0.097
650	0.1
650	0.103
651	0.106
651	0.108
652	0.11
652	0.112
653	0.115
653	0.124
653	0.15
654	0.125
654	0.105
655	0.11
655	0.112
656	0.114
656	0.115
657	0.117
657	0.119
657	0.121
658	0.118
658	0.1
659	0.123
659	0.154
660	0.155
660	0.157
661	0.159
661	0.16
661	0.163
662	0.165
662	0.168
663	0.172
663	0.175
664	0.177
664	0.18
665	0.182
665	0.184
665	0.187
666	0.189
666	0.192
667	0.194
667	0.196
668	0.198
668	0.2
669	0.203
669	0.205
669	0.209
670	0.214
670	0.217
671	0.22
671	0.222
672	0.224
672	0.225
672	0.227
673	0.228
673	0.229
674	0.23
674	0.231
675	0.23
675	0.23
676	0.232
676	0.234
676	0.236
677	0.238
677	0.241
678	0.243
678	0.245
679	0.247
679	0.248
680	0.25
680	0.252
680	0.253
681	0.253
681	0.254
682	0.255
682	0.256
683	0.258
683	0.261
684	0.264
684	0.265
684	0.266
685	0.267
685	0.268
686	0.27
686	0.27
687	0.269
687	0.268
687	0.267
688	0.265
688	0.263
689	0.262
689	0.263
690	0.263
690	0.263
691	0.262
691	0.263
691	0.263
692	0.263
692	0.262
693	0.262
693	0.262
694	0.262
694	0.26
695	0.259
695	0.261
695	0.262
696	0.262
696	0.261
697	0.26
697	0.26
698	0.259
698	0.257
698	0.255
699	0.254
699	0.252
700	0.248
700	0.245
701	0.244
701	0.242
702	0.241
702	0.239
702	0.238
703	0.236
703	0.234
704	0.233
704	0.232
705	0.232
705	0.231
705	0.23
706	0.229
706	0.229
707	0.228
707	0.226
708	0.224
708	0.222
709	0.221
709	0.219
709	0.215
710	0.211
710	0.208
711	0.205
711	0.203
712	0.2
712	0.198
713	0.196
713	0.195
713	0.192
714	0.19
714	0.187
715	0.185
715	0.182
716	0.18
716	0.177
716	0.175
717	0.173
717	0.17
718	0.167
718	0.164
719	0.162
719	0.16
720	0.157
720	0.155
720	0.152
721	0.148
721	0.145
722	0.142
722	0.138
723	0.136
723	0.134
723	0.132
724	0.13
724	0.128
725	0.125
725	0.123
726	0.121
726	0.119
727	0.117
727	0.116
727	0.114
728	0.112
728	0.109
729	0.109
729	0.108
730	0.106
730	0.104
730	0.102
731	0.1
731	0.098
732	0.096
732	0.095
733	0.093
733	0.09
734	0.088
734	0.084
734	0.082
735	0.08
735	0.077
736	0.074
736	0.071
737	0.068
737	0.066
737	0.063
738	0.06
738	0.057
739	0.054
739	0.051
740	0.048
740	0.046
741	0.045
741	0.043
741	0.039
742	0.035
742	0.03
743	0.027
743	0.023
744	0.02
744	0.018
744	0.015
745	0.012
745	0.009
746	0.006
746	0.005
747	0.004
747	0.004
748	0.005
748	0.005
748	0.005
749	0.005
749	0.005
750	0.004
750	0.003
751	0.002
751	0.002
751	0.002
752	0.001
752	-0.001
753	-0.003
753	-0.004
754	-0.004
754	-0.005
754	-0.004
755	-0.003
755	-0.002
756	-0.002
756	-0.004
757	-0.006
757	-0.006
758	-0.007
758	-0.009
758	-0.009
759	-0.011
759	-0.013
760	-0.017
760	-0.02
761	-0.023
761	-0.025
761	-0.026
762	-0.029
762	-0.031
763	-0.032
763	-0.035
764	-0.039
764	-0.042
764	-0.045
765	-0.048
765	-0.051
766	-0.053
766	-0.055
767	-0.056
767	-0.059
768	-0.063
768	-0.066
768	-0.067
769	-0.068
769	-0.069
770	-0.07
770	-0.072
771	-0.074
771	-0.077
771	-0.081
772	-0.083
772	-0.085
773	-0.087
773	-0.09
774	-0.093
774	-0.097
775	-0.1
775	-0.104
775	-0.107
776	-0.111
776	-0.115
777	-0.118
777	-0.122
778	-0.126
778	-0.131
778	-0.136
779	-0.139
779	-0.138
780	-0.138
780	-0.141
781	-0.142
781	-0.143
781	-0.145
782	-0.146
782	-0.148
783	-0.149
783	-0.148
784	-0.148
784	-0.15
784	-0.152
785	-0.153
785	-0.155
786	-0.155
786	-0.153
787	-0.149
787	-0.145
788	-0.144
788	-0.145
788	-0.146
789	-0.149
789	-0.149
790	-0.146
790	-0.145
791	-0.145
791	-0.147
791	-0.15
792	-0.145
792	-0.134
793	-0.128
793	-0.124
794	-0.122
794	-0.124
794	-0.127
795	-0.129
795	-0.129
796	-0.129
796	-0.132
797	-0.14
797	-0.151
797	-0.158
798	-0.163
798	-0.166
799	-0.167
799	-0.166
800	-0.166
800	-0.167
801	-0.17
801	-0.171
801	-0.17
802	-0.171
802	-0.172
803	-0.172
803	-0.172
804	-0.171
804	-0.166
804	-0.16
805	-0.156
805	-0.154
806	-0.152
806	-0.15
807	-0.149
807	-0.149
807	-0.149
808	-0.148
808	-0.149
809	-0.154
809	-0.159
810	-0.163
810	-0.165
810	-0.169
811	-0.172
811	-0.173
812	-0.17
812	-0.167
813	-0.167
813	-0.168
813	-0.17
814	-0.171
814	-0.171
815	-0.169
815	-0.167
816	-0.165
816	-0.166
817	-0.17
817	-0.173
817	-0.174
818	-0.172
818	-0.169
819	-0.163
819	-0.16
820	-0.161
820	-0.163
820	-0.164
821	-0.164
821	-0.163
822	-0.163
822	-0.162
823	-0.162
823	-0.164
823	-0.168
824	-0.169
824	-0.166
825	-0.162
825	-0.155
826	-0.149
826	-0.145
826	-0.139
827	-0.132
827	-0.125
828	-0.118
828	-0.112
829	-0.105
829	-0.099
829	-0.095
830	-0.092
830	-0.089
831	-0.085
831	-0.081
832	-0.08
832	-0.077
832	-0.076
833	-0.074
833	-0.074
834	-0.073
834	-0.072
835	-0.07
835	-0.069
835	-0.068
836	-0.067
836	-0.066
837	-0.065
837	-0.063
838	-0.062
838	-0.061
839	-0.06
839	-0.06
839	-0.06
840	-0.059
840	-0.058
841	-0.057
841	-0.057
842	-0.055
842	-0.054
842	-0.052
843	-0.05
843	-0.048
844	-0.045
844	-0.042
845	-0.04
845	-0.038
845	-0.036
846	-0.034
846	-0.033
847	-0.032
847	-0.031
848	-0.03
848	-0.03
848	-0.03
849	-0.03
849	-0.03
850	-0.029
850	-0.029
851	-0.029
851	-0.028
851	-0.028
852	-0.027
852	-0.026
853	-0.025
853	-0.025
854	-0.024
854	-0.023
854	-0.023
855	-0.022
855	-0.023
856	-0.023
856	-0.023
857	-0.023
857	-0.023
857	-0.024
858	-0.024
858	-0.024
859	-0.024
859	-0.024
860	-0.023
860	-0.022
860	-0.02
861	-0.019
861	-0.017
862	-0.017
862	-0.016
863	-0.015
863	-0.014
863	-0.013
864	-0.012
864	-0.011
865	-0.01
865	-0.01
866	-0.009
866	-0.008
866	-0.007
867	-0.006
867	-0.005
868	-0.005
868	-0.005
869	-0.004
869	-0.004
869	-0.004
870	-0.004
870	-0.004
871	-0.004
871	-0.004
872	-0.004
872	-0.004
872	-0.004
873	-0.004
873	-0.004
874	-0.004
874	-0.004
875	-0.004
875	-0.004
875	-0.004
876	-0.004
876	-0.003
877	-0.003
877	-0.003
878	-0.003
878	-0.004
878	-0.004
879	-0.005
879	-0.005
880	-0.006
880	-0.007
881	-0.007
881	-0.007
881	-0.007
882	-0.007
882	-0.006
883	-0.005
883	-0.004
884	-0.002
884	-0.001
884	0
885	0.002
885	0.003
886	0.005
886	0.005
887	0.006
887	0.006
887	0.006
888	0.006
888	0.006
889	0.006
889	0.006
890	0.006
890	0.005
890	0.004
891	0.004
891	0.003
892	0.002
892	0.002
893	0.001
893	0
893	0
894	-0
894	-0.001
895	-0.001
895	-0.002
895	-0.002
896	-0.002
896	-0.002
897	-0.002
897	-0.003
898	-0.002
898	-0.003
898	-0.002
899	-0.002
899	-0.001
900	-0.001
900	-0
901	0.001
901	0.002
901	0.003
902	0.005
902	0.006
903	0.008
903	0.009
904	0.01
904	0.011
904	0.012
905	0.013
905	0.014
906	0.014
906	0.014
907	0.013
907	0.012
907	0.012
908	0.011
908	0.01
909	0.009
909	0.008
910	0.007
910	0.007
910	0.006
911	0.005
911	0.004
912	0.003
912	0.003
913	0.003
913	0.002
913	0.002
914	0.001
914	0.001
915	0.001
915	0.001
916	0.001
916	0.001
916	0.001
917	0.002
917	0.003
918	0.004
918	0.005
918	0.006
919	0.007
919	0.008
920	0.009
920	0.011
921	0.012
921	0.013
921	0.014
922	0.014
922	0.014
923	0.014
923	0.014
924	0.014
924	0.014
924	0.013
925	0.012
925	0.011
926	0.011
926	0.01
927	0.009
927	0.009
927	0.009
928	0.008
928	0.008
929	0.008
929	0.008
930	0.008
930	0.008
930	0.008
931	0.008
931	0.008
932	0.008
932	0.008
933	0.008
933	0.008
933	0.008
934	0.008
934	0.008
935	0.008
935	0.009
935	0.009
936	0.01
936	0.01
937	0.011
937	0.012
938	0.013
938	0.013
938	0.014
939	0.014
939	0.014
940	0.014
940	0.014
941	0.014
941	0.013
941	0.013
942	0.013
942	0.013
943	0.013
943	0.013
944	0.013
944	0.013
944	0.014
945	0.014
945	0.015
946	0.016
946	0.016
946	0.016
947	0.016
947	0.016
948	0.016
948	0.016
949	0.017
949	0.017
949	0.018
950	0.018
950	0.019
951	0.019
951	0.019
952	0.019
952	0.02
952	0.02
953	0.02
953	0.021
954	0.02
954	0.02
955	0.02
955	0.019
955	0.019
956	0.019
956	0.019
957	0.018
957	0.017
957	0.016
958	0.015
958	0.015
959	0.014
959	0.013
960	0.013
960	0.012
960	0.011
961	0.011
961	0.01
962	0.01
962	0.01
963	0.01
963	0.01
963	0.01
964	0.01
964	0.01
965	0.01
965	0.01
966	0.011
966	0.011
966	0.011
967	0.011
967	0.012
968	0.012
968	0.012
968	0.013
969	0.013
969	0.014
970	0.014
970	0.015
971	0.015
971	0.016
971	0.016
972	0.017
972	0.018
973	0.018
973	0.019
974	0.019
974	0.02
974	0.021
975	0.021
975	0.022
976	0.023
976	0.023
976	0.023
977	0.023
977	0.023
978	0.023
978	0.023
979	0.023
979	0.022
979	0.021
980	0.02
980	0.02
981	0.019
981	0.018
982	0.018
982	0.018
982	0.017
983	0.017
983	0.016
984	0.016
984	0.016
984	0.016
985	0.016
985	0.016
986	0.015
986	0.015
987	0.015
987	0.015
987	0.015
988	0.015
988	0.015
989	0.015
989	0.015
990	0.015
990	0.015
990	0.016
991	0.016
991	0.016
992	0.017
992	0.017
992	0.017
993	0.016
993	0.016
994	0.016
994	0.015
995	0.015
995	0.014
995	0.013
996	0.013
996	0.012
997	0.012
997	0.012
997	0.013
998	0.014
998	0.015
999	0.016
999	0.017
1000	0.018
1000	0.019
1000	0.019
1001	0.019
1001	0.019
1002	0.019
1002	0.018
1003	0.017
1003	0.016
1003	0.015
1004	0.013
1004	0.012
1005	0.011
1005	0.01
1005	0.008
1006	0.007
1006	0.007
1007	0.006
1007	0.006
1008	0.005
1008	0.005
1008	0.005
1009	0.005
1009	0.005
1010	0.005
1010	0.006
1010	0.006
1011	0.006
1011	0.007
1012	0.007
1012	0.008
1013	0.008
1013	0.008
1013	0.009
1014	0.01
1014	0.011
1015	0.012
1015	0.013
1016	0.013
1016	0.014
1016	0.015
1017	0.016
1017	0.017
1018	0.019
1018	0.02
1018	0.021
1019	0.022
1019	0.023
1020	0.024
1020	0.024
1021	0.024
1021	0.024
1021	0.024
1022	0.024
1022	0.024
1023	0.024
1023	0.023
1023	0.023
1024	0.022
1024	0.021
1025	0.021
1025	0.021
1026	0.02
1026	0.02
1026	0.02
1027	0.019
1027	0.019
1028	0.019
1028	0.019
1028	0.019
1029	0.019
1029	0.019
1030	0.018
1030	0.018
1031	0.018
1031	0.018
1031	0.017
1032	0.017
1032	0.017
1033	0.017
1033	0.017
1033	0.017
1034	0.017
1034	0.016
1035	0.016
1035	0.016
1036	0.016
1036	0.017
1036	0.017
1037	0.017
1037	0.017
1038	0.017
1038	0.018
1039	0.019
1039	0.02
1039	0.021
1040	0.022
1040	0.023
1041	0.023
1041	0.024
1041	0.024
1042	0.024
1042	0.025
1043	0.025
1043	0.025
1044	0.026
1044	0.026
1044	0.027
1045	0.028
1045	0.029
1046	0.03
1046	0.031
1046	0.033
1047	0.034
1047	0.036
1048	0.037
1048	0.038
1049	0.039
1049	0.04
1049	0.04
1050	0.041
1050	0.041
1051	0.041
1051	0.042
1051	0.043
1052	0.043
1052	0.044
1053	0.045
1053	0.045
1053	0.046
1054	0.047
1054	0.048
1055	0.048
1055	0.048
1056	0.048
1056	0.048
1056	0.047
1057	0.046
1057	0.047
1058	0.046
1058	0.046
1058	0.047
1059	0.047
1059	0.048
1060	0.048
1060	0.049
1061	0.051
1061	0.052
1061	0.053
1062	0.053
1062	0.054
1063	0.055
1063	0.055
1063	0.056
1064	0.057
1064	0.059
1065	0.06
1065	0.061
1066	0.063
1066	0.064
1066	0.066
1067	0.068
1067	0.07
1068	0.072
1068	0.074
1068	0.075
1069	0.077
1069	0.078
1070	0.08
1070	0.083
1071	0.085
1071	0.089
1071	0.091
1072	0.095
1072	0.099
1073	0.103
1073	0.107
1073	0.111
1074	0.115
1074	0.119
1075	0.121
1075	0.124
1076	0.127
1076	0.13
1076	0.133
1077	0.136
1077	0.14
1078	0.143
1078	0.147
1078	0.151
1079	0.155
1079	0.159
1080	0.163
1080	0.167
1080	0.17
1081	0.173
1081	0.177
1082	0.182
1082	0.185
1083	0.189
1083	0.193
1083	0.199
1084	0.205
1084	0.211
1085	0.218
1085	0.224
1085	0.232
1086	0.239
1086	0.245
1087	0.253
1087	0.262
1088	0.269
1088	0.278
1088	0.288
1089	0.297
1089	0.308
1090	0.321
1090	0.335
1090	0.351
1091	0.368
1091	0.388
1092	0.408
1092	0.432
1092	0.456
1093	0.481
1093	0.514
1094	0.549
1094	0.589
1095	0.633
1095	0.687
1095	0.761
1096	0.846
1096	0.963
1097	1.157
1097	1.475
1097	-0
1098	-0
1098	-0
1099	-0
1099	-0
1100	-0
1100	-0
1100	-0
1101	-0
1101	-0
1102	-0
1102	-0
1102	-0
1103	-0
1103	-0
1104	-0
1104	-0
1104	-0
1105	-0
1105	-0
1106	-0
1106	-0
1107	-0
1107	-0
1107	-0
1108	-0
1108	-0
1109	-0
1109	-0
1109	-0
1110	-0
1110	-0
1111	-0
1111	-0
