Data from 15c-2-5a_Absorbance__693__02494.txt Node

Date: Fri Jan 19 14:06:23 CET 2024
User: Marek
Spectrometer: MAYP115816
Trigger mode: 0
Integration Time (sec): 2.000000E-1
Scans to average: 10
Electric dark correction enabled: true
Nonlinearity correction enabled: true
Boxcar width: 5
XAxis mode: Wavelengths
Number of Pixels in Spectrum: 2068
>>>>>Begin Spectral Data<<<<<
199	-2.289
199	-2.131
200	-1.984
200	-1.862
201	-1.792
201	-1.737
202	-1.662
202	-1.601
203	-1.547
203	-1.501
204	-1.473
204	-1.448
205	-1.428
205	-1.416
205	-1.414
206	-1.408
206	-1.404
207	-1.399
207	-1.394
208	-1.392
208	-1.389
209	-1.387
209	-1.382
210	-1.379
210	-1.377
211	-1.376
211	-1.375
212	-1.375
212	-1.374
213	-1.374
213	-1.371
213	-1.371
214	-1.366
214	-1.365
215	-1.362
215	-1.361
216	-1.357
216	-1.357
217	-1.352
217	-1.35
218	-1.348
218	-1.345
219	-1.341
219	-1.341
220	-1.339
220	-1.339
221	-1.337
221	-1.332
221	-1.326
222	-1.324
222	-1.32
223	-1.314
223	-1.31
224	-1.303
224	-1.295
225	-1.288
225	-1.276
226	-1.265
226	-1.254
227	-1.242
227	-1.227
228	-1.211
228	-1.195
229	-1.174
229	-1.151
229	-1.125
230	-1.096
230	-1.064
231	-1.028
231	-0.989
232	-0.948
232	-0.903
233	-0.855
233	-0.806
234	-0.756
234	-0.705
235	-0.655
235	-0.604
236	-0.555
236	-0.506
236	-0.458
237	-0.411
237	-0.366
238	-0.324
238	-0.284
239	-0.245
239	-0.209
240	-0.175
240	-0.143
241	-0.112
241	-0.084
242	-0.058
242	-0.035
243	-0.012
243	0.008
243	0.027
244	0.045
244	0.061
245	0.076
245	0.089
246	0.102
246	0.114
247	0.125
247	0.135
248	0.145
248	0.154
249	0.162
249	0.169
250	0.177
250	0.184
250	0.19
251	0.196
251	0.202
252	0.207
252	0.212
253	0.217
253	0.221
254	0.225
254	0.229
255	0.233
255	0.236
256	0.239
256	0.242
257	0.244
257	0.247
258	0.249
258	0.251
258	0.253
259	0.254
259	0.255
260	0.257
260	0.257
261	0.258
261	0.259
262	0.26
262	0.261
263	0.262
263	0.262
264	0.263
264	0.263
265	0.264
265	0.264
265	0.264
266	0.264
266	0.264
267	0.263
267	0.263
268	0.262
268	0.262
269	0.261
269	0.26
270	0.259
270	0.259
271	0.258
271	0.257
272	0.257
272	0.256
272	0.255
273	0.254
273	0.253
274	0.252
274	0.251
275	0.25
275	0.249
276	0.248
276	0.247
277	0.246
277	0.244
278	0.242
278	0.24
278	0.238
279	0.236
279	0.235
280	0.234
280	0.233
281	0.232
281	0.231
282	0.23
282	0.23
283	0.23
283	0.23
284	0.23
284	0.23
285	0.229
285	0.228
285	0.227
286	0.226
286	0.226
287	0.225
287	0.224
288	0.223
288	0.222
289	0.221
289	0.22
290	0.22
290	0.219
291	0.218
291	0.217
292	0.217
292	0.216
292	0.215
293	0.214
293	0.214
294	0.213
294	0.212
295	0.212
295	0.211
296	0.211
296	0.21
297	0.209
297	0.209
298	0.208
298	0.208
298	0.207
299	0.207
299	0.206
300	0.205
300	0.205
301	0.204
301	0.204
302	0.203
302	0.202
303	0.202
303	0.202
304	0.201
304	0.2
305	0.2
305	0.199
305	0.199
306	0.198
306	0.198
307	0.197
307	0.196
308	0.196
308	0.195
309	0.194
309	0.194
310	0.193
310	0.192
311	0.192
311	0.191
311	0.19
312	0.19
312	0.189
313	0.188
313	0.187
314	0.186
314	0.186
315	0.185
315	0.184
316	0.183
316	0.182
317	0.182
317	0.181
318	0.18
318	0.179
318	0.179
319	0.178
319	0.177
320	0.176
320	0.175
321	0.174
321	0.173
322	0.172
322	0.171
323	0.171
323	0.17
324	0.169
324	0.168
324	0.167
325	0.166
325	0.166
326	0.165
326	0.164
327	0.163
327	0.163
328	0.162
328	0.161
329	0.161
329	0.16
330	0.159
330	0.158
330	0.157
331	0.157
331	0.156
332	0.155
332	0.154
333	0.154
333	0.153
334	0.152
334	0.151
335	0.15
335	0.15
336	0.149
336	0.148
336	0.147
337	0.146
337	0.146
338	0.145
338	0.144
339	0.143
339	0.143
340	0.142
340	0.141
341	0.141
341	0.14
342	0.14
342	0.139
342	0.139
343	0.138
343	0.137
344	0.137
344	0.136
345	0.135
345	0.135
346	0.134
346	0.133
347	0.132
347	0.131
348	0.131
348	0.13
348	0.129
349	0.128
349	0.128
350	0.127
350	0.126
351	0.125
351	0.124
352	0.123
352	0.122
353	0.121
353	0.12
354	0.119
354	0.117
354	0.116
355	0.115
355	0.114
356	0.113
356	0.113
357	0.112
357	0.112
358	0.111
358	0.112
359	0.112
359	0.113
360	0.114
360	0.114
360	0.115
361	0.115
361	0.116
362	0.116
362	0.116
363	0.116
363	0.115
364	0.115
364	0.114
365	0.114
365	0.113
366	0.113
366	0.112
366	0.112
367	0.112
367	0.111
368	0.111
368	0.11
369	0.11
369	0.109
370	0.109
370	0.108
371	0.108
371	0.107
372	0.106
372	0.106
372	0.106
373	0.105
373	0.105
374	0.105
374	0.105
375	0.105
375	0.105
376	0.105
376	0.105
377	0.105
377	0.106
378	0.106
378	0.106
378	0.107
379	0.107
379	0.107
380	0.107
380	0.107
381	0.107
381	0.106
382	0.106
382	0.105
383	0.105
383	0.104
383	0.104
384	0.103
384	0.103
385	0.102
385	0.102
386	0.102
386	0.102
387	0.102
387	0.102
388	0.101
388	0.101
389	0.101
389	0.101
389	0.101
390	0.101
390	0.101
391	0.101
391	0.102
392	0.102
392	0.101
393	0.102
393	0.101
394	0.101
394	0.101
394	0.101
395	0.1
395	0.1
396	0.1
396	0.1
397	0.1
397	0.1
398	0.1
398	0.1
399	0.1
399	0.1
400	0.1
400	0.1
400	0.099
401	0.098
401	0.097
402	0.096
402	0.095
403	0.095
403	0.094
404	0.094
404	0.094
405	0.093
405	0.093
405	0.092
406	0.092
406	0.092
407	0.092
407	0.091
408	0.09
408	0.09
409	0.089
409	0.088
410	0.088
410	0.088
411	0.088
411	0.088
411	0.088
412	0.088
412	0.087
413	0.087
413	0.087
414	0.086
414	0.086
415	0.086
415	0.085
416	0.085
416	0.084
416	0.084
417	0.083
417	0.083
418	0.083
418	0.083
419	0.084
419	0.084
420	0.085
420	0.086
421	0.086
421	0.087
421	0.087
422	0.087
422	0.087
423	0.087
423	0.087
424	0.086
424	0.085
425	0.084
425	0.083
426	0.083
426	0.082
427	0.082
427	0.082
427	0.082
428	0.083
428	0.084
429	0.085
429	0.085
430	0.085
430	0.085
431	0.085
431	0.084
432	0.083
432	0.083
432	0.081
433	0.08
433	0.078
434	0.077
434	0.077
435	0.077
435	0.077
436	0.077
436	0.077
437	0.077
437	0.077
437	0.077
438	0.077
438	0.077
439	0.077
439	0.077
440	0.076
440	0.076
441	0.076
441	0.076
442	0.076
442	0.077
442	0.077
443	0.077
443	0.078
444	0.078
444	0.078
445	0.078
445	0.078
446	0.078
446	0.077
447	0.077
447	0.076
447	0.076
448	0.076
448	0.076
449	0.076
449	0.075
450	0.075
450	0.075
451	0.074
451	0.074
452	0.073
452	0.072
452	0.071
453	0.071
453	0.07
454	0.069
454	0.068
455	0.067
455	0.067
456	0.067
456	0.066
457	0.066
457	0.066
458	0.066
458	0.066
458	0.066
459	0.066
459	0.066
460	0.065
460	0.064
461	0.063
461	0.063
462	0.062
462	0.063
463	0.063
463	0.063
463	0.064
464	0.064
464	0.065
465	0.065
465	0.065
466	0.065
466	0.065
467	0.065
467	0.064
467	0.063
468	0.061
468	0.059
469	0.057
469	0.055
470	0.054
470	0.054
471	0.053
471	0.053
472	0.052
472	0.052
472	0.053
473	0.054
473	0.055
474	0.056
474	0.057
475	0.058
475	0.058
476	0.058
476	0.059
477	0.059
477	0.059
477	0.059
478	0.059
478	0.059
479	0.059
479	0.06
480	0.061
480	0.061
481	0.062
481	0.062
482	0.063
482	0.064
482	0.066
483	0.068
483	0.071
484	0.074
484	0.077
485	0.079
485	0.08
486	0.082
486	0.082
487	0.082
487	0.082
487	0.082
488	0.081
488	0.079
489	0.076
489	0.074
490	0.072
490	0.071
491	0.07
491	0.069
492	0.07
492	0.07
492	0.07
493	0.07
493	0.071
494	0.072
494	0.074
495	0.076
495	0.078
496	0.078
496	0.079
496	0.08
497	0.081
497	0.081
498	0.082
498	0.082
499	0.082
499	0.082
500	0.082
500	0.083
501	0.084
501	0.085
501	0.087
502	0.088
502	0.089
503	0.09
503	0.092
504	0.092
504	0.092
505	0.092
505	0.092
506	0.092
506	0.092
506	0.092
507	0.091
507	0.091
508	0.091
508	0.091
509	0.091
509	0.091
510	0.091
510	0.091
511	0.091
511	0.091
511	0.091
512	0.091
512	0.091
513	0.09
513	0.089
514	0.087
514	0.086
515	0.085
515	0.084
515	0.083
516	0.083
516	0.083
517	0.082
517	0.082
518	0.082
518	0.081
519	0.079
519	0.077
520	0.073
520	0.07
520	0.067
521	0.064
521	0.061
522	0.058
522	0.056
523	0.056
523	0.056
524	0.058
524	0.061
524	0.064
525	0.068
525	0.071
526	0.075
526	0.078
527	0.081
527	0.084
528	0.085
528	0.087
529	0.088
529	0.088
529	0.088
530	0.088
530	0.088
531	0.088
531	0.089
532	0.089
532	0.088
533	0.089
533	0.089
533	0.089
534	0.089
534	0.089
535	0.088
535	0.088
536	0.088
536	0.087
537	0.087
537	0.086
538	0.085
538	0.084
538	0.083
539	0.082
539	0.081
540	0.08
540	0.079
541	0.078
541	0.076
542	0.074
542	0.073
542	0.072
543	0.072
543	0.071
544	0.07
544	0.069
545	0.068
545	0.068
546	0.068
546	0.068
547	0.068
547	0.066
547	0.064
548	0.062
548	0.059
549	0.057
549	0.056
550	0.054
550	0.053
551	0.051
551	0.049
551	0.047
552	0.046
552	0.046
553	0.046
553	0.046
554	0.046
554	0.045
555	0.043
555	0.041
556	0.038
556	0.036
556	0.033
557	0.03
557	0.028
558	0.026
558	0.025
559	0.023
559	0.023
560	0.023
560	0.023
560	0.023
561	0.024
561	0.025
562	0.025
562	0.025
563	0.023
563	0.022
564	0.019
564	0.017
564	0.015
565	0.013
565	0.013
566	0.012
566	0.012
567	0.012
567	0.014
568	0.016
568	0.018
568	0.021
569	0.024
569	0.026
570	0.028
570	0.029
571	0.03
571	0.032
572	0.032
572	0.033
573	0.034
573	0.034
573	0.034
574	0.033
574	0.033
575	0.033
575	0.035
576	0.036
576	0.036
577	0.035
577	0.034
577	0.034
578	0.033
578	0.032
579	0.033
579	0.034
580	0.034
580	0.032
581	0.029
581	0.027
581	0.026
582	0.026
582	0.026
583	0.027
583	0.027
584	0.025
584	0.021
585	0.019
585	0.018
585	0.018
586	0.018
586	0.018
587	0.017
587	0.014
588	0.011
588	0.008
589	0.007
589	0.005
590	0.004
590	0.003
590	0.004
591	0.005
591	0.005
592	0.005
592	0.004
593	0.004
593	0.004
594	0.003
594	0.003
594	0.002
595	0.002
595	0
596	-0.002
596	-0.002
597	0
597	0.002
598	0.003
598	0.005
598	0.005
599	0.006
599	0.005
600	0.004
600	0.003
601	0.002
601	0.001
602	-0.001
602	-0.003
602	-0.005
603	-0.006
603	-0.006
604	-0.005
604	-0.003
605	-0.001
605	0.001
606	0.002
606	0.002
606	0.002
607	0.001
607	0.001
608	0.001
608	-0.001
609	-0.003
609	-0.004
610	-0.006
610	-0.008
610	-0.01
611	-0.01
611	-0.01
612	-0.009
612	-0.008
613	-0.006
613	-0.005
614	-0.005
614	-0.006
614	-0.005
615	-0.005
615	-0.006
616	-0.006
616	-0.006
617	-0.007
617	-0.008
618	-0.01
618	-0.011
618	-0.012
619	-0.012
619	-0.012
620	-0.011
620	-0.01
621	-0.01
621	-0.01
622	-0.01
622	-0.009
622	-0.009
623	-0.01
623	-0.009
624	-0.008
624	-0.008
625	-0.009
625	-0.009
626	-0.009
626	-0.009
626	-0.009
627	-0.008
627	-0.008
628	-0.007
628	-0.007
629	-0.007
629	-0.007
630	-0.007
630	-0.008
630	-0.008
631	-0.008
631	-0.009
632	-0.01
632	-0.01
633	-0.011
633	-0.01
634	-0.009
634	-0.007
634	-0.005
635	-0.003
635	-0.002
636	-0.001
636	0
637	0.002
637	0.002
638	0.003
638	0.004
638	0.005
639	0.005
639	0.005
640	0.005
640	0.006
641	0.007
641	0.008
642	0.009
642	0.011
642	0.012
643	0.014
643	0.015
644	0.017
644	0.019
645	0.02
645	0.022
646	0.025
646	0.028
646	0.031
647	0.035
647	0.038
648	0.041
648	0.044
649	0.047
649	0.049
650	0.052
650	0.055
650	0.057
651	0.059
651	0.061
652	0.063
652	0.064
653	0.067
653	0.074
653	0.098
654	0.084
654	0.073
655	0.076
655	0.078
656	0.079
656	0.081
657	0.082
657	0.084
657	0.085
658	0.082
658	0.067
659	0.08
659	0.099
660	0.099
660	0.1
661	0.101
661	0.102
661	0.104
662	0.106
662	0.109
663	0.111
663	0.114
664	0.116
664	0.117
665	0.119
665	0.121
665	0.123
666	0.126
666	0.128
667	0.129
667	0.131
668	0.133
668	0.135
669	0.137
669	0.139
669	0.142
670	0.146
670	0.149
671	0.151
671	0.153
672	0.154
672	0.156
672	0.157
673	0.158
673	0.16
674	0.161
674	0.161
675	0.161
675	0.161
676	0.163
676	0.165
676	0.166
677	0.168
677	0.171
678	0.173
678	0.175
679	0.176
679	0.177
680	0.179
680	0.18
680	0.18
681	0.181
681	0.181
682	0.182
682	0.183
683	0.185
683	0.187
684	0.19
684	0.191
684	0.192
685	0.193
685	0.194
686	0.195
686	0.195
687	0.195
687	0.194
687	0.193
688	0.192
688	0.191
689	0.19
689	0.191
690	0.191
690	0.191
691	0.191
691	0.191
691	0.191
692	0.19
692	0.189
693	0.189
693	0.189
694	0.188
694	0.186
695	0.185
695	0.187
695	0.187
696	0.187
696	0.186
697	0.186
697	0.185
698	0.184
698	0.183
698	0.181
699	0.181
699	0.179
700	0.176
700	0.174
701	0.172
701	0.171
702	0.17
702	0.169
702	0.168
703	0.167
703	0.165
704	0.164
704	0.164
705	0.164
705	0.164
705	0.163
706	0.163
706	0.162
707	0.161
707	0.16
708	0.158
708	0.157
709	0.155
709	0.153
709	0.15
710	0.147
710	0.144
711	0.142
711	0.14
712	0.138
712	0.136
713	0.134
713	0.132
713	0.13
714	0.127
714	0.125
715	0.123
715	0.122
716	0.119
716	0.118
716	0.116
717	0.114
717	0.113
718	0.111
718	0.108
719	0.107
719	0.106
720	0.104
720	0.102
720	0.099
721	0.096
721	0.093
722	0.091
722	0.088
723	0.086
723	0.084
723	0.083
724	0.081
724	0.079
725	0.076
725	0.074
726	0.073
726	0.071
727	0.069
727	0.067
727	0.066
728	0.064
728	0.062
729	0.062
729	0.061
730	0.059
730	0.058
730	0.056
731	0.054
731	0.053
732	0.051
732	0.05
733	0.048
733	0.046
734	0.043
734	0.041
734	0.039
735	0.037
735	0.035
736	0.032
736	0.029
737	0.027
737	0.025
737	0.024
738	0.021
738	0.018
739	0.015
739	0.013
740	0.011
740	0.01
741	0.009
741	0.007
741	0.004
742	-0
742	-0.004
743	-0.008
743	-0.01
744	-0.013
744	-0.015
744	-0.017
745	-0.02
745	-0.022
746	-0.024
746	-0.025
747	-0.025
747	-0.024
748	-0.023
748	-0.022
748	-0.021
749	-0.022
749	-0.022
750	-0.022
750	-0.023
751	-0.023
751	-0.024
751	-0.025
752	-0.026
752	-0.028
753	-0.03
753	-0.032
754	-0.033
754	-0.033
754	-0.033
755	-0.032
755	-0.031
756	-0.03
756	-0.031
757	-0.033
757	-0.033
758	-0.033
758	-0.034
758	-0.035
759	-0.036
759	-0.038
760	-0.041
760	-0.045
761	-0.048
761	-0.049
761	-0.051
762	-0.054
762	-0.055
763	-0.056
763	-0.059
764	-0.062
764	-0.065
764	-0.067
765	-0.07
765	-0.072
766	-0.074
766	-0.074
767	-0.075
767	-0.078
768	-0.081
768	-0.084
768	-0.085
769	-0.086
769	-0.087
770	-0.089
770	-0.09
771	-0.093
771	-0.096
771	-0.099
772	-0.101
772	-0.103
773	-0.105
773	-0.108
774	-0.111
774	-0.114
775	-0.117
775	-0.12
775	-0.124
776	-0.128
776	-0.131
777	-0.135
777	-0.138
778	-0.143
778	-0.147
778	-0.152
779	-0.153
779	-0.15
780	-0.15
780	-0.151
781	-0.15
781	-0.15
781	-0.15
782	-0.15
782	-0.151
783	-0.15
783	-0.148
784	-0.148
784	-0.151
784	-0.152
785	-0.154
785	-0.155
786	-0.156
786	-0.153
787	-0.149
787	-0.145
788	-0.144
788	-0.145
788	-0.146
789	-0.149
789	-0.149
790	-0.146
790	-0.145
791	-0.146
791	-0.148
791	-0.15
792	-0.145
792	-0.135
793	-0.128
793	-0.124
794	-0.122
794	-0.124
794	-0.128
795	-0.13
795	-0.129
796	-0.13
796	-0.132
797	-0.14
797	-0.151
797	-0.158
798	-0.163
798	-0.166
799	-0.167
799	-0.166
800	-0.166
800	-0.167
801	-0.17
801	-0.171
801	-0.171
802	-0.171
802	-0.172
803	-0.173
803	-0.173
804	-0.172
804	-0.167
804	-0.16
805	-0.156
805	-0.154
806	-0.152
806	-0.151
807	-0.15
807	-0.149
807	-0.149
808	-0.148
808	-0.149
809	-0.154
809	-0.159
810	-0.163
810	-0.166
810	-0.169
811	-0.172
811	-0.173
812	-0.17
812	-0.167
813	-0.167
813	-0.169
813	-0.17
814	-0.171
814	-0.172
815	-0.17
815	-0.167
816	-0.166
816	-0.166
817	-0.17
817	-0.174
817	-0.174
818	-0.173
818	-0.169
819	-0.163
819	-0.16
820	-0.161
820	-0.163
820	-0.165
821	-0.165
821	-0.164
822	-0.163
822	-0.163
823	-0.162
823	-0.164
823	-0.168
824	-0.169
824	-0.167
825	-0.163
825	-0.157
826	-0.152
826	-0.148
826	-0.143
827	-0.137
827	-0.131
828	-0.125
828	-0.12
829	-0.114
829	-0.109
829	-0.105
830	-0.102
830	-0.1
831	-0.096
831	-0.093
832	-0.091
832	-0.09
832	-0.088
833	-0.087
833	-0.087
834	-0.086
834	-0.085
835	-0.084
835	-0.083
835	-0.082
836	-0.081
836	-0.08
837	-0.079
837	-0.078
838	-0.077
838	-0.076
839	-0.075
839	-0.075
839	-0.074
840	-0.073
840	-0.072
841	-0.071
841	-0.07
842	-0.068
842	-0.066
842	-0.064
843	-0.062
843	-0.06
844	-0.057
844	-0.055
845	-0.053
845	-0.051
845	-0.049
846	-0.048
846	-0.046
847	-0.046
847	-0.045
848	-0.045
848	-0.044
848	-0.044
849	-0.043
849	-0.043
850	-0.042
850	-0.042
851	-0.042
851	-0.041
851	-0.041
852	-0.04
852	-0.04
853	-0.039
853	-0.039
854	-0.038
854	-0.038
854	-0.038
855	-0.038
855	-0.038
856	-0.038
856	-0.038
857	-0.037
857	-0.037
857	-0.037
858	-0.036
858	-0.036
859	-0.036
859	-0.035
860	-0.034
860	-0.033
860	-0.032
861	-0.031
861	-0.03
862	-0.03
862	-0.029
863	-0.029
863	-0.029
863	-0.028
864	-0.028
864	-0.027
865	-0.026
865	-0.026
866	-0.025
866	-0.025
866	-0.024
867	-0.023
867	-0.022
868	-0.022
868	-0.021
869	-0.021
869	-0.021
869	-0.021
870	-0.021
870	-0.02
871	-0.02
871	-0.02
872	-0.02
872	-0.02
872	-0.019
873	-0.019
873	-0.019
874	-0.019
874	-0.018
875	-0.018
875	-0.018
875	-0.018
876	-0.018
876	-0.018
877	-0.018
877	-0.018
878	-0.018
878	-0.019
878	-0.019
879	-0.02
879	-0.02
880	-0.02
880	-0.021
881	-0.021
881	-0.02
881	-0.019
882	-0.018
882	-0.017
883	-0.016
883	-0.014
884	-0.013
884	-0.012
884	-0.01
885	-0.009
885	-0.008
886	-0.008
886	-0.007
887	-0.007
887	-0.008
887	-0.008
888	-0.009
888	-0.009
889	-0.009
889	-0.009
890	-0.01
890	-0.01
890	-0.011
891	-0.011
891	-0.011
892	-0.012
892	-0.012
893	-0.013
893	-0.013
893	-0.013
894	-0.013
894	-0.013
895	-0.014
895	-0.014
895	-0.015
896	-0.015
896	-0.015
897	-0.015
897	-0.015
898	-0.016
898	-0.016
898	-0.016
899	-0.015
899	-0.015
900	-0.014
900	-0.013
901	-0.012
901	-0.011
901	-0.01
902	-0.009
902	-0.008
903	-0.007
903	-0.006
904	-0.005
904	-0.005
904	-0.004
905	-0.003
905	-0.003
906	-0.002
906	-0.002
907	-0.002
907	-0.003
907	-0.003
908	-0.003
908	-0.003
909	-0.004
909	-0.004
910	-0.005
910	-0.005
910	-0.006
911	-0.006
911	-0.007
912	-0.007
912	-0.007
913	-0.007
913	-0.007
913	-0.008
914	-0.008
914	-0.009
915	-0.009
915	-0.009
916	-0.009
916	-0.01
916	-0.01
917	-0.01
917	-0.009
918	-0.009
918	-0.009
918	-0.008
919	-0.007
919	-0.007
920	-0.005
920	-0.004
921	-0.003
921	-0.002
921	-0.002
922	-0.001
922	-0.001
923	-0.001
923	-0.001
924	-0.001
924	-0.001
924	-0.002
925	-0.003
925	-0.004
926	-0.004
926	-0.005
927	-0.006
927	-0.007
927	-0.008
928	-0.009
928	-0.009
929	-0.009
929	-0.009
930	-0.01
930	-0.009
930	-0.009
931	-0.009
931	-0.008
932	-0.007
932	-0.006
933	-0.005
933	-0.005
933	-0.004
934	-0.004
934	-0.003
935	-0.003
935	-0.003
935	-0.002
936	-0.002
936	-0.002
937	-0.001
937	-0.001
938	-0.001
938	-0.001
938	-0
939	0
939	0.001
940	0.001
940	0.001
941	0.002
941	0.002
941	0.002
942	0.002
942	0.002
943	0.003
943	0.003
944	0.003
944	0.003
944	0.004
945	0.005
945	0.005
946	0.005
946	0.006
946	0.006
947	0.006
947	0.006
948	0.006
948	0.006
949	0.006
949	0.006
949	0.006
950	0.006
950	0.006
951	0.005
951	0.004
952	0.004
952	0.004
952	0.003
953	0.003
953	0.002
954	0.001
954	0.001
955	0
955	-0
955	-0
956	-0
956	-0
957	-0
957	-0
957	-0
958	-0
958	-0
959	-0
959	-0.001
960	-0.001
960	-0.001
960	-0.002
961	-0.002
961	-0.002
962	-0.003
962	-0.003
963	-0.003
963	-0.003
963	-0.004
964	-0.004
964	-0.004
965	-0.004
965	-0.004
966	-0.003
966	-0.003
966	-0.002
967	-0.002
967	-0.002
968	-0.001
968	-0.001
968	-0
969	0
969	0.001
970	0.001
970	0.001
971	0.001
971	0.002
971	0.002
972	0.002
972	0.003
973	0.004
973	0.004
974	0.005
974	0.006
974	0.007
975	0.008
975	0.009
976	0.009
976	0.01
976	0.011
977	0.011
977	0.011
978	0.01
978	0.01
979	0.009
979	0.009
979	0.007
980	0.006
980	0.005
981	0.004
981	0.003
982	0.002
982	0.002
982	0.001
983	0.001
983	0
984	-0
984	-0
984	-0
985	-0
985	-0.001
986	-0.001
986	-0.001
987	-0.001
987	-0.001
987	-0.001
988	-0.001
988	-0
989	-0
989	0
990	0.001
990	0.001
990	0.002
991	0.003
991	0.003
992	0.004
992	0.004
992	0.004
993	0.004
993	0.003
994	0.003
994	0.002
995	0.002
995	0.001
995	0
996	-0
996	-0.001
997	-0.001
997	-0.001
997	-0.001
998	0
998	0.001
999	0.002
999	0.002
1000	0.003
1000	0.004
1000	0.004
1001	0.004
1001	0.004
1002	0.004
1002	0.003
1003	0.002
1003	0.001
1003	-0
1004	-0.001
1004	-0.002
1005	-0.003
1005	-0.003
1005	-0.004
1006	-0.004
1006	-0.005
1007	-0.005
1007	-0.005
1008	-0.005
1008	-0.005
1008	-0.005
1009	-0.004
1009	-0.004
1010	-0.004
1010	-0.004
1010	-0.004
1011	-0.004
1011	-0.004
1012	-0.004
1012	-0.003
1013	-0.003
1013	-0.003
1013	-0.003
1014	-0.003
1014	-0.002
1015	-0.002
1015	-0.001
1016	-0
1016	0
1016	0.001
1017	0.002
1017	0.003
1018	0.005
1018	0.006
1018	0.007
1019	0.008
1019	0.009
1020	0.01
1020	0.01
1021	0.011
1021	0.011
1021	0.011
1022	0.011
1022	0.011
1023	0.011
1023	0.011
1023	0.01
1024	0.01
1024	0.01
1025	0.009
1025	0.009
1026	0.009
1026	0.009
1026	0.009
1027	0.009
1027	0.009
1028	0.009
1028	0.008
1028	0.008
1029	0.007
1029	0.007
1030	0.006
1030	0.006
1031	0.005
1031	0.005
1031	0.005
1032	0.004
1032	0.005
1033	0.004
1033	0.004
1033	0.004
1034	0.004
1034	0.003
1035	0.002
1035	0.002
1036	0.001
1036	0.001
1036	0.001
1037	0.001
1037	0.002
1038	0.002
1038	0.002
1039	0.003
1039	0.004
1039	0.005
1040	0.006
1040	0.007
1041	0.008
1041	0.008
1041	0.008
1042	0.008
1042	0.009
1043	0.009
1043	0.009
1044	0.01
1044	0.011
1044	0.011
1045	0.012
1045	0.013
1046	0.014
1046	0.015
1046	0.017
1047	0.018
1047	0.019
1048	0.021
1048	0.021
1049	0.022
1049	0.022
1049	0.022
1050	0.023
1050	0.023
1051	0.023
1051	0.024
1051	0.025
1052	0.026
1052	0.026
1053	0.027
1053	0.028
1053	0.029
1054	0.03
1054	0.03
1055	0.031
1055	0.031
1056	0.03
1056	0.03
1056	0.029
1057	0.028
1057	0.028
1058	0.028
1058	0.028
1058	0.028
1059	0.028
1059	0.029
1060	0.029
1060	0.03
1061	0.031
1061	0.033
1061	0.033
1062	0.034
1062	0.034
1063	0.035
1063	0.035
1063	0.036
1064	0.037
1064	0.038
1065	0.039
1065	0.04
1066	0.041
1066	0.042
1066	0.044
1067	0.045
1067	0.047
1068	0.049
1068	0.05
1068	0.052
1069	0.053
1069	0.055
1070	0.057
1070	0.059
1071	0.062
1071	0.065
1071	0.068
1072	0.071
1072	0.075
1073	0.078
1073	0.082
1073	0.086
1074	0.09
1074	0.094
1075	0.097
1075	0.1
1076	0.102
1076	0.106
1076	0.109
1077	0.112
1077	0.116
1078	0.119
1078	0.124
1078	0.128
1079	0.132
1079	0.136
1080	0.141
1080	0.145
1080	0.148
1081	0.152
1081	0.155
1082	0.159
1082	0.163
1083	0.166
1083	0.17
1083	0.176
1084	0.181
1084	0.187
1085	0.193
1085	0.2
1085	0.207
1086	0.213
1086	0.218
1087	0.226
1087	0.233
1088	0.24
1088	0.248
1088	0.257
1089	0.264
1089	0.274
1090	0.286
1090	0.299
1090	0.312
1091	0.328
1091	0.345
1092	0.364
1092	0.385
1092	0.404
1093	0.426
1093	0.455
1094	0.485
1094	0.518
1095	0.554
1095	0.6
1095	0.659
1096	0.727
1096	0.811
1097	0.927
1097	1.085
1097	1.383
1098	2.455
1098	-0
1099	-0
1099	-0
1100	-0
1100	-0
1100	-0
1101	-0
1101	-0
1102	-0
1102	-0
1102	-0
1103	-0
1103	-0
1104	-0
1104	-0
1104	-0
1105	-0
1105	-0
1106	-0
1106	-0
1107	-0
1107	-0
1107	-0
1108	-0
1108	-0
1109	-0
1109	-0
1109	-0
1110	-0
1110	-0
1111	-0
1111	-0
