Data from 15c-2-5a_Absorbance__972__02773.txt Node

Date: Fri Jan 19 14:15:41 CET 2024
User: Marek
Spectrometer: MAYP115816
Trigger mode: 0
Integration Time (sec): 2.000000E-1
Scans to average: 10
Electric dark correction enabled: true
Nonlinearity correction enabled: true
Boxcar width: 5
XAxis mode: Wavelengths
Number of Pixels in Spectrum: 2068
>>>>>Begin Spectral Data<<<<<
199	-2.3
199	-2.142
200	-1.995
200	-1.873
201	-1.803
201	-1.747
202	-1.673
202	-1.612
203	-1.558
203	-1.512
204	-1.484
204	-1.458
205	-1.438
205	-1.427
205	-1.424
206	-1.419
206	-1.414
207	-1.409
207	-1.404
208	-1.402
208	-1.399
209	-1.397
209	-1.392
210	-1.389
210	-1.387
211	-1.386
211	-1.384
212	-1.385
212	-1.385
213	-1.384
213	-1.381
213	-1.38
214	-1.376
214	-1.375
215	-1.372
215	-1.371
216	-1.367
216	-1.367
217	-1.362
217	-1.36
218	-1.357
218	-1.354
219	-1.351
219	-1.35
220	-1.349
220	-1.349
221	-1.346
221	-1.341
221	-1.336
222	-1.334
222	-1.329
223	-1.324
223	-1.319
224	-1.312
224	-1.305
225	-1.297
225	-1.285
226	-1.274
226	-1.264
227	-1.251
227	-1.236
228	-1.22
228	-1.204
229	-1.183
229	-1.161
229	-1.134
230	-1.104
230	-1.071
231	-1.035
231	-0.996
232	-0.955
232	-0.91
233	-0.862
233	-0.811
234	-0.761
234	-0.71
235	-0.659
235	-0.607
236	-0.557
236	-0.507
236	-0.458
237	-0.41
237	-0.364
238	-0.32
238	-0.278
239	-0.238
239	-0.2
240	-0.165
240	-0.131
241	-0.1
241	-0.07
242	-0.042
242	-0.016
243	0.007
243	0.03
243	0.05
244	0.069
244	0.087
245	0.103
245	0.118
246	0.133
246	0.145
247	0.157
247	0.168
248	0.179
248	0.189
249	0.198
249	0.206
250	0.214
250	0.222
250	0.229
251	0.236
251	0.242
252	0.248
252	0.254
253	0.259
253	0.264
254	0.269
254	0.273
255	0.277
255	0.281
256	0.284
256	0.287
257	0.29
257	0.293
258	0.295
258	0.297
258	0.299
259	0.301
259	0.302
260	0.304
260	0.305
261	0.306
261	0.307
262	0.308
262	0.309
263	0.31
263	0.311
264	0.312
264	0.312
265	0.313
265	0.313
265	0.313
266	0.314
266	0.314
267	0.313
267	0.313
268	0.313
268	0.312
269	0.312
269	0.311
270	0.311
270	0.31
271	0.309
271	0.309
272	0.308
272	0.307
272	0.307
273	0.306
273	0.305
274	0.304
274	0.303
275	0.302
275	0.301
276	0.3
276	0.299
277	0.298
277	0.296
278	0.294
278	0.292
278	0.29
279	0.288
279	0.287
280	0.286
280	0.285
281	0.284
281	0.283
282	0.283
282	0.283
283	0.283
283	0.283
284	0.283
284	0.284
285	0.283
285	0.282
285	0.281
286	0.28
286	0.279
287	0.278
287	0.278
288	0.277
288	0.276
289	0.275
289	0.274
290	0.274
290	0.273
291	0.272
291	0.271
292	0.271
292	0.27
292	0.269
293	0.269
293	0.268
294	0.267
294	0.267
295	0.266
295	0.265
296	0.265
296	0.264
297	0.264
297	0.263
298	0.262
298	0.262
298	0.261
299	0.261
299	0.26
300	0.259
300	0.258
301	0.258
301	0.257
302	0.256
302	0.256
303	0.255
303	0.254
304	0.253
304	0.253
305	0.252
305	0.251
305	0.251
306	0.25
306	0.249
307	0.249
307	0.248
308	0.247
308	0.247
309	0.246
309	0.245
310	0.244
310	0.243
311	0.243
311	0.242
311	0.241
312	0.24
312	0.239
313	0.239
313	0.238
314	0.237
314	0.236
315	0.235
315	0.234
316	0.233
316	0.232
317	0.231
317	0.23
318	0.23
318	0.229
318	0.228
319	0.227
319	0.226
320	0.225
320	0.224
321	0.223
321	0.222
322	0.221
322	0.22
323	0.219
323	0.218
324	0.217
324	0.216
324	0.215
325	0.214
325	0.213
326	0.213
326	0.212
327	0.211
327	0.21
328	0.209
328	0.209
329	0.208
329	0.207
330	0.206
330	0.205
330	0.204
331	0.203
331	0.202
332	0.202
332	0.201
333	0.2
333	0.199
334	0.198
334	0.197
335	0.196
335	0.195
336	0.194
336	0.194
336	0.193
337	0.192
337	0.191
338	0.19
338	0.189
339	0.188
339	0.188
340	0.187
340	0.186
341	0.185
341	0.185
342	0.184
342	0.184
342	0.183
343	0.182
343	0.181
344	0.181
344	0.18
345	0.179
345	0.178
346	0.178
346	0.177
347	0.176
347	0.175
348	0.174
348	0.173
348	0.172
349	0.171
349	0.17
350	0.169
350	0.169
351	0.167
351	0.166
352	0.165
352	0.164
353	0.163
353	0.162
354	0.161
354	0.159
354	0.158
355	0.157
355	0.155
356	0.154
356	0.154
357	0.153
357	0.152
358	0.152
358	0.152
359	0.153
359	0.154
360	0.155
360	0.155
360	0.156
361	0.157
361	0.157
362	0.158
362	0.158
363	0.158
363	0.157
364	0.157
364	0.156
365	0.155
365	0.154
366	0.154
366	0.153
366	0.153
367	0.153
367	0.152
368	0.152
368	0.151
369	0.15
369	0.15
370	0.149
370	0.149
371	0.148
371	0.148
372	0.147
372	0.146
372	0.146
373	0.145
373	0.145
374	0.145
374	0.145
375	0.145
375	0.145
376	0.145
376	0.145
377	0.146
377	0.146
378	0.147
378	0.147
378	0.147
379	0.147
379	0.147
380	0.147
380	0.147
381	0.147
381	0.147
382	0.146
382	0.146
383	0.145
383	0.145
383	0.144
384	0.144
384	0.143
385	0.143
385	0.143
386	0.142
386	0.143
387	0.142
387	0.142
388	0.142
388	0.142
389	0.142
389	0.141
389	0.141
390	0.142
390	0.142
391	0.142
391	0.142
392	0.142
392	0.142
393	0.142
393	0.142
394	0.142
394	0.141
394	0.141
395	0.14
395	0.14
396	0.139
396	0.139
397	0.139
397	0.14
398	0.14
398	0.14
399	0.14
399	0.14
400	0.139
400	0.139
400	0.138
401	0.138
401	0.136
402	0.135
402	0.134
403	0.134
403	0.133
404	0.133
404	0.133
405	0.132
405	0.132
405	0.131
406	0.131
406	0.131
407	0.13
407	0.13
408	0.129
408	0.128
409	0.128
409	0.127
410	0.127
410	0.126
411	0.126
411	0.126
411	0.126
412	0.126
412	0.125
413	0.125
413	0.124
414	0.124
414	0.124
415	0.123
415	0.123
416	0.122
416	0.121
416	0.121
417	0.121
417	0.12
418	0.12
418	0.121
419	0.121
419	0.122
420	0.122
420	0.123
421	0.124
421	0.124
421	0.125
422	0.125
422	0.125
423	0.125
423	0.125
424	0.124
424	0.123
425	0.122
425	0.121
426	0.12
426	0.119
427	0.119
427	0.119
427	0.119
428	0.12
428	0.121
429	0.122
429	0.123
430	0.123
430	0.123
431	0.122
431	0.122
432	0.121
432	0.12
432	0.119
433	0.117
433	0.116
434	0.114
434	0.114
435	0.114
435	0.114
436	0.114
436	0.114
437	0.114
437	0.114
437	0.115
438	0.114
438	0.114
439	0.114
439	0.113
440	0.113
440	0.113
441	0.113
441	0.113
442	0.113
442	0.113
442	0.114
443	0.114
443	0.114
444	0.115
444	0.115
445	0.115
445	0.115
446	0.115
446	0.114
447	0.114
447	0.113
447	0.113
448	0.113
448	0.113
449	0.113
449	0.112
450	0.112
450	0.111
451	0.111
451	0.11
452	0.11
452	0.109
452	0.108
453	0.107
453	0.106
454	0.105
454	0.105
455	0.104
455	0.104
456	0.103
456	0.103
457	0.103
457	0.103
458	0.102
458	0.102
458	0.102
459	0.103
459	0.103
460	0.102
460	0.101
461	0.1
461	0.1
462	0.099
462	0.099
463	0.1
463	0.101
463	0.101
464	0.102
464	0.102
465	0.102
465	0.102
466	0.102
466	0.102
467	0.102
467	0.101
467	0.1
468	0.098
468	0.095
469	0.093
469	0.091
470	0.09
470	0.09
471	0.089
471	0.088
472	0.088
472	0.088
472	0.089
473	0.09
473	0.091
474	0.092
474	0.094
475	0.094
475	0.095
476	0.095
476	0.096
477	0.096
477	0.096
477	0.096
478	0.096
478	0.096
479	0.097
479	0.097
480	0.098
480	0.099
481	0.1
481	0.1
482	0.101
482	0.103
482	0.104
483	0.107
483	0.11
484	0.114
484	0.117
485	0.119
485	0.121
486	0.122
486	0.123
487	0.123
487	0.123
487	0.123
488	0.121
488	0.119
489	0.116
489	0.113
490	0.111
490	0.11
491	0.109
491	0.108
492	0.109
492	0.109
492	0.109
493	0.11
493	0.111
494	0.112
494	0.115
495	0.117
495	0.118
496	0.119
496	0.12
496	0.121
497	0.122
497	0.123
498	0.123
498	0.123
499	0.123
499	0.123
500	0.123
500	0.124
501	0.126
501	0.128
501	0.129
502	0.131
502	0.132
503	0.134
503	0.135
504	0.136
504	0.136
505	0.136
505	0.136
506	0.136
506	0.136
506	0.135
507	0.134
507	0.134
508	0.134
508	0.134
509	0.135
509	0.135
510	0.135
510	0.135
511	0.135
511	0.135
511	0.135
512	0.136
512	0.136
513	0.134
513	0.132
514	0.13
514	0.128
515	0.127
515	0.127
515	0.126
516	0.126
516	0.125
517	0.125
517	0.124
518	0.124
518	0.123
519	0.121
519	0.119
520	0.115
520	0.111
520	0.107
521	0.103
521	0.1
522	0.097
522	0.096
523	0.096
523	0.097
524	0.1
524	0.103
524	0.107
525	0.112
525	0.116
526	0.12
526	0.123
527	0.126
527	0.129
528	0.13
528	0.132
529	0.133
529	0.133
529	0.133
530	0.133
530	0.133
531	0.133
531	0.133
532	0.132
532	0.132
533	0.132
533	0.133
533	0.133
534	0.133
534	0.132
535	0.131
535	0.132
536	0.131
536	0.131
537	0.131
537	0.13
538	0.129
538	0.128
538	0.126
539	0.125
539	0.125
540	0.124
540	0.122
541	0.121
541	0.119
542	0.117
542	0.115
542	0.114
543	0.113
543	0.112
544	0.111
544	0.11
545	0.109
545	0.109
546	0.109
546	0.109
547	0.108
547	0.106
547	0.103
548	0.101
548	0.099
549	0.096
549	0.094
550	0.093
550	0.091
551	0.089
551	0.086
551	0.084
552	0.083
552	0.082
553	0.082
553	0.082
554	0.082
554	0.081
555	0.079
555	0.076
556	0.073
556	0.07
556	0.067
557	0.064
557	0.062
558	0.059
558	0.058
559	0.056
559	0.055
560	0.055
560	0.055
560	0.055
561	0.055
561	0.056
562	0.056
562	0.055
563	0.054
563	0.052
564	0.05
564	0.047
564	0.045
565	0.043
565	0.042
566	0.041
566	0.041
567	0.041
567	0.043
568	0.045
568	0.047
568	0.049
569	0.052
569	0.055
570	0.057
570	0.058
571	0.059
571	0.061
572	0.062
572	0.062
573	0.063
573	0.063
573	0.062
574	0.062
574	0.061
575	0.061
575	0.063
576	0.064
576	0.064
577	0.063
577	0.061
577	0.061
578	0.059
578	0.059
579	0.06
579	0.062
580	0.062
580	0.06
581	0.056
581	0.053
581	0.052
582	0.051
582	0.051
583	0.052
583	0.052
584	0.05
584	0.046
585	0.044
585	0.043
585	0.043
586	0.043
586	0.043
587	0.041
587	0.039
588	0.035
588	0.032
589	0.03
589	0.028
590	0.027
590	0.025
590	0.026
591	0.026
591	0.027
592	0.027
592	0.026
593	0.025
593	0.025
594	0.025
594	0.024
594	0.024
595	0.023
595	0.022
596	0.02
596	0.019
597	0.021
597	0.023
598	0.025
598	0.026
598	0.027
599	0.027
599	0.027
600	0.026
600	0.025
601	0.024
601	0.022
602	0.02
602	0.019
602	0.017
603	0.015
603	0.015
604	0.016
604	0.018
605	0.02
605	0.022
606	0.024
606	0.023
606	0.022
607	0.022
607	0.022
608	0.021
608	0.019
609	0.017
609	0.016
610	0.014
610	0.012
610	0.01
611	0.01
611	0.011
612	0.012
612	0.013
613	0.015
613	0.016
614	0.016
614	0.016
614	0.016
615	0.015
615	0.015
616	0.014
616	0.014
617	0.013
617	0.012
618	0.01
618	0.008
618	0.007
619	0.007
619	0.007
620	0.008
620	0.009
621	0.01
621	0.01
622	0.01
622	0.011
622	0.011
623	0.011
623	0.012
624	0.013
624	0.013
625	0.012
625	0.012
626	0.012
626	0.012
626	0.012
627	0.013
627	0.013
628	0.014
628	0.015
629	0.015
629	0.015
630	0.014
630	0.013
630	0.013
631	0.013
631	0.013
632	0.012
632	0.012
633	0.011
633	0.012
634	0.013
634	0.015
634	0.017
635	0.019
635	0.02
636	0.022
636	0.023
637	0.024
637	0.025
638	0.026
638	0.028
638	0.028
639	0.028
639	0.028
640	0.029
640	0.03
641	0.031
641	0.033
642	0.034
642	0.036
642	0.038
643	0.04
643	0.041
644	0.043
644	0.045
645	0.048
645	0.05
646	0.052
646	0.056
646	0.06
647	0.064
647	0.067
648	0.071
648	0.074
649	0.077
649	0.08
650	0.083
650	0.087
650	0.09
651	0.092
651	0.094
652	0.096
652	0.098
653	0.101
653	0.11
653	0.135
654	0.113
654	0.097
655	0.101
655	0.103
656	0.105
656	0.106
657	0.108
657	0.11
657	0.111
658	0.108
658	0.091
659	0.111
659	0.138
660	0.138
660	0.14
661	0.141
661	0.143
661	0.145
662	0.147
662	0.15
663	0.153
663	0.156
664	0.159
664	0.161
665	0.164
665	0.166
665	0.168
666	0.171
666	0.173
667	0.175
667	0.177
668	0.179
668	0.181
669	0.183
669	0.186
669	0.19
670	0.194
670	0.198
671	0.2
671	0.202
672	0.204
672	0.206
672	0.207
673	0.209
673	0.21
674	0.211
674	0.211
675	0.211
675	0.211
676	0.212
676	0.214
676	0.216
677	0.218
677	0.22
678	0.222
678	0.224
679	0.226
679	0.227
680	0.229
680	0.231
680	0.232
681	0.232
681	0.233
682	0.234
682	0.236
683	0.238
683	0.24
684	0.243
684	0.245
684	0.245
685	0.246
685	0.247
686	0.248
686	0.248
687	0.248
687	0.247
687	0.246
688	0.245
688	0.243
689	0.242
689	0.243
690	0.244
690	0.244
691	0.243
691	0.243
691	0.244
692	0.243
692	0.242
693	0.242
693	0.242
694	0.241
694	0.239
695	0.238
695	0.24
695	0.241
696	0.24
696	0.239
697	0.239
697	0.238
698	0.237
698	0.235
698	0.234
699	0.233
699	0.231
700	0.228
700	0.226
701	0.224
701	0.223
702	0.222
702	0.221
702	0.219
703	0.218
703	0.216
704	0.215
704	0.214
705	0.214
705	0.214
705	0.213
706	0.212
706	0.211
707	0.21
707	0.208
708	0.206
708	0.204
709	0.202
709	0.2
709	0.196
710	0.192
710	0.189
711	0.186
711	0.184
712	0.182
712	0.18
713	0.178
713	0.176
713	0.174
714	0.172
714	0.169
715	0.167
715	0.165
716	0.162
716	0.16
716	0.158
717	0.156
717	0.154
718	0.151
718	0.148
719	0.146
719	0.144
720	0.142
720	0.14
720	0.137
721	0.134
721	0.131
722	0.128
722	0.125
723	0.122
723	0.121
723	0.119
724	0.116
724	0.114
725	0.111
725	0.109
726	0.108
726	0.106
727	0.104
727	0.102
727	0.1
728	0.098
728	0.096
729	0.095
729	0.094
730	0.093
730	0.091
730	0.089
731	0.087
731	0.085
732	0.083
732	0.081
733	0.079
733	0.077
734	0.074
734	0.071
734	0.068
735	0.066
735	0.064
736	0.061
736	0.058
737	0.055
737	0.054
737	0.052
738	0.049
738	0.046
739	0.043
739	0.04
740	0.038
740	0.036
741	0.035
741	0.033
741	0.029
742	0.025
742	0.02
743	0.016
743	0.013
744	0.01
744	0.008
744	0.005
745	0.002
745	-0.001
746	-0.003
746	-0.005
747	-0.005
747	-0.005
748	-0.004
748	-0.003
748	-0.003
749	-0.004
749	-0.004
750	-0.004
750	-0.005
751	-0.006
751	-0.006
751	-0.006
752	-0.007
752	-0.009
753	-0.011
753	-0.012
754	-0.012
754	-0.013
754	-0.012
755	-0.012
755	-0.01
756	-0.01
756	-0.012
757	-0.013
757	-0.013
758	-0.014
758	-0.015
758	-0.016
759	-0.017
759	-0.02
760	-0.023
760	-0.027
761	-0.029
761	-0.031
761	-0.032
762	-0.035
762	-0.037
763	-0.038
763	-0.04
764	-0.044
764	-0.047
764	-0.05
765	-0.053
765	-0.056
766	-0.058
766	-0.059
767	-0.06
767	-0.063
768	-0.067
768	-0.07
768	-0.072
769	-0.073
769	-0.074
770	-0.076
770	-0.077
771	-0.08
771	-0.083
771	-0.087
772	-0.089
772	-0.091
773	-0.093
773	-0.096
774	-0.1
774	-0.103
775	-0.107
775	-0.11
775	-0.114
776	-0.118
776	-0.122
777	-0.125
777	-0.129
778	-0.133
778	-0.138
778	-0.143
779	-0.145
779	-0.143
780	-0.143
780	-0.145
781	-0.145
781	-0.146
781	-0.147
782	-0.147
782	-0.149
783	-0.149
783	-0.147
784	-0.148
784	-0.15
784	-0.152
785	-0.153
785	-0.155
786	-0.155
786	-0.153
787	-0.149
787	-0.145
788	-0.143
788	-0.144
788	-0.146
789	-0.148
789	-0.148
790	-0.146
790	-0.144
791	-0.145
791	-0.147
791	-0.15
792	-0.145
792	-0.134
793	-0.128
793	-0.124
794	-0.122
794	-0.124
794	-0.127
795	-0.129
795	-0.129
796	-0.129
796	-0.132
797	-0.14
797	-0.151
797	-0.157
798	-0.163
798	-0.166
799	-0.166
799	-0.166
800	-0.166
800	-0.167
801	-0.17
801	-0.17
801	-0.17
802	-0.171
802	-0.172
803	-0.172
803	-0.172
804	-0.171
804	-0.166
804	-0.16
805	-0.156
805	-0.154
806	-0.151
806	-0.15
807	-0.149
807	-0.149
807	-0.148
808	-0.148
808	-0.149
809	-0.153
809	-0.159
810	-0.162
810	-0.165
810	-0.169
811	-0.172
811	-0.173
812	-0.169
812	-0.167
813	-0.167
813	-0.168
813	-0.17
814	-0.171
814	-0.171
815	-0.169
815	-0.167
816	-0.165
816	-0.166
817	-0.17
817	-0.173
817	-0.173
818	-0.172
818	-0.169
819	-0.163
819	-0.16
820	-0.161
820	-0.163
820	-0.164
821	-0.164
821	-0.163
822	-0.163
822	-0.162
823	-0.162
823	-0.164
823	-0.168
824	-0.169
824	-0.166
825	-0.162
825	-0.156
826	-0.15
826	-0.146
826	-0.14
827	-0.133
827	-0.127
828	-0.12
828	-0.114
829	-0.107
829	-0.101
829	-0.097
830	-0.094
830	-0.09
831	-0.086
831	-0.083
832	-0.081
832	-0.079
832	-0.077
833	-0.076
833	-0.076
834	-0.075
834	-0.074
835	-0.073
835	-0.072
835	-0.072
836	-0.071
836	-0.07
837	-0.069
837	-0.068
838	-0.067
838	-0.066
839	-0.065
839	-0.065
839	-0.064
840	-0.063
840	-0.062
841	-0.061
841	-0.06
842	-0.059
842	-0.057
842	-0.055
843	-0.053
843	-0.051
844	-0.048
844	-0.046
845	-0.044
845	-0.042
845	-0.04
846	-0.038
846	-0.037
847	-0.036
847	-0.035
848	-0.035
848	-0.035
848	-0.035
849	-0.034
849	-0.034
850	-0.033
850	-0.033
851	-0.033
851	-0.032
851	-0.031
852	-0.031
852	-0.03
853	-0.029
853	-0.028
854	-0.027
854	-0.026
854	-0.025
855	-0.025
855	-0.025
856	-0.025
856	-0.024
857	-0.024
857	-0.024
857	-0.024
858	-0.024
858	-0.024
859	-0.024
859	-0.023
860	-0.023
860	-0.022
860	-0.02
861	-0.019
861	-0.018
862	-0.017
862	-0.017
863	-0.016
863	-0.015
863	-0.014
864	-0.014
864	-0.013
865	-0.012
865	-0.011
866	-0.011
866	-0.01
866	-0.009
867	-0.008
867	-0.007
868	-0.007
868	-0.007
869	-0.006
869	-0.006
869	-0.007
870	-0.007
870	-0.007
871	-0.007
871	-0.008
872	-0.008
872	-0.009
872	-0.009
873	-0.009
873	-0.009
874	-0.009
874	-0.009
875	-0.009
875	-0.009
875	-0.01
876	-0.009
876	-0.009
877	-0.009
877	-0.009
878	-0.009
878	-0.01
878	-0.01
879	-0.01
879	-0.011
880	-0.011
880	-0.011
881	-0.012
881	-0.011
881	-0.011
882	-0.01
882	-0.008
883	-0.007
883	-0.006
884	-0.004
884	-0.002
884	-0.001
885	0.001
885	0.002
886	0.004
886	0.005
887	0.005
887	0.005
887	0.005
888	0.004
888	0.004
889	0.003
889	0.003
890	0.002
890	0.002
890	0.001
891	-0
891	-0.001
892	-0.001
892	-0.002
893	-0.002
893	-0.002
893	-0.002
894	-0.002
894	-0.003
895	-0.003
895	-0.003
895	-0.004
896	-0.004
896	-0.004
897	-0.004
897	-0.004
898	-0.005
898	-0.004
898	-0.004
899	-0.004
899	-0.003
900	-0.003
900	-0.002
901	-0.002
901	-0.001
901	0
902	0.001
902	0.002
903	0.003
903	0.004
904	0.004
904	0.005
904	0.006
905	0.006
905	0.007
906	0.007
906	0.007
907	0.007
907	0.006
907	0.006
908	0.005
908	0.005
909	0.004
909	0.004
910	0.003
910	0.003
910	0.002
911	0.001
911	0.001
912	0
912	0
913	-0
913	-0.001
913	-0.001
914	-0.001
914	-0.002
915	-0.002
915	-0.002
916	-0.002
916	-0.002
916	-0.002
917	-0.002
917	-0.002
918	-0.001
918	-0.001
918	0
919	0.001
919	0.002
920	0.004
920	0.005
921	0.006
921	0.007
921	0.008
922	0.009
922	0.009
923	0.009
923	0.009
924	0.009
924	0.009
924	0.008
925	0.007
925	0.006
926	0.005
926	0.004
927	0.003
927	0.003
927	0.002
928	0.002
928	0.002
929	0.001
929	0.001
930	0.001
930	0.001
930	0.001
931	0.002
931	0.002
932	0.002
932	0.002
933	0.003
933	0.003
933	0.003
934	0.004
934	0.004
935	0.005
935	0.005
935	0.006
936	0.006
936	0.007
937	0.008
937	0.008
938	0.009
938	0.01
938	0.011
939	0.011
939	0.012
940	0.013
940	0.013
941	0.013
941	0.013
941	0.013
942	0.012
942	0.012
943	0.012
943	0.012
944	0.012
944	0.013
944	0.013
945	0.014
945	0.014
946	0.015
946	0.015
946	0.015
947	0.015
947	0.015
948	0.015
948	0.015
949	0.015
949	0.016
949	0.016
950	0.016
950	0.017
951	0.017
951	0.016
952	0.016
952	0.017
952	0.017
953	0.017
953	0.017
954	0.016
954	0.016
955	0.015
955	0.014
955	0.014
956	0.014
956	0.014
957	0.013
957	0.013
957	0.012
958	0.012
958	0.011
959	0.011
959	0.011
960	0.01
960	0.01
960	0.009
961	0.009
961	0.008
962	0.008
962	0.008
963	0.008
963	0.007
963	0.007
964	0.007
964	0.007
965	0.008
965	0.008
966	0.008
966	0.009
966	0.009
967	0.01
967	0.011
968	0.011
968	0.012
968	0.013
969	0.013
969	0.014
970	0.014
970	0.015
971	0.015
971	0.015
971	0.015
972	0.016
972	0.016
973	0.017
973	0.017
974	0.017
974	0.018
974	0.018
975	0.019
975	0.02
976	0.021
976	0.021
976	0.022
977	0.022
977	0.022
978	0.022
978	0.021
979	0.021
979	0.021
979	0.02
980	0.019
980	0.018
981	0.017
981	0.016
982	0.015
982	0.014
982	0.014
983	0.013
983	0.012
984	0.012
984	0.012
984	0.011
985	0.011
985	0.011
986	0.01
986	0.01
987	0.01
987	0.01
987	0.01
988	0.011
988	0.011
989	0.011
989	0.011
990	0.011
990	0.012
990	0.013
991	0.013
991	0.014
992	0.014
992	0.014
992	0.013
993	0.013
993	0.013
994	0.012
994	0.011
995	0.011
995	0.01
995	0.01
996	0.01
996	0.009
997	0.009
997	0.01
997	0.011
998	0.011
998	0.013
999	0.013
999	0.014
1000	0.015
1000	0.015
1000	0.015
1001	0.015
1001	0.015
1002	0.015
1002	0.014
1003	0.013
1003	0.012
1003	0.011
1004	0.01
1004	0.008
1005	0.007
1005	0.006
1005	0.005
1006	0.004
1006	0.003
1007	0.003
1007	0.002
1008	0.002
1008	0.002
1008	0.002
1009	0.002
1009	0.003
1010	0.003
1010	0.003
1010	0.003
1011	0.004
1011	0.004
1012	0.004
1012	0.005
1013	0.005
1013	0.005
1013	0.005
1014	0.006
1014	0.006
1015	0.007
1015	0.007
1016	0.008
1016	0.009
1016	0.009
1017	0.01
1017	0.011
1018	0.013
1018	0.014
1018	0.016
1019	0.018
1019	0.019
1020	0.02
1020	0.021
1021	0.021
1021	0.022
1021	0.023
1022	0.023
1022	0.023
1023	0.023
1023	0.023
1023	0.022
1024	0.022
1024	0.022
1025	0.021
1025	0.021
1026	0.021
1026	0.021
1026	0.021
1027	0.021
1027	0.021
1028	0.021
1028	0.022
1028	0.022
1029	0.022
1029	0.022
1030	0.021
1030	0.021
1031	0.02
1031	0.02
1031	0.02
1032	0.02
1032	0.019
1033	0.019
1033	0.019
1033	0.018
1034	0.018
1034	0.017
1035	0.017
1035	0.016
1036	0.016
1036	0.016
1036	0.016
1037	0.016
1037	0.016
1038	0.017
1038	0.017
1039	0.018
1039	0.019
1039	0.02
1040	0.021
1040	0.022
1041	0.022
1041	0.023
1041	0.023
1042	0.023
1042	0.024
1043	0.024
1043	0.024
1044	0.025
1044	0.025
1044	0.026
1045	0.027
1045	0.028
1046	0.029
1046	0.03
1046	0.032
1047	0.033
1047	0.035
1048	0.036
1048	0.037
1049	0.038
1049	0.039
1049	0.039
1050	0.04
1050	0.041
1051	0.041
1051	0.042
1051	0.043
1052	0.044
1052	0.045
1053	0.046
1053	0.046
1053	0.047
1054	0.049
1054	0.049
1055	0.05
1055	0.05
1056	0.05
1056	0.049
1056	0.049
1057	0.048
1057	0.048
1058	0.048
1058	0.048
1058	0.048
1059	0.049
1059	0.049
1060	0.049
1060	0.05
1061	0.051
1061	0.052
1061	0.053
1062	0.053
1062	0.054
1063	0.054
1063	0.054
1063	0.055
1064	0.056
1064	0.057
1065	0.058
1065	0.058
1066	0.059
1066	0.06
1066	0.062
1067	0.064
1067	0.066
1068	0.068
1068	0.069
1068	0.071
1069	0.072
1069	0.074
1070	0.077
1070	0.08
1071	0.083
1071	0.086
1071	0.089
1072	0.093
1072	0.096
1073	0.1
1073	0.104
1073	0.108
1074	0.112
1074	0.115
1075	0.118
1075	0.121
1076	0.124
1076	0.128
1076	0.13
1077	0.134
1077	0.139
1078	0.143
1078	0.147
1078	0.152
1079	0.156
1079	0.161
1080	0.166
1080	0.171
1080	0.174
1081	0.178
1081	0.182
1082	0.186
1082	0.191
1083	0.195
1083	0.2
1083	0.205
1084	0.211
1084	0.218
1085	0.225
1085	0.233
1085	0.241
1086	0.248
1086	0.254
1087	0.262
1087	0.271
1088	0.279
1088	0.288
1088	0.298
1089	0.307
1089	0.319
1090	0.332
1090	0.346
1090	0.362
1091	0.38
1091	0.4
1092	0.421
1092	0.446
1092	0.471
1093	0.497
1093	0.533
1094	0.569
1094	0.611
1095	0.658
1095	0.721
1095	0.803
1096	0.9
1096	1.038
1097	1.28
1097	1.807
1097	-0
1098	-0
1098	-0
1099	-0
1099	-0
1100	-0
1100	-0
1100	-0
1101	-0
1101	-0
1102	-0
1102	-0
1102	-0
1103	-0
1103	-0
1104	-0
1104	-0
1104	-0
1105	-0
1105	-0
1106	-0
1106	-0
1107	-0
1107	-0
1107	-0
1108	-0
1108	-0
1109	-0
1109	-0
1109	-0
1110	-0
1110	-0
1111	-0
1111	-0
