Data from 15c-2-5a_Absorbance__1372__03173.txt Node

Date: Fri Jan 19 14:29:01 CET 2024
User: Marek
Spectrometer: MAYP115816
Trigger mode: 0
Integration Time (sec): 2.000000E-1
Scans to average: 10
Electric dark correction enabled: true
Nonlinearity correction enabled: true
Boxcar width: 5
XAxis mode: Wavelengths
Number of Pixels in Spectrum: 2068
>>>>>Begin Spectral Data<<<<<
199	-2.294
199	-2.136
200	-1.989
200	-1.868
201	-1.797
201	-1.742
202	-1.668
202	-1.607
203	-1.554
203	-1.508
204	-1.479
204	-1.454
205	-1.434
205	-1.422
205	-1.42
206	-1.414
206	-1.41
207	-1.404
207	-1.399
208	-1.397
208	-1.394
209	-1.392
209	-1.387
210	-1.384
210	-1.383
211	-1.381
211	-1.379
212	-1.38
212	-1.38
213	-1.379
213	-1.376
213	-1.375
214	-1.371
214	-1.37
215	-1.367
215	-1.365
216	-1.362
216	-1.362
217	-1.357
217	-1.355
218	-1.353
218	-1.35
219	-1.347
219	-1.346
220	-1.344
220	-1.344
221	-1.342
221	-1.336
221	-1.331
222	-1.329
222	-1.325
223	-1.319
223	-1.315
224	-1.307
224	-1.299
225	-1.292
225	-1.28
226	-1.269
226	-1.259
227	-1.246
227	-1.231
228	-1.215
228	-1.198
229	-1.177
229	-1.155
229	-1.128
230	-1.099
230	-1.066
231	-1.03
231	-0.991
232	-0.95
232	-0.904
233	-0.856
233	-0.806
234	-0.755
234	-0.704
235	-0.653
235	-0.601
236	-0.55
236	-0.5
236	-0.45
237	-0.402
237	-0.355
238	-0.311
238	-0.268
239	-0.228
239	-0.189
240	-0.153
240	-0.118
241	-0.086
241	-0.056
242	-0.028
242	-0.001
243	0.023
243	0.046
243	0.067
244	0.086
244	0.105
245	0.122
245	0.137
246	0.152
246	0.166
247	0.178
247	0.19
248	0.201
248	0.211
249	0.22
249	0.229
250	0.238
250	0.245
250	0.253
251	0.26
251	0.266
252	0.273
252	0.279
253	0.284
253	0.289
254	0.294
254	0.299
255	0.303
255	0.307
256	0.31
256	0.313
257	0.317
257	0.319
258	0.321
258	0.324
258	0.326
259	0.328
259	0.33
260	0.331
260	0.333
261	0.334
261	0.335
262	0.336
262	0.337
263	0.338
263	0.339
264	0.339
264	0.34
265	0.34
265	0.341
265	0.341
266	0.341
266	0.341
267	0.341
267	0.341
268	0.341
268	0.34
269	0.34
269	0.339
270	0.338
270	0.337
271	0.337
271	0.336
272	0.335
272	0.335
272	0.334
273	0.333
273	0.332
274	0.332
274	0.331
275	0.33
275	0.329
276	0.329
276	0.327
277	0.326
277	0.324
278	0.322
278	0.319
278	0.317
279	0.315
279	0.314
280	0.313
280	0.312
281	0.311
281	0.311
282	0.31
282	0.31
283	0.31
283	0.311
284	0.311
284	0.311
285	0.31
285	0.31
285	0.309
286	0.308
286	0.307
287	0.306
287	0.305
288	0.305
288	0.304
289	0.303
289	0.302
290	0.301
290	0.3
291	0.299
291	0.299
292	0.298
292	0.297
292	0.296
293	0.296
293	0.295
294	0.294
294	0.293
295	0.293
295	0.292
296	0.291
296	0.291
297	0.29
297	0.289
298	0.288
298	0.288
298	0.287
299	0.287
299	0.286
300	0.285
300	0.284
301	0.283
301	0.283
302	0.282
302	0.282
303	0.281
303	0.28
304	0.28
304	0.279
305	0.278
305	0.277
305	0.277
306	0.276
306	0.275
307	0.274
307	0.273
308	0.273
308	0.272
309	0.271
309	0.27
310	0.269
310	0.268
311	0.267
311	0.266
311	0.266
312	0.265
312	0.264
313	0.263
313	0.262
314	0.261
314	0.26
315	0.259
315	0.258
316	0.257
316	0.257
317	0.255
317	0.254
318	0.254
318	0.253
318	0.252
319	0.251
319	0.25
320	0.249
320	0.248
321	0.247
321	0.246
322	0.245
322	0.244
323	0.242
323	0.241
324	0.24
324	0.239
324	0.238
325	0.237
325	0.237
326	0.236
326	0.235
327	0.234
327	0.233
328	0.232
328	0.231
329	0.231
329	0.23
330	0.229
330	0.228
330	0.227
331	0.226
331	0.225
332	0.224
332	0.223
333	0.222
333	0.221
334	0.22
334	0.219
335	0.218
335	0.217
336	0.216
336	0.216
336	0.215
337	0.214
337	0.213
338	0.212
338	0.211
339	0.21
339	0.209
340	0.208
340	0.208
341	0.207
341	0.206
342	0.205
342	0.205
342	0.204
343	0.203
343	0.202
344	0.201
344	0.2
345	0.2
345	0.199
346	0.198
346	0.197
347	0.196
347	0.195
348	0.194
348	0.194
348	0.193
349	0.192
349	0.191
350	0.19
350	0.189
351	0.188
351	0.187
352	0.186
352	0.185
353	0.184
353	0.182
354	0.181
354	0.18
354	0.178
355	0.177
355	0.175
356	0.174
356	0.173
357	0.173
357	0.172
358	0.172
358	0.172
359	0.173
359	0.174
360	0.175
360	0.176
360	0.176
361	0.177
361	0.178
362	0.178
362	0.178
363	0.178
363	0.177
364	0.177
364	0.176
365	0.175
365	0.174
366	0.174
366	0.174
366	0.173
367	0.173
367	0.172
368	0.172
368	0.171
369	0.171
369	0.17
370	0.17
370	0.169
371	0.168
371	0.168
372	0.167
372	0.166
372	0.166
373	0.166
373	0.165
374	0.165
374	0.165
375	0.165
375	0.165
376	0.165
376	0.165
377	0.165
377	0.166
378	0.166
378	0.166
378	0.167
379	0.167
379	0.167
380	0.167
380	0.167
381	0.167
381	0.166
382	0.166
382	0.165
383	0.165
383	0.164
383	0.163
384	0.163
384	0.162
385	0.162
385	0.162
386	0.161
386	0.161
387	0.162
387	0.161
388	0.161
388	0.161
389	0.16
389	0.16
389	0.16
390	0.16
390	0.16
391	0.161
391	0.161
392	0.161
392	0.161
393	0.161
393	0.161
394	0.16
394	0.16
394	0.16
395	0.159
395	0.159
396	0.158
396	0.158
397	0.159
397	0.159
398	0.159
398	0.159
399	0.159
399	0.159
400	0.159
400	0.158
400	0.158
401	0.157
401	0.155
402	0.154
402	0.153
403	0.152
403	0.152
404	0.152
404	0.151
405	0.151
405	0.15
405	0.15
406	0.149
406	0.149
407	0.149
407	0.148
408	0.148
408	0.147
409	0.146
409	0.145
410	0.145
410	0.145
411	0.145
411	0.145
411	0.144
412	0.144
412	0.144
413	0.143
413	0.143
414	0.143
414	0.143
415	0.142
415	0.142
416	0.141
416	0.14
416	0.14
417	0.139
417	0.139
418	0.139
418	0.139
419	0.139
419	0.14
420	0.141
420	0.142
421	0.142
421	0.143
421	0.143
422	0.143
422	0.143
423	0.143
423	0.143
424	0.142
424	0.141
425	0.14
425	0.139
426	0.138
426	0.138
427	0.137
427	0.137
427	0.138
428	0.139
428	0.14
429	0.141
429	0.141
430	0.141
430	0.141
431	0.141
431	0.14
432	0.14
432	0.139
432	0.137
433	0.136
433	0.134
434	0.133
434	0.132
435	0.132
435	0.132
436	0.132
436	0.133
437	0.133
437	0.133
437	0.133
438	0.133
438	0.133
439	0.132
439	0.132
440	0.132
440	0.131
441	0.131
441	0.131
442	0.132
442	0.132
442	0.132
443	0.133
443	0.133
444	0.133
444	0.133
445	0.133
445	0.133
446	0.133
446	0.132
447	0.132
447	0.131
447	0.131
448	0.131
448	0.13
449	0.13
449	0.13
450	0.129
450	0.129
451	0.129
451	0.128
452	0.127
452	0.126
452	0.126
453	0.125
453	0.124
454	0.123
454	0.122
455	0.121
455	0.121
456	0.121
456	0.12
457	0.12
457	0.12
458	0.12
458	0.12
458	0.12
459	0.12
459	0.121
460	0.12
460	0.119
461	0.118
461	0.117
462	0.117
462	0.117
463	0.117
463	0.118
463	0.119
464	0.12
464	0.12
465	0.12
465	0.12
466	0.121
466	0.121
467	0.121
467	0.12
467	0.118
468	0.116
468	0.114
469	0.112
469	0.11
470	0.109
470	0.108
471	0.107
471	0.107
472	0.107
472	0.107
472	0.107
473	0.109
473	0.11
474	0.111
474	0.112
475	0.113
475	0.114
476	0.114
476	0.115
477	0.115
477	0.115
477	0.115
478	0.115
478	0.115
479	0.116
479	0.116
480	0.117
480	0.118
481	0.119
481	0.12
482	0.121
482	0.122
482	0.124
483	0.126
483	0.13
484	0.134
484	0.137
485	0.139
485	0.141
486	0.143
486	0.144
487	0.144
487	0.144
487	0.143
488	0.142
488	0.14
489	0.137
489	0.134
490	0.132
490	0.131
491	0.129
491	0.129
492	0.129
492	0.13
492	0.13
493	0.13
493	0.131
494	0.133
494	0.135
495	0.137
495	0.138
496	0.139
496	0.14
496	0.142
497	0.143
497	0.144
498	0.144
498	0.145
499	0.145
499	0.145
500	0.145
500	0.146
501	0.148
501	0.149
501	0.151
502	0.152
502	0.154
503	0.156
503	0.157
504	0.158
504	0.158
505	0.158
505	0.158
506	0.158
506	0.158
506	0.158
507	0.158
507	0.157
508	0.157
508	0.157
509	0.157
509	0.158
510	0.158
510	0.157
511	0.157
511	0.158
511	0.158
512	0.158
512	0.158
513	0.156
513	0.154
514	0.152
514	0.151
515	0.15
515	0.15
515	0.15
516	0.149
516	0.149
517	0.148
517	0.148
518	0.147
518	0.146
519	0.143
519	0.14
520	0.136
520	0.132
520	0.129
521	0.126
521	0.123
522	0.121
522	0.12
523	0.121
523	0.123
524	0.126
524	0.13
524	0.134
525	0.138
525	0.142
526	0.145
526	0.148
527	0.151
527	0.153
528	0.155
528	0.156
529	0.156
529	0.156
529	0.156
530	0.156
530	0.156
531	0.156
531	0.156
532	0.155
532	0.155
533	0.155
533	0.156
533	0.156
534	0.156
534	0.155
535	0.154
535	0.154
536	0.154
536	0.153
537	0.153
537	0.152
538	0.151
538	0.15
538	0.148
539	0.147
539	0.147
540	0.146
540	0.144
541	0.142
541	0.141
542	0.138
542	0.137
542	0.135
543	0.134
543	0.133
544	0.131
544	0.13
545	0.129
545	0.129
546	0.13
546	0.13
547	0.129
547	0.127
547	0.124
548	0.121
548	0.119
549	0.117
549	0.115
550	0.113
550	0.111
551	0.108
551	0.105
551	0.103
552	0.102
552	0.101
553	0.101
553	0.1
554	0.1
554	0.099
555	0.096
555	0.093
556	0.09
556	0.087
556	0.084
557	0.081
557	0.078
558	0.076
558	0.074
559	0.072
559	0.071
560	0.071
560	0.071
560	0.07
561	0.07
561	0.071
562	0.071
562	0.07
563	0.069
563	0.067
564	0.064
564	0.061
564	0.059
565	0.057
565	0.056
566	0.056
566	0.055
567	0.055
567	0.057
568	0.059
568	0.062
568	0.064
569	0.067
569	0.07
570	0.072
570	0.073
571	0.074
571	0.075
572	0.076
572	0.077
573	0.077
573	0.077
573	0.076
574	0.076
574	0.075
575	0.075
575	0.077
576	0.079
576	0.078
577	0.077
577	0.075
577	0.074
578	0.073
578	0.073
579	0.073
579	0.075
580	0.074
580	0.072
581	0.068
581	0.065
581	0.064
582	0.063
582	0.063
583	0.064
583	0.064
584	0.062
584	0.057
585	0.055
585	0.054
585	0.054
586	0.054
586	0.054
587	0.052
587	0.05
588	0.046
588	0.043
589	0.041
589	0.039
590	0.038
590	0.037
590	0.038
591	0.039
591	0.039
592	0.039
592	0.038
593	0.038
593	0.037
594	0.037
594	0.036
594	0.035
595	0.035
595	0.033
596	0.03
596	0.03
597	0.032
597	0.034
598	0.035
598	0.037
598	0.038
599	0.038
599	0.038
600	0.037
600	0.035
601	0.034
601	0.033
602	0.031
602	0.03
602	0.028
603	0.026
603	0.027
604	0.028
604	0.03
605	0.032
605	0.035
606	0.036
606	0.036
606	0.035
607	0.035
607	0.034
608	0.034
608	0.032
609	0.03
609	0.028
610	0.026
610	0.023
610	0.022
611	0.022
611	0.022
612	0.023
612	0.024
613	0.026
613	0.027
614	0.027
614	0.027
614	0.027
615	0.026
615	0.026
616	0.026
616	0.025
617	0.024
617	0.023
618	0.021
618	0.019
618	0.018
619	0.018
619	0.018
620	0.019
620	0.021
621	0.021
621	0.022
622	0.022
622	0.023
622	0.023
623	0.023
623	0.024
624	0.025
624	0.025
625	0.024
625	0.024
626	0.024
626	0.023
626	0.024
627	0.024
627	0.025
628	0.025
628	0.026
629	0.026
629	0.026
630	0.026
630	0.025
630	0.025
631	0.026
631	0.026
632	0.025
632	0.024
633	0.024
633	0.025
634	0.026
634	0.028
634	0.031
635	0.033
635	0.035
636	0.036
636	0.037
637	0.038
637	0.039
638	0.041
638	0.042
638	0.043
639	0.043
639	0.042
640	0.043
640	0.044
641	0.045
641	0.046
642	0.048
642	0.05
642	0.051
643	0.053
643	0.055
644	0.057
644	0.059
645	0.061
645	0.064
646	0.067
646	0.071
646	0.075
647	0.08
647	0.084
648	0.087
648	0.091
649	0.094
649	0.097
650	0.101
650	0.104
650	0.107
651	0.11
651	0.112
652	0.114
652	0.116
653	0.12
653	0.129
653	0.157
654	0.13
654	0.11
655	0.115
655	0.117
656	0.119
656	0.121
657	0.123
657	0.124
657	0.125
658	0.122
658	0.103
659	0.127
659	0.159
660	0.159
660	0.161
661	0.162
661	0.164
661	0.165
662	0.168
662	0.171
663	0.174
663	0.177
664	0.18
664	0.182
665	0.185
665	0.187
665	0.19
666	0.192
666	0.194
667	0.197
667	0.199
668	0.201
668	0.203
669	0.206
669	0.209
669	0.213
670	0.218
670	0.221
671	0.224
671	0.226
672	0.228
672	0.23
672	0.231
673	0.233
673	0.234
674	0.236
674	0.236
675	0.236
675	0.236
676	0.237
676	0.239
676	0.241
677	0.244
677	0.246
678	0.249
678	0.251
679	0.252
679	0.254
680	0.256
680	0.258
680	0.259
681	0.259
681	0.26
682	0.261
682	0.262
683	0.264
683	0.267
684	0.27
684	0.271
684	0.272
685	0.273
685	0.274
686	0.275
686	0.276
687	0.275
687	0.274
687	0.274
688	0.272
688	0.27
689	0.27
689	0.271
690	0.272
690	0.272
691	0.271
691	0.271
691	0.272
692	0.271
692	0.27
693	0.27
693	0.27
694	0.269
694	0.266
695	0.265
695	0.267
695	0.267
696	0.267
696	0.265
697	0.264
697	0.264
698	0.263
698	0.26
698	0.258
699	0.258
699	0.255
700	0.251
700	0.249
701	0.247
701	0.246
702	0.245
702	0.243
702	0.242
703	0.241
703	0.24
704	0.239
704	0.238
705	0.239
705	0.239
705	0.238
706	0.237
706	0.236
707	0.234
707	0.232
708	0.23
708	0.228
709	0.225
709	0.222
709	0.218
710	0.213
710	0.21
711	0.207
711	0.204
712	0.202
712	0.2
713	0.198
713	0.197
713	0.195
714	0.193
714	0.19
715	0.188
715	0.186
716	0.183
716	0.181
716	0.179
717	0.177
717	0.174
718	0.171
718	0.168
719	0.166
719	0.165
720	0.162
720	0.16
720	0.158
721	0.155
721	0.152
722	0.149
722	0.146
723	0.144
723	0.142
723	0.14
724	0.137
724	0.134
725	0.131
725	0.129
726	0.126
726	0.124
727	0.122
727	0.12
727	0.118
728	0.116
728	0.113
729	0.113
729	0.112
730	0.11
730	0.108
730	0.106
731	0.104
731	0.101
732	0.1
732	0.098
733	0.095
733	0.093
734	0.09
734	0.086
734	0.084
735	0.082
735	0.079
736	0.076
736	0.073
737	0.071
737	0.069
737	0.067
738	0.064
738	0.061
739	0.058
739	0.055
740	0.052
740	0.05
741	0.049
741	0.047
741	0.043
742	0.038
742	0.034
743	0.03
743	0.027
744	0.024
744	0.021
744	0.018
745	0.015
745	0.012
746	0.01
746	0.008
747	0.007
747	0.008
748	0.008
748	0.009
748	0.008
749	0.008
749	0.007
750	0.007
750	0.006
751	0.005
751	0.005
751	0.005
752	0.003
752	0.002
753	0
753	-0.001
754	-0.002
754	-0.003
754	-0.002
755	-0.001
755	0
756	0
756	-0.001
757	-0.003
757	-0.003
758	-0.003
758	-0.005
758	-0.005
759	-0.006
759	-0.009
760	-0.012
760	-0.016
761	-0.019
761	-0.021
761	-0.022
762	-0.025
762	-0.027
763	-0.028
763	-0.031
764	-0.035
764	-0.039
764	-0.042
765	-0.045
765	-0.048
766	-0.05
766	-0.051
767	-0.052
767	-0.055
768	-0.059
768	-0.062
768	-0.064
769	-0.065
769	-0.065
770	-0.067
770	-0.069
771	-0.071
771	-0.075
771	-0.078
772	-0.08
772	-0.083
773	-0.085
773	-0.087
774	-0.091
774	-0.095
775	-0.098
775	-0.101
775	-0.105
776	-0.109
776	-0.113
777	-0.116
777	-0.12
778	-0.124
778	-0.129
778	-0.134
779	-0.136
779	-0.135
780	-0.136
780	-0.139
781	-0.14
781	-0.142
781	-0.143
782	-0.145
782	-0.147
783	-0.148
783	-0.148
784	-0.148
784	-0.15
784	-0.152
785	-0.153
785	-0.155
786	-0.155
786	-0.153
787	-0.149
787	-0.145
788	-0.144
788	-0.145
788	-0.146
789	-0.149
789	-0.149
790	-0.146
790	-0.145
791	-0.146
791	-0.147
791	-0.15
792	-0.145
792	-0.134
793	-0.128
793	-0.124
794	-0.122
794	-0.124
794	-0.127
795	-0.129
795	-0.129
796	-0.129
796	-0.132
797	-0.14
797	-0.151
797	-0.158
798	-0.163
798	-0.166
799	-0.167
799	-0.166
800	-0.166
800	-0.167
801	-0.17
801	-0.171
801	-0.17
802	-0.171
802	-0.172
803	-0.172
803	-0.173
804	-0.172
804	-0.167
804	-0.16
805	-0.156
805	-0.154
806	-0.152
806	-0.15
807	-0.149
807	-0.149
807	-0.149
808	-0.148
808	-0.149
809	-0.154
809	-0.159
810	-0.163
810	-0.165
810	-0.169
811	-0.172
811	-0.173
812	-0.17
812	-0.167
813	-0.167
813	-0.169
813	-0.17
814	-0.171
814	-0.171
815	-0.17
815	-0.167
816	-0.165
816	-0.166
817	-0.17
817	-0.173
817	-0.174
818	-0.173
818	-0.169
819	-0.163
819	-0.16
820	-0.161
820	-0.163
820	-0.165
821	-0.165
821	-0.163
822	-0.163
822	-0.163
823	-0.162
823	-0.164
823	-0.168
824	-0.169
824	-0.167
825	-0.162
825	-0.156
826	-0.151
826	-0.146
826	-0.141
827	-0.134
827	-0.127
828	-0.12
828	-0.114
829	-0.108
829	-0.102
829	-0.097
830	-0.093
830	-0.09
831	-0.085
831	-0.082
832	-0.079
832	-0.077
832	-0.075
833	-0.073
833	-0.072
834	-0.071
834	-0.07
835	-0.068
835	-0.067
835	-0.066
836	-0.064
836	-0.063
837	-0.062
837	-0.061
838	-0.06
838	-0.059
839	-0.058
839	-0.057
839	-0.057
840	-0.056
840	-0.055
841	-0.055
841	-0.054
842	-0.053
842	-0.052
842	-0.05
843	-0.048
843	-0.046
844	-0.043
844	-0.041
845	-0.039
845	-0.037
845	-0.035
846	-0.034
846	-0.033
847	-0.032
847	-0.031
848	-0.031
848	-0.031
848	-0.03
849	-0.03
849	-0.029
850	-0.028
850	-0.028
851	-0.027
851	-0.026
851	-0.025
852	-0.025
852	-0.024
853	-0.023
853	-0.023
854	-0.022
854	-0.021
854	-0.021
855	-0.02
855	-0.02
856	-0.02
856	-0.019
857	-0.019
857	-0.018
857	-0.018
858	-0.018
858	-0.018
859	-0.017
859	-0.017
860	-0.016
860	-0.015
860	-0.014
861	-0.013
861	-0.012
862	-0.012
862	-0.011
863	-0.011
863	-0.01
863	-0.009
864	-0.009
864	-0.008
865	-0.007
865	-0.006
866	-0.006
866	-0.006
866	-0.005
867	-0.005
867	-0.005
868	-0.004
868	-0.005
869	-0.004
869	-0.005
869	-0.005
870	-0.006
870	-0.006
871	-0.006
871	-0.006
872	-0.007
872	-0.007
872	-0.007
873	-0.007
873	-0.007
874	-0.007
874	-0.007
875	-0.006
875	-0.006
875	-0.006
876	-0.006
876	-0.006
877	-0.006
877	-0.006
878	-0.006
878	-0.007
878	-0.007
879	-0.008
879	-0.009
880	-0.009
880	-0.009
881	-0.009
881	-0.009
881	-0.007
882	-0.006
882	-0.005
883	-0.003
883	-0.001
884	0.001
884	0.002
884	0.004
885	0.005
885	0.006
886	0.008
886	0.008
887	0.009
887	0.009
887	0.009
888	0.008
888	0.008
889	0.007
889	0.007
890	0.007
890	0.006
890	0.005
891	0.005
891	0.004
892	0.004
892	0.004
893	0.004
893	0.004
893	0.004
894	0.005
894	0.004
895	0.004
895	0.004
895	0.003
896	0.003
896	0.003
897	0.003
897	0.002
898	0.001
898	0.001
898	0
899	0
899	0
900	0.001
900	0.001
901	0.001
901	0.002
901	0.002
902	0.003
902	0.004
903	0.004
903	0.005
904	0.006
904	0.006
904	0.007
905	0.007
905	0.007
906	0.007
906	0.007
907	0.007
907	0.007
907	0.007
908	0.007
908	0.007
909	0.007
909	0.007
910	0.007
910	0.008
910	0.008
911	0.008
911	0.007
912	0.007
912	0.007
913	0.007
913	0.006
913	0.006
914	0.005
914	0.004
915	0.004
915	0.003
916	0.003
916	0.002
916	0.002
917	0.002
917	0.002
918	0.003
918	0.003
918	0.004
919	0.005
919	0.006
920	0.008
920	0.009
921	0.01
921	0.011
921	0.011
922	0.012
922	0.012
923	0.011
923	0.011
924	0.011
924	0.01
924	0.008
925	0.007
925	0.006
926	0.005
926	0.004
927	0.003
927	0.002
927	0.002
928	0.001
928	0.001
929	0
929	-0
930	-0
930	-0
930	0
931	0
931	0.001
932	0.002
932	0.003
933	0.004
933	0.005
933	0.007
934	0.008
934	0.009
935	0.01
935	0.011
935	0.012
936	0.013
936	0.014
937	0.015
937	0.015
938	0.016
938	0.016
938	0.017
939	0.018
939	0.018
940	0.019
940	0.019
941	0.019
941	0.019
941	0.019
942	0.019
942	0.019
943	0.019
943	0.019
944	0.019
944	0.019
944	0.018
945	0.019
945	0.019
946	0.02
946	0.02
946	0.02
947	0.02
947	0.02
948	0.02
948	0.02
949	0.02
949	0.02
949	0.02
950	0.02
950	0.02
951	0.02
951	0.02
952	0.019
952	0.019
952	0.019
953	0.019
953	0.018
954	0.017
954	0.017
955	0.016
955	0.015
955	0.015
956	0.014
956	0.014
957	0.014
957	0.013
957	0.013
958	0.013
958	0.013
959	0.012
959	0.012
960	0.012
960	0.012
960	0.011
961	0.011
961	0.011
962	0.011
962	0.01
963	0.01
963	0.01
963	0.009
964	0.009
964	0.01
965	0.01
965	0.01
966	0.011
966	0.012
966	0.012
967	0.013
967	0.014
968	0.014
968	0.015
968	0.015
969	0.016
969	0.017
970	0.017
970	0.017
971	0.018
971	0.018
971	0.018
972	0.019
972	0.02
973	0.02
973	0.021
974	0.021
974	0.022
974	0.023
975	0.024
975	0.025
976	0.026
976	0.026
976	0.027
977	0.027
977	0.027
978	0.027
978	0.026
979	0.026
979	0.025
979	0.024
980	0.023
980	0.022
981	0.02
981	0.019
982	0.019
982	0.018
982	0.017
983	0.016
983	0.016
984	0.015
984	0.014
984	0.013
985	0.013
985	0.012
986	0.011
986	0.011
987	0.01
987	0.01
987	0.01
988	0.01
988	0.01
989	0.01
989	0.011
990	0.011
990	0.012
990	0.013
991	0.013
991	0.014
992	0.014
992	0.014
992	0.014
993	0.015
993	0.015
994	0.014
994	0.014
995	0.013
995	0.013
995	0.012
996	0.012
996	0.011
997	0.011
997	0.011
997	0.012
998	0.012
998	0.013
999	0.014
999	0.015
1000	0.016
1000	0.016
1000	0.017
1001	0.017
1001	0.017
1002	0.016
1002	0.016
1003	0.015
1003	0.014
1003	0.013
1004	0.012
1004	0.011
1005	0.01
1005	0.009
1005	0.008
1006	0.007
1006	0.006
1007	0.005
1007	0.005
1008	0.004
1008	0.004
1008	0.004
1009	0.004
1009	0.004
1010	0.005
1010	0.005
1010	0.006
1011	0.006
1011	0.007
1012	0.007
1012	0.008
1013	0.008
1013	0.008
1013	0.008
1014	0.009
1014	0.009
1015	0.01
1015	0.01
1016	0.011
1016	0.011
1016	0.012
1017	0.013
1017	0.014
1018	0.015
1018	0.017
1018	0.018
1019	0.019
1019	0.02
1020	0.021
1020	0.022
1021	0.023
1021	0.023
1021	0.024
1022	0.024
1022	0.024
1023	0.024
1023	0.024
1023	0.024
1024	0.023
1024	0.023
1025	0.023
1025	0.023
1026	0.024
1026	0.024
1026	0.024
1027	0.025
1027	0.025
1028	0.026
1028	0.026
1028	0.026
1029	0.026
1029	0.026
1030	0.026
1030	0.025
1031	0.025
1031	0.024
1031	0.024
1032	0.023
1032	0.023
1033	0.022
1033	0.021
1033	0.02
1034	0.019
1034	0.018
1035	0.018
1035	0.017
1036	0.017
1036	0.016
1036	0.016
1037	0.016
1037	0.017
1038	0.017
1038	0.018
1039	0.019
1039	0.02
1039	0.021
1040	0.022
1040	0.022
1041	0.023
1041	0.023
1041	0.024
1042	0.024
1042	0.024
1043	0.025
1043	0.025
1044	0.026
1044	0.026
1044	0.027
1045	0.028
1045	0.029
1046	0.03
1046	0.032
1046	0.034
1047	0.035
1047	0.038
1048	0.039
1048	0.041
1049	0.042
1049	0.042
1049	0.043
1050	0.044
1050	0.044
1051	0.045
1051	0.046
1051	0.047
1052	0.047
1052	0.048
1053	0.049
1053	0.051
1053	0.052
1054	0.053
1054	0.054
1055	0.055
1055	0.055
1056	0.055
1056	0.055
1056	0.054
1057	0.054
1057	0.053
1058	0.053
1058	0.053
1058	0.053
1059	0.054
1059	0.054
1060	0.054
1060	0.055
1061	0.055
1061	0.056
1061	0.056
1062	0.056
1062	0.056
1063	0.056
1063	0.056
1063	0.056
1064	0.057
1064	0.058
1065	0.059
1065	0.06
1066	0.06
1066	0.062
1066	0.064
1067	0.066
1067	0.068
1068	0.069
1068	0.071
1068	0.072
1069	0.073
1069	0.075
1070	0.077
1070	0.08
1071	0.083
1071	0.085
1071	0.088
1072	0.092
1072	0.095
1073	0.099
1073	0.103
1073	0.107
1074	0.11
1074	0.114
1075	0.116
1075	0.119
1076	0.122
1076	0.126
1076	0.128
1077	0.132
1077	0.136
1078	0.14
1078	0.144
1078	0.149
1079	0.154
1079	0.158
1080	0.162
1080	0.167
1080	0.17
1081	0.174
1081	0.178
1082	0.183
1082	0.187
1083	0.191
1083	0.195
1083	0.201
1084	0.207
1084	0.214
1085	0.221
1085	0.23
1085	0.238
1086	0.245
1086	0.251
1087	0.26
1087	0.269
1088	0.277
1088	0.285
1088	0.295
1089	0.304
1089	0.316
1090	0.328
1090	0.342
1090	0.358
1091	0.375
1091	0.395
1092	0.416
1092	0.439
1092	0.463
1093	0.487
1093	0.519
1094	0.553
1094	0.589
1095	0.633
1095	0.688
1095	0.762
1096	0.844
1096	0.952
1097	1.128
1097	1.425
1097	-0
1098	-0
1098	-0
1099	-0
1099	-0
1100	-0
1100	-0
1100	-0
1101	-0
1101	-0
1102	-0
1102	-0
1102	-0
1103	-0
1103	-0
1104	-0
1104	-0
1104	-0
1105	-0
1105	-0
1106	-0
1106	-0
1107	-0
1107	-0
1107	-0
1108	-0
1108	-0
1109	-0
1109	-0
1109	-0
1110	-0
1110	-0
1111	-0
1111	-0
