Data from 15c-2-5a_Absorbance__1477__03278.txt Node

Date: Fri Jan 19 14:32:31 CET 2024
User: Marek
Spectrometer: MAYP115816
Trigger mode: 0
Integration Time (sec): 2.000000E-1
Scans to average: 10
Electric dark correction enabled: true
Nonlinearity correction enabled: true
Boxcar width: 5
XAxis mode: Wavelengths
Number of Pixels in Spectrum: 2068
>>>>>Begin Spectral Data<<<<<
199	-2.293
199	-2.135
200	-1.988
200	-1.867
201	-1.796
201	-1.741
202	-1.667
202	-1.605
203	-1.552
203	-1.505
204	-1.477
204	-1.452
205	-1.431
205	-1.42
205	-1.418
206	-1.412
206	-1.408
207	-1.402
207	-1.398
208	-1.396
208	-1.392
209	-1.39
209	-1.385
210	-1.382
210	-1.381
211	-1.379
211	-1.378
212	-1.378
212	-1.378
213	-1.377
213	-1.375
213	-1.374
214	-1.369
214	-1.368
215	-1.366
215	-1.364
216	-1.36
216	-1.36
217	-1.356
217	-1.354
218	-1.351
218	-1.348
219	-1.345
219	-1.344
220	-1.343
220	-1.342
221	-1.341
221	-1.335
221	-1.33
222	-1.327
222	-1.323
223	-1.317
223	-1.313
224	-1.305
224	-1.298
225	-1.29
225	-1.279
226	-1.267
226	-1.257
227	-1.244
227	-1.229
228	-1.213
228	-1.197
229	-1.176
229	-1.154
229	-1.126
230	-1.097
230	-1.065
231	-1.029
231	-0.989
232	-0.947
232	-0.902
233	-0.854
233	-0.804
234	-0.753
234	-0.702
235	-0.65
235	-0.598
236	-0.548
236	-0.497
236	-0.448
237	-0.399
237	-0.353
238	-0.309
238	-0.266
239	-0.225
239	-0.186
240	-0.15
240	-0.116
241	-0.083
241	-0.052
242	-0.024
242	0.002
243	0.027
243	0.049
243	0.071
244	0.09
244	0.108
245	0.125
245	0.141
246	0.156
246	0.169
247	0.181
247	0.193
248	0.204
248	0.215
249	0.224
249	0.233
250	0.242
250	0.25
250	0.257
251	0.265
251	0.271
252	0.277
252	0.283
253	0.289
253	0.294
254	0.299
254	0.304
255	0.308
255	0.312
256	0.315
256	0.318
257	0.321
257	0.324
258	0.327
258	0.329
258	0.331
259	0.333
259	0.335
260	0.336
260	0.337
261	0.339
261	0.34
262	0.341
262	0.342
263	0.343
263	0.344
264	0.345
264	0.345
265	0.346
265	0.346
265	0.346
266	0.347
266	0.347
267	0.347
267	0.346
268	0.346
268	0.346
269	0.345
269	0.345
270	0.344
270	0.343
271	0.343
271	0.342
272	0.341
272	0.34
272	0.34
273	0.339
273	0.338
274	0.337
274	0.336
275	0.335
275	0.334
276	0.333
276	0.332
277	0.331
277	0.329
278	0.327
278	0.325
278	0.322
279	0.32
279	0.319
280	0.318
280	0.317
281	0.316
281	0.315
282	0.315
282	0.315
283	0.315
283	0.315
284	0.315
284	0.315
285	0.315
285	0.314
285	0.313
286	0.312
286	0.311
287	0.31
287	0.309
288	0.309
288	0.308
289	0.307
289	0.306
290	0.305
290	0.304
291	0.303
291	0.303
292	0.302
292	0.301
292	0.3
293	0.299
293	0.299
294	0.298
294	0.297
295	0.297
295	0.296
296	0.295
296	0.295
297	0.294
297	0.293
298	0.293
298	0.292
298	0.291
299	0.291
299	0.29
300	0.289
300	0.288
301	0.287
301	0.287
302	0.286
302	0.285
303	0.285
303	0.284
304	0.283
304	0.282
305	0.282
305	0.281
305	0.28
306	0.279
306	0.279
307	0.278
307	0.277
308	0.276
308	0.275
309	0.274
309	0.274
310	0.273
310	0.272
311	0.271
311	0.27
311	0.27
312	0.269
312	0.268
313	0.267
313	0.266
314	0.265
314	0.264
315	0.263
315	0.262
316	0.261
316	0.26
317	0.259
317	0.258
318	0.257
318	0.256
318	0.255
319	0.254
319	0.253
320	0.252
320	0.251
321	0.25
321	0.249
322	0.248
322	0.247
323	0.246
323	0.245
324	0.244
324	0.243
324	0.242
325	0.241
325	0.24
326	0.239
326	0.238
327	0.237
327	0.236
328	0.236
328	0.235
329	0.234
329	0.233
330	0.232
330	0.231
330	0.23
331	0.229
331	0.228
332	0.227
332	0.226
333	0.225
333	0.225
334	0.224
334	0.223
335	0.222
335	0.221
336	0.22
336	0.219
336	0.218
337	0.217
337	0.216
338	0.215
338	0.214
339	0.213
339	0.213
340	0.212
340	0.211
341	0.21
341	0.21
342	0.209
342	0.208
342	0.207
343	0.206
343	0.206
344	0.205
344	0.204
345	0.203
345	0.202
346	0.202
346	0.2
347	0.199
347	0.198
348	0.198
348	0.197
348	0.196
349	0.195
349	0.194
350	0.194
350	0.193
351	0.192
351	0.191
352	0.19
352	0.188
353	0.187
353	0.186
354	0.185
354	0.183
354	0.182
355	0.18
355	0.179
356	0.178
356	0.177
357	0.175
357	0.175
358	0.175
358	0.175
359	0.176
359	0.177
360	0.178
360	0.179
360	0.18
361	0.18
361	0.181
362	0.182
362	0.182
363	0.182
363	0.181
364	0.181
364	0.18
365	0.179
365	0.179
366	0.178
366	0.178
366	0.177
367	0.176
367	0.176
368	0.175
368	0.175
369	0.174
369	0.173
370	0.173
370	0.172
371	0.171
371	0.171
372	0.17
372	0.17
372	0.169
373	0.169
373	0.169
374	0.169
374	0.169
375	0.168
375	0.168
376	0.168
376	0.168
377	0.168
377	0.169
378	0.169
378	0.17
378	0.17
379	0.17
379	0.17
380	0.17
380	0.17
381	0.17
381	0.17
382	0.169
382	0.169
383	0.168
383	0.168
383	0.167
384	0.167
384	0.166
385	0.165
385	0.165
386	0.165
386	0.165
387	0.165
387	0.165
388	0.164
388	0.164
389	0.164
389	0.163
389	0.163
390	0.164
390	0.164
391	0.164
391	0.165
392	0.164
392	0.164
393	0.164
393	0.164
394	0.164
394	0.164
394	0.163
395	0.163
395	0.162
396	0.162
396	0.162
397	0.162
397	0.162
398	0.162
398	0.162
399	0.162
399	0.162
400	0.162
400	0.161
400	0.161
401	0.16
401	0.159
402	0.157
402	0.156
403	0.156
403	0.155
404	0.155
404	0.155
405	0.155
405	0.154
405	0.153
406	0.153
406	0.153
407	0.152
407	0.152
408	0.151
408	0.15
409	0.15
409	0.149
410	0.148
410	0.148
411	0.148
411	0.148
411	0.148
412	0.148
412	0.147
413	0.147
413	0.147
414	0.146
414	0.146
415	0.146
415	0.145
416	0.145
416	0.144
416	0.144
417	0.143
417	0.143
418	0.143
418	0.143
419	0.143
419	0.144
420	0.145
420	0.145
421	0.146
421	0.146
421	0.147
422	0.147
422	0.147
423	0.147
423	0.147
424	0.146
424	0.145
425	0.144
425	0.143
426	0.142
426	0.141
427	0.141
427	0.141
427	0.141
428	0.142
428	0.143
429	0.144
429	0.145
430	0.145
430	0.145
431	0.144
431	0.144
432	0.143
432	0.142
432	0.14
433	0.138
433	0.137
434	0.136
434	0.135
435	0.135
435	0.135
436	0.135
436	0.135
437	0.135
437	0.135
437	0.135
438	0.135
438	0.135
439	0.135
439	0.134
440	0.134
440	0.134
441	0.134
441	0.134
442	0.134
442	0.134
442	0.134
443	0.135
443	0.135
444	0.136
444	0.136
445	0.136
445	0.136
446	0.135
446	0.135
447	0.135
447	0.134
447	0.134
448	0.134
448	0.133
449	0.133
449	0.133
450	0.132
450	0.132
451	0.131
451	0.131
452	0.13
452	0.129
452	0.128
453	0.128
453	0.127
454	0.126
454	0.125
455	0.124
455	0.124
456	0.123
456	0.123
457	0.123
457	0.123
458	0.123
458	0.122
458	0.123
459	0.123
459	0.123
460	0.122
460	0.121
461	0.121
461	0.12
462	0.12
462	0.12
463	0.12
463	0.121
463	0.121
464	0.122
464	0.122
465	0.122
465	0.122
466	0.123
466	0.123
467	0.123
467	0.122
467	0.121
468	0.119
468	0.116
469	0.114
469	0.112
470	0.11
470	0.11
471	0.109
471	0.108
472	0.108
472	0.108
472	0.109
473	0.11
473	0.111
474	0.112
474	0.114
475	0.115
475	0.115
476	0.116
476	0.116
477	0.117
477	0.117
477	0.117
478	0.117
478	0.117
479	0.118
479	0.118
480	0.119
480	0.12
481	0.121
481	0.121
482	0.123
482	0.124
482	0.126
483	0.128
483	0.132
484	0.136
484	0.139
485	0.141
485	0.143
486	0.144
486	0.145
487	0.146
487	0.146
487	0.145
488	0.144
488	0.142
489	0.139
489	0.136
490	0.134
490	0.132
491	0.131
491	0.131
492	0.131
492	0.131
492	0.132
493	0.132
493	0.133
494	0.134
494	0.137
495	0.139
495	0.141
496	0.142
496	0.143
496	0.144
497	0.145
497	0.146
498	0.147
498	0.147
499	0.147
499	0.147
500	0.148
500	0.149
501	0.151
501	0.152
501	0.154
502	0.155
502	0.157
503	0.159
503	0.16
504	0.161
504	0.161
505	0.161
505	0.161
506	0.161
506	0.161
506	0.161
507	0.161
507	0.16
508	0.16
508	0.161
509	0.161
509	0.161
510	0.162
510	0.161
511	0.161
511	0.161
511	0.16
512	0.161
512	0.161
513	0.159
513	0.157
514	0.155
514	0.153
515	0.152
515	0.152
515	0.151
516	0.151
516	0.151
517	0.151
517	0.15
518	0.15
518	0.148
519	0.146
519	0.143
520	0.139
520	0.135
520	0.132
521	0.128
521	0.125
522	0.123
522	0.122
523	0.122
523	0.124
524	0.127
524	0.131
524	0.135
525	0.139
525	0.144
526	0.147
526	0.151
527	0.154
527	0.156
528	0.158
528	0.159
529	0.16
529	0.16
529	0.16
530	0.161
530	0.16
531	0.16
531	0.16
532	0.16
532	0.16
533	0.16
533	0.16
533	0.16
534	0.159
534	0.159
535	0.158
535	0.157
536	0.157
536	0.156
537	0.156
537	0.155
538	0.154
538	0.153
538	0.151
539	0.15
539	0.15
540	0.149
540	0.148
541	0.146
541	0.144
542	0.142
542	0.141
542	0.139
543	0.139
543	0.137
544	0.136
544	0.134
545	0.133
545	0.133
546	0.133
546	0.133
547	0.132
547	0.13
547	0.127
548	0.124
548	0.122
549	0.12
549	0.117
550	0.116
550	0.114
551	0.111
551	0.108
551	0.106
552	0.105
552	0.104
553	0.103
553	0.103
554	0.103
554	0.102
555	0.1
555	0.097
556	0.094
556	0.091
556	0.087
557	0.085
557	0.082
558	0.08
558	0.078
559	0.076
559	0.075
560	0.075
560	0.074
560	0.074
561	0.074
561	0.075
562	0.075
562	0.074
563	0.072
563	0.07
564	0.067
564	0.064
564	0.062
565	0.06
565	0.059
566	0.058
566	0.057
567	0.058
567	0.06
568	0.062
568	0.064
568	0.067
569	0.07
569	0.073
570	0.076
570	0.076
571	0.077
571	0.079
572	0.08
572	0.08
573	0.081
573	0.081
573	0.08
574	0.079
574	0.078
575	0.077
575	0.078
576	0.08
576	0.079
577	0.078
577	0.076
577	0.075
578	0.074
578	0.074
579	0.075
579	0.076
580	0.076
580	0.074
581	0.071
581	0.068
581	0.066
582	0.066
582	0.065
583	0.066
583	0.066
584	0.064
584	0.059
585	0.057
585	0.056
585	0.056
586	0.056
586	0.056
587	0.054
587	0.051
588	0.048
588	0.044
589	0.042
589	0.04
590	0.038
590	0.037
590	0.038
591	0.039
591	0.039
592	0.039
592	0.039
593	0.038
593	0.039
594	0.038
594	0.038
594	0.037
595	0.036
595	0.034
596	0.031
596	0.03
597	0.032
597	0.034
598	0.035
598	0.036
598	0.037
599	0.038
599	0.038
600	0.037
600	0.036
601	0.035
601	0.035
602	0.033
602	0.032
602	0.03
603	0.029
603	0.03
604	0.031
604	0.033
605	0.035
605	0.037
606	0.039
606	0.038
606	0.038
607	0.037
607	0.037
608	0.036
608	0.034
609	0.032
609	0.031
610	0.028
610	0.026
610	0.024
611	0.024
611	0.024
612	0.025
612	0.027
613	0.028
613	0.03
614	0.03
614	0.03
614	0.03
615	0.029
615	0.029
616	0.029
616	0.028
617	0.027
617	0.026
618	0.024
618	0.022
618	0.021
619	0.02
619	0.02
620	0.022
620	0.023
621	0.023
621	0.024
622	0.024
622	0.025
622	0.025
623	0.025
623	0.026
624	0.027
624	0.027
625	0.026
625	0.025
626	0.025
626	0.025
626	0.025
627	0.025
627	0.026
628	0.027
628	0.027
629	0.027
629	0.028
630	0.027
630	0.027
630	0.027
631	0.027
631	0.027
632	0.027
632	0.026
633	0.027
633	0.027
634	0.029
634	0.031
634	0.034
635	0.036
635	0.038
636	0.039
636	0.04
637	0.041
637	0.042
638	0.043
638	0.044
638	0.045
639	0.045
639	0.045
640	0.046
640	0.047
641	0.048
641	0.05
642	0.052
642	0.054
642	0.055
643	0.057
643	0.059
644	0.061
644	0.063
645	0.065
645	0.067
646	0.07
646	0.074
646	0.078
647	0.083
647	0.087
648	0.091
648	0.094
649	0.097
649	0.101
650	0.105
650	0.108
650	0.111
651	0.114
651	0.116
652	0.118
652	0.12
653	0.123
653	0.132
653	0.159
654	0.132
654	0.111
655	0.116
655	0.118
656	0.12
656	0.122
657	0.124
657	0.125
657	0.127
658	0.124
658	0.104
659	0.128
659	0.162
660	0.162
660	0.163
661	0.165
661	0.167
661	0.169
662	0.172
662	0.176
663	0.179
663	0.183
664	0.186
664	0.189
665	0.191
665	0.194
665	0.197
666	0.199
666	0.201
667	0.203
667	0.205
668	0.207
668	0.209
669	0.211
669	0.213
669	0.217
670	0.222
670	0.225
671	0.228
671	0.23
672	0.232
672	0.233
672	0.235
673	0.236
673	0.238
674	0.239
674	0.239
675	0.239
675	0.239
676	0.241
676	0.243
676	0.245
677	0.248
677	0.251
678	0.253
678	0.255
679	0.257
679	0.259
680	0.261
680	0.263
680	0.264
681	0.264
681	0.265
682	0.266
682	0.267
683	0.269
683	0.271
684	0.274
684	0.275
684	0.276
685	0.276
685	0.278
686	0.279
686	0.279
687	0.279
687	0.278
687	0.277
688	0.275
688	0.273
689	0.273
689	0.274
690	0.275
690	0.275
691	0.275
691	0.275
691	0.276
692	0.276
692	0.275
693	0.275
693	0.275
694	0.274
694	0.271
695	0.27
695	0.272
695	0.272
696	0.271
696	0.27
697	0.269
697	0.268
698	0.267
698	0.264
698	0.262
699	0.261
699	0.258
700	0.254
700	0.251
701	0.25
701	0.248
702	0.247
702	0.246
702	0.245
703	0.243
703	0.242
704	0.241
704	0.241
705	0.241
705	0.242
705	0.241
706	0.241
706	0.24
707	0.239
707	0.236
708	0.234
708	0.232
709	0.23
709	0.227
709	0.223
710	0.218
710	0.214
711	0.211
711	0.208
712	0.205
712	0.203
713	0.201
713	0.2
713	0.198
714	0.196
714	0.194
715	0.192
715	0.19
716	0.187
716	0.185
716	0.183
717	0.181
717	0.179
718	0.176
718	0.172
719	0.17
719	0.168
720	0.166
720	0.164
720	0.161
721	0.158
721	0.155
722	0.152
722	0.149
723	0.147
723	0.145
723	0.143
724	0.141
724	0.138
725	0.135
725	0.132
726	0.13
726	0.127
727	0.125
727	0.123
727	0.121
728	0.118
728	0.116
729	0.116
729	0.115
730	0.113
730	0.111
730	0.109
731	0.107
731	0.105
732	0.103
732	0.102
733	0.099
733	0.097
734	0.094
734	0.091
734	0.088
735	0.087
735	0.084
736	0.081
736	0.079
737	0.076
737	0.075
737	0.073
738	0.07
738	0.066
739	0.063
739	0.06
740	0.057
740	0.054
741	0.053
741	0.05
741	0.046
742	0.041
742	0.037
743	0.033
743	0.03
744	0.027
744	0.025
744	0.022
745	0.019
745	0.016
746	0.013
746	0.012
747	0.011
747	0.011
748	0.011
748	0.012
748	0.011
749	0.01
749	0.01
750	0.009
750	0.008
751	0.008
751	0.007
751	0.007
752	0.005
752	0.003
753	0.002
753	0
754	-0
754	-0.001
754	-0.001
755	-0
755	0.001
756	0.001
756	-0
757	-0.001
757	-0.002
758	-0.002
758	-0.003
758	-0.004
759	-0.004
759	-0.007
760	-0.01
760	-0.013
761	-0.016
761	-0.017
761	-0.019
762	-0.021
762	-0.023
763	-0.024
763	-0.027
764	-0.031
764	-0.035
764	-0.038
765	-0.041
765	-0.044
766	-0.046
766	-0.047
767	-0.049
767	-0.052
768	-0.056
768	-0.059
768	-0.06
769	-0.061
769	-0.061
770	-0.063
770	-0.064
771	-0.066
771	-0.069
771	-0.073
772	-0.075
772	-0.077
773	-0.079
773	-0.082
774	-0.086
774	-0.09
775	-0.094
775	-0.098
775	-0.102
776	-0.107
776	-0.111
777	-0.115
777	-0.119
778	-0.123
778	-0.128
778	-0.133
779	-0.136
779	-0.136
780	-0.136
780	-0.139
781	-0.14
781	-0.142
781	-0.144
782	-0.145
782	-0.147
783	-0.148
783	-0.148
784	-0.148
784	-0.15
784	-0.152
785	-0.153
785	-0.155
786	-0.155
786	-0.153
787	-0.149
787	-0.145
788	-0.144
788	-0.145
788	-0.146
789	-0.149
789	-0.149
790	-0.146
790	-0.145
791	-0.146
791	-0.147
791	-0.15
792	-0.145
792	-0.134
793	-0.128
793	-0.124
794	-0.122
794	-0.124
794	-0.127
795	-0.129
795	-0.129
796	-0.129
796	-0.132
797	-0.14
797	-0.151
797	-0.158
798	-0.163
798	-0.166
799	-0.167
799	-0.166
800	-0.166
800	-0.167
801	-0.17
801	-0.171
801	-0.17
802	-0.171
802	-0.172
803	-0.172
803	-0.173
804	-0.172
804	-0.166
804	-0.16
805	-0.156
805	-0.154
806	-0.152
806	-0.15
807	-0.149
807	-0.149
807	-0.149
808	-0.148
808	-0.149
809	-0.154
809	-0.159
810	-0.163
810	-0.165
810	-0.169
811	-0.172
811	-0.173
812	-0.17
812	-0.167
813	-0.167
813	-0.169
813	-0.17
814	-0.171
814	-0.171
815	-0.17
815	-0.167
816	-0.165
816	-0.166
817	-0.17
817	-0.173
817	-0.174
818	-0.173
818	-0.169
819	-0.163
819	-0.16
820	-0.161
820	-0.163
820	-0.165
821	-0.165
821	-0.163
822	-0.163
822	-0.163
823	-0.162
823	-0.164
823	-0.168
824	-0.169
824	-0.166
825	-0.161
825	-0.155
826	-0.149
826	-0.144
826	-0.138
827	-0.131
827	-0.124
828	-0.117
828	-0.111
829	-0.104
829	-0.098
829	-0.094
830	-0.091
830	-0.088
831	-0.084
831	-0.081
832	-0.079
832	-0.077
832	-0.075
833	-0.074
833	-0.073
834	-0.072
834	-0.071
835	-0.07
835	-0.069
835	-0.068
836	-0.066
836	-0.064
837	-0.063
837	-0.061
838	-0.059
838	-0.057
839	-0.056
839	-0.055
839	-0.054
840	-0.053
840	-0.052
841	-0.051
841	-0.051
842	-0.05
842	-0.049
842	-0.048
843	-0.046
843	-0.045
844	-0.042
844	-0.04
845	-0.039
845	-0.037
845	-0.035
846	-0.034
846	-0.033
847	-0.032
847	-0.031
848	-0.031
848	-0.03
848	-0.03
849	-0.029
849	-0.028
850	-0.027
850	-0.027
851	-0.026
851	-0.025
851	-0.024
852	-0.024
852	-0.023
853	-0.022
853	-0.022
854	-0.021
854	-0.021
854	-0.02
855	-0.02
855	-0.02
856	-0.02
856	-0.021
857	-0.02
857	-0.021
857	-0.02
858	-0.02
858	-0.02
859	-0.02
859	-0.02
860	-0.019
860	-0.018
860	-0.016
861	-0.015
861	-0.013
862	-0.013
862	-0.012
863	-0.011
863	-0.01
863	-0.01
864	-0.009
864	-0.008
865	-0.007
865	-0.007
866	-0.006
866	-0.006
866	-0.005
867	-0.004
867	-0.004
868	-0.003
868	-0.003
869	-0.003
869	-0.003
869	-0.004
870	-0.004
870	-0.005
871	-0.005
871	-0.005
872	-0.006
872	-0.006
872	-0.006
873	-0.006
873	-0.005
874	-0.005
874	-0.004
875	-0.004
875	-0.003
875	-0.003
876	-0.002
876	-0.002
877	-0.002
877	-0.003
878	-0.003
878	-0.004
878	-0.005
879	-0.006
879	-0.008
880	-0.009
880	-0.01
881	-0.01
881	-0.011
881	-0.011
882	-0.01
882	-0.009
883	-0.008
883	-0.007
884	-0.005
884	-0.004
884	-0.003
885	-0.001
885	0
886	0.002
886	0.003
887	0.004
887	0.004
887	0.004
888	0.004
888	0.004
889	0.004
889	0.004
890	0.005
890	0.004
890	0.004
891	0.004
891	0.003
892	0.003
892	0.003
893	0.004
893	0.004
893	0.004
894	0.005
894	0.005
895	0.005
895	0.005
895	0.005
896	0.005
896	0.005
897	0.005
897	0.004
898	0.004
898	0.004
898	0.004
899	0.003
899	0.003
900	0.004
900	0.004
901	0.004
901	0.005
901	0.005
902	0.005
902	0.006
903	0.006
903	0.006
904	0.006
904	0.006
904	0.007
905	0.007
905	0.006
906	0.006
906	0.006
907	0.006
907	0.006
907	0.006
908	0.006
908	0.006
909	0.006
909	0.007
910	0.007
910	0.008
910	0.008
911	0.009
911	0.009
912	0.009
912	0.01
913	0.01
913	0.009
913	0.009
914	0.008
914	0.008
915	0.007
915	0.006
916	0.005
916	0.004
916	0.003
917	0.003
917	0.002
918	0.002
918	0.002
918	0.003
919	0.004
919	0.005
920	0.006
920	0.007
921	0.009
921	0.009
921	0.01
922	0.011
922	0.011
923	0.011
923	0.01
924	0.01
924	0.009
924	0.007
925	0.006
925	0.005
926	0.005
926	0.004
927	0.003
927	0.002
927	0.002
928	0.002
928	0.001
929	0.001
929	0
930	-0
930	-0
930	-0
931	-0.001
931	-0
932	0
932	0.001
933	0.002
933	0.003
933	0.004
934	0.006
934	0.007
935	0.008
935	0.009
935	0.01
936	0.011
936	0.012
937	0.013
937	0.014
938	0.014
938	0.015
938	0.016
939	0.016
939	0.017
940	0.018
940	0.019
941	0.02
941	0.02
941	0.021
942	0.022
942	0.023
943	0.023
943	0.024
944	0.024
944	0.024
944	0.025
945	0.025
945	0.026
946	0.026
946	0.026
946	0.027
947	0.027
947	0.027
948	0.027
948	0.027
949	0.027
949	0.027
949	0.027
950	0.027
950	0.027
951	0.027
951	0.026
952	0.025
952	0.025
952	0.025
953	0.025
953	0.024
954	0.023
954	0.022
955	0.021
955	0.02
955	0.019
956	0.018
956	0.018
957	0.017
957	0.016
957	0.015
958	0.014
958	0.014
959	0.013
959	0.013
960	0.013
960	0.012
960	0.011
961	0.011
961	0.01
962	0.01
962	0.01
963	0.009
963	0.009
963	0.009
964	0.009
964	0.009
965	0.01
965	0.01
966	0.011
966	0.012
966	0.012
967	0.013
967	0.014
968	0.015
968	0.015
968	0.016
969	0.017
969	0.018
970	0.018
970	0.019
971	0.019
971	0.02
971	0.02
972	0.02
972	0.021
973	0.021
973	0.021
974	0.021
974	0.021
974	0.021
975	0.022
975	0.022
976	0.023
976	0.024
976	0.025
977	0.025
977	0.026
978	0.026
978	0.026
979	0.027
979	0.027
979	0.026
980	0.026
980	0.025
981	0.024
981	0.023
982	0.022
982	0.022
982	0.021
983	0.02
983	0.019
984	0.018
984	0.017
984	0.017
985	0.016
985	0.015
986	0.014
986	0.014
987	0.013
987	0.013
987	0.013
988	0.014
988	0.014
989	0.014
989	0.015
990	0.015
990	0.016
990	0.016
991	0.017
991	0.018
992	0.018
992	0.018
992	0.018
993	0.018
993	0.017
994	0.017
994	0.016
995	0.016
995	0.015
995	0.014
996	0.014
996	0.013
997	0.013
997	0.013
997	0.013
998	0.014
998	0.015
999	0.015
999	0.016
1000	0.017
1000	0.017
1000	0.018
1001	0.018
1001	0.018
1002	0.018
1002	0.018
1003	0.018
1003	0.017
1003	0.017
1004	0.016
1004	0.015
1005	0.014
1005	0.013
1005	0.013
1006	0.012
1006	0.011
1007	0.01
1007	0.01
1008	0.01
1008	0.009
1008	0.009
1009	0.009
1009	0.009
1010	0.01
1010	0.01
1010	0.01
1011	0.011
1011	0.011
1012	0.011
1012	0.011
1013	0.011
1013	0.012
1013	0.012
1014	0.012
1014	0.013
1015	0.013
1015	0.014
1016	0.014
1016	0.015
1016	0.015
1017	0.016
1017	0.017
1018	0.018
1018	0.019
1018	0.02
1019	0.02
1019	0.021
1020	0.022
1020	0.022
1021	0.023
1021	0.023
1021	0.024
1022	0.024
1022	0.023
1023	0.024
1023	0.024
1023	0.023
1024	0.023
1024	0.023
1025	0.023
1025	0.023
1026	0.023
1026	0.023
1026	0.024
1027	0.024
1027	0.025
1028	0.025
1028	0.026
1028	0.026
1029	0.026
1029	0.026
1030	0.025
1030	0.025
1031	0.024
1031	0.024
1031	0.023
1032	0.023
1032	0.022
1033	0.021
1033	0.02
1033	0.019
1034	0.018
1034	0.017
1035	0.016
1035	0.015
1036	0.015
1036	0.015
1036	0.014
1037	0.015
1037	0.015
1038	0.015
1038	0.016
1039	0.017
1039	0.018
1039	0.019
1040	0.02
1040	0.021
1041	0.022
1041	0.023
1041	0.024
1042	0.025
1042	0.026
1043	0.027
1043	0.027
1044	0.028
1044	0.029
1044	0.031
1045	0.032
1045	0.033
1046	0.034
1046	0.036
1046	0.038
1047	0.04
1047	0.042
1048	0.044
1048	0.046
1049	0.047
1049	0.047
1049	0.048
1050	0.049
1050	0.05
1051	0.051
1051	0.051
1051	0.052
1052	0.053
1052	0.054
1053	0.054
1053	0.056
1053	0.057
1054	0.058
1054	0.059
1055	0.06
1055	0.06
1056	0.06
1056	0.06
1056	0.06
1057	0.059
1057	0.059
1058	0.059
1058	0.059
1058	0.059
1059	0.059
1059	0.059
1060	0.059
1060	0.06
1061	0.06
1061	0.061
1061	0.062
1062	0.061
1062	0.062
1063	0.062
1063	0.062
1063	0.063
1064	0.064
1064	0.065
1065	0.066
1065	0.067
1066	0.068
1066	0.069
1066	0.071
1067	0.073
1067	0.075
1068	0.076
1068	0.077
1068	0.079
1069	0.08
1069	0.081
1070	0.083
1070	0.085
1071	0.088
1071	0.09
1071	0.093
1072	0.096
1072	0.1
1073	0.103
1073	0.107
1073	0.11
1074	0.114
1074	0.117
1075	0.12
1075	0.123
1076	0.126
1076	0.13
1076	0.132
1077	0.136
1077	0.14
1078	0.144
1078	0.148
1078	0.153
1079	0.158
1079	0.162
1080	0.166
1080	0.171
1080	0.174
1081	0.178
1081	0.181
1082	0.186
1082	0.189
1083	0.193
1083	0.197
1083	0.202
1084	0.208
1084	0.216
1085	0.223
1085	0.231
1085	0.239
1086	0.246
1086	0.252
1087	0.261
1087	0.271
1088	0.279
1088	0.289
1088	0.3
1089	0.309
1089	0.321
1090	0.334
1090	0.351
1090	0.367
1091	0.386
1091	0.408
1092	0.43
1092	0.455
1092	0.479
1093	0.506
1093	0.54
1094	0.575
1094	0.615
1095	0.659
1095	0.714
1095	0.789
1096	0.874
1096	0.992
1097	1.184
1097	1.52
1097	-0
1098	-0
1098	-0
1099	-0
1099	-0
1100	-0
1100	-0
1100	-0
1101	-0
1101	-0
1102	-0
1102	-0
1102	-0
1103	-0
1103	-0
1104	-0
1104	-0
1104	-0
1105	-0
1105	-0
1106	-0
1106	-0
1107	-0
1107	-0
1107	-0
1108	-0
1108	-0
1109	-0
1109	-0
1109	-0
1110	-0
1110	-0
1111	-0
1111	-0
