Data from 15c-2-5a_Absorbance__9__01810.txt Node

Date: Fri Jan 19 13:43:35 CET 2024
User: Marek
Spectrometer: MAYP115816
Trigger mode: 0
Integration Time (sec): 2.000000E-1
Scans to average: 10
Electric dark correction enabled: true
Nonlinearity correction enabled: true
Boxcar width: 5
XAxis mode: Wavelengths
Number of Pixels in Spectrum: 2068
>>>>>Begin Spectral Data<<<<<
199	-2.42
199	-2.261
200	-2.114
200	-1.991
201	-1.921
201	-1.866
202	-1.791
202	-1.729
203	-1.675
203	-1.628
204	-1.6
204	-1.575
205	-1.554
205	-1.543
205	-1.541
206	-1.534
206	-1.53
207	-1.525
207	-1.52
208	-1.518
208	-1.515
209	-1.513
209	-1.507
210	-1.505
210	-1.503
211	-1.502
211	-1.5
212	-1.501
212	-1.5
213	-1.5
213	-1.497
213	-1.496
214	-1.491
214	-1.49
215	-1.488
215	-1.486
216	-1.482
216	-1.482
217	-1.478
217	-1.476
218	-1.473
218	-1.471
219	-1.467
219	-1.467
220	-1.465
220	-1.464
221	-1.463
221	-1.457
221	-1.452
222	-1.449
222	-1.445
223	-1.439
223	-1.435
224	-1.428
224	-1.421
225	-1.413
225	-1.402
226	-1.391
226	-1.38
227	-1.367
227	-1.353
228	-1.336
228	-1.32
229	-1.3
229	-1.278
229	-1.251
230	-1.222
230	-1.19
231	-1.155
231	-1.116
232	-1.076
232	-1.032
233	-0.985
233	-0.936
234	-0.887
234	-0.837
235	-0.788
235	-0.739
236	-0.691
236	-0.644
236	-0.598
237	-0.553
237	-0.51
238	-0.47
238	-0.432
239	-0.395
239	-0.362
240	-0.33
240	-0.3
241	-0.272
241	-0.246
242	-0.223
242	-0.201
243	-0.181
243	-0.163
243	-0.146
244	-0.13
244	-0.116
245	-0.103
245	-0.09
246	-0.079
246	-0.068
247	-0.059
247	-0.05
248	-0.042
248	-0.034
249	-0.027
249	-0.02
250	-0.014
250	-0.008
250	-0.002
251	0.003
251	0.008
252	0.013
252	0.017
253	0.022
253	0.025
254	0.029
254	0.033
255	0.035
255	0.039
256	0.041
256	0.044
257	0.046
257	0.048
258	0.049
258	0.051
258	0.053
259	0.054
259	0.055
260	0.056
260	0.057
261	0.058
261	0.059
262	0.059
262	0.06
263	0.061
263	0.061
264	0.062
264	0.062
265	0.062
265	0.063
265	0.063
266	0.063
266	0.063
267	0.063
267	0.063
268	0.063
268	0.063
269	0.062
269	0.062
270	0.062
270	0.061
271	0.061
271	0.06
272	0.06
272	0.059
272	0.059
273	0.058
273	0.058
274	0.058
274	0.057
275	0.057
275	0.056
276	0.056
276	0.055
277	0.054
277	0.053
278	0.051
278	0.05
278	0.049
279	0.048
279	0.047
280	0.047
280	0.047
281	0.047
281	0.046
282	0.046
282	0.046
283	0.047
283	0.047
284	0.047
284	0.047
285	0.047
285	0.047
285	0.046
286	0.046
286	0.046
287	0.045
287	0.045
288	0.045
288	0.044
289	0.044
289	0.044
290	0.044
290	0.043
291	0.043
291	0.043
292	0.043
292	0.043
292	0.043
293	0.042
293	0.042
294	0.042
294	0.042
295	0.042
295	0.042
296	0.042
296	0.042
297	0.042
297	0.042
298	0.042
298	0.042
298	0.042
299	0.042
299	0.042
300	0.042
300	0.042
301	0.042
301	0.041
302	0.041
302	0.041
303	0.041
303	0.041
304	0.041
304	0.041
305	0.041
305	0.041
305	0.041
306	0.041
306	0.041
307	0.04
307	0.04
308	0.04
308	0.04
309	0.039
309	0.039
310	0.039
310	0.039
311	0.039
311	0.039
311	0.038
312	0.038
312	0.038
313	0.038
313	0.037
314	0.037
314	0.037
315	0.036
315	0.036
316	0.036
316	0.035
317	0.035
317	0.034
318	0.034
318	0.034
318	0.033
319	0.033
319	0.033
320	0.032
320	0.032
321	0.031
321	0.031
322	0.03
322	0.03
323	0.029
323	0.029
324	0.028
324	0.028
324	0.027
325	0.027
325	0.027
326	0.027
326	0.026
327	0.026
327	0.025
328	0.025
328	0.025
329	0.024
329	0.024
330	0.023
330	0.023
330	0.022
331	0.022
331	0.021
332	0.021
332	0.021
333	0.02
333	0.02
334	0.019
334	0.019
335	0.018
335	0.018
336	0.017
336	0.017
336	0.016
337	0.016
337	0.015
338	0.015
338	0.014
339	0.013
339	0.013
340	0.012
340	0.012
341	0.012
341	0.011
342	0.011
342	0.011
342	0.01
343	0.01
343	0.009
344	0.009
344	0.008
345	0.008
345	0.007
346	0.007
346	0.006
347	0.005
347	0.005
348	0.004
348	0.003
348	0.003
349	0.002
349	0.001
350	0.001
350	0
351	-0.001
351	-0.002
352	-0.002
352	-0.003
353	-0.004
353	-0.005
354	-0.006
354	-0.007
354	-0.008
355	-0.009
355	-0.01
356	-0.011
356	-0.012
357	-0.012
357	-0.013
358	-0.013
358	-0.012
359	-0.012
359	-0.011
360	-0.01
360	-0.009
360	-0.008
361	-0.008
361	-0.007
362	-0.007
362	-0.007
363	-0.007
363	-0.008
364	-0.008
364	-0.009
365	-0.009
365	-0.01
366	-0.01
366	-0.01
366	-0.01
367	-0.011
367	-0.011
368	-0.011
368	-0.011
369	-0.011
369	-0.012
370	-0.012
370	-0.013
371	-0.013
371	-0.014
372	-0.014
372	-0.014
372	-0.015
373	-0.015
373	-0.015
374	-0.015
374	-0.015
375	-0.015
375	-0.015
376	-0.015
376	-0.014
377	-0.014
377	-0.013
378	-0.013
378	-0.012
378	-0.012
379	-0.012
379	-0.012
380	-0.011
380	-0.011
381	-0.011
381	-0.011
382	-0.012
382	-0.012
383	-0.012
383	-0.013
383	-0.013
384	-0.013
384	-0.013
385	-0.014
385	-0.014
386	-0.014
386	-0.014
387	-0.013
387	-0.013
388	-0.014
388	-0.014
389	-0.014
389	-0.014
389	-0.014
390	-0.013
390	-0.013
391	-0.012
391	-0.012
392	-0.012
392	-0.012
393	-0.012
393	-0.012
394	-0.012
394	-0.012
394	-0.012
395	-0.012
395	-0.013
396	-0.013
396	-0.013
397	-0.013
397	-0.012
398	-0.012
398	-0.012
399	-0.012
399	-0.012
400	-0.012
400	-0.012
400	-0.012
401	-0.013
401	-0.014
402	-0.015
402	-0.015
403	-0.016
403	-0.016
404	-0.016
404	-0.016
405	-0.017
405	-0.017
405	-0.017
406	-0.018
406	-0.018
407	-0.018
407	-0.018
408	-0.019
408	-0.02
409	-0.02
409	-0.021
410	-0.021
410	-0.021
411	-0.021
411	-0.02
411	-0.021
412	-0.021
412	-0.021
413	-0.021
413	-0.021
414	-0.021
414	-0.022
415	-0.022
415	-0.022
416	-0.023
416	-0.023
416	-0.024
417	-0.024
417	-0.024
418	-0.024
418	-0.024
419	-0.023
419	-0.023
420	-0.022
420	-0.021
421	-0.021
421	-0.02
421	-0.019
422	-0.019
422	-0.019
423	-0.019
423	-0.019
424	-0.019
424	-0.02
425	-0.021
425	-0.022
426	-0.023
426	-0.023
427	-0.023
427	-0.023
427	-0.023
428	-0.022
428	-0.022
429	-0.021
429	-0.02
430	-0.02
430	-0.02
431	-0.02
431	-0.021
432	-0.021
432	-0.022
432	-0.024
433	-0.025
433	-0.026
434	-0.027
434	-0.028
435	-0.028
435	-0.028
436	-0.028
436	-0.027
437	-0.027
437	-0.027
437	-0.027
438	-0.027
438	-0.027
439	-0.027
439	-0.028
440	-0.028
440	-0.028
441	-0.028
441	-0.028
442	-0.027
442	-0.027
442	-0.027
443	-0.026
443	-0.026
444	-0.026
444	-0.025
445	-0.025
445	-0.025
446	-0.026
446	-0.026
447	-0.026
447	-0.027
447	-0.027
448	-0.028
448	-0.028
449	-0.028
449	-0.029
450	-0.029
450	-0.029
451	-0.03
451	-0.03
452	-0.031
452	-0.032
452	-0.033
453	-0.033
453	-0.034
454	-0.035
454	-0.036
455	-0.037
455	-0.037
456	-0.038
456	-0.038
457	-0.038
457	-0.038
458	-0.039
458	-0.039
458	-0.039
459	-0.039
459	-0.039
460	-0.04
460	-0.041
461	-0.042
461	-0.043
462	-0.043
462	-0.043
463	-0.043
463	-0.042
463	-0.042
464	-0.041
464	-0.041
465	-0.041
465	-0.041
466	-0.042
466	-0.042
467	-0.042
467	-0.043
467	-0.044
468	-0.046
468	-0.049
469	-0.051
469	-0.053
470	-0.054
470	-0.055
471	-0.056
471	-0.057
472	-0.057
472	-0.057
472	-0.057
473	-0.056
473	-0.055
474	-0.055
474	-0.054
475	-0.053
475	-0.053
476	-0.053
476	-0.053
477	-0.053
477	-0.053
477	-0.053
478	-0.054
478	-0.054
479	-0.054
479	-0.054
480	-0.053
480	-0.053
481	-0.053
481	-0.053
482	-0.052
482	-0.052
482	-0.051
483	-0.049
483	-0.046
484	-0.043
484	-0.041
485	-0.04
485	-0.039
486	-0.038
486	-0.038
487	-0.038
487	-0.039
487	-0.039
488	-0.041
488	-0.044
489	-0.047
489	-0.05
490	-0.052
490	-0.054
491	-0.056
491	-0.057
492	-0.057
492	-0.058
492	-0.058
493	-0.058
493	-0.058
494	-0.058
494	-0.056
495	-0.055
495	-0.055
496	-0.055
496	-0.055
496	-0.054
497	-0.054
497	-0.054
498	-0.054
498	-0.054
499	-0.055
499	-0.056
500	-0.057
500	-0.056
501	-0.056
501	-0.055
501	-0.055
502	-0.054
502	-0.054
503	-0.053
503	-0.053
504	-0.053
504	-0.053
505	-0.054
505	-0.055
506	-0.056
506	-0.057
506	-0.057
507	-0.058
507	-0.059
508	-0.06
508	-0.061
509	-0.062
509	-0.062
510	-0.062
510	-0.063
511	-0.063
511	-0.064
511	-0.065
512	-0.066
512	-0.067
513	-0.068
513	-0.069
514	-0.071
514	-0.072
515	-0.073
515	-0.074
515	-0.076
516	-0.077
516	-0.078
517	-0.078
517	-0.078
518	-0.078
518	-0.079
519	-0.079
519	-0.081
520	-0.083
520	-0.085
520	-0.088
521	-0.09
521	-0.093
522	-0.097
522	-0.1
523	-0.103
523	-0.105
524	-0.106
524	-0.105
524	-0.104
525	-0.102
525	-0.1
526	-0.097
526	-0.093
527	-0.089
527	-0.085
528	-0.082
528	-0.079
529	-0.076
529	-0.075
529	-0.073
530	-0.072
530	-0.071
531	-0.07
531	-0.069
532	-0.069
532	-0.068
533	-0.067
533	-0.066
533	-0.065
534	-0.065
534	-0.064
535	-0.064
535	-0.064
536	-0.063
536	-0.062
537	-0.062
537	-0.062
538	-0.062
538	-0.062
538	-0.062
539	-0.062
539	-0.062
540	-0.062
540	-0.062
541	-0.063
541	-0.063
542	-0.064
542	-0.064
542	-0.064
543	-0.063
543	-0.063
544	-0.063
544	-0.063
545	-0.062
545	-0.06
546	-0.059
546	-0.058
547	-0.057
547	-0.058
547	-0.059
548	-0.06
548	-0.061
549	-0.061
549	-0.061
550	-0.062
550	-0.062
551	-0.063
551	-0.064
551	-0.064
552	-0.063
552	-0.063
553	-0.061
553	-0.06
554	-0.058
554	-0.058
555	-0.059
555	-0.06
556	-0.061
556	-0.063
556	-0.064
557	-0.066
557	-0.066
558	-0.067
558	-0.067
559	-0.067
559	-0.066
560	-0.065
560	-0.063
560	-0.062
561	-0.06
561	-0.058
562	-0.057
562	-0.056
563	-0.056
563	-0.057
564	-0.058
564	-0.06
564	-0.061
565	-0.061
565	-0.06
566	-0.06
566	-0.059
567	-0.056
567	-0.053
568	-0.049
568	-0.045
568	-0.042
569	-0.037
569	-0.033
570	-0.029
570	-0.027
571	-0.025
571	-0.022
572	-0.02
572	-0.018
573	-0.016
573	-0.015
573	-0.014
574	-0.014
574	-0.013
575	-0.012
575	-0.009
576	-0.006
576	-0.005
577	-0.005
577	-0.006
577	-0.006
578	-0.006
578	-0.006
579	-0.004
579	-0.001
580	-0
580	-0.001
581	-0.004
581	-0.006
581	-0.007
582	-0.007
582	-0.007
583	-0.005
583	-0.004
584	-0.006
584	-0.01
585	-0.012
585	-0.012
585	-0.011
586	-0.011
586	-0.01
587	-0.011
587	-0.013
588	-0.016
588	-0.019
589	-0.021
589	-0.023
590	-0.024
590	-0.024
590	-0.024
591	-0.022
591	-0.021
592	-0.02
592	-0.021
593	-0.021
593	-0.02
594	-0.02
594	-0.021
594	-0.021
595	-0.021
595	-0.023
596	-0.025
596	-0.025
597	-0.023
597	-0.02
598	-0.018
598	-0.016
598	-0.015
599	-0.014
599	-0.014
600	-0.015
600	-0.017
601	-0.018
601	-0.019
602	-0.02
602	-0.022
602	-0.024
603	-0.025
603	-0.025
604	-0.023
604	-0.022
605	-0.019
605	-0.017
606	-0.015
606	-0.015
606	-0.016
607	-0.016
607	-0.017
608	-0.018
608	-0.02
609	-0.022
609	-0.024
610	-0.027
610	-0.029
610	-0.031
611	-0.032
611	-0.032
612	-0.031
612	-0.03
613	-0.029
613	-0.027
614	-0.027
614	-0.028
614	-0.028
615	-0.028
615	-0.029
616	-0.03
616	-0.03
617	-0.031
617	-0.033
618	-0.035
618	-0.037
618	-0.039
619	-0.04
619	-0.04
620	-0.039
620	-0.038
621	-0.038
621	-0.038
622	-0.038
622	-0.038
622	-0.039
623	-0.039
623	-0.039
624	-0.038
624	-0.039
625	-0.041
625	-0.041
626	-0.042
626	-0.043
626	-0.043
627	-0.043
627	-0.043
628	-0.042
628	-0.042
629	-0.042
629	-0.043
630	-0.044
630	-0.046
630	-0.047
631	-0.047
631	-0.048
632	-0.05
632	-0.051
633	-0.052
633	-0.053
634	-0.052
634	-0.051
634	-0.049
635	-0.047
635	-0.047
636	-0.046
636	-0.045
637	-0.045
637	-0.045
638	-0.044
638	-0.044
638	-0.044
639	-0.045
639	-0.046
640	-0.047
640	-0.047
641	-0.047
641	-0.047
642	-0.046
642	-0.046
642	-0.045
643	-0.045
643	-0.045
644	-0.044
644	-0.043
645	-0.042
645	-0.041
646	-0.04
646	-0.037
646	-0.035
647	-0.032
647	-0.029
648	-0.027
648	-0.025
649	-0.024
649	-0.021
650	-0.019
650	-0.017
650	-0.016
651	-0.015
651	-0.014
652	-0.014
652	-0.013
653	-0.012
653	-0.005
653	0.019
654	0.021
654	0.023
655	0.023
655	0.024
656	0.024
656	0.025
657	0.026
657	0.026
657	0.026
658	0.023
658	0.007
659	0.004
659	0.001
660	0.001
660	0.001
661	0.001
661	0.001
661	0.001
662	0.003
662	0.004
663	0.005
663	0.007
664	0.008
664	0.009
665	0.01
665	0.011
665	0.012
666	0.013
666	0.014
667	0.014
667	0.015
668	0.016
668	0.016
669	0.017
669	0.019
669	0.021
670	0.024
670	0.026
671	0.027
671	0.027
672	0.028
672	0.029
672	0.029
673	0.029
673	0.03
674	0.03
674	0.03
675	0.029
675	0.029
676	0.03
676	0.032
676	0.033
677	0.034
677	0.036
678	0.038
678	0.04
679	0.041
679	0.041
680	0.043
680	0.044
680	0.044
681	0.045
681	0.045
682	0.046
682	0.047
683	0.048
683	0.05
684	0.053
684	0.054
684	0.054
685	0.054
685	0.055
686	0.056
686	0.056
687	0.055
687	0.055
687	0.054
688	0.053
688	0.052
689	0.053
689	0.054
690	0.055
690	0.055
691	0.055
691	0.056
691	0.056
692	0.057
692	0.056
693	0.056
693	0.057
694	0.056
694	0.054
695	0.054
695	0.056
695	0.057
696	0.057
696	0.057
697	0.057
697	0.056
698	0.056
698	0.055
698	0.054
699	0.054
699	0.053
700	0.05
700	0.049
701	0.049
701	0.049
702	0.049
702	0.049
702	0.049
703	0.049
703	0.049
704	0.049
704	0.05
705	0.052
705	0.053
705	0.054
706	0.054
706	0.054
707	0.054
707	0.053
708	0.052
708	0.051
709	0.05
709	0.049
709	0.046
710	0.043
710	0.041
711	0.04
711	0.04
712	0.039
712	0.039
713	0.039
713	0.039
713	0.038
714	0.037
714	0.036
715	0.035
715	0.034
716	0.033
716	0.032
716	0.031
717	0.031
717	0.03
718	0.029
718	0.028
719	0.027
719	0.027
720	0.027
720	0.026
720	0.025
721	0.023
721	0.021
722	0.02
722	0.018
723	0.017
723	0.017
723	0.016
724	0.015
724	0.014
725	0.012
725	0.011
726	0.01
726	0.009
727	0.008
727	0.007
727	0.006
728	0.005
728	0.004
729	0.005
729	0.006
730	0.005
730	0.005
730	0.004
731	0.004
731	0.004
732	0.004
732	0.004
733	0.002
733	0.001
734	-0.001
734	-0.003
734	-0.004
735	-0.005
735	-0.006
736	-0.008
736	-0.01
737	-0.012
737	-0.013
737	-0.013
738	-0.015
738	-0.017
739	-0.019
739	-0.021
740	-0.023
740	-0.025
741	-0.026
741	-0.028
741	-0.031
742	-0.037
742	-0.041
743	-0.044
743	-0.047
744	-0.049
744	-0.051
744	-0.053
745	-0.055
745	-0.056
746	-0.057
746	-0.057
747	-0.055
747	-0.053
748	-0.051
748	-0.05
748	-0.048
749	-0.048
749	-0.047
750	-0.047
750	-0.047
751	-0.047
751	-0.047
751	-0.047
752	-0.048
752	-0.05
753	-0.051
753	-0.052
754	-0.053
754	-0.053
754	-0.052
755	-0.05
755	-0.048
756	-0.046
756	-0.047
757	-0.047
757	-0.047
758	-0.046
758	-0.047
758	-0.047
759	-0.047
759	-0.05
760	-0.053
760	-0.057
761	-0.06
761	-0.062
761	-0.064
762	-0.066
762	-0.068
763	-0.069
763	-0.072
764	-0.076
764	-0.079
764	-0.082
765	-0.085
765	-0.088
766	-0.089
766	-0.09
767	-0.091
767	-0.094
768	-0.098
768	-0.101
768	-0.102
769	-0.102
769	-0.103
770	-0.104
770	-0.105
771	-0.108
771	-0.111
771	-0.115
772	-0.118
772	-0.12
773	-0.123
773	-0.126
774	-0.131
774	-0.136
775	-0.14
775	-0.144
775	-0.149
776	-0.155
776	-0.159
777	-0.162
777	-0.163
778	-0.165
778	-0.168
778	-0.169
779	-0.167
779	-0.162
780	-0.158
780	-0.155
781	-0.152
781	-0.149
781	-0.147
782	-0.146
782	-0.146
783	-0.145
783	-0.143
784	-0.143
784	-0.146
784	-0.147
785	-0.149
785	-0.15
786	-0.151
786	-0.149
787	-0.144
787	-0.14
788	-0.139
788	-0.14
788	-0.141
789	-0.144
789	-0.144
790	-0.141
790	-0.14
791	-0.141
791	-0.143
791	-0.145
792	-0.14
792	-0.13
793	-0.124
793	-0.12
794	-0.118
794	-0.119
794	-0.123
795	-0.125
795	-0.125
796	-0.125
796	-0.127
797	-0.136
797	-0.146
797	-0.153
798	-0.158
798	-0.161
799	-0.162
799	-0.161
800	-0.161
800	-0.163
801	-0.165
801	-0.166
801	-0.166
802	-0.167
802	-0.167
803	-0.168
803	-0.168
804	-0.167
804	-0.162
804	-0.155
805	-0.151
805	-0.149
806	-0.147
806	-0.146
807	-0.145
807	-0.144
807	-0.144
808	-0.144
808	-0.144
809	-0.149
809	-0.154
810	-0.158
810	-0.161
810	-0.164
811	-0.167
811	-0.168
812	-0.165
812	-0.162
813	-0.163
813	-0.164
813	-0.165
814	-0.166
814	-0.167
815	-0.165
815	-0.162
816	-0.161
816	-0.161
817	-0.165
817	-0.169
817	-0.169
818	-0.168
818	-0.164
819	-0.159
819	-0.155
820	-0.156
820	-0.158
820	-0.16
821	-0.16
821	-0.159
822	-0.158
822	-0.158
823	-0.157
823	-0.16
823	-0.163
824	-0.164
824	-0.163
825	-0.159
825	-0.153
826	-0.147
826	-0.143
826	-0.139
827	-0.133
827	-0.127
828	-0.121
828	-0.116
829	-0.11
829	-0.104
829	-0.1
830	-0.098
830	-0.095
831	-0.09
831	-0.087
832	-0.084
832	-0.082
832	-0.08
833	-0.078
833	-0.076
834	-0.075
834	-0.073
835	-0.071
835	-0.07
835	-0.068
836	-0.067
836	-0.065
837	-0.064
837	-0.062
838	-0.061
838	-0.06
839	-0.059
839	-0.058
839	-0.057
840	-0.056
840	-0.054
841	-0.053
841	-0.051
842	-0.048
842	-0.046
842	-0.043
843	-0.04
843	-0.037
844	-0.034
844	-0.031
845	-0.028
845	-0.025
845	-0.023
846	-0.021
846	-0.02
847	-0.018
847	-0.017
848	-0.016
848	-0.015
848	-0.015
849	-0.014
849	-0.013
850	-0.013
850	-0.013
851	-0.012
851	-0.012
851	-0.011
852	-0.01
852	-0.009
853	-0.008
853	-0.007
854	-0.006
854	-0.006
854	-0.005
855	-0.005
855	-0.005
856	-0.004
856	-0.004
857	-0.004
857	-0.005
857	-0.005
858	-0.004
858	-0.004
859	-0.004
859	-0.003
860	-0.002
860	-0.001
860	0.001
861	0.002
861	0.003
862	0.004
862	0.005
863	0.006
863	0.006
863	0.007
864	0.007
864	0.007
865	0.008
865	0.008
866	0.008
866	0.009
866	0.009
867	0.01
867	0.01
868	0.011
868	0.011
869	0.012
869	0.012
869	0.011
870	0.012
870	0.012
871	0.012
871	0.012
872	0.013
872	0.013
872	0.014
873	0.014
873	0.015
874	0.015
874	0.016
875	0.017
875	0.017
875	0.017
876	0.018
876	0.018
877	0.018
877	0.018
878	0.017
878	0.017
878	0.016
879	0.015
879	0.014
880	0.014
880	0.013
881	0.013
881	0.013
881	0.014
882	0.015
882	0.016
883	0.018
883	0.02
884	0.022
884	0.024
884	0.025
885	0.027
885	0.029
886	0.03
886	0.031
887	0.031
887	0.031
887	0.031
888	0.03
888	0.03
889	0.029
889	0.029
890	0.029
890	0.028
890	0.027
891	0.027
891	0.026
892	0.026
892	0.026
893	0.026
893	0.025
893	0.025
894	0.025
894	0.025
895	0.025
895	0.025
895	0.025
896	0.025
896	0.024
897	0.024
897	0.024
898	0.024
898	0.024
898	0.024
899	0.024
899	0.025
900	0.025
900	0.025
901	0.026
901	0.027
901	0.028
902	0.028
902	0.029
903	0.03
903	0.031
904	0.032
904	0.033
904	0.033
905	0.034
905	0.034
906	0.035
906	0.035
907	0.035
907	0.035
907	0.035
908	0.035
908	0.035
909	0.034
909	0.034
910	0.034
910	0.033
910	0.033
911	0.033
911	0.033
912	0.033
912	0.033
913	0.033
913	0.033
913	0.033
914	0.033
914	0.033
915	0.033
915	0.033
916	0.033
916	0.033
916	0.033
917	0.034
917	0.034
918	0.034
918	0.035
918	0.035
919	0.036
919	0.036
920	0.037
920	0.038
921	0.038
921	0.038
921	0.038
922	0.038
922	0.038
923	0.037
923	0.036
924	0.036
924	0.035
924	0.033
925	0.032
925	0.031
926	0.03
926	0.029
927	0.028
927	0.027
927	0.027
928	0.026
928	0.026
929	0.026
929	0.026
930	0.026
930	0.027
930	0.027
931	0.027
931	0.027
932	0.028
932	0.028
933	0.029
933	0.029
933	0.03
934	0.03
934	0.031
935	0.031
935	0.032
935	0.033
936	0.034
936	0.034
937	0.036
937	0.037
938	0.038
938	0.039
938	0.04
939	0.041
939	0.042
940	0.043
940	0.044
941	0.044
941	0.045
941	0.046
942	0.046
942	0.047
943	0.047
943	0.048
944	0.048
944	0.049
944	0.049
945	0.05
945	0.05
946	0.051
946	0.05
946	0.05
947	0.05
947	0.049
948	0.048
948	0.047
949	0.046
949	0.046
949	0.046
950	0.045
950	0.045
951	0.044
951	0.044
952	0.044
952	0.043
952	0.043
953	0.042
953	0.042
954	0.041
954	0.04
955	0.039
955	0.038
955	0.037
956	0.037
956	0.036
957	0.035
957	0.034
957	0.033
958	0.032
958	0.031
959	0.031
959	0.03
960	0.03
960	0.03
960	0.029
961	0.029
961	0.03
962	0.03
962	0.03
963	0.031
963	0.031
963	0.032
964	0.032
964	0.033
965	0.033
965	0.034
966	0.034
966	0.035
966	0.036
967	0.036
967	0.037
968	0.037
968	0.037
968	0.038
969	0.038
969	0.039
970	0.039
970	0.039
971	0.039
971	0.039
971	0.039
972	0.04
972	0.04
973	0.04
973	0.04
974	0.041
974	0.041
974	0.042
975	0.043
975	0.043
976	0.044
976	0.045
976	0.045
977	0.045
977	0.045
978	0.044
978	0.044
979	0.044
979	0.043
979	0.043
980	0.041
980	0.041
981	0.04
981	0.039
982	0.038
982	0.038
982	0.037
983	0.036
983	0.035
984	0.034
984	0.033
984	0.033
985	0.032
985	0.032
986	0.031
986	0.03
987	0.03
987	0.03
987	0.03
988	0.031
988	0.031
989	0.032
989	0.032
990	0.033
990	0.034
990	0.036
991	0.037
991	0.038
992	0.039
992	0.039
992	0.039
993	0.039
993	0.04
994	0.04
994	0.039
995	0.039
995	0.039
995	0.038
996	0.038
996	0.038
997	0.038
997	0.039
997	0.04
998	0.041
998	0.042
999	0.043
999	0.045
1000	0.046
1000	0.047
1000	0.048
1001	0.048
1001	0.048
1002	0.048
1002	0.048
1003	0.047
1003	0.046
1003	0.045
1004	0.045
1004	0.044
1005	0.043
1005	0.042
1005	0.041
1006	0.04
1006	0.04
1007	0.04
1007	0.039
1008	0.039
1008	0.039
1008	0.039
1009	0.04
1009	0.04
1010	0.04
1010	0.04
1010	0.041
1011	0.041
1011	0.042
1012	0.042
1012	0.042
1013	0.043
1013	0.043
1013	0.043
1014	0.043
1014	0.044
1015	0.044
1015	0.045
1016	0.045
1016	0.045
1016	0.046
1017	0.046
1017	0.047
1018	0.048
1018	0.048
1018	0.049
1019	0.05
1019	0.05
1020	0.05
1020	0.051
1021	0.051
1021	0.051
1021	0.051
1022	0.051
1022	0.052
1023	0.052
1023	0.052
1023	0.052
1024	0.051
1024	0.051
1025	0.051
1025	0.051
1026	0.051
1026	0.051
1026	0.051
1027	0.051
1027	0.051
1028	0.051
1028	0.051
1028	0.05
1029	0.05
1029	0.049
1030	0.049
1030	0.049
1031	0.048
1031	0.048
1031	0.048
1032	0.047
1032	0.047
1033	0.047
1033	0.047
1033	0.047
1034	0.047
1034	0.047
1035	0.047
1035	0.047
1036	0.048
1036	0.049
1036	0.049
1037	0.05
1037	0.051
1038	0.052
1038	0.054
1039	0.056
1039	0.058
1039	0.06
1040	0.061
1040	0.063
1041	0.064
1041	0.064
1041	0.065
1042	0.066
1042	0.066
1043	0.067
1043	0.067
1044	0.068
1044	0.068
1044	0.069
1045	0.07
1045	0.071
1046	0.072
1046	0.073
1046	0.075
1047	0.077
1047	0.079
1048	0.081
1048	0.082
1049	0.083
1049	0.084
1049	0.085
1050	0.086
1050	0.087
1051	0.088
1051	0.09
1051	0.092
1052	0.093
1052	0.095
1053	0.096
1053	0.098
1053	0.099
1054	0.101
1054	0.102
1055	0.104
1055	0.104
1056	0.104
1056	0.104
1056	0.104
1057	0.104
1057	0.105
1058	0.106
1058	0.107
1058	0.108
1059	0.109
1059	0.111
1060	0.112
1060	0.114
1061	0.117
1061	0.119
1061	0.121
1062	0.121
1062	0.122
1063	0.123
1063	0.124
1063	0.126
1064	0.128
1064	0.13
1065	0.132
1065	0.133
1066	0.135
1066	0.137
1066	0.139
1067	0.142
1067	0.145
1068	0.148
1068	0.15
1068	0.152
1069	0.155
1069	0.157
1070	0.161
1070	0.165
1071	0.169
1071	0.174
1071	0.178
1072	0.184
1072	0.189
1073	0.195
1073	0.201
1073	0.207
1074	0.214
1074	0.219
1075	0.224
1075	0.229
1076	0.234
1076	0.242
1076	0.247
1077	0.254
1077	0.262
1078	0.269
1078	0.276
1078	0.284
1079	0.292
1079	0.3
1080	0.308
1080	0.316
1080	0.321
1081	0.329
1081	0.336
1082	0.345
1082	0.354
1083	0.363
1083	0.374
1083	0.386
1084	0.398
1084	0.413
1085	0.428
1085	0.444
1085	0.46
1086	0.477
1086	0.491
1087	0.51
1087	0.529
1088	0.549
1088	0.572
1088	0.602
1089	0.632
1089	0.671
1090	0.717
1090	0.773
1090	0.838
1091	0.919
1091	1.028
1092	1.169
1092	1.409
1092	1.954
1093	-0
1093	-0
1094	-0
1094	-0
1095	-0
1095	-0
1095	-0
1096	-0
1096	-0
1097	-0
1097	-0
1097	-0
1098	-0
1098	-0
1099	-0
1099	-0
1100	-0
1100	-0
1100	-0
1101	-0
1101	-0
1102	-0
1102	-0
1102	-0
1103	-0
1103	-0
1104	-0
1104	-0
1104	-0
1105	-0
1105	-0
1106	-0
1106	-0
1107	-0
1107	-0
1107	-0
1108	-0
1108	-0
1109	-0
1109	-0
1109	-0
1110	-0
1110	-0
1111	-0
1111	-0
