Data from 15c-2-5a_Absorbance__458__02259.txt Node

Date: Fri Jan 19 13:58:33 CET 2024
User: Marek
Spectrometer: MAYP115816
Trigger mode: 0
Integration Time (sec): 2.000000E-1
Scans to average: 10
Electric dark correction enabled: true
Nonlinearity correction enabled: true
Boxcar width: 5
XAxis mode: Wavelengths
Number of Pixels in Spectrum: 2068
>>>>>Begin Spectral Data<<<<<
199	-2.28
199	-2.122
200	-1.976
200	-1.854
201	-1.784
201	-1.729
202	-1.655
202	-1.594
203	-1.541
203	-1.495
204	-1.467
204	-1.442
205	-1.422
205	-1.41
205	-1.408
206	-1.402
206	-1.398
207	-1.393
207	-1.388
208	-1.385
208	-1.382
209	-1.38
209	-1.375
210	-1.372
210	-1.371
211	-1.369
211	-1.367
212	-1.368
212	-1.368
213	-1.368
213	-1.365
213	-1.364
214	-1.36
214	-1.359
215	-1.356
215	-1.354
216	-1.351
216	-1.351
217	-1.346
217	-1.344
218	-1.341
218	-1.338
219	-1.335
219	-1.334
220	-1.332
220	-1.332
221	-1.33
221	-1.324
221	-1.319
222	-1.316
222	-1.311
223	-1.306
223	-1.301
224	-1.294
224	-1.287
225	-1.28
225	-1.268
226	-1.257
226	-1.247
227	-1.233
227	-1.219
228	-1.203
228	-1.187
229	-1.166
229	-1.144
229	-1.117
230	-1.088
230	-1.056
231	-1.02
231	-0.982
232	-0.941
232	-0.897
233	-0.85
233	-0.8
234	-0.751
234	-0.701
235	-0.651
235	-0.601
236	-0.553
236	-0.505
236	-0.458
237	-0.412
237	-0.369
238	-0.327
238	-0.288
239	-0.251
239	-0.216
240	-0.183
240	-0.152
241	-0.124
241	-0.097
242	-0.073
242	-0.05
243	-0.029
243	-0.01
243	0.008
244	0.025
244	0.04
245	0.053
245	0.066
246	0.078
246	0.089
247	0.099
247	0.108
248	0.117
248	0.125
249	0.133
249	0.14
250	0.146
250	0.153
250	0.158
251	0.164
251	0.169
252	0.174
252	0.179
253	0.183
253	0.187
254	0.191
254	0.195
255	0.198
255	0.201
256	0.204
256	0.207
257	0.209
257	0.211
258	0.213
258	0.215
258	0.216
259	0.218
259	0.219
260	0.22
260	0.221
261	0.222
261	0.223
262	0.224
262	0.224
263	0.225
263	0.225
264	0.226
264	0.226
265	0.226
265	0.226
265	0.226
266	0.227
266	0.226
267	0.226
267	0.225
268	0.225
268	0.224
269	0.223
269	0.223
270	0.222
270	0.221
271	0.22
271	0.219
272	0.218
272	0.217
272	0.216
273	0.215
273	0.214
274	0.213
274	0.212
275	0.211
275	0.21
276	0.209
276	0.208
277	0.206
277	0.205
278	0.203
278	0.201
278	0.2
279	0.198
279	0.197
280	0.196
280	0.195
281	0.194
281	0.193
282	0.193
282	0.192
283	0.192
283	0.192
284	0.192
284	0.191
285	0.19
285	0.19
285	0.189
286	0.188
286	0.187
287	0.186
287	0.186
288	0.185
288	0.184
289	0.183
289	0.182
290	0.182
290	0.181
291	0.18
291	0.179
292	0.179
292	0.178
292	0.177
293	0.177
293	0.176
294	0.175
294	0.175
295	0.174
295	0.174
296	0.173
296	0.173
297	0.172
297	0.172
298	0.172
298	0.171
298	0.171
299	0.17
299	0.17
300	0.169
300	0.169
301	0.168
301	0.168
302	0.167
302	0.167
303	0.166
303	0.166
304	0.165
304	0.165
305	0.164
305	0.164
305	0.163
306	0.163
306	0.163
307	0.162
307	0.161
308	0.161
308	0.16
309	0.16
309	0.159
310	0.158
310	0.158
311	0.157
311	0.156
311	0.156
312	0.155
312	0.154
313	0.154
313	0.153
314	0.153
314	0.152
315	0.151
315	0.151
316	0.15
316	0.149
317	0.149
317	0.148
318	0.148
318	0.147
318	0.146
319	0.145
319	0.145
320	0.144
320	0.143
321	0.143
321	0.142
322	0.141
322	0.14
323	0.139
323	0.138
324	0.138
324	0.137
324	0.136
325	0.135
325	0.135
326	0.134
326	0.133
327	0.133
327	0.132
328	0.132
328	0.131
329	0.13
329	0.13
330	0.129
330	0.128
330	0.127
331	0.127
331	0.126
332	0.126
332	0.125
333	0.124
333	0.123
334	0.123
334	0.122
335	0.121
335	0.121
336	0.12
336	0.119
336	0.118
337	0.118
337	0.117
338	0.116
338	0.115
339	0.115
339	0.114
340	0.113
340	0.113
341	0.112
341	0.112
342	0.111
342	0.111
342	0.11
343	0.109
343	0.109
344	0.108
344	0.108
345	0.107
345	0.107
346	0.106
346	0.105
347	0.104
347	0.104
348	0.103
348	0.102
348	0.102
349	0.101
349	0.1
350	0.099
350	0.098
351	0.097
351	0.097
352	0.096
352	0.095
353	0.094
353	0.093
354	0.092
354	0.091
354	0.09
355	0.089
355	0.088
356	0.087
356	0.086
357	0.085
357	0.085
358	0.085
358	0.085
359	0.086
359	0.086
360	0.087
360	0.087
360	0.088
361	0.088
361	0.089
362	0.089
362	0.089
363	0.089
363	0.089
364	0.088
364	0.088
365	0.087
365	0.087
366	0.086
366	0.086
366	0.086
367	0.085
367	0.085
368	0.085
368	0.084
369	0.084
369	0.083
370	0.083
370	0.082
371	0.082
371	0.081
372	0.081
372	0.08
372	0.08
373	0.08
373	0.08
374	0.079
374	0.079
375	0.079
375	0.079
376	0.079
376	0.08
377	0.08
377	0.081
378	0.081
378	0.081
378	0.081
379	0.081
379	0.081
380	0.082
380	0.082
381	0.081
381	0.081
382	0.081
382	0.08
383	0.08
383	0.079
383	0.079
384	0.079
384	0.078
385	0.078
385	0.078
386	0.077
386	0.077
387	0.077
387	0.077
388	0.077
388	0.077
389	0.077
389	0.076
389	0.076
390	0.076
390	0.077
391	0.077
391	0.077
392	0.077
392	0.077
393	0.077
393	0.077
394	0.077
394	0.077
394	0.077
395	0.076
395	0.076
396	0.075
396	0.075
397	0.075
397	0.076
398	0.076
398	0.076
399	0.076
399	0.076
400	0.075
400	0.075
400	0.075
401	0.074
401	0.073
402	0.072
402	0.072
403	0.071
403	0.071
404	0.071
404	0.071
405	0.071
405	0.07
405	0.07
406	0.069
406	0.069
407	0.069
407	0.068
408	0.068
408	0.067
409	0.066
409	0.066
410	0.065
410	0.065
411	0.066
411	0.065
411	0.065
412	0.065
412	0.065
413	0.064
413	0.064
414	0.064
414	0.064
415	0.063
415	0.063
416	0.062
416	0.062
416	0.061
417	0.061
417	0.061
418	0.061
418	0.061
419	0.061
419	0.062
420	0.062
420	0.063
421	0.064
421	0.064
421	0.065
422	0.065
422	0.065
423	0.065
423	0.065
424	0.064
424	0.064
425	0.063
425	0.061
426	0.061
426	0.06
427	0.06
427	0.06
427	0.06
428	0.061
428	0.062
429	0.063
429	0.063
430	0.063
430	0.063
431	0.063
431	0.063
432	0.062
432	0.061
432	0.06
433	0.058
433	0.057
434	0.056
434	0.056
435	0.056
435	0.056
436	0.056
436	0.056
437	0.056
437	0.056
437	0.056
438	0.056
438	0.056
439	0.055
439	0.055
440	0.055
440	0.055
441	0.055
441	0.055
442	0.055
442	0.055
442	0.056
443	0.056
443	0.056
444	0.056
444	0.056
445	0.056
445	0.056
446	0.056
446	0.056
447	0.055
447	0.055
447	0.055
448	0.055
448	0.055
449	0.054
449	0.054
450	0.054
450	0.054
451	0.053
451	0.053
452	0.052
452	0.051
452	0.051
453	0.05
453	0.049
454	0.048
454	0.048
455	0.047
455	0.046
456	0.046
456	0.046
457	0.046
457	0.045
458	0.045
458	0.045
458	0.045
459	0.045
459	0.045
460	0.044
460	0.043
461	0.042
461	0.042
462	0.041
462	0.042
463	0.042
463	0.043
463	0.043
464	0.043
464	0.044
465	0.044
465	0.044
466	0.044
466	0.044
467	0.044
467	0.043
467	0.042
468	0.04
468	0.038
469	0.036
469	0.034
470	0.034
470	0.033
471	0.032
471	0.032
472	0.032
472	0.032
472	0.032
473	0.033
473	0.034
474	0.035
474	0.036
475	0.036
475	0.037
476	0.037
476	0.037
477	0.037
477	0.037
477	0.038
478	0.037
478	0.037
479	0.038
479	0.038
480	0.039
480	0.04
481	0.04
481	0.041
482	0.042
482	0.043
482	0.044
483	0.046
483	0.049
484	0.053
484	0.055
485	0.057
485	0.058
486	0.059
486	0.06
487	0.06
487	0.059
487	0.059
488	0.058
488	0.056
489	0.053
489	0.05
490	0.049
490	0.048
491	0.047
491	0.046
492	0.047
492	0.047
492	0.047
493	0.047
493	0.048
494	0.049
494	0.051
495	0.053
495	0.053
496	0.054
496	0.055
496	0.055
497	0.056
497	0.056
498	0.057
498	0.057
499	0.057
499	0.057
500	0.057
500	0.058
501	0.059
501	0.06
501	0.061
502	0.062
502	0.064
503	0.065
503	0.066
504	0.066
504	0.066
505	0.065
505	0.065
506	0.065
506	0.065
506	0.065
507	0.064
507	0.064
508	0.063
508	0.063
509	0.063
509	0.064
510	0.064
510	0.065
511	0.064
511	0.064
511	0.064
512	0.064
512	0.064
513	0.063
513	0.062
514	0.06
514	0.059
515	0.058
515	0.057
515	0.056
516	0.055
516	0.055
517	0.055
517	0.055
518	0.055
518	0.054
519	0.053
519	0.05
520	0.048
520	0.046
520	0.043
521	0.04
521	0.038
522	0.035
522	0.032
523	0.031
523	0.031
524	0.032
524	0.035
524	0.037
525	0.04
525	0.044
526	0.047
526	0.05
527	0.053
527	0.055
528	0.057
528	0.059
529	0.06
529	0.061
529	0.061
530	0.061
530	0.061
531	0.061
531	0.062
532	0.061
532	0.061
533	0.062
533	0.062
533	0.062
534	0.062
534	0.062
535	0.061
535	0.061
536	0.061
536	0.061
537	0.061
537	0.06
538	0.059
538	0.058
538	0.057
539	0.056
539	0.056
540	0.055
540	0.053
541	0.052
541	0.051
542	0.049
542	0.048
542	0.047
543	0.047
543	0.046
544	0.045
544	0.045
545	0.045
545	0.045
546	0.045
546	0.045
547	0.045
547	0.043
547	0.041
548	0.039
548	0.037
549	0.036
549	0.034
550	0.033
550	0.031
551	0.03
551	0.028
551	0.027
552	0.026
552	0.026
553	0.026
553	0.026
554	0.026
554	0.026
555	0.024
555	0.022
556	0.019
556	0.017
556	0.014
557	0.012
557	0.011
558	0.009
558	0.008
559	0.007
559	0.006
560	0.007
560	0.007
560	0.007
561	0.008
561	0.009
562	0.009
562	0.008
563	0.007
563	0.006
564	0.004
564	0.002
564	0
565	-0.001
565	-0.001
566	-0.001
566	-0.002
567	-0.001
567	0.001
568	0.003
568	0.005
568	0.008
569	0.011
569	0.013
570	0.015
570	0.016
571	0.017
571	0.018
572	0.019
572	0.02
573	0.021
573	0.021
573	0.02
574	0.02
574	0.02
575	0.02
575	0.022
576	0.024
576	0.024
577	0.023
577	0.021
577	0.021
578	0.02
578	0.021
579	0.022
579	0.024
580	0.023
580	0.021
581	0.018
581	0.016
581	0.015
582	0.015
582	0.015
583	0.016
583	0.016
584	0.014
584	0.01
585	0.008
585	0.008
585	0.008
586	0.009
586	0.009
587	0.007
587	0.005
588	0.002
588	-0.001
589	-0.003
589	-0.004
590	-0.005
590	-0.006
590	-0.005
591	-0.004
591	-0.004
592	-0.004
592	-0.004
593	-0.005
593	-0.005
594	-0.005
594	-0.006
594	-0.006
595	-0.007
595	-0.008
596	-0.01
596	-0.01
597	-0.008
597	-0.006
598	-0.004
598	-0.003
598	-0.002
599	-0.001
599	-0.002
600	-0.003
600	-0.004
601	-0.005
601	-0.006
602	-0.008
602	-0.01
602	-0.012
603	-0.013
603	-0.013
604	-0.012
604	-0.01
605	-0.008
605	-0.006
606	-0.005
606	-0.005
606	-0.005
607	-0.006
607	-0.006
608	-0.006
608	-0.008
609	-0.01
609	-0.011
610	-0.013
610	-0.015
610	-0.016
611	-0.016
611	-0.015
612	-0.014
612	-0.013
613	-0.012
613	-0.011
614	-0.011
614	-0.012
614	-0.012
615	-0.012
615	-0.013
616	-0.013
616	-0.014
617	-0.014
617	-0.016
618	-0.017
618	-0.018
618	-0.019
619	-0.02
619	-0.02
620	-0.018
620	-0.017
621	-0.017
621	-0.017
622	-0.017
622	-0.016
622	-0.016
623	-0.017
623	-0.016
624	-0.015
624	-0.015
625	-0.016
625	-0.016
626	-0.016
626	-0.017
626	-0.016
627	-0.016
627	-0.015
628	-0.015
628	-0.014
629	-0.014
629	-0.014
630	-0.015
630	-0.016
630	-0.017
631	-0.017
631	-0.017
632	-0.018
632	-0.019
633	-0.019
633	-0.019
634	-0.018
634	-0.016
634	-0.014
635	-0.013
635	-0.011
636	-0.011
636	-0.009
637	-0.009
637	-0.008
638	-0.007
638	-0.006
638	-0.006
639	-0.007
639	-0.007
640	-0.007
640	-0.006
641	-0.005
641	-0.004
642	-0.003
642	-0.002
642	-0.001
643	0.001
643	0.002
644	0.003
644	0.005
645	0.007
645	0.009
646	0.011
646	0.014
646	0.017
647	0.02
647	0.024
648	0.026
648	0.029
649	0.031
649	0.034
650	0.037
650	0.04
650	0.042
651	0.044
651	0.045
652	0.047
652	0.048
653	0.05
653	0.058
653	0.082
654	0.071
654	0.062
655	0.064
655	0.065
656	0.066
656	0.068
657	0.069
657	0.07
657	0.071
658	0.069
658	0.053
659	0.063
659	0.076
660	0.079
660	0.081
661	0.082
661	0.083
661	0.084
662	0.086
662	0.089
663	0.091
663	0.093
664	0.095
664	0.096
665	0.097
665	0.099
665	0.101
666	0.103
666	0.104
667	0.106
667	0.108
668	0.11
668	0.112
669	0.113
669	0.116
669	0.119
670	0.122
670	0.125
671	0.127
671	0.128
672	0.129
672	0.13
672	0.131
673	0.132
673	0.133
674	0.134
674	0.134
675	0.134
675	0.134
676	0.136
676	0.138
676	0.139
677	0.141
677	0.144
678	0.145
678	0.147
679	0.148
679	0.149
680	0.151
680	0.153
680	0.153
681	0.154
681	0.155
682	0.155
682	0.157
683	0.158
683	0.16
684	0.162
684	0.163
684	0.164
685	0.164
685	0.165
686	0.166
686	0.165
687	0.165
687	0.164
687	0.163
688	0.162
688	0.161
689	0.161
689	0.162
690	0.162
690	0.161
691	0.161
691	0.161
691	0.161
692	0.161
692	0.16
693	0.16
693	0.16
694	0.159
694	0.157
695	0.157
695	0.159
695	0.159
696	0.159
696	0.158
697	0.158
697	0.157
698	0.156
698	0.155
698	0.153
699	0.153
699	0.151
700	0.148
700	0.146
701	0.146
701	0.145
702	0.143
702	0.142
702	0.142
703	0.14
703	0.139
704	0.139
704	0.138
705	0.139
705	0.139
705	0.138
706	0.137
706	0.137
707	0.136
707	0.134
708	0.133
708	0.132
709	0.13
709	0.128
709	0.125
710	0.122
710	0.119
711	0.117
711	0.116
712	0.114
712	0.112
713	0.111
713	0.11
713	0.108
714	0.106
714	0.104
715	0.103
715	0.101
716	0.099
716	0.098
716	0.096
717	0.095
717	0.093
718	0.091
718	0.089
719	0.088
719	0.086
720	0.085
720	0.083
720	0.081
721	0.078
721	0.075
722	0.073
722	0.071
723	0.069
723	0.068
723	0.066
724	0.064
724	0.062
725	0.06
725	0.058
726	0.057
726	0.055
727	0.054
727	0.052
727	0.051
728	0.049
728	0.048
729	0.047
729	0.047
730	0.046
730	0.044
730	0.042
731	0.041
731	0.039
732	0.039
732	0.038
733	0.036
733	0.034
734	0.032
734	0.03
734	0.028
735	0.027
735	0.025
736	0.022
736	0.02
737	0.018
737	0.017
737	0.015
738	0.013
738	0.01
739	0.008
739	0.006
740	0.004
740	0.002
741	0.001
741	-0.001
741	-0.004
742	-0.008
742	-0.012
743	-0.015
743	-0.018
744	-0.02
744	-0.022
744	-0.024
745	-0.027
745	-0.029
746	-0.031
746	-0.031
747	-0.031
747	-0.031
748	-0.03
748	-0.029
748	-0.029
749	-0.029
749	-0.029
750	-0.029
750	-0.03
751	-0.03
751	-0.031
751	-0.031
752	-0.033
752	-0.034
753	-0.036
753	-0.037
754	-0.038
754	-0.038
754	-0.038
755	-0.037
755	-0.036
756	-0.035
756	-0.037
757	-0.038
757	-0.038
758	-0.038
758	-0.039
758	-0.039
759	-0.04
759	-0.043
760	-0.046
760	-0.049
761	-0.051
761	-0.052
761	-0.054
762	-0.056
762	-0.058
763	-0.059
763	-0.061
764	-0.064
764	-0.067
764	-0.07
765	-0.072
765	-0.074
766	-0.076
766	-0.077
767	-0.077
767	-0.08
768	-0.084
768	-0.086
768	-0.087
769	-0.088
769	-0.088
770	-0.09
770	-0.091
771	-0.093
771	-0.096
771	-0.099
772	-0.101
772	-0.103
773	-0.105
773	-0.107
774	-0.111
774	-0.114
775	-0.118
775	-0.121
775	-0.125
776	-0.129
776	-0.133
777	-0.137
777	-0.141
778	-0.145
778	-0.15
778	-0.154
779	-0.155
779	-0.152
780	-0.151
780	-0.152
781	-0.152
781	-0.152
781	-0.151
782	-0.151
782	-0.151
783	-0.15
783	-0.148
784	-0.148
784	-0.151
784	-0.152
785	-0.154
785	-0.155
786	-0.156
786	-0.154
787	-0.149
787	-0.145
788	-0.144
788	-0.145
788	-0.147
789	-0.149
789	-0.149
790	-0.146
790	-0.145
791	-0.146
791	-0.148
791	-0.15
792	-0.145
792	-0.135
793	-0.129
793	-0.125
794	-0.123
794	-0.124
794	-0.128
795	-0.13
795	-0.13
796	-0.13
796	-0.132
797	-0.141
797	-0.152
797	-0.158
798	-0.163
798	-0.166
799	-0.167
799	-0.167
800	-0.166
800	-0.168
801	-0.17
801	-0.171
801	-0.171
802	-0.172
802	-0.172
803	-0.173
803	-0.173
804	-0.172
804	-0.167
804	-0.16
805	-0.157
805	-0.154
806	-0.152
806	-0.151
807	-0.15
807	-0.149
807	-0.149
808	-0.149
808	-0.149
809	-0.154
809	-0.16
810	-0.163
810	-0.166
810	-0.169
811	-0.173
811	-0.173
812	-0.17
812	-0.167
813	-0.168
813	-0.169
813	-0.17
814	-0.172
814	-0.172
815	-0.17
815	-0.168
816	-0.166
816	-0.166
817	-0.171
817	-0.174
817	-0.174
818	-0.173
818	-0.169
819	-0.164
819	-0.16
820	-0.162
820	-0.164
820	-0.165
821	-0.165
821	-0.164
822	-0.163
822	-0.163
823	-0.162
823	-0.165
823	-0.168
824	-0.169
824	-0.167
825	-0.162
825	-0.156
826	-0.15
826	-0.146
826	-0.141
827	-0.134
827	-0.128
828	-0.122
828	-0.116
829	-0.11
829	-0.105
829	-0.101
830	-0.099
830	-0.096
831	-0.093
831	-0.09
832	-0.089
832	-0.087
832	-0.086
833	-0.085
833	-0.084
834	-0.084
834	-0.083
835	-0.082
835	-0.081
835	-0.081
836	-0.08
836	-0.079
837	-0.078
837	-0.077
838	-0.077
838	-0.076
839	-0.075
839	-0.075
839	-0.074
840	-0.073
840	-0.072
841	-0.071
841	-0.07
842	-0.069
842	-0.067
842	-0.065
843	-0.063
843	-0.06
844	-0.057
844	-0.055
845	-0.052
845	-0.05
845	-0.048
846	-0.046
846	-0.045
847	-0.044
847	-0.043
848	-0.043
848	-0.042
848	-0.042
849	-0.042
849	-0.042
850	-0.041
850	-0.042
851	-0.042
851	-0.041
851	-0.041
852	-0.04
852	-0.039
853	-0.039
853	-0.038
854	-0.037
854	-0.037
854	-0.037
855	-0.036
855	-0.036
856	-0.036
856	-0.036
857	-0.036
857	-0.036
857	-0.036
858	-0.036
858	-0.036
859	-0.036
859	-0.035
860	-0.034
860	-0.033
860	-0.032
861	-0.031
861	-0.03
862	-0.03
862	-0.029
863	-0.029
863	-0.028
863	-0.027
864	-0.026
864	-0.026
865	-0.025
865	-0.024
866	-0.023
866	-0.023
866	-0.021
867	-0.02
867	-0.02
868	-0.019
868	-0.019
869	-0.018
869	-0.018
869	-0.018
870	-0.018
870	-0.018
871	-0.018
871	-0.018
872	-0.018
872	-0.018
872	-0.018
873	-0.018
873	-0.018
874	-0.018
874	-0.018
875	-0.018
875	-0.019
875	-0.019
876	-0.019
876	-0.019
877	-0.02
877	-0.02
878	-0.02
878	-0.021
878	-0.021
879	-0.022
879	-0.022
880	-0.023
880	-0.023
881	-0.023
881	-0.023
881	-0.022
882	-0.022
882	-0.02
883	-0.019
883	-0.017
884	-0.016
884	-0.014
884	-0.013
885	-0.011
885	-0.01
886	-0.008
886	-0.008
887	-0.007
887	-0.008
887	-0.008
888	-0.008
888	-0.009
889	-0.009
889	-0.009
890	-0.01
890	-0.01
890	-0.011
891	-0.012
891	-0.012
892	-0.012
892	-0.013
893	-0.013
893	-0.013
893	-0.013
894	-0.013
894	-0.014
895	-0.014
895	-0.014
895	-0.015
896	-0.015
896	-0.015
897	-0.014
897	-0.014
898	-0.014
898	-0.014
898	-0.014
899	-0.014
899	-0.013
900	-0.013
900	-0.012
901	-0.012
901	-0.011
901	-0.011
902	-0.01
902	-0.009
903	-0.008
903	-0.008
904	-0.007
904	-0.006
904	-0.005
905	-0.004
905	-0.004
906	-0.003
906	-0.003
907	-0.004
907	-0.004
907	-0.004
908	-0.004
908	-0.005
909	-0.005
909	-0.005
910	-0.006
910	-0.006
910	-0.007
911	-0.007
911	-0.007
912	-0.007
912	-0.008
913	-0.008
913	-0.008
913	-0.008
914	-0.009
914	-0.009
915	-0.009
915	-0.01
916	-0.01
916	-0.01
916	-0.01
917	-0.01
917	-0.01
918	-0.01
918	-0.01
918	-0.009
919	-0.009
919	-0.009
920	-0.008
920	-0.007
921	-0.006
921	-0.005
921	-0.005
922	-0.004
922	-0.003
923	-0.003
923	-0.003
924	-0.002
924	-0.002
924	-0.002
925	-0.003
925	-0.003
926	-0.003
926	-0.004
927	-0.004
927	-0.005
927	-0.005
928	-0.005
928	-0.005
929	-0.005
929	-0.005
930	-0.005
930	-0.006
930	-0.006
931	-0.006
931	-0.006
932	-0.006
932	-0.006
933	-0.006
933	-0.006
933	-0.005
934	-0.005
934	-0.005
935	-0.005
935	-0.005
935	-0.004
936	-0.004
936	-0.003
937	-0.002
937	-0.001
938	-0.001
938	-0
938	0
939	0
939	0.001
940	0.001
940	0.001
941	0.001
941	0.001
941	0.001
942	0
942	-0
943	-0
943	0
944	0
944	0
944	0.001
945	0.001
945	0.002
946	0.002
946	0.002
946	0.002
947	0.003
947	0.002
948	0.002
948	0.002
949	0.002
949	0.003
949	0.003
950	0.003
950	0.004
951	0.004
951	0.003
952	0.003
952	0.003
952	0.003
953	0.003
953	0.003
954	0.003
954	0.002
955	0.002
955	0.001
955	0.001
956	0
956	-0
957	-0.001
957	-0.001
957	-0.002
958	-0.003
958	-0.003
959	-0.004
959	-0.004
960	-0.005
960	-0.005
960	-0.005
961	-0.005
961	-0.005
962	-0.006
962	-0.006
963	-0.006
963	-0.006
963	-0.006
964	-0.006
964	-0.006
965	-0.006
965	-0.006
966	-0.005
966	-0.005
966	-0.005
967	-0.004
967	-0.004
968	-0.004
968	-0.003
968	-0.002
969	-0.002
969	-0.001
970	-0.001
970	-0
971	0
971	0.001
971	0.001
972	0.002
972	0.002
973	0.003
973	0.004
974	0.004
974	0.005
974	0.006
975	0.007
975	0.009
976	0.01
976	0.01
976	0.011
977	0.011
977	0.011
978	0.01
978	0.01
979	0.009
979	0.009
979	0.008
980	0.007
980	0.006
981	0.005
981	0.004
982	0.004
982	0.004
982	0.003
983	0.003
983	0.003
984	0.002
984	0.002
984	0.002
985	0.002
985	0.002
986	0.002
986	0.001
987	0.001
987	0.001
987	0.001
988	0.001
988	0.001
989	0.001
989	0
990	0
990	-0
990	0
991	0
991	-0
992	-0
992	-0
992	-0.001
993	-0.001
993	-0.001
994	-0.001
994	-0.001
995	-0.002
995	-0.002
995	-0.002
996	-0.002
996	-0.002
997	-0.002
997	-0.001
997	-0
998	0.001
998	0.002
999	0.003
999	0.004
1000	0.005
1000	0.006
1000	0.006
1001	0.006
1001	0.006
1002	0.005
1002	0.004
1003	0.003
1003	0.002
1003	0.001
1004	-0
1004	-0.002
1005	-0.003
1005	-0.004
1005	-0.005
1006	-0.006
1006	-0.007
1007	-0.007
1007	-0.008
1008	-0.008
1008	-0.008
1008	-0.009
1009	-0.009
1009	-0.009
1010	-0.009
1010	-0.009
1010	-0.009
1011	-0.009
1011	-0.009
1012	-0.009
1012	-0.009
1013	-0.008
1013	-0.009
1013	-0.008
1014	-0.008
1014	-0.008
1015	-0.007
1015	-0.006
1016	-0.005
1016	-0.004
1016	-0.003
1017	-0.002
1017	-0
1018	0.002
1018	0.003
1018	0.005
1019	0.006
1019	0.007
1020	0.008
1020	0.009
1021	0.01
1021	0.01
1021	0.011
1022	0.011
1022	0.01
1023	0.01
1023	0.01
1023	0.01
1024	0.01
1024	0.009
1025	0.009
1025	0.009
1026	0.008
1026	0.008
1026	0.008
1027	0.008
1027	0.008
1028	0.008
1028	0.008
1028	0.008
1029	0.008
1029	0.007
1030	0.007
1030	0.007
1031	0.006
1031	0.006
1031	0.006
1032	0.006
1032	0.006
1033	0.006
1033	0.006
1033	0.006
1034	0.006
1034	0.005
1035	0.005
1035	0.005
1036	0.004
1036	0.004
1036	0.003
1037	0.003
1037	0.003
1038	0.003
1038	0.004
1039	0.005
1039	0.006
1039	0.007
1040	0.007
1040	0.008
1041	0.009
1041	0.01
1041	0.01
1042	0.01
1042	0.011
1043	0.011
1043	0.011
1044	0.011
1044	0.011
1044	0.012
1045	0.012
1045	0.013
1046	0.013
1046	0.014
1046	0.015
1047	0.016
1047	0.017
1048	0.018
1048	0.019
1049	0.019
1049	0.019
1049	0.02
1050	0.021
1050	0.021
1051	0.021
1051	0.022
1051	0.024
1052	0.024
1052	0.026
1053	0.027
1053	0.028
1053	0.029
1054	0.031
1054	0.032
1055	0.033
1055	0.033
1056	0.033
1056	0.033
1056	0.033
1057	0.032
1057	0.032
1058	0.032
1058	0.032
1058	0.032
1059	0.032
1059	0.032
1060	0.033
1060	0.033
1061	0.034
1061	0.035
1061	0.035
1062	0.035
1062	0.036
1063	0.036
1063	0.036
1063	0.037
1064	0.037
1064	0.038
1065	0.039
1065	0.039
1066	0.04
1066	0.041
1066	0.042
1067	0.044
1067	0.045
1068	0.047
1068	0.048
1068	0.049
1069	0.051
1069	0.053
1070	0.055
1070	0.057
1071	0.06
1071	0.063
1071	0.066
1072	0.069
1072	0.073
1073	0.076
1073	0.08
1073	0.083
1074	0.086
1074	0.09
1075	0.092
1075	0.094
1076	0.096
1076	0.099
1076	0.101
1077	0.104
1077	0.107
1078	0.11
1078	0.114
1078	0.118
1079	0.122
1079	0.127
1080	0.131
1080	0.135
1080	0.138
1081	0.142
1081	0.146
1082	0.151
1082	0.155
1083	0.159
1083	0.163
1083	0.168
1084	0.173
1084	0.18
1085	0.186
1085	0.192
1085	0.199
1086	0.206
1086	0.211
1087	0.219
1087	0.227
1088	0.232
1088	0.24
1088	0.249
1089	0.257
1089	0.266
1090	0.276
1090	0.289
1090	0.301
1091	0.315
1091	0.332
1092	0.348
1092	0.368
1092	0.388
1093	0.408
1093	0.435
1094	0.46
1094	0.491
1095	0.524
1095	0.566
1095	0.619
1096	0.676
1096	0.748
1097	0.847
1097	0.966
1097	1.165
1098	1.515
1098	-0
1099	-0
1099	-0
1100	-0
1100	-0
1100	-0
1101	-0
1101	-0
1102	-0
1102	-0
1102	-0
1103	-0
1103	-0
1104	-0
1104	-0
1104	-0
1105	-0
1105	-0
1106	-0
1106	-0
1107	-0
1107	-0
1107	-0
1108	-0
1108	-0
1109	-0
1109	-0
1109	-0
1110	-0
1110	-0
1111	-0
1111	-0
