Data from 15c-2-5a_Absorbance__764__02565.txt Node

Date: Fri Jan 19 14:08:45 CET 2024
User: Marek
Spectrometer: MAYP115816
Trigger mode: 0
Integration Time (sec): 2.000000E-1
Scans to average: 10
Electric dark correction enabled: true
Nonlinearity correction enabled: true
Boxcar width: 5
XAxis mode: Wavelengths
Number of Pixels in Spectrum: 2068
>>>>>Begin Spectral Data<<<<<
199	-2.291
199	-2.133
200	-1.986
200	-1.864
201	-1.794
201	-1.739
202	-1.665
202	-1.604
203	-1.551
203	-1.505
204	-1.476
204	-1.451
205	-1.43
205	-1.419
205	-1.417
206	-1.411
206	-1.407
207	-1.402
207	-1.397
208	-1.395
208	-1.391
209	-1.389
209	-1.384
210	-1.382
210	-1.38
211	-1.379
211	-1.377
212	-1.378
212	-1.378
213	-1.377
213	-1.374
213	-1.373
214	-1.369
214	-1.368
215	-1.365
215	-1.363
216	-1.36
216	-1.36
217	-1.355
217	-1.352
218	-1.35
218	-1.347
219	-1.344
219	-1.344
220	-1.342
220	-1.342
221	-1.34
221	-1.334
221	-1.329
222	-1.327
222	-1.323
223	-1.317
223	-1.313
224	-1.306
224	-1.298
225	-1.29
225	-1.279
226	-1.267
226	-1.257
227	-1.244
227	-1.229
228	-1.213
228	-1.197
229	-1.176
229	-1.154
229	-1.126
230	-1.097
230	-1.065
231	-1.029
231	-0.99
232	-0.949
232	-0.904
233	-0.856
233	-0.806
234	-0.756
234	-0.705
235	-0.654
235	-0.603
236	-0.554
236	-0.505
236	-0.456
237	-0.409
237	-0.364
238	-0.321
238	-0.281
239	-0.242
239	-0.205
240	-0.171
240	-0.138
241	-0.108
241	-0.079
242	-0.053
242	-0.028
243	-0.006
243	0.015
243	0.034
244	0.052
244	0.069
245	0.084
245	0.098
246	0.112
246	0.124
247	0.135
247	0.145
248	0.155
248	0.165
249	0.173
249	0.181
250	0.189
250	0.195
250	0.202
251	0.208
251	0.214
252	0.22
252	0.225
253	0.23
253	0.234
254	0.238
254	0.243
255	0.246
255	0.25
256	0.253
256	0.256
257	0.258
257	0.261
258	0.263
258	0.264
258	0.266
259	0.268
259	0.27
260	0.271
260	0.272
261	0.273
261	0.274
262	0.275
262	0.275
263	0.276
263	0.277
264	0.278
264	0.278
265	0.278
265	0.278
265	0.279
266	0.279
266	0.279
267	0.278
267	0.278
268	0.278
268	0.277
269	0.277
269	0.276
270	0.275
270	0.274
271	0.274
271	0.273
272	0.272
272	0.271
272	0.27
273	0.269
273	0.268
274	0.268
274	0.267
275	0.266
275	0.265
276	0.264
276	0.262
277	0.261
277	0.259
278	0.257
278	0.255
278	0.253
279	0.251
279	0.25
280	0.249
280	0.247
281	0.246
281	0.246
282	0.245
282	0.245
283	0.245
283	0.245
284	0.245
284	0.245
285	0.244
285	0.243
285	0.243
286	0.242
286	0.241
287	0.24
287	0.239
288	0.238
288	0.237
289	0.236
289	0.236
290	0.235
290	0.234
291	0.233
291	0.233
292	0.232
292	0.231
292	0.231
293	0.23
293	0.229
294	0.229
294	0.228
295	0.227
295	0.227
296	0.226
296	0.225
297	0.225
297	0.224
298	0.224
298	0.223
298	0.223
299	0.222
299	0.222
300	0.221
300	0.221
301	0.22
301	0.219
302	0.219
302	0.218
303	0.217
303	0.217
304	0.216
304	0.216
305	0.215
305	0.215
305	0.214
306	0.213
306	0.213
307	0.212
307	0.211
308	0.211
308	0.21
309	0.209
309	0.208
310	0.208
310	0.207
311	0.206
311	0.205
311	0.205
312	0.204
312	0.203
313	0.202
313	0.201
314	0.2
314	0.2
315	0.199
315	0.198
316	0.197
316	0.197
317	0.196
317	0.195
318	0.194
318	0.193
318	0.193
319	0.192
319	0.191
320	0.19
320	0.189
321	0.188
321	0.187
322	0.186
322	0.185
323	0.184
323	0.183
324	0.182
324	0.181
324	0.181
325	0.18
325	0.179
326	0.179
326	0.178
327	0.177
327	0.176
328	0.176
328	0.175
329	0.174
329	0.173
330	0.173
330	0.172
330	0.171
331	0.17
331	0.169
332	0.169
332	0.168
333	0.167
333	0.166
334	0.165
334	0.164
335	0.164
335	0.163
336	0.162
336	0.161
336	0.16
337	0.159
337	0.159
338	0.158
338	0.157
339	0.157
339	0.156
340	0.155
340	0.154
341	0.154
341	0.153
342	0.153
342	0.152
342	0.151
343	0.15
343	0.15
344	0.149
344	0.148
345	0.148
345	0.147
346	0.146
346	0.145
347	0.144
347	0.143
348	0.143
348	0.142
348	0.141
349	0.14
349	0.139
350	0.138
350	0.137
351	0.137
351	0.136
352	0.135
352	0.134
353	0.133
353	0.132
354	0.13
354	0.129
354	0.128
355	0.127
355	0.126
356	0.125
356	0.124
357	0.123
357	0.122
358	0.122
358	0.122
359	0.123
359	0.124
360	0.124
360	0.125
360	0.125
361	0.126
361	0.126
362	0.127
362	0.127
363	0.127
363	0.126
364	0.126
364	0.126
365	0.125
365	0.124
366	0.124
366	0.124
366	0.123
367	0.123
367	0.123
368	0.122
368	0.122
369	0.121
369	0.121
370	0.12
370	0.12
371	0.119
371	0.119
372	0.118
372	0.117
372	0.117
373	0.117
373	0.116
374	0.116
374	0.116
375	0.116
375	0.116
376	0.116
376	0.116
377	0.116
377	0.117
378	0.117
378	0.117
378	0.117
379	0.117
379	0.117
380	0.118
380	0.118
381	0.118
381	0.117
382	0.117
382	0.116
383	0.116
383	0.116
383	0.115
384	0.115
384	0.114
385	0.114
385	0.114
386	0.114
386	0.114
387	0.113
387	0.113
388	0.113
388	0.112
389	0.112
389	0.112
389	0.112
390	0.112
390	0.112
391	0.113
391	0.113
392	0.113
392	0.113
393	0.113
393	0.113
394	0.113
394	0.112
394	0.112
395	0.112
395	0.111
396	0.111
396	0.111
397	0.111
397	0.111
398	0.112
398	0.111
399	0.112
399	0.111
400	0.111
400	0.111
400	0.11
401	0.109
401	0.108
402	0.107
402	0.106
403	0.106
403	0.105
404	0.105
404	0.105
405	0.104
405	0.104
405	0.103
406	0.103
406	0.103
407	0.103
407	0.102
408	0.101
408	0.1
409	0.1
409	0.099
410	0.099
410	0.099
411	0.099
411	0.099
411	0.098
412	0.098
412	0.098
413	0.097
413	0.097
414	0.097
414	0.096
415	0.096
415	0.096
416	0.095
416	0.094
416	0.094
417	0.093
417	0.093
418	0.093
418	0.093
419	0.094
419	0.094
420	0.095
420	0.096
421	0.096
421	0.097
421	0.097
422	0.097
422	0.097
423	0.098
423	0.097
424	0.097
424	0.096
425	0.095
425	0.094
426	0.093
426	0.092
427	0.092
427	0.092
427	0.093
428	0.093
428	0.094
429	0.095
429	0.096
430	0.096
430	0.095
431	0.095
431	0.095
432	0.094
432	0.093
432	0.092
433	0.09
433	0.089
434	0.088
434	0.087
435	0.087
435	0.088
436	0.088
436	0.088
437	0.088
437	0.088
437	0.088
438	0.088
438	0.088
439	0.087
439	0.087
440	0.087
440	0.086
441	0.086
441	0.087
442	0.087
442	0.087
442	0.087
443	0.087
443	0.088
444	0.088
444	0.088
445	0.088
445	0.088
446	0.088
446	0.087
447	0.087
447	0.087
447	0.086
448	0.086
448	0.086
449	0.086
449	0.086
450	0.085
450	0.085
451	0.084
451	0.084
452	0.083
452	0.082
452	0.082
453	0.081
453	0.08
454	0.079
454	0.078
455	0.078
455	0.077
456	0.077
456	0.076
457	0.076
457	0.076
458	0.076
458	0.076
458	0.075
459	0.076
459	0.076
460	0.075
460	0.074
461	0.074
461	0.073
462	0.073
462	0.073
463	0.073
463	0.074
463	0.075
464	0.075
464	0.075
465	0.076
465	0.076
466	0.076
466	0.076
467	0.076
467	0.075
467	0.073
468	0.072
468	0.069
469	0.067
469	0.065
470	0.064
470	0.064
471	0.063
471	0.063
472	0.063
472	0.063
472	0.063
473	0.064
473	0.065
474	0.066
474	0.067
475	0.068
475	0.068
476	0.069
476	0.069
477	0.069
477	0.069
477	0.069
478	0.069
478	0.069
479	0.069
479	0.07
480	0.071
480	0.072
481	0.073
481	0.073
482	0.074
482	0.075
482	0.077
483	0.079
483	0.082
484	0.086
484	0.089
485	0.09
485	0.092
486	0.093
486	0.094
487	0.094
487	0.094
487	0.094
488	0.093
488	0.091
489	0.088
489	0.085
490	0.084
490	0.082
491	0.081
491	0.081
492	0.081
492	0.081
492	0.081
493	0.082
493	0.083
494	0.084
494	0.086
495	0.088
495	0.09
496	0.091
496	0.091
496	0.092
497	0.093
497	0.094
498	0.095
498	0.095
499	0.095
499	0.094
500	0.095
500	0.095
501	0.097
501	0.098
501	0.099
502	0.101
502	0.102
503	0.103
503	0.104
504	0.105
504	0.105
505	0.105
505	0.105
506	0.105
506	0.105
506	0.105
507	0.104
507	0.104
508	0.104
508	0.104
509	0.104
509	0.104
510	0.105
510	0.104
511	0.104
511	0.104
511	0.103
512	0.104
512	0.104
513	0.103
513	0.101
514	0.099
514	0.098
515	0.097
515	0.096
515	0.096
516	0.095
516	0.095
517	0.095
517	0.095
518	0.094
518	0.093
519	0.091
519	0.089
520	0.086
520	0.082
520	0.079
521	0.076
521	0.073
522	0.07
522	0.069
523	0.068
523	0.069
524	0.071
524	0.074
524	0.078
525	0.081
525	0.085
526	0.088
526	0.092
527	0.095
527	0.097
528	0.099
528	0.101
529	0.102
529	0.102
529	0.102
530	0.102
530	0.102
531	0.102
531	0.102
532	0.102
532	0.102
533	0.102
533	0.102
533	0.103
534	0.102
534	0.102
535	0.101
535	0.101
536	0.101
536	0.1
537	0.1
537	0.099
538	0.098
538	0.097
538	0.096
539	0.095
539	0.094
540	0.093
540	0.092
541	0.091
541	0.089
542	0.087
542	0.086
542	0.084
543	0.084
543	0.083
544	0.082
544	0.08
545	0.08
545	0.08
546	0.08
546	0.08
547	0.079
547	0.077
547	0.075
548	0.073
548	0.071
549	0.069
549	0.067
550	0.065
550	0.064
551	0.061
551	0.059
551	0.057
552	0.056
552	0.056
553	0.055
553	0.055
554	0.055
554	0.054
555	0.053
555	0.05
556	0.048
556	0.045
556	0.042
557	0.039
557	0.037
558	0.035
558	0.033
559	0.032
559	0.031
560	0.031
560	0.031
560	0.031
561	0.032
561	0.033
562	0.033
562	0.033
563	0.031
563	0.03
564	0.027
564	0.025
564	0.023
565	0.022
565	0.021
566	0.02
566	0.02
567	0.02
567	0.022
568	0.024
568	0.026
568	0.029
569	0.031
569	0.034
570	0.036
570	0.037
571	0.038
571	0.039
572	0.04
572	0.041
573	0.042
573	0.042
573	0.042
574	0.041
574	0.041
575	0.041
575	0.043
576	0.044
576	0.044
577	0.043
577	0.042
577	0.041
578	0.04
578	0.039
579	0.04
579	0.042
580	0.041
580	0.039
581	0.036
581	0.034
581	0.033
582	0.032
582	0.032
583	0.033
583	0.033
584	0.031
584	0.027
585	0.025
585	0.025
585	0.025
586	0.025
586	0.025
587	0.023
587	0.021
588	0.018
588	0.015
589	0.013
589	0.012
590	0.011
590	0.009
590	0.01
591	0.011
591	0.011
592	0.011
592	0.01
593	0.01
593	0.01
594	0.009
594	0.009
594	0.008
595	0.007
595	0.006
596	0.004
596	0.004
597	0.005
597	0.007
598	0.008
598	0.01
598	0.011
599	0.011
599	0.011
600	0.01
600	0.008
601	0.007
601	0.006
602	0.004
602	0.003
602	0.001
603	-0
603	0
604	0.001
604	0.002
605	0.004
605	0.007
606	0.008
606	0.008
606	0.007
607	0.007
607	0.007
608	0.006
608	0.004
609	0.003
609	0.002
610	-0.001
610	-0.003
610	-0.005
611	-0.005
611	-0.004
612	-0.004
612	-0.002
613	-0.001
613	0
614	0
614	-0
614	-0
615	-0
615	-0.001
616	-0.001
616	-0.001
617	-0.002
617	-0.003
618	-0.005
618	-0.006
618	-0.007
619	-0.007
619	-0.007
620	-0.006
620	-0.005
621	-0.005
621	-0.004
622	-0.005
622	-0.004
622	-0.004
623	-0.004
623	-0.003
624	-0.003
624	-0.003
625	-0.004
625	-0.004
626	-0.004
626	-0.005
626	-0.004
627	-0.004
627	-0.004
628	-0.003
628	-0.003
629	-0.002
629	-0.002
630	-0.003
630	-0.004
630	-0.004
631	-0.004
631	-0.004
632	-0.004
632	-0.005
633	-0.005
633	-0.005
634	-0.004
634	-0.002
634	0
635	0.002
635	0.003
636	0.005
636	0.006
637	0.007
637	0.008
638	0.01
638	0.011
638	0.011
639	0.011
639	0.011
640	0.012
640	0.012
641	0.014
641	0.015
642	0.016
642	0.018
642	0.019
643	0.02
643	0.022
644	0.023
644	0.025
645	0.027
645	0.029
646	0.031
646	0.034
646	0.038
647	0.042
647	0.045
648	0.048
648	0.051
649	0.054
649	0.057
650	0.06
650	0.063
650	0.065
651	0.068
651	0.07
652	0.071
652	0.073
653	0.076
653	0.084
653	0.107
654	0.091
654	0.079
655	0.083
655	0.085
656	0.086
656	0.088
657	0.089
657	0.091
657	0.092
658	0.089
658	0.074
659	0.089
659	0.11
660	0.11
660	0.111
661	0.112
661	0.113
661	0.115
662	0.117
662	0.119
663	0.122
663	0.125
664	0.127
664	0.129
665	0.131
665	0.133
665	0.135
666	0.137
666	0.139
667	0.141
667	0.143
668	0.145
668	0.147
669	0.149
669	0.152
669	0.155
670	0.159
670	0.162
671	0.164
671	0.166
672	0.167
672	0.168
672	0.17
673	0.171
673	0.172
674	0.173
674	0.174
675	0.174
675	0.174
676	0.176
676	0.178
676	0.179
677	0.182
677	0.184
678	0.187
678	0.188
679	0.19
679	0.191
680	0.192
680	0.194
680	0.195
681	0.195
681	0.195
682	0.196
682	0.197
683	0.199
683	0.201
684	0.204
684	0.206
684	0.206
685	0.207
685	0.208
686	0.21
686	0.21
687	0.21
687	0.209
687	0.208
688	0.207
688	0.206
689	0.205
689	0.206
690	0.206
690	0.206
691	0.205
691	0.205
691	0.205
692	0.205
692	0.204
693	0.203
693	0.203
694	0.202
694	0.2
695	0.199
695	0.201
695	0.201
696	0.201
696	0.2
697	0.2
697	0.199
698	0.198
698	0.197
698	0.195
699	0.195
699	0.193
700	0.19
700	0.188
701	0.187
701	0.186
702	0.184
702	0.183
702	0.182
703	0.181
703	0.179
704	0.178
704	0.177
705	0.177
705	0.177
705	0.176
706	0.176
706	0.175
707	0.174
707	0.173
708	0.172
708	0.17
709	0.169
709	0.167
709	0.164
710	0.16
710	0.157
711	0.154
711	0.152
712	0.15
712	0.148
713	0.146
713	0.144
713	0.142
714	0.139
714	0.137
715	0.135
715	0.133
716	0.131
716	0.129
716	0.127
717	0.125
717	0.124
718	0.122
718	0.119
719	0.118
719	0.116
720	0.114
720	0.112
720	0.11
721	0.107
721	0.104
722	0.101
722	0.098
723	0.096
723	0.094
723	0.092
724	0.09
724	0.088
725	0.086
725	0.084
726	0.082
726	0.08
727	0.078
727	0.077
727	0.075
728	0.073
728	0.071
729	0.071
729	0.07
730	0.068
730	0.066
730	0.064
731	0.063
731	0.061
732	0.06
732	0.058
733	0.056
733	0.054
734	0.051
734	0.048
734	0.046
735	0.044
735	0.042
736	0.039
736	0.036
737	0.034
737	0.032
737	0.03
738	0.027
738	0.024
739	0.021
739	0.019
740	0.017
740	0.015
741	0.014
741	0.012
741	0.009
742	0.005
742	0.001
743	-0.003
743	-0.006
744	-0.008
744	-0.01
744	-0.013
745	-0.015
745	-0.018
746	-0.019
746	-0.02
747	-0.02
747	-0.019
748	-0.018
748	-0.017
748	-0.017
749	-0.017
749	-0.017
750	-0.018
750	-0.018
751	-0.019
751	-0.02
751	-0.021
752	-0.022
752	-0.024
753	-0.026
753	-0.027
754	-0.028
754	-0.029
754	-0.028
755	-0.027
755	-0.026
756	-0.026
756	-0.027
757	-0.028
757	-0.028
758	-0.028
758	-0.03
758	-0.03
759	-0.031
759	-0.034
760	-0.037
760	-0.041
761	-0.044
761	-0.045
761	-0.047
762	-0.049
762	-0.051
763	-0.052
763	-0.055
764	-0.058
764	-0.061
764	-0.064
765	-0.066
765	-0.069
766	-0.07
766	-0.071
767	-0.072
767	-0.074
768	-0.078
768	-0.081
768	-0.082
769	-0.083
769	-0.084
770	-0.085
770	-0.087
771	-0.09
771	-0.093
771	-0.096
772	-0.099
772	-0.101
773	-0.103
773	-0.105
774	-0.109
774	-0.112
775	-0.115
775	-0.118
775	-0.122
776	-0.125
776	-0.129
777	-0.132
777	-0.136
778	-0.14
778	-0.145
778	-0.15
779	-0.151
779	-0.149
780	-0.148
780	-0.149
781	-0.149
781	-0.15
781	-0.15
782	-0.15
782	-0.15
783	-0.15
783	-0.148
784	-0.148
784	-0.15
784	-0.152
785	-0.153
785	-0.155
786	-0.156
786	-0.153
787	-0.149
787	-0.145
788	-0.144
788	-0.145
788	-0.146
789	-0.149
789	-0.149
790	-0.146
790	-0.145
791	-0.146
791	-0.148
791	-0.15
792	-0.145
792	-0.135
793	-0.128
793	-0.124
794	-0.122
794	-0.124
794	-0.128
795	-0.13
795	-0.129
796	-0.13
796	-0.132
797	-0.14
797	-0.151
797	-0.158
798	-0.163
798	-0.166
799	-0.167
799	-0.166
800	-0.166
800	-0.167
801	-0.17
801	-0.171
801	-0.171
802	-0.171
802	-0.172
803	-0.173
803	-0.173
804	-0.172
804	-0.167
804	-0.16
805	-0.156
805	-0.154
806	-0.152
806	-0.151
807	-0.15
807	-0.149
807	-0.149
808	-0.148
808	-0.149
809	-0.154
809	-0.159
810	-0.163
810	-0.166
810	-0.169
811	-0.172
811	-0.173
812	-0.17
812	-0.167
813	-0.167
813	-0.169
813	-0.17
814	-0.171
814	-0.172
815	-0.17
815	-0.167
816	-0.166
816	-0.166
817	-0.17
817	-0.173
817	-0.174
818	-0.173
818	-0.169
819	-0.163
819	-0.16
820	-0.161
820	-0.163
820	-0.165
821	-0.165
821	-0.164
822	-0.163
822	-0.163
823	-0.162
823	-0.164
823	-0.168
824	-0.169
824	-0.167
825	-0.163
825	-0.157
826	-0.152
826	-0.148
826	-0.143
827	-0.137
827	-0.131
828	-0.125
828	-0.119
829	-0.114
829	-0.109
829	-0.105
830	-0.102
830	-0.099
831	-0.096
831	-0.093
832	-0.091
832	-0.089
832	-0.087
833	-0.086
833	-0.085
834	-0.084
834	-0.083
835	-0.082
835	-0.081
835	-0.081
836	-0.079
836	-0.078
837	-0.077
837	-0.076
838	-0.075
838	-0.074
839	-0.074
839	-0.073
839	-0.072
840	-0.071
840	-0.07
841	-0.069
841	-0.068
842	-0.067
842	-0.065
842	-0.063
843	-0.061
843	-0.059
844	-0.056
844	-0.054
845	-0.052
845	-0.05
845	-0.048
846	-0.047
846	-0.045
847	-0.044
847	-0.043
848	-0.043
848	-0.042
848	-0.042
849	-0.041
849	-0.041
850	-0.04
850	-0.04
851	-0.04
851	-0.039
851	-0.039
852	-0.038
852	-0.038
853	-0.038
853	-0.037
854	-0.037
854	-0.037
854	-0.036
855	-0.036
855	-0.036
856	-0.036
856	-0.036
857	-0.036
857	-0.035
857	-0.035
858	-0.034
858	-0.034
859	-0.034
859	-0.033
860	-0.032
860	-0.031
860	-0.03
861	-0.029
861	-0.029
862	-0.029
862	-0.028
863	-0.028
863	-0.028
863	-0.027
864	-0.027
864	-0.026
865	-0.025
865	-0.024
866	-0.023
866	-0.022
866	-0.021
867	-0.02
867	-0.019
868	-0.019
868	-0.019
869	-0.018
869	-0.018
869	-0.018
870	-0.018
870	-0.018
871	-0.018
871	-0.018
872	-0.017
872	-0.017
872	-0.017
873	-0.016
873	-0.016
874	-0.016
874	-0.016
875	-0.016
875	-0.015
875	-0.015
876	-0.015
876	-0.015
877	-0.015
877	-0.015
878	-0.015
878	-0.016
878	-0.016
879	-0.016
879	-0.017
880	-0.017
880	-0.017
881	-0.017
881	-0.017
881	-0.016
882	-0.015
882	-0.014
883	-0.013
883	-0.011
884	-0.01
884	-0.009
884	-0.008
885	-0.007
885	-0.006
886	-0.005
886	-0.005
887	-0.005
887	-0.005
887	-0.006
888	-0.006
888	-0.007
889	-0.007
889	-0.007
890	-0.007
890	-0.007
890	-0.008
891	-0.008
891	-0.009
892	-0.009
892	-0.009
893	-0.01
893	-0.01
893	-0.01
894	-0.01
894	-0.011
895	-0.011
895	-0.011
895	-0.012
896	-0.012
896	-0.012
897	-0.012
897	-0.012
898	-0.012
898	-0.013
898	-0.012
899	-0.012
899	-0.012
900	-0.011
900	-0.01
901	-0.009
901	-0.008
901	-0.007
902	-0.006
902	-0.005
903	-0.004
903	-0.003
904	-0.003
904	-0.002
904	-0.002
905	-0.001
905	-0.001
906	-0.001
906	-0.001
907	-0.001
907	-0.001
907	-0.001
908	-0.002
908	-0.002
909	-0.002
909	-0.003
910	-0.003
910	-0.003
910	-0.004
911	-0.004
911	-0.005
912	-0.005
912	-0.006
913	-0.006
913	-0.006
913	-0.007
914	-0.007
914	-0.008
915	-0.008
915	-0.008
916	-0.009
916	-0.009
916	-0.009
917	-0.009
917	-0.009
918	-0.008
918	-0.008
918	-0.007
919	-0.006
919	-0.005
920	-0.004
920	-0.003
921	-0.002
921	-0.001
921	0
922	0.001
922	0.001
923	0.002
923	0.002
924	0.002
924	0.002
924	0.001
925	0
925	-0
926	-0.001
926	-0.002
927	-0.004
927	-0.005
927	-0.005
928	-0.006
928	-0.007
929	-0.007
929	-0.007
930	-0.007
930	-0.007
930	-0.007
931	-0.006
931	-0.005
932	-0.004
932	-0.003
933	-0.002
933	-0.002
933	-0.001
934	-0
934	0
935	0
935	0.001
935	0.001
936	0.001
936	0.002
937	0.002
937	0.002
938	0.003
938	0.003
938	0.003
939	0.004
939	0.004
940	0.004
940	0.005
941	0.005
941	0.005
941	0.005
942	0.005
942	0.005
943	0.005
943	0.005
944	0.006
944	0.006
944	0.006
945	0.007
945	0.007
946	0.008
946	0.008
946	0.008
947	0.008
947	0.008
948	0.008
948	0.008
949	0.008
949	0.008
949	0.008
950	0.008
950	0.008
951	0.007
951	0.007
952	0.006
952	0.006
952	0.005
953	0.005
953	0.005
954	0.004
954	0.003
955	0.003
955	0.002
955	0.002
956	0.002
956	0.002
957	0.002
957	0.002
957	0.002
958	0.002
958	0.002
959	0.002
959	0.002
960	0.001
960	0.001
960	0
961	-0
961	-0
962	-0.001
962	-0.001
963	-0.001
963	-0.001
963	-0.001
964	-0.001
964	-0.001
965	-0.001
965	-0.001
966	-0
966	-0
966	0
967	0
967	0
968	0.001
968	0.001
968	0.001
969	0.002
969	0.002
970	0.003
970	0.003
971	0.003
971	0.003
971	0.003
972	0.004
972	0.005
973	0.005
973	0.006
974	0.007
974	0.008
974	0.008
975	0.009
975	0.01
976	0.012
976	0.012
976	0.013
977	0.013
977	0.013
978	0.013
978	0.012
979	0.011
979	0.011
979	0.01
980	0.009
980	0.007
981	0.006
981	0.005
982	0.004
982	0.003
982	0.003
983	0.002
983	0.002
984	0.001
984	0.001
984	0.001
985	0.001
985	0
986	-0
986	-0
987	-0.001
987	-0
987	-0
988	0
988	0.001
989	0.001
989	0.002
990	0.002
990	0.003
990	0.004
991	0.005
991	0.005
992	0.006
992	0.006
992	0.006
993	0.005
993	0.005
994	0.005
994	0.004
995	0.003
995	0.002
995	0.001
996	0.001
996	0
997	-0
997	-0
997	0
998	0.001
998	0.001
999	0.002
999	0.003
1000	0.003
1000	0.004
1000	0.004
1001	0.004
1001	0.004
1002	0.004
1002	0.003
1003	0.002
1003	0.002
1003	0
1004	-0
1004	-0.001
1005	-0.002
1005	-0.002
1005	-0.003
1006	-0.003
1006	-0.003
1007	-0.002
1007	-0.002
1008	-0.002
1008	-0.002
1008	-0.002
1009	-0.001
1009	-0.001
1010	-0.001
1010	-0.001
1010	-0.001
1011	-0.001
1011	-0.001
1012	-0.001
1012	-0.001
1013	-0.001
1013	-0.001
1013	-0.001
1014	-0
1014	0
1015	0.001
1015	0.001
1016	0.002
1016	0.003
1016	0.003
1017	0.004
1017	0.005
1018	0.007
1018	0.007
1018	0.009
1019	0.01
1019	0.011
1020	0.011
1020	0.012
1021	0.012
1021	0.012
1021	0.013
1022	0.013
1022	0.012
1023	0.012
1023	0.012
1023	0.012
1024	0.012
1024	0.011
1025	0.011
1025	0.011
1026	0.011
1026	0.011
1026	0.011
1027	0.011
1027	0.011
1028	0.011
1028	0.011
1028	0.01
1029	0.01
1029	0.009
1030	0.009
1030	0.008
1031	0.008
1031	0.008
1031	0.008
1032	0.007
1032	0.007
1033	0.007
1033	0.007
1033	0.007
1034	0.006
1034	0.006
1035	0.006
1035	0.005
1036	0.005
1036	0.005
1036	0.005
1037	0.005
1037	0.005
1038	0.006
1038	0.007
1039	0.008
1039	0.009
1039	0.01
1040	0.011
1040	0.012
1041	0.013
1041	0.013
1041	0.014
1042	0.014
1042	0.014
1043	0.014
1043	0.014
1044	0.015
1044	0.015
1044	0.016
1045	0.016
1045	0.017
1046	0.018
1046	0.019
1046	0.02
1047	0.021
1047	0.023
1048	0.024
1048	0.025
1049	0.026
1049	0.026
1049	0.026
1050	0.027
1050	0.027
1051	0.027
1051	0.028
1051	0.029
1052	0.029
1052	0.03
1053	0.031
1053	0.031
1053	0.032
1054	0.033
1054	0.033
1055	0.034
1055	0.034
1056	0.033
1056	0.032
1056	0.031
1057	0.031
1057	0.03
1058	0.03
1058	0.03
1058	0.03
1059	0.03
1059	0.031
1060	0.032
1060	0.033
1061	0.034
1061	0.035
1061	0.036
1062	0.037
1062	0.038
1063	0.038
1063	0.038
1063	0.039
1064	0.04
1064	0.041
1065	0.042
1065	0.043
1066	0.044
1066	0.045
1066	0.047
1067	0.048
1067	0.05
1068	0.052
1068	0.053
1068	0.055
1069	0.056
1069	0.058
1070	0.06
1070	0.063
1071	0.066
1071	0.069
1071	0.072
1072	0.075
1072	0.079
1073	0.083
1073	0.087
1073	0.091
1074	0.094
1074	0.098
1075	0.101
1075	0.104
1076	0.107
1076	0.111
1076	0.113
1077	0.117
1077	0.121
1078	0.125
1078	0.129
1078	0.133
1079	0.137
1079	0.141
1080	0.145
1080	0.15
1080	0.152
1081	0.155
1081	0.159
1082	0.162
1082	0.166
1083	0.169
1083	0.173
1083	0.179
1084	0.183
1084	0.19
1085	0.196
1085	0.203
1085	0.21
1086	0.217
1086	0.223
1087	0.23
1087	0.238
1088	0.245
1088	0.253
1088	0.263
1089	0.271
1089	0.282
1090	0.293
1090	0.307
1090	0.321
1091	0.337
1091	0.356
1092	0.374
1092	0.396
1092	0.419
1093	0.442
1093	0.473
1094	0.503
1094	0.538
1095	0.576
1095	0.623
1095	0.685
1096	0.755
1096	0.845
1097	0.973
1097	1.14
1097	1.485
1098	-0
1098	-0
1099	-0
1099	-0
1100	-0
1100	-0
1100	-0
1101	-0
1101	-0
1102	-0
1102	-0
1102	-0
1103	-0
1103	-0
1104	-0
1104	-0
1104	-0
1105	-0
1105	-0
1106	-0
1106	-0
1107	-0
1107	-0
1107	-0
1108	-0
1108	-0
1109	-0
1109	-0
1109	-0
1110	-0
1110	-0
1111	-0
1111	-0
