Data from 15c-2-5a_Absorbance__781__02582.txt Node

Date: Fri Jan 19 14:09:19 CET 2024
User: Marek
Spectrometer: MAYP115816
Trigger mode: 0
Integration Time (sec): 2.000000E-1
Scans to average: 10
Electric dark correction enabled: true
Nonlinearity correction enabled: true
Boxcar width: 5
XAxis mode: Wavelengths
Number of Pixels in Spectrum: 2068
>>>>>Begin Spectral Data<<<<<
199	-2.289
199	-2.131
200	-1.984
200	-1.863
201	-1.793
201	-1.738
202	-1.664
202	-1.603
203	-1.549
203	-1.503
204	-1.475
204	-1.451
205	-1.43
205	-1.419
205	-1.417
206	-1.41
206	-1.406
207	-1.401
207	-1.396
208	-1.395
208	-1.391
209	-1.389
209	-1.384
210	-1.381
210	-1.379
211	-1.378
211	-1.377
212	-1.378
212	-1.377
213	-1.376
213	-1.373
213	-1.373
214	-1.368
214	-1.367
215	-1.364
215	-1.362
216	-1.358
216	-1.358
217	-1.353
217	-1.351
218	-1.348
218	-1.345
219	-1.342
219	-1.341
220	-1.34
220	-1.339
221	-1.338
221	-1.332
221	-1.327
222	-1.325
222	-1.32
223	-1.315
223	-1.311
224	-1.303
224	-1.296
225	-1.288
225	-1.277
226	-1.266
226	-1.256
227	-1.243
227	-1.228
228	-1.211
228	-1.195
229	-1.174
229	-1.152
229	-1.125
230	-1.096
230	-1.063
231	-1.027
231	-0.988
232	-0.947
232	-0.903
233	-0.855
233	-0.805
234	-0.755
234	-0.704
235	-0.654
235	-0.603
236	-0.553
236	-0.504
236	-0.455
237	-0.408
237	-0.362
238	-0.319
238	-0.279
239	-0.24
239	-0.203
240	-0.168
240	-0.136
241	-0.105
241	-0.076
242	-0.05
242	-0.025
243	-0.003
243	0.018
243	0.038
244	0.056
244	0.073
245	0.088
245	0.103
246	0.116
246	0.128
247	0.139
247	0.15
248	0.16
248	0.169
249	0.177
249	0.185
250	0.193
250	0.2
250	0.206
251	0.213
251	0.218
252	0.224
252	0.229
253	0.234
253	0.238
254	0.242
254	0.247
255	0.25
255	0.254
256	0.257
256	0.26
257	0.263
257	0.265
258	0.267
258	0.269
258	0.271
259	0.273
259	0.274
260	0.276
260	0.276
261	0.277
261	0.279
262	0.279
262	0.28
263	0.281
263	0.282
264	0.282
264	0.283
265	0.283
265	0.284
265	0.284
266	0.284
266	0.284
267	0.284
267	0.283
268	0.283
268	0.283
269	0.282
269	0.281
270	0.28
270	0.28
271	0.279
271	0.278
272	0.277
272	0.277
272	0.276
273	0.274
273	0.274
274	0.273
274	0.272
275	0.271
275	0.27
276	0.269
276	0.268
277	0.267
277	0.265
278	0.263
278	0.261
278	0.258
279	0.256
279	0.255
280	0.254
280	0.253
281	0.252
281	0.251
282	0.25
282	0.25
283	0.25
283	0.25
284	0.25
284	0.25
285	0.25
285	0.249
285	0.248
286	0.247
286	0.246
287	0.245
287	0.244
288	0.244
288	0.243
289	0.242
289	0.241
290	0.24
290	0.24
291	0.239
291	0.238
292	0.238
292	0.237
292	0.236
293	0.235
293	0.235
294	0.234
294	0.233
295	0.233
295	0.232
296	0.231
296	0.231
297	0.23
297	0.23
298	0.229
298	0.228
298	0.228
299	0.227
299	0.227
300	0.226
300	0.225
301	0.225
301	0.224
302	0.223
302	0.223
303	0.222
303	0.222
304	0.221
304	0.22
305	0.22
305	0.219
305	0.219
306	0.218
306	0.217
307	0.217
307	0.216
308	0.215
308	0.214
309	0.214
309	0.213
310	0.212
310	0.211
311	0.211
311	0.21
311	0.209
312	0.208
312	0.208
313	0.207
313	0.206
314	0.205
314	0.204
315	0.204
315	0.203
316	0.202
316	0.201
317	0.2
317	0.199
318	0.199
318	0.198
318	0.197
319	0.196
319	0.196
320	0.195
320	0.194
321	0.193
321	0.192
322	0.191
322	0.189
323	0.188
323	0.188
324	0.187
324	0.186
324	0.185
325	0.184
325	0.183
326	0.183
326	0.182
327	0.181
327	0.181
328	0.18
328	0.179
329	0.178
329	0.178
330	0.177
330	0.176
330	0.175
331	0.174
331	0.173
332	0.172
332	0.172
333	0.171
333	0.17
334	0.169
334	0.168
335	0.167
335	0.167
336	0.166
336	0.165
336	0.164
337	0.163
337	0.163
338	0.162
338	0.161
339	0.16
339	0.16
340	0.159
340	0.158
341	0.158
341	0.157
342	0.157
342	0.156
342	0.155
343	0.154
343	0.154
344	0.153
344	0.152
345	0.151
345	0.151
346	0.15
346	0.149
347	0.148
347	0.147
348	0.146
348	0.146
348	0.145
349	0.144
349	0.143
350	0.142
350	0.141
351	0.14
351	0.139
352	0.138
352	0.137
353	0.137
353	0.135
354	0.134
354	0.133
354	0.132
355	0.13
355	0.129
356	0.128
356	0.127
357	0.127
357	0.126
358	0.126
358	0.126
359	0.127
359	0.128
360	0.128
360	0.129
360	0.13
361	0.13
361	0.131
362	0.131
362	0.131
363	0.131
363	0.131
364	0.13
364	0.13
365	0.129
365	0.128
366	0.128
366	0.127
366	0.127
367	0.126
367	0.126
368	0.126
368	0.125
369	0.124
369	0.124
370	0.123
370	0.123
371	0.122
371	0.122
372	0.121
372	0.121
372	0.12
373	0.12
373	0.12
374	0.12
374	0.12
375	0.119
375	0.119
376	0.12
376	0.12
377	0.12
377	0.12
378	0.121
378	0.121
378	0.121
379	0.121
379	0.121
380	0.121
380	0.121
381	0.121
381	0.121
382	0.121
382	0.12
383	0.12
383	0.119
383	0.119
384	0.118
384	0.118
385	0.117
385	0.117
386	0.117
386	0.117
387	0.117
387	0.117
388	0.116
388	0.116
389	0.116
389	0.116
389	0.116
390	0.116
390	0.116
391	0.116
391	0.117
392	0.117
392	0.116
393	0.116
393	0.116
394	0.116
394	0.116
394	0.116
395	0.115
395	0.115
396	0.115
396	0.115
397	0.115
397	0.115
398	0.115
398	0.115
399	0.115
399	0.115
400	0.115
400	0.114
400	0.114
401	0.113
401	0.112
402	0.111
402	0.11
403	0.109
403	0.109
404	0.109
404	0.108
405	0.108
405	0.108
405	0.107
406	0.107
406	0.106
407	0.106
407	0.106
408	0.105
408	0.104
409	0.103
409	0.103
410	0.102
410	0.102
411	0.102
411	0.102
411	0.102
412	0.102
412	0.101
413	0.101
413	0.101
414	0.1
414	0.1
415	0.1
415	0.099
416	0.099
416	0.098
416	0.097
417	0.097
417	0.097
418	0.097
418	0.097
419	0.097
419	0.098
420	0.098
420	0.099
421	0.1
421	0.1
421	0.101
422	0.101
422	0.101
423	0.101
423	0.101
424	0.1
424	0.099
425	0.098
425	0.097
426	0.097
426	0.096
427	0.096
427	0.096
427	0.096
428	0.097
428	0.098
429	0.098
429	0.099
430	0.099
430	0.099
431	0.099
431	0.098
432	0.097
432	0.097
432	0.095
433	0.094
433	0.092
434	0.091
434	0.091
435	0.091
435	0.091
436	0.091
436	0.091
437	0.091
437	0.091
437	0.091
438	0.091
438	0.091
439	0.091
439	0.09
440	0.09
440	0.09
441	0.09
441	0.09
442	0.09
442	0.09
442	0.09
443	0.091
443	0.091
444	0.091
444	0.091
445	0.091
445	0.091
446	0.091
446	0.091
447	0.09
447	0.09
447	0.089
448	0.089
448	0.089
449	0.089
449	0.089
450	0.088
450	0.088
451	0.087
451	0.087
452	0.086
452	0.085
452	0.085
453	0.084
453	0.083
454	0.082
454	0.081
455	0.081
455	0.08
456	0.08
456	0.079
457	0.079
457	0.079
458	0.079
458	0.079
458	0.079
459	0.079
459	0.079
460	0.078
460	0.078
461	0.077
461	0.076
462	0.076
462	0.076
463	0.076
463	0.077
463	0.078
464	0.078
464	0.079
465	0.079
465	0.079
466	0.079
466	0.079
467	0.079
467	0.078
467	0.077
468	0.075
468	0.073
469	0.071
469	0.069
470	0.068
470	0.067
471	0.066
471	0.066
472	0.066
472	0.066
472	0.066
473	0.067
473	0.069
474	0.07
474	0.071
475	0.071
475	0.072
476	0.072
476	0.073
477	0.073
477	0.073
477	0.073
478	0.073
478	0.073
479	0.073
479	0.074
480	0.074
480	0.075
481	0.076
481	0.076
482	0.077
482	0.078
482	0.08
483	0.082
483	0.085
484	0.089
484	0.092
485	0.094
485	0.095
486	0.097
486	0.098
487	0.098
487	0.098
487	0.098
488	0.097
488	0.095
489	0.092
489	0.089
490	0.087
490	0.086
491	0.085
491	0.084
492	0.084
492	0.084
492	0.084
493	0.085
493	0.086
494	0.087
494	0.09
495	0.091
495	0.093
496	0.094
496	0.094
496	0.095
497	0.096
497	0.097
498	0.098
498	0.098
499	0.098
499	0.097
500	0.098
500	0.099
501	0.1
501	0.102
501	0.103
502	0.104
502	0.105
503	0.107
503	0.108
504	0.109
504	0.109
505	0.109
505	0.109
506	0.108
506	0.109
506	0.109
507	0.108
507	0.108
508	0.108
508	0.108
509	0.109
509	0.109
510	0.11
510	0.109
511	0.109
511	0.109
511	0.109
512	0.11
512	0.11
513	0.109
513	0.107
514	0.105
514	0.103
515	0.103
515	0.102
515	0.102
516	0.101
516	0.101
517	0.101
517	0.1
518	0.1
518	0.099
519	0.098
519	0.095
520	0.092
520	0.088
520	0.085
521	0.082
521	0.079
522	0.076
522	0.074
523	0.074
523	0.074
524	0.077
524	0.08
524	0.083
525	0.087
525	0.091
526	0.094
526	0.097
527	0.1
527	0.103
528	0.104
528	0.106
529	0.107
529	0.107
529	0.107
530	0.107
530	0.107
531	0.107
531	0.107
532	0.107
532	0.106
533	0.107
533	0.107
533	0.107
534	0.107
534	0.106
535	0.105
535	0.105
536	0.105
536	0.105
537	0.104
537	0.104
538	0.103
538	0.101
538	0.1
539	0.099
539	0.099
540	0.098
540	0.097
541	0.095
541	0.093
542	0.091
542	0.09
542	0.089
543	0.088
543	0.087
544	0.086
544	0.085
545	0.084
545	0.084
546	0.084
546	0.084
547	0.083
547	0.081
547	0.079
548	0.077
548	0.075
549	0.073
549	0.071
550	0.069
550	0.068
551	0.066
551	0.063
551	0.062
552	0.061
552	0.06
553	0.06
553	0.06
554	0.06
554	0.059
555	0.057
555	0.054
556	0.052
556	0.049
556	0.046
557	0.043
557	0.041
558	0.039
558	0.037
559	0.036
559	0.035
560	0.035
560	0.035
560	0.035
561	0.035
561	0.036
562	0.036
562	0.036
563	0.035
563	0.033
564	0.031
564	0.028
564	0.026
565	0.025
565	0.024
566	0.024
566	0.023
567	0.024
567	0.025
568	0.027
568	0.029
568	0.031
569	0.034
569	0.037
570	0.039
570	0.04
571	0.041
571	0.042
572	0.043
572	0.044
573	0.044
573	0.045
573	0.044
574	0.044
574	0.044
575	0.044
575	0.045
576	0.047
576	0.047
577	0.046
577	0.044
577	0.044
578	0.043
578	0.042
579	0.043
579	0.044
580	0.044
580	0.042
581	0.039
581	0.037
581	0.035
582	0.035
582	0.034
583	0.035
583	0.035
584	0.033
584	0.03
585	0.028
585	0.027
585	0.027
586	0.027
586	0.027
587	0.025
587	0.023
588	0.02
588	0.017
589	0.015
589	0.014
590	0.013
590	0.012
590	0.012
591	0.013
591	0.013
592	0.013
592	0.012
593	0.012
593	0.012
594	0.012
594	0.011
594	0.01
595	0.009
595	0.008
596	0.006
596	0.006
597	0.008
597	0.009
598	0.01
598	0.012
598	0.013
599	0.013
599	0.013
600	0.012
600	0.01
601	0.009
601	0.008
602	0.006
602	0.005
602	0.003
603	0.002
603	0.002
604	0.003
604	0.004
605	0.006
605	0.009
606	0.01
606	0.01
606	0.009
607	0.009
607	0.009
608	0.008
608	0.007
609	0.005
609	0.004
610	0.002
610	-0.001
610	-0.002
611	-0.003
611	-0.002
612	-0.002
612	-0.001
613	0.001
613	0.002
614	0.002
614	0.001
614	0.002
615	0.001
615	0.001
616	0.001
616	0.001
617	0
617	-0.001
618	-0.002
618	-0.004
618	-0.004
619	-0.005
619	-0.005
620	-0.003
620	-0.002
621	-0.002
621	-0.002
622	-0.002
622	-0.002
622	-0.002
623	-0.002
623	-0.001
624	-0
624	-0.001
625	-0.002
625	-0.002
626	-0.002
626	-0.002
626	-0.002
627	-0.001
627	-0.001
628	0
628	0
629	0.001
629	0.001
630	0
630	-0.001
630	-0.001
631	-0.001
631	-0.001
632	-0.002
632	-0.002
633	-0.003
633	-0.002
634	-0.001
634	0.001
634	0.003
635	0.005
635	0.006
636	0.007
636	0.009
637	0.01
637	0.011
638	0.012
638	0.013
638	0.014
639	0.014
639	0.014
640	0.014
640	0.015
641	0.016
641	0.018
642	0.019
642	0.02
642	0.022
643	0.023
643	0.024
644	0.026
644	0.028
645	0.03
645	0.032
646	0.035
646	0.038
646	0.041
647	0.045
647	0.049
648	0.052
648	0.055
649	0.057
649	0.06
650	0.063
650	0.067
650	0.069
651	0.071
651	0.074
652	0.075
652	0.077
653	0.079
653	0.087
653	0.111
654	0.094
654	0.081
655	0.085
655	0.087
656	0.089
656	0.09
657	0.092
657	0.093
657	0.094
658	0.092
658	0.076
659	0.092
659	0.114
660	0.114
660	0.115
661	0.116
661	0.117
661	0.119
662	0.121
662	0.124
663	0.126
663	0.129
664	0.131
664	0.133
665	0.135
665	0.137
665	0.139
666	0.142
666	0.144
667	0.146
667	0.147
668	0.15
668	0.152
669	0.154
669	0.156
669	0.16
670	0.164
670	0.167
671	0.169
671	0.17
672	0.172
672	0.173
672	0.175
673	0.176
673	0.177
674	0.178
674	0.179
675	0.179
675	0.179
676	0.18
676	0.182
676	0.184
677	0.186
677	0.189
678	0.191
678	0.192
679	0.194
679	0.195
680	0.197
680	0.198
680	0.199
681	0.199
681	0.199
682	0.2
682	0.202
683	0.203
683	0.206
684	0.208
684	0.21
684	0.21
685	0.211
685	0.213
686	0.214
686	0.214
687	0.214
687	0.213
687	0.213
688	0.211
688	0.21
689	0.209
689	0.21
690	0.211
690	0.21
691	0.21
691	0.21
691	0.21
692	0.209
692	0.208
693	0.208
693	0.208
694	0.207
694	0.205
695	0.204
695	0.205
695	0.206
696	0.206
696	0.205
697	0.204
697	0.204
698	0.203
698	0.201
698	0.2
699	0.199
699	0.197
700	0.194
700	0.192
701	0.191
701	0.19
702	0.189
702	0.188
702	0.186
703	0.185
703	0.184
704	0.182
704	0.182
705	0.182
705	0.181
705	0.181
706	0.18
706	0.179
707	0.178
707	0.177
708	0.175
708	0.174
709	0.172
709	0.17
709	0.167
710	0.163
710	0.16
711	0.157
711	0.155
712	0.153
712	0.151
713	0.149
713	0.147
713	0.145
714	0.143
714	0.14
715	0.139
715	0.136
716	0.134
716	0.132
716	0.13
717	0.129
717	0.127
718	0.125
718	0.122
719	0.121
719	0.119
720	0.117
720	0.115
720	0.112
721	0.109
721	0.107
722	0.104
722	0.101
723	0.099
723	0.097
723	0.095
724	0.093
724	0.091
725	0.089
725	0.087
726	0.085
726	0.083
727	0.081
727	0.079
727	0.078
728	0.076
728	0.074
729	0.073
729	0.072
730	0.071
730	0.069
730	0.067
731	0.065
731	0.063
732	0.062
732	0.061
733	0.059
733	0.056
734	0.054
734	0.051
734	0.049
735	0.047
735	0.045
736	0.042
736	0.039
737	0.037
737	0.035
737	0.033
738	0.03
738	0.027
739	0.024
739	0.022
740	0.02
740	0.018
741	0.017
741	0.015
741	0.012
742	0.007
742	0.003
743	-0.001
743	-0.003
744	-0.006
744	-0.008
744	-0.01
745	-0.013
745	-0.016
746	-0.017
746	-0.018
747	-0.018
747	-0.017
748	-0.016
748	-0.016
748	-0.015
749	-0.015
749	-0.015
750	-0.016
750	-0.017
751	-0.017
751	-0.018
751	-0.019
752	-0.02
752	-0.022
753	-0.024
753	-0.025
754	-0.026
754	-0.027
754	-0.026
755	-0.026
755	-0.024
756	-0.024
756	-0.025
757	-0.026
757	-0.026
758	-0.027
758	-0.028
758	-0.028
759	-0.029
759	-0.032
760	-0.035
760	-0.039
761	-0.042
761	-0.044
761	-0.045
762	-0.048
762	-0.05
763	-0.051
763	-0.053
764	-0.057
764	-0.06
764	-0.062
765	-0.065
765	-0.067
766	-0.069
766	-0.07
767	-0.071
767	-0.073
768	-0.077
768	-0.079
768	-0.081
769	-0.082
769	-0.083
770	-0.084
770	-0.086
771	-0.088
771	-0.092
771	-0.095
772	-0.097
772	-0.099
773	-0.101
773	-0.104
774	-0.107
774	-0.111
775	-0.114
775	-0.117
775	-0.12
776	-0.124
776	-0.128
777	-0.131
777	-0.135
778	-0.139
778	-0.144
778	-0.149
779	-0.15
779	-0.148
780	-0.147
780	-0.149
781	-0.149
781	-0.149
781	-0.149
782	-0.149
782	-0.15
783	-0.15
783	-0.148
784	-0.148
784	-0.15
784	-0.152
785	-0.153
785	-0.155
786	-0.156
786	-0.153
787	-0.149
787	-0.145
788	-0.144
788	-0.145
788	-0.146
789	-0.149
789	-0.149
790	-0.146
790	-0.145
791	-0.146
791	-0.147
791	-0.15
792	-0.145
792	-0.135
793	-0.128
793	-0.124
794	-0.122
794	-0.124
794	-0.127
795	-0.13
795	-0.129
796	-0.13
796	-0.132
797	-0.14
797	-0.151
797	-0.158
798	-0.163
798	-0.166
799	-0.167
799	-0.166
800	-0.166
800	-0.167
801	-0.17
801	-0.171
801	-0.171
802	-0.171
802	-0.172
803	-0.173
803	-0.173
804	-0.172
804	-0.167
804	-0.16
805	-0.156
805	-0.154
806	-0.152
806	-0.151
807	-0.15
807	-0.149
807	-0.149
808	-0.148
808	-0.149
809	-0.154
809	-0.159
810	-0.163
810	-0.166
810	-0.169
811	-0.172
811	-0.173
812	-0.17
812	-0.167
813	-0.167
813	-0.169
813	-0.17
814	-0.171
814	-0.172
815	-0.17
815	-0.167
816	-0.166
816	-0.166
817	-0.17
817	-0.173
817	-0.174
818	-0.173
818	-0.169
819	-0.163
819	-0.16
820	-0.161
820	-0.163
820	-0.165
821	-0.165
821	-0.164
822	-0.163
822	-0.163
823	-0.162
823	-0.164
823	-0.168
824	-0.169
824	-0.167
825	-0.163
825	-0.157
826	-0.151
826	-0.147
826	-0.142
827	-0.136
827	-0.13
828	-0.124
828	-0.119
829	-0.113
829	-0.108
829	-0.104
830	-0.101
830	-0.098
831	-0.095
831	-0.092
832	-0.09
832	-0.088
832	-0.086
833	-0.085
833	-0.085
834	-0.084
834	-0.083
835	-0.081
835	-0.081
835	-0.08
836	-0.079
836	-0.077
837	-0.077
837	-0.076
838	-0.074
838	-0.074
839	-0.073
839	-0.072
839	-0.071
840	-0.071
840	-0.07
841	-0.068
841	-0.067
842	-0.066
842	-0.064
842	-0.062
843	-0.06
843	-0.058
844	-0.055
844	-0.053
845	-0.051
845	-0.049
845	-0.047
846	-0.045
846	-0.044
847	-0.043
847	-0.042
848	-0.041
848	-0.041
848	-0.041
849	-0.04
849	-0.039
850	-0.039
850	-0.039
851	-0.039
851	-0.038
851	-0.038
852	-0.038
852	-0.037
853	-0.037
853	-0.036
854	-0.036
854	-0.036
854	-0.035
855	-0.035
855	-0.035
856	-0.035
856	-0.035
857	-0.035
857	-0.035
857	-0.034
858	-0.034
858	-0.034
859	-0.033
859	-0.032
860	-0.031
860	-0.03
860	-0.029
861	-0.028
861	-0.028
862	-0.028
862	-0.027
863	-0.027
863	-0.027
863	-0.026
864	-0.026
864	-0.025
865	-0.024
865	-0.023
866	-0.023
866	-0.022
866	-0.021
867	-0.02
867	-0.019
868	-0.019
868	-0.018
869	-0.018
869	-0.018
869	-0.018
870	-0.018
870	-0.018
871	-0.018
871	-0.017
872	-0.017
872	-0.017
872	-0.017
873	-0.016
873	-0.016
874	-0.016
874	-0.015
875	-0.015
875	-0.015
875	-0.015
876	-0.015
876	-0.015
877	-0.015
877	-0.015
878	-0.015
878	-0.015
878	-0.015
879	-0.016
879	-0.016
880	-0.017
880	-0.017
881	-0.017
881	-0.016
881	-0.016
882	-0.015
882	-0.013
883	-0.012
883	-0.011
884	-0.009
884	-0.008
884	-0.007
885	-0.006
885	-0.005
886	-0.005
886	-0.004
887	-0.004
887	-0.005
887	-0.005
888	-0.006
888	-0.006
889	-0.006
889	-0.006
890	-0.006
890	-0.007
890	-0.007
891	-0.007
891	-0.008
892	-0.008
892	-0.009
893	-0.009
893	-0.009
893	-0.009
894	-0.009
894	-0.01
895	-0.01
895	-0.01
895	-0.011
896	-0.011
896	-0.011
897	-0.011
897	-0.011
898	-0.011
898	-0.011
898	-0.011
899	-0.011
899	-0.011
900	-0.01
900	-0.009
901	-0.009
901	-0.008
901	-0.007
902	-0.006
902	-0.005
903	-0.004
903	-0.003
904	-0.002
904	-0.002
904	-0.001
905	-0
905	-0
906	0
906	-0
907	-0
907	-0
907	-0.001
908	-0.001
908	-0.001
909	-0.002
909	-0.002
910	-0.003
910	-0.003
910	-0.004
911	-0.004
911	-0.005
912	-0.005
912	-0.005
913	-0.005
913	-0.006
913	-0.006
914	-0.007
914	-0.007
915	-0.008
915	-0.008
916	-0.008
916	-0.008
916	-0.008
917	-0.008
917	-0.008
918	-0.008
918	-0.007
918	-0.006
919	-0.006
919	-0.005
920	-0.004
920	-0.002
921	-0.001
921	-0.001
921	0
922	0.001
922	0.001
923	0.001
923	0.002
924	0.002
924	0.001
924	0.001
925	0
925	-0.001
926	-0.002
926	-0.002
927	-0.004
927	-0.004
927	-0.005
928	-0.006
928	-0.006
929	-0.006
929	-0.006
930	-0.006
930	-0.006
930	-0.006
931	-0.005
931	-0.004
932	-0.003
932	-0.002
933	-0.002
933	-0.001
933	-0
934	0.001
934	0.001
935	0.001
935	0.001
935	0.002
936	0.002
936	0.002
937	0.003
937	0.003
938	0.003
938	0.004
938	0.004
939	0.004
939	0.005
940	0.005
940	0.005
941	0.006
941	0.006
941	0.006
942	0.006
942	0.006
943	0.006
943	0.007
944	0.007
944	0.007
944	0.008
945	0.008
945	0.008
946	0.009
946	0.009
946	0.009
947	0.009
947	0.009
948	0.009
948	0.009
949	0.009
949	0.009
949	0.009
950	0.009
950	0.009
951	0.009
951	0.008
952	0.008
952	0.007
952	0.007
953	0.006
953	0.006
954	0.005
954	0.004
955	0.004
955	0.003
955	0.003
956	0.003
956	0.003
957	0.003
957	0.003
957	0.003
958	0.003
958	0.003
959	0.002
959	0.002
960	0.002
960	0.001
960	0.001
961	0
961	0
962	-0
962	-0
963	-0
963	-0.001
963	-0.001
964	-0
964	-0
965	-0
965	0
966	0
966	0.001
966	0.001
967	0.001
967	0.002
968	0.002
968	0.002
968	0.003
969	0.003
969	0.003
970	0.004
970	0.004
971	0.004
971	0.004
971	0.004
972	0.005
972	0.006
973	0.006
973	0.007
974	0.008
974	0.008
974	0.009
975	0.01
975	0.011
976	0.012
976	0.013
976	0.013
977	0.014
977	0.013
978	0.013
978	0.013
979	0.012
979	0.011
979	0.01
980	0.009
980	0.008
981	0.007
981	0.006
982	0.005
982	0.004
982	0.003
983	0.003
983	0.002
984	0.001
984	0.001
984	0.001
985	0.001
985	0.001
986	0
986	0
987	0
987	0
987	0
988	0.001
988	0.002
989	0.002
989	0.002
990	0.003
990	0.004
990	0.005
991	0.005
991	0.006
992	0.006
992	0.007
992	0.007
993	0.006
993	0.006
994	0.005
994	0.005
995	0.004
995	0.003
995	0.002
996	0.002
996	0.001
997	0.001
997	0.001
997	0.001
998	0.002
998	0.002
999	0.003
999	0.004
1000	0.004
1000	0.005
1000	0.005
1001	0.005
1001	0.005
1002	0.004
1002	0.004
1003	0.003
1003	0.002
1003	0.001
1004	0.001
1004	-0
1005	-0.001
1005	-0.001
1005	-0.001
1006	-0.002
1006	-0.002
1007	-0.002
1007	-0.002
1008	-0.001
1008	-0.001
1008	-0.001
1009	-0.001
1009	-0.001
1010	-0.001
1010	-0.001
1010	-0.001
1011	-0.001
1011	-0.001
1012	-0.001
1012	-0
1013	-0
1013	-0
1013	-0
1014	0
1014	0.001
1015	0.001
1015	0.002
1016	0.003
1016	0.003
1016	0.004
1017	0.005
1017	0.006
1018	0.007
1018	0.008
1018	0.01
1019	0.011
1019	0.012
1020	0.012
1020	0.013
1021	0.014
1021	0.014
1021	0.014
1022	0.014
1022	0.014
1023	0.014
1023	0.014
1023	0.014
1024	0.013
1024	0.013
1025	0.013
1025	0.012
1026	0.012
1026	0.012
1026	0.012
1027	0.012
1027	0.012
1028	0.011
1028	0.011
1028	0.011
1029	0.01
1029	0.01
1030	0.01
1030	0.009
1031	0.008
1031	0.008
1031	0.008
1032	0.008
1032	0.008
1033	0.008
1033	0.008
1033	0.007
1034	0.007
1034	0.006
1035	0.006
1035	0.006
1036	0.006
1036	0.006
1036	0.006
1037	0.006
1037	0.006
1038	0.007
1038	0.008
1039	0.008
1039	0.01
1039	0.011
1040	0.012
1040	0.013
1041	0.013
1041	0.014
1041	0.014
1042	0.014
1042	0.014
1043	0.015
1043	0.015
1044	0.015
1044	0.016
1044	0.017
1045	0.017
1045	0.018
1046	0.019
1046	0.02
1046	0.021
1047	0.022
1047	0.024
1048	0.025
1048	0.026
1049	0.027
1049	0.027
1049	0.028
1050	0.028
1050	0.028
1051	0.029
1051	0.029
1051	0.03
1052	0.031
1052	0.031
1053	0.032
1053	0.033
1053	0.033
1054	0.034
1054	0.035
1055	0.035
1055	0.035
1056	0.034
1056	0.034
1056	0.033
1057	0.032
1057	0.032
1058	0.031
1058	0.031
1058	0.031
1059	0.031
1059	0.031
1060	0.032
1060	0.033
1061	0.034
1061	0.036
1061	0.037
1062	0.037
1062	0.038
1063	0.038
1063	0.039
1063	0.04
1064	0.041
1064	0.042
1065	0.043
1065	0.044
1066	0.045
1066	0.046
1066	0.048
1067	0.049
1067	0.051
1068	0.052
1068	0.053
1068	0.055
1069	0.056
1069	0.058
1070	0.06
1070	0.063
1071	0.065
1071	0.069
1071	0.072
1072	0.076
1072	0.079
1073	0.083
1073	0.087
1073	0.092
1074	0.096
1074	0.099
1075	0.102
1075	0.106
1076	0.108
1076	0.113
1076	0.115
1077	0.119
1077	0.123
1078	0.126
1078	0.13
1078	0.135
1079	0.138
1079	0.143
1080	0.147
1080	0.152
1080	0.154
1081	0.158
1081	0.162
1082	0.166
1082	0.17
1083	0.174
1083	0.177
1083	0.183
1084	0.188
1084	0.193
1085	0.199
1085	0.206
1085	0.212
1086	0.219
1086	0.225
1087	0.233
1087	0.24
1088	0.247
1088	0.254
1088	0.264
1089	0.273
1089	0.284
1090	0.296
1090	0.31
1090	0.324
1091	0.339
1091	0.357
1092	0.376
1092	0.398
1092	0.419
1093	0.442
1093	0.472
1094	0.504
1094	0.537
1095	0.574
1095	0.621
1095	0.682
1096	0.754
1096	0.845
1097	0.978
1097	1.16
1097	1.544
1098	-0
1098	-0
1099	-0
1099	-0
1100	-0
1100	-0
1100	-0
1101	-0
1101	-0
1102	-0
1102	-0
1102	-0
1103	-0
1103	-0
1104	-0
1104	-0
1104	-0
1105	-0
1105	-0
1106	-0
1106	-0
1107	-0
1107	-0
1107	-0
1108	-0
1108	-0
1109	-0
1109	-0
1109	-0
1110	-0
1110	-0
1111	-0
1111	-0
