Data from 15c-2-5a_Absorbance__970__02771.txt Node

Date: Fri Jan 19 14:15:37 CET 2024
User: Marek
Spectrometer: MAYP115816
Trigger mode: 0
Integration Time (sec): 2.000000E-1
Scans to average: 10
Electric dark correction enabled: true
Nonlinearity correction enabled: true
Boxcar width: 5
XAxis mode: Wavelengths
Number of Pixels in Spectrum: 2068
>>>>>Begin Spectral Data<<<<<
199	-2.297
199	-2.139
200	-1.992
200	-1.87
201	-1.8
201	-1.745
202	-1.67
202	-1.609
203	-1.556
203	-1.509
204	-1.481
204	-1.456
205	-1.436
205	-1.424
205	-1.422
206	-1.416
206	-1.412
207	-1.407
207	-1.402
208	-1.4
208	-1.397
209	-1.395
209	-1.39
210	-1.387
210	-1.385
211	-1.384
211	-1.383
212	-1.384
212	-1.383
213	-1.382
213	-1.379
213	-1.378
214	-1.373
214	-1.372
215	-1.37
215	-1.367
216	-1.364
216	-1.363
217	-1.358
217	-1.356
218	-1.354
218	-1.351
219	-1.348
219	-1.348
220	-1.346
220	-1.346
221	-1.344
221	-1.339
221	-1.334
222	-1.331
222	-1.327
223	-1.321
223	-1.317
224	-1.309
224	-1.302
225	-1.294
225	-1.282
226	-1.27
226	-1.26
227	-1.247
227	-1.233
228	-1.217
228	-1.201
229	-1.18
229	-1.158
229	-1.131
230	-1.101
230	-1.069
231	-1.033
231	-0.994
232	-0.953
232	-0.908
233	-0.86
233	-0.809
234	-0.759
234	-0.708
235	-0.657
235	-0.605
236	-0.555
236	-0.505
236	-0.456
237	-0.408
237	-0.362
238	-0.318
238	-0.276
239	-0.236
239	-0.198
240	-0.163
240	-0.129
241	-0.097
241	-0.068
242	-0.04
242	-0.014
243	0.01
243	0.031
243	0.052
244	0.071
244	0.089
245	0.105
245	0.12
246	0.134
246	0.147
247	0.158
247	0.17
248	0.18
248	0.19
249	0.199
249	0.207
250	0.215
250	0.223
250	0.23
251	0.237
251	0.243
252	0.249
252	0.255
253	0.26
253	0.265
254	0.27
254	0.274
255	0.278
255	0.282
256	0.285
256	0.288
257	0.291
257	0.293
258	0.295
258	0.297
258	0.3
259	0.301
259	0.303
260	0.304
260	0.305
261	0.306
261	0.308
262	0.309
262	0.309
263	0.31
263	0.311
264	0.312
264	0.312
265	0.313
265	0.313
265	0.313
266	0.314
266	0.314
267	0.314
267	0.313
268	0.313
268	0.312
269	0.312
269	0.311
270	0.311
270	0.31
271	0.309
271	0.309
272	0.308
272	0.307
272	0.307
273	0.306
273	0.305
274	0.304
274	0.303
275	0.302
275	0.302
276	0.301
276	0.3
277	0.298
277	0.297
278	0.295
278	0.292
278	0.29
279	0.288
279	0.287
280	0.286
280	0.285
281	0.284
281	0.284
282	0.283
282	0.283
283	0.283
283	0.283
284	0.284
284	0.284
285	0.283
285	0.282
285	0.281
286	0.28
286	0.28
287	0.279
287	0.278
288	0.277
288	0.276
289	0.275
289	0.274
290	0.274
290	0.273
291	0.272
291	0.271
292	0.271
292	0.27
292	0.269
293	0.268
293	0.268
294	0.267
294	0.266
295	0.266
295	0.265
296	0.264
296	0.264
297	0.263
297	0.263
298	0.262
298	0.262
298	0.261
299	0.26
299	0.26
300	0.259
300	0.258
301	0.258
301	0.257
302	0.256
302	0.256
303	0.255
303	0.254
304	0.253
304	0.253
305	0.252
305	0.252
305	0.251
306	0.25
306	0.25
307	0.249
307	0.248
308	0.247
308	0.247
309	0.246
309	0.245
310	0.244
310	0.244
311	0.243
311	0.242
311	0.241
312	0.24
312	0.239
313	0.239
313	0.238
314	0.237
314	0.236
315	0.235
315	0.234
316	0.233
316	0.232
317	0.231
317	0.23
318	0.229
318	0.228
318	0.228
319	0.227
319	0.226
320	0.225
320	0.224
321	0.223
321	0.222
322	0.221
322	0.22
323	0.219
323	0.218
324	0.217
324	0.216
324	0.215
325	0.214
325	0.213
326	0.212
326	0.212
327	0.211
327	0.21
328	0.209
328	0.208
329	0.207
329	0.207
330	0.206
330	0.205
330	0.204
331	0.203
331	0.202
332	0.201
332	0.201
333	0.2
333	0.199
334	0.198
334	0.197
335	0.196
335	0.195
336	0.194
336	0.193
336	0.192
337	0.191
337	0.191
338	0.19
338	0.189
339	0.188
339	0.187
340	0.186
340	0.186
341	0.185
341	0.184
342	0.184
342	0.183
342	0.183
343	0.182
343	0.181
344	0.18
344	0.18
345	0.179
345	0.178
346	0.178
346	0.177
347	0.176
347	0.175
348	0.174
348	0.173
348	0.173
349	0.171
349	0.17
350	0.17
350	0.169
351	0.168
351	0.166
352	0.165
352	0.164
353	0.163
353	0.162
354	0.16
354	0.159
354	0.158
355	0.156
355	0.155
356	0.154
356	0.153
357	0.152
357	0.152
358	0.152
358	0.152
359	0.153
359	0.154
360	0.155
360	0.156
360	0.156
361	0.157
361	0.157
362	0.158
362	0.158
363	0.158
363	0.157
364	0.157
364	0.156
365	0.155
365	0.154
366	0.154
366	0.153
366	0.153
367	0.153
367	0.152
368	0.152
368	0.151
369	0.15
369	0.15
370	0.149
370	0.149
371	0.148
371	0.148
372	0.147
372	0.146
372	0.146
373	0.145
373	0.145
374	0.145
374	0.145
375	0.145
375	0.145
376	0.145
376	0.145
377	0.146
377	0.146
378	0.147
378	0.147
378	0.147
379	0.147
379	0.147
380	0.147
380	0.147
381	0.147
381	0.147
382	0.147
382	0.146
383	0.146
383	0.145
383	0.145
384	0.144
384	0.144
385	0.143
385	0.143
386	0.143
386	0.142
387	0.142
387	0.142
388	0.142
388	0.142
389	0.142
389	0.141
389	0.141
390	0.141
390	0.141
391	0.142
391	0.142
392	0.142
392	0.141
393	0.141
393	0.141
394	0.141
394	0.141
394	0.141
395	0.14
395	0.14
396	0.139
396	0.139
397	0.14
397	0.14
398	0.14
398	0.14
399	0.14
399	0.14
400	0.14
400	0.139
400	0.139
401	0.138
401	0.137
402	0.135
402	0.134
403	0.134
403	0.133
404	0.133
404	0.133
405	0.132
405	0.132
405	0.131
406	0.131
406	0.131
407	0.131
407	0.13
408	0.129
408	0.128
409	0.128
409	0.127
410	0.127
410	0.126
411	0.127
411	0.126
411	0.126
412	0.126
412	0.125
413	0.125
413	0.124
414	0.124
414	0.124
415	0.124
415	0.123
416	0.122
416	0.122
416	0.121
417	0.121
417	0.121
418	0.121
418	0.121
419	0.121
419	0.122
420	0.123
420	0.123
421	0.124
421	0.124
421	0.125
422	0.125
422	0.125
423	0.125
423	0.125
424	0.124
424	0.123
425	0.122
425	0.121
426	0.12
426	0.119
427	0.119
427	0.119
427	0.12
428	0.12
428	0.121
429	0.122
429	0.123
430	0.123
430	0.123
431	0.122
431	0.122
432	0.121
432	0.12
432	0.119
433	0.117
433	0.116
434	0.114
434	0.114
435	0.114
435	0.114
436	0.114
436	0.114
437	0.114
437	0.114
437	0.114
438	0.114
438	0.114
439	0.114
439	0.113
440	0.113
440	0.113
441	0.113
441	0.113
442	0.113
442	0.113
442	0.113
443	0.114
443	0.114
444	0.114
444	0.114
445	0.115
445	0.115
446	0.114
446	0.114
447	0.114
447	0.113
447	0.113
448	0.113
448	0.112
449	0.112
449	0.112
450	0.111
450	0.111
451	0.11
451	0.11
452	0.109
452	0.108
452	0.107
453	0.107
453	0.106
454	0.105
454	0.104
455	0.103
455	0.103
456	0.103
456	0.102
457	0.102
457	0.102
458	0.102
458	0.102
458	0.102
459	0.102
459	0.102
460	0.101
460	0.1
461	0.1
461	0.099
462	0.099
462	0.099
463	0.099
463	0.1
463	0.101
464	0.101
464	0.102
465	0.102
465	0.102
466	0.102
466	0.102
467	0.102
467	0.101
467	0.1
468	0.098
468	0.096
469	0.093
469	0.091
470	0.09
470	0.09
471	0.089
471	0.089
472	0.088
472	0.088
472	0.089
473	0.09
473	0.091
474	0.092
474	0.093
475	0.094
475	0.095
476	0.095
476	0.095
477	0.096
477	0.096
477	0.096
478	0.096
478	0.096
479	0.096
479	0.097
480	0.098
480	0.098
481	0.099
481	0.1
482	0.101
482	0.102
482	0.104
483	0.106
483	0.11
484	0.114
484	0.117
485	0.119
485	0.12
486	0.122
486	0.123
487	0.123
487	0.123
487	0.122
488	0.121
488	0.119
489	0.116
489	0.113
490	0.111
490	0.11
491	0.109
491	0.108
492	0.109
492	0.109
492	0.109
493	0.11
493	0.111
494	0.112
494	0.115
495	0.117
495	0.118
496	0.119
496	0.12
496	0.121
497	0.122
497	0.123
498	0.124
498	0.124
499	0.124
499	0.124
500	0.124
500	0.125
501	0.127
501	0.128
501	0.13
502	0.131
502	0.133
503	0.134
503	0.135
504	0.136
504	0.136
505	0.136
505	0.136
506	0.136
506	0.136
506	0.136
507	0.135
507	0.135
508	0.134
508	0.134
509	0.135
509	0.135
510	0.135
510	0.135
511	0.135
511	0.135
511	0.135
512	0.135
512	0.136
513	0.134
513	0.132
514	0.13
514	0.128
515	0.128
515	0.127
515	0.127
516	0.126
516	0.126
517	0.125
517	0.125
518	0.124
518	0.123
519	0.121
519	0.118
520	0.115
520	0.111
520	0.107
521	0.103
521	0.1
522	0.097
522	0.095
523	0.095
523	0.096
524	0.099
524	0.103
524	0.107
525	0.111
525	0.116
526	0.12
526	0.123
527	0.127
527	0.129
528	0.131
528	0.133
529	0.134
529	0.134
529	0.134
530	0.134
530	0.134
531	0.134
531	0.134
532	0.134
532	0.133
533	0.134
533	0.134
533	0.134
534	0.134
534	0.133
535	0.132
535	0.132
536	0.132
536	0.132
537	0.131
537	0.131
538	0.13
538	0.128
538	0.127
539	0.126
539	0.125
540	0.124
540	0.123
541	0.121
541	0.12
542	0.118
542	0.116
542	0.115
543	0.114
543	0.113
544	0.112
544	0.111
545	0.11
545	0.11
546	0.11
546	0.11
547	0.109
547	0.107
547	0.104
548	0.102
548	0.099
549	0.097
549	0.095
550	0.094
550	0.091
551	0.089
551	0.087
551	0.085
552	0.084
552	0.083
553	0.082
553	0.083
554	0.082
554	0.081
555	0.079
555	0.076
556	0.073
556	0.07
556	0.067
557	0.064
557	0.062
558	0.06
558	0.058
559	0.056
559	0.055
560	0.055
560	0.055
560	0.055
561	0.055
561	0.056
562	0.056
562	0.056
563	0.054
563	0.053
564	0.05
564	0.048
564	0.045
565	0.044
565	0.043
566	0.042
566	0.041
567	0.042
567	0.043
568	0.046
568	0.048
568	0.05
569	0.053
569	0.056
570	0.058
570	0.058
571	0.06
571	0.061
572	0.062
572	0.063
573	0.063
573	0.063
573	0.062
574	0.062
574	0.062
575	0.061
575	0.063
576	0.064
576	0.064
577	0.063
577	0.062
577	0.061
578	0.06
578	0.06
579	0.061
579	0.062
580	0.062
580	0.06
581	0.057
581	0.054
581	0.052
582	0.052
582	0.052
583	0.053
583	0.053
584	0.05
584	0.046
585	0.044
585	0.043
585	0.043
586	0.043
586	0.043
587	0.041
587	0.039
588	0.035
588	0.032
589	0.03
589	0.028
590	0.027
590	0.025
590	0.026
591	0.027
591	0.027
592	0.027
592	0.026
593	0.025
593	0.025
594	0.025
594	0.024
594	0.024
595	0.023
595	0.021
596	0.019
596	0.019
597	0.021
597	0.023
598	0.024
598	0.026
598	0.027
599	0.027
599	0.027
600	0.026
600	0.024
601	0.023
601	0.022
602	0.02
602	0.018
602	0.016
603	0.015
603	0.015
604	0.016
604	0.017
605	0.02
605	0.022
606	0.023
606	0.023
606	0.022
607	0.022
607	0.022
608	0.021
608	0.019
609	0.018
609	0.016
610	0.014
610	0.012
610	0.01
611	0.011
611	0.011
612	0.012
612	0.013
613	0.015
613	0.016
614	0.017
614	0.016
614	0.016
615	0.016
615	0.015
616	0.015
616	0.014
617	0.014
617	0.012
618	0.01
618	0.009
618	0.008
619	0.007
619	0.007
620	0.009
620	0.01
621	0.01
621	0.01
622	0.011
622	0.011
622	0.011
623	0.011
623	0.012
624	0.014
624	0.013
625	0.013
625	0.012
626	0.012
626	0.012
626	0.012
627	0.013
627	0.014
628	0.014
628	0.015
629	0.015
629	0.015
630	0.015
630	0.014
630	0.013
631	0.013
631	0.013
632	0.012
632	0.012
633	0.011
633	0.011
634	0.013
634	0.015
634	0.017
635	0.019
635	0.02
636	0.021
636	0.023
637	0.024
637	0.025
638	0.026
638	0.028
638	0.028
639	0.028
639	0.028
640	0.029
640	0.03
641	0.031
641	0.033
642	0.034
642	0.036
642	0.038
643	0.04
643	0.041
644	0.043
644	0.045
645	0.047
645	0.05
646	0.052
646	0.056
646	0.06
647	0.064
647	0.068
648	0.071
648	0.074
649	0.077
649	0.08
650	0.084
650	0.087
650	0.09
651	0.092
651	0.094
652	0.096
652	0.098
653	0.101
653	0.11
653	0.135
654	0.113
654	0.096
655	0.101
655	0.103
656	0.105
656	0.106
657	0.108
657	0.11
657	0.111
658	0.108
658	0.091
659	0.111
659	0.138
660	0.139
660	0.14
661	0.142
661	0.143
661	0.145
662	0.148
662	0.151
663	0.154
663	0.157
664	0.16
664	0.162
665	0.164
665	0.167
665	0.169
666	0.171
666	0.173
667	0.176
667	0.178
668	0.18
668	0.182
669	0.184
669	0.186
669	0.19
670	0.195
670	0.198
671	0.2
671	0.202
672	0.204
672	0.206
672	0.207
673	0.209
673	0.21
674	0.212
674	0.212
675	0.211
675	0.211
676	0.213
676	0.215
676	0.216
677	0.218
677	0.221
678	0.223
678	0.225
679	0.226
679	0.228
680	0.23
680	0.232
680	0.233
681	0.233
681	0.234
682	0.235
682	0.236
683	0.238
683	0.241
684	0.243
684	0.245
684	0.245
685	0.246
685	0.247
686	0.248
686	0.249
687	0.248
687	0.247
687	0.247
688	0.245
688	0.243
689	0.243
689	0.243
690	0.244
690	0.244
691	0.243
691	0.243
691	0.244
692	0.243
692	0.242
693	0.242
693	0.242
694	0.241
694	0.239
695	0.238
695	0.24
695	0.241
696	0.24
696	0.239
697	0.239
697	0.238
698	0.237
698	0.235
698	0.234
699	0.233
699	0.231
700	0.228
700	0.225
701	0.224
701	0.223
702	0.221
702	0.22
702	0.219
703	0.218
703	0.216
704	0.214
704	0.214
705	0.214
705	0.213
705	0.213
706	0.212
706	0.211
707	0.209
707	0.208
708	0.206
708	0.204
709	0.202
709	0.2
709	0.196
710	0.192
710	0.189
711	0.186
711	0.184
712	0.182
712	0.18
713	0.178
713	0.176
713	0.174
714	0.171
714	0.169
715	0.167
715	0.165
716	0.162
716	0.16
716	0.158
717	0.156
717	0.154
718	0.151
718	0.148
719	0.146
719	0.144
720	0.142
720	0.14
720	0.137
721	0.133
721	0.13
722	0.128
722	0.124
723	0.122
723	0.12
723	0.118
724	0.116
724	0.114
725	0.111
725	0.109
726	0.107
726	0.106
727	0.104
727	0.102
727	0.1
728	0.098
728	0.096
729	0.095
729	0.095
730	0.093
730	0.091
730	0.089
731	0.087
731	0.085
732	0.083
732	0.082
733	0.079
733	0.077
734	0.074
734	0.071
734	0.069
735	0.067
735	0.064
736	0.061
736	0.058
737	0.056
737	0.054
737	0.052
738	0.049
738	0.046
739	0.043
739	0.041
740	0.038
740	0.036
741	0.035
741	0.033
741	0.029
742	0.025
742	0.02
743	0.016
743	0.013
744	0.01
744	0.008
744	0.005
745	0.002
745	-0.001
746	-0.003
746	-0.005
747	-0.005
747	-0.005
748	-0.004
748	-0.003
748	-0.003
749	-0.004
749	-0.004
750	-0.004
750	-0.005
751	-0.005
751	-0.006
751	-0.006
752	-0.007
752	-0.009
753	-0.01
753	-0.012
754	-0.012
754	-0.013
754	-0.012
755	-0.011
755	-0.01
756	-0.01
756	-0.012
757	-0.013
757	-0.013
758	-0.014
758	-0.015
758	-0.016
759	-0.017
759	-0.02
760	-0.023
760	-0.026
761	-0.029
761	-0.031
761	-0.032
762	-0.035
762	-0.036
763	-0.037
763	-0.04
764	-0.044
764	-0.047
764	-0.05
765	-0.053
765	-0.056
766	-0.058
766	-0.059
767	-0.06
767	-0.063
768	-0.067
768	-0.07
768	-0.072
769	-0.073
769	-0.074
770	-0.075
770	-0.077
771	-0.08
771	-0.083
771	-0.087
772	-0.089
772	-0.091
773	-0.093
773	-0.096
774	-0.099
774	-0.103
775	-0.107
775	-0.11
775	-0.114
776	-0.118
776	-0.122
777	-0.125
777	-0.129
778	-0.134
778	-0.139
778	-0.143
779	-0.145
779	-0.143
780	-0.143
780	-0.145
781	-0.146
781	-0.147
781	-0.147
782	-0.148
782	-0.149
783	-0.149
783	-0.148
784	-0.148
784	-0.15
784	-0.152
785	-0.153
785	-0.155
786	-0.155
786	-0.153
787	-0.149
787	-0.145
788	-0.144
788	-0.145
788	-0.146
789	-0.149
789	-0.149
790	-0.146
790	-0.145
791	-0.145
791	-0.147
791	-0.15
792	-0.145
792	-0.134
793	-0.128
793	-0.124
794	-0.122
794	-0.124
794	-0.127
795	-0.129
795	-0.129
796	-0.129
796	-0.132
797	-0.14
797	-0.151
797	-0.158
798	-0.163
798	-0.166
799	-0.167
799	-0.166
800	-0.166
800	-0.167
801	-0.17
801	-0.171
801	-0.17
802	-0.171
802	-0.172
803	-0.172
803	-0.173
804	-0.171
804	-0.166
804	-0.16
805	-0.156
805	-0.154
806	-0.152
806	-0.15
807	-0.149
807	-0.149
807	-0.149
808	-0.148
808	-0.149
809	-0.154
809	-0.159
810	-0.163
810	-0.165
810	-0.169
811	-0.172
811	-0.173
812	-0.17
812	-0.167
813	-0.167
813	-0.169
813	-0.17
814	-0.171
814	-0.171
815	-0.17
815	-0.167
816	-0.165
816	-0.166
817	-0.17
817	-0.173
817	-0.174
818	-0.173
818	-0.169
819	-0.163
819	-0.16
820	-0.161
820	-0.163
820	-0.165
821	-0.165
821	-0.163
822	-0.163
822	-0.163
823	-0.162
823	-0.164
823	-0.168
824	-0.169
824	-0.167
825	-0.162
825	-0.156
826	-0.15
826	-0.145
826	-0.14
827	-0.133
827	-0.127
828	-0.12
828	-0.114
829	-0.107
829	-0.101
829	-0.097
830	-0.094
830	-0.091
831	-0.087
831	-0.083
832	-0.081
832	-0.079
832	-0.078
833	-0.077
833	-0.076
834	-0.075
834	-0.074
835	-0.073
835	-0.072
835	-0.072
836	-0.071
836	-0.07
837	-0.069
837	-0.068
838	-0.067
838	-0.066
839	-0.065
839	-0.065
839	-0.064
840	-0.064
840	-0.063
841	-0.062
841	-0.061
842	-0.059
842	-0.058
842	-0.056
843	-0.054
843	-0.051
844	-0.048
844	-0.046
845	-0.044
845	-0.042
845	-0.04
846	-0.038
846	-0.037
847	-0.036
847	-0.036
848	-0.035
848	-0.035
848	-0.035
849	-0.035
849	-0.034
850	-0.034
850	-0.034
851	-0.033
851	-0.032
851	-0.032
852	-0.031
852	-0.03
853	-0.029
853	-0.028
854	-0.027
854	-0.026
854	-0.026
855	-0.025
855	-0.025
856	-0.025
856	-0.025
857	-0.024
857	-0.024
857	-0.024
858	-0.024
858	-0.024
859	-0.024
859	-0.023
860	-0.022
860	-0.021
860	-0.02
861	-0.019
861	-0.018
862	-0.018
862	-0.017
863	-0.016
863	-0.016
863	-0.015
864	-0.014
864	-0.013
865	-0.012
865	-0.012
866	-0.011
866	-0.01
866	-0.009
867	-0.008
867	-0.008
868	-0.007
868	-0.007
869	-0.007
869	-0.007
869	-0.007
870	-0.008
870	-0.008
871	-0.008
871	-0.008
872	-0.009
872	-0.009
872	-0.009
873	-0.009
873	-0.01
874	-0.01
874	-0.01
875	-0.01
875	-0.01
875	-0.01
876	-0.01
876	-0.01
877	-0.01
877	-0.01
878	-0.01
878	-0.01
878	-0.011
879	-0.011
879	-0.012
880	-0.012
880	-0.012
881	-0.012
881	-0.012
881	-0.011
882	-0.01
882	-0.009
883	-0.008
883	-0.006
884	-0.004
884	-0.002
884	-0.001
885	0.001
885	0.002
886	0.003
886	0.004
887	0.005
887	0.005
887	0.004
888	0.004
888	0.003
889	0.003
889	0.003
890	0.002
890	0.001
890	0
891	-0
891	-0.001
892	-0.002
892	-0.002
893	-0.002
893	-0.002
893	-0.002
894	-0.002
894	-0.003
895	-0.003
895	-0.004
895	-0.004
896	-0.004
896	-0.004
897	-0.004
897	-0.004
898	-0.004
898	-0.005
898	-0.004
899	-0.004
899	-0.004
900	-0.003
900	-0.002
901	-0.002
901	-0.001
901	-0
902	0.001
902	0.002
903	0.002
903	0.003
904	0.004
904	0.005
904	0.006
905	0.006
905	0.007
906	0.007
906	0.007
907	0.007
907	0.006
907	0.006
908	0.005
908	0.005
909	0.004
909	0.003
910	0.003
910	0.002
910	0.002
911	0.001
911	0
912	-0
912	-0
913	-0.001
913	-0.001
913	-0.001
914	-0.002
914	-0.002
915	-0.003
915	-0.003
916	-0.003
916	-0.003
916	-0.003
917	-0.002
917	-0.002
918	-0.002
918	-0.001
918	-0
919	0.001
919	0.002
920	0.003
920	0.005
921	0.006
921	0.007
921	0.008
922	0.008
922	0.009
923	0.009
923	0.009
924	0.009
924	0.008
924	0.007
925	0.007
925	0.006
926	0.005
926	0.004
927	0.003
927	0.002
927	0.002
928	0.002
928	0.001
929	0.001
929	0.001
930	0.001
930	0.001
930	0.001
931	0.001
931	0.001
932	0.002
932	0.002
933	0.002
933	0.003
933	0.003
934	0.003
934	0.004
935	0.004
935	0.004
935	0.005
936	0.006
936	0.006
937	0.007
937	0.008
938	0.009
938	0.01
938	0.01
939	0.011
939	0.012
940	0.012
940	0.012
941	0.012
941	0.012
941	0.012
942	0.012
942	0.011
943	0.011
943	0.011
944	0.012
944	0.012
944	0.012
945	0.013
945	0.013
946	0.014
946	0.014
946	0.014
947	0.015
947	0.015
948	0.014
948	0.014
949	0.015
949	0.015
949	0.015
950	0.016
950	0.016
951	0.016
951	0.016
952	0.015
952	0.015
952	0.016
953	0.016
953	0.015
954	0.015
954	0.014
955	0.014
955	0.013
955	0.013
956	0.013
956	0.013
957	0.012
957	0.012
957	0.011
958	0.011
958	0.011
959	0.01
959	0.01
960	0.009
960	0.009
960	0.009
961	0.008
961	0.008
962	0.008
962	0.007
963	0.007
963	0.007
963	0.007
964	0.006
964	0.007
965	0.007
965	0.007
966	0.008
966	0.008
966	0.009
967	0.009
967	0.01
968	0.01
968	0.011
968	0.012
969	0.013
969	0.013
970	0.014
970	0.014
971	0.014
971	0.015
971	0.015
972	0.015
972	0.016
973	0.016
973	0.016
974	0.017
974	0.017
974	0.018
975	0.019
975	0.02
976	0.02
976	0.021
976	0.021
977	0.021
977	0.021
978	0.021
978	0.021
979	0.021
979	0.02
979	0.019
980	0.018
980	0.017
981	0.016
981	0.015
982	0.014
982	0.014
982	0.013
983	0.012
983	0.012
984	0.011
984	0.011
984	0.011
985	0.01
985	0.01
986	0.01
986	0.009
987	0.009
987	0.009
987	0.009
988	0.01
988	0.01
989	0.01
989	0.011
990	0.011
990	0.011
990	0.012
991	0.013
991	0.013
992	0.013
992	0.013
992	0.013
993	0.013
993	0.013
994	0.012
994	0.011
995	0.011
995	0.01
995	0.01
996	0.009
996	0.009
997	0.009
997	0.01
997	0.01
998	0.011
998	0.012
999	0.013
999	0.014
1000	0.014
1000	0.015
1000	0.015
1001	0.015
1001	0.015
1002	0.014
1002	0.013
1003	0.012
1003	0.011
1003	0.01
1004	0.009
1004	0.008
1005	0.006
1005	0.005
1005	0.004
1006	0.003
1006	0.003
1007	0.002
1007	0.002
1008	0.002
1008	0.002
1008	0.001
1009	0.002
1009	0.002
1010	0.002
1010	0.002
1010	0.003
1011	0.003
1011	0.003
1012	0.004
1012	0.004
1013	0.004
1013	0.004
1013	0.005
1014	0.005
1014	0.005
1015	0.006
1015	0.007
1016	0.007
1016	0.008
1016	0.009
1017	0.01
1017	0.011
1018	0.012
1018	0.014
1018	0.015
1019	0.017
1019	0.018
1020	0.019
1020	0.02
1021	0.021
1021	0.021
1021	0.022
1022	0.022
1022	0.022
1023	0.022
1023	0.022
1023	0.021
1024	0.021
1024	0.021
1025	0.02
1025	0.02
1026	0.02
1026	0.02
1026	0.021
1027	0.021
1027	0.021
1028	0.021
1028	0.021
1028	0.021
1029	0.021
1029	0.021
1030	0.021
1030	0.02
1031	0.02
1031	0.02
1031	0.019
1032	0.019
1032	0.018
1033	0.018
1033	0.018
1033	0.017
1034	0.017
1034	0.016
1035	0.016
1035	0.015
1036	0.015
1036	0.014
1036	0.014
1037	0.014
1037	0.015
1038	0.015
1038	0.016
1039	0.016
1039	0.017
1039	0.018
1040	0.019
1040	0.02
1041	0.021
1041	0.021
1041	0.022
1042	0.022
1042	0.022
1043	0.023
1043	0.023
1044	0.024
1044	0.024
1044	0.025
1045	0.026
1045	0.026
1046	0.027
1046	0.029
1046	0.03
1047	0.032
1047	0.034
1048	0.035
1048	0.036
1049	0.037
1049	0.038
1049	0.038
1050	0.039
1050	0.04
1051	0.041
1051	0.041
1051	0.042
1052	0.043
1052	0.043
1053	0.045
1053	0.045
1053	0.046
1054	0.047
1054	0.048
1055	0.048
1055	0.048
1056	0.048
1056	0.048
1056	0.047
1057	0.046
1057	0.046
1058	0.046
1058	0.046
1058	0.046
1059	0.047
1059	0.047
1060	0.047
1060	0.048
1061	0.049
1061	0.05
1061	0.051
1062	0.051
1062	0.051
1063	0.051
1063	0.051
1063	0.052
1064	0.053
1064	0.054
1065	0.055
1065	0.055
1066	0.056
1066	0.057
1066	0.059
1067	0.06
1067	0.062
1068	0.064
1068	0.065
1068	0.067
1069	0.069
1069	0.071
1070	0.073
1070	0.076
1071	0.079
1071	0.082
1071	0.085
1072	0.089
1072	0.093
1073	0.097
1073	0.1
1073	0.104
1074	0.108
1074	0.112
1075	0.115
1075	0.118
1076	0.12
1076	0.124
1076	0.127
1077	0.131
1077	0.135
1078	0.138
1078	0.143
1078	0.147
1079	0.151
1079	0.156
1080	0.16
1080	0.165
1080	0.168
1081	0.173
1081	0.177
1082	0.182
1082	0.186
1083	0.19
1083	0.195
1083	0.201
1084	0.207
1084	0.214
1085	0.221
1085	0.229
1085	0.236
1086	0.243
1086	0.249
1087	0.257
1087	0.266
1088	0.273
1088	0.281
1088	0.291
1089	0.299
1089	0.311
1090	0.323
1090	0.338
1090	0.353
1091	0.369
1091	0.389
1092	0.407
1092	0.431
1092	0.454
1093	0.48
1093	0.513
1094	0.545
1094	0.582
1095	0.626
1095	0.681
1095	0.754
1096	0.841
1096	0.955
1097	1.132
1097	1.446
1097	-0
1098	-0
1098	-0
1099	-0
1099	-0
1100	-0
1100	-0
1100	-0
1101	-0
1101	-0
1102	-0
1102	-0
1102	-0
1103	-0
1103	-0
1104	-0
1104	-0
1104	-0
1105	-0
1105	-0
1106	-0
1106	-0
1107	-0
1107	-0
1107	-0
1108	-0
1108	-0
1109	-0
1109	-0
1109	-0
1110	-0
1110	-0
1111	-0
1111	-0
