Data from 15c-2-5a_Absorbance__1426__03227.txt Node

Date: Fri Jan 19 14:30:49 CET 2024
User: Marek
Spectrometer: MAYP115816
Trigger mode: 0
Integration Time (sec): 2.000000E-1
Scans to average: 10
Electric dark correction enabled: true
Nonlinearity correction enabled: true
Boxcar width: 5
XAxis mode: Wavelengths
Number of Pixels in Spectrum: 2068
>>>>>Begin Spectral Data<<<<<
199	-2.296
199	-2.138
200	-1.991
200	-1.869
201	-1.799
201	-1.744
202	-1.67
202	-1.609
203	-1.555
203	-1.509
204	-1.481
204	-1.456
205	-1.435
205	-1.424
205	-1.422
206	-1.415
206	-1.411
207	-1.406
207	-1.401
208	-1.399
208	-1.395
209	-1.393
209	-1.388
210	-1.386
210	-1.384
211	-1.383
211	-1.381
212	-1.382
212	-1.381
213	-1.381
213	-1.378
213	-1.377
214	-1.373
214	-1.372
215	-1.369
215	-1.367
216	-1.364
216	-1.364
217	-1.359
217	-1.357
218	-1.354
218	-1.352
219	-1.348
219	-1.347
220	-1.346
220	-1.345
221	-1.343
221	-1.337
221	-1.332
222	-1.33
222	-1.326
223	-1.32
223	-1.315
224	-1.308
224	-1.301
225	-1.293
225	-1.281
226	-1.27
226	-1.26
227	-1.247
227	-1.232
228	-1.215
228	-1.2
229	-1.179
229	-1.156
229	-1.129
230	-1.1
230	-1.068
231	-1.032
231	-0.992
232	-0.951
232	-0.906
233	-0.858
233	-0.807
234	-0.757
234	-0.705
235	-0.654
235	-0.602
236	-0.551
236	-0.501
236	-0.451
237	-0.403
237	-0.356
238	-0.312
238	-0.269
239	-0.228
239	-0.19
240	-0.153
240	-0.119
241	-0.086
241	-0.056
242	-0.028
242	-0.001
243	0.023
243	0.046
243	0.067
244	0.087
244	0.106
245	0.122
245	0.138
246	0.153
246	0.166
247	0.179
247	0.191
248	0.202
248	0.212
249	0.222
249	0.23
250	0.239
250	0.247
250	0.255
251	0.262
251	0.268
252	0.274
252	0.28
253	0.286
253	0.29
254	0.295
254	0.3
255	0.304
255	0.308
256	0.312
256	0.315
257	0.318
257	0.321
258	0.323
258	0.326
258	0.328
259	0.33
259	0.331
260	0.333
260	0.334
261	0.335
261	0.337
262	0.338
262	0.339
263	0.34
263	0.341
264	0.342
264	0.342
265	0.342
265	0.343
265	0.343
266	0.343
266	0.343
267	0.343
267	0.343
268	0.342
268	0.342
269	0.342
269	0.341
270	0.34
270	0.34
271	0.339
271	0.338
272	0.338
272	0.337
272	0.337
273	0.336
273	0.335
274	0.334
274	0.333
275	0.332
275	0.332
276	0.33
276	0.329
277	0.327
277	0.326
278	0.323
278	0.321
278	0.319
279	0.317
279	0.316
280	0.315
280	0.314
281	0.313
281	0.313
282	0.312
282	0.312
283	0.312
283	0.313
284	0.313
284	0.313
285	0.312
285	0.311
285	0.31
286	0.31
286	0.309
287	0.308
287	0.307
288	0.306
288	0.305
289	0.304
289	0.303
290	0.303
290	0.302
291	0.301
291	0.3
292	0.3
292	0.299
292	0.298
293	0.297
293	0.296
294	0.296
294	0.295
295	0.294
295	0.293
296	0.293
296	0.292
297	0.291
297	0.291
298	0.29
298	0.289
298	0.289
299	0.288
299	0.287
300	0.287
300	0.286
301	0.285
301	0.284
302	0.284
302	0.283
303	0.282
303	0.282
304	0.281
304	0.28
305	0.28
305	0.279
305	0.278
306	0.278
306	0.277
307	0.276
307	0.275
308	0.274
308	0.273
309	0.273
309	0.272
310	0.271
310	0.27
311	0.269
311	0.268
311	0.267
312	0.266
312	0.266
313	0.265
313	0.264
314	0.263
314	0.262
315	0.261
315	0.26
316	0.259
316	0.258
317	0.257
317	0.256
318	0.255
318	0.254
318	0.253
319	0.253
319	0.252
320	0.251
320	0.249
321	0.248
321	0.247
322	0.246
322	0.245
323	0.244
323	0.243
324	0.242
324	0.241
324	0.24
325	0.239
325	0.238
326	0.237
326	0.236
327	0.235
327	0.234
328	0.234
328	0.233
329	0.232
329	0.231
330	0.23
330	0.229
330	0.228
331	0.227
331	0.226
332	0.225
332	0.224
333	0.223
333	0.222
334	0.221
334	0.22
335	0.219
335	0.218
336	0.217
336	0.217
336	0.216
337	0.215
337	0.214
338	0.213
338	0.212
339	0.211
339	0.211
340	0.21
340	0.209
341	0.208
341	0.207
342	0.207
342	0.206
342	0.205
343	0.204
343	0.204
344	0.203
344	0.202
345	0.201
345	0.2
346	0.2
346	0.199
347	0.198
347	0.197
348	0.196
348	0.195
348	0.195
349	0.194
349	0.193
350	0.191
350	0.19
351	0.189
351	0.189
352	0.188
352	0.186
353	0.186
353	0.184
354	0.183
354	0.181
354	0.18
355	0.179
355	0.177
356	0.176
356	0.175
357	0.174
357	0.173
358	0.173
358	0.174
359	0.174
359	0.175
360	0.176
360	0.177
360	0.178
361	0.179
361	0.179
362	0.18
362	0.18
363	0.18
363	0.179
364	0.179
364	0.178
365	0.177
365	0.176
366	0.176
366	0.175
366	0.175
367	0.174
367	0.174
368	0.173
368	0.173
369	0.172
369	0.172
370	0.171
370	0.17
371	0.17
371	0.169
372	0.168
372	0.167
372	0.167
373	0.166
373	0.166
374	0.166
374	0.166
375	0.166
375	0.166
376	0.166
376	0.166
377	0.166
377	0.167
378	0.167
378	0.168
378	0.168
379	0.168
379	0.168
380	0.168
380	0.168
381	0.168
381	0.168
382	0.167
382	0.167
383	0.166
383	0.166
383	0.165
384	0.165
384	0.164
385	0.164
385	0.164
386	0.163
386	0.164
387	0.163
387	0.163
388	0.163
388	0.162
389	0.162
389	0.162
389	0.162
390	0.162
390	0.162
391	0.162
391	0.163
392	0.163
392	0.162
393	0.162
393	0.162
394	0.162
394	0.161
394	0.161
395	0.161
395	0.16
396	0.16
396	0.159
397	0.16
397	0.16
398	0.16
398	0.16
399	0.16
399	0.16
400	0.16
400	0.16
400	0.159
401	0.158
401	0.157
402	0.156
402	0.155
403	0.154
403	0.154
404	0.153
404	0.153
405	0.153
405	0.152
405	0.151
406	0.151
406	0.151
407	0.15
407	0.15
408	0.149
408	0.148
409	0.148
409	0.147
410	0.146
410	0.146
411	0.146
411	0.146
411	0.146
412	0.146
412	0.145
413	0.145
413	0.145
414	0.144
414	0.144
415	0.144
415	0.144
416	0.143
416	0.142
416	0.141
417	0.141
417	0.141
418	0.141
418	0.141
419	0.141
419	0.142
420	0.143
420	0.144
421	0.144
421	0.145
421	0.145
422	0.145
422	0.145
423	0.146
423	0.145
424	0.144
424	0.143
425	0.142
425	0.141
426	0.14
426	0.139
427	0.139
427	0.139
427	0.139
428	0.14
428	0.141
429	0.142
429	0.143
430	0.143
430	0.143
431	0.142
431	0.142
432	0.141
432	0.14
432	0.139
433	0.137
433	0.136
434	0.134
434	0.134
435	0.134
435	0.134
436	0.134
436	0.134
437	0.134
437	0.134
437	0.134
438	0.134
438	0.134
439	0.134
439	0.134
440	0.133
440	0.133
441	0.133
441	0.133
442	0.133
442	0.133
442	0.134
443	0.134
443	0.134
444	0.135
444	0.135
445	0.135
445	0.135
446	0.135
446	0.134
447	0.134
447	0.133
447	0.133
448	0.132
448	0.132
449	0.131
449	0.131
450	0.13
450	0.13
451	0.129
451	0.129
452	0.128
452	0.127
452	0.126
453	0.126
453	0.125
454	0.124
454	0.123
455	0.123
455	0.122
456	0.122
456	0.122
457	0.122
457	0.121
458	0.121
458	0.121
458	0.121
459	0.121
459	0.121
460	0.121
460	0.12
461	0.119
461	0.118
462	0.118
462	0.118
463	0.119
463	0.119
463	0.12
464	0.121
464	0.121
465	0.121
465	0.122
466	0.122
466	0.122
467	0.122
467	0.121
467	0.12
468	0.118
468	0.115
469	0.113
469	0.111
470	0.109
470	0.109
471	0.108
471	0.107
472	0.107
472	0.107
472	0.107
473	0.108
473	0.11
474	0.111
474	0.112
475	0.113
475	0.114
476	0.114
476	0.115
477	0.115
477	0.116
477	0.116
478	0.116
478	0.116
479	0.117
479	0.117
480	0.118
480	0.119
481	0.12
481	0.12
482	0.121
482	0.123
482	0.124
483	0.127
483	0.13
484	0.134
484	0.138
485	0.14
485	0.142
486	0.143
486	0.144
487	0.144
487	0.144
487	0.144
488	0.143
488	0.14
489	0.137
489	0.134
490	0.132
490	0.131
491	0.13
491	0.129
492	0.13
492	0.13
492	0.13
493	0.131
493	0.131
494	0.133
494	0.136
495	0.138
495	0.139
496	0.141
496	0.141
496	0.142
497	0.143
497	0.144
498	0.145
498	0.146
499	0.146
499	0.146
500	0.146
500	0.147
501	0.149
501	0.151
501	0.152
502	0.154
502	0.156
503	0.157
503	0.159
504	0.159
504	0.16
505	0.159
505	0.159
506	0.159
506	0.159
506	0.159
507	0.159
507	0.158
508	0.158
508	0.159
509	0.159
509	0.159
510	0.16
510	0.159
511	0.159
511	0.16
511	0.16
512	0.16
512	0.16
513	0.158
513	0.156
514	0.154
514	0.153
515	0.152
515	0.152
515	0.152
516	0.151
516	0.151
517	0.15
517	0.15
518	0.149
518	0.147
519	0.145
519	0.142
520	0.138
520	0.134
520	0.13
521	0.127
521	0.124
522	0.122
522	0.122
523	0.122
523	0.124
524	0.128
524	0.132
524	0.136
525	0.14
525	0.144
526	0.147
526	0.15
527	0.153
527	0.155
528	0.156
528	0.157
529	0.158
529	0.158
529	0.158
530	0.158
530	0.157
531	0.157
531	0.157
532	0.157
532	0.157
533	0.157
533	0.157
533	0.157
534	0.157
534	0.156
535	0.156
535	0.155
536	0.155
536	0.155
537	0.154
537	0.153
538	0.152
538	0.151
538	0.15
539	0.149
539	0.148
540	0.147
540	0.146
541	0.145
541	0.143
542	0.141
542	0.139
542	0.138
543	0.137
543	0.136
544	0.134
544	0.132
545	0.132
545	0.131
546	0.131
546	0.131
547	0.13
547	0.128
547	0.126
548	0.123
548	0.121
549	0.118
549	0.116
550	0.114
550	0.112
551	0.11
551	0.107
551	0.105
552	0.103
552	0.102
553	0.102
553	0.102
554	0.101
554	0.1
555	0.098
555	0.095
556	0.092
556	0.089
556	0.086
557	0.083
557	0.081
558	0.078
558	0.076
559	0.074
559	0.073
560	0.073
560	0.072
560	0.071
561	0.072
561	0.072
562	0.072
562	0.072
563	0.07
563	0.068
564	0.065
564	0.063
564	0.06
565	0.058
565	0.058
566	0.057
566	0.056
567	0.057
567	0.058
568	0.06
568	0.063
568	0.066
569	0.069
569	0.072
570	0.074
570	0.075
571	0.076
571	0.078
572	0.078
572	0.079
573	0.079
573	0.079
573	0.079
574	0.078
574	0.077
575	0.077
575	0.078
576	0.079
576	0.079
577	0.077
577	0.076
577	0.075
578	0.073
578	0.073
579	0.074
579	0.076
580	0.075
580	0.073
581	0.069
581	0.066
581	0.065
582	0.064
582	0.064
583	0.065
583	0.065
584	0.063
584	0.058
585	0.056
585	0.055
585	0.055
586	0.055
586	0.055
587	0.053
587	0.051
588	0.047
588	0.044
589	0.042
589	0.04
590	0.039
590	0.038
590	0.038
591	0.039
591	0.04
592	0.04
592	0.039
593	0.039
593	0.039
594	0.038
594	0.038
594	0.036
595	0.036
595	0.033
596	0.031
596	0.03
597	0.032
597	0.034
598	0.035
598	0.036
598	0.037
599	0.038
599	0.038
600	0.037
600	0.036
601	0.035
601	0.034
602	0.032
602	0.031
602	0.029
603	0.028
603	0.029
604	0.03
604	0.031
605	0.034
605	0.036
606	0.038
606	0.037
606	0.037
607	0.036
607	0.036
608	0.036
608	0.033
609	0.031
609	0.03
610	0.027
610	0.025
610	0.023
611	0.023
611	0.023
612	0.024
612	0.025
613	0.027
613	0.029
614	0.029
614	0.028
614	0.029
615	0.028
615	0.028
616	0.028
616	0.027
617	0.027
617	0.025
618	0.023
618	0.022
618	0.02
619	0.019
619	0.019
620	0.021
620	0.022
621	0.022
621	0.023
622	0.023
622	0.024
622	0.024
623	0.024
623	0.025
624	0.026
624	0.026
625	0.025
625	0.024
626	0.024
626	0.024
626	0.024
627	0.024
627	0.025
628	0.026
628	0.026
629	0.027
629	0.027
630	0.027
630	0.026
630	0.026
631	0.026
631	0.027
632	0.026
632	0.026
633	0.026
633	0.026
634	0.028
634	0.03
634	0.033
635	0.035
635	0.036
636	0.038
636	0.039
637	0.04
637	0.042
638	0.043
638	0.044
638	0.044
639	0.044
639	0.044
640	0.044
640	0.046
641	0.047
641	0.048
642	0.05
642	0.052
642	0.054
643	0.055
643	0.057
644	0.059
644	0.062
645	0.064
645	0.066
646	0.069
646	0.073
646	0.077
647	0.082
647	0.086
648	0.089
648	0.093
649	0.096
649	0.099
650	0.103
650	0.106
650	0.109
651	0.112
651	0.114
652	0.116
652	0.118
653	0.121
653	0.13
653	0.158
654	0.131
654	0.11
655	0.115
655	0.117
656	0.119
656	0.121
657	0.123
657	0.125
657	0.126
658	0.123
658	0.104
659	0.128
659	0.161
660	0.161
660	0.163
661	0.164
661	0.166
661	0.168
662	0.171
662	0.174
663	0.177
663	0.181
664	0.184
664	0.186
665	0.189
665	0.191
665	0.194
666	0.196
666	0.198
667	0.2
667	0.203
668	0.205
668	0.207
669	0.209
669	0.211
669	0.215
670	0.219
670	0.223
671	0.226
671	0.228
672	0.23
672	0.231
672	0.233
673	0.235
673	0.236
674	0.238
674	0.238
675	0.238
675	0.238
676	0.239
676	0.242
676	0.243
677	0.246
677	0.249
678	0.251
678	0.253
679	0.255
679	0.257
680	0.259
680	0.261
680	0.261
681	0.262
681	0.263
682	0.263
682	0.264
683	0.266
683	0.268
684	0.271
684	0.272
684	0.273
685	0.273
685	0.274
686	0.276
686	0.276
687	0.276
687	0.275
687	0.274
688	0.273
688	0.271
689	0.271
689	0.272
690	0.273
690	0.273
691	0.272
691	0.273
691	0.273
692	0.273
692	0.272
693	0.271
693	0.272
694	0.271
694	0.268
695	0.267
695	0.269
695	0.269
696	0.268
696	0.267
697	0.266
697	0.265
698	0.264
698	0.262
698	0.26
699	0.259
699	0.256
700	0.252
700	0.249
701	0.248
701	0.246
702	0.245
702	0.244
702	0.243
703	0.242
703	0.241
704	0.24
704	0.24
705	0.24
705	0.24
705	0.239
706	0.239
706	0.238
707	0.237
707	0.234
708	0.232
708	0.23
709	0.228
709	0.225
709	0.22
710	0.215
710	0.212
711	0.208
711	0.206
712	0.203
712	0.201
713	0.2
713	0.198
713	0.197
714	0.195
714	0.193
715	0.191
715	0.189
716	0.186
716	0.184
716	0.182
717	0.18
717	0.177
718	0.174
718	0.171
719	0.169
719	0.167
720	0.165
720	0.163
720	0.16
721	0.157
721	0.154
722	0.152
722	0.149
723	0.146
723	0.145
723	0.142
724	0.14
724	0.137
725	0.134
725	0.131
726	0.129
726	0.127
727	0.124
727	0.122
727	0.12
728	0.118
728	0.116
729	0.115
729	0.114
730	0.113
730	0.11
730	0.108
731	0.106
731	0.104
732	0.102
732	0.101
733	0.098
733	0.095
734	0.092
734	0.089
734	0.086
735	0.084
735	0.082
736	0.079
736	0.076
737	0.074
737	0.072
737	0.07
738	0.067
738	0.064
739	0.061
739	0.058
740	0.055
740	0.053
741	0.051
741	0.049
741	0.045
742	0.04
742	0.036
743	0.032
743	0.029
744	0.026
744	0.023
744	0.02
745	0.017
745	0.014
746	0.012
746	0.01
747	0.009
747	0.009
748	0.01
748	0.01
748	0.01
749	0.01
749	0.009
750	0.009
750	0.008
751	0.007
751	0.007
751	0.006
752	0.005
752	0.003
753	0.001
753	-0
754	-0.001
754	-0.002
754	-0.001
755	-0.001
755	0
756	0.001
756	-0.001
757	-0.002
757	-0.002
758	-0.003
758	-0.004
758	-0.004
759	-0.005
759	-0.007
760	-0.01
760	-0.014
761	-0.017
761	-0.018
761	-0.02
762	-0.022
762	-0.024
763	-0.026
763	-0.029
764	-0.033
764	-0.037
764	-0.04
765	-0.043
765	-0.046
766	-0.049
766	-0.05
767	-0.051
767	-0.054
768	-0.059
768	-0.061
768	-0.063
769	-0.064
769	-0.064
770	-0.066
770	-0.067
771	-0.069
771	-0.072
771	-0.076
772	-0.078
772	-0.08
773	-0.082
773	-0.085
774	-0.089
774	-0.093
775	-0.096
775	-0.1
775	-0.104
776	-0.108
776	-0.112
777	-0.116
777	-0.119
778	-0.124
778	-0.128
778	-0.133
779	-0.136
779	-0.135
780	-0.136
780	-0.138
781	-0.14
781	-0.141
781	-0.143
782	-0.145
782	-0.147
783	-0.148
783	-0.148
784	-0.148
784	-0.15
784	-0.152
785	-0.153
785	-0.155
786	-0.155
786	-0.153
787	-0.149
787	-0.145
788	-0.144
788	-0.145
788	-0.146
789	-0.149
789	-0.149
790	-0.146
790	-0.145
791	-0.145
791	-0.147
791	-0.15
792	-0.145
792	-0.134
793	-0.128
793	-0.124
794	-0.122
794	-0.124
794	-0.127
795	-0.129
795	-0.129
796	-0.129
796	-0.132
797	-0.14
797	-0.151
797	-0.158
798	-0.163
798	-0.166
799	-0.167
799	-0.166
800	-0.166
800	-0.167
801	-0.17
801	-0.171
801	-0.17
802	-0.171
802	-0.172
803	-0.172
803	-0.173
804	-0.171
804	-0.166
804	-0.16
805	-0.156
805	-0.154
806	-0.152
806	-0.15
807	-0.149
807	-0.149
807	-0.149
808	-0.148
808	-0.149
809	-0.154
809	-0.159
810	-0.163
810	-0.165
810	-0.169
811	-0.172
811	-0.173
812	-0.17
812	-0.167
813	-0.167
813	-0.168
813	-0.17
814	-0.171
814	-0.171
815	-0.17
815	-0.167
816	-0.165
816	-0.166
817	-0.17
817	-0.173
817	-0.174
818	-0.173
818	-0.169
819	-0.163
819	-0.16
820	-0.161
820	-0.163
820	-0.165
821	-0.165
821	-0.163
822	-0.163
822	-0.162
823	-0.162
823	-0.164
823	-0.168
824	-0.169
824	-0.167
825	-0.162
825	-0.156
826	-0.151
826	-0.146
826	-0.141
827	-0.134
827	-0.127
828	-0.121
828	-0.115
829	-0.108
829	-0.102
829	-0.098
830	-0.094
830	-0.091
831	-0.086
831	-0.083
832	-0.08
832	-0.078
832	-0.076
833	-0.074
833	-0.073
834	-0.072
834	-0.071
835	-0.07
835	-0.068
835	-0.067
836	-0.066
836	-0.064
837	-0.063
837	-0.062
838	-0.06
838	-0.059
839	-0.057
839	-0.057
839	-0.056
840	-0.055
840	-0.054
841	-0.054
841	-0.053
842	-0.052
842	-0.051
842	-0.05
843	-0.048
843	-0.046
844	-0.044
844	-0.041
845	-0.039
845	-0.038
845	-0.035
846	-0.034
846	-0.033
847	-0.032
847	-0.031
848	-0.031
848	-0.031
848	-0.03
849	-0.029
849	-0.029
850	-0.028
850	-0.027
851	-0.026
851	-0.025
851	-0.024
852	-0.024
852	-0.023
853	-0.022
853	-0.022
854	-0.022
854	-0.021
854	-0.021
855	-0.021
855	-0.021
856	-0.021
856	-0.021
857	-0.02
857	-0.02
857	-0.02
858	-0.019
858	-0.019
859	-0.019
859	-0.018
860	-0.018
860	-0.017
860	-0.015
861	-0.014
861	-0.012
862	-0.012
862	-0.011
863	-0.011
863	-0.01
863	-0.009
864	-0.009
864	-0.008
865	-0.007
865	-0.007
866	-0.007
866	-0.007
866	-0.006
867	-0.005
867	-0.005
868	-0.004
868	-0.004
869	-0.004
869	-0.005
869	-0.005
870	-0.006
870	-0.006
871	-0.006
871	-0.007
872	-0.007
872	-0.007
872	-0.007
873	-0.007
873	-0.007
874	-0.007
874	-0.006
875	-0.006
875	-0.006
875	-0.005
876	-0.005
876	-0.005
877	-0.005
877	-0.005
878	-0.006
878	-0.007
878	-0.007
879	-0.008
879	-0.009
880	-0.01
880	-0.01
881	-0.01
881	-0.01
881	-0.009
882	-0.008
882	-0.007
883	-0.005
883	-0.004
884	-0.002
884	-0
884	0.001
885	0.003
885	0.004
886	0.006
886	0.007
887	0.007
887	0.007
887	0.007
888	0.007
888	0.007
889	0.007
889	0.007
890	0.006
890	0.006
890	0.006
891	0.005
891	0.005
892	0.005
892	0.005
893	0.005
893	0.006
893	0.006
894	0.006
894	0.006
895	0.006
895	0.006
895	0.006
896	0.005
896	0.005
897	0.005
897	0.005
898	0.004
898	0.004
898	0.003
899	0.003
899	0.003
900	0.003
900	0.003
901	0.004
901	0.004
901	0.004
902	0.004
902	0.005
903	0.005
903	0.005
904	0.005
904	0.005
904	0.005
905	0.005
905	0.005
906	0.005
906	0.005
907	0.005
907	0.005
907	0.005
908	0.006
908	0.006
909	0.007
909	0.007
910	0.008
910	0.008
910	0.009
911	0.009
911	0.01
912	0.01
912	0.01
913	0.01
913	0.01
913	0.009
914	0.008
914	0.008
915	0.007
915	0.006
916	0.005
916	0.004
916	0.003
917	0.003
917	0.003
918	0.003
918	0.003
918	0.004
919	0.005
919	0.006
920	0.008
920	0.009
921	0.011
921	0.011
921	0.012
922	0.012
922	0.013
923	0.012
923	0.012
924	0.011
924	0.01
924	0.009
925	0.007
925	0.006
926	0.005
926	0.004
927	0.004
927	0.003
927	0.002
928	0.001
928	0.001
929	0
929	-0
930	-0.001
930	-0.001
930	-0.001
931	-0.001
931	-0.001
932	-0
932	0.001
933	0.002
933	0.003
933	0.005
934	0.006
934	0.008
935	0.009
935	0.01
935	0.011
936	0.013
936	0.014
937	0.015
937	0.015
938	0.016
938	0.016
938	0.017
939	0.018
939	0.019
940	0.019
940	0.02
941	0.02
941	0.021
941	0.021
942	0.022
942	0.022
943	0.022
943	0.022
944	0.022
944	0.022
944	0.022
945	0.022
945	0.023
946	0.023
946	0.024
946	0.024
947	0.024
947	0.024
948	0.024
948	0.024
949	0.024
949	0.025
949	0.025
950	0.025
950	0.024
951	0.024
951	0.023
952	0.023
952	0.022
952	0.022
953	0.021
953	0.021
954	0.019
954	0.018
955	0.017
955	0.016
955	0.015
956	0.015
956	0.014
957	0.014
957	0.013
957	0.013
958	0.012
958	0.012
959	0.012
959	0.012
960	0.012
960	0.012
960	0.012
961	0.011
961	0.011
962	0.011
962	0.01
963	0.01
963	0.01
963	0.01
964	0.01
964	0.01
965	0.01
965	0.011
966	0.011
966	0.012
966	0.013
967	0.014
967	0.014
968	0.015
968	0.016
968	0.017
969	0.018
969	0.018
970	0.019
970	0.019
971	0.02
971	0.02
971	0.02
972	0.02
972	0.021
973	0.021
973	0.021
974	0.021
974	0.021
974	0.022
975	0.022
975	0.023
976	0.024
976	0.025
976	0.025
977	0.026
977	0.026
978	0.026
978	0.026
979	0.026
979	0.026
979	0.025
980	0.024
980	0.023
981	0.022
981	0.021
982	0.02
982	0.02
982	0.019
983	0.018
983	0.017
984	0.016
984	0.016
984	0.015
985	0.014
985	0.014
986	0.013
986	0.012
987	0.012
987	0.011
987	0.011
988	0.011
988	0.012
989	0.012
989	0.013
990	0.013
990	0.014
990	0.015
991	0.015
991	0.016
992	0.016
992	0.016
992	0.016
993	0.016
993	0.016
994	0.016
994	0.015
995	0.015
995	0.014
995	0.014
996	0.013
996	0.013
997	0.013
997	0.013
997	0.013
998	0.014
998	0.014
999	0.015
999	0.016
1000	0.016
1000	0.017
1000	0.017
1001	0.018
1001	0.018
1002	0.018
1002	0.017
1003	0.017
1003	0.016
1003	0.015
1004	0.015
1004	0.014
1005	0.013
1005	0.012
1005	0.011
1006	0.01
1006	0.009
1007	0.008
1007	0.007
1008	0.007
1008	0.007
1008	0.006
1009	0.006
1009	0.007
1010	0.007
1010	0.007
1010	0.008
1011	0.009
1011	0.009
1012	0.01
1012	0.01
1013	0.011
1013	0.011
1013	0.011
1014	0.012
1014	0.012
1015	0.013
1015	0.014
1016	0.014
1016	0.015
1016	0.015
1017	0.016
1017	0.017
1018	0.018
1018	0.019
1018	0.02
1019	0.02
1019	0.021
1020	0.022
1020	0.022
1021	0.023
1021	0.023
1021	0.023
1022	0.023
1022	0.024
1023	0.024
1023	0.024
1023	0.024
1024	0.023
1024	0.023
1025	0.024
1025	0.024
1026	0.024
1026	0.024
1026	0.025
1027	0.025
1027	0.026
1028	0.026
1028	0.027
1028	0.027
1029	0.027
1029	0.027
1030	0.027
1030	0.026
1031	0.025
1031	0.025
1031	0.024
1032	0.023
1032	0.022
1033	0.021
1033	0.02
1033	0.019
1034	0.018
1034	0.017
1035	0.016
1035	0.016
1036	0.015
1036	0.015
1036	0.015
1037	0.015
1037	0.015
1038	0.016
1038	0.017
1039	0.017
1039	0.019
1039	0.02
1040	0.021
1040	0.022
1041	0.023
1041	0.024
1041	0.024
1042	0.025
1042	0.025
1043	0.026
1043	0.027
1044	0.028
1044	0.029
1044	0.03
1045	0.031
1045	0.032
1046	0.033
1046	0.035
1046	0.037
1047	0.04
1047	0.042
1048	0.044
1048	0.045
1049	0.046
1049	0.047
1049	0.048
1050	0.049
1050	0.05
1051	0.05
1051	0.051
1051	0.052
1052	0.053
1052	0.053
1053	0.055
1053	0.056
1053	0.057
1054	0.058
1054	0.059
1055	0.06
1055	0.06
1056	0.06
1056	0.06
1056	0.06
1057	0.059
1057	0.059
1058	0.059
1058	0.059
1058	0.059
1059	0.059
1059	0.059
1060	0.059
1060	0.06
1061	0.06
1061	0.061
1061	0.061
1062	0.061
1062	0.061
1063	0.061
1063	0.061
1063	0.061
1064	0.062
1064	0.063
1065	0.064
1065	0.064
1066	0.065
1066	0.067
1066	0.069
1067	0.07
1067	0.072
1068	0.074
1068	0.075
1068	0.076
1069	0.078
1069	0.079
1070	0.082
1070	0.084
1071	0.086
1071	0.088
1071	0.091
1072	0.094
1072	0.098
1073	0.101
1073	0.105
1073	0.108
1074	0.112
1074	0.115
1075	0.118
1075	0.122
1076	0.125
1076	0.129
1076	0.131
1077	0.135
1077	0.139
1078	0.143
1078	0.147
1078	0.152
1079	0.157
1079	0.161
1080	0.165
1080	0.169
1080	0.173
1081	0.177
1081	0.181
1082	0.185
1082	0.188
1083	0.192
1083	0.197
1083	0.202
1084	0.207
1084	0.214
1085	0.221
1085	0.229
1085	0.237
1086	0.245
1086	0.252
1087	0.262
1087	0.271
1088	0.279
1088	0.289
1088	0.3
1089	0.31
1089	0.323
1090	0.337
1090	0.352
1090	0.368
1091	0.387
1091	0.408
1092	0.429
1092	0.455
1092	0.479
1093	0.506
1093	0.54
1094	0.575
1094	0.614
1095	0.658
1095	0.716
1095	0.793
1096	0.878
1096	1
1097	1.192
1097	1.544
1097	-0
1098	-0
1098	-0
1099	-0
1099	-0
1100	-0
1100	-0
1100	-0
1101	-0
1101	-0
1102	-0
1102	-0
1102	-0
1103	-0
1103	-0
1104	-0
1104	-0
1104	-0
1105	-0
1105	-0
1106	-0
1106	-0
1107	-0
1107	-0
1107	-0
1108	-0
1108	-0
1109	-0
1109	-0
1109	-0
1110	-0
1110	-0
1111	-0
1111	-0
