Data from 15c-2-5a_Absorbance__37__01838.txt Node

Date: Fri Jan 19 13:44:31 CET 2024
User: Marek
Spectrometer: MAYP115816
Trigger mode: 0
Integration Time (sec): 2.000000E-1
Scans to average: 10
Electric dark correction enabled: true
Nonlinearity correction enabled: true
Boxcar width: 5
XAxis mode: Wavelengths
Number of Pixels in Spectrum: 2068
>>>>>Begin Spectral Data<<<<<
199	-2.27
199	-2.112
200	-1.965
200	-1.844
201	-1.774
201	-1.719
202	-1.645
202	-1.585
203	-1.532
203	-1.486
204	-1.458
204	-1.433
205	-1.413
205	-1.402
205	-1.4
206	-1.393
206	-1.389
207	-1.384
207	-1.379
208	-1.377
208	-1.374
209	-1.372
209	-1.367
210	-1.364
210	-1.363
211	-1.361
211	-1.36
212	-1.361
212	-1.36
213	-1.36
213	-1.357
213	-1.356
214	-1.352
214	-1.351
215	-1.348
215	-1.346
216	-1.342
216	-1.342
217	-1.338
217	-1.336
218	-1.333
218	-1.331
219	-1.327
219	-1.327
220	-1.325
220	-1.325
221	-1.323
221	-1.317
221	-1.312
222	-1.31
222	-1.305
223	-1.3
223	-1.295
224	-1.288
224	-1.281
225	-1.274
225	-1.262
226	-1.251
226	-1.241
227	-1.228
227	-1.213
228	-1.197
228	-1.181
229	-1.161
229	-1.139
229	-1.113
230	-1.084
230	-1.052
231	-1.017
231	-0.979
232	-0.939
232	-0.896
233	-0.849
233	-0.801
234	-0.753
234	-0.704
235	-0.657
235	-0.609
236	-0.563
236	-0.517
236	-0.472
237	-0.429
237	-0.389
238	-0.351
238	-0.315
239	-0.281
239	-0.249
240	-0.22
240	-0.192
241	-0.167
241	-0.144
242	-0.122
242	-0.102
243	-0.085
243	-0.068
243	-0.053
244	-0.039
244	-0.026
245	-0.015
245	-0.004
246	0.006
246	0.015
247	0.023
247	0.031
248	0.038
248	0.045
249	0.051
249	0.057
250	0.063
250	0.068
250	0.073
251	0.077
251	0.081
252	0.085
252	0.09
253	0.093
253	0.096
254	0.1
254	0.103
255	0.105
255	0.108
256	0.11
256	0.112
257	0.114
257	0.116
258	0.117
258	0.118
258	0.12
259	0.121
259	0.122
260	0.123
260	0.123
261	0.123
261	0.124
262	0.124
262	0.125
263	0.125
263	0.125
264	0.126
264	0.126
265	0.126
265	0.126
265	0.126
266	0.126
266	0.125
267	0.125
267	0.125
268	0.124
268	0.124
269	0.123
269	0.122
270	0.121
270	0.12
271	0.119
271	0.119
272	0.118
272	0.117
272	0.116
273	0.115
273	0.114
274	0.113
274	0.113
275	0.112
275	0.111
276	0.11
276	0.109
277	0.107
277	0.106
278	0.105
278	0.103
278	0.101
279	0.1
279	0.099
280	0.098
280	0.097
281	0.097
281	0.096
282	0.095
282	0.095
283	0.095
283	0.094
284	0.094
284	0.093
285	0.093
285	0.092
285	0.091
286	0.091
286	0.09
287	0.089
287	0.088
288	0.088
288	0.087
289	0.086
289	0.086
290	0.085
290	0.085
291	0.084
291	0.083
292	0.083
292	0.082
292	0.082
293	0.081
293	0.081
294	0.081
294	0.08
295	0.08
295	0.08
296	0.079
296	0.079
297	0.079
297	0.079
298	0.078
298	0.078
298	0.078
299	0.078
299	0.077
300	0.077
300	0.077
301	0.076
301	0.076
302	0.076
302	0.076
303	0.076
303	0.075
304	0.075
304	0.074
305	0.074
305	0.074
305	0.074
306	0.074
306	0.073
307	0.073
307	0.073
308	0.072
308	0.072
309	0.072
309	0.071
310	0.071
310	0.071
311	0.07
311	0.07
311	0.07
312	0.069
312	0.069
313	0.069
313	0.068
314	0.068
314	0.067
315	0.067
315	0.066
316	0.066
316	0.066
317	0.065
317	0.065
318	0.064
318	0.064
318	0.063
319	0.063
319	0.062
320	0.062
320	0.061
321	0.061
321	0.06
322	0.06
322	0.059
323	0.058
323	0.058
324	0.057
324	0.057
324	0.056
325	0.056
325	0.056
326	0.055
326	0.055
327	0.054
327	0.054
328	0.054
328	0.053
329	0.053
329	0.052
330	0.052
330	0.052
330	0.051
331	0.051
331	0.05
332	0.05
332	0.049
333	0.049
333	0.048
334	0.048
334	0.047
335	0.047
335	0.046
336	0.046
336	0.045
336	0.044
337	0.044
337	0.043
338	0.043
338	0.042
339	0.042
339	0.041
340	0.04
340	0.04
341	0.04
341	0.039
342	0.039
342	0.039
342	0.038
343	0.038
343	0.037
344	0.037
344	0.037
345	0.037
345	0.036
346	0.036
346	0.035
347	0.034
347	0.034
348	0.034
348	0.033
348	0.033
349	0.032
349	0.031
350	0.031
350	0.03
351	0.029
351	0.028
352	0.028
352	0.027
353	0.026
353	0.025
354	0.024
354	0.023
354	0.023
355	0.022
355	0.021
356	0.02
356	0.02
357	0.02
357	0.019
358	0.019
358	0.02
359	0.02
359	0.021
360	0.021
360	0.022
360	0.022
361	0.023
361	0.023
362	0.023
362	0.023
363	0.023
363	0.023
364	0.022
364	0.022
365	0.022
365	0.021
366	0.021
366	0.02
366	0.02
367	0.02
367	0.02
368	0.02
368	0.019
369	0.019
369	0.019
370	0.019
370	0.018
371	0.018
371	0.017
372	0.017
372	0.017
372	0.016
373	0.016
373	0.016
374	0.016
374	0.016
375	0.016
375	0.016
376	0.016
376	0.016
377	0.017
377	0.017
378	0.018
378	0.018
378	0.018
379	0.018
379	0.018
380	0.018
380	0.018
381	0.018
381	0.018
382	0.018
382	0.018
383	0.017
383	0.017
383	0.017
384	0.016
384	0.016
385	0.016
385	0.016
386	0.016
386	0.016
387	0.016
387	0.016
388	0.015
388	0.015
389	0.015
389	0.015
389	0.015
390	0.015
390	0.016
391	0.016
391	0.016
392	0.016
392	0.016
393	0.016
393	0.016
394	0.016
394	0.016
394	0.016
395	0.015
395	0.015
396	0.015
396	0.015
397	0.015
397	0.016
398	0.016
398	0.016
399	0.016
399	0.016
400	0.016
400	0.016
400	0.015
401	0.015
401	0.014
402	0.013
402	0.012
403	0.012
403	0.012
404	0.012
404	0.012
405	0.011
405	0.011
405	0.011
406	0.011
406	0.01
407	0.01
407	0.01
408	0.009
408	0.008
409	0.008
409	0.008
410	0.007
410	0.007
411	0.008
411	0.008
411	0.008
412	0.008
412	0.007
413	0.007
413	0.007
414	0.007
414	0.007
415	0.007
415	0.006
416	0.006
416	0.005
416	0.005
417	0.004
417	0.004
418	0.004
418	0.005
419	0.005
419	0.006
420	0.006
420	0.007
421	0.007
421	0.008
421	0.008
422	0.009
422	0.009
423	0.009
423	0.009
424	0.008
424	0.007
425	0.006
425	0.005
426	0.005
426	0.005
427	0.004
427	0.004
427	0.005
428	0.005
428	0.006
429	0.007
429	0.007
430	0.007
430	0.007
431	0.007
431	0.006
432	0.006
432	0.005
432	0.004
433	0.003
433	0.002
434	0.001
434	0.001
435	0.001
435	0.001
436	0.001
436	0.001
437	0.002
437	0.002
437	0.002
438	0.002
438	0.001
439	0.001
439	0.001
440	0.001
440	0.001
441	0.001
441	0.001
442	0.001
442	0.001
442	0.002
443	0.002
443	0.002
444	0.003
444	0.003
445	0.003
445	0.002
446	0.002
446	0.002
447	0.002
447	0.002
447	0.001
448	0.001
448	0.001
449	0.001
449	0
450	0
450	0
451	-0
451	-0.001
452	-0.002
452	-0.002
452	-0.003
453	-0.003
453	-0.004
454	-0.004
454	-0.005
455	-0.005
455	-0.006
456	-0.006
456	-0.006
457	-0.007
457	-0.007
458	-0.007
458	-0.007
458	-0.007
459	-0.007
459	-0.008
460	-0.008
460	-0.009
461	-0.01
461	-0.01
462	-0.01
462	-0.01
463	-0.01
463	-0.009
463	-0.009
464	-0.009
464	-0.008
465	-0.009
465	-0.008
466	-0.008
466	-0.009
467	-0.009
467	-0.01
467	-0.011
468	-0.013
468	-0.015
469	-0.016
469	-0.018
470	-0.018
470	-0.019
471	-0.019
471	-0.02
472	-0.02
472	-0.02
472	-0.02
473	-0.019
473	-0.018
474	-0.017
474	-0.016
475	-0.016
475	-0.016
476	-0.016
476	-0.015
477	-0.015
477	-0.015
477	-0.015
478	-0.016
478	-0.016
479	-0.016
479	-0.016
480	-0.015
480	-0.015
481	-0.014
481	-0.014
482	-0.014
482	-0.013
482	-0.012
483	-0.01
483	-0.008
484	-0.005
484	-0.004
485	-0.003
485	-0.002
486	-0.001
486	-0
487	-0
487	-0.001
487	-0.001
488	-0.002
488	-0.004
489	-0.007
489	-0.008
490	-0.01
490	-0.011
491	-0.012
491	-0.012
492	-0.013
492	-0.013
492	-0.013
493	-0.013
493	-0.013
494	-0.012
494	-0.01
495	-0.009
495	-0.009
496	-0.008
496	-0.008
496	-0.007
497	-0.007
497	-0.006
498	-0.006
498	-0.006
499	-0.006
499	-0.007
500	-0.007
500	-0.006
501	-0.005
501	-0.005
501	-0.004
502	-0.003
502	-0.003
503	-0.002
503	-0.001
504	-0.001
504	-0.001
505	-0.002
505	-0.002
506	-0.003
506	-0.003
506	-0.003
507	-0.004
507	-0.004
508	-0.004
508	-0.005
509	-0.005
509	-0.005
510	-0.005
510	-0.005
511	-0.005
511	-0.005
511	-0.006
512	-0.007
512	-0.007
513	-0.008
513	-0.009
514	-0.009
514	-0.01
515	-0.011
515	-0.012
515	-0.014
516	-0.015
516	-0.015
517	-0.015
517	-0.015
518	-0.015
518	-0.015
519	-0.016
519	-0.018
520	-0.019
520	-0.021
520	-0.023
521	-0.025
521	-0.027
522	-0.03
522	-0.033
523	-0.036
523	-0.037
524	-0.038
524	-0.038
524	-0.037
525	-0.036
525	-0.034
526	-0.032
526	-0.029
527	-0.025
527	-0.023
528	-0.02
528	-0.018
529	-0.016
529	-0.015
529	-0.013
530	-0.012
530	-0.011
531	-0.011
531	-0.011
532	-0.01
532	-0.01
533	-0.009
533	-0.009
533	-0.009
534	-0.008
534	-0.009
535	-0.009
535	-0.009
536	-0.009
536	-0.009
537	-0.009
537	-0.009
538	-0.01
538	-0.01
538	-0.011
539	-0.011
539	-0.012
540	-0.012
540	-0.013
541	-0.014
541	-0.015
542	-0.016
542	-0.016
542	-0.016
543	-0.016
543	-0.017
544	-0.017
544	-0.017
545	-0.017
545	-0.016
546	-0.015
546	-0.015
547	-0.015
547	-0.016
547	-0.018
548	-0.019
548	-0.02
549	-0.021
549	-0.022
550	-0.023
550	-0.024
551	-0.025
551	-0.026
551	-0.026
552	-0.026
552	-0.026
553	-0.026
553	-0.025
554	-0.024
554	-0.025
555	-0.026
555	-0.027
556	-0.029
556	-0.03
556	-0.032
557	-0.033
557	-0.035
558	-0.036
558	-0.037
559	-0.037
559	-0.037
560	-0.036
560	-0.036
560	-0.035
561	-0.034
561	-0.033
562	-0.032
562	-0.032
563	-0.033
563	-0.034
564	-0.035
564	-0.037
564	-0.038
565	-0.038
565	-0.038
566	-0.038
566	-0.038
567	-0.037
567	-0.034
568	-0.032
568	-0.03
568	-0.027
569	-0.024
569	-0.021
570	-0.019
570	-0.019
571	-0.017
571	-0.016
572	-0.015
572	-0.014
573	-0.013
573	-0.012
573	-0.012
574	-0.012
574	-0.012
575	-0.011
575	-0.009
576	-0.007
576	-0.007
577	-0.007
577	-0.008
577	-0.008
578	-0.008
578	-0.008
579	-0.007
579	-0.005
580	-0.005
580	-0.007
581	-0.01
581	-0.011
581	-0.012
582	-0.012
582	-0.012
583	-0.01
583	-0.01
584	-0.012
584	-0.016
585	-0.017
585	-0.017
585	-0.016
586	-0.016
586	-0.015
587	-0.017
587	-0.019
588	-0.022
588	-0.024
589	-0.025
589	-0.026
590	-0.027
590	-0.027
590	-0.026
591	-0.025
591	-0.024
592	-0.024
592	-0.025
593	-0.025
593	-0.024
594	-0.025
594	-0.025
594	-0.026
595	-0.026
595	-0.028
596	-0.029
596	-0.029
597	-0.026
597	-0.024
598	-0.023
598	-0.022
598	-0.021
599	-0.02
599	-0.021
600	-0.022
600	-0.023
601	-0.024
601	-0.025
602	-0.026
602	-0.027
602	-0.029
603	-0.03
603	-0.029
604	-0.027
604	-0.026
605	-0.024
605	-0.021
606	-0.02
606	-0.021
606	-0.021
607	-0.022
607	-0.022
608	-0.022
608	-0.024
609	-0.026
609	-0.027
610	-0.029
610	-0.031
610	-0.033
611	-0.033
611	-0.032
612	-0.032
612	-0.031
613	-0.029
613	-0.028
614	-0.028
614	-0.029
614	-0.029
615	-0.029
615	-0.029
616	-0.029
616	-0.03
617	-0.03
617	-0.031
618	-0.033
618	-0.034
618	-0.034
619	-0.035
619	-0.035
620	-0.033
620	-0.032
621	-0.032
621	-0.032
622	-0.032
622	-0.032
622	-0.032
623	-0.033
623	-0.032
624	-0.032
624	-0.032
625	-0.033
625	-0.034
626	-0.034
626	-0.035
626	-0.034
627	-0.034
627	-0.033
628	-0.033
628	-0.032
629	-0.032
629	-0.032
630	-0.033
630	-0.034
630	-0.035
631	-0.035
631	-0.036
632	-0.037
632	-0.038
633	-0.038
633	-0.038
634	-0.037
634	-0.036
634	-0.034
635	-0.032
635	-0.031
636	-0.031
636	-0.03
637	-0.029
637	-0.028
638	-0.028
638	-0.027
638	-0.026
639	-0.027
639	-0.028
640	-0.028
640	-0.027
641	-0.027
641	-0.026
642	-0.026
642	-0.025
642	-0.024
643	-0.024
643	-0.023
644	-0.022
644	-0.021
645	-0.02
645	-0.019
646	-0.017
646	-0.014
646	-0.012
647	-0.009
647	-0.006
648	-0.004
648	-0.003
649	-0.001
649	0.002
650	0.004
650	0.006
650	0.007
651	0.009
651	0.01
652	0.01
652	0.011
653	0.013
653	0.02
653	0.042
654	0.039
654	0.036
655	0.036
655	0.036
656	0.037
656	0.038
657	0.039
657	0.039
657	0.04
658	0.037
658	0.022
659	0.025
659	0.028
660	0.031
660	0.031
661	0.032
661	0.032
661	0.033
662	0.035
662	0.036
663	0.038
663	0.04
664	0.041
664	0.042
665	0.043
665	0.045
665	0.046
666	0.047
666	0.049
667	0.05
667	0.051
668	0.052
668	0.053
669	0.054
669	0.056
669	0.058
670	0.061
670	0.062
671	0.064
671	0.064
672	0.065
672	0.066
672	0.066
673	0.067
673	0.068
674	0.068
674	0.069
675	0.068
675	0.068
676	0.07
676	0.071
676	0.072
677	0.074
677	0.076
678	0.078
678	0.079
679	0.08
679	0.081
680	0.082
680	0.083
680	0.084
681	0.084
681	0.084
682	0.085
682	0.086
683	0.087
683	0.089
684	0.091
684	0.091
684	0.091
685	0.092
685	0.092
686	0.093
686	0.093
687	0.093
687	0.092
687	0.091
688	0.09
688	0.089
689	0.09
689	0.091
690	0.091
690	0.091
691	0.091
691	0.091
691	0.091
692	0.091
692	0.09
693	0.09
693	0.09
694	0.089
694	0.087
695	0.087
695	0.089
695	0.089
696	0.089
696	0.088
697	0.087
697	0.087
698	0.086
698	0.085
698	0.084
699	0.083
699	0.082
700	0.079
700	0.078
701	0.078
701	0.077
702	0.077
702	0.076
702	0.076
703	0.076
703	0.075
704	0.075
704	0.076
705	0.077
705	0.077
705	0.077
706	0.077
706	0.077
707	0.076
707	0.075
708	0.073
708	0.072
709	0.071
709	0.069
709	0.066
710	0.063
710	0.061
711	0.06
711	0.059
712	0.058
712	0.057
713	0.057
713	0.056
713	0.055
714	0.053
714	0.052
715	0.051
715	0.05
716	0.048
716	0.047
716	0.046
717	0.045
717	0.044
718	0.043
718	0.041
719	0.041
719	0.04
720	0.039
720	0.038
720	0.036
721	0.034
721	0.032
722	0.031
722	0.029
723	0.027
723	0.027
723	0.025
724	0.024
724	0.023
725	0.021
725	0.019
726	0.018
726	0.017
727	0.016
727	0.015
727	0.014
728	0.012
728	0.011
729	0.012
729	0.012
730	0.011
730	0.01
730	0.01
731	0.009
731	0.008
732	0.008
732	0.007
733	0.006
733	0.005
734	0.003
734	0.001
734	-0
735	-0.001
735	-0.003
736	-0.005
736	-0.007
737	-0.008
737	-0.009
737	-0.01
738	-0.011
738	-0.014
739	-0.016
739	-0.017
740	-0.019
740	-0.021
741	-0.022
741	-0.024
741	-0.027
742	-0.031
742	-0.035
743	-0.037
743	-0.04
744	-0.042
744	-0.043
744	-0.045
745	-0.046
745	-0.048
746	-0.049
746	-0.048
747	-0.047
747	-0.046
748	-0.044
748	-0.043
748	-0.042
749	-0.042
749	-0.042
750	-0.042
750	-0.043
751	-0.043
751	-0.044
751	-0.044
752	-0.046
752	-0.048
753	-0.049
753	-0.051
754	-0.051
754	-0.051
754	-0.051
755	-0.05
755	-0.048
756	-0.047
756	-0.048
757	-0.049
757	-0.048
758	-0.048
758	-0.049
758	-0.049
759	-0.05
759	-0.052
760	-0.055
760	-0.058
761	-0.06
761	-0.062
761	-0.063
762	-0.065
762	-0.066
763	-0.067
763	-0.07
764	-0.073
764	-0.075
764	-0.078
765	-0.08
765	-0.082
766	-0.083
766	-0.084
767	-0.085
767	-0.087
768	-0.09
768	-0.092
768	-0.093
769	-0.094
769	-0.094
770	-0.095
770	-0.096
771	-0.098
771	-0.101
771	-0.104
772	-0.105
772	-0.107
773	-0.109
773	-0.112
774	-0.115
774	-0.119
775	-0.122
775	-0.125
775	-0.129
776	-0.134
776	-0.138
777	-0.142
777	-0.146
778	-0.15
778	-0.155
778	-0.159
779	-0.16
779	-0.157
780	-0.155
780	-0.155
781	-0.155
781	-0.154
781	-0.152
782	-0.151
782	-0.152
783	-0.151
783	-0.148
784	-0.149
784	-0.151
784	-0.153
785	-0.154
785	-0.156
786	-0.156
786	-0.154
787	-0.15
787	-0.146
788	-0.144
788	-0.145
788	-0.147
789	-0.149
789	-0.149
790	-0.147
790	-0.145
791	-0.146
791	-0.148
791	-0.151
792	-0.146
792	-0.135
793	-0.129
793	-0.125
794	-0.123
794	-0.125
794	-0.128
795	-0.13
795	-0.13
796	-0.13
796	-0.133
797	-0.141
797	-0.152
797	-0.158
798	-0.164
798	-0.167
799	-0.167
799	-0.167
800	-0.167
800	-0.168
801	-0.171
801	-0.171
801	-0.171
802	-0.172
802	-0.173
803	-0.173
803	-0.173
804	-0.172
804	-0.167
804	-0.161
805	-0.157
805	-0.155
806	-0.152
806	-0.151
807	-0.15
807	-0.15
807	-0.149
808	-0.149
808	-0.15
809	-0.154
809	-0.16
810	-0.163
810	-0.166
810	-0.17
811	-0.173
811	-0.174
812	-0.17
812	-0.168
813	-0.168
813	-0.169
813	-0.171
814	-0.172
814	-0.172
815	-0.17
815	-0.168
816	-0.166
816	-0.167
817	-0.171
817	-0.174
817	-0.174
818	-0.173
818	-0.17
819	-0.164
819	-0.161
820	-0.162
820	-0.164
820	-0.165
821	-0.165
821	-0.164
822	-0.164
822	-0.163
823	-0.163
823	-0.164
823	-0.166
824	-0.166
824	-0.163
825	-0.157
825	-0.15
826	-0.143
826	-0.138
826	-0.132
827	-0.125
827	-0.119
828	-0.112
828	-0.107
829	-0.102
829	-0.098
829	-0.095
830	-0.093
830	-0.091
831	-0.088
831	-0.085
832	-0.084
832	-0.083
832	-0.082
833	-0.081
833	-0.081
834	-0.08
834	-0.08
835	-0.079
835	-0.078
835	-0.077
836	-0.076
836	-0.075
837	-0.074
837	-0.073
838	-0.072
838	-0.071
839	-0.07
839	-0.069
839	-0.068
840	-0.067
840	-0.066
841	-0.065
841	-0.063
842	-0.061
842	-0.059
842	-0.057
843	-0.054
843	-0.052
844	-0.049
844	-0.047
845	-0.044
845	-0.042
845	-0.041
846	-0.039
846	-0.039
847	-0.038
847	-0.037
848	-0.037
848	-0.037
848	-0.037
849	-0.036
849	-0.036
850	-0.036
850	-0.037
851	-0.037
851	-0.036
851	-0.036
852	-0.035
852	-0.035
853	-0.034
853	-0.034
854	-0.033
854	-0.033
854	-0.033
855	-0.032
855	-0.032
856	-0.033
856	-0.033
857	-0.033
857	-0.033
857	-0.033
858	-0.033
858	-0.033
859	-0.032
859	-0.031
860	-0.03
860	-0.029
860	-0.028
861	-0.027
861	-0.025
862	-0.025
862	-0.024
863	-0.024
863	-0.024
863	-0.023
864	-0.024
864	-0.023
865	-0.023
865	-0.023
866	-0.023
866	-0.022
866	-0.022
867	-0.021
867	-0.021
868	-0.021
868	-0.02
869	-0.02
869	-0.02
869	-0.02
870	-0.02
870	-0.02
871	-0.02
871	-0.019
872	-0.019
872	-0.019
872	-0.019
873	-0.018
873	-0.018
874	-0.017
874	-0.017
875	-0.016
875	-0.016
875	-0.015
876	-0.015
876	-0.015
877	-0.015
877	-0.015
878	-0.015
878	-0.016
878	-0.016
879	-0.017
879	-0.018
880	-0.018
880	-0.019
881	-0.019
881	-0.019
881	-0.018
882	-0.017
882	-0.016
883	-0.015
883	-0.013
884	-0.011
884	-0.01
884	-0.008
885	-0.006
885	-0.005
886	-0.004
886	-0.003
887	-0.003
887	-0.003
887	-0.003
888	-0.004
888	-0.004
889	-0.005
889	-0.005
890	-0.006
890	-0.006
890	-0.007
891	-0.008
891	-0.008
892	-0.008
892	-0.009
893	-0.009
893	-0.009
893	-0.009
894	-0.009
894	-0.01
895	-0.01
895	-0.01
895	-0.01
896	-0.011
896	-0.011
897	-0.011
897	-0.011
898	-0.011
898	-0.011
898	-0.012
899	-0.012
899	-0.011
900	-0.011
900	-0.011
901	-0.01
901	-0.009
901	-0.009
902	-0.007
902	-0.006
903	-0.005
903	-0.004
904	-0.003
904	-0.002
904	-0.001
905	-0.001
905	-0
906	0
906	0
907	0
907	-0
907	-0
908	-0.001
908	-0.001
909	-0.002
909	-0.002
910	-0.003
910	-0.003
910	-0.003
911	-0.003
911	-0.003
912	-0.003
912	-0.003
913	-0.003
913	-0.003
913	-0.003
914	-0.003
914	-0.003
915	-0.003
915	-0.003
916	-0.003
916	-0.003
916	-0.003
917	-0.003
917	-0.002
918	-0.002
918	-0.001
918	-0
919	0
919	0.001
920	0.002
920	0.002
921	0.003
921	0.003
921	0.003
922	0.003
922	0.003
923	0.002
923	0.002
924	0.001
924	0
924	-0.001
925	-0.002
925	-0.004
926	-0.004
926	-0.005
927	-0.006
927	-0.007
927	-0.007
928	-0.008
928	-0.008
929	-0.008
929	-0.008
930	-0.007
930	-0.007
930	-0.007
931	-0.007
931	-0.007
932	-0.006
932	-0.006
933	-0.006
933	-0.006
933	-0.006
934	-0.005
934	-0.005
935	-0.005
935	-0.004
935	-0.004
936	-0.004
936	-0.003
937	-0.002
937	-0.001
938	-0.001
938	0
938	0.001
939	0.001
939	0.002
940	0.002
940	0.003
941	0.003
941	0.003
941	0.003
942	0.003
942	0.003
943	0.004
943	0.004
944	0.005
944	0.005
944	0.005
945	0.006
945	0.006
946	0.006
946	0.006
946	0.006
947	0.006
947	0.006
948	0.005
948	0.005
949	0.005
949	0.005
949	0.005
950	0.005
950	0.005
951	0.005
951	0.004
952	0.004
952	0.004
952	0.004
953	0.004
953	0.004
954	0.003
954	0.002
955	0.001
955	0
955	-0
956	-0.001
956	-0.001
957	-0.002
957	-0.003
957	-0.004
958	-0.005
958	-0.005
959	-0.006
959	-0.006
960	-0.007
960	-0.007
960	-0.007
961	-0.007
961	-0.007
962	-0.007
962	-0.006
963	-0.005
963	-0.005
963	-0.005
964	-0.004
964	-0.004
965	-0.003
965	-0.003
966	-0.002
966	-0.001
966	-0.001
967	-0
967	0
968	0
968	0.001
968	0.002
969	0.002
969	0.002
970	0.003
970	0.003
971	0.003
971	0.003
971	0.003
972	0.003
972	0.003
973	0.004
973	0.004
974	0.004
974	0.004
974	0.005
975	0.006
975	0.006
976	0.007
976	0.007
976	0.007
977	0.007
977	0.007
978	0.007
978	0.006
979	0.006
979	0.006
979	0.005
980	0.004
980	0.003
981	0.002
981	0.002
982	0.001
982	0.001
982	-0
983	-0.001
983	-0.002
984	-0.003
984	-0.003
984	-0.004
985	-0.005
985	-0.005
986	-0.006
986	-0.007
987	-0.007
987	-0.007
987	-0.007
988	-0.006
988	-0.006
989	-0.005
989	-0.005
990	-0.004
990	-0.003
990	-0.002
991	-0.001
991	0
992	0.001
992	0.001
992	0.001
993	0.002
993	0.002
994	0.001
994	0.001
995	0.001
995	0
995	-0
996	-0
996	-0.001
997	-0.001
997	-0
997	0
998	0.001
998	0.002
999	0.004
999	0.005
1000	0.006
1000	0.007
1000	0.007
1001	0.008
1001	0.008
1002	0.008
1002	0.008
1003	0.007
1003	0.007
1003	0.006
1004	0.005
1004	0.004
1005	0.003
1005	0.002
1005	0.001
1006	0
1006	-0
1007	-0
1007	-0.001
1008	-0.001
1008	-0.001
1008	-0.001
1009	-0.001
1009	-0.001
1010	-0
1010	0
1010	0
1011	0.001
1011	0.001
1012	0.001
1012	0.001
1013	0.002
1013	0.001
1013	0.001
1014	0.001
1014	0.002
1015	0.002
1015	0.002
1016	0.002
1016	0.002
1016	0.003
1017	0.003
1017	0.003
1018	0.004
1018	0.005
1018	0.005
1019	0.006
1019	0.006
1020	0.007
1020	0.007
1021	0.007
1021	0.007
1021	0.007
1022	0.007
1022	0.007
1023	0.008
1023	0.007
1023	0.007
1024	0.007
1024	0.007
1025	0.007
1025	0.007
1026	0.007
1026	0.007
1026	0.007
1027	0.006
1027	0.006
1028	0.006
1028	0.006
1028	0.005
1029	0.004
1029	0.004
1030	0.003
1030	0.002
1031	0.002
1031	0.001
1031	0.001
1032	0
1032	-0
1033	-0
1033	-0
1033	-0.001
1034	-0.001
1034	-0.001
1035	-0.002
1035	-0.002
1036	-0.001
1036	-0.001
1036	-0.001
1037	-0
1037	0
1038	0.001
1038	0.002
1039	0.004
1039	0.005
1039	0.006
1040	0.007
1040	0.008
1041	0.009
1041	0.01
1041	0.01
1042	0.01
1042	0.011
1043	0.011
1043	0.011
1044	0.011
1044	0.011
1044	0.011
1045	0.012
1045	0.012
1046	0.013
1046	0.014
1046	0.015
1047	0.016
1047	0.018
1048	0.02
1048	0.021
1049	0.021
1049	0.022
1049	0.023
1050	0.024
1050	0.025
1051	0.026
1051	0.027
1051	0.028
1052	0.028
1052	0.029
1053	0.03
1053	0.031
1053	0.031
1054	0.032
1054	0.032
1055	0.033
1055	0.033
1056	0.032
1056	0.032
1056	0.031
1057	0.031
1057	0.031
1058	0.031
1058	0.032
1058	0.032
1059	0.033
1059	0.034
1060	0.035
1060	0.036
1061	0.038
1061	0.039
1061	0.04
1062	0.04
1062	0.041
1063	0.041
1063	0.042
1063	0.042
1064	0.043
1064	0.044
1065	0.045
1065	0.045
1066	0.046
1066	0.047
1066	0.049
1067	0.05
1067	0.052
1068	0.053
1068	0.054
1068	0.055
1069	0.057
1069	0.058
1070	0.06
1070	0.062
1071	0.064
1071	0.067
1071	0.069
1072	0.072
1072	0.075
1073	0.079
1073	0.083
1073	0.086
1074	0.09
1074	0.094
1075	0.096
1075	0.099
1076	0.102
1076	0.106
1076	0.108
1077	0.111
1077	0.115
1078	0.118
1078	0.122
1078	0.125
1079	0.129
1079	0.132
1080	0.136
1080	0.14
1080	0.142
1081	0.146
1081	0.149
1082	0.153
1082	0.157
1083	0.16
1083	0.165
1083	0.17
1084	0.175
1084	0.181
1085	0.187
1085	0.194
1085	0.2
1086	0.207
1086	0.211
1087	0.218
1087	0.225
1088	0.232
1088	0.239
1088	0.249
1089	0.257
1089	0.267
1090	0.278
1090	0.29
1090	0.303
1091	0.318
1091	0.335
1092	0.352
1092	0.371
1092	0.39
1093	0.41
1093	0.435
1094	0.462
1094	0.491
1095	0.523
1095	0.564
1095	0.616
1096	0.67
1096	0.74
1097	0.836
1097	0.951
1097	1.13
1098	1.444
1098	-0
1099	-0
1099	-0
1100	-0
1100	-0
1100	-0
1101	-0
1101	-0
1102	-0
1102	-0
1102	-0
1103	-0
1103	-0
1104	-0
1104	-0
1104	-0
1105	-0
1105	-0
1106	-0
1106	-0
1107	-0
1107	-0
1107	-0
1108	-0
1108	-0
1109	-0
1109	-0
1109	-0
1110	-0
1110	-0
1111	-0
1111	-0
