Data from 15c-2-5a_Absorbance__675__02476.txt Node

Date: Fri Jan 19 14:05:47 CET 2024
User: Marek
Spectrometer: MAYP115816
Trigger mode: 0
Integration Time (sec): 2.000000E-1
Scans to average: 10
Electric dark correction enabled: true
Nonlinearity correction enabled: true
Boxcar width: 5
XAxis mode: Wavelengths
Number of Pixels in Spectrum: 2068
>>>>>Begin Spectral Data<<<<<
199	-2.289
199	-2.131
200	-1.984
200	-1.863
201	-1.793
201	-1.738
202	-1.664
202	-1.603
203	-1.55
203	-1.504
204	-1.476
204	-1.451
205	-1.43
205	-1.419
205	-1.417
206	-1.411
206	-1.407
207	-1.402
207	-1.397
208	-1.395
208	-1.392
209	-1.39
209	-1.385
210	-1.383
210	-1.381
211	-1.379
211	-1.378
212	-1.378
212	-1.378
213	-1.377
213	-1.374
213	-1.373
214	-1.368
214	-1.367
215	-1.364
215	-1.362
216	-1.359
216	-1.359
217	-1.354
217	-1.351
218	-1.349
218	-1.346
219	-1.343
219	-1.343
220	-1.341
220	-1.341
221	-1.339
221	-1.333
221	-1.328
222	-1.326
222	-1.322
223	-1.317
223	-1.313
224	-1.305
224	-1.297
225	-1.29
225	-1.278
226	-1.267
226	-1.257
227	-1.244
227	-1.229
228	-1.212
228	-1.196
229	-1.176
229	-1.154
229	-1.127
230	-1.097
230	-1.065
231	-1.029
231	-0.99
232	-0.949
232	-0.905
233	-0.858
233	-0.808
234	-0.757
234	-0.707
235	-0.657
235	-0.606
236	-0.557
236	-0.508
236	-0.46
237	-0.413
237	-0.369
238	-0.326
238	-0.286
239	-0.247
239	-0.211
240	-0.177
240	-0.145
241	-0.115
241	-0.087
242	-0.061
242	-0.037
243	-0.015
243	0.005
243	0.024
244	0.042
244	0.058
245	0.073
245	0.087
246	0.099
246	0.111
247	0.122
247	0.132
248	0.141
248	0.15
249	0.158
249	0.166
250	0.173
250	0.18
250	0.186
251	0.192
251	0.198
252	0.203
252	0.208
253	0.213
253	0.217
254	0.221
254	0.225
255	0.228
255	0.232
256	0.235
256	0.238
257	0.24
257	0.243
258	0.245
258	0.247
258	0.248
259	0.25
259	0.251
260	0.253
260	0.254
261	0.254
261	0.256
262	0.256
262	0.257
263	0.258
263	0.258
264	0.259
264	0.259
265	0.259
265	0.259
265	0.26
266	0.26
266	0.26
267	0.259
267	0.259
268	0.259
268	0.258
269	0.258
269	0.257
270	0.256
270	0.255
271	0.254
271	0.254
272	0.253
272	0.252
272	0.251
273	0.25
273	0.249
274	0.248
274	0.247
275	0.246
275	0.245
276	0.244
276	0.243
277	0.242
277	0.24
278	0.238
278	0.236
278	0.234
279	0.232
279	0.231
280	0.23
280	0.228
281	0.228
281	0.227
282	0.226
282	0.226
283	0.226
283	0.226
284	0.226
284	0.225
285	0.225
285	0.224
285	0.223
286	0.222
286	0.221
287	0.22
287	0.22
288	0.219
288	0.218
289	0.217
289	0.217
290	0.216
290	0.215
291	0.214
291	0.214
292	0.213
292	0.212
292	0.212
293	0.211
293	0.21
294	0.21
294	0.209
295	0.208
295	0.208
296	0.207
296	0.206
297	0.206
297	0.205
298	0.205
298	0.204
298	0.204
299	0.203
299	0.203
300	0.202
300	0.201
301	0.201
301	0.2
302	0.2
302	0.199
303	0.199
303	0.198
304	0.198
304	0.197
305	0.197
305	0.196
305	0.195
306	0.195
306	0.194
307	0.194
307	0.193
308	0.192
308	0.191
309	0.191
309	0.19
310	0.189
310	0.189
311	0.188
311	0.187
311	0.186
312	0.186
312	0.185
313	0.184
313	0.184
314	0.183
314	0.182
315	0.182
315	0.181
316	0.18
316	0.179
317	0.179
317	0.178
318	0.177
318	0.176
318	0.175
319	0.175
319	0.174
320	0.173
320	0.172
321	0.171
321	0.171
322	0.17
322	0.169
323	0.168
323	0.167
324	0.166
324	0.165
324	0.164
325	0.163
325	0.163
326	0.162
326	0.161
327	0.16
327	0.16
328	0.159
328	0.158
329	0.158
329	0.157
330	0.156
330	0.156
330	0.155
331	0.154
331	0.153
332	0.152
332	0.152
333	0.151
333	0.15
334	0.149
334	0.148
335	0.147
335	0.147
336	0.146
336	0.145
336	0.144
337	0.143
337	0.143
338	0.142
338	0.141
339	0.141
339	0.14
340	0.139
340	0.138
341	0.138
341	0.137
342	0.137
342	0.136
342	0.135
343	0.135
343	0.134
344	0.134
344	0.133
345	0.132
345	0.132
346	0.131
346	0.13
347	0.129
347	0.128
348	0.128
348	0.127
348	0.126
349	0.125
349	0.124
350	0.123
350	0.123
351	0.122
351	0.121
352	0.12
352	0.119
353	0.118
353	0.117
354	0.116
354	0.114
354	0.113
355	0.112
355	0.111
356	0.111
356	0.11
357	0.109
357	0.109
358	0.109
358	0.109
359	0.109
359	0.11
360	0.111
360	0.111
360	0.112
361	0.112
361	0.113
362	0.113
362	0.113
363	0.113
363	0.112
364	0.112
364	0.111
365	0.11
365	0.11
366	0.109
366	0.109
366	0.109
367	0.108
367	0.108
368	0.108
368	0.107
369	0.107
369	0.106
370	0.106
370	0.105
371	0.105
371	0.104
372	0.103
372	0.103
372	0.102
373	0.102
373	0.102
374	0.102
374	0.102
375	0.102
375	0.102
376	0.102
376	0.102
377	0.102
377	0.103
378	0.103
378	0.103
378	0.103
379	0.103
379	0.103
380	0.104
380	0.104
381	0.103
381	0.103
382	0.103
382	0.102
383	0.102
383	0.101
383	0.101
384	0.1
384	0.1
385	0.099
385	0.099
386	0.099
386	0.099
387	0.099
387	0.099
388	0.099
388	0.098
389	0.098
389	0.098
389	0.098
390	0.098
390	0.099
391	0.099
391	0.099
392	0.099
392	0.099
393	0.099
393	0.099
394	0.099
394	0.099
394	0.098
395	0.098
395	0.097
396	0.097
396	0.097
397	0.097
397	0.097
398	0.098
398	0.097
399	0.097
399	0.097
400	0.097
400	0.097
400	0.096
401	0.095
401	0.094
402	0.093
402	0.092
403	0.092
403	0.092
404	0.092
404	0.091
405	0.091
405	0.091
405	0.09
406	0.09
406	0.09
407	0.089
407	0.089
408	0.088
408	0.087
409	0.087
409	0.086
410	0.086
410	0.086
411	0.086
411	0.086
411	0.085
412	0.085
412	0.085
413	0.085
413	0.084
414	0.084
414	0.084
415	0.083
415	0.083
416	0.082
416	0.082
416	0.081
417	0.081
417	0.081
418	0.08
418	0.081
419	0.081
419	0.082
420	0.082
420	0.083
421	0.083
421	0.084
421	0.084
422	0.085
422	0.085
423	0.085
423	0.084
424	0.084
424	0.083
425	0.082
425	0.081
426	0.08
426	0.08
427	0.079
427	0.079
427	0.08
428	0.08
428	0.081
429	0.082
429	0.083
430	0.083
430	0.083
431	0.082
431	0.082
432	0.081
432	0.08
432	0.079
433	0.078
433	0.076
434	0.075
434	0.075
435	0.075
435	0.075
436	0.075
436	0.075
437	0.075
437	0.075
437	0.075
438	0.075
438	0.075
439	0.075
439	0.074
440	0.074
440	0.074
441	0.073
441	0.073
442	0.074
442	0.074
442	0.074
443	0.075
443	0.075
444	0.075
444	0.075
445	0.075
445	0.075
446	0.075
446	0.075
447	0.074
447	0.074
447	0.074
448	0.074
448	0.073
449	0.073
449	0.073
450	0.073
450	0.072
451	0.072
451	0.071
452	0.07
452	0.07
452	0.069
453	0.068
453	0.067
454	0.067
454	0.066
455	0.065
455	0.065
456	0.065
456	0.064
457	0.064
457	0.064
458	0.064
458	0.063
458	0.063
459	0.063
459	0.063
460	0.063
460	0.062
461	0.061
461	0.06
462	0.06
462	0.06
463	0.06
463	0.061
463	0.062
464	0.062
464	0.062
465	0.063
465	0.063
466	0.063
466	0.063
467	0.063
467	0.062
467	0.061
468	0.059
468	0.057
469	0.055
469	0.053
470	0.052
470	0.052
471	0.051
471	0.051
472	0.05
472	0.05
472	0.051
473	0.052
473	0.053
474	0.054
474	0.055
475	0.055
475	0.056
476	0.056
476	0.056
477	0.057
477	0.057
477	0.057
478	0.057
478	0.057
479	0.057
479	0.057
480	0.058
480	0.059
481	0.06
481	0.06
482	0.061
482	0.062
482	0.064
483	0.066
483	0.069
484	0.072
484	0.075
485	0.077
485	0.078
486	0.079
486	0.08
487	0.08
487	0.081
487	0.08
488	0.079
488	0.077
489	0.074
489	0.072
490	0.07
490	0.069
491	0.068
491	0.067
492	0.068
492	0.068
492	0.068
493	0.068
493	0.069
494	0.07
494	0.072
495	0.074
495	0.075
496	0.076
496	0.077
496	0.078
497	0.079
497	0.08
498	0.08
498	0.081
499	0.08
499	0.08
500	0.08
500	0.081
501	0.083
501	0.084
501	0.085
502	0.086
502	0.088
503	0.089
503	0.09
504	0.091
504	0.09
505	0.09
505	0.09
506	0.09
506	0.09
506	0.09
507	0.089
507	0.089
508	0.089
508	0.089
509	0.089
509	0.09
510	0.09
510	0.09
511	0.089
511	0.089
511	0.089
512	0.089
512	0.089
513	0.088
513	0.086
514	0.084
514	0.083
515	0.082
515	0.081
515	0.08
516	0.08
516	0.08
517	0.08
517	0.079
518	0.079
518	0.078
519	0.076
519	0.074
520	0.071
520	0.067
520	0.064
521	0.061
521	0.058
522	0.055
522	0.053
523	0.053
523	0.054
524	0.055
524	0.058
524	0.062
525	0.065
525	0.069
526	0.072
526	0.076
527	0.079
527	0.081
528	0.083
528	0.084
529	0.085
529	0.086
529	0.086
530	0.086
530	0.086
531	0.086
531	0.086
532	0.086
532	0.086
533	0.086
533	0.086
533	0.086
534	0.086
534	0.086
535	0.085
535	0.085
536	0.085
536	0.085
537	0.084
537	0.084
538	0.083
538	0.082
538	0.08
539	0.08
539	0.079
540	0.078
540	0.077
541	0.075
541	0.074
542	0.072
542	0.071
542	0.069
543	0.069
543	0.068
544	0.067
544	0.066
545	0.066
545	0.066
546	0.066
546	0.066
547	0.065
547	0.063
547	0.061
548	0.059
548	0.057
549	0.055
549	0.053
550	0.052
550	0.05
551	0.048
551	0.046
551	0.045
552	0.044
552	0.043
553	0.043
553	0.044
554	0.044
554	0.043
555	0.041
555	0.038
556	0.036
556	0.033
556	0.031
557	0.028
557	0.026
558	0.024
558	0.022
559	0.021
559	0.02
560	0.021
560	0.021
560	0.021
561	0.021
561	0.022
562	0.023
562	0.022
563	0.021
563	0.02
564	0.017
564	0.015
564	0.013
565	0.012
565	0.011
566	0.011
566	0.01
567	0.011
567	0.012
568	0.015
568	0.017
568	0.019
569	0.022
569	0.024
570	0.026
570	0.027
571	0.028
571	0.03
572	0.031
572	0.032
573	0.032
573	0.033
573	0.032
574	0.032
574	0.032
575	0.032
575	0.033
576	0.035
576	0.035
577	0.034
577	0.032
577	0.032
578	0.031
578	0.031
579	0.032
579	0.033
580	0.033
580	0.031
581	0.028
581	0.025
581	0.024
582	0.024
582	0.024
583	0.025
583	0.025
584	0.023
584	0.019
585	0.017
585	0.017
585	0.017
586	0.017
586	0.017
587	0.016
587	0.013
588	0.01
588	0.007
589	0.005
589	0.004
590	0.003
590	0.002
590	0.002
591	0.003
591	0.003
592	0.003
592	0.003
593	0.002
593	0.003
594	0.002
594	0.002
594	0.001
595	0.001
595	-0.001
596	-0.003
596	-0.003
597	-0.001
597	0.001
598	0.002
598	0.003
598	0.004
599	0.004
599	0.004
600	0.003
600	0.002
601	0
601	-0.001
602	-0.003
602	-0.004
602	-0.006
603	-0.007
603	-0.007
604	-0.006
604	-0.004
605	-0.002
605	0
606	0.001
606	0.001
606	0.001
607	0
607	-0
608	-0.001
608	-0.002
609	-0.004
609	-0.005
610	-0.007
610	-0.009
610	-0.011
611	-0.011
611	-0.011
612	-0.01
612	-0.009
613	-0.007
613	-0.006
614	-0.006
614	-0.007
614	-0.006
615	-0.007
615	-0.007
616	-0.007
616	-0.008
617	-0.008
617	-0.009
618	-0.011
618	-0.012
618	-0.013
619	-0.013
619	-0.013
620	-0.012
620	-0.011
621	-0.011
621	-0.011
622	-0.011
622	-0.011
622	-0.011
623	-0.011
623	-0.01
624	-0.009
624	-0.01
625	-0.01
625	-0.01
626	-0.011
626	-0.011
626	-0.01
627	-0.01
627	-0.009
628	-0.009
628	-0.008
629	-0.008
629	-0.008
630	-0.009
630	-0.01
630	-0.01
631	-0.01
631	-0.01
632	-0.011
632	-0.012
633	-0.012
633	-0.012
634	-0.011
634	-0.009
634	-0.007
635	-0.005
635	-0.004
636	-0.003
636	-0.002
637	-0.001
637	0
638	0.001
638	0.002
638	0.003
639	0.003
639	0.003
640	0.003
640	0.004
641	0.005
641	0.006
642	0.008
642	0.009
642	0.011
643	0.012
643	0.013
644	0.015
644	0.017
645	0.019
645	0.021
646	0.023
646	0.026
646	0.029
647	0.033
647	0.036
648	0.039
648	0.042
649	0.044
649	0.047
650	0.05
650	0.053
650	0.055
651	0.057
651	0.059
652	0.06
652	0.062
653	0.064
653	0.072
653	0.096
654	0.082
654	0.071
655	0.074
655	0.076
656	0.078
656	0.079
657	0.081
657	0.082
657	0.083
658	0.081
658	0.065
659	0.078
659	0.096
660	0.096
660	0.097
661	0.098
661	0.099
661	0.101
662	0.103
662	0.105
663	0.108
663	0.111
664	0.113
664	0.114
665	0.116
665	0.118
665	0.12
666	0.122
666	0.124
667	0.126
667	0.128
668	0.129
668	0.131
669	0.133
669	0.136
669	0.139
670	0.143
670	0.146
671	0.148
671	0.149
672	0.151
672	0.152
672	0.153
673	0.155
673	0.156
674	0.157
674	0.157
675	0.157
675	0.157
676	0.159
676	0.161
676	0.162
677	0.164
677	0.167
678	0.169
678	0.17
679	0.172
679	0.173
680	0.175
680	0.176
680	0.177
681	0.177
681	0.178
682	0.178
682	0.18
683	0.181
683	0.184
684	0.186
684	0.187
684	0.188
685	0.189
685	0.19
686	0.191
686	0.191
687	0.191
687	0.19
687	0.19
688	0.188
688	0.187
689	0.187
689	0.187
690	0.188
690	0.187
691	0.187
691	0.187
691	0.187
692	0.187
692	0.186
693	0.185
693	0.185
694	0.184
694	0.182
695	0.182
695	0.183
695	0.184
696	0.184
696	0.183
697	0.182
697	0.182
698	0.181
698	0.179
698	0.178
699	0.177
699	0.176
700	0.172
700	0.17
701	0.169
701	0.168
702	0.167
702	0.165
702	0.164
703	0.163
703	0.162
704	0.161
704	0.16
705	0.16
705	0.16
705	0.16
706	0.159
706	0.159
707	0.158
707	0.156
708	0.155
708	0.153
709	0.152
709	0.15
709	0.147
710	0.143
710	0.14
711	0.138
711	0.137
712	0.135
712	0.133
713	0.131
713	0.129
713	0.127
714	0.125
714	0.122
715	0.121
715	0.119
716	0.116
716	0.115
716	0.113
717	0.111
717	0.11
718	0.108
718	0.106
719	0.105
719	0.103
720	0.102
720	0.099
720	0.097
721	0.094
721	0.091
722	0.089
722	0.086
723	0.084
723	0.082
723	0.08
724	0.078
724	0.076
725	0.074
725	0.072
726	0.07
726	0.068
727	0.067
727	0.065
727	0.064
728	0.062
728	0.06
729	0.06
729	0.059
730	0.058
730	0.056
730	0.054
731	0.052
731	0.051
732	0.049
732	0.048
733	0.046
733	0.044
734	0.041
734	0.039
734	0.037
735	0.035
735	0.033
736	0.03
736	0.028
737	0.025
737	0.024
737	0.022
738	0.02
738	0.017
739	0.014
739	0.012
740	0.01
740	0.008
741	0.007
741	0.006
741	0.003
742	-0.002
742	-0.006
743	-0.009
743	-0.011
744	-0.014
744	-0.016
744	-0.018
745	-0.021
745	-0.023
746	-0.025
746	-0.025
747	-0.026
747	-0.025
748	-0.024
748	-0.023
748	-0.023
749	-0.023
749	-0.023
750	-0.023
750	-0.024
751	-0.025
751	-0.026
751	-0.026
752	-0.028
752	-0.03
753	-0.032
753	-0.033
754	-0.034
754	-0.035
754	-0.034
755	-0.033
755	-0.032
756	-0.031
756	-0.033
757	-0.034
757	-0.034
758	-0.034
758	-0.035
758	-0.036
759	-0.037
759	-0.039
760	-0.042
760	-0.046
761	-0.048
761	-0.05
761	-0.052
762	-0.054
762	-0.056
763	-0.057
763	-0.06
764	-0.063
764	-0.066
764	-0.068
765	-0.071
765	-0.073
766	-0.075
766	-0.076
767	-0.076
767	-0.079
768	-0.082
768	-0.085
768	-0.087
769	-0.088
769	-0.088
770	-0.09
770	-0.091
771	-0.094
771	-0.097
771	-0.1
772	-0.102
772	-0.104
773	-0.106
773	-0.108
774	-0.112
774	-0.115
775	-0.118
775	-0.121
775	-0.125
776	-0.128
776	-0.132
777	-0.135
777	-0.139
778	-0.143
778	-0.148
778	-0.153
779	-0.154
779	-0.151
780	-0.15
780	-0.151
781	-0.151
781	-0.151
781	-0.151
782	-0.15
782	-0.151
783	-0.15
783	-0.148
784	-0.148
784	-0.151
784	-0.152
785	-0.153
785	-0.155
786	-0.156
786	-0.153
787	-0.149
787	-0.145
788	-0.144
788	-0.145
788	-0.146
789	-0.149
789	-0.149
790	-0.146
790	-0.145
791	-0.146
791	-0.148
791	-0.15
792	-0.145
792	-0.135
793	-0.128
793	-0.124
794	-0.122
794	-0.124
794	-0.128
795	-0.13
795	-0.129
796	-0.13
796	-0.132
797	-0.14
797	-0.151
797	-0.158
798	-0.163
798	-0.166
799	-0.167
799	-0.166
800	-0.166
800	-0.167
801	-0.17
801	-0.171
801	-0.171
802	-0.171
802	-0.172
803	-0.173
803	-0.173
804	-0.172
804	-0.167
804	-0.16
805	-0.156
805	-0.154
806	-0.152
806	-0.151
807	-0.15
807	-0.149
807	-0.149
808	-0.148
808	-0.149
809	-0.154
809	-0.159
810	-0.163
810	-0.166
810	-0.169
811	-0.172
811	-0.173
812	-0.17
812	-0.167
813	-0.167
813	-0.169
813	-0.17
814	-0.171
814	-0.172
815	-0.17
815	-0.167
816	-0.166
816	-0.166
817	-0.17
817	-0.174
817	-0.174
818	-0.173
818	-0.169
819	-0.163
819	-0.16
820	-0.161
820	-0.163
820	-0.165
821	-0.165
821	-0.164
822	-0.163
822	-0.163
823	-0.162
823	-0.164
823	-0.168
824	-0.169
824	-0.167
825	-0.163
825	-0.157
826	-0.152
826	-0.148
826	-0.143
827	-0.137
827	-0.131
828	-0.125
828	-0.12
829	-0.114
829	-0.109
829	-0.105
830	-0.102
830	-0.1
831	-0.096
831	-0.094
832	-0.092
832	-0.09
832	-0.089
833	-0.088
833	-0.087
834	-0.086
834	-0.085
835	-0.084
835	-0.084
835	-0.083
836	-0.082
836	-0.081
837	-0.08
837	-0.079
838	-0.078
838	-0.077
839	-0.076
839	-0.076
839	-0.075
840	-0.074
840	-0.073
841	-0.071
841	-0.07
842	-0.069
842	-0.067
842	-0.065
843	-0.062
843	-0.06
844	-0.057
844	-0.055
845	-0.053
845	-0.051
845	-0.049
846	-0.048
846	-0.047
847	-0.046
847	-0.045
848	-0.045
848	-0.045
848	-0.044
849	-0.044
849	-0.043
850	-0.043
850	-0.042
851	-0.042
851	-0.041
851	-0.041
852	-0.04
852	-0.04
853	-0.039
853	-0.039
854	-0.038
854	-0.038
854	-0.038
855	-0.038
855	-0.038
856	-0.038
856	-0.038
857	-0.038
857	-0.038
857	-0.037
858	-0.037
858	-0.037
859	-0.036
859	-0.036
860	-0.034
860	-0.033
860	-0.032
861	-0.031
861	-0.03
862	-0.03
862	-0.029
863	-0.029
863	-0.029
863	-0.028
864	-0.028
864	-0.027
865	-0.027
865	-0.026
866	-0.026
866	-0.025
866	-0.024
867	-0.023
867	-0.023
868	-0.022
868	-0.022
869	-0.022
869	-0.021
869	-0.022
870	-0.021
870	-0.021
871	-0.021
871	-0.021
872	-0.021
872	-0.02
872	-0.02
873	-0.019
873	-0.019
874	-0.019
874	-0.019
875	-0.019
875	-0.019
875	-0.019
876	-0.019
876	-0.018
877	-0.019
877	-0.019
878	-0.019
878	-0.019
878	-0.02
879	-0.02
879	-0.021
880	-0.021
880	-0.021
881	-0.021
881	-0.021
881	-0.02
882	-0.019
882	-0.018
883	-0.017
883	-0.015
884	-0.013
884	-0.012
884	-0.011
885	-0.01
885	-0.009
886	-0.008
886	-0.007
887	-0.007
887	-0.008
887	-0.008
888	-0.009
888	-0.009
889	-0.009
889	-0.01
890	-0.01
890	-0.01
890	-0.011
891	-0.011
891	-0.012
892	-0.013
892	-0.013
893	-0.013
893	-0.013
893	-0.013
894	-0.013
894	-0.014
895	-0.014
895	-0.015
895	-0.016
896	-0.016
896	-0.016
897	-0.016
897	-0.016
898	-0.016
898	-0.016
898	-0.016
899	-0.016
899	-0.016
900	-0.015
900	-0.014
901	-0.013
901	-0.012
901	-0.011
902	-0.01
902	-0.009
903	-0.008
903	-0.007
904	-0.006
904	-0.005
904	-0.004
905	-0.004
905	-0.003
906	-0.003
906	-0.003
907	-0.003
907	-0.003
907	-0.003
908	-0.004
908	-0.004
909	-0.004
909	-0.004
910	-0.005
910	-0.005
910	-0.006
911	-0.006
911	-0.007
912	-0.007
912	-0.007
913	-0.007
913	-0.008
913	-0.008
914	-0.008
914	-0.009
915	-0.009
915	-0.009
916	-0.01
916	-0.01
916	-0.01
917	-0.01
917	-0.01
918	-0.009
918	-0.009
918	-0.008
919	-0.008
919	-0.007
920	-0.006
920	-0.005
921	-0.004
921	-0.003
921	-0.002
922	-0.002
922	-0.002
923	-0.002
923	-0.002
924	-0.001
924	-0.002
924	-0.003
925	-0.004
925	-0.004
926	-0.005
926	-0.006
927	-0.007
927	-0.008
927	-0.008
928	-0.009
928	-0.01
929	-0.01
929	-0.01
930	-0.01
930	-0.01
930	-0.01
931	-0.009
931	-0.009
932	-0.008
932	-0.007
933	-0.006
933	-0.006
933	-0.005
934	-0.004
934	-0.004
935	-0.004
935	-0.003
935	-0.003
936	-0.003
936	-0.002
937	-0.002
937	-0.001
938	-0.001
938	-0
938	-0
939	0
939	0.001
940	0.001
940	0.001
941	0.001
941	0.002
941	0.002
942	0.002
942	0.002
943	0.002
943	0.002
944	0.003
944	0.003
944	0.004
945	0.004
945	0.005
946	0.005
946	0.005
946	0.005
947	0.005
947	0.005
948	0.005
948	0.005
949	0.005
949	0.005
949	0.005
950	0.005
950	0.005
951	0.005
951	0.004
952	0.004
952	0.003
952	0.003
953	0.003
953	0.002
954	0.001
954	0.001
955	0
955	-0.001
955	-0.001
956	-0.001
956	-0.001
957	-0.001
957	-0.001
957	-0.001
958	-0.001
958	-0.001
959	-0.001
959	-0.001
960	-0.002
960	-0.002
960	-0.002
961	-0.003
961	-0.003
962	-0.004
962	-0.004
963	-0.004
963	-0.004
963	-0.004
964	-0.004
964	-0.004
965	-0.004
965	-0.004
966	-0.004
966	-0.003
966	-0.003
967	-0.002
967	-0.002
968	-0.002
968	-0.001
968	-0.001
969	-0
969	0
970	0.001
970	0.001
971	0.001
971	0.001
971	0.002
972	0.002
972	0.003
973	0.003
973	0.004
974	0.005
974	0.005
974	0.006
975	0.007
975	0.008
976	0.009
976	0.01
976	0.01
977	0.011
977	0.01
978	0.01
978	0.01
979	0.009
979	0.008
979	0.007
980	0.006
980	0.005
981	0.004
981	0.003
982	0.002
982	0.001
982	0.001
983	0
983	-0
984	-0.001
984	-0.001
984	-0.001
985	-0.001
985	-0.001
986	-0.001
986	-0.002
987	-0.002
987	-0.002
987	-0.001
988	-0.001
988	-0.001
989	-0
989	-0
990	0
990	0.001
990	0.002
991	0.002
991	0.003
992	0.003
992	0.003
992	0.003
993	0.003
993	0.003
994	0.003
994	0.002
995	0.001
995	0.001
995	0
996	-0
996	-0.001
997	-0.001
997	-0.001
997	-0
998	0
998	0.001
999	0.002
999	0.003
1000	0.004
1000	0.004
1000	0.004
1001	0.004
1001	0.004
1002	0.004
1002	0.003
1003	0.002
1003	0.001
1003	0
1004	-0.001
1004	-0.002
1005	-0.003
1005	-0.003
1005	-0.004
1006	-0.004
1006	-0.005
1007	-0.005
1007	-0.005
1008	-0.005
1008	-0.005
1008	-0.005
1009	-0.004
1009	-0.005
1010	-0.005
1010	-0.005
1010	-0.005
1011	-0.005
1011	-0.005
1012	-0.004
1012	-0.004
1013	-0.004
1013	-0.004
1013	-0.004
1014	-0.003
1014	-0.002
1015	-0.002
1015	-0.001
1016	-0
1016	0
1016	0.001
1017	0.002
1017	0.003
1018	0.005
1018	0.006
1018	0.007
1019	0.008
1019	0.009
1020	0.01
1020	0.01
1021	0.01
1021	0.011
1021	0.011
1022	0.011
1022	0.011
1023	0.011
1023	0.011
1023	0.01
1024	0.01
1024	0.009
1025	0.009
1025	0.009
1026	0.009
1026	0.008
1026	0.008
1027	0.008
1027	0.008
1028	0.008
1028	0.008
1028	0.007
1029	0.007
1029	0.006
1030	0.006
1030	0.005
1031	0.005
1031	0.004
1031	0.004
1032	0.004
1032	0.004
1033	0.004
1033	0.003
1033	0.003
1034	0.002
1034	0.002
1035	0.001
1035	0.001
1036	0.001
1036	0
1036	0
1037	0
1037	0.001
1038	0.001
1038	0.001
1039	0.002
1039	0.003
1039	0.004
1040	0.005
1040	0.006
1041	0.007
1041	0.007
1041	0.007
1042	0.007
1042	0.008
1043	0.008
1043	0.008
1044	0.009
1044	0.01
1044	0.01
1045	0.011
1045	0.012
1046	0.013
1046	0.014
1046	0.015
1047	0.017
1047	0.018
1048	0.02
1048	0.02
1049	0.021
1049	0.021
1049	0.022
1050	0.022
1050	0.022
1051	0.023
1051	0.024
1051	0.024
1052	0.025
1052	0.026
1053	0.027
1053	0.028
1053	0.028
1054	0.029
1054	0.029
1055	0.03
1055	0.03
1056	0.029
1056	0.029
1056	0.028
1057	0.027
1057	0.027
1058	0.027
1058	0.027
1058	0.027
1059	0.028
1059	0.028
1060	0.028
1060	0.03
1061	0.031
1061	0.033
1061	0.034
1062	0.034
1062	0.034
1063	0.035
1063	0.035
1063	0.036
1064	0.037
1064	0.038
1065	0.038
1065	0.039
1066	0.04
1066	0.041
1066	0.043
1067	0.044
1067	0.046
1068	0.048
1068	0.049
1068	0.051
1069	0.053
1069	0.055
1070	0.057
1070	0.06
1071	0.063
1071	0.066
1071	0.068
1072	0.072
1072	0.075
1073	0.079
1073	0.083
1073	0.086
1074	0.09
1074	0.093
1075	0.096
1075	0.099
1076	0.102
1076	0.105
1076	0.108
1077	0.111
1077	0.115
1078	0.119
1078	0.124
1078	0.128
1079	0.132
1079	0.137
1080	0.14
1080	0.145
1080	0.148
1081	0.152
1081	0.156
1082	0.16
1082	0.163
1083	0.167
1083	0.171
1083	0.176
1084	0.181
1084	0.187
1085	0.193
1085	0.2
1085	0.207
1086	0.213
1086	0.219
1087	0.227
1087	0.235
1088	0.241
1088	0.249
1088	0.258
1089	0.266
1089	0.276
1090	0.287
1090	0.299
1090	0.314
1091	0.328
1091	0.346
1092	0.363
1092	0.385
1092	0.406
1093	0.427
1093	0.456
1094	0.485
1094	0.519
1095	0.554
1095	0.599
1095	0.658
1096	0.722
1096	0.802
1097	0.913
1097	1.063
1097	1.349
1098	2.228
1098	-0
1099	-0
1099	-0
1100	-0
1100	-0
1100	-0
1101	-0
1101	-0
1102	-0
1102	-0
1102	-0
1103	-0
1103	-0
1104	-0
1104	-0
1104	-0
1105	-0
1105	-0
1106	-0
1106	-0
1107	-0
1107	-0
1107	-0
1108	-0
1108	-0
1109	-0
1109	-0
1109	-0
1110	-0
1110	-0
1111	-0
1111	-0
