Data from 15c-2-5a_Absorbance__952__02753.txt Node

Date: Fri Jan 19 14:15:01 CET 2024
User: Marek
Spectrometer: MAYP115816
Trigger mode: 0
Integration Time (sec): 2.000000E-1
Scans to average: 10
Electric dark correction enabled: true
Nonlinearity correction enabled: true
Boxcar width: 5
XAxis mode: Wavelengths
Number of Pixels in Spectrum: 2068
>>>>>Begin Spectral Data<<<<<
199	-2.292
199	-2.134
200	-1.987
200	-1.866
201	-1.795
201	-1.74
202	-1.666
202	-1.605
203	-1.551
203	-1.505
204	-1.477
204	-1.452
205	-1.432
205	-1.42
205	-1.418
206	-1.412
206	-1.408
207	-1.403
207	-1.398
208	-1.396
208	-1.392
209	-1.39
209	-1.385
210	-1.383
210	-1.381
211	-1.38
211	-1.378
212	-1.379
212	-1.378
213	-1.378
213	-1.374
213	-1.374
214	-1.369
214	-1.368
215	-1.365
215	-1.363
216	-1.36
216	-1.359
217	-1.354
217	-1.352
218	-1.35
218	-1.347
219	-1.344
219	-1.343
220	-1.341
220	-1.341
221	-1.339
221	-1.334
221	-1.328
222	-1.326
222	-1.322
223	-1.316
223	-1.312
224	-1.305
224	-1.298
225	-1.29
225	-1.278
226	-1.267
226	-1.257
227	-1.244
227	-1.229
228	-1.213
228	-1.197
229	-1.176
229	-1.154
229	-1.127
230	-1.097
230	-1.065
231	-1.029
231	-0.99
232	-0.948
232	-0.903
233	-0.855
233	-0.805
234	-0.754
234	-0.703
235	-0.652
235	-0.601
236	-0.551
236	-0.501
236	-0.452
237	-0.404
237	-0.358
238	-0.314
238	-0.273
239	-0.233
239	-0.195
240	-0.159
240	-0.126
241	-0.094
241	-0.064
242	-0.037
242	-0.012
243	0.012
243	0.033
243	0.053
244	0.072
244	0.09
245	0.105
245	0.12
246	0.134
246	0.147
247	0.159
247	0.17
248	0.181
248	0.19
249	0.199
249	0.208
250	0.216
250	0.223
250	0.231
251	0.237
251	0.243
252	0.249
252	0.255
253	0.26
253	0.265
254	0.269
254	0.274
255	0.278
255	0.281
256	0.285
256	0.288
257	0.291
257	0.293
258	0.296
258	0.298
258	0.3
259	0.301
259	0.303
260	0.304
260	0.305
261	0.306
261	0.307
262	0.308
262	0.309
263	0.31
263	0.311
264	0.311
264	0.312
265	0.312
265	0.313
265	0.313
266	0.313
266	0.313
267	0.313
267	0.313
268	0.313
268	0.312
269	0.312
269	0.311
270	0.31
270	0.309
271	0.308
271	0.308
272	0.307
272	0.307
272	0.306
273	0.305
273	0.304
274	0.304
274	0.303
275	0.302
275	0.301
276	0.301
276	0.299
277	0.298
277	0.296
278	0.294
278	0.291
278	0.289
279	0.287
279	0.286
280	0.285
280	0.284
281	0.283
281	0.282
282	0.282
282	0.282
283	0.282
283	0.282
284	0.282
284	0.282
285	0.282
285	0.281
285	0.28
286	0.279
286	0.278
287	0.277
287	0.276
288	0.276
288	0.275
289	0.274
289	0.273
290	0.272
290	0.272
291	0.271
291	0.27
292	0.269
292	0.269
292	0.268
293	0.267
293	0.267
294	0.266
294	0.265
295	0.264
295	0.264
296	0.263
296	0.263
297	0.262
297	0.261
298	0.261
298	0.26
298	0.259
299	0.259
299	0.258
300	0.258
300	0.257
301	0.256
301	0.256
302	0.255
302	0.254
303	0.254
303	0.253
304	0.252
304	0.252
305	0.251
305	0.25
305	0.25
306	0.249
306	0.248
307	0.248
307	0.247
308	0.246
308	0.245
309	0.244
309	0.244
310	0.243
310	0.242
311	0.241
311	0.24
311	0.239
312	0.239
312	0.238
313	0.237
313	0.236
314	0.235
314	0.234
315	0.234
315	0.233
316	0.232
316	0.231
317	0.23
317	0.229
318	0.228
318	0.227
318	0.227
319	0.226
319	0.225
320	0.224
320	0.223
321	0.222
321	0.221
322	0.22
322	0.219
323	0.218
323	0.217
324	0.216
324	0.215
324	0.214
325	0.213
325	0.212
326	0.212
326	0.211
327	0.21
327	0.209
328	0.208
328	0.207
329	0.207
329	0.206
330	0.205
330	0.204
330	0.203
331	0.202
331	0.202
332	0.201
332	0.2
333	0.199
333	0.198
334	0.197
334	0.196
335	0.195
335	0.194
336	0.193
336	0.192
336	0.191
337	0.191
337	0.19
338	0.189
338	0.188
339	0.187
339	0.187
340	0.186
340	0.185
341	0.185
341	0.184
342	0.183
342	0.183
342	0.182
343	0.181
343	0.18
344	0.18
344	0.179
345	0.178
345	0.177
346	0.177
346	0.176
347	0.175
347	0.174
348	0.173
348	0.172
348	0.171
349	0.17
349	0.169
350	0.168
350	0.168
351	0.166
351	0.165
352	0.164
352	0.163
353	0.162
353	0.161
354	0.159
354	0.158
354	0.157
355	0.155
355	0.154
356	0.153
356	0.152
357	0.152
357	0.151
358	0.151
358	0.152
359	0.152
359	0.153
360	0.154
360	0.155
360	0.156
361	0.156
361	0.157
362	0.157
362	0.157
363	0.157
363	0.156
364	0.156
364	0.155
365	0.154
365	0.154
366	0.153
366	0.153
366	0.152
367	0.152
367	0.151
368	0.151
368	0.15
369	0.15
369	0.149
370	0.149
370	0.148
371	0.147
371	0.147
372	0.146
372	0.145
372	0.145
373	0.145
373	0.144
374	0.144
374	0.144
375	0.144
375	0.144
376	0.144
376	0.144
377	0.145
377	0.145
378	0.146
378	0.146
378	0.146
379	0.146
379	0.146
380	0.146
380	0.146
381	0.146
381	0.146
382	0.145
382	0.145
383	0.144
383	0.144
383	0.144
384	0.143
384	0.143
385	0.142
385	0.142
386	0.142
386	0.141
387	0.141
387	0.141
388	0.141
388	0.14
389	0.14
389	0.14
389	0.14
390	0.14
390	0.14
391	0.141
391	0.141
392	0.141
392	0.141
393	0.141
393	0.141
394	0.141
394	0.14
394	0.14
395	0.14
395	0.139
396	0.139
396	0.139
397	0.139
397	0.139
398	0.139
398	0.139
399	0.139
399	0.139
400	0.138
400	0.138
400	0.137
401	0.137
401	0.135
402	0.134
402	0.133
403	0.133
403	0.132
404	0.132
404	0.132
405	0.131
405	0.131
405	0.13
406	0.13
406	0.13
407	0.13
407	0.129
408	0.128
408	0.128
409	0.127
409	0.126
410	0.126
410	0.126
411	0.126
411	0.126
411	0.125
412	0.125
412	0.125
413	0.124
413	0.124
414	0.123
414	0.123
415	0.123
415	0.122
416	0.122
416	0.121
416	0.121
417	0.12
417	0.12
418	0.12
418	0.12
419	0.121
419	0.121
420	0.122
420	0.123
421	0.123
421	0.124
421	0.124
422	0.124
422	0.124
423	0.125
423	0.124
424	0.124
424	0.123
425	0.122
425	0.12
426	0.12
426	0.119
427	0.119
427	0.119
427	0.119
428	0.12
428	0.121
429	0.121
429	0.122
430	0.122
430	0.122
431	0.122
431	0.121
432	0.121
432	0.12
432	0.118
433	0.117
433	0.115
434	0.114
434	0.113
435	0.113
435	0.113
436	0.113
436	0.114
437	0.114
437	0.114
437	0.114
438	0.114
438	0.114
439	0.113
439	0.113
440	0.112
440	0.112
441	0.112
441	0.112
442	0.112
442	0.112
442	0.113
443	0.113
443	0.113
444	0.114
444	0.114
445	0.114
445	0.114
446	0.114
446	0.114
447	0.113
447	0.113
447	0.113
448	0.113
448	0.112
449	0.112
449	0.111
450	0.111
450	0.111
451	0.11
451	0.11
452	0.109
452	0.108
452	0.107
453	0.106
453	0.106
454	0.105
454	0.104
455	0.104
455	0.103
456	0.103
456	0.102
457	0.102
457	0.102
458	0.101
458	0.101
458	0.101
459	0.101
459	0.102
460	0.101
460	0.1
461	0.099
461	0.099
462	0.099
462	0.099
463	0.099
463	0.1
463	0.101
464	0.101
464	0.101
465	0.101
465	0.101
466	0.101
466	0.102
467	0.101
467	0.101
467	0.099
468	0.097
468	0.095
469	0.092
469	0.091
470	0.09
470	0.089
471	0.088
471	0.088
472	0.087
472	0.087
472	0.088
473	0.089
473	0.09
474	0.091
474	0.092
475	0.093
475	0.093
476	0.094
476	0.094
477	0.094
477	0.094
477	0.095
478	0.094
478	0.094
479	0.095
479	0.095
480	0.096
480	0.098
481	0.098
481	0.099
482	0.1
482	0.101
482	0.103
483	0.106
483	0.109
484	0.113
484	0.116
485	0.118
485	0.12
486	0.121
486	0.122
487	0.123
487	0.123
487	0.122
488	0.121
488	0.119
489	0.116
489	0.113
490	0.111
490	0.11
491	0.109
491	0.109
492	0.109
492	0.109
492	0.109
493	0.11
493	0.111
494	0.112
494	0.115
495	0.117
495	0.118
496	0.119
496	0.12
496	0.121
497	0.122
497	0.123
498	0.124
498	0.124
499	0.124
499	0.124
500	0.124
500	0.125
501	0.127
501	0.129
501	0.13
502	0.132
502	0.133
503	0.134
503	0.136
504	0.136
504	0.137
505	0.137
505	0.136
506	0.136
506	0.136
506	0.136
507	0.135
507	0.135
508	0.135
508	0.135
509	0.135
509	0.135
510	0.135
510	0.135
511	0.135
511	0.135
511	0.135
512	0.135
512	0.135
513	0.134
513	0.132
514	0.13
514	0.129
515	0.128
515	0.128
515	0.127
516	0.126
516	0.125
517	0.125
517	0.124
518	0.124
518	0.123
519	0.12
519	0.117
520	0.113
520	0.11
520	0.106
521	0.103
521	0.1
522	0.098
522	0.097
523	0.097
523	0.099
524	0.101
524	0.105
524	0.109
525	0.113
525	0.117
526	0.121
526	0.124
527	0.127
527	0.129
528	0.131
528	0.132
529	0.133
529	0.134
529	0.134
530	0.134
530	0.133
531	0.133
531	0.134
532	0.133
532	0.133
533	0.134
533	0.134
533	0.134
534	0.134
534	0.133
535	0.133
535	0.132
536	0.132
536	0.132
537	0.131
537	0.131
538	0.13
538	0.128
538	0.127
539	0.126
539	0.125
540	0.124
540	0.123
541	0.121
541	0.119
542	0.117
542	0.116
542	0.115
543	0.114
543	0.113
544	0.112
544	0.11
545	0.11
545	0.11
546	0.11
546	0.11
547	0.109
547	0.107
547	0.104
548	0.102
548	0.099
549	0.097
549	0.095
550	0.093
550	0.092
551	0.089
551	0.087
551	0.085
552	0.084
552	0.083
553	0.083
553	0.083
554	0.083
554	0.081
555	0.079
555	0.076
556	0.073
556	0.07
556	0.067
557	0.065
557	0.062
558	0.06
558	0.058
559	0.056
559	0.056
560	0.055
560	0.055
560	0.055
561	0.055
561	0.056
562	0.056
562	0.056
563	0.054
563	0.052
564	0.05
564	0.047
564	0.045
565	0.044
565	0.043
566	0.042
566	0.041
567	0.042
567	0.043
568	0.045
568	0.047
568	0.05
569	0.052
569	0.055
570	0.057
570	0.058
571	0.059
571	0.06
572	0.061
572	0.062
573	0.063
573	0.063
573	0.062
574	0.062
574	0.061
575	0.061
575	0.063
576	0.064
576	0.064
577	0.063
577	0.061
577	0.06
578	0.059
578	0.059
579	0.06
579	0.061
580	0.061
580	0.059
581	0.056
581	0.053
581	0.052
582	0.051
582	0.051
583	0.052
583	0.052
584	0.05
584	0.046
585	0.044
585	0.043
585	0.043
586	0.043
586	0.043
587	0.041
587	0.039
588	0.035
588	0.032
589	0.029
589	0.028
590	0.026
590	0.025
590	0.025
591	0.026
591	0.026
592	0.026
592	0.025
593	0.025
593	0.025
594	0.025
594	0.024
594	0.023
595	0.023
595	0.021
596	0.019
596	0.019
597	0.021
597	0.023
598	0.024
598	0.026
598	0.027
599	0.027
599	0.027
600	0.026
600	0.025
601	0.023
601	0.022
602	0.02
602	0.018
602	0.017
603	0.015
603	0.015
604	0.016
604	0.017
605	0.019
605	0.022
606	0.023
606	0.023
606	0.022
607	0.021
607	0.021
608	0.021
608	0.019
609	0.017
609	0.016
610	0.014
610	0.011
610	0.01
611	0.01
611	0.011
612	0.012
612	0.013
613	0.015
613	0.016
614	0.016
614	0.016
614	0.016
615	0.015
615	0.015
616	0.015
616	0.014
617	0.013
617	0.012
618	0.01
618	0.008
618	0.007
619	0.007
619	0.007
620	0.008
620	0.01
621	0.01
621	0.01
622	0.011
622	0.011
622	0.011
623	0.011
623	0.013
624	0.014
624	0.014
625	0.013
625	0.013
626	0.012
626	0.012
626	0.012
627	0.013
627	0.014
628	0.014
628	0.015
629	0.015
629	0.015
630	0.015
630	0.014
630	0.014
631	0.014
631	0.013
632	0.013
632	0.012
633	0.011
633	0.012
634	0.013
634	0.015
634	0.017
635	0.019
635	0.02
636	0.021
636	0.023
637	0.024
637	0.025
638	0.026
638	0.027
638	0.028
639	0.028
639	0.028
640	0.028
640	0.029
641	0.031
641	0.032
642	0.034
642	0.036
642	0.037
643	0.039
643	0.041
644	0.043
644	0.045
645	0.047
645	0.049
646	0.052
646	0.055
646	0.059
647	0.063
647	0.067
648	0.07
648	0.073
649	0.076
649	0.079
650	0.083
650	0.086
650	0.089
651	0.091
651	0.093
652	0.095
652	0.097
653	0.1
653	0.108
653	0.134
654	0.112
654	0.096
655	0.1
655	0.102
656	0.104
656	0.106
657	0.108
657	0.109
657	0.11
658	0.108
658	0.09
659	0.11
659	0.138
660	0.138
660	0.139
661	0.141
661	0.142
661	0.144
662	0.147
662	0.15
663	0.153
663	0.156
664	0.158
664	0.16
665	0.163
665	0.165
665	0.168
666	0.17
666	0.172
667	0.174
667	0.176
668	0.178
668	0.181
669	0.183
669	0.185
669	0.189
670	0.194
670	0.197
671	0.2
671	0.201
672	0.203
672	0.205
672	0.206
673	0.208
673	0.209
674	0.21
674	0.211
675	0.21
675	0.21
676	0.211
676	0.213
676	0.215
677	0.217
677	0.219
678	0.222
678	0.223
679	0.225
679	0.226
680	0.228
680	0.23
680	0.231
681	0.231
681	0.232
682	0.233
682	0.235
683	0.237
683	0.239
684	0.242
684	0.243
684	0.244
685	0.244
685	0.245
686	0.247
686	0.247
687	0.246
687	0.246
687	0.245
688	0.243
688	0.241
689	0.241
689	0.242
690	0.242
690	0.242
691	0.242
691	0.242
691	0.242
692	0.242
692	0.241
693	0.24
693	0.241
694	0.24
694	0.238
695	0.237
695	0.239
695	0.24
696	0.239
696	0.238
697	0.237
697	0.237
698	0.236
698	0.234
698	0.232
699	0.232
699	0.23
700	0.226
700	0.224
701	0.223
701	0.222
702	0.22
702	0.219
702	0.218
703	0.216
703	0.215
704	0.213
704	0.213
705	0.213
705	0.212
705	0.211
706	0.211
706	0.21
707	0.208
707	0.206
708	0.204
708	0.203
709	0.201
709	0.199
709	0.195
710	0.191
710	0.187
711	0.185
711	0.183
712	0.181
712	0.179
713	0.177
713	0.175
713	0.173
714	0.17
714	0.168
715	0.166
715	0.164
716	0.161
716	0.159
716	0.157
717	0.155
717	0.153
718	0.15
718	0.147
719	0.145
719	0.144
720	0.141
720	0.139
720	0.136
721	0.133
721	0.13
722	0.127
722	0.124
723	0.121
723	0.119
723	0.117
724	0.115
724	0.113
725	0.11
725	0.108
726	0.106
726	0.104
727	0.102
727	0.101
727	0.099
728	0.097
728	0.095
729	0.094
729	0.093
730	0.092
730	0.09
730	0.088
731	0.086
731	0.084
732	0.083
732	0.081
733	0.079
733	0.076
734	0.074
734	0.071
734	0.068
735	0.066
735	0.064
736	0.061
736	0.058
737	0.055
737	0.053
737	0.051
738	0.048
738	0.045
739	0.042
739	0.04
740	0.037
740	0.035
741	0.034
741	0.032
741	0.029
742	0.024
742	0.02
743	0.016
743	0.013
744	0.01
744	0.008
744	0.005
745	0.002
745	-0.001
746	-0.003
746	-0.004
747	-0.005
747	-0.005
748	-0.004
748	-0.004
748	-0.004
749	-0.004
749	-0.004
750	-0.005
750	-0.005
751	-0.006
751	-0.007
751	-0.007
752	-0.008
752	-0.01
753	-0.011
753	-0.012
754	-0.013
754	-0.013
754	-0.013
755	-0.012
755	-0.011
756	-0.011
756	-0.012
757	-0.014
757	-0.014
758	-0.014
758	-0.015
758	-0.016
759	-0.017
759	-0.02
760	-0.023
760	-0.027
761	-0.03
761	-0.031
761	-0.033
762	-0.035
762	-0.037
763	-0.038
763	-0.041
764	-0.044
764	-0.047
764	-0.05
765	-0.053
765	-0.056
766	-0.058
766	-0.059
767	-0.06
767	-0.063
768	-0.067
768	-0.07
768	-0.072
769	-0.073
769	-0.074
770	-0.076
770	-0.077
771	-0.08
771	-0.083
771	-0.086
772	-0.089
772	-0.091
773	-0.093
773	-0.096
774	-0.099
774	-0.103
775	-0.106
775	-0.11
775	-0.114
776	-0.118
776	-0.121
777	-0.125
777	-0.129
778	-0.133
778	-0.138
778	-0.143
779	-0.144
779	-0.143
780	-0.143
780	-0.144
781	-0.145
781	-0.146
781	-0.147
782	-0.147
782	-0.149
783	-0.149
783	-0.148
784	-0.148
784	-0.15
784	-0.152
785	-0.153
785	-0.155
786	-0.155
786	-0.153
787	-0.149
787	-0.145
788	-0.144
788	-0.145
788	-0.146
789	-0.149
789	-0.149
790	-0.146
790	-0.145
791	-0.146
791	-0.147
791	-0.15
792	-0.145
792	-0.134
793	-0.128
793	-0.124
794	-0.122
794	-0.124
794	-0.127
795	-0.129
795	-0.129
796	-0.129
796	-0.132
797	-0.14
797	-0.151
797	-0.158
798	-0.163
798	-0.166
799	-0.167
799	-0.166
800	-0.166
800	-0.167
801	-0.17
801	-0.171
801	-0.17
802	-0.171
802	-0.172
803	-0.172
803	-0.173
804	-0.172
804	-0.167
804	-0.16
805	-0.156
805	-0.154
806	-0.152
806	-0.15
807	-0.149
807	-0.149
807	-0.149
808	-0.148
808	-0.149
809	-0.154
809	-0.159
810	-0.163
810	-0.165
810	-0.169
811	-0.172
811	-0.173
812	-0.17
812	-0.167
813	-0.167
813	-0.169
813	-0.17
814	-0.171
814	-0.172
815	-0.17
815	-0.167
816	-0.165
816	-0.166
817	-0.17
817	-0.173
817	-0.174
818	-0.173
818	-0.169
819	-0.163
819	-0.16
820	-0.161
820	-0.163
820	-0.165
821	-0.165
821	-0.164
822	-0.163
822	-0.163
823	-0.162
823	-0.164
823	-0.168
824	-0.169
824	-0.167
825	-0.162
825	-0.156
826	-0.15
826	-0.146
826	-0.14
827	-0.133
827	-0.127
828	-0.12
828	-0.114
829	-0.107
829	-0.101
829	-0.097
830	-0.094
830	-0.091
831	-0.087
831	-0.084
832	-0.082
832	-0.08
832	-0.078
833	-0.077
833	-0.076
834	-0.075
834	-0.074
835	-0.073
835	-0.073
835	-0.072
836	-0.071
836	-0.07
837	-0.069
837	-0.068
838	-0.068
838	-0.067
839	-0.066
839	-0.065
839	-0.065
840	-0.064
840	-0.063
841	-0.062
841	-0.061
842	-0.06
842	-0.058
842	-0.056
843	-0.054
843	-0.052
844	-0.049
844	-0.047
845	-0.045
845	-0.043
845	-0.041
846	-0.039
846	-0.038
847	-0.037
847	-0.036
848	-0.036
848	-0.036
848	-0.036
849	-0.035
849	-0.035
850	-0.034
850	-0.034
851	-0.034
851	-0.033
851	-0.032
852	-0.031
852	-0.03
853	-0.029
853	-0.028
854	-0.027
854	-0.027
854	-0.026
855	-0.026
855	-0.025
856	-0.025
856	-0.025
857	-0.025
857	-0.025
857	-0.025
858	-0.025
858	-0.025
859	-0.025
859	-0.024
860	-0.023
860	-0.022
860	-0.021
861	-0.02
861	-0.019
862	-0.018
862	-0.017
863	-0.017
863	-0.016
863	-0.015
864	-0.014
864	-0.014
865	-0.013
865	-0.012
866	-0.011
866	-0.011
866	-0.009
867	-0.009
867	-0.008
868	-0.008
868	-0.007
869	-0.007
869	-0.007
869	-0.008
870	-0.008
870	-0.009
871	-0.009
871	-0.009
872	-0.01
872	-0.01
872	-0.01
873	-0.01
873	-0.011
874	-0.011
874	-0.011
875	-0.01
875	-0.011
875	-0.011
876	-0.01
876	-0.01
877	-0.01
877	-0.01
878	-0.01
878	-0.01
878	-0.011
879	-0.011
879	-0.012
880	-0.012
880	-0.012
881	-0.012
881	-0.012
881	-0.011
882	-0.01
882	-0.009
883	-0.008
883	-0.006
884	-0.004
884	-0.003
884	-0.001
885	0
885	0.002
886	0.003
886	0.004
887	0.004
887	0.004
887	0.004
888	0.003
888	0.003
889	0.002
889	0.002
890	0.001
890	0
890	-0
891	-0.001
891	-0.002
892	-0.003
892	-0.003
893	-0.003
893	-0.003
893	-0.003
894	-0.003
894	-0.004
895	-0.004
895	-0.004
895	-0.005
896	-0.005
896	-0.005
897	-0.005
897	-0.005
898	-0.005
898	-0.005
898	-0.005
899	-0.005
899	-0.004
900	-0.004
900	-0.003
901	-0.002
901	-0.001
901	-0.001
902	0
902	0.001
903	0.002
903	0.002
904	0.003
904	0.004
904	0.005
905	0.005
905	0.005
906	0.006
906	0.006
907	0.005
907	0.005
907	0.005
908	0.004
908	0.003
909	0.003
909	0.002
910	0.002
910	0.001
910	0.001
911	0
911	-0.001
912	-0.001
912	-0.001
913	-0.002
913	-0.002
913	-0.002
914	-0.003
914	-0.003
915	-0.003
915	-0.004
916	-0.004
916	-0.004
916	-0.003
917	-0.003
917	-0.003
918	-0.002
918	-0.002
918	-0.001
919	-0
919	0.001
920	0.002
920	0.004
921	0.005
921	0.006
921	0.007
922	0.007
922	0.008
923	0.008
923	0.008
924	0.008
924	0.007
924	0.007
925	0.006
925	0.005
926	0.004
926	0.003
927	0.002
927	0.001
927	0.001
928	0
928	0
929	0
929	-0
930	-0
930	-0
930	-0
931	0
931	0
932	0.001
932	0.001
933	0.002
933	0.002
933	0.002
934	0.003
934	0.003
935	0.004
935	0.004
935	0.005
936	0.005
936	0.006
937	0.007
937	0.007
938	0.008
938	0.009
938	0.01
939	0.01
939	0.011
940	0.011
940	0.011
941	0.011
941	0.011
941	0.011
942	0.011
942	0.011
943	0.011
943	0.011
944	0.011
944	0.011
944	0.011
945	0.012
945	0.012
946	0.013
946	0.013
946	0.013
947	0.013
947	0.013
948	0.013
948	0.013
949	0.013
949	0.014
949	0.014
950	0.014
950	0.015
951	0.015
951	0.015
952	0.015
952	0.015
952	0.015
953	0.015
953	0.015
954	0.014
954	0.013
955	0.013
955	0.012
955	0.012
956	0.012
956	0.012
957	0.011
957	0.011
957	0.01
958	0.01
958	0.009
959	0.009
959	0.009
960	0.009
960	0.008
960	0.008
961	0.007
961	0.007
962	0.007
962	0.007
963	0.007
963	0.006
963	0.006
964	0.006
964	0.006
965	0.006
965	0.007
966	0.007
966	0.008
966	0.008
967	0.009
967	0.009
968	0.01
968	0.011
968	0.012
969	0.012
969	0.013
970	0.013
970	0.014
971	0.014
971	0.014
971	0.014
972	0.014
972	0.015
973	0.015
973	0.015
974	0.016
974	0.016
974	0.017
975	0.018
975	0.019
976	0.02
976	0.02
976	0.021
977	0.021
977	0.021
978	0.021
978	0.02
979	0.02
979	0.019
979	0.018
980	0.017
980	0.016
981	0.015
981	0.015
982	0.014
982	0.013
982	0.013
983	0.012
983	0.011
984	0.011
984	0.011
984	0.01
985	0.01
985	0.01
986	0.009
986	0.009
987	0.009
987	0.009
987	0.009
988	0.009
988	0.01
989	0.01
989	0.01
990	0.01
990	0.011
990	0.011
991	0.012
991	0.012
992	0.013
992	0.012
992	0.012
993	0.012
993	0.011
994	0.011
994	0.01
995	0.01
995	0.009
995	0.008
996	0.008
996	0.008
997	0.008
997	0.008
997	0.009
998	0.009
998	0.01
999	0.011
999	0.012
1000	0.013
1000	0.013
1000	0.013
1001	0.014
1001	0.013
1002	0.013
1002	0.012
1003	0.011
1003	0.01
1003	0.009
1004	0.008
1004	0.007
1005	0.006
1005	0.005
1005	0.004
1006	0.003
1006	0.003
1007	0.002
1007	0.002
1008	0.001
1008	0.001
1008	0.001
1009	0.001
1009	0.001
1010	0.002
1010	0.002
1010	0.002
1011	0.002
1011	0.003
1012	0.003
1012	0.003
1013	0.003
1013	0.003
1013	0.004
1014	0.004
1014	0.004
1015	0.005
1015	0.005
1016	0.006
1016	0.007
1016	0.007
1017	0.008
1017	0.01
1018	0.011
1018	0.012
1018	0.014
1019	0.015
1019	0.017
1020	0.018
1020	0.019
1021	0.02
1021	0.02
1021	0.021
1022	0.021
1022	0.021
1023	0.021
1023	0.021
1023	0.021
1024	0.02
1024	0.02
1025	0.02
1025	0.02
1026	0.02
1026	0.02
1026	0.02
1027	0.02
1027	0.02
1028	0.02
1028	0.021
1028	0.02
1029	0.02
1029	0.02
1030	0.02
1030	0.019
1031	0.019
1031	0.018
1031	0.018
1032	0.018
1032	0.018
1033	0.017
1033	0.017
1033	0.017
1034	0.016
1034	0.016
1035	0.015
1035	0.015
1036	0.015
1036	0.014
1036	0.014
1037	0.014
1037	0.015
1038	0.015
1038	0.016
1039	0.016
1039	0.017
1039	0.018
1040	0.019
1040	0.02
1041	0.02
1041	0.021
1041	0.021
1042	0.021
1042	0.022
1043	0.022
1043	0.022
1044	0.023
1044	0.024
1044	0.024
1045	0.025
1045	0.026
1046	0.027
1046	0.028
1046	0.03
1047	0.031
1047	0.033
1048	0.035
1048	0.036
1049	0.036
1049	0.037
1049	0.038
1050	0.039
1050	0.039
1051	0.04
1051	0.04
1051	0.041
1052	0.042
1052	0.043
1053	0.044
1053	0.044
1053	0.045
1054	0.046
1054	0.047
1055	0.047
1055	0.048
1056	0.047
1056	0.046
1056	0.046
1057	0.045
1057	0.045
1058	0.045
1058	0.045
1058	0.045
1059	0.045
1059	0.046
1060	0.046
1060	0.047
1061	0.048
1061	0.049
1061	0.05
1062	0.05
1062	0.05
1063	0.051
1063	0.051
1063	0.051
1064	0.052
1064	0.053
1065	0.053
1065	0.054
1066	0.055
1066	0.056
1066	0.058
1067	0.059
1067	0.061
1068	0.063
1068	0.064
1068	0.066
1069	0.068
1069	0.07
1070	0.072
1070	0.075
1071	0.078
1071	0.081
1071	0.084
1072	0.088
1072	0.092
1073	0.096
1073	0.099
1073	0.103
1074	0.107
1074	0.11
1075	0.113
1075	0.117
1076	0.119
1076	0.123
1076	0.126
1077	0.129
1077	0.133
1078	0.137
1078	0.142
1078	0.146
1079	0.15
1079	0.155
1080	0.159
1080	0.164
1080	0.167
1081	0.171
1081	0.175
1082	0.179
1082	0.183
1083	0.188
1083	0.192
1083	0.197
1084	0.203
1084	0.211
1085	0.217
1085	0.225
1085	0.232
1086	0.241
1086	0.247
1087	0.255
1087	0.263
1088	0.271
1088	0.279
1088	0.29
1089	0.298
1089	0.309
1090	0.321
1090	0.336
1090	0.351
1091	0.366
1091	0.385
1092	0.405
1092	0.428
1092	0.452
1093	0.475
1093	0.507
1094	0.54
1094	0.577
1095	0.618
1095	0.672
1095	0.745
1096	0.83
1096	0.943
1097	1.116
1097	1.398
1097	-0
1098	-0
1098	-0
1099	-0
1099	-0
1100	-0
1100	-0
1100	-0
1101	-0
1101	-0
1102	-0
1102	-0
1102	-0
1103	-0
1103	-0
1104	-0
1104	-0
1104	-0
1105	-0
1105	-0
1106	-0
1106	-0
1107	-0
1107	-0
1107	-0
1108	-0
1108	-0
1109	-0
1109	-0
1109	-0
1110	-0
1110	-0
1111	-0
1111	-0
