Data from 15c-2-5a_Absorbance__1156__02957.txt Node

Date: Fri Jan 19 14:21:49 CET 2024
User: Marek
Spectrometer: MAYP115816
Trigger mode: 0
Integration Time (sec): 2.000000E-1
Scans to average: 10
Electric dark correction enabled: true
Nonlinearity correction enabled: true
Boxcar width: 5
XAxis mode: Wavelengths
Number of Pixels in Spectrum: 2068
>>>>>Begin Spectral Data<<<<<
199	-2.296
199	-2.138
200	-1.991
200	-1.87
201	-1.799
201	-1.744
202	-1.67
202	-1.609
203	-1.555
203	-1.509
204	-1.48
204	-1.455
205	-1.435
205	-1.423
205	-1.421
206	-1.415
206	-1.411
207	-1.406
207	-1.401
208	-1.399
208	-1.395
209	-1.393
209	-1.388
210	-1.385
210	-1.384
211	-1.382
211	-1.38
212	-1.381
212	-1.381
213	-1.381
213	-1.378
213	-1.377
214	-1.373
214	-1.372
215	-1.369
215	-1.368
216	-1.364
216	-1.364
217	-1.359
217	-1.358
218	-1.355
218	-1.352
219	-1.349
219	-1.348
220	-1.346
220	-1.346
221	-1.344
221	-1.339
221	-1.333
222	-1.331
222	-1.326
223	-1.321
223	-1.316
224	-1.309
224	-1.302
225	-1.294
225	-1.282
226	-1.271
226	-1.261
227	-1.248
227	-1.233
228	-1.216
228	-1.201
229	-1.18
229	-1.157
229	-1.13
230	-1.101
230	-1.068
231	-1.032
231	-0.992
232	-0.951
232	-0.906
233	-0.858
233	-0.807
234	-0.756
234	-0.705
235	-0.654
235	-0.602
236	-0.552
236	-0.501
236	-0.452
237	-0.403
237	-0.357
238	-0.313
238	-0.27
239	-0.23
239	-0.192
240	-0.155
240	-0.121
241	-0.089
241	-0.059
242	-0.031
242	-0.005
243	0.019
243	0.041
243	0.063
244	0.082
244	0.1
245	0.117
245	0.132
246	0.147
246	0.16
247	0.172
247	0.183
248	0.194
248	0.204
249	0.213
249	0.222
250	0.23
250	0.238
250	0.245
251	0.252
251	0.258
252	0.264
252	0.27
253	0.275
253	0.28
254	0.285
254	0.289
255	0.293
255	0.297
256	0.301
256	0.304
257	0.307
257	0.31
258	0.312
258	0.314
258	0.317
259	0.319
259	0.32
260	0.322
260	0.323
261	0.324
261	0.325
262	0.326
262	0.327
263	0.328
263	0.329
264	0.329
264	0.33
265	0.33
265	0.33
265	0.331
266	0.331
266	0.331
267	0.331
267	0.331
268	0.33
268	0.33
269	0.329
269	0.329
270	0.328
270	0.328
271	0.327
271	0.326
272	0.326
272	0.325
272	0.324
273	0.323
273	0.323
274	0.322
274	0.321
275	0.32
275	0.32
276	0.319
276	0.318
277	0.316
277	0.314
278	0.312
278	0.31
278	0.308
279	0.306
279	0.305
280	0.304
280	0.303
281	0.302
281	0.301
282	0.301
282	0.301
283	0.301
283	0.301
284	0.302
284	0.302
285	0.301
285	0.3
285	0.299
286	0.298
286	0.297
287	0.297
287	0.296
288	0.295
288	0.294
289	0.293
289	0.292
290	0.292
290	0.291
291	0.29
291	0.289
292	0.289
292	0.288
292	0.287
293	0.286
293	0.286
294	0.285
294	0.284
295	0.284
295	0.283
296	0.282
296	0.282
297	0.281
297	0.28
298	0.28
298	0.279
298	0.278
299	0.278
299	0.277
300	0.276
300	0.276
301	0.275
301	0.274
302	0.274
302	0.273
303	0.272
303	0.272
304	0.271
304	0.27
305	0.27
305	0.269
305	0.268
306	0.268
306	0.267
307	0.266
307	0.265
308	0.264
308	0.264
309	0.263
309	0.262
310	0.261
310	0.26
311	0.259
311	0.258
311	0.258
312	0.257
312	0.256
313	0.255
313	0.254
314	0.253
314	0.252
315	0.252
315	0.251
316	0.25
316	0.249
317	0.248
317	0.247
318	0.246
318	0.245
318	0.244
319	0.243
319	0.242
320	0.241
320	0.24
321	0.239
321	0.238
322	0.237
322	0.236
323	0.235
323	0.234
324	0.233
324	0.232
324	0.231
325	0.23
325	0.229
326	0.228
326	0.227
327	0.226
327	0.225
328	0.225
328	0.224
329	0.223
329	0.222
330	0.221
330	0.221
330	0.22
331	0.219
331	0.218
332	0.217
332	0.216
333	0.215
333	0.215
334	0.213
334	0.213
335	0.212
335	0.211
336	0.21
336	0.209
336	0.208
337	0.207
337	0.207
338	0.206
338	0.205
339	0.204
339	0.203
340	0.202
340	0.201
341	0.2
341	0.2
342	0.199
342	0.198
342	0.198
343	0.197
343	0.196
344	0.195
344	0.195
345	0.194
345	0.193
346	0.192
346	0.191
347	0.19
347	0.189
348	0.189
348	0.188
348	0.187
349	0.186
349	0.185
350	0.184
350	0.183
351	0.182
351	0.181
352	0.18
352	0.179
353	0.178
353	0.176
354	0.175
354	0.174
354	0.173
355	0.171
355	0.17
356	0.169
356	0.168
357	0.167
357	0.166
358	0.166
358	0.166
359	0.167
359	0.168
360	0.169
360	0.169
360	0.17
361	0.171
361	0.172
362	0.172
362	0.172
363	0.172
363	0.172
364	0.171
364	0.17
365	0.17
365	0.169
366	0.168
366	0.168
366	0.167
367	0.167
367	0.166
368	0.166
368	0.165
369	0.165
369	0.164
370	0.164
370	0.163
371	0.163
371	0.162
372	0.161
372	0.161
372	0.16
373	0.16
373	0.16
374	0.16
374	0.16
375	0.159
375	0.159
376	0.159
376	0.159
377	0.16
377	0.16
378	0.161
378	0.161
378	0.161
379	0.161
379	0.161
380	0.161
380	0.161
381	0.161
381	0.161
382	0.16
382	0.16
383	0.159
383	0.159
383	0.158
384	0.158
384	0.157
385	0.157
385	0.157
386	0.156
386	0.156
387	0.156
387	0.156
388	0.156
388	0.156
389	0.156
389	0.155
389	0.155
390	0.155
390	0.156
391	0.156
391	0.156
392	0.156
392	0.156
393	0.156
393	0.156
394	0.156
394	0.155
394	0.155
395	0.155
395	0.154
396	0.153
396	0.153
397	0.153
397	0.154
398	0.153
398	0.153
399	0.153
399	0.153
400	0.153
400	0.153
400	0.152
401	0.152
401	0.15
402	0.149
402	0.148
403	0.148
403	0.148
404	0.147
404	0.147
405	0.146
405	0.146
405	0.145
406	0.145
406	0.145
407	0.144
407	0.144
408	0.143
408	0.142
409	0.142
409	0.141
410	0.141
410	0.14
411	0.14
411	0.14
411	0.14
412	0.14
412	0.139
413	0.139
413	0.139
414	0.138
414	0.138
415	0.137
415	0.137
416	0.136
416	0.136
416	0.135
417	0.134
417	0.134
418	0.134
418	0.134
419	0.135
419	0.136
420	0.136
420	0.137
421	0.138
421	0.138
421	0.139
422	0.139
422	0.139
423	0.139
423	0.139
424	0.138
424	0.137
425	0.136
425	0.135
426	0.134
426	0.134
427	0.133
427	0.133
427	0.134
428	0.135
428	0.135
429	0.136
429	0.137
430	0.137
430	0.137
431	0.137
431	0.136
432	0.135
432	0.134
432	0.133
433	0.131
433	0.13
434	0.129
434	0.128
435	0.128
435	0.128
436	0.128
436	0.128
437	0.128
437	0.128
437	0.128
438	0.128
438	0.128
439	0.127
439	0.127
440	0.127
440	0.126
441	0.126
441	0.126
442	0.127
442	0.127
442	0.127
443	0.127
443	0.128
444	0.128
444	0.128
445	0.128
445	0.128
446	0.128
446	0.128
447	0.127
447	0.127
447	0.127
448	0.126
448	0.126
449	0.126
449	0.125
450	0.125
450	0.125
451	0.124
451	0.124
452	0.123
452	0.122
452	0.121
453	0.121
453	0.12
454	0.119
454	0.118
455	0.118
455	0.117
456	0.117
456	0.116
457	0.116
457	0.116
458	0.116
458	0.116
458	0.116
459	0.116
459	0.116
460	0.115
460	0.114
461	0.114
461	0.113
462	0.113
462	0.113
463	0.113
463	0.114
463	0.115
464	0.115
464	0.115
465	0.116
465	0.116
466	0.116
466	0.116
467	0.115
467	0.115
467	0.113
468	0.111
468	0.109
469	0.106
469	0.105
470	0.103
470	0.103
471	0.102
471	0.102
472	0.102
472	0.102
472	0.103
473	0.104
473	0.105
474	0.106
474	0.107
475	0.108
475	0.109
476	0.109
476	0.11
477	0.11
477	0.11
477	0.11
478	0.11
478	0.11
479	0.11
479	0.111
480	0.112
480	0.113
481	0.114
481	0.115
482	0.116
482	0.118
482	0.119
483	0.122
483	0.125
484	0.129
484	0.132
485	0.134
485	0.136
486	0.137
486	0.138
487	0.138
487	0.138
487	0.138
488	0.137
488	0.135
489	0.132
489	0.129
490	0.127
490	0.125
491	0.124
491	0.124
492	0.124
492	0.125
492	0.125
493	0.126
493	0.126
494	0.128
494	0.131
495	0.133
495	0.134
496	0.135
496	0.136
496	0.137
497	0.138
497	0.139
498	0.14
498	0.14
499	0.14
499	0.14
500	0.14
500	0.141
501	0.143
501	0.145
501	0.146
502	0.148
502	0.15
503	0.151
503	0.152
504	0.153
504	0.153
505	0.153
505	0.153
506	0.153
506	0.153
506	0.152
507	0.152
507	0.151
508	0.151
508	0.151
509	0.152
509	0.152
510	0.153
510	0.153
511	0.153
511	0.153
511	0.153
512	0.153
512	0.152
513	0.151
513	0.149
514	0.147
514	0.146
515	0.145
515	0.144
515	0.144
516	0.143
516	0.142
517	0.142
517	0.141
518	0.14
518	0.138
519	0.136
519	0.133
520	0.129
520	0.125
520	0.122
521	0.119
521	0.116
522	0.114
522	0.114
523	0.115
523	0.117
524	0.12
524	0.124
524	0.128
525	0.132
525	0.136
526	0.14
526	0.143
527	0.146
527	0.148
528	0.149
528	0.151
529	0.152
529	0.152
529	0.152
530	0.151
530	0.151
531	0.151
531	0.151
532	0.151
532	0.151
533	0.151
533	0.151
533	0.151
534	0.151
534	0.15
535	0.149
535	0.149
536	0.149
536	0.148
537	0.148
537	0.147
538	0.146
538	0.145
538	0.143
539	0.143
539	0.142
540	0.141
540	0.14
541	0.138
541	0.137
542	0.135
542	0.133
542	0.132
543	0.131
543	0.13
544	0.128
544	0.127
545	0.126
545	0.126
546	0.126
546	0.125
547	0.125
547	0.122
547	0.12
548	0.117
548	0.115
549	0.113
549	0.11
550	0.109
550	0.107
551	0.104
551	0.102
551	0.1
552	0.098
552	0.097
553	0.097
553	0.097
554	0.096
554	0.095
555	0.093
555	0.09
556	0.087
556	0.084
556	0.081
557	0.078
557	0.076
558	0.074
558	0.072
559	0.07
559	0.07
560	0.069
560	0.069
560	0.069
561	0.069
561	0.069
562	0.07
562	0.069
563	0.067
563	0.065
564	0.063
564	0.06
564	0.057
565	0.056
565	0.055
566	0.054
566	0.053
567	0.053
567	0.055
568	0.057
568	0.059
568	0.061
569	0.064
569	0.067
570	0.069
570	0.069
571	0.07
571	0.072
572	0.073
572	0.073
573	0.074
573	0.074
573	0.074
574	0.073
574	0.073
575	0.072
575	0.074
576	0.075
576	0.075
577	0.074
577	0.072
577	0.071
578	0.07
578	0.07
579	0.071
579	0.072
580	0.072
580	0.07
581	0.067
581	0.064
581	0.062
582	0.062
582	0.062
583	0.063
583	0.063
584	0.06
584	0.056
585	0.053
585	0.053
585	0.053
586	0.053
586	0.053
587	0.051
587	0.048
588	0.045
588	0.041
589	0.039
589	0.037
590	0.036
590	0.034
590	0.034
591	0.035
591	0.036
592	0.036
592	0.035
593	0.035
593	0.035
594	0.034
594	0.034
594	0.033
595	0.032
595	0.03
596	0.028
596	0.028
597	0.03
597	0.032
598	0.033
598	0.034
598	0.035
599	0.036
599	0.036
600	0.035
600	0.033
601	0.032
601	0.031
602	0.029
602	0.027
602	0.025
603	0.024
603	0.024
604	0.025
604	0.027
605	0.029
605	0.031
606	0.033
606	0.032
606	0.032
607	0.031
607	0.031
608	0.031
608	0.029
609	0.027
609	0.025
610	0.023
610	0.021
610	0.02
611	0.02
611	0.021
612	0.021
612	0.023
613	0.024
613	0.025
614	0.025
614	0.025
614	0.024
615	0.024
615	0.023
616	0.023
616	0.022
617	0.022
617	0.02
618	0.019
618	0.017
618	0.017
619	0.016
619	0.016
620	0.018
620	0.02
621	0.02
621	0.02
622	0.02
622	0.021
622	0.021
623	0.021
623	0.022
624	0.023
624	0.023
625	0.022
625	0.022
626	0.021
626	0.021
626	0.021
627	0.022
627	0.022
628	0.023
628	0.024
629	0.024
629	0.024
630	0.023
630	0.022
630	0.022
631	0.022
631	0.022
632	0.021
632	0.02
633	0.02
633	0.021
634	0.022
634	0.024
634	0.027
635	0.029
635	0.03
636	0.031
636	0.033
637	0.034
637	0.035
638	0.037
638	0.038
638	0.039
639	0.039
639	0.038
640	0.039
640	0.04
641	0.041
641	0.043
642	0.045
642	0.046
642	0.048
643	0.05
643	0.051
644	0.054
644	0.056
645	0.058
645	0.06
646	0.063
646	0.066
646	0.07
647	0.074
647	0.078
648	0.082
648	0.085
649	0.088
649	0.092
650	0.095
650	0.099
650	0.102
651	0.105
651	0.107
652	0.109
652	0.111
653	0.114
653	0.123
653	0.15
654	0.124
654	0.105
655	0.11
655	0.111
656	0.113
656	0.115
657	0.117
657	0.118
657	0.12
658	0.117
658	0.099
659	0.122
659	0.153
660	0.154
660	0.155
661	0.157
661	0.159
661	0.161
662	0.164
662	0.167
663	0.17
663	0.174
664	0.176
664	0.178
665	0.181
665	0.183
665	0.186
666	0.188
666	0.191
667	0.193
667	0.195
668	0.197
668	0.199
669	0.201
669	0.204
669	0.208
670	0.213
670	0.216
671	0.219
671	0.221
672	0.223
672	0.224
672	0.226
673	0.227
673	0.229
674	0.23
674	0.23
675	0.229
675	0.229
676	0.231
676	0.233
676	0.235
677	0.237
677	0.239
678	0.242
678	0.244
679	0.245
679	0.247
680	0.249
680	0.251
680	0.251
681	0.252
681	0.252
682	0.253
682	0.255
683	0.257
683	0.259
684	0.262
684	0.264
684	0.265
685	0.265
685	0.267
686	0.268
686	0.268
687	0.268
687	0.267
687	0.266
688	0.264
688	0.262
689	0.261
689	0.262
690	0.262
690	0.262
691	0.261
691	0.262
691	0.262
692	0.262
692	0.261
693	0.26
693	0.261
694	0.26
694	0.258
695	0.257
695	0.259
695	0.26
696	0.26
696	0.259
697	0.258
697	0.258
698	0.257
698	0.255
698	0.253
699	0.252
699	0.25
700	0.247
700	0.244
701	0.243
701	0.241
702	0.24
702	0.238
702	0.237
703	0.235
703	0.233
704	0.232
704	0.231
705	0.231
705	0.23
705	0.229
706	0.228
706	0.228
707	0.227
707	0.225
708	0.223
708	0.221
709	0.22
709	0.218
709	0.214
710	0.21
710	0.206
711	0.204
711	0.201
712	0.199
712	0.196
713	0.195
713	0.193
713	0.191
714	0.188
714	0.185
715	0.183
715	0.181
716	0.178
716	0.176
716	0.173
717	0.171
717	0.169
718	0.166
718	0.163
719	0.161
719	0.158
720	0.156
720	0.153
720	0.15
721	0.147
721	0.144
722	0.141
722	0.138
723	0.135
723	0.133
723	0.131
724	0.129
724	0.127
725	0.124
725	0.122
726	0.121
726	0.119
727	0.117
727	0.115
727	0.113
728	0.111
728	0.109
729	0.108
729	0.107
730	0.105
730	0.103
730	0.101
731	0.099
731	0.097
732	0.096
732	0.094
733	0.092
733	0.09
734	0.087
734	0.084
734	0.081
735	0.079
735	0.077
736	0.074
736	0.07
737	0.068
737	0.065
737	0.063
738	0.06
738	0.057
739	0.054
739	0.051
740	0.048
740	0.046
741	0.045
741	0.043
741	0.039
742	0.035
742	0.03
743	0.027
743	0.023
744	0.02
744	0.018
744	0.015
745	0.012
745	0.009
746	0.006
746	0.005
747	0.004
747	0.004
748	0.005
748	0.005
748	0.005
749	0.005
749	0.005
750	0.004
750	0.003
751	0.003
751	0.002
751	0.002
752	0.001
752	-0.001
753	-0.002
753	-0.004
754	-0.004
754	-0.005
754	-0.004
755	-0.003
755	-0.002
756	-0.002
756	-0.004
757	-0.006
757	-0.006
758	-0.007
758	-0.008
758	-0.009
759	-0.01
759	-0.013
760	-0.016
760	-0.02
761	-0.023
761	-0.024
761	-0.026
762	-0.029
762	-0.03
763	-0.032
763	-0.035
764	-0.039
764	-0.042
764	-0.045
765	-0.048
765	-0.051
766	-0.053
766	-0.054
767	-0.055
767	-0.058
768	-0.062
768	-0.065
768	-0.066
769	-0.067
769	-0.068
770	-0.069
770	-0.071
771	-0.073
771	-0.076
771	-0.08
772	-0.082
772	-0.084
773	-0.086
773	-0.089
774	-0.092
774	-0.096
775	-0.099
775	-0.103
775	-0.107
776	-0.111
776	-0.114
777	-0.118
777	-0.121
778	-0.125
778	-0.13
778	-0.135
779	-0.137
779	-0.136
780	-0.137
780	-0.139
781	-0.141
781	-0.143
781	-0.144
782	-0.145
782	-0.147
783	-0.148
783	-0.148
784	-0.148
784	-0.15
784	-0.152
785	-0.153
785	-0.155
786	-0.155
786	-0.153
787	-0.149
787	-0.145
788	-0.144
788	-0.145
788	-0.146
789	-0.149
789	-0.148
790	-0.146
790	-0.145
791	-0.145
791	-0.147
791	-0.15
792	-0.145
792	-0.134
793	-0.128
793	-0.124
794	-0.122
794	-0.124
794	-0.127
795	-0.129
795	-0.129
796	-0.129
796	-0.132
797	-0.14
797	-0.151
797	-0.158
798	-0.163
798	-0.166
799	-0.166
799	-0.166
800	-0.166
800	-0.167
801	-0.17
801	-0.171
801	-0.17
802	-0.171
802	-0.172
803	-0.172
803	-0.172
804	-0.171
804	-0.166
804	-0.16
805	-0.156
805	-0.154
806	-0.152
806	-0.15
807	-0.149
807	-0.149
807	-0.149
808	-0.148
808	-0.149
809	-0.153
809	-0.159
810	-0.163
810	-0.165
810	-0.169
811	-0.172
811	-0.173
812	-0.17
812	-0.167
813	-0.167
813	-0.168
813	-0.17
814	-0.171
814	-0.171
815	-0.169
815	-0.167
816	-0.165
816	-0.166
817	-0.17
817	-0.173
817	-0.174
818	-0.172
818	-0.169
819	-0.163
819	-0.16
820	-0.161
820	-0.163
820	-0.164
821	-0.164
821	-0.163
822	-0.163
822	-0.162
823	-0.162
823	-0.164
823	-0.168
824	-0.169
824	-0.166
825	-0.162
825	-0.156
826	-0.15
826	-0.145
826	-0.139
827	-0.132
827	-0.126
828	-0.119
828	-0.112
829	-0.106
829	-0.1
829	-0.095
830	-0.092
830	-0.088
831	-0.084
831	-0.081
832	-0.079
832	-0.077
832	-0.075
833	-0.074
833	-0.073
834	-0.072
834	-0.071
835	-0.07
835	-0.069
835	-0.068
836	-0.067
836	-0.066
837	-0.064
837	-0.063
838	-0.062
838	-0.061
839	-0.06
839	-0.06
839	-0.059
840	-0.059
840	-0.058
841	-0.057
841	-0.056
842	-0.055
842	-0.054
842	-0.052
843	-0.05
843	-0.047
844	-0.045
844	-0.042
845	-0.039
845	-0.037
845	-0.035
846	-0.033
846	-0.032
847	-0.031
847	-0.03
848	-0.03
848	-0.03
848	-0.029
849	-0.029
849	-0.029
850	-0.029
850	-0.029
851	-0.029
851	-0.028
851	-0.027
852	-0.027
852	-0.026
853	-0.025
853	-0.025
854	-0.024
854	-0.023
854	-0.023
855	-0.022
855	-0.022
856	-0.023
856	-0.023
857	-0.023
857	-0.023
857	-0.023
858	-0.023
858	-0.023
859	-0.023
859	-0.023
860	-0.022
860	-0.021
860	-0.02
861	-0.018
861	-0.017
862	-0.016
862	-0.015
863	-0.015
863	-0.014
863	-0.013
864	-0.012
864	-0.011
865	-0.01
865	-0.009
866	-0.008
866	-0.008
866	-0.006
867	-0.006
867	-0.005
868	-0.005
868	-0.004
869	-0.004
869	-0.004
869	-0.004
870	-0.004
870	-0.004
871	-0.004
871	-0.004
872	-0.004
872	-0.004
872	-0.004
873	-0.004
873	-0.004
874	-0.004
874	-0.004
875	-0.004
875	-0.005
875	-0.005
876	-0.005
876	-0.004
877	-0.004
877	-0.004
878	-0.004
878	-0.005
878	-0.005
879	-0.005
879	-0.006
880	-0.007
880	-0.007
881	-0.007
881	-0.007
881	-0.007
882	-0.006
882	-0.005
883	-0.004
883	-0.003
884	-0.001
884	0
884	0.001
885	0.003
885	0.004
886	0.005
886	0.006
887	0.007
887	0.007
887	0.007
888	0.007
888	0.007
889	0.006
889	0.006
890	0.006
890	0.006
890	0.005
891	0.004
891	0.003
892	0.003
892	0.002
893	0.001
893	0.001
893	0.001
894	0
894	-0.001
895	-0.001
895	-0.001
895	-0.002
896	-0.002
896	-0.002
897	-0.002
897	-0.002
898	-0.002
898	-0.002
898	-0.002
899	-0.002
899	-0.001
900	-0.001
900	-0
901	0.001
901	0.002
901	0.003
902	0.005
902	0.006
903	0.007
903	0.009
904	0.01
904	0.011
904	0.012
905	0.013
905	0.013
906	0.013
906	0.013
907	0.013
907	0.012
907	0.012
908	0.011
908	0.01
909	0.009
909	0.008
910	0.008
910	0.007
910	0.006
911	0.005
911	0.005
912	0.004
912	0.004
913	0.003
913	0.002
913	0.002
914	0.001
914	0.001
915	0.001
915	0.001
916	0.001
916	0.001
916	0.001
917	0.002
917	0.003
918	0.003
918	0.004
918	0.005
919	0.007
919	0.008
920	0.009
920	0.011
921	0.012
921	0.013
921	0.013
922	0.014
922	0.014
923	0.014
923	0.014
924	0.014
924	0.014
924	0.013
925	0.012
925	0.011
926	0.01
926	0.01
927	0.009
927	0.008
927	0.008
928	0.008
928	0.008
929	0.008
929	0.008
930	0.008
930	0.008
930	0.007
931	0.007
931	0.008
932	0.008
932	0.007
933	0.007
933	0.007
933	0.007
934	0.008
934	0.008
935	0.008
935	0.009
935	0.009
936	0.01
936	0.01
937	0.011
937	0.012
938	0.013
938	0.013
938	0.014
939	0.014
939	0.015
940	0.015
940	0.014
941	0.014
941	0.014
941	0.013
942	0.013
942	0.013
943	0.013
943	0.013
944	0.013
944	0.013
944	0.013
945	0.014
945	0.015
946	0.016
946	0.016
946	0.016
947	0.017
947	0.017
948	0.017
948	0.017
949	0.017
949	0.018
949	0.018
950	0.018
950	0.019
951	0.019
951	0.019
952	0.019
952	0.02
952	0.02
953	0.02
953	0.02
954	0.02
954	0.02
955	0.02
955	0.019
955	0.019
956	0.019
956	0.018
957	0.018
957	0.017
957	0.016
958	0.015
958	0.015
959	0.014
959	0.013
960	0.012
960	0.012
960	0.011
961	0.01
961	0.01
962	0.01
962	0.01
963	0.01
963	0.009
963	0.01
964	0.01
964	0.01
965	0.01
965	0.01
966	0.01
966	0.011
966	0.011
967	0.011
967	0.012
968	0.012
968	0.012
968	0.013
969	0.014
969	0.014
970	0.015
970	0.015
971	0.016
971	0.016
971	0.017
972	0.017
972	0.018
973	0.019
973	0.019
974	0.02
974	0.02
974	0.021
975	0.021
975	0.022
976	0.023
976	0.023
976	0.024
977	0.024
977	0.023
978	0.023
978	0.023
979	0.023
979	0.022
979	0.022
980	0.02
980	0.019
981	0.019
981	0.018
982	0.018
982	0.017
982	0.017
983	0.016
983	0.015
984	0.015
984	0.014
984	0.014
985	0.015
985	0.014
986	0.014
986	0.014
987	0.014
987	0.014
987	0.014
988	0.014
988	0.014
989	0.014
989	0.015
990	0.015
990	0.015
990	0.015
991	0.016
991	0.016
992	0.016
992	0.016
992	0.016
993	0.016
993	0.016
994	0.015
994	0.015
995	0.014
995	0.013
995	0.012
996	0.012
996	0.011
997	0.011
997	0.011
997	0.012
998	0.013
998	0.014
999	0.015
999	0.016
1000	0.017
1000	0.018
1000	0.018
1001	0.019
1001	0.019
1002	0.018
1002	0.018
1003	0.017
1003	0.016
1003	0.014
1004	0.013
1004	0.012
1005	0.011
1005	0.009
1005	0.008
1006	0.007
1006	0.006
1007	0.006
1007	0.006
1008	0.006
1008	0.005
1008	0.005
1009	0.005
1009	0.006
1010	0.006
1010	0.006
1010	0.006
1011	0.006
1011	0.007
1012	0.007
1012	0.007
1013	0.008
1013	0.008
1013	0.008
1014	0.009
1014	0.01
1015	0.01
1015	0.011
1016	0.012
1016	0.013
1016	0.014
1017	0.015
1017	0.016
1018	0.017
1018	0.018
1018	0.02
1019	0.021
1019	0.022
1020	0.023
1020	0.023
1021	0.024
1021	0.024
1021	0.025
1022	0.024
1022	0.024
1023	0.024
1023	0.024
1023	0.024
1024	0.023
1024	0.022
1025	0.022
1025	0.022
1026	0.022
1026	0.021
1026	0.021
1027	0.021
1027	0.021
1028	0.021
1028	0.021
1028	0.02
1029	0.02
1029	0.02
1030	0.02
1030	0.02
1031	0.019
1031	0.019
1031	0.019
1032	0.019
1032	0.019
1033	0.02
1033	0.02
1033	0.019
1034	0.019
1034	0.019
1035	0.018
1035	0.018
1036	0.018
1036	0.018
1036	0.018
1037	0.018
1037	0.019
1038	0.019
1038	0.02
1039	0.021
1039	0.022
1039	0.023
1040	0.024
1040	0.025
1041	0.025
1041	0.026
1041	0.026
1042	0.026
1042	0.026
1043	0.026
1043	0.027
1044	0.027
1044	0.028
1044	0.029
1045	0.029
1045	0.03
1046	0.031
1046	0.032
1046	0.034
1047	0.035
1047	0.037
1048	0.039
1048	0.039
1049	0.04
1049	0.041
1049	0.041
1050	0.042
1050	0.042
1051	0.043
1051	0.043
1051	0.044
1052	0.045
1052	0.045
1053	0.046
1053	0.047
1053	0.048
1054	0.048
1054	0.049
1055	0.049
1055	0.049
1056	0.049
1056	0.049
1056	0.048
1057	0.048
1057	0.048
1058	0.048
1058	0.048
1058	0.048
1059	0.049
1059	0.049
1060	0.05
1060	0.051
1061	0.052
1061	0.053
1061	0.054
1062	0.054
1062	0.055
1063	0.055
1063	0.055
1063	0.057
1064	0.058
1064	0.059
1065	0.06
1065	0.061
1066	0.062
1066	0.064
1066	0.065
1067	0.067
1067	0.069
1068	0.071
1068	0.072
1068	0.074
1069	0.076
1069	0.077
1070	0.08
1070	0.083
1071	0.086
1071	0.09
1071	0.092
1072	0.096
1072	0.101
1073	0.105
1073	0.108
1073	0.112
1074	0.115
1074	0.119
1075	0.122
1075	0.124
1076	0.127
1076	0.131
1076	0.133
1077	0.136
1077	0.14
1078	0.143
1078	0.148
1078	0.152
1079	0.155
1079	0.16
1080	0.164
1080	0.167
1080	0.17
1081	0.174
1081	0.178
1082	0.183
1082	0.187
1083	0.19
1083	0.194
1083	0.2
1084	0.206
1084	0.212
1085	0.219
1085	0.227
1085	0.233
1086	0.24
1086	0.245
1087	0.253
1087	0.262
1088	0.269
1088	0.277
1088	0.288
1089	0.297
1089	0.309
1090	0.321
1090	0.337
1090	0.352
1091	0.37
1091	0.389
1092	0.409
1092	0.433
1092	0.457
1093	0.482
1093	0.515
1094	0.55
1094	0.589
1095	0.631
1095	0.689
1095	0.765
1096	0.855
1096	0.975
1097	1.171
1097	1.518
1097	-0
1098	-0
1098	-0
1099	-0
1099	-0
1100	-0
1100	-0
1100	-0
1101	-0
1101	-0
1102	-0
1102	-0
1102	-0
1103	-0
1103	-0
1104	-0
1104	-0
1104	-0
1105	-0
1105	-0
1106	-0
1106	-0
1107	-0
1107	-0
1107	-0
1108	-0
1108	-0
1109	-0
1109	-0
1109	-0
1110	-0
1110	-0
1111	-0
1111	-0
