Data from 15c-2-5a_Absorbance__844__02645.txt Node

Date: Fri Jan 19 14:11:25 CET 2024
User: Marek
Spectrometer: MAYP115816
Trigger mode: 0
Integration Time (sec): 2.000000E-1
Scans to average: 10
Electric dark correction enabled: true
Nonlinearity correction enabled: true
Boxcar width: 5
XAxis mode: Wavelengths
Number of Pixels in Spectrum: 2068
>>>>>Begin Spectral Data<<<<<
199	-2.292
199	-2.134
200	-1.987
200	-1.866
201	-1.795
201	-1.74
202	-1.666
202	-1.606
203	-1.552
203	-1.505
204	-1.477
204	-1.452
205	-1.431
205	-1.42
205	-1.418
206	-1.413
206	-1.408
207	-1.403
207	-1.398
208	-1.396
208	-1.393
209	-1.391
209	-1.386
210	-1.384
210	-1.382
211	-1.381
211	-1.379
212	-1.38
212	-1.38
213	-1.379
213	-1.376
213	-1.375
214	-1.37
214	-1.369
215	-1.366
215	-1.364
216	-1.361
216	-1.36
217	-1.356
217	-1.353
218	-1.351
218	-1.348
219	-1.344
219	-1.344
220	-1.342
220	-1.342
221	-1.34
221	-1.334
221	-1.329
222	-1.327
222	-1.323
223	-1.317
223	-1.313
224	-1.305
224	-1.298
225	-1.291
225	-1.279
226	-1.268
226	-1.258
227	-1.245
227	-1.23
228	-1.214
228	-1.198
229	-1.177
229	-1.155
229	-1.128
230	-1.098
230	-1.066
231	-1.03
231	-0.991
232	-0.95
232	-0.906
233	-0.858
233	-0.808
234	-0.758
234	-0.706
235	-0.656
235	-0.605
236	-0.555
236	-0.504
236	-0.456
237	-0.408
237	-0.363
238	-0.319
238	-0.278
239	-0.238
239	-0.201
240	-0.166
240	-0.133
241	-0.102
241	-0.073
242	-0.046
242	-0.021
243	0.002
243	0.023
243	0.043
244	0.062
244	0.079
245	0.094
245	0.109
246	0.123
246	0.135
247	0.146
247	0.157
248	0.168
248	0.177
249	0.186
249	0.194
250	0.202
250	0.209
250	0.216
251	0.222
251	0.228
252	0.234
252	0.24
253	0.245
253	0.249
254	0.254
254	0.258
255	0.262
255	0.266
256	0.269
256	0.272
257	0.275
257	0.277
258	0.279
258	0.281
258	0.283
259	0.285
259	0.286
260	0.287
260	0.288
261	0.289
261	0.29
262	0.291
262	0.292
263	0.293
263	0.294
264	0.295
264	0.295
265	0.296
265	0.296
265	0.296
266	0.296
266	0.296
267	0.296
267	0.296
268	0.295
268	0.295
269	0.294
269	0.293
270	0.293
270	0.292
271	0.291
271	0.291
272	0.29
272	0.289
272	0.288
273	0.287
273	0.286
274	0.286
274	0.285
275	0.284
275	0.283
276	0.282
276	0.281
277	0.28
277	0.278
278	0.276
278	0.274
278	0.271
279	0.269
279	0.268
280	0.267
280	0.266
281	0.265
281	0.264
282	0.264
282	0.263
283	0.264
283	0.264
284	0.264
284	0.264
285	0.263
285	0.262
285	0.262
286	0.261
286	0.26
287	0.259
287	0.258
288	0.257
288	0.256
289	0.256
289	0.255
290	0.254
290	0.253
291	0.252
291	0.252
292	0.251
292	0.25
292	0.249
293	0.249
293	0.248
294	0.247
294	0.247
295	0.246
295	0.246
296	0.245
296	0.244
297	0.244
297	0.243
298	0.243
298	0.242
298	0.242
299	0.241
299	0.24
300	0.239
300	0.239
301	0.238
301	0.238
302	0.237
302	0.236
303	0.236
303	0.235
304	0.234
304	0.234
305	0.233
305	0.233
305	0.232
306	0.231
306	0.231
307	0.23
307	0.229
308	0.229
308	0.228
309	0.227
309	0.226
310	0.226
310	0.225
311	0.224
311	0.223
311	0.223
312	0.222
312	0.221
313	0.22
313	0.219
314	0.219
314	0.218
315	0.217
315	0.216
316	0.215
316	0.214
317	0.213
317	0.212
318	0.212
318	0.211
318	0.21
319	0.209
319	0.208
320	0.207
320	0.206
321	0.205
321	0.204
322	0.204
322	0.202
323	0.202
323	0.201
324	0.2
324	0.199
324	0.198
325	0.197
325	0.196
326	0.195
326	0.195
327	0.194
327	0.193
328	0.192
328	0.191
329	0.191
329	0.19
330	0.189
330	0.188
330	0.187
331	0.187
331	0.186
332	0.185
332	0.184
333	0.183
333	0.183
334	0.182
334	0.181
335	0.18
335	0.179
336	0.178
336	0.177
336	0.176
337	0.175
337	0.175
338	0.174
338	0.173
339	0.172
339	0.171
340	0.171
340	0.17
341	0.169
341	0.168
342	0.168
342	0.167
342	0.167
343	0.166
343	0.165
344	0.165
344	0.164
345	0.163
345	0.162
346	0.162
346	0.161
347	0.16
347	0.159
348	0.158
348	0.157
348	0.157
349	0.156
349	0.155
350	0.154
350	0.153
351	0.152
351	0.151
352	0.15
352	0.149
353	0.148
353	0.146
354	0.145
354	0.144
354	0.143
355	0.141
355	0.14
356	0.139
356	0.138
357	0.137
357	0.137
358	0.137
358	0.137
359	0.138
359	0.138
360	0.139
360	0.14
360	0.141
361	0.141
361	0.142
362	0.142
362	0.142
363	0.142
363	0.142
364	0.141
364	0.141
365	0.14
365	0.139
366	0.139
366	0.139
366	0.138
367	0.138
367	0.137
368	0.137
368	0.136
369	0.136
369	0.135
370	0.135
370	0.134
371	0.134
371	0.133
372	0.132
372	0.132
372	0.131
373	0.131
373	0.131
374	0.131
374	0.13
375	0.13
375	0.13
376	0.13
376	0.13
377	0.131
377	0.131
378	0.132
378	0.132
378	0.132
379	0.132
379	0.132
380	0.132
380	0.132
381	0.132
381	0.132
382	0.132
382	0.131
383	0.131
383	0.13
383	0.13
384	0.129
384	0.129
385	0.128
385	0.128
386	0.128
386	0.128
387	0.128
387	0.128
388	0.127
388	0.127
389	0.127
389	0.126
389	0.126
390	0.126
390	0.127
391	0.127
391	0.127
392	0.127
392	0.127
393	0.127
393	0.127
394	0.126
394	0.126
394	0.126
395	0.125
395	0.125
396	0.125
396	0.124
397	0.125
397	0.125
398	0.125
398	0.125
399	0.125
399	0.125
400	0.125
400	0.124
400	0.124
401	0.123
401	0.122
402	0.121
402	0.12
403	0.119
403	0.119
404	0.119
404	0.118
405	0.118
405	0.117
405	0.117
406	0.116
406	0.116
407	0.116
407	0.115
408	0.115
408	0.114
409	0.113
409	0.112
410	0.112
410	0.112
411	0.112
411	0.112
411	0.112
412	0.112
412	0.111
413	0.111
413	0.111
414	0.11
414	0.11
415	0.109
415	0.109
416	0.108
416	0.107
416	0.107
417	0.106
417	0.106
418	0.106
418	0.106
419	0.107
419	0.107
420	0.108
420	0.109
421	0.11
421	0.11
421	0.11
422	0.111
422	0.111
423	0.111
423	0.111
424	0.11
424	0.109
425	0.108
425	0.107
426	0.106
426	0.105
427	0.105
427	0.105
427	0.106
428	0.106
428	0.107
429	0.108
429	0.108
430	0.109
430	0.108
431	0.108
431	0.107
432	0.107
432	0.106
432	0.104
433	0.103
433	0.101
434	0.1
434	0.1
435	0.1
435	0.1
436	0.1
436	0.1
437	0.1
437	0.1
437	0.1
438	0.1
438	0.1
439	0.1
439	0.099
440	0.099
440	0.099
441	0.099
441	0.099
442	0.099
442	0.099
442	0.099
443	0.1
443	0.1
444	0.1
444	0.1
445	0.1
445	0.1
446	0.1
446	0.1
447	0.099
447	0.099
447	0.099
448	0.099
448	0.098
449	0.098
449	0.098
450	0.098
450	0.097
451	0.097
451	0.096
452	0.095
452	0.095
452	0.094
453	0.093
453	0.092
454	0.091
454	0.091
455	0.09
455	0.09
456	0.089
456	0.089
457	0.089
457	0.089
458	0.088
458	0.088
458	0.088
459	0.089
459	0.088
460	0.088
460	0.087
461	0.086
461	0.086
462	0.085
462	0.085
463	0.086
463	0.086
463	0.087
464	0.087
464	0.088
465	0.088
465	0.088
466	0.088
466	0.088
467	0.088
467	0.087
467	0.086
468	0.084
468	0.082
469	0.08
469	0.078
470	0.077
470	0.076
471	0.076
471	0.075
472	0.075
472	0.075
472	0.075
473	0.076
473	0.077
474	0.079
474	0.079
475	0.08
475	0.081
476	0.081
476	0.081
477	0.081
477	0.082
477	0.082
478	0.082
478	0.082
479	0.082
479	0.082
480	0.083
480	0.084
481	0.085
481	0.086
482	0.087
482	0.088
482	0.09
483	0.092
483	0.095
484	0.099
484	0.102
485	0.104
485	0.105
486	0.107
486	0.107
487	0.108
487	0.108
487	0.107
488	0.107
488	0.104
489	0.102
489	0.099
490	0.097
490	0.096
491	0.095
491	0.095
492	0.095
492	0.095
492	0.095
493	0.095
493	0.096
494	0.098
494	0.1
495	0.102
495	0.103
496	0.104
496	0.105
496	0.106
497	0.107
497	0.108
498	0.108
498	0.109
499	0.109
499	0.109
500	0.109
500	0.11
501	0.112
501	0.113
501	0.114
502	0.116
502	0.117
503	0.119
503	0.12
504	0.12
504	0.121
505	0.12
505	0.12
506	0.12
506	0.12
506	0.12
507	0.12
507	0.119
508	0.119
508	0.119
509	0.12
509	0.12
510	0.121
510	0.121
511	0.121
511	0.12
511	0.12
512	0.12
512	0.12
513	0.119
513	0.118
514	0.115
514	0.113
515	0.112
515	0.112
515	0.111
516	0.11
516	0.11
517	0.11
517	0.109
518	0.109
518	0.108
519	0.106
519	0.104
520	0.101
520	0.097
520	0.094
521	0.09
521	0.087
522	0.084
522	0.083
523	0.082
523	0.083
524	0.085
524	0.088
524	0.092
525	0.096
525	0.099
526	0.103
526	0.107
527	0.11
527	0.113
528	0.115
528	0.116
529	0.117
529	0.117
529	0.118
530	0.118
530	0.118
531	0.118
531	0.118
532	0.117
532	0.117
533	0.117
533	0.118
533	0.118
534	0.117
534	0.117
535	0.116
535	0.116
536	0.115
536	0.115
537	0.114
537	0.114
538	0.113
538	0.112
538	0.11
539	0.11
539	0.109
540	0.108
540	0.107
541	0.106
541	0.104
542	0.102
542	0.101
542	0.099
543	0.099
543	0.098
544	0.097
544	0.095
545	0.095
545	0.095
546	0.095
546	0.095
547	0.094
547	0.092
547	0.09
548	0.087
548	0.085
549	0.083
549	0.081
550	0.079
550	0.077
551	0.075
551	0.073
551	0.071
552	0.07
552	0.069
553	0.069
553	0.069
554	0.069
554	0.068
555	0.066
555	0.063
556	0.061
556	0.058
556	0.055
557	0.052
557	0.05
558	0.048
558	0.046
559	0.044
559	0.044
560	0.044
560	0.044
560	0.043
561	0.044
561	0.045
562	0.045
562	0.045
563	0.043
563	0.041
564	0.039
564	0.036
564	0.034
565	0.033
565	0.032
566	0.031
566	0.031
567	0.031
567	0.032
568	0.034
568	0.036
568	0.039
569	0.042
569	0.044
570	0.046
570	0.047
571	0.048
571	0.05
572	0.05
572	0.051
573	0.052
573	0.052
573	0.051
574	0.051
574	0.051
575	0.051
575	0.052
576	0.054
576	0.054
577	0.052
577	0.051
577	0.05
578	0.049
578	0.049
579	0.05
579	0.051
580	0.051
580	0.049
581	0.046
581	0.044
581	0.042
582	0.042
582	0.042
583	0.043
583	0.043
584	0.04
584	0.037
585	0.034
585	0.033
585	0.033
586	0.033
586	0.033
587	0.032
587	0.029
588	0.026
588	0.023
589	0.021
589	0.019
590	0.018
590	0.016
590	0.017
591	0.018
591	0.018
592	0.018
592	0.017
593	0.017
593	0.017
594	0.017
594	0.016
594	0.015
595	0.015
595	0.013
596	0.011
596	0.011
597	0.013
597	0.014
598	0.016
598	0.017
598	0.018
599	0.018
599	0.018
600	0.017
600	0.016
601	0.014
601	0.013
602	0.011
602	0.01
602	0.008
603	0.007
603	0.007
604	0.008
604	0.009
605	0.012
605	0.014
606	0.015
606	0.015
606	0.014
607	0.014
607	0.014
608	0.013
608	0.011
609	0.01
609	0.008
610	0.006
610	0.004
610	0.002
611	0.002
611	0.003
612	0.004
612	0.005
613	0.007
613	0.008
614	0.008
614	0.008
614	0.008
615	0.007
615	0.007
616	0.007
616	0.006
617	0.005
617	0.004
618	0.002
618	0.001
618	0
619	-0
619	-0
620	0.001
620	0.002
621	0.002
621	0.003
622	0.003
622	0.003
622	0.004
623	0.003
623	0.004
624	0.005
624	0.005
625	0.004
625	0.004
626	0.004
626	0.004
626	0.004
627	0.005
627	0.005
628	0.006
628	0.006
629	0.006
629	0.006
630	0.006
630	0.005
630	0.004
631	0.004
631	0.004
632	0.003
632	0.003
633	0.003
633	0.003
634	0.004
634	0.005
634	0.008
635	0.009
635	0.011
636	0.012
636	0.013
637	0.014
637	0.015
638	0.017
638	0.018
638	0.018
639	0.018
639	0.018
640	0.019
640	0.02
641	0.021
641	0.022
642	0.024
642	0.026
642	0.027
643	0.029
643	0.03
644	0.032
644	0.035
645	0.037
645	0.039
646	0.041
646	0.045
646	0.048
647	0.052
647	0.056
648	0.059
648	0.062
649	0.065
649	0.068
650	0.071
650	0.074
650	0.077
651	0.08
651	0.081
652	0.083
652	0.085
653	0.087
653	0.095
653	0.119
654	0.1
654	0.086
655	0.09
655	0.092
656	0.094
656	0.096
657	0.097
657	0.099
657	0.1
658	0.098
658	0.082
659	0.099
659	0.123
660	0.123
660	0.125
661	0.126
661	0.128
661	0.13
662	0.132
662	0.135
663	0.138
663	0.141
664	0.143
664	0.145
665	0.147
665	0.15
665	0.152
666	0.155
666	0.157
667	0.159
667	0.16
668	0.162
668	0.164
669	0.166
669	0.169
669	0.172
670	0.176
670	0.179
671	0.182
671	0.183
672	0.185
672	0.187
672	0.188
673	0.189
673	0.191
674	0.192
674	0.192
675	0.191
675	0.191
676	0.193
676	0.195
676	0.196
677	0.198
677	0.2
678	0.203
678	0.204
679	0.206
679	0.207
680	0.209
680	0.211
680	0.212
681	0.212
681	0.213
682	0.213
682	0.215
683	0.217
683	0.219
684	0.222
684	0.223
684	0.224
685	0.224
685	0.226
686	0.227
686	0.227
687	0.227
687	0.226
687	0.225
688	0.224
688	0.222
689	0.221
689	0.222
690	0.222
690	0.222
691	0.221
691	0.221
691	0.221
692	0.221
692	0.22
693	0.22
693	0.22
694	0.22
694	0.218
695	0.217
695	0.219
695	0.22
696	0.219
696	0.219
697	0.218
697	0.218
698	0.217
698	0.215
698	0.214
699	0.213
699	0.211
700	0.208
700	0.206
701	0.204
701	0.203
702	0.202
702	0.2
702	0.199
703	0.198
703	0.196
704	0.194
704	0.194
705	0.193
705	0.193
705	0.192
706	0.191
706	0.191
707	0.19
707	0.188
708	0.187
708	0.185
709	0.184
709	0.182
709	0.178
710	0.175
710	0.171
711	0.169
711	0.167
712	0.165
712	0.163
713	0.161
713	0.159
713	0.157
714	0.154
714	0.152
715	0.15
715	0.148
716	0.146
716	0.144
716	0.141
717	0.139
717	0.137
718	0.135
718	0.132
719	0.13
719	0.128
720	0.126
720	0.124
720	0.121
721	0.117
721	0.114
722	0.112
722	0.109
723	0.107
723	0.105
723	0.103
724	0.101
724	0.099
725	0.097
725	0.095
726	0.093
726	0.091
727	0.089
727	0.088
727	0.086
728	0.083
728	0.081
729	0.081
729	0.08
730	0.078
730	0.076
730	0.074
731	0.072
731	0.07
732	0.069
732	0.068
733	0.066
733	0.063
734	0.061
734	0.058
734	0.056
735	0.054
735	0.052
736	0.049
736	0.046
737	0.044
737	0.042
737	0.04
738	0.037
738	0.034
739	0.031
739	0.029
740	0.026
740	0.024
741	0.023
741	0.021
741	0.018
742	0.013
742	0.009
743	0.006
743	0.003
744	0
744	-0.002
744	-0.004
745	-0.007
745	-0.009
746	-0.012
746	-0.012
747	-0.013
747	-0.012
748	-0.012
748	-0.011
748	-0.011
749	-0.012
749	-0.012
750	-0.012
750	-0.013
751	-0.014
751	-0.015
751	-0.015
752	-0.016
752	-0.018
753	-0.019
753	-0.021
754	-0.021
754	-0.022
754	-0.021
755	-0.021
755	-0.019
756	-0.019
756	-0.02
757	-0.021
757	-0.022
758	-0.022
758	-0.023
758	-0.024
759	-0.025
759	-0.028
760	-0.031
760	-0.035
761	-0.038
761	-0.039
761	-0.041
762	-0.043
762	-0.045
763	-0.046
763	-0.049
764	-0.052
764	-0.055
764	-0.058
765	-0.06
765	-0.063
766	-0.065
766	-0.066
767	-0.067
767	-0.069
768	-0.073
768	-0.076
768	-0.078
769	-0.079
769	-0.08
770	-0.081
770	-0.083
771	-0.086
771	-0.089
771	-0.093
772	-0.095
772	-0.097
773	-0.099
773	-0.102
774	-0.105
774	-0.109
775	-0.112
775	-0.115
775	-0.118
776	-0.122
776	-0.126
777	-0.13
777	-0.133
778	-0.138
778	-0.143
778	-0.148
779	-0.149
779	-0.147
780	-0.147
780	-0.148
781	-0.149
781	-0.149
781	-0.149
782	-0.149
782	-0.15
783	-0.15
783	-0.148
784	-0.148
784	-0.15
784	-0.152
785	-0.153
785	-0.155
786	-0.155
786	-0.153
787	-0.149
787	-0.145
788	-0.144
788	-0.145
788	-0.146
789	-0.149
789	-0.149
790	-0.146
790	-0.145
791	-0.146
791	-0.147
791	-0.15
792	-0.145
792	-0.134
793	-0.128
793	-0.124
794	-0.122
794	-0.124
794	-0.127
795	-0.129
795	-0.129
796	-0.129
796	-0.132
797	-0.14
797	-0.151
797	-0.158
798	-0.163
798	-0.166
799	-0.167
799	-0.166
800	-0.166
800	-0.167
801	-0.17
801	-0.171
801	-0.17
802	-0.171
802	-0.172
803	-0.172
803	-0.173
804	-0.172
804	-0.167
804	-0.16
805	-0.156
805	-0.154
806	-0.152
806	-0.15
807	-0.149
807	-0.149
807	-0.149
808	-0.148
808	-0.149
809	-0.154
809	-0.159
810	-0.163
810	-0.165
810	-0.169
811	-0.172
811	-0.173
812	-0.17
812	-0.167
813	-0.167
813	-0.169
813	-0.17
814	-0.171
814	-0.171
815	-0.17
815	-0.167
816	-0.165
816	-0.166
817	-0.17
817	-0.173
817	-0.174
818	-0.173
818	-0.169
819	-0.163
819	-0.16
820	-0.161
820	-0.163
820	-0.165
821	-0.165
821	-0.163
822	-0.163
822	-0.163
823	-0.162
823	-0.164
823	-0.168
824	-0.169
824	-0.167
825	-0.162
825	-0.156
826	-0.151
826	-0.146
826	-0.141
827	-0.135
827	-0.128
828	-0.122
828	-0.116
829	-0.11
829	-0.105
829	-0.101
830	-0.099
830	-0.096
831	-0.092
831	-0.089
832	-0.087
832	-0.085
832	-0.084
833	-0.083
833	-0.082
834	-0.081
834	-0.08
835	-0.079
835	-0.078
835	-0.078
836	-0.077
836	-0.076
837	-0.075
837	-0.074
838	-0.073
838	-0.072
839	-0.072
839	-0.071
839	-0.07
840	-0.069
840	-0.068
841	-0.067
841	-0.066
842	-0.065
842	-0.063
842	-0.061
843	-0.059
843	-0.057
844	-0.054
844	-0.052
845	-0.05
845	-0.048
845	-0.046
846	-0.044
846	-0.043
847	-0.042
847	-0.041
848	-0.04
848	-0.04
848	-0.04
849	-0.039
849	-0.038
850	-0.038
850	-0.038
851	-0.037
851	-0.037
851	-0.036
852	-0.035
852	-0.035
853	-0.034
853	-0.034
854	-0.033
854	-0.033
854	-0.032
855	-0.032
855	-0.033
856	-0.033
856	-0.033
857	-0.033
857	-0.033
857	-0.033
858	-0.033
858	-0.033
859	-0.032
859	-0.032
860	-0.031
860	-0.03
860	-0.028
861	-0.027
861	-0.026
862	-0.026
862	-0.026
863	-0.025
863	-0.025
863	-0.024
864	-0.023
864	-0.023
865	-0.022
865	-0.021
866	-0.02
866	-0.019
866	-0.018
867	-0.016
867	-0.016
868	-0.015
868	-0.015
869	-0.014
869	-0.014
869	-0.014
870	-0.014
870	-0.014
871	-0.014
871	-0.014
872	-0.014
872	-0.014
872	-0.014
873	-0.014
873	-0.014
874	-0.014
874	-0.013
875	-0.013
875	-0.013
875	-0.014
876	-0.013
876	-0.013
877	-0.014
877	-0.014
878	-0.014
878	-0.014
878	-0.014
879	-0.015
879	-0.015
880	-0.015
880	-0.015
881	-0.016
881	-0.015
881	-0.014
882	-0.014
882	-0.012
883	-0.011
883	-0.01
884	-0.008
884	-0.007
884	-0.006
885	-0.005
885	-0.004
886	-0.003
886	-0.002
887	-0.002
887	-0.002
887	-0.002
888	-0.003
888	-0.003
889	-0.004
889	-0.004
890	-0.004
890	-0.005
890	-0.005
891	-0.006
891	-0.007
892	-0.008
892	-0.008
893	-0.008
893	-0.009
893	-0.009
894	-0.009
894	-0.01
895	-0.01
895	-0.011
895	-0.011
896	-0.011
896	-0.011
897	-0.011
897	-0.011
898	-0.011
898	-0.011
898	-0.011
899	-0.01
899	-0.01
900	-0.009
900	-0.008
901	-0.007
901	-0.006
901	-0.005
902	-0.004
902	-0.003
903	-0.002
903	-0.001
904	0
904	0.001
904	0.002
905	0.003
905	0.003
906	0.003
906	0.003
907	0.003
907	0.003
907	0.002
908	0.002
908	0.001
909	0.001
909	-0
910	-0.001
910	-0.002
910	-0.002
911	-0.003
911	-0.004
912	-0.004
912	-0.005
913	-0.005
913	-0.005
913	-0.006
914	-0.006
914	-0.007
915	-0.007
915	-0.008
916	-0.008
916	-0.008
916	-0.008
917	-0.008
917	-0.007
918	-0.007
918	-0.006
918	-0.005
919	-0.004
919	-0.003
920	-0.002
920	-0.001
921	0
921	0.001
921	0.002
922	0.002
922	0.002
923	0.002
923	0.002
924	0.002
924	0.002
924	0.001
925	0
925	-0.001
926	-0.001
926	-0.002
927	-0.003
927	-0.003
927	-0.004
928	-0.004
928	-0.004
929	-0.004
929	-0.004
930	-0.004
930	-0.004
930	-0.004
931	-0.003
931	-0.003
932	-0.002
932	-0.002
933	-0.002
933	-0.001
933	-0.001
934	-0
934	-0
935	0
935	0
935	0
936	0.001
936	0.001
937	0.002
937	0.003
938	0.003
938	0.004
938	0.005
939	0.005
939	0.006
940	0.006
940	0.007
941	0.007
941	0.007
941	0.007
942	0.007
942	0.007
943	0.007
943	0.008
944	0.008
944	0.008
944	0.008
945	0.009
945	0.01
946	0.01
946	0.01
946	0.011
947	0.011
947	0.011
948	0.011
948	0.011
949	0.011
949	0.011
949	0.011
950	0.011
950	0.011
951	0.011
951	0.01
952	0.01
952	0.01
952	0.009
953	0.009
953	0.009
954	0.008
954	0.008
955	0.007
955	0.007
955	0.006
956	0.006
956	0.006
957	0.006
957	0.006
957	0.005
958	0.005
958	0.004
959	0.004
959	0.003
960	0.003
960	0.002
960	0.002
961	0.001
961	0.001
962	0.001
962	0.001
963	0.001
963	0.002
963	0.002
964	0.002
964	0.002
965	0.003
965	0.003
966	0.003
966	0.003
966	0.004
967	0.004
967	0.004
968	0.004
968	0.004
968	0.005
969	0.005
969	0.006
970	0.006
970	0.006
971	0.006
971	0.007
971	0.007
972	0.008
972	0.008
973	0.009
973	0.01
974	0.01
974	0.011
974	0.012
975	0.013
975	0.014
976	0.015
976	0.015
976	0.016
977	0.016
977	0.016
978	0.016
978	0.016
979	0.015
979	0.015
979	0.014
980	0.013
980	0.011
981	0.01
981	0.009
982	0.009
982	0.008
982	0.007
983	0.007
983	0.006
984	0.006
984	0.005
984	0.005
985	0.005
985	0.005
986	0.005
986	0.005
987	0.005
987	0.005
987	0.005
988	0.005
988	0.005
989	0.005
989	0.005
990	0.006
990	0.006
990	0.007
991	0.008
991	0.008
992	0.008
992	0.008
992	0.008
993	0.008
993	0.007
994	0.007
994	0.006
995	0.006
995	0.005
995	0.004
996	0.004
996	0.004
997	0.004
997	0.004
997	0.005
998	0.006
998	0.007
999	0.007
999	0.008
1000	0.009
1000	0.009
1000	0.009
1001	0.009
1001	0.009
1002	0.008
1002	0.007
1003	0.006
1003	0.005
1003	0.004
1004	0.003
1004	0.002
1005	0.001
1005	0
1005	-0
1006	-0.001
1006	-0.001
1007	-0.001
1007	-0.001
1008	-0.001
1008	-0.001
1008	-0.001
1009	-0.001
1009	-0.001
1010	-0.001
1010	-0.001
1010	-0.001
1011	-0.001
1011	-0.001
1012	-0.001
1012	-0.001
1013	-0
1013	-0
1013	0
1014	0
1014	0.001
1015	0.002
1015	0.002
1016	0.003
1016	0.004
1016	0.005
1017	0.006
1017	0.007
1018	0.009
1018	0.01
1018	0.012
1019	0.013
1019	0.014
1020	0.015
1020	0.016
1021	0.017
1021	0.017
1021	0.017
1022	0.017
1022	0.017
1023	0.017
1023	0.017
1023	0.016
1024	0.016
1024	0.015
1025	0.015
1025	0.015
1026	0.014
1026	0.014
1026	0.013
1027	0.013
1027	0.013
1028	0.013
1028	0.012
1028	0.012
1029	0.012
1029	0.012
1030	0.011
1030	0.011
1031	0.01
1031	0.01
1031	0.009
1032	0.009
1032	0.009
1033	0.009
1033	0.008
1033	0.008
1034	0.007
1034	0.007
1035	0.007
1035	0.007
1036	0.007
1036	0.007
1036	0.007
1037	0.007
1037	0.007
1038	0.008
1038	0.009
1039	0.01
1039	0.011
1039	0.012
1040	0.013
1040	0.013
1041	0.014
1041	0.014
1041	0.015
1042	0.015
1042	0.015
1043	0.016
1043	0.016
1044	0.017
1044	0.018
1044	0.019
1045	0.019
1045	0.02
1046	0.021
1046	0.023
1046	0.024
1047	0.025
1047	0.027
1048	0.028
1048	0.029
1049	0.03
1049	0.03
1049	0.031
1050	0.031
1050	0.031
1051	0.032
1051	0.032
1051	0.033
1052	0.034
1052	0.034
1053	0.035
1053	0.035
1053	0.036
1054	0.036
1054	0.037
1055	0.037
1055	0.037
1056	0.037
1056	0.036
1056	0.035
1057	0.035
1057	0.035
1058	0.035
1058	0.035
1058	0.036
1059	0.036
1059	0.037
1060	0.037
1060	0.038
1061	0.039
1061	0.041
1061	0.042
1062	0.042
1062	0.042
1063	0.043
1063	0.043
1063	0.044
1064	0.045
1064	0.046
1065	0.048
1065	0.048
1066	0.049
1066	0.05
1066	0.052
1067	0.054
1067	0.056
1068	0.058
1068	0.059
1068	0.061
1069	0.062
1069	0.064
1070	0.066
1070	0.069
1071	0.072
1071	0.075
1071	0.077
1072	0.08
1072	0.084
1073	0.088
1073	0.092
1073	0.096
1074	0.1
1074	0.104
1075	0.106
1075	0.11
1076	0.113
1076	0.117
1076	0.119
1077	0.123
1077	0.127
1078	0.131
1078	0.135
1078	0.14
1079	0.144
1079	0.148
1080	0.152
1080	0.156
1080	0.159
1081	0.164
1081	0.168
1082	0.172
1082	0.176
1083	0.179
1083	0.183
1083	0.189
1084	0.194
1084	0.201
1085	0.207
1085	0.214
1085	0.222
1086	0.228
1086	0.234
1087	0.241
1087	0.249
1088	0.257
1088	0.265
1088	0.274
1089	0.283
1089	0.294
1090	0.306
1090	0.321
1090	0.336
1091	0.353
1091	0.372
1092	0.391
1092	0.416
1092	0.438
1093	0.462
1093	0.493
1094	0.526
1094	0.562
1095	0.603
1095	0.652
1095	0.719
1096	0.797
1096	0.896
1097	1.038
1097	1.255
1097	1.843
1098	-0
1098	-0
1099	-0
1099	-0
1100	-0
1100	-0
1100	-0
1101	-0
1101	-0
1102	-0
1102	-0
1102	-0
1103	-0
1103	-0
1104	-0
1104	-0
1104	-0
1105	-0
1105	-0
1106	-0
1106	-0
1107	-0
1107	-0
1107	-0
1108	-0
1108	-0
1109	-0
1109	-0
1109	-0
1110	-0
1110	-0
1111	-0
1111	-0
