Data from 15c-2-5a_Absorbance__561__02362.txt Node

Date: Fri Jan 19 14:01:59 CET 2024
User: Marek
Spectrometer: MAYP115816
Trigger mode: 0
Integration Time (sec): 2.000000E-1
Scans to average: 10
Electric dark correction enabled: true
Nonlinearity correction enabled: true
Boxcar width: 5
XAxis mode: Wavelengths
Number of Pixels in Spectrum: 2068
>>>>>Begin Spectral Data<<<<<
199	-2.284
199	-2.126
200	-1.979
200	-1.857
201	-1.787
201	-1.732
202	-1.658
202	-1.598
203	-1.544
203	-1.498
204	-1.47
204	-1.445
205	-1.425
205	-1.413
205	-1.411
206	-1.405
206	-1.401
207	-1.396
207	-1.391
208	-1.389
208	-1.385
209	-1.384
209	-1.379
210	-1.376
210	-1.375
211	-1.373
211	-1.371
212	-1.372
212	-1.371
213	-1.371
213	-1.368
213	-1.367
214	-1.363
214	-1.362
215	-1.359
215	-1.357
216	-1.354
216	-1.354
217	-1.349
217	-1.347
218	-1.345
218	-1.342
219	-1.338
219	-1.338
220	-1.336
220	-1.336
221	-1.334
221	-1.328
221	-1.323
222	-1.321
222	-1.317
223	-1.311
223	-1.307
224	-1.3
224	-1.292
225	-1.285
225	-1.273
226	-1.262
226	-1.252
227	-1.239
227	-1.225
228	-1.209
228	-1.193
229	-1.172
229	-1.15
229	-1.123
230	-1.094
230	-1.062
231	-1.026
231	-0.987
232	-0.946
232	-0.902
233	-0.855
233	-0.805
234	-0.756
234	-0.705
235	-0.655
235	-0.605
236	-0.556
236	-0.508
236	-0.46
237	-0.414
237	-0.37
238	-0.328
238	-0.288
239	-0.25
239	-0.215
240	-0.181
240	-0.15
241	-0.12
241	-0.093
242	-0.068
242	-0.045
243	-0.023
243	-0.003
243	0.015
244	0.032
244	0.047
245	0.062
245	0.075
246	0.087
246	0.099
247	0.109
247	0.119
248	0.128
248	0.137
249	0.145
249	0.152
250	0.159
250	0.165
250	0.171
251	0.177
251	0.182
252	0.188
252	0.193
253	0.197
253	0.201
254	0.205
254	0.209
255	0.212
255	0.215
256	0.218
256	0.221
257	0.223
257	0.225
258	0.227
258	0.229
258	0.23
259	0.232
259	0.233
260	0.234
260	0.235
261	0.236
261	0.237
262	0.238
262	0.238
263	0.239
263	0.239
264	0.24
264	0.241
265	0.241
265	0.241
265	0.241
266	0.241
266	0.241
267	0.241
267	0.24
268	0.24
268	0.239
269	0.238
269	0.238
270	0.237
270	0.236
271	0.235
271	0.234
272	0.234
272	0.233
272	0.232
273	0.231
273	0.23
274	0.229
274	0.228
275	0.227
275	0.226
276	0.225
276	0.223
277	0.221
277	0.22
278	0.218
278	0.216
278	0.214
279	0.213
279	0.212
280	0.211
280	0.21
281	0.209
281	0.208
282	0.208
282	0.207
283	0.207
283	0.207
284	0.207
284	0.207
285	0.206
285	0.205
285	0.204
286	0.203
286	0.203
287	0.202
287	0.201
288	0.2
288	0.199
289	0.199
289	0.198
290	0.197
290	0.196
291	0.195
291	0.195
292	0.194
292	0.193
292	0.193
293	0.192
293	0.191
294	0.191
294	0.19
295	0.189
295	0.189
296	0.188
296	0.188
297	0.187
297	0.187
298	0.186
298	0.186
298	0.185
299	0.185
299	0.184
300	0.184
300	0.183
301	0.183
301	0.182
302	0.182
302	0.181
303	0.181
303	0.18
304	0.18
304	0.179
305	0.179
305	0.178
305	0.178
306	0.177
306	0.177
307	0.176
307	0.175
308	0.175
308	0.174
309	0.173
309	0.173
310	0.172
310	0.171
311	0.171
311	0.17
311	0.169
312	0.169
312	0.168
313	0.168
313	0.167
314	0.166
314	0.166
315	0.165
315	0.164
316	0.164
316	0.163
317	0.162
317	0.161
318	0.161
318	0.16
318	0.159
319	0.159
319	0.158
320	0.157
320	0.156
321	0.156
321	0.155
322	0.154
322	0.153
323	0.152
323	0.151
324	0.15
324	0.15
324	0.149
325	0.148
325	0.147
326	0.147
326	0.146
327	0.145
327	0.145
328	0.144
328	0.143
329	0.143
329	0.142
330	0.141
330	0.141
330	0.14
331	0.139
331	0.138
332	0.138
332	0.137
333	0.136
333	0.136
334	0.135
334	0.134
335	0.133
335	0.132
336	0.132
336	0.131
336	0.13
337	0.129
337	0.129
338	0.128
338	0.127
339	0.126
339	0.126
340	0.125
340	0.124
341	0.124
341	0.123
342	0.123
342	0.122
342	0.122
343	0.121
343	0.12
344	0.12
344	0.119
345	0.119
345	0.118
346	0.117
346	0.116
347	0.115
347	0.114
348	0.114
348	0.113
348	0.113
349	0.112
349	0.111
350	0.11
350	0.109
351	0.108
351	0.107
352	0.106
352	0.105
353	0.105
353	0.104
354	0.102
354	0.101
354	0.1
355	0.099
355	0.098
356	0.097
356	0.097
357	0.096
357	0.095
358	0.095
358	0.096
359	0.096
359	0.097
360	0.098
360	0.098
360	0.099
361	0.099
361	0.1
362	0.1
362	0.1
363	0.1
363	0.099
364	0.099
364	0.098
365	0.098
365	0.097
366	0.097
366	0.096
366	0.096
367	0.095
367	0.095
368	0.095
368	0.094
369	0.094
369	0.093
370	0.093
370	0.092
371	0.092
371	0.091
372	0.091
372	0.09
372	0.09
373	0.089
373	0.089
374	0.089
374	0.089
375	0.089
375	0.089
376	0.089
376	0.089
377	0.089
377	0.09
378	0.09
378	0.091
378	0.091
379	0.091
379	0.091
380	0.091
380	0.091
381	0.091
381	0.091
382	0.09
382	0.09
383	0.089
383	0.089
383	0.089
384	0.088
384	0.088
385	0.087
385	0.087
386	0.087
386	0.087
387	0.087
387	0.087
388	0.086
388	0.086
389	0.086
389	0.086
389	0.086
390	0.086
390	0.086
391	0.086
391	0.087
392	0.087
392	0.087
393	0.087
393	0.087
394	0.086
394	0.086
394	0.086
395	0.086
395	0.085
396	0.085
396	0.085
397	0.085
397	0.085
398	0.085
398	0.085
399	0.085
399	0.085
400	0.085
400	0.085
400	0.084
401	0.083
401	0.082
402	0.081
402	0.081
403	0.08
403	0.08
404	0.079
404	0.079
405	0.079
405	0.078
405	0.078
406	0.078
406	0.077
407	0.077
407	0.076
408	0.076
408	0.075
409	0.075
409	0.074
410	0.074
410	0.074
411	0.074
411	0.074
411	0.073
412	0.073
412	0.073
413	0.073
413	0.072
414	0.072
414	0.072
415	0.072
415	0.071
416	0.071
416	0.07
416	0.069
417	0.069
417	0.069
418	0.069
418	0.069
419	0.07
419	0.07
420	0.071
420	0.071
421	0.072
421	0.072
421	0.073
422	0.073
422	0.073
423	0.073
423	0.073
424	0.072
424	0.072
425	0.071
425	0.069
426	0.069
426	0.068
427	0.068
427	0.068
427	0.069
428	0.069
428	0.07
429	0.071
429	0.071
430	0.071
430	0.071
431	0.071
431	0.071
432	0.07
432	0.069
432	0.068
433	0.066
433	0.065
434	0.064
434	0.063
435	0.063
435	0.063
436	0.063
436	0.064
437	0.064
437	0.064
437	0.064
438	0.064
438	0.064
439	0.064
439	0.063
440	0.063
440	0.063
441	0.063
441	0.063
442	0.063
442	0.064
442	0.064
443	0.064
443	0.064
444	0.065
444	0.065
445	0.065
445	0.065
446	0.065
446	0.064
447	0.064
447	0.064
447	0.063
448	0.063
448	0.063
449	0.062
449	0.062
450	0.062
450	0.061
451	0.061
451	0.06
452	0.06
452	0.059
452	0.058
453	0.058
453	0.057
454	0.056
454	0.055
455	0.055
455	0.055
456	0.054
456	0.054
457	0.054
457	0.053
458	0.053
458	0.053
458	0.053
459	0.053
459	0.053
460	0.053
460	0.052
461	0.051
461	0.051
462	0.051
462	0.051
463	0.051
463	0.052
463	0.052
464	0.053
464	0.053
465	0.053
465	0.053
466	0.053
466	0.053
467	0.053
467	0.052
467	0.051
468	0.049
468	0.047
469	0.045
469	0.043
470	0.042
470	0.042
471	0.041
471	0.041
472	0.04
472	0.04
472	0.041
473	0.041
473	0.042
474	0.043
474	0.044
475	0.045
475	0.045
476	0.046
476	0.046
477	0.046
477	0.046
477	0.046
478	0.046
478	0.046
479	0.046
479	0.047
480	0.047
480	0.048
481	0.049
481	0.049
482	0.05
482	0.051
482	0.052
483	0.054
483	0.058
484	0.061
484	0.064
485	0.065
485	0.067
486	0.068
486	0.068
487	0.068
487	0.068
487	0.068
488	0.067
488	0.065
489	0.062
489	0.06
490	0.058
490	0.057
491	0.056
491	0.055
492	0.056
492	0.055
492	0.056
493	0.056
493	0.057
494	0.058
494	0.06
495	0.061
495	0.062
496	0.063
496	0.064
496	0.065
497	0.065
497	0.066
498	0.067
498	0.067
499	0.066
499	0.066
500	0.066
500	0.067
501	0.068
501	0.07
501	0.071
502	0.072
502	0.073
503	0.074
503	0.075
504	0.076
504	0.076
505	0.076
505	0.075
506	0.075
506	0.075
506	0.075
507	0.074
507	0.074
508	0.073
508	0.073
509	0.074
509	0.074
510	0.074
510	0.074
511	0.074
511	0.074
511	0.074
512	0.074
512	0.074
513	0.073
513	0.072
514	0.07
514	0.069
515	0.068
515	0.068
515	0.067
516	0.066
516	0.066
517	0.066
517	0.065
518	0.065
518	0.064
519	0.062
519	0.06
520	0.057
520	0.054
520	0.051
521	0.048
521	0.045
522	0.043
522	0.041
523	0.041
523	0.041
524	0.043
524	0.046
524	0.049
525	0.052
525	0.056
526	0.059
526	0.062
527	0.065
527	0.067
528	0.069
528	0.07
529	0.071
529	0.071
529	0.071
530	0.071
530	0.071
531	0.071
531	0.071
532	0.071
532	0.071
533	0.071
533	0.072
533	0.072
534	0.072
534	0.071
535	0.071
535	0.071
536	0.071
536	0.07
537	0.07
537	0.07
538	0.069
538	0.068
538	0.067
539	0.066
539	0.066
540	0.065
540	0.064
541	0.062
541	0.061
542	0.059
542	0.058
542	0.057
543	0.056
543	0.055
544	0.054
544	0.054
545	0.053
545	0.054
546	0.054
546	0.054
547	0.053
547	0.052
547	0.05
548	0.048
548	0.046
549	0.044
549	0.042
550	0.041
550	0.039
551	0.037
551	0.035
551	0.034
552	0.033
552	0.033
553	0.033
553	0.033
554	0.033
554	0.032
555	0.03
555	0.028
556	0.026
556	0.023
556	0.021
557	0.019
557	0.017
558	0.015
558	0.013
559	0.012
559	0.012
560	0.012
560	0.012
560	0.013
561	0.013
561	0.014
562	0.015
562	0.014
563	0.013
563	0.011
564	0.009
564	0.007
564	0.005
565	0.004
565	0.004
566	0.003
566	0.003
567	0.004
567	0.006
568	0.008
568	0.01
568	0.013
569	0.016
569	0.018
570	0.02
570	0.021
571	0.022
571	0.024
572	0.024
572	0.025
573	0.025
573	0.026
573	0.025
574	0.025
574	0.025
575	0.025
575	0.027
576	0.029
576	0.029
577	0.028
577	0.027
577	0.026
578	0.026
578	0.025
579	0.027
579	0.028
580	0.028
580	0.026
581	0.023
581	0.02
581	0.019
582	0.019
582	0.019
583	0.02
583	0.02
584	0.018
584	0.014
585	0.012
585	0.012
585	0.012
586	0.012
586	0.012
587	0.011
587	0.008
588	0.005
588	0.003
589	0.001
589	-0
590	-0.001
590	-0.002
590	-0.002
591	-0.001
591	-0
592	-0.001
592	-0.001
593	-0.002
593	-0.002
594	-0.002
594	-0.003
594	-0.003
595	-0.004
595	-0.006
596	-0.008
596	-0.008
597	-0.005
597	-0.003
598	-0.002
598	-0.001
598	0
599	0.001
599	0
600	-0.001
600	-0.002
601	-0.003
601	-0.004
602	-0.006
602	-0.008
602	-0.01
603	-0.011
603	-0.01
604	-0.009
604	-0.008
605	-0.005
605	-0.003
606	-0.002
606	-0.002
606	-0.003
607	-0.003
607	-0.003
608	-0.004
608	-0.006
609	-0.008
609	-0.009
610	-0.011
610	-0.014
610	-0.015
611	-0.015
611	-0.014
612	-0.014
612	-0.012
613	-0.011
613	-0.009
614	-0.009
614	-0.009
614	-0.009
615	-0.009
615	-0.01
616	-0.01
616	-0.01
617	-0.011
617	-0.013
618	-0.014
618	-0.016
618	-0.017
619	-0.018
619	-0.018
620	-0.016
620	-0.015
621	-0.015
621	-0.015
622	-0.015
622	-0.015
622	-0.015
623	-0.015
623	-0.014
624	-0.013
624	-0.013
625	-0.014
625	-0.014
626	-0.014
626	-0.015
626	-0.014
627	-0.014
627	-0.013
628	-0.012
628	-0.012
629	-0.012
629	-0.012
630	-0.013
630	-0.014
630	-0.014
631	-0.014
631	-0.015
632	-0.016
632	-0.017
633	-0.017
633	-0.017
634	-0.016
634	-0.014
634	-0.012
635	-0.01
635	-0.009
636	-0.008
636	-0.007
637	-0.006
637	-0.006
638	-0.005
638	-0.004
638	-0.003
639	-0.004
639	-0.004
640	-0.004
640	-0.004
641	-0.003
641	-0.002
642	-0
642	0.001
642	0.002
643	0.003
643	0.005
644	0.007
644	0.008
645	0.01
645	0.012
646	0.015
646	0.018
646	0.022
647	0.025
647	0.029
648	0.031
648	0.034
649	0.036
649	0.039
650	0.042
650	0.045
650	0.047
651	0.049
651	0.05
652	0.051
652	0.053
653	0.055
653	0.063
653	0.088
654	0.076
654	0.067
655	0.069
655	0.07
656	0.072
656	0.073
657	0.075
657	0.076
657	0.077
658	0.074
658	0.058
659	0.069
659	0.084
660	0.086
660	0.087
661	0.088
661	0.089
661	0.09
662	0.092
662	0.095
663	0.097
663	0.099
664	0.101
664	0.103
665	0.104
665	0.106
665	0.108
666	0.11
666	0.112
667	0.114
667	0.116
668	0.117
668	0.119
669	0.121
669	0.123
669	0.126
670	0.13
670	0.133
671	0.135
671	0.136
672	0.138
672	0.139
672	0.14
673	0.142
673	0.143
674	0.144
674	0.144
675	0.144
675	0.144
676	0.145
676	0.147
676	0.149
677	0.151
677	0.153
678	0.155
678	0.156
679	0.157
679	0.159
680	0.161
680	0.162
680	0.163
681	0.163
681	0.164
682	0.165
682	0.166
683	0.168
683	0.17
684	0.172
684	0.173
684	0.174
685	0.174
685	0.175
686	0.175
686	0.175
687	0.175
687	0.174
687	0.174
688	0.172
688	0.171
689	0.171
689	0.172
690	0.173
690	0.172
691	0.172
691	0.172
691	0.173
692	0.172
692	0.171
693	0.171
693	0.171
694	0.17
694	0.167
695	0.167
695	0.168
695	0.169
696	0.168
696	0.168
697	0.167
697	0.167
698	0.166
698	0.164
698	0.163
699	0.162
699	0.16
700	0.157
700	0.155
701	0.154
701	0.153
702	0.152
702	0.151
702	0.15
703	0.149
703	0.148
704	0.148
704	0.148
705	0.148
705	0.149
705	0.148
706	0.148
706	0.147
707	0.146
707	0.144
708	0.143
708	0.141
709	0.139
709	0.137
709	0.133
710	0.129
710	0.126
711	0.124
711	0.122
712	0.12
712	0.118
713	0.117
713	0.116
713	0.115
714	0.113
714	0.111
715	0.11
715	0.108
716	0.106
716	0.105
716	0.103
717	0.101
717	0.1
718	0.098
718	0.096
719	0.094
719	0.093
720	0.091
720	0.089
720	0.087
721	0.084
721	0.082
722	0.08
722	0.077
723	0.075
723	0.074
723	0.072
724	0.07
724	0.068
725	0.065
725	0.063
726	0.061
726	0.06
727	0.058
727	0.056
727	0.055
728	0.053
728	0.052
729	0.051
729	0.051
730	0.05
730	0.049
730	0.047
731	0.046
731	0.045
732	0.044
732	0.042
733	0.04
733	0.038
734	0.036
734	0.033
734	0.031
735	0.03
735	0.027
736	0.025
736	0.023
737	0.021
737	0.02
737	0.018
738	0.016
738	0.013
739	0.011
739	0.009
740	0.006
740	0.005
741	0.004
741	0.002
741	-0.001
742	-0.005
742	-0.009
743	-0.012
743	-0.015
744	-0.017
744	-0.02
744	-0.022
745	-0.024
745	-0.027
746	-0.029
746	-0.03
747	-0.03
747	-0.029
748	-0.028
748	-0.028
748	-0.027
749	-0.028
749	-0.028
750	-0.028
750	-0.028
751	-0.029
751	-0.029
751	-0.029
752	-0.03
752	-0.032
753	-0.033
753	-0.035
754	-0.035
754	-0.036
754	-0.036
755	-0.035
755	-0.034
756	-0.033
756	-0.035
757	-0.036
757	-0.036
758	-0.036
758	-0.037
758	-0.037
759	-0.038
759	-0.04
760	-0.043
760	-0.046
761	-0.049
761	-0.05
761	-0.051
762	-0.053
762	-0.055
763	-0.056
763	-0.059
764	-0.062
764	-0.065
764	-0.068
765	-0.07
765	-0.073
766	-0.075
766	-0.076
767	-0.077
767	-0.08
768	-0.084
768	-0.087
768	-0.088
769	-0.089
769	-0.09
770	-0.091
770	-0.093
771	-0.095
771	-0.098
771	-0.101
772	-0.103
772	-0.104
773	-0.106
773	-0.108
774	-0.112
774	-0.115
775	-0.118
775	-0.121
775	-0.125
776	-0.129
776	-0.132
777	-0.136
777	-0.139
778	-0.144
778	-0.149
778	-0.153
779	-0.154
779	-0.151
780	-0.15
780	-0.151
781	-0.151
781	-0.151
781	-0.151
782	-0.15
782	-0.151
783	-0.15
783	-0.148
784	-0.148
784	-0.151
784	-0.152
785	-0.154
785	-0.155
786	-0.156
786	-0.154
787	-0.149
787	-0.145
788	-0.144
788	-0.145
788	-0.146
789	-0.149
789	-0.149
790	-0.146
790	-0.145
791	-0.146
791	-0.148
791	-0.15
792	-0.145
792	-0.135
793	-0.129
793	-0.125
794	-0.123
794	-0.124
794	-0.128
795	-0.13
795	-0.13
796	-0.13
796	-0.132
797	-0.141
797	-0.151
797	-0.158
798	-0.163
798	-0.166
799	-0.167
799	-0.167
800	-0.166
800	-0.168
801	-0.17
801	-0.171
801	-0.171
802	-0.172
802	-0.172
803	-0.173
803	-0.173
804	-0.172
804	-0.167
804	-0.16
805	-0.156
805	-0.154
806	-0.152
806	-0.151
807	-0.15
807	-0.149
807	-0.149
808	-0.149
808	-0.149
809	-0.154
809	-0.16
810	-0.163
810	-0.166
810	-0.169
811	-0.172
811	-0.173
812	-0.17
812	-0.167
813	-0.168
813	-0.169
813	-0.17
814	-0.172
814	-0.172
815	-0.17
815	-0.167
816	-0.166
816	-0.166
817	-0.171
817	-0.174
817	-0.174
818	-0.173
818	-0.169
819	-0.164
819	-0.16
820	-0.162
820	-0.163
820	-0.165
821	-0.165
821	-0.164
822	-0.163
822	-0.163
823	-0.162
823	-0.165
823	-0.168
824	-0.169
824	-0.167
825	-0.163
825	-0.157
826	-0.152
826	-0.148
826	-0.143
827	-0.137
827	-0.132
828	-0.126
828	-0.12
829	-0.115
829	-0.109
829	-0.105
830	-0.103
830	-0.1
831	-0.096
831	-0.093
832	-0.091
832	-0.09
832	-0.088
833	-0.087
833	-0.086
834	-0.085
834	-0.084
835	-0.083
835	-0.083
835	-0.082
836	-0.081
836	-0.079
837	-0.078
837	-0.077
838	-0.076
838	-0.075
839	-0.074
839	-0.074
839	-0.073
840	-0.072
840	-0.071
841	-0.07
841	-0.069
842	-0.067
842	-0.066
842	-0.064
843	-0.062
843	-0.06
844	-0.057
844	-0.055
845	-0.052
845	-0.05
845	-0.048
846	-0.047
846	-0.046
847	-0.045
847	-0.044
848	-0.044
848	-0.044
848	-0.044
849	-0.044
849	-0.043
850	-0.043
850	-0.043
851	-0.042
851	-0.042
851	-0.041
852	-0.04
852	-0.039
853	-0.038
853	-0.037
854	-0.037
854	-0.036
854	-0.036
855	-0.035
855	-0.035
856	-0.035
856	-0.035
857	-0.035
857	-0.036
857	-0.036
858	-0.036
858	-0.036
859	-0.036
859	-0.036
860	-0.035
860	-0.034
860	-0.033
861	-0.032
861	-0.031
862	-0.03
862	-0.03
863	-0.029
863	-0.029
863	-0.028
864	-0.028
864	-0.027
865	-0.026
865	-0.026
866	-0.026
866	-0.025
866	-0.024
867	-0.024
867	-0.023
868	-0.023
868	-0.022
869	-0.022
869	-0.022
869	-0.022
870	-0.022
870	-0.022
871	-0.022
871	-0.022
872	-0.023
872	-0.023
872	-0.023
873	-0.022
873	-0.022
874	-0.022
874	-0.022
875	-0.022
875	-0.022
875	-0.022
876	-0.022
876	-0.022
877	-0.022
877	-0.022
878	-0.023
878	-0.023
878	-0.024
879	-0.024
879	-0.025
880	-0.025
880	-0.025
881	-0.025
881	-0.024
881	-0.023
882	-0.022
882	-0.02
883	-0.019
883	-0.017
884	-0.015
884	-0.013
884	-0.012
885	-0.01
885	-0.009
886	-0.007
886	-0.007
887	-0.006
887	-0.007
887	-0.007
888	-0.007
888	-0.008
889	-0.008
889	-0.008
890	-0.009
890	-0.01
890	-0.01
891	-0.011
891	-0.011
892	-0.012
892	-0.012
893	-0.012
893	-0.012
893	-0.012
894	-0.012
894	-0.012
895	-0.012
895	-0.012
895	-0.013
896	-0.013
896	-0.013
897	-0.013
897	-0.014
898	-0.014
898	-0.014
898	-0.014
899	-0.014
899	-0.014
900	-0.013
900	-0.013
901	-0.012
901	-0.012
901	-0.011
902	-0.011
902	-0.01
903	-0.01
903	-0.009
904	-0.008
904	-0.008
904	-0.007
905	-0.006
905	-0.005
906	-0.005
906	-0.005
907	-0.005
907	-0.005
907	-0.005
908	-0.005
908	-0.005
909	-0.005
909	-0.005
910	-0.005
910	-0.005
910	-0.005
911	-0.005
911	-0.005
912	-0.005
912	-0.006
913	-0.006
913	-0.006
913	-0.006
914	-0.007
914	-0.007
915	-0.008
915	-0.008
916	-0.009
916	-0.009
916	-0.009
917	-0.009
917	-0.01
918	-0.01
918	-0.01
918	-0.01
919	-0.009
919	-0.009
920	-0.008
920	-0.007
921	-0.006
921	-0.006
921	-0.005
922	-0.005
922	-0.004
923	-0.004
923	-0.004
924	-0.004
924	-0.005
924	-0.005
925	-0.006
925	-0.007
926	-0.007
926	-0.008
927	-0.008
927	-0.009
927	-0.009
928	-0.01
928	-0.01
929	-0.01
929	-0.01
930	-0.01
930	-0.011
930	-0.011
931	-0.011
931	-0.011
932	-0.01
932	-0.01
933	-0.01
933	-0.01
933	-0.009
934	-0.009
934	-0.009
935	-0.008
935	-0.008
935	-0.007
936	-0.006
936	-0.005
937	-0.004
937	-0.003
938	-0.002
938	-0.001
938	-0
939	0
939	0.001
940	0.002
940	0.002
941	0.002
941	0.002
941	0.003
942	0.003
942	0.003
943	0.003
943	0.003
944	0.003
944	0.003
944	0.003
945	0.003
945	0.004
946	0.004
946	0.004
946	0.004
947	0.004
947	0.004
948	0.003
948	0.003
949	0.003
949	0.003
949	0.004
950	0.004
950	0.004
951	0.004
951	0.003
952	0.003
952	0.003
952	0.002
953	0.002
953	0.001
954	0
954	-0
955	-0.001
955	-0.002
955	-0.003
956	-0.003
956	-0.003
957	-0.004
957	-0.004
957	-0.005
958	-0.005
958	-0.005
959	-0.005
959	-0.005
960	-0.005
960	-0.005
960	-0.005
961	-0.005
961	-0.005
962	-0.004
962	-0.004
963	-0.004
963	-0.004
963	-0.004
964	-0.004
964	-0.004
965	-0.004
965	-0.004
966	-0.003
966	-0.003
966	-0.002
967	-0.001
967	-0.001
968	-0
968	0.001
968	0.001
969	0.002
969	0.003
970	0.004
970	0.004
971	0.004
971	0.004
971	0.004
972	0.005
972	0.005
973	0.005
973	0.005
974	0.005
974	0.006
974	0.006
975	0.007
975	0.008
976	0.009
976	0.01
976	0.01
977	0.01
977	0.01
978	0.01
978	0.01
979	0.009
979	0.008
979	0.007
980	0.006
980	0.005
981	0.004
981	0.003
982	0.003
982	0.002
982	0.002
983	0.001
983	0.001
984	0
984	0
984	-0
985	-0
985	-0.001
986	-0.001
986	-0.001
987	-0.002
987	-0.002
987	-0.002
988	-0.001
988	-0.001
989	-0.001
989	-0.001
990	-0.001
990	-0.002
990	-0.001
991	-0.001
991	-0.001
992	-0.001
992	-0.001
992	-0.001
993	-0.002
993	-0.002
994	-0.002
994	-0.002
995	-0.002
995	-0.003
995	-0.003
996	-0.003
996	-0.003
997	-0.002
997	-0.002
997	-0.001
998	0
998	0.002
999	0.003
999	0.004
1000	0.004
1000	0.005
1000	0.005
1001	0.005
1001	0.005
1002	0.004
1002	0.003
1003	0.002
1003	0.001
1003	-0
1004	-0.001
1004	-0.002
1005	-0.004
1005	-0.005
1005	-0.006
1006	-0.007
1006	-0.007
1007	-0.008
1007	-0.008
1008	-0.008
1008	-0.008
1008	-0.009
1009	-0.008
1009	-0.008
1010	-0.008
1010	-0.008
1010	-0.008
1011	-0.008
1011	-0.007
1012	-0.007
1012	-0.007
1013	-0.007
1013	-0.007
1013	-0.006
1014	-0.006
1014	-0.005
1015	-0.005
1015	-0.004
1016	-0.003
1016	-0.002
1016	-0.002
1017	-0.001
1017	0.001
1018	0.002
1018	0.003
1018	0.005
1019	0.006
1019	0.007
1020	0.008
1020	0.009
1021	0.01
1021	0.01
1021	0.011
1022	0.011
1022	0.011
1023	0.011
1023	0.01
1023	0.01
1024	0.01
1024	0.009
1025	0.009
1025	0.009
1026	0.009
1026	0.009
1026	0.009
1027	0.01
1027	0.01
1028	0.01
1028	0.011
1028	0.01
1029	0.01
1029	0.01
1030	0.01
1030	0.009
1031	0.008
1031	0.008
1031	0.007
1032	0.007
1032	0.006
1033	0.005
1033	0.005
1033	0.004
1034	0.003
1034	0.003
1035	0.002
1035	0.002
1036	0.001
1036	0.001
1036	0
1037	0.001
1037	0.001
1038	0.001
1038	0.001
1039	0.002
1039	0.003
1039	0.004
1040	0.005
1040	0.006
1041	0.007
1041	0.007
1041	0.008
1042	0.008
1042	0.009
1043	0.009
1043	0.009
1044	0.01
1044	0.01
1044	0.011
1045	0.012
1045	0.013
1046	0.014
1046	0.015
1046	0.016
1047	0.018
1047	0.019
1048	0.02
1048	0.021
1049	0.022
1049	0.022
1049	0.022
1050	0.023
1050	0.023
1051	0.024
1051	0.024
1051	0.025
1052	0.027
1052	0.028
1053	0.029
1053	0.03
1053	0.031
1054	0.033
1054	0.034
1055	0.035
1055	0.036
1056	0.035
1056	0.035
1056	0.035
1057	0.034
1057	0.034
1058	0.034
1058	0.034
1058	0.034
1059	0.034
1059	0.034
1060	0.034
1060	0.034
1061	0.034
1061	0.035
1061	0.035
1062	0.035
1062	0.035
1063	0.035
1063	0.035
1063	0.035
1064	0.035
1064	0.036
1065	0.036
1065	0.037
1066	0.037
1066	0.038
1066	0.039
1067	0.041
1067	0.042
1068	0.043
1068	0.044
1068	0.046
1069	0.047
1069	0.049
1070	0.051
1070	0.054
1071	0.057
1071	0.06
1071	0.063
1072	0.066
1072	0.07
1073	0.074
1073	0.077
1073	0.081
1074	0.084
1074	0.087
1075	0.09
1075	0.092
1076	0.095
1076	0.098
1076	0.101
1077	0.104
1077	0.108
1078	0.111
1078	0.115
1078	0.119
1079	0.123
1079	0.127
1080	0.132
1080	0.136
1080	0.139
1081	0.143
1081	0.147
1082	0.15
1082	0.154
1083	0.157
1083	0.161
1083	0.166
1084	0.171
1084	0.177
1085	0.183
1085	0.19
1085	0.197
1086	0.203
1086	0.209
1087	0.218
1087	0.226
1088	0.233
1088	0.24
1088	0.25
1089	0.257
1089	0.268
1090	0.279
1090	0.292
1090	0.306
1091	0.32
1091	0.336
1092	0.354
1092	0.374
1092	0.394
1093	0.416
1093	0.444
1094	0.471
1094	0.501
1095	0.534
1095	0.577
1095	0.631
1096	0.691
1096	0.765
1097	0.866
1097	0.99
1097	1.196
1098	1.579
1098	-0
1099	-0
1099	-0
1100	-0
1100	-0
1100	-0
1101	-0
1101	-0
1102	-0
1102	-0
1102	-0
1103	-0
1103	-0
1104	-0
1104	-0
1104	-0
1105	-0
1105	-0
1106	-0
1106	-0
1107	-0
1107	-0
1107	-0
1108	-0
1108	-0
1109	-0
1109	-0
1109	-0
1110	-0
1110	-0
1111	-0
1111	-0
