Data from 15c-2-5a_Absorbance__462__02263.txt Node

Date: Fri Jan 19 13:58:41 CET 2024
User: Marek
Spectrometer: MAYP115816
Trigger mode: 0
Integration Time (sec): 2.000000E-1
Scans to average: 10
Electric dark correction enabled: true
Nonlinearity correction enabled: true
Boxcar width: 5
XAxis mode: Wavelengths
Number of Pixels in Spectrum: 2068
>>>>>Begin Spectral Data<<<<<
199	-2.278
199	-2.12
200	-1.974
200	-1.852
201	-1.782
201	-1.727
202	-1.652
202	-1.592
203	-1.538
203	-1.492
204	-1.465
204	-1.439
205	-1.419
205	-1.407
205	-1.405
206	-1.4
206	-1.395
207	-1.391
207	-1.386
208	-1.384
208	-1.381
209	-1.379
209	-1.374
210	-1.371
210	-1.37
211	-1.368
211	-1.366
212	-1.368
212	-1.367
213	-1.366
213	-1.363
213	-1.363
214	-1.358
214	-1.357
215	-1.354
215	-1.352
216	-1.349
216	-1.349
217	-1.344
217	-1.342
218	-1.339
218	-1.337
219	-1.333
219	-1.332
220	-1.331
220	-1.33
221	-1.329
221	-1.323
221	-1.318
222	-1.316
222	-1.311
223	-1.306
223	-1.301
224	-1.294
224	-1.287
225	-1.279
225	-1.268
226	-1.257
226	-1.246
227	-1.233
227	-1.218
228	-1.202
228	-1.186
229	-1.166
229	-1.144
229	-1.117
230	-1.088
230	-1.056
231	-1.02
231	-0.981
232	-0.941
232	-0.897
233	-0.849
233	-0.8
234	-0.75
234	-0.7
235	-0.651
235	-0.601
236	-0.552
236	-0.504
236	-0.457
237	-0.411
237	-0.368
238	-0.326
238	-0.287
239	-0.25
239	-0.216
240	-0.183
240	-0.153
241	-0.124
241	-0.097
242	-0.073
242	-0.051
243	-0.03
243	-0.01
243	0.008
244	0.024
244	0.039
245	0.053
245	0.066
246	0.078
246	0.089
247	0.099
247	0.109
248	0.118
248	0.126
249	0.134
249	0.14
250	0.147
250	0.153
250	0.159
251	0.165
251	0.17
252	0.175
252	0.18
253	0.184
253	0.188
254	0.191
254	0.195
255	0.198
255	0.202
256	0.204
256	0.207
257	0.209
257	0.211
258	0.213
258	0.215
258	0.216
259	0.218
259	0.219
260	0.22
260	0.221
261	0.221
261	0.222
262	0.223
262	0.224
263	0.224
263	0.225
264	0.225
264	0.225
265	0.226
265	0.226
265	0.226
266	0.226
266	0.226
267	0.225
267	0.225
268	0.225
268	0.224
269	0.223
269	0.223
270	0.222
270	0.221
271	0.22
271	0.219
272	0.218
272	0.218
272	0.217
273	0.216
273	0.215
274	0.214
274	0.213
275	0.212
275	0.211
276	0.21
276	0.208
277	0.207
277	0.205
278	0.203
278	0.202
278	0.2
279	0.198
279	0.197
280	0.197
280	0.196
281	0.195
281	0.194
282	0.193
282	0.193
283	0.193
283	0.193
284	0.192
284	0.192
285	0.191
285	0.19
285	0.189
286	0.188
286	0.188
287	0.187
287	0.186
288	0.185
288	0.184
289	0.184
289	0.183
290	0.182
290	0.181
291	0.181
291	0.18
292	0.179
292	0.178
292	0.178
293	0.177
293	0.176
294	0.176
294	0.175
295	0.175
295	0.174
296	0.174
296	0.174
297	0.173
297	0.173
298	0.172
298	0.172
298	0.171
299	0.171
299	0.17
300	0.17
300	0.169
301	0.169
301	0.168
302	0.168
302	0.167
303	0.167
303	0.166
304	0.166
304	0.165
305	0.165
305	0.164
305	0.164
306	0.163
306	0.163
307	0.162
307	0.162
308	0.161
308	0.161
309	0.16
309	0.16
310	0.159
310	0.158
311	0.158
311	0.157
311	0.157
312	0.156
312	0.155
313	0.155
313	0.154
314	0.153
314	0.153
315	0.152
315	0.152
316	0.151
316	0.15
317	0.15
317	0.149
318	0.148
318	0.147
318	0.147
319	0.146
319	0.145
320	0.144
320	0.144
321	0.143
321	0.142
322	0.141
322	0.14
323	0.139
323	0.139
324	0.138
324	0.137
324	0.136
325	0.136
325	0.135
326	0.134
326	0.134
327	0.133
327	0.133
328	0.132
328	0.132
329	0.131
329	0.13
330	0.13
330	0.129
330	0.128
331	0.128
331	0.127
332	0.126
332	0.126
333	0.125
333	0.124
334	0.124
334	0.123
335	0.122
335	0.121
336	0.121
336	0.12
336	0.119
337	0.118
337	0.118
338	0.117
338	0.116
339	0.115
339	0.115
340	0.114
340	0.114
341	0.113
341	0.112
342	0.112
342	0.112
342	0.111
343	0.11
343	0.11
344	0.109
344	0.109
345	0.108
345	0.107
346	0.107
346	0.106
347	0.105
347	0.104
348	0.104
348	0.103
348	0.102
349	0.101
349	0.101
350	0.1
350	0.099
351	0.098
351	0.097
352	0.096
352	0.095
353	0.095
353	0.094
354	0.092
354	0.092
354	0.09
355	0.09
355	0.089
356	0.088
356	0.087
357	0.086
357	0.086
358	0.086
358	0.086
359	0.087
359	0.087
360	0.088
360	0.088
360	0.089
361	0.089
361	0.09
362	0.09
362	0.09
363	0.09
363	0.09
364	0.089
364	0.089
365	0.088
365	0.088
366	0.087
366	0.087
366	0.087
367	0.086
367	0.086
368	0.086
368	0.085
369	0.084
369	0.084
370	0.083
370	0.083
371	0.082
371	0.082
372	0.082
372	0.081
372	0.08
373	0.08
373	0.08
374	0.08
374	0.08
375	0.08
375	0.08
376	0.08
376	0.08
377	0.08
377	0.081
378	0.081
378	0.082
378	0.082
379	0.082
379	0.082
380	0.083
380	0.083
381	0.083
381	0.082
382	0.082
382	0.081
383	0.081
383	0.08
383	0.08
384	0.08
384	0.079
385	0.078
385	0.078
386	0.078
386	0.078
387	0.078
387	0.078
388	0.078
388	0.078
389	0.078
389	0.077
389	0.077
390	0.078
390	0.078
391	0.078
391	0.078
392	0.078
392	0.078
393	0.078
393	0.078
394	0.078
394	0.078
394	0.077
395	0.077
395	0.076
396	0.076
396	0.076
397	0.076
397	0.077
398	0.077
398	0.076
399	0.077
399	0.077
400	0.076
400	0.076
400	0.076
401	0.075
401	0.074
402	0.073
402	0.072
403	0.072
403	0.072
404	0.071
404	0.071
405	0.071
405	0.07
405	0.07
406	0.07
406	0.069
407	0.069
407	0.069
408	0.068
408	0.067
409	0.067
409	0.066
410	0.066
410	0.066
411	0.066
411	0.066
411	0.065
412	0.065
412	0.065
413	0.064
413	0.064
414	0.064
414	0.064
415	0.063
415	0.063
416	0.062
416	0.062
416	0.061
417	0.061
417	0.061
418	0.061
418	0.061
419	0.062
419	0.062
420	0.063
420	0.063
421	0.064
421	0.064
421	0.065
422	0.065
422	0.065
423	0.065
423	0.065
424	0.064
424	0.063
425	0.062
425	0.061
426	0.061
426	0.06
427	0.06
427	0.06
427	0.06
428	0.061
428	0.062
429	0.062
429	0.063
430	0.063
430	0.063
431	0.063
431	0.062
432	0.062
432	0.061
432	0.06
433	0.058
433	0.057
434	0.056
434	0.056
435	0.056
435	0.056
436	0.056
436	0.056
437	0.056
437	0.056
437	0.056
438	0.056
438	0.056
439	0.056
439	0.055
440	0.055
440	0.055
441	0.055
441	0.055
442	0.055
442	0.055
442	0.055
443	0.056
443	0.056
444	0.056
444	0.056
445	0.056
445	0.056
446	0.056
446	0.056
447	0.055
447	0.055
447	0.055
448	0.055
448	0.054
449	0.054
449	0.054
450	0.054
450	0.053
451	0.053
451	0.052
452	0.052
452	0.051
452	0.05
453	0.05
453	0.049
454	0.048
454	0.048
455	0.047
455	0.047
456	0.046
456	0.046
457	0.046
457	0.045
458	0.045
458	0.045
458	0.045
459	0.045
459	0.045
460	0.044
460	0.043
461	0.043
461	0.042
462	0.042
462	0.042
463	0.042
463	0.043
463	0.043
464	0.044
464	0.044
465	0.044
465	0.044
466	0.044
466	0.044
467	0.044
467	0.043
467	0.042
468	0.04
468	0.038
469	0.036
469	0.035
470	0.034
470	0.033
471	0.033
471	0.032
472	0.032
472	0.032
472	0.032
473	0.033
473	0.034
474	0.035
474	0.035
475	0.036
475	0.036
476	0.037
476	0.037
477	0.037
477	0.037
477	0.037
478	0.037
478	0.037
479	0.037
479	0.038
480	0.039
480	0.039
481	0.04
481	0.041
482	0.042
482	0.043
482	0.044
483	0.047
483	0.05
484	0.053
484	0.055
485	0.057
485	0.058
486	0.059
486	0.059
487	0.059
487	0.059
487	0.059
488	0.057
488	0.055
489	0.053
489	0.05
490	0.049
490	0.047
491	0.046
491	0.046
492	0.046
492	0.046
492	0.047
493	0.047
493	0.048
494	0.049
494	0.051
495	0.053
495	0.053
496	0.054
496	0.055
496	0.056
497	0.056
497	0.057
498	0.057
498	0.057
499	0.057
499	0.057
500	0.057
500	0.058
501	0.06
501	0.061
501	0.062
502	0.063
502	0.064
503	0.065
503	0.067
504	0.067
504	0.067
505	0.066
505	0.066
506	0.066
506	0.065
506	0.065
507	0.065
507	0.064
508	0.064
508	0.063
509	0.064
509	0.064
510	0.065
510	0.065
511	0.065
511	0.064
511	0.064
512	0.064
512	0.064
513	0.064
513	0.062
514	0.06
514	0.059
515	0.058
515	0.057
515	0.056
516	0.055
516	0.055
517	0.055
517	0.055
518	0.055
518	0.054
519	0.053
519	0.051
520	0.048
520	0.046
520	0.043
521	0.04
521	0.037
522	0.034
522	0.031
523	0.03
523	0.03
524	0.031
524	0.034
524	0.036
525	0.04
525	0.043
526	0.046
526	0.05
527	0.053
527	0.056
528	0.058
528	0.059
529	0.06
529	0.061
529	0.062
530	0.062
530	0.062
531	0.062
531	0.062
532	0.062
532	0.062
533	0.062
533	0.062
533	0.062
534	0.062
534	0.062
535	0.061
535	0.061
536	0.061
536	0.061
537	0.061
537	0.06
538	0.06
538	0.058
538	0.057
539	0.056
539	0.056
540	0.055
540	0.054
541	0.052
541	0.051
542	0.05
542	0.049
542	0.048
543	0.047
543	0.047
544	0.046
544	0.045
545	0.045
545	0.045
546	0.046
546	0.046
547	0.045
547	0.043
547	0.041
548	0.039
548	0.038
549	0.036
549	0.034
550	0.033
550	0.032
551	0.03
551	0.028
551	0.027
552	0.026
552	0.026
553	0.026
553	0.026
554	0.027
554	0.026
555	0.024
555	0.022
556	0.019
556	0.017
556	0.015
557	0.012
557	0.011
558	0.009
558	0.008
559	0.007
559	0.007
560	0.007
560	0.007
560	0.007
561	0.008
561	0.009
562	0.009
562	0.008
563	0.008
563	0.006
564	0.004
564	0.002
564	0
565	-0.001
565	-0.001
566	-0.001
566	-0.001
567	-0
567	0.001
568	0.003
568	0.006
568	0.008
569	0.011
569	0.013
570	0.015
570	0.016
571	0.017
571	0.018
572	0.019
572	0.02
573	0.021
573	0.021
573	0.02
574	0.02
574	0.02
575	0.02
575	0.022
576	0.024
576	0.024
577	0.023
577	0.022
577	0.021
578	0.021
578	0.021
579	0.022
579	0.024
580	0.023
580	0.021
581	0.018
581	0.016
581	0.015
582	0.015
582	0.015
583	0.016
583	0.017
584	0.014
584	0.01
585	0.008
585	0.008
585	0.008
586	0.009
586	0.008
587	0.007
587	0.004
588	0.001
588	-0.001
589	-0.003
589	-0.004
590	-0.005
590	-0.006
590	-0.006
591	-0.004
591	-0.004
592	-0.004
592	-0.005
593	-0.005
593	-0.005
594	-0.005
594	-0.006
594	-0.006
595	-0.007
595	-0.008
596	-0.01
596	-0.01
597	-0.007
597	-0.006
598	-0.004
598	-0.003
598	-0.002
599	-0.002
599	-0.002
600	-0.003
600	-0.004
601	-0.005
601	-0.006
602	-0.008
602	-0.01
602	-0.012
603	-0.013
603	-0.013
604	-0.011
604	-0.01
605	-0.008
605	-0.005
606	-0.004
606	-0.005
606	-0.005
607	-0.006
607	-0.006
608	-0.006
608	-0.008
609	-0.01
609	-0.011
610	-0.013
610	-0.015
610	-0.016
611	-0.016
611	-0.016
612	-0.015
612	-0.013
613	-0.012
613	-0.011
614	-0.011
614	-0.012
614	-0.012
615	-0.012
615	-0.013
616	-0.013
616	-0.014
617	-0.015
617	-0.016
618	-0.018
618	-0.019
618	-0.02
619	-0.02
619	-0.02
620	-0.019
620	-0.017
621	-0.017
621	-0.017
622	-0.017
622	-0.016
622	-0.016
623	-0.017
623	-0.016
624	-0.015
624	-0.015
625	-0.016
625	-0.016
626	-0.017
626	-0.017
626	-0.017
627	-0.016
627	-0.015
628	-0.015
628	-0.014
629	-0.014
629	-0.015
630	-0.016
630	-0.017
630	-0.017
631	-0.017
631	-0.017
632	-0.018
632	-0.019
633	-0.02
633	-0.02
634	-0.019
634	-0.017
634	-0.015
635	-0.013
635	-0.012
636	-0.011
636	-0.01
637	-0.009
637	-0.008
638	-0.008
638	-0.007
638	-0.006
639	-0.007
639	-0.007
640	-0.007
640	-0.007
641	-0.006
641	-0.005
642	-0.003
642	-0.002
642	-0.001
643	0
643	0.001
644	0.003
644	0.005
645	0.007
645	0.008
646	0.011
646	0.014
646	0.017
647	0.02
647	0.024
648	0.026
648	0.029
649	0.031
649	0.034
650	0.037
650	0.04
650	0.042
651	0.044
651	0.045
652	0.046
652	0.048
653	0.05
653	0.058
653	0.082
654	0.071
654	0.062
655	0.064
655	0.065
656	0.066
656	0.068
657	0.069
657	0.071
657	0.071
658	0.069
658	0.053
659	0.063
659	0.076
660	0.079
660	0.08
661	0.081
661	0.082
661	0.084
662	0.086
662	0.088
663	0.09
663	0.093
664	0.094
664	0.096
665	0.097
665	0.099
665	0.101
666	0.103
666	0.105
667	0.106
667	0.108
668	0.11
668	0.111
669	0.113
669	0.116
669	0.119
670	0.122
670	0.125
671	0.127
671	0.128
672	0.129
672	0.13
672	0.131
673	0.132
673	0.133
674	0.134
674	0.134
675	0.134
675	0.134
676	0.136
676	0.138
676	0.139
677	0.141
677	0.143
678	0.145
678	0.147
679	0.148
679	0.149
680	0.151
680	0.153
680	0.153
681	0.153
681	0.154
682	0.155
682	0.156
683	0.158
683	0.16
684	0.162
684	0.163
684	0.164
685	0.164
685	0.165
686	0.165
686	0.166
687	0.165
687	0.164
687	0.163
688	0.162
688	0.161
689	0.161
689	0.162
690	0.162
690	0.162
691	0.161
691	0.161
691	0.162
692	0.161
692	0.161
693	0.16
693	0.161
694	0.16
694	0.157
695	0.157
695	0.159
695	0.159
696	0.159
696	0.158
697	0.158
697	0.157
698	0.157
698	0.155
698	0.154
699	0.153
699	0.151
700	0.149
700	0.147
701	0.146
701	0.145
702	0.144
702	0.143
702	0.142
703	0.14
703	0.139
704	0.139
704	0.138
705	0.139
705	0.139
705	0.138
706	0.138
706	0.137
707	0.136
707	0.135
708	0.133
708	0.132
709	0.131
709	0.128
709	0.125
710	0.122
710	0.119
711	0.117
711	0.116
712	0.114
712	0.112
713	0.111
713	0.11
713	0.108
714	0.106
714	0.104
715	0.103
715	0.101
716	0.099
716	0.098
716	0.096
717	0.095
717	0.093
718	0.091
718	0.089
719	0.088
719	0.086
720	0.085
720	0.083
720	0.081
721	0.078
721	0.075
722	0.073
722	0.071
723	0.069
723	0.068
723	0.066
724	0.064
724	0.062
725	0.06
725	0.058
726	0.057
726	0.056
727	0.054
727	0.052
727	0.051
728	0.049
728	0.047
729	0.047
729	0.047
730	0.046
730	0.044
730	0.042
731	0.041
731	0.039
732	0.039
732	0.038
733	0.036
733	0.034
734	0.032
734	0.03
734	0.028
735	0.027
735	0.025
736	0.022
736	0.02
737	0.018
737	0.017
737	0.015
738	0.013
738	0.01
739	0.008
739	0.006
740	0.003
740	0.002
741	0.001
741	-0.001
741	-0.004
742	-0.008
742	-0.012
743	-0.015
743	-0.017
744	-0.02
744	-0.022
744	-0.024
745	-0.026
745	-0.029
746	-0.031
746	-0.031
747	-0.031
747	-0.031
748	-0.03
748	-0.029
748	-0.028
749	-0.029
749	-0.029
750	-0.029
750	-0.03
751	-0.03
751	-0.031
751	-0.031
752	-0.032
752	-0.034
753	-0.036
753	-0.037
754	-0.038
754	-0.038
754	-0.038
755	-0.037
755	-0.036
756	-0.035
756	-0.037
757	-0.038
757	-0.038
758	-0.038
758	-0.039
758	-0.04
759	-0.04
759	-0.043
760	-0.046
760	-0.049
761	-0.051
761	-0.053
761	-0.054
762	-0.057
762	-0.058
763	-0.059
763	-0.061
764	-0.065
764	-0.067
764	-0.07
765	-0.072
765	-0.075
766	-0.076
766	-0.077
767	-0.077
767	-0.08
768	-0.084
768	-0.086
768	-0.087
769	-0.088
769	-0.088
770	-0.09
770	-0.091
771	-0.093
771	-0.096
771	-0.099
772	-0.101
772	-0.103
773	-0.105
773	-0.107
774	-0.111
774	-0.115
775	-0.118
775	-0.121
775	-0.125
776	-0.129
776	-0.133
777	-0.137
777	-0.141
778	-0.145
778	-0.15
778	-0.155
779	-0.155
779	-0.153
780	-0.151
780	-0.152
781	-0.152
781	-0.152
781	-0.151
782	-0.151
782	-0.151
783	-0.151
783	-0.148
784	-0.148
784	-0.151
784	-0.153
785	-0.154
785	-0.156
786	-0.156
786	-0.154
787	-0.149
787	-0.145
788	-0.144
788	-0.145
788	-0.147
789	-0.149
789	-0.149
790	-0.146
790	-0.145
791	-0.146
791	-0.148
791	-0.15
792	-0.145
792	-0.135
793	-0.129
793	-0.125
794	-0.123
794	-0.124
794	-0.128
795	-0.13
795	-0.13
796	-0.13
796	-0.132
797	-0.141
797	-0.152
797	-0.158
798	-0.163
798	-0.166
799	-0.167
799	-0.167
800	-0.166
800	-0.168
801	-0.17
801	-0.171
801	-0.171
802	-0.172
802	-0.173
803	-0.173
803	-0.173
804	-0.172
804	-0.167
804	-0.161
805	-0.157
805	-0.154
806	-0.152
806	-0.151
807	-0.15
807	-0.149
807	-0.149
808	-0.149
808	-0.15
809	-0.154
809	-0.16
810	-0.163
810	-0.166
810	-0.169
811	-0.173
811	-0.174
812	-0.17
812	-0.167
813	-0.168
813	-0.169
813	-0.17
814	-0.172
814	-0.172
815	-0.17
815	-0.168
816	-0.166
816	-0.166
817	-0.171
817	-0.174
817	-0.174
818	-0.173
818	-0.169
819	-0.164
819	-0.161
820	-0.162
820	-0.164
820	-0.165
821	-0.165
821	-0.164
822	-0.163
822	-0.163
823	-0.163
823	-0.165
823	-0.168
824	-0.169
824	-0.167
825	-0.162
825	-0.156
826	-0.15
826	-0.146
826	-0.14
827	-0.134
827	-0.128
828	-0.121
828	-0.115
829	-0.109
829	-0.104
829	-0.101
830	-0.098
830	-0.096
831	-0.092
831	-0.09
832	-0.088
832	-0.086
832	-0.085
833	-0.085
833	-0.084
834	-0.083
834	-0.082
835	-0.082
835	-0.081
835	-0.081
836	-0.08
836	-0.079
837	-0.078
837	-0.077
838	-0.076
838	-0.076
839	-0.075
839	-0.075
839	-0.074
840	-0.073
840	-0.072
841	-0.071
841	-0.07
842	-0.068
842	-0.067
842	-0.065
843	-0.062
843	-0.06
844	-0.057
844	-0.055
845	-0.053
845	-0.05
845	-0.048
846	-0.046
846	-0.045
847	-0.044
847	-0.043
848	-0.043
848	-0.042
848	-0.042
849	-0.042
849	-0.041
850	-0.041
850	-0.042
851	-0.041
851	-0.041
851	-0.041
852	-0.04
852	-0.039
853	-0.039
853	-0.038
854	-0.038
854	-0.037
854	-0.037
855	-0.037
855	-0.037
856	-0.036
856	-0.036
857	-0.036
857	-0.036
857	-0.036
858	-0.036
858	-0.036
859	-0.036
859	-0.035
860	-0.034
860	-0.033
860	-0.032
861	-0.031
861	-0.03
862	-0.03
862	-0.029
863	-0.028
863	-0.028
863	-0.027
864	-0.026
864	-0.025
865	-0.024
865	-0.024
866	-0.023
866	-0.022
866	-0.021
867	-0.02
867	-0.019
868	-0.019
868	-0.018
869	-0.018
869	-0.018
869	-0.018
870	-0.018
870	-0.018
871	-0.018
871	-0.018
872	-0.018
872	-0.018
872	-0.018
873	-0.018
873	-0.018
874	-0.018
874	-0.018
875	-0.018
875	-0.018
875	-0.019
876	-0.019
876	-0.019
877	-0.02
877	-0.02
878	-0.02
878	-0.021
878	-0.021
879	-0.022
879	-0.022
880	-0.023
880	-0.023
881	-0.023
881	-0.023
881	-0.022
882	-0.021
882	-0.02
883	-0.019
883	-0.017
884	-0.016
884	-0.014
884	-0.012
885	-0.011
885	-0.01
886	-0.008
886	-0.008
887	-0.008
887	-0.008
887	-0.008
888	-0.008
888	-0.009
889	-0.009
889	-0.009
890	-0.01
890	-0.01
890	-0.011
891	-0.012
891	-0.012
892	-0.013
892	-0.013
893	-0.013
893	-0.013
893	-0.013
894	-0.013
894	-0.014
895	-0.014
895	-0.014
895	-0.015
896	-0.015
896	-0.015
897	-0.014
897	-0.014
898	-0.014
898	-0.014
898	-0.014
899	-0.014
899	-0.013
900	-0.013
900	-0.012
901	-0.012
901	-0.011
901	-0.011
902	-0.01
902	-0.009
903	-0.008
903	-0.008
904	-0.007
904	-0.006
904	-0.005
905	-0.004
905	-0.004
906	-0.004
906	-0.004
907	-0.004
907	-0.004
907	-0.004
908	-0.004
908	-0.005
909	-0.005
909	-0.006
910	-0.006
910	-0.006
910	-0.007
911	-0.007
911	-0.007
912	-0.007
912	-0.008
913	-0.008
913	-0.008
913	-0.008
914	-0.008
914	-0.009
915	-0.009
915	-0.009
916	-0.01
916	-0.01
916	-0.01
917	-0.01
917	-0.01
918	-0.01
918	-0.01
918	-0.01
919	-0.009
919	-0.009
920	-0.008
920	-0.007
921	-0.006
921	-0.006
921	-0.005
922	-0.004
922	-0.004
923	-0.003
923	-0.003
924	-0.002
924	-0.002
924	-0.003
925	-0.003
925	-0.003
926	-0.004
926	-0.004
927	-0.005
927	-0.005
927	-0.005
928	-0.006
928	-0.006
929	-0.006
929	-0.006
930	-0.006
930	-0.006
930	-0.006
931	-0.006
931	-0.006
932	-0.006
932	-0.006
933	-0.006
933	-0.006
933	-0.006
934	-0.006
934	-0.005
935	-0.005
935	-0.005
935	-0.005
936	-0.004
936	-0.003
937	-0.003
937	-0.002
938	-0.001
938	-0.001
938	0
939	0.001
939	0.001
940	0.001
940	0.001
941	0.001
941	0.001
941	0
942	0
942	-0
943	-0
943	-0
944	0
944	0
944	0.001
945	0.001
945	0.001
946	0.002
946	0.002
946	0.002
947	0.002
947	0.002
948	0.002
948	0.002
949	0.002
949	0.002
949	0.003
950	0.003
950	0.003
951	0.003
951	0.003
952	0.003
952	0.003
952	0.003
953	0.003
953	0.003
954	0.003
954	0.002
955	0.002
955	0.001
955	0.001
956	0.001
956	0
957	-0.001
957	-0.001
957	-0.002
958	-0.003
958	-0.003
959	-0.004
959	-0.004
960	-0.005
960	-0.005
960	-0.005
961	-0.006
961	-0.006
962	-0.006
962	-0.006
963	-0.006
963	-0.006
963	-0.006
964	-0.006
964	-0.006
965	-0.006
965	-0.006
966	-0.006
966	-0.005
966	-0.005
967	-0.004
967	-0.004
968	-0.004
968	-0.003
968	-0.003
969	-0.002
969	-0.002
970	-0.001
970	-0.001
971	-0
971	-0
971	0
972	0.001
972	0.002
973	0.003
973	0.003
974	0.004
974	0.005
974	0.006
975	0.007
975	0.008
976	0.009
976	0.01
976	0.01
977	0.01
977	0.01
978	0.01
978	0.01
979	0.009
979	0.008
979	0.008
980	0.007
980	0.005
981	0.005
981	0.004
982	0.004
982	0.003
982	0.003
983	0.003
983	0.002
984	0.002
984	0.002
984	0.002
985	0.002
985	0.002
986	0.001
986	0.001
987	0.001
987	0.001
987	0.001
988	0.001
988	0.001
989	0.001
989	0
990	-0
990	-0
990	0
991	0
991	-0
992	-0
992	-0.001
992	-0.001
993	-0.001
993	-0.001
994	-0.002
994	-0.002
995	-0.002
995	-0.002
995	-0.002
996	-0.002
996	-0.002
997	-0.002
997	-0.001
997	-0
998	0.001
998	0.002
999	0.003
999	0.004
1000	0.005
1000	0.005
1000	0.005
1001	0.005
1001	0.005
1002	0.005
1002	0.004
1003	0.003
1003	0.001
1003	0
1004	-0.001
1004	-0.002
1005	-0.003
1005	-0.004
1005	-0.005
1006	-0.006
1006	-0.007
1007	-0.007
1007	-0.008
1008	-0.008
1008	-0.009
1008	-0.009
1009	-0.009
1009	-0.009
1010	-0.009
1010	-0.009
1010	-0.009
1011	-0.009
1011	-0.009
1012	-0.009
1012	-0.009
1013	-0.009
1013	-0.009
1013	-0.009
1014	-0.008
1014	-0.008
1015	-0.007
1015	-0.006
1016	-0.005
1016	-0.004
1016	-0.003
1017	-0.002
1017	-0.001
1018	0.001
1018	0.002
1018	0.004
1019	0.005
1019	0.007
1020	0.008
1020	0.008
1021	0.009
1021	0.009
1021	0.01
1022	0.01
1022	0.01
1023	0.01
1023	0.01
1023	0.009
1024	0.009
1024	0.008
1025	0.008
1025	0.008
1026	0.008
1026	0.007
1026	0.007
1027	0.007
1027	0.007
1028	0.008
1028	0.008
1028	0.008
1029	0.007
1029	0.007
1030	0.007
1030	0.007
1031	0.006
1031	0.006
1031	0.006
1032	0.006
1032	0.006
1033	0.006
1033	0.005
1033	0.005
1034	0.005
1034	0.004
1035	0.004
1035	0.004
1036	0.003
1036	0.003
1036	0.003
1037	0.003
1037	0.003
1038	0.003
1038	0.004
1039	0.005
1039	0.006
1039	0.006
1040	0.007
1040	0.008
1041	0.009
1041	0.009
1041	0.009
1042	0.009
1042	0.01
1043	0.01
1043	0.01
1044	0.01
1044	0.011
1044	0.011
1045	0.012
1045	0.012
1046	0.012
1046	0.013
1046	0.015
1047	0.016
1047	0.017
1048	0.018
1048	0.019
1049	0.019
1049	0.02
1049	0.02
1050	0.021
1050	0.021
1051	0.022
1051	0.022
1051	0.023
1052	0.024
1052	0.025
1053	0.026
1053	0.028
1053	0.029
1054	0.03
1054	0.031
1055	0.032
1055	0.032
1056	0.032
1056	0.032
1056	0.032
1057	0.031
1057	0.031
1058	0.031
1058	0.031
1058	0.031
1059	0.032
1059	0.032
1060	0.032
1060	0.032
1061	0.033
1061	0.034
1061	0.034
1062	0.034
1062	0.034
1063	0.034
1063	0.034
1063	0.034
1064	0.035
1064	0.036
1065	0.037
1065	0.038
1066	0.038
1066	0.039
1066	0.041
1067	0.042
1067	0.044
1068	0.045
1068	0.046
1068	0.047
1069	0.049
1069	0.051
1070	0.053
1070	0.056
1071	0.058
1071	0.061
1071	0.064
1072	0.067
1072	0.07
1073	0.074
1073	0.077
1073	0.081
1074	0.084
1074	0.087
1075	0.089
1075	0.091
1076	0.094
1076	0.097
1076	0.099
1077	0.103
1077	0.106
1078	0.109
1078	0.114
1078	0.118
1079	0.121
1079	0.126
1080	0.13
1080	0.134
1080	0.137
1081	0.14
1081	0.144
1082	0.148
1082	0.152
1083	0.156
1083	0.16
1083	0.166
1084	0.171
1084	0.176
1085	0.183
1085	0.189
1085	0.196
1086	0.203
1086	0.207
1087	0.214
1087	0.221
1088	0.227
1088	0.235
1088	0.244
1089	0.251
1089	0.261
1090	0.271
1090	0.283
1090	0.295
1091	0.31
1091	0.326
1092	0.342
1092	0.362
1092	0.381
1093	0.401
1093	0.428
1094	0.453
1094	0.481
1095	0.514
1095	0.555
1095	0.606
1096	0.663
1096	0.731
1097	0.82
1097	0.928
1097	1.103
1098	1.384
1098	3.518
1099	-0
1099	-0
1100	-0
1100	-0
1100	-0
1101	-0
1101	-0
1102	-0
1102	-0
1102	-0
1103	-0
1103	-0
1104	-0
1104	-0
1104	-0
1105	-0
1105	-0
1106	-0
1106	-0
1107	-0
1107	-0
1107	-0
1108	-0
1108	-0
1109	-0
1109	-0
1109	-0
1110	-0
1110	-0
1111	-0
1111	-0
