Data from reversibility-20sec_Absorbance__2295__000000000002295.txt Node

Date: Wed Dec 06 00:58:06 CET 2023
User: Marek
Spectrometer: MAYP115816
Trigger mode: 0
Integration Time (sec): 2.000000E-1
Scans to average: 10
Electric dark correction enabled: true
Nonlinearity correction enabled: true
Boxcar width: 5
XAxis mode: Wavelengths
Number of Pixels in Spectrum: 2068
>>>>>Begin Spectral Data<<<<<
199	-0.201
199	-0.17
200	-0.107
200	-0.051
201	-0.02
201	-0.004
202	0.013
202	0.023
203	0.031
203	0.038
204	0.051
204	0.065
205	0.077
205	0.085
205	0.083
206	0.083
206	0.085
207	0.085
207	0.082
208	0.079
208	0.076
209	0.078
209	0.076
210	0.075
210	0.075
211	0.076
211	0.08
212	0.078
212	0.079
213	0.087
213	0.09
213	0.092
214	0.095
214	0.098
215	0.103
215	0.105
216	0.106
216	0.104
217	0.108
217	0.112
218	0.107
218	0.112
219	0.116
219	0.116
220	0.116
220	0.115
221	0.114
221	0.115
221	0.122
222	0.126
222	0.128
223	0.135
223	0.136
224	0.142
224	0.149
225	0.161
225	0.17
226	0.182
226	0.194
227	0.205
227	0.213
228	0.228
228	0.244
229	0.26
229	0.285
229	0.31
230	0.334
230	0.364
231	0.397
231	0.438
232	0.472
232	0.517
233	0.562
233	0.611
234	0.666
234	0.717
235	0.767
235	0.821
236	0.876
236	0.929
236	0.98
237	1.037
237	1.087
238	1.136
238	1.185
239	1.234
239	1.277
240	1.32
240	1.358
241	1.395
241	1.434
242	1.467
242	1.506
243	1.542
243	1.572
243	1.601
244	1.625
244	1.651
245	1.675
245	1.704
246	1.722
246	1.743
247	1.759
247	1.772
248	1.788
248	1.805
249	1.817
249	1.83
250	1.841
250	1.854
250	1.863
251	1.873
251	1.879
252	1.89
252	1.895
253	1.898
253	1.898
254	1.9
254	1.905
255	1.905
255	1.909
256	1.909
256	1.909
257	1.911
257	1.911
258	1.914
258	1.916
258	1.919
259	1.921
259	1.921
260	1.922
260	1.924
261	1.925
261	1.931
262	1.934
262	1.937
263	1.943
263	1.946
264	1.948
264	1.951
265	1.954
265	1.959
265	1.959
266	1.961
266	1.963
267	1.961
267	1.963
268	1.964
268	1.964
269	1.968
269	1.966
270	1.966
270	1.965
271	1.964
271	1.966
272	1.964
272	1.963
272	1.959
273	1.951
273	1.946
274	1.939
274	1.936
275	1.928
275	1.923
276	1.916
276	1.909
277	1.9
277	1.892
278	1.88
278	1.869
278	1.855
279	1.839
279	1.818
280	1.793
280	1.763
281	1.726
281	1.686
282	1.644
282	1.6
283	1.558
283	1.516
284	1.476
284	1.437
285	1.401
285	1.367
285	1.337
286	1.31
286	1.286
287	1.265
287	1.247
288	1.232
288	1.218
289	1.207
289	1.196
290	1.187
290	1.179
291	1.173
291	1.167
292	1.162
292	1.157
292	1.153
293	1.148
293	1.144
294	1.14
294	1.137
295	1.133
295	1.13
296	1.126
296	1.122
297	1.119
297	1.115
298	1.112
298	1.109
298	1.106
299	1.103
299	1.1
300	1.096
300	1.093
301	1.09
301	1.088
302	1.085
302	1.082
303	1.079
303	1.076
304	1.073
304	1.071
305	1.068
305	1.065
305	1.062
306	1.06
306	1.057
307	1.054
307	1.051
308	1.048
308	1.045
309	1.042
309	1.039
310	1.036
310	1.033
311	1.029
311	1.025
311	1.022
312	1.018
312	1.015
313	1.011
313	1.007
314	1.002
314	0.998
315	0.993
315	0.989
316	0.984
316	0.979
317	0.974
317	0.969
318	0.964
318	0.959
318	0.953
319	0.947
319	0.942
320	0.936
320	0.93
321	0.924
321	0.917
322	0.911
322	0.904
323	0.898
323	0.891
324	0.884
324	0.878
324	0.87
325	0.863
325	0.857
326	0.849
326	0.842
327	0.835
327	0.829
328	0.822
328	0.815
329	0.807
329	0.8
330	0.793
330	0.786
330	0.779
331	0.772
331	0.765
332	0.758
332	0.75
333	0.743
333	0.736
334	0.729
334	0.722
335	0.715
335	0.708
336	0.701
336	0.694
336	0.688
337	0.681
337	0.674
338	0.668
338	0.662
339	0.656
339	0.65
340	0.644
340	0.638
341	0.632
341	0.626
342	0.621
342	0.616
342	0.61
343	0.605
343	0.6
344	0.595
344	0.59
345	0.585
345	0.58
346	0.575
346	0.57
347	0.566
347	0.561
348	0.557
348	0.553
348	0.549
349	0.545
349	0.541
350	0.538
350	0.534
351	0.531
351	0.527
352	0.524
352	0.521
353	0.517
353	0.515
354	0.511
354	0.508
354	0.505
355	0.502
355	0.499
356	0.496
356	0.494
357	0.49
357	0.487
358	0.484
358	0.481
359	0.478
359	0.476
360	0.474
360	0.471
360	0.469
361	0.467
361	0.465
362	0.463
362	0.461
363	0.459
363	0.457
364	0.455
364	0.453
365	0.451
365	0.449
366	0.447
366	0.445
366	0.443
367	0.441
367	0.439
368	0.437
368	0.436
369	0.434
369	0.432
370	0.431
370	0.429
371	0.428
371	0.426
372	0.425
372	0.423
372	0.422
373	0.421
373	0.419
374	0.418
374	0.417
375	0.415
375	0.414
376	0.413
376	0.412
377	0.411
377	0.409
378	0.408
378	0.407
378	0.406
379	0.405
379	0.404
380	0.403
380	0.402
381	0.401
381	0.4
382	0.399
382	0.398
383	0.397
383	0.396
383	0.396
384	0.395
384	0.394
385	0.393
385	0.392
386	0.391
386	0.391
387	0.39
387	0.389
388	0.388
388	0.387
389	0.387
389	0.386
389	0.385
390	0.385
390	0.384
391	0.383
391	0.383
392	0.382
392	0.382
393	0.381
393	0.381
394	0.38
394	0.38
394	0.379
395	0.379
395	0.378
396	0.377
396	0.377
397	0.376
397	0.375
398	0.375
398	0.374
399	0.373
399	0.373
400	0.372
400	0.371
400	0.371
401	0.37
401	0.37
402	0.369
402	0.369
403	0.368
403	0.367
404	0.367
404	0.366
405	0.366
405	0.366
405	0.365
406	0.365
406	0.364
407	0.364
407	0.363
408	0.363
408	0.363
409	0.362
409	0.362
410	0.361
410	0.361
411	0.36
411	0.36
411	0.36
412	0.359
412	0.359
413	0.358
413	0.358
414	0.358
414	0.357
415	0.357
415	0.356
416	0.356
416	0.355
416	0.355
417	0.354
417	0.354
418	0.354
418	0.353
419	0.353
419	0.352
420	0.352
420	0.351
421	0.351
421	0.35
421	0.35
422	0.35
422	0.349
423	0.349
423	0.349
424	0.348
424	0.348
425	0.348
425	0.347
426	0.347
426	0.347
427	0.346
427	0.346
427	0.346
428	0.345
428	0.345
429	0.344
429	0.344
430	0.343
430	0.343
431	0.343
431	0.343
432	0.343
432	0.343
432	0.343
433	0.343
433	0.342
434	0.342
434	0.342
435	0.342
435	0.342
436	0.342
436	0.342
437	0.341
437	0.341
437	0.341
438	0.341
438	0.341
439	0.341
439	0.34
440	0.34
440	0.34
441	0.339
441	0.339
442	0.339
442	0.338
442	0.338
443	0.338
443	0.338
444	0.338
444	0.338
445	0.338
445	0.338
446	0.337
446	0.337
447	0.337
447	0.337
447	0.337
448	0.337
448	0.337
449	0.336
449	0.336
450	0.337
450	0.337
451	0.337
451	0.336
452	0.337
452	0.337
452	0.337
453	0.337
453	0.336
454	0.336
454	0.336
455	0.336
455	0.336
456	0.336
456	0.336
457	0.336
457	0.336
458	0.336
458	0.336
458	0.336
459	0.337
459	0.337
460	0.337
460	0.337
461	0.337
461	0.337
462	0.337
462	0.337
463	0.337
463	0.337
463	0.337
464	0.337
464	0.337
465	0.337
465	0.337
466	0.337
466	0.338
467	0.338
467	0.338
467	0.339
468	0.339
468	0.339
469	0.34
469	0.341
470	0.341
470	0.341
471	0.342
471	0.342
472	0.343
472	0.343
472	0.344
473	0.344
473	0.345
474	0.345
474	0.345
475	0.345
475	0.346
476	0.347
476	0.347
477	0.348
477	0.348
477	0.349
478	0.349
478	0.35
479	0.35
479	0.351
480	0.352
480	0.353
481	0.353
481	0.354
482	0.355
482	0.356
482	0.357
483	0.358
483	0.359
484	0.36
484	0.361
485	0.361
485	0.362
486	0.363
486	0.364
487	0.364
487	0.365
487	0.366
488	0.367
488	0.368
489	0.37
489	0.372
490	0.373
490	0.375
491	0.376
491	0.378
492	0.379
492	0.381
492	0.383
493	0.384
493	0.386
494	0.387
494	0.389
495	0.39
495	0.391
496	0.392
496	0.394
496	0.396
497	0.397
497	0.398
498	0.399
498	0.401
499	0.402
499	0.404
500	0.406
500	0.408
501	0.409
501	0.411
501	0.412
502	0.414
502	0.416
503	0.417
503	0.419
504	0.421
504	0.422
505	0.423
505	0.424
506	0.426
506	0.427
506	0.429
507	0.43
507	0.431
508	0.433
508	0.434
509	0.435
509	0.437
510	0.438
510	0.44
511	0.441
511	0.443
511	0.444
512	0.445
512	0.446
513	0.447
513	0.448
514	0.449
514	0.45
515	0.451
515	0.451
515	0.452
516	0.453
516	0.454
517	0.455
517	0.455
518	0.455
518	0.456
519	0.456
519	0.457
520	0.457
520	0.457
520	0.457
521	0.457
521	0.457
522	0.457
522	0.457
523	0.457
523	0.457
524	0.456
524	0.456
524	0.456
525	0.455
525	0.454
526	0.454
526	0.453
527	0.453
527	0.452
528	0.451
528	0.45
529	0.449
529	0.448
529	0.446
530	0.445
530	0.444
531	0.443
531	0.441
532	0.44
532	0.438
533	0.436
533	0.434
533	0.433
534	0.431
534	0.43
535	0.428
535	0.426
536	0.424
536	0.422
537	0.42
537	0.418
538	0.416
538	0.414
538	0.412
539	0.41
539	0.407
540	0.405
540	0.403
541	0.4
541	0.398
542	0.396
542	0.393
542	0.39
543	0.388
543	0.386
544	0.383
544	0.38
545	0.378
545	0.376
546	0.373
546	0.371
547	0.368
547	0.365
547	0.363
548	0.361
548	0.358
549	0.355
549	0.353
550	0.351
550	0.348
551	0.345
551	0.343
551	0.34
552	0.338
552	0.336
553	0.333
553	0.331
554	0.328
554	0.326
555	0.323
555	0.32
556	0.317
556	0.314
556	0.312
557	0.31
557	0.307
558	0.305
558	0.303
559	0.3
559	0.298
560	0.295
560	0.293
560	0.291
561	0.289
561	0.287
562	0.285
562	0.282
563	0.28
563	0.277
564	0.275
564	0.273
564	0.271
565	0.269
565	0.267
566	0.265
566	0.263
567	0.261
567	0.259
568	0.257
568	0.256
568	0.254
569	0.252
569	0.25
570	0.248
570	0.246
571	0.244
571	0.242
572	0.241
572	0.239
573	0.237
573	0.235
573	0.233
574	0.232
574	0.23
575	0.229
575	0.228
576	0.226
576	0.225
577	0.223
577	0.221
577	0.22
578	0.219
578	0.217
579	0.216
579	0.215
580	0.213
580	0.211
581	0.21
581	0.208
581	0.207
582	0.207
582	0.206
583	0.205
583	0.204
584	0.202
584	0.199
585	0.198
585	0.197
585	0.196
586	0.194
586	0.193
587	0.191
587	0.19
588	0.188
588	0.187
589	0.185
589	0.185
590	0.184
590	0.183
590	0.182
591	0.182
591	0.18
592	0.179
592	0.178
593	0.177
593	0.176
594	0.175
594	0.174
594	0.173
595	0.173
595	0.171
596	0.17
596	0.17
597	0.17
597	0.17
598	0.169
598	0.168
598	0.168
599	0.167
599	0.166
600	0.165
600	0.164
601	0.163
601	0.163
602	0.161
602	0.16
602	0.159
603	0.158
603	0.157
604	0.156
604	0.156
605	0.155
605	0.155
606	0.154
606	0.153
606	0.152
607	0.151
607	0.151
608	0.15
608	0.149
609	0.148
609	0.147
610	0.146
610	0.146
610	0.145
611	0.145
611	0.144
612	0.144
612	0.144
613	0.144
613	0.143
614	0.143
614	0.142
614	0.142
615	0.141
615	0.141
616	0.14
616	0.14
617	0.139
617	0.139
618	0.138
618	0.138
618	0.138
619	0.138
619	0.138
620	0.138
620	0.138
621	0.137
621	0.136
622	0.135
622	0.134
622	0.133
623	0.132
623	0.132
624	0.131
624	0.13
625	0.129
625	0.128
626	0.128
626	0.127
626	0.127
627	0.127
627	0.126
628	0.126
628	0.126
629	0.125
629	0.125
630	0.124
630	0.124
630	0.124
631	0.123
631	0.123
632	0.122
632	0.122
633	0.121
633	0.121
634	0.121
634	0.121
634	0.121
635	0.12
635	0.119
636	0.119
636	0.119
637	0.118
637	0.118
638	0.118
638	0.117
638	0.116
639	0.115
639	0.115
640	0.115
640	0.114
641	0.114
641	0.113
642	0.113
642	0.113
642	0.113
643	0.113
643	0.113
644	0.113
644	0.113
645	0.113
645	0.113
646	0.113
646	0.113
646	0.112
647	0.112
647	0.111
648	0.11
648	0.109
649	0.109
649	0.108
650	0.108
650	0.108
650	0.108
651	0.107
651	0.107
652	0.107
652	0.107
653	0.107
653	0.109
653	0.115
654	0.092
654	0.075
655	0.073
655	0.073
656	0.073
656	0.073
657	0.073
657	0.073
657	0.073
658	0.072
658	0.064
659	0.08
659	0.101
660	0.106
660	0.106
661	0.106
661	0.105
661	0.105
662	0.104
662	0.104
663	0.103
663	0.102
664	0.102
664	0.101
665	0.101
665	0.101
665	0.1
666	0.1
666	0.1
667	0.1
667	0.1
668	0.1
668	0.1
669	0.1
669	0.1
669	0.1
670	0.101
670	0.1
671	0.1
671	0.1
672	0.099
672	0.099
672	0.099
673	0.098
673	0.098
674	0.098
674	0.097
675	0.097
675	0.097
676	0.096
676	0.096
676	0.096
677	0.096
677	0.095
678	0.095
678	0.095
679	0.094
679	0.094
680	0.095
680	0.094
680	0.094
681	0.094
681	0.095
682	0.095
682	0.095
683	0.095
683	0.095
684	0.095
684	0.094
684	0.094
685	0.094
685	0.094
686	0.094
686	0.093
687	0.093
687	0.093
687	0.093
688	0.092
688	0.092
689	0.092
689	0.092
690	0.092
690	0.091
691	0.091
691	0.092
691	0.092
692	0.092
692	0.092
693	0.092
693	0.093
694	0.092
694	0.092
695	0.093
695	0.093
695	0.093
696	0.093
696	0.092
697	0.092
697	0.092
698	0.091
698	0.09
698	0.09
699	0.09
699	0.09
700	0.089
700	0.089
701	0.089
701	0.089
702	0.089
702	0.089
702	0.089
703	0.088
703	0.088
704	0.087
704	0.087
705	0.087
705	0.086
705	0.086
706	0.086
706	0.085
707	0.085
707	0.085
708	0.085
708	0.085
709	0.084
709	0.084
709	0.083
710	0.083
710	0.083
711	0.083
711	0.083
712	0.083
712	0.083
713	0.083
713	0.084
713	0.084
714	0.083
714	0.083
715	0.083
715	0.083
716	0.082
716	0.082
716	0.081
717	0.081
717	0.08
718	0.08
718	0.079
719	0.079
719	0.079
720	0.079
720	0.079
720	0.08
721	0.08
721	0.08
722	0.081
722	0.081
723	0.081
723	0.081
723	0.082
724	0.082
724	0.081
725	0.08
725	0.079
726	0.079
726	0.078
727	0.077
727	0.076
727	0.076
728	0.075
728	0.075
729	0.075
729	0.075
730	0.075
730	0.075
730	0.075
731	0.076
731	0.076
732	0.076
732	0.076
733	0.076
733	0.076
734	0.075
734	0.075
734	0.075
735	0.075
735	0.074
736	0.073
736	0.073
737	0.073
737	0.073
737	0.072
738	0.071
738	0.071
739	0.07
739	0.07
740	0.07
740	0.07
741	0.07
741	0.07
741	0.069
742	0.069
742	0.069
743	0.07
743	0.07
744	0.07
744	0.07
744	0.07
745	0.07
745	0.07
746	0.07
746	0.07
747	0.07
747	0.071
748	0.071
748	0.072
748	0.072
749	0.072
749	0.072
750	0.072
750	0.072
751	0.072
751	0.072
751	0.072
752	0.071
752	0.071
753	0.07
753	0.07
754	0.07
754	0.07
754	0.07
755	0.069
755	0.069
756	0.068
756	0.067
757	0.067
757	0.066
758	0.066
758	0.066
758	0.066
759	0.066
759	0.065
760	0.065
760	0.065
761	0.065
761	0.066
761	0.067
762	0.067
762	0.067
763	0.067
763	0.066
764	0.066
764	0.065
764	0.065
765	0.065
765	0.064
766	0.064
766	0.063
767	0.063
767	0.062
768	0.061
768	0.061
768	0.06
769	0.06
769	0.06
770	0.06
770	0.06
771	0.06
771	0.06
771	0.06
772	0.06
772	0.061
773	0.061
773	0.061
774	0.062
774	0.062
775	0.062
775	0.063
775	0.063
776	0.063
776	0.063
777	0.063
777	0.063
778	0.063
778	0.063
778	0.062
779	0.062
779	0.061
780	0.06
780	0.06
781	0.059
781	0.058
781	0.058
782	0.057
782	0.057
783	0.057
783	0.057
784	0.057
784	0.057
784	0.057
785	0.057
785	0.057
786	0.057
786	0.057
787	0.057
787	0.057
788	0.056
788	0.056
788	0.056
789	0.055
789	0.056
790	0.056
790	0.056
791	0.056
791	0.056
791	0.056
792	0.057
792	0.058
793	0.058
793	0.058
794	0.058
794	0.058
794	0.058
795	0.058
795	0.059
796	0.059
796	0.059
797	0.058
797	0.058
797	0.058
798	0.058
798	0.058
799	0.057
799	0.057
800	0.056
800	0.056
801	0.055
801	0.055
801	0.055
802	0.055
802	0.055
803	0.055
803	0.055
804	0.056
804	0.056
804	0.056
805	0.056
805	0.056
806	0.056
806	0.056
807	0.056
807	0.056
807	0.056
808	0.056
808	0.056
809	0.056
809	0.056
810	0.057
810	0.057
810	0.057
811	0.057
811	0.058
812	0.058
812	0.058
813	0.057
813	0.057
813	0.057
814	0.057
814	0.056
815	0.056
815	0.056
816	0.056
816	0.055
817	0.054
817	0.054
817	0.054
818	0.054
818	0.054
819	0.054
819	0.053
820	0.052
820	0.052
820	0.052
821	0.052
821	0.052
822	0.052
822	0.052
823	0.052
823	0.052
823	0.053
824	0.054
824	0.055
825	0.055
825	0.056
826	0.056
826	0.056
826	0.056
827	0.056
827	0.056
828	0.056
828	0.055
829	0.055
829	0.055
829	0.055
830	0.055
830	0.055
831	0.056
831	0.056
832	0.056
832	0.057
832	0.057
833	0.057
833	0.057
834	0.057
834	0.057
835	0.057
835	0.057
835	0.057
836	0.057
836	0.058
837	0.058
837	0.058
838	0.058
838	0.057
839	0.057
839	0.056
839	0.055
840	0.054
840	0.053
841	0.052
841	0.051
842	0.05
842	0.049
842	0.048
843	0.047
843	0.047
844	0.046
844	0.046
845	0.046
845	0.046
845	0.046
846	0.046
846	0.046
847	0.046
847	0.047
848	0.047
848	0.048
848	0.049
849	0.049
849	0.05
850	0.051
850	0.051
851	0.051
851	0.051
851	0.051
852	0.05
852	0.049
853	0.049
853	0.048
854	0.048
854	0.048
854	0.048
855	0.049
855	0.049
856	0.05
856	0.05
857	0.051
857	0.052
857	0.052
858	0.053
858	0.053
859	0.052
859	0.052
860	0.051
860	0.05
860	0.05
861	0.049
861	0.048
862	0.048
862	0.047
863	0.046
863	0.046
863	0.045
864	0.045
864	0.045
865	0.045
865	0.045
866	0.045
866	0.045
866	0.046
867	0.046
867	0.046
868	0.046
868	0.046
869	0.046
869	0.046
869	0.046
870	0.045
870	0.045
871	0.046
871	0.046
872	0.046
872	0.046
872	0.046
873	0.047
873	0.047
874	0.046
874	0.046
875	0.046
875	0.046
875	0.046
876	0.046
876	0.046
877	0.046
877	0.047
878	0.047
878	0.048
878	0.049
879	0.05
879	0.051
880	0.052
880	0.053
881	0.053
881	0.053
881	0.053
882	0.052
882	0.052
883	0.051
883	0.05
884	0.049
884	0.048
884	0.047
885	0.047
885	0.046
886	0.046
886	0.045
887	0.045
887	0.045
887	0.044
888	0.044
888	0.043
889	0.042
889	0.042
890	0.042
890	0.042
890	0.041
891	0.041
891	0.041
892	0.041
892	0.042
893	0.042
893	0.043
893	0.043
894	0.043
894	0.043
895	0.043
895	0.044
895	0.044
896	0.044
896	0.044
897	0.043
897	0.043
898	0.043
898	0.043
898	0.043
899	0.043
899	0.043
900	0.043
900	0.044
901	0.044
901	0.044
901	0.045
902	0.045
902	0.045
903	0.045
903	0.045
904	0.045
904	0.045
904	0.045
905	0.045
905	0.045
906	0.045
906	0.045
907	0.046
907	0.046
907	0.047
908	0.047
908	0.047
909	0.047
909	0.048
910	0.048
910	0.048
910	0.048
911	0.048
911	0.047
912	0.047
912	0.047
913	0.046
913	0.046
913	0.045
914	0.045
914	0.044
915	0.044
915	0.044
916	0.043
916	0.043
916	0.042
917	0.042
917	0.041
918	0.041
918	0.04
918	0.04
919	0.039
919	0.039
920	0.039
920	0.039
921	0.038
921	0.038
921	0.038
922	0.037
922	0.037
923	0.037
923	0.037
924	0.038
924	0.037
924	0.038
925	0.038
925	0.038
926	0.038
926	0.038
927	0.039
927	0.039
927	0.039
928	0.039
928	0.04
929	0.04
929	0.041
930	0.041
930	0.041
930	0.042
931	0.042
931	0.043
932	0.044
932	0.044
933	0.045
933	0.045
933	0.045
934	0.046
934	0.046
935	0.046
935	0.046
935	0.046
936	0.046
936	0.046
937	0.047
937	0.047
938	0.046
938	0.046
938	0.046
939	0.046
939	0.046
940	0.045
940	0.045
941	0.045
941	0.045
941	0.045
942	0.046
942	0.046
943	0.046
943	0.046
944	0.046
944	0.046
944	0.046
945	0.046
945	0.046
946	0.046
946	0.046
946	0.046
947	0.047
947	0.046
948	0.046
948	0.046
949	0.045
949	0.045
949	0.044
950	0.043
950	0.043
951	0.042
951	0.041
952	0.04
952	0.039
952	0.038
953	0.038
953	0.037
954	0.037
954	0.036
955	0.036
955	0.036
955	0.036
956	0.037
956	0.038
957	0.039
957	0.039
957	0.04
958	0.041
958	0.042
959	0.043
959	0.044
960	0.044
960	0.045
960	0.045
961	0.045
961	0.046
962	0.046
962	0.046
963	0.046
963	0.046
963	0.046
964	0.046
964	0.047
965	0.047
965	0.047
966	0.048
966	0.048
966	0.049
967	0.049
967	0.05
968	0.05
968	0.05
968	0.051
969	0.05
969	0.05
970	0.05
970	0.05
971	0.05
971	0.05
971	0.049
972	0.049
972	0.049
973	0.049
973	0.049
974	0.049
974	0.049
974	0.049
975	0.049
975	0.049
976	0.049
976	0.05
976	0.05
977	0.05
977	0.049
978	0.049
978	0.049
979	0.048
979	0.048
979	0.048
980	0.047
980	0.046
981	0.046
981	0.045
982	0.045
982	0.044
982	0.044
983	0.044
983	0.043
984	0.042
984	0.042
984	0.041
985	0.041
985	0.041
986	0.04
986	0.04
987	0.04
987	0.039
987	0.04
988	0.04
988	0.04
989	0.04
989	0.04
990	0.04
990	0.04
990	0.04
991	0.039
991	0.039
992	0.039
992	0.039
992	0.038
993	0.038
993	0.037
994	0.037
994	0.037
995	0.037
995	0.036
995	0.037
996	0.037
996	0.037
997	0.037
997	0.038
997	0.038
998	0.039
998	0.039
999	0.04
999	0.041
1000	0.041
1000	0.042
1000	0.042
1001	0.042
1001	0.043
1002	0.043
1002	0.043
1003	0.043
1003	0.043
1003	0.042
1004	0.042
1004	0.042
1005	0.041
1005	0.041
1005	0.041
1006	0.04
1006	0.04
1007	0.039
1007	0.039
1008	0.039
1008	0.038
1008	0.038
1009	0.038
1009	0.038
1010	0.038
1010	0.038
1010	0.038
1011	0.038
1011	0.038
1012	0.038
1012	0.038
1013	0.038
1013	0.038
1013	0.038
1014	0.038
1014	0.038
1015	0.038
1015	0.038
1016	0.038
1016	0.037
1016	0.037
1017	0.037
1017	0.036
1018	0.036
1018	0.036
1018	0.036
1019	0.036
1019	0.036
1020	0.036
1020	0.036
1021	0.036
1021	0.036
1021	0.037
1022	0.037
1022	0.037
1023	0.037
1023	0.038
1023	0.038
1024	0.038
1024	0.038
1025	0.038
1025	0.039
1026	0.039
1026	0.039
1026	0.039
1027	0.039
1027	0.039
1028	0.039
1028	0.038
1028	0.038
1029	0.038
1029	0.038
1030	0.038
1030	0.039
1031	0.039
1031	0.039
1031	0.039
1032	0.039
1032	0.039
1033	0.039
1033	0.039
1033	0.039
1034	0.039
1034	0.038
1035	0.038
1035	0.038
1036	0.038
1036	0.037
1036	0.037
1037	0.037
1037	0.038
1038	0.038
1038	0.038
1039	0.038
1039	0.039
1039	0.039
1040	0.04
1040	0.04
1041	0.041
1041	0.041
1041	0.042
1042	0.042
1042	0.042
1043	0.043
1043	0.043
1044	0.043
1044	0.043
1044	0.043
1045	0.044
1045	0.044
1046	0.044
1046	0.044
1046	0.045
1047	0.045
1047	0.045
1048	0.046
1048	0.046
1049	0.046
1049	0.047
1049	0.046
1050	0.046
1050	0.046
1051	0.045
1051	0.045
1051	0.044
1052	0.044
1052	0.043
1053	0.042
1053	0.041
1053	0.04
1054	0.039
1054	0.038
1055	0.038
1055	0.037
1056	0.037
1056	0.037
1056	0.036
1057	0.035
1057	0.035
1058	0.034
1058	0.033
1058	0.033
1059	0.032
1059	0.032
1060	0.031
1060	0.03
1061	0.03
1061	0.029
1061	0.029
1062	0.029
1062	0.029
1063	0.029
1063	0.029
1063	0.029
1064	0.028
1064	0.028
1065	0.028
1065	0.028
1066	0.028
1066	0.028
1066	0.027
1067	0.027
1067	0.027
1068	0.026
1068	0.026
1068	0.026
1069	0.026
1069	0.025
1070	0.025
1070	0.024
1071	0.023
1071	0.023
1071	0.022
1072	0.022
1072	0.021
1073	0.02
1073	0.02
1073	0.02
1074	0.02
1074	0.021
1075	0.021
1075	0.021
1076	0.022
1076	0.023
1076	0.023
1077	0.024
1077	0.025
1078	0.025
1078	0.026
1078	0.026
1079	0.026
1079	0.027
1080	0.027
1080	0.027
1080	0.027
1081	0.027
1081	0.027
1082	0.028
1082	0.028
1083	0.028
1083	0.028
1083	0.028
1084	0.027
1084	0.027
1085	0.027
1085	0.027
1085	0.027
1086	0.027
1086	0.026
1087	0.026
1087	0.025
1088	0.025
1088	0.025
1088	0.025
1089	0.024
1089	0.024
1090	0.023
1090	0.022
1090	0.022
1091	0.022
1091	0.022
1092	0.022
1092	0.023
1092	0.022
1093	0.022
1093	0.023
1094	0.023
1094	0.023
1095	0.023
1095	0.022
1095	0.022
1096	0.022
1096	0.02
1097	0.02
1097	0.019
1097	0.019
1098	0.018
1098	0.017
1099	0.017
1099	0.016
1100	0.015
1100	0.014
1100	0.013
1101	0.012
1101	0.011
1102	0.012
1102	0.01
1102	0.009
1103	0.009
1103	0.008
1104	0.008
1104	0.007
1104	0.008
1105	0.006
1105	0.005
1106	0.003
1106	0.002
1107	0.002
1107	0.001
1107	0
1108	-0.001
1108	-0.003
1109	-0.002
1109	-0.004
1109	-0.004
1110	-0.002
1110	-0.003
1111	-0.004
1111	-0.006
