Data from reversibility-20sec_Absorbance__5617__000000000005617.txt Node

Date: Wed Dec 06 19:25:25 CET 2023
User: Marek
Spectrometer: MAYP115816
Trigger mode: 0
Integration Time (sec): 2.000000E-1
Scans to average: 10
Electric dark correction enabled: true
Nonlinearity correction enabled: true
Boxcar width: 5
XAxis mode: Wavelengths
Number of Pixels in Spectrum: 2068
>>>>>Begin Spectral Data<<<<<
199	-0.203
199	-0.18
200	-0.111
200	-0.061
201	-0.028
201	-0.011
202	-0.002
202	0.005
203	0.014
203	0.016
204	0.031
204	0.044
205	0.056
205	0.061
205	0.059
206	0.057
206	0.058
207	0.059
207	0.058
208	0.059
208	0.06
209	0.062
209	0.061
210	0.062
210	0.063
211	0.064
211	0.067
212	0.063
212	0.065
213	0.069
213	0.068
213	0.068
214	0.073
214	0.075
215	0.075
215	0.076
216	0.078
216	0.075
217	0.082
217	0.084
218	0.083
218	0.087
219	0.094
219	0.092
220	0.095
220	0.096
221	0.098
221	0.1
221	0.106
222	0.106
222	0.109
223	0.115
223	0.121
224	0.124
224	0.131
225	0.14
225	0.149
226	0.158
226	0.171
227	0.18
227	0.193
228	0.21
228	0.226
229	0.24
229	0.265
229	0.29
230	0.312
230	0.343
231	0.375
231	0.413
232	0.453
232	0.496
233	0.539
233	0.587
234	0.637
234	0.686
235	0.738
235	0.794
236	0.845
236	0.898
236	0.948
237	0.998
237	1.05
238	1.098
238	1.145
239	1.192
239	1.235
240	1.275
240	1.311
241	1.347
241	1.385
242	1.418
242	1.45
243	1.481
243	1.506
243	1.531
244	1.554
244	1.577
245	1.597
245	1.618
246	1.636
246	1.653
247	1.666
247	1.679
248	1.692
248	1.706
249	1.715
249	1.723
250	1.731
250	1.741
250	1.748
251	1.752
251	1.755
252	1.761
252	1.764
253	1.768
253	1.766
254	1.769
254	1.771
255	1.77
255	1.771
256	1.771
256	1.772
257	1.773
257	1.771
258	1.771
258	1.769
258	1.77
259	1.77
259	1.769
260	1.769
260	1.768
261	1.768
261	1.77
262	1.773
262	1.775
263	1.779
263	1.78
264	1.781
264	1.781
265	1.782
265	1.782
265	1.784
266	1.784
266	1.783
267	1.78
267	1.78
268	1.778
268	1.778
269	1.78
269	1.78
270	1.779
270	1.778
271	1.774
271	1.774
272	1.772
272	1.772
272	1.769
273	1.766
273	1.762
274	1.757
274	1.751
275	1.745
275	1.741
276	1.734
276	1.725
277	1.719
277	1.709
278	1.699
278	1.687
278	1.674
279	1.661
279	1.646
280	1.626
280	1.602
281	1.573
281	1.542
282	1.507
282	1.471
283	1.436
283	1.4
284	1.364
284	1.329
285	1.295
285	1.264
285	1.236
286	1.211
286	1.189
287	1.17
287	1.152
288	1.137
288	1.124
289	1.113
289	1.104
290	1.095
290	1.088
291	1.081
291	1.075
292	1.07
292	1.065
292	1.061
293	1.056
293	1.052
294	1.048
294	1.045
295	1.041
295	1.038
296	1.034
296	1.03
297	1.027
297	1.023
298	1.02
298	1.017
298	1.014
299	1.011
299	1.008
300	1.005
300	1.002
301	0.999
301	0.996
302	0.993
302	0.99
303	0.988
303	0.985
304	0.982
304	0.979
305	0.977
305	0.974
305	0.971
306	0.969
306	0.966
307	0.963
307	0.96
308	0.957
308	0.954
309	0.951
309	0.948
310	0.945
310	0.941
311	0.938
311	0.935
311	0.932
312	0.928
312	0.925
313	0.921
313	0.916
314	0.912
314	0.908
315	0.904
315	0.9
316	0.895
316	0.891
317	0.886
317	0.881
318	0.876
318	0.871
318	0.866
319	0.86
319	0.855
320	0.849
320	0.843
321	0.837
321	0.831
322	0.824
322	0.818
323	0.812
323	0.806
324	0.799
324	0.793
324	0.786
325	0.78
325	0.773
326	0.766
326	0.759
327	0.753
327	0.746
328	0.739
328	0.732
329	0.725
329	0.718
330	0.711
330	0.704
330	0.697
331	0.69
331	0.683
332	0.676
332	0.67
333	0.663
333	0.656
334	0.649
334	0.643
335	0.636
335	0.629
336	0.623
336	0.616
336	0.609
337	0.603
337	0.597
338	0.59
338	0.584
339	0.579
339	0.573
340	0.567
340	0.561
341	0.555
341	0.55
342	0.545
342	0.54
342	0.534
343	0.529
343	0.524
344	0.519
344	0.514
345	0.509
345	0.505
346	0.5
346	0.496
347	0.492
347	0.487
348	0.483
348	0.479
348	0.476
349	0.472
349	0.468
350	0.464
350	0.461
351	0.457
351	0.454
352	0.451
352	0.448
353	0.445
353	0.442
354	0.439
354	0.436
354	0.433
355	0.43
355	0.427
356	0.424
356	0.421
357	0.418
357	0.415
358	0.412
358	0.409
359	0.407
359	0.404
360	0.402
360	0.4
360	0.398
361	0.396
361	0.394
362	0.393
362	0.391
363	0.389
363	0.387
364	0.385
364	0.383
365	0.381
365	0.38
366	0.378
366	0.376
366	0.374
367	0.373
367	0.371
368	0.369
368	0.367
369	0.366
369	0.364
370	0.362
370	0.361
371	0.359
371	0.358
372	0.357
372	0.355
372	0.354
373	0.353
373	0.352
374	0.351
374	0.35
375	0.349
375	0.348
376	0.347
376	0.346
377	0.344
377	0.343
378	0.342
378	0.341
378	0.34
379	0.339
379	0.338
380	0.338
380	0.337
381	0.336
381	0.335
382	0.334
382	0.333
383	0.333
383	0.332
383	0.331
384	0.331
384	0.33
385	0.329
385	0.329
386	0.328
386	0.327
387	0.327
387	0.326
388	0.325
388	0.325
389	0.324
389	0.324
389	0.323
390	0.323
390	0.322
391	0.322
391	0.321
392	0.321
392	0.32
393	0.32
393	0.319
394	0.319
394	0.318
394	0.318
395	0.317
395	0.317
396	0.316
396	0.316
397	0.315
397	0.315
398	0.314
398	0.314
399	0.313
399	0.313
400	0.312
400	0.312
400	0.312
401	0.311
401	0.311
402	0.31
402	0.31
403	0.31
403	0.31
404	0.309
404	0.309
405	0.308
405	0.308
405	0.308
406	0.307
406	0.307
407	0.306
407	0.306
408	0.305
408	0.305
409	0.304
409	0.304
410	0.304
410	0.303
411	0.303
411	0.303
411	0.303
412	0.302
412	0.302
413	0.301
413	0.301
414	0.301
414	0.301
415	0.3
415	0.3
416	0.3
416	0.299
416	0.299
417	0.298
417	0.298
418	0.298
418	0.297
419	0.297
419	0.296
420	0.296
420	0.296
421	0.295
421	0.295
421	0.294
422	0.294
422	0.294
423	0.293
423	0.293
424	0.292
424	0.292
425	0.292
425	0.291
426	0.291
426	0.291
427	0.29
427	0.29
427	0.29
428	0.289
428	0.289
429	0.289
429	0.288
430	0.288
430	0.288
431	0.288
431	0.288
432	0.287
432	0.287
432	0.287
433	0.287
433	0.287
434	0.287
434	0.287
435	0.287
435	0.287
436	0.287
436	0.287
437	0.286
437	0.286
437	0.286
438	0.285
438	0.285
439	0.285
439	0.285
440	0.284
440	0.284
441	0.284
441	0.284
442	0.284
442	0.283
442	0.283
443	0.283
443	0.283
444	0.283
444	0.283
445	0.283
445	0.283
446	0.283
446	0.282
447	0.282
447	0.282
447	0.282
448	0.282
448	0.282
449	0.282
449	0.282
450	0.282
450	0.282
451	0.282
451	0.282
452	0.282
452	0.282
452	0.282
453	0.282
453	0.282
454	0.282
454	0.281
455	0.281
455	0.281
456	0.281
456	0.281
457	0.281
457	0.281
458	0.281
458	0.281
458	0.281
459	0.281
459	0.281
460	0.281
460	0.281
461	0.281
461	0.281
462	0.281
462	0.281
463	0.281
463	0.281
463	0.281
464	0.281
464	0.281
465	0.281
465	0.281
466	0.281
466	0.282
467	0.282
467	0.282
467	0.282
468	0.283
468	0.283
469	0.283
469	0.284
470	0.284
470	0.285
471	0.285
471	0.285
472	0.286
472	0.287
472	0.287
473	0.288
473	0.288
474	0.288
474	0.289
475	0.289
475	0.29
476	0.29
476	0.29
477	0.291
477	0.291
477	0.292
478	0.292
478	0.293
479	0.294
479	0.294
480	0.294
480	0.295
481	0.295
481	0.296
482	0.296
482	0.297
482	0.297
483	0.298
483	0.299
484	0.3
484	0.3
485	0.301
485	0.302
486	0.302
486	0.303
487	0.304
487	0.305
487	0.306
488	0.307
488	0.307
489	0.308
489	0.31
490	0.311
490	0.312
491	0.314
491	0.315
492	0.316
492	0.317
492	0.319
493	0.32
493	0.321
494	0.322
494	0.323
495	0.325
495	0.326
496	0.327
496	0.329
496	0.33
497	0.331
497	0.332
498	0.334
498	0.335
499	0.337
499	0.338
500	0.34
500	0.341
501	0.342
501	0.343
501	0.344
502	0.345
502	0.347
503	0.348
503	0.349
504	0.35
504	0.351
505	0.353
505	0.354
506	0.355
506	0.356
506	0.358
507	0.359
507	0.36
508	0.361
508	0.362
509	0.363
509	0.364
510	0.365
510	0.366
511	0.367
511	0.369
511	0.37
512	0.371
512	0.372
513	0.373
513	0.374
514	0.375
514	0.376
515	0.376
515	0.377
515	0.378
516	0.378
516	0.379
517	0.38
517	0.38
518	0.381
518	0.381
519	0.382
519	0.382
520	0.382
520	0.382
520	0.383
521	0.382
521	0.382
522	0.382
522	0.382
523	0.382
523	0.381
524	0.381
524	0.381
524	0.381
525	0.38
525	0.38
526	0.379
526	0.379
527	0.378
527	0.377
528	0.377
528	0.376
529	0.375
529	0.374
529	0.373
530	0.372
530	0.371
531	0.37
531	0.368
532	0.367
532	0.366
533	0.365
533	0.364
533	0.362
534	0.361
534	0.359
535	0.358
535	0.357
536	0.355
536	0.354
537	0.352
537	0.35
538	0.349
538	0.347
538	0.345
539	0.344
539	0.342
540	0.34
540	0.339
541	0.337
541	0.335
542	0.333
542	0.331
542	0.329
543	0.327
543	0.325
544	0.323
544	0.321
545	0.319
545	0.316
546	0.315
546	0.312
547	0.31
547	0.308
547	0.306
548	0.304
548	0.302
549	0.3
549	0.298
550	0.296
550	0.294
551	0.292
551	0.289
551	0.287
552	0.285
552	0.283
553	0.28
553	0.278
554	0.276
554	0.274
555	0.272
555	0.27
556	0.268
556	0.266
556	0.264
557	0.262
557	0.261
558	0.259
558	0.257
559	0.256
559	0.254
560	0.252
560	0.25
560	0.248
561	0.247
561	0.245
562	0.243
562	0.24
563	0.238
563	0.236
564	0.234
564	0.232
564	0.231
565	0.229
565	0.227
566	0.226
566	0.224
567	0.222
567	0.221
568	0.219
568	0.217
568	0.216
569	0.215
569	0.213
570	0.211
570	0.209
571	0.208
571	0.206
572	0.204
572	0.203
573	0.202
573	0.2
573	0.199
574	0.197
574	0.196
575	0.195
575	0.195
576	0.194
576	0.192
577	0.191
577	0.189
577	0.188
578	0.187
578	0.186
579	0.185
579	0.184
580	0.183
580	0.181
581	0.18
581	0.178
581	0.178
582	0.177
582	0.176
583	0.176
583	0.175
584	0.173
584	0.171
585	0.17
585	0.169
585	0.168
586	0.167
586	0.166
587	0.165
587	0.164
588	0.162
588	0.161
589	0.16
589	0.16
590	0.159
590	0.158
590	0.158
591	0.157
591	0.156
592	0.155
592	0.154
593	0.153
593	0.153
594	0.152
594	0.151
594	0.15
595	0.15
595	0.148
596	0.147
596	0.147
597	0.147
597	0.147
598	0.146
598	0.146
598	0.145
599	0.144
599	0.144
600	0.143
600	0.142
601	0.141
601	0.141
602	0.14
602	0.139
602	0.138
603	0.137
603	0.137
604	0.137
604	0.136
605	0.136
605	0.136
606	0.135
606	0.134
606	0.133
607	0.133
607	0.132
608	0.131
608	0.131
609	0.13
609	0.129
610	0.129
610	0.128
610	0.128
611	0.127
611	0.127
612	0.127
612	0.127
613	0.126
613	0.126
614	0.125
614	0.125
614	0.124
615	0.124
615	0.124
616	0.123
616	0.123
617	0.123
617	0.122
618	0.121
618	0.121
618	0.121
619	0.121
619	0.122
620	0.122
620	0.121
621	0.12
621	0.12
622	0.119
622	0.118
622	0.118
623	0.116
623	0.116
624	0.115
624	0.114
625	0.113
625	0.113
626	0.112
626	0.112
626	0.112
627	0.112
627	0.112
628	0.111
628	0.111
629	0.11
629	0.11
630	0.109
630	0.109
630	0.108
631	0.108
631	0.107
632	0.107
632	0.106
633	0.106
633	0.106
634	0.106
634	0.106
634	0.106
635	0.106
635	0.106
636	0.106
636	0.106
637	0.106
637	0.105
638	0.105
638	0.104
638	0.104
639	0.103
639	0.103
640	0.103
640	0.102
641	0.102
641	0.101
642	0.101
642	0.101
642	0.101
643	0.1
643	0.1
644	0.1
644	0.1
645	0.1
645	0.1
646	0.099
646	0.099
646	0.099
647	0.099
647	0.098
648	0.097
648	0.097
649	0.096
649	0.096
650	0.096
650	0.096
650	0.095
651	0.095
651	0.095
652	0.095
652	0.095
653	0.095
653	0.097
653	0.103
654	0.083
654	0.068
655	0.066
655	0.066
656	0.066
656	0.066
657	0.066
657	0.067
657	0.066
658	0.065
658	0.057
659	0.071
659	0.09
660	0.096
660	0.096
661	0.096
661	0.095
661	0.095
662	0.094
662	0.094
663	0.093
663	0.093
664	0.092
664	0.092
665	0.091
665	0.091
665	0.091
666	0.091
666	0.091
667	0.091
667	0.091
668	0.092
668	0.092
669	0.092
669	0.092
669	0.093
670	0.093
670	0.093
671	0.093
671	0.093
672	0.093
672	0.092
672	0.092
673	0.092
673	0.091
674	0.091
674	0.09
675	0.089
675	0.089
676	0.089
676	0.088
676	0.088
677	0.088
677	0.088
678	0.087
678	0.087
679	0.086
679	0.086
680	0.086
680	0.086
680	0.086
681	0.086
681	0.086
682	0.086
682	0.086
683	0.086
683	0.087
684	0.087
684	0.087
684	0.087
685	0.087
685	0.087
686	0.087
686	0.087
687	0.087
687	0.087
687	0.087
688	0.086
688	0.086
689	0.087
689	0.087
690	0.087
690	0.086
691	0.086
691	0.086
691	0.085
692	0.085
692	0.085
693	0.085
693	0.085
694	0.084
694	0.084
695	0.085
695	0.086
695	0.086
696	0.085
696	0.085
697	0.085
697	0.085
698	0.084
698	0.084
698	0.084
699	0.084
699	0.083
700	0.082
700	0.083
701	0.083
701	0.083
702	0.083
702	0.083
702	0.083
703	0.083
703	0.083
704	0.083
704	0.083
705	0.083
705	0.083
705	0.082
706	0.082
706	0.083
707	0.083
707	0.083
708	0.083
708	0.083
709	0.083
709	0.083
709	0.082
710	0.082
710	0.082
711	0.082
711	0.081
712	0.081
712	0.081
713	0.08
713	0.08
713	0.08
714	0.08
714	0.08
715	0.08
715	0.08
716	0.08
716	0.08
716	0.079
717	0.079
717	0.078
718	0.078
718	0.077
719	0.077
719	0.077
720	0.077
720	0.078
720	0.078
721	0.078
721	0.079
722	0.079
722	0.079
723	0.08
723	0.08
723	0.08
724	0.08
724	0.08
725	0.079
725	0.078
726	0.077
726	0.077
727	0.076
727	0.076
727	0.076
728	0.075
728	0.075
729	0.075
729	0.074
730	0.074
730	0.074
730	0.075
731	0.075
731	0.075
732	0.076
732	0.076
733	0.075
733	0.075
734	0.076
734	0.076
734	0.076
735	0.077
735	0.077
736	0.076
736	0.076
737	0.076
737	0.076
737	0.076
738	0.076
738	0.075
739	0.074
739	0.074
740	0.073
740	0.073
741	0.073
741	0.073
741	0.073
742	0.072
742	0.073
743	0.074
743	0.074
744	0.075
744	0.075
744	0.075
745	0.076
745	0.076
746	0.076
746	0.076
747	0.076
747	0.076
748	0.076
748	0.075
748	0.075
749	0.074
749	0.074
750	0.074
750	0.073
751	0.073
751	0.073
751	0.072
752	0.071
752	0.071
753	0.07
753	0.07
754	0.069
754	0.068
754	0.068
755	0.068
755	0.068
756	0.067
756	0.066
757	0.066
757	0.066
758	0.066
758	0.066
758	0.067
759	0.067
759	0.067
760	0.067
760	0.067
761	0.067
761	0.068
761	0.068
762	0.068
762	0.068
763	0.067
763	0.066
764	0.065
764	0.065
764	0.065
765	0.064
765	0.063
766	0.063
766	0.063
767	0.062
767	0.061
768	0.06
768	0.06
768	0.06
769	0.06
769	0.06
770	0.06
770	0.061
771	0.061
771	0.062
771	0.062
772	0.063
772	0.064
773	0.065
773	0.065
774	0.065
774	0.066
775	0.066
775	0.066
775	0.066
776	0.066
776	0.066
777	0.066
777	0.066
778	0.065
778	0.065
778	0.065
779	0.065
779	0.065
780	0.064
780	0.064
781	0.063
781	0.063
781	0.063
782	0.063
782	0.063
783	0.064
783	0.064
784	0.064
784	0.064
784	0.065
785	0.065
785	0.066
786	0.066
786	0.066
787	0.066
787	0.065
788	0.064
788	0.063
788	0.062
789	0.061
789	0.06
790	0.059
790	0.058
791	0.057
791	0.056
791	0.056
792	0.056
792	0.056
793	0.055
793	0.055
794	0.055
794	0.055
794	0.054
795	0.055
795	0.055
796	0.055
796	0.056
797	0.055
797	0.055
797	0.056
798	0.056
798	0.057
799	0.057
799	0.057
800	0.057
800	0.056
801	0.056
801	0.056
801	0.056
802	0.057
802	0.057
803	0.057
803	0.057
804	0.057
804	0.057
804	0.057
805	0.057
805	0.056
806	0.056
806	0.055
807	0.055
807	0.054
807	0.054
808	0.054
808	0.054
809	0.054
809	0.055
810	0.055
810	0.055
810	0.055
811	0.056
811	0.056
812	0.057
812	0.057
813	0.057
813	0.057
813	0.057
814	0.057
814	0.058
815	0.058
815	0.058
816	0.058
816	0.058
817	0.057
817	0.057
817	0.057
818	0.057
818	0.057
819	0.056
819	0.056
820	0.055
820	0.055
820	0.055
821	0.055
821	0.055
822	0.054
822	0.054
823	0.054
823	0.054
823	0.054
824	0.054
824	0.055
825	0.056
825	0.056
826	0.056
826	0.056
826	0.056
827	0.056
827	0.056
828	0.057
828	0.056
829	0.056
829	0.056
829	0.056
830	0.056
830	0.057
831	0.057
831	0.057
832	0.057
832	0.057
832	0.057
833	0.057
833	0.057
834	0.056
834	0.056
835	0.056
835	0.056
835	0.056
836	0.056
836	0.056
837	0.056
837	0.056
838	0.056
838	0.056
839	0.056
839	0.055
839	0.054
840	0.053
840	0.052
841	0.051
841	0.05
842	0.049
842	0.048
842	0.046
843	0.045
843	0.044
844	0.043
844	0.042
845	0.041
845	0.04
845	0.04
846	0.04
846	0.039
847	0.039
847	0.04
848	0.041
848	0.041
848	0.042
849	0.044
849	0.045
850	0.046
850	0.047
851	0.048
851	0.048
851	0.049
852	0.048
852	0.048
853	0.048
853	0.047
854	0.047
854	0.047
854	0.047
855	0.047
855	0.047
856	0.048
856	0.048
857	0.049
857	0.049
857	0.05
858	0.05
858	0.05
859	0.049
859	0.049
860	0.049
860	0.048
860	0.047
861	0.047
861	0.046
862	0.045
862	0.044
863	0.043
863	0.043
863	0.042
864	0.042
864	0.043
865	0.043
865	0.043
866	0.044
866	0.044
866	0.045
867	0.045
867	0.046
868	0.047
868	0.048
869	0.048
869	0.048
869	0.048
870	0.049
870	0.049
871	0.049
871	0.049
872	0.049
872	0.049
872	0.049
873	0.049
873	0.049
874	0.048
874	0.048
875	0.047
875	0.047
875	0.047
876	0.046
876	0.046
877	0.045
877	0.045
878	0.045
878	0.045
878	0.045
879	0.046
879	0.046
880	0.046
880	0.046
881	0.047
881	0.047
881	0.047
882	0.047
882	0.047
883	0.047
883	0.048
884	0.048
884	0.048
884	0.048
885	0.047
885	0.047
886	0.046
886	0.046
887	0.045
887	0.044
887	0.044
888	0.043
888	0.042
889	0.041
889	0.041
890	0.041
890	0.041
890	0.041
891	0.04
891	0.04
892	0.04
892	0.04
893	0.04
893	0.04
893	0.04
894	0.039
894	0.039
895	0.039
895	0.039
895	0.039
896	0.04
896	0.04
897	0.04
897	0.041
898	0.041
898	0.041
898	0.041
899	0.041
899	0.041
900	0.041
900	0.041
901	0.041
901	0.04
901	0.04
902	0.039
902	0.039
903	0.038
903	0.038
904	0.038
904	0.037
904	0.037
905	0.037
905	0.037
906	0.037
906	0.037
907	0.038
907	0.038
907	0.039
908	0.039
908	0.039
909	0.039
909	0.039
910	0.039
910	0.039
910	0.039
911	0.038
911	0.038
912	0.038
912	0.038
913	0.038
913	0.038
913	0.038
914	0.038
914	0.038
915	0.039
915	0.039
916	0.039
916	0.04
916	0.04
917	0.04
917	0.04
918	0.039
918	0.039
918	0.039
919	0.039
919	0.039
920	0.039
920	0.039
921	0.039
921	0.039
921	0.038
922	0.038
922	0.039
923	0.039
923	0.039
924	0.039
924	0.04
924	0.04
925	0.04
925	0.041
926	0.041
926	0.042
927	0.043
927	0.043
927	0.043
928	0.043
928	0.043
929	0.043
929	0.043
930	0.042
930	0.042
930	0.041
931	0.04
931	0.04
932	0.039
932	0.039
933	0.039
933	0.038
933	0.038
934	0.038
934	0.038
935	0.038
935	0.038
935	0.038
936	0.038
936	0.038
937	0.038
937	0.038
938	0.038
938	0.038
938	0.037
939	0.037
939	0.037
940	0.036
940	0.036
941	0.036
941	0.036
941	0.036
942	0.036
942	0.036
943	0.036
943	0.036
944	0.036
944	0.036
944	0.036
945	0.036
945	0.036
946	0.036
946	0.036
946	0.036
947	0.037
947	0.037
948	0.038
948	0.038
949	0.038
949	0.038
949	0.039
950	0.039
950	0.039
951	0.04
951	0.04
952	0.04
952	0.04
952	0.04
953	0.04
953	0.04
954	0.04
954	0.04
955	0.04
955	0.039
955	0.039
956	0.039
956	0.039
957	0.039
957	0.039
957	0.039
958	0.039
958	0.039
959	0.039
959	0.039
960	0.039
960	0.039
960	0.04
961	0.04
961	0.04
962	0.04
962	0.04
963	0.04
963	0.041
963	0.041
964	0.041
964	0.042
965	0.042
965	0.042
966	0.042
966	0.042
966	0.042
967	0.042
967	0.042
968	0.042
968	0.041
968	0.041
969	0.041
969	0.04
970	0.04
970	0.039
971	0.039
971	0.038
971	0.037
972	0.037
972	0.036
973	0.036
973	0.036
974	0.036
974	0.036
974	0.036
975	0.036
975	0.037
976	0.038
976	0.038
976	0.038
977	0.038
977	0.038
978	0.038
978	0.037
979	0.037
979	0.036
979	0.036
980	0.035
980	0.035
981	0.034
981	0.033
982	0.033
982	0.032
982	0.032
983	0.032
983	0.032
984	0.032
984	0.032
984	0.032
985	0.032
985	0.033
986	0.033
986	0.033
987	0.033
987	0.033
987	0.033
988	0.034
988	0.033
989	0.033
989	0.033
990	0.033
990	0.033
990	0.033
991	0.033
991	0.032
992	0.032
992	0.032
992	0.031
993	0.031
993	0.03
994	0.03
994	0.03
995	0.029
995	0.029
995	0.029
996	0.029
996	0.029
997	0.03
997	0.03
997	0.031
998	0.031
998	0.032
999	0.033
999	0.033
1000	0.034
1000	0.035
1000	0.035
1001	0.035
1001	0.036
1002	0.035
1002	0.035
1003	0.035
1003	0.034
1003	0.034
1004	0.033
1004	0.032
1005	0.031
1005	0.031
1005	0.03
1006	0.029
1006	0.029
1007	0.029
1007	0.028
1008	0.028
1008	0.028
1008	0.028
1009	0.028
1009	0.028
1010	0.029
1010	0.029
1010	0.03
1011	0.03
1011	0.03
1012	0.031
1012	0.031
1013	0.032
1013	0.032
1013	0.032
1014	0.032
1014	0.032
1015	0.032
1015	0.032
1016	0.031
1016	0.031
1016	0.031
1017	0.03
1017	0.03
1018	0.03
1018	0.029
1018	0.029
1019	0.029
1019	0.028
1020	0.028
1020	0.028
1021	0.028
1021	0.028
1021	0.028
1022	0.028
1022	0.029
1023	0.029
1023	0.029
1023	0.03
1024	0.03
1024	0.03
1025	0.03
1025	0.03
1026	0.031
1026	0.031
1026	0.031
1027	0.031
1027	0.031
1028	0.031
1028	0.031
1028	0.031
1029	0.032
1029	0.032
1030	0.032
1030	0.032
1031	0.033
1031	0.033
1031	0.033
1032	0.033
1032	0.034
1033	0.034
1033	0.034
1033	0.034
1034	0.034
1034	0.034
1035	0.034
1035	0.034
1036	0.034
1036	0.034
1036	0.034
1037	0.034
1037	0.034
1038	0.034
1038	0.034
1039	0.035
1039	0.035
1039	0.035
1040	0.036
1040	0.036
1041	0.036
1041	0.036
1041	0.036
1042	0.036
1042	0.036
1043	0.036
1043	0.036
1044	0.036
1044	0.036
1044	0.036
1045	0.036
1045	0.036
1046	0.036
1046	0.036
1046	0.036
1047	0.036
1047	0.036
1048	0.036
1048	0.036
1049	0.036
1049	0.036
1049	0.036
1050	0.036
1050	0.035
1051	0.035
1051	0.035
1051	0.034
1052	0.034
1052	0.034
1053	0.033
1053	0.032
1053	0.032
1054	0.032
1054	0.032
1055	0.032
1055	0.031
1056	0.031
1056	0.031
1056	0.03
1057	0.03
1057	0.029
1058	0.029
1058	0.028
1058	0.028
1059	0.027
1059	0.026
1060	0.026
1060	0.025
1061	0.025
1061	0.025
1061	0.024
1062	0.024
1062	0.024
1063	0.024
1063	0.024
1063	0.024
1064	0.023
1064	0.023
1065	0.023
1065	0.023
1066	0.023
1066	0.023
1066	0.023
1067	0.023
1067	0.022
1068	0.022
1068	0.022
1068	0.022
1069	0.022
1069	0.021
1070	0.021
1070	0.02
1071	0.02
1071	0.019
1071	0.019
1072	0.018
1072	0.018
1073	0.017
1073	0.017
1073	0.017
1074	0.018
1074	0.018
1075	0.018
1075	0.018
1076	0.019
1076	0.019
1076	0.02
1077	0.02
1077	0.02
1078	0.02
1078	0.02
1078	0.02
1079	0.019
1079	0.019
1080	0.019
1080	0.019
1080	0.018
1081	0.018
1081	0.018
1082	0.018
1082	0.018
1083	0.018
1083	0.018
1083	0.018
1084	0.018
1084	0.019
1085	0.019
1085	0.019
1085	0.019
1086	0.019
1086	0.019
1087	0.019
1087	0.019
1088	0.019
1088	0.019
1088	0.019
1089	0.019
1089	0.018
1090	0.017
1090	0.017
1090	0.016
1091	0.016
1091	0.015
1092	0.015
1092	0.016
1092	0.016
1093	0.016
1093	0.016
1094	0.016
1094	0.016
1095	0.015
1095	0.015
1095	0.015
1096	0.015
1096	0.014
1097	0.013
1097	0.012
1097	0.01
1098	0.01
1098	0.008
1099	0.008
1099	0.007
1100	0.006
1100	0.004
1100	0.002
1101	0.001
1101	0
1102	-0.001
1102	-0.002
1102	-0.004
1103	-0.003
1103	-0.004
1104	-0.005
1104	-0.005
1104	-0.006
1105	-0.007
1105	-0.008
1106	-0.01
1106	-0.01
1107	-0.011
1107	-0.011
1107	-0.013
1108	-0.014
1108	-0.015
1109	-0.017
1109	-0.018
1109	-0.018
1110	-0.016
1110	-0.017
1111	-0.018
1111	-0.018
