Data from reversibility-20sec_Absorbance__5542__000000000005542.txt Node

Date: Wed Dec 06 19:00:25 CET 2023
User: Marek
Spectrometer: MAYP115816
Trigger mode: 0
Integration Time (sec): 2.000000E-1
Scans to average: 10
Electric dark correction enabled: true
Nonlinearity correction enabled: true
Boxcar width: 5
XAxis mode: Wavelengths
Number of Pixels in Spectrum: 2068
>>>>>Begin Spectral Data<<<<<
199	-0.222
199	-0.184
200	-0.119
200	-0.059
201	-0.033
201	-0.013
202	-0.004
202	0.006
203	0.014
203	0.016
204	0.031
204	0.044
205	0.056
205	0.062
205	0.059
206	0.06
206	0.058
207	0.059
207	0.06
208	0.059
208	0.061
209	0.062
209	0.06
210	0.061
210	0.064
211	0.066
211	0.067
212	0.07
212	0.073
213	0.077
213	0.078
213	0.077
214	0.083
214	0.083
215	0.085
215	0.083
216	0.084
216	0.083
217	0.084
217	0.083
218	0.077
218	0.079
219	0.083
219	0.083
220	0.086
220	0.084
221	0.085
221	0.087
221	0.091
222	0.096
222	0.101
223	0.112
223	0.117
224	0.122
224	0.132
225	0.143
225	0.154
226	0.164
226	0.173
227	0.185
227	0.196
228	0.213
228	0.228
229	0.245
229	0.267
229	0.287
230	0.312
230	0.343
231	0.374
231	0.414
232	0.451
232	0.492
233	0.533
233	0.58
234	0.632
234	0.684
235	0.736
235	0.791
236	0.841
236	0.893
236	0.943
237	0.996
237	1.046
238	1.094
238	1.141
239	1.185
239	1.229
240	1.27
240	1.302
241	1.34
241	1.373
242	1.407
242	1.439
243	1.468
243	1.497
243	1.52
244	1.546
244	1.567
245	1.586
245	1.61
246	1.629
246	1.647
247	1.66
247	1.675
248	1.69
248	1.704
249	1.715
249	1.722
250	1.729
250	1.739
250	1.744
251	1.75
251	1.754
252	1.761
252	1.763
253	1.765
253	1.763
254	1.765
254	1.767
255	1.768
255	1.769
256	1.768
256	1.767
257	1.768
257	1.768
258	1.767
258	1.767
258	1.766
259	1.767
259	1.766
260	1.764
260	1.766
261	1.766
261	1.769
262	1.77
262	1.77
263	1.774
263	1.775
264	1.778
264	1.78
265	1.78
265	1.781
265	1.78
266	1.78
266	1.78
267	1.778
267	1.779
268	1.778
268	1.778
269	1.78
269	1.779
270	1.779
270	1.778
271	1.775
271	1.776
272	1.773
272	1.772
272	1.77
273	1.765
273	1.76
274	1.757
274	1.752
275	1.747
275	1.742
276	1.734
276	1.726
277	1.719
277	1.71
278	1.699
278	1.688
278	1.675
279	1.661
279	1.644
280	1.625
280	1.601
281	1.573
281	1.541
282	1.507
282	1.471
283	1.436
283	1.399
284	1.364
284	1.329
285	1.296
285	1.265
285	1.237
286	1.211
286	1.189
287	1.169
287	1.152
288	1.137
288	1.124
289	1.114
289	1.104
290	1.095
290	1.087
291	1.08
291	1.075
292	1.069
292	1.064
292	1.06
293	1.055
293	1.051
294	1.048
294	1.044
295	1.04
295	1.037
296	1.034
296	1.03
297	1.027
297	1.024
298	1.02
298	1.017
298	1.014
299	1.011
299	1.008
300	1.004
300	1.002
301	0.999
301	0.996
302	0.993
302	0.99
303	0.988
303	0.985
304	0.982
304	0.98
305	0.977
305	0.974
305	0.971
306	0.969
306	0.966
307	0.963
307	0.96
308	0.957
308	0.954
309	0.951
309	0.948
310	0.945
310	0.942
311	0.939
311	0.936
311	0.932
312	0.929
312	0.925
313	0.921
313	0.917
314	0.914
314	0.91
315	0.905
315	0.901
316	0.896
316	0.892
317	0.887
317	0.882
318	0.877
318	0.872
318	0.866
319	0.861
319	0.855
320	0.85
320	0.844
321	0.838
321	0.832
322	0.826
322	0.819
323	0.813
323	0.806
324	0.8
324	0.793
324	0.787
325	0.78
325	0.774
326	0.767
326	0.76
327	0.754
327	0.747
328	0.74
328	0.733
329	0.726
329	0.719
330	0.712
330	0.705
330	0.698
331	0.691
331	0.684
332	0.677
332	0.67
333	0.663
333	0.656
334	0.649
334	0.643
335	0.636
335	0.629
336	0.623
336	0.616
336	0.61
337	0.604
337	0.597
338	0.591
338	0.585
339	0.579
339	0.573
340	0.567
340	0.562
341	0.556
341	0.551
342	0.546
342	0.54
342	0.535
343	0.53
343	0.525
344	0.52
344	0.515
345	0.51
345	0.505
346	0.501
346	0.496
347	0.492
347	0.488
348	0.483
348	0.479
348	0.476
349	0.472
349	0.468
350	0.465
350	0.461
351	0.458
351	0.455
352	0.451
352	0.448
353	0.445
353	0.443
354	0.44
354	0.437
354	0.434
355	0.431
355	0.428
356	0.425
356	0.422
357	0.418
357	0.416
358	0.413
358	0.41
359	0.408
359	0.405
360	0.403
360	0.401
360	0.399
361	0.397
361	0.395
362	0.394
362	0.392
363	0.39
363	0.388
364	0.386
364	0.384
365	0.382
365	0.38
366	0.378
366	0.376
366	0.375
367	0.373
367	0.371
368	0.369
368	0.368
369	0.366
369	0.365
370	0.363
370	0.362
371	0.36
371	0.359
372	0.357
372	0.356
372	0.355
373	0.354
373	0.353
374	0.351
374	0.35
375	0.349
375	0.348
376	0.347
376	0.346
377	0.345
377	0.344
378	0.342
378	0.341
378	0.34
379	0.339
379	0.339
380	0.338
380	0.337
381	0.336
381	0.335
382	0.335
382	0.334
383	0.333
383	0.333
383	0.332
384	0.331
384	0.331
385	0.33
385	0.33
386	0.329
386	0.328
387	0.327
387	0.327
388	0.326
388	0.326
389	0.325
389	0.325
389	0.324
390	0.323
390	0.323
391	0.322
391	0.322
392	0.321
392	0.321
393	0.32
393	0.32
394	0.32
394	0.319
394	0.319
395	0.318
395	0.318
396	0.317
396	0.316
397	0.316
397	0.315
398	0.315
398	0.315
399	0.314
399	0.313
400	0.313
400	0.313
400	0.312
401	0.312
401	0.311
402	0.311
402	0.311
403	0.31
403	0.31
404	0.309
404	0.309
405	0.309
405	0.308
405	0.308
406	0.307
406	0.307
407	0.306
407	0.306
408	0.305
408	0.305
409	0.305
409	0.304
410	0.304
410	0.304
411	0.304
411	0.303
411	0.303
412	0.303
412	0.302
413	0.302
413	0.302
414	0.301
414	0.301
415	0.301
415	0.3
416	0.3
416	0.3
416	0.299
417	0.299
417	0.299
418	0.298
418	0.298
419	0.297
419	0.297
420	0.296
420	0.296
421	0.295
421	0.295
421	0.295
422	0.294
422	0.294
423	0.294
423	0.293
424	0.293
424	0.293
425	0.293
425	0.292
426	0.292
426	0.292
427	0.291
427	0.291
427	0.29
428	0.29
428	0.29
429	0.289
429	0.289
430	0.289
430	0.288
431	0.288
431	0.288
432	0.288
432	0.288
432	0.288
433	0.288
433	0.288
434	0.288
434	0.288
435	0.288
435	0.287
436	0.287
436	0.287
437	0.287
437	0.287
437	0.287
438	0.286
438	0.286
439	0.286
439	0.286
440	0.286
440	0.285
441	0.285
441	0.285
442	0.285
442	0.285
442	0.284
443	0.284
443	0.284
444	0.284
444	0.283
445	0.283
445	0.283
446	0.283
446	0.283
447	0.283
447	0.282
447	0.282
448	0.282
448	0.282
449	0.282
449	0.282
450	0.282
450	0.282
451	0.282
451	0.282
452	0.282
452	0.282
452	0.282
453	0.283
453	0.282
454	0.282
454	0.282
455	0.282
455	0.282
456	0.282
456	0.282
457	0.282
457	0.282
458	0.282
458	0.282
458	0.283
459	0.282
459	0.282
460	0.282
460	0.282
461	0.282
461	0.282
462	0.282
462	0.282
463	0.282
463	0.282
463	0.282
464	0.282
464	0.282
465	0.282
465	0.282
466	0.282
466	0.283
467	0.283
467	0.283
467	0.283
468	0.283
468	0.284
469	0.284
469	0.285
470	0.285
470	0.286
471	0.286
471	0.286
472	0.287
472	0.287
472	0.288
473	0.288
473	0.289
474	0.289
474	0.289
475	0.289
475	0.29
476	0.29
476	0.291
477	0.291
477	0.292
477	0.292
478	0.293
478	0.293
479	0.294
479	0.295
480	0.295
480	0.296
481	0.296
481	0.297
482	0.297
482	0.298
482	0.299
483	0.299
483	0.3
484	0.301
484	0.302
485	0.302
485	0.303
486	0.304
486	0.304
487	0.305
487	0.306
487	0.307
488	0.307
488	0.308
489	0.309
489	0.311
490	0.312
490	0.313
491	0.314
491	0.315
492	0.317
492	0.318
492	0.319
493	0.32
493	0.322
494	0.323
494	0.324
495	0.325
495	0.327
496	0.328
496	0.329
496	0.33
497	0.331
497	0.333
498	0.334
498	0.335
499	0.336
499	0.338
500	0.34
500	0.341
501	0.342
501	0.343
501	0.344
502	0.346
502	0.347
503	0.348
503	0.35
504	0.351
504	0.352
505	0.354
505	0.355
506	0.356
506	0.357
506	0.359
507	0.36
507	0.361
508	0.362
508	0.363
509	0.364
509	0.365
510	0.366
510	0.367
511	0.368
511	0.369
511	0.37
512	0.372
512	0.373
513	0.373
513	0.374
514	0.375
514	0.376
515	0.377
515	0.377
515	0.378
516	0.379
516	0.38
517	0.38
517	0.381
518	0.382
518	0.382
519	0.382
519	0.383
520	0.383
520	0.383
520	0.383
521	0.383
521	0.383
522	0.382
522	0.382
523	0.382
523	0.382
524	0.382
524	0.381
524	0.381
525	0.381
525	0.38
526	0.38
526	0.38
527	0.379
527	0.378
528	0.378
528	0.377
529	0.376
529	0.375
529	0.374
530	0.373
530	0.372
531	0.371
531	0.37
532	0.369
532	0.367
533	0.366
533	0.365
533	0.363
534	0.362
534	0.36
535	0.359
535	0.358
536	0.356
536	0.355
537	0.353
537	0.352
538	0.35
538	0.348
538	0.346
539	0.345
539	0.343
540	0.341
540	0.34
541	0.338
541	0.336
542	0.334
542	0.332
542	0.33
543	0.328
543	0.326
544	0.325
544	0.322
545	0.32
545	0.318
546	0.316
546	0.314
547	0.312
547	0.31
547	0.308
548	0.306
548	0.303
549	0.301
549	0.299
550	0.297
550	0.295
551	0.293
551	0.29
551	0.288
552	0.286
552	0.284
553	0.282
553	0.28
554	0.278
554	0.276
555	0.273
555	0.271
556	0.269
556	0.267
556	0.265
557	0.263
557	0.262
558	0.26
558	0.258
559	0.256
559	0.254
560	0.253
560	0.251
560	0.249
561	0.248
561	0.246
562	0.244
562	0.242
563	0.24
563	0.238
564	0.236
564	0.234
564	0.233
565	0.231
565	0.229
566	0.228
566	0.226
567	0.224
567	0.223
568	0.221
568	0.22
568	0.218
569	0.217
569	0.215
570	0.213
570	0.211
571	0.21
571	0.208
572	0.206
572	0.205
573	0.203
573	0.202
573	0.201
574	0.199
574	0.198
575	0.197
575	0.196
576	0.195
576	0.194
577	0.192
577	0.191
577	0.19
578	0.188
578	0.187
579	0.187
579	0.186
580	0.184
580	0.182
581	0.181
581	0.18
581	0.179
582	0.179
582	0.178
583	0.178
583	0.177
584	0.175
584	0.173
585	0.172
585	0.171
585	0.17
586	0.169
586	0.168
587	0.167
587	0.165
588	0.164
588	0.163
589	0.162
589	0.161
590	0.161
590	0.16
590	0.16
591	0.159
591	0.158
592	0.157
592	0.156
593	0.155
593	0.155
594	0.154
594	0.153
594	0.152
595	0.151
595	0.15
596	0.149
596	0.149
597	0.149
597	0.149
598	0.148
598	0.147
598	0.146
599	0.146
599	0.145
600	0.144
600	0.144
601	0.143
601	0.143
602	0.141
602	0.14
602	0.14
603	0.139
603	0.139
604	0.139
604	0.138
605	0.138
605	0.137
606	0.137
606	0.135
606	0.135
607	0.134
607	0.134
608	0.133
608	0.132
609	0.131
609	0.131
610	0.13
610	0.13
610	0.129
611	0.129
611	0.129
612	0.128
612	0.128
613	0.128
613	0.128
614	0.127
614	0.126
614	0.126
615	0.126
615	0.125
616	0.125
616	0.125
617	0.124
617	0.124
618	0.123
618	0.123
618	0.123
619	0.123
619	0.123
620	0.123
620	0.123
621	0.122
621	0.121
622	0.121
622	0.12
622	0.119
623	0.118
623	0.118
624	0.117
624	0.116
625	0.115
625	0.115
626	0.115
626	0.114
626	0.114
627	0.114
627	0.114
628	0.114
628	0.113
629	0.113
629	0.112
630	0.112
630	0.111
630	0.111
631	0.111
631	0.11
632	0.109
632	0.109
633	0.108
633	0.108
634	0.108
634	0.109
634	0.109
635	0.108
635	0.108
636	0.108
636	0.108
637	0.108
637	0.107
638	0.107
638	0.107
638	0.106
639	0.105
639	0.105
640	0.105
640	0.104
641	0.104
641	0.103
642	0.103
642	0.103
642	0.102
643	0.102
643	0.102
644	0.102
644	0.102
645	0.101
645	0.101
646	0.101
646	0.101
646	0.101
647	0.1
647	0.1
648	0.099
648	0.099
649	0.099
649	0.098
650	0.098
650	0.098
650	0.098
651	0.098
651	0.098
652	0.098
652	0.098
653	0.099
653	0.1
653	0.107
654	0.086
654	0.07
655	0.067
655	0.067
656	0.067
656	0.068
657	0.068
657	0.068
657	0.068
658	0.067
658	0.059
659	0.073
659	0.092
660	0.098
660	0.098
661	0.098
661	0.097
661	0.097
662	0.096
662	0.096
663	0.095
663	0.095
664	0.094
664	0.094
665	0.093
665	0.093
665	0.093
666	0.093
666	0.093
667	0.093
667	0.093
668	0.093
668	0.094
669	0.094
669	0.094
669	0.095
670	0.095
670	0.095
671	0.095
671	0.095
672	0.095
672	0.094
672	0.094
673	0.094
673	0.093
674	0.093
674	0.092
675	0.091
675	0.091
676	0.09
676	0.09
676	0.09
677	0.09
677	0.089
678	0.089
678	0.089
679	0.088
679	0.088
680	0.088
680	0.088
680	0.088
681	0.088
681	0.088
682	0.088
682	0.088
683	0.088
683	0.089
684	0.089
684	0.089
684	0.089
685	0.089
685	0.089
686	0.089
686	0.089
687	0.089
687	0.089
687	0.089
688	0.088
688	0.088
689	0.089
689	0.089
690	0.088
690	0.088
691	0.088
691	0.088
691	0.088
692	0.087
692	0.087
693	0.087
693	0.087
694	0.087
694	0.086
695	0.087
695	0.088
695	0.088
696	0.088
696	0.087
697	0.087
697	0.087
698	0.086
698	0.086
698	0.086
699	0.086
699	0.085
700	0.084
700	0.085
701	0.085
701	0.085
702	0.085
702	0.085
702	0.085
703	0.085
703	0.085
704	0.085
704	0.085
705	0.085
705	0.085
705	0.084
706	0.084
706	0.085
707	0.085
707	0.085
708	0.085
708	0.085
709	0.085
709	0.085
709	0.084
710	0.084
710	0.084
711	0.084
711	0.084
712	0.083
712	0.083
713	0.083
713	0.083
713	0.083
714	0.083
714	0.083
715	0.083
715	0.083
716	0.082
716	0.082
716	0.082
717	0.081
717	0.081
718	0.08
718	0.079
719	0.079
719	0.079
720	0.079
720	0.08
720	0.08
721	0.08
721	0.081
722	0.081
722	0.081
723	0.082
723	0.082
723	0.082
724	0.082
724	0.082
725	0.081
725	0.081
726	0.08
726	0.08
727	0.079
727	0.078
727	0.078
728	0.078
728	0.077
729	0.077
729	0.077
730	0.077
730	0.077
730	0.077
731	0.077
731	0.078
732	0.078
732	0.078
733	0.078
733	0.078
734	0.078
734	0.078
734	0.079
735	0.079
735	0.079
736	0.079
736	0.079
737	0.079
737	0.079
737	0.079
738	0.078
738	0.077
739	0.077
739	0.077
740	0.076
740	0.076
741	0.076
741	0.076
741	0.075
742	0.075
742	0.075
743	0.076
743	0.077
744	0.077
744	0.078
744	0.078
745	0.078
745	0.078
746	0.078
746	0.079
747	0.078
747	0.078
748	0.078
748	0.078
748	0.077
749	0.077
749	0.076
750	0.076
750	0.075
751	0.075
751	0.074
751	0.074
752	0.074
752	0.073
753	0.072
753	0.072
754	0.071
754	0.071
754	0.071
755	0.07
755	0.07
756	0.07
756	0.068
757	0.068
757	0.068
758	0.068
758	0.068
758	0.069
759	0.069
759	0.069
760	0.069
760	0.069
761	0.069
761	0.07
761	0.07
762	0.07
762	0.07
763	0.07
763	0.069
764	0.068
764	0.067
764	0.067
765	0.066
765	0.065
766	0.065
766	0.065
767	0.064
767	0.063
768	0.062
768	0.062
768	0.062
769	0.062
769	0.062
770	0.063
770	0.063
771	0.063
771	0.064
771	0.065
772	0.066
772	0.067
773	0.067
773	0.067
774	0.068
774	0.068
775	0.068
775	0.068
775	0.068
776	0.068
776	0.068
777	0.067
777	0.067
778	0.067
778	0.067
778	0.067
779	0.067
779	0.066
780	0.065
780	0.065
781	0.065
781	0.064
781	0.064
782	0.064
782	0.064
783	0.065
783	0.065
784	0.065
784	0.065
784	0.066
785	0.067
785	0.067
786	0.067
786	0.067
787	0.067
787	0.066
788	0.065
788	0.064
788	0.064
789	0.063
789	0.062
790	0.061
790	0.06
791	0.059
791	0.059
791	0.058
792	0.058
792	0.058
793	0.058
793	0.058
794	0.058
794	0.057
794	0.057
795	0.057
795	0.057
796	0.057
796	0.057
797	0.057
797	0.057
797	0.058
798	0.058
798	0.058
799	0.058
799	0.058
800	0.058
800	0.058
801	0.058
801	0.058
801	0.058
802	0.058
802	0.058
803	0.059
803	0.059
804	0.059
804	0.059
804	0.059
805	0.059
805	0.058
806	0.058
806	0.057
807	0.057
807	0.056
807	0.056
808	0.056
808	0.056
809	0.056
809	0.057
810	0.057
810	0.057
810	0.058
811	0.058
811	0.058
812	0.059
812	0.059
813	0.059
813	0.059
813	0.059
814	0.059
814	0.059
815	0.06
815	0.06
816	0.06
816	0.059
817	0.059
817	0.059
817	0.059
818	0.058
818	0.058
819	0.058
819	0.057
820	0.056
820	0.056
820	0.055
821	0.055
821	0.055
822	0.055
822	0.055
823	0.055
823	0.055
823	0.055
824	0.055
824	0.056
825	0.057
825	0.057
826	0.057
826	0.057
826	0.057
827	0.058
827	0.058
828	0.058
828	0.058
829	0.058
829	0.058
829	0.058
830	0.058
830	0.058
831	0.059
831	0.059
832	0.059
832	0.059
832	0.059
833	0.059
833	0.058
834	0.058
834	0.058
835	0.058
835	0.058
835	0.058
836	0.058
836	0.058
837	0.058
837	0.058
838	0.058
838	0.058
839	0.057
839	0.056
839	0.055
840	0.054
840	0.053
841	0.052
841	0.051
842	0.05
842	0.049
842	0.048
843	0.047
843	0.046
844	0.045
844	0.044
845	0.043
845	0.042
845	0.042
846	0.041
846	0.041
847	0.041
847	0.041
848	0.042
848	0.043
848	0.044
849	0.045
849	0.046
850	0.048
850	0.048
851	0.049
851	0.05
851	0.05
852	0.049
852	0.049
853	0.049
853	0.048
854	0.048
854	0.048
854	0.048
855	0.048
855	0.048
856	0.048
856	0.049
857	0.049
857	0.05
857	0.05
858	0.051
858	0.051
859	0.05
859	0.05
860	0.05
860	0.049
860	0.048
861	0.048
861	0.047
862	0.046
862	0.045
863	0.044
863	0.044
863	0.043
864	0.043
864	0.043
865	0.044
865	0.044
866	0.044
866	0.044
866	0.045
867	0.046
867	0.046
868	0.047
868	0.047
869	0.048
869	0.048
869	0.048
870	0.048
870	0.049
871	0.049
871	0.049
872	0.05
872	0.05
872	0.05
873	0.05
873	0.049
874	0.048
874	0.048
875	0.048
875	0.048
875	0.047
876	0.047
876	0.046
877	0.046
877	0.046
878	0.046
878	0.046
878	0.046
879	0.046
879	0.047
880	0.047
880	0.047
881	0.047
881	0.048
881	0.048
882	0.048
882	0.048
883	0.048
883	0.048
884	0.048
884	0.048
884	0.048
885	0.048
885	0.048
886	0.047
886	0.047
887	0.046
887	0.045
887	0.044
888	0.044
888	0.043
889	0.043
889	0.042
890	0.042
890	0.042
890	0.042
891	0.041
891	0.041
892	0.041
892	0.041
893	0.041
893	0.041
893	0.04
894	0.04
894	0.04
895	0.04
895	0.04
895	0.04
896	0.04
896	0.041
897	0.041
897	0.041
898	0.042
898	0.042
898	0.042
899	0.042
899	0.042
900	0.042
900	0.042
901	0.041
901	0.041
901	0.04
902	0.04
902	0.04
903	0.039
903	0.039
904	0.039
904	0.038
904	0.038
905	0.038
905	0.038
906	0.038
906	0.038
907	0.039
907	0.039
907	0.039
908	0.04
908	0.04
909	0.04
909	0.04
910	0.04
910	0.04
910	0.04
911	0.04
911	0.04
912	0.039
912	0.039
913	0.039
913	0.039
913	0.039
914	0.039
914	0.039
915	0.04
915	0.04
916	0.04
916	0.04
916	0.04
917	0.04
917	0.04
918	0.04
918	0.04
918	0.04
919	0.04
919	0.04
920	0.04
920	0.039
921	0.039
921	0.039
921	0.039
922	0.039
922	0.039
923	0.04
923	0.04
924	0.04
924	0.04
924	0.041
925	0.041
925	0.042
926	0.042
926	0.043
927	0.043
927	0.043
927	0.044
928	0.044
928	0.044
929	0.044
929	0.044
930	0.043
930	0.043
930	0.042
931	0.042
931	0.041
932	0.041
932	0.04
933	0.04
933	0.039
933	0.039
934	0.039
934	0.038
935	0.038
935	0.038
935	0.038
936	0.038
936	0.038
937	0.038
937	0.038
938	0.038
938	0.038
938	0.038
939	0.038
939	0.037
940	0.037
940	0.037
941	0.036
941	0.036
941	0.037
942	0.037
942	0.037
943	0.037
943	0.036
944	0.036
944	0.036
944	0.036
945	0.036
945	0.037
946	0.037
946	0.037
946	0.037
947	0.038
947	0.038
948	0.039
948	0.039
949	0.039
949	0.039
949	0.04
950	0.04
950	0.04
951	0.04
951	0.04
952	0.04
952	0.04
952	0.04
953	0.04
953	0.04
954	0.04
954	0.04
955	0.04
955	0.04
955	0.039
956	0.039
956	0.04
957	0.04
957	0.039
957	0.039
958	0.039
958	0.039
959	0.039
959	0.039
960	0.039
960	0.039
960	0.039
961	0.039
961	0.039
962	0.039
962	0.04
963	0.04
963	0.04
963	0.04
964	0.041
964	0.041
965	0.041
965	0.041
966	0.042
966	0.042
966	0.042
967	0.042
967	0.042
968	0.042
968	0.042
968	0.041
969	0.041
969	0.04
970	0.04
970	0.039
971	0.039
971	0.038
971	0.037
972	0.037
972	0.037
973	0.036
973	0.036
974	0.036
974	0.036
974	0.037
975	0.037
975	0.038
976	0.038
976	0.039
976	0.039
977	0.039
977	0.039
978	0.039
978	0.038
979	0.038
979	0.037
979	0.037
980	0.036
980	0.035
981	0.034
981	0.034
982	0.033
982	0.033
982	0.033
983	0.033
983	0.033
984	0.033
984	0.033
984	0.033
985	0.033
985	0.033
986	0.034
986	0.034
987	0.034
987	0.034
987	0.034
988	0.034
988	0.034
989	0.034
989	0.034
990	0.034
990	0.033
990	0.033
991	0.033
991	0.033
992	0.033
992	0.033
992	0.032
993	0.032
993	0.032
994	0.031
994	0.031
995	0.03
995	0.03
995	0.03
996	0.03
996	0.03
997	0.03
997	0.031
997	0.031
998	0.032
998	0.032
999	0.033
999	0.034
1000	0.035
1000	0.035
1000	0.036
1001	0.036
1001	0.036
1002	0.036
1002	0.035
1003	0.035
1003	0.035
1003	0.034
1004	0.033
1004	0.033
1005	0.032
1005	0.031
1005	0.03
1006	0.03
1006	0.029
1007	0.029
1007	0.029
1008	0.028
1008	0.029
1008	0.029
1009	0.029
1009	0.029
1010	0.03
1010	0.03
1010	0.031
1011	0.031
1011	0.031
1012	0.032
1012	0.032
1013	0.032
1013	0.032
1013	0.032
1014	0.032
1014	0.032
1015	0.032
1015	0.032
1016	0.032
1016	0.032
1016	0.031
1017	0.031
1017	0.03
1018	0.03
1018	0.03
1018	0.029
1019	0.029
1019	0.029
1020	0.029
1020	0.028
1021	0.029
1021	0.029
1021	0.029
1022	0.029
1022	0.029
1023	0.03
1023	0.03
1023	0.03
1024	0.031
1024	0.031
1025	0.031
1025	0.031
1026	0.032
1026	0.032
1026	0.032
1027	0.032
1027	0.032
1028	0.032
1028	0.032
1028	0.033
1029	0.033
1029	0.033
1030	0.033
1030	0.033
1031	0.034
1031	0.034
1031	0.034
1032	0.035
1032	0.035
1033	0.035
1033	0.035
1033	0.036
1034	0.036
1034	0.035
1035	0.036
1035	0.035
1036	0.035
1036	0.035
1036	0.036
1037	0.036
1037	0.035
1038	0.036
1038	0.036
1039	0.036
1039	0.036
1039	0.036
1040	0.037
1040	0.037
1041	0.037
1041	0.037
1041	0.037
1042	0.037
1042	0.037
1043	0.037
1043	0.037
1044	0.037
1044	0.037
1044	0.037
1045	0.037
1045	0.036
1046	0.036
1046	0.036
1046	0.037
1047	0.037
1047	0.037
1048	0.037
1048	0.037
1049	0.037
1049	0.037
1049	0.037
1050	0.037
1050	0.037
1051	0.036
1051	0.036
1051	0.035
1052	0.035
1052	0.035
1053	0.034
1053	0.034
1053	0.033
1054	0.033
1054	0.033
1055	0.032
1055	0.032
1056	0.032
1056	0.031
1056	0.031
1057	0.03
1057	0.03
1058	0.03
1058	0.029
1058	0.028
1059	0.028
1059	0.027
1060	0.027
1060	0.026
1061	0.026
1061	0.025
1061	0.025
1062	0.024
1062	0.024
1063	0.024
1063	0.024
1063	0.024
1064	0.024
1064	0.024
1065	0.024
1065	0.024
1066	0.024
1066	0.024
1066	0.024
1067	0.024
1067	0.024
1068	0.024
1068	0.024
1068	0.023
1069	0.023
1069	0.023
1070	0.022
1070	0.021
1071	0.021
1071	0.02
1071	0.02
1072	0.019
1072	0.019
1073	0.018
1073	0.018
1073	0.018
1074	0.018
1074	0.019
1075	0.019
1075	0.019
1076	0.02
1076	0.02
1076	0.02
1077	0.021
1077	0.021
1078	0.021
1078	0.021
1078	0.021
1079	0.02
1079	0.02
1080	0.019
1080	0.019
1080	0.019
1081	0.019
1081	0.019
1082	0.019
1082	0.02
1083	0.02
1083	0.019
1083	0.02
1084	0.02
1084	0.02
1085	0.02
1085	0.02
1085	0.02
1086	0.021
1086	0.02
1087	0.02
1087	0.02
1088	0.02
1088	0.02
1088	0.02
1089	0.019
1089	0.019
1090	0.018
1090	0.018
1090	0.017
1091	0.016
1091	0.016
1092	0.016
1092	0.017
1092	0.016
1093	0.016
1093	0.017
1094	0.017
1094	0.017
1095	0.017
1095	0.017
1095	0.017
1096	0.016
1096	0.016
1097	0.015
1097	0.014
1097	0.013
1098	0.012
1098	0.01
1099	0.01
1099	0.008
1100	0.007
1100	0.005
1100	0.004
1101	0.003
1101	0.001
1102	-0
1102	-0.001
1102	-0.003
1103	-0.004
1103	-0.004
1104	-0.005
1104	-0.005
1104	-0.006
1105	-0.007
1105	-0.009
1106	-0.011
1106	-0.011
1107	-0.012
1107	-0.013
1107	-0.014
1108	-0.014
1108	-0.016
1109	-0.018
1109	-0.019
1109	-0.019
1110	-0.018
1110	-0.02
1111	-0.022
1111	-0.023
