Data from reversibility-20sec_Absorbance__3379__000000000003379.txt Node

Date: Wed Dec 06 06:59:25 CET 2023
User: Marek
Spectrometer: MAYP115816
Trigger mode: 0
Integration Time (sec): 2.000000E-1
Scans to average: 10
Electric dark correction enabled: true
Nonlinearity correction enabled: true
Boxcar width: 5
XAxis mode: Wavelengths
Number of Pixels in Spectrum: 2068
>>>>>Begin Spectral Data<<<<<
199	-0.106
199	-0.064
200	0.003
200	0.048
201	0.077
201	0.09
202	0.101
202	0.109
203	0.118
203	0.122
204	0.141
204	0.153
205	0.162
205	0.168
205	0.165
206	0.162
206	0.164
207	0.165
207	0.165
208	0.161
208	0.16
209	0.159
209	0.157
210	0.158
210	0.158
211	0.162
211	0.166
212	0.164
212	0.167
213	0.17
213	0.174
213	0.175
214	0.176
214	0.178
215	0.179
215	0.179
216	0.18
216	0.18
217	0.183
217	0.183
218	0.18
218	0.184
219	0.188
219	0.189
220	0.194
220	0.195
221	0.194
221	0.198
221	0.202
222	0.209
222	0.213
223	0.222
223	0.226
224	0.23
224	0.238
225	0.243
225	0.257
226	0.269
226	0.278
227	0.288
227	0.295
228	0.312
228	0.326
229	0.342
229	0.368
229	0.393
230	0.422
230	0.446
231	0.478
231	0.515
232	0.553
232	0.597
233	0.638
233	0.685
234	0.73
234	0.78
235	0.833
235	0.883
236	0.94
236	0.99
236	1.043
237	1.093
237	1.143
238	1.191
238	1.239
239	1.291
239	1.333
240	1.37
240	1.408
241	1.441
241	1.476
242	1.505
242	1.538
243	1.565
243	1.591
243	1.615
244	1.635
244	1.655
245	1.675
245	1.696
246	1.714
246	1.732
247	1.743
247	1.756
248	1.769
248	1.779
249	1.787
249	1.792
250	1.8
250	1.807
250	1.806
251	1.811
251	1.811
252	1.815
252	1.813
253	1.813
253	1.811
254	1.81
254	1.81
255	1.807
255	1.804
256	1.801
256	1.797
257	1.797
257	1.794
258	1.795
258	1.793
258	1.794
259	1.793
259	1.793
260	1.794
260	1.795
261	1.798
261	1.801
262	1.803
262	1.807
263	1.81
263	1.812
264	1.814
264	1.816
265	1.817
265	1.819
265	1.819
266	1.818
266	1.818
267	1.816
267	1.816
268	1.814
268	1.814
269	1.816
269	1.815
270	1.815
270	1.813
271	1.812
271	1.811
272	1.807
272	1.804
272	1.799
273	1.795
273	1.787
274	1.777
274	1.768
275	1.759
275	1.751
276	1.743
276	1.735
277	1.725
277	1.715
278	1.703
278	1.689
278	1.673
279	1.655
279	1.631
280	1.602
280	1.567
281	1.526
281	1.482
282	1.437
282	1.391
283	1.346
283	1.303
284	1.262
284	1.223
285	1.187
285	1.153
285	1.125
286	1.099
286	1.077
287	1.058
287	1.043
288	1.029
288	1.018
289	1.008
289	1
290	0.993
290	0.987
291	0.981
291	0.977
292	0.972
292	0.968
292	0.965
293	0.961
293	0.958
294	0.955
294	0.952
295	0.95
295	0.947
296	0.945
296	0.942
297	0.94
297	0.937
298	0.935
298	0.933
298	0.93
299	0.928
299	0.925
300	0.923
300	0.921
301	0.919
301	0.917
302	0.914
302	0.912
303	0.91
303	0.908
304	0.906
304	0.904
305	0.903
305	0.9
305	0.898
306	0.896
306	0.894
307	0.892
307	0.89
308	0.888
308	0.885
309	0.883
309	0.88
310	0.877
310	0.875
311	0.872
311	0.869
311	0.866
312	0.863
312	0.86
313	0.856
313	0.853
314	0.849
314	0.845
315	0.841
315	0.837
316	0.833
316	0.829
317	0.824
317	0.82
318	0.815
318	0.81
318	0.805
319	0.8
319	0.795
320	0.789
320	0.784
321	0.778
321	0.772
322	0.766
322	0.76
323	0.754
323	0.747
324	0.741
324	0.735
324	0.728
325	0.722
325	0.715
326	0.708
326	0.702
327	0.695
327	0.688
328	0.682
328	0.675
329	0.668
329	0.661
330	0.654
330	0.647
330	0.64
331	0.634
331	0.627
332	0.621
332	0.614
333	0.607
333	0.6
334	0.594
334	0.587
335	0.58
335	0.574
336	0.567
336	0.561
336	0.554
337	0.548
337	0.542
338	0.535
338	0.529
339	0.523
339	0.518
340	0.512
340	0.506
341	0.501
341	0.495
342	0.49
342	0.485
342	0.479
343	0.474
343	0.47
344	0.465
344	0.46
345	0.455
345	0.45
346	0.446
346	0.442
347	0.437
347	0.433
348	0.429
348	0.425
348	0.421
349	0.418
349	0.414
350	0.41
350	0.407
351	0.404
351	0.401
352	0.398
352	0.395
353	0.392
353	0.389
354	0.386
354	0.384
354	0.381
355	0.378
355	0.375
356	0.372
356	0.37
357	0.366
357	0.364
358	0.361
358	0.358
359	0.356
359	0.354
360	0.352
360	0.35
360	0.348
361	0.347
361	0.345
362	0.344
362	0.342
363	0.341
363	0.339
364	0.337
364	0.335
365	0.333
365	0.331
366	0.33
366	0.328
366	0.326
367	0.325
367	0.323
368	0.322
368	0.32
369	0.319
369	0.317
370	0.316
370	0.315
371	0.313
371	0.312
372	0.311
372	0.31
372	0.309
373	0.308
373	0.307
374	0.306
374	0.305
375	0.304
375	0.303
376	0.303
376	0.302
377	0.301
377	0.3
378	0.299
378	0.298
378	0.297
379	0.296
379	0.295
380	0.294
380	0.294
381	0.293
381	0.292
382	0.292
382	0.291
383	0.291
383	0.29
383	0.289
384	0.289
384	0.289
385	0.288
385	0.288
386	0.287
386	0.287
387	0.286
387	0.286
388	0.285
388	0.285
389	0.285
389	0.285
389	0.284
390	0.284
390	0.283
391	0.283
391	0.283
392	0.282
392	0.282
393	0.282
393	0.281
394	0.281
394	0.281
394	0.28
395	0.28
395	0.28
396	0.28
396	0.279
397	0.279
397	0.279
398	0.278
398	0.278
399	0.278
399	0.277
400	0.277
400	0.277
400	0.276
401	0.276
401	0.276
402	0.275
402	0.275
403	0.275
403	0.274
404	0.274
404	0.274
405	0.274
405	0.274
405	0.273
406	0.273
406	0.273
407	0.272
407	0.272
408	0.272
408	0.272
409	0.272
409	0.272
410	0.271
410	0.271
411	0.271
411	0.271
411	0.27
412	0.27
412	0.27
413	0.27
413	0.269
414	0.269
414	0.269
415	0.268
415	0.268
416	0.268
416	0.267
416	0.267
417	0.267
417	0.266
418	0.266
418	0.266
419	0.265
419	0.265
420	0.265
420	0.264
421	0.264
421	0.263
421	0.263
422	0.263
422	0.263
423	0.262
423	0.262
424	0.261
424	0.261
425	0.261
425	0.261
426	0.26
426	0.26
427	0.26
427	0.259
427	0.259
428	0.259
428	0.259
429	0.258
429	0.258
430	0.258
430	0.257
431	0.257
431	0.257
432	0.257
432	0.257
432	0.256
433	0.256
433	0.256
434	0.255
434	0.255
435	0.255
435	0.255
436	0.255
436	0.255
437	0.254
437	0.254
437	0.254
438	0.254
438	0.254
439	0.253
439	0.253
440	0.253
440	0.252
441	0.252
441	0.252
442	0.252
442	0.251
442	0.251
443	0.251
443	0.251
444	0.25
444	0.25
445	0.25
445	0.25
446	0.25
446	0.25
447	0.25
447	0.249
447	0.249
448	0.249
448	0.249
449	0.249
449	0.248
450	0.248
450	0.248
451	0.248
451	0.248
452	0.247
452	0.247
452	0.247
453	0.247
453	0.247
454	0.246
454	0.246
455	0.246
455	0.246
456	0.245
456	0.245
457	0.245
457	0.245
458	0.244
458	0.244
458	0.244
459	0.244
459	0.244
460	0.244
460	0.243
461	0.243
461	0.243
462	0.243
462	0.243
463	0.243
463	0.242
463	0.242
464	0.242
464	0.241
465	0.241
465	0.241
466	0.24
466	0.24
467	0.24
467	0.24
467	0.24
468	0.24
468	0.24
469	0.24
469	0.24
470	0.24
470	0.24
471	0.24
471	0.24
472	0.24
472	0.24
472	0.239
473	0.24
473	0.239
474	0.239
474	0.239
475	0.239
475	0.239
476	0.239
476	0.239
477	0.239
477	0.239
477	0.239
478	0.239
478	0.239
479	0.239
479	0.239
480	0.239
480	0.239
481	0.239
481	0.239
482	0.239
482	0.239
482	0.239
483	0.239
483	0.239
484	0.24
484	0.239
485	0.239
485	0.24
486	0.239
486	0.24
487	0.24
487	0.24
487	0.24
488	0.24
488	0.24
489	0.24
489	0.241
490	0.242
490	0.242
491	0.242
491	0.243
492	0.243
492	0.243
492	0.244
493	0.245
493	0.245
494	0.246
494	0.246
495	0.246
495	0.247
496	0.247
496	0.248
496	0.248
497	0.248
497	0.248
498	0.249
498	0.249
499	0.249
499	0.249
500	0.25
500	0.25
501	0.251
501	0.251
501	0.252
502	0.252
502	0.253
503	0.253
503	0.254
504	0.254
504	0.255
505	0.255
505	0.255
506	0.256
506	0.256
506	0.256
507	0.257
507	0.257
508	0.258
508	0.258
509	0.258
509	0.259
510	0.259
510	0.26
511	0.26
511	0.261
511	0.261
512	0.262
512	0.262
513	0.263
513	0.263
514	0.264
514	0.264
515	0.265
515	0.265
515	0.266
516	0.266
516	0.267
517	0.267
517	0.268
518	0.268
518	0.268
519	0.268
519	0.268
520	0.269
520	0.269
520	0.269
521	0.27
521	0.27
522	0.27
522	0.27
523	0.271
523	0.271
524	0.272
524	0.272
524	0.273
525	0.273
525	0.273
526	0.272
526	0.273
527	0.273
527	0.273
528	0.273
528	0.273
529	0.273
529	0.273
529	0.272
530	0.272
530	0.273
531	0.273
531	0.273
532	0.273
532	0.272
533	0.272
533	0.272
533	0.272
534	0.272
534	0.272
535	0.272
535	0.272
536	0.272
536	0.271
537	0.271
537	0.271
538	0.271
538	0.27
538	0.27
539	0.27
539	0.27
540	0.27
540	0.27
541	0.27
541	0.27
542	0.27
542	0.27
542	0.27
543	0.27
543	0.269
544	0.269
544	0.269
545	0.268
545	0.268
546	0.268
546	0.268
547	0.267
547	0.267
547	0.267
548	0.266
548	0.266
549	0.266
549	0.266
550	0.266
550	0.265
551	0.265
551	0.265
551	0.265
552	0.264
552	0.264
553	0.264
553	0.264
554	0.263
554	0.263
555	0.262
555	0.261
556	0.261
556	0.26
556	0.26
557	0.26
557	0.26
558	0.26
558	0.26
559	0.26
559	0.26
560	0.26
560	0.26
560	0.26
561	0.26
561	0.259
562	0.259
562	0.258
563	0.257
563	0.257
564	0.256
564	0.255
564	0.255
565	0.255
565	0.255
566	0.254
566	0.254
567	0.254
567	0.254
568	0.253
568	0.253
568	0.252
569	0.252
569	0.252
570	0.251
570	0.25
571	0.25
571	0.249
572	0.249
572	0.248
573	0.248
573	0.248
573	0.248
574	0.248
574	0.248
575	0.248
575	0.248
576	0.248
576	0.247
577	0.246
577	0.246
577	0.245
578	0.245
578	0.244
579	0.244
579	0.244
580	0.244
580	0.243
581	0.243
581	0.242
581	0.242
582	0.242
582	0.242
583	0.242
583	0.242
584	0.241
584	0.241
585	0.24
585	0.24
585	0.239
586	0.239
586	0.239
587	0.238
587	0.238
588	0.237
588	0.237
589	0.237
589	0.237
590	0.236
590	0.236
590	0.236
591	0.236
591	0.235
592	0.235
592	0.234
593	0.234
593	0.234
594	0.233
594	0.232
594	0.231
595	0.231
595	0.231
596	0.23
596	0.23
597	0.231
597	0.231
598	0.231
598	0.232
598	0.232
599	0.232
599	0.232
600	0.231
600	0.231
601	0.23
601	0.23
602	0.23
602	0.229
602	0.229
603	0.228
603	0.228
604	0.228
604	0.228
605	0.228
605	0.228
606	0.228
606	0.227
606	0.227
607	0.226
607	0.226
608	0.225
608	0.225
609	0.224
609	0.224
610	0.224
610	0.223
610	0.223
611	0.223
611	0.223
612	0.223
612	0.223
613	0.224
613	0.224
614	0.223
614	0.223
614	0.223
615	0.223
615	0.223
616	0.223
616	0.223
617	0.223
617	0.222
618	0.222
618	0.222
618	0.222
619	0.222
619	0.222
620	0.222
620	0.222
621	0.221
621	0.221
622	0.221
622	0.221
622	0.22
623	0.22
623	0.22
624	0.22
624	0.219
625	0.219
625	0.219
626	0.219
626	0.218
626	0.219
627	0.218
627	0.218
628	0.218
628	0.217
629	0.217
629	0.217
630	0.217
630	0.217
630	0.217
631	0.217
631	0.217
632	0.216
632	0.216
633	0.216
633	0.216
634	0.217
634	0.217
634	0.217
635	0.217
635	0.216
636	0.216
636	0.216
637	0.216
637	0.216
638	0.216
638	0.216
638	0.215
639	0.215
639	0.214
640	0.214
640	0.214
641	0.214
641	0.213
642	0.213
642	0.213
642	0.213
643	0.213
643	0.214
644	0.214
644	0.214
645	0.214
645	0.215
646	0.215
646	0.215
646	0.215
647	0.215
647	0.215
648	0.215
648	0.215
649	0.215
649	0.214
650	0.214
650	0.214
650	0.214
651	0.214
651	0.214
652	0.213
652	0.214
653	0.214
653	0.216
653	0.221
654	0.172
654	0.137
655	0.139
655	0.14
656	0.14
656	0.14
657	0.141
657	0.141
657	0.141
658	0.14
658	0.129
659	0.164
659	0.212
660	0.216
660	0.215
661	0.214
661	0.214
661	0.213
662	0.213
662	0.212
663	0.212
663	0.212
664	0.212
664	0.212
665	0.212
665	0.212
665	0.212
666	0.212
666	0.213
667	0.213
667	0.213
668	0.214
668	0.213
669	0.213
669	0.213
669	0.214
670	0.214
670	0.214
671	0.214
671	0.213
672	0.213
672	0.212
672	0.212
673	0.211
673	0.211
674	0.211
674	0.211
675	0.21
675	0.211
676	0.211
676	0.211
676	0.211
677	0.212
677	0.212
678	0.212
678	0.212
679	0.212
679	0.212
680	0.212
680	0.212
680	0.212
681	0.212
681	0.213
682	0.213
682	0.213
683	0.214
683	0.214
684	0.214
684	0.214
684	0.214
685	0.214
685	0.214
686	0.214
686	0.214
687	0.214
687	0.214
687	0.215
688	0.215
688	0.215
689	0.215
689	0.216
690	0.216
690	0.216
691	0.216
691	0.217
691	0.217
692	0.217
692	0.217
693	0.217
693	0.218
694	0.218
694	0.218
695	0.219
695	0.22
695	0.22
696	0.22
696	0.22
697	0.221
697	0.221
698	0.22
698	0.22
698	0.22
699	0.22
699	0.22
700	0.219
700	0.219
701	0.218
701	0.218
702	0.217
702	0.217
702	0.217
703	0.216
703	0.216
704	0.216
704	0.216
705	0.216
705	0.217
705	0.217
706	0.217
706	0.218
707	0.218
707	0.218
708	0.218
708	0.219
709	0.219
709	0.219
709	0.218
710	0.218
710	0.218
711	0.218
711	0.218
712	0.219
712	0.219
713	0.219
713	0.219
713	0.219
714	0.219
714	0.22
715	0.22
715	0.22
716	0.22
716	0.22
716	0.219
717	0.219
717	0.218
718	0.218
718	0.217
719	0.218
719	0.218
720	0.218
720	0.218
720	0.219
721	0.219
721	0.22
722	0.221
722	0.221
723	0.221
723	0.222
723	0.222
724	0.222
724	0.222
725	0.221
725	0.22
726	0.219
726	0.219
727	0.219
727	0.218
727	0.219
728	0.218
728	0.219
729	0.219
729	0.22
730	0.22
730	0.221
730	0.222
731	0.223
731	0.223
732	0.224
732	0.224
733	0.224
733	0.225
734	0.225
734	0.225
734	0.225
735	0.226
735	0.225
736	0.225
736	0.225
737	0.224
737	0.224
737	0.224
738	0.223
738	0.223
739	0.222
739	0.222
740	0.222
740	0.222
741	0.222
741	0.222
741	0.223
742	0.222
742	0.223
743	0.224
743	0.224
744	0.225
744	0.225
744	0.226
745	0.225
745	0.225
746	0.226
746	0.226
747	0.226
747	0.227
748	0.227
748	0.227
748	0.227
749	0.227
749	0.227
750	0.227
750	0.227
751	0.228
751	0.228
751	0.228
752	0.227
752	0.227
753	0.226
753	0.226
754	0.226
754	0.225
754	0.225
755	0.224
755	0.224
756	0.224
756	0.223
757	0.222
757	0.223
758	0.223
758	0.223
758	0.223
759	0.223
759	0.223
760	0.223
760	0.223
761	0.223
761	0.223
761	0.223
762	0.224
762	0.224
763	0.224
763	0.224
764	0.224
764	0.224
764	0.224
765	0.224
765	0.224
766	0.224
766	0.224
767	0.224
767	0.223
768	0.223
768	0.223
768	0.223
769	0.223
769	0.224
770	0.224
770	0.224
771	0.224
771	0.225
771	0.225
772	0.226
772	0.226
773	0.226
773	0.227
774	0.227
774	0.228
775	0.228
775	0.229
775	0.229
776	0.229
776	0.229
777	0.229
777	0.229
778	0.229
778	0.228
778	0.228
779	0.227
779	0.227
780	0.226
780	0.225
781	0.225
781	0.225
781	0.225
782	0.225
782	0.225
783	0.226
783	0.226
784	0.226
784	0.226
784	0.227
785	0.227
785	0.228
786	0.228
786	0.228
787	0.228
787	0.228
788	0.228
788	0.228
788	0.228
789	0.227
789	0.227
790	0.228
790	0.227
791	0.227
791	0.227
791	0.227
792	0.228
792	0.228
793	0.228
793	0.228
794	0.228
794	0.228
794	0.228
795	0.228
795	0.229
796	0.229
796	0.229
797	0.229
797	0.229
797	0.229
798	0.229
798	0.229
799	0.229
799	0.229
800	0.229
800	0.229
801	0.228
801	0.228
801	0.228
802	0.228
802	0.228
803	0.228
803	0.228
804	0.228
804	0.229
804	0.229
805	0.23
805	0.23
806	0.23
806	0.23
807	0.231
807	0.231
807	0.231
808	0.231
808	0.232
809	0.231
809	0.232
810	0.232
810	0.232
810	0.232
811	0.232
811	0.232
812	0.233
812	0.233
813	0.233
813	0.234
813	0.234
814	0.235
814	0.235
815	0.236
815	0.236
816	0.236
816	0.236
817	0.235
817	0.235
817	0.234
818	0.233
818	0.233
819	0.232
819	0.232
820	0.231
820	0.231
820	0.231
821	0.231
821	0.232
822	0.232
822	0.233
823	0.233
823	0.234
823	0.235
824	0.236
824	0.237
825	0.238
825	0.239
826	0.24
826	0.24
826	0.241
827	0.241
827	0.241
828	0.242
828	0.241
829	0.241
829	0.241
829	0.241
830	0.241
830	0.241
831	0.241
831	0.241
832	0.241
832	0.241
832	0.241
833	0.241
833	0.241
834	0.24
834	0.24
835	0.24
835	0.24
835	0.239
836	0.239
836	0.239
837	0.238
837	0.238
838	0.237
838	0.237
839	0.236
839	0.235
839	0.235
840	0.234
840	0.233
841	0.232
841	0.232
842	0.231
842	0.231
842	0.231
843	0.232
843	0.232
844	0.232
844	0.233
845	0.233
845	0.234
845	0.234
846	0.234
846	0.235
847	0.235
847	0.235
848	0.235
848	0.235
848	0.235
849	0.235
849	0.235
850	0.234
850	0.234
851	0.234
851	0.233
851	0.233
852	0.233
852	0.232
853	0.232
853	0.231
854	0.232
854	0.232
854	0.233
855	0.233
855	0.234
856	0.235
856	0.235
857	0.236
857	0.236
857	0.237
858	0.237
858	0.236
859	0.236
859	0.235
860	0.235
860	0.234
860	0.233
861	0.232
861	0.231
862	0.23
862	0.229
863	0.229
863	0.228
863	0.228
864	0.228
864	0.228
865	0.228
865	0.229
866	0.229
866	0.229
866	0.23
867	0.23
867	0.23
868	0.23
868	0.23
869	0.23
869	0.229
869	0.228
870	0.228
870	0.227
871	0.227
871	0.227
872	0.227
872	0.227
872	0.227
873	0.227
873	0.227
874	0.227
874	0.227
875	0.227
875	0.227
875	0.226
876	0.226
876	0.226
877	0.226
877	0.226
878	0.226
878	0.227
878	0.228
879	0.228
879	0.229
880	0.229
880	0.229
881	0.229
881	0.23
881	0.23
882	0.229
882	0.229
883	0.228
883	0.228
884	0.228
884	0.227
884	0.227
885	0.227
885	0.226
886	0.226
886	0.225
887	0.225
887	0.224
887	0.224
888	0.223
888	0.223
889	0.222
889	0.222
890	0.222
890	0.222
890	0.222
891	0.221
891	0.221
892	0.221
892	0.221
893	0.22
893	0.22
893	0.22
894	0.219
894	0.219
895	0.218
895	0.218
895	0.218
896	0.217
896	0.217
897	0.216
897	0.216
898	0.215
898	0.215
898	0.214
899	0.214
899	0.214
900	0.214
900	0.213
901	0.213
901	0.213
901	0.213
902	0.213
902	0.213
903	0.212
903	0.212
904	0.212
904	0.212
904	0.212
905	0.212
905	0.212
906	0.212
906	0.213
907	0.213
907	0.214
907	0.214
908	0.215
908	0.215
909	0.215
909	0.216
910	0.216
910	0.216
910	0.215
911	0.215
911	0.215
912	0.214
912	0.214
913	0.213
913	0.213
913	0.213
914	0.212
914	0.212
915	0.211
915	0.211
916	0.21
916	0.209
916	0.209
917	0.208
917	0.207
918	0.206
918	0.205
918	0.204
919	0.203
919	0.203
920	0.202
920	0.201
921	0.201
921	0.2
921	0.199
922	0.199
922	0.199
923	0.199
923	0.199
924	0.199
924	0.199
924	0.2
925	0.2
925	0.2
926	0.2
926	0.2
927	0.201
927	0.2
927	0.2
928	0.2
928	0.2
929	0.2
929	0.2
930	0.199
930	0.199
930	0.199
931	0.198
931	0.198
932	0.198
932	0.198
933	0.198
933	0.198
933	0.197
934	0.197
934	0.197
935	0.197
935	0.197
935	0.196
936	0.196
936	0.195
937	0.195
937	0.195
938	0.194
938	0.193
938	0.193
939	0.192
939	0.191
940	0.19
940	0.19
941	0.189
941	0.188
941	0.188
942	0.187
942	0.187
943	0.186
943	0.186
944	0.186
944	0.185
944	0.185
945	0.185
945	0.184
946	0.184
946	0.184
946	0.184
947	0.184
947	0.184
948	0.184
948	0.184
949	0.184
949	0.184
949	0.184
950	0.183
950	0.183
951	0.183
951	0.182
952	0.181
952	0.179
952	0.178
953	0.177
953	0.176
954	0.175
954	0.174
955	0.173
955	0.172
955	0.172
956	0.171
956	0.171
957	0.172
957	0.171
957	0.172
958	0.172
958	0.172
959	0.172
959	0.172
960	0.172
960	0.172
960	0.172
961	0.171
961	0.171
962	0.171
962	0.171
963	0.17
963	0.17
963	0.17
964	0.17
964	0.17
965	0.17
965	0.171
966	0.171
966	0.172
966	0.172
967	0.172
967	0.172
968	0.173
968	0.172
968	0.172
969	0.172
969	0.171
970	0.17
970	0.17
971	0.169
971	0.168
971	0.168
972	0.167
972	0.166
973	0.166
973	0.165
974	0.165
974	0.165
974	0.164
975	0.164
975	0.164
976	0.164
976	0.164
976	0.164
977	0.163
977	0.163
978	0.162
978	0.162
979	0.161
979	0.161
979	0.16
980	0.16
980	0.159
981	0.158
981	0.158
982	0.157
982	0.157
982	0.157
983	0.156
983	0.156
984	0.156
984	0.155
984	0.155
985	0.155
985	0.155
986	0.154
986	0.154
987	0.154
987	0.154
987	0.153
988	0.153
988	0.153
989	0.152
989	0.152
990	0.151
990	0.151
990	0.151
991	0.15
991	0.15
992	0.149
992	0.149
992	0.148
993	0.148
993	0.147
994	0.146
994	0.146
995	0.145
995	0.144
995	0.144
996	0.144
996	0.143
997	0.143
997	0.143
997	0.143
998	0.143
998	0.143
999	0.144
999	0.144
1000	0.145
1000	0.145
1000	0.145
1001	0.145
1001	0.145
1002	0.145
1002	0.144
1003	0.144
1003	0.144
1003	0.143
1004	0.143
1004	0.142
1005	0.141
1005	0.14
1005	0.14
1006	0.139
1006	0.139
1007	0.138
1007	0.138
1008	0.138
1008	0.138
1008	0.138
1009	0.138
1009	0.139
1010	0.139
1010	0.139
1010	0.14
1011	0.14
1011	0.14
1012	0.14
1012	0.14
1013	0.14
1013	0.14
1013	0.14
1014	0.139
1014	0.138
1015	0.138
1015	0.137
1016	0.136
1016	0.136
1016	0.135
1017	0.134
1017	0.134
1018	0.133
1018	0.132
1018	0.132
1019	0.132
1019	0.131
1020	0.131
1020	0.131
1021	0.131
1021	0.131
1021	0.131
1022	0.131
1022	0.131
1023	0.132
1023	0.132
1023	0.132
1024	0.132
1024	0.132
1025	0.132
1025	0.131
1026	0.131
1026	0.131
1026	0.13
1027	0.13
1027	0.13
1028	0.13
1028	0.129
1028	0.129
1029	0.129
1029	0.129
1030	0.129
1030	0.129
1031	0.129
1031	0.129
1031	0.129
1032	0.129
1032	0.129
1033	0.129
1033	0.128
1033	0.128
1034	0.128
1034	0.127
1035	0.127
1035	0.126
1036	0.126
1036	0.126
1036	0.126
1037	0.125
1037	0.125
1038	0.125
1038	0.124
1039	0.124
1039	0.124
1039	0.124
1040	0.124
1040	0.124
1041	0.124
1041	0.124
1041	0.124
1042	0.124
1042	0.124
1043	0.124
1043	0.124
1044	0.124
1044	0.124
1044	0.124
1045	0.124
1045	0.124
1046	0.125
1046	0.125
1046	0.125
1047	0.126
1047	0.126
1048	0.127
1048	0.127
1049	0.127
1049	0.127
1049	0.127
1050	0.127
1050	0.127
1051	0.127
1051	0.127
1051	0.126
1052	0.126
1052	0.125
1053	0.125
1053	0.124
1053	0.123
1054	0.123
1054	0.122
1055	0.122
1055	0.121
1056	0.12
1056	0.12
1056	0.119
1057	0.118
1057	0.118
1058	0.117
1058	0.116
1058	0.115
1059	0.114
1059	0.114
1060	0.113
1060	0.112
1061	0.112
1061	0.111
1061	0.111
1062	0.111
1062	0.11
1063	0.11
1063	0.11
1063	0.11
1064	0.109
1064	0.109
1065	0.109
1065	0.108
1066	0.108
1066	0.107
1066	0.107
1067	0.107
1067	0.106
1068	0.106
1068	0.106
1068	0.105
1069	0.105
1069	0.105
1070	0.104
1070	0.104
1071	0.103
1071	0.103
1071	0.102
1072	0.102
1072	0.101
1073	0.1
1073	0.099
1073	0.099
1074	0.099
1074	0.098
1075	0.098
1075	0.098
1076	0.098
1076	0.099
1076	0.099
1077	0.099
1077	0.099
1078	0.099
1078	0.099
1078	0.099
1079	0.098
1079	0.098
1080	0.097
1080	0.097
1080	0.097
1081	0.097
1081	0.097
1082	0.097
1082	0.097
1083	0.098
1083	0.098
1083	0.098
1084	0.098
1084	0.098
1085	0.098
1085	0.098
1085	0.097
1086	0.097
1086	0.096
1087	0.096
1087	0.095
1088	0.095
1088	0.095
1088	0.095
1089	0.094
1089	0.093
1090	0.092
1090	0.092
1090	0.091
1091	0.091
1091	0.09
1092	0.091
1092	0.091
1092	0.09
1093	0.089
1093	0.09
1094	0.09
1094	0.089
1095	0.089
1095	0.089
1095	0.089
1096	0.088
1096	0.087
1097	0.087
1097	0.086
1097	0.087
1098	0.086
1098	0.085
1099	0.085
1099	0.084
1100	0.083
1100	0.082
1100	0.081
1101	0.08
1101	0.079
1102	0.078
1102	0.077
1102	0.076
1103	0.076
1103	0.076
1104	0.076
1104	0.076
1104	0.075
1105	0.074
1105	0.073
1106	0.072
1106	0.071
1107	0.071
1107	0.07
1107	0.071
1108	0.07
1108	0.068
1109	0.067
1109	0.066
1109	0.067
1110	0.069
1110	0.068
1111	0.069
1111	0.068
