Data from reversibility-20sec_Absorbance__1396__000000000001396.txt Node

Date: Tue Dec 05 19:58:26 CET 2023
User: Marek
Spectrometer: MAYP115816
Trigger mode: 0
Integration Time (sec): 2.000000E-1
Scans to average: 10
Electric dark correction enabled: true
Nonlinearity correction enabled: true
Boxcar width: 5
XAxis mode: Wavelengths
Number of Pixels in Spectrum: 2068
>>>>>Begin Spectral Data<<<<<
199	-0.207
199	-0.174
200	-0.114
200	-0.061
201	-0.03
201	-0.014
202	0.001
202	0.01
203	0.018
203	0.021
204	0.035
204	0.05
205	0.063
205	0.07
205	0.068
206	0.07
206	0.07
207	0.069
207	0.068
208	0.068
208	0.065
209	0.067
209	0.064
210	0.062
210	0.064
211	0.063
211	0.063
212	0.063
212	0.068
213	0.072
213	0.073
213	0.075
214	0.078
214	0.078
215	0.081
215	0.08
216	0.084
216	0.082
217	0.086
217	0.087
218	0.087
218	0.091
219	0.096
219	0.095
220	0.1
220	0.099
221	0.101
221	0.101
221	0.106
222	0.11
222	0.111
223	0.115
223	0.115
224	0.119
224	0.128
225	0.138
225	0.151
226	0.162
226	0.173
227	0.182
227	0.191
228	0.208
228	0.226
229	0.248
229	0.269
229	0.294
230	0.318
230	0.346
231	0.378
231	0.419
232	0.458
232	0.504
233	0.549
233	0.597
234	0.645
234	0.7
235	0.753
235	0.804
236	0.856
236	0.91
236	0.962
237	1.015
237	1.063
238	1.112
238	1.164
239	1.215
239	1.26
240	1.303
240	1.343
241	1.382
241	1.421
242	1.456
242	1.492
243	1.53
243	1.557
243	1.585
244	1.612
244	1.637
245	1.659
245	1.688
246	1.711
246	1.732
247	1.751
247	1.77
248	1.785
248	1.805
249	1.819
249	1.828
250	1.84
250	1.854
250	1.862
251	1.869
251	1.873
252	1.883
252	1.888
253	1.893
253	1.893
254	1.897
254	1.902
255	1.902
255	1.905
256	1.905
256	1.906
257	1.912
257	1.913
258	1.913
258	1.914
258	1.917
259	1.918
259	1.919
260	1.922
260	1.924
261	1.928
261	1.936
262	1.938
262	1.942
263	1.95
263	1.955
264	1.959
264	1.962
265	1.968
265	1.971
265	1.974
266	1.977
266	1.978
267	1.979
267	1.98
268	1.979
268	1.98
269	1.984
269	1.985
270	1.985
270	1.985
271	1.983
271	1.982
272	1.98
272	1.979
272	1.977
273	1.971
273	1.965
274	1.958
274	1.951
275	1.944
275	1.939
276	1.932
276	1.926
277	1.919
277	1.909
278	1.897
278	1.886
278	1.872
279	1.856
279	1.836
280	1.81
280	1.777
281	1.738
281	1.696
282	1.651
282	1.608
283	1.563
283	1.521
284	1.48
284	1.44
285	1.403
285	1.369
285	1.339
286	1.312
286	1.288
287	1.268
287	1.251
288	1.236
288	1.222
289	1.211
289	1.201
290	1.193
290	1.185
291	1.179
291	1.173
292	1.168
292	1.163
292	1.158
293	1.154
293	1.15
294	1.147
294	1.144
295	1.14
295	1.138
296	1.135
296	1.132
297	1.129
297	1.126
298	1.123
298	1.12
298	1.117
299	1.115
299	1.112
300	1.109
300	1.106
301	1.102
301	1.1
302	1.096
302	1.094
303	1.091
303	1.089
304	1.086
304	1.084
305	1.081
305	1.078
305	1.076
306	1.073
306	1.07
307	1.068
307	1.065
308	1.062
308	1.059
309	1.056
309	1.052
310	1.049
310	1.046
311	1.043
311	1.039
311	1.036
312	1.032
312	1.028
313	1.024
313	1.02
314	1.016
314	1.012
315	1.007
315	1.003
316	0.998
316	0.993
317	0.988
317	0.983
318	0.978
318	0.973
318	0.967
319	0.961
319	0.956
320	0.95
320	0.943
321	0.937
321	0.931
322	0.925
322	0.918
323	0.911
323	0.904
324	0.898
324	0.891
324	0.884
325	0.877
325	0.87
326	0.863
326	0.856
327	0.849
327	0.842
328	0.835
328	0.828
329	0.82
329	0.813
330	0.806
330	0.798
330	0.791
331	0.783
331	0.776
332	0.769
332	0.762
333	0.754
333	0.747
334	0.74
334	0.733
335	0.726
335	0.719
336	0.712
336	0.705
336	0.699
337	0.692
337	0.686
338	0.679
338	0.673
339	0.666
339	0.66
340	0.654
340	0.648
341	0.642
341	0.636
342	0.631
342	0.625
342	0.62
343	0.614
343	0.609
344	0.604
344	0.599
345	0.594
345	0.589
346	0.584
346	0.58
347	0.575
347	0.571
348	0.566
348	0.562
348	0.558
349	0.554
349	0.55
350	0.547
350	0.543
351	0.54
351	0.536
352	0.533
352	0.529
353	0.526
353	0.523
354	0.52
354	0.517
354	0.514
355	0.511
355	0.508
356	0.505
356	0.502
357	0.498
357	0.495
358	0.492
358	0.49
359	0.487
359	0.484
360	0.482
360	0.48
360	0.478
361	0.475
361	0.473
362	0.472
362	0.47
363	0.468
363	0.466
364	0.464
364	0.461
365	0.46
365	0.457
366	0.455
366	0.453
366	0.451
367	0.449
367	0.447
368	0.445
368	0.444
369	0.442
369	0.44
370	0.438
370	0.437
371	0.435
371	0.433
372	0.432
372	0.43
372	0.429
373	0.427
373	0.426
374	0.425
374	0.424
375	0.423
375	0.421
376	0.42
376	0.419
377	0.418
377	0.417
378	0.415
378	0.414
378	0.413
379	0.412
379	0.411
380	0.41
380	0.408
381	0.407
381	0.406
382	0.405
382	0.405
383	0.404
383	0.403
383	0.402
384	0.401
384	0.4
385	0.399
385	0.399
386	0.398
386	0.397
387	0.396
387	0.395
388	0.394
388	0.394
389	0.393
389	0.392
389	0.392
390	0.391
390	0.39
391	0.39
391	0.389
392	0.389
392	0.388
393	0.387
393	0.387
394	0.386
394	0.385
394	0.385
395	0.384
395	0.383
396	0.382
396	0.382
397	0.381
397	0.38
398	0.38
398	0.379
399	0.378
399	0.378
400	0.377
400	0.377
400	0.376
401	0.376
401	0.375
402	0.375
402	0.374
403	0.374
403	0.373
404	0.373
404	0.373
405	0.372
405	0.372
405	0.371
406	0.37
406	0.37
407	0.369
407	0.368
408	0.368
408	0.367
409	0.367
409	0.366
410	0.366
410	0.366
411	0.365
411	0.365
411	0.364
412	0.364
412	0.363
413	0.363
413	0.363
414	0.362
414	0.362
415	0.361
415	0.361
416	0.36
416	0.36
416	0.359
417	0.359
417	0.358
418	0.358
418	0.358
419	0.357
419	0.357
420	0.356
420	0.356
421	0.355
421	0.355
421	0.355
422	0.354
422	0.354
423	0.353
423	0.353
424	0.352
424	0.352
425	0.351
425	0.351
426	0.351
426	0.35
427	0.35
427	0.35
427	0.349
428	0.349
428	0.349
429	0.349
429	0.348
430	0.348
430	0.348
431	0.348
431	0.347
432	0.347
432	0.347
432	0.346
433	0.346
433	0.346
434	0.346
434	0.345
435	0.345
435	0.345
436	0.345
436	0.345
437	0.344
437	0.344
437	0.344
438	0.344
438	0.343
439	0.343
439	0.343
440	0.343
440	0.343
441	0.342
441	0.342
442	0.342
442	0.342
442	0.342
443	0.341
443	0.341
444	0.341
444	0.341
445	0.341
445	0.341
446	0.341
446	0.341
447	0.341
447	0.34
447	0.34
448	0.34
448	0.34
449	0.34
449	0.34
450	0.34
450	0.339
451	0.339
451	0.339
452	0.339
452	0.339
452	0.339
453	0.339
453	0.339
454	0.339
454	0.339
455	0.339
455	0.339
456	0.339
456	0.338
457	0.338
457	0.338
458	0.339
458	0.339
458	0.339
459	0.339
459	0.339
460	0.339
460	0.339
461	0.339
461	0.339
462	0.339
462	0.339
463	0.339
463	0.339
463	0.339
464	0.339
464	0.339
465	0.339
465	0.339
466	0.34
466	0.34
467	0.34
467	0.34
467	0.341
468	0.341
468	0.341
469	0.342
469	0.342
470	0.343
470	0.343
471	0.343
471	0.343
472	0.344
472	0.344
472	0.345
473	0.345
473	0.345
474	0.346
474	0.346
475	0.346
475	0.347
476	0.347
476	0.348
477	0.348
477	0.349
477	0.35
478	0.35
478	0.351
479	0.352
479	0.353
480	0.353
480	0.354
481	0.354
481	0.355
482	0.356
482	0.357
482	0.357
483	0.358
483	0.36
484	0.361
484	0.361
485	0.362
485	0.363
486	0.364
486	0.364
487	0.365
487	0.366
487	0.368
488	0.368
488	0.369
489	0.37
489	0.373
490	0.374
490	0.375
491	0.377
491	0.378
492	0.38
492	0.381
492	0.382
493	0.383
493	0.385
494	0.387
494	0.388
495	0.39
495	0.391
496	0.392
496	0.394
496	0.395
497	0.397
497	0.398
498	0.399
498	0.401
499	0.402
499	0.404
500	0.406
500	0.408
501	0.409
501	0.411
501	0.412
502	0.414
502	0.415
503	0.417
503	0.418
504	0.419
504	0.421
505	0.422
505	0.423
506	0.425
506	0.426
506	0.427
507	0.429
507	0.43
508	0.431
508	0.432
509	0.434
509	0.435
510	0.436
510	0.438
511	0.439
511	0.44
511	0.442
512	0.443
512	0.444
513	0.445
513	0.446
514	0.447
514	0.448
515	0.449
515	0.45
515	0.451
516	0.452
516	0.452
517	0.453
517	0.454
518	0.454
518	0.454
519	0.454
519	0.455
520	0.455
520	0.455
520	0.455
521	0.455
521	0.455
522	0.455
522	0.454
523	0.454
523	0.454
524	0.454
524	0.453
524	0.453
525	0.453
525	0.452
526	0.451
526	0.451
527	0.45
527	0.45
528	0.449
528	0.448
529	0.446
529	0.445
529	0.444
530	0.443
530	0.441
531	0.44
531	0.439
532	0.437
532	0.435
533	0.434
533	0.432
533	0.431
534	0.429
534	0.428
535	0.426
535	0.425
536	0.423
536	0.421
537	0.419
537	0.418
538	0.416
538	0.414
538	0.412
539	0.41
539	0.408
540	0.406
540	0.403
541	0.401
541	0.398
542	0.396
542	0.394
542	0.392
543	0.389
543	0.387
544	0.384
544	0.382
545	0.38
545	0.378
546	0.375
546	0.373
547	0.37
547	0.368
547	0.365
548	0.363
548	0.361
549	0.358
549	0.356
550	0.353
550	0.351
551	0.348
551	0.345
551	0.343
552	0.34
552	0.338
553	0.335
553	0.333
554	0.33
554	0.328
555	0.326
555	0.323
556	0.321
556	0.318
556	0.316
557	0.314
557	0.312
558	0.31
558	0.308
559	0.306
559	0.304
560	0.302
560	0.3
560	0.298
561	0.296
561	0.294
562	0.291
562	0.289
563	0.286
563	0.284
564	0.281
564	0.279
564	0.277
565	0.275
565	0.274
566	0.271
566	0.269
567	0.268
567	0.266
568	0.265
568	0.263
568	0.261
569	0.26
569	0.258
570	0.256
570	0.254
571	0.252
571	0.251
572	0.249
572	0.247
573	0.246
573	0.244
573	0.242
574	0.24
574	0.239
575	0.238
575	0.237
576	0.235
576	0.233
577	0.231
577	0.23
577	0.229
578	0.228
578	0.226
579	0.226
579	0.225
580	0.223
580	0.221
581	0.219
581	0.218
581	0.217
582	0.216
582	0.216
583	0.215
583	0.213
584	0.212
584	0.209
585	0.208
585	0.207
585	0.206
586	0.205
586	0.203
587	0.202
587	0.2
588	0.199
588	0.197
589	0.196
589	0.196
590	0.195
590	0.194
590	0.194
591	0.194
591	0.192
592	0.191
592	0.19
593	0.189
593	0.188
594	0.187
594	0.186
594	0.185
595	0.184
595	0.183
596	0.182
596	0.181
597	0.181
597	0.181
598	0.18
598	0.179
598	0.179
599	0.178
599	0.177
600	0.176
600	0.175
601	0.174
601	0.173
602	0.172
602	0.171
602	0.171
603	0.17
603	0.17
604	0.169
604	0.168
605	0.168
605	0.168
606	0.167
606	0.165
606	0.165
607	0.164
607	0.163
608	0.162
608	0.161
609	0.16
609	0.16
610	0.159
610	0.158
610	0.158
611	0.158
611	0.157
612	0.157
612	0.157
613	0.157
613	0.156
614	0.156
614	0.155
614	0.154
615	0.154
615	0.153
616	0.153
616	0.152
617	0.152
617	0.151
618	0.151
618	0.15
618	0.15
619	0.15
619	0.15
620	0.149
620	0.149
621	0.148
621	0.147
622	0.146
622	0.146
622	0.145
623	0.144
623	0.144
624	0.143
624	0.142
625	0.141
625	0.141
626	0.14
626	0.139
626	0.139
627	0.138
627	0.138
628	0.137
628	0.137
629	0.137
629	0.136
630	0.136
630	0.135
630	0.135
631	0.135
631	0.134
632	0.134
632	0.134
633	0.134
633	0.134
634	0.134
634	0.134
634	0.134
635	0.134
635	0.134
636	0.134
636	0.133
637	0.133
637	0.132
638	0.132
638	0.131
638	0.13
639	0.13
639	0.129
640	0.129
640	0.129
641	0.128
641	0.128
642	0.127
642	0.127
642	0.127
643	0.127
643	0.127
644	0.127
644	0.126
645	0.126
645	0.126
646	0.126
646	0.126
646	0.125
647	0.125
647	0.125
648	0.124
648	0.123
649	0.123
649	0.123
650	0.123
650	0.122
650	0.122
651	0.122
651	0.122
652	0.121
652	0.121
653	0.121
653	0.123
653	0.13
654	0.104
654	0.084
655	0.083
655	0.083
656	0.083
656	0.083
657	0.083
657	0.083
657	0.083
658	0.081
658	0.072
659	0.09
659	0.114
660	0.118
660	0.118
661	0.117
661	0.116
661	0.116
662	0.116
662	0.115
663	0.115
663	0.115
664	0.114
664	0.114
665	0.114
665	0.113
665	0.113
666	0.113
666	0.113
667	0.112
667	0.112
668	0.112
668	0.112
669	0.112
669	0.112
669	0.112
670	0.112
670	0.112
671	0.112
671	0.112
672	0.112
672	0.111
672	0.111
673	0.111
673	0.111
674	0.11
674	0.11
675	0.109
675	0.109
676	0.109
676	0.11
676	0.109
677	0.109
677	0.109
678	0.109
678	0.108
679	0.108
679	0.108
680	0.108
680	0.108
680	0.107
681	0.107
681	0.107
682	0.108
682	0.108
683	0.108
683	0.109
684	0.109
684	0.109
684	0.108
685	0.108
685	0.108
686	0.108
686	0.108
687	0.107
687	0.107
687	0.107
688	0.106
688	0.106
689	0.106
689	0.106
690	0.106
690	0.106
691	0.105
691	0.106
691	0.106
692	0.106
692	0.106
693	0.106
693	0.106
694	0.106
694	0.106
695	0.106
695	0.107
695	0.107
696	0.107
696	0.107
697	0.106
697	0.106
698	0.105
698	0.105
698	0.104
699	0.104
699	0.104
700	0.103
700	0.103
701	0.103
701	0.103
702	0.103
702	0.103
702	0.103
703	0.102
703	0.102
704	0.102
704	0.101
705	0.101
705	0.101
705	0.1
706	0.1
706	0.1
707	0.099
707	0.099
708	0.099
708	0.099
709	0.099
709	0.099
709	0.098
710	0.098
710	0.098
711	0.098
711	0.098
712	0.098
712	0.098
713	0.098
713	0.098
713	0.098
714	0.098
714	0.098
715	0.098
715	0.098
716	0.098
716	0.098
716	0.097
717	0.097
717	0.097
718	0.096
718	0.096
719	0.096
719	0.096
720	0.097
720	0.097
720	0.097
721	0.097
721	0.098
722	0.098
722	0.099
723	0.099
723	0.099
723	0.099
724	0.099
724	0.098
725	0.097
725	0.097
726	0.096
726	0.095
727	0.094
727	0.094
727	0.093
728	0.093
728	0.092
729	0.092
729	0.092
730	0.091
730	0.091
730	0.091
731	0.091
731	0.091
732	0.091
732	0.09
733	0.09
733	0.09
734	0.089
734	0.089
734	0.089
735	0.089
735	0.089
736	0.089
736	0.089
737	0.089
737	0.089
737	0.089
738	0.089
738	0.088
739	0.087
739	0.087
740	0.086
740	0.086
741	0.085
741	0.085
741	0.084
742	0.083
742	0.083
743	0.084
743	0.084
744	0.084
744	0.085
744	0.085
745	0.085
745	0.086
746	0.086
746	0.086
747	0.086
747	0.087
748	0.087
748	0.087
748	0.087
749	0.086
749	0.086
750	0.086
750	0.085
751	0.085
751	0.085
751	0.084
752	0.084
752	0.083
753	0.083
753	0.083
754	0.083
754	0.083
754	0.083
755	0.083
755	0.083
756	0.082
756	0.081
757	0.081
757	0.08
758	0.08
758	0.079
758	0.079
759	0.078
759	0.078
760	0.077
760	0.077
761	0.077
761	0.077
761	0.078
762	0.078
762	0.078
763	0.078
763	0.077
764	0.077
764	0.076
764	0.076
765	0.075
765	0.074
766	0.074
766	0.073
767	0.072
767	0.071
768	0.07
768	0.069
768	0.069
769	0.069
769	0.069
770	0.069
770	0.069
771	0.069
771	0.069
771	0.07
772	0.07
772	0.071
773	0.071
773	0.071
774	0.071
774	0.072
775	0.072
775	0.072
775	0.072
776	0.072
776	0.072
777	0.072
777	0.072
778	0.072
778	0.071
778	0.071
779	0.071
779	0.07
780	0.069
780	0.068
781	0.067
781	0.067
781	0.066
782	0.066
782	0.065
783	0.065
783	0.065
784	0.065
784	0.065
784	0.066
785	0.066
785	0.066
786	0.067
786	0.067
787	0.067
787	0.067
788	0.067
788	0.067
788	0.067
789	0.066
789	0.066
790	0.066
790	0.066
791	0.066
791	0.065
791	0.065
792	0.066
792	0.065
793	0.065
793	0.065
794	0.064
794	0.064
794	0.063
795	0.063
795	0.063
796	0.063
796	0.063
797	0.062
797	0.062
797	0.062
798	0.062
798	0.063
799	0.062
799	0.062
800	0.062
800	0.062
801	0.062
801	0.062
801	0.062
802	0.062
802	0.062
803	0.062
803	0.063
804	0.063
804	0.063
804	0.063
805	0.063
805	0.062
806	0.062
806	0.061
807	0.061
807	0.06
807	0.06
808	0.059
808	0.059
809	0.058
809	0.058
810	0.058
810	0.058
810	0.058
811	0.058
811	0.059
812	0.059
812	0.06
813	0.06
813	0.06
813	0.061
814	0.061
814	0.061
815	0.062
815	0.062
816	0.063
816	0.062
817	0.062
817	0.062
817	0.061
818	0.061
818	0.06
819	0.06
819	0.059
820	0.058
820	0.057
820	0.057
821	0.057
821	0.056
822	0.056
822	0.056
823	0.057
823	0.057
823	0.058
824	0.059
824	0.06
825	0.06
825	0.061
826	0.061
826	0.061
826	0.061
827	0.061
827	0.061
828	0.06
828	0.06
829	0.059
829	0.059
829	0.059
830	0.058
830	0.058
831	0.059
831	0.059
832	0.058
832	0.059
832	0.059
833	0.059
833	0.059
834	0.059
834	0.059
835	0.059
835	0.059
835	0.059
836	0.06
836	0.06
837	0.06
837	0.06
838	0.059
838	0.059
839	0.058
839	0.057
839	0.056
840	0.055
840	0.054
841	0.053
841	0.052
842	0.051
842	0.051
842	0.05
843	0.05
843	0.05
844	0.05
844	0.05
845	0.05
845	0.05
845	0.05
846	0.05
846	0.05
847	0.05
847	0.05
848	0.05
848	0.051
848	0.051
849	0.052
849	0.052
850	0.052
850	0.052
851	0.052
851	0.052
851	0.051
852	0.05
852	0.05
853	0.049
853	0.048
854	0.048
854	0.048
854	0.048
855	0.048
855	0.048
856	0.048
856	0.048
857	0.049
857	0.049
857	0.05
858	0.05
858	0.05
859	0.049
859	0.049
860	0.048
860	0.047
860	0.047
861	0.046
861	0.045
862	0.045
862	0.044
863	0.043
863	0.043
863	0.043
864	0.043
864	0.043
865	0.044
865	0.044
866	0.044
866	0.043
866	0.043
867	0.043
867	0.044
868	0.044
868	0.044
869	0.044
869	0.044
869	0.044
870	0.044
870	0.044
871	0.045
871	0.045
872	0.046
872	0.046
872	0.047
873	0.047
873	0.047
874	0.047
874	0.047
875	0.047
875	0.047
875	0.047
876	0.047
876	0.047
877	0.048
877	0.048
878	0.049
878	0.05
878	0.052
879	0.052
879	0.053
880	0.053
880	0.053
881	0.053
881	0.052
881	0.052
882	0.05
882	0.049
883	0.048
883	0.046
884	0.045
884	0.044
884	0.043
885	0.042
885	0.041
886	0.041
886	0.041
887	0.04
887	0.04
887	0.04
888	0.039
888	0.039
889	0.039
889	0.039
890	0.039
890	0.039
890	0.039
891	0.039
891	0.039
892	0.04
892	0.04
893	0.041
893	0.041
893	0.042
894	0.042
894	0.043
895	0.043
895	0.043
895	0.044
896	0.044
896	0.044
897	0.044
897	0.044
898	0.044
898	0.044
898	0.044
899	0.044
899	0.044
900	0.044
900	0.044
901	0.044
901	0.044
901	0.044
902	0.044
902	0.044
903	0.043
903	0.043
904	0.043
904	0.042
904	0.042
905	0.041
905	0.041
906	0.041
906	0.041
907	0.042
907	0.043
907	0.044
908	0.044
908	0.045
909	0.046
909	0.046
910	0.047
910	0.047
910	0.047
911	0.047
911	0.047
912	0.047
912	0.046
913	0.046
913	0.045
913	0.045
914	0.045
914	0.044
915	0.044
915	0.044
916	0.043
916	0.042
916	0.042
917	0.041
917	0.04
918	0.039
918	0.038
918	0.037
919	0.036
919	0.036
920	0.036
920	0.036
921	0.036
921	0.037
921	0.037
922	0.038
922	0.039
923	0.039
923	0.04
924	0.041
924	0.041
924	0.042
925	0.042
925	0.042
926	0.042
926	0.042
927	0.042
927	0.042
927	0.041
928	0.041
928	0.041
929	0.041
929	0.041
930	0.04
930	0.04
930	0.04
931	0.04
931	0.04
932	0.04
932	0.04
933	0.04
933	0.04
933	0.041
934	0.041
934	0.041
935	0.041
935	0.041
935	0.041
936	0.04
936	0.04
937	0.04
937	0.04
938	0.039
938	0.039
938	0.039
939	0.039
939	0.039
940	0.039
940	0.04
941	0.04
941	0.041
941	0.041
942	0.042
942	0.042
943	0.043
943	0.043
944	0.043
944	0.044
944	0.044
945	0.044
945	0.044
946	0.044
946	0.044
946	0.043
947	0.043
947	0.043
948	0.043
948	0.043
949	0.043
949	0.043
949	0.042
950	0.042
950	0.042
951	0.042
951	0.041
952	0.041
952	0.041
952	0.04
953	0.04
953	0.04
954	0.039
954	0.039
955	0.039
955	0.039
955	0.039
956	0.039
956	0.04
957	0.04
957	0.04
957	0.041
958	0.041
958	0.041
959	0.042
959	0.042
960	0.042
960	0.042
960	0.042
961	0.042
961	0.043
962	0.043
962	0.043
963	0.043
963	0.043
963	0.043
964	0.044
964	0.044
965	0.044
965	0.044
966	0.044
966	0.044
966	0.044
967	0.044
967	0.044
968	0.044
968	0.044
968	0.044
969	0.044
969	0.044
970	0.043
970	0.043
971	0.043
971	0.043
971	0.043
972	0.044
972	0.044
973	0.044
973	0.044
974	0.044
974	0.044
974	0.044
975	0.044
975	0.044
976	0.044
976	0.044
976	0.044
977	0.044
977	0.044
978	0.043
978	0.043
979	0.043
979	0.043
979	0.043
980	0.043
980	0.043
981	0.042
981	0.042
982	0.042
982	0.042
982	0.042
983	0.042
983	0.041
984	0.041
984	0.04
984	0.04
985	0.039
985	0.039
986	0.038
986	0.038
987	0.038
987	0.037
987	0.037
988	0.036
988	0.036
989	0.036
989	0.035
990	0.035
990	0.035
990	0.034
991	0.034
991	0.034
992	0.034
992	0.034
992	0.033
993	0.033
993	0.033
994	0.033
994	0.032
995	0.032
995	0.032
995	0.032
996	0.032
996	0.032
997	0.033
997	0.033
997	0.034
998	0.035
998	0.035
999	0.036
999	0.037
1000	0.038
1000	0.039
1000	0.04
1001	0.04
1001	0.041
1002	0.041
1002	0.041
1003	0.041
1003	0.04
1003	0.04
1004	0.039
1004	0.039
1005	0.038
1005	0.038
1005	0.038
1006	0.037
1006	0.037
1007	0.037
1007	0.037
1008	0.037
1008	0.037
1008	0.038
1009	0.038
1009	0.038
1010	0.038
1010	0.039
1010	0.039
1011	0.039
1011	0.039
1012	0.039
1012	0.039
1013	0.039
1013	0.038
1013	0.038
1014	0.038
1014	0.037
1015	0.037
1015	0.036
1016	0.036
1016	0.036
1016	0.035
1017	0.035
1017	0.034
1018	0.034
1018	0.034
1018	0.033
1019	0.033
1019	0.033
1020	0.033
1020	0.033
1021	0.032
1021	0.032
1021	0.032
1022	0.033
1022	0.033
1023	0.033
1023	0.033
1023	0.033
1024	0.033
1024	0.033
1025	0.033
1025	0.033
1026	0.033
1026	0.033
1026	0.033
1027	0.033
1027	0.032
1028	0.032
1028	0.032
1028	0.032
1029	0.031
1029	0.031
1030	0.031
1030	0.031
1031	0.032
1031	0.032
1031	0.032
1032	0.032
1032	0.033
1033	0.033
1033	0.033
1033	0.033
1034	0.033
1034	0.032
1035	0.032
1035	0.032
1036	0.032
1036	0.032
1036	0.032
1037	0.032
1037	0.032
1038	0.032
1038	0.033
1039	0.033
1039	0.033
1039	0.034
1040	0.034
1040	0.034
1041	0.034
1041	0.034
1041	0.034
1042	0.034
1042	0.034
1043	0.034
1043	0.034
1044	0.034
1044	0.034
1044	0.034
1045	0.034
1045	0.035
1046	0.035
1046	0.035
1046	0.036
1047	0.037
1047	0.037
1048	0.038
1048	0.038
1049	0.039
1049	0.039
1049	0.039
1050	0.039
1050	0.038
1051	0.038
1051	0.037
1051	0.036
1052	0.035
1052	0.034
1053	0.033
1053	0.032
1053	0.031
1054	0.03
1054	0.03
1055	0.029
1055	0.029
1056	0.028
1056	0.028
1056	0.027
1057	0.027
1057	0.027
1058	0.026
1058	0.026
1058	0.025
1059	0.025
1059	0.024
1060	0.024
1060	0.024
1061	0.024
1061	0.024
1061	0.024
1062	0.024
1062	0.024
1063	0.025
1063	0.025
1063	0.025
1064	0.025
1064	0.025
1065	0.025
1065	0.025
1066	0.025
1066	0.025
1066	0.024
1067	0.024
1067	0.024
1068	0.023
1068	0.023
1068	0.023
1069	0.022
1069	0.022
1070	0.021
1070	0.02
1071	0.02
1071	0.019
1071	0.018
1072	0.018
1072	0.017
1073	0.017
1073	0.016
1073	0.016
1074	0.016
1074	0.017
1075	0.017
1075	0.017
1076	0.018
1076	0.019
1076	0.019
1077	0.02
1077	0.02
1078	0.019
1078	0.02
1078	0.02
1079	0.019
1079	0.019
1080	0.018
1080	0.018
1080	0.018
1081	0.017
1081	0.017
1082	0.018
1082	0.018
1083	0.017
1083	0.017
1083	0.017
1084	0.017
1084	0.017
1085	0.017
1085	0.016
1085	0.016
1086	0.016
1086	0.016
1087	0.015
1087	0.015
1088	0.015
1088	0.015
1088	0.015
1089	0.015
1089	0.014
1090	0.013
1090	0.013
1090	0.012
1091	0.012
1091	0.012
1092	0.012
1092	0.012
1092	0.012
1093	0.012
1093	0.012
1094	0.013
1094	0.013
1095	0.013
1095	0.013
1095	0.014
1096	0.013
1096	0.013
1097	0.012
1097	0.012
1097	0.011
1098	0.01
1098	0.009
1099	0.009
1099	0.008
1100	0.007
1100	0.005
1100	0.004
1101	0.003
1101	0.002
1102	0.002
1102	0.002
1102	0.001
1103	0
1103	-0
1104	-0.001
1104	-0.001
1104	-0.001
1105	-0.001
1105	-0.002
1106	-0.004
1106	-0.004
1107	-0.006
1107	-0.005
1107	-0.006
1108	-0.007
1108	-0.008
1109	-0.009
1109	-0.01
1109	-0.009
1110	-0.008
1110	-0.009
1111	-0.01
1111	-0.008
