Data from reversibility-20sec_Absorbance__6688__000000000006688.txt Node

Date: Thu Dec 07 01:22:26 CET 2023
User: Marek
Spectrometer: MAYP115816
Trigger mode: 0
Integration Time (sec): 2.000000E-1
Scans to average: 10
Electric dark correction enabled: true
Nonlinearity correction enabled: true
Boxcar width: 5
XAxis mode: Wavelengths
Number of Pixels in Spectrum: 2068
>>>>>Begin Spectral Data<<<<<
199	-0.108
199	-0.088
200	-0.029
200	0.018
201	0.05
201	0.066
202	0.075
202	0.084
203	0.092
203	0.094
204	0.104
204	0.116
205	0.128
205	0.134
205	0.134
206	0.132
206	0.134
207	0.136
207	0.136
208	0.133
208	0.132
209	0.138
209	0.135
210	0.135
210	0.136
211	0.136
211	0.138
212	0.133
212	0.133
213	0.136
213	0.139
213	0.143
214	0.143
214	0.145
215	0.148
215	0.146
216	0.149
216	0.15
217	0.155
217	0.159
218	0.157
218	0.161
219	0.165
219	0.169
220	0.172
220	0.171
221	0.174
221	0.176
221	0.179
222	0.184
222	0.187
223	0.192
223	0.195
224	0.195
224	0.201
225	0.207
225	0.218
226	0.228
226	0.236
227	0.248
227	0.256
228	0.271
228	0.288
229	0.302
229	0.329
229	0.353
230	0.38
230	0.409
231	0.44
231	0.478
232	0.516
232	0.561
233	0.603
233	0.648
234	0.702
234	0.755
235	0.806
235	0.856
236	0.909
236	0.959
236	1.01
237	1.059
237	1.105
238	1.15
238	1.198
239	1.242
239	1.281
240	1.322
240	1.361
241	1.396
241	1.431
242	1.46
242	1.493
243	1.525
243	1.553
243	1.577
244	1.598
244	1.619
245	1.636
245	1.657
246	1.674
246	1.694
247	1.707
247	1.722
248	1.736
248	1.75
249	1.76
249	1.765
250	1.773
250	1.78
250	1.783
251	1.787
251	1.788
252	1.793
252	1.793
253	1.793
253	1.788
254	1.787
254	1.789
255	1.787
255	1.786
256	1.785
256	1.785
257	1.784
257	1.783
258	1.781
258	1.781
258	1.78
259	1.781
259	1.782
260	1.782
260	1.784
261	1.786
261	1.787
262	1.79
262	1.792
263	1.795
263	1.797
264	1.798
264	1.799
265	1.799
265	1.798
265	1.798
266	1.796
266	1.796
267	1.793
267	1.794
268	1.794
268	1.792
269	1.794
269	1.794
270	1.792
270	1.793
271	1.792
271	1.792
272	1.79
272	1.79
272	1.785
273	1.779
273	1.773
274	1.767
274	1.761
275	1.755
275	1.747
276	1.739
276	1.731
277	1.722
277	1.712
278	1.7
278	1.689
278	1.674
279	1.657
279	1.635
280	1.608
280	1.576
281	1.539
281	1.498
282	1.456
282	1.412
283	1.369
283	1.326
284	1.286
284	1.247
285	1.21
285	1.176
285	1.146
286	1.12
286	1.098
287	1.078
287	1.061
288	1.046
288	1.034
289	1.023
289	1.014
290	1.006
290	0.999
291	0.994
291	0.988
292	0.983
292	0.979
292	0.975
293	0.971
293	0.968
294	0.964
294	0.961
295	0.958
295	0.954
296	0.951
296	0.948
297	0.945
297	0.942
298	0.939
298	0.936
298	0.933
299	0.931
299	0.928
300	0.926
300	0.923
301	0.921
301	0.918
302	0.916
302	0.913
303	0.911
303	0.909
304	0.907
304	0.904
305	0.902
305	0.899
305	0.897
306	0.895
306	0.892
307	0.89
307	0.888
308	0.885
308	0.882
309	0.88
309	0.877
310	0.874
310	0.871
311	0.868
311	0.865
311	0.862
312	0.858
312	0.855
313	0.851
313	0.848
314	0.844
314	0.84
315	0.836
315	0.832
316	0.827
316	0.823
317	0.818
317	0.813
318	0.808
318	0.803
318	0.798
319	0.792
319	0.787
320	0.781
320	0.776
321	0.77
321	0.764
322	0.757
322	0.751
323	0.745
323	0.738
324	0.732
324	0.725
324	0.718
325	0.712
325	0.705
326	0.698
326	0.691
327	0.684
327	0.677
328	0.67
328	0.663
329	0.656
329	0.649
330	0.642
330	0.635
330	0.628
331	0.621
331	0.614
332	0.607
332	0.6
333	0.593
333	0.586
334	0.579
334	0.572
335	0.565
335	0.559
336	0.552
336	0.545
336	0.539
337	0.533
337	0.527
338	0.52
338	0.514
339	0.508
339	0.502
340	0.496
340	0.491
341	0.485
341	0.479
342	0.474
342	0.468
342	0.463
343	0.458
343	0.453
344	0.448
344	0.443
345	0.438
345	0.433
346	0.429
346	0.424
347	0.42
347	0.416
348	0.412
348	0.408
348	0.404
349	0.4
349	0.396
350	0.393
350	0.389
351	0.386
351	0.383
352	0.379
352	0.376
353	0.373
353	0.37
354	0.367
354	0.365
354	0.362
355	0.359
355	0.356
356	0.353
356	0.35
357	0.347
357	0.344
358	0.342
358	0.339
359	0.337
359	0.335
360	0.333
360	0.331
360	0.329
361	0.327
361	0.325
362	0.324
362	0.322
363	0.32
363	0.319
364	0.317
364	0.315
365	0.313
365	0.311
366	0.309
366	0.308
366	0.306
367	0.304
367	0.303
368	0.301
368	0.3
369	0.298
369	0.297
370	0.295
370	0.294
371	0.293
371	0.292
372	0.291
372	0.29
372	0.289
373	0.288
373	0.287
374	0.286
374	0.285
375	0.284
375	0.283
376	0.282
376	0.281
377	0.28
377	0.279
378	0.278
378	0.277
378	0.276
379	0.276
379	0.275
380	0.274
380	0.274
381	0.273
381	0.272
382	0.272
382	0.271
383	0.271
383	0.27
383	0.27
384	0.269
384	0.269
385	0.268
385	0.268
386	0.267
386	0.267
387	0.267
387	0.266
388	0.266
388	0.265
389	0.265
389	0.265
389	0.264
390	0.264
390	0.264
391	0.263
391	0.263
392	0.263
392	0.263
393	0.262
393	0.262
394	0.262
394	0.261
394	0.261
395	0.261
395	0.26
396	0.26
396	0.259
397	0.259
397	0.258
398	0.258
398	0.258
399	0.258
399	0.257
400	0.257
400	0.257
400	0.257
401	0.257
401	0.256
402	0.256
402	0.256
403	0.255
403	0.255
404	0.255
404	0.255
405	0.254
405	0.254
405	0.254
406	0.253
406	0.253
407	0.253
407	0.253
408	0.252
408	0.252
409	0.252
409	0.251
410	0.251
410	0.251
411	0.251
411	0.25
411	0.25
412	0.25
412	0.25
413	0.249
413	0.249
414	0.249
414	0.248
415	0.248
415	0.248
416	0.248
416	0.247
416	0.247
417	0.247
417	0.246
418	0.246
418	0.246
419	0.245
419	0.245
420	0.245
420	0.244
421	0.243
421	0.243
421	0.243
422	0.242
422	0.242
423	0.242
423	0.241
424	0.241
424	0.241
425	0.241
425	0.24
426	0.24
426	0.24
427	0.24
427	0.239
427	0.239
428	0.239
428	0.238
429	0.238
429	0.238
430	0.237
430	0.237
431	0.237
431	0.237
432	0.236
432	0.236
432	0.236
433	0.236
433	0.236
434	0.236
434	0.235
435	0.235
435	0.235
436	0.235
436	0.235
437	0.235
437	0.234
437	0.234
438	0.234
438	0.234
439	0.234
439	0.233
440	0.233
440	0.232
441	0.232
441	0.232
442	0.232
442	0.231
442	0.231
443	0.231
443	0.231
444	0.23
444	0.23
445	0.23
445	0.23
446	0.23
446	0.229
447	0.229
447	0.229
447	0.228
448	0.228
448	0.228
449	0.228
449	0.227
450	0.227
450	0.227
451	0.227
451	0.227
452	0.227
452	0.227
452	0.227
453	0.227
453	0.227
454	0.227
454	0.226
455	0.226
455	0.226
456	0.226
456	0.225
457	0.225
457	0.225
458	0.225
458	0.224
458	0.224
459	0.224
459	0.224
460	0.224
460	0.223
461	0.223
461	0.223
462	0.223
462	0.223
463	0.222
463	0.222
463	0.222
464	0.222
464	0.222
465	0.221
465	0.221
466	0.221
466	0.221
467	0.221
467	0.221
467	0.221
468	0.221
468	0.221
469	0.221
469	0.221
470	0.221
470	0.221
471	0.221
471	0.221
472	0.221
472	0.221
472	0.221
473	0.221
473	0.221
474	0.221
474	0.221
475	0.221
475	0.221
476	0.221
476	0.221
477	0.221
477	0.221
477	0.221
478	0.221
478	0.221
479	0.221
479	0.221
480	0.22
480	0.22
481	0.22
481	0.221
482	0.22
482	0.221
482	0.221
483	0.221
483	0.221
484	0.222
484	0.222
485	0.222
485	0.222
486	0.222
486	0.222
487	0.222
487	0.222
487	0.222
488	0.223
488	0.223
489	0.223
489	0.224
490	0.224
490	0.224
491	0.225
491	0.226
492	0.226
492	0.227
492	0.227
493	0.228
493	0.228
494	0.228
494	0.229
495	0.229
495	0.229
496	0.229
496	0.23
496	0.23
497	0.23
497	0.23
498	0.231
498	0.231
499	0.231
499	0.232
500	0.232
500	0.233
501	0.234
501	0.234
501	0.234
502	0.235
502	0.235
503	0.236
503	0.236
504	0.237
504	0.237
505	0.238
505	0.238
506	0.239
506	0.239
506	0.24
507	0.24
507	0.24
508	0.24
508	0.241
509	0.241
509	0.242
510	0.242
510	0.243
511	0.243
511	0.244
511	0.245
512	0.245
512	0.246
513	0.246
513	0.247
514	0.247
514	0.248
515	0.248
515	0.248
515	0.249
516	0.249
516	0.25
517	0.25
517	0.251
518	0.251
518	0.251
519	0.251
519	0.251
520	0.251
520	0.252
520	0.252
521	0.252
521	0.252
522	0.252
522	0.252
523	0.252
523	0.253
524	0.253
524	0.253
524	0.253
525	0.254
525	0.253
526	0.254
526	0.254
527	0.253
527	0.254
528	0.253
528	0.254
529	0.253
529	0.253
529	0.253
530	0.252
530	0.252
531	0.253
531	0.252
532	0.252
532	0.252
533	0.252
533	0.251
533	0.251
534	0.251
534	0.251
535	0.251
535	0.251
536	0.25
536	0.25
537	0.25
537	0.249
538	0.249
538	0.249
538	0.248
539	0.248
539	0.248
540	0.247
540	0.247
541	0.247
541	0.246
542	0.246
542	0.246
542	0.246
543	0.246
543	0.246
544	0.245
544	0.245
545	0.245
545	0.244
546	0.244
546	0.243
547	0.242
547	0.242
547	0.241
548	0.241
548	0.24
549	0.24
549	0.239
550	0.239
550	0.239
551	0.238
551	0.238
551	0.237
552	0.237
552	0.237
553	0.236
553	0.235
554	0.235
554	0.234
555	0.233
555	0.232
556	0.231
556	0.23
556	0.23
557	0.23
557	0.23
558	0.229
558	0.229
559	0.229
559	0.229
560	0.229
560	0.228
560	0.228
561	0.228
561	0.228
562	0.227
562	0.226
563	0.225
563	0.224
564	0.224
564	0.223
564	0.223
565	0.222
565	0.222
566	0.221
566	0.22
567	0.22
567	0.22
568	0.219
568	0.219
568	0.219
569	0.218
569	0.218
570	0.217
570	0.216
571	0.216
571	0.215
572	0.215
572	0.214
573	0.214
573	0.213
573	0.213
574	0.212
574	0.212
575	0.212
575	0.212
576	0.212
576	0.211
577	0.21
577	0.209
577	0.209
578	0.208
578	0.208
579	0.208
579	0.208
580	0.207
580	0.206
581	0.205
581	0.205
581	0.205
582	0.205
582	0.205
583	0.205
583	0.205
584	0.204
584	0.203
585	0.203
585	0.203
585	0.202
586	0.202
586	0.201
587	0.201
587	0.2
588	0.2
588	0.199
589	0.199
589	0.199
590	0.199
590	0.199
590	0.199
591	0.199
591	0.198
592	0.198
592	0.197
593	0.197
593	0.196
594	0.196
594	0.195
594	0.194
595	0.194
595	0.193
596	0.193
596	0.193
597	0.194
597	0.195
598	0.194
598	0.194
598	0.194
599	0.194
599	0.194
600	0.193
600	0.193
601	0.193
601	0.192
602	0.192
602	0.191
602	0.19
603	0.19
603	0.19
604	0.19
604	0.19
605	0.19
605	0.19
606	0.19
606	0.189
606	0.189
607	0.188
607	0.188
608	0.188
608	0.187
609	0.187
609	0.187
610	0.186
610	0.186
610	0.186
611	0.186
611	0.186
612	0.186
612	0.186
613	0.186
613	0.186
614	0.186
614	0.185
614	0.185
615	0.185
615	0.185
616	0.185
616	0.185
617	0.185
617	0.184
618	0.184
618	0.184
618	0.184
619	0.184
619	0.184
620	0.185
620	0.184
621	0.183
621	0.183
622	0.182
622	0.182
622	0.181
623	0.181
623	0.181
624	0.181
624	0.18
625	0.18
625	0.18
626	0.18
626	0.18
626	0.18
627	0.18
627	0.18
628	0.18
628	0.18
629	0.18
629	0.179
630	0.179
630	0.179
630	0.179
631	0.179
631	0.178
632	0.178
632	0.177
633	0.177
633	0.177
634	0.177
634	0.177
634	0.177
635	0.177
635	0.177
636	0.177
636	0.177
637	0.177
637	0.177
638	0.176
638	0.176
638	0.176
639	0.175
639	0.175
640	0.175
640	0.175
641	0.175
641	0.174
642	0.174
642	0.174
642	0.174
643	0.174
643	0.175
644	0.175
644	0.175
645	0.175
645	0.175
646	0.175
646	0.175
646	0.175
647	0.175
647	0.174
648	0.174
648	0.173
649	0.173
649	0.173
650	0.173
650	0.173
650	0.173
651	0.173
651	0.173
652	0.173
652	0.174
653	0.174
653	0.176
653	0.182
654	0.143
654	0.115
655	0.115
655	0.115
656	0.115
656	0.115
657	0.116
657	0.116
657	0.116
658	0.115
658	0.105
659	0.132
659	0.169
660	0.174
660	0.175
661	0.174
661	0.174
661	0.174
662	0.173
662	0.173
663	0.173
663	0.173
664	0.173
664	0.173
665	0.172
665	0.172
665	0.172
666	0.172
666	0.172
667	0.172
667	0.173
668	0.173
668	0.173
669	0.173
669	0.173
669	0.174
670	0.174
670	0.174
671	0.174
671	0.174
672	0.173
672	0.173
672	0.172
673	0.172
673	0.171
674	0.171
674	0.17
675	0.17
675	0.17
676	0.17
676	0.17
676	0.171
677	0.171
677	0.171
678	0.171
678	0.171
679	0.171
679	0.171
680	0.171
680	0.171
680	0.17
681	0.17
681	0.17
682	0.17
682	0.17
683	0.171
683	0.171
684	0.171
684	0.171
684	0.171
685	0.171
685	0.171
686	0.171
686	0.171
687	0.171
687	0.171
687	0.172
688	0.172
688	0.172
689	0.173
689	0.173
690	0.173
690	0.172
691	0.172
691	0.173
691	0.173
692	0.172
692	0.172
693	0.173
693	0.173
694	0.173
694	0.173
695	0.173
695	0.174
695	0.174
696	0.174
696	0.174
697	0.174
697	0.174
698	0.174
698	0.173
698	0.173
699	0.174
699	0.173
700	0.173
700	0.173
701	0.173
701	0.173
702	0.173
702	0.173
702	0.173
703	0.173
703	0.173
704	0.172
704	0.172
705	0.172
705	0.172
705	0.171
706	0.171
706	0.171
707	0.171
707	0.171
708	0.171
708	0.171
709	0.171
709	0.171
709	0.171
710	0.172
710	0.172
711	0.173
711	0.173
712	0.174
712	0.174
713	0.174
713	0.175
713	0.175
714	0.175
714	0.175
715	0.175
715	0.175
716	0.174
716	0.174
716	0.173
717	0.172
717	0.172
718	0.171
718	0.171
719	0.171
719	0.171
720	0.172
720	0.172
720	0.173
721	0.174
721	0.175
722	0.176
722	0.176
723	0.177
723	0.177
723	0.177
724	0.177
724	0.177
725	0.176
725	0.175
726	0.175
726	0.174
727	0.173
727	0.173
727	0.173
728	0.172
728	0.172
729	0.172
729	0.172
730	0.172
730	0.173
730	0.174
731	0.174
731	0.175
732	0.176
732	0.176
733	0.177
733	0.177
734	0.177
734	0.178
734	0.178
735	0.178
735	0.178
736	0.178
736	0.178
737	0.178
737	0.178
737	0.178
738	0.177
738	0.176
739	0.176
739	0.175
740	0.175
740	0.175
741	0.175
741	0.175
741	0.175
742	0.175
742	0.176
743	0.177
743	0.178
744	0.179
744	0.179
744	0.18
745	0.18
745	0.18
746	0.181
746	0.181
747	0.181
747	0.181
748	0.181
748	0.181
748	0.181
749	0.181
749	0.181
750	0.181
750	0.181
751	0.181
751	0.181
751	0.181
752	0.181
752	0.181
753	0.18
753	0.18
754	0.18
754	0.179
754	0.179
755	0.179
755	0.179
756	0.178
756	0.177
757	0.177
757	0.177
758	0.177
758	0.177
758	0.177
759	0.178
759	0.178
760	0.178
760	0.178
761	0.178
761	0.179
761	0.179
762	0.179
762	0.18
763	0.18
763	0.179
764	0.179
764	0.179
764	0.179
765	0.179
765	0.179
766	0.179
766	0.179
767	0.179
767	0.178
768	0.178
768	0.178
768	0.179
769	0.179
769	0.179
770	0.18
770	0.18
771	0.181
771	0.181
771	0.182
772	0.183
772	0.183
773	0.184
773	0.184
774	0.184
774	0.184
775	0.185
775	0.185
775	0.185
776	0.185
776	0.186
777	0.186
777	0.186
778	0.186
778	0.186
778	0.186
779	0.186
779	0.186
780	0.185
780	0.185
781	0.184
781	0.184
781	0.184
782	0.183
782	0.183
783	0.184
783	0.184
784	0.184
784	0.185
784	0.185
785	0.186
785	0.186
786	0.186
786	0.186
787	0.186
787	0.185
788	0.185
788	0.184
788	0.184
789	0.183
789	0.183
790	0.183
790	0.183
791	0.183
791	0.183
791	0.183
792	0.184
792	0.185
793	0.185
793	0.185
794	0.185
794	0.185
794	0.185
795	0.185
795	0.186
796	0.186
796	0.186
797	0.186
797	0.186
797	0.186
798	0.186
798	0.187
799	0.187
799	0.186
800	0.186
800	0.185
801	0.185
801	0.186
801	0.186
802	0.186
802	0.186
803	0.187
803	0.187
804	0.188
804	0.188
804	0.189
805	0.189
805	0.189
806	0.188
806	0.188
807	0.188
807	0.187
807	0.187
808	0.187
808	0.186
809	0.186
809	0.186
810	0.186
810	0.186
810	0.186
811	0.186
811	0.187
812	0.188
812	0.188
813	0.188
813	0.189
813	0.189
814	0.19
814	0.191
815	0.191
815	0.191
816	0.191
816	0.191
817	0.19
817	0.19
817	0.189
818	0.188
818	0.188
819	0.187
819	0.187
820	0.186
820	0.185
820	0.185
821	0.186
821	0.186
822	0.186
822	0.187
823	0.187
823	0.188
823	0.189
824	0.19
824	0.191
825	0.192
825	0.193
826	0.194
826	0.194
826	0.194
827	0.194
827	0.195
828	0.195
828	0.195
829	0.195
829	0.195
829	0.195
830	0.195
830	0.196
831	0.196
831	0.196
832	0.196
832	0.196
832	0.196
833	0.196
833	0.196
834	0.195
834	0.195
835	0.194
835	0.194
835	0.193
836	0.193
836	0.193
837	0.192
837	0.192
838	0.191
838	0.191
839	0.19
839	0.19
839	0.189
840	0.188
840	0.187
841	0.186
841	0.185
842	0.184
842	0.183
842	0.183
843	0.182
843	0.182
844	0.181
844	0.181
845	0.18
845	0.18
845	0.18
846	0.18
846	0.18
847	0.181
847	0.181
848	0.181
848	0.182
848	0.182
849	0.183
849	0.183
850	0.184
850	0.184
851	0.184
851	0.184
851	0.184
852	0.183
852	0.182
853	0.182
853	0.181
854	0.181
854	0.182
854	0.182
855	0.183
855	0.183
856	0.184
856	0.185
857	0.186
857	0.187
857	0.188
858	0.188
858	0.188
859	0.188
859	0.188
860	0.187
860	0.187
860	0.186
861	0.186
861	0.185
862	0.184
862	0.182
863	0.181
863	0.181
863	0.18
864	0.18
864	0.179
865	0.179
865	0.179
866	0.179
866	0.179
866	0.179
867	0.18
867	0.18
868	0.18
868	0.181
869	0.181
869	0.181
869	0.18
870	0.18
870	0.18
871	0.18
871	0.18
872	0.18
872	0.18
872	0.18
873	0.179
873	0.179
874	0.178
874	0.178
875	0.177
875	0.177
875	0.176
876	0.175
876	0.175
877	0.174
877	0.174
878	0.174
878	0.174
878	0.175
879	0.175
879	0.175
880	0.176
880	0.176
881	0.177
881	0.177
881	0.178
882	0.178
882	0.178
883	0.178
883	0.178
884	0.179
884	0.179
884	0.178
885	0.178
885	0.177
886	0.177
886	0.177
887	0.176
887	0.175
887	0.174
888	0.174
888	0.173
889	0.172
889	0.172
890	0.172
890	0.172
890	0.172
891	0.171
891	0.171
892	0.171
892	0.171
893	0.171
893	0.171
893	0.171
894	0.17
894	0.17
895	0.17
895	0.17
895	0.17
896	0.17
896	0.17
897	0.169
897	0.169
898	0.169
898	0.168
898	0.168
899	0.167
899	0.166
900	0.166
900	0.165
901	0.164
901	0.164
901	0.164
902	0.163
902	0.163
903	0.163
903	0.163
904	0.163
904	0.163
904	0.163
905	0.162
905	0.162
906	0.162
906	0.162
907	0.163
907	0.163
907	0.163
908	0.163
908	0.163
909	0.163
909	0.163
910	0.163
910	0.163
910	0.163
911	0.162
911	0.162
912	0.161
912	0.161
913	0.16
913	0.16
913	0.16
914	0.159
914	0.159
915	0.159
915	0.159
916	0.159
916	0.159
916	0.158
917	0.158
917	0.158
918	0.157
918	0.157
918	0.156
919	0.156
919	0.155
920	0.155
920	0.154
921	0.154
921	0.153
921	0.153
922	0.153
922	0.153
923	0.153
923	0.153
924	0.154
924	0.154
924	0.154
925	0.154
925	0.155
926	0.155
926	0.155
927	0.156
927	0.156
927	0.156
928	0.156
928	0.156
929	0.156
929	0.157
930	0.157
930	0.156
930	0.157
931	0.156
931	0.156
932	0.156
932	0.155
933	0.155
933	0.154
933	0.154
934	0.153
934	0.153
935	0.153
935	0.152
935	0.151
936	0.151
936	0.15
937	0.15
937	0.149
938	0.148
938	0.148
938	0.147
939	0.147
939	0.146
940	0.146
940	0.145
941	0.146
941	0.146
941	0.146
942	0.147
942	0.147
943	0.147
943	0.147
944	0.147
944	0.148
944	0.148
945	0.148
945	0.147
946	0.147
946	0.146
946	0.146
947	0.146
947	0.145
948	0.145
948	0.145
949	0.144
949	0.144
949	0.143
950	0.143
950	0.143
951	0.142
951	0.141
952	0.141
952	0.14
952	0.139
953	0.139
953	0.138
954	0.138
954	0.138
955	0.137
955	0.137
955	0.137
956	0.138
956	0.138
957	0.139
957	0.139
957	0.139
958	0.14
958	0.14
959	0.14
959	0.14
960	0.14
960	0.14
960	0.14
961	0.139
961	0.139
962	0.139
962	0.139
963	0.139
963	0.139
963	0.139
964	0.139
964	0.139
965	0.139
965	0.139
966	0.138
966	0.138
966	0.138
967	0.137
967	0.137
968	0.136
968	0.136
968	0.135
969	0.134
969	0.133
970	0.132
970	0.131
971	0.13
971	0.129
971	0.129
972	0.128
972	0.128
973	0.128
973	0.128
974	0.128
974	0.128
974	0.129
975	0.13
975	0.13
976	0.131
976	0.132
976	0.133
977	0.133
977	0.133
978	0.133
978	0.133
979	0.133
979	0.133
979	0.133
980	0.133
980	0.133
981	0.132
981	0.132
982	0.132
982	0.132
982	0.132
983	0.131
983	0.131
984	0.131
984	0.131
984	0.131
985	0.13
985	0.13
986	0.13
986	0.129
987	0.129
987	0.129
987	0.128
988	0.128
988	0.128
989	0.128
989	0.128
990	0.127
990	0.127
990	0.127
991	0.127
991	0.127
992	0.126
992	0.125
992	0.124
993	0.124
993	0.123
994	0.121
994	0.12
995	0.119
995	0.119
995	0.118
996	0.118
996	0.117
997	0.117
997	0.118
997	0.118
998	0.118
998	0.119
999	0.12
999	0.12
1000	0.121
1000	0.122
1000	0.122
1001	0.122
1001	0.123
1002	0.122
1002	0.122
1003	0.122
1003	0.122
1003	0.121
1004	0.12
1004	0.119
1005	0.118
1005	0.118
1005	0.117
1006	0.116
1006	0.115
1007	0.115
1007	0.114
1008	0.114
1008	0.114
1008	0.114
1009	0.114
1009	0.114
1010	0.114
1010	0.114
1010	0.114
1011	0.114
1011	0.114
1012	0.113
1012	0.113
1013	0.113
1013	0.112
1013	0.112
1014	0.111
1014	0.111
1015	0.11
1015	0.11
1016	0.109
1016	0.109
1016	0.108
1017	0.108
1017	0.107
1018	0.107
1018	0.107
1018	0.107
1019	0.107
1019	0.106
1020	0.106
1020	0.106
1021	0.107
1021	0.107
1021	0.107
1022	0.107
1022	0.107
1023	0.108
1023	0.108
1023	0.109
1024	0.109
1024	0.11
1025	0.11
1025	0.11
1026	0.111
1026	0.111
1026	0.111
1027	0.111
1027	0.111
1028	0.112
1028	0.111
1028	0.112
1029	0.112
1029	0.112
1030	0.112
1030	0.112
1031	0.112
1031	0.112
1031	0.112
1032	0.112
1032	0.112
1033	0.112
1033	0.112
1033	0.112
1034	0.112
1034	0.112
1035	0.112
1035	0.111
1036	0.111
1036	0.111
1036	0.111
1037	0.11
1037	0.11
1038	0.11
1038	0.11
1039	0.109
1039	0.109
1039	0.109
1040	0.109
1040	0.108
1041	0.108
1041	0.108
1041	0.108
1042	0.107
1042	0.107
1043	0.107
1043	0.107
1044	0.106
1044	0.106
1044	0.106
1045	0.106
1045	0.105
1046	0.105
1046	0.105
1046	0.104
1047	0.104
1047	0.104
1048	0.104
1048	0.104
1049	0.104
1049	0.103
1049	0.103
1050	0.103
1050	0.102
1051	0.102
1051	0.102
1051	0.102
1052	0.101
1052	0.101
1053	0.1
1053	0.099
1053	0.098
1054	0.098
1054	0.097
1055	0.097
1055	0.096
1056	0.095
1056	0.095
1056	0.094
1057	0.093
1057	0.093
1058	0.093
1058	0.091
1058	0.091
1059	0.09
1059	0.09
1060	0.09
1060	0.089
1061	0.089
1061	0.088
1061	0.088
1062	0.088
1062	0.087
1063	0.087
1063	0.087
1063	0.086
1064	0.086
1064	0.086
1065	0.086
1065	0.086
1066	0.086
1066	0.086
1066	0.086
1067	0.085
1067	0.086
1068	0.085
1068	0.085
1068	0.085
1069	0.085
1069	0.085
1070	0.085
1070	0.085
1071	0.084
1071	0.084
1071	0.084
1072	0.084
1072	0.083
1073	0.083
1073	0.082
1073	0.082
1074	0.082
1074	0.082
1075	0.082
1075	0.083
1076	0.083
1076	0.083
1076	0.083
1077	0.083
1077	0.084
1078	0.083
1078	0.084
1078	0.084
1079	0.083
1079	0.083
1080	0.082
1080	0.082
1080	0.082
1081	0.082
1081	0.082
1082	0.082
1082	0.082
1083	0.081
1083	0.081
1083	0.081
1084	0.081
1084	0.081
1085	0.081
1085	0.081
1085	0.081
1086	0.081
1086	0.081
1087	0.081
1087	0.08
1088	0.08
1088	0.08
1088	0.08
1089	0.08
1089	0.079
1090	0.079
1090	0.078
1090	0.077
1091	0.077
1091	0.077
1092	0.077
1092	0.077
1092	0.077
1093	0.076
1093	0.077
1094	0.077
1094	0.077
1095	0.076
1095	0.076
1095	0.076
1096	0.075
1096	0.075
1097	0.074
1097	0.073
1097	0.072
1098	0.072
1098	0.07
1099	0.068
1099	0.067
1100	0.065
1100	0.063
1100	0.062
1101	0.061
1101	0.06
1102	0.059
1102	0.058
1102	0.056
1103	0.055
1103	0.056
1104	0.055
1104	0.055
1104	0.055
1105	0.053
1105	0.052
1106	0.051
1106	0.05
1107	0.048
1107	0.048
1107	0.048
1108	0.047
1108	0.047
1109	0.046
1109	0.046
1109	0.047
1110	0.049
1110	0.048
1111	0.049
1111	0.05
