Data from reversibility-20sec_Absorbance__6026__000000000006026.txt Node

Date: Wed Dec 06 21:41:47 CET 2023
User: Marek
Spectrometer: MAYP115816
Trigger mode: 0
Integration Time (sec): 2.000000E-1
Scans to average: 10
Electric dark correction enabled: true
Nonlinearity correction enabled: true
Boxcar width: 5
XAxis mode: Wavelengths
Number of Pixels in Spectrum: 2068
>>>>>Begin Spectral Data<<<<<
199	-0.149
199	-0.109
200	-0.048
200	-0.001
201	0.033
201	0.05
202	0.064
202	0.074
203	0.084
203	0.087
204	0.101
204	0.114
205	0.125
205	0.131
205	0.129
206	0.128
206	0.126
207	0.129
207	0.13
208	0.127
208	0.128
209	0.13
209	0.126
210	0.128
210	0.13
211	0.135
211	0.136
212	0.134
212	0.135
213	0.136
213	0.139
213	0.139
214	0.144
214	0.147
215	0.148
215	0.147
216	0.147
216	0.144
217	0.15
217	0.148
218	0.143
218	0.146
219	0.151
219	0.149
220	0.152
220	0.151
221	0.152
221	0.153
221	0.161
222	0.166
222	0.171
223	0.18
223	0.183
224	0.185
224	0.194
225	0.201
225	0.211
226	0.221
226	0.232
227	0.241
227	0.248
228	0.263
228	0.278
229	0.296
229	0.321
229	0.343
230	0.368
230	0.396
231	0.427
231	0.465
232	0.505
232	0.551
233	0.59
233	0.636
234	0.685
234	0.737
235	0.79
235	0.841
236	0.891
236	0.944
236	0.993
237	1.042
237	1.088
238	1.14
238	1.187
239	1.233
239	1.271
240	1.308
240	1.344
241	1.381
241	1.417
242	1.451
242	1.481
243	1.512
243	1.536
243	1.562
244	1.584
244	1.607
245	1.628
245	1.653
246	1.67
246	1.685
247	1.697
247	1.713
248	1.728
248	1.741
249	1.749
249	1.754
250	1.761
250	1.766
250	1.767
251	1.77
251	1.773
252	1.776
252	1.775
253	1.773
253	1.77
254	1.768
254	1.77
255	1.768
255	1.767
256	1.767
256	1.765
257	1.764
257	1.763
258	1.764
258	1.765
258	1.764
259	1.766
259	1.766
260	1.766
260	1.769
261	1.769
261	1.774
262	1.777
262	1.778
263	1.781
263	1.783
264	1.785
264	1.786
265	1.788
265	1.789
265	1.789
266	1.789
266	1.788
267	1.786
267	1.788
268	1.787
268	1.788
269	1.79
269	1.789
270	1.787
270	1.786
271	1.785
271	1.784
272	1.78
272	1.779
272	1.773
273	1.767
273	1.759
274	1.752
274	1.745
275	1.738
275	1.732
276	1.723
276	1.715
277	1.708
277	1.698
278	1.687
278	1.673
278	1.658
279	1.64
279	1.618
280	1.591
280	1.557
281	1.518
281	1.475
282	1.43
282	1.385
283	1.341
283	1.298
284	1.258
284	1.218
285	1.181
285	1.148
285	1.118
286	1.092
286	1.07
287	1.051
287	1.035
288	1.021
288	1.009
289	0.999
289	0.99
290	0.983
290	0.977
291	0.971
291	0.966
292	0.962
292	0.958
292	0.953
293	0.95
293	0.947
294	0.943
294	0.94
295	0.937
295	0.934
296	0.931
296	0.928
297	0.926
297	0.923
298	0.92
298	0.918
298	0.915
299	0.913
299	0.91
300	0.908
300	0.905
301	0.903
301	0.901
302	0.898
302	0.896
303	0.894
303	0.892
304	0.889
304	0.887
305	0.885
305	0.883
305	0.88
306	0.878
306	0.876
307	0.874
307	0.871
308	0.869
308	0.866
309	0.864
309	0.861
310	0.859
310	0.856
311	0.853
311	0.85
311	0.847
312	0.844
312	0.841
313	0.837
313	0.833
314	0.829
314	0.825
315	0.821
315	0.817
316	0.813
316	0.809
317	0.804
317	0.8
318	0.795
318	0.79
318	0.785
319	0.78
319	0.774
320	0.769
320	0.763
321	0.757
321	0.751
322	0.745
322	0.739
323	0.732
323	0.726
324	0.72
324	0.713
324	0.706
325	0.699
325	0.693
326	0.686
326	0.679
327	0.672
327	0.665
328	0.659
328	0.652
329	0.645
329	0.638
330	0.631
330	0.624
330	0.617
331	0.61
331	0.603
332	0.596
332	0.589
333	0.582
333	0.575
334	0.568
334	0.562
335	0.555
335	0.548
336	0.541
336	0.535
336	0.528
337	0.522
337	0.516
338	0.51
338	0.504
339	0.498
339	0.491
340	0.486
340	0.48
341	0.474
341	0.469
342	0.463
342	0.458
342	0.453
343	0.448
343	0.443
344	0.438
344	0.433
345	0.428
345	0.424
346	0.419
346	0.415
347	0.411
347	0.406
348	0.402
348	0.398
348	0.395
349	0.391
349	0.387
350	0.383
350	0.38
351	0.376
351	0.373
352	0.37
352	0.367
353	0.364
353	0.361
354	0.358
354	0.356
354	0.353
355	0.35
355	0.347
356	0.344
356	0.342
357	0.339
357	0.337
358	0.334
358	0.331
359	0.329
359	0.327
360	0.325
360	0.323
360	0.321
361	0.32
361	0.318
362	0.316
362	0.315
363	0.313
363	0.311
364	0.309
364	0.308
365	0.306
365	0.304
366	0.302
366	0.301
366	0.299
367	0.297
367	0.296
368	0.294
368	0.293
369	0.291
369	0.29
370	0.289
370	0.287
371	0.286
371	0.285
372	0.284
372	0.283
372	0.282
373	0.281
373	0.28
374	0.279
374	0.278
375	0.277
375	0.276
376	0.276
376	0.275
377	0.274
377	0.273
378	0.272
378	0.272
378	0.271
379	0.27
379	0.269
380	0.269
380	0.268
381	0.268
381	0.267
382	0.266
382	0.266
383	0.266
383	0.265
383	0.265
384	0.264
384	0.264
385	0.263
385	0.263
386	0.262
386	0.262
387	0.261
387	0.261
388	0.26
388	0.26
389	0.26
389	0.26
389	0.259
390	0.259
390	0.259
391	0.258
391	0.258
392	0.258
392	0.258
393	0.258
393	0.257
394	0.257
394	0.256
394	0.256
395	0.256
395	0.256
396	0.255
396	0.255
397	0.255
397	0.254
398	0.254
398	0.253
399	0.253
399	0.253
400	0.253
400	0.252
400	0.252
401	0.252
401	0.252
402	0.252
402	0.252
403	0.251
403	0.251
404	0.251
404	0.251
405	0.25
405	0.25
405	0.25
406	0.25
406	0.25
407	0.249
407	0.249
408	0.249
408	0.249
409	0.248
409	0.248
410	0.248
410	0.248
411	0.247
411	0.247
411	0.247
412	0.246
412	0.246
413	0.246
413	0.246
414	0.245
414	0.245
415	0.245
415	0.245
416	0.244
416	0.244
416	0.243
417	0.243
417	0.243
418	0.243
418	0.243
419	0.242
419	0.242
420	0.241
420	0.241
421	0.24
421	0.24
421	0.24
422	0.24
422	0.239
423	0.239
423	0.238
424	0.238
424	0.238
425	0.238
425	0.237
426	0.237
426	0.236
427	0.236
427	0.236
427	0.235
428	0.235
428	0.235
429	0.235
429	0.234
430	0.234
430	0.234
431	0.234
431	0.233
432	0.233
432	0.233
432	0.233
433	0.233
433	0.232
434	0.232
434	0.232
435	0.232
435	0.231
436	0.231
436	0.231
437	0.231
437	0.231
437	0.23
438	0.23
438	0.23
439	0.23
439	0.229
440	0.229
440	0.229
441	0.229
441	0.228
442	0.228
442	0.228
442	0.228
443	0.227
443	0.227
444	0.227
444	0.227
445	0.227
445	0.227
446	0.226
446	0.226
447	0.226
447	0.225
447	0.225
448	0.225
448	0.225
449	0.225
449	0.224
450	0.224
450	0.224
451	0.224
451	0.224
452	0.224
452	0.224
452	0.223
453	0.223
453	0.223
454	0.223
454	0.223
455	0.222
455	0.222
456	0.222
456	0.222
457	0.222
457	0.221
458	0.221
458	0.221
458	0.22
459	0.22
459	0.22
460	0.22
460	0.22
461	0.219
461	0.219
462	0.219
462	0.219
463	0.218
463	0.218
463	0.218
464	0.217
464	0.217
465	0.216
465	0.216
466	0.216
466	0.216
467	0.216
467	0.216
467	0.215
468	0.215
468	0.215
469	0.215
469	0.216
470	0.216
470	0.216
471	0.216
471	0.216
472	0.216
472	0.216
472	0.216
473	0.216
473	0.216
474	0.215
474	0.215
475	0.215
475	0.215
476	0.215
476	0.215
477	0.215
477	0.214
477	0.214
478	0.214
478	0.214
479	0.214
479	0.214
480	0.214
480	0.214
481	0.214
481	0.214
482	0.213
482	0.214
482	0.213
483	0.214
483	0.214
484	0.214
484	0.214
485	0.214
485	0.213
486	0.213
486	0.213
487	0.213
487	0.213
487	0.214
488	0.214
488	0.214
489	0.214
489	0.214
490	0.215
490	0.215
491	0.216
491	0.216
492	0.216
492	0.217
492	0.217
493	0.217
493	0.217
494	0.218
494	0.218
495	0.218
495	0.218
496	0.218
496	0.219
496	0.219
497	0.219
497	0.219
498	0.22
498	0.22
499	0.22
499	0.22
500	0.221
500	0.222
501	0.222
501	0.222
501	0.222
502	0.223
502	0.223
503	0.224
503	0.224
504	0.224
504	0.224
505	0.225
505	0.225
506	0.225
506	0.225
506	0.225
507	0.226
507	0.226
508	0.226
508	0.227
509	0.227
509	0.227
510	0.228
510	0.228
511	0.229
511	0.229
511	0.23
512	0.23
512	0.231
513	0.231
513	0.231
514	0.232
514	0.232
515	0.232
515	0.233
515	0.233
516	0.233
516	0.234
517	0.234
517	0.235
518	0.235
518	0.236
519	0.236
519	0.236
520	0.236
520	0.237
520	0.237
521	0.237
521	0.237
522	0.237
522	0.237
523	0.237
523	0.238
524	0.238
524	0.238
524	0.238
525	0.239
525	0.239
526	0.239
526	0.239
527	0.24
527	0.24
528	0.24
528	0.24
529	0.24
529	0.24
529	0.24
530	0.24
530	0.24
531	0.24
531	0.24
532	0.24
532	0.239
533	0.24
533	0.24
533	0.24
534	0.239
534	0.239
535	0.239
535	0.24
536	0.24
536	0.24
537	0.24
537	0.24
538	0.24
538	0.24
538	0.239
539	0.24
539	0.24
540	0.239
540	0.239
541	0.239
541	0.239
542	0.239
542	0.239
542	0.239
543	0.239
543	0.238
544	0.238
544	0.238
545	0.238
545	0.238
546	0.238
546	0.238
547	0.237
547	0.237
547	0.237
548	0.237
548	0.237
549	0.237
549	0.236
550	0.236
550	0.236
551	0.236
551	0.236
551	0.236
552	0.235
552	0.235
553	0.234
553	0.234
554	0.234
554	0.233
555	0.233
555	0.232
556	0.232
556	0.231
556	0.231
557	0.231
557	0.232
558	0.232
558	0.232
559	0.232
559	0.232
560	0.232
560	0.232
560	0.232
561	0.232
561	0.232
562	0.232
562	0.231
563	0.23
563	0.229
564	0.229
564	0.228
564	0.228
565	0.228
565	0.228
566	0.228
566	0.227
567	0.227
567	0.227
568	0.227
568	0.227
568	0.227
569	0.227
569	0.226
570	0.226
570	0.225
571	0.224
571	0.224
572	0.223
572	0.223
573	0.223
573	0.222
573	0.222
574	0.221
574	0.221
575	0.221
575	0.222
576	0.222
576	0.221
577	0.22
577	0.22
577	0.22
578	0.22
578	0.219
579	0.219
579	0.22
580	0.219
580	0.218
581	0.217
581	0.217
581	0.218
582	0.218
582	0.218
583	0.218
583	0.218
584	0.217
584	0.217
585	0.217
585	0.217
585	0.216
586	0.216
586	0.215
587	0.214
587	0.214
588	0.213
588	0.213
589	0.212
589	0.212
590	0.212
590	0.212
590	0.213
591	0.213
591	0.213
592	0.213
592	0.212
593	0.212
593	0.212
594	0.211
594	0.211
594	0.21
595	0.21
595	0.21
596	0.209
596	0.21
597	0.21
597	0.211
598	0.21
598	0.21
598	0.21
599	0.21
599	0.21
600	0.21
600	0.209
601	0.209
601	0.209
602	0.208
602	0.208
602	0.207
603	0.207
603	0.207
604	0.207
604	0.207
605	0.207
605	0.207
606	0.207
606	0.206
606	0.206
607	0.206
607	0.206
608	0.206
608	0.205
609	0.204
609	0.204
610	0.204
610	0.204
610	0.204
611	0.204
611	0.204
612	0.204
612	0.204
613	0.204
613	0.204
614	0.204
614	0.203
614	0.203
615	0.203
615	0.203
616	0.203
616	0.203
617	0.203
617	0.203
618	0.203
618	0.203
618	0.203
619	0.203
619	0.203
620	0.203
620	0.203
621	0.203
621	0.202
622	0.202
622	0.202
622	0.201
623	0.2
623	0.2
624	0.2
624	0.199
625	0.199
625	0.199
626	0.198
626	0.198
626	0.198
627	0.198
627	0.198
628	0.198
628	0.197
629	0.197
629	0.197
630	0.196
630	0.196
630	0.196
631	0.196
631	0.196
632	0.196
632	0.196
633	0.196
633	0.196
634	0.197
634	0.197
634	0.197
635	0.197
635	0.197
636	0.197
636	0.197
637	0.197
637	0.197
638	0.196
638	0.196
638	0.196
639	0.195
639	0.195
640	0.195
640	0.195
641	0.195
641	0.194
642	0.194
642	0.194
642	0.195
643	0.195
643	0.195
644	0.194
644	0.194
645	0.194
645	0.194
646	0.194
646	0.194
646	0.194
647	0.194
647	0.193
648	0.193
648	0.192
649	0.192
649	0.192
650	0.192
650	0.192
650	0.192
651	0.192
651	0.192
652	0.192
652	0.192
653	0.193
653	0.194
653	0.201
654	0.157
654	0.126
655	0.127
655	0.127
656	0.127
656	0.128
657	0.128
657	0.128
657	0.128
658	0.127
658	0.116
659	0.147
659	0.189
660	0.194
660	0.194
661	0.194
661	0.193
661	0.193
662	0.193
662	0.192
663	0.192
663	0.192
664	0.192
664	0.191
665	0.191
665	0.191
665	0.192
666	0.192
666	0.192
667	0.192
667	0.193
668	0.194
668	0.194
669	0.194
669	0.195
669	0.195
670	0.195
670	0.195
671	0.195
671	0.195
672	0.195
672	0.194
672	0.194
673	0.194
673	0.193
674	0.193
674	0.192
675	0.192
675	0.192
676	0.192
676	0.192
676	0.191
677	0.192
677	0.191
678	0.191
678	0.191
679	0.191
679	0.191
680	0.191
680	0.191
680	0.191
681	0.191
681	0.191
682	0.192
682	0.192
683	0.193
683	0.193
684	0.194
684	0.194
684	0.194
685	0.194
685	0.195
686	0.195
686	0.195
687	0.195
687	0.195
687	0.195
688	0.195
688	0.194
689	0.195
689	0.195
690	0.194
690	0.194
691	0.194
691	0.194
691	0.194
692	0.194
692	0.194
693	0.194
693	0.195
694	0.194
694	0.194
695	0.195
695	0.196
695	0.196
696	0.196
696	0.196
697	0.196
697	0.195
698	0.195
698	0.195
698	0.195
699	0.195
699	0.194
700	0.194
700	0.194
701	0.195
701	0.195
702	0.195
702	0.195
702	0.196
703	0.196
703	0.196
704	0.196
704	0.197
705	0.197
705	0.197
705	0.197
706	0.198
706	0.198
707	0.198
707	0.198
708	0.198
708	0.198
709	0.198
709	0.198
709	0.198
710	0.198
710	0.198
711	0.198
711	0.199
712	0.198
712	0.198
713	0.198
713	0.198
713	0.197
714	0.197
714	0.197
715	0.196
715	0.196
716	0.195
716	0.195
716	0.194
717	0.194
717	0.194
718	0.194
718	0.193
719	0.194
719	0.194
720	0.195
720	0.195
720	0.196
721	0.196
721	0.197
722	0.197
722	0.197
723	0.198
723	0.198
723	0.198
724	0.198
724	0.198
725	0.197
725	0.197
726	0.197
726	0.197
727	0.196
727	0.196
727	0.196
728	0.196
728	0.196
729	0.196
729	0.196
730	0.197
730	0.197
730	0.197
731	0.198
731	0.199
732	0.199
732	0.2
733	0.2
733	0.2
734	0.201
734	0.201
734	0.201
735	0.202
735	0.202
736	0.201
736	0.201
737	0.201
737	0.201
737	0.202
738	0.201
738	0.201
739	0.2
739	0.2
740	0.2
740	0.2
741	0.2
741	0.2
741	0.2
742	0.2
742	0.201
743	0.202
743	0.203
744	0.203
744	0.204
744	0.204
745	0.205
745	0.205
746	0.205
746	0.205
747	0.205
747	0.205
748	0.205
748	0.205
748	0.205
749	0.204
749	0.204
750	0.204
750	0.204
751	0.203
751	0.203
751	0.202
752	0.202
752	0.201
753	0.201
753	0.2
754	0.2
754	0.2
754	0.2
755	0.2
755	0.201
756	0.201
756	0.2
757	0.2
757	0.201
758	0.201
758	0.202
758	0.202
759	0.203
759	0.203
760	0.203
760	0.202
761	0.203
761	0.203
761	0.203
762	0.203
762	0.204
763	0.204
763	0.204
764	0.203
764	0.204
764	0.204
765	0.204
765	0.204
766	0.204
766	0.204
767	0.203
767	0.202
768	0.202
768	0.202
768	0.202
769	0.202
769	0.202
770	0.203
770	0.203
771	0.204
771	0.205
771	0.205
772	0.206
772	0.207
773	0.208
773	0.208
774	0.209
774	0.209
775	0.21
775	0.21
775	0.21
776	0.21
776	0.21
777	0.21
777	0.21
778	0.21
778	0.209
778	0.209
779	0.209
779	0.209
780	0.209
780	0.209
781	0.209
781	0.208
781	0.208
782	0.208
782	0.209
783	0.209
783	0.21
784	0.21
784	0.21
784	0.211
785	0.211
785	0.212
786	0.212
786	0.212
787	0.212
787	0.212
788	0.211
788	0.21
788	0.21
789	0.209
789	0.209
790	0.208
790	0.208
791	0.208
791	0.207
791	0.207
792	0.208
792	0.208
793	0.208
793	0.209
794	0.209
794	0.209
794	0.209
795	0.209
795	0.21
796	0.21
796	0.211
797	0.21
797	0.211
797	0.211
798	0.212
798	0.212
799	0.212
799	0.212
800	0.211
800	0.211
801	0.21
801	0.211
801	0.21
802	0.21
802	0.21
803	0.21
803	0.211
804	0.211
804	0.211
804	0.211
805	0.211
805	0.211
806	0.211
806	0.211
807	0.211
807	0.21
807	0.211
808	0.211
808	0.211
809	0.211
809	0.212
810	0.212
810	0.213
810	0.213
811	0.214
811	0.214
812	0.215
812	0.216
813	0.216
813	0.217
813	0.217
814	0.217
814	0.218
815	0.219
815	0.219
816	0.219
816	0.218
817	0.218
817	0.218
817	0.217
818	0.217
818	0.217
819	0.216
819	0.215
820	0.214
820	0.214
820	0.214
821	0.214
821	0.214
822	0.214
822	0.215
823	0.215
823	0.215
823	0.216
824	0.217
824	0.218
825	0.219
825	0.219
826	0.22
826	0.219
826	0.22
827	0.22
827	0.22
828	0.22
828	0.22
829	0.221
829	0.221
829	0.221
830	0.221
830	0.222
831	0.223
831	0.223
832	0.223
832	0.223
832	0.223
833	0.223
833	0.223
834	0.223
834	0.222
835	0.222
835	0.221
835	0.221
836	0.221
836	0.221
837	0.22
837	0.22
838	0.22
838	0.22
839	0.219
839	0.219
839	0.218
840	0.217
840	0.217
841	0.216
841	0.215
842	0.215
842	0.214
842	0.214
843	0.213
843	0.213
844	0.212
844	0.212
845	0.212
845	0.212
845	0.212
846	0.212
846	0.212
847	0.212
847	0.212
848	0.212
848	0.212
848	0.213
849	0.213
849	0.214
850	0.214
850	0.214
851	0.215
851	0.215
851	0.215
852	0.215
852	0.214
853	0.214
853	0.214
854	0.214
854	0.215
854	0.215
855	0.216
855	0.216
856	0.217
856	0.218
857	0.218
857	0.219
857	0.22
858	0.22
858	0.219
859	0.219
859	0.219
860	0.218
860	0.218
860	0.217
861	0.217
861	0.217
862	0.216
862	0.216
863	0.215
863	0.215
863	0.215
864	0.215
864	0.215
865	0.215
865	0.215
866	0.215
866	0.215
866	0.215
867	0.216
867	0.217
868	0.217
868	0.218
869	0.218
869	0.219
869	0.219
870	0.219
870	0.219
871	0.219
871	0.219
872	0.219
872	0.218
872	0.218
873	0.218
873	0.217
874	0.217
874	0.216
875	0.216
875	0.216
875	0.216
876	0.215
876	0.215
877	0.215
877	0.214
878	0.214
878	0.214
878	0.214
879	0.215
879	0.215
880	0.215
880	0.215
881	0.215
881	0.215
881	0.215
882	0.215
882	0.216
883	0.216
883	0.216
884	0.217
884	0.217
884	0.217
885	0.217
885	0.216
886	0.216
886	0.216
887	0.215
887	0.214
887	0.213
888	0.213
888	0.212
889	0.211
889	0.21
890	0.21
890	0.21
890	0.209
891	0.209
891	0.209
892	0.209
892	0.209
893	0.208
893	0.208
893	0.208
894	0.208
894	0.208
895	0.208
895	0.208
895	0.209
896	0.209
896	0.209
897	0.21
897	0.21
898	0.209
898	0.209
898	0.209
899	0.209
899	0.208
900	0.208
900	0.207
901	0.207
901	0.206
901	0.206
902	0.205
902	0.204
903	0.204
903	0.203
904	0.203
904	0.203
904	0.202
905	0.202
905	0.201
906	0.201
906	0.201
907	0.201
907	0.201
907	0.202
908	0.202
908	0.202
909	0.202
909	0.202
910	0.202
910	0.202
910	0.202
911	0.201
911	0.201
912	0.2
912	0.2
913	0.2
913	0.199
913	0.199
914	0.199
914	0.199
915	0.199
915	0.199
916	0.199
916	0.198
916	0.198
917	0.198
917	0.198
918	0.197
918	0.197
918	0.197
919	0.196
919	0.196
920	0.195
920	0.195
921	0.195
921	0.194
921	0.194
922	0.194
922	0.193
923	0.193
923	0.193
924	0.194
924	0.194
924	0.194
925	0.195
925	0.195
926	0.196
926	0.196
927	0.197
927	0.197
927	0.198
928	0.198
928	0.197
929	0.197
929	0.197
930	0.196
930	0.196
930	0.195
931	0.195
931	0.194
932	0.194
932	0.194
933	0.193
933	0.193
933	0.193
934	0.192
934	0.192
935	0.192
935	0.192
935	0.191
936	0.191
936	0.19
937	0.19
937	0.19
938	0.189
938	0.188
938	0.188
939	0.187
939	0.187
940	0.186
940	0.186
941	0.185
941	0.185
941	0.185
942	0.185
942	0.184
943	0.184
943	0.184
944	0.184
944	0.184
944	0.184
945	0.184
945	0.184
946	0.184
946	0.184
946	0.184
947	0.185
947	0.184
948	0.184
948	0.184
949	0.183
949	0.183
949	0.182
950	0.182
950	0.182
951	0.181
951	0.18
952	0.179
952	0.179
952	0.179
953	0.178
953	0.178
954	0.178
954	0.177
955	0.177
955	0.177
955	0.177
956	0.177
956	0.176
957	0.176
957	0.176
957	0.176
958	0.176
958	0.175
959	0.175
959	0.174
960	0.174
960	0.174
960	0.173
961	0.173
961	0.173
962	0.172
962	0.172
963	0.172
963	0.172
963	0.172
964	0.172
964	0.172
965	0.173
965	0.173
966	0.173
966	0.173
966	0.173
967	0.173
967	0.173
968	0.173
968	0.172
968	0.172
969	0.171
969	0.17
970	0.17
970	0.169
971	0.168
971	0.168
971	0.167
972	0.167
972	0.166
973	0.166
973	0.166
974	0.166
974	0.166
974	0.166
975	0.166
975	0.167
976	0.167
976	0.168
976	0.168
977	0.168
977	0.168
978	0.168
978	0.167
979	0.167
979	0.167
979	0.167
980	0.166
980	0.166
981	0.165
981	0.164
982	0.164
982	0.163
982	0.163
983	0.163
983	0.162
984	0.162
984	0.162
984	0.162
985	0.162
985	0.162
986	0.162
986	0.162
987	0.162
987	0.162
987	0.162
988	0.161
988	0.161
989	0.16
989	0.16
990	0.159
990	0.159
990	0.158
991	0.157
991	0.156
992	0.155
992	0.154
992	0.152
993	0.151
993	0.15
994	0.149
994	0.148
995	0.147
995	0.146
995	0.146
996	0.146
996	0.146
997	0.146
997	0.146
997	0.147
998	0.148
998	0.149
999	0.15
999	0.15
1000	0.151
1000	0.152
1000	0.152
1001	0.152
1001	0.152
1002	0.152
1002	0.152
1003	0.151
1003	0.151
1003	0.15
1004	0.149
1004	0.148
1005	0.147
1005	0.146
1005	0.145
1006	0.144
1006	0.144
1007	0.144
1007	0.143
1008	0.143
1008	0.143
1008	0.144
1009	0.144
1009	0.144
1010	0.145
1010	0.145
1010	0.145
1011	0.145
1011	0.145
1012	0.145
1012	0.144
1013	0.144
1013	0.143
1013	0.143
1014	0.142
1014	0.142
1015	0.141
1015	0.141
1016	0.141
1016	0.141
1016	0.14
1017	0.14
1017	0.14
1018	0.14
1018	0.139
1018	0.139
1019	0.139
1019	0.139
1020	0.139
1020	0.139
1021	0.139
1021	0.14
1021	0.14
1022	0.14
1022	0.141
1023	0.141
1023	0.142
1023	0.142
1024	0.143
1024	0.143
1025	0.143
1025	0.143
1026	0.143
1026	0.143
1026	0.143
1027	0.143
1027	0.143
1028	0.143
1028	0.142
1028	0.142
1029	0.142
1029	0.142
1030	0.142
1030	0.142
1031	0.142
1031	0.142
1031	0.142
1032	0.141
1032	0.141
1033	0.141
1033	0.141
1033	0.141
1034	0.141
1034	0.14
1035	0.14
1035	0.139
1036	0.139
1036	0.139
1036	0.139
1037	0.138
1037	0.138
1038	0.138
1038	0.137
1039	0.137
1039	0.137
1039	0.137
1040	0.137
1040	0.137
1041	0.137
1041	0.137
1041	0.136
1042	0.136
1042	0.136
1043	0.136
1043	0.135
1044	0.135
1044	0.135
1044	0.135
1045	0.135
1045	0.135
1046	0.135
1046	0.134
1046	0.134
1047	0.135
1047	0.135
1048	0.135
1048	0.135
1049	0.135
1049	0.135
1049	0.134
1050	0.134
1050	0.134
1051	0.133
1051	0.133
1051	0.132
1052	0.131
1052	0.131
1053	0.13
1053	0.129
1053	0.128
1054	0.127
1054	0.126
1055	0.126
1055	0.125
1056	0.124
1056	0.123
1056	0.122
1057	0.122
1057	0.121
1058	0.12
1058	0.119
1058	0.119
1059	0.118
1059	0.117
1060	0.117
1060	0.116
1061	0.116
1061	0.115
1061	0.115
1062	0.115
1062	0.114
1063	0.114
1063	0.114
1063	0.114
1064	0.113
1064	0.113
1065	0.112
1065	0.112
1066	0.112
1066	0.111
1066	0.111
1067	0.11
1067	0.11
1068	0.11
1068	0.109
1068	0.109
1069	0.108
1069	0.108
1070	0.108
1070	0.107
1071	0.107
1071	0.106
1071	0.106
1072	0.105
1072	0.105
1073	0.104
1073	0.104
1073	0.104
1074	0.104
1074	0.104
1075	0.104
1075	0.104
1076	0.105
1076	0.105
1076	0.105
1077	0.105
1077	0.106
1078	0.105
1078	0.105
1078	0.105
1079	0.104
1079	0.104
1080	0.103
1080	0.102
1080	0.102
1081	0.101
1081	0.101
1082	0.101
1082	0.101
1083	0.101
1083	0.101
1083	0.101
1084	0.1
1084	0.101
1085	0.101
1085	0.101
1085	0.101
1086	0.101
1086	0.1
1087	0.1
1087	0.099
1088	0.099
1088	0.098
1088	0.099
1089	0.098
1089	0.097
1090	0.096
1090	0.095
1090	0.094
1091	0.094
1091	0.093
1092	0.093
1092	0.093
1092	0.092
1093	0.091
1093	0.092
1094	0.091
1094	0.091
1095	0.091
1095	0.091
1095	0.09
1096	0.09
1096	0.089
1097	0.088
1097	0.088
1097	0.087
1098	0.086
1098	0.084
1099	0.084
1099	0.082
1100	0.082
1100	0.08
1100	0.078
1101	0.077
1101	0.076
1102	0.074
1102	0.072
1102	0.071
1103	0.071
1103	0.07
1104	0.07
1104	0.069
1104	0.069
1105	0.068
1105	0.066
1106	0.064
1106	0.063
1107	0.062
1107	0.062
1107	0.06
1108	0.059
1108	0.058
1109	0.055
1109	0.055
1109	0.054
1110	0.056
1110	0.056
1111	0.056
1111	0.056
