Data from reversibility-20sec_Absorbance__2842__000000000002842.txt Node

Date: Wed Dec 06 04:00:25 CET 2023
User: Marek
Spectrometer: MAYP115816
Trigger mode: 0
Integration Time (sec): 2.000000E-1
Scans to average: 10
Electric dark correction enabled: true
Nonlinearity correction enabled: true
Boxcar width: 5
XAxis mode: Wavelengths
Number of Pixels in Spectrum: 2068
>>>>>Begin Spectral Data<<<<<
199	-0.108
199	-0.076
200	-0.016
200	0.033
201	0.062
201	0.074
202	0.086
202	0.095
203	0.102
203	0.107
204	0.122
204	0.136
205	0.146
205	0.152
205	0.15
206	0.151
206	0.154
207	0.158
207	0.156
208	0.155
208	0.154
209	0.155
209	0.151
210	0.152
210	0.155
211	0.16
211	0.155
212	0.153
212	0.152
213	0.157
213	0.16
213	0.161
214	0.162
214	0.163
215	0.166
215	0.162
216	0.163
216	0.164
217	0.168
217	0.17
218	0.166
218	0.169
219	0.173
219	0.174
220	0.179
220	0.178
221	0.181
221	0.183
221	0.19
222	0.194
222	0.2
223	0.207
223	0.209
224	0.212
224	0.223
225	0.23
225	0.238
226	0.245
226	0.254
227	0.266
227	0.276
228	0.292
228	0.304
229	0.321
229	0.346
229	0.368
230	0.397
230	0.43
231	0.464
231	0.504
232	0.539
232	0.583
233	0.624
233	0.676
234	0.728
234	0.78
235	0.831
235	0.879
236	0.93
236	0.982
236	1.033
237	1.089
237	1.138
238	1.186
238	1.234
239	1.284
239	1.33
240	1.374
240	1.415
241	1.455
241	1.492
242	1.528
242	1.563
243	1.599
243	1.629
243	1.658
244	1.682
244	1.705
245	1.725
245	1.75
246	1.772
246	1.793
247	1.806
247	1.821
248	1.837
248	1.855
249	1.867
249	1.877
250	1.886
250	1.894
250	1.899
251	1.902
251	1.905
252	1.915
252	1.916
253	1.917
253	1.916
254	1.914
254	1.914
255	1.911
255	1.913
256	1.912
256	1.912
257	1.91
257	1.907
258	1.908
258	1.908
258	1.908
259	1.91
259	1.912
260	1.915
260	1.918
261	1.921
261	1.927
262	1.932
262	1.937
263	1.943
263	1.946
264	1.949
264	1.953
265	1.956
265	1.959
265	1.962
266	1.963
266	1.966
267	1.965
267	1.968
268	1.97
268	1.973
269	1.976
269	1.978
270	1.978
270	1.977
271	1.975
271	1.975
272	1.971
272	1.969
272	1.963
273	1.953
273	1.943
274	1.933
274	1.923
275	1.912
275	1.904
276	1.895
276	1.886
277	1.876
277	1.865
278	1.853
278	1.84
278	1.824
279	1.804
279	1.776
280	1.743
280	1.702
281	1.655
281	1.604
282	1.552
282	1.502
283	1.453
283	1.405
284	1.36
284	1.318
285	1.278
285	1.243
285	1.212
286	1.185
286	1.162
287	1.141
287	1.124
288	1.109
288	1.097
289	1.086
289	1.078
290	1.071
290	1.064
291	1.058
291	1.053
292	1.049
292	1.044
292	1.041
293	1.037
293	1.034
294	1.031
294	1.028
295	1.025
295	1.022
296	1.019
296	1.016
297	1.014
297	1.011
298	1.008
298	1.006
298	1.003
299	1.001
299	0.998
300	0.996
300	0.993
301	0.991
301	0.989
302	0.986
302	0.984
303	0.982
303	0.979
304	0.978
304	0.975
305	0.973
305	0.971
305	0.968
306	0.966
306	0.964
307	0.961
307	0.959
308	0.957
308	0.954
309	0.951
309	0.949
310	0.946
310	0.944
311	0.941
311	0.937
311	0.934
312	0.931
312	0.927
313	0.924
313	0.92
314	0.916
314	0.912
315	0.907
315	0.903
316	0.899
316	0.895
317	0.89
317	0.885
318	0.88
318	0.875
318	0.87
319	0.865
319	0.859
320	0.854
320	0.848
321	0.842
321	0.835
322	0.829
322	0.823
323	0.816
323	0.81
324	0.803
324	0.797
324	0.79
325	0.783
325	0.776
326	0.769
326	0.762
327	0.756
327	0.749
328	0.742
328	0.735
329	0.728
329	0.72
330	0.713
330	0.706
330	0.699
331	0.692
331	0.684
332	0.678
332	0.67
333	0.663
333	0.656
334	0.649
334	0.643
335	0.636
335	0.629
336	0.622
336	0.616
336	0.609
337	0.603
337	0.596
338	0.59
338	0.584
339	0.578
339	0.571
340	0.566
340	0.56
341	0.554
341	0.549
342	0.543
342	0.538
342	0.533
343	0.528
343	0.523
344	0.517
344	0.512
345	0.507
345	0.502
346	0.498
346	0.493
347	0.489
347	0.485
348	0.48
348	0.476
348	0.472
349	0.469
349	0.465
350	0.461
350	0.458
351	0.455
351	0.451
352	0.448
352	0.445
353	0.442
353	0.439
354	0.436
354	0.433
354	0.43
355	0.427
355	0.425
356	0.422
356	0.419
357	0.417
357	0.414
358	0.411
358	0.409
359	0.406
359	0.404
360	0.402
360	0.399
360	0.397
361	0.395
361	0.393
362	0.391
362	0.39
363	0.388
363	0.386
364	0.384
364	0.382
365	0.38
365	0.379
366	0.377
366	0.375
366	0.373
367	0.371
367	0.37
368	0.368
368	0.366
369	0.365
369	0.363
370	0.362
370	0.361
371	0.359
371	0.358
372	0.357
372	0.356
372	0.354
373	0.353
373	0.352
374	0.351
374	0.35
375	0.349
375	0.348
376	0.347
376	0.346
377	0.345
377	0.344
378	0.343
378	0.342
378	0.341
379	0.341
379	0.34
380	0.339
380	0.338
381	0.337
381	0.337
382	0.336
382	0.336
383	0.335
383	0.334
383	0.334
384	0.333
384	0.332
385	0.332
385	0.331
386	0.331
386	0.33
387	0.33
387	0.329
388	0.328
388	0.328
389	0.327
389	0.327
389	0.327
390	0.326
390	0.326
391	0.325
391	0.325
392	0.325
392	0.324
393	0.324
393	0.323
394	0.323
394	0.322
394	0.322
395	0.322
395	0.321
396	0.321
396	0.32
397	0.32
397	0.319
398	0.319
398	0.318
399	0.318
399	0.317
400	0.317
400	0.317
400	0.316
401	0.316
401	0.316
402	0.315
402	0.315
403	0.315
403	0.314
404	0.314
404	0.314
405	0.313
405	0.313
405	0.313
406	0.312
406	0.312
407	0.312
407	0.311
408	0.311
408	0.31
409	0.31
409	0.31
410	0.309
410	0.309
411	0.309
411	0.308
411	0.308
412	0.308
412	0.308
413	0.307
413	0.307
414	0.307
414	0.307
415	0.306
415	0.306
416	0.306
416	0.305
416	0.305
417	0.305
417	0.304
418	0.304
418	0.304
419	0.303
419	0.303
420	0.302
420	0.302
421	0.302
421	0.301
421	0.301
422	0.3
422	0.3
423	0.299
423	0.299
424	0.299
424	0.298
425	0.298
425	0.298
426	0.297
426	0.297
427	0.297
427	0.296
427	0.296
428	0.296
428	0.296
429	0.295
429	0.295
430	0.295
430	0.294
431	0.294
431	0.294
432	0.294
432	0.294
432	0.293
433	0.293
433	0.293
434	0.293
434	0.293
435	0.293
435	0.293
436	0.292
436	0.292
437	0.292
437	0.292
437	0.291
438	0.291
438	0.291
439	0.291
439	0.29
440	0.29
440	0.29
441	0.289
441	0.289
442	0.289
442	0.288
442	0.288
443	0.288
443	0.288
444	0.287
444	0.287
445	0.287
445	0.287
446	0.287
446	0.286
447	0.286
447	0.286
447	0.286
448	0.286
448	0.285
449	0.285
449	0.285
450	0.285
450	0.284
451	0.284
451	0.284
452	0.284
452	0.284
452	0.284
453	0.284
453	0.283
454	0.283
454	0.283
455	0.283
455	0.282
456	0.282
456	0.282
457	0.281
457	0.281
458	0.281
458	0.281
458	0.281
459	0.281
459	0.28
460	0.28
460	0.28
461	0.28
461	0.28
462	0.28
462	0.28
463	0.279
463	0.279
463	0.279
464	0.279
464	0.278
465	0.278
465	0.277
466	0.277
466	0.277
467	0.277
467	0.277
467	0.277
468	0.277
468	0.277
469	0.277
469	0.278
470	0.278
470	0.278
471	0.278
471	0.278
472	0.278
472	0.278
472	0.278
473	0.278
473	0.278
474	0.278
474	0.277
475	0.277
475	0.277
476	0.277
476	0.277
477	0.277
477	0.277
477	0.277
478	0.277
478	0.277
479	0.277
479	0.278
480	0.278
480	0.278
481	0.278
481	0.278
482	0.278
482	0.278
482	0.279
483	0.279
483	0.28
484	0.28
484	0.28
485	0.28
485	0.28
486	0.28
486	0.28
487	0.28
487	0.28
487	0.281
488	0.281
488	0.281
489	0.281
489	0.282
490	0.282
490	0.283
491	0.284
491	0.284
492	0.285
492	0.285
492	0.286
493	0.287
493	0.287
494	0.288
494	0.289
495	0.289
495	0.29
496	0.29
496	0.291
496	0.291
497	0.292
497	0.292
498	0.293
498	0.293
499	0.293
499	0.294
500	0.295
500	0.296
501	0.296
501	0.297
501	0.297
502	0.298
502	0.298
503	0.299
503	0.299
504	0.3
504	0.301
505	0.301
505	0.301
506	0.302
506	0.302
506	0.303
507	0.303
507	0.304
508	0.304
508	0.305
509	0.305
509	0.306
510	0.306
510	0.307
511	0.308
511	0.309
511	0.309
512	0.31
512	0.311
513	0.311
513	0.311
514	0.312
514	0.313
515	0.314
515	0.314
515	0.314
516	0.315
516	0.315
517	0.316
517	0.316
518	0.316
518	0.316
519	0.317
519	0.317
520	0.317
520	0.317
520	0.318
521	0.318
521	0.318
522	0.318
522	0.319
523	0.32
523	0.32
524	0.32
524	0.32
524	0.321
525	0.321
525	0.321
526	0.321
526	0.321
527	0.321
527	0.321
528	0.321
528	0.321
529	0.32
529	0.32
529	0.32
530	0.32
530	0.319
531	0.319
531	0.319
532	0.318
532	0.318
533	0.317
533	0.317
533	0.317
534	0.316
534	0.316
535	0.316
535	0.315
536	0.315
536	0.314
537	0.314
537	0.314
538	0.313
538	0.313
538	0.312
539	0.312
539	0.312
540	0.311
540	0.311
541	0.31
541	0.31
542	0.309
542	0.309
542	0.309
543	0.308
543	0.308
544	0.308
544	0.307
545	0.306
545	0.306
546	0.306
546	0.305
547	0.304
547	0.304
547	0.303
548	0.302
548	0.302
549	0.301
549	0.3
550	0.3
550	0.299
551	0.298
551	0.298
551	0.297
552	0.297
552	0.296
553	0.296
553	0.295
554	0.295
554	0.294
555	0.293
555	0.292
556	0.292
556	0.291
556	0.291
557	0.29
557	0.29
558	0.289
558	0.289
559	0.289
559	0.288
560	0.288
560	0.287
560	0.287
561	0.287
561	0.286
562	0.285
562	0.284
563	0.283
563	0.282
564	0.281
564	0.28
564	0.279
565	0.279
565	0.279
566	0.278
566	0.277
567	0.277
567	0.277
568	0.276
568	0.276
568	0.275
569	0.275
569	0.274
570	0.273
570	0.271
571	0.271
571	0.27
572	0.27
572	0.269
573	0.269
573	0.268
573	0.268
574	0.268
574	0.268
575	0.268
575	0.268
576	0.267
576	0.266
577	0.266
577	0.265
577	0.265
578	0.264
578	0.263
579	0.263
579	0.263
580	0.262
580	0.261
581	0.26
581	0.26
581	0.26
582	0.26
582	0.26
583	0.259
583	0.259
584	0.258
584	0.257
585	0.256
585	0.256
585	0.256
586	0.255
586	0.255
587	0.254
587	0.253
588	0.253
588	0.252
589	0.252
589	0.252
590	0.251
590	0.251
590	0.251
591	0.251
591	0.25
592	0.249
592	0.248
593	0.248
593	0.247
594	0.247
594	0.246
594	0.245
595	0.245
595	0.244
596	0.244
596	0.244
597	0.245
597	0.245
598	0.245
598	0.245
598	0.245
599	0.245
599	0.244
600	0.244
600	0.243
601	0.243
601	0.242
602	0.242
602	0.241
602	0.24
603	0.24
603	0.24
604	0.24
604	0.24
605	0.24
605	0.24
606	0.239
606	0.238
606	0.238
607	0.238
607	0.237
608	0.237
608	0.236
609	0.235
609	0.235
610	0.234
610	0.234
610	0.234
611	0.234
611	0.233
612	0.233
612	0.234
613	0.234
613	0.234
614	0.234
614	0.233
614	0.233
615	0.233
615	0.233
616	0.233
616	0.233
617	0.233
617	0.232
618	0.232
618	0.232
618	0.232
619	0.232
619	0.232
620	0.232
620	0.232
621	0.231
621	0.231
622	0.23
622	0.23
622	0.229
623	0.229
623	0.229
624	0.228
624	0.228
625	0.227
625	0.227
626	0.227
626	0.227
626	0.227
627	0.227
627	0.227
628	0.226
628	0.226
629	0.226
629	0.226
630	0.226
630	0.226
630	0.226
631	0.226
631	0.225
632	0.225
632	0.225
633	0.224
633	0.224
634	0.224
634	0.225
634	0.225
635	0.224
635	0.224
636	0.224
636	0.224
637	0.224
637	0.223
638	0.223
638	0.223
638	0.222
639	0.222
639	0.221
640	0.221
640	0.221
641	0.221
641	0.221
642	0.22
642	0.221
642	0.221
643	0.221
643	0.222
644	0.222
644	0.222
645	0.222
645	0.222
646	0.222
646	0.222
646	0.222
647	0.222
647	0.222
648	0.221
648	0.221
649	0.221
649	0.221
650	0.22
650	0.22
650	0.22
651	0.22
651	0.219
652	0.219
652	0.219
653	0.22
653	0.222
653	0.227
654	0.177
654	0.14
655	0.142
655	0.143
656	0.143
656	0.144
657	0.144
657	0.145
657	0.145
658	0.143
658	0.132
659	0.168
659	0.218
660	0.222
660	0.221
661	0.22
661	0.22
661	0.219
662	0.219
662	0.218
663	0.217
663	0.217
664	0.217
664	0.217
665	0.217
665	0.217
665	0.217
666	0.218
666	0.218
667	0.218
667	0.219
668	0.219
668	0.219
669	0.219
669	0.219
669	0.219
670	0.219
670	0.219
671	0.219
671	0.219
672	0.219
672	0.218
672	0.218
673	0.218
673	0.218
674	0.218
674	0.217
675	0.217
675	0.217
676	0.218
676	0.218
676	0.218
677	0.219
677	0.219
678	0.219
678	0.218
679	0.218
679	0.218
680	0.218
680	0.218
680	0.218
681	0.218
681	0.218
682	0.218
682	0.218
683	0.218
683	0.219
684	0.219
684	0.219
684	0.219
685	0.219
685	0.219
686	0.219
686	0.219
687	0.219
687	0.219
687	0.219
688	0.219
688	0.219
689	0.22
689	0.22
690	0.22
690	0.22
691	0.22
691	0.221
691	0.221
692	0.221
692	0.221
693	0.221
693	0.222
694	0.222
694	0.222
695	0.222
695	0.223
695	0.223
696	0.223
696	0.223
697	0.223
697	0.223
698	0.223
698	0.222
698	0.222
699	0.222
699	0.222
700	0.221
700	0.221
701	0.221
701	0.221
702	0.221
702	0.221
702	0.221
703	0.221
703	0.221
704	0.221
704	0.221
705	0.221
705	0.221
705	0.22
706	0.22
706	0.22
707	0.22
707	0.22
708	0.22
708	0.22
709	0.221
709	0.22
709	0.22
710	0.22
710	0.221
711	0.221
711	0.222
712	0.222
712	0.222
713	0.223
713	0.223
713	0.223
714	0.223
714	0.223
715	0.223
715	0.223
716	0.222
716	0.222
716	0.222
717	0.221
717	0.22
718	0.219
718	0.219
719	0.219
719	0.219
720	0.219
720	0.219
720	0.219
721	0.219
721	0.22
722	0.221
722	0.221
723	0.221
723	0.222
723	0.222
724	0.222
724	0.222
725	0.221
725	0.221
726	0.22
726	0.22
727	0.219
727	0.219
727	0.219
728	0.218
728	0.218
729	0.219
729	0.219
730	0.22
730	0.221
730	0.221
731	0.222
731	0.223
732	0.224
732	0.224
733	0.224
733	0.225
734	0.224
734	0.224
734	0.224
735	0.224
735	0.224
736	0.223
736	0.223
737	0.222
737	0.222
737	0.222
738	0.221
738	0.221
739	0.22
739	0.22
740	0.22
740	0.22
741	0.221
741	0.221
741	0.221
742	0.221
742	0.221
743	0.222
743	0.223
744	0.223
744	0.223
744	0.223
745	0.223
745	0.223
746	0.223
746	0.223
747	0.223
747	0.223
748	0.223
748	0.224
748	0.224
749	0.224
749	0.225
750	0.225
750	0.226
751	0.226
751	0.226
751	0.227
752	0.226
752	0.226
753	0.225
753	0.225
754	0.224
754	0.223
754	0.223
755	0.222
755	0.222
756	0.221
756	0.22
757	0.219
757	0.219
758	0.219
758	0.219
758	0.219
759	0.22
759	0.22
760	0.22
760	0.22
761	0.22
761	0.221
761	0.222
762	0.222
762	0.223
763	0.223
763	0.223
764	0.223
764	0.223
764	0.224
765	0.224
765	0.224
766	0.224
766	0.224
767	0.223
767	0.223
768	0.222
768	0.222
768	0.222
769	0.223
769	0.223
770	0.223
770	0.223
771	0.223
771	0.223
771	0.223
772	0.224
772	0.224
773	0.225
773	0.225
774	0.225
774	0.226
775	0.226
775	0.226
775	0.227
776	0.227
776	0.227
777	0.227
777	0.227
778	0.226
778	0.226
778	0.225
779	0.225
779	0.225
780	0.224
780	0.223
781	0.223
781	0.223
781	0.223
782	0.223
782	0.223
783	0.224
783	0.224
784	0.224
784	0.225
784	0.225
785	0.226
785	0.226
786	0.226
786	0.226
787	0.226
787	0.225
788	0.225
788	0.224
788	0.224
789	0.224
789	0.223
790	0.223
790	0.223
791	0.223
791	0.223
791	0.223
792	0.224
792	0.225
793	0.225
793	0.226
794	0.226
794	0.226
794	0.226
795	0.226
795	0.227
796	0.227
796	0.227
797	0.227
797	0.227
797	0.227
798	0.227
798	0.227
799	0.227
799	0.226
800	0.226
800	0.225
801	0.225
801	0.225
801	0.225
802	0.224
802	0.225
803	0.225
803	0.225
804	0.225
804	0.226
804	0.226
805	0.226
805	0.227
806	0.227
806	0.228
807	0.228
807	0.228
807	0.228
808	0.228
808	0.229
809	0.229
809	0.229
810	0.229
810	0.229
810	0.229
811	0.229
811	0.23
812	0.23
812	0.23
813	0.23
813	0.231
813	0.231
814	0.231
814	0.231
815	0.231
815	0.231
816	0.231
816	0.23
817	0.23
817	0.229
817	0.229
818	0.228
818	0.228
819	0.227
819	0.227
820	0.226
820	0.226
820	0.226
821	0.226
821	0.226
822	0.226
822	0.227
823	0.227
823	0.227
823	0.228
824	0.229
824	0.23
825	0.231
825	0.232
826	0.232
826	0.232
826	0.233
827	0.233
827	0.233
828	0.233
828	0.233
829	0.233
829	0.232
829	0.232
830	0.232
830	0.232
831	0.233
831	0.233
832	0.232
832	0.233
832	0.233
833	0.233
833	0.233
834	0.233
834	0.233
835	0.232
835	0.232
835	0.232
836	0.231
836	0.231
837	0.231
837	0.231
838	0.23
838	0.229
839	0.229
839	0.228
839	0.228
840	0.227
840	0.226
841	0.225
841	0.225
842	0.224
842	0.223
842	0.223
843	0.223
843	0.223
844	0.223
844	0.223
845	0.223
845	0.223
845	0.224
846	0.224
846	0.224
847	0.224
847	0.225
848	0.225
848	0.226
848	0.226
849	0.226
849	0.226
850	0.226
850	0.226
851	0.226
851	0.226
851	0.225
852	0.225
852	0.224
853	0.223
853	0.223
854	0.222
854	0.222
854	0.223
855	0.223
855	0.223
856	0.224
856	0.224
857	0.225
857	0.226
857	0.226
858	0.226
858	0.225
859	0.225
859	0.224
860	0.224
860	0.223
860	0.222
861	0.221
861	0.22
862	0.219
862	0.218
863	0.217
863	0.217
863	0.217
864	0.217
864	0.217
865	0.217
865	0.217
866	0.217
866	0.216
866	0.216
867	0.216
867	0.216
868	0.215
868	0.215
869	0.214
869	0.213
869	0.212
870	0.212
870	0.211
871	0.211
871	0.211
872	0.211
872	0.211
872	0.211
873	0.211
873	0.21
874	0.21
874	0.21
875	0.21
875	0.209
875	0.209
876	0.209
876	0.208
877	0.208
877	0.208
878	0.208
878	0.209
878	0.21
879	0.211
879	0.211
880	0.212
880	0.213
881	0.213
881	0.214
881	0.214
882	0.213
882	0.213
883	0.213
883	0.212
884	0.211
884	0.21
884	0.209
885	0.208
885	0.208
886	0.207
886	0.206
887	0.205
887	0.204
887	0.204
888	0.203
888	0.202
889	0.201
889	0.201
890	0.2
890	0.2
890	0.199
891	0.199
891	0.198
892	0.198
892	0.198
893	0.197
893	0.197
893	0.197
894	0.197
894	0.196
895	0.196
895	0.196
895	0.195
896	0.195
896	0.195
897	0.194
897	0.194
898	0.193
898	0.193
898	0.193
899	0.193
899	0.193
900	0.193
900	0.193
901	0.193
901	0.193
901	0.193
902	0.193
902	0.193
903	0.193
903	0.193
904	0.192
904	0.192
904	0.192
905	0.192
905	0.192
906	0.192
906	0.192
907	0.192
907	0.192
907	0.193
908	0.193
908	0.193
909	0.193
909	0.193
910	0.193
910	0.193
910	0.192
911	0.192
911	0.191
912	0.19
912	0.189
913	0.188
913	0.187
913	0.187
914	0.186
914	0.185
915	0.184
915	0.184
916	0.183
916	0.182
916	0.182
917	0.181
917	0.181
918	0.18
918	0.179
918	0.178
919	0.177
919	0.177
920	0.176
920	0.175
921	0.175
921	0.174
921	0.173
922	0.172
922	0.172
923	0.172
923	0.172
924	0.172
924	0.172
924	0.172
925	0.173
925	0.173
926	0.173
926	0.174
927	0.174
927	0.174
927	0.174
928	0.175
928	0.175
929	0.175
929	0.175
930	0.175
930	0.176
930	0.176
931	0.176
931	0.176
932	0.176
932	0.177
933	0.177
933	0.177
933	0.177
934	0.176
934	0.176
935	0.176
935	0.176
935	0.175
936	0.175
936	0.174
937	0.173
937	0.172
938	0.171
938	0.17
938	0.17
939	0.169
939	0.168
940	0.167
940	0.166
941	0.165
941	0.165
941	0.165
942	0.165
942	0.164
943	0.164
943	0.163
944	0.163
944	0.163
944	0.163
945	0.162
945	0.162
946	0.161
946	0.161
946	0.161
947	0.161
947	0.16
948	0.16
948	0.16
949	0.159
949	0.159
949	0.158
950	0.158
950	0.157
951	0.156
951	0.155
952	0.154
952	0.152
952	0.151
953	0.15
953	0.149
954	0.149
954	0.148
955	0.148
955	0.147
955	0.147
956	0.147
956	0.148
957	0.148
957	0.148
957	0.149
958	0.149
958	0.149
959	0.15
959	0.15
960	0.15
960	0.15
960	0.15
961	0.15
961	0.15
962	0.15
962	0.149
963	0.149
963	0.149
963	0.15
964	0.15
964	0.15
965	0.151
965	0.151
966	0.152
966	0.152
966	0.152
967	0.152
967	0.153
968	0.153
968	0.153
968	0.153
969	0.152
969	0.152
970	0.151
970	0.15
971	0.15
971	0.149
971	0.149
972	0.149
972	0.148
973	0.148
973	0.148
974	0.148
974	0.148
974	0.148
975	0.148
975	0.148
976	0.148
976	0.148
976	0.147
977	0.147
977	0.146
978	0.146
978	0.145
979	0.144
979	0.143
979	0.143
980	0.142
980	0.141
981	0.14
981	0.139
982	0.138
982	0.138
982	0.137
983	0.137
983	0.136
984	0.135
984	0.135
984	0.134
985	0.134
985	0.133
986	0.133
986	0.132
987	0.131
987	0.131
987	0.13
988	0.13
988	0.13
989	0.129
989	0.129
990	0.129
990	0.128
990	0.128
991	0.128
991	0.128
992	0.127
992	0.127
992	0.126
993	0.126
993	0.125
994	0.125
994	0.124
995	0.124
995	0.124
995	0.123
996	0.123
996	0.123
997	0.123
997	0.123
997	0.124
998	0.124
998	0.124
999	0.124
999	0.124
1000	0.125
1000	0.125
1000	0.125
1001	0.125
1001	0.125
1002	0.125
1002	0.124
1003	0.124
1003	0.124
1003	0.123
1004	0.123
1004	0.122
1005	0.122
1005	0.121
1005	0.121
1006	0.12
1006	0.12
1007	0.12
1007	0.119
1008	0.119
1008	0.119
1008	0.119
1009	0.119
1009	0.119
1010	0.119
1010	0.12
1010	0.12
1011	0.12
1011	0.12
1012	0.12
1012	0.12
1013	0.12
1013	0.12
1013	0.12
1014	0.119
1014	0.119
1015	0.118
1015	0.118
1016	0.117
1016	0.117
1016	0.116
1017	0.115
1017	0.114
1018	0.114
1018	0.114
1018	0.114
1019	0.114
1019	0.114
1020	0.114
1020	0.114
1021	0.114
1021	0.114
1021	0.115
1022	0.115
1022	0.115
1023	0.115
1023	0.115
1023	0.115
1024	0.115
1024	0.115
1025	0.114
1025	0.114
1026	0.114
1026	0.114
1026	0.113
1027	0.113
1027	0.113
1028	0.113
1028	0.113
1028	0.113
1029	0.113
1029	0.113
1030	0.113
1030	0.113
1031	0.113
1031	0.113
1031	0.113
1032	0.113
1032	0.113
1033	0.113
1033	0.113
1033	0.113
1034	0.113
1034	0.113
1035	0.112
1035	0.112
1036	0.112
1036	0.112
1036	0.112
1037	0.112
1037	0.112
1038	0.112
1038	0.111
1039	0.111
1039	0.112
1039	0.112
1040	0.112
1040	0.112
1041	0.112
1041	0.112
1041	0.112
1042	0.112
1042	0.112
1043	0.112
1043	0.112
1044	0.112
1044	0.112
1044	0.112
1045	0.112
1045	0.112
1046	0.113
1046	0.113
1046	0.113
1047	0.113
1047	0.114
1048	0.114
1048	0.115
1049	0.115
1049	0.115
1049	0.115
1050	0.116
1050	0.115
1051	0.115
1051	0.115
1051	0.115
1052	0.114
1052	0.114
1053	0.113
1053	0.112
1053	0.112
1054	0.111
1054	0.11
1055	0.11
1055	0.109
1056	0.108
1056	0.107
1056	0.106
1057	0.105
1057	0.105
1058	0.104
1058	0.102
1058	0.102
1059	0.101
1059	0.101
1060	0.1
1060	0.1
1061	0.099
1061	0.099
1061	0.099
1062	0.099
1062	0.098
1063	0.098
1063	0.098
1063	0.097
1064	0.097
1064	0.097
1065	0.096
1065	0.096
1066	0.096
1066	0.095
1066	0.095
1067	0.094
1067	0.094
1068	0.094
1068	0.094
1068	0.093
1069	0.093
1069	0.092
1070	0.092
1070	0.091
1071	0.091
1071	0.09
1071	0.09
1072	0.089
1072	0.088
1073	0.087
1073	0.086
1073	0.086
1074	0.086
1074	0.086
1075	0.086
1075	0.086
1076	0.086
1076	0.087
1076	0.087
1077	0.087
1077	0.088
1078	0.088
1078	0.088
1078	0.088
1079	0.088
1079	0.088
1080	0.087
1080	0.087
1080	0.087
1081	0.086
1081	0.086
1082	0.087
1082	0.087
1083	0.087
1083	0.087
1083	0.087
1084	0.087
1084	0.087
1085	0.087
1085	0.087
1085	0.087
1086	0.087
1086	0.086
1087	0.086
1087	0.085
1088	0.085
1088	0.085
1088	0.085
1089	0.085
1089	0.084
1090	0.083
1090	0.083
1090	0.082
1091	0.083
1091	0.082
1092	0.082
1092	0.082
1092	0.082
1093	0.081
1093	0.081
1094	0.082
1094	0.082
1095	0.082
1095	0.082
1095	0.081
1096	0.08
1096	0.079
1097	0.079
1097	0.078
1097	0.078
1098	0.078
1098	0.077
1099	0.076
1099	0.075
1100	0.074
1100	0.073
1100	0.073
1101	0.072
1101	0.071
1102	0.072
1102	0.071
1102	0.069
1103	0.069
1103	0.069
1104	0.069
1104	0.069
1104	0.069
1105	0.068
1105	0.066
1106	0.064
1106	0.063
1107	0.062
1107	0.062
1107	0.061
1108	0.06
1108	0.059
1109	0.057
1109	0.056
1109	0.056
1110	0.058
1110	0.059
1111	0.057
1111	0.059
