Data from reversibility-20sec_Absorbance__4999__000000000004999.txt Node

Date: Wed Dec 06 15:59:26 CET 2023
User: Marek
Spectrometer: MAYP115816
Trigger mode: 0
Integration Time (sec): 2.000000E-1
Scans to average: 10
Electric dark correction enabled: true
Nonlinearity correction enabled: true
Boxcar width: 5
XAxis mode: Wavelengths
Number of Pixels in Spectrum: 2068
>>>>>Begin Spectral Data<<<<<
199	-0.237
199	-0.198
200	-0.125
200	-0.067
201	-0.037
201	-0.019
202	-0.004
202	0.007
203	0.013
203	0.017
204	0.037
204	0.051
205	0.062
205	0.067
205	0.067
206	0.068
206	0.069
207	0.069
207	0.068
208	0.068
208	0.07
209	0.07
209	0.068
210	0.069
210	0.071
211	0.07
211	0.072
212	0.071
212	0.071
213	0.074
213	0.075
213	0.072
214	0.076
214	0.078
215	0.081
215	0.08
216	0.082
216	0.079
217	0.082
217	0.086
218	0.084
218	0.091
219	0.098
219	0.1
220	0.103
220	0.102
221	0.103
221	0.105
221	0.112
222	0.118
222	0.121
223	0.127
223	0.129
224	0.133
224	0.139
225	0.148
225	0.16
226	0.167
226	0.178
227	0.189
227	0.199
228	0.215
228	0.23
229	0.248
229	0.271
229	0.293
230	0.318
230	0.346
231	0.38
231	0.417
232	0.454
232	0.5
233	0.541
233	0.589
234	0.636
234	0.686
235	0.741
235	0.791
236	0.842
236	0.895
236	0.947
237	0.998
237	1.045
238	1.095
238	1.142
239	1.194
239	1.236
240	1.277
240	1.314
241	1.349
241	1.383
242	1.415
242	1.448
243	1.475
243	1.502
243	1.526
244	1.545
244	1.565
245	1.582
245	1.605
246	1.624
246	1.64
247	1.655
247	1.67
248	1.686
248	1.699
249	1.711
249	1.719
250	1.729
250	1.738
250	1.744
251	1.751
251	1.755
252	1.761
252	1.76
253	1.762
253	1.761
254	1.762
254	1.765
255	1.766
255	1.767
256	1.767
256	1.766
257	1.766
257	1.764
258	1.767
258	1.768
258	1.768
259	1.768
259	1.765
260	1.766
260	1.767
261	1.766
261	1.767
262	1.771
262	1.772
263	1.773
263	1.772
264	1.772
264	1.773
265	1.774
265	1.773
265	1.774
266	1.774
266	1.776
267	1.772
267	1.773
268	1.772
268	1.774
269	1.776
269	1.774
270	1.773
270	1.771
271	1.768
271	1.769
272	1.766
272	1.766
272	1.764
273	1.761
273	1.755
274	1.751
274	1.746
275	1.741
275	1.737
276	1.731
276	1.723
277	1.715
277	1.705
278	1.694
278	1.682
278	1.67
279	1.656
279	1.641
280	1.623
280	1.599
281	1.572
281	1.54
282	1.508
282	1.473
283	1.439
283	1.404
284	1.369
284	1.334
285	1.301
285	1.27
285	1.242
286	1.217
286	1.196
287	1.175
287	1.158
288	1.143
288	1.13
289	1.119
289	1.109
290	1.101
290	1.093
291	1.086
291	1.08
292	1.074
292	1.069
292	1.064
293	1.06
293	1.056
294	1.052
294	1.048
295	1.044
295	1.041
296	1.037
296	1.034
297	1.03
297	1.027
298	1.024
298	1.021
298	1.017
299	1.014
299	1.011
300	1.008
300	1.005
301	1.002
301	0.999
302	0.996
302	0.994
303	0.991
303	0.988
304	0.986
304	0.983
305	0.98
305	0.978
305	0.975
306	0.972
306	0.969
307	0.967
307	0.964
308	0.96
308	0.957
309	0.954
309	0.951
310	0.948
310	0.945
311	0.942
311	0.938
311	0.935
312	0.931
312	0.928
313	0.924
313	0.92
314	0.916
314	0.912
315	0.908
315	0.904
316	0.899
316	0.895
317	0.89
317	0.885
318	0.88
318	0.875
318	0.87
319	0.864
319	0.859
320	0.853
320	0.847
321	0.841
321	0.835
322	0.829
322	0.823
323	0.817
323	0.81
324	0.804
324	0.797
324	0.791
325	0.784
325	0.778
326	0.771
326	0.764
327	0.758
327	0.751
328	0.744
328	0.737
329	0.73
329	0.724
330	0.717
330	0.71
330	0.703
331	0.696
331	0.689
332	0.683
332	0.676
333	0.669
333	0.662
334	0.655
334	0.648
335	0.642
335	0.635
336	0.628
336	0.622
336	0.615
337	0.609
337	0.603
338	0.597
338	0.591
339	0.585
339	0.579
340	0.574
340	0.568
341	0.563
341	0.557
342	0.552
342	0.547
342	0.541
343	0.536
343	0.531
344	0.527
344	0.522
345	0.517
345	0.513
346	0.508
346	0.504
347	0.499
347	0.495
348	0.491
348	0.487
348	0.483
349	0.479
349	0.475
350	0.472
350	0.468
351	0.465
351	0.462
352	0.458
352	0.455
353	0.452
353	0.449
354	0.446
354	0.443
354	0.44
355	0.437
355	0.434
356	0.431
356	0.428
357	0.425
357	0.422
358	0.419
358	0.417
359	0.415
359	0.412
360	0.41
360	0.408
360	0.406
361	0.404
361	0.403
362	0.401
362	0.4
363	0.398
363	0.396
364	0.393
364	0.391
365	0.39
365	0.388
366	0.386
366	0.384
366	0.382
367	0.38
367	0.378
368	0.376
368	0.375
369	0.373
369	0.371
370	0.37
370	0.368
371	0.367
371	0.365
372	0.364
372	0.362
372	0.361
373	0.36
373	0.359
374	0.358
374	0.356
375	0.355
375	0.355
376	0.353
376	0.352
377	0.351
377	0.35
378	0.349
378	0.348
378	0.347
379	0.346
379	0.345
380	0.344
380	0.344
381	0.343
381	0.342
382	0.341
382	0.34
383	0.34
383	0.339
383	0.338
384	0.338
384	0.337
385	0.336
385	0.336
386	0.335
386	0.334
387	0.334
387	0.333
388	0.332
388	0.332
389	0.331
389	0.331
389	0.33
390	0.33
390	0.329
391	0.328
391	0.328
392	0.327
392	0.327
393	0.327
393	0.326
394	0.325
394	0.325
394	0.324
395	0.324
395	0.323
396	0.323
396	0.322
397	0.322
397	0.321
398	0.321
398	0.32
399	0.32
399	0.319
400	0.319
400	0.319
400	0.318
401	0.318
401	0.318
402	0.317
402	0.317
403	0.316
403	0.316
404	0.316
404	0.315
405	0.315
405	0.315
405	0.314
406	0.314
406	0.313
407	0.313
407	0.312
408	0.312
408	0.312
409	0.311
409	0.311
410	0.311
410	0.31
411	0.31
411	0.309
411	0.309
412	0.309
412	0.308
413	0.308
413	0.307
414	0.307
414	0.307
415	0.306
415	0.306
416	0.305
416	0.305
416	0.304
417	0.304
417	0.304
418	0.304
418	0.303
419	0.303
419	0.302
420	0.302
420	0.301
421	0.301
421	0.301
421	0.3
422	0.3
422	0.3
423	0.299
423	0.299
424	0.299
424	0.298
425	0.299
425	0.298
426	0.298
426	0.297
427	0.297
427	0.297
427	0.296
428	0.296
428	0.295
429	0.295
429	0.295
430	0.295
430	0.294
431	0.294
431	0.294
432	0.294
432	0.294
432	0.294
433	0.294
433	0.294
434	0.293
434	0.294
435	0.293
435	0.293
436	0.293
436	0.293
437	0.292
437	0.292
437	0.292
438	0.292
438	0.292
439	0.292
439	0.292
440	0.291
440	0.291
441	0.291
441	0.291
442	0.291
442	0.291
442	0.29
443	0.29
443	0.29
444	0.29
444	0.29
445	0.29
445	0.29
446	0.29
446	0.289
447	0.289
447	0.289
447	0.289
448	0.289
448	0.289
449	0.289
449	0.289
450	0.289
450	0.289
451	0.289
451	0.289
452	0.289
452	0.289
452	0.289
453	0.289
453	0.289
454	0.29
454	0.289
455	0.289
455	0.289
456	0.289
456	0.289
457	0.289
457	0.289
458	0.289
458	0.289
458	0.289
459	0.289
459	0.289
460	0.289
460	0.289
461	0.289
461	0.289
462	0.289
462	0.289
463	0.289
463	0.289
463	0.289
464	0.289
464	0.289
465	0.289
465	0.289
466	0.289
466	0.29
467	0.29
467	0.29
467	0.29
468	0.291
468	0.291
469	0.291
469	0.291
470	0.292
470	0.292
471	0.293
471	0.293
472	0.294
472	0.294
472	0.294
473	0.295
473	0.295
474	0.296
474	0.296
475	0.296
475	0.297
476	0.297
476	0.298
477	0.299
477	0.299
477	0.3
478	0.301
478	0.301
479	0.302
479	0.303
480	0.304
480	0.304
481	0.305
481	0.305
482	0.306
482	0.307
482	0.307
483	0.308
483	0.309
484	0.31
484	0.31
485	0.311
485	0.312
486	0.313
486	0.313
487	0.314
487	0.315
487	0.316
488	0.316
488	0.317
489	0.318
489	0.32
490	0.321
490	0.322
491	0.324
491	0.325
492	0.326
492	0.327
492	0.329
493	0.33
493	0.331
494	0.332
494	0.334
495	0.335
495	0.336
496	0.338
496	0.339
496	0.341
497	0.342
497	0.343
498	0.345
498	0.346
499	0.348
499	0.349
500	0.351
500	0.352
501	0.353
501	0.354
501	0.356
502	0.357
502	0.358
503	0.359
503	0.36
504	0.362
504	0.363
505	0.364
505	0.366
506	0.367
506	0.368
506	0.369
507	0.371
507	0.372
508	0.374
508	0.375
509	0.376
509	0.377
510	0.378
510	0.379
511	0.38
511	0.382
511	0.383
512	0.384
512	0.385
513	0.386
513	0.387
514	0.388
514	0.389
515	0.39
515	0.39
515	0.391
516	0.391
516	0.392
517	0.393
517	0.393
518	0.394
518	0.394
519	0.395
519	0.395
520	0.395
520	0.395
520	0.396
521	0.395
521	0.395
522	0.395
522	0.395
523	0.395
523	0.395
524	0.394
524	0.394
524	0.393
525	0.393
525	0.392
526	0.392
526	0.391
527	0.39
527	0.39
528	0.389
528	0.388
529	0.387
529	0.386
529	0.385
530	0.384
530	0.383
531	0.382
531	0.381
532	0.38
532	0.379
533	0.377
533	0.376
533	0.375
534	0.373
534	0.371
535	0.37
535	0.368
536	0.367
536	0.365
537	0.363
537	0.361
538	0.359
538	0.358
538	0.356
539	0.354
539	0.353
540	0.351
540	0.349
541	0.347
541	0.345
542	0.343
542	0.34
542	0.338
543	0.336
543	0.334
544	0.331
544	0.329
545	0.327
545	0.325
546	0.322
546	0.32
547	0.318
547	0.316
547	0.313
548	0.311
548	0.309
549	0.307
549	0.304
550	0.302
550	0.3
551	0.298
551	0.295
551	0.293
552	0.291
552	0.288
553	0.286
553	0.284
554	0.282
554	0.28
555	0.277
555	0.275
556	0.273
556	0.271
556	0.269
557	0.268
557	0.266
558	0.264
558	0.263
559	0.261
559	0.259
560	0.257
560	0.255
560	0.253
561	0.252
561	0.25
562	0.247
562	0.245
563	0.243
563	0.24
564	0.238
564	0.236
564	0.234
565	0.232
565	0.231
566	0.229
566	0.227
567	0.225
567	0.224
568	0.222
568	0.22
568	0.219
569	0.217
569	0.216
570	0.213
570	0.212
571	0.21
571	0.209
572	0.207
572	0.205
573	0.204
573	0.202
573	0.201
574	0.2
574	0.199
575	0.197
575	0.196
576	0.195
576	0.193
577	0.192
577	0.19
577	0.189
578	0.187
578	0.186
579	0.186
579	0.185
580	0.183
580	0.181
581	0.18
581	0.179
581	0.178
582	0.178
582	0.177
583	0.176
583	0.175
584	0.173
584	0.171
585	0.17
585	0.169
585	0.167
586	0.166
586	0.165
587	0.164
587	0.162
588	0.161
588	0.16
589	0.159
589	0.158
590	0.158
590	0.157
590	0.157
591	0.157
591	0.156
592	0.155
592	0.153
593	0.153
593	0.152
594	0.151
594	0.15
594	0.149
595	0.148
595	0.147
596	0.146
596	0.145
597	0.145
597	0.145
598	0.144
598	0.144
598	0.143
599	0.143
599	0.142
600	0.141
600	0.14
601	0.14
601	0.139
602	0.138
602	0.137
602	0.136
603	0.136
603	0.135
604	0.135
604	0.134
605	0.134
605	0.133
606	0.133
606	0.132
606	0.131
607	0.13
607	0.129
608	0.129
608	0.128
609	0.127
609	0.127
610	0.126
610	0.125
610	0.125
611	0.125
611	0.125
612	0.124
612	0.124
613	0.124
613	0.123
614	0.123
614	0.122
614	0.121
615	0.121
615	0.12
616	0.12
616	0.119
617	0.118
617	0.118
618	0.117
618	0.117
618	0.117
619	0.117
619	0.117
620	0.117
620	0.116
621	0.116
621	0.115
622	0.114
622	0.114
622	0.113
623	0.112
623	0.111
624	0.111
624	0.11
625	0.109
625	0.109
626	0.108
626	0.107
626	0.107
627	0.107
627	0.107
628	0.106
628	0.106
629	0.106
629	0.105
630	0.105
630	0.105
630	0.105
631	0.105
631	0.105
632	0.104
632	0.104
633	0.104
633	0.103
634	0.103
634	0.104
634	0.103
635	0.103
635	0.102
636	0.101
636	0.101
637	0.1
637	0.1
638	0.099
638	0.099
638	0.099
639	0.098
639	0.098
640	0.098
640	0.098
641	0.098
641	0.098
642	0.098
642	0.098
642	0.098
643	0.098
643	0.098
644	0.098
644	0.098
645	0.098
645	0.097
646	0.097
646	0.097
646	0.096
647	0.096
647	0.095
648	0.094
648	0.093
649	0.093
649	0.092
650	0.092
650	0.092
650	0.092
651	0.092
651	0.091
652	0.091
652	0.091
653	0.091
653	0.093
653	0.099
654	0.08
654	0.065
655	0.063
655	0.062
656	0.062
656	0.063
657	0.063
657	0.063
657	0.063
658	0.062
658	0.054
659	0.068
659	0.085
660	0.091
660	0.091
661	0.091
661	0.091
661	0.091
662	0.09
662	0.09
663	0.09
663	0.09
664	0.089
664	0.089
665	0.088
665	0.088
665	0.088
666	0.088
666	0.088
667	0.088
667	0.088
668	0.088
668	0.088
669	0.088
669	0.088
669	0.089
670	0.089
670	0.088
671	0.088
671	0.087
672	0.086
672	0.086
672	0.085
673	0.085
673	0.085
674	0.084
674	0.083
675	0.083
675	0.083
676	0.083
676	0.083
676	0.083
677	0.083
677	0.083
678	0.082
678	0.082
679	0.081
679	0.081
680	0.08
680	0.08
680	0.079
681	0.079
681	0.079
682	0.08
682	0.08
683	0.08
683	0.081
684	0.081
684	0.081
684	0.08
685	0.08
685	0.081
686	0.081
686	0.08
687	0.08
687	0.08
687	0.08
688	0.08
688	0.08
689	0.08
689	0.081
690	0.081
690	0.08
691	0.08
691	0.08
691	0.079
692	0.079
692	0.078
693	0.078
693	0.078
694	0.078
694	0.077
695	0.078
695	0.079
695	0.08
696	0.08
696	0.08
697	0.08
697	0.081
698	0.08
698	0.08
698	0.08
699	0.08
699	0.08
700	0.079
700	0.079
701	0.078
701	0.078
702	0.077
702	0.076
702	0.076
703	0.076
703	0.075
704	0.075
704	0.075
705	0.075
705	0.075
705	0.075
706	0.076
706	0.076
707	0.077
707	0.077
708	0.077
708	0.078
709	0.078
709	0.077
709	0.077
710	0.077
710	0.077
711	0.076
711	0.076
712	0.076
712	0.075
713	0.075
713	0.075
713	0.074
714	0.074
714	0.073
715	0.073
715	0.072
716	0.071
716	0.071
716	0.07
717	0.07
717	0.069
718	0.069
718	0.068
719	0.069
719	0.069
720	0.069
720	0.069
720	0.069
721	0.069
721	0.07
722	0.07
722	0.071
723	0.071
723	0.071
723	0.071
724	0.071
724	0.071
725	0.07
725	0.07
726	0.069
726	0.069
727	0.069
727	0.068
727	0.068
728	0.068
728	0.067
729	0.067
729	0.067
730	0.067
730	0.067
730	0.067
731	0.068
731	0.068
732	0.069
732	0.069
733	0.069
733	0.07
734	0.07
734	0.071
734	0.071
735	0.072
735	0.072
736	0.071
736	0.071
737	0.071
737	0.071
737	0.07
738	0.07
738	0.069
739	0.068
739	0.067
740	0.067
740	0.066
741	0.066
741	0.066
741	0.065
742	0.065
742	0.065
743	0.066
743	0.066
744	0.067
744	0.067
744	0.068
745	0.068
745	0.068
746	0.068
746	0.068
747	0.067
747	0.067
748	0.067
748	0.066
748	0.066
749	0.065
749	0.065
750	0.064
750	0.063
751	0.063
751	0.063
751	0.062
752	0.062
752	0.061
753	0.061
753	0.061
754	0.061
754	0.06
754	0.061
755	0.061
755	0.061
756	0.06
756	0.059
757	0.059
757	0.059
758	0.059
758	0.059
758	0.059
759	0.06
759	0.059
760	0.059
760	0.059
761	0.059
761	0.06
761	0.06
762	0.06
762	0.061
763	0.061
763	0.06
764	0.06
764	0.06
764	0.059
765	0.059
765	0.059
766	0.058
766	0.058
767	0.058
767	0.057
768	0.056
768	0.056
768	0.056
769	0.057
769	0.057
770	0.057
770	0.058
771	0.058
771	0.058
771	0.059
772	0.059
772	0.06
773	0.06
773	0.06
774	0.059
774	0.059
775	0.059
775	0.059
775	0.058
776	0.058
776	0.058
777	0.057
777	0.057
778	0.057
778	0.056
778	0.056
779	0.056
779	0.056
780	0.056
780	0.056
781	0.056
781	0.055
781	0.056
782	0.055
782	0.056
783	0.056
783	0.056
784	0.056
784	0.056
784	0.057
785	0.057
785	0.057
786	0.057
786	0.057
787	0.058
787	0.057
788	0.057
788	0.056
788	0.055
789	0.055
789	0.054
790	0.054
790	0.053
791	0.052
791	0.051
791	0.05
792	0.05
792	0.049
793	0.049
793	0.048
794	0.048
794	0.048
794	0.047
795	0.048
795	0.048
796	0.049
796	0.049
797	0.05
797	0.05
797	0.051
798	0.052
798	0.053
799	0.053
799	0.053
800	0.052
800	0.052
801	0.051
801	0.051
801	0.05
802	0.05
802	0.049
803	0.049
803	0.049
804	0.049
804	0.05
804	0.049
805	0.049
805	0.049
806	0.049
806	0.049
807	0.049
807	0.049
807	0.049
808	0.049
808	0.05
809	0.05
809	0.05
810	0.05
810	0.05
810	0.051
811	0.051
811	0.051
812	0.052
812	0.052
813	0.051
813	0.051
813	0.051
814	0.051
814	0.051
815	0.052
815	0.052
816	0.052
816	0.051
817	0.051
817	0.05
817	0.05
818	0.05
818	0.05
819	0.05
819	0.05
820	0.049
820	0.049
820	0.049
821	0.049
821	0.049
822	0.049
822	0.049
823	0.049
823	0.049
823	0.05
824	0.05
824	0.051
825	0.052
825	0.052
826	0.053
826	0.053
826	0.053
827	0.053
827	0.054
828	0.054
828	0.054
829	0.054
829	0.054
829	0.053
830	0.053
830	0.054
831	0.054
831	0.054
832	0.053
832	0.053
832	0.053
833	0.053
833	0.053
834	0.052
834	0.052
835	0.051
835	0.051
835	0.05
836	0.05
836	0.049
837	0.049
837	0.048
838	0.048
838	0.048
839	0.047
839	0.047
839	0.047
840	0.046
840	0.045
841	0.045
841	0.044
842	0.044
842	0.043
842	0.043
843	0.042
843	0.041
844	0.04
844	0.04
845	0.039
845	0.038
845	0.037
846	0.037
846	0.036
847	0.036
847	0.036
848	0.036
848	0.036
848	0.037
849	0.038
849	0.038
850	0.039
850	0.04
851	0.04
851	0.041
851	0.042
852	0.042
852	0.042
853	0.042
853	0.042
854	0.043
854	0.044
854	0.044
855	0.045
855	0.045
856	0.046
856	0.046
857	0.047
857	0.047
857	0.047
858	0.047
858	0.047
859	0.046
859	0.045
860	0.045
860	0.044
860	0.043
861	0.043
861	0.042
862	0.042
862	0.041
863	0.041
863	0.04
863	0.04
864	0.04
864	0.04
865	0.041
865	0.041
866	0.041
866	0.041
866	0.041
867	0.042
867	0.042
868	0.043
868	0.043
869	0.043
869	0.042
869	0.042
870	0.042
870	0.041
871	0.041
871	0.041
872	0.041
872	0.041
872	0.041
873	0.04
873	0.04
874	0.04
874	0.04
875	0.04
875	0.04
875	0.04
876	0.04
876	0.041
877	0.041
877	0.041
878	0.042
878	0.042
878	0.043
879	0.043
879	0.043
880	0.043
880	0.043
881	0.042
881	0.042
881	0.042
882	0.041
882	0.04
883	0.04
883	0.04
884	0.04
884	0.039
884	0.039
885	0.039
885	0.039
886	0.039
886	0.039
887	0.039
887	0.038
887	0.038
888	0.037
888	0.036
889	0.036
889	0.035
890	0.035
890	0.035
890	0.034
891	0.034
891	0.034
892	0.034
892	0.034
893	0.034
893	0.034
893	0.034
894	0.033
894	0.033
895	0.033
895	0.034
895	0.034
896	0.034
896	0.035
897	0.036
897	0.037
898	0.037
898	0.038
898	0.039
899	0.04
899	0.04
900	0.041
900	0.041
901	0.041
901	0.041
901	0.041
902	0.041
902	0.041
903	0.041
903	0.04
904	0.04
904	0.039
904	0.039
905	0.038
905	0.038
906	0.038
906	0.038
907	0.038
907	0.038
907	0.038
908	0.038
908	0.037
909	0.037
909	0.037
910	0.037
910	0.037
910	0.037
911	0.037
911	0.037
912	0.037
912	0.037
913	0.037
913	0.037
913	0.037
914	0.038
914	0.038
915	0.038
915	0.038
916	0.038
916	0.038
916	0.038
917	0.038
917	0.038
918	0.038
918	0.038
918	0.039
919	0.039
919	0.039
920	0.039
920	0.039
921	0.04
921	0.04
921	0.04
922	0.04
922	0.04
923	0.04
923	0.041
924	0.041
924	0.042
924	0.042
925	0.042
925	0.042
926	0.043
926	0.043
927	0.043
927	0.043
927	0.042
928	0.042
928	0.042
929	0.041
929	0.041
930	0.04
930	0.04
930	0.039
931	0.039
931	0.039
932	0.038
932	0.038
933	0.038
933	0.038
933	0.038
934	0.038
934	0.037
935	0.037
935	0.037
935	0.036
936	0.036
936	0.035
937	0.035
937	0.035
938	0.035
938	0.034
938	0.034
939	0.035
939	0.035
940	0.035
940	0.035
941	0.036
941	0.036
941	0.037
942	0.037
942	0.037
943	0.037
943	0.037
944	0.037
944	0.038
944	0.038
945	0.038
945	0.038
946	0.038
946	0.038
946	0.038
947	0.038
947	0.038
948	0.038
948	0.038
949	0.038
949	0.038
949	0.038
950	0.038
950	0.038
951	0.038
951	0.038
952	0.038
952	0.038
952	0.037
953	0.037
953	0.037
954	0.037
954	0.037
955	0.037
955	0.037
955	0.037
956	0.037
956	0.038
957	0.038
957	0.038
957	0.038
958	0.038
958	0.038
959	0.038
959	0.038
960	0.038
960	0.038
960	0.038
961	0.037
961	0.037
962	0.037
962	0.037
963	0.037
963	0.037
963	0.037
964	0.038
964	0.038
965	0.038
965	0.039
966	0.039
966	0.039
966	0.04
967	0.04
967	0.04
968	0.04
968	0.04
968	0.04
969	0.04
969	0.039
970	0.039
970	0.038
971	0.037
971	0.037
971	0.036
972	0.035
972	0.034
973	0.034
973	0.033
974	0.033
974	0.033
974	0.033
975	0.033
975	0.034
976	0.034
976	0.034
976	0.034
977	0.034
977	0.034
978	0.033
978	0.033
979	0.033
979	0.032
979	0.032
980	0.032
980	0.031
981	0.03
981	0.03
982	0.03
982	0.03
982	0.029
983	0.029
983	0.029
984	0.029
984	0.029
984	0.03
985	0.03
985	0.03
986	0.031
986	0.031
987	0.031
987	0.031
987	0.031
988	0.032
988	0.032
989	0.032
989	0.032
990	0.032
990	0.032
990	0.032
991	0.033
991	0.033
992	0.032
992	0.032
992	0.031
993	0.03
993	0.029
994	0.029
994	0.028
995	0.027
995	0.026
995	0.026
996	0.026
996	0.026
997	0.026
997	0.026
997	0.026
998	0.027
998	0.028
999	0.029
999	0.03
1000	0.031
1000	0.031
1000	0.032
1001	0.032
1001	0.032
1002	0.032
1002	0.032
1003	0.032
1003	0.032
1003	0.031
1004	0.031
1004	0.03
1005	0.029
1005	0.029
1005	0.028
1006	0.028
1006	0.028
1007	0.027
1007	0.027
1008	0.027
1008	0.027
1008	0.027
1009	0.027
1009	0.027
1010	0.026
1010	0.026
1010	0.026
1011	0.026
1011	0.025
1012	0.025
1012	0.025
1013	0.025
1013	0.025
1013	0.024
1014	0.024
1014	0.024
1015	0.024
1015	0.025
1016	0.025
1016	0.025
1016	0.026
1017	0.026
1017	0.026
1018	0.027
1018	0.027
1018	0.027
1019	0.027
1019	0.028
1020	0.028
1020	0.028
1021	0.028
1021	0.029
1021	0.029
1022	0.029
1022	0.029
1023	0.029
1023	0.029
1023	0.03
1024	0.03
1024	0.03
1025	0.03
1025	0.03
1026	0.03
1026	0.03
1026	0.03
1027	0.03
1027	0.03
1028	0.03
1028	0.03
1028	0.031
1029	0.031
1029	0.031
1030	0.032
1030	0.032
1031	0.032
1031	0.033
1031	0.033
1032	0.033
1032	0.033
1033	0.033
1033	0.033
1033	0.032
1034	0.032
1034	0.032
1035	0.032
1035	0.031
1036	0.031
1036	0.031
1036	0.031
1037	0.031
1037	0.031
1038	0.031
1038	0.031
1039	0.031
1039	0.031
1039	0.031
1040	0.032
1040	0.032
1041	0.032
1041	0.032
1041	0.032
1042	0.032
1042	0.031
1043	0.031
1043	0.031
1044	0.031
1044	0.031
1044	0.031
1045	0.031
1045	0.031
1046	0.031
1046	0.031
1046	0.031
1047	0.032
1047	0.032
1048	0.032
1048	0.033
1049	0.033
1049	0.033
1049	0.033
1050	0.033
1050	0.032
1051	0.031
1051	0.031
1051	0.031
1052	0.03
1052	0.03
1053	0.028
1053	0.028
1053	0.027
1054	0.027
1054	0.027
1055	0.027
1055	0.027
1056	0.026
1056	0.026
1056	0.025
1057	0.025
1057	0.024
1058	0.024
1058	0.023
1058	0.023
1059	0.022
1059	0.022
1060	0.021
1060	0.021
1061	0.02
1061	0.02
1061	0.02
1062	0.02
1062	0.019
1063	0.02
1063	0.019
1063	0.019
1064	0.019
1064	0.019
1065	0.019
1065	0.019
1066	0.019
1066	0.018
1066	0.018
1067	0.018
1067	0.018
1068	0.018
1068	0.018
1068	0.018
1069	0.017
1069	0.017
1070	0.017
1070	0.016
1071	0.016
1071	0.016
1071	0.016
1072	0.016
1072	0.016
1073	0.015
1073	0.015
1073	0.015
1074	0.016
1074	0.016
1075	0.016
1075	0.016
1076	0.016
1076	0.017
1076	0.017
1077	0.017
1077	0.017
1078	0.016
1078	0.017
1078	0.016
1079	0.016
1079	0.016
1080	0.015
1080	0.015
1080	0.015
1081	0.015
1081	0.015
1082	0.015
1082	0.015
1083	0.015
1083	0.015
1083	0.015
1084	0.015
1084	0.015
1085	0.016
1085	0.016
1085	0.016
1086	0.017
1086	0.017
1087	0.017
1087	0.018
1088	0.018
1088	0.019
1088	0.019
1089	0.018
1089	0.018
1090	0.018
1090	0.018
1090	0.017
1091	0.017
1091	0.016
1092	0.016
1092	0.016
1092	0.016
1093	0.015
1093	0.016
1094	0.015
1094	0.015
1095	0.015
1095	0.015
1095	0.014
1096	0.013
1096	0.012
1097	0.012
1097	0.011
1097	0.01
1098	0.01
1098	0.009
1099	0.008
1099	0.007
1100	0.006
1100	0.005
1100	0.004
1101	0.003
1101	0.002
1102	0.001
1102	-0
1102	-0.002
1103	-0.003
1103	-0.003
1104	-0.004
1104	-0.005
1104	-0.006
1105	-0.007
1105	-0.008
1106	-0.009
1106	-0.011
1107	-0.012
1107	-0.012
1107	-0.013
1108	-0.014
1108	-0.015
1109	-0.015
1109	-0.017
1109	-0.017
1110	-0.016
1110	-0.017
1111	-0.017
1111	-0.019
