Data from reversibility-20sec_Absorbance__1803__000000000001803.txt Node

Date: Tue Dec 05 22:14:05 CET 2023
User: Marek
Spectrometer: MAYP115816
Trigger mode: 0
Integration Time (sec): 2.000000E-1
Scans to average: 10
Electric dark correction enabled: true
Nonlinearity correction enabled: true
Boxcar width: 5
XAxis mode: Wavelengths
Number of Pixels in Spectrum: 2068
>>>>>Begin Spectral Data<<<<<
199	-0.204
199	-0.166
200	-0.094
200	-0.037
201	-0.005
201	0.013
202	0.03
202	0.041
203	0.047
203	0.049
204	0.063
204	0.075
205	0.088
205	0.094
205	0.091
206	0.09
206	0.089
207	0.091
207	0.091
208	0.091
208	0.093
209	0.097
209	0.097
210	0.096
210	0.095
211	0.097
211	0.1
212	0.099
212	0.101
213	0.101
213	0.103
213	0.102
214	0.107
214	0.107
215	0.109
215	0.109
216	0.11
216	0.108
217	0.115
217	0.113
218	0.112
218	0.113
219	0.118
219	0.116
220	0.118
220	0.117
221	0.119
221	0.12
221	0.126
222	0.128
222	0.132
223	0.137
223	0.141
224	0.146
224	0.156
225	0.164
225	0.175
226	0.184
226	0.196
227	0.207
227	0.216
228	0.23
228	0.245
229	0.263
229	0.285
229	0.307
230	0.334
230	0.363
231	0.396
231	0.435
232	0.47
232	0.515
233	0.561
233	0.61
234	0.66
234	0.713
235	0.766
235	0.817
236	0.871
236	0.926
236	0.98
237	1.034
237	1.084
238	1.133
238	1.181
239	1.232
239	1.276
240	1.32
240	1.357
241	1.394
241	1.433
242	1.466
242	1.503
243	1.535
243	1.563
243	1.592
244	1.615
244	1.642
245	1.663
245	1.694
246	1.715
246	1.735
247	1.751
247	1.769
248	1.791
248	1.811
249	1.824
249	1.837
250	1.848
250	1.859
250	1.865
251	1.874
251	1.879
252	1.887
252	1.888
253	1.889
253	1.885
254	1.887
254	1.891
255	1.89
255	1.891
256	1.891
256	1.89
257	1.892
257	1.893
258	1.894
258	1.896
258	1.898
259	1.9
259	1.9
260	1.902
260	1.907
261	1.908
261	1.915
262	1.92
262	1.923
263	1.931
263	1.933
264	1.937
264	1.941
265	1.945
265	1.948
265	1.951
266	1.953
266	1.955
267	1.954
267	1.957
268	1.957
268	1.961
269	1.964
269	1.964
270	1.964
270	1.963
271	1.959
271	1.959
272	1.955
272	1.953
272	1.948
273	1.939
273	1.93
274	1.924
274	1.917
275	1.91
275	1.905
276	1.897
276	1.891
277	1.885
277	1.875
278	1.864
278	1.853
278	1.839
279	1.818
279	1.795
280	1.765
280	1.726
281	1.684
281	1.636
282	1.586
282	1.538
283	1.491
283	1.446
284	1.403
284	1.362
285	1.323
285	1.288
285	1.258
286	1.231
286	1.208
287	1.188
287	1.171
288	1.156
288	1.143
289	1.133
289	1.124
290	1.116
290	1.109
291	1.103
291	1.097
292	1.092
292	1.088
292	1.084
293	1.081
293	1.077
294	1.074
294	1.071
295	1.068
295	1.065
296	1.063
296	1.06
297	1.058
297	1.055
298	1.053
298	1.05
298	1.048
299	1.045
299	1.042
300	1.04
300	1.037
301	1.035
301	1.032
302	1.03
302	1.027
303	1.025
303	1.022
304	1.02
304	1.018
305	1.015
305	1.013
305	1.011
306	1.008
306	1.006
307	1.004
307	1.002
308	0.999
308	0.996
309	0.994
309	0.991
310	0.988
310	0.985
311	0.982
311	0.979
311	0.976
312	0.972
312	0.969
313	0.965
313	0.962
314	0.958
314	0.954
315	0.95
315	0.945
316	0.941
316	0.936
317	0.932
317	0.927
318	0.922
318	0.916
318	0.911
319	0.905
319	0.9
320	0.894
320	0.888
321	0.882
321	0.876
322	0.87
322	0.864
323	0.857
323	0.851
324	0.844
324	0.838
324	0.831
325	0.824
325	0.817
326	0.81
326	0.803
327	0.796
327	0.789
328	0.782
328	0.774
329	0.767
329	0.76
330	0.752
330	0.745
330	0.738
331	0.731
331	0.724
332	0.717
332	0.709
333	0.702
333	0.695
334	0.688
334	0.681
335	0.674
335	0.667
336	0.66
336	0.653
336	0.647
337	0.64
337	0.634
338	0.627
338	0.621
339	0.614
339	0.608
340	0.602
340	0.596
341	0.591
341	0.585
342	0.579
342	0.574
342	0.568
343	0.563
343	0.558
344	0.552
344	0.547
345	0.543
345	0.538
346	0.533
346	0.529
347	0.524
347	0.52
348	0.516
348	0.512
348	0.508
349	0.504
349	0.5
350	0.496
350	0.492
351	0.488
351	0.485
352	0.482
352	0.479
353	0.475
353	0.472
354	0.469
354	0.466
354	0.464
355	0.461
355	0.458
356	0.455
356	0.452
357	0.449
357	0.446
358	0.443
358	0.441
359	0.438
359	0.436
360	0.433
360	0.431
360	0.429
361	0.427
361	0.425
362	0.423
362	0.421
363	0.42
363	0.418
364	0.415
364	0.413
365	0.412
365	0.41
366	0.408
366	0.406
366	0.404
367	0.402
367	0.4
368	0.399
368	0.397
369	0.395
369	0.394
370	0.392
370	0.391
371	0.389
371	0.388
372	0.386
372	0.385
372	0.384
373	0.383
373	0.381
374	0.38
374	0.379
375	0.378
375	0.377
376	0.376
376	0.375
377	0.374
377	0.373
378	0.372
378	0.371
378	0.37
379	0.369
379	0.368
380	0.367
380	0.366
381	0.365
381	0.364
382	0.363
382	0.363
383	0.362
383	0.361
383	0.36
384	0.359
384	0.359
385	0.358
385	0.358
386	0.357
386	0.356
387	0.356
387	0.355
388	0.354
388	0.354
389	0.353
389	0.353
389	0.352
390	0.352
390	0.351
391	0.351
391	0.35
392	0.35
392	0.349
393	0.349
393	0.348
394	0.348
394	0.347
394	0.347
395	0.346
395	0.346
396	0.345
396	0.344
397	0.344
397	0.343
398	0.343
398	0.342
399	0.342
399	0.342
400	0.341
400	0.341
400	0.34
401	0.34
401	0.34
402	0.339
402	0.339
403	0.339
403	0.338
404	0.338
404	0.338
405	0.337
405	0.337
405	0.336
406	0.336
406	0.335
407	0.335
407	0.335
408	0.334
408	0.334
409	0.333
409	0.333
410	0.333
410	0.333
411	0.332
411	0.332
411	0.332
412	0.331
412	0.33
413	0.33
413	0.33
414	0.329
414	0.329
415	0.328
415	0.328
416	0.327
416	0.327
416	0.327
417	0.326
417	0.326
418	0.326
418	0.325
419	0.325
419	0.324
420	0.324
420	0.324
421	0.323
421	0.323
421	0.323
422	0.322
422	0.322
423	0.321
423	0.321
424	0.32
424	0.32
425	0.32
425	0.32
426	0.319
426	0.319
427	0.319
427	0.318
427	0.318
428	0.318
428	0.317
429	0.317
429	0.317
430	0.316
430	0.316
431	0.316
431	0.315
432	0.315
432	0.315
432	0.315
433	0.314
433	0.314
434	0.314
434	0.314
435	0.314
435	0.313
436	0.313
436	0.313
437	0.312
437	0.312
437	0.312
438	0.312
438	0.312
439	0.312
439	0.311
440	0.311
440	0.311
441	0.311
441	0.31
442	0.31
442	0.31
442	0.31
443	0.309
443	0.309
444	0.309
444	0.309
445	0.309
445	0.308
446	0.308
446	0.308
447	0.307
447	0.307
447	0.307
448	0.307
448	0.307
449	0.307
449	0.307
450	0.307
450	0.307
451	0.306
451	0.307
452	0.307
452	0.306
452	0.306
453	0.306
453	0.306
454	0.306
454	0.305
455	0.305
455	0.304
456	0.304
456	0.304
457	0.303
457	0.303
458	0.303
458	0.302
458	0.302
459	0.302
459	0.302
460	0.302
460	0.302
461	0.302
461	0.302
462	0.302
462	0.302
463	0.302
463	0.301
463	0.302
464	0.301
464	0.301
465	0.301
465	0.301
466	0.3
466	0.3
467	0.3
467	0.3
467	0.3
468	0.3
468	0.3
469	0.3
469	0.3
470	0.3
470	0.3
471	0.3
471	0.3
472	0.301
472	0.3
472	0.301
473	0.301
473	0.301
474	0.301
474	0.301
475	0.301
475	0.302
476	0.302
476	0.302
477	0.302
477	0.303
477	0.303
478	0.303
478	0.303
479	0.304
479	0.304
480	0.304
480	0.304
481	0.305
481	0.304
482	0.305
482	0.305
482	0.305
483	0.306
483	0.306
484	0.307
484	0.307
485	0.307
485	0.307
486	0.308
486	0.308
487	0.308
487	0.309
487	0.309
488	0.31
488	0.31
489	0.31
489	0.312
490	0.313
490	0.313
491	0.314
491	0.315
492	0.316
492	0.316
492	0.317
493	0.318
493	0.319
494	0.32
494	0.32
495	0.321
495	0.322
496	0.322
496	0.323
496	0.324
497	0.325
497	0.325
498	0.326
498	0.327
499	0.328
499	0.329
500	0.33
500	0.33
501	0.331
501	0.332
501	0.333
502	0.333
502	0.334
503	0.335
503	0.336
504	0.337
504	0.337
505	0.338
505	0.339
506	0.339
506	0.34
506	0.341
507	0.342
507	0.343
508	0.343
508	0.344
509	0.345
509	0.345
510	0.346
510	0.347
511	0.348
511	0.349
511	0.35
512	0.35
512	0.351
513	0.352
513	0.352
514	0.353
514	0.353
515	0.354
515	0.355
515	0.355
516	0.356
516	0.356
517	0.357
517	0.357
518	0.357
518	0.357
519	0.358
519	0.358
520	0.358
520	0.358
520	0.358
521	0.358
521	0.358
522	0.358
522	0.358
523	0.359
523	0.359
524	0.359
524	0.359
524	0.359
525	0.36
525	0.359
526	0.36
526	0.359
527	0.359
527	0.359
528	0.359
528	0.359
529	0.359
529	0.358
529	0.358
530	0.357
530	0.357
531	0.356
531	0.356
532	0.355
532	0.354
533	0.354
533	0.353
533	0.353
534	0.352
534	0.351
535	0.351
535	0.351
536	0.35
536	0.349
537	0.349
537	0.348
538	0.347
538	0.346
538	0.345
539	0.345
539	0.344
540	0.343
540	0.342
541	0.341
541	0.34
542	0.339
542	0.338
542	0.337
543	0.337
543	0.336
544	0.335
544	0.334
545	0.333
545	0.332
546	0.331
546	0.33
547	0.329
547	0.328
547	0.327
548	0.326
548	0.325
549	0.324
549	0.323
550	0.322
550	0.321
551	0.32
551	0.319
551	0.318
552	0.317
552	0.316
553	0.315
553	0.314
554	0.313
554	0.312
555	0.311
555	0.31
556	0.308
556	0.307
556	0.307
557	0.306
557	0.305
558	0.304
558	0.304
559	0.303
559	0.302
560	0.301
560	0.3
560	0.299
561	0.299
561	0.298
562	0.297
562	0.295
563	0.294
563	0.293
564	0.292
564	0.291
564	0.29
565	0.29
565	0.289
566	0.288
566	0.287
567	0.286
567	0.286
568	0.285
568	0.285
568	0.285
569	0.284
569	0.283
570	0.282
570	0.28
571	0.28
571	0.279
572	0.278
572	0.277
573	0.276
573	0.275
573	0.274
574	0.273
574	0.272
575	0.272
575	0.272
576	0.271
576	0.27
577	0.269
577	0.268
577	0.267
578	0.267
578	0.266
579	0.266
579	0.266
580	0.265
580	0.263
581	0.262
581	0.261
581	0.261
582	0.261
582	0.261
583	0.261
583	0.26
584	0.259
584	0.258
585	0.257
585	0.257
585	0.257
586	0.256
586	0.255
587	0.254
587	0.253
588	0.252
588	0.251
589	0.251
589	0.25
590	0.25
590	0.25
590	0.25
591	0.25
591	0.249
592	0.248
592	0.247
593	0.247
593	0.247
594	0.246
594	0.245
594	0.244
595	0.243
595	0.243
596	0.242
596	0.241
597	0.242
597	0.242
598	0.241
598	0.241
598	0.24
599	0.24
599	0.239
600	0.238
600	0.238
601	0.237
601	0.237
602	0.236
602	0.236
602	0.235
603	0.235
603	0.235
604	0.235
604	0.235
605	0.235
605	0.234
606	0.234
606	0.233
606	0.233
607	0.232
607	0.232
608	0.231
608	0.23
609	0.23
609	0.229
610	0.229
610	0.228
610	0.228
611	0.228
611	0.228
612	0.228
612	0.228
613	0.228
613	0.228
614	0.228
614	0.227
614	0.227
615	0.227
615	0.226
616	0.226
616	0.226
617	0.225
617	0.225
618	0.224
618	0.224
618	0.224
619	0.224
619	0.224
620	0.224
620	0.223
621	0.223
621	0.222
622	0.221
622	0.221
622	0.22
623	0.22
623	0.22
624	0.219
624	0.219
625	0.218
625	0.218
626	0.218
626	0.218
626	0.218
627	0.217
627	0.217
628	0.217
628	0.216
629	0.216
629	0.216
630	0.215
630	0.215
630	0.215
631	0.214
631	0.214
632	0.214
632	0.214
633	0.214
633	0.214
634	0.214
634	0.214
634	0.214
635	0.214
635	0.213
636	0.213
636	0.213
637	0.213
637	0.212
638	0.212
638	0.212
638	0.211
639	0.211
639	0.211
640	0.211
640	0.211
641	0.21
641	0.21
642	0.21
642	0.21
642	0.21
643	0.21
643	0.21
644	0.21
644	0.21
645	0.21
645	0.21
646	0.21
646	0.21
646	0.21
647	0.209
647	0.209
648	0.208
648	0.208
649	0.207
649	0.207
650	0.207
650	0.207
650	0.207
651	0.207
651	0.207
652	0.207
652	0.207
653	0.207
653	0.209
653	0.216
654	0.169
654	0.134
655	0.136
655	0.136
656	0.136
656	0.137
657	0.137
657	0.137
657	0.137
658	0.136
658	0.124
659	0.157
659	0.202
660	0.207
660	0.207
661	0.206
661	0.206
661	0.205
662	0.205
662	0.205
663	0.204
663	0.204
664	0.204
664	0.203
665	0.203
665	0.203
665	0.203
666	0.203
666	0.204
667	0.204
667	0.204
668	0.204
668	0.204
669	0.204
669	0.205
669	0.205
670	0.205
670	0.204
671	0.204
671	0.204
672	0.203
672	0.203
672	0.202
673	0.202
673	0.202
674	0.202
674	0.202
675	0.202
675	0.202
676	0.202
676	0.202
676	0.202
677	0.202
677	0.202
678	0.202
678	0.202
679	0.201
679	0.201
680	0.201
680	0.201
680	0.201
681	0.201
681	0.202
682	0.203
682	0.203
683	0.204
683	0.205
684	0.206
684	0.206
684	0.206
685	0.207
685	0.207
686	0.207
686	0.207
687	0.207
687	0.206
687	0.206
688	0.205
688	0.205
689	0.205
689	0.206
690	0.205
690	0.205
691	0.205
691	0.205
691	0.205
692	0.205
692	0.206
693	0.206
693	0.206
694	0.206
694	0.206
695	0.207
695	0.208
695	0.208
696	0.207
696	0.207
697	0.207
697	0.207
698	0.207
698	0.206
698	0.207
699	0.207
699	0.206
700	0.206
700	0.207
701	0.207
701	0.207
702	0.207
702	0.208
702	0.208
703	0.207
703	0.207
704	0.207
704	0.206
705	0.206
705	0.206
705	0.205
706	0.205
706	0.205
707	0.205
707	0.205
708	0.206
708	0.206
709	0.206
709	0.205
709	0.204
710	0.204
710	0.204
711	0.204
711	0.204
712	0.204
712	0.204
713	0.204
713	0.205
713	0.205
714	0.206
714	0.206
715	0.206
715	0.206
716	0.205
716	0.205
716	0.205
717	0.204
717	0.203
718	0.203
718	0.202
719	0.202
719	0.202
720	0.202
720	0.203
720	0.204
721	0.204
721	0.205
722	0.205
722	0.206
723	0.206
723	0.206
723	0.206
724	0.206
724	0.206
725	0.205
725	0.205
726	0.204
726	0.204
727	0.203
727	0.203
727	0.203
728	0.203
728	0.203
729	0.203
729	0.203
730	0.203
730	0.203
730	0.204
731	0.204
731	0.205
732	0.205
732	0.205
733	0.205
733	0.205
734	0.205
734	0.206
734	0.206
735	0.206
735	0.205
736	0.205
736	0.205
737	0.205
737	0.205
737	0.205
738	0.205
738	0.204
739	0.203
739	0.203
740	0.202
740	0.202
741	0.202
741	0.202
741	0.201
742	0.201
742	0.201
743	0.202
743	0.202
744	0.203
744	0.204
744	0.204
745	0.205
745	0.205
746	0.206
746	0.207
747	0.208
747	0.208
748	0.208
748	0.209
748	0.209
749	0.208
749	0.208
750	0.208
750	0.207
751	0.207
751	0.206
751	0.206
752	0.205
752	0.204
753	0.204
753	0.203
754	0.203
754	0.203
754	0.204
755	0.204
755	0.204
756	0.204
756	0.203
757	0.203
757	0.203
758	0.202
758	0.202
758	0.202
759	0.203
759	0.202
760	0.202
760	0.202
761	0.203
761	0.204
761	0.205
762	0.206
762	0.207
763	0.207
763	0.207
764	0.207
764	0.208
764	0.207
765	0.207
765	0.207
766	0.207
766	0.207
767	0.206
767	0.205
768	0.204
768	0.204
768	0.204
769	0.204
769	0.204
770	0.204
770	0.205
771	0.205
771	0.205
771	0.205
772	0.206
772	0.206
773	0.207
773	0.207
774	0.207
774	0.207
775	0.207
775	0.207
775	0.207
776	0.207
776	0.206
777	0.206
777	0.206
778	0.206
778	0.205
778	0.205
779	0.205
779	0.205
780	0.205
780	0.205
781	0.205
781	0.204
781	0.204
782	0.204
782	0.204
783	0.205
783	0.205
784	0.205
784	0.205
784	0.206
785	0.206
785	0.206
786	0.206
786	0.207
787	0.207
787	0.207
788	0.207
788	0.207
788	0.207
789	0.207
789	0.207
790	0.207
790	0.207
791	0.206
791	0.206
791	0.206
792	0.207
792	0.207
793	0.206
793	0.206
794	0.206
794	0.206
794	0.206
795	0.206
795	0.206
796	0.207
796	0.207
797	0.206
797	0.206
797	0.206
798	0.206
798	0.205
799	0.205
799	0.204
800	0.204
800	0.203
801	0.203
801	0.203
801	0.203
802	0.203
802	0.204
803	0.205
803	0.206
804	0.206
804	0.208
804	0.208
805	0.208
805	0.208
806	0.208
806	0.207
807	0.207
807	0.206
807	0.205
808	0.204
808	0.204
809	0.203
809	0.202
810	0.202
810	0.202
810	0.202
811	0.201
811	0.202
812	0.202
812	0.203
813	0.203
813	0.204
813	0.204
814	0.204
814	0.205
815	0.206
815	0.206
816	0.206
816	0.206
817	0.206
817	0.206
817	0.205
818	0.205
818	0.205
819	0.204
819	0.203
820	0.202
820	0.202
820	0.201
821	0.201
821	0.201
822	0.2
822	0.2
823	0.2
823	0.2
823	0.2
824	0.2
824	0.201
825	0.202
825	0.202
826	0.202
826	0.201
826	0.201
827	0.201
827	0.2
828	0.2
828	0.2
829	0.199
829	0.199
829	0.199
830	0.198
830	0.199
831	0.199
831	0.199
832	0.199
832	0.199
832	0.199
833	0.199
833	0.199
834	0.199
834	0.198
835	0.198
835	0.198
835	0.198
836	0.198
836	0.197
837	0.197
837	0.197
838	0.196
838	0.196
839	0.195
839	0.194
839	0.193
840	0.191
840	0.19
841	0.189
841	0.188
842	0.187
842	0.187
842	0.186
843	0.186
843	0.185
844	0.185
844	0.185
845	0.185
845	0.185
845	0.185
846	0.186
846	0.185
847	0.186
847	0.186
848	0.186
848	0.186
848	0.187
849	0.187
849	0.187
850	0.187
850	0.187
851	0.187
851	0.187
851	0.187
852	0.186
852	0.185
853	0.184
853	0.183
854	0.182
854	0.182
854	0.182
855	0.181
855	0.181
856	0.181
856	0.181
857	0.181
857	0.181
857	0.181
858	0.181
858	0.18
859	0.179
859	0.178
860	0.177
860	0.176
860	0.175
861	0.174
861	0.173
862	0.172
862	0.171
863	0.171
863	0.171
863	0.171
864	0.171
864	0.171
865	0.171
865	0.171
866	0.171
866	0.171
866	0.171
867	0.171
867	0.17
868	0.17
868	0.17
869	0.169
869	0.169
869	0.169
870	0.169
870	0.169
871	0.17
871	0.17
872	0.171
872	0.171
872	0.172
873	0.172
873	0.171
874	0.171
874	0.171
875	0.17
875	0.17
875	0.169
876	0.169
876	0.168
877	0.168
877	0.168
878	0.168
878	0.169
878	0.169
879	0.169
879	0.17
880	0.17
880	0.169
881	0.169
881	0.168
881	0.167
882	0.166
882	0.165
883	0.164
883	0.163
884	0.162
884	0.161
884	0.16
885	0.159
885	0.159
886	0.158
886	0.158
887	0.157
887	0.157
887	0.156
888	0.156
888	0.155
889	0.155
889	0.155
890	0.155
890	0.155
890	0.155
891	0.156
891	0.156
892	0.157
892	0.157
893	0.158
893	0.159
893	0.159
894	0.16
894	0.16
895	0.16
895	0.16
895	0.16
896	0.159
896	0.159
897	0.158
897	0.157
898	0.156
898	0.155
898	0.154
899	0.153
899	0.152
900	0.151
900	0.151
901	0.15
901	0.15
901	0.15
902	0.15
902	0.15
903	0.149
903	0.149
904	0.149
904	0.149
904	0.148
905	0.148
905	0.148
906	0.147
906	0.147
907	0.147
907	0.148
907	0.148
908	0.147
908	0.147
909	0.147
909	0.147
910	0.147
910	0.147
910	0.147
911	0.147
911	0.147
912	0.146
912	0.146
913	0.146
913	0.146
913	0.146
914	0.145
914	0.145
915	0.144
915	0.144
916	0.143
916	0.142
916	0.141
917	0.14
917	0.139
918	0.138
918	0.137
918	0.136
919	0.136
919	0.135
920	0.134
920	0.134
921	0.134
921	0.134
921	0.134
922	0.134
922	0.134
923	0.134
923	0.135
924	0.136
924	0.136
924	0.136
925	0.136
925	0.136
926	0.136
926	0.136
927	0.136
927	0.135
927	0.135
928	0.134
928	0.133
929	0.133
929	0.132
930	0.132
930	0.131
930	0.131
931	0.13
931	0.129
932	0.129
932	0.128
933	0.128
933	0.127
933	0.127
934	0.126
934	0.126
935	0.125
935	0.125
935	0.125
936	0.125
936	0.125
937	0.125
937	0.125
938	0.125
938	0.125
938	0.124
939	0.124
939	0.124
940	0.124
940	0.124
941	0.124
941	0.123
941	0.123
942	0.123
942	0.123
943	0.124
943	0.124
944	0.124
944	0.124
944	0.124
945	0.124
945	0.124
946	0.125
946	0.124
946	0.124
947	0.125
947	0.124
948	0.124
948	0.124
949	0.124
949	0.124
949	0.123
950	0.123
950	0.123
951	0.123
951	0.122
952	0.122
952	0.122
952	0.121
953	0.121
953	0.121
954	0.12
954	0.12
955	0.119
955	0.119
955	0.119
956	0.119
956	0.119
957	0.119
957	0.118
957	0.118
958	0.118
958	0.119
959	0.119
959	0.119
960	0.119
960	0.119
960	0.119
961	0.119
961	0.119
962	0.119
962	0.118
963	0.118
963	0.117
963	0.117
964	0.116
964	0.116
965	0.116
965	0.116
966	0.115
966	0.115
966	0.115
967	0.115
967	0.115
968	0.115
968	0.115
968	0.114
969	0.114
969	0.113
970	0.113
970	0.113
971	0.112
971	0.112
971	0.112
972	0.112
972	0.111
973	0.111
973	0.111
974	0.111
974	0.111
974	0.111
975	0.111
975	0.111
976	0.112
976	0.112
976	0.112
977	0.112
977	0.112
978	0.112
978	0.112
979	0.112
979	0.112
979	0.112
980	0.112
980	0.111
981	0.111
981	0.111
982	0.11
982	0.11
982	0.109
983	0.109
983	0.108
984	0.107
984	0.106
984	0.105
985	0.104
985	0.103
986	0.102
986	0.101
987	0.1
987	0.099
987	0.098
988	0.097
988	0.096
989	0.096
989	0.095
990	0.095
990	0.094
990	0.094
991	0.094
991	0.094
992	0.094
992	0.094
992	0.094
993	0.094
993	0.094
994	0.094
994	0.094
995	0.094
995	0.094
995	0.095
996	0.095
996	0.095
997	0.096
997	0.096
997	0.097
998	0.098
998	0.098
999	0.099
999	0.1
1000	0.101
1000	0.102
1000	0.102
1001	0.103
1001	0.104
1002	0.104
1002	0.104
1003	0.105
1003	0.104
1003	0.104
1004	0.103
1004	0.102
1005	0.102
1005	0.101
1005	0.1
1006	0.099
1006	0.099
1007	0.098
1007	0.098
1008	0.098
1008	0.098
1008	0.097
1009	0.098
1009	0.098
1010	0.097
1010	0.097
1010	0.097
1011	0.097
1011	0.097
1012	0.096
1012	0.096
1013	0.096
1013	0.096
1013	0.095
1014	0.095
1014	0.095
1015	0.095
1015	0.095
1016	0.095
1016	0.094
1016	0.094
1017	0.093
1017	0.093
1018	0.092
1018	0.092
1018	0.092
1019	0.091
1019	0.091
1020	0.091
1020	0.091
1021	0.091
1021	0.091
1021	0.091
1022	0.091
1022	0.092
1023	0.092
1023	0.092
1023	0.092
1024	0.092
1024	0.091
1025	0.091
1025	0.09
1026	0.09
1026	0.089
1026	0.089
1027	0.088
1027	0.087
1028	0.087
1028	0.086
1028	0.085
1029	0.085
1029	0.085
1030	0.084
1030	0.084
1031	0.084
1031	0.085
1031	0.084
1032	0.084
1032	0.085
1033	0.085
1033	0.086
1033	0.086
1034	0.086
1034	0.086
1035	0.086
1035	0.086
1036	0.086
1036	0.086
1036	0.086
1037	0.086
1037	0.086
1038	0.086
1038	0.086
1039	0.086
1039	0.086
1039	0.086
1040	0.086
1040	0.086
1041	0.086
1041	0.086
1041	0.086
1042	0.086
1042	0.085
1043	0.085
1043	0.085
1044	0.085
1044	0.084
1044	0.084
1045	0.084
1045	0.084
1046	0.085
1046	0.085
1046	0.085
1047	0.086
1047	0.086
1048	0.087
1048	0.087
1049	0.087
1049	0.088
1049	0.088
1050	0.087
1050	0.087
1051	0.086
1051	0.085
1051	0.085
1052	0.084
1052	0.083
1053	0.082
1053	0.081
1053	0.08
1054	0.079
1054	0.078
1055	0.078
1055	0.078
1056	0.077
1056	0.077
1056	0.076
1057	0.075
1057	0.075
1058	0.075
1058	0.074
1058	0.073
1059	0.073
1059	0.073
1060	0.072
1060	0.072
1061	0.071
1061	0.071
1061	0.071
1062	0.071
1062	0.071
1063	0.071
1063	0.07
1063	0.07
1064	0.07
1064	0.07
1065	0.07
1065	0.071
1066	0.071
1066	0.071
1066	0.071
1067	0.071
1067	0.071
1068	0.071
1068	0.071
1068	0.071
1069	0.07
1069	0.07
1070	0.069
1070	0.069
1071	0.068
1071	0.067
1071	0.066
1072	0.066
1072	0.065
1073	0.064
1073	0.063
1073	0.063
1074	0.063
1074	0.063
1075	0.063
1075	0.063
1076	0.063
1076	0.064
1076	0.064
1077	0.064
1077	0.064
1078	0.064
1078	0.065
1078	0.064
1079	0.064
1079	0.064
1080	0.064
1080	0.064
1080	0.064
1081	0.064
1081	0.064
1082	0.064
1082	0.065
1083	0.065
1083	0.064
1083	0.065
1084	0.065
1084	0.065
1085	0.065
1085	0.065
1085	0.065
1086	0.065
1086	0.064
1087	0.063
1087	0.063
1088	0.062
1088	0.062
1088	0.061
1089	0.061
1089	0.06
1090	0.059
1090	0.059
1090	0.058
1091	0.057
1091	0.057
1092	0.057
1092	0.058
1092	0.058
1093	0.057
1093	0.057
1094	0.056
1094	0.056
1095	0.056
1095	0.055
1095	0.054
1096	0.053
1096	0.052
1097	0.051
1097	0.05
1097	0.05
1098	0.049
1098	0.048
1099	0.047
1099	0.046
1100	0.045
1100	0.044
1100	0.043
1101	0.041
1101	0.041
1102	0.04
1102	0.039
1102	0.037
1103	0.037
1103	0.037
1104	0.036
1104	0.036
1104	0.036
1105	0.036
1105	0.035
1106	0.032
1106	0.031
1107	0.029
1107	0.029
1107	0.028
1108	0.026
1108	0.025
1109	0.023
1109	0.022
1109	0.02
1110	0.021
1110	0.02
1111	0.02
1111	0.021
