Data from reversibility-20sec_Absorbance__4558__000000000004558.txt Node

Date: Wed Dec 06 13:32:25 CET 2023
User: Marek
Spectrometer: MAYP115816
Trigger mode: 0
Integration Time (sec): 2.000000E-1
Scans to average: 10
Electric dark correction enabled: true
Nonlinearity correction enabled: true
Boxcar width: 5
XAxis mode: Wavelengths
Number of Pixels in Spectrum: 2068
>>>>>Begin Spectral Data<<<<<
199	-0.2
199	-0.172
200	-0.1
200	-0.052
201	-0.02
201	-0.003
202	0.011
202	0.018
203	0.024
203	0.027
204	0.04
204	0.056
205	0.069
205	0.074
205	0.073
206	0.071
206	0.068
207	0.067
207	0.067
208	0.066
208	0.064
209	0.067
209	0.064
210	0.064
210	0.064
211	0.065
211	0.066
212	0.066
212	0.069
213	0.072
213	0.076
213	0.077
214	0.079
214	0.08
215	0.083
215	0.082
216	0.084
216	0.084
217	0.086
217	0.088
218	0.086
218	0.089
219	0.093
219	0.095
220	0.096
220	0.095
221	0.094
221	0.095
221	0.101
222	0.107
222	0.109
223	0.113
223	0.115
224	0.122
224	0.128
225	0.139
225	0.15
226	0.159
226	0.173
227	0.183
227	0.194
228	0.21
228	0.226
229	0.245
229	0.268
229	0.293
230	0.318
230	0.345
231	0.379
231	0.416
232	0.453
232	0.498
233	0.543
233	0.593
234	0.638
234	0.689
235	0.74
235	0.793
236	0.845
236	0.898
236	0.949
237	0.998
237	1.05
238	1.095
238	1.143
239	1.193
239	1.234
240	1.275
240	1.313
241	1.349
241	1.384
242	1.417
242	1.451
243	1.478
243	1.505
243	1.528
244	1.55
244	1.571
245	1.589
245	1.611
246	1.629
246	1.647
247	1.66
247	1.675
248	1.692
248	1.705
249	1.718
249	1.725
250	1.737
250	1.747
250	1.752
251	1.758
251	1.76
252	1.766
252	1.767
253	1.768
253	1.768
254	1.768
254	1.771
255	1.77
255	1.77
256	1.77
256	1.769
257	1.769
257	1.769
258	1.771
258	1.771
258	1.771
259	1.77
259	1.771
260	1.77
260	1.77
261	1.77
261	1.774
262	1.776
262	1.777
263	1.779
263	1.78
264	1.781
264	1.784
265	1.783
265	1.784
265	1.785
266	1.784
266	1.784
267	1.781
267	1.782
268	1.781
268	1.781
269	1.782
269	1.78
270	1.779
270	1.778
271	1.776
271	1.776
272	1.773
272	1.771
272	1.769
273	1.764
273	1.759
274	1.754
274	1.749
275	1.744
275	1.74
276	1.733
276	1.727
277	1.721
277	1.713
278	1.701
278	1.691
278	1.679
279	1.664
279	1.649
280	1.63
280	1.606
281	1.578
281	1.546
282	1.511
282	1.476
283	1.441
283	1.406
284	1.371
284	1.337
285	1.305
285	1.274
285	1.246
286	1.221
286	1.199
287	1.179
287	1.162
288	1.148
288	1.135
289	1.124
289	1.114
290	1.105
290	1.098
291	1.091
291	1.085
292	1.08
292	1.075
292	1.07
293	1.066
293	1.062
294	1.058
294	1.054
295	1.051
295	1.047
296	1.044
296	1.041
297	1.037
297	1.034
298	1.031
298	1.027
298	1.024
299	1.022
299	1.018
300	1.015
300	1.012
301	1.009
301	1.006
302	1.004
302	1.001
303	0.999
303	0.996
304	0.993
304	0.99
305	0.988
305	0.985
305	0.982
306	0.98
306	0.977
307	0.974
307	0.971
308	0.968
308	0.965
309	0.962
309	0.959
310	0.956
310	0.953
311	0.95
311	0.946
311	0.943
312	0.939
312	0.936
313	0.932
313	0.928
314	0.924
314	0.92
315	0.916
315	0.912
316	0.907
316	0.903
317	0.898
317	0.893
318	0.888
318	0.883
318	0.878
319	0.873
319	0.867
320	0.862
320	0.856
321	0.85
321	0.844
322	0.838
322	0.831
323	0.825
323	0.819
324	0.812
324	0.806
324	0.799
325	0.792
325	0.786
326	0.779
326	0.772
327	0.766
327	0.759
328	0.752
328	0.746
329	0.739
329	0.732
330	0.725
330	0.718
330	0.711
331	0.704
331	0.697
332	0.69
332	0.683
333	0.676
333	0.67
334	0.663
334	0.656
335	0.65
335	0.643
336	0.636
336	0.63
336	0.624
337	0.617
337	0.611
338	0.605
338	0.599
339	0.593
339	0.587
340	0.581
340	0.576
341	0.57
341	0.565
342	0.56
342	0.554
342	0.549
343	0.544
343	0.539
344	0.534
344	0.529
345	0.525
345	0.52
346	0.516
346	0.511
347	0.507
347	0.503
348	0.499
348	0.495
348	0.491
349	0.487
349	0.484
350	0.48
350	0.477
351	0.473
351	0.47
352	0.467
352	0.463
353	0.46
353	0.458
354	0.455
354	0.452
354	0.449
355	0.446
355	0.443
356	0.44
356	0.437
357	0.433
357	0.43
358	0.427
358	0.424
359	0.422
359	0.42
360	0.418
360	0.416
360	0.414
361	0.412
361	0.41
362	0.409
362	0.407
363	0.405
363	0.403
364	0.401
364	0.399
365	0.397
365	0.395
366	0.393
366	0.391
366	0.389
367	0.388
367	0.386
368	0.384
368	0.382
369	0.381
369	0.379
370	0.378
370	0.376
371	0.375
371	0.373
372	0.372
372	0.371
372	0.369
373	0.368
373	0.367
374	0.366
374	0.365
375	0.364
375	0.363
376	0.362
376	0.361
377	0.359
377	0.358
378	0.357
378	0.356
378	0.355
379	0.354
379	0.353
380	0.352
380	0.351
381	0.351
381	0.35
382	0.349
382	0.348
383	0.348
383	0.347
383	0.346
384	0.345
384	0.345
385	0.344
385	0.343
386	0.343
386	0.342
387	0.341
387	0.341
388	0.34
388	0.34
389	0.339
389	0.339
389	0.338
390	0.337
390	0.337
391	0.336
391	0.335
392	0.335
392	0.334
393	0.334
393	0.333
394	0.333
394	0.332
394	0.332
395	0.331
395	0.331
396	0.33
396	0.329
397	0.329
397	0.328
398	0.328
398	0.327
399	0.327
399	0.326
400	0.326
400	0.325
400	0.325
401	0.325
401	0.324
402	0.324
402	0.324
403	0.323
403	0.323
404	0.323
404	0.322
405	0.322
405	0.322
405	0.321
406	0.321
406	0.32
407	0.32
407	0.319
408	0.319
408	0.318
409	0.318
409	0.317
410	0.317
410	0.317
411	0.317
411	0.316
411	0.316
412	0.316
412	0.315
413	0.315
413	0.315
414	0.314
414	0.314
415	0.313
415	0.313
416	0.312
416	0.312
416	0.312
417	0.311
417	0.311
418	0.311
418	0.31
419	0.31
419	0.309
420	0.309
420	0.308
421	0.308
421	0.308
421	0.307
422	0.307
422	0.307
423	0.306
423	0.306
424	0.305
424	0.305
425	0.305
425	0.305
426	0.304
426	0.304
427	0.303
427	0.303
427	0.303
428	0.302
428	0.302
429	0.302
429	0.301
430	0.301
430	0.301
431	0.301
431	0.301
432	0.301
432	0.3
432	0.3
433	0.3
433	0.299
434	0.299
434	0.299
435	0.299
435	0.299
436	0.299
436	0.299
437	0.298
437	0.298
437	0.298
438	0.298
438	0.298
439	0.298
439	0.297
440	0.297
440	0.297
441	0.297
441	0.297
442	0.296
442	0.297
442	0.297
443	0.296
443	0.296
444	0.296
444	0.296
445	0.296
445	0.296
446	0.296
446	0.296
447	0.296
447	0.295
447	0.295
448	0.295
448	0.295
449	0.295
449	0.295
450	0.295
450	0.295
451	0.295
451	0.295
452	0.295
452	0.295
452	0.295
453	0.295
453	0.295
454	0.295
454	0.295
455	0.295
455	0.295
456	0.295
456	0.295
457	0.295
457	0.295
458	0.295
458	0.295
458	0.295
459	0.295
459	0.295
460	0.295
460	0.295
461	0.295
461	0.295
462	0.296
462	0.295
463	0.296
463	0.296
463	0.296
464	0.296
464	0.296
465	0.296
465	0.296
466	0.296
466	0.296
467	0.296
467	0.297
467	0.297
468	0.297
468	0.297
469	0.297
469	0.298
470	0.298
470	0.299
471	0.299
471	0.3
472	0.3
472	0.3
472	0.301
473	0.301
473	0.302
474	0.303
474	0.303
475	0.303
475	0.304
476	0.304
476	0.305
477	0.305
477	0.306
477	0.307
478	0.307
478	0.308
479	0.309
479	0.309
480	0.31
480	0.311
481	0.311
481	0.312
482	0.313
482	0.313
482	0.314
483	0.315
483	0.316
484	0.317
484	0.317
485	0.318
485	0.319
486	0.319
486	0.32
487	0.321
487	0.321
487	0.322
488	0.323
488	0.325
489	0.326
489	0.327
490	0.329
490	0.33
491	0.332
491	0.333
492	0.334
492	0.336
492	0.337
493	0.338
493	0.339
494	0.341
494	0.342
495	0.343
495	0.345
496	0.346
496	0.348
496	0.349
497	0.35
497	0.352
498	0.353
498	0.354
499	0.356
499	0.357
500	0.359
500	0.36
501	0.362
501	0.363
501	0.364
502	0.365
502	0.367
503	0.368
503	0.369
504	0.371
504	0.372
505	0.373
505	0.375
506	0.376
506	0.377
506	0.378
507	0.379
507	0.38
508	0.382
508	0.383
509	0.384
509	0.386
510	0.387
510	0.388
511	0.389
511	0.391
511	0.392
512	0.393
512	0.394
513	0.395
513	0.396
514	0.396
514	0.397
515	0.398
515	0.399
515	0.399
516	0.4
516	0.401
517	0.402
517	0.402
518	0.403
518	0.403
519	0.404
519	0.404
520	0.404
520	0.404
520	0.404
521	0.404
521	0.404
522	0.404
522	0.404
523	0.403
523	0.403
524	0.403
524	0.403
524	0.402
525	0.402
525	0.402
526	0.401
526	0.401
527	0.4
527	0.399
528	0.398
528	0.398
529	0.397
529	0.396
529	0.395
530	0.393
530	0.392
531	0.391
531	0.39
532	0.388
532	0.387
533	0.386
533	0.384
533	0.382
534	0.381
534	0.379
535	0.377
535	0.376
536	0.374
536	0.372
537	0.371
537	0.369
538	0.367
538	0.365
538	0.363
539	0.361
539	0.36
540	0.358
540	0.356
541	0.354
541	0.352
542	0.35
542	0.347
542	0.345
543	0.343
543	0.341
544	0.339
544	0.337
545	0.335
545	0.332
546	0.33
546	0.328
547	0.325
547	0.323
547	0.321
548	0.319
548	0.316
549	0.314
549	0.312
550	0.309
550	0.307
551	0.304
551	0.302
551	0.299
552	0.297
552	0.295
553	0.292
553	0.291
554	0.288
554	0.286
555	0.283
555	0.281
556	0.279
556	0.276
556	0.275
557	0.273
557	0.271
558	0.269
558	0.267
559	0.266
559	0.264
560	0.261
560	0.26
560	0.258
561	0.256
561	0.254
562	0.251
562	0.249
563	0.246
563	0.244
564	0.242
564	0.24
564	0.238
565	0.236
565	0.234
566	0.232
566	0.23
567	0.229
567	0.227
568	0.226
568	0.224
568	0.222
569	0.221
569	0.219
570	0.217
570	0.215
571	0.214
571	0.212
572	0.21
572	0.208
573	0.207
573	0.205
573	0.204
574	0.202
574	0.201
575	0.2
575	0.199
576	0.198
576	0.196
577	0.195
577	0.193
577	0.192
578	0.191
578	0.19
579	0.189
579	0.188
580	0.186
580	0.184
581	0.182
581	0.181
581	0.18
582	0.18
582	0.179
583	0.178
583	0.177
584	0.176
584	0.173
585	0.172
585	0.171
585	0.17
586	0.169
586	0.168
587	0.166
587	0.165
588	0.163
588	0.162
589	0.161
589	0.161
590	0.16
590	0.159
590	0.159
591	0.159
591	0.157
592	0.156
592	0.155
593	0.154
593	0.153
594	0.152
594	0.151
594	0.15
595	0.149
595	0.148
596	0.147
596	0.147
597	0.147
597	0.147
598	0.146
598	0.145
598	0.145
599	0.144
599	0.144
600	0.143
600	0.142
601	0.141
601	0.14
602	0.139
602	0.138
602	0.137
603	0.136
603	0.136
604	0.136
604	0.135
605	0.135
605	0.135
606	0.134
606	0.133
606	0.132
607	0.131
607	0.131
608	0.13
608	0.129
609	0.128
609	0.127
610	0.126
610	0.125
610	0.125
611	0.125
611	0.124
612	0.124
612	0.124
613	0.124
613	0.123
614	0.123
614	0.122
614	0.121
615	0.121
615	0.12
616	0.12
616	0.119
617	0.119
617	0.118
618	0.118
618	0.117
618	0.117
619	0.117
619	0.117
620	0.117
620	0.117
621	0.116
621	0.116
622	0.115
622	0.114
622	0.114
623	0.113
623	0.112
624	0.112
624	0.111
625	0.11
625	0.11
626	0.109
626	0.109
626	0.109
627	0.109
627	0.108
628	0.108
628	0.107
629	0.107
629	0.106
630	0.106
630	0.105
630	0.105
631	0.105
631	0.105
632	0.104
632	0.104
633	0.103
633	0.103
634	0.103
634	0.103
634	0.102
635	0.102
635	0.101
636	0.101
636	0.101
637	0.1
637	0.1
638	0.1
638	0.1
638	0.099
639	0.099
639	0.098
640	0.098
640	0.098
641	0.098
641	0.097
642	0.097
642	0.097
642	0.097
643	0.096
643	0.096
644	0.096
644	0.096
645	0.095
645	0.095
646	0.095
646	0.095
646	0.094
647	0.094
647	0.094
648	0.093
648	0.092
649	0.092
649	0.092
650	0.092
650	0.091
650	0.091
651	0.091
651	0.09
652	0.089
652	0.089
653	0.089
653	0.091
653	0.097
654	0.079
654	0.064
655	0.061
655	0.061
656	0.062
656	0.062
657	0.062
657	0.062
657	0.062
658	0.061
658	0.053
659	0.066
659	0.083
660	0.088
660	0.089
661	0.088
661	0.088
661	0.087
662	0.087
662	0.087
663	0.086
663	0.086
664	0.086
664	0.085
665	0.085
665	0.085
665	0.085
666	0.085
666	0.084
667	0.084
667	0.084
668	0.085
668	0.084
669	0.084
669	0.084
669	0.085
670	0.085
670	0.085
671	0.084
671	0.084
672	0.084
672	0.083
672	0.083
673	0.083
673	0.083
674	0.082
674	0.081
675	0.081
675	0.081
676	0.081
676	0.08
676	0.08
677	0.08
677	0.079
678	0.079
678	0.078
679	0.078
679	0.077
680	0.077
680	0.077
680	0.077
681	0.077
681	0.077
682	0.077
682	0.078
683	0.078
683	0.079
684	0.079
684	0.079
684	0.079
685	0.079
685	0.08
686	0.08
686	0.08
687	0.079
687	0.079
687	0.079
688	0.079
688	0.079
689	0.079
689	0.079
690	0.078
690	0.077
691	0.077
691	0.077
691	0.077
692	0.076
692	0.076
693	0.076
693	0.076
694	0.076
694	0.076
695	0.077
695	0.078
695	0.078
696	0.078
696	0.078
697	0.079
697	0.079
698	0.078
698	0.078
698	0.077
699	0.078
699	0.077
700	0.076
700	0.076
701	0.076
701	0.075
702	0.075
702	0.074
702	0.074
703	0.074
703	0.073
704	0.073
704	0.072
705	0.072
705	0.072
705	0.072
706	0.072
706	0.072
707	0.072
707	0.072
708	0.072
708	0.073
709	0.072
709	0.072
709	0.071
710	0.071
710	0.071
711	0.072
711	0.072
712	0.072
712	0.072
713	0.072
713	0.072
713	0.072
714	0.072
714	0.072
715	0.072
715	0.071
716	0.071
716	0.07
716	0.069
717	0.068
717	0.068
718	0.067
718	0.066
719	0.066
719	0.066
720	0.066
720	0.066
720	0.067
721	0.067
721	0.067
722	0.068
722	0.068
723	0.068
723	0.069
723	0.069
724	0.069
724	0.069
725	0.068
725	0.068
726	0.067
726	0.067
727	0.066
727	0.066
727	0.065
728	0.065
728	0.064
729	0.065
729	0.065
730	0.064
730	0.064
730	0.065
731	0.065
731	0.065
732	0.066
732	0.066
733	0.065
733	0.065
734	0.065
734	0.065
734	0.065
735	0.066
735	0.065
736	0.064
736	0.064
737	0.064
737	0.064
737	0.064
738	0.063
738	0.062
739	0.061
739	0.061
740	0.061
740	0.06
741	0.061
741	0.06
741	0.06
742	0.06
742	0.061
743	0.062
743	0.062
744	0.063
744	0.063
744	0.063
745	0.063
745	0.063
746	0.063
746	0.063
747	0.063
747	0.063
748	0.063
748	0.062
748	0.062
749	0.062
749	0.062
750	0.061
750	0.061
751	0.061
751	0.061
751	0.061
752	0.06
752	0.06
753	0.06
753	0.06
754	0.059
754	0.059
754	0.059
755	0.059
755	0.059
756	0.058
756	0.057
757	0.057
757	0.057
758	0.056
758	0.056
758	0.056
759	0.057
759	0.056
760	0.056
760	0.055
761	0.055
761	0.056
761	0.056
762	0.056
762	0.056
763	0.056
763	0.055
764	0.054
764	0.054
764	0.054
765	0.054
765	0.053
766	0.053
766	0.053
767	0.052
767	0.051
768	0.051
768	0.051
768	0.051
769	0.051
769	0.052
770	0.052
770	0.053
771	0.053
771	0.054
771	0.054
772	0.055
772	0.056
773	0.056
773	0.056
774	0.055
774	0.055
775	0.055
775	0.055
775	0.054
776	0.054
776	0.054
777	0.053
777	0.053
778	0.052
778	0.051
778	0.051
779	0.051
779	0.05
780	0.049
780	0.049
781	0.048
781	0.048
781	0.047
782	0.047
782	0.047
783	0.048
783	0.048
784	0.048
784	0.048
784	0.049
785	0.05
785	0.05
786	0.051
786	0.051
787	0.051
787	0.051
788	0.051
788	0.05
788	0.049
789	0.048
789	0.048
790	0.047
790	0.046
791	0.046
791	0.045
791	0.045
792	0.046
792	0.046
793	0.046
793	0.046
794	0.046
794	0.046
794	0.046
795	0.046
795	0.046
796	0.046
796	0.046
797	0.045
797	0.045
797	0.046
798	0.045
798	0.046
799	0.046
799	0.046
800	0.046
800	0.045
801	0.045
801	0.046
801	0.046
802	0.046
802	0.046
803	0.047
803	0.047
804	0.047
804	0.047
804	0.047
805	0.047
805	0.047
806	0.046
806	0.046
807	0.046
807	0.046
807	0.047
808	0.047
808	0.047
809	0.047
809	0.047
810	0.048
810	0.048
810	0.048
811	0.048
811	0.049
812	0.049
812	0.049
813	0.049
813	0.049
813	0.05
814	0.05
814	0.051
815	0.051
815	0.051
816	0.051
816	0.051
817	0.051
817	0.05
817	0.05
818	0.05
818	0.05
819	0.05
819	0.049
820	0.048
820	0.047
820	0.047
821	0.047
821	0.046
822	0.046
822	0.046
823	0.046
823	0.045
823	0.046
824	0.046
824	0.047
825	0.047
825	0.048
826	0.048
826	0.048
826	0.047
827	0.048
827	0.048
828	0.047
828	0.047
829	0.047
829	0.046
829	0.046
830	0.046
830	0.046
831	0.047
831	0.047
832	0.046
832	0.047
832	0.047
833	0.046
833	0.046
834	0.046
834	0.046
835	0.046
835	0.046
835	0.046
836	0.046
836	0.046
837	0.047
837	0.047
838	0.047
838	0.047
839	0.048
839	0.047
839	0.047
840	0.046
840	0.045
841	0.044
841	0.044
842	0.043
842	0.042
842	0.041
843	0.04
843	0.039
844	0.039
844	0.038
845	0.038
845	0.037
845	0.037
846	0.036
846	0.036
847	0.036
847	0.036
848	0.037
848	0.037
848	0.038
849	0.038
849	0.039
850	0.039
850	0.04
851	0.04
851	0.041
851	0.041
852	0.04
852	0.04
853	0.039
853	0.039
854	0.039
854	0.039
854	0.039
855	0.039
855	0.039
856	0.04
856	0.04
857	0.04
857	0.04
857	0.041
858	0.041
858	0.04
859	0.04
859	0.039
860	0.039
860	0.038
860	0.038
861	0.037
861	0.037
862	0.036
862	0.036
863	0.035
863	0.035
863	0.035
864	0.035
864	0.036
865	0.036
865	0.036
866	0.037
866	0.037
866	0.038
867	0.039
867	0.04
868	0.04
868	0.041
869	0.042
869	0.042
869	0.042
870	0.042
870	0.043
871	0.043
871	0.043
872	0.043
872	0.043
872	0.042
873	0.042
873	0.042
874	0.041
874	0.041
875	0.041
875	0.041
875	0.041
876	0.041
876	0.041
877	0.04
877	0.04
878	0.04
878	0.041
878	0.041
879	0.041
879	0.041
880	0.041
880	0.041
881	0.041
881	0.041
881	0.041
882	0.041
882	0.041
883	0.04
883	0.04
884	0.04
884	0.04
884	0.04
885	0.04
885	0.04
886	0.039
886	0.039
887	0.038
887	0.038
887	0.037
888	0.036
888	0.035
889	0.034
889	0.034
890	0.033
890	0.033
890	0.033
891	0.033
891	0.033
892	0.034
892	0.034
893	0.034
893	0.035
893	0.035
894	0.036
894	0.036
895	0.036
895	0.037
895	0.037
896	0.038
896	0.039
897	0.039
897	0.04
898	0.04
898	0.04
898	0.04
899	0.04
899	0.04
900	0.04
900	0.04
901	0.04
901	0.04
901	0.04
902	0.04
902	0.04
903	0.04
903	0.039
904	0.039
904	0.039
904	0.039
905	0.038
905	0.037
906	0.037
906	0.036
907	0.036
907	0.036
907	0.036
908	0.035
908	0.035
909	0.035
909	0.034
910	0.034
910	0.034
910	0.033
911	0.033
911	0.032
912	0.032
912	0.032
913	0.032
913	0.032
913	0.032
914	0.032
914	0.032
915	0.032
915	0.033
916	0.033
916	0.034
916	0.034
917	0.034
917	0.034
918	0.034
918	0.035
918	0.035
919	0.035
919	0.035
920	0.035
920	0.036
921	0.035
921	0.035
921	0.035
922	0.035
922	0.035
923	0.035
923	0.036
924	0.036
924	0.036
924	0.037
925	0.037
925	0.038
926	0.038
926	0.038
927	0.039
927	0.039
927	0.039
928	0.039
928	0.039
929	0.039
929	0.039
930	0.039
930	0.038
930	0.038
931	0.037
931	0.037
932	0.036
932	0.036
933	0.035
933	0.034
933	0.033
934	0.033
934	0.032
935	0.032
935	0.031
935	0.031
936	0.031
936	0.03
937	0.031
937	0.031
938	0.031
938	0.032
938	0.032
939	0.033
939	0.033
940	0.034
940	0.034
941	0.035
941	0.035
941	0.036
942	0.036
942	0.036
943	0.036
943	0.036
944	0.035
944	0.035
944	0.035
945	0.035
945	0.035
946	0.035
946	0.035
946	0.035
947	0.036
947	0.036
948	0.037
948	0.037
949	0.037
949	0.037
949	0.037
950	0.038
950	0.038
951	0.038
951	0.038
952	0.037
952	0.037
952	0.037
953	0.036
953	0.036
954	0.035
954	0.035
955	0.034
955	0.034
955	0.033
956	0.033
956	0.033
957	0.034
957	0.034
957	0.035
958	0.035
958	0.035
959	0.035
959	0.035
960	0.036
960	0.036
960	0.036
961	0.036
961	0.036
962	0.036
962	0.036
963	0.036
963	0.036
963	0.036
964	0.036
964	0.036
965	0.036
965	0.036
966	0.037
966	0.036
966	0.036
967	0.036
967	0.036
968	0.036
968	0.036
968	0.036
969	0.035
969	0.035
970	0.035
970	0.034
971	0.034
971	0.034
971	0.033
972	0.033
972	0.032
973	0.032
973	0.032
974	0.032
974	0.032
974	0.032
975	0.032
975	0.033
976	0.033
976	0.033
976	0.034
977	0.034
977	0.034
978	0.035
978	0.035
979	0.035
979	0.035
979	0.036
980	0.036
980	0.036
981	0.035
981	0.035
982	0.035
982	0.034
982	0.034
983	0.033
983	0.033
984	0.032
984	0.032
984	0.032
985	0.031
985	0.031
986	0.031
986	0.031
987	0.031
987	0.03
987	0.03
988	0.031
988	0.031
989	0.031
989	0.031
990	0.031
990	0.031
990	0.032
991	0.032
991	0.032
992	0.032
992	0.032
992	0.032
993	0.032
993	0.031
994	0.031
994	0.03
995	0.03
995	0.029
995	0.029
996	0.029
996	0.029
997	0.029
997	0.029
997	0.029
998	0.03
998	0.031
999	0.031
999	0.032
1000	0.033
1000	0.033
1000	0.033
1001	0.034
1001	0.034
1002	0.033
1002	0.033
1003	0.032
1003	0.032
1003	0.031
1004	0.03
1004	0.029
1005	0.028
1005	0.027
1005	0.026
1006	0.026
1006	0.025
1007	0.025
1007	0.024
1008	0.024
1008	0.024
1008	0.024
1009	0.024
1009	0.024
1010	0.025
1010	0.025
1010	0.025
1011	0.025
1011	0.025
1012	0.025
1012	0.025
1013	0.025
1013	0.025
1013	0.025
1014	0.025
1014	0.025
1015	0.025
1015	0.025
1016	0.026
1016	0.025
1016	0.025
1017	0.026
1017	0.025
1018	0.026
1018	0.025
1018	0.025
1019	0.025
1019	0.025
1020	0.025
1020	0.025
1021	0.025
1021	0.025
1021	0.025
1022	0.026
1022	0.026
1023	0.026
1023	0.026
1023	0.027
1024	0.027
1024	0.027
1025	0.027
1025	0.028
1026	0.028
1026	0.028
1026	0.029
1027	0.029
1027	0.029
1028	0.03
1028	0.03
1028	0.03
1029	0.03
1029	0.03
1030	0.031
1030	0.031
1031	0.031
1031	0.031
1031	0.031
1032	0.031
1032	0.031
1033	0.031
1033	0.032
1033	0.031
1034	0.031
1034	0.031
1035	0.031
1035	0.031
1036	0.031
1036	0.031
1036	0.031
1037	0.031
1037	0.031
1038	0.031
1038	0.031
1039	0.031
1039	0.031
1039	0.031
1040	0.03
1040	0.03
1041	0.03
1041	0.03
1041	0.03
1042	0.029
1042	0.029
1043	0.029
1043	0.029
1044	0.029
1044	0.029
1044	0.029
1045	0.029
1045	0.029
1046	0.029
1046	0.029
1046	0.029
1047	0.029
1047	0.029
1048	0.029
1048	0.03
1049	0.029
1049	0.029
1049	0.029
1050	0.029
1050	0.028
1051	0.028
1051	0.027
1051	0.027
1052	0.026
1052	0.026
1053	0.026
1053	0.025
1053	0.025
1054	0.025
1054	0.025
1055	0.025
1055	0.025
1056	0.024
1056	0.024
1056	0.023
1057	0.022
1057	0.022
1058	0.021
1058	0.02
1058	0.019
1059	0.018
1059	0.018
1060	0.017
1060	0.017
1061	0.016
1061	0.016
1061	0.016
1062	0.016
1062	0.016
1063	0.017
1063	0.017
1063	0.017
1064	0.017
1064	0.017
1065	0.017
1065	0.017
1066	0.017
1066	0.017
1066	0.017
1067	0.018
1067	0.018
1068	0.018
1068	0.018
1068	0.018
1069	0.018
1069	0.017
1070	0.017
1070	0.017
1071	0.016
1071	0.016
1071	0.015
1072	0.015
1072	0.014
1073	0.014
1073	0.014
1073	0.013
1074	0.014
1074	0.014
1075	0.014
1075	0.014
1076	0.014
1076	0.014
1076	0.014
1077	0.014
1077	0.014
1078	0.014
1078	0.014
1078	0.014
1079	0.013
1079	0.013
1080	0.012
1080	0.012
1080	0.012
1081	0.012
1081	0.012
1082	0.013
1082	0.013
1083	0.013
1083	0.013
1083	0.013
1084	0.013
1084	0.014
1085	0.014
1085	0.015
1085	0.015
1086	0.015
1086	0.015
1087	0.016
1087	0.016
1088	0.017
1088	0.017
1088	0.017
1089	0.017
1089	0.017
1090	0.016
1090	0.016
1090	0.016
1091	0.015
1091	0.015
1092	0.015
1092	0.015
1092	0.015
1093	0.014
1093	0.015
1094	0.015
1094	0.014
1095	0.014
1095	0.014
1095	0.013
1096	0.012
1096	0.012
1097	0.01
1097	0.009
1097	0.009
1098	0.008
1098	0.006
1099	0.005
1099	0.004
1100	0.003
1100	0.001
1100	0
1101	-0.001
1101	-0.002
1102	-0.002
1102	-0.003
1102	-0.005
1103	-0.005
1103	-0.006
1104	-0.007
1104	-0.008
1104	-0.009
1105	-0.01
1105	-0.011
1106	-0.013
1106	-0.015
1107	-0.016
1107	-0.016
1107	-0.018
1108	-0.019
1108	-0.02
1109	-0.021
1109	-0.022
1109	-0.022
1110	-0.022
1110	-0.023
1111	-0.023
1111	-0.025
