Data from reversibility-20sec_Absorbance__5191__000000000005191.txt Node

Date: Wed Dec 06 17:03:26 CET 2023
User: Marek
Spectrometer: MAYP115816
Trigger mode: 0
Integration Time (sec): 2.000000E-1
Scans to average: 10
Electric dark correction enabled: true
Nonlinearity correction enabled: true
Boxcar width: 5
XAxis mode: Wavelengths
Number of Pixels in Spectrum: 2068
>>>>>Begin Spectral Data<<<<<
199	-0.168
199	-0.129
200	-0.068
200	-0.014
201	0.02
201	0.04
202	0.052
202	0.06
203	0.069
203	0.073
204	0.086
204	0.1
205	0.111
205	0.118
205	0.117
206	0.116
206	0.115
207	0.116
207	0.115
208	0.112
208	0.111
209	0.114
209	0.109
210	0.111
210	0.112
211	0.11
211	0.113
212	0.108
212	0.108
213	0.111
213	0.11
213	0.108
214	0.111
214	0.113
215	0.111
215	0.11
216	0.112
216	0.109
217	0.112
217	0.114
218	0.114
218	0.12
219	0.125
219	0.124
220	0.128
220	0.129
221	0.131
221	0.136
221	0.141
222	0.146
222	0.15
223	0.154
223	0.157
224	0.161
224	0.169
225	0.178
225	0.187
226	0.196
226	0.204
227	0.213
227	0.225
228	0.239
228	0.254
229	0.273
229	0.299
229	0.32
230	0.347
230	0.377
231	0.408
231	0.446
232	0.485
232	0.527
233	0.573
233	0.619
234	0.668
234	0.718
235	0.771
235	0.823
236	0.873
236	0.924
236	0.976
237	1.026
237	1.076
238	1.119
238	1.169
239	1.217
239	1.258
240	1.298
240	1.334
241	1.371
241	1.408
242	1.439
242	1.471
243	1.499
243	1.527
243	1.55
244	1.571
244	1.592
245	1.609
245	1.632
246	1.652
246	1.664
247	1.676
247	1.691
248	1.707
248	1.72
249	1.73
249	1.738
250	1.744
250	1.752
250	1.753
251	1.756
251	1.759
252	1.764
252	1.764
253	1.763
253	1.759
254	1.755
254	1.757
255	1.756
255	1.756
256	1.756
256	1.754
257	1.756
257	1.754
258	1.754
258	1.754
258	1.754
259	1.756
259	1.755
260	1.756
260	1.758
261	1.76
261	1.763
262	1.765
262	1.767
263	1.771
263	1.772
264	1.776
264	1.777
265	1.779
265	1.78
265	1.78
266	1.78
266	1.781
267	1.779
267	1.78
268	1.78
268	1.78
269	1.782
269	1.782
270	1.781
270	1.78
271	1.777
271	1.776
272	1.774
272	1.772
272	1.767
273	1.76
273	1.752
274	1.745
274	1.737
275	1.729
275	1.722
276	1.714
276	1.707
277	1.698
277	1.689
278	1.678
278	1.665
278	1.65
279	1.631
279	1.609
280	1.582
280	1.547
281	1.508
281	1.465
282	1.421
282	1.376
283	1.332
283	1.289
284	1.249
284	1.211
285	1.174
285	1.141
285	1.112
286	1.086
286	1.064
287	1.045
287	1.029
288	1.015
288	1.004
289	0.994
289	0.985
290	0.979
290	0.972
291	0.967
291	0.962
292	0.958
292	0.954
292	0.95
293	0.946
293	0.943
294	0.94
294	0.937
295	0.934
295	0.932
296	0.929
296	0.926
297	0.924
297	0.921
298	0.919
298	0.916
298	0.913
299	0.911
299	0.908
300	0.905
300	0.903
301	0.9
301	0.898
302	0.896
302	0.894
303	0.892
303	0.89
304	0.888
304	0.886
305	0.884
305	0.881
305	0.879
306	0.877
306	0.875
307	0.873
307	0.87
308	0.868
308	0.865
309	0.863
309	0.86
310	0.857
310	0.855
311	0.852
311	0.849
311	0.846
312	0.843
312	0.84
313	0.836
313	0.833
314	0.829
314	0.826
315	0.822
315	0.817
316	0.813
316	0.809
317	0.804
317	0.8
318	0.795
318	0.79
318	0.785
319	0.779
319	0.774
320	0.769
320	0.763
321	0.757
321	0.752
322	0.746
322	0.74
323	0.733
323	0.727
324	0.721
324	0.715
324	0.708
325	0.701
325	0.694
326	0.688
326	0.681
327	0.674
327	0.667
328	0.661
328	0.654
329	0.647
329	0.64
330	0.633
330	0.626
330	0.619
331	0.612
331	0.605
332	0.599
332	0.592
333	0.585
333	0.578
334	0.571
334	0.565
335	0.558
335	0.551
336	0.544
336	0.538
336	0.531
337	0.525
337	0.519
338	0.513
338	0.507
339	0.501
339	0.495
340	0.49
340	0.484
341	0.478
341	0.473
342	0.468
342	0.462
342	0.457
343	0.452
343	0.447
344	0.442
344	0.437
345	0.432
345	0.428
346	0.423
346	0.419
347	0.415
347	0.411
348	0.407
348	0.403
348	0.399
349	0.396
349	0.392
350	0.388
350	0.385
351	0.381
351	0.378
352	0.375
352	0.372
353	0.369
353	0.367
354	0.364
354	0.361
354	0.358
355	0.355
355	0.352
356	0.35
356	0.347
357	0.344
357	0.341
358	0.339
358	0.336
359	0.334
359	0.331
360	0.329
360	0.328
360	0.326
361	0.324
361	0.322
362	0.321
362	0.32
363	0.318
363	0.316
364	0.314
364	0.313
365	0.311
365	0.309
366	0.307
366	0.306
366	0.304
367	0.303
367	0.301
368	0.299
368	0.298
369	0.297
369	0.295
370	0.294
370	0.293
371	0.291
371	0.29
372	0.289
372	0.288
372	0.287
373	0.286
373	0.285
374	0.284
374	0.283
375	0.282
375	0.281
376	0.281
376	0.28
377	0.279
377	0.278
378	0.277
378	0.276
378	0.276
379	0.275
379	0.275
380	0.274
380	0.273
381	0.273
381	0.272
382	0.272
382	0.271
383	0.271
383	0.27
383	0.27
384	0.269
384	0.269
385	0.268
385	0.268
386	0.267
386	0.267
387	0.266
387	0.266
388	0.265
388	0.265
389	0.265
389	0.264
389	0.264
390	0.264
390	0.263
391	0.263
391	0.263
392	0.263
392	0.263
393	0.262
393	0.262
394	0.262
394	0.261
394	0.261
395	0.261
395	0.261
396	0.26
396	0.26
397	0.26
397	0.259
398	0.259
398	0.258
399	0.258
399	0.258
400	0.258
400	0.257
400	0.257
401	0.257
401	0.257
402	0.257
402	0.256
403	0.256
403	0.256
404	0.256
404	0.255
405	0.255
405	0.255
405	0.255
406	0.255
406	0.254
407	0.254
407	0.254
408	0.253
408	0.253
409	0.253
409	0.253
410	0.253
410	0.252
411	0.252
411	0.252
411	0.251
412	0.251
412	0.251
413	0.251
413	0.25
414	0.25
414	0.25
415	0.249
415	0.249
416	0.249
416	0.249
416	0.248
417	0.248
417	0.247
418	0.247
418	0.247
419	0.246
419	0.246
420	0.246
420	0.245
421	0.245
421	0.245
421	0.244
422	0.244
422	0.244
423	0.243
423	0.243
424	0.243
424	0.243
425	0.242
425	0.242
426	0.242
426	0.241
427	0.241
427	0.241
427	0.24
428	0.24
428	0.24
429	0.239
429	0.239
430	0.239
430	0.238
431	0.238
431	0.238
432	0.238
432	0.238
432	0.238
433	0.237
433	0.237
434	0.237
434	0.237
435	0.237
435	0.237
436	0.236
436	0.236
437	0.236
437	0.236
437	0.235
438	0.235
438	0.235
439	0.235
439	0.235
440	0.235
440	0.234
441	0.234
441	0.234
442	0.234
442	0.234
442	0.233
443	0.233
443	0.233
444	0.233
444	0.232
445	0.232
445	0.232
446	0.232
446	0.231
447	0.231
447	0.231
447	0.231
448	0.231
448	0.23
449	0.23
449	0.23
450	0.23
450	0.229
451	0.229
451	0.229
452	0.229
452	0.229
452	0.229
453	0.229
453	0.229
454	0.229
454	0.228
455	0.228
455	0.228
456	0.227
456	0.227
457	0.226
457	0.226
458	0.226
458	0.225
458	0.225
459	0.225
459	0.224
460	0.224
460	0.224
461	0.224
461	0.223
462	0.223
462	0.223
463	0.223
463	0.222
463	0.222
464	0.222
464	0.222
465	0.222
465	0.221
466	0.221
466	0.221
467	0.221
467	0.221
467	0.221
468	0.221
468	0.22
469	0.22
469	0.221
470	0.221
470	0.221
471	0.22
471	0.22
472	0.22
472	0.221
472	0.22
473	0.221
473	0.221
474	0.22
474	0.22
475	0.22
475	0.22
476	0.22
476	0.22
477	0.22
477	0.22
477	0.22
478	0.219
478	0.219
479	0.219
479	0.219
480	0.219
480	0.219
481	0.219
481	0.219
482	0.219
482	0.219
482	0.219
483	0.22
483	0.22
484	0.22
484	0.22
485	0.219
485	0.219
486	0.219
486	0.219
487	0.219
487	0.219
487	0.219
488	0.219
488	0.219
489	0.219
489	0.22
490	0.22
490	0.22
491	0.221
491	0.222
492	0.222
492	0.222
492	0.222
493	0.223
493	0.223
494	0.223
494	0.224
495	0.224
495	0.224
496	0.225
496	0.225
496	0.226
497	0.226
497	0.226
498	0.227
498	0.227
499	0.227
499	0.228
500	0.228
500	0.229
501	0.229
501	0.229
501	0.229
502	0.229
502	0.23
503	0.23
503	0.231
504	0.231
504	0.231
505	0.231
505	0.231
506	0.232
506	0.232
506	0.232
507	0.233
507	0.233
508	0.233
508	0.233
509	0.234
509	0.234
510	0.234
510	0.235
511	0.235
511	0.236
511	0.237
512	0.237
512	0.238
513	0.238
513	0.239
514	0.24
514	0.24
515	0.241
515	0.241
515	0.241
516	0.242
516	0.242
517	0.242
517	0.242
518	0.243
518	0.243
519	0.243
519	0.243
520	0.243
520	0.244
520	0.244
521	0.244
521	0.244
522	0.244
522	0.245
523	0.245
523	0.245
524	0.245
524	0.246
524	0.246
525	0.246
525	0.246
526	0.247
526	0.247
527	0.247
527	0.247
528	0.247
528	0.247
529	0.247
529	0.247
529	0.247
530	0.247
530	0.247
531	0.247
531	0.247
532	0.247
532	0.247
533	0.247
533	0.247
533	0.247
534	0.247
534	0.247
535	0.247
535	0.247
536	0.247
536	0.247
537	0.247
537	0.247
538	0.247
538	0.247
538	0.247
539	0.247
539	0.247
540	0.247
540	0.247
541	0.246
541	0.246
542	0.246
542	0.246
542	0.246
543	0.245
543	0.245
544	0.245
544	0.245
545	0.245
545	0.245
546	0.245
546	0.245
547	0.245
547	0.244
547	0.244
548	0.244
548	0.244
549	0.244
549	0.244
550	0.244
550	0.243
551	0.243
551	0.243
551	0.243
552	0.242
552	0.242
553	0.242
553	0.241
554	0.241
554	0.24
555	0.239
555	0.239
556	0.238
556	0.238
556	0.238
557	0.238
557	0.239
558	0.239
558	0.239
559	0.239
559	0.239
560	0.239
560	0.239
560	0.239
561	0.239
561	0.238
562	0.238
562	0.237
563	0.236
563	0.235
564	0.234
564	0.234
564	0.234
565	0.234
565	0.233
566	0.233
566	0.233
567	0.233
567	0.233
568	0.233
568	0.233
568	0.233
569	0.233
569	0.233
570	0.232
570	0.231
571	0.23
571	0.23
572	0.229
572	0.229
573	0.229
573	0.229
573	0.228
574	0.228
574	0.228
575	0.228
575	0.228
576	0.228
576	0.228
577	0.227
577	0.227
577	0.227
578	0.226
578	0.226
579	0.226
579	0.227
580	0.226
580	0.225
581	0.224
581	0.224
581	0.224
582	0.225
582	0.225
583	0.225
583	0.224
584	0.223
584	0.222
585	0.222
585	0.222
585	0.222
586	0.222
586	0.221
587	0.221
587	0.22
588	0.219
588	0.219
589	0.219
589	0.219
590	0.219
590	0.219
590	0.219
591	0.219
591	0.219
592	0.219
592	0.218
593	0.218
593	0.218
594	0.217
594	0.217
594	0.216
595	0.216
595	0.216
596	0.215
596	0.215
597	0.216
597	0.216
598	0.216
598	0.216
598	0.216
599	0.215
599	0.215
600	0.215
600	0.214
601	0.214
601	0.214
602	0.213
602	0.213
602	0.213
603	0.213
603	0.213
604	0.213
604	0.213
605	0.213
605	0.213
606	0.213
606	0.212
606	0.212
607	0.212
607	0.211
608	0.211
608	0.211
609	0.21
609	0.21
610	0.21
610	0.21
610	0.21
611	0.21
611	0.21
612	0.21
612	0.21
613	0.21
613	0.209
614	0.209
614	0.209
614	0.208
615	0.208
615	0.208
616	0.208
616	0.207
617	0.207
617	0.207
618	0.206
618	0.207
618	0.207
619	0.207
619	0.207
620	0.207
620	0.207
621	0.206
621	0.206
622	0.206
622	0.206
622	0.205
623	0.205
623	0.205
624	0.204
624	0.204
625	0.203
625	0.203
626	0.203
626	0.202
626	0.203
627	0.203
627	0.203
628	0.203
628	0.202
629	0.202
629	0.202
630	0.202
630	0.202
630	0.202
631	0.203
631	0.203
632	0.203
632	0.202
633	0.202
633	0.202
634	0.203
634	0.203
634	0.203
635	0.202
635	0.202
636	0.201
636	0.201
637	0.2
637	0.2
638	0.2
638	0.2
638	0.199
639	0.199
639	0.198
640	0.199
640	0.199
641	0.199
641	0.199
642	0.199
642	0.199
642	0.2
643	0.2
643	0.2
644	0.2
644	0.201
645	0.2
645	0.201
646	0.2
646	0.2
646	0.2
647	0.199
647	0.199
648	0.198
648	0.197
649	0.197
649	0.197
650	0.197
650	0.197
650	0.197
651	0.197
651	0.196
652	0.196
652	0.196
653	0.197
653	0.199
653	0.205
654	0.161
654	0.128
655	0.129
655	0.13
656	0.13
656	0.13
657	0.131
657	0.131
657	0.131
658	0.13
658	0.119
659	0.151
659	0.195
660	0.2
660	0.2
661	0.2
661	0.2
661	0.2
662	0.2
662	0.199
663	0.199
663	0.199
664	0.198
664	0.198
665	0.198
665	0.198
665	0.198
666	0.198
666	0.198
667	0.198
667	0.199
668	0.199
668	0.199
669	0.199
669	0.199
669	0.2
670	0.2
670	0.2
671	0.199
671	0.199
672	0.199
672	0.198
672	0.198
673	0.198
673	0.197
674	0.197
674	0.197
675	0.197
675	0.196
676	0.197
676	0.197
676	0.197
677	0.197
677	0.197
678	0.197
678	0.196
679	0.196
679	0.196
680	0.196
680	0.196
680	0.195
681	0.196
681	0.196
682	0.196
682	0.197
683	0.197
683	0.197
684	0.198
684	0.197
684	0.197
685	0.198
685	0.198
686	0.198
686	0.198
687	0.197
687	0.197
687	0.197
688	0.197
688	0.197
689	0.198
689	0.198
690	0.198
690	0.197
691	0.197
691	0.198
691	0.198
692	0.197
692	0.198
693	0.198
693	0.198
694	0.198
694	0.198
695	0.199
695	0.2
695	0.201
696	0.201
696	0.201
697	0.201
697	0.201
698	0.201
698	0.201
698	0.201
699	0.202
699	0.201
700	0.2
700	0.2
701	0.2
701	0.2
702	0.199
702	0.199
702	0.199
703	0.198
703	0.198
704	0.198
704	0.198
705	0.198
705	0.199
705	0.199
706	0.2
706	0.201
707	0.201
707	0.202
708	0.203
708	0.204
709	0.204
709	0.204
709	0.204
710	0.204
710	0.205
711	0.205
711	0.205
712	0.205
712	0.205
713	0.205
713	0.205
713	0.204
714	0.204
714	0.203
715	0.203
715	0.202
716	0.201
716	0.201
716	0.2
717	0.199
717	0.199
718	0.198
718	0.198
719	0.199
719	0.2
720	0.2
720	0.201
720	0.202
721	0.203
721	0.203
722	0.204
722	0.205
723	0.205
723	0.205
723	0.205
724	0.205
724	0.205
725	0.204
725	0.204
726	0.203
726	0.203
727	0.203
727	0.202
727	0.203
728	0.202
728	0.203
729	0.203
729	0.203
730	0.204
730	0.204
730	0.205
731	0.205
731	0.206
732	0.206
732	0.207
733	0.207
733	0.207
734	0.208
734	0.208
734	0.209
735	0.21
735	0.21
736	0.21
736	0.21
737	0.21
737	0.21
737	0.21
738	0.209
738	0.209
739	0.208
739	0.208
740	0.207
740	0.207
741	0.207
741	0.207
741	0.207
742	0.207
742	0.208
743	0.209
743	0.209
744	0.21
744	0.211
744	0.212
745	0.212
745	0.212
746	0.212
746	0.213
747	0.213
747	0.212
748	0.212
748	0.212
748	0.212
749	0.211
749	0.211
750	0.211
750	0.211
751	0.21
751	0.21
751	0.21
752	0.21
752	0.209
753	0.208
753	0.208
754	0.208
754	0.207
754	0.207
755	0.207
755	0.207
756	0.207
756	0.206
757	0.205
757	0.206
758	0.206
758	0.206
758	0.207
759	0.207
759	0.207
760	0.207
760	0.207
761	0.207
761	0.208
761	0.208
762	0.208
762	0.209
763	0.209
763	0.208
764	0.208
764	0.208
764	0.209
765	0.209
765	0.209
766	0.209
766	0.209
767	0.209
767	0.209
768	0.209
768	0.209
768	0.21
769	0.21
769	0.211
770	0.211
770	0.212
771	0.212
771	0.212
771	0.213
772	0.213
772	0.214
773	0.214
773	0.214
774	0.214
774	0.214
775	0.214
775	0.213
775	0.213
776	0.213
776	0.213
777	0.213
777	0.213
778	0.213
778	0.213
778	0.213
779	0.214
779	0.214
780	0.214
780	0.214
781	0.214
781	0.215
781	0.215
782	0.215
782	0.216
783	0.216
783	0.217
784	0.217
784	0.218
784	0.218
785	0.218
785	0.218
786	0.218
786	0.218
787	0.218
787	0.218
788	0.217
788	0.216
788	0.215
789	0.214
789	0.214
790	0.214
790	0.213
791	0.212
791	0.211
791	0.211
792	0.211
792	0.211
793	0.211
793	0.211
794	0.211
794	0.211
794	0.211
795	0.212
795	0.212
796	0.213
796	0.213
797	0.213
797	0.214
797	0.215
798	0.215
798	0.216
799	0.216
799	0.217
800	0.217
800	0.216
801	0.217
801	0.217
801	0.217
802	0.217
802	0.217
803	0.217
803	0.217
804	0.217
804	0.217
804	0.217
805	0.217
805	0.217
806	0.217
806	0.217
807	0.217
807	0.217
807	0.218
808	0.218
808	0.218
809	0.218
809	0.218
810	0.218
810	0.218
810	0.218
811	0.218
811	0.219
812	0.219
812	0.219
813	0.22
813	0.22
813	0.22
814	0.221
814	0.222
815	0.223
815	0.223
816	0.223
816	0.223
817	0.223
817	0.223
817	0.223
818	0.223
818	0.223
819	0.223
819	0.222
820	0.221
820	0.221
820	0.221
821	0.221
821	0.222
822	0.222
822	0.222
823	0.222
823	0.222
823	0.223
824	0.224
824	0.225
825	0.225
825	0.226
826	0.226
826	0.226
826	0.226
827	0.226
827	0.226
828	0.226
828	0.226
829	0.226
829	0.226
829	0.226
830	0.227
830	0.227
831	0.228
831	0.228
832	0.228
832	0.228
832	0.228
833	0.228
833	0.228
834	0.228
834	0.228
835	0.227
835	0.227
835	0.226
836	0.226
836	0.226
837	0.225
837	0.225
838	0.224
838	0.224
839	0.223
839	0.223
839	0.222
840	0.221
840	0.22
841	0.219
841	0.219
842	0.218
842	0.217
842	0.217
843	0.217
843	0.216
844	0.216
844	0.216
845	0.216
845	0.215
845	0.216
846	0.216
846	0.216
847	0.216
847	0.216
848	0.216
848	0.216
848	0.216
849	0.217
849	0.217
850	0.218
850	0.218
851	0.219
851	0.219
851	0.22
852	0.22
852	0.22
853	0.221
853	0.221
854	0.221
854	0.222
854	0.223
855	0.223
855	0.224
856	0.224
856	0.225
857	0.226
857	0.226
857	0.227
858	0.227
858	0.227
859	0.226
859	0.226
860	0.225
860	0.225
860	0.224
861	0.224
861	0.224
862	0.223
862	0.223
863	0.222
863	0.222
863	0.222
864	0.222
864	0.222
865	0.222
865	0.222
866	0.222
866	0.222
866	0.222
867	0.222
867	0.223
868	0.223
868	0.223
869	0.223
869	0.223
869	0.223
870	0.222
870	0.222
871	0.222
871	0.222
872	0.221
872	0.221
872	0.221
873	0.22
873	0.22
874	0.219
874	0.219
875	0.219
875	0.219
875	0.219
876	0.22
876	0.22
877	0.22
877	0.22
878	0.22
878	0.22
878	0.221
879	0.221
879	0.221
880	0.22
880	0.22
881	0.22
881	0.219
881	0.219
882	0.218
882	0.218
883	0.218
883	0.218
884	0.218
884	0.218
884	0.218
885	0.218
885	0.218
886	0.218
886	0.218
887	0.217
887	0.216
887	0.215
888	0.215
888	0.213
889	0.213
889	0.212
890	0.212
890	0.211
890	0.211
891	0.211
891	0.21
892	0.21
892	0.21
893	0.21
893	0.21
893	0.211
894	0.211
894	0.211
895	0.211
895	0.211
895	0.211
896	0.212
896	0.213
897	0.213
897	0.213
898	0.213
898	0.213
898	0.214
899	0.214
899	0.213
900	0.213
900	0.213
901	0.213
901	0.212
901	0.211
902	0.21
902	0.21
903	0.209
903	0.208
904	0.207
904	0.207
904	0.206
905	0.205
905	0.205
906	0.204
906	0.205
907	0.205
907	0.205
907	0.205
908	0.205
908	0.205
909	0.205
909	0.205
910	0.205
910	0.205
910	0.205
911	0.205
911	0.204
912	0.204
912	0.203
913	0.203
913	0.203
913	0.202
914	0.202
914	0.202
915	0.202
915	0.201
916	0.201
916	0.201
916	0.201
917	0.201
917	0.2
918	0.2
918	0.2
918	0.199
919	0.199
919	0.199
920	0.198
920	0.198
921	0.198
921	0.198
921	0.198
922	0.197
922	0.198
923	0.198
923	0.198
924	0.198
924	0.199
924	0.199
925	0.2
925	0.2
926	0.201
926	0.201
927	0.202
927	0.202
927	0.202
928	0.201
928	0.201
929	0.2
929	0.2
930	0.199
930	0.198
930	0.197
931	0.196
931	0.195
932	0.194
932	0.194
933	0.193
933	0.192
933	0.192
934	0.192
934	0.191
935	0.191
935	0.19
935	0.19
936	0.189
936	0.189
937	0.189
937	0.188
938	0.188
938	0.188
938	0.187
939	0.187
939	0.187
940	0.187
940	0.187
941	0.187
941	0.187
941	0.187
942	0.187
942	0.187
943	0.187
943	0.186
944	0.186
944	0.187
944	0.187
945	0.187
945	0.187
946	0.187
946	0.186
946	0.186
947	0.186
947	0.186
948	0.185
948	0.185
949	0.184
949	0.183
949	0.183
950	0.182
950	0.182
951	0.181
951	0.18
952	0.179
952	0.179
952	0.179
953	0.178
953	0.178
954	0.178
954	0.177
955	0.177
955	0.176
955	0.176
956	0.176
956	0.177
957	0.177
957	0.177
957	0.177
958	0.176
958	0.176
959	0.176
959	0.175
960	0.175
960	0.175
960	0.174
961	0.174
961	0.173
962	0.173
962	0.173
963	0.172
963	0.172
963	0.172
964	0.172
964	0.172
965	0.172
965	0.172
966	0.172
966	0.172
966	0.172
967	0.171
967	0.171
968	0.171
968	0.171
968	0.171
969	0.17
969	0.17
970	0.169
970	0.168
971	0.168
971	0.167
971	0.166
972	0.166
972	0.164
973	0.164
973	0.163
974	0.163
974	0.162
974	0.162
975	0.162
975	0.162
976	0.161
976	0.161
976	0.161
977	0.161
977	0.16
978	0.16
978	0.16
979	0.159
979	0.159
979	0.159
980	0.158
980	0.158
981	0.157
981	0.157
982	0.157
982	0.157
982	0.157
983	0.156
983	0.156
984	0.156
984	0.157
984	0.157
985	0.157
985	0.157
986	0.157
986	0.157
987	0.156
987	0.156
987	0.156
988	0.156
988	0.156
989	0.155
989	0.155
990	0.155
990	0.155
990	0.155
991	0.155
991	0.155
992	0.154
992	0.154
992	0.153
993	0.152
993	0.151
994	0.15
994	0.149
995	0.148
995	0.148
995	0.147
996	0.147
996	0.147
997	0.147
997	0.147
997	0.148
998	0.148
998	0.149
999	0.15
999	0.15
1000	0.151
1000	0.151
1000	0.152
1001	0.152
1001	0.152
1002	0.151
1002	0.151
1003	0.15
1003	0.15
1003	0.149
1004	0.148
1004	0.147
1005	0.147
1005	0.146
1005	0.146
1006	0.145
1006	0.145
1007	0.145
1007	0.144
1008	0.144
1008	0.144
1008	0.144
1009	0.144
1009	0.144
1010	0.143
1010	0.143
1010	0.143
1011	0.142
1011	0.142
1012	0.141
1012	0.141
1013	0.141
1013	0.14
1013	0.14
1014	0.139
1014	0.139
1015	0.139
1015	0.138
1016	0.138
1016	0.138
1016	0.138
1017	0.137
1017	0.137
1018	0.137
1018	0.136
1018	0.136
1019	0.136
1019	0.136
1020	0.136
1020	0.136
1021	0.136
1021	0.136
1021	0.136
1022	0.136
1022	0.136
1023	0.137
1023	0.137
1023	0.137
1024	0.137
1024	0.137
1025	0.137
1025	0.137
1026	0.137
1026	0.137
1026	0.137
1027	0.137
1027	0.136
1028	0.136
1028	0.136
1028	0.136
1029	0.136
1029	0.136
1030	0.136
1030	0.136
1031	0.135
1031	0.135
1031	0.135
1032	0.135
1032	0.135
1033	0.134
1033	0.134
1033	0.134
1034	0.133
1034	0.133
1035	0.132
1035	0.132
1036	0.131
1036	0.131
1036	0.131
1037	0.131
1037	0.13
1038	0.13
1038	0.13
1039	0.129
1039	0.129
1039	0.129
1040	0.129
1040	0.129
1041	0.129
1041	0.129
1041	0.129
1042	0.128
1042	0.128
1043	0.128
1043	0.128
1044	0.128
1044	0.127
1044	0.127
1045	0.127
1045	0.127
1046	0.127
1046	0.127
1046	0.127
1047	0.127
1047	0.127
1048	0.127
1048	0.127
1049	0.127
1049	0.127
1049	0.126
1050	0.126
1050	0.125
1051	0.124
1051	0.123
1051	0.123
1052	0.122
1052	0.121
1053	0.12
1053	0.12
1053	0.119
1054	0.119
1054	0.118
1055	0.118
1055	0.118
1056	0.118
1056	0.117
1056	0.116
1057	0.115
1057	0.115
1058	0.114
1058	0.113
1058	0.112
1059	0.111
1059	0.11
1060	0.109
1060	0.109
1061	0.108
1061	0.108
1061	0.108
1062	0.107
1062	0.107
1063	0.107
1063	0.107
1063	0.106
1064	0.106
1064	0.106
1065	0.106
1065	0.106
1066	0.105
1066	0.105
1066	0.105
1067	0.105
1067	0.105
1068	0.104
1068	0.105
1068	0.104
1069	0.104
1069	0.104
1070	0.103
1070	0.103
1071	0.103
1071	0.102
1071	0.102
1072	0.101
1072	0.101
1073	0.1
1073	0.1
1073	0.1
1074	0.1
1074	0.099
1075	0.099
1075	0.099
1076	0.099
1076	0.099
1076	0.098
1077	0.098
1077	0.098
1078	0.097
1078	0.097
1078	0.097
1079	0.096
1079	0.096
1080	0.096
1080	0.096
1080	0.095
1081	0.095
1081	0.095
1082	0.096
1082	0.096
1083	0.096
1083	0.095
1083	0.095
1084	0.095
1084	0.096
1085	0.096
1085	0.096
1085	0.096
1086	0.096
1086	0.095
1087	0.095
1087	0.095
1088	0.094
1088	0.094
1088	0.094
1089	0.093
1089	0.092
1090	0.091
1090	0.091
1090	0.09
1091	0.089
1091	0.089
1092	0.089
1092	0.09
1092	0.089
1093	0.088
1093	0.089
1094	0.089
1094	0.089
1095	0.088
1095	0.087
1095	0.087
1096	0.086
1096	0.085
1097	0.084
1097	0.083
1097	0.083
1098	0.081
1098	0.08
1099	0.079
1099	0.077
1100	0.076
1100	0.074
1100	0.072
1101	0.07
1101	0.069
1102	0.067
1102	0.066
1102	0.065
1103	0.064
1103	0.064
1104	0.063
1104	0.063
1104	0.062
1105	0.061
1105	0.059
1106	0.058
1106	0.056
1107	0.055
1107	0.053
1107	0.052
1108	0.049
1108	0.048
1109	0.047
1109	0.045
1109	0.045
1110	0.048
1110	0.047
1111	0.047
1111	0.048
