Data from reversibility-20sec_Absorbance__5134__000000000005134.txt Node

Date: Wed Dec 06 16:44:26 CET 2023
User: Marek
Spectrometer: MAYP115816
Trigger mode: 0
Integration Time (sec): 2.000000E-1
Scans to average: 10
Electric dark correction enabled: true
Nonlinearity correction enabled: true
Boxcar width: 5
XAxis mode: Wavelengths
Number of Pixels in Spectrum: 2068
>>>>>Begin Spectral Data<<<<<
199	-0.226
199	-0.193
200	-0.117
200	-0.061
201	-0.027
201	-0.009
202	0.005
202	0.013
203	0.02
203	0.024
204	0.04
204	0.055
205	0.067
205	0.071
205	0.069
206	0.067
206	0.067
207	0.067
207	0.067
208	0.067
208	0.068
209	0.07
209	0.067
210	0.067
210	0.069
211	0.07
211	0.071
212	0.068
212	0.071
213	0.075
213	0.077
213	0.076
214	0.078
214	0.08
215	0.084
215	0.082
216	0.084
216	0.083
217	0.088
217	0.089
218	0.084
218	0.085
219	0.089
219	0.088
220	0.092
220	0.089
221	0.093
221	0.095
221	0.103
222	0.106
222	0.112
223	0.12
223	0.124
224	0.128
224	0.136
225	0.144
225	0.157
226	0.162
226	0.174
227	0.183
227	0.195
228	0.208
228	0.225
229	0.242
229	0.267
229	0.289
230	0.314
230	0.342
231	0.379
231	0.416
232	0.452
232	0.493
233	0.538
233	0.583
234	0.634
234	0.684
235	0.739
235	0.794
236	0.844
236	0.894
236	0.947
237	1
237	1.047
238	1.097
238	1.144
239	1.192
239	1.234
240	1.273
240	1.307
241	1.345
241	1.378
242	1.41
242	1.442
243	1.473
243	1.498
243	1.525
244	1.546
244	1.567
245	1.586
245	1.61
246	1.628
246	1.646
247	1.66
247	1.673
248	1.689
248	1.702
249	1.711
249	1.72
250	1.728
250	1.737
250	1.739
251	1.745
251	1.748
252	1.753
252	1.755
253	1.757
253	1.755
254	1.757
254	1.758
255	1.758
255	1.759
256	1.759
256	1.759
257	1.759
257	1.756
258	1.757
258	1.755
258	1.755
259	1.755
259	1.756
260	1.756
260	1.756
261	1.756
261	1.758
262	1.76
262	1.762
263	1.764
263	1.766
264	1.767
264	1.767
265	1.767
265	1.769
265	1.769
266	1.771
266	1.771
267	1.768
267	1.77
268	1.769
268	1.769
269	1.772
269	1.771
270	1.769
270	1.768
271	1.764
271	1.764
272	1.761
272	1.76
272	1.757
273	1.753
273	1.748
274	1.743
274	1.739
275	1.733
275	1.729
276	1.723
276	1.716
277	1.709
277	1.699
278	1.688
278	1.677
278	1.665
279	1.65
279	1.633
280	1.613
280	1.587
281	1.557
281	1.523
282	1.487
282	1.45
283	1.413
283	1.376
284	1.339
284	1.303
285	1.269
285	1.238
285	1.21
286	1.184
286	1.162
287	1.142
287	1.125
288	1.111
288	1.098
289	1.087
289	1.078
290	1.07
290	1.062
291	1.056
291	1.051
292	1.046
292	1.041
292	1.036
293	1.033
293	1.029
294	1.025
294	1.022
295	1.019
295	1.015
296	1.012
296	1.008
297	1.005
297	1.002
298	0.999
298	0.996
298	0.993
299	0.99
299	0.987
300	0.984
300	0.981
301	0.978
301	0.976
302	0.973
302	0.971
303	0.968
303	0.965
304	0.963
304	0.96
305	0.958
305	0.955
305	0.953
306	0.95
306	0.947
307	0.945
307	0.942
308	0.939
308	0.936
309	0.933
309	0.93
310	0.928
310	0.925
311	0.922
311	0.919
311	0.915
312	0.912
312	0.908
313	0.905
313	0.901
314	0.897
314	0.893
315	0.889
315	0.884
316	0.88
316	0.875
317	0.87
317	0.866
318	0.861
318	0.856
318	0.85
319	0.845
319	0.84
320	0.834
320	0.828
321	0.822
321	0.816
322	0.81
322	0.804
323	0.798
323	0.792
324	0.785
324	0.779
324	0.772
325	0.766
325	0.759
326	0.753
326	0.746
327	0.739
327	0.733
328	0.726
328	0.719
329	0.712
329	0.705
330	0.698
330	0.691
330	0.684
331	0.677
331	0.67
332	0.663
332	0.656
333	0.649
333	0.642
334	0.636
334	0.629
335	0.623
335	0.616
336	0.609
336	0.603
336	0.596
337	0.59
337	0.584
338	0.578
338	0.572
339	0.566
339	0.56
340	0.554
340	0.549
341	0.543
341	0.538
342	0.533
342	0.527
342	0.522
343	0.517
343	0.512
344	0.507
344	0.502
345	0.497
345	0.493
346	0.488
346	0.484
347	0.479
347	0.475
348	0.471
348	0.467
348	0.463
349	0.46
349	0.456
350	0.453
350	0.449
351	0.446
351	0.442
352	0.439
352	0.436
353	0.433
353	0.43
354	0.427
354	0.424
354	0.421
355	0.418
355	0.415
356	0.412
356	0.41
357	0.407
357	0.404
358	0.402
358	0.399
359	0.397
359	0.394
360	0.392
360	0.39
360	0.388
361	0.386
361	0.384
362	0.382
362	0.381
363	0.379
363	0.377
364	0.375
364	0.373
365	0.371
365	0.369
366	0.367
366	0.365
366	0.364
367	0.362
367	0.36
368	0.359
368	0.357
369	0.355
369	0.354
370	0.352
370	0.351
371	0.35
371	0.348
372	0.347
372	0.346
372	0.344
373	0.343
373	0.342
374	0.341
374	0.34
375	0.339
375	0.338
376	0.337
376	0.336
377	0.335
377	0.334
378	0.333
378	0.332
378	0.332
379	0.331
379	0.33
380	0.329
380	0.328
381	0.328
381	0.327
382	0.326
382	0.325
383	0.325
383	0.324
383	0.323
384	0.322
384	0.322
385	0.321
385	0.321
386	0.32
386	0.32
387	0.319
387	0.319
388	0.318
388	0.318
389	0.317
389	0.317
389	0.316
390	0.316
390	0.315
391	0.315
391	0.314
392	0.314
392	0.313
393	0.313
393	0.312
394	0.312
394	0.311
394	0.311
395	0.311
395	0.31
396	0.309
396	0.309
397	0.309
397	0.308
398	0.308
398	0.307
399	0.307
399	0.307
400	0.306
400	0.306
400	0.306
401	0.305
401	0.305
402	0.305
402	0.304
403	0.304
403	0.303
404	0.303
404	0.303
405	0.303
405	0.302
405	0.302
406	0.301
406	0.301
407	0.3
407	0.3
408	0.3
408	0.299
409	0.299
409	0.299
410	0.298
410	0.298
411	0.298
411	0.298
411	0.297
412	0.297
412	0.297
413	0.296
413	0.296
414	0.296
414	0.295
415	0.295
415	0.294
416	0.294
416	0.294
416	0.293
417	0.293
417	0.293
418	0.292
418	0.292
419	0.292
419	0.291
420	0.291
420	0.29
421	0.29
421	0.289
421	0.289
422	0.289
422	0.288
423	0.288
423	0.288
424	0.287
424	0.287
425	0.287
425	0.287
426	0.286
426	0.286
427	0.286
427	0.286
427	0.285
428	0.285
428	0.284
429	0.284
429	0.284
430	0.284
430	0.283
431	0.283
431	0.283
432	0.283
432	0.282
432	0.282
433	0.282
433	0.282
434	0.282
434	0.282
435	0.282
435	0.281
436	0.281
436	0.281
437	0.281
437	0.281
437	0.281
438	0.28
438	0.28
439	0.28
439	0.28
440	0.279
440	0.279
441	0.279
441	0.279
442	0.279
442	0.279
442	0.278
443	0.278
443	0.278
444	0.278
444	0.277
445	0.278
445	0.277
446	0.277
446	0.277
447	0.277
447	0.277
447	0.277
448	0.277
448	0.276
449	0.276
449	0.276
450	0.276
450	0.276
451	0.276
451	0.276
452	0.276
452	0.276
452	0.276
453	0.276
453	0.276
454	0.276
454	0.276
455	0.276
455	0.276
456	0.276
456	0.276
457	0.275
457	0.275
458	0.275
458	0.275
458	0.275
459	0.275
459	0.275
460	0.275
460	0.275
461	0.275
461	0.275
462	0.274
462	0.274
463	0.274
463	0.274
463	0.274
464	0.274
464	0.274
465	0.274
465	0.274
466	0.274
466	0.274
467	0.274
467	0.274
467	0.275
468	0.275
468	0.275
469	0.275
469	0.276
470	0.277
470	0.277
471	0.277
471	0.277
472	0.278
472	0.278
472	0.278
473	0.279
473	0.279
474	0.279
474	0.279
475	0.279
475	0.28
476	0.28
476	0.28
477	0.281
477	0.281
477	0.282
478	0.282
478	0.283
479	0.283
479	0.284
480	0.284
480	0.285
481	0.285
481	0.285
482	0.286
482	0.286
482	0.286
483	0.287
483	0.288
484	0.288
484	0.288
485	0.289
485	0.29
486	0.29
486	0.291
487	0.291
487	0.292
487	0.293
488	0.293
488	0.294
489	0.294
489	0.296
490	0.297
490	0.298
491	0.299
491	0.3
492	0.302
492	0.302
492	0.304
493	0.304
493	0.305
494	0.307
494	0.308
495	0.309
495	0.31
496	0.311
496	0.312
496	0.313
497	0.314
497	0.315
498	0.316
498	0.317
499	0.318
499	0.32
500	0.321
500	0.322
501	0.323
501	0.324
501	0.324
502	0.325
502	0.326
503	0.327
503	0.328
504	0.329
504	0.33
505	0.331
505	0.332
506	0.333
506	0.334
506	0.335
507	0.337
507	0.338
508	0.339
508	0.34
509	0.34
509	0.342
510	0.343
510	0.344
511	0.345
511	0.346
511	0.347
512	0.348
512	0.349
513	0.349
513	0.35
514	0.351
514	0.352
515	0.353
515	0.353
515	0.354
516	0.354
516	0.355
517	0.356
517	0.356
518	0.357
518	0.357
519	0.357
519	0.357
520	0.358
520	0.358
520	0.358
521	0.357
521	0.357
522	0.357
522	0.357
523	0.357
523	0.357
524	0.357
524	0.357
524	0.357
525	0.356
525	0.356
526	0.356
526	0.356
527	0.355
527	0.355
528	0.354
528	0.354
529	0.353
529	0.352
529	0.351
530	0.351
530	0.35
531	0.349
531	0.349
532	0.348
532	0.347
533	0.346
533	0.344
533	0.343
534	0.342
534	0.341
535	0.34
535	0.339
536	0.337
536	0.336
537	0.335
537	0.334
538	0.332
538	0.331
538	0.33
539	0.329
539	0.327
540	0.326
540	0.325
541	0.324
541	0.322
542	0.321
542	0.319
542	0.317
543	0.316
543	0.314
544	0.313
544	0.311
545	0.31
545	0.308
546	0.307
546	0.305
547	0.303
547	0.301
547	0.3
548	0.298
548	0.296
549	0.295
549	0.293
550	0.292
550	0.29
551	0.288
551	0.286
551	0.285
552	0.283
552	0.281
553	0.28
553	0.278
554	0.276
554	0.275
555	0.273
555	0.271
556	0.27
556	0.268
556	0.267
557	0.266
557	0.265
558	0.264
558	0.263
559	0.261
559	0.26
560	0.258
560	0.257
560	0.256
561	0.255
561	0.253
562	0.252
562	0.25
563	0.248
563	0.246
564	0.244
564	0.242
564	0.241
565	0.24
565	0.239
566	0.237
566	0.236
567	0.235
567	0.234
568	0.233
568	0.231
568	0.23
569	0.229
569	0.228
570	0.226
570	0.225
571	0.224
571	0.223
572	0.221
572	0.22
573	0.219
573	0.218
573	0.217
574	0.216
574	0.215
575	0.214
575	0.214
576	0.213
576	0.212
577	0.21
577	0.209
577	0.208
578	0.207
578	0.206
579	0.206
579	0.205
580	0.204
580	0.202
581	0.201
581	0.2
581	0.2
582	0.2
582	0.199
583	0.199
583	0.198
584	0.196
584	0.194
585	0.193
585	0.192
585	0.192
586	0.191
586	0.19
587	0.188
587	0.187
588	0.186
588	0.185
589	0.185
589	0.184
590	0.184
590	0.184
590	0.184
591	0.183
591	0.182
592	0.182
592	0.181
593	0.18
593	0.18
594	0.179
594	0.178
594	0.177
595	0.177
595	0.176
596	0.175
596	0.174
597	0.175
597	0.175
598	0.174
598	0.174
598	0.173
599	0.173
599	0.172
600	0.172
600	0.171
601	0.17
601	0.17
602	0.169
602	0.168
602	0.168
603	0.167
603	0.167
604	0.167
604	0.167
605	0.166
605	0.166
606	0.165
606	0.164
606	0.163
607	0.163
607	0.162
608	0.162
608	0.161
609	0.16
609	0.16
610	0.159
610	0.159
610	0.159
611	0.159
611	0.159
612	0.158
612	0.158
613	0.158
613	0.158
614	0.157
614	0.157
614	0.156
615	0.156
615	0.155
616	0.155
616	0.154
617	0.154
617	0.153
618	0.153
618	0.153
618	0.153
619	0.153
619	0.153
620	0.153
620	0.153
621	0.152
621	0.152
622	0.151
622	0.15
622	0.15
623	0.149
623	0.149
624	0.148
624	0.147
625	0.146
625	0.146
626	0.145
626	0.145
626	0.145
627	0.145
627	0.144
628	0.144
628	0.143
629	0.143
629	0.143
630	0.143
630	0.142
630	0.142
631	0.143
631	0.142
632	0.142
632	0.142
633	0.142
633	0.142
634	0.142
634	0.142
634	0.142
635	0.141
635	0.141
636	0.14
636	0.14
637	0.139
637	0.139
638	0.138
638	0.138
638	0.138
639	0.137
639	0.137
640	0.137
640	0.138
641	0.138
641	0.138
642	0.138
642	0.139
642	0.139
643	0.139
643	0.14
644	0.14
644	0.139
645	0.139
645	0.139
646	0.138
646	0.138
646	0.137
647	0.137
647	0.136
648	0.135
648	0.135
649	0.134
649	0.134
650	0.134
650	0.135
650	0.135
651	0.134
651	0.134
652	0.134
652	0.134
653	0.134
653	0.136
653	0.142
654	0.114
654	0.092
655	0.09
655	0.09
656	0.09
656	0.091
657	0.091
657	0.091
657	0.091
658	0.09
658	0.081
659	0.101
659	0.129
660	0.134
660	0.135
661	0.134
661	0.134
661	0.134
662	0.134
662	0.134
663	0.133
663	0.133
664	0.133
664	0.132
665	0.132
665	0.132
665	0.132
666	0.132
666	0.133
667	0.133
667	0.133
668	0.134
668	0.134
669	0.134
669	0.134
669	0.135
670	0.135
670	0.134
671	0.134
671	0.133
672	0.133
672	0.132
672	0.131
673	0.131
673	0.131
674	0.131
674	0.13
675	0.13
675	0.13
676	0.13
676	0.13
676	0.13
677	0.13
677	0.13
678	0.129
678	0.129
679	0.128
679	0.128
680	0.128
680	0.128
680	0.127
681	0.127
681	0.128
682	0.128
682	0.128
683	0.128
683	0.129
684	0.129
684	0.129
684	0.129
685	0.129
685	0.13
686	0.13
686	0.129
687	0.129
687	0.129
687	0.129
688	0.129
688	0.13
689	0.13
689	0.131
690	0.13
690	0.13
691	0.13
691	0.13
691	0.13
692	0.13
692	0.129
693	0.129
693	0.129
694	0.129
694	0.128
695	0.129
695	0.13
695	0.13
696	0.13
696	0.13
697	0.131
697	0.131
698	0.131
698	0.131
698	0.131
699	0.132
699	0.131
700	0.13
700	0.13
701	0.13
701	0.13
702	0.129
702	0.129
702	0.129
703	0.128
703	0.128
704	0.127
704	0.128
705	0.128
705	0.128
705	0.128
706	0.129
706	0.129
707	0.13
707	0.13
708	0.13
708	0.131
709	0.131
709	0.131
709	0.131
710	0.131
710	0.131
711	0.131
711	0.131
712	0.131
712	0.131
713	0.13
713	0.13
713	0.129
714	0.129
714	0.129
715	0.128
715	0.128
716	0.127
716	0.127
716	0.126
717	0.125
717	0.125
718	0.124
718	0.124
719	0.124
719	0.124
720	0.125
720	0.125
720	0.125
721	0.125
721	0.126
722	0.127
722	0.127
723	0.128
723	0.128
723	0.128
724	0.129
724	0.129
725	0.128
725	0.128
726	0.128
726	0.128
727	0.127
727	0.127
727	0.127
728	0.127
728	0.127
729	0.127
729	0.127
730	0.127
730	0.127
730	0.128
731	0.128
731	0.128
732	0.129
732	0.129
733	0.129
733	0.13
734	0.13
734	0.131
734	0.132
735	0.132
735	0.132
736	0.132
736	0.132
737	0.132
737	0.132
737	0.132
738	0.131
738	0.13
739	0.129
739	0.128
740	0.127
740	0.127
741	0.127
741	0.127
741	0.126
742	0.126
742	0.127
743	0.128
743	0.128
744	0.129
744	0.129
744	0.129
745	0.129
745	0.129
746	0.129
746	0.129
747	0.128
747	0.128
748	0.127
748	0.126
748	0.126
749	0.125
749	0.125
750	0.125
750	0.124
751	0.124
751	0.124
751	0.124
752	0.123
752	0.123
753	0.123
753	0.122
754	0.123
754	0.123
754	0.123
755	0.124
755	0.124
756	0.124
756	0.123
757	0.123
757	0.123
758	0.124
758	0.124
758	0.124
759	0.124
759	0.124
760	0.124
760	0.123
761	0.123
761	0.124
761	0.124
762	0.124
762	0.124
763	0.124
763	0.124
764	0.123
764	0.123
764	0.123
765	0.122
765	0.122
766	0.121
766	0.121
767	0.121
767	0.119
768	0.118
768	0.118
768	0.118
769	0.118
769	0.119
770	0.119
770	0.12
771	0.12
771	0.12
771	0.121
772	0.122
772	0.123
773	0.123
773	0.123
774	0.123
774	0.122
775	0.122
775	0.122
775	0.121
776	0.121
776	0.12
777	0.12
777	0.12
778	0.119
778	0.118
778	0.118
779	0.118
779	0.118
780	0.117
780	0.117
781	0.117
781	0.117
781	0.117
782	0.116
782	0.116
783	0.117
783	0.117
784	0.117
784	0.117
784	0.117
785	0.117
785	0.117
786	0.118
786	0.118
787	0.118
787	0.118
788	0.118
788	0.117
788	0.117
789	0.116
789	0.116
790	0.115
790	0.114
791	0.114
791	0.113
791	0.112
792	0.112
792	0.111
793	0.11
793	0.11
794	0.109
794	0.108
794	0.108
795	0.108
795	0.108
796	0.108
796	0.108
797	0.108
797	0.108
797	0.109
798	0.109
798	0.11
799	0.11
799	0.11
800	0.11
800	0.109
801	0.109
801	0.109
801	0.108
802	0.107
802	0.107
803	0.107
803	0.107
804	0.107
804	0.108
804	0.108
805	0.108
805	0.108
806	0.108
806	0.108
807	0.108
807	0.108
807	0.108
808	0.108
808	0.108
809	0.108
809	0.107
810	0.107
810	0.107
810	0.107
811	0.107
811	0.107
812	0.107
812	0.107
813	0.107
813	0.107
813	0.106
814	0.107
814	0.107
815	0.107
815	0.107
816	0.107
816	0.106
817	0.105
817	0.105
817	0.105
818	0.105
818	0.105
819	0.105
819	0.104
820	0.104
820	0.103
820	0.103
821	0.104
821	0.104
822	0.103
822	0.103
823	0.103
823	0.102
823	0.103
824	0.103
824	0.103
825	0.104
825	0.104
826	0.104
826	0.104
826	0.104
827	0.104
827	0.104
828	0.104
828	0.104
829	0.104
829	0.104
829	0.104
830	0.104
830	0.104
831	0.104
831	0.104
832	0.104
832	0.104
832	0.103
833	0.103
833	0.102
834	0.102
834	0.101
835	0.101
835	0.1
835	0.1
836	0.099
836	0.099
837	0.098
837	0.098
838	0.097
838	0.096
839	0.096
839	0.095
839	0.094
840	0.093
840	0.093
841	0.092
841	0.091
842	0.091
842	0.09
842	0.09
843	0.089
843	0.088
844	0.088
844	0.087
845	0.086
845	0.085
845	0.085
846	0.084
846	0.084
847	0.083
847	0.083
848	0.083
848	0.084
848	0.084
849	0.085
849	0.085
850	0.086
850	0.086
851	0.086
851	0.087
851	0.087
852	0.087
852	0.086
853	0.086
853	0.086
854	0.086
854	0.087
854	0.087
855	0.088
855	0.088
856	0.089
856	0.089
857	0.09
857	0.09
857	0.09
858	0.089
858	0.088
859	0.087
859	0.086
860	0.085
860	0.084
860	0.084
861	0.083
861	0.082
862	0.081
862	0.081
863	0.08
863	0.08
863	0.08
864	0.08
864	0.08
865	0.08
865	0.08
866	0.08
866	0.08
866	0.081
867	0.081
867	0.082
868	0.083
868	0.083
869	0.083
869	0.083
869	0.083
870	0.083
870	0.083
871	0.082
871	0.082
872	0.082
872	0.082
872	0.081
873	0.081
873	0.08
874	0.08
874	0.08
875	0.079
875	0.079
875	0.079
876	0.079
876	0.079
877	0.079
877	0.079
878	0.079
878	0.08
878	0.08
879	0.08
879	0.08
880	0.08
880	0.08
881	0.079
881	0.079
881	0.079
882	0.079
882	0.078
883	0.078
883	0.078
884	0.078
884	0.078
884	0.078
885	0.078
885	0.078
886	0.078
886	0.077
887	0.077
887	0.076
887	0.075
888	0.075
888	0.074
889	0.073
889	0.073
890	0.072
890	0.072
890	0.072
891	0.072
891	0.072
892	0.071
892	0.071
893	0.071
893	0.07
893	0.07
894	0.07
894	0.069
895	0.069
895	0.069
895	0.069
896	0.069
896	0.07
897	0.07
897	0.071
898	0.071
898	0.071
898	0.072
899	0.072
899	0.073
900	0.073
900	0.073
901	0.073
901	0.072
901	0.072
902	0.071
902	0.071
903	0.07
903	0.07
904	0.069
904	0.069
904	0.069
905	0.068
905	0.068
906	0.068
906	0.068
907	0.068
907	0.068
907	0.068
908	0.068
908	0.068
909	0.067
909	0.067
910	0.066
910	0.066
910	0.066
911	0.065
911	0.065
912	0.065
912	0.065
913	0.065
913	0.065
913	0.065
914	0.065
914	0.066
915	0.066
915	0.066
916	0.066
916	0.066
916	0.066
917	0.065
917	0.065
918	0.064
918	0.064
918	0.064
919	0.064
919	0.064
920	0.064
920	0.064
921	0.064
921	0.064
921	0.064
922	0.065
922	0.065
923	0.066
923	0.066
924	0.067
924	0.068
924	0.068
925	0.069
925	0.07
926	0.07
926	0.071
927	0.071
927	0.072
927	0.072
928	0.072
928	0.071
929	0.071
929	0.071
930	0.07
930	0.069
930	0.069
931	0.068
931	0.067
932	0.066
932	0.066
933	0.065
933	0.065
933	0.064
934	0.064
934	0.063
935	0.063
935	0.062
935	0.062
936	0.061
936	0.061
937	0.061
937	0.06
938	0.06
938	0.06
938	0.06
939	0.06
939	0.06
940	0.06
940	0.061
941	0.061
941	0.061
941	0.061
942	0.061
942	0.061
943	0.061
943	0.061
944	0.061
944	0.061
944	0.061
945	0.062
945	0.062
946	0.062
946	0.062
946	0.062
947	0.062
947	0.062
948	0.061
948	0.061
949	0.061
949	0.061
949	0.06
950	0.06
950	0.06
951	0.06
951	0.059
952	0.059
952	0.058
952	0.058
953	0.058
953	0.057
954	0.057
954	0.056
955	0.056
955	0.055
955	0.055
956	0.055
956	0.055
957	0.055
957	0.055
957	0.055
958	0.055
958	0.055
959	0.055
959	0.055
960	0.055
960	0.055
960	0.055
961	0.055
961	0.055
962	0.055
962	0.055
963	0.056
963	0.056
963	0.056
964	0.056
964	0.057
965	0.057
965	0.058
966	0.058
966	0.058
966	0.058
967	0.058
967	0.058
968	0.058
968	0.058
968	0.058
969	0.057
969	0.057
970	0.056
970	0.055
971	0.055
971	0.054
971	0.053
972	0.053
972	0.052
973	0.052
973	0.052
974	0.052
974	0.052
974	0.052
975	0.052
975	0.053
976	0.053
976	0.054
976	0.054
977	0.054
977	0.054
978	0.054
978	0.054
979	0.054
979	0.053
979	0.053
980	0.052
980	0.052
981	0.051
981	0.05
982	0.05
982	0.05
982	0.049
983	0.049
983	0.049
984	0.049
984	0.049
984	0.049
985	0.049
985	0.049
986	0.049
986	0.049
987	0.049
987	0.049
987	0.049
988	0.049
988	0.049
989	0.049
989	0.049
990	0.049
990	0.049
990	0.049
991	0.049
991	0.049
992	0.048
992	0.048
992	0.047
993	0.047
993	0.046
994	0.045
994	0.045
995	0.044
995	0.044
995	0.043
996	0.043
996	0.043
997	0.044
997	0.044
997	0.045
998	0.046
998	0.047
999	0.048
999	0.049
1000	0.05
1000	0.05
1000	0.051
1001	0.051
1001	0.051
1002	0.051
1002	0.05
1003	0.05
1003	0.049
1003	0.048
1004	0.047
1004	0.046
1005	0.045
1005	0.044
1005	0.043
1006	0.042
1006	0.041
1007	0.041
1007	0.041
1008	0.041
1008	0.041
1008	0.041
1009	0.041
1009	0.042
1010	0.042
1010	0.042
1010	0.042
1011	0.042
1011	0.042
1012	0.041
1012	0.041
1013	0.04
1013	0.04
1013	0.039
1014	0.039
1014	0.038
1015	0.038
1015	0.038
1016	0.038
1016	0.038
1016	0.038
1017	0.038
1017	0.039
1018	0.039
1018	0.039
1018	0.04
1019	0.04
1019	0.04
1020	0.041
1020	0.041
1021	0.041
1021	0.042
1021	0.042
1022	0.043
1022	0.043
1023	0.043
1023	0.043
1023	0.044
1024	0.044
1024	0.044
1025	0.044
1025	0.044
1026	0.044
1026	0.044
1026	0.044
1027	0.044
1027	0.044
1028	0.044
1028	0.044
1028	0.044
1029	0.045
1029	0.045
1030	0.045
1030	0.045
1031	0.045
1031	0.045
1031	0.045
1032	0.045
1032	0.045
1033	0.045
1033	0.045
1033	0.045
1034	0.045
1034	0.044
1035	0.044
1035	0.044
1036	0.043
1036	0.043
1036	0.043
1037	0.043
1037	0.043
1038	0.043
1038	0.042
1039	0.042
1039	0.042
1039	0.042
1040	0.042
1040	0.042
1041	0.042
1041	0.042
1041	0.042
1042	0.042
1042	0.041
1043	0.042
1043	0.042
1044	0.042
1044	0.042
1044	0.043
1045	0.043
1045	0.043
1046	0.043
1046	0.044
1046	0.044
1047	0.045
1047	0.045
1048	0.045
1048	0.046
1049	0.046
1049	0.046
1049	0.046
1050	0.046
1050	0.045
1051	0.045
1051	0.045
1051	0.044
1052	0.043
1052	0.043
1053	0.042
1053	0.041
1053	0.041
1054	0.04
1054	0.04
1055	0.04
1055	0.039
1056	0.038
1056	0.038
1056	0.037
1057	0.037
1057	0.036
1058	0.035
1058	0.035
1058	0.034
1059	0.034
1059	0.034
1060	0.033
1060	0.033
1061	0.033
1061	0.033
1061	0.033
1062	0.033
1062	0.033
1063	0.033
1063	0.033
1063	0.032
1064	0.032
1064	0.032
1065	0.032
1065	0.032
1066	0.032
1066	0.032
1066	0.031
1067	0.031
1067	0.031
1068	0.031
1068	0.031
1068	0.031
1069	0.031
1069	0.031
1070	0.03
1070	0.03
1071	0.029
1071	0.029
1071	0.029
1072	0.029
1072	0.028
1073	0.028
1073	0.028
1073	0.027
1074	0.028
1074	0.028
1075	0.027
1075	0.028
1076	0.028
1076	0.028
1076	0.028
1077	0.028
1077	0.028
1078	0.028
1078	0.028
1078	0.028
1079	0.028
1079	0.028
1080	0.028
1080	0.028
1080	0.027
1081	0.028
1081	0.028
1082	0.028
1082	0.029
1083	0.028
1083	0.028
1083	0.028
1084	0.028
1084	0.029
1085	0.029
1085	0.029
1085	0.029
1086	0.029
1086	0.028
1087	0.028
1087	0.028
1088	0.028
1088	0.028
1088	0.028
1089	0.028
1089	0.027
1090	0.027
1090	0.027
1090	0.026
1091	0.026
1091	0.026
1092	0.026
1092	0.026
1092	0.026
1093	0.026
1093	0.027
1094	0.026
1094	0.026
1095	0.026
1095	0.026
1095	0.026
1096	0.025
1096	0.024
1097	0.023
1097	0.022
1097	0.022
1098	0.02
1098	0.02
1099	0.019
1099	0.017
1100	0.016
1100	0.015
1100	0.014
1101	0.013
1101	0.012
1102	0.011
1102	0.01
1102	0.009
1103	0.008
1103	0.008
1104	0.007
1104	0.007
1104	0.007
1105	0.006
1105	0.004
1106	0.002
1106	0
1107	-0
1107	-0.001
1107	-0.003
1108	-0.004
1108	-0.005
1109	-0.006
1109	-0.007
1109	-0.008
1110	-0.008
1110	-0.007
1111	-0.007
1111	-0.011
