Data from reversibility-20sec_Absorbance__7793__000000000007793.txt Node

Date: Thu Dec 07 07:30:46 CET 2023
User: Marek
Spectrometer: MAYP115816
Trigger mode: 0
Integration Time (sec): 2.000000E-1
Scans to average: 10
Electric dark correction enabled: true
Nonlinearity correction enabled: true
Boxcar width: 5
XAxis mode: Wavelengths
Number of Pixels in Spectrum: 2068
>>>>>Begin Spectral Data<<<<<
199	-0.148
199	-0.111
200	-0.052
200	-0.006
201	0.021
201	0.038
202	0.044
202	0.055
203	0.063
203	0.064
204	0.08
204	0.092
205	0.102
205	0.107
205	0.106
206	0.106
206	0.107
207	0.111
207	0.111
208	0.109
208	0.111
209	0.112
209	0.112
210	0.113
210	0.116
211	0.119
211	0.122
212	0.119
212	0.121
213	0.124
213	0.124
213	0.127
214	0.131
214	0.134
215	0.137
215	0.134
216	0.136
216	0.132
217	0.138
217	0.138
218	0.136
218	0.142
219	0.144
219	0.142
220	0.145
220	0.145
221	0.15
221	0.154
221	0.162
222	0.169
222	0.174
223	0.178
223	0.185
224	0.193
224	0.201
225	0.208
225	0.219
226	0.228
226	0.238
227	0.246
227	0.256
228	0.271
228	0.291
229	0.307
229	0.328
229	0.351
230	0.379
230	0.41
231	0.442
231	0.477
232	0.52
232	0.562
233	0.606
233	0.652
234	0.701
234	0.752
235	0.809
235	0.864
236	0.915
236	0.967
236	1.017
237	1.066
237	1.113
238	1.158
238	1.204
239	1.25
239	1.291
240	1.328
240	1.358
241	1.389
241	1.421
242	1.453
242	1.484
243	1.516
243	1.543
243	1.567
244	1.587
244	1.61
245	1.63
245	1.653
246	1.674
246	1.694
247	1.709
247	1.72
248	1.732
248	1.744
249	1.752
249	1.76
250	1.766
250	1.773
250	1.778
251	1.782
251	1.784
252	1.788
252	1.792
253	1.792
253	1.79
254	1.793
254	1.794
255	1.794
255	1.794
256	1.793
256	1.793
257	1.793
257	1.792
258	1.791
258	1.792
258	1.793
259	1.793
259	1.794
260	1.793
260	1.793
261	1.793
261	1.793
262	1.795
262	1.795
263	1.797
263	1.797
264	1.797
264	1.796
265	1.795
265	1.795
265	1.796
266	1.796
266	1.797
267	1.793
267	1.793
268	1.793
268	1.795
269	1.796
269	1.796
270	1.795
270	1.794
271	1.791
271	1.791
272	1.787
272	1.788
272	1.786
273	1.782
273	1.776
274	1.772
274	1.767
275	1.762
275	1.757
276	1.75
276	1.744
277	1.737
277	1.725
278	1.715
278	1.704
278	1.692
279	1.678
279	1.661
280	1.642
280	1.618
281	1.589
281	1.556
282	1.521
282	1.486
283	1.45
283	1.413
284	1.376
284	1.34
285	1.305
285	1.273
285	1.244
286	1.218
286	1.195
287	1.175
287	1.156
288	1.14
288	1.127
289	1.115
289	1.105
290	1.096
290	1.088
291	1.081
291	1.074
292	1.068
292	1.063
292	1.058
293	1.053
293	1.049
294	1.044
294	1.04
295	1.036
295	1.033
296	1.029
296	1.026
297	1.022
297	1.019
298	1.015
298	1.012
298	1.008
299	1.005
299	1.002
300	0.998
300	0.995
301	0.992
301	0.988
302	0.985
302	0.983
303	0.98
303	0.977
304	0.974
304	0.971
305	0.968
305	0.965
305	0.963
306	0.96
306	0.957
307	0.954
307	0.951
308	0.948
308	0.945
309	0.942
309	0.939
310	0.936
310	0.932
311	0.929
311	0.925
311	0.922
312	0.918
312	0.914
313	0.91
313	0.907
314	0.902
314	0.898
315	0.894
315	0.889
316	0.885
316	0.88
317	0.875
317	0.87
318	0.865
318	0.859
318	0.854
319	0.848
319	0.842
320	0.837
320	0.831
321	0.825
321	0.818
322	0.812
322	0.806
323	0.799
323	0.793
324	0.786
324	0.78
324	0.773
325	0.766
325	0.759
326	0.752
326	0.745
327	0.738
327	0.73
328	0.723
328	0.716
329	0.709
329	0.702
330	0.694
330	0.687
330	0.68
331	0.673
331	0.666
332	0.659
332	0.652
333	0.645
333	0.638
334	0.631
334	0.624
335	0.617
335	0.61
336	0.604
336	0.597
336	0.59
337	0.584
337	0.577
338	0.571
338	0.565
339	0.559
339	0.552
340	0.546
340	0.541
341	0.535
341	0.529
342	0.523
342	0.518
342	0.512
343	0.507
343	0.502
344	0.497
344	0.492
345	0.486
345	0.482
346	0.477
346	0.472
347	0.468
347	0.464
348	0.459
348	0.455
348	0.451
349	0.447
349	0.443
350	0.44
350	0.436
351	0.433
351	0.429
352	0.426
352	0.423
353	0.42
353	0.417
354	0.414
354	0.411
354	0.408
355	0.405
355	0.402
356	0.399
356	0.396
357	0.393
357	0.39
358	0.387
358	0.385
359	0.382
359	0.38
360	0.377
360	0.375
360	0.373
361	0.371
361	0.369
362	0.367
362	0.365
363	0.364
363	0.362
364	0.36
364	0.358
365	0.356
365	0.354
366	0.352
366	0.35
366	0.348
367	0.347
367	0.345
368	0.343
368	0.341
369	0.34
369	0.338
370	0.337
370	0.335
371	0.334
371	0.332
372	0.331
372	0.33
372	0.328
373	0.327
373	0.326
374	0.325
374	0.324
375	0.323
375	0.322
376	0.321
376	0.32
377	0.318
377	0.317
378	0.316
378	0.316
378	0.315
379	0.314
379	0.313
380	0.312
380	0.311
381	0.31
381	0.309
382	0.309
382	0.308
383	0.307
383	0.306
383	0.306
384	0.305
384	0.304
385	0.304
385	0.303
386	0.302
386	0.302
387	0.301
387	0.301
388	0.3
388	0.3
389	0.299
389	0.299
389	0.299
390	0.298
390	0.298
391	0.297
391	0.297
392	0.296
392	0.296
393	0.295
393	0.295
394	0.294
394	0.294
394	0.293
395	0.293
395	0.292
396	0.292
396	0.291
397	0.291
397	0.29
398	0.29
398	0.289
399	0.289
399	0.288
400	0.288
400	0.288
400	0.287
401	0.287
401	0.287
402	0.286
402	0.286
403	0.286
403	0.285
404	0.285
404	0.285
405	0.284
405	0.284
405	0.283
406	0.283
406	0.283
407	0.282
407	0.282
408	0.282
408	0.281
409	0.281
409	0.28
410	0.28
410	0.28
411	0.28
411	0.279
411	0.279
412	0.279
412	0.279
413	0.278
413	0.278
414	0.278
414	0.278
415	0.277
415	0.277
416	0.276
416	0.276
416	0.275
417	0.275
417	0.275
418	0.274
418	0.274
419	0.273
419	0.273
420	0.272
420	0.272
421	0.271
421	0.271
421	0.271
422	0.27
422	0.27
423	0.27
423	0.269
424	0.269
424	0.269
425	0.268
425	0.268
426	0.268
426	0.268
427	0.267
427	0.267
427	0.267
428	0.266
428	0.266
429	0.265
429	0.265
430	0.265
430	0.265
431	0.264
431	0.264
432	0.264
432	0.264
432	0.263
433	0.263
433	0.263
434	0.263
434	0.263
435	0.263
435	0.263
436	0.263
436	0.263
437	0.262
437	0.262
437	0.262
438	0.262
438	0.262
439	0.261
439	0.261
440	0.261
440	0.261
441	0.261
441	0.26
442	0.26
442	0.26
442	0.26
443	0.259
443	0.259
444	0.259
444	0.259
445	0.259
445	0.259
446	0.259
446	0.258
447	0.258
447	0.258
447	0.258
448	0.258
448	0.258
449	0.258
449	0.258
450	0.258
450	0.258
451	0.258
451	0.258
452	0.258
452	0.258
452	0.258
453	0.258
453	0.258
454	0.257
454	0.257
455	0.257
455	0.257
456	0.257
456	0.257
457	0.256
457	0.256
458	0.256
458	0.256
458	0.256
459	0.256
459	0.257
460	0.257
460	0.257
461	0.257
461	0.257
462	0.257
462	0.257
463	0.257
463	0.257
463	0.257
464	0.257
464	0.257
465	0.257
465	0.257
466	0.257
466	0.257
467	0.257
467	0.257
467	0.257
468	0.257
468	0.258
469	0.258
469	0.259
470	0.259
470	0.259
471	0.26
471	0.26
472	0.26
472	0.26
472	0.261
473	0.261
473	0.261
474	0.261
474	0.261
475	0.261
475	0.262
476	0.262
476	0.262
477	0.263
477	0.263
477	0.264
478	0.264
478	0.265
479	0.265
479	0.266
480	0.266
480	0.267
481	0.267
481	0.267
482	0.268
482	0.269
482	0.269
483	0.269
483	0.27
484	0.271
484	0.271
485	0.271
485	0.272
486	0.272
486	0.273
487	0.273
487	0.274
487	0.274
488	0.275
488	0.275
489	0.276
489	0.278
490	0.279
490	0.28
491	0.282
491	0.283
492	0.284
492	0.285
492	0.286
493	0.287
493	0.288
494	0.289
494	0.29
495	0.291
495	0.292
496	0.292
496	0.294
496	0.295
497	0.296
497	0.297
498	0.298
498	0.299
499	0.3
499	0.301
500	0.302
500	0.304
501	0.305
501	0.306
501	0.306
502	0.307
502	0.308
503	0.309
503	0.31
504	0.311
504	0.313
505	0.314
505	0.315
506	0.316
506	0.317
506	0.318
507	0.319
507	0.32
508	0.321
508	0.322
509	0.323
509	0.323
510	0.324
510	0.325
511	0.326
511	0.327
511	0.328
512	0.328
512	0.329
513	0.33
513	0.33
514	0.331
514	0.332
515	0.333
515	0.333
515	0.334
516	0.334
516	0.335
517	0.336
517	0.336
518	0.337
518	0.337
519	0.337
519	0.337
520	0.338
520	0.338
520	0.338
521	0.338
521	0.338
522	0.338
522	0.338
523	0.338
523	0.338
524	0.338
524	0.338
524	0.338
525	0.337
525	0.337
526	0.336
526	0.336
527	0.335
527	0.334
528	0.334
528	0.333
529	0.333
529	0.332
529	0.331
530	0.33
530	0.329
531	0.329
531	0.327
532	0.327
532	0.325
533	0.324
533	0.323
533	0.323
534	0.321
534	0.32
535	0.319
535	0.318
536	0.316
536	0.315
537	0.313
537	0.312
538	0.311
538	0.309
538	0.307
539	0.306
539	0.305
540	0.303
540	0.302
541	0.3
541	0.299
542	0.298
542	0.296
542	0.294
543	0.292
543	0.291
544	0.288
544	0.287
545	0.285
545	0.283
546	0.282
546	0.28
547	0.278
547	0.276
547	0.274
548	0.272
548	0.271
549	0.269
549	0.268
550	0.266
550	0.265
551	0.263
551	0.261
551	0.259
552	0.258
552	0.256
553	0.254
553	0.253
554	0.251
554	0.249
555	0.247
555	0.245
556	0.244
556	0.242
556	0.241
557	0.24
557	0.238
558	0.237
558	0.236
559	0.234
559	0.233
560	0.231
560	0.23
560	0.228
561	0.227
561	0.225
562	0.223
562	0.221
563	0.219
563	0.218
564	0.216
564	0.214
564	0.213
565	0.212
565	0.211
566	0.209
566	0.208
567	0.207
567	0.206
568	0.204
568	0.203
568	0.202
569	0.2
569	0.199
570	0.197
570	0.195
571	0.193
571	0.192
572	0.191
572	0.189
573	0.188
573	0.187
573	0.186
574	0.185
574	0.184
575	0.183
575	0.182
576	0.182
576	0.18
577	0.179
577	0.178
577	0.177
578	0.176
578	0.175
579	0.174
579	0.174
580	0.172
580	0.171
581	0.17
581	0.169
581	0.168
582	0.167
582	0.167
583	0.166
583	0.165
584	0.163
584	0.162
585	0.161
585	0.16
585	0.16
586	0.159
586	0.158
587	0.157
587	0.156
588	0.155
588	0.155
589	0.154
589	0.153
590	0.153
590	0.152
590	0.152
591	0.151
591	0.15
592	0.149
592	0.148
593	0.147
593	0.147
594	0.146
594	0.145
594	0.144
595	0.143
595	0.142
596	0.141
596	0.141
597	0.141
597	0.141
598	0.14
598	0.14
598	0.139
599	0.139
599	0.138
600	0.137
600	0.137
601	0.136
601	0.136
602	0.135
602	0.134
602	0.133
603	0.133
603	0.133
604	0.133
604	0.133
605	0.133
605	0.132
606	0.132
606	0.131
606	0.13
607	0.13
607	0.129
608	0.129
608	0.128
609	0.127
609	0.126
610	0.126
610	0.125
610	0.125
611	0.125
611	0.125
612	0.124
612	0.124
613	0.124
613	0.124
614	0.124
614	0.123
614	0.123
615	0.123
615	0.123
616	0.122
616	0.122
617	0.122
617	0.121
618	0.121
618	0.121
618	0.12
619	0.12
619	0.12
620	0.12
620	0.119
621	0.119
621	0.118
622	0.117
622	0.117
622	0.116
623	0.116
623	0.115
624	0.115
624	0.114
625	0.114
625	0.114
626	0.114
626	0.113
626	0.113
627	0.113
627	0.113
628	0.113
628	0.113
629	0.112
629	0.112
630	0.111
630	0.111
630	0.111
631	0.11
631	0.11
632	0.109
632	0.109
633	0.109
633	0.109
634	0.109
634	0.109
634	0.109
635	0.108
635	0.108
636	0.108
636	0.108
637	0.107
637	0.107
638	0.107
638	0.107
638	0.106
639	0.105
639	0.105
640	0.105
640	0.104
641	0.104
641	0.104
642	0.103
642	0.103
642	0.103
643	0.103
643	0.103
644	0.103
644	0.104
645	0.103
645	0.104
646	0.104
646	0.104
646	0.104
647	0.103
647	0.103
648	0.102
648	0.101
649	0.101
649	0.1
650	0.1
650	0.1
650	0.1
651	0.099
651	0.099
652	0.099
652	0.1
653	0.1
653	0.102
653	0.107
654	0.086
654	0.07
655	0.068
655	0.068
656	0.068
656	0.069
657	0.069
657	0.069
657	0.069
658	0.068
658	0.061
659	0.076
659	0.095
660	0.1
660	0.1
661	0.1
661	0.099
661	0.098
662	0.098
662	0.097
663	0.097
663	0.096
664	0.096
664	0.095
665	0.095
665	0.095
665	0.095
666	0.095
666	0.095
667	0.095
667	0.095
668	0.095
668	0.095
669	0.096
669	0.096
669	0.097
670	0.097
670	0.097
671	0.097
671	0.097
672	0.096
672	0.096
672	0.095
673	0.095
673	0.095
674	0.094
674	0.094
675	0.093
675	0.093
676	0.093
676	0.093
676	0.093
677	0.094
677	0.094
678	0.094
678	0.093
679	0.093
679	0.093
680	0.093
680	0.093
680	0.093
681	0.093
681	0.093
682	0.093
682	0.094
683	0.094
683	0.094
684	0.094
684	0.093
684	0.093
685	0.093
685	0.093
686	0.092
686	0.092
687	0.091
687	0.091
687	0.091
688	0.091
688	0.091
689	0.092
689	0.092
690	0.092
690	0.092
691	0.092
691	0.092
691	0.092
692	0.092
692	0.092
693	0.093
693	0.093
694	0.093
694	0.093
695	0.093
695	0.094
695	0.094
696	0.094
696	0.094
697	0.094
697	0.094
698	0.094
698	0.093
698	0.093
699	0.094
699	0.093
700	0.093
700	0.092
701	0.092
701	0.092
702	0.091
702	0.09
702	0.09
703	0.089
703	0.089
704	0.088
704	0.088
705	0.088
705	0.087
705	0.087
706	0.087
706	0.087
707	0.087
707	0.087
708	0.088
708	0.088
709	0.088
709	0.088
709	0.087
710	0.087
710	0.088
711	0.088
711	0.089
712	0.089
712	0.089
713	0.089
713	0.089
713	0.089
714	0.088
714	0.088
715	0.088
715	0.087
716	0.086
716	0.086
716	0.085
717	0.085
717	0.085
718	0.084
718	0.084
719	0.085
719	0.085
720	0.086
720	0.087
720	0.087
721	0.088
721	0.088
722	0.089
722	0.089
723	0.089
723	0.089
723	0.089
724	0.088
724	0.088
725	0.087
725	0.086
726	0.086
726	0.085
727	0.085
727	0.084
727	0.084
728	0.084
728	0.084
729	0.084
729	0.084
730	0.084
730	0.085
730	0.085
731	0.085
731	0.085
732	0.086
732	0.086
733	0.086
733	0.085
734	0.085
734	0.085
734	0.086
735	0.086
735	0.085
736	0.085
736	0.085
737	0.085
737	0.085
737	0.084
738	0.084
738	0.083
739	0.083
739	0.083
740	0.083
740	0.083
741	0.083
741	0.084
741	0.084
742	0.084
742	0.085
743	0.086
743	0.086
744	0.086
744	0.087
744	0.086
745	0.086
745	0.086
746	0.086
746	0.085
747	0.085
747	0.085
748	0.084
748	0.084
748	0.084
749	0.084
749	0.084
750	0.085
750	0.085
751	0.085
751	0.085
751	0.085
752	0.085
752	0.084
753	0.084
753	0.083
754	0.083
754	0.082
754	0.082
755	0.081
755	0.081
756	0.08
756	0.079
757	0.078
757	0.078
758	0.078
758	0.078
758	0.078
759	0.078
759	0.078
760	0.077
760	0.077
761	0.078
761	0.078
761	0.079
762	0.079
762	0.079
763	0.079
763	0.079
764	0.078
764	0.078
764	0.078
765	0.078
765	0.078
766	0.077
766	0.077
767	0.077
767	0.076
768	0.075
768	0.075
768	0.075
769	0.075
769	0.075
770	0.075
770	0.076
771	0.076
771	0.076
771	0.076
772	0.076
772	0.077
773	0.077
773	0.077
774	0.077
774	0.078
775	0.078
775	0.078
775	0.079
776	0.079
776	0.08
777	0.081
777	0.081
778	0.081
778	0.081
778	0.081
779	0.08
779	0.079
780	0.078
780	0.077
781	0.076
781	0.075
781	0.074
782	0.073
782	0.072
783	0.072
783	0.072
784	0.072
784	0.072
784	0.073
785	0.073
785	0.073
786	0.073
786	0.073
787	0.074
787	0.073
788	0.073
788	0.072
788	0.072
789	0.072
789	0.072
790	0.072
790	0.072
791	0.071
791	0.071
791	0.07
792	0.071
792	0.07
793	0.07
793	0.069
794	0.069
794	0.068
794	0.068
795	0.067
795	0.067
796	0.067
796	0.067
797	0.067
797	0.067
797	0.067
798	0.067
798	0.068
799	0.067
799	0.067
800	0.067
800	0.067
801	0.068
801	0.068
801	0.069
802	0.069
802	0.07
803	0.07
803	0.071
804	0.072
804	0.072
804	0.072
805	0.072
805	0.072
806	0.072
806	0.071
807	0.071
807	0.071
807	0.07
808	0.07
808	0.07
809	0.069
809	0.069
810	0.069
810	0.069
810	0.069
811	0.069
811	0.069
812	0.069
812	0.069
813	0.069
813	0.07
813	0.07
814	0.07
814	0.07
815	0.071
815	0.07
816	0.07
816	0.07
817	0.069
817	0.069
817	0.069
818	0.068
818	0.068
819	0.068
819	0.067
820	0.066
820	0.065
820	0.065
821	0.065
821	0.065
822	0.065
822	0.064
823	0.064
823	0.064
823	0.065
824	0.066
824	0.067
825	0.068
825	0.069
826	0.069
826	0.07
826	0.07
827	0.071
827	0.071
828	0.071
828	0.071
829	0.072
829	0.072
829	0.072
830	0.072
830	0.073
831	0.073
831	0.073
832	0.073
832	0.073
832	0.073
833	0.073
833	0.072
834	0.072
834	0.071
835	0.07
835	0.069
835	0.068
836	0.068
836	0.067
837	0.067
837	0.066
838	0.066
838	0.065
839	0.065
839	0.064
839	0.063
840	0.062
840	0.062
841	0.061
841	0.06
842	0.059
842	0.058
842	0.057
843	0.057
843	0.056
844	0.055
844	0.055
845	0.054
845	0.054
845	0.054
846	0.054
846	0.055
847	0.055
847	0.055
848	0.056
848	0.056
848	0.056
849	0.057
849	0.057
850	0.057
850	0.056
851	0.056
851	0.056
851	0.055
852	0.055
852	0.055
853	0.055
853	0.055
854	0.056
854	0.057
854	0.058
855	0.059
855	0.06
856	0.061
856	0.062
857	0.064
857	0.065
857	0.065
858	0.065
858	0.065
859	0.065
859	0.064
860	0.064
860	0.063
860	0.063
861	0.062
861	0.062
862	0.061
862	0.06
863	0.06
863	0.06
863	0.06
864	0.06
864	0.06
865	0.06
865	0.061
866	0.061
866	0.061
866	0.061
867	0.061
867	0.061
868	0.062
868	0.062
869	0.062
869	0.061
869	0.061
870	0.06
870	0.06
871	0.06
871	0.06
872	0.06
872	0.059
872	0.059
873	0.059
873	0.058
874	0.058
874	0.057
875	0.057
875	0.057
875	0.057
876	0.057
876	0.057
877	0.056
877	0.057
878	0.057
878	0.057
878	0.058
879	0.058
879	0.058
880	0.058
880	0.059
881	0.059
881	0.059
881	0.059
882	0.058
882	0.058
883	0.058
883	0.057
884	0.057
884	0.057
884	0.057
885	0.057
885	0.056
886	0.056
886	0.056
887	0.056
887	0.056
887	0.056
888	0.056
888	0.056
889	0.056
889	0.057
890	0.058
890	0.058
890	0.059
891	0.059
891	0.059
892	0.059
892	0.059
893	0.059
893	0.059
893	0.058
894	0.057
894	0.057
895	0.056
895	0.056
895	0.056
896	0.057
896	0.057
897	0.057
897	0.057
898	0.057
898	0.057
898	0.057
899	0.057
899	0.057
900	0.056
900	0.056
901	0.056
901	0.055
901	0.055
902	0.054
902	0.054
903	0.054
903	0.054
904	0.054
904	0.054
904	0.054
905	0.054
905	0.054
906	0.054
906	0.054
907	0.054
907	0.055
907	0.055
908	0.054
908	0.054
909	0.054
909	0.053
910	0.053
910	0.053
910	0.052
911	0.051
911	0.051
912	0.05
912	0.05
913	0.049
913	0.049
913	0.049
914	0.048
914	0.048
915	0.048
915	0.048
916	0.047
916	0.047
916	0.047
917	0.046
917	0.046
918	0.046
918	0.045
918	0.045
919	0.044
919	0.044
920	0.044
920	0.043
921	0.043
921	0.043
921	0.043
922	0.044
922	0.044
923	0.045
923	0.045
924	0.046
924	0.047
924	0.047
925	0.048
925	0.049
926	0.049
926	0.05
927	0.05
927	0.05
927	0.051
928	0.051
928	0.051
929	0.052
929	0.052
930	0.052
930	0.052
930	0.052
931	0.053
931	0.053
932	0.053
932	0.053
933	0.053
933	0.052
933	0.052
934	0.051
934	0.051
935	0.05
935	0.05
935	0.049
936	0.049
936	0.048
937	0.047
937	0.046
938	0.045
938	0.045
938	0.044
939	0.043
939	0.043
940	0.042
940	0.042
941	0.043
941	0.043
941	0.043
942	0.044
942	0.044
943	0.045
943	0.046
944	0.046
944	0.047
944	0.047
945	0.048
945	0.048
946	0.049
946	0.049
946	0.049
947	0.049
947	0.049
948	0.049
948	0.048
949	0.048
949	0.047
949	0.047
950	0.046
950	0.046
951	0.045
951	0.044
952	0.043
952	0.043
952	0.042
953	0.042
953	0.042
954	0.042
954	0.042
955	0.042
955	0.043
955	0.043
956	0.044
956	0.045
957	0.046
957	0.047
957	0.047
958	0.048
958	0.049
959	0.05
959	0.05
960	0.051
960	0.051
960	0.051
961	0.051
961	0.051
962	0.051
962	0.05
963	0.05
963	0.049
963	0.049
964	0.048
964	0.048
965	0.048
965	0.047
966	0.047
966	0.048
966	0.048
967	0.048
967	0.048
968	0.049
968	0.049
968	0.049
969	0.049
969	0.048
970	0.048
970	0.047
971	0.047
971	0.046
971	0.045
972	0.044
972	0.043
973	0.043
973	0.042
974	0.042
974	0.042
974	0.042
975	0.042
975	0.043
976	0.043
976	0.044
976	0.044
977	0.045
977	0.045
978	0.045
978	0.045
979	0.046
979	0.046
979	0.046
980	0.046
980	0.046
981	0.046
981	0.046
982	0.046
982	0.046
982	0.046
983	0.046
983	0.045
984	0.045
984	0.045
984	0.045
985	0.044
985	0.044
986	0.044
986	0.044
987	0.043
987	0.043
987	0.043
988	0.043
988	0.043
989	0.042
989	0.042
990	0.042
990	0.042
990	0.041
991	0.041
991	0.041
992	0.04
992	0.039
992	0.038
993	0.038
993	0.037
994	0.036
994	0.035
995	0.034
995	0.034
995	0.034
996	0.033
996	0.033
997	0.034
997	0.034
997	0.034
998	0.034
998	0.035
999	0.035
999	0.036
1000	0.036
1000	0.037
1000	0.037
1001	0.037
1001	0.038
1002	0.038
1002	0.038
1003	0.039
1003	0.039
1003	0.039
1004	0.039
1004	0.039
1005	0.038
1005	0.038
1005	0.038
1006	0.037
1006	0.037
1007	0.037
1007	0.036
1008	0.036
1008	0.036
1008	0.035
1009	0.035
1009	0.035
1010	0.034
1010	0.034
1010	0.034
1011	0.034
1011	0.033
1012	0.033
1012	0.033
1013	0.033
1013	0.033
1013	0.032
1014	0.032
1014	0.032
1015	0.032
1015	0.033
1016	0.033
1016	0.033
1016	0.033
1017	0.034
1017	0.034
1018	0.034
1018	0.034
1018	0.034
1019	0.034
1019	0.034
1020	0.034
1020	0.035
1021	0.035
1021	0.036
1021	0.036
1022	0.037
1022	0.037
1023	0.037
1023	0.038
1023	0.038
1024	0.038
1024	0.038
1025	0.038
1025	0.038
1026	0.038
1026	0.037
1026	0.037
1027	0.038
1027	0.037
1028	0.037
1028	0.037
1028	0.037
1029	0.037
1029	0.037
1030	0.037
1030	0.037
1031	0.037
1031	0.038
1031	0.038
1032	0.038
1032	0.038
1033	0.038
1033	0.038
1033	0.038
1034	0.038
1034	0.038
1035	0.038
1035	0.038
1036	0.038
1036	0.038
1036	0.038
1037	0.038
1037	0.038
1038	0.038
1038	0.038
1039	0.038
1039	0.038
1039	0.038
1040	0.038
1040	0.038
1041	0.038
1041	0.038
1041	0.038
1042	0.038
1042	0.037
1043	0.037
1043	0.037
1044	0.036
1044	0.036
1044	0.036
1045	0.036
1045	0.035
1046	0.035
1046	0.035
1046	0.035
1047	0.035
1047	0.035
1048	0.035
1048	0.036
1049	0.036
1049	0.036
1049	0.035
1050	0.035
1050	0.035
1051	0.034
1051	0.034
1051	0.033
1052	0.033
1052	0.032
1053	0.031
1053	0.03
1053	0.029
1054	0.029
1054	0.028
1055	0.028
1055	0.028
1056	0.027
1056	0.027
1056	0.026
1057	0.026
1057	0.026
1058	0.025
1058	0.025
1058	0.024
1059	0.024
1059	0.024
1060	0.023
1060	0.023
1061	0.023
1061	0.023
1061	0.023
1062	0.023
1062	0.024
1063	0.024
1063	0.024
1063	0.024
1064	0.024
1064	0.024
1065	0.024
1065	0.024
1066	0.024
1066	0.024
1066	0.024
1067	0.024
1067	0.024
1068	0.024
1068	0.024
1068	0.024
1069	0.025
1069	0.025
1070	0.024
1070	0.024
1071	0.024
1071	0.024
1071	0.024
1072	0.024
1072	0.024
1073	0.023
1073	0.023
1073	0.023
1074	0.023
1074	0.024
1075	0.024
1075	0.024
1076	0.025
1076	0.025
1076	0.026
1077	0.027
1077	0.027
1078	0.027
1078	0.028
1078	0.027
1079	0.027
1079	0.027
1080	0.026
1080	0.026
1080	0.026
1081	0.026
1081	0.026
1082	0.026
1082	0.026
1083	0.026
1083	0.027
1083	0.027
1084	0.027
1084	0.028
1085	0.028
1085	0.028
1085	0.028
1086	0.028
1086	0.027
1087	0.027
1087	0.027
1088	0.027
1088	0.026
1088	0.026
1089	0.026
1089	0.025
1090	0.025
1090	0.024
1090	0.024
1091	0.024
1091	0.023
1092	0.024
1092	0.023
1092	0.024
1093	0.023
1093	0.023
1094	0.023
1094	0.023
1095	0.023
1095	0.023
1095	0.023
1096	0.023
1096	0.022
1097	0.022
1097	0.02
1097	0.02
1098	0.02
1098	0.019
1099	0.019
1099	0.017
1100	0.016
1100	0.015
1100	0.014
1101	0.013
1101	0.012
1102	0.012
1102	0.011
1102	0.01
1103	0.01
1103	0.01
1104	0.01
1104	0.01
1104	0.01
1105	0.01
1105	0.009
1106	0.008
1106	0.007
1107	0.007
1107	0.006
1107	0.005
1108	0.004
1108	0.003
1109	0.002
1109	0.003
1109	0.002
1110	0.002
1110	0.003
1111	0.002
1111	-0.003
