Data from reversibility-20sec_Absorbance__2786__000000000002786.txt Node

Date: Wed Dec 06 03:41:45 CET 2023
User: Marek
Spectrometer: MAYP115816
Trigger mode: 0
Integration Time (sec): 2.000000E-1
Scans to average: 10
Electric dark correction enabled: true
Nonlinearity correction enabled: true
Boxcar width: 5
XAxis mode: Wavelengths
Number of Pixels in Spectrum: 2068
>>>>>Begin Spectral Data<<<<<
199	-0.13
199	-0.107
200	-0.041
200	0.012
201	0.04
201	0.058
202	0.07
202	0.078
203	0.086
203	0.09
204	0.103
204	0.114
205	0.127
205	0.131
205	0.13
206	0.131
206	0.13
207	0.132
207	0.132
208	0.13
208	0.128
209	0.131
209	0.13
210	0.129
210	0.129
211	0.13
211	0.13
212	0.13
212	0.133
213	0.135
213	0.134
213	0.135
214	0.139
214	0.141
215	0.143
215	0.146
216	0.149
216	0.15
217	0.15
217	0.15
218	0.151
218	0.156
219	0.158
219	0.158
220	0.159
220	0.158
221	0.157
221	0.158
221	0.161
222	0.167
222	0.171
223	0.178
223	0.182
224	0.189
224	0.195
225	0.207
225	0.218
226	0.228
226	0.238
227	0.252
227	0.261
228	0.276
228	0.291
229	0.307
229	0.331
229	0.356
230	0.381
230	0.41
231	0.443
231	0.483
232	0.52
232	0.567
233	0.61
233	0.658
234	0.712
234	0.764
235	0.817
235	0.873
236	0.926
236	0.979
236	1.031
237	1.084
237	1.13
238	1.183
238	1.233
239	1.279
239	1.325
240	1.367
240	1.402
241	1.441
241	1.479
242	1.513
242	1.548
243	1.584
243	1.61
243	1.636
244	1.662
244	1.685
245	1.706
245	1.731
246	1.754
246	1.773
247	1.789
247	1.804
248	1.821
248	1.839
249	1.853
249	1.861
250	1.873
250	1.883
250	1.887
251	1.893
251	1.899
252	1.906
252	1.908
253	1.912
253	1.909
254	1.909
254	1.913
255	1.911
255	1.911
256	1.912
256	1.913
257	1.914
257	1.911
258	1.914
258	1.914
258	1.916
259	1.916
259	1.916
260	1.916
260	1.919
261	1.922
261	1.926
262	1.931
262	1.937
263	1.941
263	1.942
264	1.944
264	1.949
265	1.955
265	1.96
265	1.963
266	1.964
266	1.963
267	1.962
267	1.965
268	1.965
268	1.966
269	1.974
269	1.975
270	1.971
270	1.969
271	1.968
271	1.97
272	1.966
272	1.965
272	1.958
273	1.951
273	1.944
274	1.933
274	1.924
275	1.917
275	1.909
276	1.9
276	1.892
277	1.885
277	1.874
278	1.863
278	1.849
278	1.833
279	1.815
279	1.79
280	1.76
280	1.725
281	1.683
281	1.637
282	1.589
282	1.541
283	1.494
283	1.449
284	1.406
284	1.365
285	1.327
285	1.292
285	1.261
286	1.233
286	1.21
287	1.189
287	1.172
288	1.157
288	1.144
289	1.133
289	1.123
290	1.115
290	1.108
291	1.102
291	1.097
292	1.092
292	1.087
292	1.083
293	1.079
293	1.075
294	1.072
294	1.069
295	1.066
295	1.063
296	1.06
296	1.057
297	1.054
297	1.051
298	1.048
298	1.045
298	1.043
299	1.04
299	1.037
300	1.034
300	1.031
301	1.029
301	1.027
302	1.024
302	1.022
303	1.02
303	1.017
304	1.015
304	1.012
305	1.01
305	1.007
305	1.005
306	1.003
306	1
307	0.998
307	0.995
308	0.993
308	0.991
309	0.988
309	0.985
310	0.982
310	0.98
311	0.976
311	0.973
311	0.969
312	0.965
312	0.962
313	0.958
313	0.954
314	0.95
314	0.946
315	0.941
315	0.937
316	0.932
316	0.927
317	0.923
317	0.918
318	0.913
318	0.908
318	0.903
319	0.898
319	0.892
320	0.886
320	0.88
321	0.874
321	0.868
322	0.862
322	0.855
323	0.849
323	0.842
324	0.836
324	0.829
324	0.822
325	0.816
325	0.809
326	0.802
326	0.795
327	0.788
327	0.781
328	0.774
328	0.767
329	0.76
329	0.753
330	0.745
330	0.738
330	0.731
331	0.724
331	0.717
332	0.71
332	0.703
333	0.696
333	0.689
334	0.682
334	0.675
335	0.668
335	0.661
336	0.654
336	0.647
336	0.641
337	0.634
337	0.628
338	0.621
338	0.615
339	0.609
339	0.603
340	0.597
340	0.591
341	0.586
341	0.58
342	0.575
342	0.569
342	0.564
343	0.559
343	0.554
344	0.549
344	0.544
345	0.539
345	0.534
346	0.529
346	0.525
347	0.52
347	0.516
348	0.511
348	0.508
348	0.504
349	0.5
349	0.496
350	0.493
350	0.489
351	0.486
351	0.482
352	0.479
352	0.476
353	0.473
353	0.47
354	0.467
354	0.464
354	0.461
355	0.458
355	0.455
356	0.452
356	0.449
357	0.447
357	0.444
358	0.441
358	0.439
359	0.436
359	0.434
360	0.431
360	0.429
360	0.427
361	0.425
361	0.423
362	0.421
362	0.419
363	0.417
363	0.415
364	0.413
364	0.411
365	0.41
365	0.408
366	0.406
366	0.404
366	0.403
367	0.401
367	0.399
368	0.397
368	0.396
369	0.394
369	0.393
370	0.391
370	0.389
371	0.388
371	0.387
372	0.385
372	0.384
372	0.383
373	0.382
373	0.38
374	0.379
374	0.378
375	0.377
375	0.376
376	0.375
376	0.374
377	0.373
377	0.372
378	0.371
378	0.37
378	0.369
379	0.368
379	0.367
380	0.366
380	0.365
381	0.364
381	0.363
382	0.363
382	0.362
383	0.361
383	0.36
383	0.36
384	0.359
384	0.358
385	0.358
385	0.357
386	0.357
386	0.356
387	0.355
387	0.355
388	0.354
388	0.354
389	0.353
389	0.353
389	0.352
390	0.351
390	0.351
391	0.35
391	0.35
392	0.35
392	0.349
393	0.349
393	0.348
394	0.348
394	0.347
394	0.347
395	0.347
395	0.346
396	0.346
396	0.345
397	0.345
397	0.344
398	0.344
398	0.344
399	0.343
399	0.343
400	0.342
400	0.342
400	0.341
401	0.341
401	0.34
402	0.34
402	0.339
403	0.339
403	0.338
404	0.338
404	0.337
405	0.337
405	0.337
405	0.337
406	0.336
406	0.336
407	0.335
407	0.335
408	0.335
408	0.334
409	0.334
409	0.334
410	0.333
410	0.333
411	0.333
411	0.332
411	0.332
412	0.332
412	0.331
413	0.331
413	0.33
414	0.33
414	0.33
415	0.329
415	0.329
416	0.328
416	0.328
416	0.327
417	0.327
417	0.327
418	0.326
418	0.326
419	0.326
419	0.325
420	0.325
420	0.325
421	0.324
421	0.324
421	0.323
422	0.323
422	0.323
423	0.322
423	0.322
424	0.321
424	0.321
425	0.32
425	0.32
426	0.32
426	0.319
427	0.319
427	0.319
427	0.319
428	0.318
428	0.318
429	0.318
429	0.317
430	0.317
430	0.317
431	0.316
431	0.316
432	0.316
432	0.316
432	0.316
433	0.316
433	0.316
434	0.316
434	0.315
435	0.316
435	0.315
436	0.315
436	0.315
437	0.314
437	0.314
437	0.314
438	0.314
438	0.313
439	0.313
439	0.313
440	0.313
440	0.312
441	0.312
441	0.312
442	0.312
442	0.311
442	0.311
443	0.311
443	0.311
444	0.31
444	0.31
445	0.31
445	0.31
446	0.31
446	0.309
447	0.309
447	0.309
447	0.309
448	0.309
448	0.308
449	0.308
449	0.308
450	0.308
450	0.308
451	0.307
451	0.307
452	0.307
452	0.307
452	0.307
453	0.307
453	0.307
454	0.306
454	0.306
455	0.306
455	0.306
456	0.306
456	0.306
457	0.305
457	0.305
458	0.305
458	0.305
458	0.305
459	0.305
459	0.305
460	0.305
460	0.305
461	0.305
461	0.305
462	0.305
462	0.304
463	0.304
463	0.304
463	0.304
464	0.304
464	0.303
465	0.303
465	0.303
466	0.303
466	0.303
467	0.303
467	0.304
467	0.303
468	0.304
468	0.304
469	0.304
469	0.304
470	0.304
470	0.305
471	0.305
471	0.305
472	0.305
472	0.305
472	0.305
473	0.305
473	0.306
474	0.306
474	0.306
475	0.306
475	0.306
476	0.306
476	0.306
477	0.307
477	0.307
477	0.307
478	0.307
478	0.307
479	0.308
479	0.308
480	0.309
480	0.309
481	0.309
481	0.309
482	0.31
482	0.31
482	0.311
483	0.311
483	0.312
484	0.312
484	0.312
485	0.313
485	0.313
486	0.313
486	0.314
487	0.314
487	0.314
487	0.315
488	0.315
488	0.316
489	0.316
489	0.317
490	0.318
490	0.319
491	0.32
491	0.321
492	0.322
492	0.323
492	0.324
493	0.324
493	0.325
494	0.327
494	0.327
495	0.328
495	0.329
496	0.33
496	0.331
496	0.332
497	0.332
497	0.333
498	0.334
498	0.334
499	0.335
499	0.336
500	0.337
500	0.338
501	0.339
501	0.34
501	0.341
502	0.342
502	0.343
503	0.343
503	0.344
504	0.346
504	0.346
505	0.347
505	0.348
506	0.349
506	0.35
506	0.351
507	0.352
507	0.353
508	0.353
508	0.354
509	0.355
509	0.356
510	0.357
510	0.357
511	0.358
511	0.359
511	0.36
512	0.361
512	0.361
513	0.362
513	0.362
514	0.363
514	0.364
515	0.364
515	0.365
515	0.365
516	0.366
516	0.366
517	0.367
517	0.368
518	0.368
518	0.368
519	0.369
519	0.369
520	0.369
520	0.37
520	0.37
521	0.37
521	0.371
522	0.371
522	0.371
523	0.371
523	0.371
524	0.371
524	0.371
524	0.371
525	0.371
525	0.37
526	0.37
526	0.37
527	0.37
527	0.369
528	0.369
528	0.369
529	0.368
529	0.368
529	0.367
530	0.367
530	0.366
531	0.366
531	0.365
532	0.364
532	0.363
533	0.362
533	0.362
533	0.361
534	0.36
534	0.359
535	0.359
535	0.358
536	0.357
536	0.356
537	0.356
537	0.355
538	0.354
538	0.353
538	0.352
539	0.351
539	0.35
540	0.35
540	0.349
541	0.348
541	0.347
542	0.346
542	0.345
542	0.344
543	0.342
543	0.341
544	0.34
544	0.339
545	0.338
545	0.337
546	0.336
546	0.334
547	0.333
547	0.332
547	0.33
548	0.329
548	0.328
549	0.327
549	0.326
550	0.325
550	0.323
551	0.322
551	0.321
551	0.319
552	0.318
552	0.317
553	0.316
553	0.315
554	0.314
554	0.313
555	0.311
555	0.31
556	0.309
556	0.308
556	0.307
557	0.306
557	0.305
558	0.304
558	0.303
559	0.302
559	0.301
560	0.3
560	0.299
560	0.298
561	0.297
561	0.296
562	0.295
562	0.293
563	0.292
563	0.291
564	0.289
564	0.288
564	0.287
565	0.286
565	0.285
566	0.284
566	0.283
567	0.282
567	0.282
568	0.281
568	0.279
568	0.279
569	0.278
569	0.277
570	0.275
570	0.274
571	0.273
571	0.272
572	0.271
572	0.27
573	0.269
573	0.269
573	0.268
574	0.267
574	0.266
575	0.266
575	0.266
576	0.265
576	0.264
577	0.263
577	0.262
577	0.261
578	0.26
578	0.259
579	0.259
579	0.258
580	0.257
580	0.256
581	0.255
581	0.254
581	0.254
582	0.254
582	0.253
583	0.253
583	0.252
584	0.251
584	0.249
585	0.248
585	0.248
585	0.247
586	0.247
586	0.246
587	0.245
587	0.244
588	0.243
588	0.243
589	0.242
589	0.242
590	0.242
590	0.241
590	0.241
591	0.241
591	0.24
592	0.239
592	0.238
593	0.237
593	0.236
594	0.236
594	0.235
594	0.234
595	0.233
595	0.232
596	0.232
596	0.232
597	0.232
597	0.232
598	0.232
598	0.232
598	0.231
599	0.231
599	0.23
600	0.229
600	0.229
601	0.228
601	0.228
602	0.227
602	0.226
602	0.225
603	0.225
603	0.225
604	0.225
604	0.224
605	0.224
605	0.224
606	0.223
606	0.223
606	0.222
607	0.222
607	0.221
608	0.221
608	0.22
609	0.219
609	0.219
610	0.218
610	0.218
610	0.217
611	0.217
611	0.217
612	0.217
612	0.217
613	0.217
613	0.217
614	0.217
614	0.216
614	0.216
615	0.216
615	0.215
616	0.215
616	0.215
617	0.214
617	0.214
618	0.214
618	0.214
618	0.214
619	0.214
619	0.214
620	0.214
620	0.214
621	0.213
621	0.213
622	0.212
622	0.212
622	0.211
623	0.211
623	0.21
624	0.21
624	0.209
625	0.208
625	0.208
626	0.207
626	0.207
626	0.207
627	0.207
627	0.207
628	0.207
628	0.206
629	0.206
629	0.206
630	0.206
630	0.206
630	0.206
631	0.205
631	0.205
632	0.204
632	0.204
633	0.204
633	0.204
634	0.204
634	0.204
634	0.204
635	0.204
635	0.203
636	0.203
636	0.203
637	0.203
637	0.202
638	0.202
638	0.202
638	0.201
639	0.2
639	0.199
640	0.199
640	0.199
641	0.199
641	0.198
642	0.198
642	0.199
642	0.199
643	0.199
643	0.199
644	0.2
644	0.2
645	0.2
645	0.2
646	0.2
646	0.2
646	0.2
647	0.199
647	0.199
648	0.198
648	0.198
649	0.197
649	0.197
650	0.197
650	0.197
650	0.197
651	0.197
651	0.196
652	0.196
652	0.196
653	0.197
653	0.198
653	0.204
654	0.16
654	0.128
655	0.129
655	0.129
656	0.129
656	0.13
657	0.13
657	0.13
657	0.13
658	0.129
658	0.118
659	0.15
659	0.193
660	0.198
660	0.197
661	0.197
661	0.196
661	0.196
662	0.195
662	0.195
663	0.194
663	0.194
664	0.194
664	0.193
665	0.193
665	0.193
665	0.194
666	0.194
666	0.194
667	0.194
667	0.195
668	0.195
668	0.195
669	0.195
669	0.196
669	0.196
670	0.196
670	0.196
671	0.196
671	0.195
672	0.195
672	0.195
672	0.194
673	0.194
673	0.194
674	0.193
674	0.193
675	0.192
675	0.193
676	0.193
676	0.193
676	0.193
677	0.194
677	0.194
678	0.193
678	0.193
679	0.193
679	0.193
680	0.193
680	0.193
680	0.192
681	0.192
681	0.193
682	0.193
682	0.193
683	0.193
683	0.194
684	0.194
684	0.194
684	0.194
685	0.194
685	0.194
686	0.194
686	0.193
687	0.193
687	0.193
687	0.193
688	0.193
688	0.193
689	0.193
689	0.193
690	0.193
690	0.193
691	0.193
691	0.193
691	0.193
692	0.193
692	0.193
693	0.193
693	0.194
694	0.193
694	0.193
695	0.194
695	0.194
695	0.194
696	0.194
696	0.194
697	0.194
697	0.193
698	0.193
698	0.193
698	0.193
699	0.193
699	0.193
700	0.192
700	0.192
701	0.192
701	0.192
702	0.192
702	0.192
702	0.192
703	0.192
703	0.192
704	0.192
704	0.192
705	0.192
705	0.192
705	0.191
706	0.191
706	0.191
707	0.191
707	0.191
708	0.191
708	0.191
709	0.191
709	0.191
709	0.19
710	0.19
710	0.19
711	0.191
711	0.191
712	0.191
712	0.191
713	0.191
713	0.191
713	0.191
714	0.191
714	0.191
715	0.191
715	0.191
716	0.191
716	0.191
716	0.19
717	0.19
717	0.19
718	0.189
718	0.189
719	0.189
719	0.189
720	0.189
720	0.189
720	0.189
721	0.19
721	0.19
722	0.191
722	0.191
723	0.191
723	0.192
723	0.192
724	0.192
724	0.192
725	0.191
725	0.191
726	0.19
726	0.19
727	0.19
727	0.19
727	0.19
728	0.189
728	0.189
729	0.19
729	0.19
730	0.19
730	0.19
730	0.191
731	0.191
731	0.192
732	0.192
732	0.192
733	0.192
733	0.193
734	0.193
734	0.193
734	0.193
735	0.193
735	0.192
736	0.192
736	0.192
737	0.191
737	0.191
737	0.191
738	0.19
738	0.189
739	0.189
739	0.189
740	0.189
740	0.189
741	0.189
741	0.19
741	0.19
742	0.19
742	0.191
743	0.191
743	0.192
744	0.192
744	0.192
744	0.192
745	0.192
745	0.192
746	0.192
746	0.192
747	0.192
747	0.192
748	0.193
748	0.193
748	0.193
749	0.194
749	0.194
750	0.195
750	0.195
751	0.195
751	0.196
751	0.196
752	0.196
752	0.195
753	0.195
753	0.195
754	0.194
754	0.194
754	0.194
755	0.194
755	0.193
756	0.193
756	0.192
757	0.191
757	0.191
758	0.191
758	0.191
758	0.191
759	0.191
759	0.191
760	0.191
760	0.191
761	0.191
761	0.192
761	0.193
762	0.193
762	0.194
763	0.194
763	0.194
764	0.194
764	0.194
764	0.194
765	0.194
765	0.195
766	0.195
766	0.195
767	0.195
767	0.194
768	0.194
768	0.194
768	0.194
769	0.193
769	0.193
770	0.193
770	0.193
771	0.193
771	0.193
771	0.193
772	0.193
772	0.194
773	0.194
773	0.194
774	0.194
774	0.195
775	0.195
775	0.195
775	0.195
776	0.195
776	0.195
777	0.195
777	0.195
778	0.195
778	0.195
778	0.194
779	0.194
779	0.193
780	0.192
780	0.192
781	0.192
781	0.191
781	0.191
782	0.191
782	0.19
783	0.19
783	0.19
784	0.19
784	0.19
784	0.191
785	0.191
785	0.19
786	0.19
786	0.19
787	0.191
787	0.191
788	0.191
788	0.191
788	0.19
789	0.19
789	0.19
790	0.19
790	0.19
791	0.19
791	0.19
791	0.19
792	0.191
792	0.191
793	0.191
793	0.191
794	0.191
794	0.191
794	0.191
795	0.191
795	0.191
796	0.191
796	0.191
797	0.19
797	0.19
797	0.19
798	0.19
798	0.19
799	0.19
799	0.189
800	0.189
800	0.188
801	0.187
801	0.187
801	0.187
802	0.187
802	0.186
803	0.186
803	0.186
804	0.187
804	0.187
804	0.187
805	0.188
805	0.188
806	0.188
806	0.188
807	0.188
807	0.188
807	0.188
808	0.188
808	0.187
809	0.187
809	0.187
810	0.187
810	0.187
810	0.186
811	0.186
811	0.187
812	0.187
812	0.187
813	0.188
813	0.188
813	0.188
814	0.188
814	0.188
815	0.188
815	0.188
816	0.188
816	0.187
817	0.186
817	0.185
817	0.185
818	0.184
818	0.184
819	0.184
819	0.183
820	0.182
820	0.182
820	0.182
821	0.182
821	0.182
822	0.182
822	0.182
823	0.182
823	0.182
823	0.183
824	0.183
824	0.185
825	0.186
825	0.186
826	0.187
826	0.186
826	0.187
827	0.187
827	0.186
828	0.186
828	0.185
829	0.184
829	0.184
829	0.183
830	0.183
830	0.183
831	0.183
831	0.183
832	0.183
832	0.184
832	0.183
833	0.183
833	0.183
834	0.183
834	0.182
835	0.182
835	0.181
835	0.18
836	0.18
836	0.18
837	0.179
837	0.179
838	0.178
838	0.178
839	0.177
839	0.177
839	0.176
840	0.175
840	0.174
841	0.173
841	0.171
842	0.171
842	0.17
842	0.169
843	0.169
843	0.169
844	0.168
844	0.168
845	0.168
845	0.168
845	0.169
846	0.169
846	0.169
847	0.169
847	0.17
848	0.169
848	0.169
848	0.169
849	0.169
849	0.168
850	0.168
850	0.168
851	0.167
851	0.167
851	0.166
852	0.165
852	0.165
853	0.164
853	0.164
854	0.163
854	0.164
854	0.164
855	0.165
855	0.165
856	0.166
856	0.167
857	0.167
857	0.168
857	0.168
858	0.168
858	0.167
859	0.167
859	0.166
860	0.165
860	0.164
860	0.163
861	0.162
861	0.16
862	0.159
862	0.158
863	0.157
863	0.157
863	0.156
864	0.156
864	0.155
865	0.155
865	0.155
866	0.155
866	0.154
866	0.155
867	0.155
867	0.155
868	0.155
868	0.155
869	0.154
869	0.154
869	0.153
870	0.152
870	0.152
871	0.151
871	0.151
872	0.15
872	0.15
872	0.149
873	0.149
873	0.148
874	0.148
874	0.148
875	0.147
875	0.147
875	0.147
876	0.146
876	0.146
877	0.146
877	0.146
878	0.146
878	0.146
878	0.147
879	0.148
879	0.148
880	0.149
880	0.149
881	0.149
881	0.15
881	0.15
882	0.149
882	0.149
883	0.149
883	0.149
884	0.148
884	0.148
884	0.147
885	0.147
885	0.146
886	0.145
886	0.144
887	0.143
887	0.143
887	0.142
888	0.141
888	0.14
889	0.139
889	0.139
890	0.138
890	0.138
890	0.138
891	0.137
891	0.137
892	0.137
892	0.137
893	0.137
893	0.138
893	0.138
894	0.138
894	0.137
895	0.137
895	0.137
895	0.137
896	0.136
896	0.136
897	0.136
897	0.135
898	0.134
898	0.134
898	0.133
899	0.133
899	0.132
900	0.132
900	0.132
901	0.132
901	0.132
901	0.132
902	0.131
902	0.131
903	0.131
903	0.131
904	0.131
904	0.131
904	0.13
905	0.13
905	0.13
906	0.13
906	0.13
907	0.131
907	0.131
907	0.131
908	0.131
908	0.132
909	0.132
909	0.132
910	0.131
910	0.131
910	0.131
911	0.13
911	0.13
912	0.129
912	0.129
913	0.129
913	0.129
913	0.128
914	0.128
914	0.127
915	0.127
915	0.127
916	0.127
916	0.126
916	0.126
917	0.125
917	0.125
918	0.124
918	0.124
918	0.123
919	0.123
919	0.122
920	0.122
920	0.121
921	0.121
921	0.12
921	0.119
922	0.119
922	0.118
923	0.118
923	0.117
924	0.117
924	0.117
924	0.117
925	0.117
925	0.117
926	0.117
926	0.117
927	0.117
927	0.117
927	0.117
928	0.117
928	0.117
929	0.118
929	0.118
930	0.118
930	0.118
930	0.119
931	0.119
931	0.119
932	0.119
932	0.119
933	0.119
933	0.119
933	0.119
934	0.118
934	0.117
935	0.117
935	0.116
935	0.116
936	0.115
936	0.114
937	0.114
937	0.113
938	0.113
938	0.113
938	0.112
939	0.112
939	0.111
940	0.111
940	0.111
941	0.111
941	0.111
941	0.111
942	0.111
942	0.111
943	0.111
943	0.111
944	0.111
944	0.111
944	0.112
945	0.112
945	0.112
946	0.113
946	0.113
946	0.113
947	0.113
947	0.113
948	0.113
948	0.113
949	0.113
949	0.113
949	0.112
950	0.112
950	0.111
951	0.111
951	0.11
952	0.109
952	0.108
952	0.107
953	0.106
953	0.105
954	0.104
954	0.103
955	0.102
955	0.102
955	0.101
956	0.101
956	0.101
957	0.101
957	0.101
957	0.101
958	0.101
958	0.101
959	0.101
959	0.101
960	0.101
960	0.101
960	0.101
961	0.101
961	0.101
962	0.1
962	0.1
963	0.1
963	0.099
963	0.099
964	0.099
964	0.099
965	0.1
965	0.1
966	0.101
966	0.101
966	0.102
967	0.102
967	0.103
968	0.104
968	0.104
968	0.105
969	0.105
969	0.105
970	0.105
970	0.105
971	0.105
971	0.105
971	0.104
972	0.104
972	0.104
973	0.103
973	0.103
974	0.103
974	0.103
974	0.103
975	0.103
975	0.103
976	0.103
976	0.103
976	0.102
977	0.102
977	0.102
978	0.102
978	0.102
979	0.102
979	0.102
979	0.102
980	0.102
980	0.102
981	0.102
981	0.102
982	0.102
982	0.101
982	0.101
983	0.101
983	0.1
984	0.1
984	0.099
984	0.098
985	0.098
985	0.097
986	0.096
986	0.096
987	0.095
987	0.095
987	0.094
988	0.093
988	0.093
989	0.092
989	0.092
990	0.091
990	0.091
990	0.09
991	0.09
991	0.089
992	0.089
992	0.088
992	0.088
993	0.087
993	0.087
994	0.086
994	0.086
995	0.086
995	0.086
995	0.086
996	0.086
996	0.086
997	0.087
997	0.088
997	0.088
998	0.089
998	0.09
999	0.091
999	0.091
1000	0.092
1000	0.093
1000	0.093
1001	0.093
1001	0.093
1002	0.093
1002	0.092
1003	0.091
1003	0.09
1003	0.089
1004	0.088
1004	0.087
1005	0.086
1005	0.085
1005	0.084
1006	0.083
1006	0.082
1007	0.082
1007	0.082
1008	0.082
1008	0.082
1008	0.082
1009	0.082
1009	0.082
1010	0.083
1010	0.083
1010	0.084
1011	0.084
1011	0.084
1012	0.084
1012	0.084
1013	0.085
1013	0.085
1013	0.084
1014	0.084
1014	0.084
1015	0.084
1015	0.084
1016	0.084
1016	0.084
1016	0.083
1017	0.083
1017	0.083
1018	0.082
1018	0.082
1018	0.082
1019	0.082
1019	0.082
1020	0.081
1020	0.081
1021	0.081
1021	0.081
1021	0.081
1022	0.081
1022	0.081
1023	0.081
1023	0.081
1023	0.081
1024	0.081
1024	0.08
1025	0.08
1025	0.08
1026	0.079
1026	0.079
1026	0.079
1027	0.078
1027	0.078
1028	0.078
1028	0.078
1028	0.078
1029	0.077
1029	0.077
1030	0.078
1030	0.078
1031	0.078
1031	0.079
1031	0.079
1032	0.079
1032	0.08
1033	0.08
1033	0.08
1033	0.08
1034	0.08
1034	0.08
1035	0.079
1035	0.079
1036	0.079
1036	0.079
1036	0.079
1037	0.078
1037	0.078
1038	0.078
1038	0.078
1039	0.078
1039	0.078
1039	0.079
1040	0.079
1040	0.079
1041	0.08
1041	0.08
1041	0.08
1042	0.081
1042	0.081
1043	0.081
1043	0.081
1044	0.082
1044	0.082
1044	0.082
1045	0.082
1045	0.082
1046	0.083
1046	0.083
1046	0.083
1047	0.084
1047	0.084
1048	0.085
1048	0.085
1049	0.086
1049	0.086
1049	0.086
1050	0.086
1050	0.086
1051	0.086
1051	0.086
1051	0.086
1052	0.085
1052	0.085
1053	0.084
1053	0.084
1053	0.083
1054	0.082
1054	0.082
1055	0.081
1055	0.081
1056	0.08
1056	0.079
1056	0.078
1057	0.077
1057	0.076
1058	0.075
1058	0.074
1058	0.073
1059	0.072
1059	0.072
1060	0.071
1060	0.07
1061	0.07
1061	0.07
1061	0.07
1062	0.069
1062	0.069
1063	0.069
1063	0.069
1063	0.068
1064	0.068
1064	0.068
1065	0.067
1065	0.067
1066	0.066
1066	0.066
1066	0.066
1067	0.065
1067	0.065
1068	0.065
1068	0.065
1068	0.064
1069	0.064
1069	0.064
1070	0.063
1070	0.063
1071	0.062
1071	0.062
1071	0.061
1072	0.06
1072	0.06
1073	0.059
1073	0.059
1073	0.059
1074	0.059
1074	0.059
1075	0.059
1075	0.059
1076	0.06
1076	0.06
1076	0.061
1077	0.061
1077	0.061
1078	0.061
1078	0.062
1078	0.062
1079	0.061
1079	0.061
1080	0.061
1080	0.061
1080	0.061
1081	0.061
1081	0.061
1082	0.062
1082	0.062
1083	0.062
1083	0.062
1083	0.063
1084	0.063
1084	0.063
1085	0.063
1085	0.063
1085	0.063
1086	0.063
1086	0.062
1087	0.062
1087	0.061
1088	0.061
1088	0.06
1088	0.06
1089	0.06
1089	0.059
1090	0.058
1090	0.057
1090	0.056
1091	0.055
1091	0.055
1092	0.055
1092	0.055
1092	0.055
1093	0.054
1093	0.055
1094	0.055
1094	0.055
1095	0.055
1095	0.054
1095	0.055
1096	0.054
1096	0.054
1097	0.053
1097	0.053
1097	0.053
1098	0.053
1098	0.052
1099	0.051
1099	0.05
1100	0.05
1100	0.049
1100	0.048
1101	0.048
1101	0.048
1102	0.047
1102	0.045
1102	0.044
1103	0.043
1103	0.043
1104	0.043
1104	0.043
1104	0.043
1105	0.043
1105	0.04
1106	0.039
1106	0.038
1107	0.038
1107	0.037
1107	0.037
1108	0.037
1108	0.036
1109	0.035
1109	0.033
1109	0.032
1110	0.034
1110	0.033
1111	0.034
1111	0.037
