Data from reversibility-20sec_Absorbance__1869__000000000001869.txt Node

Date: Tue Dec 05 22:36:05 CET 2023
User: Marek
Spectrometer: MAYP115816
Trigger mode: 0
Integration Time (sec): 2.000000E-1
Scans to average: 10
Electric dark correction enabled: true
Nonlinearity correction enabled: true
Boxcar width: 5
XAxis mode: Wavelengths
Number of Pixels in Spectrum: 2068
>>>>>Begin Spectral Data<<<<<
199	-0.184
199	-0.158
200	-0.081
200	-0.028
201	0.006
201	0.02
202	0.036
202	0.045
203	0.051
203	0.055
204	0.066
204	0.082
205	0.095
205	0.101
205	0.096
206	0.093
206	0.093
207	0.095
207	0.094
208	0.096
208	0.095
209	0.098
209	0.092
210	0.092
210	0.091
211	0.094
211	0.096
212	0.094
212	0.095
213	0.097
213	0.094
213	0.094
214	0.099
214	0.1
215	0.104
215	0.103
216	0.105
216	0.106
217	0.109
217	0.109
218	0.107
218	0.11
219	0.115
219	0.112
220	0.116
220	0.113
221	0.114
221	0.114
221	0.118
222	0.124
222	0.127
223	0.134
223	0.137
224	0.14
224	0.148
225	0.156
225	0.166
226	0.176
226	0.188
227	0.197
227	0.205
228	0.221
228	0.236
229	0.255
229	0.28
229	0.301
230	0.327
230	0.356
231	0.389
231	0.428
232	0.465
232	0.511
233	0.556
233	0.604
234	0.654
234	0.706
235	0.759
235	0.81
236	0.861
236	0.914
236	0.968
237	1.021
237	1.069
238	1.119
238	1.168
239	1.219
239	1.262
240	1.307
240	1.348
241	1.39
241	1.427
242	1.462
242	1.5
243	1.533
243	1.562
243	1.592
244	1.615
244	1.644
245	1.665
245	1.691
246	1.713
246	1.734
247	1.746
247	1.763
248	1.781
248	1.797
249	1.807
249	1.818
250	1.826
250	1.837
250	1.844
251	1.848
251	1.853
252	1.863
252	1.864
253	1.866
253	1.864
254	1.865
254	1.869
255	1.869
255	1.87
256	1.872
256	1.873
257	1.872
257	1.871
258	1.872
258	1.873
258	1.875
259	1.879
259	1.878
260	1.879
260	1.883
261	1.885
261	1.891
262	1.897
262	1.9
263	1.908
263	1.911
264	1.916
264	1.919
265	1.922
265	1.926
265	1.926
266	1.928
266	1.93
267	1.93
267	1.933
268	1.933
268	1.936
269	1.94
269	1.941
270	1.942
270	1.942
271	1.94
271	1.94
272	1.938
272	1.935
272	1.931
273	1.921
273	1.912
274	1.902
274	1.894
275	1.885
275	1.879
276	1.871
276	1.864
277	1.855
277	1.845
278	1.833
278	1.822
278	1.807
279	1.788
279	1.76
280	1.726
280	1.685
281	1.639
281	1.587
282	1.535
282	1.483
283	1.434
283	1.387
284	1.342
284	1.3
285	1.261
285	1.227
285	1.197
286	1.169
286	1.147
287	1.127
287	1.111
288	1.096
288	1.084
289	1.074
289	1.065
290	1.058
290	1.052
291	1.046
291	1.041
292	1.037
292	1.033
292	1.03
293	1.027
293	1.023
294	1.02
294	1.018
295	1.015
295	1.012
296	1.01
296	1.007
297	1.004
297	1.001
298	0.998
298	0.996
298	0.994
299	0.992
299	0.989
300	0.987
300	0.985
301	0.982
301	0.981
302	0.979
302	0.977
303	0.975
303	0.972
304	0.971
304	0.968
305	0.966
305	0.964
305	0.962
306	0.96
306	0.957
307	0.955
307	0.953
308	0.95
308	0.948
309	0.945
309	0.943
310	0.94
310	0.938
311	0.935
311	0.932
311	0.929
312	0.926
312	0.922
313	0.919
313	0.915
314	0.911
314	0.907
315	0.903
315	0.899
316	0.895
316	0.89
317	0.886
317	0.881
318	0.876
318	0.871
318	0.866
319	0.86
319	0.855
320	0.849
320	0.843
321	0.837
321	0.831
322	0.825
322	0.818
323	0.812
323	0.805
324	0.799
324	0.792
324	0.786
325	0.779
325	0.772
326	0.765
326	0.758
327	0.751
327	0.744
328	0.737
328	0.731
329	0.723
329	0.716
330	0.709
330	0.702
330	0.695
331	0.688
331	0.681
332	0.673
332	0.666
333	0.659
333	0.652
334	0.645
334	0.637
335	0.631
335	0.624
336	0.617
336	0.61
336	0.604
337	0.597
337	0.591
338	0.585
338	0.578
339	0.572
339	0.566
340	0.56
340	0.554
341	0.549
341	0.543
342	0.537
342	0.531
342	0.526
343	0.521
343	0.516
344	0.51
344	0.506
345	0.501
345	0.496
346	0.491
346	0.487
347	0.483
347	0.478
348	0.474
348	0.47
348	0.466
349	0.462
349	0.459
350	0.455
350	0.452
351	0.448
351	0.445
352	0.441
352	0.438
353	0.435
353	0.432
354	0.429
354	0.426
354	0.423
355	0.421
355	0.418
356	0.415
356	0.413
357	0.41
357	0.407
358	0.405
358	0.402
359	0.4
359	0.397
360	0.395
360	0.393
360	0.391
361	0.388
361	0.386
362	0.384
362	0.382
363	0.381
363	0.379
364	0.377
364	0.375
365	0.373
365	0.371
366	0.369
366	0.368
366	0.366
367	0.365
367	0.363
368	0.361
368	0.359
369	0.358
369	0.356
370	0.355
370	0.353
371	0.352
371	0.351
372	0.349
372	0.348
372	0.347
373	0.346
373	0.345
374	0.344
374	0.343
375	0.342
375	0.341
376	0.34
376	0.339
377	0.338
377	0.337
378	0.336
378	0.335
378	0.334
379	0.333
379	0.332
380	0.331
380	0.331
381	0.33
381	0.329
382	0.329
382	0.328
383	0.327
383	0.327
383	0.326
384	0.325
384	0.325
385	0.324
385	0.324
386	0.323
386	0.323
387	0.322
387	0.321
388	0.321
388	0.32
389	0.32
389	0.319
389	0.319
390	0.319
390	0.318
391	0.318
391	0.318
392	0.317
392	0.317
393	0.316
393	0.316
394	0.316
394	0.315
394	0.314
395	0.314
395	0.313
396	0.313
396	0.312
397	0.312
397	0.311
398	0.311
398	0.31
399	0.31
399	0.309
400	0.309
400	0.309
400	0.308
401	0.308
401	0.308
402	0.308
402	0.307
403	0.307
403	0.307
404	0.307
404	0.306
405	0.306
405	0.306
405	0.305
406	0.305
406	0.305
407	0.304
407	0.304
408	0.303
408	0.303
409	0.303
409	0.302
410	0.302
410	0.302
411	0.302
411	0.301
411	0.301
412	0.301
412	0.3
413	0.3
413	0.299
414	0.299
414	0.299
415	0.299
415	0.298
416	0.298
416	0.297
416	0.297
417	0.296
417	0.296
418	0.296
418	0.296
419	0.295
419	0.295
420	0.294
420	0.294
421	0.293
421	0.293
421	0.293
422	0.293
422	0.292
423	0.292
423	0.291
424	0.291
424	0.291
425	0.291
425	0.29
426	0.29
426	0.29
427	0.289
427	0.289
427	0.289
428	0.288
428	0.288
429	0.288
429	0.287
430	0.287
430	0.287
431	0.286
431	0.286
432	0.286
432	0.286
432	0.285
433	0.285
433	0.285
434	0.285
434	0.285
435	0.284
435	0.284
436	0.284
436	0.284
437	0.283
437	0.283
437	0.283
438	0.283
438	0.282
439	0.282
439	0.282
440	0.282
440	0.282
441	0.281
441	0.281
442	0.281
442	0.281
442	0.281
443	0.28
443	0.28
444	0.28
444	0.28
445	0.279
445	0.279
446	0.279
446	0.278
447	0.278
447	0.278
447	0.278
448	0.277
448	0.277
449	0.277
449	0.277
450	0.277
450	0.277
451	0.276
451	0.276
452	0.276
452	0.276
452	0.276
453	0.276
453	0.275
454	0.275
454	0.275
455	0.275
455	0.274
456	0.274
456	0.274
457	0.273
457	0.273
458	0.273
458	0.272
458	0.272
459	0.272
459	0.272
460	0.271
460	0.271
461	0.271
461	0.271
462	0.271
462	0.27
463	0.27
463	0.27
463	0.27
464	0.269
464	0.269
465	0.269
465	0.268
466	0.268
466	0.268
467	0.268
467	0.268
467	0.268
468	0.267
468	0.267
469	0.267
469	0.267
470	0.267
470	0.267
471	0.267
471	0.267
472	0.267
472	0.267
472	0.267
473	0.267
473	0.267
474	0.267
474	0.266
475	0.266
475	0.266
476	0.266
476	0.266
477	0.266
477	0.266
477	0.266
478	0.266
478	0.266
479	0.266
479	0.267
480	0.266
480	0.267
481	0.267
481	0.267
482	0.267
482	0.267
482	0.267
483	0.267
483	0.268
484	0.268
484	0.268
485	0.268
485	0.268
486	0.267
486	0.267
487	0.268
487	0.268
487	0.268
488	0.269
488	0.269
489	0.269
489	0.27
490	0.271
490	0.271
491	0.272
491	0.273
492	0.273
492	0.273
492	0.273
493	0.274
493	0.274
494	0.275
494	0.275
495	0.275
495	0.276
496	0.276
496	0.277
496	0.277
497	0.277
497	0.278
498	0.278
498	0.278
499	0.279
499	0.279
500	0.28
500	0.281
501	0.282
501	0.282
501	0.282
502	0.283
502	0.283
503	0.283
503	0.284
504	0.284
504	0.284
505	0.285
505	0.285
506	0.285
506	0.286
506	0.287
507	0.287
507	0.287
508	0.288
508	0.289
509	0.289
509	0.29
510	0.29
510	0.291
511	0.291
511	0.292
511	0.293
512	0.293
512	0.294
513	0.294
513	0.294
514	0.295
514	0.296
515	0.296
515	0.296
515	0.297
516	0.297
516	0.298
517	0.298
517	0.298
518	0.299
518	0.299
519	0.299
519	0.299
520	0.299
520	0.299
520	0.299
521	0.299
521	0.299
522	0.3
522	0.3
523	0.301
523	0.301
524	0.301
524	0.302
524	0.302
525	0.303
525	0.303
526	0.303
526	0.303
527	0.303
527	0.304
528	0.303
528	0.303
529	0.303
529	0.303
529	0.303
530	0.302
530	0.302
531	0.302
531	0.302
532	0.301
532	0.301
533	0.301
533	0.301
533	0.302
534	0.301
534	0.301
535	0.301
535	0.301
536	0.301
536	0.301
537	0.301
537	0.301
538	0.3
538	0.3
538	0.3
539	0.299
539	0.299
540	0.299
540	0.298
541	0.298
541	0.297
542	0.297
542	0.297
542	0.297
543	0.296
543	0.296
544	0.296
544	0.295
545	0.295
545	0.295
546	0.295
546	0.294
547	0.293
547	0.293
547	0.293
548	0.292
548	0.292
549	0.291
549	0.291
550	0.29
550	0.29
551	0.289
551	0.289
551	0.289
552	0.288
552	0.288
553	0.287
553	0.287
554	0.286
554	0.286
555	0.285
555	0.284
556	0.284
556	0.283
556	0.283
557	0.283
557	0.283
558	0.283
558	0.282
559	0.282
559	0.282
560	0.282
560	0.281
560	0.281
561	0.281
561	0.281
562	0.28
562	0.279
563	0.278
563	0.277
564	0.277
564	0.276
564	0.276
565	0.276
565	0.275
566	0.275
566	0.274
567	0.274
567	0.274
568	0.274
568	0.274
568	0.274
569	0.274
569	0.273
570	0.273
570	0.272
571	0.272
571	0.271
572	0.271
572	0.27
573	0.27
573	0.269
573	0.268
574	0.267
574	0.267
575	0.267
575	0.267
576	0.266
576	0.265
577	0.264
577	0.264
577	0.263
578	0.263
578	0.263
579	0.263
579	0.263
580	0.262
580	0.261
581	0.26
581	0.26
581	0.26
582	0.26
582	0.26
583	0.26
583	0.26
584	0.259
584	0.258
585	0.258
585	0.258
585	0.257
586	0.257
586	0.256
587	0.255
587	0.254
588	0.254
588	0.253
589	0.253
589	0.253
590	0.252
590	0.252
590	0.253
591	0.253
591	0.253
592	0.252
592	0.252
593	0.251
593	0.251
594	0.251
594	0.25
594	0.249
595	0.249
595	0.248
596	0.247
596	0.247
597	0.248
597	0.248
598	0.248
598	0.248
598	0.247
599	0.247
599	0.247
600	0.246
600	0.246
601	0.245
601	0.245
602	0.244
602	0.244
602	0.243
603	0.243
603	0.243
604	0.243
604	0.243
605	0.243
605	0.243
606	0.243
606	0.242
606	0.242
607	0.241
607	0.241
608	0.241
608	0.24
609	0.239
609	0.239
610	0.238
610	0.238
610	0.238
611	0.238
611	0.238
612	0.238
612	0.238
613	0.239
613	0.238
614	0.238
614	0.238
614	0.238
615	0.237
615	0.237
616	0.237
616	0.237
617	0.236
617	0.236
618	0.236
618	0.236
618	0.236
619	0.236
619	0.236
620	0.236
620	0.236
621	0.235
621	0.235
622	0.234
622	0.234
622	0.233
623	0.233
623	0.233
624	0.232
624	0.232
625	0.231
625	0.231
626	0.231
626	0.231
626	0.231
627	0.231
627	0.23
628	0.23
628	0.23
629	0.229
629	0.229
630	0.228
630	0.228
630	0.228
631	0.228
631	0.228
632	0.228
632	0.228
633	0.228
633	0.229
634	0.229
634	0.23
634	0.23
635	0.229
635	0.229
636	0.229
636	0.229
637	0.229
637	0.228
638	0.227
638	0.227
638	0.227
639	0.226
639	0.225
640	0.225
640	0.225
641	0.225
641	0.225
642	0.224
642	0.224
642	0.224
643	0.224
643	0.224
644	0.224
644	0.225
645	0.224
645	0.225
646	0.225
646	0.225
646	0.225
647	0.225
647	0.225
648	0.224
648	0.224
649	0.224
649	0.224
650	0.224
650	0.224
650	0.224
651	0.224
651	0.223
652	0.223
652	0.223
653	0.224
653	0.225
653	0.233
654	0.181
654	0.144
655	0.145
655	0.146
656	0.146
656	0.146
657	0.146
657	0.147
657	0.147
658	0.145
658	0.133
659	0.169
659	0.219
660	0.223
660	0.223
661	0.223
661	0.222
661	0.222
662	0.222
662	0.221
663	0.221
663	0.221
664	0.22
664	0.22
665	0.22
665	0.219
665	0.22
666	0.22
666	0.22
667	0.22
667	0.22
668	0.22
668	0.22
669	0.221
669	0.221
669	0.221
670	0.222
670	0.221
671	0.221
671	0.221
672	0.221
672	0.22
672	0.22
673	0.22
673	0.22
674	0.22
674	0.219
675	0.219
675	0.219
676	0.22
676	0.22
676	0.22
677	0.22
677	0.22
678	0.22
678	0.22
679	0.22
679	0.22
680	0.22
680	0.22
680	0.22
681	0.22
681	0.221
682	0.221
682	0.222
683	0.223
683	0.224
684	0.225
684	0.225
684	0.225
685	0.225
685	0.226
686	0.226
686	0.225
687	0.225
687	0.225
687	0.225
688	0.224
688	0.224
689	0.224
689	0.225
690	0.224
690	0.224
691	0.224
691	0.224
691	0.225
692	0.225
692	0.225
693	0.226
693	0.226
694	0.226
694	0.226
695	0.227
695	0.229
695	0.229
696	0.229
696	0.228
697	0.228
697	0.228
698	0.228
698	0.227
698	0.227
699	0.228
699	0.227
700	0.227
700	0.227
701	0.227
701	0.228
702	0.228
702	0.228
702	0.228
703	0.228
703	0.228
704	0.228
704	0.228
705	0.227
705	0.227
705	0.227
706	0.227
706	0.227
707	0.227
707	0.227
708	0.227
708	0.228
709	0.228
709	0.227
709	0.227
710	0.227
710	0.227
711	0.228
711	0.228
712	0.228
712	0.228
713	0.228
713	0.228
713	0.228
714	0.228
714	0.229
715	0.229
715	0.229
716	0.228
716	0.228
716	0.228
717	0.228
717	0.227
718	0.227
718	0.226
719	0.227
719	0.227
720	0.228
720	0.228
720	0.229
721	0.23
721	0.231
722	0.232
722	0.232
723	0.233
723	0.233
723	0.233
724	0.233
724	0.233
725	0.232
725	0.231
726	0.231
726	0.23
727	0.229
727	0.229
727	0.229
728	0.228
728	0.228
729	0.229
729	0.229
730	0.229
730	0.229
730	0.23
731	0.23
731	0.231
732	0.231
732	0.231
733	0.231
733	0.231
734	0.23
734	0.23
734	0.23
735	0.23
735	0.23
736	0.229
736	0.229
737	0.229
737	0.23
737	0.23
738	0.229
738	0.229
739	0.229
739	0.229
740	0.229
740	0.229
741	0.229
741	0.229
741	0.229
742	0.229
742	0.229
743	0.23
743	0.23
744	0.231
744	0.231
744	0.232
745	0.232
745	0.232
746	0.233
746	0.233
747	0.234
747	0.234
748	0.234
748	0.235
748	0.234
749	0.234
749	0.234
750	0.234
750	0.234
751	0.233
751	0.233
751	0.233
752	0.233
752	0.232
753	0.232
753	0.232
754	0.232
754	0.232
754	0.232
755	0.232
755	0.232
756	0.232
756	0.231
757	0.23
757	0.23
758	0.229
758	0.229
758	0.229
759	0.229
759	0.228
760	0.228
760	0.228
761	0.228
761	0.229
761	0.23
762	0.231
762	0.232
763	0.232
763	0.233
764	0.233
764	0.233
764	0.233
765	0.233
765	0.232
766	0.232
766	0.231
767	0.231
767	0.23
768	0.229
768	0.228
768	0.228
769	0.228
769	0.228
770	0.229
770	0.229
771	0.23
771	0.23
771	0.23
772	0.231
772	0.232
773	0.232
773	0.233
774	0.233
774	0.234
775	0.234
775	0.235
775	0.235
776	0.235
776	0.235
777	0.235
777	0.234
778	0.234
778	0.233
778	0.233
779	0.233
779	0.233
780	0.232
780	0.232
781	0.231
781	0.231
781	0.232
782	0.232
782	0.232
783	0.233
783	0.233
784	0.233
784	0.233
784	0.233
785	0.233
785	0.233
786	0.233
786	0.233
787	0.233
787	0.233
788	0.233
788	0.232
788	0.232
789	0.232
789	0.233
790	0.233
790	0.233
791	0.234
791	0.233
791	0.233
792	0.234
792	0.234
793	0.234
793	0.234
794	0.234
794	0.234
794	0.234
795	0.234
795	0.234
796	0.235
796	0.235
797	0.234
797	0.235
797	0.235
798	0.235
798	0.235
799	0.235
799	0.235
800	0.235
800	0.234
801	0.234
801	0.235
801	0.235
802	0.235
802	0.236
803	0.236
803	0.236
804	0.237
804	0.237
804	0.237
805	0.237
805	0.237
806	0.237
806	0.236
807	0.236
807	0.235
807	0.235
808	0.235
808	0.235
809	0.235
809	0.235
810	0.235
810	0.235
810	0.235
811	0.236
811	0.236
812	0.237
812	0.237
813	0.237
813	0.237
813	0.238
814	0.238
814	0.238
815	0.239
815	0.239
816	0.24
816	0.239
817	0.239
817	0.239
817	0.239
818	0.239
818	0.239
819	0.238
819	0.238
820	0.237
820	0.236
820	0.236
821	0.236
821	0.236
822	0.236
822	0.236
823	0.236
823	0.236
823	0.236
824	0.237
824	0.238
825	0.239
825	0.239
826	0.24
826	0.239
826	0.239
827	0.24
827	0.24
828	0.24
828	0.239
829	0.239
829	0.239
829	0.238
830	0.238
830	0.238
831	0.239
831	0.239
832	0.239
832	0.239
832	0.239
833	0.239
833	0.239
834	0.239
834	0.239
835	0.239
835	0.239
835	0.239
836	0.24
836	0.24
837	0.24
837	0.241
838	0.241
838	0.241
839	0.24
839	0.24
839	0.239
840	0.238
840	0.237
841	0.236
841	0.236
842	0.235
842	0.235
842	0.234
843	0.234
843	0.233
844	0.233
844	0.233
845	0.233
845	0.233
845	0.233
846	0.233
846	0.233
847	0.233
847	0.233
848	0.233
848	0.234
848	0.234
849	0.235
849	0.235
850	0.235
850	0.235
851	0.235
851	0.235
851	0.235
852	0.234
852	0.234
853	0.233
853	0.232
854	0.232
854	0.232
854	0.232
855	0.232
855	0.232
856	0.232
856	0.233
857	0.233
857	0.234
857	0.234
858	0.234
858	0.233
859	0.233
859	0.232
860	0.231
860	0.23
860	0.229
861	0.228
861	0.227
862	0.226
862	0.225
863	0.225
863	0.224
863	0.224
864	0.224
864	0.224
865	0.224
865	0.224
866	0.224
866	0.223
866	0.223
867	0.223
867	0.223
868	0.223
868	0.223
869	0.224
869	0.224
869	0.224
870	0.224
870	0.224
871	0.225
871	0.225
872	0.225
872	0.225
872	0.225
873	0.225
873	0.224
874	0.223
874	0.223
875	0.223
875	0.223
875	0.222
876	0.222
876	0.222
877	0.222
877	0.223
878	0.223
878	0.224
878	0.225
879	0.225
879	0.225
880	0.225
880	0.225
881	0.225
881	0.224
881	0.224
882	0.223
882	0.222
883	0.22
883	0.219
884	0.218
884	0.217
884	0.216
885	0.215
885	0.214
886	0.214
886	0.213
887	0.212
887	0.212
887	0.211
888	0.21
888	0.21
889	0.21
889	0.21
890	0.21
890	0.21
890	0.21
891	0.211
891	0.211
892	0.212
892	0.213
893	0.213
893	0.214
893	0.214
894	0.215
894	0.215
895	0.215
895	0.215
895	0.216
896	0.215
896	0.215
897	0.215
897	0.214
898	0.213
898	0.213
898	0.212
899	0.212
899	0.212
900	0.211
900	0.21
901	0.21
901	0.21
901	0.209
902	0.209
902	0.209
903	0.208
903	0.208
904	0.208
904	0.207
904	0.206
905	0.205
905	0.205
906	0.204
906	0.204
907	0.204
907	0.204
907	0.204
908	0.204
908	0.204
909	0.204
909	0.205
910	0.205
910	0.205
910	0.205
911	0.204
911	0.204
912	0.203
912	0.202
913	0.202
913	0.201
913	0.201
914	0.201
914	0.2
915	0.2
915	0.199
916	0.199
916	0.198
916	0.198
917	0.197
917	0.196
918	0.195
918	0.194
918	0.193
919	0.192
919	0.191
920	0.191
920	0.19
921	0.19
921	0.19
921	0.19
922	0.19
922	0.19
923	0.19
923	0.19
924	0.19
924	0.19
924	0.19
925	0.19
925	0.19
926	0.19
926	0.189
927	0.189
927	0.188
927	0.187
928	0.187
928	0.186
929	0.186
929	0.186
930	0.185
930	0.185
930	0.185
931	0.184
931	0.184
932	0.184
932	0.184
933	0.184
933	0.183
933	0.183
934	0.182
934	0.182
935	0.181
935	0.18
935	0.18
936	0.179
936	0.179
937	0.179
937	0.178
938	0.178
938	0.178
938	0.177
939	0.177
939	0.177
940	0.177
940	0.177
941	0.177
941	0.177
941	0.178
942	0.178
942	0.178
943	0.177
943	0.177
944	0.177
944	0.177
944	0.177
945	0.177
945	0.177
946	0.177
946	0.177
946	0.177
947	0.177
947	0.178
948	0.178
948	0.178
949	0.177
949	0.177
949	0.176
950	0.176
950	0.175
951	0.174
951	0.173
952	0.172
952	0.172
952	0.171
953	0.17
953	0.169
954	0.169
954	0.168
955	0.168
955	0.167
955	0.167
956	0.167
956	0.168
957	0.168
957	0.168
957	0.168
958	0.168
958	0.168
959	0.168
959	0.168
960	0.167
960	0.167
960	0.166
961	0.165
961	0.165
962	0.164
962	0.163
963	0.163
963	0.162
963	0.162
964	0.162
964	0.161
965	0.161
965	0.161
966	0.161
966	0.161
966	0.161
967	0.161
967	0.161
968	0.161
968	0.161
968	0.16
969	0.16
969	0.16
970	0.159
970	0.159
971	0.159
971	0.159
971	0.158
972	0.158
972	0.158
973	0.158
973	0.158
974	0.158
974	0.158
974	0.158
975	0.157
975	0.157
976	0.157
976	0.158
976	0.157
977	0.157
977	0.157
978	0.157
978	0.157
979	0.157
979	0.156
979	0.156
980	0.156
980	0.155
981	0.154
981	0.153
982	0.152
982	0.152
982	0.151
983	0.15
983	0.149
984	0.148
984	0.147
984	0.146
985	0.145
985	0.144
986	0.143
986	0.142
987	0.141
987	0.14
987	0.139
988	0.138
988	0.137
989	0.136
989	0.136
990	0.135
990	0.135
990	0.134
991	0.134
991	0.134
992	0.134
992	0.133
992	0.133
993	0.133
993	0.133
994	0.133
994	0.133
995	0.132
995	0.132
995	0.132
996	0.132
996	0.132
997	0.132
997	0.133
997	0.133
998	0.133
998	0.133
999	0.134
999	0.134
1000	0.135
1000	0.136
1000	0.136
1001	0.137
1001	0.138
1002	0.138
1002	0.138
1003	0.138
1003	0.138
1003	0.137
1004	0.137
1004	0.137
1005	0.136
1005	0.136
1005	0.135
1006	0.134
1006	0.134
1007	0.133
1007	0.133
1008	0.133
1008	0.133
1008	0.132
1009	0.132
1009	0.132
1010	0.132
1010	0.132
1010	0.132
1011	0.131
1011	0.131
1012	0.131
1012	0.131
1013	0.131
1013	0.131
1013	0.13
1014	0.13
1014	0.13
1015	0.13
1015	0.13
1016	0.129
1016	0.129
1016	0.128
1017	0.128
1017	0.127
1018	0.127
1018	0.126
1018	0.126
1019	0.125
1019	0.125
1020	0.124
1020	0.124
1021	0.123
1021	0.123
1021	0.123
1022	0.123
1022	0.122
1023	0.122
1023	0.122
1023	0.122
1024	0.121
1024	0.121
1025	0.121
1025	0.121
1026	0.12
1026	0.119
1026	0.119
1027	0.119
1027	0.118
1028	0.118
1028	0.117
1028	0.117
1029	0.117
1029	0.117
1030	0.117
1030	0.117
1031	0.117
1031	0.117
1031	0.117
1032	0.117
1032	0.117
1033	0.117
1033	0.117
1033	0.117
1034	0.116
1034	0.116
1035	0.116
1035	0.116
1036	0.115
1036	0.115
1036	0.116
1037	0.115
1037	0.115
1038	0.115
1038	0.115
1039	0.115
1039	0.115
1039	0.115
1040	0.115
1040	0.115
1041	0.115
1041	0.115
1041	0.114
1042	0.114
1042	0.113
1043	0.113
1043	0.112
1044	0.112
1044	0.112
1044	0.112
1045	0.112
1045	0.112
1046	0.112
1046	0.112
1046	0.113
1047	0.113
1047	0.114
1048	0.114
1048	0.115
1049	0.115
1049	0.115
1049	0.115
1050	0.115
1050	0.114
1051	0.113
1051	0.112
1051	0.112
1052	0.111
1052	0.11
1053	0.109
1053	0.108
1053	0.107
1054	0.106
1054	0.106
1055	0.106
1055	0.106
1056	0.105
1056	0.105
1056	0.104
1057	0.103
1057	0.103
1058	0.102
1058	0.101
1058	0.1
1059	0.099
1059	0.098
1060	0.097
1060	0.096
1061	0.095
1061	0.095
1061	0.094
1062	0.094
1062	0.094
1063	0.094
1063	0.093
1063	0.093
1064	0.093
1064	0.093
1065	0.093
1065	0.093
1066	0.094
1066	0.094
1066	0.094
1067	0.094
1067	0.094
1068	0.094
1068	0.093
1068	0.093
1069	0.093
1069	0.092
1070	0.091
1070	0.09
1071	0.089
1071	0.089
1071	0.088
1072	0.087
1072	0.087
1073	0.086
1073	0.086
1073	0.085
1074	0.086
1074	0.086
1075	0.086
1075	0.086
1076	0.086
1076	0.087
1076	0.087
1077	0.087
1077	0.087
1078	0.087
1078	0.087
1078	0.087
1079	0.086
1079	0.086
1080	0.085
1080	0.085
1080	0.085
1081	0.085
1081	0.085
1082	0.085
1082	0.086
1083	0.085
1083	0.085
1083	0.085
1084	0.085
1084	0.085
1085	0.084
1085	0.083
1085	0.082
1086	0.082
1086	0.081
1087	0.08
1087	0.079
1088	0.079
1088	0.078
1088	0.078
1089	0.077
1089	0.077
1090	0.076
1090	0.076
1090	0.075
1091	0.074
1091	0.074
1092	0.074
1092	0.074
1092	0.074
1093	0.073
1093	0.074
1094	0.074
1094	0.075
1095	0.074
1095	0.074
1095	0.074
1096	0.073
1096	0.072
1097	0.071
1097	0.07
1097	0.069
1098	0.068
1098	0.066
1099	0.064
1099	0.063
1100	0.062
1100	0.06
1100	0.059
1101	0.058
1101	0.057
1102	0.056
1102	0.055
1102	0.053
1103	0.053
1103	0.052
1104	0.052
1104	0.051
1104	0.051
1105	0.05
1105	0.047
1106	0.046
1106	0.044
1107	0.043
1107	0.043
1107	0.042
1108	0.041
1108	0.039
1109	0.037
1109	0.036
1109	0.035
1110	0.039
1110	0.037
1111	0.039
1111	0.039
