Data from reversibility-20sec_Absorbance__5219__000000000005219.txt Node

Date: Wed Dec 06 17:12:46 CET 2023
User: Marek
Spectrometer: MAYP115816
Trigger mode: 0
Integration Time (sec): 2.000000E-1
Scans to average: 10
Electric dark correction enabled: true
Nonlinearity correction enabled: true
Boxcar width: 5
XAxis mode: Wavelengths
Number of Pixels in Spectrum: 2068
>>>>>Begin Spectral Data<<<<<
199	-0.21
199	-0.182
200	-0.111
200	-0.057
201	-0.027
201	-0.012
202	-0
202	0.006
203	0.013
203	0.016
204	0.03
204	0.043
205	0.054
205	0.058
205	0.054
206	0.053
206	0.053
207	0.056
207	0.055
208	0.054
208	0.054
209	0.057
209	0.054
210	0.055
210	0.057
211	0.058
211	0.061
212	0.058
212	0.061
213	0.066
213	0.067
213	0.069
214	0.071
214	0.074
215	0.076
215	0.075
216	0.074
216	0.075
217	0.082
217	0.08
218	0.078
218	0.081
219	0.085
219	0.085
220	0.086
220	0.085
221	0.085
221	0.09
221	0.094
222	0.096
222	0.099
223	0.107
223	0.111
224	0.115
224	0.124
225	0.132
225	0.143
226	0.152
226	0.164
227	0.173
227	0.184
228	0.199
228	0.213
229	0.232
229	0.256
229	0.278
230	0.304
230	0.334
231	0.365
231	0.402
232	0.441
232	0.483
233	0.528
233	0.576
234	0.623
234	0.676
235	0.727
235	0.779
236	0.829
236	0.881
236	0.932
237	0.984
237	1.033
238	1.079
238	1.126
239	1.175
239	1.215
240	1.255
240	1.29
241	1.329
241	1.366
242	1.399
242	1.431
243	1.461
243	1.487
243	1.512
244	1.532
244	1.555
245	1.574
245	1.598
246	1.617
246	1.633
247	1.647
247	1.662
248	1.677
248	1.692
249	1.702
249	1.712
250	1.72
250	1.731
250	1.736
251	1.74
251	1.745
252	1.751
252	1.753
253	1.757
253	1.757
254	1.757
254	1.76
255	1.759
255	1.759
256	1.76
256	1.759
257	1.759
257	1.758
258	1.756
258	1.756
258	1.755
259	1.755
259	1.755
260	1.754
260	1.755
261	1.754
261	1.757
262	1.759
262	1.76
263	1.765
263	1.766
264	1.765
264	1.767
265	1.768
265	1.769
265	1.77
266	1.771
266	1.77
267	1.768
267	1.768
268	1.767
268	1.766
269	1.769
269	1.767
270	1.765
270	1.764
271	1.761
271	1.762
272	1.76
272	1.76
272	1.756
273	1.752
273	1.749
274	1.745
274	1.742
275	1.737
275	1.731
276	1.725
276	1.718
277	1.71
277	1.701
278	1.691
278	1.68
278	1.667
279	1.653
279	1.638
280	1.619
280	1.596
281	1.568
281	1.536
282	1.502
282	1.468
283	1.432
283	1.397
284	1.362
284	1.328
285	1.294
285	1.263
285	1.235
286	1.21
286	1.189
287	1.169
287	1.152
288	1.137
288	1.125
289	1.113
289	1.103
290	1.095
290	1.087
291	1.08
291	1.075
292	1.069
292	1.064
292	1.059
293	1.055
293	1.051
294	1.047
294	1.043
295	1.04
295	1.037
296	1.033
296	1.03
297	1.027
297	1.023
298	1.02
298	1.017
298	1.014
299	1.011
299	1.008
300	1.004
300	1.001
301	0.998
301	0.995
302	0.992
302	0.989
303	0.986
303	0.983
304	0.981
304	0.978
305	0.975
305	0.973
305	0.97
306	0.968
306	0.965
307	0.962
307	0.959
308	0.956
308	0.953
309	0.95
309	0.947
310	0.944
310	0.941
311	0.938
311	0.934
311	0.931
312	0.927
312	0.924
313	0.92
313	0.916
314	0.912
314	0.908
315	0.903
315	0.899
316	0.894
316	0.89
317	0.885
317	0.88
318	0.875
318	0.87
318	0.865
319	0.859
319	0.854
320	0.849
320	0.843
321	0.837
321	0.831
322	0.826
322	0.82
323	0.813
323	0.807
324	0.801
324	0.794
324	0.787
325	0.781
325	0.774
326	0.767
326	0.761
327	0.754
327	0.747
328	0.74
328	0.733
329	0.726
329	0.719
330	0.712
330	0.705
330	0.698
331	0.692
331	0.685
332	0.678
332	0.671
333	0.664
333	0.657
334	0.65
334	0.644
335	0.637
335	0.631
336	0.624
336	0.618
336	0.611
337	0.605
337	0.599
338	0.592
338	0.587
339	0.581
339	0.575
340	0.569
340	0.564
341	0.558
341	0.552
342	0.547
342	0.541
342	0.536
343	0.531
343	0.526
344	0.521
344	0.517
345	0.512
345	0.507
346	0.503
346	0.498
347	0.494
347	0.49
348	0.486
348	0.482
348	0.478
349	0.474
349	0.471
350	0.467
350	0.464
351	0.46
351	0.457
352	0.454
352	0.451
353	0.448
353	0.445
354	0.442
354	0.439
354	0.436
355	0.433
355	0.43
356	0.427
356	0.424
357	0.421
357	0.418
358	0.415
358	0.413
359	0.41
359	0.408
360	0.406
360	0.404
360	0.402
361	0.4
361	0.398
362	0.396
362	0.394
363	0.392
363	0.39
364	0.388
364	0.386
365	0.385
365	0.383
366	0.381
366	0.379
366	0.377
367	0.375
367	0.373
368	0.371
368	0.37
369	0.368
369	0.367
370	0.365
370	0.364
371	0.362
371	0.361
372	0.36
372	0.358
372	0.357
373	0.356
373	0.355
374	0.354
374	0.352
375	0.351
375	0.35
376	0.349
376	0.348
377	0.347
377	0.346
378	0.345
378	0.344
378	0.343
379	0.342
379	0.342
380	0.341
380	0.34
381	0.339
381	0.338
382	0.337
382	0.337
383	0.336
383	0.335
383	0.334
384	0.333
384	0.333
385	0.332
385	0.332
386	0.331
386	0.33
387	0.33
387	0.329
388	0.328
388	0.328
389	0.327
389	0.327
389	0.326
390	0.325
390	0.325
391	0.324
391	0.324
392	0.323
392	0.323
393	0.322
393	0.322
394	0.321
394	0.321
394	0.321
395	0.32
395	0.32
396	0.319
396	0.319
397	0.318
397	0.318
398	0.317
398	0.317
399	0.316
399	0.316
400	0.316
400	0.315
400	0.315
401	0.314
401	0.314
402	0.313
402	0.313
403	0.312
403	0.312
404	0.311
404	0.311
405	0.311
405	0.311
405	0.31
406	0.31
406	0.309
407	0.309
407	0.309
408	0.308
408	0.308
409	0.308
409	0.307
410	0.307
410	0.307
411	0.306
411	0.306
411	0.306
412	0.305
412	0.305
413	0.305
413	0.304
414	0.304
414	0.303
415	0.303
415	0.302
416	0.302
416	0.301
416	0.301
417	0.301
417	0.301
418	0.3
418	0.3
419	0.299
419	0.299
420	0.299
420	0.298
421	0.298
421	0.298
421	0.297
422	0.297
422	0.297
423	0.296
423	0.296
424	0.296
424	0.295
425	0.295
425	0.295
426	0.294
426	0.294
427	0.294
427	0.293
427	0.293
428	0.293
428	0.292
429	0.292
429	0.292
430	0.291
430	0.291
431	0.291
431	0.291
432	0.291
432	0.291
432	0.291
433	0.29
433	0.29
434	0.29
434	0.29
435	0.29
435	0.29
436	0.29
436	0.29
437	0.289
437	0.289
437	0.289
438	0.289
438	0.288
439	0.288
439	0.288
440	0.288
440	0.288
441	0.288
441	0.287
442	0.287
442	0.287
442	0.287
443	0.287
443	0.287
444	0.287
444	0.286
445	0.286
445	0.286
446	0.286
446	0.286
447	0.286
447	0.285
447	0.285
448	0.285
448	0.285
449	0.285
449	0.286
450	0.286
450	0.286
451	0.285
451	0.286
452	0.286
452	0.286
452	0.286
453	0.286
453	0.286
454	0.285
454	0.285
455	0.285
455	0.285
456	0.285
456	0.285
457	0.285
457	0.285
458	0.285
458	0.285
458	0.285
459	0.285
459	0.285
460	0.285
460	0.285
461	0.285
461	0.285
462	0.285
462	0.285
463	0.285
463	0.285
463	0.285
464	0.285
464	0.285
465	0.285
465	0.285
466	0.285
466	0.285
467	0.286
467	0.286
467	0.286
468	0.286
468	0.286
469	0.286
469	0.287
470	0.288
470	0.288
471	0.288
471	0.289
472	0.289
472	0.29
472	0.29
473	0.291
473	0.291
474	0.292
474	0.292
475	0.293
475	0.293
476	0.293
476	0.294
477	0.295
477	0.295
477	0.296
478	0.296
478	0.297
479	0.298
479	0.298
480	0.299
480	0.299
481	0.3
481	0.3
482	0.301
482	0.301
482	0.302
483	0.303
483	0.304
484	0.305
484	0.305
485	0.306
485	0.306
486	0.307
486	0.308
487	0.309
487	0.31
487	0.31
488	0.311
488	0.312
489	0.313
489	0.315
490	0.316
490	0.317
491	0.318
491	0.32
492	0.321
492	0.322
492	0.323
493	0.324
493	0.325
494	0.326
494	0.328
495	0.329
495	0.33
496	0.332
496	0.333
496	0.334
497	0.336
497	0.337
498	0.338
498	0.34
499	0.341
499	0.342
500	0.344
500	0.346
501	0.347
501	0.348
501	0.349
502	0.35
502	0.351
503	0.352
503	0.354
504	0.355
504	0.356
505	0.357
505	0.358
506	0.359
506	0.36
506	0.362
507	0.363
507	0.364
508	0.365
508	0.366
509	0.367
509	0.369
510	0.37
510	0.371
511	0.373
511	0.374
511	0.375
512	0.376
512	0.377
513	0.378
513	0.379
514	0.38
514	0.381
515	0.381
515	0.382
515	0.382
516	0.383
516	0.384
517	0.385
517	0.385
518	0.386
518	0.386
519	0.386
519	0.387
520	0.387
520	0.387
520	0.387
521	0.387
521	0.387
522	0.387
522	0.387
523	0.387
523	0.386
524	0.386
524	0.385
524	0.385
525	0.385
525	0.384
526	0.383
526	0.383
527	0.382
527	0.381
528	0.381
528	0.38
529	0.379
529	0.378
529	0.377
530	0.377
530	0.376
531	0.375
531	0.374
532	0.373
532	0.371
533	0.37
533	0.368
533	0.367
534	0.365
534	0.364
535	0.363
535	0.361
536	0.36
536	0.358
537	0.356
537	0.355
538	0.353
538	0.351
538	0.35
539	0.348
539	0.346
540	0.345
540	0.343
541	0.341
541	0.339
542	0.337
542	0.335
542	0.333
543	0.331
543	0.329
544	0.327
544	0.325
545	0.323
545	0.321
546	0.318
546	0.316
547	0.314
547	0.312
547	0.31
548	0.308
548	0.306
549	0.304
549	0.302
550	0.3
550	0.297
551	0.295
551	0.293
551	0.29
552	0.288
552	0.286
553	0.284
553	0.282
554	0.279
554	0.277
555	0.275
555	0.273
556	0.271
556	0.269
556	0.267
557	0.266
557	0.264
558	0.263
558	0.261
559	0.259
559	0.257
560	0.256
560	0.254
560	0.252
561	0.25
561	0.248
562	0.246
562	0.244
563	0.241
563	0.239
564	0.237
564	0.235
564	0.233
565	0.232
565	0.23
566	0.228
566	0.227
567	0.225
567	0.224
568	0.222
568	0.221
568	0.22
569	0.218
569	0.216
570	0.214
570	0.212
571	0.211
571	0.21
572	0.208
572	0.207
573	0.205
573	0.204
573	0.202
574	0.201
574	0.2
575	0.199
575	0.198
576	0.197
576	0.195
577	0.193
577	0.192
577	0.191
578	0.19
578	0.189
579	0.188
579	0.187
580	0.186
580	0.184
581	0.182
581	0.182
581	0.181
582	0.181
582	0.18
583	0.179
583	0.178
584	0.176
584	0.174
585	0.173
585	0.172
585	0.171
586	0.17
586	0.169
587	0.167
587	0.166
588	0.165
588	0.164
589	0.163
589	0.162
590	0.162
590	0.161
590	0.161
591	0.16
591	0.159
592	0.158
592	0.157
593	0.156
593	0.156
594	0.155
594	0.154
594	0.153
595	0.152
595	0.151
596	0.15
596	0.15
597	0.15
597	0.15
598	0.149
598	0.148
598	0.148
599	0.147
599	0.147
600	0.146
600	0.145
601	0.144
601	0.144
602	0.143
602	0.142
602	0.141
603	0.141
603	0.141
604	0.14
604	0.14
605	0.139
605	0.139
606	0.138
606	0.137
606	0.136
607	0.135
607	0.135
608	0.134
608	0.133
609	0.132
609	0.132
610	0.131
610	0.131
610	0.13
611	0.13
611	0.13
612	0.13
612	0.129
613	0.129
613	0.129
614	0.128
614	0.127
614	0.127
615	0.126
615	0.126
616	0.125
616	0.124
617	0.124
617	0.124
618	0.123
618	0.123
618	0.123
619	0.123
619	0.123
620	0.123
620	0.122
621	0.122
621	0.121
622	0.121
622	0.12
622	0.119
623	0.119
623	0.118
624	0.117
624	0.116
625	0.116
625	0.115
626	0.114
626	0.114
626	0.114
627	0.113
627	0.113
628	0.113
628	0.112
629	0.112
629	0.112
630	0.111
630	0.111
630	0.112
631	0.112
631	0.111
632	0.111
632	0.11
633	0.11
633	0.11
634	0.11
634	0.11
634	0.11
635	0.109
635	0.109
636	0.108
636	0.108
637	0.108
637	0.107
638	0.107
638	0.106
638	0.106
639	0.105
639	0.105
640	0.105
640	0.105
641	0.105
641	0.105
642	0.105
642	0.106
642	0.106
643	0.106
643	0.106
644	0.106
644	0.105
645	0.105
645	0.104
646	0.104
646	0.104
646	0.103
647	0.103
647	0.102
648	0.101
648	0.101
649	0.1
649	0.1
650	0.1
650	0.1
650	0.1
651	0.1
651	0.099
652	0.099
652	0.099
653	0.099
653	0.1
653	0.107
654	0.086
654	0.07
655	0.068
655	0.067
656	0.068
656	0.068
657	0.068
657	0.068
657	0.069
658	0.067
658	0.059
659	0.074
659	0.093
660	0.1
660	0.1
661	0.099
661	0.099
661	0.099
662	0.098
662	0.098
663	0.097
663	0.097
664	0.097
664	0.096
665	0.096
665	0.096
665	0.096
666	0.096
666	0.096
667	0.096
667	0.097
668	0.097
668	0.097
669	0.097
669	0.097
669	0.097
670	0.097
670	0.097
671	0.096
671	0.095
672	0.095
672	0.094
672	0.093
673	0.093
673	0.093
674	0.092
674	0.092
675	0.092
675	0.092
676	0.092
676	0.092
676	0.092
677	0.092
677	0.091
678	0.091
678	0.09
679	0.089
679	0.089
680	0.088
680	0.088
680	0.087
681	0.087
681	0.087
682	0.088
682	0.088
683	0.088
683	0.089
684	0.089
684	0.089
684	0.089
685	0.089
685	0.09
686	0.09
686	0.09
687	0.09
687	0.09
687	0.09
688	0.09
688	0.09
689	0.09
689	0.091
690	0.09
690	0.09
691	0.089
691	0.089
691	0.089
692	0.088
692	0.088
693	0.088
693	0.088
694	0.087
694	0.087
695	0.088
695	0.089
695	0.089
696	0.089
696	0.089
697	0.09
697	0.09
698	0.09
698	0.09
698	0.09
699	0.09
699	0.089
700	0.088
700	0.088
701	0.088
701	0.087
702	0.087
702	0.086
702	0.086
703	0.086
703	0.085
704	0.085
704	0.085
705	0.085
705	0.085
705	0.085
706	0.086
706	0.086
707	0.086
707	0.086
708	0.087
708	0.087
709	0.087
709	0.087
709	0.086
710	0.086
710	0.086
711	0.086
711	0.086
712	0.086
712	0.085
713	0.085
713	0.085
713	0.084
714	0.083
714	0.083
715	0.082
715	0.082
716	0.081
716	0.081
716	0.08
717	0.08
717	0.079
718	0.079
718	0.079
719	0.079
719	0.079
720	0.08
720	0.08
720	0.08
721	0.08
721	0.08
722	0.08
722	0.08
723	0.081
723	0.081
723	0.081
724	0.081
724	0.081
725	0.08
725	0.08
726	0.079
726	0.079
727	0.079
727	0.078
727	0.078
728	0.078
728	0.077
729	0.078
729	0.077
730	0.077
730	0.077
730	0.078
731	0.078
731	0.079
732	0.079
732	0.079
733	0.079
733	0.079
734	0.08
734	0.08
734	0.081
735	0.081
735	0.081
736	0.08
736	0.08
737	0.08
737	0.081
737	0.08
738	0.08
738	0.079
739	0.078
739	0.078
740	0.077
740	0.077
741	0.077
741	0.076
741	0.076
742	0.075
742	0.076
743	0.077
743	0.077
744	0.078
744	0.078
744	0.078
745	0.078
745	0.078
746	0.078
746	0.078
747	0.078
747	0.077
748	0.077
748	0.076
748	0.075
749	0.075
749	0.074
750	0.074
750	0.073
751	0.072
751	0.072
751	0.072
752	0.071
752	0.07
753	0.07
753	0.069
754	0.069
754	0.069
754	0.069
755	0.07
755	0.07
756	0.069
756	0.068
757	0.068
757	0.068
758	0.068
758	0.068
758	0.069
759	0.069
759	0.069
760	0.069
760	0.069
761	0.069
761	0.07
761	0.07
762	0.07
762	0.071
763	0.071
763	0.07
764	0.07
764	0.07
764	0.07
765	0.069
765	0.068
766	0.068
766	0.068
767	0.067
767	0.066
768	0.065
768	0.065
768	0.065
769	0.065
769	0.066
770	0.066
770	0.067
771	0.067
771	0.067
771	0.068
772	0.069
772	0.069
773	0.069
773	0.069
774	0.069
774	0.069
775	0.069
775	0.068
775	0.067
776	0.067
776	0.067
777	0.066
777	0.066
778	0.066
778	0.066
778	0.065
779	0.065
779	0.065
780	0.065
780	0.064
781	0.064
781	0.064
781	0.064
782	0.064
782	0.064
783	0.065
783	0.065
784	0.065
784	0.065
784	0.066
785	0.066
785	0.066
786	0.067
786	0.067
787	0.067
787	0.067
788	0.066
788	0.065
788	0.065
789	0.064
789	0.063
790	0.062
790	0.061
791	0.06
791	0.059
791	0.058
792	0.059
792	0.058
793	0.057
793	0.057
794	0.056
794	0.056
794	0.056
795	0.056
795	0.056
796	0.057
796	0.057
797	0.057
797	0.058
797	0.058
798	0.059
798	0.06
799	0.06
799	0.06
800	0.06
800	0.059
801	0.059
801	0.059
801	0.058
802	0.058
802	0.058
803	0.057
803	0.057
804	0.057
804	0.058
804	0.058
805	0.057
805	0.057
806	0.057
806	0.057
807	0.057
807	0.057
807	0.057
808	0.057
808	0.057
809	0.057
809	0.057
810	0.058
810	0.058
810	0.058
811	0.058
811	0.059
812	0.059
812	0.059
813	0.059
813	0.059
813	0.059
814	0.058
814	0.059
815	0.059
815	0.059
816	0.059
816	0.058
817	0.058
817	0.058
817	0.058
818	0.057
818	0.058
819	0.057
819	0.057
820	0.056
820	0.056
820	0.056
821	0.056
821	0.056
822	0.056
822	0.057
823	0.056
823	0.056
823	0.057
824	0.057
824	0.058
825	0.058
825	0.059
826	0.059
826	0.059
826	0.059
827	0.06
827	0.06
828	0.06
828	0.06
829	0.06
829	0.06
829	0.06
830	0.06
830	0.06
831	0.06
831	0.06
832	0.06
832	0.059
832	0.059
833	0.059
833	0.059
834	0.058
834	0.058
835	0.057
835	0.057
835	0.056
836	0.056
836	0.055
837	0.055
837	0.054
838	0.054
838	0.053
839	0.053
839	0.052
839	0.052
840	0.051
840	0.05
841	0.05
841	0.049
842	0.049
842	0.048
842	0.048
843	0.047
843	0.046
844	0.046
844	0.045
845	0.044
845	0.043
845	0.043
846	0.042
846	0.041
847	0.041
847	0.041
848	0.042
848	0.042
848	0.042
849	0.043
849	0.044
850	0.044
850	0.045
851	0.046
851	0.047
851	0.047
852	0.047
852	0.047
853	0.047
853	0.047
854	0.048
854	0.048
854	0.049
855	0.05
855	0.05
856	0.051
856	0.051
857	0.052
857	0.052
857	0.052
858	0.052
858	0.051
859	0.051
859	0.05
860	0.049
860	0.048
860	0.047
861	0.046
861	0.046
862	0.045
862	0.044
863	0.044
863	0.044
863	0.043
864	0.044
864	0.044
865	0.044
865	0.045
866	0.045
866	0.045
866	0.046
867	0.046
867	0.047
868	0.047
868	0.047
869	0.047
869	0.047
869	0.047
870	0.046
870	0.046
871	0.046
871	0.046
872	0.046
872	0.045
872	0.045
873	0.045
873	0.045
874	0.044
874	0.045
875	0.045
875	0.045
875	0.045
876	0.045
876	0.046
877	0.046
877	0.046
878	0.046
878	0.047
878	0.047
879	0.047
879	0.047
880	0.047
880	0.047
881	0.046
881	0.046
881	0.046
882	0.045
882	0.045
883	0.044
883	0.044
884	0.044
884	0.044
884	0.044
885	0.044
885	0.044
886	0.044
886	0.043
887	0.043
887	0.042
887	0.042
888	0.041
888	0.04
889	0.04
889	0.039
890	0.039
890	0.038
890	0.038
891	0.038
891	0.038
892	0.038
892	0.037
893	0.037
893	0.037
893	0.037
894	0.037
894	0.037
895	0.037
895	0.037
895	0.038
896	0.038
896	0.039
897	0.039
897	0.04
898	0.04
898	0.041
898	0.042
899	0.042
899	0.043
900	0.043
900	0.044
901	0.044
901	0.044
901	0.044
902	0.044
902	0.044
903	0.043
903	0.043
904	0.043
904	0.042
904	0.042
905	0.041
905	0.041
906	0.04
906	0.04
907	0.041
907	0.041
907	0.041
908	0.041
908	0.041
909	0.041
909	0.041
910	0.04
910	0.04
910	0.04
911	0.04
911	0.04
912	0.039
912	0.039
913	0.039
913	0.039
913	0.04
914	0.04
914	0.04
915	0.04
915	0.04
916	0.04
916	0.041
916	0.041
917	0.041
917	0.041
918	0.041
918	0.041
918	0.041
919	0.041
919	0.041
920	0.041
920	0.041
921	0.042
921	0.042
921	0.042
922	0.042
922	0.043
923	0.043
923	0.043
924	0.044
924	0.044
924	0.045
925	0.046
925	0.046
926	0.046
926	0.046
927	0.046
927	0.046
927	0.046
928	0.046
928	0.045
929	0.044
929	0.044
930	0.043
930	0.043
930	0.042
931	0.042
931	0.041
932	0.041
932	0.04
933	0.04
933	0.04
933	0.04
934	0.04
934	0.039
935	0.039
935	0.038
935	0.038
936	0.038
936	0.037
937	0.037
937	0.037
938	0.037
938	0.037
938	0.037
939	0.037
939	0.037
940	0.038
940	0.038
941	0.039
941	0.039
941	0.04
942	0.04
942	0.04
943	0.04
943	0.04
944	0.04
944	0.041
944	0.041
945	0.041
945	0.041
946	0.041
946	0.041
946	0.041
947	0.041
947	0.041
948	0.041
948	0.041
949	0.041
949	0.04
949	0.04
950	0.04
950	0.041
951	0.041
951	0.04
952	0.04
952	0.04
952	0.04
953	0.04
953	0.04
954	0.04
954	0.04
955	0.039
955	0.039
955	0.039
956	0.039
956	0.039
957	0.039
957	0.038
957	0.038
958	0.038
958	0.038
959	0.038
959	0.038
960	0.038
960	0.038
960	0.038
961	0.038
961	0.038
962	0.038
962	0.038
963	0.038
963	0.038
963	0.038
964	0.038
964	0.039
965	0.039
965	0.04
966	0.04
966	0.04
966	0.04
967	0.041
967	0.041
968	0.041
968	0.041
968	0.041
969	0.04
969	0.04
970	0.039
970	0.038
971	0.038
971	0.037
971	0.037
972	0.036
972	0.035
973	0.035
973	0.035
974	0.034
974	0.035
974	0.035
975	0.035
975	0.035
976	0.035
976	0.036
976	0.036
977	0.036
977	0.035
978	0.035
978	0.035
979	0.034
979	0.034
979	0.034
980	0.033
980	0.033
981	0.032
981	0.032
982	0.032
982	0.031
982	0.031
983	0.031
983	0.031
984	0.031
984	0.031
984	0.031
985	0.031
985	0.031
986	0.032
986	0.032
987	0.032
987	0.032
987	0.032
988	0.032
988	0.032
989	0.032
989	0.033
990	0.033
990	0.033
990	0.033
991	0.033
991	0.033
992	0.033
992	0.033
992	0.032
993	0.031
993	0.03
994	0.03
994	0.029
995	0.028
995	0.027
995	0.027
996	0.027
996	0.026
997	0.026
997	0.027
997	0.027
998	0.028
998	0.029
999	0.03
999	0.031
1000	0.031
1000	0.032
1000	0.032
1001	0.033
1001	0.033
1002	0.033
1002	0.033
1003	0.032
1003	0.032
1003	0.031
1004	0.03
1004	0.029
1005	0.029
1005	0.028
1005	0.027
1006	0.027
1006	0.027
1007	0.027
1007	0.026
1008	0.026
1008	0.026
1008	0.026
1009	0.026
1009	0.026
1010	0.026
1010	0.026
1010	0.026
1011	0.026
1011	0.026
1012	0.026
1012	0.026
1013	0.026
1013	0.025
1013	0.025
1014	0.025
1014	0.025
1015	0.025
1015	0.025
1016	0.025
1016	0.026
1016	0.026
1017	0.026
1017	0.026
1018	0.026
1018	0.027
1018	0.027
1019	0.027
1019	0.028
1020	0.028
1020	0.028
1021	0.028
1021	0.029
1021	0.029
1022	0.029
1022	0.029
1023	0.029
1023	0.029
1023	0.03
1024	0.03
1024	0.03
1025	0.03
1025	0.03
1026	0.03
1026	0.03
1026	0.03
1027	0.03
1027	0.03
1028	0.031
1028	0.031
1028	0.031
1029	0.032
1029	0.032
1030	0.032
1030	0.032
1031	0.033
1031	0.033
1031	0.033
1032	0.033
1032	0.033
1033	0.033
1033	0.033
1033	0.033
1034	0.032
1034	0.032
1035	0.032
1035	0.031
1036	0.031
1036	0.031
1036	0.031
1037	0.031
1037	0.031
1038	0.031
1038	0.031
1039	0.031
1039	0.031
1039	0.031
1040	0.031
1040	0.031
1041	0.032
1041	0.032
1041	0.031
1042	0.031
1042	0.031
1043	0.031
1043	0.031
1044	0.031
1044	0.031
1044	0.031
1045	0.031
1045	0.031
1046	0.031
1046	0.032
1046	0.032
1047	0.032
1047	0.033
1048	0.033
1048	0.033
1049	0.033
1049	0.033
1049	0.033
1050	0.033
1050	0.032
1051	0.032
1051	0.032
1051	0.031
1052	0.03
1052	0.03
1053	0.029
1053	0.028
1053	0.028
1054	0.027
1054	0.027
1055	0.027
1055	0.026
1056	0.026
1056	0.025
1056	0.025
1057	0.025
1057	0.024
1058	0.024
1058	0.023
1058	0.023
1059	0.022
1059	0.022
1060	0.022
1060	0.021
1061	0.021
1061	0.021
1061	0.021
1062	0.02
1062	0.02
1063	0.02
1063	0.02
1063	0.02
1064	0.019
1064	0.019
1065	0.019
1065	0.019
1066	0.019
1066	0.018
1066	0.018
1067	0.018
1067	0.018
1068	0.018
1068	0.018
1068	0.017
1069	0.017
1069	0.017
1070	0.016
1070	0.016
1071	0.016
1071	0.016
1071	0.016
1072	0.016
1072	0.016
1073	0.015
1073	0.015
1073	0.015
1074	0.016
1074	0.016
1075	0.016
1075	0.016
1076	0.016
1076	0.017
1076	0.017
1077	0.017
1077	0.017
1078	0.017
1078	0.017
1078	0.017
1079	0.017
1079	0.017
1080	0.016
1080	0.017
1080	0.016
1081	0.016
1081	0.015
1082	0.015
1082	0.016
1083	0.016
1083	0.015
1083	0.016
1084	0.016
1084	0.016
1085	0.016
1085	0.017
1085	0.017
1086	0.017
1086	0.017
1087	0.017
1087	0.017
1088	0.017
1088	0.017
1088	0.018
1089	0.017
1089	0.017
1090	0.016
1090	0.015
1090	0.015
1091	0.015
1091	0.015
1092	0.015
1092	0.015
1092	0.014
1093	0.013
1093	0.013
1094	0.014
1094	0.013
1095	0.013
1095	0.013
1095	0.013
1096	0.012
1096	0.011
1097	0.01
1097	0.01
1097	0.01
1098	0.009
1098	0.008
1099	0.007
1099	0.006
1100	0.005
1100	0.004
1100	0.003
1101	0.001
1101	0
1102	-0.001
1102	-0.002
1102	-0.004
1103	-0.005
1103	-0.006
1104	-0.007
1104	-0.008
1104	-0.009
1105	-0.01
1105	-0.012
1106	-0.013
1106	-0.014
1107	-0.015
1107	-0.015
1107	-0.016
1108	-0.017
1108	-0.017
1109	-0.018
1109	-0.019
1109	-0.018
1110	-0.016
1110	-0.015
1111	-0.018
1111	-0.02
