Data from reversibility-20sec_Absorbance__5924__000000000005924.txt Node

Date: Wed Dec 06 21:07:45 CET 2023
User: Marek
Spectrometer: MAYP115816
Trigger mode: 0
Integration Time (sec): 2.000000E-1
Scans to average: 10
Electric dark correction enabled: true
Nonlinearity correction enabled: true
Boxcar width: 5
XAxis mode: Wavelengths
Number of Pixels in Spectrum: 2068
>>>>>Begin Spectral Data<<<<<
199	-0.19
199	-0.167
200	-0.1
200	-0.05
201	-0.023
201	-0.005
202	0.007
202	0.016
203	0.026
203	0.032
204	0.047
204	0.06
205	0.071
205	0.079
205	0.079
206	0.08
206	0.078
207	0.081
207	0.082
208	0.077
208	0.074
209	0.077
209	0.074
210	0.075
210	0.072
211	0.072
211	0.074
212	0.074
212	0.075
213	0.079
213	0.084
213	0.085
214	0.086
214	0.09
215	0.093
215	0.094
216	0.096
216	0.093
217	0.098
217	0.099
218	0.095
218	0.097
219	0.103
219	0.106
220	0.107
220	0.108
221	0.108
221	0.109
221	0.115
222	0.123
222	0.123
223	0.13
223	0.135
224	0.139
224	0.144
225	0.152
225	0.166
226	0.177
226	0.191
227	0.202
227	0.21
228	0.229
228	0.244
229	0.261
229	0.283
229	0.307
230	0.332
230	0.359
231	0.39
231	0.426
232	0.462
232	0.506
233	0.55
233	0.599
234	0.648
234	0.701
235	0.752
235	0.807
236	0.857
236	0.91
236	0.962
237	1.015
237	1.062
238	1.111
238	1.156
239	1.205
239	1.249
240	1.289
240	1.325
241	1.363
241	1.397
242	1.429
242	1.458
243	1.487
243	1.51
243	1.537
244	1.559
244	1.579
245	1.597
245	1.617
246	1.634
246	1.654
247	1.667
247	1.684
248	1.698
248	1.712
249	1.722
249	1.73
250	1.739
250	1.748
250	1.754
251	1.76
251	1.764
252	1.771
252	1.772
253	1.776
253	1.774
254	1.774
254	1.776
255	1.778
255	1.778
256	1.779
256	1.778
257	1.776
257	1.775
258	1.775
258	1.776
258	1.777
259	1.777
259	1.777
260	1.775
260	1.776
261	1.775
261	1.778
262	1.78
262	1.782
263	1.785
263	1.785
264	1.786
264	1.787
265	1.787
265	1.787
265	1.788
266	1.787
266	1.789
267	1.786
267	1.787
268	1.785
268	1.786
269	1.788
269	1.787
270	1.786
270	1.786
271	1.784
271	1.784
272	1.781
272	1.78
272	1.777
273	1.772
273	1.766
274	1.761
274	1.756
275	1.751
275	1.745
276	1.738
276	1.731
277	1.723
277	1.714
278	1.703
278	1.692
278	1.68
279	1.665
279	1.648
280	1.626
280	1.601
281	1.572
281	1.536
282	1.499
282	1.461
283	1.423
283	1.385
284	1.348
284	1.312
285	1.276
285	1.245
285	1.216
286	1.19
286	1.168
287	1.148
287	1.131
288	1.117
288	1.104
289	1.093
289	1.084
290	1.076
290	1.069
291	1.063
291	1.057
292	1.052
292	1.047
292	1.042
293	1.038
293	1.034
294	1.03
294	1.026
295	1.023
295	1.02
296	1.016
296	1.013
297	1.009
297	1.006
298	1.003
298	1
298	0.997
299	0.994
299	0.991
300	0.988
300	0.985
301	0.983
301	0.98
302	0.977
302	0.974
303	0.972
303	0.969
304	0.966
304	0.964
305	0.962
305	0.959
305	0.956
306	0.953
306	0.95
307	0.948
307	0.945
308	0.942
308	0.94
309	0.937
309	0.934
310	0.931
310	0.928
311	0.925
311	0.922
311	0.918
312	0.915
312	0.911
313	0.908
313	0.903
314	0.899
314	0.895
315	0.891
315	0.887
316	0.882
316	0.877
317	0.873
317	0.868
318	0.863
318	0.858
318	0.853
319	0.847
319	0.842
320	0.836
320	0.831
321	0.825
321	0.819
322	0.812
322	0.806
323	0.799
323	0.793
324	0.786
324	0.78
324	0.773
325	0.766
325	0.759
326	0.752
326	0.746
327	0.739
327	0.732
328	0.725
328	0.718
329	0.711
329	0.704
330	0.697
330	0.69
330	0.684
331	0.677
331	0.67
332	0.663
332	0.656
333	0.649
333	0.642
334	0.635
334	0.628
335	0.621
335	0.615
336	0.608
336	0.601
336	0.595
337	0.588
337	0.582
338	0.576
338	0.57
339	0.564
339	0.558
340	0.552
340	0.547
341	0.541
341	0.535
342	0.53
342	0.525
342	0.519
343	0.514
343	0.509
344	0.504
344	0.5
345	0.495
345	0.49
346	0.486
346	0.481
347	0.477
347	0.472
348	0.468
348	0.464
348	0.46
349	0.457
349	0.453
350	0.449
350	0.445
351	0.442
351	0.439
352	0.435
352	0.432
353	0.429
353	0.427
354	0.423
354	0.42
354	0.417
355	0.414
355	0.411
356	0.408
356	0.406
357	0.402
357	0.399
358	0.397
358	0.394
359	0.392
359	0.389
360	0.388
360	0.386
360	0.384
361	0.382
361	0.38
362	0.379
362	0.377
363	0.375
363	0.374
364	0.372
364	0.37
365	0.368
365	0.366
366	0.364
366	0.362
366	0.36
367	0.358
367	0.356
368	0.355
368	0.353
369	0.352
369	0.35
370	0.349
370	0.347
371	0.346
371	0.344
372	0.343
372	0.342
372	0.34
373	0.339
373	0.338
374	0.337
374	0.336
375	0.335
375	0.334
376	0.333
376	0.332
377	0.331
377	0.33
378	0.329
378	0.328
378	0.327
379	0.326
379	0.325
380	0.324
380	0.324
381	0.323
381	0.322
382	0.321
382	0.321
383	0.32
383	0.32
383	0.319
384	0.318
384	0.318
385	0.317
385	0.317
386	0.316
386	0.316
387	0.315
387	0.315
388	0.314
388	0.313
389	0.313
389	0.312
389	0.312
390	0.311
390	0.311
391	0.31
391	0.31
392	0.31
392	0.309
393	0.308
393	0.308
394	0.308
394	0.307
394	0.307
395	0.306
395	0.306
396	0.305
396	0.305
397	0.304
397	0.304
398	0.303
398	0.303
399	0.303
399	0.302
400	0.302
400	0.301
400	0.301
401	0.301
401	0.3
402	0.3
402	0.3
403	0.299
403	0.299
404	0.299
404	0.298
405	0.298
405	0.298
405	0.297
406	0.297
406	0.296
407	0.296
407	0.295
408	0.295
408	0.295
409	0.294
409	0.294
410	0.293
410	0.293
411	0.293
411	0.292
411	0.292
412	0.292
412	0.292
413	0.291
413	0.291
414	0.291
414	0.291
415	0.29
415	0.29
416	0.29
416	0.289
416	0.289
417	0.288
417	0.288
418	0.288
418	0.287
419	0.287
419	0.286
420	0.286
420	0.285
421	0.285
421	0.284
421	0.284
422	0.283
422	0.283
423	0.283
423	0.282
424	0.282
424	0.282
425	0.282
425	0.281
426	0.281
426	0.281
427	0.281
427	0.28
427	0.28
428	0.28
428	0.279
429	0.279
429	0.278
430	0.278
430	0.278
431	0.278
431	0.278
432	0.278
432	0.278
432	0.277
433	0.277
433	0.277
434	0.277
434	0.277
435	0.277
435	0.277
436	0.276
436	0.276
437	0.276
437	0.276
437	0.276
438	0.275
438	0.275
439	0.275
439	0.275
440	0.275
440	0.274
441	0.274
441	0.274
442	0.274
442	0.274
442	0.274
443	0.273
443	0.273
444	0.273
444	0.273
445	0.272
445	0.272
446	0.272
446	0.272
447	0.271
447	0.271
447	0.271
448	0.271
448	0.271
449	0.271
449	0.27
450	0.27
450	0.27
451	0.271
451	0.271
452	0.271
452	0.271
452	0.271
453	0.27
453	0.27
454	0.27
454	0.27
455	0.27
455	0.27
456	0.27
456	0.27
457	0.27
457	0.269
458	0.27
458	0.27
458	0.269
459	0.27
459	0.269
460	0.269
460	0.269
461	0.269
461	0.269
462	0.269
462	0.269
463	0.269
463	0.269
463	0.269
464	0.269
464	0.268
465	0.268
465	0.268
466	0.269
466	0.269
467	0.269
467	0.269
467	0.269
468	0.269
468	0.269
469	0.27
469	0.27
470	0.271
470	0.271
471	0.272
471	0.272
472	0.272
472	0.273
472	0.273
473	0.274
473	0.274
474	0.274
474	0.274
475	0.274
475	0.274
476	0.275
476	0.275
477	0.275
477	0.275
477	0.276
478	0.276
478	0.277
479	0.277
479	0.278
480	0.278
480	0.278
481	0.279
481	0.279
482	0.28
482	0.28
482	0.281
483	0.282
483	0.282
484	0.283
484	0.283
485	0.284
485	0.284
486	0.285
486	0.285
487	0.286
487	0.287
487	0.287
488	0.288
488	0.289
489	0.29
489	0.291
490	0.292
490	0.293
491	0.294
491	0.295
492	0.296
492	0.297
492	0.298
493	0.299
493	0.3
494	0.301
494	0.302
495	0.303
495	0.304
496	0.305
496	0.306
496	0.307
497	0.308
497	0.309
498	0.31
498	0.311
499	0.312
499	0.314
500	0.315
500	0.316
501	0.317
501	0.318
501	0.319
502	0.32
502	0.321
503	0.322
503	0.323
504	0.324
504	0.325
505	0.326
505	0.327
506	0.328
506	0.329
506	0.33
507	0.331
507	0.332
508	0.333
508	0.334
509	0.334
509	0.335
510	0.336
510	0.337
511	0.338
511	0.34
511	0.341
512	0.342
512	0.343
513	0.343
513	0.344
514	0.345
514	0.346
515	0.347
515	0.347
515	0.348
516	0.348
516	0.349
517	0.35
517	0.35
518	0.35
518	0.351
519	0.351
519	0.351
520	0.351
520	0.351
520	0.351
521	0.351
521	0.351
522	0.351
522	0.351
523	0.351
523	0.351
524	0.351
524	0.351
524	0.351
525	0.351
525	0.35
526	0.35
526	0.349
527	0.349
527	0.349
528	0.348
528	0.348
529	0.347
529	0.346
529	0.345
530	0.344
530	0.343
531	0.343
531	0.342
532	0.341
532	0.339
533	0.338
533	0.337
533	0.336
534	0.335
534	0.334
535	0.333
535	0.332
536	0.331
536	0.33
537	0.328
537	0.327
538	0.326
538	0.324
538	0.323
539	0.322
539	0.32
540	0.319
540	0.318
541	0.316
541	0.315
542	0.313
542	0.312
542	0.31
543	0.309
543	0.307
544	0.306
544	0.305
545	0.303
545	0.302
546	0.3
546	0.298
547	0.296
547	0.295
547	0.293
548	0.292
548	0.29
549	0.288
549	0.287
550	0.285
550	0.283
551	0.282
551	0.28
551	0.278
552	0.276
552	0.274
553	0.273
553	0.271
554	0.269
554	0.267
555	0.265
555	0.263
556	0.262
556	0.26
556	0.259
557	0.258
557	0.257
558	0.255
558	0.254
559	0.253
559	0.251
560	0.25
560	0.249
560	0.247
561	0.246
561	0.244
562	0.242
562	0.24
563	0.239
563	0.237
564	0.235
564	0.234
564	0.233
565	0.232
565	0.23
566	0.229
566	0.227
567	0.227
567	0.226
568	0.224
568	0.223
568	0.222
569	0.221
569	0.219
570	0.217
570	0.216
571	0.215
571	0.213
572	0.212
572	0.211
573	0.209
573	0.208
573	0.207
574	0.206
574	0.205
575	0.204
575	0.204
576	0.203
576	0.201
577	0.2
577	0.199
577	0.198
578	0.197
578	0.196
579	0.196
579	0.195
580	0.194
580	0.192
581	0.191
581	0.19
581	0.19
582	0.19
582	0.189
583	0.189
583	0.188
584	0.186
584	0.185
585	0.184
585	0.183
585	0.183
586	0.182
586	0.181
587	0.179
587	0.178
588	0.177
588	0.176
589	0.175
589	0.175
590	0.174
590	0.174
590	0.173
591	0.173
591	0.172
592	0.171
592	0.17
593	0.17
593	0.169
594	0.168
594	0.167
594	0.166
595	0.166
595	0.165
596	0.164
596	0.164
597	0.164
597	0.164
598	0.163
598	0.163
598	0.163
599	0.162
599	0.162
600	0.161
600	0.16
601	0.159
601	0.159
602	0.158
602	0.157
602	0.156
603	0.156
603	0.156
604	0.155
604	0.155
605	0.155
605	0.155
606	0.154
606	0.153
606	0.153
607	0.153
607	0.152
608	0.152
608	0.151
609	0.15
609	0.15
610	0.149
610	0.149
610	0.148
611	0.148
611	0.148
612	0.147
612	0.147
613	0.147
613	0.146
614	0.146
614	0.145
614	0.145
615	0.145
615	0.144
616	0.144
616	0.144
617	0.144
617	0.143
618	0.143
618	0.143
618	0.143
619	0.143
619	0.144
620	0.144
620	0.143
621	0.143
621	0.142
622	0.142
622	0.141
622	0.14
623	0.139
623	0.139
624	0.138
624	0.137
625	0.137
625	0.136
626	0.135
626	0.135
626	0.135
627	0.135
627	0.134
628	0.134
628	0.134
629	0.133
629	0.133
630	0.133
630	0.132
630	0.132
631	0.132
631	0.132
632	0.131
632	0.131
633	0.131
633	0.131
634	0.131
634	0.131
634	0.131
635	0.131
635	0.131
636	0.131
636	0.131
637	0.13
637	0.13
638	0.129
638	0.129
638	0.129
639	0.128
639	0.128
640	0.128
640	0.128
641	0.127
641	0.127
642	0.127
642	0.127
642	0.127
643	0.126
643	0.126
644	0.126
644	0.126
645	0.125
645	0.125
646	0.125
646	0.125
646	0.125
647	0.125
647	0.124
648	0.124
648	0.123
649	0.123
649	0.123
650	0.123
650	0.123
650	0.123
651	0.123
651	0.123
652	0.123
652	0.123
653	0.123
653	0.125
653	0.13
654	0.104
654	0.084
655	0.083
655	0.083
656	0.083
656	0.083
657	0.083
657	0.084
657	0.084
658	0.083
658	0.074
659	0.093
659	0.118
660	0.123
660	0.123
661	0.123
661	0.122
661	0.122
662	0.121
662	0.121
663	0.12
663	0.12
664	0.12
664	0.119
665	0.119
665	0.119
665	0.119
666	0.119
666	0.119
667	0.119
667	0.119
668	0.12
668	0.12
669	0.121
669	0.121
669	0.122
670	0.122
670	0.122
671	0.122
671	0.122
672	0.122
672	0.121
672	0.121
673	0.12
673	0.119
674	0.119
674	0.118
675	0.117
675	0.117
676	0.117
676	0.117
676	0.117
677	0.117
677	0.117
678	0.117
678	0.116
679	0.116
679	0.116
680	0.117
680	0.116
680	0.116
681	0.116
681	0.116
682	0.117
682	0.117
683	0.117
683	0.118
684	0.118
684	0.117
684	0.117
685	0.117
685	0.118
686	0.117
686	0.117
687	0.117
687	0.117
687	0.117
688	0.116
688	0.116
689	0.117
689	0.117
690	0.117
690	0.117
691	0.117
691	0.117
691	0.117
692	0.117
692	0.117
693	0.117
693	0.117
694	0.117
694	0.116
695	0.117
695	0.118
695	0.118
696	0.118
696	0.117
697	0.117
697	0.117
698	0.117
698	0.116
698	0.116
699	0.116
699	0.116
700	0.115
700	0.116
701	0.116
701	0.116
702	0.116
702	0.116
702	0.116
703	0.116
703	0.117
704	0.117
704	0.117
705	0.117
705	0.116
705	0.116
706	0.116
706	0.117
707	0.117
707	0.117
708	0.117
708	0.117
709	0.117
709	0.117
709	0.116
710	0.116
710	0.116
711	0.116
711	0.116
712	0.116
712	0.116
713	0.116
713	0.116
713	0.116
714	0.116
714	0.116
715	0.116
715	0.116
716	0.116
716	0.116
716	0.115
717	0.115
717	0.115
718	0.114
718	0.114
719	0.114
719	0.114
720	0.114
720	0.114
720	0.114
721	0.114
721	0.115
722	0.115
722	0.115
723	0.116
723	0.116
723	0.116
724	0.116
724	0.115
725	0.115
725	0.114
726	0.113
726	0.113
727	0.112
727	0.112
727	0.111
728	0.111
728	0.111
729	0.111
729	0.111
730	0.111
730	0.111
730	0.112
731	0.112
731	0.113
732	0.113
732	0.113
733	0.113
733	0.113
734	0.113
734	0.114
734	0.114
735	0.115
735	0.115
736	0.115
736	0.115
737	0.115
737	0.115
737	0.115
738	0.115
738	0.114
739	0.114
739	0.114
740	0.113
740	0.113
741	0.113
741	0.112
741	0.112
742	0.112
742	0.112
743	0.113
743	0.113
744	0.114
744	0.115
744	0.115
745	0.115
745	0.115
746	0.115
746	0.115
747	0.115
747	0.115
748	0.114
748	0.114
748	0.114
749	0.114
749	0.114
750	0.114
750	0.113
751	0.113
751	0.113
751	0.113
752	0.113
752	0.112
753	0.111
753	0.111
754	0.11
754	0.109
754	0.109
755	0.109
755	0.109
756	0.108
756	0.107
757	0.106
757	0.107
758	0.106
758	0.106
758	0.107
759	0.107
759	0.106
760	0.106
760	0.106
761	0.106
761	0.106
761	0.107
762	0.106
762	0.106
763	0.106
763	0.106
764	0.105
764	0.105
764	0.105
765	0.105
765	0.104
766	0.104
766	0.104
767	0.104
767	0.103
768	0.102
768	0.102
768	0.102
769	0.103
769	0.103
770	0.103
770	0.103
771	0.104
771	0.104
771	0.105
772	0.106
772	0.107
773	0.107
773	0.107
774	0.107
774	0.108
775	0.108
775	0.108
775	0.108
776	0.108
776	0.108
777	0.108
777	0.108
778	0.107
778	0.107
778	0.107
779	0.107
779	0.107
780	0.106
780	0.105
781	0.105
781	0.104
781	0.104
782	0.104
782	0.104
783	0.104
783	0.105
784	0.105
784	0.105
784	0.105
785	0.106
785	0.106
786	0.106
786	0.106
787	0.106
787	0.105
788	0.104
788	0.103
788	0.102
789	0.101
789	0.101
790	0.101
790	0.1
791	0.099
791	0.099
791	0.098
792	0.099
792	0.099
793	0.098
793	0.098
794	0.098
794	0.097
794	0.097
795	0.097
795	0.097
796	0.097
796	0.097
797	0.097
797	0.097
797	0.097
798	0.097
798	0.097
799	0.097
799	0.097
800	0.097
800	0.096
801	0.096
801	0.096
801	0.095
802	0.095
802	0.095
803	0.095
803	0.096
804	0.096
804	0.096
804	0.096
805	0.096
805	0.096
806	0.096
806	0.096
807	0.095
807	0.095
807	0.094
808	0.094
808	0.094
809	0.093
809	0.093
810	0.094
810	0.094
810	0.093
811	0.094
811	0.094
812	0.095
812	0.095
813	0.095
813	0.095
813	0.096
814	0.096
814	0.096
815	0.097
815	0.097
816	0.097
816	0.096
817	0.095
817	0.095
817	0.094
818	0.094
818	0.094
819	0.093
819	0.092
820	0.091
820	0.09
820	0.09
821	0.09
821	0.09
822	0.09
822	0.09
823	0.09
823	0.089
823	0.09
824	0.091
824	0.091
825	0.092
825	0.092
826	0.092
826	0.092
826	0.092
827	0.093
827	0.093
828	0.093
828	0.093
829	0.093
829	0.093
829	0.093
830	0.093
830	0.093
831	0.094
831	0.094
832	0.094
832	0.094
832	0.094
833	0.093
833	0.093
834	0.092
834	0.092
835	0.092
835	0.091
835	0.091
836	0.091
836	0.091
837	0.091
837	0.091
838	0.091
838	0.091
839	0.09
839	0.09
839	0.089
840	0.088
840	0.087
841	0.086
841	0.085
842	0.084
842	0.083
842	0.082
843	0.081
843	0.08
844	0.079
844	0.078
845	0.077
845	0.076
845	0.075
846	0.075
846	0.075
847	0.075
847	0.075
848	0.075
848	0.076
848	0.077
849	0.078
849	0.078
850	0.079
850	0.079
851	0.08
851	0.08
851	0.08
852	0.079
852	0.078
853	0.078
853	0.077
854	0.077
854	0.077
854	0.077
855	0.078
855	0.078
856	0.079
856	0.079
857	0.08
857	0.081
857	0.081
858	0.082
858	0.082
859	0.082
859	0.081
860	0.08
860	0.08
860	0.079
861	0.078
861	0.078
862	0.077
862	0.076
863	0.075
863	0.075
863	0.075
864	0.075
864	0.075
865	0.075
865	0.075
866	0.075
866	0.075
866	0.075
867	0.076
867	0.077
868	0.077
868	0.078
869	0.078
869	0.078
869	0.078
870	0.078
870	0.079
871	0.079
871	0.079
872	0.079
872	0.079
872	0.079
873	0.078
873	0.078
874	0.077
874	0.076
875	0.076
875	0.075
875	0.074
876	0.074
876	0.073
877	0.072
877	0.072
878	0.072
878	0.072
878	0.073
879	0.073
879	0.073
880	0.074
880	0.074
881	0.074
881	0.075
881	0.075
882	0.075
882	0.075
883	0.075
883	0.075
884	0.075
884	0.075
884	0.075
885	0.075
885	0.075
886	0.074
886	0.074
887	0.073
887	0.072
887	0.071
888	0.071
888	0.07
889	0.069
889	0.069
890	0.068
890	0.068
890	0.067
891	0.067
891	0.067
892	0.066
892	0.066
893	0.066
893	0.066
893	0.065
894	0.065
894	0.065
895	0.065
895	0.066
895	0.066
896	0.067
896	0.067
897	0.068
897	0.068
898	0.068
898	0.068
898	0.068
899	0.068
899	0.068
900	0.067
900	0.067
901	0.066
901	0.065
901	0.065
902	0.064
902	0.064
903	0.063
903	0.063
904	0.063
904	0.062
904	0.062
905	0.062
905	0.062
906	0.063
906	0.063
907	0.064
907	0.065
907	0.065
908	0.066
908	0.066
909	0.066
909	0.066
910	0.066
910	0.066
910	0.066
911	0.065
911	0.065
912	0.064
912	0.064
913	0.063
913	0.063
913	0.063
914	0.063
914	0.063
915	0.063
915	0.063
916	0.063
916	0.063
916	0.063
917	0.063
917	0.062
918	0.062
918	0.062
918	0.061
919	0.061
919	0.06
920	0.06
920	0.06
921	0.06
921	0.06
921	0.06
922	0.06
922	0.061
923	0.061
923	0.061
924	0.061
924	0.062
924	0.062
925	0.063
925	0.063
926	0.063
926	0.064
927	0.064
927	0.064
927	0.064
928	0.064
928	0.064
929	0.064
929	0.064
930	0.064
930	0.063
930	0.063
931	0.062
931	0.062
932	0.061
932	0.061
933	0.061
933	0.06
933	0.06
934	0.059
934	0.059
935	0.059
935	0.058
935	0.058
936	0.058
936	0.058
937	0.057
937	0.057
938	0.057
938	0.056
938	0.056
939	0.056
939	0.055
940	0.055
940	0.055
941	0.055
941	0.055
941	0.056
942	0.056
942	0.056
943	0.056
943	0.057
944	0.057
944	0.057
944	0.057
945	0.057
945	0.057
946	0.057
946	0.058
946	0.058
947	0.058
947	0.058
948	0.058
948	0.058
949	0.058
949	0.058
949	0.058
950	0.058
950	0.058
951	0.058
951	0.058
952	0.057
952	0.057
952	0.056
953	0.056
953	0.056
954	0.055
954	0.055
955	0.055
955	0.054
955	0.054
956	0.054
956	0.054
957	0.055
957	0.055
957	0.055
958	0.055
958	0.055
959	0.055
959	0.055
960	0.055
960	0.055
960	0.054
961	0.054
961	0.054
962	0.054
962	0.054
963	0.054
963	0.054
963	0.054
964	0.054
964	0.055
965	0.055
965	0.055
966	0.055
966	0.055
966	0.055
967	0.056
967	0.056
968	0.056
968	0.056
968	0.055
969	0.055
969	0.055
970	0.054
970	0.054
971	0.053
971	0.053
971	0.053
972	0.052
972	0.052
973	0.052
973	0.052
974	0.052
974	0.052
974	0.053
975	0.053
975	0.053
976	0.054
976	0.054
976	0.055
977	0.055
977	0.055
978	0.054
978	0.054
979	0.053
979	0.053
979	0.053
980	0.053
980	0.052
981	0.051
981	0.051
982	0.051
982	0.051
982	0.051
983	0.051
983	0.051
984	0.052
984	0.052
984	0.052
985	0.052
985	0.052
986	0.052
986	0.052
987	0.052
987	0.051
987	0.051
988	0.051
988	0.051
989	0.051
989	0.05
990	0.05
990	0.05
990	0.049
991	0.049
991	0.049
992	0.048
992	0.048
992	0.047
993	0.047
993	0.046
994	0.045
994	0.045
995	0.044
995	0.044
995	0.044
996	0.044
996	0.044
997	0.044
997	0.045
997	0.045
998	0.046
998	0.046
999	0.047
999	0.048
1000	0.049
1000	0.05
1000	0.05
1001	0.051
1001	0.051
1002	0.05
1002	0.05
1003	0.05
1003	0.05
1003	0.049
1004	0.048
1004	0.047
1005	0.047
1005	0.046
1005	0.045
1006	0.044
1006	0.044
1007	0.043
1007	0.043
1008	0.042
1008	0.042
1008	0.042
1009	0.042
1009	0.042
1010	0.043
1010	0.043
1010	0.043
1011	0.044
1011	0.044
1012	0.044
1012	0.044
1013	0.044
1013	0.044
1013	0.044
1014	0.043
1014	0.043
1015	0.043
1015	0.043
1016	0.043
1016	0.043
1016	0.042
1017	0.042
1017	0.042
1018	0.042
1018	0.042
1018	0.041
1019	0.041
1019	0.041
1020	0.04
1020	0.04
1021	0.04
1021	0.04
1021	0.04
1022	0.04
1022	0.04
1023	0.04
1023	0.041
1023	0.041
1024	0.042
1024	0.042
1025	0.042
1025	0.043
1026	0.043
1026	0.043
1026	0.043
1027	0.043
1027	0.043
1028	0.043
1028	0.043
1028	0.043
1029	0.043
1029	0.043
1030	0.043
1030	0.043
1031	0.044
1031	0.044
1031	0.045
1032	0.045
1032	0.046
1033	0.046
1033	0.046
1033	0.047
1034	0.047
1034	0.047
1035	0.047
1035	0.047
1036	0.047
1036	0.047
1036	0.047
1037	0.047
1037	0.047
1038	0.047
1038	0.047
1039	0.047
1039	0.047
1039	0.048
1040	0.048
1040	0.048
1041	0.048
1041	0.048
1041	0.048
1042	0.048
1042	0.048
1043	0.048
1043	0.048
1044	0.048
1044	0.048
1044	0.048
1045	0.048
1045	0.048
1046	0.048
1046	0.048
1046	0.048
1047	0.047
1047	0.048
1048	0.048
1048	0.048
1049	0.048
1049	0.048
1049	0.048
1050	0.047
1050	0.047
1051	0.047
1051	0.046
1051	0.046
1052	0.045
1052	0.045
1053	0.044
1053	0.044
1053	0.043
1054	0.043
1054	0.043
1055	0.043
1055	0.042
1056	0.042
1056	0.041
1056	0.041
1057	0.041
1057	0.04
1058	0.04
1058	0.039
1058	0.039
1059	0.038
1059	0.038
1060	0.038
1060	0.037
1061	0.037
1061	0.037
1061	0.036
1062	0.036
1062	0.036
1063	0.036
1063	0.036
1063	0.036
1064	0.036
1064	0.036
1065	0.036
1065	0.035
1066	0.036
1066	0.036
1066	0.036
1067	0.036
1067	0.035
1068	0.035
1068	0.035
1068	0.035
1069	0.034
1069	0.034
1070	0.034
1070	0.034
1071	0.033
1071	0.032
1071	0.032
1072	0.031
1072	0.031
1073	0.03
1073	0.03
1073	0.03
1074	0.03
1074	0.03
1075	0.03
1075	0.03
1076	0.03
1076	0.031
1076	0.03
1077	0.03
1077	0.031
1078	0.03
1078	0.03
1078	0.03
1079	0.029
1079	0.029
1080	0.028
1080	0.028
1080	0.028
1081	0.028
1081	0.027
1082	0.028
1082	0.028
1083	0.028
1083	0.028
1083	0.028
1084	0.028
1084	0.028
1085	0.028
1085	0.028
1085	0.028
1086	0.028
1086	0.028
1087	0.028
1087	0.028
1088	0.028
1088	0.028
1088	0.028
1089	0.027
1089	0.028
1090	0.027
1090	0.027
1090	0.026
1091	0.027
1091	0.026
1092	0.026
1092	0.026
1092	0.026
1093	0.026
1093	0.026
1094	0.026
1094	0.025
1095	0.025
1095	0.025
1095	0.025
1096	0.024
1096	0.024
1097	0.023
1097	0.022
1097	0.022
1098	0.021
1098	0.019
1099	0.019
1099	0.018
1100	0.016
1100	0.014
1100	0.013
1101	0.012
1101	0.011
1102	0.01
1102	0.008
1102	0.007
1103	0.006
1103	0.006
1104	0.006
1104	0.005
1104	0.005
1105	0.003
1105	0.002
1106	-0
1106	-0.001
1107	-0.001
1107	-0.001
1107	-0.002
1108	-0.003
1108	-0.005
1109	-0.006
1109	-0.008
1109	-0.006
1110	-0.004
1110	-0.004
1111	-0.006
1111	-0.007
