Data from reversibility-20sec_Absorbance__5314__000000000005314.txt Node

Date: Wed Dec 06 17:44:26 CET 2023
User: Marek
Spectrometer: MAYP115816
Trigger mode: 0
Integration Time (sec): 2.000000E-1
Scans to average: 10
Electric dark correction enabled: true
Nonlinearity correction enabled: true
Boxcar width: 5
XAxis mode: Wavelengths
Number of Pixels in Spectrum: 2068
>>>>>Begin Spectral Data<<<<<
199	-0.228
199	-0.191
200	-0.121
200	-0.068
201	-0.039
201	-0.019
202	-0.006
202	0.002
203	0.01
203	0.013
204	0.028
204	0.043
205	0.055
205	0.06
205	0.058
206	0.055
206	0.055
207	0.055
207	0.054
208	0.053
208	0.052
209	0.055
209	0.05
210	0.049
210	0.05
211	0.052
211	0.055
212	0.053
212	0.055
213	0.059
213	0.06
213	0.06
214	0.064
214	0.068
215	0.07
215	0.072
216	0.072
216	0.071
217	0.076
217	0.077
218	0.075
218	0.08
219	0.085
219	0.083
220	0.085
220	0.086
221	0.085
221	0.088
221	0.095
222	0.098
222	0.104
223	0.108
223	0.11
224	0.114
224	0.124
225	0.134
225	0.143
226	0.152
226	0.163
227	0.172
227	0.182
228	0.195
228	0.212
229	0.23
229	0.255
229	0.276
230	0.3
230	0.331
231	0.365
231	0.404
232	0.439
232	0.484
233	0.528
233	0.577
234	0.629
234	0.679
235	0.733
235	0.785
236	0.837
236	0.888
236	0.938
237	0.993
237	1.042
238	1.09
238	1.136
239	1.18
239	1.224
240	1.263
240	1.299
241	1.335
241	1.37
242	1.403
242	1.434
243	1.464
243	1.488
243	1.514
244	1.538
244	1.558
245	1.575
245	1.599
246	1.618
246	1.635
247	1.647
247	1.661
248	1.676
248	1.692
249	1.703
249	1.712
250	1.722
250	1.733
250	1.739
251	1.743
251	1.747
252	1.754
252	1.758
253	1.76
253	1.758
254	1.759
254	1.761
255	1.761
255	1.763
256	1.763
256	1.764
257	1.766
257	1.764
258	1.764
258	1.764
258	1.763
259	1.764
259	1.762
260	1.763
260	1.763
261	1.762
261	1.765
262	1.766
262	1.767
263	1.77
263	1.772
264	1.774
264	1.775
265	1.777
265	1.778
265	1.778
266	1.778
266	1.778
267	1.776
267	1.777
268	1.775
268	1.774
269	1.775
269	1.775
270	1.775
270	1.773
271	1.771
271	1.77
272	1.768
272	1.767
272	1.765
273	1.761
273	1.757
274	1.752
274	1.747
275	1.74
275	1.736
276	1.73
276	1.724
277	1.716
277	1.707
278	1.697
278	1.686
278	1.674
279	1.661
279	1.644
280	1.626
280	1.602
281	1.575
281	1.543
282	1.509
282	1.473
283	1.438
283	1.401
284	1.366
284	1.331
285	1.298
285	1.267
285	1.239
286	1.213
286	1.191
287	1.171
287	1.154
288	1.14
288	1.127
289	1.116
289	1.106
290	1.098
290	1.09
291	1.083
291	1.078
292	1.072
292	1.067
292	1.063
293	1.058
293	1.054
294	1.05
294	1.046
295	1.043
295	1.039
296	1.036
296	1.032
297	1.029
297	1.026
298	1.023
298	1.02
298	1.017
299	1.014
299	1.011
300	1.007
300	1.004
301	1.002
301	0.999
302	0.996
302	0.993
303	0.99
303	0.987
304	0.985
304	0.982
305	0.979
305	0.977
305	0.974
306	0.971
306	0.969
307	0.966
307	0.963
308	0.96
308	0.957
309	0.954
309	0.951
310	0.948
310	0.945
311	0.941
311	0.938
311	0.934
312	0.931
312	0.927
313	0.923
313	0.919
314	0.915
314	0.911
315	0.907
315	0.903
316	0.898
316	0.894
317	0.889
317	0.884
318	0.879
318	0.874
318	0.868
319	0.863
319	0.858
320	0.852
320	0.846
321	0.841
321	0.835
322	0.828
322	0.822
323	0.816
323	0.809
324	0.803
324	0.796
324	0.79
325	0.783
325	0.776
326	0.77
326	0.763
327	0.756
327	0.749
328	0.742
328	0.736
329	0.729
329	0.722
330	0.715
330	0.708
330	0.701
331	0.694
331	0.688
332	0.681
332	0.674
333	0.667
333	0.66
334	0.653
334	0.646
335	0.639
335	0.633
336	0.626
336	0.62
336	0.613
337	0.607
337	0.601
338	0.595
338	0.589
339	0.583
339	0.577
340	0.571
340	0.566
341	0.56
341	0.554
342	0.549
342	0.544
342	0.538
343	0.533
343	0.528
344	0.523
344	0.519
345	0.514
345	0.509
346	0.505
346	0.5
347	0.496
347	0.492
348	0.488
348	0.484
348	0.48
349	0.476
349	0.472
350	0.469
350	0.465
351	0.462
351	0.458
352	0.455
352	0.452
353	0.449
353	0.446
354	0.443
354	0.44
354	0.437
355	0.434
355	0.431
356	0.428
356	0.425
357	0.422
357	0.42
358	0.417
358	0.414
359	0.412
359	0.409
360	0.407
360	0.405
360	0.404
361	0.402
361	0.4
362	0.398
362	0.396
363	0.394
363	0.392
364	0.39
364	0.388
365	0.386
365	0.384
366	0.382
366	0.38
366	0.379
367	0.377
367	0.375
368	0.373
368	0.372
369	0.37
369	0.369
370	0.367
370	0.365
371	0.364
371	0.362
372	0.361
372	0.36
372	0.358
373	0.357
373	0.356
374	0.355
374	0.354
375	0.353
375	0.352
376	0.351
376	0.35
377	0.349
377	0.348
378	0.347
378	0.346
378	0.345
379	0.344
379	0.343
380	0.342
380	0.341
381	0.34
381	0.34
382	0.339
382	0.338
383	0.337
383	0.336
383	0.335
384	0.335
384	0.334
385	0.333
385	0.333
386	0.332
386	0.331
387	0.331
387	0.33
388	0.33
388	0.329
389	0.328
389	0.328
389	0.327
390	0.327
390	0.326
391	0.326
391	0.325
392	0.325
392	0.324
393	0.324
393	0.323
394	0.323
394	0.322
394	0.322
395	0.321
395	0.321
396	0.32
396	0.32
397	0.319
397	0.319
398	0.318
398	0.318
399	0.317
399	0.317
400	0.317
400	0.316
400	0.316
401	0.315
401	0.315
402	0.314
402	0.314
403	0.313
403	0.313
404	0.313
404	0.312
405	0.312
405	0.312
405	0.312
406	0.311
406	0.311
407	0.31
407	0.31
408	0.309
408	0.309
409	0.308
409	0.308
410	0.307
410	0.307
411	0.306
411	0.306
411	0.306
412	0.306
412	0.305
413	0.305
413	0.305
414	0.305
414	0.304
415	0.304
415	0.304
416	0.303
416	0.303
416	0.303
417	0.302
417	0.302
418	0.302
418	0.301
419	0.301
419	0.3
420	0.3
420	0.299
421	0.299
421	0.299
421	0.298
422	0.298
422	0.297
423	0.297
423	0.297
424	0.296
424	0.296
425	0.296
425	0.296
426	0.295
426	0.295
427	0.294
427	0.294
427	0.294
428	0.293
428	0.293
429	0.293
429	0.292
430	0.292
430	0.292
431	0.292
431	0.291
432	0.292
432	0.291
432	0.291
433	0.291
433	0.291
434	0.291
434	0.291
435	0.291
435	0.291
436	0.291
436	0.291
437	0.29
437	0.29
437	0.29
438	0.289
438	0.289
439	0.289
439	0.289
440	0.289
440	0.288
441	0.288
441	0.288
442	0.288
442	0.288
442	0.288
443	0.288
443	0.287
444	0.287
444	0.287
445	0.287
445	0.287
446	0.287
446	0.287
447	0.286
447	0.286
447	0.286
448	0.286
448	0.286
449	0.286
449	0.286
450	0.286
450	0.286
451	0.286
451	0.286
452	0.286
452	0.286
452	0.286
453	0.286
453	0.286
454	0.286
454	0.286
455	0.286
455	0.286
456	0.286
456	0.286
457	0.286
457	0.286
458	0.286
458	0.285
458	0.286
459	0.285
459	0.285
460	0.285
460	0.285
461	0.285
461	0.285
462	0.285
462	0.285
463	0.285
463	0.285
463	0.285
464	0.285
464	0.285
465	0.286
465	0.286
466	0.286
466	0.286
467	0.286
467	0.287
467	0.287
468	0.287
468	0.288
469	0.288
469	0.288
470	0.289
470	0.289
471	0.29
471	0.29
472	0.291
472	0.291
472	0.291
473	0.292
473	0.292
474	0.293
474	0.293
475	0.293
475	0.294
476	0.294
476	0.295
477	0.295
477	0.296
477	0.297
478	0.297
478	0.298
479	0.298
479	0.299
480	0.299
480	0.3
481	0.301
481	0.301
482	0.302
482	0.303
482	0.303
483	0.304
483	0.305
484	0.306
484	0.306
485	0.307
485	0.307
486	0.308
486	0.309
487	0.309
487	0.31
487	0.311
488	0.312
488	0.313
489	0.314
489	0.316
490	0.317
490	0.318
491	0.32
491	0.321
492	0.322
492	0.323
492	0.324
493	0.325
493	0.326
494	0.328
494	0.329
495	0.33
495	0.331
496	0.333
496	0.335
496	0.336
497	0.337
497	0.338
498	0.34
498	0.341
499	0.343
499	0.344
500	0.346
500	0.347
501	0.348
501	0.349
501	0.35
502	0.351
502	0.353
503	0.354
503	0.355
504	0.356
504	0.357
505	0.359
505	0.36
506	0.361
506	0.363
506	0.364
507	0.365
507	0.366
508	0.367
508	0.369
509	0.37
509	0.371
510	0.372
510	0.373
511	0.375
511	0.376
511	0.377
512	0.378
512	0.38
513	0.381
513	0.382
514	0.382
514	0.383
515	0.384
515	0.385
515	0.385
516	0.386
516	0.387
517	0.388
517	0.388
518	0.388
518	0.389
519	0.389
519	0.389
520	0.389
520	0.389
520	0.389
521	0.389
521	0.389
522	0.388
522	0.388
523	0.388
523	0.388
524	0.387
524	0.387
524	0.387
525	0.387
525	0.386
526	0.386
526	0.385
527	0.385
527	0.384
528	0.383
528	0.383
529	0.382
529	0.381
529	0.38
530	0.379
530	0.378
531	0.377
531	0.376
532	0.374
532	0.373
533	0.372
533	0.37
533	0.369
534	0.368
534	0.366
535	0.365
535	0.364
536	0.362
536	0.36
537	0.359
537	0.357
538	0.356
538	0.354
538	0.352
539	0.35
539	0.348
540	0.346
540	0.344
541	0.342
541	0.34
542	0.338
542	0.336
542	0.333
543	0.331
543	0.329
544	0.327
544	0.325
545	0.324
545	0.322
546	0.32
546	0.317
547	0.315
547	0.313
547	0.311
548	0.309
548	0.307
549	0.305
549	0.302
550	0.3
550	0.298
551	0.296
551	0.293
551	0.291
552	0.289
552	0.287
553	0.285
553	0.283
554	0.28
554	0.278
555	0.276
555	0.273
556	0.271
556	0.269
556	0.267
557	0.265
557	0.264
558	0.262
558	0.26
559	0.258
559	0.256
560	0.254
560	0.253
560	0.251
561	0.249
561	0.247
562	0.245
562	0.243
563	0.24
563	0.238
564	0.236
564	0.234
564	0.233
565	0.231
565	0.229
566	0.227
566	0.226
567	0.224
567	0.223
568	0.221
568	0.219
568	0.218
569	0.216
569	0.215
570	0.213
570	0.21
571	0.209
571	0.207
572	0.206
572	0.204
573	0.203
573	0.201
573	0.2
574	0.198
574	0.197
575	0.196
575	0.195
576	0.194
576	0.193
577	0.191
577	0.19
577	0.189
578	0.188
578	0.187
579	0.186
579	0.185
580	0.183
580	0.181
581	0.18
581	0.179
581	0.178
582	0.177
582	0.177
583	0.176
583	0.175
584	0.173
584	0.171
585	0.17
585	0.169
585	0.168
586	0.167
586	0.166
587	0.164
587	0.163
588	0.162
588	0.161
589	0.16
589	0.159
590	0.158
590	0.158
590	0.158
591	0.157
591	0.156
592	0.155
592	0.154
593	0.153
593	0.153
594	0.152
594	0.151
594	0.15
595	0.149
595	0.148
596	0.147
596	0.146
597	0.147
597	0.146
598	0.145
598	0.145
598	0.144
599	0.143
599	0.143
600	0.142
600	0.141
601	0.14
601	0.139
602	0.138
602	0.138
602	0.137
603	0.136
603	0.136
604	0.136
604	0.135
605	0.135
605	0.135
606	0.134
606	0.133
606	0.132
607	0.132
607	0.131
608	0.13
608	0.129
609	0.128
609	0.128
610	0.127
610	0.126
610	0.126
611	0.125
611	0.125
612	0.125
612	0.125
613	0.125
613	0.125
614	0.124
614	0.123
614	0.123
615	0.123
615	0.122
616	0.122
616	0.122
617	0.121
617	0.121
618	0.12
618	0.12
618	0.12
619	0.12
619	0.12
620	0.12
620	0.12
621	0.119
621	0.118
622	0.118
622	0.117
622	0.116
623	0.115
623	0.114
624	0.114
624	0.113
625	0.112
625	0.111
626	0.111
626	0.11
626	0.11
627	0.11
627	0.11
628	0.109
628	0.109
629	0.108
629	0.108
630	0.107
630	0.107
630	0.106
631	0.106
631	0.105
632	0.105
632	0.104
633	0.104
633	0.104
634	0.104
634	0.105
634	0.105
635	0.104
635	0.104
636	0.104
636	0.104
637	0.103
637	0.103
638	0.103
638	0.102
638	0.102
639	0.101
639	0.101
640	0.1
640	0.1
641	0.1
641	0.099
642	0.099
642	0.099
642	0.099
643	0.098
643	0.098
644	0.098
644	0.098
645	0.098
645	0.098
646	0.098
646	0.097
646	0.097
647	0.097
647	0.096
648	0.096
648	0.095
649	0.095
649	0.094
650	0.094
650	0.094
650	0.094
651	0.093
651	0.093
652	0.093
652	0.092
653	0.093
653	0.094
653	0.101
654	0.081
654	0.066
655	0.064
655	0.064
656	0.064
656	0.064
657	0.065
657	0.065
657	0.065
658	0.064
658	0.056
659	0.07
659	0.088
660	0.093
660	0.093
661	0.092
661	0.092
661	0.091
662	0.091
662	0.09
663	0.09
663	0.089
664	0.089
664	0.088
665	0.088
665	0.088
665	0.088
666	0.088
666	0.088
667	0.088
667	0.088
668	0.088
668	0.089
669	0.089
669	0.09
669	0.09
670	0.091
670	0.091
671	0.091
671	0.091
672	0.09
672	0.09
672	0.09
673	0.089
673	0.089
674	0.088
674	0.088
675	0.087
675	0.086
676	0.086
676	0.086
676	0.086
677	0.086
677	0.085
678	0.085
678	0.084
679	0.083
679	0.083
680	0.083
680	0.083
680	0.083
681	0.083
681	0.083
682	0.083
682	0.083
683	0.083
683	0.084
684	0.084
684	0.084
684	0.084
685	0.084
685	0.084
686	0.084
686	0.084
687	0.084
687	0.084
687	0.084
688	0.084
688	0.083
689	0.084
689	0.084
690	0.083
690	0.083
691	0.082
691	0.083
691	0.082
692	0.082
692	0.082
693	0.082
693	0.082
694	0.082
694	0.081
695	0.082
695	0.083
695	0.083
696	0.083
696	0.082
697	0.082
697	0.082
698	0.081
698	0.081
698	0.081
699	0.081
699	0.08
700	0.079
700	0.079
701	0.08
701	0.08
702	0.08
702	0.08
702	0.08
703	0.08
703	0.08
704	0.079
704	0.079
705	0.079
705	0.079
705	0.079
706	0.079
706	0.079
707	0.079
707	0.079
708	0.08
708	0.08
709	0.08
709	0.08
709	0.079
710	0.079
710	0.079
711	0.078
711	0.078
712	0.078
712	0.077
713	0.077
713	0.077
713	0.077
714	0.076
714	0.076
715	0.076
715	0.076
716	0.076
716	0.076
716	0.075
717	0.074
717	0.074
718	0.073
718	0.073
719	0.073
719	0.073
720	0.073
720	0.073
720	0.074
721	0.074
721	0.075
722	0.075
722	0.075
723	0.076
723	0.076
723	0.076
724	0.076
724	0.076
725	0.075
725	0.074
726	0.074
726	0.073
727	0.072
727	0.072
727	0.071
728	0.071
728	0.07
729	0.07
729	0.07
730	0.07
730	0.07
730	0.07
731	0.07
731	0.07
732	0.071
732	0.071
733	0.071
733	0.071
734	0.071
734	0.071
734	0.072
735	0.072
735	0.072
736	0.072
736	0.072
737	0.072
737	0.073
737	0.073
738	0.072
738	0.071
739	0.071
739	0.07
740	0.069
740	0.069
741	0.069
741	0.069
741	0.068
742	0.068
742	0.068
743	0.069
743	0.07
744	0.07
744	0.07
744	0.071
745	0.071
745	0.071
746	0.071
746	0.071
747	0.071
747	0.071
748	0.071
748	0.071
748	0.07
749	0.07
749	0.07
750	0.069
750	0.069
751	0.068
751	0.068
751	0.068
752	0.067
752	0.066
753	0.066
753	0.065
754	0.064
754	0.064
754	0.063
755	0.063
755	0.063
756	0.062
756	0.061
757	0.061
757	0.061
758	0.061
758	0.061
758	0.061
759	0.062
759	0.062
760	0.062
760	0.062
761	0.062
761	0.063
761	0.063
762	0.063
762	0.063
763	0.063
763	0.062
764	0.061
764	0.061
764	0.06
765	0.06
765	0.059
766	0.059
766	0.059
767	0.058
767	0.058
768	0.057
768	0.056
768	0.056
769	0.056
769	0.056
770	0.056
770	0.057
771	0.057
771	0.057
771	0.057
772	0.058
772	0.059
773	0.059
773	0.059
774	0.06
774	0.06
775	0.061
775	0.061
775	0.061
776	0.061
776	0.061
777	0.061
777	0.061
778	0.061
778	0.06
778	0.06
779	0.06
779	0.06
780	0.059
780	0.059
781	0.059
781	0.058
781	0.058
782	0.058
782	0.059
783	0.059
783	0.06
784	0.06
784	0.06
784	0.061
785	0.061
785	0.062
786	0.062
786	0.062
787	0.062
787	0.061
788	0.06
788	0.059
788	0.058
789	0.056
789	0.055
790	0.055
790	0.053
791	0.052
791	0.051
791	0.05
792	0.051
792	0.051
793	0.05
793	0.05
794	0.05
794	0.05
794	0.05
795	0.05
795	0.05
796	0.051
796	0.051
797	0.05
797	0.051
797	0.051
798	0.051
798	0.051
799	0.052
799	0.052
800	0.052
800	0.051
801	0.051
801	0.052
801	0.052
802	0.052
802	0.052
803	0.052
803	0.052
804	0.052
804	0.053
804	0.053
805	0.053
805	0.052
806	0.052
806	0.051
807	0.051
807	0.051
807	0.051
808	0.051
808	0.051
809	0.05
809	0.051
810	0.051
810	0.051
810	0.051
811	0.051
811	0.052
812	0.053
812	0.053
813	0.053
813	0.053
813	0.054
814	0.054
814	0.055
815	0.055
815	0.056
816	0.056
816	0.055
817	0.055
817	0.055
817	0.054
818	0.054
818	0.054
819	0.053
819	0.052
820	0.052
820	0.051
820	0.051
821	0.051
821	0.051
822	0.05
822	0.05
823	0.05
823	0.05
823	0.05
824	0.051
824	0.052
825	0.052
825	0.053
826	0.053
826	0.053
826	0.053
827	0.053
827	0.053
828	0.053
828	0.053
829	0.053
829	0.053
829	0.053
830	0.053
830	0.053
831	0.054
831	0.054
832	0.053
832	0.054
832	0.054
833	0.054
833	0.053
834	0.053
834	0.053
835	0.053
835	0.053
835	0.053
836	0.053
836	0.053
837	0.053
837	0.053
838	0.053
838	0.053
839	0.053
839	0.052
839	0.051
840	0.05
840	0.049
841	0.048
841	0.047
842	0.046
842	0.045
842	0.044
843	0.043
843	0.042
844	0.041
844	0.04
845	0.039
845	0.039
845	0.038
846	0.037
846	0.037
847	0.037
847	0.037
848	0.038
848	0.039
848	0.04
849	0.041
849	0.042
850	0.043
850	0.044
851	0.045
851	0.046
851	0.046
852	0.046
852	0.046
853	0.045
853	0.045
854	0.045
854	0.045
854	0.045
855	0.045
855	0.045
856	0.045
856	0.045
857	0.045
857	0.046
857	0.046
858	0.046
858	0.046
859	0.046
859	0.045
860	0.045
860	0.044
860	0.043
861	0.043
861	0.042
862	0.041
862	0.04
863	0.04
863	0.039
863	0.039
864	0.039
864	0.04
865	0.04
865	0.041
866	0.041
866	0.042
866	0.042
867	0.043
867	0.044
868	0.045
868	0.046
869	0.046
869	0.046
869	0.046
870	0.046
870	0.047
871	0.047
871	0.047
872	0.047
872	0.047
872	0.047
873	0.047
873	0.046
874	0.046
874	0.046
875	0.046
875	0.045
875	0.045
876	0.044
876	0.044
877	0.044
877	0.043
878	0.043
878	0.043
878	0.043
879	0.043
879	0.043
880	0.043
880	0.043
881	0.044
881	0.044
881	0.044
882	0.044
882	0.044
883	0.044
883	0.045
884	0.045
884	0.045
884	0.045
885	0.044
885	0.044
886	0.043
886	0.043
887	0.042
887	0.041
887	0.04
888	0.039
888	0.039
889	0.038
889	0.037
890	0.037
890	0.037
890	0.037
891	0.037
891	0.037
892	0.037
892	0.036
893	0.036
893	0.036
893	0.036
894	0.036
894	0.036
895	0.036
895	0.036
895	0.036
896	0.037
896	0.037
897	0.037
897	0.038
898	0.038
898	0.038
898	0.038
899	0.039
899	0.039
900	0.038
900	0.038
901	0.038
901	0.038
901	0.037
902	0.037
902	0.036
903	0.036
903	0.035
904	0.035
904	0.035
904	0.035
905	0.035
905	0.035
906	0.035
906	0.035
907	0.035
907	0.036
907	0.036
908	0.036
908	0.036
909	0.036
909	0.036
910	0.036
910	0.036
910	0.036
911	0.035
911	0.035
912	0.035
912	0.035
913	0.035
913	0.035
913	0.036
914	0.036
914	0.036
915	0.037
915	0.037
916	0.037
916	0.038
916	0.038
917	0.038
917	0.038
918	0.038
918	0.038
918	0.038
919	0.038
919	0.037
920	0.037
920	0.038
921	0.037
921	0.037
921	0.037
922	0.037
922	0.037
923	0.038
923	0.038
924	0.038
924	0.039
924	0.039
925	0.04
925	0.04
926	0.041
926	0.041
927	0.042
927	0.042
927	0.042
928	0.042
928	0.042
929	0.041
929	0.041
930	0.04
930	0.039
930	0.038
931	0.038
931	0.037
932	0.036
932	0.036
933	0.036
933	0.035
933	0.035
934	0.035
934	0.036
935	0.036
935	0.036
935	0.036
936	0.036
936	0.036
937	0.036
937	0.036
938	0.036
938	0.036
938	0.036
939	0.036
939	0.035
940	0.035
940	0.035
941	0.035
941	0.034
941	0.035
942	0.035
942	0.034
943	0.034
943	0.034
944	0.034
944	0.034
944	0.034
945	0.034
945	0.035
946	0.035
946	0.035
946	0.036
947	0.036
947	0.037
948	0.037
948	0.038
949	0.038
949	0.038
949	0.038
950	0.038
950	0.039
951	0.039
951	0.039
952	0.038
952	0.038
952	0.038
953	0.038
953	0.038
954	0.038
954	0.038
955	0.037
955	0.037
955	0.037
956	0.037
956	0.037
957	0.037
957	0.038
957	0.038
958	0.038
958	0.039
959	0.039
959	0.039
960	0.039
960	0.04
960	0.04
961	0.04
961	0.04
962	0.04
962	0.04
963	0.04
963	0.04
963	0.041
964	0.041
964	0.041
965	0.041
965	0.041
966	0.041
966	0.041
966	0.042
967	0.042
967	0.041
968	0.042
968	0.041
968	0.041
969	0.04
969	0.04
970	0.039
970	0.038
971	0.038
971	0.037
971	0.036
972	0.036
972	0.035
973	0.034
973	0.034
974	0.034
974	0.034
974	0.034
975	0.034
975	0.035
976	0.035
976	0.036
976	0.036
977	0.036
977	0.035
978	0.035
978	0.035
979	0.034
979	0.034
979	0.033
980	0.033
980	0.032
981	0.031
981	0.031
982	0.03
982	0.03
982	0.03
983	0.03
983	0.03
984	0.031
984	0.031
984	0.031
985	0.031
985	0.032
986	0.032
986	0.032
987	0.032
987	0.032
987	0.032
988	0.032
988	0.032
989	0.032
989	0.031
990	0.031
990	0.031
990	0.031
991	0.031
991	0.031
992	0.03
992	0.03
992	0.03
993	0.03
993	0.029
994	0.029
994	0.029
995	0.029
995	0.028
995	0.028
996	0.029
996	0.029
997	0.029
997	0.03
997	0.03
998	0.031
998	0.031
999	0.032
999	0.033
1000	0.034
1000	0.034
1000	0.035
1001	0.035
1001	0.035
1002	0.035
1002	0.035
1003	0.034
1003	0.034
1003	0.033
1004	0.032
1004	0.032
1005	0.031
1005	0.03
1005	0.03
1006	0.029
1006	0.029
1007	0.029
1007	0.029
1008	0.029
1008	0.029
1008	0.029
1009	0.03
1009	0.03
1010	0.03
1010	0.031
1010	0.031
1011	0.031
1011	0.031
1012	0.032
1012	0.032
1013	0.032
1013	0.032
1013	0.032
1014	0.031
1014	0.031
1015	0.031
1015	0.032
1016	0.031
1016	0.031
1016	0.031
1017	0.03
1017	0.03
1018	0.03
1018	0.029
1018	0.029
1019	0.029
1019	0.028
1020	0.028
1020	0.027
1021	0.027
1021	0.027
1021	0.027
1022	0.027
1022	0.027
1023	0.028
1023	0.028
1023	0.028
1024	0.029
1024	0.029
1025	0.029
1025	0.029
1026	0.029
1026	0.029
1026	0.029
1027	0.029
1027	0.029
1028	0.03
1028	0.03
1028	0.03
1029	0.03
1029	0.03
1030	0.03
1030	0.031
1031	0.031
1031	0.031
1031	0.032
1032	0.032
1032	0.032
1033	0.032
1033	0.032
1033	0.033
1034	0.033
1034	0.033
1035	0.032
1035	0.032
1036	0.033
1036	0.032
1036	0.033
1037	0.033
1037	0.033
1038	0.033
1038	0.033
1039	0.033
1039	0.033
1039	0.034
1040	0.034
1040	0.034
1041	0.035
1041	0.035
1041	0.035
1042	0.035
1042	0.035
1043	0.035
1043	0.035
1044	0.035
1044	0.035
1044	0.035
1045	0.035
1045	0.035
1046	0.035
1046	0.035
1046	0.035
1047	0.035
1047	0.035
1048	0.035
1048	0.035
1049	0.035
1049	0.035
1049	0.034
1050	0.034
1050	0.033
1051	0.033
1051	0.033
1051	0.032
1052	0.032
1052	0.031
1053	0.03
1053	0.03
1053	0.029
1054	0.029
1054	0.029
1055	0.029
1055	0.029
1056	0.029
1056	0.028
1056	0.028
1057	0.028
1057	0.027
1058	0.027
1058	0.026
1058	0.026
1059	0.025
1059	0.025
1060	0.024
1060	0.023
1061	0.023
1061	0.023
1061	0.023
1062	0.023
1062	0.022
1063	0.022
1063	0.022
1063	0.022
1064	0.022
1064	0.022
1065	0.022
1065	0.022
1066	0.022
1066	0.022
1066	0.021
1067	0.021
1067	0.021
1068	0.021
1068	0.021
1068	0.021
1069	0.021
1069	0.02
1070	0.02
1070	0.019
1071	0.019
1071	0.019
1071	0.018
1072	0.018
1072	0.018
1073	0.017
1073	0.017
1073	0.016
1074	0.016
1074	0.016
1075	0.016
1075	0.016
1076	0.016
1076	0.017
1076	0.017
1077	0.017
1077	0.017
1078	0.016
1078	0.017
1078	0.017
1079	0.016
1079	0.016
1080	0.015
1080	0.015
1080	0.015
1081	0.015
1081	0.015
1082	0.016
1082	0.016
1083	0.016
1083	0.016
1083	0.016
1084	0.016
1084	0.016
1085	0.016
1085	0.016
1085	0.016
1086	0.016
1086	0.015
1087	0.015
1087	0.015
1088	0.014
1088	0.014
1088	0.015
1089	0.015
1089	0.014
1090	0.014
1090	0.013
1090	0.012
1091	0.013
1091	0.012
1092	0.013
1092	0.013
1092	0.013
1093	0.013
1093	0.013
1094	0.013
1094	0.014
1095	0.013
1095	0.013
1095	0.013
1096	0.013
1096	0.012
1097	0.011
1097	0.01
1097	0.01
1098	0.009
1098	0.007
1099	0.006
1099	0.005
1100	0.004
1100	0.002
1100	0.001
1101	-0.001
1101	-0.002
1102	-0.003
1102	-0.005
1102	-0.006
1103	-0.007
1103	-0.007
1104	-0.008
1104	-0.008
1104	-0.009
1105	-0.009
1105	-0.012
1106	-0.013
1106	-0.014
1107	-0.014
1107	-0.015
1107	-0.016
1108	-0.018
1108	-0.019
1109	-0.02
1109	-0.021
1109	-0.021
1110	-0.019
1110	-0.021
1111	-0.021
1111	-0.024
