Data from reversibility-20sec_Absorbance__5673__000000000005673.txt Node

Date: Wed Dec 06 19:44:05 CET 2023
User: Marek
Spectrometer: MAYP115816
Trigger mode: 0
Integration Time (sec): 2.000000E-1
Scans to average: 10
Electric dark correction enabled: true
Nonlinearity correction enabled: true
Boxcar width: 5
XAxis mode: Wavelengths
Number of Pixels in Spectrum: 2068
>>>>>Begin Spectral Data<<<<<
199	-0.211
199	-0.179
200	-0.104
200	-0.054
201	-0.021
201	-0.008
202	0.004
202	0.017
203	0.026
203	0.028
204	0.042
204	0.054
205	0.066
205	0.068
205	0.066
206	0.063
206	0.066
207	0.067
207	0.065
208	0.06
208	0.059
209	0.062
209	0.062
210	0.062
210	0.065
211	0.066
211	0.068
212	0.062
212	0.063
213	0.066
213	0.069
213	0.068
214	0.07
214	0.07
215	0.072
215	0.069
216	0.07
216	0.069
217	0.074
217	0.074
218	0.074
218	0.077
219	0.082
219	0.083
220	0.085
220	0.086
221	0.088
221	0.092
221	0.098
222	0.104
222	0.107
223	0.112
223	0.116
224	0.122
224	0.131
225	0.141
225	0.152
226	0.16
226	0.169
227	0.179
227	0.191
228	0.206
228	0.219
229	0.236
229	0.259
229	0.28
230	0.303
230	0.334
231	0.367
231	0.406
232	0.445
232	0.488
233	0.53
233	0.58
234	0.629
234	0.681
235	0.734
235	0.787
236	0.839
236	0.889
236	0.941
237	0.991
237	1.039
238	1.089
238	1.136
239	1.186
239	1.229
240	1.269
240	1.307
241	1.341
241	1.378
242	1.409
242	1.44
243	1.471
243	1.499
243	1.521
244	1.541
244	1.561
245	1.581
245	1.6
246	1.619
246	1.636
247	1.65
247	1.665
248	1.678
248	1.692
249	1.703
249	1.712
250	1.72
250	1.729
250	1.734
251	1.739
251	1.744
252	1.752
252	1.756
253	1.758
253	1.758
254	1.76
254	1.762
255	1.764
255	1.765
256	1.766
256	1.765
257	1.765
257	1.763
258	1.761
258	1.759
258	1.758
259	1.757
259	1.756
260	1.754
260	1.755
261	1.755
261	1.758
262	1.759
262	1.759
263	1.763
263	1.764
264	1.765
264	1.767
265	1.768
265	1.77
265	1.769
266	1.769
266	1.77
267	1.769
267	1.77
268	1.768
268	1.769
269	1.771
269	1.77
270	1.769
270	1.767
271	1.765
271	1.765
272	1.762
272	1.759
272	1.757
273	1.753
273	1.749
274	1.744
274	1.739
275	1.734
275	1.729
276	1.723
276	1.715
277	1.708
277	1.7
278	1.69
278	1.678
278	1.664
279	1.651
279	1.635
280	1.616
280	1.593
281	1.565
281	1.534
282	1.501
282	1.467
283	1.431
283	1.396
284	1.362
284	1.327
285	1.294
285	1.262
285	1.234
286	1.209
286	1.187
287	1.167
287	1.15
288	1.135
288	1.122
289	1.11
289	1.1
290	1.092
290	1.084
291	1.078
291	1.072
292	1.066
292	1.061
292	1.057
293	1.052
293	1.048
294	1.044
294	1.04
295	1.036
295	1.033
296	1.029
296	1.025
297	1.022
297	1.019
298	1.015
298	1.012
298	1.009
299	1.005
299	1.002
300	0.999
300	0.996
301	0.994
301	0.991
302	0.988
302	0.985
303	0.983
303	0.98
304	0.977
304	0.975
305	0.972
305	0.969
305	0.966
306	0.964
306	0.961
307	0.958
307	0.955
308	0.952
308	0.949
309	0.946
309	0.943
310	0.94
310	0.937
311	0.933
311	0.93
311	0.926
312	0.923
312	0.92
313	0.916
313	0.912
314	0.908
314	0.904
315	0.899
315	0.895
316	0.89
316	0.886
317	0.882
317	0.877
318	0.871
318	0.866
318	0.861
319	0.856
319	0.851
320	0.845
320	0.839
321	0.833
321	0.827
322	0.821
322	0.814
323	0.808
323	0.802
324	0.796
324	0.789
324	0.782
325	0.775
325	0.769
326	0.762
326	0.755
327	0.748
327	0.742
328	0.735
328	0.728
329	0.721
329	0.714
330	0.707
330	0.7
330	0.694
331	0.687
331	0.68
332	0.673
332	0.666
333	0.659
333	0.652
334	0.646
334	0.639
335	0.632
335	0.625
336	0.619
336	0.612
336	0.606
337	0.599
337	0.593
338	0.587
338	0.581
339	0.575
339	0.569
340	0.563
340	0.558
341	0.552
341	0.547
342	0.541
342	0.536
342	0.531
343	0.526
343	0.52
344	0.515
344	0.511
345	0.506
345	0.501
346	0.497
346	0.493
347	0.488
347	0.484
348	0.48
348	0.476
348	0.472
349	0.468
349	0.464
350	0.461
350	0.457
351	0.454
351	0.45
352	0.447
352	0.444
353	0.441
353	0.438
354	0.435
354	0.432
354	0.429
355	0.426
355	0.423
356	0.42
356	0.417
357	0.414
357	0.411
358	0.408
358	0.406
359	0.403
359	0.401
360	0.399
360	0.397
360	0.395
361	0.393
361	0.391
362	0.39
362	0.388
363	0.386
363	0.384
364	0.382
364	0.38
365	0.378
365	0.376
366	0.374
366	0.372
366	0.371
367	0.369
367	0.367
368	0.365
368	0.364
369	0.362
369	0.36
370	0.359
370	0.357
371	0.356
371	0.355
372	0.353
372	0.352
372	0.35
373	0.349
373	0.348
374	0.347
374	0.346
375	0.345
375	0.344
376	0.343
376	0.342
377	0.341
377	0.34
378	0.339
378	0.338
378	0.337
379	0.336
379	0.335
380	0.334
380	0.334
381	0.333
381	0.332
382	0.331
382	0.33
383	0.33
383	0.329
383	0.328
384	0.327
384	0.327
385	0.326
385	0.325
386	0.325
386	0.324
387	0.323
387	0.323
388	0.322
388	0.321
389	0.321
389	0.321
389	0.32
390	0.32
390	0.319
391	0.319
391	0.318
392	0.318
392	0.318
393	0.317
393	0.317
394	0.316
394	0.315
394	0.315
395	0.314
395	0.314
396	0.313
396	0.313
397	0.312
397	0.312
398	0.311
398	0.311
399	0.31
399	0.31
400	0.31
400	0.309
400	0.309
401	0.308
401	0.308
402	0.308
402	0.307
403	0.307
403	0.307
404	0.306
404	0.306
405	0.306
405	0.305
405	0.305
406	0.304
406	0.304
407	0.303
407	0.303
408	0.303
408	0.302
409	0.302
409	0.301
410	0.301
410	0.301
411	0.3
411	0.3
411	0.3
412	0.3
412	0.299
413	0.298
413	0.298
414	0.298
414	0.298
415	0.297
415	0.297
416	0.297
416	0.297
416	0.296
417	0.296
417	0.295
418	0.295
418	0.295
419	0.294
419	0.294
420	0.293
420	0.293
421	0.292
421	0.292
421	0.292
422	0.291
422	0.291
423	0.291
423	0.29
424	0.29
424	0.29
425	0.29
425	0.289
426	0.289
426	0.289
427	0.288
427	0.288
427	0.288
428	0.287
428	0.287
429	0.287
429	0.286
430	0.286
430	0.286
431	0.286
431	0.286
432	0.286
432	0.286
432	0.285
433	0.285
433	0.285
434	0.285
434	0.285
435	0.284
435	0.284
436	0.284
436	0.284
437	0.283
437	0.283
437	0.283
438	0.282
438	0.282
439	0.282
439	0.282
440	0.282
440	0.282
441	0.282
441	0.281
442	0.281
442	0.281
442	0.281
443	0.281
443	0.281
444	0.281
444	0.28
445	0.28
445	0.28
446	0.28
446	0.28
447	0.28
447	0.28
447	0.28
448	0.28
448	0.28
449	0.28
449	0.28
450	0.28
450	0.28
451	0.28
451	0.279
452	0.28
452	0.28
452	0.28
453	0.28
453	0.28
454	0.28
454	0.279
455	0.279
455	0.279
456	0.279
456	0.279
457	0.279
457	0.279
458	0.279
458	0.279
458	0.279
459	0.279
459	0.279
460	0.279
460	0.279
461	0.279
461	0.279
462	0.28
462	0.279
463	0.279
463	0.279
463	0.279
464	0.28
464	0.279
465	0.279
465	0.279
466	0.28
466	0.28
467	0.28
467	0.28
467	0.28
468	0.28
468	0.281
469	0.281
469	0.282
470	0.282
470	0.283
471	0.283
471	0.284
472	0.284
472	0.285
472	0.285
473	0.286
473	0.286
474	0.286
474	0.287
475	0.287
475	0.287
476	0.288
476	0.288
477	0.289
477	0.289
477	0.29
478	0.29
478	0.29
479	0.291
479	0.291
480	0.292
480	0.292
481	0.293
481	0.293
482	0.294
482	0.294
482	0.295
483	0.296
483	0.297
484	0.298
484	0.298
485	0.299
485	0.299
486	0.3
486	0.301
487	0.301
487	0.302
487	0.303
488	0.304
488	0.305
489	0.306
489	0.308
490	0.309
490	0.31
491	0.312
491	0.313
492	0.314
492	0.315
492	0.316
493	0.318
493	0.319
494	0.32
494	0.321
495	0.322
495	0.323
496	0.324
496	0.325
496	0.327
497	0.328
497	0.329
498	0.33
498	0.331
499	0.333
499	0.334
500	0.336
500	0.337
501	0.339
501	0.34
501	0.341
502	0.342
502	0.343
503	0.344
503	0.346
504	0.347
504	0.348
505	0.349
505	0.35
506	0.351
506	0.352
506	0.353
507	0.355
507	0.356
508	0.357
508	0.358
509	0.359
509	0.36
510	0.361
510	0.362
511	0.364
511	0.365
511	0.366
512	0.367
512	0.368
513	0.369
513	0.37
514	0.371
514	0.372
515	0.372
515	0.373
515	0.374
516	0.374
516	0.375
517	0.376
517	0.376
518	0.377
518	0.377
519	0.377
519	0.378
520	0.378
520	0.378
520	0.378
521	0.377
521	0.377
522	0.377
522	0.377
523	0.377
523	0.377
524	0.376
524	0.376
524	0.376
525	0.376
525	0.375
526	0.375
526	0.375
527	0.374
527	0.373
528	0.373
528	0.372
529	0.371
529	0.371
529	0.37
530	0.369
530	0.368
531	0.367
531	0.366
532	0.365
532	0.363
533	0.362
533	0.36
533	0.359
534	0.357
534	0.356
535	0.355
535	0.353
536	0.352
536	0.35
537	0.349
537	0.347
538	0.346
538	0.344
538	0.342
539	0.341
539	0.339
540	0.338
540	0.336
541	0.334
541	0.332
542	0.33
542	0.328
542	0.326
543	0.324
543	0.322
544	0.32
544	0.318
545	0.316
545	0.314
546	0.313
546	0.31
547	0.308
547	0.306
547	0.304
548	0.302
548	0.3
549	0.298
549	0.296
550	0.294
550	0.292
551	0.29
551	0.288
551	0.285
552	0.283
552	0.281
553	0.279
553	0.277
554	0.275
554	0.273
555	0.27
555	0.268
556	0.266
556	0.264
556	0.262
557	0.261
557	0.259
558	0.258
558	0.256
559	0.255
559	0.253
560	0.251
560	0.25
560	0.248
561	0.246
561	0.244
562	0.242
562	0.24
563	0.238
563	0.236
564	0.234
564	0.232
564	0.231
565	0.229
565	0.227
566	0.226
566	0.224
567	0.222
567	0.221
568	0.219
568	0.218
568	0.216
569	0.214
569	0.213
570	0.211
570	0.209
571	0.208
571	0.206
572	0.205
572	0.203
573	0.202
573	0.2
573	0.199
574	0.197
574	0.196
575	0.195
575	0.195
576	0.194
576	0.192
577	0.191
577	0.189
577	0.189
578	0.187
578	0.186
579	0.185
579	0.184
580	0.183
580	0.181
581	0.179
581	0.178
581	0.177
582	0.177
582	0.176
583	0.176
583	0.175
584	0.173
584	0.171
585	0.17
585	0.169
585	0.168
586	0.167
586	0.166
587	0.165
587	0.163
588	0.162
588	0.161
589	0.16
589	0.16
590	0.159
590	0.159
590	0.159
591	0.158
591	0.157
592	0.157
592	0.156
593	0.155
593	0.154
594	0.154
594	0.152
594	0.151
595	0.151
595	0.15
596	0.149
596	0.148
597	0.148
597	0.148
598	0.147
598	0.147
598	0.146
599	0.145
599	0.144
600	0.143
600	0.143
601	0.142
601	0.142
602	0.141
602	0.14
602	0.139
603	0.138
603	0.138
604	0.138
604	0.138
605	0.137
605	0.137
606	0.136
606	0.135
606	0.135
607	0.134
607	0.134
608	0.133
608	0.132
609	0.131
609	0.131
610	0.13
610	0.129
610	0.129
611	0.129
611	0.128
612	0.128
612	0.128
613	0.128
613	0.128
614	0.127
614	0.126
614	0.126
615	0.126
615	0.125
616	0.125
616	0.125
617	0.124
617	0.124
618	0.123
618	0.123
618	0.122
619	0.122
619	0.122
620	0.123
620	0.122
621	0.122
621	0.121
622	0.12
622	0.12
622	0.119
623	0.118
623	0.118
624	0.117
624	0.117
625	0.115
625	0.115
626	0.114
626	0.114
626	0.114
627	0.113
627	0.113
628	0.112
628	0.112
629	0.111
629	0.111
630	0.111
630	0.11
630	0.11
631	0.11
631	0.109
632	0.109
632	0.109
633	0.108
633	0.108
634	0.109
634	0.109
634	0.109
635	0.108
635	0.108
636	0.108
636	0.108
637	0.107
637	0.107
638	0.107
638	0.106
638	0.106
639	0.105
639	0.105
640	0.105
640	0.104
641	0.104
641	0.104
642	0.104
642	0.104
642	0.104
643	0.104
643	0.103
644	0.103
644	0.103
645	0.103
645	0.103
646	0.103
646	0.103
646	0.102
647	0.101
647	0.101
648	0.1
648	0.1
649	0.099
649	0.099
650	0.099
650	0.099
650	0.099
651	0.099
651	0.099
652	0.098
652	0.098
653	0.099
653	0.1
653	0.107
654	0.086
654	0.07
655	0.067
655	0.067
656	0.067
656	0.067
657	0.068
657	0.068
657	0.068
658	0.067
658	0.059
659	0.074
659	0.093
660	0.099
660	0.099
661	0.099
661	0.098
661	0.097
662	0.097
662	0.096
663	0.096
663	0.095
664	0.095
664	0.094
665	0.094
665	0.094
665	0.094
666	0.094
666	0.095
667	0.095
667	0.095
668	0.095
668	0.095
669	0.096
669	0.096
669	0.096
670	0.097
670	0.096
671	0.096
671	0.095
672	0.095
672	0.094
672	0.094
673	0.094
673	0.094
674	0.093
674	0.092
675	0.092
675	0.091
676	0.092
676	0.092
676	0.092
677	0.092
677	0.091
678	0.091
678	0.09
679	0.089
679	0.089
680	0.089
680	0.089
680	0.088
681	0.088
681	0.088
682	0.089
682	0.089
683	0.09
683	0.09
684	0.091
684	0.091
684	0.091
685	0.091
685	0.092
686	0.092
686	0.091
687	0.091
687	0.091
687	0.091
688	0.09
688	0.09
689	0.09
689	0.09
690	0.09
690	0.089
691	0.089
691	0.089
691	0.089
692	0.089
692	0.089
693	0.089
693	0.089
694	0.089
694	0.089
695	0.089
695	0.09
695	0.09
696	0.09
696	0.09
697	0.09
697	0.09
698	0.09
698	0.09
698	0.09
699	0.09
699	0.09
700	0.089
700	0.09
701	0.09
701	0.09
702	0.09
702	0.089
702	0.089
703	0.089
703	0.088
704	0.088
704	0.088
705	0.088
705	0.087
705	0.087
706	0.087
706	0.087
707	0.087
707	0.087
708	0.087
708	0.087
709	0.087
709	0.087
709	0.086
710	0.086
710	0.086
711	0.086
711	0.086
712	0.086
712	0.085
713	0.085
713	0.085
713	0.084
714	0.084
714	0.084
715	0.083
715	0.083
716	0.082
716	0.082
716	0.082
717	0.081
717	0.081
718	0.08
718	0.08
719	0.08
719	0.08
720	0.081
720	0.081
720	0.081
721	0.081
721	0.082
722	0.082
722	0.082
723	0.082
723	0.083
723	0.083
724	0.082
724	0.082
725	0.081
725	0.08
726	0.08
726	0.079
727	0.078
727	0.078
727	0.078
728	0.077
728	0.077
729	0.077
729	0.077
730	0.077
730	0.077
730	0.077
731	0.078
731	0.078
732	0.079
732	0.079
733	0.079
733	0.079
734	0.079
734	0.079
734	0.08
735	0.08
735	0.08
736	0.079
736	0.079
737	0.078
737	0.078
737	0.078
738	0.077
738	0.076
739	0.075
739	0.075
740	0.075
740	0.074
741	0.075
741	0.075
741	0.075
742	0.074
742	0.075
743	0.076
743	0.077
744	0.078
744	0.078
744	0.078
745	0.079
745	0.078
746	0.078
746	0.079
747	0.078
747	0.078
748	0.078
748	0.078
748	0.077
749	0.077
749	0.077
750	0.077
750	0.076
751	0.076
751	0.076
751	0.075
752	0.074
752	0.073
753	0.073
753	0.072
754	0.071
754	0.071
754	0.071
755	0.071
755	0.071
756	0.071
756	0.07
757	0.07
757	0.07
758	0.07
758	0.071
758	0.071
759	0.071
759	0.071
760	0.071
760	0.071
761	0.071
761	0.072
761	0.072
762	0.072
762	0.072
763	0.072
763	0.071
764	0.071
764	0.07
764	0.07
765	0.069
765	0.069
766	0.068
766	0.068
767	0.068
767	0.066
768	0.065
768	0.065
768	0.066
769	0.066
769	0.066
770	0.066
770	0.067
771	0.067
771	0.067
771	0.068
772	0.069
772	0.069
773	0.07
773	0.07
774	0.07
774	0.07
775	0.07
775	0.07
775	0.069
776	0.069
776	0.069
777	0.069
777	0.069
778	0.068
778	0.068
778	0.068
779	0.068
779	0.068
780	0.067
780	0.067
781	0.067
781	0.067
781	0.067
782	0.067
782	0.067
783	0.068
783	0.068
784	0.068
784	0.068
784	0.069
785	0.069
785	0.069
786	0.07
786	0.07
787	0.069
787	0.069
788	0.068
788	0.067
788	0.066
789	0.065
789	0.064
790	0.064
790	0.063
791	0.062
791	0.061
791	0.061
792	0.061
792	0.061
793	0.061
793	0.06
794	0.06
794	0.06
794	0.059
795	0.059
795	0.06
796	0.06
796	0.06
797	0.059
797	0.059
797	0.06
798	0.06
798	0.06
799	0.06
799	0.06
800	0.059
800	0.059
801	0.059
801	0.059
801	0.059
802	0.059
802	0.059
803	0.06
803	0.06
804	0.06
804	0.061
804	0.061
805	0.06
805	0.06
806	0.059
806	0.059
807	0.058
807	0.057
807	0.057
808	0.057
808	0.056
809	0.056
809	0.056
810	0.057
810	0.057
810	0.057
811	0.058
811	0.058
812	0.059
812	0.059
813	0.06
813	0.06
813	0.061
814	0.061
814	0.062
815	0.062
815	0.062
816	0.062
816	0.062
817	0.061
817	0.061
817	0.061
818	0.061
818	0.061
819	0.06
819	0.059
820	0.058
820	0.058
820	0.057
821	0.057
821	0.057
822	0.057
822	0.057
823	0.057
823	0.056
823	0.056
824	0.057
824	0.058
825	0.058
825	0.059
826	0.059
826	0.058
826	0.059
827	0.059
827	0.059
828	0.059
828	0.059
829	0.059
829	0.06
829	0.059
830	0.059
830	0.06
831	0.06
831	0.06
832	0.06
832	0.06
832	0.06
833	0.06
833	0.06
834	0.059
834	0.059
835	0.059
835	0.058
835	0.058
836	0.058
836	0.058
837	0.057
837	0.057
838	0.057
838	0.056
839	0.056
839	0.055
839	0.054
840	0.054
840	0.053
841	0.052
841	0.051
842	0.05
842	0.049
842	0.049
843	0.048
843	0.047
844	0.047
844	0.046
845	0.046
845	0.045
845	0.045
846	0.044
846	0.044
847	0.044
847	0.045
848	0.046
848	0.046
848	0.047
849	0.048
849	0.049
850	0.05
850	0.051
851	0.051
851	0.052
851	0.052
852	0.052
852	0.051
853	0.051
853	0.051
854	0.05
854	0.05
854	0.05
855	0.05
855	0.05
856	0.05
856	0.05
857	0.05
857	0.05
857	0.051
858	0.051
858	0.05
859	0.05
859	0.049
860	0.049
860	0.049
860	0.048
861	0.048
861	0.048
862	0.048
862	0.047
863	0.047
863	0.047
863	0.047
864	0.046
864	0.046
865	0.047
865	0.047
866	0.047
866	0.047
866	0.047
867	0.048
867	0.048
868	0.049
868	0.049
869	0.05
869	0.05
869	0.05
870	0.05
870	0.05
871	0.051
871	0.051
872	0.051
872	0.05
872	0.05
873	0.05
873	0.049
874	0.048
874	0.048
875	0.047
875	0.047
875	0.046
876	0.046
876	0.045
877	0.045
877	0.045
878	0.045
878	0.045
878	0.046
879	0.046
879	0.046
880	0.046
880	0.047
881	0.047
881	0.047
881	0.048
882	0.047
882	0.048
883	0.048
883	0.048
884	0.048
884	0.048
884	0.048
885	0.048
885	0.048
886	0.047
886	0.047
887	0.046
887	0.046
887	0.045
888	0.044
888	0.043
889	0.043
889	0.042
890	0.042
890	0.042
890	0.041
891	0.041
891	0.041
892	0.041
892	0.041
893	0.041
893	0.041
893	0.04
894	0.04
894	0.04
895	0.04
895	0.04
895	0.04
896	0.041
896	0.041
897	0.042
897	0.043
898	0.043
898	0.044
898	0.044
899	0.045
899	0.045
900	0.045
900	0.045
901	0.045
901	0.045
901	0.045
902	0.044
902	0.044
903	0.044
903	0.044
904	0.044
904	0.043
904	0.043
905	0.043
905	0.043
906	0.043
906	0.043
907	0.043
907	0.043
907	0.043
908	0.043
908	0.043
909	0.043
909	0.043
910	0.043
910	0.043
910	0.042
911	0.041
911	0.041
912	0.041
912	0.04
913	0.04
913	0.04
913	0.04
914	0.04
914	0.04
915	0.041
915	0.041
916	0.042
916	0.042
916	0.042
917	0.042
917	0.042
918	0.041
918	0.041
918	0.041
919	0.041
919	0.041
920	0.041
920	0.04
921	0.04
921	0.04
921	0.04
922	0.04
922	0.04
923	0.04
923	0.04
924	0.04
924	0.041
924	0.041
925	0.042
925	0.043
926	0.043
926	0.044
927	0.044
927	0.045
927	0.045
928	0.045
928	0.045
929	0.044
929	0.044
930	0.044
930	0.043
930	0.042
931	0.042
931	0.042
932	0.041
932	0.041
933	0.041
933	0.041
933	0.041
934	0.04
934	0.04
935	0.04
935	0.04
935	0.039
936	0.039
936	0.039
937	0.039
937	0.039
938	0.039
938	0.039
938	0.039
939	0.039
939	0.038
940	0.039
940	0.039
941	0.039
941	0.039
941	0.039
942	0.04
942	0.04
943	0.039
943	0.04
944	0.04
944	0.04
944	0.04
945	0.04
945	0.04
946	0.04
946	0.04
946	0.04
947	0.04
947	0.041
948	0.041
948	0.041
949	0.041
949	0.041
949	0.041
950	0.041
950	0.041
951	0.041
951	0.041
952	0.041
952	0.041
952	0.041
953	0.041
953	0.042
954	0.042
954	0.041
955	0.041
955	0.041
955	0.041
956	0.041
956	0.041
957	0.041
957	0.041
957	0.041
958	0.041
958	0.041
959	0.04
959	0.04
960	0.04
960	0.04
960	0.039
961	0.039
961	0.039
962	0.039
962	0.039
963	0.039
963	0.039
963	0.04
964	0.04
964	0.04
965	0.041
965	0.041
966	0.041
966	0.041
966	0.041
967	0.041
967	0.042
968	0.042
968	0.042
968	0.041
969	0.041
969	0.041
970	0.04
970	0.04
971	0.039
971	0.039
971	0.038
972	0.038
972	0.037
973	0.036
973	0.036
974	0.036
974	0.036
974	0.036
975	0.036
975	0.036
976	0.037
976	0.037
976	0.037
977	0.037
977	0.038
978	0.037
978	0.037
979	0.037
979	0.037
979	0.036
980	0.036
980	0.035
981	0.034
981	0.033
982	0.033
982	0.032
982	0.032
983	0.032
983	0.032
984	0.032
984	0.032
984	0.032
985	0.032
985	0.032
986	0.032
986	0.032
987	0.033
987	0.033
987	0.033
988	0.033
988	0.033
989	0.033
989	0.032
990	0.032
990	0.032
990	0.031
991	0.031
991	0.031
992	0.03
992	0.029
992	0.029
993	0.028
993	0.027
994	0.027
994	0.026
995	0.026
995	0.025
995	0.025
996	0.025
996	0.025
997	0.026
997	0.026
997	0.027
998	0.027
998	0.028
999	0.029
999	0.03
1000	0.031
1000	0.031
1000	0.032
1001	0.032
1001	0.032
1002	0.032
1002	0.032
1003	0.032
1003	0.032
1003	0.031
1004	0.03
1004	0.029
1005	0.028
1005	0.028
1005	0.027
1006	0.026
1006	0.025
1007	0.025
1007	0.024
1008	0.024
1008	0.024
1008	0.025
1009	0.025
1009	0.026
1010	0.026
1010	0.027
1010	0.027
1011	0.028
1011	0.028
1012	0.028
1012	0.028
1013	0.028
1013	0.028
1013	0.028
1014	0.028
1014	0.028
1015	0.028
1015	0.028
1016	0.028
1016	0.028
1016	0.028
1017	0.028
1017	0.028
1018	0.029
1018	0.029
1018	0.029
1019	0.029
1019	0.029
1020	0.029
1020	0.03
1021	0.03
1021	0.03
1021	0.031
1022	0.031
1022	0.031
1023	0.032
1023	0.032
1023	0.032
1024	0.032
1024	0.032
1025	0.032
1025	0.032
1026	0.032
1026	0.032
1026	0.031
1027	0.031
1027	0.031
1028	0.03
1028	0.03
1028	0.029
1029	0.029
1029	0.029
1030	0.029
1030	0.029
1031	0.03
1031	0.03
1031	0.029
1032	0.03
1032	0.03
1033	0.031
1033	0.031
1033	0.031
1034	0.031
1034	0.031
1035	0.031
1035	0.031
1036	0.031
1036	0.031
1036	0.031
1037	0.031
1037	0.031
1038	0.031
1038	0.031
1039	0.031
1039	0.031
1039	0.031
1040	0.031
1040	0.032
1041	0.032
1041	0.031
1041	0.031
1042	0.031
1042	0.031
1043	0.031
1043	0.031
1044	0.031
1044	0.031
1044	0.031
1045	0.031
1045	0.031
1046	0.032
1046	0.032
1046	0.033
1047	0.033
1047	0.033
1048	0.034
1048	0.034
1049	0.035
1049	0.035
1049	0.035
1050	0.035
1050	0.034
1051	0.034
1051	0.033
1051	0.033
1052	0.032
1052	0.032
1053	0.031
1053	0.03
1053	0.029
1054	0.028
1054	0.028
1055	0.028
1055	0.027
1056	0.026
1056	0.026
1056	0.026
1057	0.025
1057	0.025
1058	0.025
1058	0.024
1058	0.024
1059	0.023
1059	0.023
1060	0.023
1060	0.023
1061	0.023
1061	0.022
1061	0.023
1062	0.022
1062	0.022
1063	0.022
1063	0.022
1063	0.022
1064	0.022
1064	0.022
1065	0.022
1065	0.022
1066	0.022
1066	0.022
1066	0.022
1067	0.022
1067	0.022
1068	0.022
1068	0.022
1068	0.021
1069	0.021
1069	0.021
1070	0.02
1070	0.019
1071	0.018
1071	0.018
1071	0.017
1072	0.017
1072	0.016
1073	0.015
1073	0.015
1073	0.015
1074	0.016
1074	0.016
1075	0.016
1075	0.016
1076	0.017
1076	0.018
1076	0.018
1077	0.018
1077	0.018
1078	0.018
1078	0.018
1078	0.018
1079	0.018
1079	0.018
1080	0.017
1080	0.017
1080	0.017
1081	0.017
1081	0.017
1082	0.017
1082	0.018
1083	0.018
1083	0.017
1083	0.017
1084	0.017
1084	0.018
1085	0.018
1085	0.018
1085	0.019
1086	0.019
1086	0.018
1087	0.019
1087	0.019
1088	0.019
1088	0.019
1088	0.019
1089	0.018
1089	0.018
1090	0.017
1090	0.017
1090	0.016
1091	0.015
1091	0.015
1092	0.015
1092	0.015
1092	0.015
1093	0.014
1093	0.014
1094	0.014
1094	0.014
1095	0.014
1095	0.013
1095	0.013
1096	0.013
1096	0.012
1097	0.012
1097	0.011
1097	0.012
1098	0.011
1098	0.01
1099	0.009
1099	0.008
1100	0.007
1100	0.005
1100	0.005
1101	0.003
1101	0.002
1102	0
1102	-0.001
1102	-0.002
1103	-0.003
1103	-0.004
1104	-0.005
1104	-0.005
1104	-0.006
1105	-0.007
1105	-0.009
1106	-0.011
1106	-0.012
1107	-0.013
1107	-0.014
1107	-0.016
1108	-0.016
1108	-0.017
1109	-0.018
1109	-0.019
1109	-0.019
1110	-0.019
1110	-0.019
1111	-0.019
1111	-0.022
