Data from reversibility-20sec_Absorbance__4026__000000000004026.txt Node

Date: Wed Dec 06 10:35:06 CET 2023
User: Marek
Spectrometer: MAYP115816
Trigger mode: 0
Integration Time (sec): 2.000000E-1
Scans to average: 10
Electric dark correction enabled: true
Nonlinearity correction enabled: true
Boxcar width: 5
XAxis mode: Wavelengths
Number of Pixels in Spectrum: 2068
>>>>>Begin Spectral Data<<<<<
199	-0.149
199	-0.11
200	-0.044
200	0.003
201	0.027
201	0.044
202	0.058
202	0.064
203	0.072
203	0.078
204	0.092
204	0.106
205	0.115
205	0.123
205	0.122
206	0.123
206	0.123
207	0.122
207	0.121
208	0.12
208	0.117
209	0.118
209	0.118
210	0.119
210	0.116
211	0.117
211	0.12
212	0.116
212	0.119
213	0.125
213	0.126
213	0.128
214	0.13
214	0.132
215	0.133
215	0.134
216	0.136
216	0.134
217	0.138
217	0.139
218	0.135
218	0.139
219	0.142
219	0.146
220	0.147
220	0.148
221	0.149
221	0.155
221	0.162
222	0.169
222	0.175
223	0.187
223	0.193
224	0.199
224	0.207
225	0.219
225	0.229
226	0.238
226	0.247
227	0.255
227	0.267
228	0.283
228	0.298
229	0.312
229	0.336
229	0.357
230	0.38
230	0.41
231	0.444
231	0.481
232	0.52
232	0.561
233	0.603
233	0.647
234	0.7
234	0.75
235	0.801
235	0.853
236	0.904
236	0.956
236	1.005
237	1.057
237	1.108
238	1.156
238	1.202
239	1.249
239	1.288
240	1.328
240	1.364
241	1.398
241	1.432
242	1.467
242	1.5
243	1.528
243	1.555
243	1.581
244	1.601
244	1.626
245	1.646
245	1.669
246	1.688
246	1.705
247	1.715
247	1.727
248	1.742
248	1.754
249	1.763
249	1.772
250	1.779
250	1.786
250	1.787
251	1.792
251	1.794
252	1.8
252	1.802
253	1.803
253	1.802
254	1.801
254	1.802
255	1.801
255	1.802
256	1.803
256	1.804
257	1.805
257	1.804
258	1.802
258	1.8
258	1.801
259	1.801
259	1.801
260	1.799
260	1.798
261	1.798
261	1.799
262	1.799
262	1.8
263	1.802
263	1.803
264	1.803
264	1.803
265	1.802
265	1.805
265	1.806
266	1.807
266	1.807
267	1.804
267	1.803
268	1.802
268	1.803
269	1.803
269	1.803
270	1.802
270	1.799
271	1.797
271	1.795
272	1.793
272	1.792
272	1.79
273	1.785
273	1.779
274	1.775
274	1.77
275	1.764
275	1.758
276	1.75
276	1.743
277	1.734
277	1.725
278	1.715
278	1.704
278	1.691
279	1.676
279	1.661
280	1.64
280	1.617
281	1.589
281	1.556
282	1.522
282	1.486
283	1.45
283	1.414
284	1.379
284	1.345
285	1.311
285	1.281
285	1.253
286	1.228
286	1.206
287	1.186
287	1.169
288	1.154
288	1.141
289	1.131
289	1.121
290	1.112
290	1.105
291	1.097
291	1.091
292	1.086
292	1.081
292	1.076
293	1.071
293	1.067
294	1.063
294	1.059
295	1.056
295	1.053
296	1.049
296	1.046
297	1.043
297	1.04
298	1.036
298	1.033
298	1.03
299	1.026
299	1.023
300	1.02
300	1.017
301	1.014
301	1.011
302	1.008
302	1.006
303	1.003
303	1
304	0.998
304	0.995
305	0.992
305	0.99
305	0.987
306	0.985
306	0.982
307	0.979
307	0.976
308	0.973
308	0.97
309	0.967
309	0.964
310	0.961
310	0.958
311	0.954
311	0.951
311	0.947
312	0.943
312	0.94
313	0.936
313	0.932
314	0.929
314	0.924
315	0.92
315	0.916
316	0.912
316	0.907
317	0.903
317	0.898
318	0.893
318	0.888
318	0.882
319	0.877
319	0.872
320	0.866
320	0.86
321	0.854
321	0.848
322	0.842
322	0.836
323	0.83
323	0.823
324	0.817
324	0.811
324	0.804
325	0.798
325	0.791
326	0.784
326	0.778
327	0.771
327	0.764
328	0.757
328	0.751
329	0.744
329	0.737
330	0.73
330	0.723
330	0.716
331	0.709
331	0.703
332	0.696
332	0.689
333	0.682
333	0.675
334	0.669
334	0.662
335	0.655
335	0.649
336	0.642
336	0.636
336	0.63
337	0.624
337	0.618
338	0.612
338	0.606
339	0.6
339	0.594
340	0.588
340	0.583
341	0.577
341	0.572
342	0.566
342	0.561
342	0.556
343	0.551
343	0.546
344	0.541
344	0.536
345	0.532
345	0.527
346	0.522
346	0.518
347	0.514
347	0.51
348	0.505
348	0.501
348	0.497
349	0.494
349	0.49
350	0.486
350	0.483
351	0.48
351	0.476
352	0.473
352	0.47
353	0.467
353	0.464
354	0.461
354	0.458
354	0.455
355	0.452
355	0.449
356	0.446
356	0.443
357	0.44
357	0.437
358	0.434
358	0.431
359	0.429
359	0.427
360	0.424
360	0.422
360	0.42
361	0.418
361	0.416
362	0.415
362	0.413
363	0.411
363	0.409
364	0.407
364	0.405
365	0.403
365	0.401
366	0.399
366	0.398
366	0.396
367	0.394
367	0.392
368	0.391
368	0.389
369	0.388
369	0.386
370	0.385
370	0.383
371	0.382
371	0.38
372	0.379
372	0.377
372	0.376
373	0.374
373	0.373
374	0.372
374	0.37
375	0.369
375	0.368
376	0.367
376	0.366
377	0.365
377	0.364
378	0.363
378	0.361
378	0.36
379	0.36
379	0.358
380	0.357
380	0.356
381	0.356
381	0.355
382	0.354
382	0.353
383	0.353
383	0.352
383	0.351
384	0.351
384	0.35
385	0.349
385	0.349
386	0.348
386	0.348
387	0.347
387	0.346
388	0.346
388	0.345
389	0.344
389	0.344
389	0.343
390	0.343
390	0.342
391	0.341
391	0.341
392	0.34
392	0.34
393	0.339
393	0.338
394	0.338
394	0.337
394	0.337
395	0.336
395	0.336
396	0.335
396	0.335
397	0.334
397	0.334
398	0.334
398	0.333
399	0.333
399	0.332
400	0.332
400	0.331
400	0.331
401	0.33
401	0.329
402	0.329
402	0.328
403	0.328
403	0.327
404	0.327
404	0.326
405	0.326
405	0.326
405	0.325
406	0.325
406	0.325
407	0.324
407	0.324
408	0.324
408	0.323
409	0.323
409	0.322
410	0.322
410	0.321
411	0.321
411	0.321
411	0.321
412	0.32
412	0.32
413	0.319
413	0.319
414	0.319
414	0.319
415	0.318
415	0.318
416	0.318
416	0.317
416	0.317
417	0.316
417	0.316
418	0.316
418	0.315
419	0.315
419	0.314
420	0.314
420	0.313
421	0.313
421	0.313
421	0.312
422	0.312
422	0.312
423	0.311
423	0.311
424	0.31
424	0.31
425	0.31
425	0.31
426	0.309
426	0.309
427	0.309
427	0.308
427	0.308
428	0.307
428	0.307
429	0.307
429	0.306
430	0.306
430	0.306
431	0.306
431	0.306
432	0.305
432	0.305
432	0.305
433	0.305
433	0.305
434	0.305
434	0.305
435	0.305
435	0.305
436	0.305
436	0.305
437	0.305
437	0.304
437	0.304
438	0.304
438	0.304
439	0.304
439	0.303
440	0.303
440	0.303
441	0.302
441	0.302
442	0.302
442	0.302
442	0.302
443	0.302
443	0.302
444	0.301
444	0.301
445	0.301
445	0.301
446	0.301
446	0.301
447	0.3
447	0.3
447	0.3
448	0.301
448	0.301
449	0.301
449	0.301
450	0.301
450	0.301
451	0.301
451	0.301
452	0.301
452	0.301
452	0.301
453	0.301
453	0.301
454	0.301
454	0.301
455	0.3
455	0.3
456	0.3
456	0.3
457	0.3
457	0.3
458	0.3
458	0.3
458	0.301
459	0.301
459	0.301
460	0.301
460	0.301
461	0.301
461	0.301
462	0.301
462	0.301
463	0.301
463	0.301
463	0.301
464	0.301
464	0.301
465	0.301
465	0.302
466	0.302
466	0.302
467	0.303
467	0.303
467	0.304
468	0.304
468	0.304
469	0.305
469	0.306
470	0.306
470	0.306
471	0.307
471	0.307
472	0.307
472	0.307
472	0.308
473	0.308
473	0.309
474	0.309
474	0.309
475	0.31
475	0.31
476	0.311
476	0.311
477	0.312
477	0.312
477	0.313
478	0.314
478	0.314
479	0.315
479	0.316
480	0.317
480	0.318
481	0.318
481	0.319
482	0.319
482	0.32
482	0.321
483	0.322
483	0.323
484	0.324
484	0.324
485	0.325
485	0.326
486	0.326
486	0.327
487	0.328
487	0.329
487	0.33
488	0.331
488	0.332
489	0.333
489	0.335
490	0.336
490	0.338
491	0.339
491	0.341
492	0.342
492	0.343
492	0.345
493	0.346
493	0.347
494	0.349
494	0.35
495	0.351
495	0.353
496	0.354
496	0.356
496	0.357
497	0.358
497	0.36
498	0.361
498	0.362
499	0.364
499	0.366
500	0.367
500	0.369
501	0.371
501	0.372
501	0.373
502	0.375
502	0.376
503	0.377
503	0.379
504	0.38
504	0.381
505	0.383
505	0.384
506	0.385
506	0.387
506	0.388
507	0.39
507	0.391
508	0.392
508	0.394
509	0.395
509	0.396
510	0.397
510	0.398
511	0.4
511	0.401
511	0.402
512	0.403
512	0.404
513	0.405
513	0.405
514	0.406
514	0.407
515	0.408
515	0.409
515	0.409
516	0.41
516	0.411
517	0.411
517	0.412
518	0.412
518	0.413
519	0.413
519	0.414
520	0.414
520	0.415
520	0.415
521	0.415
521	0.415
522	0.415
522	0.415
523	0.415
523	0.415
524	0.415
524	0.414
524	0.414
525	0.413
525	0.413
526	0.412
526	0.412
527	0.411
527	0.41
528	0.409
528	0.408
529	0.407
529	0.406
529	0.405
530	0.404
530	0.403
531	0.402
531	0.4
532	0.399
532	0.397
533	0.396
533	0.395
533	0.393
534	0.391
534	0.39
535	0.388
535	0.386
536	0.384
536	0.382
537	0.38
537	0.378
538	0.376
538	0.374
538	0.372
539	0.37
539	0.369
540	0.367
540	0.365
541	0.362
541	0.36
542	0.358
542	0.356
542	0.354
543	0.352
543	0.349
544	0.347
544	0.344
545	0.342
545	0.339
546	0.337
546	0.335
547	0.332
547	0.33
547	0.327
548	0.325
548	0.323
549	0.321
549	0.319
550	0.317
550	0.314
551	0.311
551	0.309
551	0.306
552	0.304
552	0.301
553	0.299
553	0.297
554	0.294
554	0.292
555	0.29
555	0.287
556	0.285
556	0.283
556	0.281
557	0.279
557	0.277
558	0.275
558	0.273
559	0.27
559	0.268
560	0.267
560	0.265
560	0.263
561	0.261
561	0.258
562	0.256
562	0.254
563	0.252
563	0.25
564	0.247
564	0.245
564	0.243
565	0.241
565	0.239
566	0.237
566	0.235
567	0.233
567	0.232
568	0.23
568	0.227
568	0.225
569	0.223
569	0.221
570	0.219
570	0.217
571	0.216
571	0.214
572	0.212
572	0.211
573	0.209
573	0.208
573	0.206
574	0.205
574	0.203
575	0.202
575	0.201
576	0.2
576	0.198
577	0.196
577	0.195
577	0.193
578	0.192
578	0.19
579	0.19
579	0.189
580	0.187
580	0.186
581	0.184
581	0.183
581	0.182
582	0.181
582	0.18
583	0.179
583	0.178
584	0.176
584	0.174
585	0.173
585	0.171
585	0.17
586	0.169
586	0.168
587	0.167
587	0.166
588	0.165
588	0.164
589	0.163
589	0.162
590	0.162
590	0.161
590	0.16
591	0.159
591	0.158
592	0.156
592	0.155
593	0.154
593	0.153
594	0.152
594	0.151
594	0.15
595	0.149
595	0.148
596	0.147
596	0.146
597	0.146
597	0.146
598	0.145
598	0.145
598	0.144
599	0.144
599	0.143
600	0.142
600	0.141
601	0.14
601	0.14
602	0.139
602	0.138
602	0.137
603	0.136
603	0.135
604	0.135
604	0.134
605	0.134
605	0.133
606	0.133
606	0.132
606	0.131
607	0.13
607	0.13
608	0.129
608	0.128
609	0.127
609	0.126
610	0.126
610	0.125
610	0.124
611	0.124
611	0.123
612	0.123
612	0.123
613	0.122
613	0.122
614	0.121
614	0.121
614	0.12
615	0.12
615	0.119
616	0.119
616	0.119
617	0.118
617	0.118
618	0.117
618	0.117
618	0.117
619	0.117
619	0.117
620	0.116
620	0.116
621	0.115
621	0.114
622	0.114
622	0.113
622	0.112
623	0.111
623	0.111
624	0.11
624	0.109
625	0.109
625	0.109
626	0.108
626	0.108
626	0.108
627	0.107
627	0.107
628	0.107
628	0.107
629	0.106
629	0.106
630	0.105
630	0.105
630	0.104
631	0.104
631	0.103
632	0.103
632	0.102
633	0.102
633	0.102
634	0.102
634	0.102
634	0.102
635	0.102
635	0.102
636	0.101
636	0.101
637	0.101
637	0.1
638	0.1
638	0.099
638	0.099
639	0.098
639	0.097
640	0.097
640	0.097
641	0.096
641	0.095
642	0.095
642	0.095
642	0.095
643	0.094
643	0.094
644	0.094
644	0.094
645	0.094
645	0.094
646	0.094
646	0.094
646	0.095
647	0.094
647	0.094
648	0.093
648	0.093
649	0.092
649	0.092
650	0.092
650	0.092
650	0.092
651	0.091
651	0.091
652	0.091
652	0.091
653	0.092
653	0.093
653	0.098
654	0.079
654	0.064
655	0.062
655	0.062
656	0.062
656	0.062
657	0.062
657	0.062
657	0.062
658	0.061
658	0.054
659	0.067
659	0.084
660	0.089
660	0.088
661	0.088
661	0.087
661	0.087
662	0.086
662	0.086
663	0.085
663	0.084
664	0.084
664	0.084
665	0.083
665	0.083
665	0.083
666	0.083
666	0.083
667	0.083
667	0.083
668	0.083
668	0.083
669	0.083
669	0.083
669	0.084
670	0.084
670	0.084
671	0.083
671	0.083
672	0.082
672	0.082
672	0.081
673	0.081
673	0.08
674	0.08
674	0.079
675	0.079
675	0.079
676	0.079
676	0.079
676	0.079
677	0.08
677	0.08
678	0.08
678	0.08
679	0.079
679	0.079
680	0.079
680	0.079
680	0.079
681	0.078
681	0.079
682	0.079
682	0.078
683	0.078
683	0.078
684	0.078
684	0.078
684	0.077
685	0.077
685	0.077
686	0.077
686	0.077
687	0.076
687	0.076
687	0.077
688	0.077
688	0.077
689	0.077
689	0.078
690	0.078
690	0.078
691	0.078
691	0.078
691	0.078
692	0.078
692	0.078
693	0.078
693	0.078
694	0.078
694	0.077
695	0.078
695	0.078
695	0.079
696	0.078
696	0.078
697	0.078
697	0.078
698	0.078
698	0.077
698	0.077
699	0.077
699	0.077
700	0.076
700	0.075
701	0.075
701	0.074
702	0.073
702	0.073
702	0.072
703	0.072
703	0.071
704	0.071
704	0.071
705	0.071
705	0.071
705	0.071
706	0.071
706	0.071
707	0.071
707	0.071
708	0.071
708	0.071
709	0.071
709	0.071
709	0.07
710	0.069
710	0.069
711	0.069
711	0.069
712	0.069
712	0.068
713	0.068
713	0.068
713	0.068
714	0.068
714	0.067
715	0.067
715	0.066
716	0.066
716	0.065
716	0.064
717	0.063
717	0.063
718	0.062
718	0.062
719	0.062
719	0.062
720	0.062
720	0.063
720	0.063
721	0.064
721	0.064
722	0.065
722	0.065
723	0.066
723	0.066
723	0.065
724	0.065
724	0.064
725	0.063
725	0.062
726	0.061
726	0.06
727	0.06
727	0.059
727	0.059
728	0.059
728	0.059
729	0.06
729	0.06
730	0.06
730	0.061
730	0.061
731	0.062
731	0.062
732	0.062
732	0.062
733	0.062
733	0.062
734	0.062
734	0.062
734	0.062
735	0.062
735	0.062
736	0.061
736	0.061
737	0.061
737	0.061
737	0.06
738	0.06
738	0.059
739	0.059
739	0.058
740	0.058
740	0.058
741	0.059
741	0.059
741	0.059
742	0.059
742	0.059
743	0.06
743	0.06
744	0.06
744	0.06
744	0.06
745	0.06
745	0.059
746	0.059
746	0.059
747	0.059
747	0.059
748	0.059
748	0.059
748	0.059
749	0.059
749	0.059
750	0.059
750	0.059
751	0.059
751	0.059
751	0.06
752	0.059
752	0.059
753	0.058
753	0.058
754	0.057
754	0.057
754	0.056
755	0.056
755	0.055
756	0.054
756	0.053
757	0.053
757	0.053
758	0.053
758	0.053
758	0.053
759	0.053
759	0.053
760	0.053
760	0.052
761	0.052
761	0.053
761	0.053
762	0.053
762	0.053
763	0.052
763	0.052
764	0.051
764	0.051
764	0.051
765	0.05
765	0.05
766	0.049
766	0.049
767	0.049
767	0.049
768	0.048
768	0.049
768	0.049
769	0.05
769	0.05
770	0.051
770	0.051
771	0.052
771	0.052
771	0.052
772	0.052
772	0.053
773	0.053
773	0.053
774	0.053
774	0.053
775	0.053
775	0.053
775	0.053
776	0.053
776	0.054
777	0.054
777	0.054
778	0.054
778	0.053
778	0.053
779	0.053
779	0.052
780	0.051
780	0.05
781	0.05
781	0.05
781	0.049
782	0.049
782	0.049
783	0.049
783	0.049
784	0.049
784	0.049
784	0.049
785	0.049
785	0.049
786	0.05
786	0.05
787	0.05
787	0.05
788	0.05
788	0.049
788	0.049
789	0.049
789	0.049
790	0.048
790	0.048
791	0.048
791	0.047
791	0.047
792	0.047
792	0.047
793	0.047
793	0.046
794	0.046
794	0.046
794	0.046
795	0.046
795	0.046
796	0.046
796	0.047
797	0.046
797	0.047
797	0.047
798	0.047
798	0.048
799	0.048
799	0.048
800	0.047
800	0.047
801	0.046
801	0.046
801	0.046
802	0.045
802	0.045
803	0.045
803	0.045
804	0.045
804	0.045
804	0.045
805	0.045
805	0.045
806	0.046
806	0.046
807	0.046
807	0.046
807	0.046
808	0.047
808	0.047
809	0.047
809	0.048
810	0.048
810	0.048
810	0.048
811	0.048
811	0.048
812	0.048
812	0.048
813	0.048
813	0.048
813	0.048
814	0.048
814	0.048
815	0.049
815	0.049
816	0.048
816	0.048
817	0.047
817	0.047
817	0.046
818	0.046
818	0.046
819	0.045
819	0.045
820	0.044
820	0.043
820	0.043
821	0.043
821	0.044
822	0.044
822	0.044
823	0.044
823	0.044
823	0.045
824	0.046
824	0.047
825	0.048
825	0.049
826	0.05
826	0.05
826	0.05
827	0.051
827	0.051
828	0.051
828	0.051
829	0.051
829	0.05
829	0.05
830	0.05
830	0.05
831	0.051
831	0.051
832	0.05
832	0.05
832	0.05
833	0.05
833	0.05
834	0.05
834	0.049
835	0.049
835	0.048
835	0.048
836	0.048
836	0.047
837	0.047
837	0.046
838	0.046
838	0.045
839	0.045
839	0.044
839	0.044
840	0.043
840	0.043
841	0.042
841	0.042
842	0.042
842	0.042
842	0.041
843	0.042
843	0.042
844	0.042
844	0.042
845	0.042
845	0.042
845	0.042
846	0.042
846	0.042
847	0.042
847	0.042
848	0.042
848	0.042
848	0.041
849	0.041
849	0.041
850	0.041
850	0.04
851	0.04
851	0.04
851	0.04
852	0.04
852	0.039
853	0.039
853	0.039
854	0.039
854	0.04
854	0.04
855	0.041
855	0.041
856	0.042
856	0.042
857	0.043
857	0.044
857	0.044
858	0.044
858	0.044
859	0.044
859	0.043
860	0.043
860	0.042
860	0.041
861	0.041
861	0.04
862	0.039
862	0.039
863	0.038
863	0.038
863	0.038
864	0.038
864	0.037
865	0.038
865	0.038
866	0.038
866	0.038
866	0.038
867	0.038
867	0.039
868	0.039
868	0.039
869	0.039
869	0.039
869	0.039
870	0.038
870	0.039
871	0.039
871	0.039
872	0.039
872	0.039
872	0.039
873	0.039
873	0.039
874	0.038
874	0.038
875	0.038
875	0.038
875	0.037
876	0.037
876	0.037
877	0.036
877	0.036
878	0.036
878	0.036
878	0.037
879	0.037
879	0.038
880	0.038
880	0.038
881	0.038
881	0.038
881	0.038
882	0.038
882	0.038
883	0.038
883	0.038
884	0.038
884	0.038
884	0.038
885	0.038
885	0.038
886	0.038
886	0.038
887	0.038
887	0.038
887	0.038
888	0.038
888	0.038
889	0.038
889	0.038
890	0.038
890	0.038
890	0.037
891	0.037
891	0.037
892	0.037
892	0.037
893	0.036
893	0.036
893	0.035
894	0.035
894	0.034
895	0.034
895	0.034
895	0.033
896	0.033
896	0.033
897	0.033
897	0.032
898	0.032
898	0.032
898	0.032
899	0.032
899	0.033
900	0.033
900	0.033
901	0.033
901	0.034
901	0.034
902	0.035
902	0.035
903	0.035
903	0.036
904	0.036
904	0.036
904	0.036
905	0.036
905	0.036
906	0.037
906	0.037
907	0.038
907	0.038
907	0.038
908	0.039
908	0.039
909	0.039
909	0.04
910	0.04
910	0.04
910	0.04
911	0.04
911	0.04
912	0.04
912	0.04
913	0.04
913	0.04
913	0.04
914	0.04
914	0.04
915	0.04
915	0.04
916	0.04
916	0.04
916	0.04
917	0.04
917	0.04
918	0.039
918	0.039
918	0.038
919	0.038
919	0.038
920	0.038
920	0.038
921	0.037
921	0.037
921	0.037
922	0.038
922	0.038
923	0.038
923	0.038
924	0.038
924	0.039
924	0.039
925	0.039
925	0.039
926	0.039
926	0.039
927	0.039
927	0.039
927	0.038
928	0.038
928	0.038
929	0.038
929	0.038
930	0.037
930	0.037
930	0.037
931	0.036
931	0.036
932	0.036
932	0.036
933	0.036
933	0.036
933	0.035
934	0.035
934	0.035
935	0.036
935	0.036
935	0.036
936	0.036
936	0.036
937	0.036
937	0.036
938	0.036
938	0.036
938	0.036
939	0.036
939	0.035
940	0.035
940	0.035
941	0.034
941	0.034
941	0.034
942	0.034
942	0.034
943	0.034
943	0.034
944	0.033
944	0.033
944	0.033
945	0.033
945	0.033
946	0.033
946	0.033
946	0.034
947	0.034
947	0.035
948	0.035
948	0.036
949	0.036
949	0.037
949	0.038
950	0.038
950	0.038
951	0.038
951	0.038
952	0.038
952	0.037
952	0.037
953	0.037
953	0.036
954	0.036
954	0.036
955	0.035
955	0.035
955	0.035
956	0.035
956	0.035
957	0.035
957	0.035
957	0.036
958	0.036
958	0.036
959	0.037
959	0.037
960	0.037
960	0.038
960	0.038
961	0.038
961	0.038
962	0.039
962	0.039
963	0.039
963	0.039
963	0.039
964	0.039
964	0.039
965	0.039
965	0.04
966	0.04
966	0.041
966	0.041
967	0.042
967	0.042
968	0.043
968	0.043
968	0.043
969	0.043
969	0.043
970	0.042
970	0.042
971	0.041
971	0.04
971	0.039
972	0.038
972	0.037
973	0.037
973	0.036
974	0.036
974	0.036
974	0.036
975	0.036
975	0.036
976	0.036
976	0.036
976	0.036
977	0.036
977	0.036
978	0.035
978	0.035
979	0.034
979	0.034
979	0.033
980	0.033
980	0.032
981	0.032
981	0.032
982	0.032
982	0.032
982	0.033
983	0.033
983	0.034
984	0.034
984	0.034
984	0.035
985	0.035
985	0.036
986	0.036
986	0.036
987	0.036
987	0.036
987	0.036
988	0.036
988	0.035
989	0.035
989	0.035
990	0.035
990	0.034
990	0.034
991	0.034
991	0.034
992	0.034
992	0.034
992	0.034
993	0.033
993	0.033
994	0.033
994	0.033
995	0.032
995	0.032
995	0.032
996	0.032
996	0.031
997	0.031
997	0.031
997	0.031
998	0.031
998	0.032
999	0.032
999	0.032
1000	0.033
1000	0.033
1000	0.033
1001	0.033
1001	0.033
1002	0.032
1002	0.032
1003	0.031
1003	0.031
1003	0.03
1004	0.029
1004	0.028
1005	0.027
1005	0.027
1005	0.026
1006	0.026
1006	0.026
1007	0.025
1007	0.025
1008	0.026
1008	0.026
1008	0.026
1009	0.027
1009	0.027
1010	0.028
1010	0.028
1010	0.029
1011	0.029
1011	0.029
1012	0.03
1012	0.03
1013	0.03
1013	0.03
1013	0.03
1014	0.03
1014	0.03
1015	0.03
1015	0.03
1016	0.03
1016	0.03
1016	0.029
1017	0.029
1017	0.029
1018	0.029
1018	0.028
1018	0.028
1019	0.028
1019	0.028
1020	0.028
1020	0.028
1021	0.028
1021	0.029
1021	0.029
1022	0.029
1022	0.029
1023	0.03
1023	0.03
1023	0.03
1024	0.03
1024	0.03
1025	0.03
1025	0.03
1026	0.03
1026	0.029
1026	0.029
1027	0.028
1027	0.028
1028	0.028
1028	0.028
1028	0.027
1029	0.027
1029	0.027
1030	0.028
1030	0.028
1031	0.028
1031	0.029
1031	0.029
1032	0.029
1032	0.029
1033	0.03
1033	0.03
1033	0.03
1034	0.03
1034	0.03
1035	0.03
1035	0.03
1036	0.03
1036	0.03
1036	0.03
1037	0.03
1037	0.03
1038	0.029
1038	0.029
1039	0.029
1039	0.029
1039	0.029
1040	0.029
1040	0.028
1041	0.028
1041	0.028
1041	0.028
1042	0.028
1042	0.028
1043	0.028
1043	0.028
1044	0.028
1044	0.028
1044	0.029
1045	0.029
1045	0.029
1046	0.03
1046	0.03
1046	0.03
1047	0.031
1047	0.031
1048	0.032
1048	0.032
1049	0.033
1049	0.033
1049	0.033
1050	0.033
1050	0.033
1051	0.033
1051	0.033
1051	0.033
1052	0.032
1052	0.032
1053	0.032
1053	0.031
1053	0.031
1054	0.031
1054	0.031
1055	0.031
1055	0.031
1056	0.03
1056	0.03
1056	0.03
1057	0.029
1057	0.029
1058	0.029
1058	0.028
1058	0.028
1059	0.028
1059	0.028
1060	0.027
1060	0.027
1061	0.027
1061	0.027
1061	0.027
1062	0.027
1062	0.028
1063	0.028
1063	0.028
1063	0.028
1064	0.028
1064	0.028
1065	0.028
1065	0.028
1066	0.028
1066	0.028
1066	0.028
1067	0.027
1067	0.027
1068	0.027
1068	0.027
1068	0.027
1069	0.027
1069	0.027
1070	0.026
1070	0.026
1071	0.026
1071	0.025
1071	0.025
1072	0.025
1072	0.024
1073	0.024
1073	0.023
1073	0.023
1074	0.023
1074	0.023
1075	0.022
1075	0.023
1076	0.023
1076	0.023
1076	0.023
1077	0.024
1077	0.024
1078	0.023
1078	0.023
1078	0.023
1079	0.023
1079	0.023
1080	0.023
1080	0.023
1080	0.023
1081	0.023
1081	0.023
1082	0.023
1082	0.024
1083	0.024
1083	0.024
1083	0.024
1084	0.024
1084	0.024
1085	0.024
1085	0.024
1085	0.024
1086	0.023
1086	0.023
1087	0.022
1087	0.022
1088	0.022
1088	0.022
1088	0.022
1089	0.022
1089	0.021
1090	0.02
1090	0.02
1090	0.019
1091	0.019
1091	0.019
1092	0.02
1092	0.02
1092	0.02
1093	0.02
1093	0.02
1094	0.02
1094	0.02
1095	0.021
1095	0.021
1095	0.021
1096	0.021
1096	0.02
1097	0.019
1097	0.019
1097	0.019
1098	0.019
1098	0.018
1099	0.018
1099	0.017
1100	0.017
1100	0.017
1100	0.016
1101	0.015
1101	0.015
1102	0.014
1102	0.014
1102	0.013
1103	0.013
1103	0.013
1104	0.013
1104	0.013
1104	0.012
1105	0.011
1105	0.009
1106	0.009
1106	0.007
1107	0.006
1107	0.007
1107	0.006
1108	0.006
1108	0.004
1109	0.003
1109	0.002
1109	0.002
1110	0.005
1110	0.003
1111	0.004
1111	0.004
