Data from reversibility-20sec_Absorbance__4493__000000000004493.txt Node

Date: Wed Dec 06 13:10:45 CET 2023
User: Marek
Spectrometer: MAYP115816
Trigger mode: 0
Integration Time (sec): 2.000000E-1
Scans to average: 10
Electric dark correction enabled: true
Nonlinearity correction enabled: true
Boxcar width: 5
XAxis mode: Wavelengths
Number of Pixels in Spectrum: 2068
>>>>>Begin Spectral Data<<<<<
199	-0.179
199	-0.15
200	-0.08
200	-0.024
201	-0
201	0.019
202	0.03
202	0.039
203	0.045
203	0.05
204	0.065
204	0.08
205	0.091
205	0.098
205	0.095
206	0.098
206	0.097
207	0.099
207	0.098
208	0.098
208	0.097
209	0.101
209	0.095
210	0.096
210	0.093
211	0.093
211	0.092
212	0.09
212	0.093
213	0.096
213	0.098
213	0.096
214	0.096
214	0.101
215	0.102
215	0.104
216	0.107
216	0.107
217	0.109
217	0.111
218	0.109
218	0.114
219	0.119
219	0.121
220	0.121
220	0.121
221	0.122
221	0.125
221	0.134
222	0.14
222	0.144
223	0.151
223	0.153
224	0.157
224	0.166
225	0.175
225	0.186
226	0.195
226	0.203
227	0.211
227	0.22
228	0.231
228	0.246
229	0.261
229	0.285
229	0.307
230	0.333
230	0.362
231	0.395
231	0.435
232	0.471
232	0.515
233	0.559
233	0.607
234	0.661
234	0.713
235	0.763
235	0.814
236	0.867
236	0.918
236	0.967
237	1.02
237	1.068
238	1.117
238	1.163
239	1.208
239	1.251
240	1.291
240	1.328
241	1.363
241	1.398
242	1.433
242	1.467
243	1.496
243	1.521
243	1.549
244	1.571
244	1.594
245	1.612
245	1.636
246	1.653
246	1.672
247	1.685
247	1.699
248	1.716
248	1.731
249	1.739
249	1.748
250	1.756
250	1.764
250	1.768
251	1.774
251	1.776
252	1.781
252	1.78
253	1.781
253	1.779
254	1.778
254	1.778
255	1.776
255	1.777
256	1.778
256	1.777
257	1.776
257	1.775
258	1.777
258	1.776
258	1.777
259	1.778
259	1.779
260	1.779
260	1.781
261	1.781
261	1.783
262	1.786
262	1.787
263	1.79
263	1.791
264	1.791
264	1.792
265	1.793
265	1.794
265	1.793
266	1.792
266	1.793
267	1.793
267	1.793
268	1.79
268	1.79
269	1.792
269	1.791
270	1.79
270	1.79
271	1.788
271	1.789
272	1.785
272	1.783
272	1.781
273	1.775
273	1.77
274	1.765
274	1.759
275	1.752
275	1.745
276	1.738
276	1.731
277	1.723
277	1.712
278	1.701
278	1.69
278	1.676
279	1.661
279	1.642
280	1.619
280	1.591
281	1.557
281	1.52
282	1.482
282	1.442
283	1.403
283	1.364
284	1.326
284	1.289
285	1.254
285	1.222
285	1.194
286	1.169
286	1.147
287	1.127
287	1.111
288	1.096
288	1.084
289	1.074
289	1.065
290	1.057
290	1.051
291	1.045
291	1.04
292	1.035
292	1.03
292	1.026
293	1.023
293	1.019
294	1.016
294	1.013
295	1.01
295	1.007
296	1.004
296	1.001
297	0.998
297	0.995
298	0.992
298	0.989
298	0.986
299	0.983
299	0.98
300	0.977
300	0.974
301	0.972
301	0.969
302	0.966
302	0.964
303	0.962
303	0.96
304	0.958
304	0.956
305	0.953
305	0.951
305	0.948
306	0.946
306	0.944
307	0.941
307	0.938
308	0.936
308	0.933
309	0.93
309	0.927
310	0.924
310	0.922
311	0.919
311	0.915
311	0.912
312	0.909
312	0.906
313	0.902
313	0.898
314	0.894
314	0.89
315	0.886
315	0.882
316	0.877
316	0.873
317	0.868
317	0.864
318	0.859
318	0.853
318	0.849
319	0.844
319	0.838
320	0.833
320	0.827
321	0.821
321	0.815
322	0.809
322	0.803
323	0.796
323	0.79
324	0.784
324	0.777
324	0.77
325	0.763
325	0.757
326	0.75
326	0.744
327	0.737
327	0.73
328	0.724
328	0.717
329	0.71
329	0.702
330	0.696
330	0.689
330	0.682
331	0.675
331	0.669
332	0.662
332	0.655
333	0.648
333	0.641
334	0.634
334	0.628
335	0.621
335	0.615
336	0.608
336	0.601
336	0.595
337	0.589
337	0.582
338	0.576
338	0.57
339	0.564
339	0.558
340	0.553
340	0.547
341	0.542
341	0.536
342	0.531
342	0.526
342	0.52
343	0.515
343	0.51
344	0.505
344	0.501
345	0.496
345	0.491
346	0.487
346	0.482
347	0.478
347	0.474
348	0.47
348	0.466
348	0.462
349	0.458
349	0.455
350	0.452
350	0.448
351	0.445
351	0.441
352	0.438
352	0.435
353	0.432
353	0.429
354	0.427
354	0.424
354	0.42
355	0.417
355	0.414
356	0.412
356	0.409
357	0.406
357	0.403
358	0.4
358	0.398
359	0.395
359	0.393
360	0.391
360	0.39
360	0.388
361	0.386
361	0.384
362	0.382
362	0.381
363	0.379
363	0.378
364	0.376
364	0.373
365	0.371
365	0.37
366	0.368
366	0.366
366	0.365
367	0.363
367	0.361
368	0.359
368	0.358
369	0.356
369	0.355
370	0.353
370	0.352
371	0.35
371	0.349
372	0.347
372	0.346
372	0.345
373	0.344
373	0.343
374	0.342
374	0.341
375	0.34
375	0.339
376	0.338
376	0.337
377	0.336
377	0.335
378	0.334
378	0.333
378	0.333
379	0.332
379	0.331
380	0.33
380	0.329
381	0.329
381	0.328
382	0.327
382	0.326
383	0.326
383	0.325
383	0.324
384	0.323
384	0.323
385	0.322
385	0.322
386	0.321
386	0.321
387	0.32
387	0.32
388	0.319
388	0.319
389	0.318
389	0.318
389	0.317
390	0.317
390	0.316
391	0.316
391	0.315
392	0.315
392	0.314
393	0.314
393	0.314
394	0.313
394	0.313
394	0.313
395	0.312
395	0.312
396	0.311
396	0.311
397	0.31
397	0.31
398	0.309
398	0.309
399	0.308
399	0.308
400	0.308
400	0.307
400	0.307
401	0.307
401	0.306
402	0.306
402	0.306
403	0.305
403	0.305
404	0.305
404	0.304
405	0.304
405	0.304
405	0.303
406	0.303
406	0.303
407	0.302
407	0.302
408	0.301
408	0.301
409	0.301
409	0.3
410	0.3
410	0.3
411	0.299
411	0.299
411	0.299
412	0.298
412	0.298
413	0.298
413	0.298
414	0.297
414	0.297
415	0.297
415	0.296
416	0.296
416	0.296
416	0.295
417	0.295
417	0.295
418	0.295
418	0.294
419	0.294
419	0.294
420	0.294
420	0.293
421	0.293
421	0.293
421	0.292
422	0.292
422	0.291
423	0.291
423	0.29
424	0.289
424	0.289
425	0.289
425	0.289
426	0.288
426	0.288
427	0.287
427	0.287
427	0.287
428	0.287
428	0.287
429	0.287
429	0.286
430	0.286
430	0.286
431	0.285
431	0.285
432	0.285
432	0.285
432	0.284
433	0.284
433	0.284
434	0.283
434	0.283
435	0.283
435	0.283
436	0.283
436	0.283
437	0.282
437	0.282
437	0.282
438	0.282
438	0.281
439	0.281
439	0.281
440	0.281
440	0.281
441	0.281
441	0.281
442	0.28
442	0.281
442	0.281
443	0.281
443	0.281
444	0.28
444	0.28
445	0.28
445	0.28
446	0.279
446	0.279
447	0.279
447	0.279
447	0.279
448	0.278
448	0.278
449	0.278
449	0.278
450	0.278
450	0.277
451	0.277
451	0.277
452	0.277
452	0.277
452	0.277
453	0.277
453	0.277
454	0.277
454	0.276
455	0.276
455	0.276
456	0.276
456	0.276
457	0.275
457	0.275
458	0.275
458	0.275
458	0.275
459	0.275
459	0.275
460	0.275
460	0.275
461	0.275
461	0.275
462	0.275
462	0.275
463	0.275
463	0.275
463	0.275
464	0.275
464	0.274
465	0.274
465	0.274
466	0.274
466	0.275
467	0.275
467	0.275
467	0.275
468	0.275
468	0.275
469	0.275
469	0.276
470	0.276
470	0.276
471	0.276
471	0.276
472	0.277
472	0.277
472	0.277
473	0.277
473	0.278
474	0.278
474	0.278
475	0.278
475	0.278
476	0.278
476	0.278
477	0.279
477	0.279
477	0.279
478	0.279
478	0.279
479	0.28
479	0.28
480	0.281
480	0.281
481	0.281
481	0.281
482	0.282
482	0.282
482	0.283
483	0.283
483	0.284
484	0.285
484	0.285
485	0.285
485	0.286
486	0.286
486	0.287
487	0.287
487	0.288
487	0.288
488	0.289
488	0.289
489	0.29
489	0.291
490	0.292
490	0.292
491	0.293
491	0.294
492	0.295
492	0.296
492	0.297
493	0.298
493	0.299
494	0.3
494	0.301
495	0.301
495	0.302
496	0.303
496	0.304
496	0.305
497	0.306
497	0.306
498	0.307
498	0.308
499	0.309
499	0.31
500	0.311
500	0.313
501	0.314
501	0.314
501	0.315
502	0.316
502	0.317
503	0.318
503	0.319
504	0.32
504	0.321
505	0.322
505	0.323
506	0.324
506	0.324
506	0.325
507	0.326
507	0.327
508	0.328
508	0.328
509	0.329
509	0.33
510	0.331
510	0.332
511	0.333
511	0.334
511	0.335
512	0.336
512	0.336
513	0.337
513	0.338
514	0.339
514	0.339
515	0.34
515	0.34
515	0.341
516	0.341
516	0.342
517	0.343
517	0.343
518	0.344
518	0.344
519	0.344
519	0.344
520	0.345
520	0.345
520	0.345
521	0.345
521	0.345
522	0.345
522	0.345
523	0.345
523	0.345
524	0.345
524	0.345
524	0.345
525	0.345
525	0.345
526	0.345
526	0.345
527	0.345
527	0.344
528	0.344
528	0.344
529	0.343
529	0.343
529	0.342
530	0.341
530	0.341
531	0.34
531	0.339
532	0.338
532	0.337
533	0.336
533	0.335
533	0.335
534	0.334
534	0.333
535	0.332
535	0.331
536	0.33
536	0.329
537	0.328
537	0.327
538	0.326
538	0.325
538	0.324
539	0.323
539	0.322
540	0.321
540	0.32
541	0.318
541	0.317
542	0.316
542	0.315
542	0.314
543	0.313
543	0.311
544	0.31
544	0.309
545	0.308
545	0.307
546	0.306
546	0.305
547	0.304
547	0.302
547	0.301
548	0.3
548	0.298
549	0.297
549	0.295
550	0.294
550	0.292
551	0.291
551	0.289
551	0.288
552	0.287
552	0.286
553	0.284
553	0.283
554	0.281
554	0.28
555	0.278
555	0.277
556	0.275
556	0.274
556	0.273
557	0.272
557	0.27
558	0.269
558	0.268
559	0.267
559	0.266
560	0.265
560	0.264
560	0.264
561	0.263
561	0.262
562	0.26
562	0.259
563	0.257
563	0.256
564	0.254
564	0.253
564	0.252
565	0.251
565	0.25
566	0.248
566	0.247
567	0.247
567	0.246
568	0.245
568	0.244
568	0.243
569	0.243
569	0.242
570	0.24
570	0.239
571	0.238
571	0.237
572	0.236
572	0.235
573	0.234
573	0.233
573	0.232
574	0.231
574	0.23
575	0.23
575	0.23
576	0.229
576	0.228
577	0.226
577	0.225
577	0.224
578	0.223
578	0.222
579	0.222
579	0.221
580	0.22
580	0.218
581	0.217
581	0.216
581	0.216
582	0.216
582	0.216
583	0.215
583	0.215
584	0.213
584	0.212
585	0.211
585	0.211
585	0.21
586	0.21
586	0.209
587	0.208
587	0.207
588	0.206
588	0.205
589	0.204
589	0.204
590	0.204
590	0.203
590	0.203
591	0.203
591	0.202
592	0.201
592	0.2
593	0.199
593	0.198
594	0.197
594	0.196
594	0.196
595	0.195
595	0.194
596	0.194
596	0.194
597	0.194
597	0.195
598	0.194
598	0.194
598	0.194
599	0.194
599	0.194
600	0.193
600	0.192
601	0.192
601	0.191
602	0.19
602	0.19
602	0.189
603	0.188
603	0.188
604	0.188
604	0.188
605	0.187
605	0.187
606	0.186
606	0.185
606	0.185
607	0.184
607	0.184
608	0.183
608	0.182
609	0.182
609	0.181
610	0.181
610	0.18
610	0.18
611	0.18
611	0.179
612	0.179
612	0.179
613	0.179
613	0.179
614	0.179
614	0.178
614	0.178
615	0.177
615	0.177
616	0.177
616	0.177
617	0.176
617	0.176
618	0.175
618	0.175
618	0.175
619	0.174
619	0.174
620	0.174
620	0.174
621	0.173
621	0.173
622	0.172
622	0.172
622	0.171
623	0.17
623	0.17
624	0.17
624	0.169
625	0.169
625	0.169
626	0.168
626	0.168
626	0.168
627	0.168
627	0.168
628	0.168
628	0.168
629	0.167
629	0.167
630	0.167
630	0.166
630	0.166
631	0.166
631	0.166
632	0.165
632	0.165
633	0.164
633	0.164
634	0.164
634	0.164
634	0.164
635	0.163
635	0.163
636	0.162
636	0.162
637	0.162
637	0.162
638	0.161
638	0.161
638	0.16
639	0.16
639	0.159
640	0.159
640	0.159
641	0.159
641	0.159
642	0.159
642	0.159
642	0.159
643	0.159
643	0.159
644	0.16
644	0.159
645	0.159
645	0.159
646	0.159
646	0.159
646	0.159
647	0.158
647	0.158
648	0.157
648	0.157
649	0.157
649	0.157
650	0.157
650	0.156
650	0.156
651	0.156
651	0.156
652	0.156
652	0.156
653	0.156
653	0.158
653	0.165
654	0.13
654	0.105
655	0.104
655	0.104
656	0.104
656	0.105
657	0.105
657	0.105
657	0.105
658	0.104
658	0.094
659	0.118
659	0.15
660	0.155
660	0.156
661	0.155
661	0.155
661	0.155
662	0.155
662	0.154
663	0.154
663	0.154
664	0.154
664	0.154
665	0.154
665	0.154
665	0.154
666	0.154
666	0.153
667	0.154
667	0.154
668	0.154
668	0.154
669	0.153
669	0.154
669	0.154
670	0.155
670	0.155
671	0.154
671	0.154
672	0.154
672	0.153
672	0.153
673	0.153
673	0.153
674	0.153
674	0.152
675	0.152
675	0.152
676	0.152
676	0.152
676	0.152
677	0.152
677	0.152
678	0.152
678	0.151
679	0.151
679	0.151
680	0.151
680	0.15
680	0.149
681	0.149
681	0.15
682	0.15
682	0.15
683	0.151
683	0.151
684	0.152
684	0.152
684	0.152
685	0.152
685	0.153
686	0.153
686	0.153
687	0.153
687	0.153
687	0.153
688	0.152
688	0.152
689	0.153
689	0.153
690	0.153
690	0.152
691	0.152
691	0.152
691	0.152
692	0.152
692	0.152
693	0.152
693	0.152
694	0.152
694	0.151
695	0.152
695	0.153
695	0.153
696	0.153
696	0.153
697	0.153
697	0.153
698	0.153
698	0.153
698	0.153
699	0.153
699	0.152
700	0.152
700	0.152
701	0.152
701	0.151
702	0.151
702	0.151
702	0.151
703	0.151
703	0.151
704	0.151
704	0.151
705	0.151
705	0.151
705	0.15
706	0.15
706	0.15
707	0.15
707	0.15
708	0.151
708	0.151
709	0.151
709	0.151
709	0.151
710	0.151
710	0.151
711	0.152
711	0.152
712	0.153
712	0.153
713	0.153
713	0.153
713	0.153
714	0.153
714	0.153
715	0.153
715	0.152
716	0.152
716	0.151
716	0.151
717	0.15
717	0.15
718	0.149
718	0.149
719	0.149
719	0.15
720	0.15
720	0.15
720	0.151
721	0.151
721	0.152
722	0.153
722	0.153
723	0.154
723	0.154
723	0.155
724	0.154
724	0.154
725	0.154
725	0.153
726	0.152
726	0.152
727	0.151
727	0.151
727	0.15
728	0.15
728	0.15
729	0.151
729	0.151
730	0.151
730	0.151
730	0.151
731	0.152
731	0.152
732	0.153
732	0.154
733	0.154
733	0.154
734	0.154
734	0.155
734	0.155
735	0.156
735	0.156
736	0.155
736	0.155
737	0.155
737	0.154
737	0.154
738	0.153
738	0.152
739	0.151
739	0.151
740	0.151
740	0.151
741	0.151
741	0.151
741	0.151
742	0.151
742	0.152
743	0.153
743	0.154
744	0.154
744	0.155
744	0.155
745	0.155
745	0.155
746	0.155
746	0.156
747	0.156
747	0.156
748	0.156
748	0.156
748	0.156
749	0.155
749	0.156
750	0.156
750	0.156
751	0.156
751	0.156
751	0.156
752	0.155
752	0.155
753	0.154
753	0.154
754	0.154
754	0.153
754	0.153
755	0.154
755	0.154
756	0.153
756	0.153
757	0.153
757	0.153
758	0.153
758	0.153
758	0.153
759	0.154
759	0.153
760	0.153
760	0.152
761	0.152
761	0.153
761	0.153
762	0.153
762	0.153
763	0.153
763	0.152
764	0.152
764	0.152
764	0.152
765	0.152
765	0.152
766	0.152
766	0.151
767	0.151
767	0.15
768	0.149
768	0.149
768	0.149
769	0.15
769	0.15
770	0.15
770	0.151
771	0.151
771	0.151
771	0.152
772	0.152
772	0.153
773	0.153
773	0.153
774	0.153
774	0.152
775	0.152
775	0.152
775	0.151
776	0.151
776	0.151
777	0.151
777	0.15
778	0.15
778	0.15
778	0.15
779	0.15
779	0.15
780	0.149
780	0.149
781	0.149
781	0.149
781	0.149
782	0.148
782	0.148
783	0.149
783	0.149
784	0.149
784	0.149
784	0.149
785	0.149
785	0.149
786	0.149
786	0.149
787	0.149
787	0.149
788	0.148
788	0.147
788	0.147
789	0.147
789	0.146
790	0.147
790	0.146
791	0.146
791	0.146
791	0.146
792	0.147
792	0.147
793	0.147
793	0.147
794	0.146
794	0.146
794	0.145
795	0.145
795	0.145
796	0.145
796	0.145
797	0.144
797	0.143
797	0.143
798	0.143
798	0.144
799	0.144
799	0.144
800	0.144
800	0.143
801	0.143
801	0.143
801	0.143
802	0.143
802	0.143
803	0.144
803	0.144
804	0.144
804	0.144
804	0.144
805	0.144
805	0.144
806	0.144
806	0.143
807	0.143
807	0.143
807	0.143
808	0.143
808	0.143
809	0.142
809	0.142
810	0.142
810	0.142
810	0.142
811	0.142
811	0.142
812	0.143
812	0.143
813	0.143
813	0.143
813	0.144
814	0.144
814	0.144
815	0.145
815	0.145
816	0.145
816	0.144
817	0.143
817	0.142
817	0.141
818	0.14
818	0.14
819	0.139
819	0.138
820	0.136
820	0.136
820	0.135
821	0.135
821	0.135
822	0.136
822	0.136
823	0.136
823	0.137
823	0.137
824	0.138
824	0.139
825	0.14
825	0.14
826	0.141
826	0.14
826	0.14
827	0.14
827	0.14
828	0.14
828	0.139
829	0.139
829	0.139
829	0.139
830	0.139
830	0.138
831	0.139
831	0.139
832	0.138
832	0.139
832	0.139
833	0.138
833	0.138
834	0.138
834	0.138
835	0.137
835	0.137
835	0.137
836	0.137
836	0.137
837	0.136
837	0.136
838	0.136
838	0.135
839	0.135
839	0.134
839	0.133
840	0.132
840	0.131
841	0.129
841	0.128
842	0.127
842	0.126
842	0.125
843	0.125
843	0.124
844	0.123
844	0.123
845	0.123
845	0.122
845	0.122
846	0.122
846	0.122
847	0.121
847	0.122
848	0.122
848	0.122
848	0.122
849	0.122
849	0.122
850	0.122
850	0.121
851	0.121
851	0.121
851	0.12
852	0.119
852	0.119
853	0.118
853	0.117
854	0.117
854	0.117
854	0.117
855	0.117
855	0.118
856	0.118
856	0.118
857	0.119
857	0.12
857	0.121
858	0.121
858	0.122
859	0.122
859	0.122
860	0.122
860	0.122
860	0.122
861	0.121
861	0.121
862	0.12
862	0.119
863	0.118
863	0.118
863	0.117
864	0.117
864	0.116
865	0.116
865	0.116
866	0.115
866	0.115
866	0.115
867	0.115
867	0.115
868	0.116
868	0.116
869	0.116
869	0.116
869	0.116
870	0.116
870	0.116
871	0.116
871	0.116
872	0.117
872	0.116
872	0.116
873	0.116
873	0.115
874	0.115
874	0.114
875	0.114
875	0.113
875	0.113
876	0.112
876	0.112
877	0.112
877	0.111
878	0.112
878	0.112
878	0.112
879	0.113
879	0.113
880	0.113
880	0.113
881	0.113
881	0.113
881	0.113
882	0.113
882	0.113
883	0.113
883	0.112
884	0.112
884	0.111
884	0.11
885	0.11
885	0.109
886	0.108
886	0.107
887	0.106
887	0.105
887	0.104
888	0.103
888	0.102
889	0.102
889	0.102
890	0.102
890	0.102
890	0.102
891	0.102
891	0.102
892	0.102
892	0.103
893	0.103
893	0.103
893	0.103
894	0.103
894	0.103
895	0.103
895	0.103
895	0.103
896	0.103
896	0.103
897	0.103
897	0.103
898	0.103
898	0.103
898	0.103
899	0.102
899	0.102
900	0.102
900	0.101
901	0.101
901	0.101
901	0.101
902	0.101
902	0.101
903	0.1
903	0.1
904	0.1
904	0.099
904	0.099
905	0.098
905	0.097
906	0.096
906	0.095
907	0.095
907	0.094
907	0.094
908	0.093
908	0.093
909	0.093
909	0.093
910	0.093
910	0.092
910	0.092
911	0.092
911	0.091
912	0.091
912	0.091
913	0.09
913	0.09
913	0.09
914	0.09
914	0.09
915	0.09
915	0.09
916	0.09
916	0.09
916	0.091
917	0.091
917	0.091
918	0.091
918	0.091
918	0.09
919	0.09
919	0.09
920	0.09
920	0.09
921	0.09
921	0.089
921	0.089
922	0.088
922	0.088
923	0.088
923	0.088
924	0.088
924	0.088
924	0.088
925	0.088
925	0.089
926	0.089
926	0.089
927	0.089
927	0.089
927	0.089
928	0.089
928	0.089
929	0.089
929	0.089
930	0.088
930	0.088
930	0.088
931	0.088
931	0.087
932	0.087
932	0.087
933	0.086
933	0.086
933	0.086
934	0.085
934	0.085
935	0.085
935	0.084
935	0.084
936	0.083
936	0.082
937	0.082
937	0.081
938	0.081
938	0.08
938	0.08
939	0.08
939	0.079
940	0.08
940	0.08
941	0.08
941	0.081
941	0.081
942	0.082
942	0.082
943	0.083
943	0.083
944	0.084
944	0.084
944	0.084
945	0.084
945	0.084
946	0.084
946	0.083
946	0.083
947	0.082
947	0.081
948	0.08
948	0.08
949	0.079
949	0.077
949	0.076
950	0.075
950	0.075
951	0.074
951	0.073
952	0.072
952	0.072
952	0.071
953	0.071
953	0.071
954	0.071
954	0.071
955	0.071
955	0.071
955	0.071
956	0.072
956	0.072
957	0.073
957	0.073
957	0.073
958	0.073
958	0.073
959	0.073
959	0.073
960	0.073
960	0.073
960	0.073
961	0.073
961	0.073
962	0.073
962	0.073
963	0.073
963	0.073
963	0.074
964	0.074
964	0.074
965	0.074
965	0.074
966	0.074
966	0.074
966	0.074
967	0.074
967	0.074
968	0.074
968	0.074
968	0.074
969	0.074
969	0.073
970	0.073
970	0.072
971	0.071
971	0.07
971	0.07
972	0.069
972	0.068
973	0.067
973	0.066
974	0.066
974	0.066
974	0.067
975	0.067
975	0.068
976	0.069
976	0.07
976	0.071
977	0.072
977	0.073
978	0.073
978	0.074
979	0.074
979	0.075
979	0.075
980	0.075
980	0.075
981	0.074
981	0.074
982	0.074
982	0.074
982	0.074
983	0.073
983	0.073
984	0.072
984	0.072
984	0.072
985	0.071
985	0.071
986	0.07
986	0.07
987	0.069
987	0.069
987	0.069
988	0.069
988	0.068
989	0.068
989	0.068
990	0.068
990	0.068
990	0.068
991	0.068
991	0.067
992	0.067
992	0.067
992	0.066
993	0.065
993	0.065
994	0.064
994	0.063
995	0.062
995	0.062
995	0.062
996	0.062
996	0.061
997	0.062
997	0.062
997	0.062
998	0.063
998	0.064
999	0.065
999	0.065
1000	0.066
1000	0.067
1000	0.067
1001	0.068
1001	0.068
1002	0.068
1002	0.068
1003	0.067
1003	0.067
1003	0.066
1004	0.065
1004	0.065
1005	0.064
1005	0.063
1005	0.062
1006	0.062
1006	0.061
1007	0.061
1007	0.06
1008	0.06
1008	0.059
1008	0.059
1009	0.059
1009	0.058
1010	0.058
1010	0.058
1010	0.058
1011	0.057
1011	0.057
1012	0.057
1012	0.056
1013	0.056
1013	0.056
1013	0.055
1014	0.055
1014	0.055
1015	0.054
1015	0.054
1016	0.054
1016	0.054
1016	0.054
1017	0.053
1017	0.053
1018	0.053
1018	0.053
1018	0.053
1019	0.053
1019	0.053
1020	0.053
1020	0.053
1021	0.053
1021	0.054
1021	0.054
1022	0.055
1022	0.056
1023	0.057
1023	0.057
1023	0.058
1024	0.059
1024	0.059
1025	0.06
1025	0.06
1026	0.061
1026	0.061
1026	0.061
1027	0.062
1027	0.062
1028	0.062
1028	0.061
1028	0.061
1029	0.061
1029	0.061
1030	0.061
1030	0.061
1031	0.061
1031	0.061
1031	0.061
1032	0.062
1032	0.062
1033	0.062
1033	0.063
1033	0.063
1034	0.063
1034	0.063
1035	0.063
1035	0.063
1036	0.062
1036	0.062
1036	0.062
1037	0.062
1037	0.061
1038	0.06
1038	0.06
1039	0.059
1039	0.059
1039	0.059
1040	0.058
1040	0.058
1041	0.058
1041	0.058
1041	0.057
1042	0.057
1042	0.056
1043	0.056
1043	0.056
1044	0.055
1044	0.055
1044	0.055
1045	0.054
1045	0.054
1046	0.054
1046	0.053
1046	0.053
1047	0.053
1047	0.053
1048	0.053
1048	0.053
1049	0.053
1049	0.053
1049	0.053
1050	0.053
1050	0.053
1051	0.052
1051	0.052
1051	0.052
1052	0.051
1052	0.051
1053	0.05
1053	0.049
1053	0.049
1054	0.049
1054	0.048
1055	0.048
1055	0.048
1056	0.047
1056	0.046
1056	0.046
1057	0.045
1057	0.044
1058	0.044
1058	0.043
1058	0.042
1059	0.041
1059	0.041
1060	0.04
1060	0.04
1061	0.039
1061	0.039
1061	0.04
1062	0.039
1062	0.039
1063	0.039
1063	0.039
1063	0.039
1064	0.039
1064	0.039
1065	0.039
1065	0.039
1066	0.039
1066	0.039
1066	0.039
1067	0.039
1067	0.038
1068	0.038
1068	0.038
1068	0.038
1069	0.038
1069	0.038
1070	0.038
1070	0.037
1071	0.037
1071	0.036
1071	0.036
1072	0.036
1072	0.036
1073	0.035
1073	0.035
1073	0.035
1074	0.035
1074	0.035
1075	0.035
1075	0.035
1076	0.036
1076	0.036
1076	0.037
1077	0.037
1077	0.037
1078	0.037
1078	0.037
1078	0.037
1079	0.037
1079	0.037
1080	0.037
1080	0.037
1080	0.037
1081	0.036
1081	0.037
1082	0.037
1082	0.037
1083	0.037
1083	0.037
1083	0.037
1084	0.037
1084	0.038
1085	0.038
1085	0.038
1085	0.039
1086	0.039
1086	0.039
1087	0.039
1087	0.039
1088	0.039
1088	0.038
1088	0.039
1089	0.038
1089	0.037
1090	0.037
1090	0.036
1090	0.036
1091	0.035
1091	0.035
1092	0.035
1092	0.036
1092	0.036
1093	0.035
1093	0.036
1094	0.036
1094	0.036
1095	0.036
1095	0.035
1095	0.035
1096	0.034
1096	0.033
1097	0.032
1097	0.031
1097	0.03
1098	0.029
1098	0.028
1099	0.027
1099	0.025
1100	0.025
1100	0.024
1100	0.023
1101	0.022
1101	0.022
1102	0.022
1102	0.021
1102	0.02
1103	0.019
1103	0.019
1104	0.02
1104	0.02
1104	0.019
1105	0.018
1105	0.016
1106	0.014
1106	0.013
1107	0.013
1107	0.013
1107	0.012
1108	0.011
1108	0.009
1109	0.008
1109	0.008
1109	0.008
1110	0.01
1110	0.011
1111	0.012
1111	0.008
