Data from reversibility-20sec_Absorbance__6744__000000000006744.txt Node

Date: Thu Dec 07 01:41:06 CET 2023
User: Marek
Spectrometer: MAYP115816
Trigger mode: 0
Integration Time (sec): 2.000000E-1
Scans to average: 10
Electric dark correction enabled: true
Nonlinearity correction enabled: true
Boxcar width: 5
XAxis mode: Wavelengths
Number of Pixels in Spectrum: 2068
>>>>>Begin Spectral Data<<<<<
199	-0.167
199	-0.139
200	-0.07
200	-0.013
201	0.012
201	0.027
202	0.037
202	0.046
203	0.053
203	0.057
204	0.07
204	0.082
205	0.091
205	0.093
205	0.089
206	0.088
206	0.087
207	0.087
207	0.087
208	0.085
208	0.086
209	0.086
209	0.085
210	0.089
210	0.091
211	0.092
211	0.095
212	0.094
212	0.098
213	0.104
213	0.105
213	0.102
214	0.105
214	0.106
215	0.108
215	0.105
216	0.109
216	0.108
217	0.113
217	0.114
218	0.11
218	0.117
219	0.121
219	0.124
220	0.131
220	0.129
221	0.134
221	0.136
221	0.14
222	0.146
222	0.153
223	0.158
223	0.16
224	0.167
224	0.172
225	0.179
225	0.189
226	0.199
226	0.208
227	0.22
227	0.229
228	0.241
228	0.257
229	0.273
229	0.296
229	0.32
230	0.345
230	0.375
231	0.409
231	0.446
232	0.482
232	0.527
233	0.572
233	0.622
234	0.673
234	0.725
235	0.777
235	0.827
236	0.877
236	0.927
236	0.981
237	1.033
237	1.08
238	1.125
238	1.172
239	1.214
239	1.257
240	1.296
240	1.333
241	1.371
241	1.405
242	1.436
242	1.469
243	1.498
243	1.524
243	1.548
244	1.572
244	1.594
245	1.612
245	1.635
246	1.651
246	1.667
247	1.677
247	1.69
248	1.704
248	1.719
249	1.727
249	1.736
250	1.743
250	1.754
250	1.756
251	1.763
251	1.768
252	1.777
252	1.78
253	1.781
253	1.78
254	1.782
254	1.784
255	1.784
255	1.785
256	1.786
256	1.785
257	1.785
257	1.782
258	1.781
258	1.781
258	1.779
259	1.779
259	1.777
260	1.775
260	1.774
261	1.773
261	1.776
262	1.778
262	1.779
263	1.783
263	1.782
264	1.786
264	1.787
265	1.787
265	1.789
265	1.789
266	1.79
266	1.788
267	1.786
267	1.785
268	1.784
268	1.785
269	1.785
269	1.785
270	1.783
270	1.781
271	1.779
271	1.779
272	1.778
272	1.777
272	1.776
273	1.773
273	1.768
274	1.764
274	1.758
275	1.754
275	1.75
276	1.745
276	1.737
277	1.729
277	1.72
278	1.708
278	1.696
278	1.683
279	1.67
279	1.654
280	1.634
280	1.61
281	1.58
281	1.549
282	1.514
282	1.479
283	1.444
283	1.407
284	1.372
284	1.336
285	1.302
285	1.27
285	1.242
286	1.217
286	1.194
287	1.174
287	1.156
288	1.14
288	1.127
289	1.115
289	1.105
290	1.096
290	1.088
291	1.081
291	1.075
292	1.069
292	1.064
292	1.059
293	1.055
293	1.05
294	1.046
294	1.042
295	1.039
295	1.035
296	1.031
296	1.028
297	1.024
297	1.021
298	1.017
298	1.014
298	1.011
299	1.007
299	1.004
300	1.001
300	0.998
301	0.995
301	0.992
302	0.989
302	0.986
303	0.983
303	0.98
304	0.977
304	0.975
305	0.972
305	0.969
305	0.966
306	0.963
306	0.96
307	0.958
307	0.954
308	0.951
308	0.948
309	0.945
309	0.942
310	0.939
310	0.935
311	0.932
311	0.929
311	0.926
312	0.922
312	0.918
313	0.914
313	0.91
314	0.906
314	0.902
315	0.898
315	0.893
316	0.889
316	0.884
317	0.879
317	0.874
318	0.869
318	0.864
318	0.859
319	0.853
319	0.848
320	0.842
320	0.836
321	0.83
321	0.824
322	0.818
322	0.812
323	0.805
323	0.799
324	0.792
324	0.785
324	0.778
325	0.772
325	0.765
326	0.758
326	0.751
327	0.744
327	0.737
328	0.73
328	0.723
329	0.716
329	0.709
330	0.702
330	0.696
330	0.688
331	0.682
331	0.675
332	0.668
332	0.661
333	0.654
333	0.647
334	0.64
334	0.633
335	0.626
335	0.62
336	0.613
336	0.606
336	0.6
337	0.593
337	0.587
338	0.58
338	0.574
339	0.568
339	0.562
340	0.556
340	0.551
341	0.545
341	0.539
342	0.534
342	0.529
342	0.524
343	0.519
343	0.514
344	0.509
344	0.504
345	0.499
345	0.494
346	0.49
346	0.485
347	0.481
347	0.477
348	0.472
348	0.468
348	0.464
349	0.46
349	0.457
350	0.453
350	0.449
351	0.446
351	0.442
352	0.439
352	0.436
353	0.433
353	0.43
354	0.426
354	0.423
354	0.42
355	0.417
355	0.414
356	0.411
356	0.408
357	0.405
357	0.402
358	0.399
358	0.396
359	0.394
359	0.392
360	0.39
360	0.388
360	0.385
361	0.384
361	0.382
362	0.38
362	0.379
363	0.377
363	0.375
364	0.373
364	0.371
365	0.369
365	0.367
366	0.365
366	0.363
366	0.362
367	0.36
367	0.358
368	0.356
368	0.355
369	0.353
369	0.352
370	0.35
370	0.349
371	0.347
371	0.346
372	0.344
372	0.343
372	0.342
373	0.341
373	0.34
374	0.338
374	0.337
375	0.336
375	0.335
376	0.334
376	0.333
377	0.332
377	0.33
378	0.329
378	0.328
378	0.327
379	0.327
379	0.326
380	0.325
380	0.324
381	0.323
381	0.322
382	0.321
382	0.321
383	0.32
383	0.319
383	0.319
384	0.318
384	0.317
385	0.317
385	0.316
386	0.315
386	0.315
387	0.314
387	0.313
388	0.313
388	0.312
389	0.312
389	0.311
389	0.31
390	0.31
390	0.309
391	0.309
391	0.309
392	0.308
392	0.308
393	0.307
393	0.307
394	0.306
394	0.306
394	0.305
395	0.305
395	0.304
396	0.304
396	0.303
397	0.303
397	0.302
398	0.302
398	0.301
399	0.301
399	0.301
400	0.3
400	0.3
400	0.3
401	0.299
401	0.299
402	0.298
402	0.298
403	0.297
403	0.297
404	0.297
404	0.296
405	0.296
405	0.296
405	0.295
406	0.295
406	0.294
407	0.294
407	0.294
408	0.293
408	0.293
409	0.292
409	0.292
410	0.292
410	0.291
411	0.291
411	0.291
411	0.29
412	0.29
412	0.29
413	0.289
413	0.289
414	0.289
414	0.288
415	0.288
415	0.288
416	0.287
416	0.287
416	0.286
417	0.286
417	0.286
418	0.285
418	0.285
419	0.285
419	0.284
420	0.283
420	0.283
421	0.283
421	0.282
421	0.282
422	0.281
422	0.281
423	0.281
423	0.28
424	0.28
424	0.28
425	0.28
425	0.279
426	0.279
426	0.279
427	0.279
427	0.278
427	0.278
428	0.277
428	0.277
429	0.277
429	0.277
430	0.276
430	0.276
431	0.276
431	0.276
432	0.275
432	0.275
432	0.275
433	0.275
433	0.275
434	0.275
434	0.275
435	0.275
435	0.274
436	0.274
436	0.274
437	0.274
437	0.274
437	0.273
438	0.273
438	0.273
439	0.273
439	0.272
440	0.272
440	0.272
441	0.272
441	0.272
442	0.272
442	0.271
442	0.271
443	0.271
443	0.271
444	0.271
444	0.27
445	0.27
445	0.27
446	0.27
446	0.27
447	0.269
447	0.269
447	0.269
448	0.269
448	0.269
449	0.269
449	0.269
450	0.269
450	0.269
451	0.269
451	0.269
452	0.269
452	0.269
452	0.269
453	0.269
453	0.269
454	0.269
454	0.269
455	0.269
455	0.269
456	0.268
456	0.268
457	0.269
457	0.269
458	0.269
458	0.269
458	0.269
459	0.269
459	0.269
460	0.269
460	0.269
461	0.269
461	0.269
462	0.269
462	0.269
463	0.269
463	0.269
463	0.269
464	0.269
464	0.269
465	0.269
465	0.269
466	0.269
466	0.269
467	0.269
467	0.27
467	0.27
468	0.27
468	0.271
469	0.271
469	0.271
470	0.272
470	0.272
471	0.273
471	0.273
472	0.273
472	0.274
472	0.274
473	0.274
473	0.275
474	0.275
474	0.275
475	0.275
475	0.276
476	0.276
476	0.277
477	0.277
477	0.278
477	0.278
478	0.278
478	0.279
479	0.279
479	0.28
480	0.28
480	0.281
481	0.281
481	0.282
482	0.282
482	0.283
482	0.284
483	0.284
483	0.285
484	0.286
484	0.286
485	0.287
485	0.287
486	0.288
486	0.288
487	0.289
487	0.29
487	0.29
488	0.291
488	0.292
489	0.293
489	0.295
490	0.296
490	0.297
491	0.299
491	0.3
492	0.301
492	0.302
492	0.303
493	0.304
493	0.305
494	0.307
494	0.307
495	0.308
495	0.309
496	0.311
496	0.312
496	0.313
497	0.314
497	0.315
498	0.316
498	0.317
499	0.319
499	0.32
500	0.322
500	0.323
501	0.324
501	0.325
501	0.326
502	0.327
502	0.328
503	0.33
503	0.331
504	0.332
504	0.333
505	0.334
505	0.335
506	0.337
506	0.338
506	0.339
507	0.34
507	0.341
508	0.342
508	0.342
509	0.343
509	0.344
510	0.346
510	0.347
511	0.348
511	0.349
511	0.35
512	0.351
512	0.352
513	0.353
513	0.354
514	0.355
514	0.356
515	0.356
515	0.357
515	0.358
516	0.358
516	0.359
517	0.359
517	0.36
518	0.36
518	0.361
519	0.361
519	0.361
520	0.362
520	0.362
520	0.362
521	0.362
521	0.362
522	0.362
522	0.362
523	0.362
523	0.361
524	0.361
524	0.361
524	0.361
525	0.36
525	0.36
526	0.359
526	0.359
527	0.358
527	0.357
528	0.356
528	0.356
529	0.355
529	0.354
529	0.353
530	0.352
530	0.351
531	0.35
531	0.349
532	0.348
532	0.347
533	0.345
533	0.344
533	0.343
534	0.341
534	0.34
535	0.339
535	0.337
536	0.336
536	0.335
537	0.333
537	0.332
538	0.33
538	0.329
538	0.327
539	0.326
539	0.324
540	0.323
540	0.321
541	0.319
541	0.318
542	0.316
542	0.314
542	0.312
543	0.31
543	0.308
544	0.307
544	0.305
545	0.303
545	0.301
546	0.299
546	0.297
547	0.294
547	0.292
547	0.29
548	0.289
548	0.286
549	0.285
549	0.283
550	0.281
550	0.279
551	0.277
551	0.275
551	0.273
552	0.271
552	0.269
553	0.267
553	0.265
554	0.263
554	0.261
555	0.259
555	0.257
556	0.255
556	0.253
556	0.251
557	0.25
557	0.248
558	0.247
558	0.245
559	0.243
559	0.242
560	0.24
560	0.238
560	0.237
561	0.235
561	0.234
562	0.232
562	0.229
563	0.227
563	0.225
564	0.223
564	0.222
564	0.22
565	0.219
565	0.217
566	0.215
566	0.213
567	0.212
567	0.21
568	0.209
568	0.207
568	0.206
569	0.204
569	0.203
570	0.201
570	0.199
571	0.198
571	0.196
572	0.195
572	0.193
573	0.192
573	0.191
573	0.189
574	0.188
574	0.187
575	0.186
575	0.186
576	0.184
576	0.183
577	0.181
577	0.18
577	0.179
578	0.177
578	0.176
579	0.176
579	0.175
580	0.173
580	0.171
581	0.17
581	0.169
581	0.168
582	0.168
582	0.167
583	0.167
583	0.166
584	0.164
584	0.162
585	0.161
585	0.16
585	0.159
586	0.159
586	0.158
587	0.156
587	0.155
588	0.154
588	0.153
589	0.153
589	0.152
590	0.152
590	0.151
590	0.151
591	0.15
591	0.149
592	0.148
592	0.147
593	0.146
593	0.146
594	0.145
594	0.143
594	0.142
595	0.142
595	0.141
596	0.14
596	0.139
597	0.14
597	0.139
598	0.139
598	0.138
598	0.138
599	0.137
599	0.136
600	0.136
600	0.135
601	0.134
601	0.134
602	0.133
602	0.132
602	0.131
603	0.131
603	0.13
604	0.13
604	0.129
605	0.129
605	0.129
606	0.128
606	0.127
606	0.126
607	0.126
607	0.126
608	0.125
608	0.124
609	0.124
609	0.123
610	0.122
610	0.122
610	0.121
611	0.121
611	0.121
612	0.12
612	0.12
613	0.12
613	0.12
614	0.119
614	0.118
614	0.118
615	0.118
615	0.117
616	0.117
616	0.117
617	0.116
617	0.116
618	0.115
618	0.115
618	0.115
619	0.115
619	0.115
620	0.115
620	0.115
621	0.114
621	0.113
622	0.112
622	0.112
622	0.111
623	0.111
623	0.111
624	0.11
624	0.109
625	0.109
625	0.109
626	0.109
626	0.109
626	0.109
627	0.108
627	0.108
628	0.108
628	0.107
629	0.107
629	0.106
630	0.106
630	0.105
630	0.105
631	0.105
631	0.104
632	0.104
632	0.103
633	0.103
633	0.102
634	0.103
634	0.103
634	0.102
635	0.102
635	0.102
636	0.102
636	0.102
637	0.102
637	0.101
638	0.101
638	0.101
638	0.1
639	0.099
639	0.099
640	0.099
640	0.099
641	0.098
641	0.098
642	0.097
642	0.097
642	0.098
643	0.097
643	0.097
644	0.098
644	0.097
645	0.097
645	0.097
646	0.097
646	0.096
646	0.096
647	0.096
647	0.095
648	0.094
648	0.094
649	0.093
649	0.093
650	0.092
650	0.092
650	0.092
651	0.092
651	0.092
652	0.092
652	0.092
653	0.093
653	0.094
653	0.1
654	0.081
654	0.066
655	0.063
655	0.063
656	0.063
656	0.064
657	0.064
657	0.064
657	0.064
658	0.063
658	0.056
659	0.069
659	0.087
660	0.093
660	0.093
661	0.093
661	0.092
661	0.092
662	0.092
662	0.091
663	0.091
663	0.091
664	0.09
664	0.09
665	0.089
665	0.089
665	0.089
666	0.088
666	0.088
667	0.088
667	0.088
668	0.089
668	0.088
669	0.089
669	0.089
669	0.089
670	0.089
670	0.089
671	0.089
671	0.089
672	0.088
672	0.087
672	0.087
673	0.086
673	0.086
674	0.086
674	0.085
675	0.085
675	0.085
676	0.085
676	0.085
676	0.085
677	0.086
677	0.086
678	0.086
678	0.085
679	0.085
679	0.085
680	0.085
680	0.084
680	0.084
681	0.084
681	0.084
682	0.084
682	0.084
683	0.084
683	0.084
684	0.085
684	0.084
684	0.084
685	0.084
685	0.085
686	0.085
686	0.085
687	0.084
687	0.084
687	0.084
688	0.084
688	0.084
689	0.085
689	0.085
690	0.085
690	0.084
691	0.084
691	0.084
691	0.084
692	0.084
692	0.084
693	0.084
693	0.084
694	0.084
694	0.083
695	0.084
695	0.085
695	0.085
696	0.085
696	0.085
697	0.084
697	0.084
698	0.083
698	0.083
698	0.083
699	0.083
699	0.082
700	0.082
700	0.081
701	0.081
701	0.081
702	0.08
702	0.08
702	0.08
703	0.08
703	0.08
704	0.08
704	0.079
705	0.079
705	0.079
705	0.079
706	0.079
706	0.079
707	0.079
707	0.079
708	0.079
708	0.079
709	0.079
709	0.078
709	0.078
710	0.078
710	0.078
711	0.079
711	0.079
712	0.079
712	0.079
713	0.079
713	0.079
713	0.079
714	0.079
714	0.079
715	0.079
715	0.078
716	0.077
716	0.077
716	0.076
717	0.075
717	0.075
718	0.074
718	0.074
719	0.074
719	0.074
720	0.074
720	0.074
720	0.075
721	0.075
721	0.076
722	0.076
722	0.077
723	0.077
723	0.077
723	0.077
724	0.077
724	0.077
725	0.076
725	0.075
726	0.075
726	0.074
727	0.074
727	0.074
727	0.073
728	0.073
728	0.073
729	0.073
729	0.073
730	0.072
730	0.072
730	0.073
731	0.073
731	0.073
732	0.074
732	0.074
733	0.074
733	0.074
734	0.074
734	0.074
734	0.075
735	0.075
735	0.075
736	0.074
736	0.074
737	0.074
737	0.074
737	0.073
738	0.073
738	0.072
739	0.072
739	0.071
740	0.07
740	0.07
741	0.07
741	0.07
741	0.07
742	0.07
742	0.07
743	0.071
743	0.072
744	0.072
744	0.073
744	0.073
745	0.073
745	0.073
746	0.073
746	0.073
747	0.072
747	0.072
748	0.071
748	0.071
748	0.071
749	0.071
749	0.071
750	0.071
750	0.071
751	0.071
751	0.071
751	0.071
752	0.071
752	0.07
753	0.07
753	0.069
754	0.069
754	0.068
754	0.068
755	0.068
755	0.068
756	0.067
756	0.066
757	0.066
757	0.066
758	0.066
758	0.066
758	0.066
759	0.067
759	0.066
760	0.066
760	0.066
761	0.066
761	0.066
761	0.066
762	0.066
762	0.066
763	0.065
763	0.065
764	0.064
764	0.064
764	0.064
765	0.063
765	0.063
766	0.063
766	0.063
767	0.062
767	0.062
768	0.061
768	0.062
768	0.062
769	0.062
769	0.063
770	0.063
770	0.063
771	0.064
771	0.064
771	0.064
772	0.064
772	0.065
773	0.065
773	0.065
774	0.065
774	0.065
775	0.065
775	0.065
775	0.065
776	0.065
776	0.065
777	0.066
777	0.066
778	0.066
778	0.065
778	0.065
779	0.065
779	0.065
780	0.064
780	0.064
781	0.063
781	0.063
781	0.063
782	0.063
782	0.062
783	0.063
783	0.063
784	0.063
784	0.063
784	0.063
785	0.063
785	0.063
786	0.063
786	0.062
787	0.062
787	0.061
788	0.06
788	0.059
788	0.058
789	0.057
789	0.057
790	0.057
790	0.056
791	0.056
791	0.056
791	0.056
792	0.057
792	0.057
793	0.057
793	0.057
794	0.057
794	0.057
794	0.056
795	0.057
795	0.057
796	0.057
796	0.056
797	0.056
797	0.056
797	0.056
798	0.055
798	0.056
799	0.055
799	0.055
800	0.055
800	0.055
801	0.055
801	0.055
801	0.055
802	0.055
802	0.056
803	0.056
803	0.056
804	0.056
804	0.057
804	0.057
805	0.056
805	0.056
806	0.056
806	0.056
807	0.056
807	0.056
807	0.056
808	0.056
808	0.056
809	0.056
809	0.057
810	0.057
810	0.057
810	0.057
811	0.057
811	0.058
812	0.058
812	0.058
813	0.058
813	0.058
813	0.058
814	0.058
814	0.059
815	0.059
815	0.059
816	0.058
816	0.058
817	0.057
817	0.057
817	0.056
818	0.056
818	0.055
819	0.055
819	0.054
820	0.053
820	0.052
820	0.052
821	0.051
821	0.051
822	0.051
822	0.051
823	0.051
823	0.051
823	0.052
824	0.052
824	0.054
825	0.055
825	0.055
826	0.056
826	0.056
826	0.057
827	0.057
827	0.058
828	0.058
828	0.058
829	0.058
829	0.058
829	0.058
830	0.059
830	0.059
831	0.06
831	0.06
832	0.06
832	0.06
832	0.06
833	0.059
833	0.059
834	0.058
834	0.057
835	0.056
835	0.055
835	0.055
836	0.054
836	0.053
837	0.053
837	0.053
838	0.052
838	0.052
839	0.052
839	0.051
839	0.051
840	0.05
840	0.05
841	0.049
841	0.049
842	0.048
842	0.047
842	0.047
843	0.046
843	0.045
844	0.045
844	0.044
845	0.044
845	0.043
845	0.043
846	0.043
846	0.043
847	0.043
847	0.044
848	0.044
848	0.044
848	0.045
849	0.045
849	0.046
850	0.046
850	0.047
851	0.047
851	0.048
851	0.048
852	0.047
852	0.047
853	0.047
853	0.047
854	0.047
854	0.048
854	0.048
855	0.049
855	0.049
856	0.049
856	0.05
857	0.051
857	0.051
857	0.052
858	0.052
858	0.052
859	0.052
859	0.051
860	0.051
860	0.051
860	0.051
861	0.051
861	0.05
862	0.049
862	0.048
863	0.047
863	0.047
863	0.046
864	0.046
864	0.046
865	0.045
865	0.045
866	0.045
866	0.045
866	0.045
867	0.046
867	0.047
868	0.047
868	0.048
869	0.048
869	0.048
869	0.048
870	0.048
870	0.048
871	0.048
871	0.048
872	0.048
872	0.047
872	0.047
873	0.047
873	0.047
874	0.046
874	0.047
875	0.047
875	0.047
875	0.047
876	0.047
876	0.046
877	0.046
877	0.046
878	0.046
878	0.046
878	0.046
879	0.046
879	0.046
880	0.046
880	0.046
881	0.046
881	0.047
881	0.047
882	0.047
882	0.047
883	0.047
883	0.047
884	0.047
884	0.047
884	0.047
885	0.047
885	0.046
886	0.046
886	0.046
887	0.045
887	0.045
887	0.044
888	0.044
888	0.043
889	0.043
889	0.043
890	0.043
890	0.044
890	0.044
891	0.044
891	0.044
892	0.044
892	0.044
893	0.044
893	0.044
893	0.044
894	0.044
894	0.044
895	0.043
895	0.043
895	0.043
896	0.043
896	0.043
897	0.043
897	0.043
898	0.043
898	0.043
898	0.043
899	0.043
899	0.043
900	0.043
900	0.043
901	0.043
901	0.042
901	0.042
902	0.042
902	0.042
903	0.041
903	0.041
904	0.041
904	0.041
904	0.041
905	0.04
905	0.04
906	0.04
906	0.04
907	0.04
907	0.04
907	0.041
908	0.041
908	0.041
909	0.041
909	0.041
910	0.041
910	0.041
910	0.041
911	0.04
911	0.04
912	0.039
912	0.039
913	0.039
913	0.038
913	0.038
914	0.038
914	0.038
915	0.038
915	0.038
916	0.038
916	0.038
916	0.038
917	0.038
917	0.038
918	0.037
918	0.037
918	0.037
919	0.037
919	0.036
920	0.036
920	0.036
921	0.036
921	0.036
921	0.036
922	0.036
922	0.037
923	0.037
923	0.037
924	0.038
924	0.038
924	0.038
925	0.039
925	0.039
926	0.039
926	0.04
927	0.041
927	0.041
927	0.041
928	0.042
928	0.042
929	0.043
929	0.043
930	0.043
930	0.043
930	0.044
931	0.044
931	0.044
932	0.044
932	0.044
933	0.044
933	0.044
933	0.044
934	0.044
934	0.043
935	0.043
935	0.043
935	0.042
936	0.041
936	0.04
937	0.04
937	0.039
938	0.038
938	0.037
938	0.036
939	0.035
939	0.034
940	0.034
940	0.034
941	0.034
941	0.034
941	0.034
942	0.035
942	0.035
943	0.036
943	0.036
944	0.037
944	0.037
944	0.038
945	0.038
945	0.038
946	0.039
946	0.039
946	0.039
947	0.039
947	0.038
948	0.038
948	0.038
949	0.038
949	0.037
949	0.037
950	0.037
950	0.037
951	0.036
951	0.036
952	0.036
952	0.036
952	0.036
953	0.036
953	0.036
954	0.036
954	0.036
955	0.037
955	0.037
955	0.038
956	0.039
956	0.039
957	0.04
957	0.041
957	0.041
958	0.042
958	0.042
959	0.043
959	0.043
960	0.043
960	0.043
960	0.044
961	0.043
961	0.043
962	0.043
962	0.043
963	0.043
963	0.043
963	0.042
964	0.042
964	0.042
965	0.042
965	0.042
966	0.042
966	0.042
966	0.042
967	0.042
967	0.042
968	0.042
968	0.042
968	0.042
969	0.041
969	0.041
970	0.04
970	0.039
971	0.038
971	0.037
971	0.036
972	0.035
972	0.034
973	0.034
973	0.033
974	0.033
974	0.033
974	0.034
975	0.034
975	0.035
976	0.036
976	0.037
976	0.037
977	0.037
977	0.038
978	0.038
978	0.038
979	0.038
979	0.038
979	0.038
980	0.038
980	0.038
981	0.037
981	0.037
982	0.037
982	0.037
982	0.037
983	0.037
983	0.037
984	0.037
984	0.037
984	0.036
985	0.036
985	0.037
986	0.036
986	0.037
987	0.037
987	0.037
987	0.037
988	0.037
988	0.037
989	0.037
989	0.037
990	0.037
990	0.037
990	0.037
991	0.037
991	0.037
992	0.036
992	0.035
992	0.035
993	0.034
993	0.033
994	0.032
994	0.032
995	0.031
995	0.03
995	0.03
996	0.03
996	0.03
997	0.03
997	0.03
997	0.031
998	0.031
998	0.032
999	0.032
999	0.033
1000	0.034
1000	0.034
1000	0.035
1001	0.035
1001	0.035
1002	0.035
1002	0.035
1003	0.035
1003	0.034
1003	0.033
1004	0.033
1004	0.031
1005	0.031
1005	0.03
1005	0.029
1006	0.028
1006	0.027
1007	0.027
1007	0.026
1008	0.026
1008	0.026
1008	0.026
1009	0.026
1009	0.026
1010	0.026
1010	0.027
1010	0.027
1011	0.027
1011	0.027
1012	0.027
1012	0.027
1013	0.027
1013	0.027
1013	0.027
1014	0.027
1014	0.027
1015	0.027
1015	0.027
1016	0.027
1016	0.027
1016	0.027
1017	0.027
1017	0.027
1018	0.027
1018	0.026
1018	0.026
1019	0.026
1019	0.026
1020	0.026
1020	0.026
1021	0.027
1021	0.027
1021	0.027
1022	0.027
1022	0.027
1023	0.028
1023	0.028
1023	0.029
1024	0.029
1024	0.029
1025	0.029
1025	0.029
1026	0.029
1026	0.029
1026	0.029
1027	0.03
1027	0.03
1028	0.03
1028	0.03
1028	0.03
1029	0.03
1029	0.03
1030	0.031
1030	0.031
1031	0.031
1031	0.032
1031	0.032
1032	0.032
1032	0.033
1033	0.033
1033	0.033
1033	0.034
1034	0.034
1034	0.034
1035	0.034
1035	0.033
1036	0.034
1036	0.034
1036	0.034
1037	0.034
1037	0.033
1038	0.033
1038	0.033
1039	0.033
1039	0.033
1039	0.034
1040	0.034
1040	0.034
1041	0.034
1041	0.034
1041	0.034
1042	0.033
1042	0.033
1043	0.033
1043	0.033
1044	0.032
1044	0.032
1044	0.032
1045	0.032
1045	0.031
1046	0.031
1046	0.031
1046	0.031
1047	0.031
1047	0.031
1048	0.031
1048	0.032
1049	0.032
1049	0.032
1049	0.032
1050	0.032
1050	0.032
1051	0.032
1051	0.032
1051	0.031
1052	0.031
1052	0.03
1053	0.029
1053	0.029
1053	0.028
1054	0.027
1054	0.027
1055	0.027
1055	0.026
1056	0.025
1056	0.025
1056	0.024
1057	0.023
1057	0.023
1058	0.022
1058	0.021
1058	0.02
1059	0.02
1059	0.02
1060	0.019
1060	0.019
1061	0.018
1061	0.018
1061	0.018
1062	0.018
1062	0.018
1063	0.018
1063	0.018
1063	0.018
1064	0.017
1064	0.017
1065	0.017
1065	0.017
1066	0.017
1066	0.017
1066	0.017
1067	0.017
1067	0.017
1068	0.017
1068	0.017
1068	0.017
1069	0.017
1069	0.017
1070	0.017
1070	0.018
1071	0.017
1071	0.017
1071	0.017
1072	0.017
1072	0.017
1073	0.017
1073	0.017
1073	0.017
1074	0.017
1074	0.017
1075	0.017
1075	0.018
1076	0.018
1076	0.019
1076	0.019
1077	0.019
1077	0.02
1078	0.02
1078	0.02
1078	0.02
1079	0.02
1079	0.019
1080	0.019
1080	0.019
1080	0.019
1081	0.018
1081	0.018
1082	0.018
1082	0.019
1083	0.018
1083	0.019
1083	0.019
1084	0.019
1084	0.02
1085	0.02
1085	0.02
1085	0.021
1086	0.021
1086	0.021
1087	0.02
1087	0.02
1088	0.02
1088	0.02
1088	0.021
1089	0.02
1089	0.019
1090	0.018
1090	0.017
1090	0.017
1091	0.016
1091	0.016
1092	0.015
1092	0.015
1092	0.015
1093	0.014
1093	0.015
1094	0.015
1094	0.015
1095	0.015
1095	0.014
1095	0.014
1096	0.013
1096	0.013
1097	0.013
1097	0.012
1097	0.012
1098	0.011
1098	0.01
1099	0.01
1099	0.009
1100	0.009
1100	0.008
1100	0.007
1101	0.006
1101	0.006
1102	0.005
1102	0.004
1102	0.002
1103	0.002
1103	0.002
1104	0.001
1104	0
1104	-0
1105	-0
1105	-0.002
1106	-0.003
1106	-0.004
1107	-0.005
1107	-0.005
1107	-0.005
1108	-0.006
1108	-0.006
1109	-0.007
1109	-0.008
1109	-0.007
1110	-0.006
1110	-0.005
1111	-0.006
1111	-0.005
